Time,ECG
2021-12-23 14:54:06.209396,-72
2021-12-23 14:54:06.209412,-108
2021-12-23 14:54:06.209418,-125
2021-12-23 14:54:06.209422,-132
2021-12-23 14:54:06.209426,-129
2021-12-23 14:54:06.209431,-127
2021-12-23 14:54:06.209435,-122
2021-12-23 14:54:06.209440,-117
2021-12-23 14:54:06.209444,-115
2021-12-23 14:54:06.209449,-110
2021-12-23 14:54:06.209453,-105
2021-12-23 14:54:06.209457,-105
2021-12-23 14:54:06.209462,-103
2021-12-23 14:54:06.209466,-96
2021-12-23 14:54:06.209471,-88
2021-12-23 14:54:06.209475,-84
2021-12-23 14:54:06.209479,-79
2021-12-23 14:54:06.209497,-72
2021-12-23 14:54:06.209501,-64
2021-12-23 14:54:06.209505,-60
2021-12-23 14:54:06.209509,-52
2021-12-23 14:54:06.209513,-48
2021-12-23 14:54:06.209517,-48
2021-12-23 14:54:06.209522,-45
2021-12-23 14:54:06.209526,-45
2021-12-23 14:54:06.209530,-43
2021-12-23 14:54:06.209534,-40
2021-12-23 14:54:06.209538,-38
2021-12-23 14:54:06.209542,-36
2021-12-23 14:54:06.209546,-36
2021-12-23 14:54:06.361714,-33
2021-12-23 14:54:06.361729,-26
2021-12-23 14:54:06.361735,-24
2021-12-23 14:54:06.361739,-24
2021-12-23 14:54:06.361744,-26
2021-12-23 14:54:06.361748,-26
2021-12-23 14:54:06.361754,-21
2021-12-23 14:54:06.361758,-16
2021-12-23 14:54:06.361763,-16
2021-12-23 14:54:06.361767,-19
2021-12-23 14:54:06.361772,-28
2021-12-23 14:54:06.361776,-33
2021-12-23 14:54:06.361780,-31
2021-12-23 14:54:06.361785,-19
2021-12-23 14:54:06.361789,-9
2021-12-23 14:54:06.361794,-2
2021-12-23 14:54:06.361828,9
2021-12-23 14:54:06.361834,26
2021-12-23 14:54:06.361838,26
2021-12-23 14:54:06.361843,16
2021-12-23 14:54:06.361847,7
2021-12-23 14:54:06.361852,0
2021-12-23 14:54:06.361856,2
2021-12-23 14:54:06.361861,7
2021-12-23 14:54:06.361865,7
2021-12-23 14:54:06.361869,7
2021-12-23 14:54:06.361874,12
2021-12-23 14:54:06.361878,14
2021-12-23 14:54:06.361883,16
2021-12-23 14:54:06.361888,21
2021-12-23 14:54:06.542993,28
2021-12-23 14:54:06.543025,43
2021-12-23 14:54:06.543036,165
2021-12-23 14:54:06.543047,497
2021-12-23 14:54:06.543057,1010
2021-12-23 14:54:06.543067,1368
2021-12-23 14:54:06.543077,786
2021-12-23 14:54:06.543087,-336
2021-12-23 14:54:06.543097,-452
2021-12-23 14:54:06.543107,55
2021-12-23 14:54:06.543117,-24
2021-12-23 14:54:06.543126,-204
2021-12-23 14:54:06.543136,-60
2021-12-23 14:54:06.543152,-24
2021-12-23 14:54:06.543163,-91
2021-12-23 14:54:06.543172,-55
2021-12-23 14:54:06.543182,-24
2021-12-23 14:54:06.543192,-38
2021-12-23 14:54:06.543202,-26
2021-12-23 14:54:06.543212,-4
2021-12-23 14:54:06.543222,-2
2021-12-23 14:54:06.543232,2
2021-12-23 14:54:06.543242,16
2021-12-23 14:54:06.543252,28
2021-12-23 14:54:06.543261,43
2021-12-23 14:54:06.543271,60
2021-12-23 14:54:06.543281,74
2021-12-23 14:54:06.543291,88
2021-12-23 14:54:06.543301,108
2021-12-23 14:54:06.543312,134
2021-12-23 14:54:06.812251,165
2021-12-23 14:54:06.812275,197
2021-12-23 14:54:06.812284,230
2021-12-23 14:54:06.812291,264
2021-12-23 14:54:06.812298,290
2021-12-23 14:54:06.812304,322
2021-12-23 14:54:06.812311,346
2021-12-23 14:54:06.812317,363
2021-12-23 14:54:06.812325,365
2021-12-23 14:54:06.812332,341
2021-12-23 14:54:06.812342,276
2021-12-23 14:54:06.812348,189
2021-12-23 14:54:06.812355,96
2021-12-23 14:54:06.812361,9
2021-12-23 14:54:06.812368,-62
2021-12-23 14:54:06.812374,-105
2021-12-23 14:54:06.812381,-122
2021-12-23 14:54:06.812392,-127
2021-12-23 14:54:06.812402,-125
2021-12-23 14:54:06.812409,-117
2021-12-23 14:54:06.812415,-113
2021-12-23 14:54:06.812422,-110
2021-12-23 14:54:06.812428,-103
2021-12-23 14:54:06.812434,-91
2021-12-23 14:54:06.812441,-86
2021-12-23 14:54:06.812447,-79
2021-12-23 14:54:06.812455,-72
2021-12-23 14:54:06.812464,-69
2021-12-23 14:54:06.812471,-64
2021-12-23 14:54:06.812477,-60
2021-12-23 14:54:07.082178,-52
2021-12-23 14:54:07.082208,-50
2021-12-23 14:54:07.082220,-50
2021-12-23 14:54:07.082230,-48
2021-12-23 14:54:07.082240,-43
2021-12-23 14:54:07.082250,-43
2021-12-23 14:54:07.082259,-38
2021-12-23 14:54:07.082278,-36
2021-12-23 14:54:07.082288,-38
2021-12-23 14:54:07.082298,-45
2021-12-23 14:54:07.082308,-48
2021-12-23 14:54:07.082318,-48
2021-12-23 14:54:07.082327,-45
2021-12-23 14:54:07.082337,-43
2021-12-23 14:54:07.082347,-45
2021-12-23 14:54:07.082357,-50
2021-12-23 14:54:07.082366,-50
2021-12-23 14:54:07.082376,-45
2021-12-23 14:54:07.082386,-38
2021-12-23 14:54:07.082396,-38
2021-12-23 14:54:07.082406,-36
2021-12-23 14:54:07.082416,-33
2021-12-23 14:54:07.082425,-31
2021-12-23 14:54:07.082435,-28
2021-12-23 14:54:07.082445,-31
2021-12-23 14:54:07.082455,-33
2021-12-23 14:54:07.082465,-33
2021-12-23 14:54:07.082474,-26
2021-12-23 14:54:07.082484,-14
2021-12-23 14:54:07.082495,-2
2021-12-23 14:54:07.262403,9
2021-12-23 14:54:07.262425,24
2021-12-23 14:54:07.262433,28
2021-12-23 14:54:07.262459,16
2021-12-23 14:54:07.262469,4
2021-12-23 14:54:07.262479,0
2021-12-23 14:54:07.262489,0
2021-12-23 14:54:07.262499,2
2021-12-23 14:54:07.262508,0
2021-12-23 14:54:07.262518,2
2021-12-23 14:54:07.262528,4
2021-12-23 14:54:07.262538,9
2021-12-23 14:54:07.262548,12
2021-12-23 14:54:07.262557,14
2021-12-23 14:54:07.262567,14
2021-12-23 14:54:07.262577,16
2021-12-23 14:54:07.262587,93
2021-12-23 14:54:07.262596,360
2021-12-23 14:54:07.262606,836
2021-12-23 14:54:07.262616,1317
2021-12-23 14:54:07.262625,1058
2021-12-23 14:54:07.262635,-76
2021-12-23 14:54:07.262645,-567
2021-12-23 14:54:07.262655,-62
2021-12-23 14:54:07.262672,55
2021-12-23 14:54:07.262682,-192
2021-12-23 14:54:07.262692,-108
2021-12-23 14:54:07.262701,-7
2021-12-23 14:54:07.262711,-79
2021-12-23 14:54:07.262721,-69
2021-12-23 14:54:07.487304,-14
2021-12-23 14:54:07.487328,-26
2021-12-23 14:54:07.487337,-28
2021-12-23 14:54:07.487344,-2
2021-12-23 14:54:07.487356,4
2021-12-23 14:54:07.487368,7
2021-12-23 14:54:07.487378,21
2021-12-23 14:54:07.487385,31
2021-12-23 14:54:07.487391,38
2021-12-23 14:54:07.487398,52
2021-12-23 14:54:07.487404,69
2021-12-23 14:54:07.487410,84
2021-12-23 14:54:07.487417,103
2021-12-23 14:54:07.487423,122
2021-12-23 14:54:07.487429,146
2021-12-23 14:54:07.487436,177
2021-12-23 14:54:07.487442,206
2021-12-23 14:54:07.487448,242
2021-12-23 14:54:07.487455,278
2021-12-23 14:54:07.487461,307
2021-12-23 14:54:07.487467,329
2021-12-23 14:54:07.487474,346
2021-12-23 14:54:07.487482,353
2021-12-23 14:54:07.487489,343
2021-12-23 14:54:07.487495,298
2021-12-23 14:54:07.487503,216
2021-12-23 14:54:07.487515,120
2021-12-23 14:54:07.487527,31
2021-12-23 14:54:07.487538,-38
2021-12-23 14:54:07.487546,-86
2021-12-23 14:54:07.712157,-115
2021-12-23 14:54:07.712176,-125
2021-12-23 14:54:07.712184,-122
2021-12-23 14:54:07.712191,-122
2021-12-23 14:54:07.712197,-115
2021-12-23 14:54:07.712203,-108
2021-12-23 14:54:07.712209,-105
2021-12-23 14:54:07.712216,-101
2021-12-23 14:54:07.712222,-93
2021-12-23 14:54:07.712228,-88
2021-12-23 14:54:07.712235,-81
2021-12-23 14:54:07.712241,-74
2021-12-23 14:54:07.712247,-72
2021-12-23 14:54:07.712254,-67
2021-12-23 14:54:07.712260,-60
2021-12-23 14:54:07.712266,-55
2021-12-23 14:54:07.712272,-50
2021-12-23 14:54:07.712279,-45
2021-12-23 14:54:07.712285,-40
2021-12-23 14:54:07.712291,-38
2021-12-23 14:54:07.712298,-38
2021-12-23 14:54:07.712304,-40
2021-12-23 14:54:07.712310,-43
2021-12-23 14:54:07.712316,-45
2021-12-23 14:54:07.712327,-45
2021-12-23 14:54:07.712334,-43
2021-12-23 14:54:07.712340,-43
2021-12-23 14:54:07.712346,-43
2021-12-23 14:54:07.712353,-40
2021-12-23 14:54:07.712359,-38
2021-12-23 14:54:07.937421,-38
2021-12-23 14:54:07.937443,-36
2021-12-23 14:54:07.937451,-31
2021-12-23 14:54:07.937457,-31
2021-12-23 14:54:07.937464,-28
2021-12-23 14:54:07.937470,-31
2021-12-23 14:54:07.937476,-31
2021-12-23 14:54:07.937483,-31
2021-12-23 14:54:07.937489,-33
2021-12-23 14:54:07.937496,-36
2021-12-23 14:54:07.937502,-36
2021-12-23 14:54:07.937508,-28
2021-12-23 14:54:07.937515,-16
2021-12-23 14:54:07.937521,-7
2021-12-23 14:54:07.937527,7
2021-12-23 14:54:07.937534,16
2021-12-23 14:54:07.937540,16
2021-12-23 14:54:07.937547,4
2021-12-23 14:54:07.937553,-7
2021-12-23 14:54:07.937559,-9
2021-12-23 14:54:07.937566,-7
2021-12-23 14:54:07.937572,-7
2021-12-23 14:54:07.937579,-12
2021-12-23 14:54:07.937585,-12
2021-12-23 14:54:07.937591,-7
2021-12-23 14:54:07.937598,-7
2021-12-23 14:54:07.937604,-4
2021-12-23 14:54:07.937611,0
2021-12-23 14:54:07.937617,4
2021-12-23 14:54:07.937624,24
2021-12-23 14:54:08.162445,165
2021-12-23 14:54:08.162476,521
2021-12-23 14:54:08.162487,1058
2021-12-23 14:54:08.162498,1356
2021-12-23 14:54:08.162507,644
2021-12-23 14:54:08.162517,-440
2021-12-23 14:54:08.162527,-418
2021-12-23 14:54:08.162537,67
2021-12-23 14:54:08.162547,-64
2021-12-23 14:54:08.162556,-202
2021-12-23 14:54:08.162567,-50
2021-12-23 14:54:08.162577,-43
2021-12-23 14:54:08.162586,-101
2021-12-23 14:54:08.162596,-52
2021-12-23 14:54:08.162606,-21
2021-12-23 14:54:08.162615,-40
2021-12-23 14:54:08.162625,-28
2021-12-23 14:54:08.162635,-9
2021-12-23 14:54:08.162645,-4
2021-12-23 14:54:08.162655,4
2021-12-23 14:54:08.162664,21
2021-12-23 14:54:08.162674,33
2021-12-23 14:54:08.162684,43
2021-12-23 14:54:08.162693,57
2021-12-23 14:54:08.162703,72
2021-12-23 14:54:08.162712,88
2021-12-23 14:54:08.162722,105
2021-12-23 14:54:08.162732,127
2021-12-23 14:54:08.162741,156
2021-12-23 14:54:08.162751,189
2021-12-23 14:54:08.476415,228
2021-12-23 14:54:08.476435,264
2021-12-23 14:54:08.476443,298
2021-12-23 14:54:08.476450,322
2021-12-23 14:54:08.476456,341
2021-12-23 14:54:08.476463,353
2021-12-23 14:54:08.476469,355
2021-12-23 14:54:08.476476,329
2021-12-23 14:54:08.476482,266
2021-12-23 14:54:08.476488,173
2021-12-23 14:54:08.476498,72
2021-12-23 14:54:08.476504,-7
2021-12-23 14:54:08.476511,-62
2021-12-23 14:54:08.476517,-105
2021-12-23 14:54:08.476524,-127
2021-12-23 14:54:08.476530,-129
2021-12-23 14:54:08.476537,-129
2021-12-23 14:54:08.476543,-129
2021-12-23 14:54:08.476550,-120
2021-12-23 14:54:08.476556,-113
2021-12-23 14:54:08.476563,-108
2021-12-23 14:54:08.476569,-98
2021-12-23 14:54:08.476575,-91
2021-12-23 14:54:08.476582,-93
2021-12-23 14:54:08.476588,-88
2021-12-23 14:54:08.476595,-72
2021-12-23 14:54:08.476601,-67
2021-12-23 14:54:08.476607,-76
2021-12-23 14:54:08.476614,-79
2021-12-23 14:54:08.476620,-67
2021-12-23 14:54:08.657364,-60
2021-12-23 14:54:08.657396,-55
2021-12-23 14:54:08.657404,-50
2021-12-23 14:54:08.657411,-55
2021-12-23 14:54:08.657417,-60
2021-12-23 14:54:08.657424,-57
2021-12-23 14:54:08.657430,-55
2021-12-23 14:54:08.657437,-52
2021-12-23 14:54:08.657443,-48
2021-12-23 14:54:08.657450,-57
2021-12-23 14:54:08.657456,-60
2021-12-23 14:54:08.657463,-57
2021-12-23 14:54:08.657469,-55
2021-12-23 14:54:08.657476,-48
2021-12-23 14:54:08.657482,-45
2021-12-23 14:54:08.657489,-55
2021-12-23 14:54:08.657495,-55
2021-12-23 14:54:08.657502,-43
2021-12-23 14:54:08.657508,-38
2021-12-23 14:54:08.657515,-40
2021-12-23 14:54:08.657521,-43
2021-12-23 14:54:08.657527,-48
2021-12-23 14:54:08.657534,-50
2021-12-23 14:54:08.657540,-48
2021-12-23 14:54:08.657547,-43
2021-12-23 14:54:08.657556,-31
2021-12-23 14:54:08.657563,-16
2021-12-23 14:54:08.657569,-7
2021-12-23 14:54:08.657576,4
2021-12-23 14:54:08.657582,7
2021-12-23 14:54:08.882836,-2
2021-12-23 14:54:08.882858,-12
2021-12-23 14:54:08.882866,-14
2021-12-23 14:54:08.882872,-24
2021-12-23 14:54:08.882899,-26
2021-12-23 14:54:08.882908,-14
2021-12-23 14:54:08.882918,-14
2021-12-23 14:54:08.882928,-16
2021-12-23 14:54:08.882938,-12
2021-12-23 14:54:08.882947,-9
2021-12-23 14:54:08.882957,-7
2021-12-23 14:54:08.882967,4
2021-12-23 14:54:08.882976,9
2021-12-23 14:54:08.882986,64
2021-12-23 14:54:08.882996,317
2021-12-23 14:54:08.883006,783
2021-12-23 14:54:08.883015,1276
2021-12-23 14:54:08.883025,1096
2021-12-23 14:54:08.883034,-2
2021-12-23 14:54:08.883044,-584
2021-12-23 14:54:08.883054,-117
2021-12-23 14:54:08.883064,55
2021-12-23 14:54:08.883073,-192
2021-12-23 14:54:08.883083,-129
2021-12-23 14:54:08.883093,-16
2021-12-23 14:54:08.883102,-86
2021-12-23 14:54:08.883112,-91
2021-12-23 14:54:08.883121,-26
2021-12-23 14:54:08.883131,-28
2021-12-23 14:54:08.883141,-38
2021-12-23 14:54:09.151543,-16
2021-12-23 14:54:09.151573,-7
2021-12-23 14:54:09.151585,-2
2021-12-23 14:54:09.151595,9
2021-12-23 14:54:09.151605,19
2021-12-23 14:54:09.151615,24
2021-12-23 14:54:09.151625,43
2021-12-23 14:54:09.151634,64
2021-12-23 14:54:09.151644,74
2021-12-23 14:54:09.151653,88
2021-12-23 14:54:09.151664,117
2021-12-23 14:54:09.151673,149
2021-12-23 14:54:09.151683,185
2021-12-23 14:54:09.151693,218
2021-12-23 14:54:09.151702,247
2021-12-23 14:54:09.151712,288
2021-12-23 14:54:09.151727,327
2021-12-23 14:54:09.151737,353
2021-12-23 14:54:09.151747,370
2021-12-23 14:54:09.151757,379
2021-12-23 14:54:09.151766,367
2021-12-23 14:54:09.151776,317
2021-12-23 14:54:09.151786,226
2021-12-23 14:54:09.151795,117
2021-12-23 14:54:09.151805,24
2021-12-23 14:54:09.151814,-55
2021-12-23 14:54:09.151824,-113
2021-12-23 14:54:09.151834,-132
2021-12-23 14:54:09.151843,-139
2021-12-23 14:54:09.151853,-149
2021-12-23 14:54:09.377439,-144
2021-12-23 14:54:09.377471,-134
2021-12-23 14:54:09.377483,-125
2021-12-23 14:54:09.377493,-117
2021-12-23 14:54:09.377503,-117
2021-12-23 14:54:09.377514,-125
2021-12-23 14:54:09.377523,-117
2021-12-23 14:54:09.377533,-105
2021-12-23 14:54:09.377543,-98
2021-12-23 14:54:09.377553,-91
2021-12-23 14:54:09.377563,-79
2021-12-23 14:54:09.377572,-74
2021-12-23 14:54:09.377582,-72
2021-12-23 14:54:09.377592,-64
2021-12-23 14:54:09.377602,-55
2021-12-23 14:54:09.377612,-52
2021-12-23 14:54:09.377622,-55
2021-12-23 14:54:09.377632,-52
2021-12-23 14:54:09.377641,-55
2021-12-23 14:54:09.377651,-57
2021-12-23 14:54:09.377661,-57
2021-12-23 14:54:09.377671,-57
2021-12-23 14:54:09.377680,-55
2021-12-23 14:54:09.377690,-48
2021-12-23 14:54:09.377700,-45
2021-12-23 14:54:09.377710,-50
2021-12-23 14:54:09.377720,-48
2021-12-23 14:54:09.377730,-43
2021-12-23 14:54:09.377739,-40
2021-12-23 14:54:09.377749,-38
2021-12-23 14:54:09.557158,-43
2021-12-23 14:54:09.557178,-50
2021-12-23 14:54:09.557186,-45
2021-12-23 14:54:09.557192,-36
2021-12-23 14:54:09.557199,-26
2021-12-23 14:54:09.557205,-16
2021-12-23 14:54:09.557211,-4
2021-12-23 14:54:09.557217,4
2021-12-23 14:54:09.557224,2
2021-12-23 14:54:09.557230,-12
2021-12-23 14:54:09.557237,-24
2021-12-23 14:54:09.557243,-26
2021-12-23 14:54:09.557249,-28
2021-12-23 14:54:09.557261,-26
2021-12-23 14:54:09.557267,-26
2021-12-23 14:54:09.557274,-21
2021-12-23 14:54:09.557280,-16
2021-12-23 14:54:09.557286,-14
2021-12-23 14:54:09.557293,-14
2021-12-23 14:54:09.557299,-7
2021-12-23 14:54:09.557305,2
2021-12-23 14:54:09.557312,9
2021-12-23 14:54:09.557318,98
2021-12-23 14:54:09.557325,387
2021-12-23 14:54:09.557331,877
2021-12-23 14:54:09.557337,1305
2021-12-23 14:54:09.557344,918
2021-12-23 14:54:09.557350,-214
2021-12-23 14:54:09.557356,-545
2021-12-23 14:54:09.557363,-21
2021-12-23 14:54:09.782858,24
2021-12-23 14:54:09.782880,-197
2021-12-23 14:54:09.782887,-84
2021-12-23 14:54:09.782911,-12
2021-12-23 14:54:09.782921,-81
2021-12-23 14:54:09.782931,-57
2021-12-23 14:54:09.782941,-19
2021-12-23 14:54:09.782951,-36
2021-12-23 14:54:09.782961,-28
2021-12-23 14:54:09.782971,-9
2021-12-23 14:54:09.782980,-7
2021-12-23 14:54:09.782990,-2
2021-12-23 14:54:09.783000,14
2021-12-23 14:54:09.783010,26
2021-12-23 14:54:09.783020,38
2021-12-23 14:54:09.783029,52
2021-12-23 14:54:09.783039,69
2021-12-23 14:54:09.783049,88
2021-12-23 14:54:09.783058,108
2021-12-23 14:54:09.783068,134
2021-12-23 14:54:09.783078,163
2021-12-23 14:54:09.783088,197
2021-12-23 14:54:09.783097,235
2021-12-23 14:54:09.783107,274
2021-12-23 14:54:09.783117,307
2021-12-23 14:54:09.783126,336
2021-12-23 14:54:09.783136,360
2021-12-23 14:54:09.783146,377
2021-12-23 14:54:09.783156,377
2021-12-23 14:54:09.783165,351
2021-12-23 14:54:10.006607,283
2021-12-23 14:54:10.006627,187
2021-12-23 14:54:10.006633,88
2021-12-23 14:54:10.006640,4
2021-12-23 14:54:10.006672,-62
2021-12-23 14:54:10.006685,-105
2021-12-23 14:54:10.006693,-125
2021-12-23 14:54:10.006701,-125
2021-12-23 14:54:10.006708,-125
2021-12-23 14:54:10.006715,-125
2021-12-23 14:54:10.006723,-125
2021-12-23 14:54:10.006730,-122
2021-12-23 14:54:10.006738,-115
2021-12-23 14:54:10.006745,-108
2021-12-23 14:54:10.006752,-105
2021-12-23 14:54:10.006760,-105
2021-12-23 14:54:10.006768,-98
2021-12-23 14:54:10.006781,-91
2021-12-23 14:54:10.006790,-84
2021-12-23 14:54:10.006798,-74
2021-12-23 14:54:10.006827,-67
2021-12-23 14:54:10.006835,-60
2021-12-23 14:54:10.006840,-52
2021-12-23 14:54:10.006845,-45
2021-12-23 14:54:10.006849,-43
2021-12-23 14:54:10.006853,-38
2021-12-23 14:54:10.006858,-36
2021-12-23 14:54:10.006862,-33
2021-12-23 14:54:10.006867,-31
2021-12-23 14:54:10.006871,-33
2021-12-23 14:54:10.231501,-33
2021-12-23 14:54:10.231517,-31
2021-12-23 14:54:10.231522,-33
2021-12-23 14:54:10.231527,-36
2021-12-23 14:54:10.231531,-40
2021-12-23 14:54:10.231536,-40
2021-12-23 14:54:10.231540,-36
2021-12-23 14:54:10.231545,-33
2021-12-23 14:54:10.231549,-33
2021-12-23 14:54:10.231554,-33
2021-12-23 14:54:10.231558,-33
2021-12-23 14:54:10.231562,-33
2021-12-23 14:54:10.231567,-31
2021-12-23 14:54:10.231571,-33
2021-12-23 14:54:10.231576,-38
2021-12-23 14:54:10.231580,-43
2021-12-23 14:54:10.231585,-40
2021-12-23 14:54:10.231589,-31
2021-12-23 14:54:10.231594,-16
2021-12-23 14:54:10.231598,-7
2021-12-23 14:54:10.231603,4
2021-12-23 14:54:10.231607,16
2021-12-23 14:54:10.231611,16
2021-12-23 14:54:10.231616,12
2021-12-23 14:54:10.231620,0
2021-12-23 14:54:10.231625,-7
2021-12-23 14:54:10.231629,-4
2021-12-23 14:54:10.231634,0
2021-12-23 14:54:10.231638,0
2021-12-23 14:54:10.231643,2
2021-12-23 14:54:10.501495,7
2021-12-23 14:54:10.501510,9
2021-12-23 14:54:10.501515,12
2021-12-23 14:54:10.501520,12
2021-12-23 14:54:10.501524,12
2021-12-23 14:54:10.501529,26
2021-12-23 14:54:10.501533,149
2021-12-23 14:54:10.501538,480
2021-12-23 14:54:10.501542,1002
2021-12-23 14:54:10.501546,1373
2021-12-23 14:54:10.501551,795
2021-12-23 14:54:10.501555,-334
2021-12-23 14:54:10.501560,-461
2021-12-23 14:54:10.501564,48
2021-12-23 14:54:10.501568,-24
2021-12-23 14:54:10.501573,-209
2021-12-23 14:54:10.501577,-67
2021-12-23 14:54:10.501582,-26
2021-12-23 14:54:10.501586,-93
2021-12-23 14:54:10.501591,-62
2021-12-23 14:54:10.501595,-28
2021-12-23 14:54:10.501599,-48
2021-12-23 14:54:10.501604,-36
2021-12-23 14:54:10.501608,-12
2021-12-23 14:54:10.501613,-7
2021-12-23 14:54:10.501617,0
2021-12-23 14:54:10.501622,14
2021-12-23 14:54:10.501626,24
2021-12-23 14:54:10.501630,33
2021-12-23 14:54:10.501637,50
2021-12-23 14:54:10.727113,67
2021-12-23 14:54:10.727130,86
2021-12-23 14:54:10.727136,108
2021-12-23 14:54:10.727142,129
2021-12-23 14:54:10.727147,156
2021-12-23 14:54:10.727152,192
2021-12-23 14:54:10.727157,228
2021-12-23 14:54:10.727162,264
2021-12-23 14:54:10.727168,293
2021-12-23 14:54:10.727173,315
2021-12-23 14:54:10.727178,336
2021-12-23 14:54:10.727183,358
2021-12-23 14:54:10.727188,360
2021-12-23 14:54:10.727193,336
2021-12-23 14:54:10.727198,274
2021-12-23 14:54:10.727203,180
2021-12-23 14:54:10.727208,84
2021-12-23 14:54:10.727214,0
2021-12-23 14:54:10.727219,-62
2021-12-23 14:54:10.727224,-101
2021-12-23 14:54:10.727229,-117
2021-12-23 14:54:10.727234,-122
2021-12-23 14:54:10.727239,-122
2021-12-23 14:54:10.727244,-115
2021-12-23 14:54:10.727250,-110
2021-12-23 14:54:10.727255,-108
2021-12-23 14:54:10.727260,-101
2021-12-23 14:54:10.727265,-96
2021-12-23 14:54:10.727270,-88
2021-12-23 14:54:10.727275,-81
2021-12-23 14:54:10.996425,-74
2021-12-23 14:54:10.996439,-69
2021-12-23 14:54:10.996445,-67
2021-12-23 14:54:10.996449,-60
2021-12-23 14:54:10.996454,-50
2021-12-23 14:54:10.996458,-45
2021-12-23 14:54:10.996462,-40
2021-12-23 14:54:10.996467,-38
2021-12-23 14:54:10.996471,-38
2021-12-23 14:54:10.996476,-38
2021-12-23 14:54:10.996486,-36
2021-12-23 14:54:10.996491,-31
2021-12-23 14:54:10.996495,-26
2021-12-23 14:54:10.996500,-28
2021-12-23 14:54:10.996504,-33
2021-12-23 14:54:10.996509,-36
2021-12-23 14:54:10.996513,-36
2021-12-23 14:54:10.996517,-36
2021-12-23 14:54:10.996521,-40
2021-12-23 14:54:10.996526,-43
2021-12-23 14:54:10.996530,-43
2021-12-23 14:54:10.996535,-40
2021-12-23 14:54:10.996539,-36
2021-12-23 14:54:10.996549,-33
2021-12-23 14:54:10.996553,-33
2021-12-23 14:54:10.996558,-38
2021-12-23 14:54:10.996562,-38
2021-12-23 14:54:10.996566,-36
2021-12-23 14:54:10.996571,-33
2021-12-23 14:54:10.996575,-31
2021-12-23 14:54:11.220287,-33
2021-12-23 14:54:11.220304,-38
2021-12-23 14:54:11.220311,-38
2021-12-23 14:54:11.220318,-31
2021-12-23 14:54:11.220324,-16
2021-12-23 14:54:11.220330,-7
2021-12-23 14:54:11.220337,2
2021-12-23 14:54:11.220344,14
2021-12-23 14:54:11.220350,16
2021-12-23 14:54:11.220357,9
2021-12-23 14:54:11.220363,-2
2021-12-23 14:54:11.220369,-9
2021-12-23 14:54:11.220376,-9
2021-12-23 14:54:11.220382,-9
2021-12-23 14:54:11.220388,-9
2021-12-23 14:54:11.220395,-9
2021-12-23 14:54:11.220401,-4
2021-12-23 14:54:11.220407,0
2021-12-23 14:54:11.220414,2
2021-12-23 14:54:11.220420,4
2021-12-23 14:54:11.220431,7
2021-12-23 14:54:11.220438,9
2021-12-23 14:54:11.220445,93
2021-12-23 14:54:11.220451,379
2021-12-23 14:54:11.220457,868
2021-12-23 14:54:11.220464,1332
2021-12-23 14:54:11.220470,1010
2021-12-23 14:54:11.220476,-132
2021-12-23 14:54:11.220483,-548
2021-12-23 14:54:11.220489,-33
2021-12-23 14:54:11.446741,40
2021-12-23 14:54:11.446783,-199
2021-12-23 14:54:11.446799,-98
2021-12-23 14:54:11.446809,-9
2021-12-23 14:54:11.446819,-84
2021-12-23 14:54:11.446891,-69
2021-12-23 14:54:11.446901,-19
2021-12-23 14:54:11.446910,-33
2021-12-23 14:54:11.446919,-33
2021-12-23 14:54:11.446928,-7
2021-12-23 14:54:11.446964,0
2021-12-23 14:54:11.446975,2
2021-12-23 14:54:11.446984,14
2021-12-23 14:54:11.446993,24
2021-12-23 14:54:11.446999,33
2021-12-23 14:54:11.447004,50
2021-12-23 14:54:11.447010,64
2021-12-23 14:54:11.447015,81
2021-12-23 14:54:11.447020,103
2021-12-23 14:54:11.447025,125
2021-12-23 14:54:11.447030,151
2021-12-23 14:54:11.447035,182
2021-12-23 14:54:11.447040,216
2021-12-23 14:54:11.447045,250
2021-12-23 14:54:11.447050,283
2021-12-23 14:54:11.447055,312
2021-12-23 14:54:11.447060,336
2021-12-23 14:54:11.447065,353
2021-12-23 14:54:11.447070,360
2021-12-23 14:54:11.447075,346
2021-12-23 14:54:11.627522,295
2021-12-23 14:54:11.627543,209
2021-12-23 14:54:11.627552,110
2021-12-23 14:54:11.627558,21
2021-12-23 14:54:11.627565,-45
2021-12-23 14:54:11.627571,-91
2021-12-23 14:54:11.627578,-117
2021-12-23 14:54:11.627584,-125
2021-12-23 14:54:11.627590,-125
2021-12-23 14:54:11.627597,-125
2021-12-23 14:54:11.627603,-122
2021-12-23 14:54:11.627609,-113
2021-12-23 14:54:11.627616,-105
2021-12-23 14:54:11.627622,-101
2021-12-23 14:54:11.627628,-93
2021-12-23 14:54:11.627635,-86
2021-12-23 14:54:11.627641,-81
2021-12-23 14:54:11.627647,-79
2021-12-23 14:54:11.627654,-76
2021-12-23 14:54:11.627660,-67
2021-12-23 14:54:11.627667,-60
2021-12-23 14:54:11.627673,-55
2021-12-23 14:54:11.627679,-52
2021-12-23 14:54:11.627686,-45
2021-12-23 14:54:11.627692,-43
2021-12-23 14:54:11.627698,-43
2021-12-23 14:54:11.627705,-40
2021-12-23 14:54:11.627711,-38
2021-12-23 14:54:11.627717,-40
2021-12-23 14:54:11.627723,-43
2021-12-23 14:54:11.851974,-40
2021-12-23 14:54:11.852021,-40
2021-12-23 14:54:11.852028,-40
2021-12-23 14:54:11.852034,-40
2021-12-23 14:54:11.852039,-40
2021-12-23 14:54:11.852044,-43
2021-12-23 14:54:11.852050,-43
2021-12-23 14:54:11.852057,-38
2021-12-23 14:54:11.852062,-36
2021-12-23 14:54:11.852067,-33
2021-12-23 14:54:11.852072,-33
2021-12-23 14:54:11.852077,-33
2021-12-23 14:54:11.852083,-33
2021-12-23 14:54:11.852088,-28
2021-12-23 14:54:11.852093,-24
2021-12-23 14:54:11.852098,-24
2021-12-23 14:54:11.852103,-26
2021-12-23 14:54:11.852108,-26
2021-12-23 14:54:11.852113,-26
2021-12-23 14:54:11.852118,-28
2021-12-23 14:54:11.852125,-26
2021-12-23 14:54:11.852130,-14
2021-12-23 14:54:11.852143,-4
2021-12-23 14:54:11.852149,0
2021-12-23 14:54:11.852154,16
2021-12-23 14:54:11.852159,31
2021-12-23 14:54:11.852164,24
2021-12-23 14:54:11.852170,4
2021-12-23 14:54:11.852175,-7
2021-12-23 14:54:11.852180,-7
2021-12-23 14:54:12.077056,0
2021-12-23 14:54:12.077075,0
2021-12-23 14:54:12.077081,0
2021-12-23 14:54:12.077086,-4
2021-12-23 14:54:12.077091,-7
2021-12-23 14:54:12.077096,-4
2021-12-23 14:54:12.077101,0
2021-12-23 14:54:12.077107,2
2021-12-23 14:54:12.077112,4
2021-12-23 14:54:12.077117,28
2021-12-23 14:54:12.077122,192
2021-12-23 14:54:12.077127,581
2021-12-23 14:54:12.077132,1127
2021-12-23 14:54:12.077138,1322
2021-12-23 14:54:12.077143,471
2021-12-23 14:54:12.077148,-514
2021-12-23 14:54:12.077153,-336
2021-12-23 14:54:12.077158,76
2021-12-23 14:54:12.077163,-110
2021-12-23 14:54:12.077168,-189
2021-12-23 14:54:12.077174,-38
2021-12-23 14:54:12.077179,-60
2021-12-23 14:54:12.077184,-103
2021-12-23 14:54:12.077189,-45
2021-12-23 14:54:12.077194,-31
2021-12-23 14:54:12.077199,-50
2021-12-23 14:54:12.077204,-28
2021-12-23 14:54:12.077209,-7
2021-12-23 14:54:12.077214,-9
2021-12-23 14:54:12.077219,-4
2021-12-23 14:54:12.346609,12
2021-12-23 14:54:12.346628,26
2021-12-23 14:54:12.346635,40
2021-12-23 14:54:12.346640,48
2021-12-23 14:54:12.346646,55
2021-12-23 14:54:12.346651,72
2021-12-23 14:54:12.346656,96
2021-12-23 14:54:12.346662,129
2021-12-23 14:54:12.346667,161
2021-12-23 14:54:12.346672,187
2021-12-23 14:54:12.346678,226
2021-12-23 14:54:12.346683,271
2021-12-23 14:54:12.346688,293
2021-12-23 14:54:12.346694,305
2021-12-23 14:54:12.346699,339
2021-12-23 14:54:12.346704,360
2021-12-23 14:54:12.346710,351
2021-12-23 14:54:12.346715,319
2021-12-23 14:54:12.346721,254
2021-12-23 14:54:12.346726,163
2021-12-23 14:54:12.346732,69
2021-12-23 14:54:12.346738,-14
2021-12-23 14:54:12.346745,-84
2021-12-23 14:54:12.346750,-117
2021-12-23 14:54:12.346756,-129
2021-12-23 14:54:12.346761,-134
2021-12-23 14:54:12.346767,-132
2021-12-23 14:54:12.346773,-127
2021-12-23 14:54:12.346779,-122
2021-12-23 14:54:12.346785,-113
2021-12-23 14:54:12.572467,-110
2021-12-23 14:54:12.572584,-110
2021-12-23 14:54:12.572597,-103
2021-12-23 14:54:12.572603,-98
2021-12-23 14:54:12.572608,-98
2021-12-23 14:54:12.572614,-86
2021-12-23 14:54:12.572619,-72
2021-12-23 14:54:12.572624,-69
2021-12-23 14:54:12.572629,-72
2021-12-23 14:54:12.572634,-67
2021-12-23 14:54:12.572640,-62
2021-12-23 14:54:12.572645,-62
2021-12-23 14:54:12.572650,-67
2021-12-23 14:54:12.572655,-69
2021-12-23 14:54:12.572661,-72
2021-12-23 14:54:12.572666,-74
2021-12-23 14:54:12.572671,-69
2021-12-23 14:54:12.572676,-62
2021-12-23 14:54:12.572682,-64
2021-12-23 14:54:12.572687,-69
2021-12-23 14:54:12.572692,-62
2021-12-23 14:54:12.572697,-60
2021-12-23 14:54:12.572702,-60
2021-12-23 14:54:12.572708,-52
2021-12-23 14:54:12.572713,-48
2021-12-23 14:54:12.572718,-50
2021-12-23 14:54:12.572723,-52
2021-12-23 14:54:12.572728,-48
2021-12-23 14:54:12.572733,-45
2021-12-23 14:54:12.572738,-45
2021-12-23 14:54:12.796945,-38
2021-12-23 14:54:12.796966,-26
2021-12-23 14:54:12.796975,-28
2021-12-23 14:54:12.796983,-45
2021-12-23 14:54:12.797006,-45
2021-12-23 14:54:12.797026,-36
2021-12-23 14:54:12.797032,-36
2021-12-23 14:54:12.797037,-33
2021-12-23 14:54:12.797041,-19
2021-12-23 14:54:12.797045,-7
2021-12-23 14:54:12.797050,0
2021-12-23 14:54:12.797054,4
2021-12-23 14:54:12.797059,2
2021-12-23 14:54:12.797063,-9
2021-12-23 14:54:12.797068,-21
2021-12-23 14:54:12.797072,-21
2021-12-23 14:54:12.797076,-19
2021-12-23 14:54:12.797081,-14
2021-12-23 14:54:12.797085,-9
2021-12-23 14:54:12.797090,-9
2021-12-23 14:54:12.797094,-12
2021-12-23 14:54:12.797099,-9
2021-12-23 14:54:12.797103,-4
2021-12-23 14:54:12.797107,4
2021-12-23 14:54:12.797112,12
2021-12-23 14:54:12.797116,67
2021-12-23 14:54:12.797121,303
2021-12-23 14:54:12.797125,762
2021-12-23 14:54:12.797129,1267
2021-12-23 14:54:12.797134,1118
2021-12-23 14:54:13.066849,36
2021-12-23 14:54:13.066870,-577
2021-12-23 14:54:13.066876,-125
2021-12-23 14:54:13.066881,69
2021-12-23 14:54:13.066885,-180
2021-12-23 14:54:13.066890,-134
2021-12-23 14:54:13.066894,-19
2021-12-23 14:54:13.066898,-84
2021-12-23 14:54:13.066903,-88
2021-12-23 14:54:13.066907,-33
2021-12-23 14:54:13.066912,-36
2021-12-23 14:54:13.066916,-40
2021-12-23 14:54:13.066921,-19
2021-12-23 14:54:13.066925,-12
2021-12-23 14:54:13.066930,-7
2021-12-23 14:54:13.066934,7
2021-12-23 14:54:13.066938,16
2021-12-23 14:54:13.066943,24
2021-12-23 14:54:13.066947,36
2021-12-23 14:54:13.066952,50
2021-12-23 14:54:13.066956,64
2021-12-23 14:54:13.066960,86
2021-12-23 14:54:13.066965,113
2021-12-23 14:54:13.066969,139
2021-12-23 14:54:13.066974,168
2021-12-23 14:54:13.066978,204
2021-12-23 14:54:13.066982,245
2021-12-23 14:54:13.066987,281
2021-12-23 14:54:13.066991,312
2021-12-23 14:54:13.066995,336
2021-12-23 14:54:13.290319,353
2021-12-23 14:54:13.290340,355
2021-12-23 14:54:13.290349,343
2021-12-23 14:54:13.290359,295
2021-12-23 14:54:13.290367,211
2021-12-23 14:54:13.290375,110
2021-12-23 14:54:13.290383,16
2021-12-23 14:54:13.290391,-60
2021-12-23 14:54:13.290398,-110
2021-12-23 14:54:13.290405,-134
2021-12-23 14:54:13.290412,-144
2021-12-23 14:54:13.290419,-146
2021-12-23 14:54:13.290426,-144
2021-12-23 14:54:13.290434,-141
2021-12-23 14:54:13.290441,-134
2021-12-23 14:54:13.290449,-127
2021-12-23 14:54:13.290456,-120
2021-12-23 14:54:13.290464,-113
2021-12-23 14:54:13.290472,-108
2021-12-23 14:54:13.290479,-105
2021-12-23 14:54:13.290487,-101
2021-12-23 14:54:13.290494,-91
2021-12-23 14:54:13.290502,-84
2021-12-23 14:54:13.290509,-79
2021-12-23 14:54:13.290516,-74
2021-12-23 14:54:13.290524,-72
2021-12-23 14:54:13.290532,-64
2021-12-23 14:54:13.290540,-60
2021-12-23 14:54:13.290548,-60
2021-12-23 14:54:13.290556,-55
2021-12-23 14:54:13.517030,-52
2021-12-23 14:54:13.517045,-52
2021-12-23 14:54:13.517050,-50
2021-12-23 14:54:13.517055,-50
2021-12-23 14:54:13.517059,-48
2021-12-23 14:54:13.517064,-48
2021-12-23 14:54:13.517068,-50
2021-12-23 14:54:13.517073,-45
2021-12-23 14:54:13.517077,-43
2021-12-23 14:54:13.517081,-48
2021-12-23 14:54:13.517086,-45
2021-12-23 14:54:13.517090,-43
2021-12-23 14:54:13.517094,-45
2021-12-23 14:54:13.517099,-43
2021-12-23 14:54:13.517103,-36
2021-12-23 14:54:13.517108,-36
2021-12-23 14:54:13.517112,-36
2021-12-23 14:54:13.517116,-31
2021-12-23 14:54:13.517121,-26
2021-12-23 14:54:13.517125,-24
2021-12-23 14:54:13.517129,-19
2021-12-23 14:54:13.517134,-19
2021-12-23 14:54:13.517138,-19
2021-12-23 14:54:13.517142,-24
2021-12-23 14:54:13.517147,-28
2021-12-23 14:54:13.517151,-28
2021-12-23 14:54:13.517155,-26
2021-12-23 14:54:13.517160,-19
2021-12-23 14:54:13.517164,-7
2021-12-23 14:54:13.517169,2
2021-12-23 14:54:13.696806,12
2021-12-23 14:54:13.696828,26
2021-12-23 14:54:13.696834,31
2021-12-23 14:54:13.696840,19
2021-12-23 14:54:13.696845,4
2021-12-23 14:54:13.696850,-2
2021-12-23 14:54:13.696855,0
2021-12-23 14:54:13.696860,2
2021-12-23 14:54:13.696865,4
2021-12-23 14:54:13.696870,4
2021-12-23 14:54:13.696875,7
2021-12-23 14:54:13.696880,7
2021-12-23 14:54:13.696884,9
2021-12-23 14:54:13.696889,14
2021-12-23 14:54:13.696894,19
2021-12-23 14:54:13.696899,28
2021-12-23 14:54:13.696904,139
2021-12-23 14:54:13.696909,459
2021-12-23 14:54:13.696914,978
2021-12-23 14:54:13.696919,1375
2021-12-23 14:54:13.696924,846
2021-12-23 14:54:13.696929,-295
2021-12-23 14:54:13.696934,-473
2021-12-23 14:54:13.696939,40
2021-12-23 14:54:13.696944,-2
2021-12-23 14:54:13.696949,-194
2021-12-23 14:54:13.696954,-57
2021-12-23 14:54:13.696959,-12
2021-12-23 14:54:13.696964,-84
2021-12-23 14:54:13.696969,-48
2021-12-23 14:54:14.012300,-9
2021-12-23 14:54:14.012333,-24
2021-12-23 14:54:14.012339,-16
2021-12-23 14:54:14.012344,4
2021-12-23 14:54:14.012349,2
2021-12-23 14:54:14.012353,4
2021-12-23 14:54:14.012358,21
2021-12-23 14:54:14.012362,33
2021-12-23 14:54:14.012367,45
2021-12-23 14:54:14.012371,57
2021-12-23 14:54:14.012375,67
2021-12-23 14:54:14.012380,81
2021-12-23 14:54:14.012384,103
2021-12-23 14:54:14.012389,122
2021-12-23 14:54:14.012393,144
2021-12-23 14:54:14.012397,173
2021-12-23 14:54:14.012402,209
2021-12-23 14:54:14.012406,242
2021-12-23 14:54:14.012411,276
2021-12-23 14:54:14.012415,305
2021-12-23 14:54:14.012420,327
2021-12-23 14:54:14.012424,341
2021-12-23 14:54:14.012428,346
2021-12-23 14:54:14.012433,331
2021-12-23 14:54:14.012437,283
2021-12-23 14:54:14.012441,202
2021-12-23 14:54:14.012446,108
2021-12-23 14:54:14.012450,19
2021-12-23 14:54:14.012455,-52
2021-12-23 14:54:14.012459,-98
2021-12-23 14:54:14.191629,-117
2021-12-23 14:54:14.191648,-125
2021-12-23 14:54:14.191658,-127
2021-12-23 14:54:14.191666,-127
2021-12-23 14:54:14.191675,-122
2021-12-23 14:54:14.191683,-117
2021-12-23 14:54:14.191691,-110
2021-12-23 14:54:14.191699,-108
2021-12-23 14:54:14.191707,-103
2021-12-23 14:54:14.191715,-98
2021-12-23 14:54:14.191724,-96
2021-12-23 14:54:14.191732,-88
2021-12-23 14:54:14.191740,-81
2021-12-23 14:54:14.191749,-76
2021-12-23 14:54:14.191757,-72
2021-12-23 14:54:14.191765,-67
2021-12-23 14:54:14.191774,-64
2021-12-23 14:54:14.191782,-57
2021-12-23 14:54:14.191790,-50
2021-12-23 14:54:14.191798,-45
2021-12-23 14:54:14.191807,-45
2021-12-23 14:54:14.191815,-48
2021-12-23 14:54:14.191823,-45
2021-12-23 14:54:14.191832,-43
2021-12-23 14:54:14.191840,-40
2021-12-23 14:54:14.191848,-38
2021-12-23 14:54:14.191857,-36
2021-12-23 14:54:14.191865,-36
2021-12-23 14:54:14.191874,-36
2021-12-23 14:54:14.191882,-28
2021-12-23 14:54:14.461734,-26
2021-12-23 14:54:14.461750,-24
2021-12-23 14:54:14.461755,-24
2021-12-23 14:54:14.461760,-21
2021-12-23 14:54:14.461764,-16
2021-12-23 14:54:14.461769,-14
2021-12-23 14:54:14.461773,-12
2021-12-23 14:54:14.461778,-9
2021-12-23 14:54:14.461782,-9
2021-12-23 14:54:14.461787,-12
2021-12-23 14:54:14.461791,-9
2021-12-23 14:54:14.461795,-4
2021-12-23 14:54:14.461800,-2
2021-12-23 14:54:14.461804,0
2021-12-23 14:54:14.461809,-2
2021-12-23 14:54:14.461814,-9
2021-12-23 14:54:14.461818,-14
2021-12-23 14:54:14.461823,-14
2021-12-23 14:54:14.461827,-14
2021-12-23 14:54:14.461832,-7
2021-12-23 14:54:14.461836,4
2021-12-23 14:54:14.461840,12
2021-12-23 14:54:14.461845,24
2021-12-23 14:54:14.461849,38
2021-12-23 14:54:14.461853,36
2021-12-23 14:54:14.461858,24
2021-12-23 14:54:14.461862,12
2021-12-23 14:54:14.461867,7
2021-12-23 14:54:14.461871,12
2021-12-23 14:54:14.461876,19
2021-12-23 14:54:14.642103,16
2021-12-23 14:54:14.642120,16
2021-12-23 14:54:14.642125,16
2021-12-23 14:54:14.642130,16
2021-12-23 14:54:14.642134,16
2021-12-23 14:54:14.642139,14
2021-12-23 14:54:14.642143,19
2021-12-23 14:54:14.642147,72
2021-12-23 14:54:14.642152,295
2021-12-23 14:54:14.642156,731
2021-12-23 14:54:14.642160,1264
2021-12-23 14:54:14.642172,1245
2021-12-23 14:54:14.642177,211
2021-12-23 14:54:14.642211,-557
2021-12-23 14:54:14.642216,-182
2021-12-23 14:54:14.642220,88
2021-12-23 14:54:14.642224,-158
2021-12-23 14:54:14.642229,-146
2021-12-23 14:54:14.642233,-12
2021-12-23 14:54:14.642238,-69
2021-12-23 14:54:14.642242,-91
2021-12-23 14:54:14.642246,-33
2021-12-23 14:54:14.642251,-31
2021-12-23 14:54:14.642255,-43
2021-12-23 14:54:14.642259,-21
2021-12-23 14:54:14.642264,-7
2021-12-23 14:54:14.642268,-2
2021-12-23 14:54:14.642272,9
2021-12-23 14:54:14.642277,21
2021-12-23 14:54:14.642281,28
2021-12-23 14:54:14.867159,48
2021-12-23 14:54:14.867179,60
2021-12-23 14:54:14.867185,64
2021-12-23 14:54:14.867190,84
2021-12-23 14:54:14.867195,108
2021-12-23 14:54:14.867200,137
2021-12-23 14:54:14.867205,165
2021-12-23 14:54:14.867210,194
2021-12-23 14:54:14.867215,230
2021-12-23 14:54:14.867219,271
2021-12-23 14:54:14.867224,300
2021-12-23 14:54:14.867229,319
2021-12-23 14:54:14.867234,341
2021-12-23 14:54:14.867239,358
2021-12-23 14:54:14.867244,351
2021-12-23 14:54:14.867250,315
2021-12-23 14:54:14.867254,247
2021-12-23 14:54:14.867259,161
2021-12-23 14:54:14.867264,67
2021-12-23 14:54:14.867268,-16
2021-12-23 14:54:14.867273,-76
2021-12-23 14:54:14.867278,-117
2021-12-23 14:54:14.867283,-144
2021-12-23 14:54:14.867288,-153
2021-12-23 14:54:14.867293,-146
2021-12-23 14:54:14.867298,-134
2021-12-23 14:54:14.867302,-129
2021-12-23 14:54:14.867307,-127
2021-12-23 14:54:14.867312,-120
2021-12-23 14:54:14.867316,-108
2021-12-23 14:54:15.091701,-101
2021-12-23 14:54:15.091720,-105
2021-12-23 14:54:15.091726,-96
2021-12-23 14:54:15.091730,-79
2021-12-23 14:54:15.091735,-81
2021-12-23 14:54:15.091739,-76
2021-12-23 14:54:15.091743,-62
2021-12-23 14:54:15.091748,-62
2021-12-23 14:54:15.091752,-67
2021-12-23 14:54:15.091757,-57
2021-12-23 14:54:15.091761,-60
2021-12-23 14:54:15.091766,-64
2021-12-23 14:54:15.091770,-55
2021-12-23 14:54:15.091775,-48
2021-12-23 14:54:15.091779,-45
2021-12-23 14:54:15.091783,-55
2021-12-23 14:54:15.091788,-60
2021-12-23 14:54:15.091792,-48
2021-12-23 14:54:15.091797,-36
2021-12-23 14:54:15.091801,-38
2021-12-23 14:54:15.091806,-38
2021-12-23 14:54:15.091810,-33
2021-12-23 14:54:15.091814,-31
2021-12-23 14:54:15.091819,-33
2021-12-23 14:54:15.091823,-31
2021-12-23 14:54:15.091828,-24
2021-12-23 14:54:15.091832,-19
2021-12-23 14:54:15.091836,-21
2021-12-23 14:54:15.091841,-24
2021-12-23 14:54:15.091845,-16
2021-12-23 14:54:15.360232,-16
2021-12-23 14:54:15.360248,-26
2021-12-23 14:54:15.360258,-21
2021-12-23 14:54:15.360263,-9
2021-12-23 14:54:15.360267,2
2021-12-23 14:54:15.360272,9
2021-12-23 14:54:15.360276,21
2021-12-23 14:54:15.360280,28
2021-12-23 14:54:15.360285,24
2021-12-23 14:54:15.360289,16
2021-12-23 14:54:15.360294,9
2021-12-23 14:54:15.360308,2
2021-12-23 14:54:15.360330,2
2021-12-23 14:54:15.360337,7
2021-12-23 14:54:15.360341,7
2021-12-23 14:54:15.360346,7
2021-12-23 14:54:15.360350,12
2021-12-23 14:54:15.360354,19
2021-12-23 14:54:15.360359,16
2021-12-23 14:54:15.360363,24
2021-12-23 14:54:15.360367,36
2021-12-23 14:54:15.360372,69
2021-12-23 14:54:15.360376,250
2021-12-23 14:54:15.360380,654
2021-12-23 14:54:15.360385,1180
2021-12-23 14:54:15.360389,1267
2021-12-23 14:54:15.360393,336
2021-12-23 14:54:15.360398,-538
2021-12-23 14:54:15.360402,-250
2021-12-23 14:54:15.360406,105
2021-12-23 14:54:15.542180,-110
2021-12-23 14:54:15.542200,-146
2021-12-23 14:54:15.542206,0
2021-12-23 14:54:15.542212,-38
2021-12-23 14:54:15.542217,-69
2021-12-23 14:54:15.542222,-14
2021-12-23 14:54:15.542227,-9
2021-12-23 14:54:15.542232,-19
2021-12-23 14:54:15.542237,2
2021-12-23 14:54:15.542243,16
2021-12-23 14:54:15.542248,16
2021-12-23 14:54:15.542253,28
2021-12-23 14:54:15.542258,43
2021-12-23 14:54:15.542263,52
2021-12-23 14:54:15.542268,62
2021-12-23 14:54:15.542273,74
2021-12-23 14:54:15.542278,84
2021-12-23 14:54:15.542283,101
2021-12-23 14:54:15.542288,125
2021-12-23 14:54:15.542293,149
2021-12-23 14:54:15.542298,180
2021-12-23 14:54:15.542303,216
2021-12-23 14:54:15.542308,252
2021-12-23 14:54:15.542313,288
2021-12-23 14:54:15.542318,319
2021-12-23 14:54:15.542323,346
2021-12-23 14:54:15.542328,365
2021-12-23 14:54:15.542333,375
2021-12-23 14:54:15.542338,365
2021-12-23 14:54:15.542343,327
2021-12-23 14:54:15.767268,250
2021-12-23 14:54:15.767284,151
2021-12-23 14:54:15.767289,50
2021-12-23 14:54:15.767294,-28
2021-12-23 14:54:15.767298,-84
2021-12-23 14:54:15.767302,-117
2021-12-23 14:54:15.767307,-129
2021-12-23 14:54:15.767311,-129
2021-12-23 14:54:15.767319,-132
2021-12-23 14:54:15.767323,-129
2021-12-23 14:54:15.767327,-127
2021-12-23 14:54:15.767332,-125
2021-12-23 14:54:15.767336,-120
2021-12-23 14:54:15.767340,-110
2021-12-23 14:54:15.767345,-103
2021-12-23 14:54:15.767349,-98
2021-12-23 14:54:15.767353,-88
2021-12-23 14:54:15.767357,-79
2021-12-23 14:54:15.767362,-69
2021-12-23 14:54:15.767366,-62
2021-12-23 14:54:15.767370,-55
2021-12-23 14:54:15.767375,-50
2021-12-23 14:54:15.767379,-45
2021-12-23 14:54:15.767398,-38
2021-12-23 14:54:15.767403,-33
2021-12-23 14:54:15.767408,-31
2021-12-23 14:54:15.767413,-28
2021-12-23 14:54:15.767418,-28
2021-12-23 14:54:15.767424,-28
2021-12-23 14:54:15.767429,-28
2021-12-23 14:54:16.037138,-31
2021-12-23 14:54:16.037159,-28
2021-12-23 14:54:16.037165,-24
2021-12-23 14:54:16.037169,-24
2021-12-23 14:54:16.037174,-28
2021-12-23 14:54:16.037178,-24
2021-12-23 14:54:16.037182,-19
2021-12-23 14:54:16.037187,-16
2021-12-23 14:54:16.037191,-14
2021-12-23 14:54:16.037196,-14
2021-12-23 14:54:16.037200,-16
2021-12-23 14:54:16.037204,-9
2021-12-23 14:54:16.037209,-2
2021-12-23 14:54:16.037213,0
2021-12-23 14:54:16.037217,-2
2021-12-23 14:54:16.037222,-2
2021-12-23 14:54:16.037227,0
2021-12-23 14:54:16.037231,2
2021-12-23 14:54:16.037236,2
2021-12-23 14:54:16.037240,0
2021-12-23 14:54:16.037244,2
2021-12-23 14:54:16.037249,4
2021-12-23 14:54:16.037253,12
2021-12-23 14:54:16.037258,24
2021-12-23 14:54:16.037262,33
2021-12-23 14:54:16.037266,40
2021-12-23 14:54:16.037271,43
2021-12-23 14:54:16.037275,33
2021-12-23 14:54:16.037280,24
2021-12-23 14:54:16.037284,24
2021-12-23 14:54:16.261650,28
2021-12-23 14:54:16.261667,26
2021-12-23 14:54:16.261673,19
2021-12-23 14:54:16.261679,14
2021-12-23 14:54:16.261684,9
2021-12-23 14:54:16.261689,12
2021-12-23 14:54:16.261694,19
2021-12-23 14:54:16.261699,26
2021-12-23 14:54:16.261704,24
2021-12-23 14:54:16.261709,50
2021-12-23 14:54:16.261714,228
2021-12-23 14:54:16.261719,637
2021-12-23 14:54:16.261724,1199
2021-12-23 14:54:16.261729,1358
2021-12-23 14:54:16.261734,447
2021-12-23 14:54:16.261739,-524
2021-12-23 14:54:16.261745,-300
2021-12-23 14:54:16.261750,103
2021-12-23 14:54:16.261755,-105
2021-12-23 14:54:16.261760,-177
2021-12-23 14:54:16.261765,-21
2021-12-23 14:54:16.261770,-45
2021-12-23 14:54:16.261775,-96
2021-12-23 14:54:16.261780,-38
2021-12-23 14:54:16.261785,-19
2021-12-23 14:54:16.261790,-38
2021-12-23 14:54:16.261795,-21
2021-12-23 14:54:16.261801,2
2021-12-23 14:54:16.261806,7
2021-12-23 14:54:16.261811,14
2021-12-23 14:54:16.531672,28
2021-12-23 14:54:16.531687,36
2021-12-23 14:54:16.531693,38
2021-12-23 14:54:16.531697,50
2021-12-23 14:54:16.531702,64
2021-12-23 14:54:16.531706,81
2021-12-23 14:54:16.531710,103
2021-12-23 14:54:16.531714,125
2021-12-23 14:54:16.531719,149
2021-12-23 14:54:16.531723,185
2021-12-23 14:54:16.531728,230
2021-12-23 14:54:16.531732,269
2021-12-23 14:54:16.531736,300
2021-12-23 14:54:16.531740,317
2021-12-23 14:54:16.531745,319
2021-12-23 14:54:16.531749,322
2021-12-23 14:54:16.531753,324
2021-12-23 14:54:16.531758,307
2021-12-23 14:54:16.531762,250
2021-12-23 14:54:16.531766,161
2021-12-23 14:54:16.531771,64
2021-12-23 14:54:16.531775,-12
2021-12-23 14:54:16.531779,-69
2021-12-23 14:54:16.531784,-105
2021-12-23 14:54:16.531788,-122
2021-12-23 14:54:16.531792,-141
2021-12-23 14:54:16.531796,-153
2021-12-23 14:54:16.531801,-146
2021-12-23 14:54:16.531805,-134
2021-12-23 14:54:16.531810,-125
2021-12-23 14:54:16.757091,-113
2021-12-23 14:54:16.757107,-110
2021-12-23 14:54:16.757112,-110
2021-12-23 14:54:16.757116,-108
2021-12-23 14:54:16.757121,-101
2021-12-23 14:54:16.757125,-96
2021-12-23 14:54:16.757129,-84
2021-12-23 14:54:16.757134,-76
2021-12-23 14:54:16.757138,-76
2021-12-23 14:54:16.757143,-72
2021-12-23 14:54:16.757147,-64
2021-12-23 14:54:16.757151,-60
2021-12-23 14:54:16.757156,-55
2021-12-23 14:54:16.757160,-48
2021-12-23 14:54:16.757164,-45
2021-12-23 14:54:16.757169,-48
2021-12-23 14:54:16.757173,-45
2021-12-23 14:54:16.757177,-38
2021-12-23 14:54:16.757182,-38
2021-12-23 14:54:16.757186,-40
2021-12-23 14:54:16.757190,-40
2021-12-23 14:54:16.757195,-38
2021-12-23 14:54:16.757199,-33
2021-12-23 14:54:16.757203,-26
2021-12-23 14:54:16.757208,-24
2021-12-23 14:54:16.757212,-26
2021-12-23 14:54:16.757216,-19
2021-12-23 14:54:16.757220,-14
2021-12-23 14:54:16.757225,-9
2021-12-23 14:54:16.757229,-12
2021-12-23 14:54:16.981662,-16
2021-12-23 14:54:16.981684,-14
2021-12-23 14:54:16.981693,-7
2021-12-23 14:54:16.981701,-2
2021-12-23 14:54:16.981709,-4
2021-12-23 14:54:16.981718,-12
2021-12-23 14:54:16.981726,-7
2021-12-23 14:54:16.981734,9
2021-12-23 14:54:16.981743,14
2021-12-23 14:54:16.981751,19
2021-12-23 14:54:16.981759,38
2021-12-23 14:54:16.981767,48
2021-12-23 14:54:16.981776,31
2021-12-23 14:54:16.981784,9
2021-12-23 14:54:16.981792,2
2021-12-23 14:54:16.981800,4
2021-12-23 14:54:16.981809,9
2021-12-23 14:54:16.981817,9
2021-12-23 14:54:16.981825,12
2021-12-23 14:54:16.981833,12
2021-12-23 14:54:16.981842,7
2021-12-23 14:54:16.981850,24
2021-12-23 14:54:16.981858,40
2021-12-23 14:54:16.981871,19
2021-12-23 14:54:16.981879,0
2021-12-23 14:54:16.981888,98
2021-12-23 14:54:16.981896,391
2021-12-23 14:54:16.981904,848
2021-12-23 14:54:16.981913,1248
2021-12-23 14:54:16.981921,865
2021-12-23 14:54:17.207020,-202
2021-12-23 14:54:17.207035,-485
2021-12-23 14:54:17.207040,-7
2021-12-23 14:54:17.207045,16
2021-12-23 14:54:17.207049,-170
2021-12-23 14:54:17.207054,-50
2021-12-23 14:54:17.207058,0
2021-12-23 14:54:17.207063,-120
2021-12-23 14:54:17.207067,-86
2021-12-23 14:54:17.207071,16
2021-12-23 14:54:17.207076,-26
2021-12-23 14:54:17.207080,-69
2021-12-23 14:54:17.207085,-26
2021-12-23 14:54:17.207089,-14
2021-12-23 14:54:17.207094,9
2021-12-23 14:54:17.207098,69
2021-12-23 14:54:17.207103,52
2021-12-23 14:54:17.207107,4
2021-12-23 14:54:17.207112,0
2021-12-23 14:54:17.207116,-9
2021-12-23 14:54:17.207120,14
2021-12-23 14:54:17.207125,74
2021-12-23 14:54:17.207129,101
2021-12-23 14:54:17.207134,134
2021-12-23 14:54:17.207138,194
2021-12-23 14:54:17.207142,233
2021-12-23 14:54:17.207147,223
2021-12-23 14:54:17.207151,221
2021-12-23 14:54:17.207156,262
2021-12-23 14:54:17.207160,327
2021-12-23 14:54:17.430223,367
2021-12-23 14:54:17.430250,346
2021-12-23 14:54:17.430255,317
2021-12-23 14:54:17.430260,298
2021-12-23 14:54:17.430265,218
2021-12-23 14:54:17.430269,108
2021-12-23 14:54:17.430273,26
2021-12-23 14:54:17.430278,-50
2021-12-23 14:54:17.430282,-117
2021-12-23 14:54:17.430287,-101
2021-12-23 14:54:17.430291,-72
2021-12-23 14:54:17.430295,-103
2021-12-23 14:54:17.430300,-103
2021-12-23 14:54:17.430304,-67
2021-12-23 14:54:17.430309,-64
2021-12-23 14:54:17.430313,-76
2021-12-23 14:54:17.430318,-62
2021-12-23 14:54:17.430322,-74
2021-12-23 14:54:17.430326,-105
2021-12-23 14:54:17.430331,-93
2021-12-23 14:54:17.430335,-55
2021-12-23 14:54:17.430340,-19
2021-12-23 14:54:17.430344,-7
2021-12-23 14:54:17.430349,-31
2021-12-23 14:54:17.430353,-33
2021-12-23 14:54:17.430358,-7
2021-12-23 14:54:17.430362,-28
2021-12-23 14:54:17.430366,-50
2021-12-23 14:54:17.430371,-4
2021-12-23 14:54:17.430375,4
2021-12-23 14:54:17.611772,-36
2021-12-23 14:54:17.611790,-9
2021-12-23 14:54:17.611796,52
2021-12-23 14:54:17.611801,40
2021-12-23 14:54:17.611806,0
2021-12-23 14:54:17.611811,-7
2021-12-23 14:54:17.611816,-9
2021-12-23 14:54:17.611821,-21
2021-12-23 14:54:17.611826,-9
2021-12-23 14:54:17.611831,14
2021-12-23 14:54:17.611836,21
2021-12-23 14:54:17.611841,24
2021-12-23 14:54:17.611846,7
2021-12-23 14:54:17.611851,-7
2021-12-23 14:54:17.611856,-12
2021-12-23 14:54:17.611861,-31
2021-12-23 14:54:17.611866,-24
2021-12-23 14:54:17.611871,19
2021-12-23 14:54:17.611876,36
2021-12-23 14:54:17.611881,33
2021-12-23 14:54:17.611886,40
2021-12-23 14:54:17.611891,31
2021-12-23 14:54:17.611896,9
2021-12-23 14:54:17.611900,9
2021-12-23 14:54:17.611905,9
2021-12-23 14:54:17.611910,16
2021-12-23 14:54:17.611915,38
2021-12-23 14:54:17.611920,7
2021-12-23 14:54:17.611925,-21
2021-12-23 14:54:17.611930,7
2021-12-23 14:54:17.971481,31
2021-12-23 14:54:17.971498,21
2021-12-23 14:54:17.971504,4
2021-12-23 14:54:17.971508,31
2021-12-23 14:54:17.971512,67
2021-12-23 14:54:17.971517,93
2021-12-23 14:54:17.971521,218
2021-12-23 14:54:17.971525,517
2021-12-23 14:54:17.971530,928
2021-12-23 14:54:17.971534,959
2021-12-23 14:54:17.971539,197
2021-12-23 14:54:17.971543,-413
2021-12-23 14:54:17.971547,-139
2021-12-23 14:54:17.971552,103
2021-12-23 14:54:17.971556,-69
2021-12-23 14:54:17.971561,-84
2021-12-23 14:54:17.971565,16
2021-12-23 14:54:17.971569,-36
2021-12-23 14:54:17.971574,-74
2021-12-23 14:54:17.971578,-2
2021-12-23 14:54:17.971582,55
2021-12-23 14:54:17.971586,57
2021-12-23 14:54:17.971591,50
2021-12-23 14:54:17.971595,24
2021-12-23 14:54:17.971599,0
2021-12-23 14:54:17.971604,31
2021-12-23 14:54:17.971608,52
2021-12-23 14:54:17.971612,38
2021-12-23 14:54:17.971617,57
2021-12-23 14:54:17.971621,105
2021-12-23 14:54:18.107068,129
2021-12-23 14:54:18.107090,132
2021-12-23 14:54:18.107096,153
2021-12-23 14:54:18.107101,158
2021-12-23 14:54:18.107107,110
2021-12-23 14:54:18.107112,149
2021-12-23 14:54:18.107117,257
2021-12-23 14:54:18.107122,271
2021-12-23 14:54:18.107158,252
2021-12-23 14:54:18.107163,281
2021-12-23 14:54:18.107168,307
2021-12-23 14:54:18.107173,312
2021-12-23 14:54:18.107178,317
2021-12-23 14:54:18.107183,300
2021-12-23 14:54:18.107188,245
2021-12-23 14:54:18.107193,134
2021-12-23 14:54:18.107198,-36
2021-12-23 14:54:18.107204,-127
2021-12-23 14:54:18.107209,-50
2021-12-23 14:54:18.107214,-21
2021-12-23 14:54:18.107219,-115
2021-12-23 14:54:18.107224,-132
2021-12-23 14:54:18.107229,-57
2021-12-23 14:54:18.107234,-48
2021-12-23 14:54:18.107239,-93
2021-12-23 14:54:18.107244,-103
2021-12-23 14:54:18.107249,-84
2021-12-23 14:54:18.107254,-55
2021-12-23 14:54:18.107259,-19
2021-12-23 14:54:18.107265,-19
2021-12-23 14:54:18.421965,-55
2021-12-23 14:54:18.421980,-50
2021-12-23 14:54:18.421986,-19
2021-12-23 14:54:18.421990,-24
2021-12-23 14:54:18.421995,-14
2021-12-23 14:54:18.421999,4
2021-12-23 14:54:18.422004,-19
2021-12-23 14:54:18.422008,-33
2021-12-23 14:54:18.422012,-2
2021-12-23 14:54:18.422017,14
2021-12-23 14:54:18.422021,19
2021-12-23 14:54:18.422025,40
2021-12-23 14:54:18.422030,40
2021-12-23 14:54:18.422034,-2
2021-12-23 14:54:18.422039,-26
2021-12-23 14:54:18.422043,16
2021-12-23 14:54:18.422048,50
2021-12-23 14:54:18.422052,28
2021-12-23 14:54:18.422056,2
2021-12-23 14:54:18.422061,4
2021-12-23 14:54:18.422065,7
2021-12-23 14:54:18.422070,7
2021-12-23 14:54:18.422074,-9
2021-12-23 14:54:18.422079,-21
2021-12-23 14:54:18.422083,19
2021-12-23 14:54:18.422087,40
2021-12-23 14:54:18.422092,4
2021-12-23 14:54:18.422096,4
2021-12-23 14:54:18.422100,24
2021-12-23 14:54:18.422108,38
2021-12-23 14:54:18.601366,67
2021-12-23 14:54:18.601381,72
2021-12-23 14:54:18.601386,33
2021-12-23 14:54:18.601391,-9
2021-12-23 14:54:18.601395,-9
2021-12-23 14:54:18.601399,14
2021-12-23 14:54:18.601404,26
2021-12-23 14:54:18.601408,50
2021-12-23 14:54:18.601412,84
2021-12-23 14:54:18.601417,40
2021-12-23 14:54:18.601421,-28
2021-12-23 14:54:18.601426,14
2021-12-23 14:54:18.601430,55
2021-12-23 14:54:18.601434,84
2021-12-23 14:54:18.601439,290
2021-12-23 14:54:18.601443,668
2021-12-23 14:54:18.601447,988
2021-12-23 14:54:18.601452,668
2021-12-23 14:54:18.601456,-209
2021-12-23 14:54:18.601461,-387
2021-12-23 14:54:18.601465,81
2021-12-23 14:54:18.601469,72
2021-12-23 14:54:18.601474,-120
2021-12-23 14:54:18.601478,-2
2021-12-23 14:54:18.601483,38
2021-12-23 14:54:18.601487,-50
2021-12-23 14:54:18.601491,-31
2021-12-23 14:54:18.601496,19
2021-12-23 14:54:18.601500,12
2021-12-23 14:54:18.601504,9
2021-12-23 14:54:18.782040,40
2021-12-23 14:54:18.782057,67
2021-12-23 14:54:18.782063,64
2021-12-23 14:54:18.782069,60
2021-12-23 14:54:18.782074,57
2021-12-23 14:54:18.782079,60
2021-12-23 14:54:18.782084,74
2021-12-23 14:54:18.782089,91
2021-12-23 14:54:18.782094,98
2021-12-23 14:54:18.782099,115
2021-12-23 14:54:18.782104,161
2021-12-23 14:54:18.782109,199
2021-12-23 14:54:18.782114,177
2021-12-23 14:54:18.782119,156
2021-12-23 14:54:18.782123,209
2021-12-23 14:54:18.782128,266
2021-12-23 14:54:18.782134,281
2021-12-23 14:54:18.782139,283
2021-12-23 14:54:18.782144,293
2021-12-23 14:54:18.782167,319
2021-12-23 14:54:18.782234,327
2021-12-23 14:54:18.782247,230
2021-12-23 14:54:18.782257,110
2021-12-23 14:54:18.782267,67
2021-12-23 14:54:18.782276,24
2021-12-23 14:54:18.782286,-50
2021-12-23 14:54:18.782295,-72
2021-12-23 14:54:18.782322,-52
2021-12-23 14:54:18.782330,-28
2021-12-23 14:54:18.782335,-21
2021-12-23 14:54:19.007212,-43
2021-12-23 14:54:19.007244,-48
2021-12-23 14:54:19.007288,-38
2021-12-23 14:54:19.007295,-43
2021-12-23 14:54:19.007300,-40
2021-12-23 14:54:19.007304,-36
2021-12-23 14:54:19.007309,-36
2021-12-23 14:54:19.007313,-14
2021-12-23 14:54:19.007318,-12
2021-12-23 14:54:19.007322,-45
2021-12-23 14:54:19.007327,-57
2021-12-23 14:54:19.007331,-21
2021-12-23 14:54:19.007336,-2
2021-12-23 14:54:19.007340,-16
2021-12-23 14:54:19.007344,0
2021-12-23 14:54:19.007349,4
2021-12-23 14:54:19.007353,-21
2021-12-23 14:54:19.007360,-24
2021-12-23 14:54:19.007365,-24
2021-12-23 14:54:19.007370,-40
2021-12-23 14:54:19.007374,-33
2021-12-23 14:54:19.007378,-2
2021-12-23 14:54:19.007383,7
2021-12-23 14:54:19.007387,-2
2021-12-23 14:54:19.007391,-16
2021-12-23 14:54:19.007395,-31
2021-12-23 14:54:19.007400,-26
2021-12-23 14:54:19.007404,-7
2021-12-23 14:54:19.007408,-40
2021-12-23 14:54:19.007413,-81
2021-12-23 14:54:19.231567,-52
2021-12-23 14:54:19.231583,-19
2021-12-23 14:54:19.231589,-7
2021-12-23 14:54:19.231593,-9
2021-12-23 14:54:19.231598,-7
2021-12-23 14:54:19.231602,19
2021-12-23 14:54:19.231607,24
2021-12-23 14:54:19.231611,-4
2021-12-23 14:54:19.231616,-16
2021-12-23 14:54:19.231620,-16
2021-12-23 14:54:19.231624,-12
2021-12-23 14:54:19.231629,2
2021-12-23 14:54:19.231633,16
2021-12-23 14:54:19.231638,12
2021-12-23 14:54:19.231642,-4
2021-12-23 14:54:19.231647,-16
2021-12-23 14:54:19.231651,-16
2021-12-23 14:54:19.231656,4
2021-12-23 14:54:19.231660,40
2021-12-23 14:54:19.231664,50
2021-12-23 14:54:19.231669,113
2021-12-23 14:54:19.231673,365
2021-12-23 14:54:19.231678,762
2021-12-23 14:54:19.231682,966
2021-12-23 14:54:19.231687,420
2021-12-23 14:54:19.231691,-372
2021-12-23 14:54:19.231696,-295
2021-12-23 14:54:19.231700,122
2021-12-23 14:54:19.231705,19
2021-12-23 14:54:19.231709,-115
2021-12-23 14:54:19.500283,7
2021-12-23 14:54:19.500300,40
2021-12-23 14:54:19.500305,-33
2021-12-23 14:54:19.500309,-36
2021-12-23 14:54:19.500314,9
2021-12-23 14:54:19.500318,48
2021-12-23 14:54:19.500322,79
2021-12-23 14:54:19.500327,76
2021-12-23 14:54:19.500331,38
2021-12-23 14:54:19.500335,28
2021-12-23 14:54:19.500339,57
2021-12-23 14:54:19.500344,79
2021-12-23 14:54:19.500348,76
2021-12-23 14:54:19.500352,81
2021-12-23 14:54:19.500357,101
2021-12-23 14:54:19.500361,117
2021-12-23 14:54:19.500365,129
2021-12-23 14:54:19.500369,141
2021-12-23 14:54:19.500374,165
2021-12-23 14:54:19.500378,204
2021-12-23 14:54:19.500382,238
2021-12-23 14:54:19.500386,238
2021-12-23 14:54:19.500391,230
2021-12-23 14:54:19.500395,257
2021-12-23 14:54:19.500399,283
2021-12-23 14:54:19.500403,288
2021-12-23 14:54:19.500408,295
2021-12-23 14:54:19.500412,281
2021-12-23 14:54:19.500416,216
2021-12-23 14:54:19.500420,137
2021-12-23 14:54:19.682168,69
2021-12-23 14:54:19.682185,0
2021-12-23 14:54:19.682191,-62
2021-12-23 14:54:19.682196,-91
2021-12-23 14:54:19.682201,-79
2021-12-23 14:54:19.682206,-55
2021-12-23 14:54:19.682211,-52
2021-12-23 14:54:19.682216,-55
2021-12-23 14:54:19.682221,-50
2021-12-23 14:54:19.682226,-57
2021-12-23 14:54:19.682231,-60
2021-12-23 14:54:19.682236,-38
2021-12-23 14:54:19.682241,-26
2021-12-23 14:54:19.682247,-26
2021-12-23 14:54:19.682252,-28
2021-12-23 14:54:19.682257,-38
2021-12-23 14:54:19.682262,-19
2021-12-23 14:54:19.682267,28
2021-12-23 14:54:19.682273,31
2021-12-23 14:54:19.682278,-2
2021-12-23 14:54:19.682283,-12
2021-12-23 14:54:19.682288,-16
2021-12-23 14:54:19.682293,-21
2021-12-23 14:54:19.682298,-12
2021-12-23 14:54:19.682303,-12
2021-12-23 14:54:19.682308,-9
2021-12-23 14:54:19.682313,9
2021-12-23 14:54:19.682318,14
2021-12-23 14:54:19.682323,2
2021-12-23 14:54:19.682328,4
2021-12-23 14:54:19.952194,9
2021-12-23 14:54:19.952217,9
2021-12-23 14:54:19.952226,12
2021-12-23 14:54:19.952235,4
2021-12-23 14:54:19.952244,-12
2021-12-23 14:54:19.952270,-2
2021-12-23 14:54:19.952284,16
2021-12-23 14:54:19.952290,-7
2021-12-23 14:54:19.952294,-48
2021-12-23 14:54:19.952299,-40
2021-12-23 14:54:19.952303,-2
2021-12-23 14:54:19.952307,9
2021-12-23 14:54:19.952312,0
2021-12-23 14:54:19.952316,7
2021-12-23 14:54:19.952321,24
2021-12-23 14:54:19.952325,26
2021-12-23 14:54:19.952329,12
2021-12-23 14:54:19.952334,-2
2021-12-23 14:54:19.952338,-2
2021-12-23 14:54:19.952342,0
2021-12-23 14:54:19.952347,-7
2021-12-23 14:54:19.952352,0
2021-12-23 14:54:19.952356,9
2021-12-23 14:54:19.952361,9
2021-12-23 14:54:19.952365,12
2021-12-23 14:54:19.952369,21
2021-12-23 14:54:19.952374,33
2021-12-23 14:54:19.952378,31
2021-12-23 14:54:19.952385,50
2021-12-23 14:54:19.952390,214
2021-12-23 14:54:20.176565,567
2021-12-23 14:54:20.176580,937
2021-12-23 14:54:20.176585,793
2021-12-23 14:54:20.176589,-40
2021-12-23 14:54:20.176594,-464
2021-12-23 14:54:20.176599,-67
2021-12-23 14:54:20.176607,79
2021-12-23 14:54:20.176615,-125
2021-12-23 14:54:20.176624,-76
2021-12-23 14:54:20.176633,16
2021-12-23 14:54:20.176667,-40
2021-12-23 14:54:20.176678,-45
2021-12-23 14:54:20.176683,-4
2021-12-23 14:54:20.176687,-16
2021-12-23 14:54:20.176692,-21
2021-12-23 14:54:20.176696,-7
2021-12-23 14:54:20.176700,-7
2021-12-23 14:54:20.176705,12
2021-12-23 14:54:20.176709,38
2021-12-23 14:54:20.176714,31
2021-12-23 14:54:20.176718,28
2021-12-23 14:54:20.176722,57
2021-12-23 14:54:20.176727,69
2021-12-23 14:54:20.176731,64
2021-12-23 14:54:20.176735,81
2021-12-23 14:54:20.176740,105
2021-12-23 14:54:20.176744,129
2021-12-23 14:54:20.176748,146
2021-12-23 14:54:20.176753,146
2021-12-23 14:54:20.176757,177
2021-12-23 14:54:20.446765,245
2021-12-23 14:54:20.446781,262
2021-12-23 14:54:20.446787,242
2021-12-23 14:54:20.446791,250
2021-12-23 14:54:20.446796,259
2021-12-23 14:54:20.446800,252
2021-12-23 14:54:20.446805,218
2021-12-23 14:54:20.446809,156
2021-12-23 14:54:20.446814,79
2021-12-23 14:54:20.446818,14
2021-12-23 14:54:20.446822,-40
2021-12-23 14:54:20.446827,-79
2021-12-23 14:54:20.446831,-91
2021-12-23 14:54:20.446836,-88
2021-12-23 14:54:20.446840,-91
2021-12-23 14:54:20.446845,-93
2021-12-23 14:54:20.446849,-81
2021-12-23 14:54:20.446854,-64
2021-12-23 14:54:20.446858,-55
2021-12-23 14:54:20.446862,-50
2021-12-23 14:54:20.446867,-43
2021-12-23 14:54:20.446871,-38
2021-12-23 14:54:20.446876,-28
2021-12-23 14:54:20.446880,-28
2021-12-23 14:54:20.446885,-36
2021-12-23 14:54:20.446889,-24
2021-12-23 14:54:20.446894,4
2021-12-23 14:54:20.446898,2
2021-12-23 14:54:20.446903,-21
2021-12-23 14:54:20.446907,-16
2021-12-23 14:54:20.626893,-4
2021-12-23 14:54:20.626908,-14
2021-12-23 14:54:20.626914,-21
2021-12-23 14:54:20.626918,-12
2021-12-23 14:54:20.626923,2
2021-12-23 14:54:20.626927,12
2021-12-23 14:54:20.626932,2
2021-12-23 14:54:20.626936,-16
2021-12-23 14:54:20.626940,-9
2021-12-23 14:54:20.626945,0
2021-12-23 14:54:20.626949,-2
2021-12-23 14:54:20.626953,-7
2021-12-23 14:54:20.626958,-12
2021-12-23 14:54:20.626962,-31
2021-12-23 14:54:20.626966,-31
2021-12-23 14:54:20.626971,4
2021-12-23 14:54:20.626975,31
2021-12-23 14:54:20.626980,12
2021-12-23 14:54:20.626984,-26
2021-12-23 14:54:20.626988,-33
2021-12-23 14:54:20.626993,-7
2021-12-23 14:54:20.626998,14
2021-12-23 14:54:20.627002,24
2021-12-23 14:54:20.627007,28
2021-12-23 14:54:20.627011,16
2021-12-23 14:54:20.627015,-4
2021-12-23 14:54:20.627020,-2
2021-12-23 14:54:20.627024,19
2021-12-23 14:54:20.627028,9
2021-12-23 14:54:20.627033,-21
2021-12-23 14:54:20.896630,-19
2021-12-23 14:54:20.896645,-2
2021-12-23 14:54:20.896650,4
2021-12-23 14:54:20.896655,19
2021-12-23 14:54:20.896659,33
2021-12-23 14:54:20.896664,28
2021-12-23 14:54:20.896668,67
2021-12-23 14:54:20.896672,274
2021-12-23 14:54:20.896677,654
2021-12-23 14:54:20.896681,947
2021-12-23 14:54:20.896685,579
2021-12-23 14:54:20.896690,-262
2021-12-23 14:54:20.896694,-394
2021-12-23 14:54:20.896699,43
2021-12-23 14:54:20.896703,40
2021-12-23 14:54:20.896707,-137
2021-12-23 14:54:20.896712,-57
2021-12-23 14:54:20.896716,2
2021-12-23 14:54:20.896721,-40
2021-12-23 14:54:20.896726,-31
2021-12-23 14:54:20.896730,0
2021-12-23 14:54:20.896734,0
2021-12-23 14:54:20.896739,14
2021-12-23 14:54:20.896743,40
2021-12-23 14:54:20.896747,48
2021-12-23 14:54:20.896752,36
2021-12-23 14:54:20.896756,36
2021-12-23 14:54:20.896761,48
2021-12-23 14:54:20.896765,57
2021-12-23 14:54:20.896769,67
2021-12-23 14:54:21.121902,88
2021-12-23 14:54:21.121918,110
2021-12-23 14:54:21.121923,127
2021-12-23 14:54:21.121928,146
2021-12-23 14:54:21.121932,158
2021-12-23 14:54:21.121936,165
2021-12-23 14:54:21.121941,168
2021-12-23 14:54:21.121945,187
2021-12-23 14:54:21.121949,214
2021-12-23 14:54:21.121954,221
2021-12-23 14:54:21.121958,228
2021-12-23 14:54:21.121962,254
2021-12-23 14:54:21.121967,269
2021-12-23 14:54:21.121971,245
2021-12-23 14:54:21.121975,206
2021-12-23 14:54:21.121980,153
2021-12-23 14:54:21.121984,81
2021-12-23 14:54:21.121988,12
2021-12-23 14:54:21.121992,-38
2021-12-23 14:54:21.121997,-81
2021-12-23 14:54:21.122001,-108
2021-12-23 14:54:21.122005,-113
2021-12-23 14:54:21.122010,-93
2021-12-23 14:54:21.122014,-74
2021-12-23 14:54:21.122018,-81
2021-12-23 14:54:21.122023,-81
2021-12-23 14:54:21.122027,-57
2021-12-23 14:54:21.122031,-55
2021-12-23 14:54:21.122036,-60
2021-12-23 14:54:21.122040,-52
2021-12-23 14:54:21.302087,-52
2021-12-23 14:54:21.302104,-45
2021-12-23 14:54:21.302110,-21
2021-12-23 14:54:21.302114,-21
2021-12-23 14:54:21.302119,-48
2021-12-23 14:54:21.302123,-45
2021-12-23 14:54:21.302128,-24
2021-12-23 14:54:21.302132,-19
2021-12-23 14:54:21.302136,-26
2021-12-23 14:54:21.302141,-28
2021-12-23 14:54:21.302145,-33
2021-12-23 14:54:21.302150,-38
2021-12-23 14:54:21.302154,-21
2021-12-23 14:54:21.302158,-4
2021-12-23 14:54:21.302163,-16
2021-12-23 14:54:21.302167,-40
2021-12-23 14:54:21.302171,-50
2021-12-23 14:54:21.302176,-36
2021-12-23 14:54:21.302180,-21
2021-12-23 14:54:21.302184,-24
2021-12-23 14:54:21.302189,-36
2021-12-23 14:54:21.302193,-38
2021-12-23 14:54:21.302197,-33
2021-12-23 14:54:21.302202,-43
2021-12-23 14:54:21.302206,-50
2021-12-23 14:54:21.302210,-36
2021-12-23 14:54:21.302214,-24
2021-12-23 14:54:21.302219,-16
2021-12-23 14:54:21.302223,-4
2021-12-23 14:54:21.302228,0
2021-12-23 14:54:21.570713,-4
2021-12-23 14:54:21.570729,-7
2021-12-23 14:54:21.570735,-12
2021-12-23 14:54:21.570741,-21
2021-12-23 14:54:21.570746,-26
2021-12-23 14:54:21.570750,-24
2021-12-23 14:54:21.570755,-14
2021-12-23 14:54:21.570761,-7
2021-12-23 14:54:21.570766,-16
2021-12-23 14:54:21.570771,-36
2021-12-23 14:54:21.570776,-33
2021-12-23 14:54:21.570781,-7
2021-12-23 14:54:21.570786,31
2021-12-23 14:54:21.570791,194
2021-12-23 14:54:21.570796,572
2021-12-23 14:54:21.570801,954
2021-12-23 14:54:21.570806,697
2021-12-23 14:54:21.570811,-199
2021-12-23 14:54:21.570816,-505
2021-12-23 14:54:21.570821,-67
2021-12-23 14:54:21.570826,31
2021-12-23 14:54:21.570831,-146
2021-12-23 14:54:21.570836,-84
2021-12-23 14:54:21.570841,-16
2021-12-23 14:54:21.570846,-62
2021-12-23 14:54:21.570851,-55
2021-12-23 14:54:21.570856,-16
2021-12-23 14:54:21.570861,-16
2021-12-23 14:54:21.570867,-16
2021-12-23 14:54:21.570872,-2
2021-12-23 14:54:21.797008,7
2021-12-23 14:54:21.797023,12
2021-12-23 14:54:21.797029,9
2021-12-23 14:54:21.797033,14
2021-12-23 14:54:21.797037,38
2021-12-23 14:54:21.797042,57
2021-12-23 14:54:21.797046,67
2021-12-23 14:54:21.797050,81
2021-12-23 14:54:21.797055,103
2021-12-23 14:54:21.797059,127
2021-12-23 14:54:21.797063,149
2021-12-23 14:54:21.797068,153
2021-12-23 14:54:21.797072,158
2021-12-23 14:54:21.797076,189
2021-12-23 14:54:21.797081,218
2021-12-23 14:54:21.797085,238
2021-12-23 14:54:21.797089,250
2021-12-23 14:54:21.797094,257
2021-12-23 14:54:21.797098,271
2021-12-23 14:54:21.797102,254
2021-12-23 14:54:21.797107,204
2021-12-23 14:54:21.797111,158
2021-12-23 14:54:21.797116,115
2021-12-23 14:54:21.797127,48
2021-12-23 14:54:21.797131,-14
2021-12-23 14:54:21.797136,-50
2021-12-23 14:54:21.797140,-72
2021-12-23 14:54:21.797144,-74
2021-12-23 14:54:21.797149,-64
2021-12-23 14:54:21.797153,-57
2021-12-23 14:54:22.021720,-48
2021-12-23 14:54:22.021737,-40
2021-12-23 14:54:22.021743,-38
2021-12-23 14:54:22.021747,-21
2021-12-23 14:54:22.021752,-9
2021-12-23 14:54:22.021756,-12
2021-12-23 14:54:22.021761,-9
2021-12-23 14:54:22.021765,-7
2021-12-23 14:54:22.021770,-4
2021-12-23 14:54:22.021774,0
2021-12-23 14:54:22.021779,-4
2021-12-23 14:54:22.021783,-7
2021-12-23 14:54:22.021788,4
2021-12-23 14:54:22.021792,0
2021-12-23 14:54:22.021796,-4
2021-12-23 14:54:22.021801,0
2021-12-23 14:54:22.021805,-7
2021-12-23 14:54:22.021810,-12
2021-12-23 14:54:22.021815,4
2021-12-23 14:54:22.021819,14
2021-12-23 14:54:22.021824,2
2021-12-23 14:54:22.021828,-9
2021-12-23 14:54:22.021832,-12
2021-12-23 14:54:22.021837,-4
2021-12-23 14:54:22.021841,2
2021-12-23 14:54:22.021846,4
2021-12-23 14:54:22.021850,4
2021-12-23 14:54:22.021854,7
2021-12-23 14:54:22.021859,26
2021-12-23 14:54:22.021863,43
2021-12-23 14:54:22.246481,36
2021-12-23 14:54:22.246496,16
2021-12-23 14:54:22.246502,7
2021-12-23 14:54:22.246507,0
2021-12-23 14:54:22.246513,2
2021-12-23 14:54:22.246518,12
2021-12-23 14:54:22.246522,9
2021-12-23 14:54:22.246527,7
2021-12-23 14:54:22.246532,9
2021-12-23 14:54:22.246537,7
2021-12-23 14:54:22.246542,9
2021-12-23 14:54:22.246547,21
2021-12-23 14:54:22.246552,19
2021-12-23 14:54:22.246557,38
2021-12-23 14:54:22.246562,194
2021-12-23 14:54:22.246567,526
2021-12-23 14:54:22.246572,882
2021-12-23 14:54:22.246577,694
2021-12-23 14:54:22.246582,-132
2021-12-23 14:54:22.246588,-440
2021-12-23 14:54:22.246593,-16
2021-12-23 14:54:22.246598,69
2021-12-23 14:54:22.246603,-129
2021-12-23 14:54:22.246608,-60
2021-12-23 14:54:22.246613,21
2021-12-23 14:54:22.246618,-43
2021-12-23 14:54:22.246623,-38
2021-12-23 14:54:22.246628,7
2021-12-23 14:54:22.246633,-9
2021-12-23 14:54:22.246638,-12
2021-12-23 14:54:22.517034,21
2021-12-23 14:54:22.517048,40
2021-12-23 14:54:22.517054,40
2021-12-23 14:54:22.517058,31
2021-12-23 14:54:22.517063,28
2021-12-23 14:54:22.517067,48
2021-12-23 14:54:22.517072,67
2021-12-23 14:54:22.517076,69
2021-12-23 14:54:22.517081,74
2021-12-23 14:54:22.517085,91
2021-12-23 14:54:22.517090,115
2021-12-23 14:54:22.517094,134
2021-12-23 14:54:22.517099,153
2021-12-23 14:54:22.517103,173
2021-12-23 14:54:22.517107,197
2021-12-23 14:54:22.517112,226
2021-12-23 14:54:22.517116,223
2021-12-23 14:54:22.517121,209
2021-12-23 14:54:22.517125,223
2021-12-23 14:54:22.517129,235
2021-12-23 14:54:22.517134,209
2021-12-23 14:54:22.517138,165
2021-12-23 14:54:22.517144,122
2021-12-23 14:54:22.517148,64
2021-12-23 14:54:22.517168,7
2021-12-23 14:54:22.517173,-40
2021-12-23 14:54:22.517178,-79
2021-12-23 14:54:22.517183,-96
2021-12-23 14:54:22.517188,-76
2021-12-23 14:54:22.517193,-60
2021-12-23 14:54:22.696635,-60
2021-12-23 14:54:22.696695,-64
2021-12-23 14:54:22.696707,-52
2021-12-23 14:54:22.696712,-40
2021-12-23 14:54:22.696716,-31
2021-12-23 14:54:22.696721,-31
2021-12-23 14:54:22.696725,-36
2021-12-23 14:54:22.696729,-33
2021-12-23 14:54:22.696733,-31
2021-12-23 14:54:22.696738,-31
2021-12-23 14:54:22.696742,-12
2021-12-23 14:54:22.696746,7
2021-12-23 14:54:22.696750,4
2021-12-23 14:54:22.696755,-7
2021-12-23 14:54:22.696759,-2
2021-12-23 14:54:22.696763,2
2021-12-23 14:54:22.696768,2
2021-12-23 14:54:22.696772,7
2021-12-23 14:54:22.696776,7
2021-12-23 14:54:22.696780,-7
2021-12-23 14:54:22.696788,-7
2021-12-23 14:54:22.696793,12
2021-12-23 14:54:22.696797,12
2021-12-23 14:54:22.696801,7
2021-12-23 14:54:22.696806,16
2021-12-23 14:54:22.696810,12
2021-12-23 14:54:22.696814,-7
2021-12-23 14:54:22.696819,-2
2021-12-23 14:54:22.696824,0
2021-12-23 14:54:22.696828,-14
2021-12-23 14:54:22.966360,0
2021-12-23 14:54:22.966375,31
2021-12-23 14:54:22.966381,36
2021-12-23 14:54:22.966385,28
2021-12-23 14:54:22.966389,21
2021-12-23 14:54:22.966394,12
2021-12-23 14:54:22.966398,4
2021-12-23 14:54:22.966402,14
2021-12-23 14:54:22.966407,21
2021-12-23 14:54:22.966411,21
2021-12-23 14:54:22.966415,26
2021-12-23 14:54:22.966420,38
2021-12-23 14:54:22.966424,36
2021-12-23 14:54:22.966428,24
2021-12-23 14:54:22.966433,24
2021-12-23 14:54:22.966437,108
2021-12-23 14:54:22.966441,363
2021-12-23 14:54:22.966446,759
2021-12-23 14:54:22.966450,966
2021-12-23 14:54:22.966455,408
2021-12-23 14:54:22.966459,-389
2021-12-23 14:54:22.966464,-305
2021-12-23 14:54:22.966468,91
2021-12-23 14:54:22.966473,-7
2021-12-23 14:54:22.966477,-101
2021-12-23 14:54:22.966481,7
2021-12-23 14:54:22.966486,-2
2021-12-23 14:54:22.966490,-48
2021-12-23 14:54:22.966494,-12
2021-12-23 14:54:22.966498,9
2021-12-23 14:54:23.146611,2
2021-12-23 14:54:23.146626,14
2021-12-23 14:54:23.146631,21
2021-12-23 14:54:23.146636,16
2021-12-23 14:54:23.146641,21
2021-12-23 14:54:23.146645,31
2021-12-23 14:54:23.146649,33
2021-12-23 14:54:23.146654,45
2021-12-23 14:54:23.146658,72
2021-12-23 14:54:23.146663,86
2021-12-23 14:54:23.146667,88
2021-12-23 14:54:23.146671,98
2021-12-23 14:54:23.146676,120
2021-12-23 14:54:23.146680,137
2021-12-23 14:54:23.146685,149
2021-12-23 14:54:23.146689,170
2021-12-23 14:54:23.146694,189
2021-12-23 14:54:23.146698,199
2021-12-23 14:54:23.146703,214
2021-12-23 14:54:23.146707,235
2021-12-23 14:54:23.146712,245
2021-12-23 14:54:23.146716,226
2021-12-23 14:54:23.146720,202
2021-12-23 14:54:23.146725,165
2021-12-23 14:54:23.146729,103
2021-12-23 14:54:23.146733,31
2021-12-23 14:54:23.146738,-26
2021-12-23 14:54:23.146742,-62
2021-12-23 14:54:23.146747,-79
2021-12-23 14:54:23.146751,-86
2021-12-23 14:54:23.371685,-88
2021-12-23 14:54:23.371704,-91
2021-12-23 14:54:23.371709,-88
2021-12-23 14:54:23.371714,-81
2021-12-23 14:54:23.371719,-81
2021-12-23 14:54:23.371723,-67
2021-12-23 14:54:23.371728,-45
2021-12-23 14:54:23.371732,-40
2021-12-23 14:54:23.371737,-38
2021-12-23 14:54:23.371741,-28
2021-12-23 14:54:23.371746,-36
2021-12-23 14:54:23.371750,-48
2021-12-23 14:54:23.371754,-38
2021-12-23 14:54:23.371759,-26
2021-12-23 14:54:23.371763,-38
2021-12-23 14:54:23.371768,-48
2021-12-23 14:54:23.371772,-31
2021-12-23 14:54:23.371777,-16
2021-12-23 14:54:23.371782,-19
2021-12-23 14:54:23.371786,-21
2021-12-23 14:54:23.371791,-24
2021-12-23 14:54:23.371796,-38
2021-12-23 14:54:23.371800,-50
2021-12-23 14:54:23.371804,-38
2021-12-23 14:54:23.371809,-12
2021-12-23 14:54:23.371813,2
2021-12-23 14:54:23.371818,-7
2021-12-23 14:54:23.371822,-9
2021-12-23 14:54:23.371827,-9
2021-12-23 14:54:23.371831,-19
2021-12-23 14:54:23.730381,-16
2021-12-23 14:54:23.730397,12
2021-12-23 14:54:23.730402,28
2021-12-23 14:54:23.730407,12
2021-12-23 14:54:23.730411,2
2021-12-23 14:54:23.730416,12
2021-12-23 14:54:23.730420,-2
2021-12-23 14:54:23.730424,-24
2021-12-23 14:54:23.730429,-14
2021-12-23 14:54:23.730433,-12
2021-12-23 14:54:23.730438,-28
2021-12-23 14:54:23.730442,-24
2021-12-23 14:54:23.730447,-9
2021-12-23 14:54:23.730451,-12
2021-12-23 14:54:23.730456,-9
2021-12-23 14:54:23.730460,-7
2021-12-23 14:54:23.730464,28
2021-12-23 14:54:23.730469,233
2021-12-23 14:54:23.730473,634
2021-12-23 14:54:23.730477,969
2021-12-23 14:54:23.730482,606
2021-12-23 14:54:23.730486,-293
2021-12-23 14:54:23.730491,-466
2021-12-23 14:54:23.730495,-14
2021-12-23 14:54:23.730499,4
2021-12-23 14:54:23.730504,-165
2021-12-23 14:54:23.730508,-74
2021-12-23 14:54:23.730513,-16
2021-12-23 14:54:23.730517,-72
2021-12-23 14:54:23.730521,-62
2021-12-23 14:54:23.867195,-19
2021-12-23 14:54:23.867211,-31
2021-12-23 14:54:23.867217,-48
2021-12-23 14:54:23.867231,-28
2021-12-23 14:54:23.867411,-16
2021-12-23 14:54:23.867416,-12
2021-12-23 14:54:23.867420,7
2021-12-23 14:54:23.867424,16
2021-12-23 14:54:23.867429,-2
2021-12-23 14:54:23.867433,9
2021-12-23 14:54:23.867438,40
2021-12-23 14:54:23.867442,48
2021-12-23 14:54:23.867446,67
2021-12-23 14:54:23.867451,98
2021-12-23 14:54:23.867455,103
2021-12-23 14:54:23.867460,110
2021-12-23 14:54:23.867464,146
2021-12-23 14:54:23.867472,173
2021-12-23 14:54:23.867476,180
2021-12-23 14:54:23.867481,197
2021-12-23 14:54:23.867485,211
2021-12-23 14:54:23.867489,211
2021-12-23 14:54:23.867494,209
2021-12-23 14:54:23.867498,199
2021-12-23 14:54:23.867502,151
2021-12-23 14:54:23.867507,74
2021-12-23 14:54:23.867512,-7
2021-12-23 14:54:23.867516,-64
2021-12-23 14:54:23.867521,-96
2021-12-23 14:54:23.867525,-117
2021-12-23 14:54:24.091915,-127
2021-12-23 14:54:24.091950,-127
2021-12-23 14:54:24.091957,-127
2021-12-23 14:54:24.091963,-125
2021-12-23 14:54:24.091969,-110
2021-12-23 14:54:24.091974,-96
2021-12-23 14:54:24.091979,-91
2021-12-23 14:54:24.091985,-84
2021-12-23 14:54:24.091990,-86
2021-12-23 14:54:24.091995,-91
2021-12-23 14:54:24.092000,-69
2021-12-23 14:54:24.092005,-43
2021-12-23 14:54:24.092010,-43
2021-12-23 14:54:24.092015,-55
2021-12-23 14:54:24.092020,-60
2021-12-23 14:54:24.092025,-52
2021-12-23 14:54:24.092030,-43
2021-12-23 14:54:24.092035,-40
2021-12-23 14:54:24.092040,-38
2021-12-23 14:54:24.092045,-33
2021-12-23 14:54:24.092049,-31
2021-12-23 14:54:24.092054,-36
2021-12-23 14:54:24.092059,-43
2021-12-23 14:54:24.092064,-38
2021-12-23 14:54:24.092069,-26
2021-12-23 14:54:24.092074,-14
2021-12-23 14:54:24.092079,-16
2021-12-23 14:54:24.092084,-12
2021-12-23 14:54:24.092089,7
2021-12-23 14:54:24.092094,14
2021-12-23 14:54:24.316987,4
2021-12-23 14:54:24.317002,0
2021-12-23 14:54:24.317007,-7
2021-12-23 14:54:24.317012,-12
2021-12-23 14:54:24.317017,-2
2021-12-23 14:54:24.317021,7
2021-12-23 14:54:24.317026,2
2021-12-23 14:54:24.317030,0
2021-12-23 14:54:24.317035,2
2021-12-23 14:54:24.317039,4
2021-12-23 14:54:24.317043,12
2021-12-23 14:54:24.317048,16
2021-12-23 14:54:24.317052,36
2021-12-23 14:54:24.317057,192
2021-12-23 14:54:24.317061,565
2021-12-23 14:54:24.317066,959
2021-12-23 14:54:24.317070,743
2021-12-23 14:54:24.317074,-146
2021-12-23 14:54:24.317079,-497
2021-12-23 14:54:24.317083,-72
2021-12-23 14:54:24.317088,50
2021-12-23 14:54:24.317092,-115
2021-12-23 14:54:24.317096,-52
2021-12-23 14:54:24.317101,0
2021-12-23 14:54:24.317105,-84
2021-12-23 14:54:24.317110,-79
2021-12-23 14:54:24.317114,-12
2021-12-23 14:54:24.317119,-7
2021-12-23 14:54:24.317123,-12
2021-12-23 14:54:24.317127,21
2021-12-23 14:54:24.586462,40
2021-12-23 14:54:24.586480,14
2021-12-23 14:54:24.586486,-4
2021-12-23 14:54:24.586491,26
2021-12-23 14:54:24.586496,55
2021-12-23 14:54:24.586501,50
2021-12-23 14:54:24.586506,62
2021-12-23 14:54:24.586511,101
2021-12-23 14:54:24.586516,120
2021-12-23 14:54:24.586521,113
2021-12-23 14:54:24.586526,113
2021-12-23 14:54:24.586531,120
2021-12-23 14:54:24.586536,117
2021-12-23 14:54:24.586541,144
2021-12-23 14:54:24.586546,216
2021-12-23 14:54:24.586551,269
2021-12-23 14:54:24.586556,286
2021-12-23 14:54:24.586561,286
2021-12-23 14:54:24.586566,252
2021-12-23 14:54:24.586572,206
2021-12-23 14:54:24.586577,156
2021-12-23 14:54:24.586582,67
2021-12-23 14:54:24.586587,2
2021-12-23 14:54:24.586592,-2
2021-12-23 14:54:24.586597,-31
2021-12-23 14:54:24.586602,-96
2021-12-23 14:54:24.586607,-101
2021-12-23 14:54:24.586612,-60
2021-12-23 14:54:24.586617,-36
2021-12-23 14:54:24.586622,-36
2021-12-23 14:54:24.767177,-62
2021-12-23 14:54:24.767199,-91
2021-12-23 14:54:24.767205,-86
2021-12-23 14:54:24.767209,-48
2021-12-23 14:54:24.767214,7
2021-12-23 14:54:24.767218,16
2021-12-23 14:54:24.767223,0
2021-12-23 14:54:24.767227,9
2021-12-23 14:54:24.767232,7
2021-12-23 14:54:24.767237,-33
2021-12-23 14:54:24.767242,-48
2021-12-23 14:54:24.767247,-2
2021-12-23 14:54:24.767252,45
2021-12-23 14:54:24.767256,60
2021-12-23 14:54:24.767261,48
2021-12-23 14:54:24.767265,24
2021-12-23 14:54:24.767270,9
2021-12-23 14:54:24.767275,12
2021-12-23 14:54:24.767280,2
2021-12-23 14:54:24.767284,-38
2021-12-23 14:54:24.767289,-45
2021-12-23 14:54:24.767293,31
2021-12-23 14:54:24.767298,81
2021-12-23 14:54:24.767302,69
2021-12-23 14:54:24.767307,64
2021-12-23 14:54:24.767311,48
2021-12-23 14:54:24.767316,4
2021-12-23 14:54:24.767321,7
2021-12-23 14:54:24.767325,43
2021-12-23 14:54:24.767330,57
2021-12-23 14:54:24.992028,55
2021-12-23 14:54:24.992044,43
2021-12-23 14:54:24.992049,48
2021-12-23 14:54:24.992054,76
2021-12-23 14:54:24.992058,69
2021-12-23 14:54:24.992063,9
2021-12-23 14:54:24.992067,-24
2021-12-23 14:54:24.992072,21
2021-12-23 14:54:24.992076,86
2021-12-23 14:54:24.992081,108
2021-12-23 14:54:24.992085,163
2021-12-23 14:54:24.992090,367
2021-12-23 14:54:24.992094,743
2021-12-23 14:54:24.992099,973
2021-12-23 14:54:24.992103,444
2021-12-23 14:54:24.992108,-351
2021-12-23 14:54:24.992112,-254
2021-12-23 14:54:24.992117,151
2021-12-23 14:54:24.992121,31
2021-12-23 14:54:24.992126,-57
2021-12-23 14:54:24.992130,45
2021-12-23 14:54:24.992135,0
2021-12-23 14:54:24.992140,-43
2021-12-23 14:54:24.992145,16
2021-12-23 14:54:24.992149,-4
2021-12-23 14:54:24.992153,-52
2021-12-23 14:54:24.992158,4
2021-12-23 14:54:24.992162,67
2021-12-23 14:54:24.992167,67
2021-12-23 14:54:24.992172,84
2021-12-23 14:54:25.261126,91
2021-12-23 14:54:25.261143,79
2021-12-23 14:54:25.261149,86
2021-12-23 14:54:25.261153,93
2021-12-23 14:54:25.261158,79
2021-12-23 14:54:25.261162,72
2021-12-23 14:54:25.261167,115
2021-12-23 14:54:25.261171,194
2021-12-23 14:54:25.261176,226
2021-12-23 14:54:25.261180,199
2021-12-23 14:54:25.261184,185
2021-12-23 14:54:25.261189,214
2021-12-23 14:54:25.261193,233
2021-12-23 14:54:25.261198,233
2021-12-23 14:54:25.261202,245
2021-12-23 14:54:25.261207,250
2021-12-23 14:54:25.261211,218
2021-12-23 14:54:25.261215,170
2021-12-23 14:54:25.261220,108
2021-12-23 14:54:25.261224,33
2021-12-23 14:54:25.261229,-28
2021-12-23 14:54:25.261233,-74
2021-12-23 14:54:25.261237,-98
2021-12-23 14:54:25.261242,-103
2021-12-23 14:54:25.261246,-115
2021-12-23 14:54:25.261251,-125
2021-12-23 14:54:25.261255,-103
2021-12-23 14:54:25.261259,-81
2021-12-23 14:54:25.261264,-79
2021-12-23 14:54:25.261268,-79
2021-12-23 14:54:25.575878,-74
2021-12-23 14:54:25.575902,-67
2021-12-23 14:54:25.575907,-62
2021-12-23 14:54:25.575912,-60
2021-12-23 14:54:25.575916,-57
2021-12-23 14:54:25.575921,-60
2021-12-23 14:54:25.575925,-76
2021-12-23 14:54:25.575929,-62
2021-12-23 14:54:25.575934,-16
2021-12-23 14:54:25.575938,-7
2021-12-23 14:54:25.575942,-40
2021-12-23 14:54:25.575947,-62
2021-12-23 14:54:25.575951,-52
2021-12-23 14:54:25.575955,-45
2021-12-23 14:54:25.575960,-57
2021-12-23 14:54:25.575964,-76
2021-12-23 14:54:25.575969,-86
2021-12-23 14:54:25.575973,-52
2021-12-23 14:54:25.575977,-4
2021-12-23 14:54:25.575982,-7
2021-12-23 14:54:25.575986,-31
2021-12-23 14:54:25.575990,-16
2021-12-23 14:54:25.575994,-9
2021-12-23 14:54:25.575999,-16
2021-12-23 14:54:25.576003,-19
2021-12-23 14:54:25.576007,-38
2021-12-23 14:54:25.576012,-67
2021-12-23 14:54:25.576016,-62
2021-12-23 14:54:25.576021,-24
2021-12-23 14:54:25.576025,-2
2021-12-23 14:54:25.755772,-9
2021-12-23 14:54:25.755789,-12
2021-12-23 14:54:25.755794,0
2021-12-23 14:54:25.755799,9
2021-12-23 14:54:25.755804,9
2021-12-23 14:54:25.755808,60
2021-12-23 14:54:25.755813,269
2021-12-23 14:54:25.755817,639
2021-12-23 14:54:25.755821,937
2021-12-23 14:54:25.755826,572
2021-12-23 14:54:25.755830,-269
2021-12-23 14:54:25.755835,-394
2021-12-23 14:54:25.755839,43
2021-12-23 14:54:25.755844,31
2021-12-23 14:54:25.755848,-156
2021-12-23 14:54:25.755853,-96
2021-12-23 14:54:25.755857,-40
2021-12-23 14:54:25.755862,-62
2021-12-23 14:54:25.755866,-40
2021-12-23 14:54:25.755871,-26
2021-12-23 14:54:25.755902,-48
2021-12-23 14:54:25.755917,-38
2021-12-23 14:54:25.755925,-7
2021-12-23 14:54:25.755934,9
2021-12-23 14:54:25.755942,19
2021-12-23 14:54:25.755950,24
2021-12-23 14:54:25.755958,14
2021-12-23 14:54:25.755967,21
2021-12-23 14:54:25.755975,52
2021-12-23 14:54:25.755983,74
2021-12-23 14:54:25.936555,79
2021-12-23 14:54:25.936569,96
2021-12-23 14:54:25.936574,117
2021-12-23 14:54:25.936578,144
2021-12-23 14:54:25.936583,170
2021-12-23 14:54:25.936587,187
2021-12-23 14:54:25.936591,206
2021-12-23 14:54:25.936596,233
2021-12-23 14:54:25.936601,238
2021-12-23 14:54:25.936605,250
2021-12-23 14:54:25.936609,283
2021-12-23 14:54:25.936614,266
2021-12-23 14:54:25.936618,185
2021-12-23 14:54:25.936623,101
2021-12-23 14:54:25.936627,28
2021-12-23 14:54:25.936632,-40
2021-12-23 14:54:25.936636,-93
2021-12-23 14:54:25.936640,-115
2021-12-23 14:54:25.936645,-108
2021-12-23 14:54:25.936649,-110
2021-12-23 14:54:25.936653,-120
2021-12-23 14:54:25.936658,-115
2021-12-23 14:54:25.936662,-96
2021-12-23 14:54:25.936666,-91
2021-12-23 14:54:25.936671,-93
2021-12-23 14:54:25.936675,-88
2021-12-23 14:54:25.936679,-91
2021-12-23 14:54:25.936683,-93
2021-12-23 14:54:25.936688,-72
2021-12-23 14:54:25.936692,-43
2021-12-23 14:54:26.161604,-43
2021-12-23 14:54:26.161626,-64
2021-12-23 14:54:26.161635,-62
2021-12-23 14:54:26.161643,-48
2021-12-23 14:54:26.161651,-40
2021-12-23 14:54:26.161659,-43
2021-12-23 14:54:26.161668,-48
2021-12-23 14:54:26.161676,-48
2021-12-23 14:54:26.161684,-43
2021-12-23 14:54:26.161690,-40
2021-12-23 14:54:26.161694,-31
2021-12-23 14:54:26.161699,-24
2021-12-23 14:54:26.161703,-50
2021-12-23 14:54:26.161707,-72
2021-12-23 14:54:26.161737,-52
2021-12-23 14:54:26.161742,-31
2021-12-23 14:54:26.161746,-28
2021-12-23 14:54:26.161750,-21
2021-12-23 14:54:26.161755,-12
2021-12-23 14:54:26.161759,-14
2021-12-23 14:54:26.161763,-26
2021-12-23 14:54:26.161768,-28
2021-12-23 14:54:26.161772,-24
2021-12-23 14:54:26.161776,-26
2021-12-23 14:54:26.161781,-50
2021-12-23 14:54:26.161785,-50
2021-12-23 14:54:26.161789,-24
2021-12-23 14:54:26.161793,-21
2021-12-23 14:54:26.161798,-24
2021-12-23 14:54:26.161802,-4
2021-12-23 14:54:26.387326,4
2021-12-23 14:54:26.387342,16
2021-12-23 14:54:26.387347,137
2021-12-23 14:54:26.387352,444
2021-12-23 14:54:26.387356,882
2021-12-23 14:54:26.387360,918
2021-12-23 14:54:26.387365,115
2021-12-23 14:54:26.387369,-488
2021-12-23 14:54:26.387373,-127
2021-12-23 14:54:26.387378,103
2021-12-23 14:54:26.387382,-129
2021-12-23 14:54:26.387386,-115
2021-12-23 14:54:26.387391,7
2021-12-23 14:54:26.387395,-45
2021-12-23 14:54:26.387399,-67
2021-12-23 14:54:26.387404,-16
2021-12-23 14:54:26.387408,9
2021-12-23 14:54:26.387413,21
2021-12-23 14:54:26.387417,16
2021-12-23 14:54:26.387421,16
2021-12-23 14:54:26.387426,40
2021-12-23 14:54:26.387430,45
2021-12-23 14:54:26.387434,31
2021-12-23 14:54:26.387439,28
2021-12-23 14:54:26.387443,52
2021-12-23 14:54:26.387447,93
2021-12-23 14:54:26.387452,127
2021-12-23 14:54:26.387456,134
2021-12-23 14:54:26.387460,139
2021-12-23 14:54:26.387465,163
2021-12-23 14:54:26.611609,194
2021-12-23 14:54:26.611626,216
2021-12-23 14:54:26.611631,235
2021-12-23 14:54:26.611636,254
2021-12-23 14:54:26.611640,269
2021-12-23 14:54:26.611645,290
2021-12-23 14:54:26.611649,307
2021-12-23 14:54:26.611654,293
2021-12-23 14:54:26.611658,252
2021-12-23 14:54:26.611663,192
2021-12-23 14:54:26.611667,110
2021-12-23 14:54:26.611672,31
2021-12-23 14:54:26.611676,-24
2021-12-23 14:54:26.611681,-64
2021-12-23 14:54:26.611685,-84
2021-12-23 14:54:26.611690,-81
2021-12-23 14:54:26.611694,-88
2021-12-23 14:54:26.611699,-115
2021-12-23 14:54:26.611703,-122
2021-12-23 14:54:26.611708,-84
2021-12-23 14:54:26.611712,-52
2021-12-23 14:54:26.611717,-57
2021-12-23 14:54:26.611721,-67
2021-12-23 14:54:26.611726,-62
2021-12-23 14:54:26.611730,-57
2021-12-23 14:54:26.611735,-50
2021-12-23 14:54:26.611739,-38
2021-12-23 14:54:26.611743,-33
2021-12-23 14:54:26.611748,-45
2021-12-23 14:54:26.611752,-57
2021-12-23 14:54:26.837159,-38
2021-12-23 14:54:26.837176,2
2021-12-23 14:54:26.837182,0
2021-12-23 14:54:26.837187,-28
2021-12-23 14:54:26.837191,-26
2021-12-23 14:54:26.837195,-19
2021-12-23 14:54:26.837200,-31
2021-12-23 14:54:26.837204,-31
2021-12-23 14:54:26.837208,-16
2021-12-23 14:54:26.837213,-28
2021-12-23 14:54:26.837217,-36
2021-12-23 14:54:26.837221,-12
2021-12-23 14:54:26.837226,2
2021-12-23 14:54:26.837230,-12
2021-12-23 14:54:26.837234,-9
2021-12-23 14:54:26.837239,16
2021-12-23 14:54:26.837243,26
2021-12-23 14:54:26.837247,21
2021-12-23 14:54:26.837252,26
2021-12-23 14:54:26.837256,26
2021-12-23 14:54:26.837261,14
2021-12-23 14:54:26.837265,12
2021-12-23 14:54:26.837269,16
2021-12-23 14:54:26.837274,14
2021-12-23 14:54:26.837278,14
2021-12-23 14:54:26.837282,21
2021-12-23 14:54:26.837286,28
2021-12-23 14:54:26.837292,33
2021-12-23 14:54:26.837296,43
2021-12-23 14:54:26.837300,48
2021-12-23 14:54:27.151480,115
2021-12-23 14:54:27.151494,355
2021-12-23 14:54:27.151499,776
2021-12-23 14:54:27.151504,1053
2021-12-23 14:54:27.151508,531
2021-12-23 14:54:27.151512,-355
2021-12-23 14:54:27.151517,-348
2021-12-23 14:54:27.151521,86
2021-12-23 14:54:27.151526,-4
2021-12-23 14:54:27.151530,-146
2021-12-23 14:54:27.151535,-36
2021-12-23 14:54:27.151539,-16
2021-12-23 14:54:27.151543,-43
2021-12-23 14:54:27.151548,12
2021-12-23 14:54:27.151552,16
2021-12-23 14:54:27.151556,-43
2021-12-23 14:54:27.151561,-45
2021-12-23 14:54:27.151565,12
2021-12-23 14:54:27.151569,36
2021-12-23 14:54:27.151574,28
2021-12-23 14:54:27.151578,31
2021-12-23 14:54:27.151582,52
2021-12-23 14:54:27.151587,69
2021-12-23 14:54:27.151591,81
2021-12-23 14:54:27.151595,101
2021-12-23 14:54:27.151600,120
2021-12-23 14:54:27.151604,132
2021-12-23 14:54:27.151608,163
2021-12-23 14:54:27.151613,194
2021-12-23 14:54:27.151617,189
2021-12-23 14:54:27.332319,187
2021-12-23 14:54:27.332339,230
2021-12-23 14:54:27.332344,264
2021-12-23 14:54:27.332349,262
2021-12-23 14:54:27.332354,271
2021-12-23 14:54:27.332358,288
2021-12-23 14:54:27.332362,259
2021-12-23 14:54:27.332367,199
2021-12-23 14:54:27.332371,129
2021-12-23 14:54:27.332376,55
2021-12-23 14:54:27.332380,-7
2021-12-23 14:54:27.332385,-50
2021-12-23 14:54:27.332389,-79
2021-12-23 14:54:27.332394,-103
2021-12-23 14:54:27.332398,-108
2021-12-23 14:54:27.332403,-113
2021-12-23 14:54:27.332407,-125
2021-12-23 14:54:27.332411,-98
2021-12-23 14:54:27.332416,-60
2021-12-23 14:54:27.332420,-74
2021-12-23 14:54:27.332425,-91
2021-12-23 14:54:27.332429,-60
2021-12-23 14:54:27.332434,-48
2021-12-23 14:54:27.332438,-64
2021-12-23 14:54:27.332442,-55
2021-12-23 14:54:27.332447,-38
2021-12-23 14:54:27.332451,-43
2021-12-23 14:54:27.332456,-52
2021-12-23 14:54:27.332460,-55
2021-12-23 14:54:27.332465,-45
2021-12-23 14:54:27.601962,-31
2021-12-23 14:54:27.601977,-21
2021-12-23 14:54:27.601982,-12
2021-12-23 14:54:27.601987,-9
2021-12-23 14:54:27.601992,-16
2021-12-23 14:54:27.601996,-24
2021-12-23 14:54:27.602000,-26
2021-12-23 14:54:27.602005,-19
2021-12-23 14:54:27.602009,-12
2021-12-23 14:54:27.602013,-21
2021-12-23 14:54:27.602018,-31
2021-12-23 14:54:27.602022,-24
2021-12-23 14:54:27.602027,-14
2021-12-23 14:54:27.602031,-12
2021-12-23 14:54:27.602035,-12
2021-12-23 14:54:27.602040,-7
2021-12-23 14:54:27.602044,9
2021-12-23 14:54:27.602049,19
2021-12-23 14:54:27.602053,7
2021-12-23 14:54:27.602057,-4
2021-12-23 14:54:27.602062,-9
2021-12-23 14:54:27.602066,0
2021-12-23 14:54:27.602070,7
2021-12-23 14:54:27.602075,-2
2021-12-23 14:54:27.602079,-7
2021-12-23 14:54:27.602084,-7
2021-12-23 14:54:27.602088,-14
2021-12-23 14:54:27.602092,-2
2021-12-23 14:54:27.602097,28
2021-12-23 14:54:27.602101,26
2021-12-23 14:54:27.870307,12
2021-12-23 14:54:27.870335,127
2021-12-23 14:54:27.870348,454
2021-12-23 14:54:27.870360,887
2021-12-23 14:54:27.870373,990
2021-12-23 14:54:27.870385,266
2021-12-23 14:54:27.870397,-471
2021-12-23 14:54:27.870440,-235
2021-12-23 14:54:27.870452,110
2021-12-23 14:54:27.870464,-50
2021-12-23 14:54:27.870476,-96
2021-12-23 14:54:27.870488,24
2021-12-23 14:54:27.870500,-4
2021-12-23 14:54:27.870512,-48
2021-12-23 14:54:27.870524,0
2021-12-23 14:54:27.870536,36
2021-12-23 14:54:27.870548,31
2021-12-23 14:54:27.870560,28
2021-12-23 14:54:27.870572,45
2021-12-23 14:54:27.870584,50
2021-12-23 14:54:27.870596,28
2021-12-23 14:54:27.870608,31
2021-12-23 14:54:27.870620,67
2021-12-23 14:54:27.870632,103
2021-12-23 14:54:27.870644,117
2021-12-23 14:54:27.870656,117
2021-12-23 14:54:27.870668,127
2021-12-23 14:54:27.870680,151
2021-12-23 14:54:27.870692,173
2021-12-23 14:54:27.870704,199
2021-12-23 14:54:28.052040,228
2021-12-23 14:54:28.052058,250
2021-12-23 14:54:28.052064,262
2021-12-23 14:54:28.052069,281
2021-12-23 14:54:28.052074,298
2021-12-23 14:54:28.052078,307
2021-12-23 14:54:28.052083,307
2021-12-23 14:54:28.052087,271
2021-12-23 14:54:28.052091,206
2021-12-23 14:54:28.052096,134
2021-12-23 14:54:28.052100,57
2021-12-23 14:54:28.052105,-21
2021-12-23 14:54:28.052109,-79
2021-12-23 14:54:28.052114,-101
2021-12-23 14:54:28.052118,-108
2021-12-23 14:54:28.052123,-117
2021-12-23 14:54:28.052127,-117
2021-12-23 14:54:28.052132,-98
2021-12-23 14:54:28.052136,-88
2021-12-23 14:54:28.052141,-98
2021-12-23 14:54:28.052145,-101
2021-12-23 14:54:28.052150,-86
2021-12-23 14:54:28.052154,-67
2021-12-23 14:54:28.052158,-57
2021-12-23 14:54:28.052163,-64
2021-12-23 14:54:28.052167,-57
2021-12-23 14:54:28.052172,-28
2021-12-23 14:54:28.052176,-21
2021-12-23 14:54:28.052180,-43
2021-12-23 14:54:28.052185,-50
2021-12-23 14:54:28.231840,-33
2021-12-23 14:54:28.231874,-40
2021-12-23 14:54:28.231880,-52
2021-12-23 14:54:28.231886,-19
2021-12-23 14:54:28.231891,7
2021-12-23 14:54:28.231896,-9
2021-12-23 14:54:28.231901,-19
2021-12-23 14:54:28.231906,-9
2021-12-23 14:54:28.231912,-9
2021-12-23 14:54:28.231917,-12
2021-12-23 14:54:28.231922,-4
2021-12-23 14:54:28.231927,-12
2021-12-23 14:54:28.231932,-21
2021-12-23 14:54:28.231937,-14
2021-12-23 14:54:28.231942,-14
2021-12-23 14:54:28.231947,-21
2021-12-23 14:54:28.231952,-21
2021-12-23 14:54:28.231957,-7
2021-12-23 14:54:28.231962,9
2021-12-23 14:54:28.231967,14
2021-12-23 14:54:28.231972,24
2021-12-23 14:54:28.231977,33
2021-12-23 14:54:28.231983,28
2021-12-23 14:54:28.231988,16
2021-12-23 14:54:28.231993,9
2021-12-23 14:54:28.231998,12
2021-12-23 14:54:28.232003,26
2021-12-23 14:54:28.232008,24
2021-12-23 14:54:28.232013,9
2021-12-23 14:54:28.232018,21
2021-12-23 14:54:28.456484,43
2021-12-23 14:54:28.456507,45
2021-12-23 14:54:28.456518,43
2021-12-23 14:54:28.456528,50
2021-12-23 14:54:28.456538,88
2021-12-23 14:54:28.456548,264
2021-12-23 14:54:28.456557,637
2021-12-23 14:54:28.456567,1014
2021-12-23 14:54:28.456576,747
2021-12-23 14:54:28.456586,-163
2021-12-23 14:54:28.456595,-430
2021-12-23 14:54:28.456604,40
2021-12-23 14:54:28.456614,98
2021-12-23 14:54:28.456623,-110
2021-12-23 14:54:28.456633,-36
2021-12-23 14:54:28.456642,33
2021-12-23 14:54:28.456652,-28
2021-12-23 14:54:28.456661,-16
2021-12-23 14:54:28.456670,38
2021-12-23 14:54:28.456680,21
2021-12-23 14:54:28.456689,-14
2021-12-23 14:54:28.456699,0
2021-12-23 14:54:28.456708,19
2021-12-23 14:54:28.456718,31
2021-12-23 14:54:28.456728,55
2021-12-23 14:54:28.456737,76
2021-12-23 14:54:28.456747,72
2021-12-23 14:54:28.456756,76
2021-12-23 14:54:28.456766,88
2021-12-23 14:54:28.456776,98
2021-12-23 14:54:28.681991,132
2021-12-23 14:54:28.682006,177
2021-12-23 14:54:28.682011,189
2021-12-23 14:54:28.682016,189
2021-12-23 14:54:28.682020,214
2021-12-23 14:54:28.682025,242
2021-12-23 14:54:28.682029,262
2021-12-23 14:54:28.682033,281
2021-12-23 14:54:28.682038,293
2021-12-23 14:54:28.682042,288
2021-12-23 14:54:28.682046,269
2021-12-23 14:54:28.682051,223
2021-12-23 14:54:28.682055,153
2021-12-23 14:54:28.682059,74
2021-12-23 14:54:28.682064,7
2021-12-23 14:54:28.682068,-43
2021-12-23 14:54:28.682073,-91
2021-12-23 14:54:28.682077,-120
2021-12-23 14:54:28.682081,-125
2021-12-23 14:54:28.682088,-122
2021-12-23 14:54:28.682093,-117
2021-12-23 14:54:28.682097,-113
2021-12-23 14:54:28.682102,-103
2021-12-23 14:54:28.682106,-81
2021-12-23 14:54:28.682111,-72
2021-12-23 14:54:28.682115,-84
2021-12-23 14:54:28.682119,-79
2021-12-23 14:54:28.682124,-52
2021-12-23 14:54:28.682128,-38
2021-12-23 14:54:28.682133,-36
2021-12-23 14:54:28.906990,-33
2021-12-23 14:54:28.907006,-28
2021-12-23 14:54:28.907011,-28
2021-12-23 14:54:28.907016,-28
2021-12-23 14:54:28.907020,-26
2021-12-23 14:54:28.907025,-14
2021-12-23 14:54:28.907029,7
2021-12-23 14:54:28.907034,9
2021-12-23 14:54:28.907038,-9
2021-12-23 14:54:28.907043,-7
2021-12-23 14:54:28.907047,2
2021-12-23 14:54:28.907052,-7
2021-12-23 14:54:28.907056,-16
2021-12-23 14:54:28.907060,-19
2021-12-23 14:54:28.907065,-12
2021-12-23 14:54:28.907069,2
2021-12-23 14:54:28.907074,9
2021-12-23 14:54:28.907078,4
2021-12-23 14:54:28.907082,4
2021-12-23 14:54:28.907087,0
2021-12-23 14:54:28.907092,2
2021-12-23 14:54:28.907096,19
2021-12-23 14:54:28.907101,21
2021-12-23 14:54:28.907105,19
2021-12-23 14:54:28.907110,33
2021-12-23 14:54:28.907114,36
2021-12-23 14:54:28.907118,36
2021-12-23 14:54:28.907123,45
2021-12-23 14:54:28.907127,26
2021-12-23 14:54:28.907132,12
2021-12-23 14:54:29.176729,45
2021-12-23 14:54:29.176748,69
2021-12-23 14:54:29.176760,38
2021-12-23 14:54:29.176765,7
2021-12-23 14:54:29.176769,21
2021-12-23 14:54:29.176773,36
2021-12-23 14:54:29.176778,43
2021-12-23 14:54:29.176782,52
2021-12-23 14:54:29.176787,91
2021-12-23 14:54:29.176791,266
2021-12-23 14:54:29.176796,630
2021-12-23 14:54:29.176800,1000
2021-12-23 14:54:29.176829,759
2021-12-23 14:54:29.176839,-110
2021-12-23 14:54:29.176844,-384
2021-12-23 14:54:29.176849,33
2021-12-23 14:54:29.176853,67
2021-12-23 14:54:29.176857,-122
2021-12-23 14:54:29.176862,-33
2021-12-23 14:54:29.176866,36
2021-12-23 14:54:29.176871,-24
2021-12-23 14:54:29.176875,-14
2021-12-23 14:54:29.176879,19
2021-12-23 14:54:29.176884,4
2021-12-23 14:54:29.176888,7
2021-12-23 14:54:29.176892,33
2021-12-23 14:54:29.176897,40
2021-12-23 14:54:29.176901,45
2021-12-23 14:54:29.176905,67
2021-12-23 14:54:29.176909,62
2021-12-23 14:54:29.401994,48
2021-12-23 14:54:29.402010,64
2021-12-23 14:54:29.402015,88
2021-12-23 14:54:29.402019,101
2021-12-23 14:54:29.402024,127
2021-12-23 14:54:29.402028,146
2021-12-23 14:54:29.402033,144
2021-12-23 14:54:29.402037,173
2021-12-23 14:54:29.402041,235
2021-12-23 14:54:29.402046,264
2021-12-23 14:54:29.402050,252
2021-12-23 14:54:29.402054,252
2021-12-23 14:54:29.402059,283
2021-12-23 14:54:29.402063,310
2021-12-23 14:54:29.402067,300
2021-12-23 14:54:29.402072,252
2021-12-23 14:54:29.402076,156
2021-12-23 14:54:29.402081,48
2021-12-23 14:54:29.402085,-19
2021-12-23 14:54:29.402090,-45
2021-12-23 14:54:29.402094,-76
2021-12-23 14:54:29.402098,-115
2021-12-23 14:54:29.402103,-125
2021-12-23 14:54:29.402107,-105
2021-12-23 14:54:29.402111,-91
2021-12-23 14:54:29.402116,-93
2021-12-23 14:54:29.402120,-93
2021-12-23 14:54:29.402124,-84
2021-12-23 14:54:29.402129,-69
2021-12-23 14:54:29.402133,-72
2021-12-23 14:54:29.672202,-64
2021-12-23 14:54:29.672258,-43
2021-12-23 14:54:29.672265,-38
2021-12-23 14:54:29.672270,-36
2021-12-23 14:54:29.672274,-21
2021-12-23 14:54:29.672278,-21
2021-12-23 14:54:29.672283,-33
2021-12-23 14:54:29.672287,-33
2021-12-23 14:54:29.672292,-26
2021-12-23 14:54:29.672296,-31
2021-12-23 14:54:29.672300,-33
2021-12-23 14:54:29.672305,-26
2021-12-23 14:54:29.672309,-26
2021-12-23 14:54:29.672314,-24
2021-12-23 14:54:29.672318,-12
2021-12-23 14:54:29.672322,-4
2021-12-23 14:54:29.672327,-4
2021-12-23 14:54:29.672331,-7
2021-12-23 14:54:29.672335,-14
2021-12-23 14:54:29.672340,-26
2021-12-23 14:54:29.672344,-31
2021-12-23 14:54:29.672348,-9
2021-12-23 14:54:29.672353,7
2021-12-23 14:54:29.672402,0
2021-12-23 14:54:29.672406,-9
2021-12-23 14:54:29.672410,-12
2021-12-23 14:54:29.672415,-21
2021-12-23 14:54:29.672419,-16
2021-12-23 14:54:29.672423,0
2021-12-23 14:54:29.672428,2
2021-12-23 14:54:29.895600,-7
2021-12-23 14:54:29.895617,-12
2021-12-23 14:54:29.895622,-12
2021-12-23 14:54:29.895627,2
2021-12-23 14:54:29.895632,28
2021-12-23 14:54:29.895636,55
2021-12-23 14:54:29.895641,57
2021-12-23 14:54:29.895646,38
2021-12-23 14:54:29.895651,19
2021-12-23 14:54:29.895655,-9
2021-12-23 14:54:29.895659,-26
2021-12-23 14:54:29.895664,-9
2021-12-23 14:54:29.895668,14
2021-12-23 14:54:29.895672,21
2021-12-23 14:54:29.895677,31
2021-12-23 14:54:29.895681,36
2021-12-23 14:54:29.895686,62
2021-12-23 14:54:29.895690,216
2021-12-23 14:54:29.895694,548
2021-12-23 14:54:29.895699,947
2021-12-23 14:54:29.895703,901
2021-12-23 14:54:29.895707,86
2021-12-23 14:54:29.895712,-432
2021-12-23 14:54:29.895716,-67
2021-12-23 14:54:29.895720,105
2021-12-23 14:54:29.895725,-132
2021-12-23 14:54:29.895729,-117
2021-12-23 14:54:29.895734,-2
2021-12-23 14:54:29.895738,-38
2021-12-23 14:54:29.895742,-52
2021-12-23 14:54:30.076579,-19
2021-12-23 14:54:30.076597,-21
2021-12-23 14:54:30.076603,-26
2021-12-23 14:54:30.076608,-21
2021-12-23 14:54:30.076614,-16
2021-12-23 14:54:30.076619,-4
2021-12-23 14:54:30.076624,-9
2021-12-23 14:54:30.076629,-26
2021-12-23 14:54:30.076635,0
2021-12-23 14:54:30.076640,45
2021-12-23 14:54:30.076645,60
2021-12-23 14:54:30.076651,57
2021-12-23 14:54:30.076656,64
2021-12-23 14:54:30.076661,84
2021-12-23 14:54:30.076666,117
2021-12-23 14:54:30.076671,141
2021-12-23 14:54:30.076677,153
2021-12-23 14:54:30.076682,189
2021-12-23 14:54:30.076687,233
2021-12-23 14:54:30.076692,250
2021-12-23 14:54:30.076698,245
2021-12-23 14:54:30.076703,250
2021-12-23 14:54:30.076708,262
2021-12-23 14:54:30.076713,242
2021-12-23 14:54:30.076718,170
2021-12-23 14:54:30.076724,69
2021-12-23 14:54:30.076729,-14
2021-12-23 14:54:30.076734,-38
2021-12-23 14:54:30.076739,-55
2021-12-23 14:54:30.076744,-105
2021-12-23 14:54:30.302878,-139
2021-12-23 14:54:30.302894,-127
2021-12-23 14:54:30.302900,-129
2021-12-23 14:54:30.302904,-156
2021-12-23 14:54:30.302909,-139
2021-12-23 14:54:30.302913,-84
2021-12-23 14:54:30.302917,-76
2021-12-23 14:54:30.302922,-98
2021-12-23 14:54:30.302926,-86
2021-12-23 14:54:30.302931,-64
2021-12-23 14:54:30.302935,-67
2021-12-23 14:54:30.302939,-69
2021-12-23 14:54:30.302944,-55
2021-12-23 14:54:30.302948,-48
2021-12-23 14:54:30.302952,-50
2021-12-23 14:54:30.302957,-36
2021-12-23 14:54:30.302961,-26
2021-12-23 14:54:30.302966,-38
2021-12-23 14:54:30.302970,-40
2021-12-23 14:54:30.302974,-26
2021-12-23 14:54:30.302979,-14
2021-12-23 14:54:30.302983,-24
2021-12-23 14:54:30.302988,-38
2021-12-23 14:54:30.302992,-40
2021-12-23 14:54:30.302997,-40
2021-12-23 14:54:30.303001,-21
2021-12-23 14:54:30.303005,9
2021-12-23 14:54:30.303010,4
2021-12-23 14:54:30.303016,-19
2021-12-23 14:54:30.303020,-19
2021-12-23 14:54:30.572279,-14
2021-12-23 14:54:30.572302,-26
2021-12-23 14:54:30.572308,-21
2021-12-23 14:54:30.572314,-7
2021-12-23 14:54:30.572319,-19
2021-12-23 14:54:30.572325,-26
2021-12-23 14:54:30.572331,4
2021-12-23 14:54:30.572336,24
2021-12-23 14:54:30.572342,4
2021-12-23 14:54:30.572348,2
2021-12-23 14:54:30.572354,21
2021-12-23 14:54:30.572359,24
2021-12-23 14:54:30.572364,12
2021-12-23 14:54:30.572370,9
2021-12-23 14:54:30.572376,12
2021-12-23 14:54:30.572381,2
2021-12-23 14:54:30.572386,-7
2021-12-23 14:54:30.572390,19
2021-12-23 14:54:30.572394,67
2021-12-23 14:54:30.572399,81
2021-12-23 14:54:30.572403,52
2021-12-23 14:54:30.572408,26
2021-12-23 14:54:30.572412,57
2021-12-23 14:54:30.572417,228
2021-12-23 14:54:30.572421,550
2021-12-23 14:54:30.572456,906
2021-12-23 14:54:30.572460,805
2021-12-23 14:54:30.572465,2
2021-12-23 14:54:30.572469,-444
2021-12-23 14:54:30.572473,-52
2021-12-23 14:54:30.797007,125
2021-12-23 14:54:30.797025,-74
2021-12-23 14:54:30.797034,-43
2021-12-23 14:54:30.797039,50
2021-12-23 14:54:30.797044,-7
2021-12-23 14:54:30.797050,-21
2021-12-23 14:54:30.797055,16
2021-12-23 14:54:30.797060,12
2021-12-23 14:54:30.797065,7
2021-12-23 14:54:30.797070,24
2021-12-23 14:54:30.797075,31
2021-12-23 14:54:30.797080,26
2021-12-23 14:54:30.797086,21
2021-12-23 14:54:30.797091,12
2021-12-23 14:54:30.797096,24
2021-12-23 14:54:30.797101,62
2021-12-23 14:54:30.797106,108
2021-12-23 14:54:30.797111,129
2021-12-23 14:54:30.797116,108
2021-12-23 14:54:30.797122,86
2021-12-23 14:54:30.797127,115
2021-12-23 14:54:30.797132,161
2021-12-23 14:54:30.797137,180
2021-12-23 14:54:30.797142,197
2021-12-23 14:54:30.797147,233
2021-12-23 14:54:30.797152,264
2021-12-23 14:54:30.797157,278
2021-12-23 14:54:30.797162,286
2021-12-23 14:54:30.797168,286
2021-12-23 14:54:30.797173,242
2021-12-23 14:54:31.066702,161
2021-12-23 14:54:31.066719,98
2021-12-23 14:54:31.066725,33
2021-12-23 14:54:31.066729,-62
2021-12-23 14:54:31.066734,-115
2021-12-23 14:54:31.066738,-105
2021-12-23 14:54:31.066742,-86
2021-12-23 14:54:31.066747,-74
2021-12-23 14:54:31.066751,-69
2021-12-23 14:54:31.066755,-76
2021-12-23 14:54:31.066761,-93
2021-12-23 14:54:31.066767,-98
2021-12-23 14:54:31.066771,-76
2021-12-23 14:54:31.066776,-45
2021-12-23 14:54:31.066782,-45
2021-12-23 14:54:31.066786,-57
2021-12-23 14:54:31.066790,-50
2021-12-23 14:54:31.066795,-36
2021-12-23 14:54:31.066799,-26
2021-12-23 14:54:31.066803,-12
2021-12-23 14:54:31.066808,4
2021-12-23 14:54:31.066812,7
2021-12-23 14:54:31.066817,7
2021-12-23 14:54:31.066821,7
2021-12-23 14:54:31.066825,2
2021-12-23 14:54:31.066830,2
2021-12-23 14:54:31.066834,7
2021-12-23 14:54:31.066838,-7
2021-12-23 14:54:31.066842,-16
2021-12-23 14:54:31.066847,-9
2021-12-23 14:54:31.336378,0
2021-12-23 14:54:31.336393,2
2021-12-23 14:54:31.336399,-7
2021-12-23 14:54:31.336403,-24
2021-12-23 14:54:31.336408,-21
2021-12-23 14:54:31.336412,12
2021-12-23 14:54:31.336417,26
2021-12-23 14:54:31.336421,-4
2021-12-23 14:54:31.336426,-48
2021-12-23 14:54:31.336430,-64
2021-12-23 14:54:31.336435,-48
2021-12-23 14:54:31.336439,-14
2021-12-23 14:54:31.336443,-12
2021-12-23 14:54:31.336448,-38
2021-12-23 14:54:31.336452,-28
2021-12-23 14:54:31.336457,2
2021-12-23 14:54:31.336461,-2
2021-12-23 14:54:31.336466,-4
2021-12-23 14:54:31.336470,2
2021-12-23 14:54:31.336475,0
2021-12-23 14:54:31.336479,-9
2021-12-23 14:54:31.336483,-21
2021-12-23 14:54:31.336488,-16
2021-12-23 14:54:31.336492,2
2021-12-23 14:54:31.336497,9
2021-12-23 14:54:31.336501,16
2021-12-23 14:54:31.336506,31
2021-12-23 14:54:31.336510,28
2021-12-23 14:54:31.336529,12
2021-12-23 14:54:31.336536,19
2021-12-23 14:54:31.471945,60
2021-12-23 14:54:31.471960,180
2021-12-23 14:54:31.471965,435
2021-12-23 14:54:31.471970,808
2021-12-23 14:54:31.471975,901
2021-12-23 14:54:31.471979,221
2021-12-23 14:54:31.471983,-411
2021-12-23 14:54:31.471988,-137
2021-12-23 14:54:31.471992,139
2021-12-23 14:54:31.471997,-57
2021-12-23 14:54:31.472001,-103
2021-12-23 14:54:31.472006,0
2021-12-23 14:54:31.472010,-21
2021-12-23 14:54:31.472015,-31
2021-12-23 14:54:31.472019,0
2021-12-23 14:54:31.472024,-19
2021-12-23 14:54:31.472028,-26
2021-12-23 14:54:31.472032,2
2021-12-23 14:54:31.472037,7
2021-12-23 14:54:31.472041,0
2021-12-23 14:54:31.472046,14
2021-12-23 14:54:31.472050,33
2021-12-23 14:54:31.472055,45
2021-12-23 14:54:31.472059,48
2021-12-23 14:54:31.472063,62
2021-12-23 14:54:31.472068,76
2021-12-23 14:54:31.472072,72
2021-12-23 14:54:31.472077,91
2021-12-23 14:54:31.472081,137
2021-12-23 14:54:31.472085,168
2021-12-23 14:54:31.742039,187
2021-12-23 14:54:31.742056,199
2021-12-23 14:54:31.742061,223
2021-12-23 14:54:31.742066,269
2021-12-23 14:54:31.742071,295
2021-12-23 14:54:31.742078,288
2021-12-23 14:54:31.742083,266
2021-12-23 14:54:31.742087,238
2021-12-23 14:54:31.742092,194
2021-12-23 14:54:31.742096,125
2021-12-23 14:54:31.742101,45
2021-12-23 14:54:31.742106,-21
2021-12-23 14:54:31.742110,-67
2021-12-23 14:54:31.742114,-91
2021-12-23 14:54:31.742119,-101
2021-12-23 14:54:31.742123,-103
2021-12-23 14:54:31.742128,-110
2021-12-23 14:54:31.742132,-115
2021-12-23 14:54:31.742137,-98
2021-12-23 14:54:31.742141,-76
2021-12-23 14:54:31.742146,-67
2021-12-23 14:54:31.742150,-67
2021-12-23 14:54:31.742154,-74
2021-12-23 14:54:31.742159,-72
2021-12-23 14:54:31.742163,-52
2021-12-23 14:54:31.742168,-50
2021-12-23 14:54:31.742172,-52
2021-12-23 14:54:31.742177,-36
2021-12-23 14:54:31.742181,-9
2021-12-23 14:54:31.742185,-4
2021-12-23 14:54:32.010626,-16
2021-12-23 14:54:32.010656,-24
2021-12-23 14:54:32.010662,-28
2021-12-23 14:54:32.010666,-31
2021-12-23 14:54:32.010671,-24
2021-12-23 14:54:32.010675,-7
2021-12-23 14:54:32.010679,7
2021-12-23 14:54:32.010684,2
2021-12-23 14:54:32.010688,-7
2021-12-23 14:54:32.010693,-21
2021-12-23 14:54:32.010697,-19
2021-12-23 14:54:32.010702,0
2021-12-23 14:54:32.010706,-9
2021-12-23 14:54:32.010710,-19
2021-12-23 14:54:32.010715,-14
2021-12-23 14:54:32.010719,-19
2021-12-23 14:54:32.010723,-12
2021-12-23 14:54:32.010728,4
2021-12-23 14:54:32.010732,2
2021-12-23 14:54:32.010736,-9
2021-12-23 14:54:32.010741,-21
2021-12-23 14:54:32.010745,-16
2021-12-23 14:54:32.010749,14
2021-12-23 14:54:32.010754,38
2021-12-23 14:54:32.010758,36
2021-12-23 14:54:32.010762,40
2021-12-23 14:54:32.010767,60
2021-12-23 14:54:32.010771,69
2021-12-23 14:54:32.010775,52
2021-12-23 14:54:32.010780,40
2021-12-23 14:54:32.146607,48
2021-12-23 14:54:32.146639,52
2021-12-23 14:54:32.146645,40
2021-12-23 14:54:32.146660,33
2021-12-23 14:54:32.146666,52
2021-12-23 14:54:32.146671,81
2021-12-23 14:54:32.146676,88
2021-12-23 14:54:32.146681,81
2021-12-23 14:54:32.146686,72
2021-12-23 14:54:32.146691,60
2021-12-23 14:54:32.146696,110
2021-12-23 14:54:32.146701,322
2021-12-23 14:54:32.146706,699
2021-12-23 14:54:32.146711,889
2021-12-23 14:54:32.146716,324
2021-12-23 14:54:32.146722,-416
2021-12-23 14:54:32.146727,-283
2021-12-23 14:54:32.146732,98
2021-12-23 14:54:32.146737,-4
2021-12-23 14:54:32.146742,-98
2021-12-23 14:54:32.146747,0
2021-12-23 14:54:32.146753,4
2021-12-23 14:54:32.146758,-40
2021-12-23 14:54:32.146763,-28
2021-12-23 14:54:32.146768,-24
2021-12-23 14:54:32.146773,-33
2021-12-23 14:54:32.146778,-12
2021-12-23 14:54:32.146784,9
2021-12-23 14:54:32.146833,7
2021-12-23 14:54:32.146842,12
2021-12-23 14:54:32.372868,21
2021-12-23 14:54:32.372935,26
2021-12-23 14:54:32.372952,48
2021-12-23 14:54:32.372957,64
2021-12-23 14:54:32.372962,64
2021-12-23 14:54:32.372966,72
2021-12-23 14:54:32.372971,93
2021-12-23 14:54:32.372975,134
2021-12-23 14:54:32.372979,180
2021-12-23 14:54:32.372984,199
2021-12-23 14:54:32.372988,194
2021-12-23 14:54:32.372992,204
2021-12-23 14:54:32.372996,228
2021-12-23 14:54:32.373001,240
2021-12-23 14:54:32.373005,259
2021-12-23 14:54:32.373010,278
2021-12-23 14:54:32.373014,278
2021-12-23 14:54:32.373018,254
2021-12-23 14:54:32.373023,189
2021-12-23 14:54:32.373027,62
2021-12-23 14:54:32.373031,-57
2021-12-23 14:54:32.373036,-84
2021-12-23 14:54:32.373040,-86
2021-12-23 14:54:32.373045,-115
2021-12-23 14:54:32.373049,-127
2021-12-23 14:54:32.373053,-108
2021-12-23 14:54:32.373058,-74
2021-12-23 14:54:32.373062,-50
2021-12-23 14:54:32.373066,-40
2021-12-23 14:54:32.373071,-36
2021-12-23 14:54:32.642084,-40
2021-12-23 14:54:32.642101,-48
2021-12-23 14:54:32.642109,-26
2021-12-23 14:54:32.642116,-4
2021-12-23 14:54:32.642124,-24
2021-12-23 14:54:32.642131,-43
2021-12-23 14:54:32.642138,-16
2021-12-23 14:54:32.642146,7
2021-12-23 14:54:32.642153,-2
2021-12-23 14:54:32.642161,-7
2021-12-23 14:54:32.642169,-4
2021-12-23 14:54:32.642177,-4
2021-12-23 14:54:32.642185,0
2021-12-23 14:54:32.642193,2
2021-12-23 14:54:32.642201,2
2021-12-23 14:54:32.642210,0
2021-12-23 14:54:32.642218,-9
2021-12-23 14:54:32.642226,-21
2021-12-23 14:54:32.642234,-7
2021-12-23 14:54:32.642241,14
2021-12-23 14:54:32.642248,0
2021-12-23 14:54:32.642256,-14
2021-12-23 14:54:32.642264,-7
2021-12-23 14:54:32.642271,-7
2021-12-23 14:54:32.642278,-21
2021-12-23 14:54:32.642286,-21
2021-12-23 14:54:32.642294,-9
2021-12-23 14:54:32.642303,-9
2021-12-23 14:54:32.642311,-7
2021-12-23 14:54:32.642320,2
2021-12-23 14:54:32.866953,-14
2021-12-23 14:54:32.866967,-28
2021-12-23 14:54:32.866972,-9
2021-12-23 14:54:32.866976,0
2021-12-23 14:54:32.866981,-4
2021-12-23 14:54:32.866985,4
2021-12-23 14:54:32.866989,12
2021-12-23 14:54:32.866994,14
2021-12-23 14:54:32.866999,24
2021-12-23 14:54:32.867003,12
2021-12-23 14:54:32.867008,-12
2021-12-23 14:54:32.867012,-16
2021-12-23 14:54:32.867016,-2
2021-12-23 14:54:32.867021,4
2021-12-23 14:54:32.867025,0
2021-12-23 14:54:32.867029,-12
2021-12-23 14:54:32.867034,-4
2021-12-23 14:54:32.867038,19
2021-12-23 14:54:32.867043,50
2021-12-23 14:54:32.867047,151
2021-12-23 14:54:32.867051,423
2021-12-23 14:54:32.867055,827
2021-12-23 14:54:32.867060,933
2021-12-23 14:54:32.867064,250
2021-12-23 14:54:32.867068,-432
2021-12-23 14:54:32.867073,-221
2021-12-23 14:54:32.867077,69
2021-12-23 14:54:32.867081,-69
2021-12-23 14:54:32.867086,-74
2021-12-23 14:54:32.867090,45
2021-12-23 14:54:33.091492,14
2021-12-23 14:54:33.091507,-16
2021-12-23 14:54:33.091512,21
2021-12-23 14:54:33.091517,31
2021-12-23 14:54:33.091521,28
2021-12-23 14:54:33.091526,50
2021-12-23 14:54:33.091530,69
2021-12-23 14:54:33.091535,64
2021-12-23 14:54:33.091539,52
2021-12-23 14:54:33.091543,57
2021-12-23 14:54:33.091548,74
2021-12-23 14:54:33.091552,93
2021-12-23 14:54:33.091557,105
2021-12-23 14:54:33.091561,115
2021-12-23 14:54:33.091566,134
2021-12-23 14:54:33.091570,137
2021-12-23 14:54:33.091574,122
2021-12-23 14:54:33.091579,132
2021-12-23 14:54:33.091583,177
2021-12-23 14:54:33.091587,218
2021-12-23 14:54:33.091592,242
2021-12-23 14:54:33.091596,252
2021-12-23 14:54:33.091601,254
2021-12-23 14:54:33.091605,264
2021-12-23 14:54:33.091610,266
2021-12-23 14:54:33.091614,242
2021-12-23 14:54:33.091618,189
2021-12-23 14:54:33.091623,115
2021-12-23 14:54:33.091627,43
2021-12-23 14:54:33.091632,-28
2021-12-23 14:54:33.317209,-86
2021-12-23 14:54:33.317229,-122
2021-12-23 14:54:33.317237,-151
2021-12-23 14:54:33.317243,-156
2021-12-23 14:54:33.317250,-122
2021-12-23 14:54:33.317256,-98
2021-12-23 14:54:33.317262,-105
2021-12-23 14:54:33.317269,-93
2021-12-23 14:54:33.317275,-74
2021-12-23 14:54:33.317281,-91
2021-12-23 14:54:33.317288,-103
2021-12-23 14:54:33.317294,-84
2021-12-23 14:54:33.317300,-55
2021-12-23 14:54:33.317306,-31
2021-12-23 14:54:33.317313,-12
2021-12-23 14:54:33.317319,-4
2021-12-23 14:54:33.317325,-14
2021-12-23 14:54:33.317332,-21
2021-12-23 14:54:33.317338,-19
2021-12-23 14:54:33.317344,-33
2021-12-23 14:54:33.317353,-28
2021-12-23 14:54:33.317365,0
2021-12-23 14:54:33.317421,2
2021-12-23 14:54:33.317435,4
2021-12-23 14:54:33.317445,14
2021-12-23 14:54:33.317455,2
2021-12-23 14:54:33.317465,-2
2021-12-23 14:54:33.317474,9
2021-12-23 14:54:33.317484,-2
2021-12-23 14:54:33.317494,-14
2021-12-23 14:54:33.541569,-7
2021-12-23 14:54:33.541585,0
2021-12-23 14:54:33.541591,-2
2021-12-23 14:54:33.541595,-12
2021-12-23 14:54:33.541599,-16
2021-12-23 14:54:33.541604,-14
2021-12-23 14:54:33.541608,-14
2021-12-23 14:54:33.541613,-21
2021-12-23 14:54:33.541617,-9
2021-12-23 14:54:33.541621,-7
2021-12-23 14:54:33.541626,-38
2021-12-23 14:54:33.541630,-48
2021-12-23 14:54:33.541635,-31
2021-12-23 14:54:33.541639,-16
2021-12-23 14:54:33.541643,-7
2021-12-23 14:54:33.541648,-16
2021-12-23 14:54:33.541652,-24
2021-12-23 14:54:33.541657,-7
2021-12-23 14:54:33.541661,-4
2021-12-23 14:54:33.541665,-16
2021-12-23 14:54:33.541670,-19
2021-12-23 14:54:33.541674,-16
2021-12-23 14:54:33.541678,-16
2021-12-23 14:54:33.541683,-14
2021-12-23 14:54:33.541687,-14
2021-12-23 14:54:33.541691,-12
2021-12-23 14:54:33.541696,-7
2021-12-23 14:54:33.541700,-14
2021-12-23 14:54:33.541704,-12
2021-12-23 14:54:33.541709,36
2021-12-23 14:54:33.766901,173
2021-12-23 14:54:33.766914,406
2021-12-23 14:54:33.766920,762
2021-12-23 14:54:33.766924,997
2021-12-23 14:54:33.766929,471
2021-12-23 14:54:33.766933,-363
2021-12-23 14:54:33.766937,-300
2021-12-23 14:54:33.766942,113
2021-12-23 14:54:33.766947,0
2021-12-23 14:54:33.766951,-122
2021-12-23 14:54:33.766956,0
2021-12-23 14:54:33.766960,12
2021-12-23 14:54:33.766964,-40
2021-12-23 14:54:33.766969,4
2021-12-23 14:54:33.766973,33
2021-12-23 14:54:33.766978,0
2021-12-23 14:54:33.766982,-2
2021-12-23 14:54:33.766986,19
2021-12-23 14:54:33.766991,21
2021-12-23 14:54:33.766995,28
2021-12-23 14:54:33.767000,38
2021-12-23 14:54:33.767004,31
2021-12-23 14:54:33.767008,36
2021-12-23 14:54:33.767013,62
2021-12-23 14:54:33.767017,79
2021-12-23 14:54:33.767022,84
2021-12-23 14:54:33.767026,98
2021-12-23 14:54:33.767031,120
2021-12-23 14:54:33.767035,153
2021-12-23 14:54:33.767039,177
2021-12-23 14:54:34.035519,177
2021-12-23 14:54:34.035532,189
2021-12-23 14:54:34.035537,238
2021-12-23 14:54:34.035541,274
2021-12-23 14:54:34.035546,254
2021-12-23 14:54:34.035550,235
2021-12-23 14:54:34.035554,238
2021-12-23 14:54:34.035577,206
2021-12-23 14:54:34.035582,141
2021-12-23 14:54:34.035601,88
2021-12-23 14:54:34.035605,36
2021-12-23 14:54:34.035630,-38
2021-12-23 14:54:34.035646,-101
2021-12-23 14:54:34.035651,-141
2021-12-23 14:54:34.035656,-146
2021-12-23 14:54:34.035660,-110
2021-12-23 14:54:34.035664,-86
2021-12-23 14:54:34.035669,-76
2021-12-23 14:54:34.035673,-50
2021-12-23 14:54:34.035677,-48
2021-12-23 14:54:34.035682,-76
2021-12-23 14:54:34.035686,-81
2021-12-23 14:54:34.035690,-72
2021-12-23 14:54:34.035694,-69
2021-12-23 14:54:34.035699,-52
2021-12-23 14:54:34.035703,-24
2021-12-23 14:54:34.035707,-12
2021-12-23 14:54:34.035712,-12
2021-12-23 14:54:34.035716,-19
2021-12-23 14:54:34.035720,-26
2021-12-23 14:54:34.216391,-9
2021-12-23 14:54:34.216420,4
2021-12-23 14:54:34.216425,-16
2021-12-23 14:54:34.216429,-36
2021-12-23 14:54:34.216434,-19
2021-12-23 14:54:34.216438,-12
2021-12-23 14:54:34.216442,-26
2021-12-23 14:54:34.216447,-26
2021-12-23 14:54:34.216451,-33
2021-12-23 14:54:34.216455,-38
2021-12-23 14:54:34.216460,-26
2021-12-23 14:54:34.216464,-31
2021-12-23 14:54:34.216468,-43
2021-12-23 14:54:34.216475,-43
2021-12-23 14:54:34.216480,-43
2021-12-23 14:54:34.216484,-33
2021-12-23 14:54:34.216489,-9
2021-12-23 14:54:34.216493,-24
2021-12-23 14:54:34.216497,-48
2021-12-23 14:54:34.216501,-40
2021-12-23 14:54:34.216506,-40
2021-12-23 14:54:34.216510,-55
2021-12-23 14:54:34.216514,-50
2021-12-23 14:54:34.216518,-40
2021-12-23 14:54:34.216523,-33
2021-12-23 14:54:34.216527,-7
2021-12-23 14:54:34.216531,2
2021-12-23 14:54:34.216536,-21
2021-12-23 14:54:34.216543,-31
2021-12-23 14:54:34.216547,-19
2021-12-23 14:54:34.487055,-14
2021-12-23 14:54:34.487101,-14
2021-12-23 14:54:34.487113,-19
2021-12-23 14:54:34.487122,-28
2021-12-23 14:54:34.487131,-28
2021-12-23 14:54:34.487140,-16
2021-12-23 14:54:34.487148,-12
2021-12-23 14:54:34.487157,-14
2021-12-23 14:54:34.487166,9
2021-12-23 14:54:34.487188,50
2021-12-23 14:54:34.487198,151
2021-12-23 14:54:34.487203,428
2021-12-23 14:54:34.487207,851
2021-12-23 14:54:34.487212,949
2021-12-23 14:54:34.487216,221
2021-12-23 14:54:34.487221,-488
2021-12-23 14:54:34.487225,-235
2021-12-23 14:54:34.487230,103
2021-12-23 14:54:34.487234,-57
2021-12-23 14:54:34.487239,-98
2021-12-23 14:54:34.487243,19
2021-12-23 14:54:34.487247,-14
2021-12-23 14:54:34.487252,-48
2021-12-23 14:54:34.487256,24
2021-12-23 14:54:34.487260,38
2021-12-23 14:54:34.487265,0
2021-12-23 14:54:34.487270,21
2021-12-23 14:54:34.487274,40
2021-12-23 14:54:34.487278,24
2021-12-23 14:54:34.487283,38
2021-12-23 14:54:34.756235,64
2021-12-23 14:54:34.756250,60
2021-12-23 14:54:34.756256,67
2021-12-23 14:54:34.756260,91
2021-12-23 14:54:34.756265,98
2021-12-23 14:54:34.756269,105
2021-12-23 14:54:34.756273,129
2021-12-23 14:54:34.756277,158
2021-12-23 14:54:34.756282,175
2021-12-23 14:54:34.756286,194
2021-12-23 14:54:34.756290,218
2021-12-23 14:54:34.756295,226
2021-12-23 14:54:34.756299,242
2021-12-23 14:54:34.756303,281
2021-12-23 14:54:34.756308,286
2021-12-23 14:54:34.756312,262
2021-12-23 14:54:34.756316,250
2021-12-23 14:54:34.756321,228
2021-12-23 14:54:34.756325,163
2021-12-23 14:54:34.756330,84
2021-12-23 14:54:34.756334,12
2021-12-23 14:54:34.756338,-57
2021-12-23 14:54:34.756343,-86
2021-12-23 14:54:34.756347,-79
2021-12-23 14:54:34.756351,-88
2021-12-23 14:54:34.756356,-108
2021-12-23 14:54:34.756360,-103
2021-12-23 14:54:34.756364,-110
2021-12-23 14:54:34.756369,-120
2021-12-23 14:54:34.756373,-113
2021-12-23 14:54:34.982041,-86
2021-12-23 14:54:34.982086,-43
2021-12-23 14:54:34.982098,-21
2021-12-23 14:54:34.982103,-33
2021-12-23 14:54:34.982108,-26
2021-12-23 14:54:34.982112,-9
2021-12-23 14:54:34.982116,-21
2021-12-23 14:54:34.982121,-33
2021-12-23 14:54:34.982171,-33
2021-12-23 14:54:34.982176,-36
2021-12-23 14:54:34.982181,-28
2021-12-23 14:54:34.982185,-16
2021-12-23 14:54:34.982190,-9
2021-12-23 14:54:34.982194,-7
2021-12-23 14:54:34.982199,-7
2021-12-23 14:54:34.982203,-9
2021-12-23 14:54:34.982207,-4
2021-12-23 14:54:34.982212,-2
2021-12-23 14:54:34.982216,-4
2021-12-23 14:54:34.982220,-4
2021-12-23 14:54:34.982225,0
2021-12-23 14:54:34.982230,-2
2021-12-23 14:54:34.982234,-12
2021-12-23 14:54:34.982238,-14
2021-12-23 14:54:34.982243,-9
2021-12-23 14:54:34.982247,-14
2021-12-23 14:54:34.982251,-21
2021-12-23 14:54:34.982256,-12
2021-12-23 14:54:34.982260,7
2021-12-23 14:54:34.982264,19
2021-12-23 14:54:35.161527,16
2021-12-23 14:54:35.161542,2
2021-12-23 14:54:35.161547,-4
2021-12-23 14:54:35.161552,-2
2021-12-23 14:54:35.161556,-9
2021-12-23 14:54:35.161561,-12
2021-12-23 14:54:35.161565,0
2021-12-23 14:54:35.161570,-9
2021-12-23 14:54:35.161574,-24
2021-12-23 14:54:35.161579,-4
2021-12-23 14:54:35.161583,4
2021-12-23 14:54:35.161588,-4
2021-12-23 14:54:35.161592,2
2021-12-23 14:54:35.161596,31
2021-12-23 14:54:35.161601,156
2021-12-23 14:54:35.161605,464
2021-12-23 14:54:35.161610,872
2021-12-23 14:54:35.161614,894
2021-12-23 14:54:35.161618,129
2021-12-23 14:54:35.161623,-492
2021-12-23 14:54:35.161627,-189
2021-12-23 14:54:35.161631,101
2021-12-23 14:54:35.161636,-74
2021-12-23 14:54:35.161640,-98
2021-12-23 14:54:35.161644,36
2021-12-23 14:54:35.161649,14
2021-12-23 14:54:35.161653,-48
2021-12-23 14:54:35.161658,-24
2021-12-23 14:54:35.161662,0
2021-12-23 14:54:35.161667,14
2021-12-23 14:54:35.431922,40
2021-12-23 14:54:35.431942,52
2021-12-23 14:54:35.431951,52
2021-12-23 14:54:35.431960,48
2021-12-23 14:54:35.431968,43
2021-12-23 14:54:35.431976,55
2021-12-23 14:54:35.431984,76
2021-12-23 14:54:35.431993,88
2021-12-23 14:54:35.432001,108
2021-12-23 14:54:35.432009,132
2021-12-23 14:54:35.432018,146
2021-12-23 14:54:35.432026,161
2021-12-23 14:54:35.432034,192
2021-12-23 14:54:35.432043,221
2021-12-23 14:54:35.432051,240
2021-12-23 14:54:35.432059,262
2021-12-23 14:54:35.432068,281
2021-12-23 14:54:35.432076,288
2021-12-23 14:54:35.432084,283
2021-12-23 14:54:35.432092,281
2021-12-23 14:54:35.432101,262
2021-12-23 14:54:35.432109,202
2021-12-23 14:54:35.432117,120
2021-12-23 14:54:35.432126,43
2021-12-23 14:54:35.432134,-12
2021-12-23 14:54:35.432142,-52
2021-12-23 14:54:35.432151,-81
2021-12-23 14:54:35.432159,-91
2021-12-23 14:54:35.432168,-86
2021-12-23 14:54:35.432177,-101
2021-12-23 14:54:35.611541,-120
2021-12-23 14:54:35.611555,-101
2021-12-23 14:54:35.611561,-67
2021-12-23 14:54:35.611566,-60
2021-12-23 14:54:35.611570,-64
2021-12-23 14:54:35.611574,-60
2021-12-23 14:54:35.611579,-50
2021-12-23 14:54:35.611583,-45
2021-12-23 14:54:35.611587,-43
2021-12-23 14:54:35.611592,-31
2021-12-23 14:54:35.611596,-21
2021-12-23 14:54:35.611601,-16
2021-12-23 14:54:35.611605,-2
2021-12-23 14:54:35.611609,4
2021-12-23 14:54:35.611614,0
2021-12-23 14:54:35.611618,-4
2021-12-23 14:54:35.611623,-4
2021-12-23 14:54:35.611627,4
2021-12-23 14:54:35.611631,12
2021-12-23 14:54:35.611636,-14
2021-12-23 14:54:35.611640,-33
2021-12-23 14:54:35.611645,-7
2021-12-23 14:54:35.611649,12
2021-12-23 14:54:35.611653,-2
2021-12-23 14:54:35.611658,-19
2021-12-23 14:54:35.611662,-31
2021-12-23 14:54:35.611666,-24
2021-12-23 14:54:35.611671,-2
2021-12-23 14:54:35.611675,14
2021-12-23 14:54:35.611679,26
2021-12-23 14:54:35.836866,38
2021-12-23 14:54:35.836879,52
2021-12-23 14:54:35.836884,55
2021-12-23 14:54:35.836889,38
2021-12-23 14:54:35.836893,21
2021-12-23 14:54:35.836898,28
2021-12-23 14:54:35.836902,36
2021-12-23 14:54:35.836906,24
2021-12-23 14:54:35.836911,12
2021-12-23 14:54:35.836915,9
2021-12-23 14:54:35.836919,7
2021-12-23 14:54:35.836924,0
2021-12-23 14:54:35.836928,2
2021-12-23 14:54:35.836933,21
2021-12-23 14:54:35.837053,33
2021-12-23 14:54:35.837065,129
2021-12-23 14:54:35.837075,408
2021-12-23 14:54:35.837095,810
2021-12-23 14:54:35.837102,894
2021-12-23 14:54:35.837107,187
2021-12-23 14:54:35.837111,-473
2021-12-23 14:54:35.837116,-206
2021-12-23 14:54:35.837120,98
2021-12-23 14:54:35.837124,-84
2021-12-23 14:54:35.837129,-122
2021-12-23 14:54:35.837133,14
2021-12-23 14:54:35.837137,-7
2021-12-23 14:54:35.837142,-55
2021-12-23 14:54:35.837146,-14
2021-12-23 14:54:35.837151,12
2021-12-23 14:54:36.104992,0
2021-12-23 14:54:36.105006,12
2021-12-23 14:54:36.105011,36
2021-12-23 14:54:36.105016,33
2021-12-23 14:54:36.105020,24
2021-12-23 14:54:36.105024,48
2021-12-23 14:54:36.105029,72
2021-12-23 14:54:36.105033,67
2021-12-23 14:54:36.105037,81
2021-12-23 14:54:36.105042,125
2021-12-23 14:54:36.105046,139
2021-12-23 14:54:36.105050,127
2021-12-23 14:54:36.105054,149
2021-12-23 14:54:36.105059,189
