Time,ECG
2021-12-23 15:14:12.657011,-45
2021-12-23 15:14:12.657026,-108
2021-12-23 15:14:12.657032,-72
2021-12-23 15:14:12.657036,-33
2021-12-23 15:14:12.657041,-74
2021-12-23 15:14:12.657046,-86
2021-12-23 15:14:12.657050,-67
2021-12-23 15:14:12.657068,-62
2021-12-23 15:14:12.657072,-24
2021-12-23 15:14:12.657076,-9
2021-12-23 15:14:12.657080,-52
2021-12-23 15:14:12.657084,-31
2021-12-23 15:14:12.657088,-4
2021-12-23 15:14:12.657092,-48
2021-12-23 15:14:12.657096,-40
2021-12-23 15:14:12.657101,-2
2021-12-23 15:14:12.657105,-7
2021-12-23 15:14:12.657109,16
2021-12-23 15:14:12.657113,45
2021-12-23 15:14:12.657117,7
2021-12-23 15:14:12.657122,-16
2021-12-23 15:14:12.657126,0
2021-12-23 15:14:12.657130,12
2021-12-23 15:14:12.657134,7
2021-12-23 15:14:12.657138,31
2021-12-23 15:14:12.657142,69
2021-12-23 15:14:12.657146,12
2021-12-23 15:14:12.657151,-62
2021-12-23 15:14:12.657155,-9
2021-12-23 15:14:12.657159,21
2021-12-23 15:14:12.808636,0
2021-12-23 15:14:12.808658,50
2021-12-23 15:14:12.808665,74
2021-12-23 15:14:12.808671,26
2021-12-23 15:14:12.808678,19
2021-12-23 15:14:12.808684,4
2021-12-23 15:14:12.808692,-24
2021-12-23 15:14:12.808698,12
2021-12-23 15:14:12.808704,50
2021-12-23 15:14:12.808710,57
2021-12-23 15:14:12.808717,55
2021-12-23 15:14:12.808723,31
2021-12-23 15:14:12.808729,-4
2021-12-23 15:14:12.808736,9
2021-12-23 15:14:12.808742,9
2021-12-23 15:14:12.808748,-26
2021-12-23 15:14:12.808755,4
2021-12-23 15:14:12.808762,69
2021-12-23 15:14:12.808768,57
2021-12-23 15:14:12.808774,16
2021-12-23 15:14:12.808781,14
2021-12-23 15:14:12.808787,14
2021-12-23 15:14:12.808793,26
2021-12-23 15:14:12.808800,57
2021-12-23 15:14:12.808806,38
2021-12-23 15:14:12.808812,33
2021-12-23 15:14:12.808819,60
2021-12-23 15:14:12.808825,40
2021-12-23 15:14:12.808831,14
2021-12-23 15:14:12.808841,21
2021-12-23 15:14:13.033236,24
2021-12-23 15:14:13.033267,31
2021-12-23 15:14:13.033278,79
2021-12-23 15:14:13.033288,84
2021-12-23 15:14:13.033298,36
2021-12-23 15:14:13.033308,189
2021-12-23 15:14:13.033318,572
2021-12-23 15:14:13.033327,976
2021-12-23 15:14:13.033337,1007
2021-12-23 15:14:13.033347,247
2021-12-23 15:14:13.033357,-420
2021-12-23 15:14:13.033367,-156
2021-12-23 15:14:13.033377,91
2021-12-23 15:14:13.033394,-91
2021-12-23 15:14:13.033404,-64
2021-12-23 15:14:13.033413,72
2021-12-23 15:14:13.033423,4
2021-12-23 15:14:13.033433,-62
2021-12-23 15:14:13.033443,31
2021-12-23 15:14:13.033453,105
2021-12-23 15:14:13.033463,31
2021-12-23 15:14:13.033472,-31
2021-12-23 15:14:13.033482,16
2021-12-23 15:14:13.033492,69
2021-12-23 15:14:13.033501,62
2021-12-23 15:14:13.033511,40
2021-12-23 15:14:13.033521,91
2021-12-23 15:14:13.033530,151
2021-12-23 15:14:13.033540,113
2021-12-23 15:14:13.033552,105
2021-12-23 15:14:13.258285,161
2021-12-23 15:14:13.258315,173
2021-12-23 15:14:13.258326,182
2021-12-23 15:14:13.258337,221
2021-12-23 15:14:13.258347,281
2021-12-23 15:14:13.258356,339
2021-12-23 15:14:13.258366,358
2021-12-23 15:14:13.258376,363
2021-12-23 15:14:13.258386,358
2021-12-23 15:14:13.258395,372
2021-12-23 15:14:13.258405,399
2021-12-23 15:14:13.258415,319
2021-12-23 15:14:13.258424,211
2021-12-23 15:14:13.258434,168
2021-12-23 15:14:13.258444,64
2021-12-23 15:14:13.258454,-60
2021-12-23 15:14:13.258463,-67
2021-12-23 15:14:13.258483,-52
2021-12-23 15:14:13.258494,-93
2021-12-23 15:14:13.258503,-122
2021-12-23 15:14:13.258513,-110
2021-12-23 15:14:13.258523,-103
2021-12-23 15:14:13.258533,-108
2021-12-23 15:14:13.258542,-93
2021-12-23 15:14:13.258552,-93
2021-12-23 15:14:13.258562,-105
2021-12-23 15:14:13.258571,-91
2021-12-23 15:14:13.258581,-72
2021-12-23 15:14:13.258591,-60
2021-12-23 15:14:13.258601,-33
2021-12-23 15:14:13.483689,-14
2021-12-23 15:14:13.483710,-55
2021-12-23 15:14:13.483718,-81
2021-12-23 15:14:13.483724,-31
2021-12-23 15:14:13.483730,-19
2021-12-23 15:14:13.483737,-28
2021-12-23 15:14:13.483743,-2
2021-12-23 15:14:13.483755,-21
2021-12-23 15:14:13.483762,-50
2021-12-23 15:14:13.483768,2
2021-12-23 15:14:13.483774,26
2021-12-23 15:14:13.483781,-28
2021-12-23 15:14:13.483787,-52
2021-12-23 15:14:13.483793,-28
2021-12-23 15:14:13.483800,-4
2021-12-23 15:14:13.483806,7
2021-12-23 15:14:13.483813,-33
2021-12-23 15:14:13.483819,-28
2021-12-23 15:14:13.483825,62
2021-12-23 15:14:13.483832,50
2021-12-23 15:14:13.483838,-38
2021-12-23 15:14:13.483844,-19
2021-12-23 15:14:13.483851,40
2021-12-23 15:14:13.483857,21
2021-12-23 15:14:13.483863,-43
2021-12-23 15:14:13.483869,-48
2021-12-23 15:14:13.483875,36
2021-12-23 15:14:13.483882,74
2021-12-23 15:14:13.483888,21
2021-12-23 15:14:13.483895,7
2021-12-23 15:14:13.708205,45
2021-12-23 15:14:13.708227,19
2021-12-23 15:14:13.708234,-48
2021-12-23 15:14:13.708241,-26
2021-12-23 15:14:13.708247,62
2021-12-23 15:14:13.708254,103
2021-12-23 15:14:13.708260,101
2021-12-23 15:14:13.708266,72
2021-12-23 15:14:13.708273,36
2021-12-23 15:14:13.708279,28
2021-12-23 15:14:13.708285,26
2021-12-23 15:14:13.708292,38
2021-12-23 15:14:13.708298,31
2021-12-23 15:14:13.708304,19
2021-12-23 15:14:13.708311,64
2021-12-23 15:14:13.708317,76
2021-12-23 15:14:13.708324,64
2021-12-23 15:14:13.708330,67
2021-12-23 15:14:13.708336,52
2021-12-23 15:14:13.708343,202
2021-12-23 15:14:13.708349,598
2021-12-23 15:14:13.708355,1002
2021-12-23 15:14:13.708377,870
2021-12-23 15:14:13.708390,38
2021-12-23 15:14:13.708417,-420
2021-12-23 15:14:13.708424,-40
2021-12-23 15:14:13.708430,139
2021-12-23 15:14:13.708436,-91
2021-12-23 15:14:13.708443,-105
2021-12-23 15:14:13.708449,33
2021-12-23 15:14:13.978666,72
2021-12-23 15:14:13.978697,36
2021-12-23 15:14:13.978709,2
2021-12-23 15:14:13.978719,24
2021-12-23 15:14:13.978728,72
2021-12-23 15:14:13.978738,50
2021-12-23 15:14:13.978747,4
2021-12-23 15:14:13.978757,55
2021-12-23 15:14:13.978766,93
2021-12-23 15:14:13.978776,91
2021-12-23 15:14:13.978785,110
2021-12-23 15:14:13.978795,98
2021-12-23 15:14:13.978805,84
2021-12-23 15:14:13.978814,129
2021-12-23 15:14:13.978824,161
2021-12-23 15:14:13.978833,175
2021-12-23 15:14:13.978843,247
2021-12-23 15:14:13.978852,310
2021-12-23 15:14:13.978862,288
2021-12-23 15:14:13.978871,303
2021-12-23 15:14:13.978881,375
2021-12-23 15:14:13.978891,353
2021-12-23 15:14:13.978903,317
2021-12-23 15:14:13.978913,377
2021-12-23 15:14:13.978923,401
2021-12-23 15:14:13.978932,336
2021-12-23 15:14:13.978942,259
2021-12-23 15:14:13.978951,192
2021-12-23 15:14:13.978961,108
2021-12-23 15:14:13.978971,-36
2021-12-23 15:14:14.157485,-156
2021-12-23 15:14:14.157503,-144
2021-12-23 15:14:14.157511,-84
2021-12-23 15:14:14.157517,-76
2021-12-23 15:14:14.157524,-45
2021-12-23 15:14:14.157530,4
2021-12-23 15:14:14.157536,-52
2021-12-23 15:14:14.157543,-144
2021-12-23 15:14:14.157549,-117
2021-12-23 15:14:14.157555,-45
2021-12-23 15:14:14.157561,-38
2021-12-23 15:14:14.157568,-43
2021-12-23 15:14:14.157574,-14
2021-12-23 15:14:14.157580,-36
2021-12-23 15:14:14.157586,-67
2021-12-23 15:14:14.157593,-7
2021-12-23 15:14:14.157599,14
2021-12-23 15:14:14.157605,-7
2021-12-23 15:14:14.157612,24
2021-12-23 15:14:14.157618,-21
2021-12-23 15:14:14.157624,-96
2021-12-23 15:14:14.157631,-24
2021-12-23 15:14:14.157637,36
2021-12-23 15:14:14.157643,-9
2021-12-23 15:14:14.157654,-33
2021-12-23 15:14:14.157661,0
2021-12-23 15:14:14.157667,40
2021-12-23 15:14:14.157673,38
2021-12-23 15:14:14.157679,28
2021-12-23 15:14:14.157686,50
2021-12-23 15:14:14.428296,7
2021-12-23 15:14:14.428326,-48
2021-12-23 15:14:14.428338,-24
2021-12-23 15:14:14.428348,-19
2021-12-23 15:14:14.428359,-24
2021-12-23 15:14:14.428369,7
2021-12-23 15:14:14.428379,12
2021-12-23 15:14:14.428388,40
2021-12-23 15:14:14.428398,110
2021-12-23 15:14:14.428407,52
2021-12-23 15:14:14.428417,-43
2021-12-23 15:14:14.428427,-31
2021-12-23 15:14:14.428436,-28
2021-12-23 15:14:14.428446,-24
2021-12-23 15:14:14.428455,40
2021-12-23 15:14:14.428465,33
2021-12-23 15:14:14.428474,4
2021-12-23 15:14:14.428484,50
2021-12-23 15:14:14.428494,88
2021-12-23 15:14:14.428503,64
2021-12-23 15:14:14.428513,2
2021-12-23 15:14:14.428522,-4
2021-12-23 15:14:14.428565,57
2021-12-23 15:14:14.428579,67
2021-12-23 15:14:14.428607,50
2021-12-23 15:14:14.428651,60
2021-12-23 15:14:14.428661,43
2021-12-23 15:14:14.428710,43
2021-12-23 15:14:14.428723,76
2021-12-23 15:14:14.428739,62
2021-12-23 15:14:14.742204,40
2021-12-23 15:14:14.742223,45
2021-12-23 15:14:14.742231,16
2021-12-23 15:14:14.742237,19
2021-12-23 15:14:14.742244,98
2021-12-23 15:14:14.742250,163
2021-12-23 15:14:14.742256,238
2021-12-23 15:14:14.742263,483
2021-12-23 15:14:14.742269,933
2021-12-23 15:14:14.742276,1012
2021-12-23 15:14:14.742282,192
2021-12-23 15:14:14.742289,-488
2021-12-23 15:14:14.742295,-153
2021-12-23 15:14:14.742301,189
2021-12-23 15:14:14.742308,-12
2021-12-23 15:14:14.742314,-120
2021-12-23 15:14:14.742321,2
2021-12-23 15:14:14.742327,81
2021-12-23 15:14:14.742333,67
2021-12-23 15:14:14.742340,36
2021-12-23 15:14:14.742346,52
2021-12-23 15:14:14.742352,62
2021-12-23 15:14:14.742359,14
2021-12-23 15:14:14.742365,-9
2021-12-23 15:14:14.742371,21
2021-12-23 15:14:14.742378,79
2021-12-23 15:14:14.742384,127
2021-12-23 15:14:14.742390,134
2021-12-23 15:14:14.742397,122
2021-12-23 15:14:14.742403,117
2021-12-23 15:14:14.878082,134
2021-12-23 15:14:14.878103,141
2021-12-23 15:14:14.878111,125
2021-12-23 15:14:14.878117,168
2021-12-23 15:14:14.878124,266
2021-12-23 15:14:14.878130,312
2021-12-23 15:14:14.878137,315
2021-12-23 15:14:14.878143,336
2021-12-23 15:14:14.878150,341
2021-12-23 15:14:14.878156,348
2021-12-23 15:14:14.878167,375
2021-12-23 15:14:14.878174,334
2021-12-23 15:14:14.878180,281
2021-12-23 15:14:14.878186,266
2021-12-23 15:14:14.878193,187
2021-12-23 15:14:14.878199,43
2021-12-23 15:14:14.878206,-31
2021-12-23 15:14:14.878212,-69
2021-12-23 15:14:14.878218,-120
2021-12-23 15:14:14.878225,-120
2021-12-23 15:14:14.878231,-79
2021-12-23 15:14:14.878237,-101
2021-12-23 15:14:14.878244,-149
2021-12-23 15:14:14.878250,-76
2021-12-23 15:14:14.878256,14
2021-12-23 15:14:14.878263,-60
2021-12-23 15:14:14.878269,-144
2021-12-23 15:14:14.878275,-105
2021-12-23 15:14:14.878282,-96
2021-12-23 15:14:14.878288,-103
2021-12-23 15:14:15.193638,-24
2021-12-23 15:14:15.193660,31
2021-12-23 15:14:15.193667,-33
2021-12-23 15:14:15.193673,-129
2021-12-23 15:14:15.193680,-98
2021-12-23 15:14:15.193686,-14
2021-12-23 15:14:15.193692,-28
2021-12-23 15:14:15.193698,-60
2021-12-23 15:14:15.193704,-4
2021-12-23 15:14:15.193711,9
2021-12-23 15:14:15.193717,-57
2021-12-23 15:14:15.193723,-40
2021-12-23 15:14:15.193730,0
2021-12-23 15:14:15.193736,-55
2021-12-23 15:14:15.193742,-40
2021-12-23 15:14:15.193749,21
2021-12-23 15:14:15.193755,-2
2021-12-23 15:14:15.193761,-16
2021-12-23 15:14:15.193767,31
2021-12-23 15:14:15.193774,55
2021-12-23 15:14:15.193780,-7
2021-12-23 15:14:15.193786,-76
2021-12-23 15:14:15.193793,-33
2021-12-23 15:14:15.193799,2
2021-12-23 15:14:15.193805,-4
2021-12-23 15:14:15.193815,26
2021-12-23 15:14:15.193821,9
2021-12-23 15:14:15.193828,-12
2021-12-23 15:14:15.193834,48
2021-12-23 15:14:15.193841,36
2021-12-23 15:14:15.373256,-4
2021-12-23 15:14:15.373286,64
2021-12-23 15:14:15.373298,91
2021-12-23 15:14:15.373308,24
2021-12-23 15:14:15.373318,-28
2021-12-23 15:14:15.373327,-21
2021-12-23 15:14:15.373337,36
2021-12-23 15:14:15.373347,81
2021-12-23 15:14:15.373357,48
2021-12-23 15:14:15.373366,21
2021-12-23 15:14:15.373376,69
2021-12-23 15:14:15.373385,52
2021-12-23 15:14:15.373395,-24
2021-12-23 15:14:15.373405,-4
2021-12-23 15:14:15.373415,76
2021-12-23 15:14:15.373424,199
2021-12-23 15:14:15.373434,497
2021-12-23 15:14:15.373444,957
2021-12-23 15:14:15.373453,952
2021-12-23 15:14:15.373463,91
2021-12-23 15:14:15.373473,-478
2021-12-23 15:14:15.373483,-108
2021-12-23 15:14:15.373492,88
2021-12-23 15:14:15.373502,-93
2021-12-23 15:14:15.373512,-12
2021-12-23 15:14:15.373522,76
2021-12-23 15:14:15.373531,-45
2021-12-23 15:14:15.373541,-45
2021-12-23 15:14:15.373551,57
2021-12-23 15:14:15.373560,50
2021-12-23 15:14:15.553733,60
2021-12-23 15:14:15.553805,129
2021-12-23 15:14:15.553819,62
2021-12-23 15:14:15.553831,-45
2021-12-23 15:14:15.553841,31
2021-12-23 15:14:15.553851,120
2021-12-23 15:14:15.553860,101
2021-12-23 15:14:15.553870,101
2021-12-23 15:14:15.553880,120
2021-12-23 15:14:15.553890,134
2021-12-23 15:14:15.553899,149
2021-12-23 15:14:15.553909,163
2021-12-23 15:14:15.553919,211
2021-12-23 15:14:15.553929,259
2021-12-23 15:14:15.553938,286
2021-12-23 15:14:15.553948,348
2021-12-23 15:14:15.553966,382
2021-12-23 15:14:15.553977,317
2021-12-23 15:14:15.553986,315
2021-12-23 15:14:15.553996,396
2021-12-23 15:14:15.554006,387
2021-12-23 15:14:15.554015,307
2021-12-23 15:14:15.554025,238
2021-12-23 15:14:15.554035,134
2021-12-23 15:14:15.554044,28
2021-12-23 15:14:15.554054,-40
2021-12-23 15:14:15.554064,-88
2021-12-23 15:14:15.554073,-67
2021-12-23 15:14:15.554083,-60
2021-12-23 15:14:15.554093,-149
2021-12-23 15:14:15.868085,-168
2021-12-23 15:14:15.868115,-91
2021-12-23 15:14:15.868127,-91
2021-12-23 15:14:15.868137,-108
2021-12-23 15:14:15.868147,-67
2021-12-23 15:14:15.868157,-52
2021-12-23 15:14:15.868167,-40
2021-12-23 15:14:15.868176,-38
2021-12-23 15:14:15.868186,-86
2021-12-23 15:14:15.868196,-105
2021-12-23 15:14:15.868206,-108
2021-12-23 15:14:15.868216,-103
2021-12-23 15:14:15.868225,-40
2021-12-23 15:14:15.868235,2
2021-12-23 15:14:15.868245,-21
2021-12-23 15:14:15.868255,-36
2021-12-23 15:14:15.868265,-33
2021-12-23 15:14:15.868275,-36
2021-12-23 15:14:15.868285,-19
2021-12-23 15:14:15.868295,21
2021-12-23 15:14:15.868304,2
2021-12-23 15:14:15.868314,-81
2021-12-23 15:14:15.868324,-76
2021-12-23 15:14:15.868334,0
2021-12-23 15:14:15.868344,-4
2021-12-23 15:14:15.868354,-36
2021-12-23 15:14:15.868364,0
2021-12-23 15:14:15.868374,33
2021-12-23 15:14:15.868384,-12
2021-12-23 15:14:15.868393,-98
2021-12-23 15:14:16.002977,-108
2021-12-23 15:14:16.002993,-24
2021-12-23 15:14:16.002999,33
2021-12-23 15:14:16.003004,21
2021-12-23 15:14:16.003009,19
2021-12-23 15:14:16.003014,48
2021-12-23 15:14:16.003019,57
2021-12-23 15:14:16.003024,33
2021-12-23 15:14:16.003030,-19
2021-12-23 15:14:16.003035,-67
2021-12-23 15:14:16.003040,-45
2021-12-23 15:14:16.003045,-4
2021-12-23 15:14:16.003050,16
2021-12-23 15:14:16.003060,60
2021-12-23 15:14:16.003065,64
2021-12-23 15:14:16.003071,12
2021-12-23 15:14:16.003076,-4
2021-12-23 15:14:16.003081,101
2021-12-23 15:14:16.003086,401
2021-12-23 15:14:16.003091,829
2021-12-23 15:14:16.003096,952
2021-12-23 15:14:16.003101,300
2021-12-23 15:14:16.003106,-365
2021-12-23 15:14:16.003112,-144
2021-12-23 15:14:16.003117,117
2021-12-23 15:14:16.003122,-86
2021-12-23 15:14:16.003127,-117
2021-12-23 15:14:16.003132,9
2021-12-23 15:14:16.003137,-4
2021-12-23 15:14:16.003142,-9
2021-12-23 15:14:16.318211,55
2021-12-23 15:14:16.318241,84
2021-12-23 15:14:16.318253,86
2021-12-23 15:14:16.318263,45
2021-12-23 15:14:16.318272,-31
2021-12-23 15:14:16.318282,4
2021-12-23 15:14:16.318292,117
2021-12-23 15:14:16.318302,113
2021-12-23 15:14:16.318311,38
2021-12-23 15:14:16.318321,48
2021-12-23 15:14:16.318331,105
2021-12-23 15:14:16.318340,127
2021-12-23 15:14:16.318350,122
2021-12-23 15:14:16.318360,161
2021-12-23 15:14:16.318369,257
2021-12-23 15:14:16.318379,281
2021-12-23 15:14:16.318388,206
2021-12-23 15:14:16.318398,223
2021-12-23 15:14:16.318408,312
2021-12-23 15:14:16.318417,331
2021-12-23 15:14:16.318427,324
2021-12-23 15:14:16.318436,336
2021-12-23 15:14:16.318446,331
2021-12-23 15:14:16.318456,336
2021-12-23 15:14:16.318465,283
2021-12-23 15:14:16.318475,132
2021-12-23 15:14:16.318485,21
2021-12-23 15:14:16.318494,-21
2021-12-23 15:14:16.318504,-81
2021-12-23 15:14:16.318514,-127
2021-12-23 15:14:16.542625,-120
2021-12-23 15:14:16.542655,-88
2021-12-23 15:14:16.542666,-52
2021-12-23 15:14:16.542676,-24
2021-12-23 15:14:16.542686,-31
2021-12-23 15:14:16.542696,-67
2021-12-23 15:14:16.542706,-79
2021-12-23 15:14:16.542715,-57
2021-12-23 15:14:16.542725,-72
2021-12-23 15:14:16.542735,-117
2021-12-23 15:14:16.542745,-76
2021-12-23 15:14:16.542754,14
2021-12-23 15:14:16.542764,9
2021-12-23 15:14:16.542774,-4
2021-12-23 15:14:16.542784,43
2021-12-23 15:14:16.542794,33
2021-12-23 15:14:16.542803,-28
2021-12-23 15:14:16.542822,-14
2021-12-23 15:14:16.542832,-26
2021-12-23 15:14:16.542842,-127
2021-12-23 15:14:16.542852,-93
2021-12-23 15:14:16.542861,31
2021-12-23 15:14:16.542871,38
2021-12-23 15:14:16.542882,9
2021-12-23 15:14:16.542891,38
2021-12-23 15:14:16.542901,50
2021-12-23 15:14:16.542911,28
2021-12-23 15:14:16.542921,26
2021-12-23 15:14:16.542930,19
2021-12-23 15:14:16.542940,-7
2021-12-23 15:14:16.767024,-38
2021-12-23 15:14:16.767046,-81
2021-12-23 15:14:16.767054,-84
2021-12-23 15:14:16.767061,33
2021-12-23 15:14:16.767067,141
2021-12-23 15:14:16.767074,122
2021-12-23 15:14:16.767080,91
2021-12-23 15:14:16.767086,108
2021-12-23 15:14:16.767092,50
2021-12-23 15:14:16.767099,-21
2021-12-23 15:14:16.767105,-19
2021-12-23 15:14:16.767112,-33
2021-12-23 15:14:16.767118,0
2021-12-23 15:14:16.767124,88
2021-12-23 15:14:16.767131,79
2021-12-23 15:14:16.767137,28
2021-12-23 15:14:16.767143,21
2021-12-23 15:14:16.767150,24
2021-12-23 15:14:16.767156,105
2021-12-23 15:14:16.767162,377
2021-12-23 15:14:16.767169,810
2021-12-23 15:14:16.767175,1034
2021-12-23 15:14:16.767181,497
2021-12-23 15:14:16.767187,-298
2021-12-23 15:14:16.767194,-305
2021-12-23 15:14:16.767201,40
2021-12-23 15:14:16.767207,-19
2021-12-23 15:14:16.767214,-108
2021-12-23 15:14:16.767220,7
2021-12-23 15:14:16.767226,60
2021-12-23 15:14:16.948203,67
2021-12-23 15:14:16.948234,60
2021-12-23 15:14:16.948246,-31
2021-12-23 15:14:16.948256,-50
2021-12-23 15:14:16.948266,36
2021-12-23 15:14:16.948275,40
2021-12-23 15:14:16.948285,16
2021-12-23 15:14:16.948295,79
2021-12-23 15:14:16.948304,105
2021-12-23 15:14:16.948314,72
2021-12-23 15:14:16.948324,76
2021-12-23 15:14:16.948334,84
2021-12-23 15:14:16.948343,84
2021-12-23 15:14:16.948353,120
2021-12-23 15:14:16.948363,153
2021-12-23 15:14:16.948373,175
2021-12-23 15:14:16.948382,228
2021-12-23 15:14:16.948392,288
2021-12-23 15:14:16.948402,288
2021-12-23 15:14:16.948412,233
2021-12-23 15:14:16.948421,226
2021-12-23 15:14:16.948431,303
2021-12-23 15:14:16.948441,343
2021-12-23 15:14:16.948450,315
2021-12-23 15:14:16.948460,288
2021-12-23 15:14:16.948470,254
2021-12-23 15:14:16.948479,139
2021-12-23 15:14:16.948489,0
2021-12-23 15:14:16.948499,-40
2021-12-23 15:14:16.948514,-67
2021-12-23 15:14:17.263711,-115
2021-12-23 15:14:17.263740,-98
2021-12-23 15:14:17.263751,-67
2021-12-23 15:14:17.263761,-57
2021-12-23 15:14:17.263771,-67
2021-12-23 15:14:17.263781,-79
2021-12-23 15:14:17.263790,-69
2021-12-23 15:14:17.263800,-88
2021-12-23 15:14:17.263809,-129
2021-12-23 15:14:17.263819,-108
2021-12-23 15:14:17.263828,-43
2021-12-23 15:14:17.263838,-19
2021-12-23 15:14:17.263848,2
2021-12-23 15:14:17.263857,21
2021-12-23 15:14:17.263867,-36
2021-12-23 15:14:17.263876,-64
2021-12-23 15:14:17.263886,-16
2021-12-23 15:14:17.263896,-26
2021-12-23 15:14:17.263905,-55
2021-12-23 15:14:17.263915,2
2021-12-23 15:14:17.263925,40
2021-12-23 15:14:17.263934,-14
2021-12-23 15:14:17.263944,-40
2021-12-23 15:14:17.263953,-9
2021-12-23 15:14:17.263963,9
2021-12-23 15:14:17.263973,21
2021-12-23 15:14:17.263982,2
2021-12-23 15:14:17.263992,-55
2021-12-23 15:14:17.264001,-86
2021-12-23 15:14:17.264011,-64
2021-12-23 15:14:17.398661,-12
2021-12-23 15:14:17.398691,12
2021-12-23 15:14:17.398702,-4
2021-12-23 15:14:17.398712,0
2021-12-23 15:14:17.398722,7
2021-12-23 15:14:17.398732,-24
2021-12-23 15:14:17.398742,-12
2021-12-23 15:14:17.398751,31
2021-12-23 15:14:17.398761,9
2021-12-23 15:14:17.398771,-24
2021-12-23 15:14:17.398781,0
2021-12-23 15:14:17.398790,12
2021-12-23 15:14:17.398800,-24
2021-12-23 15:14:17.398810,-28
2021-12-23 15:14:17.398820,9
2021-12-23 15:14:17.398829,19
2021-12-23 15:14:17.398839,19
2021-12-23 15:14:17.398849,24
2021-12-23 15:14:17.398859,28
2021-12-23 15:14:17.398868,45
2021-12-23 15:14:17.398878,158
2021-12-23 15:14:17.398888,495
2021-12-23 15:14:17.398898,954
2021-12-23 15:14:17.398907,913
2021-12-23 15:14:17.398917,50
2021-12-23 15:14:17.398927,-512
2021-12-23 15:14:17.398936,-134
2021-12-23 15:14:17.398946,86
2021-12-23 15:14:17.398956,-149
2021-12-23 15:14:17.398966,-139
2021-12-23 15:14:17.623276,28
2021-12-23 15:14:17.623297,-16
2021-12-23 15:14:17.623305,-88
2021-12-23 15:14:17.623311,-12
2021-12-23 15:14:17.623318,24
2021-12-23 15:14:17.623324,-28
2021-12-23 15:14:17.623330,-21
2021-12-23 15:14:17.623337,-4
2021-12-23 15:14:17.623343,-21
2021-12-23 15:14:17.623349,24
2021-12-23 15:14:17.623356,88
2021-12-23 15:14:17.623362,72
2021-12-23 15:14:17.623368,43
2021-12-23 15:14:17.623375,81
2021-12-23 15:14:17.623381,151
2021-12-23 15:14:17.623387,165
2021-12-23 15:14:17.623394,105
2021-12-23 15:14:17.623400,105
2021-12-23 15:14:17.623406,204
2021-12-23 15:14:17.623413,274
2021-12-23 15:14:17.623425,307
2021-12-23 15:14:17.623432,327
2021-12-23 15:14:17.623438,329
2021-12-23 15:14:17.623445,329
2021-12-23 15:14:17.623451,339
2021-12-23 15:14:17.623457,315
2021-12-23 15:14:17.623464,216
2021-12-23 15:14:17.623470,132
2021-12-23 15:14:17.623476,108
2021-12-23 15:14:17.623483,57
2021-12-23 15:14:17.848727,-24
2021-12-23 15:14:17.848757,-93
2021-12-23 15:14:17.848769,-129
2021-12-23 15:14:17.848779,-115
2021-12-23 15:14:17.848789,-98
2021-12-23 15:14:17.848799,-117
2021-12-23 15:14:17.848809,-146
2021-12-23 15:14:17.848818,-120
2021-12-23 15:14:17.848828,-19
2021-12-23 15:14:17.848838,0
2021-12-23 15:14:17.848848,-108
2021-12-23 15:14:17.848857,-151
2021-12-23 15:14:17.848867,-84
2021-12-23 15:14:17.848877,-57
2021-12-23 15:14:17.848887,-67
2021-12-23 15:14:17.848896,-40
2021-12-23 15:14:17.848906,-28
2021-12-23 15:14:17.848916,-31
2021-12-23 15:14:17.848926,-2
2021-12-23 15:14:17.848936,9
2021-12-23 15:14:17.848946,-12
2021-12-23 15:14:17.848955,-19
2021-12-23 15:14:17.848965,-21
2021-12-23 15:14:17.848975,-36
2021-12-23 15:14:17.848984,-16
2021-12-23 15:14:17.848994,9
2021-12-23 15:14:17.849004,-2
2021-12-23 15:14:17.849013,-31
2021-12-23 15:14:17.849023,-2
2021-12-23 15:14:17.849033,72
2021-12-23 15:14:18.118696,43
2021-12-23 15:14:18.118727,-52
2021-12-23 15:14:18.118739,-40
2021-12-23 15:14:18.118748,19
2021-12-23 15:14:18.118758,31
2021-12-23 15:14:18.118768,9
2021-12-23 15:14:18.118778,-12
2021-12-23 15:14:18.118787,36
2021-12-23 15:14:18.118797,96
2021-12-23 15:14:18.118806,48
2021-12-23 15:14:18.118816,19
2021-12-23 15:14:18.118826,48
2021-12-23 15:14:18.118835,19
2021-12-23 15:14:18.118845,-19
2021-12-23 15:14:18.118855,4
2021-12-23 15:14:18.118865,31
2021-12-23 15:14:18.118874,14
2021-12-23 15:14:18.118884,16
2021-12-23 15:14:18.118893,64
2021-12-23 15:14:18.118903,105
2021-12-23 15:14:18.118913,88
2021-12-23 15:14:18.118922,105
2021-12-23 15:14:18.118932,336
2021-12-23 15:14:18.118941,781
2021-12-23 15:14:18.118951,995
2021-12-23 15:14:18.118961,372
2021-12-23 15:14:18.118970,-401
2021-12-23 15:14:18.118980,-238
2021-12-23 15:14:18.118989,132
2021-12-23 15:14:18.118999,-28
2021-12-23 15:14:18.343247,-117
2021-12-23 15:14:18.343277,28
2021-12-23 15:14:18.343289,48
2021-12-23 15:14:18.343299,-4
2021-12-23 15:14:18.343309,-21
2021-12-23 15:14:18.343319,-31
2021-12-23 15:14:18.343328,-19
2021-12-23 15:14:18.343338,21
2021-12-23 15:14:18.343348,38
2021-12-23 15:14:18.343357,45
2021-12-23 15:14:18.343367,103
2021-12-23 15:14:18.343377,125
2021-12-23 15:14:18.343387,84
2021-12-23 15:14:18.343396,74
2021-12-23 15:14:18.343406,55
2021-12-23 15:14:18.343416,48
2021-12-23 15:14:18.343425,91
2021-12-23 15:14:18.343435,139
2021-12-23 15:14:18.343445,204
2021-12-23 15:14:18.343454,269
2021-12-23 15:14:18.343464,266
2021-12-23 15:14:18.343474,262
2021-12-23 15:14:18.343491,286
2021-12-23 15:14:18.343501,276
2021-12-23 15:14:18.343511,259
2021-12-23 15:14:18.343521,281
2021-12-23 15:14:18.343530,303
2021-12-23 15:14:18.343540,300
2021-12-23 15:14:18.343550,245
2021-12-23 15:14:18.343559,115
2021-12-23 15:14:18.613104,-21
2021-12-23 15:14:18.613152,-98
2021-12-23 15:14:18.613159,-115
2021-12-23 15:14:18.613166,-110
2021-12-23 15:14:18.613173,-103
2021-12-23 15:14:18.613179,-120
2021-12-23 15:14:18.613186,-153
2021-12-23 15:14:18.613192,-129
2021-12-23 15:14:18.613198,-84
2021-12-23 15:14:18.613205,-52
2021-12-23 15:14:18.613211,-52
2021-12-23 15:14:18.613218,-96
2021-12-23 15:14:18.613224,-98
2021-12-23 15:14:18.613231,-64
2021-12-23 15:14:18.613237,-79
2021-12-23 15:14:18.613243,-79
2021-12-23 15:14:18.613250,-40
2021-12-23 15:14:18.613256,-52
2021-12-23 15:14:18.613263,-50
2021-12-23 15:14:18.613269,14
2021-12-23 15:14:18.613276,26
2021-12-23 15:14:18.613282,-14
2021-12-23 15:14:18.613288,-24
2021-12-23 15:14:18.613295,-19
2021-12-23 15:14:18.613301,2
2021-12-23 15:14:18.613307,19
2021-12-23 15:14:18.613314,-12
2021-12-23 15:14:18.613320,-16
2021-12-23 15:14:18.613327,4
2021-12-23 15:14:18.613333,-2
2021-12-23 15:14:18.881901,40
2021-12-23 15:14:18.881931,86
2021-12-23 15:14:18.881943,21
2021-12-23 15:14:18.881953,-24
2021-12-23 15:14:18.881963,26
2021-12-23 15:14:18.881973,28
2021-12-23 15:14:18.881983,-21
2021-12-23 15:14:18.881992,-24
2021-12-23 15:14:18.882002,0
2021-12-23 15:14:18.882012,0
2021-12-23 15:14:18.882022,40
2021-12-23 15:14:18.882031,88
2021-12-23 15:14:18.882041,45
2021-12-23 15:14:18.882051,36
2021-12-23 15:14:18.882060,86
2021-12-23 15:14:18.882070,12
2021-12-23 15:14:18.882080,-40
2021-12-23 15:14:18.882090,33
2021-12-23 15:14:18.882100,91
2021-12-23 15:14:18.882109,98
2021-12-23 15:14:18.882119,45
2021-12-23 15:14:18.882128,4
2021-12-23 15:14:18.882138,19
2021-12-23 15:14:18.882148,-4
2021-12-23 15:14:18.882158,-31
2021-12-23 15:14:18.882167,69
2021-12-23 15:14:18.882177,223
2021-12-23 15:14:18.882187,250
2021-12-23 15:14:18.882196,317
2021-12-23 15:14:18.882206,731
2021-12-23 15:14:19.063644,1038
2021-12-23 15:14:19.063674,413
2021-12-23 15:14:19.063686,-447
2021-12-23 15:14:19.063696,-300
2021-12-23 15:14:19.063706,98
2021-12-23 15:14:19.063716,-50
2021-12-23 15:14:19.063725,-86
2021-12-23 15:14:19.063735,156
2021-12-23 15:14:19.063745,168
2021-12-23 15:14:19.063754,-36
2021-12-23 15:14:19.063764,-79
2021-12-23 15:14:19.063774,21
2021-12-23 15:14:19.063784,26
2021-12-23 15:14:19.063794,2
2021-12-23 15:14:19.063804,52
2021-12-23 15:14:19.063813,103
2021-12-23 15:14:19.063823,127
2021-12-23 15:14:19.063833,139
2021-12-23 15:14:19.063843,132
2021-12-23 15:14:19.063852,72
2021-12-23 15:14:19.063862,0
2021-12-23 15:14:19.063872,76
2021-12-23 15:14:19.063882,197
2021-12-23 15:14:19.063892,173
2021-12-23 15:14:19.063901,156
2021-12-23 15:14:19.063911,254
2021-12-23 15:14:19.063921,336
2021-12-23 15:14:19.063931,343
2021-12-23 15:14:19.063941,319
2021-12-23 15:14:19.063950,312
2021-12-23 15:14:19.243213,360
2021-12-23 15:14:19.243241,367
2021-12-23 15:14:19.243253,288
2021-12-23 15:14:19.243263,295
2021-12-23 15:14:19.243272,348
2021-12-23 15:14:19.243287,192
2021-12-23 15:14:19.243297,-9
2021-12-23 15:14:19.243307,-24
2021-12-23 15:14:19.243316,-31
2021-12-23 15:14:19.243326,-101
2021-12-23 15:14:19.243336,-74
2021-12-23 15:14:19.243346,-16
2021-12-23 15:14:19.243356,-64
2021-12-23 15:14:19.243366,-98
2021-12-23 15:14:19.243376,-43
2021-12-23 15:14:19.243385,-14
2021-12-23 15:14:19.243395,-72
2021-12-23 15:14:19.243405,-141
2021-12-23 15:14:19.243415,-117
2021-12-23 15:14:19.243425,-55
2021-12-23 15:14:19.243435,-72
2021-12-23 15:14:19.243445,-72
2021-12-23 15:14:19.243454,7
2021-12-23 15:14:19.243464,45
2021-12-23 15:14:19.243474,7
2021-12-23 15:14:19.243483,2
2021-12-23 15:14:19.243493,50
2021-12-23 15:14:19.243503,33
2021-12-23 15:14:19.243512,-60
2021-12-23 15:14:19.243522,-96
2021-12-23 15:14:19.513208,-55
2021-12-23 15:14:19.513238,-33
2021-12-23 15:14:19.513250,-16
2021-12-23 15:14:19.513259,12
2021-12-23 15:14:19.513269,24
2021-12-23 15:14:19.513279,14
2021-12-23 15:14:19.513289,7
2021-12-23 15:14:19.513298,28
2021-12-23 15:14:19.513308,55
2021-12-23 15:14:19.513317,26
2021-12-23 15:14:19.513327,-38
2021-12-23 15:14:19.513336,-45
2021-12-23 15:14:19.513346,9
2021-12-23 15:14:19.513356,52
2021-12-23 15:14:19.513365,31
2021-12-23 15:14:19.513375,-19
2021-12-23 15:14:19.513384,-7
2021-12-23 15:14:19.513394,40
2021-12-23 15:14:19.513404,36
2021-12-23 15:14:19.513413,-7
2021-12-23 15:14:19.513423,19
2021-12-23 15:14:19.513433,88
2021-12-23 15:14:19.513442,91
2021-12-23 15:14:19.513452,60
2021-12-23 15:14:19.513461,50
2021-12-23 15:14:19.513471,50
2021-12-23 15:14:19.513480,52
2021-12-23 15:14:19.513490,57
2021-12-23 15:14:19.513499,52
2021-12-23 15:14:19.513509,21
2021-12-23 15:14:19.783106,9
2021-12-23 15:14:19.783136,43
2021-12-23 15:14:19.783148,60
2021-12-23 15:14:19.783158,86
2021-12-23 15:14:19.783168,137
2021-12-23 15:14:19.783178,72
2021-12-23 15:14:19.783187,-2
2021-12-23 15:14:19.783197,175
2021-12-23 15:14:19.783207,548
2021-12-23 15:14:19.783216,909
2021-12-23 15:14:19.783226,788
2021-12-23 15:14:19.783235,-19
2021-12-23 15:14:19.783245,-430
2021-12-23 15:14:19.783254,-4
2021-12-23 15:14:19.783264,139
2021-12-23 15:14:19.783274,-122
2021-12-23 15:14:19.783283,-50
2021-12-23 15:14:19.783293,122
2021-12-23 15:14:19.783302,38
2021-12-23 15:14:19.783312,-16
2021-12-23 15:14:19.783321,43
2021-12-23 15:14:19.783331,48
2021-12-23 15:14:19.783340,38
2021-12-23 15:14:19.783350,31
2021-12-23 15:14:19.783360,-21
2021-12-23 15:14:19.783369,-40
2021-12-23 15:14:19.783379,36
2021-12-23 15:14:19.783388,139
2021-12-23 15:14:19.783398,170
2021-12-23 15:14:19.783407,144
2021-12-23 15:14:19.918677,122
2021-12-23 15:14:19.918707,105
2021-12-23 15:14:19.918719,93
2021-12-23 15:14:19.918729,117
2021-12-23 15:14:19.918739,161
2021-12-23 15:14:19.918748,204
2021-12-23 15:14:19.918758,257
2021-12-23 15:14:19.918768,303
2021-12-23 15:14:19.918777,324
2021-12-23 15:14:19.918787,343
2021-12-23 15:14:19.918797,355
2021-12-23 15:14:19.918807,329
2021-12-23 15:14:19.918816,266
2021-12-23 15:14:19.918826,216
2021-12-23 15:14:19.918836,170
2021-12-23 15:14:19.918846,91
2021-12-23 15:14:19.918856,9
2021-12-23 15:14:19.918866,-50
2021-12-23 15:14:19.918875,-91
2021-12-23 15:14:19.918885,-105
2021-12-23 15:14:19.918895,-101
2021-12-23 15:14:19.918905,-88
2021-12-23 15:14:19.918914,-115
2021-12-23 15:14:19.918924,-170
2021-12-23 15:14:19.918934,-149
2021-12-23 15:14:19.918944,-88
2021-12-23 15:14:19.918953,-86
2021-12-23 15:14:19.918963,-93
2021-12-23 15:14:19.918973,-60
2021-12-23 15:14:19.918982,-57
2021-12-23 15:14:20.232922,-86
2021-12-23 15:14:20.232949,-72
2021-12-23 15:14:20.232956,-36
2021-12-23 15:14:20.232963,-43
2021-12-23 15:14:20.232969,-45
2021-12-23 15:14:20.232975,-12
2021-12-23 15:14:20.232981,-26
2021-12-23 15:14:20.232988,-48
2021-12-23 15:14:20.232994,-21
2021-12-23 15:14:20.233000,-36
2021-12-23 15:14:20.233006,-57
2021-12-23 15:14:20.233013,-33
2021-12-23 15:14:20.233019,-24
2021-12-23 15:14:20.233025,-16
2021-12-23 15:14:20.233032,31
2021-12-23 15:14:20.233038,55
2021-12-23 15:14:20.233044,-9
2021-12-23 15:14:20.233050,-84
2021-12-23 15:14:20.233057,-57
2021-12-23 15:14:20.233063,12
2021-12-23 15:14:20.233069,12
2021-12-23 15:14:20.233076,-16
2021-12-23 15:14:20.233082,-9
2021-12-23 15:14:20.233088,-2
2021-12-23 15:14:20.233094,-4
2021-12-23 15:14:20.233101,14
2021-12-23 15:14:20.233107,21
2021-12-23 15:14:20.233113,7
2021-12-23 15:14:20.233120,-2
2021-12-23 15:14:20.233126,9
2021-12-23 15:14:20.413451,38
2021-12-23 15:14:20.413473,55
2021-12-23 15:14:20.413480,52
2021-12-23 15:14:20.413487,45
2021-12-23 15:14:20.413493,28
2021-12-23 15:14:20.413499,12
2021-12-23 15:14:20.413506,16
2021-12-23 15:14:20.413512,19
2021-12-23 15:14:20.413518,12
2021-12-23 15:14:20.413524,19
2021-12-23 15:14:20.413531,21
2021-12-23 15:14:20.413537,9
2021-12-23 15:14:20.413543,24
2021-12-23 15:14:20.413550,38
2021-12-23 15:14:20.413556,33
2021-12-23 15:14:20.413562,137
2021-12-23 15:14:20.413568,442
2021-12-23 15:14:20.413575,836
2021-12-23 15:14:20.413581,844
2021-12-23 15:14:20.413587,105
2021-12-23 15:14:20.413593,-473
2021-12-23 15:14:20.413600,-180
2021-12-23 15:14:20.413606,86
2021-12-23 15:14:20.413612,-62
2021-12-23 15:14:20.413618,-76
2021-12-23 15:14:20.413625,14
2021-12-23 15:14:20.413631,-12
2021-12-23 15:14:20.413637,-40
2021-12-23 15:14:20.413643,-14
2021-12-23 15:14:20.413650,2
2021-12-23 15:14:20.638545,16
2021-12-23 15:14:20.638574,38
2021-12-23 15:14:20.638585,57
2021-12-23 15:14:20.638595,96
2021-12-23 15:14:20.638605,98
2021-12-23 15:14:20.638614,26
2021-12-23 15:14:20.638624,-4
2021-12-23 15:14:20.638634,52
2021-12-23 15:14:20.638643,98
2021-12-23 15:14:20.638653,110
2021-12-23 15:14:20.638662,134
2021-12-23 15:14:20.638672,165
2021-12-23 15:14:20.638682,189
2021-12-23 15:14:20.638691,218
2021-12-23 15:14:20.638701,250
2021-12-23 15:14:20.638711,271
2021-12-23 15:14:20.638720,290
2021-12-23 15:14:20.638730,315
2021-12-23 15:14:20.638739,331
2021-12-23 15:14:20.638749,336
2021-12-23 15:14:20.638758,317
2021-12-23 15:14:20.638768,276
2021-12-23 15:14:20.638778,209
2021-12-23 15:14:20.638787,120
2021-12-23 15:14:20.638797,36
2021-12-23 15:14:20.638806,-24
2021-12-23 15:14:20.638816,-69
2021-12-23 15:14:20.638826,-98
2021-12-23 15:14:20.638835,-108
2021-12-23 15:14:20.638845,-105
2021-12-23 15:14:20.906878,-88
2021-12-23 15:14:20.906908,-76
2021-12-23 15:14:20.906920,-81
2021-12-23 15:14:20.906930,-81
2021-12-23 15:14:20.906939,-69
2021-12-23 15:14:20.906949,-60
2021-12-23 15:14:20.906959,-55
2021-12-23 15:14:20.906968,-45
2021-12-23 15:14:20.906978,-28
2021-12-23 15:14:20.906987,-14
2021-12-23 15:14:20.906997,-26
2021-12-23 15:14:20.907007,-45
2021-12-23 15:14:20.907016,-33
2021-12-23 15:14:20.907026,-14
2021-12-23 15:14:20.907036,-16
2021-12-23 15:14:20.907045,-16
2021-12-23 15:14:20.907055,-16
2021-12-23 15:14:20.907064,-28
2021-12-23 15:14:20.907074,-9
2021-12-23 15:14:20.907084,33
2021-12-23 15:14:20.907093,31
2021-12-23 15:14:20.907103,2
2021-12-23 15:14:20.907113,4
2021-12-23 15:14:20.907122,14
2021-12-23 15:14:20.907132,9
2021-12-23 15:14:20.907141,9
2021-12-23 15:14:20.907151,14
2021-12-23 15:14:20.907160,14
2021-12-23 15:14:20.907170,9
2021-12-23 15:14:20.907180,12
2021-12-23 15:14:21.087884,19
2021-12-23 15:14:21.087908,28
2021-12-23 15:14:21.087915,33
2021-12-23 15:14:21.087922,45
2021-12-23 15:14:21.087928,48
2021-12-23 15:14:21.087934,26
2021-12-23 15:14:21.087941,2
2021-12-23 15:14:21.087947,2
2021-12-23 15:14:21.087953,7
2021-12-23 15:14:21.087960,9
2021-12-23 15:14:21.087966,21
2021-12-23 15:14:21.087976,24
2021-12-23 15:14:21.087983,14
2021-12-23 15:14:21.087989,24
2021-12-23 15:14:21.087996,60
2021-12-23 15:14:21.088002,105
2021-12-23 15:14:21.088008,117
2021-12-23 15:14:21.088014,69
2021-12-23 15:14:21.088021,4
2021-12-23 15:14:21.088027,7
2021-12-23 15:14:21.088033,43
2021-12-23 15:14:21.088040,36
2021-12-23 15:14:21.088046,16
2021-12-23 15:14:21.088052,24
2021-12-23 15:14:21.088059,26
2021-12-23 15:14:21.088065,24
2021-12-23 15:14:21.088071,55
2021-12-23 15:14:21.088078,86
2021-12-23 15:14:21.088084,105
2021-12-23 15:14:21.088090,228
2021-12-23 15:14:21.357619,548
2021-12-23 15:14:21.357649,947
2021-12-23 15:14:21.357661,800
2021-12-23 15:14:21.357671,-43
2021-12-23 15:14:21.357680,-423
2021-12-23 15:14:21.357690,-36
2021-12-23 15:14:21.357700,84
2021-12-23 15:14:21.357709,-86
2021-12-23 15:14:21.357719,-4
2021-12-23 15:14:21.357728,115
2021-12-23 15:14:21.357738,57
2021-12-23 15:14:21.357748,-19
2021-12-23 15:14:21.357758,-26
2021-12-23 15:14:21.357767,2
2021-12-23 15:14:21.357777,24
2021-12-23 15:14:21.357787,31
2021-12-23 15:14:21.357796,33
2021-12-23 15:14:21.357806,60
2021-12-23 15:14:21.357815,115
2021-12-23 15:14:21.357825,161
2021-12-23 15:14:21.357835,170
2021-12-23 15:14:21.357844,129
2021-12-23 15:14:21.357854,43
2021-12-23 15:14:21.357863,43
2021-12-23 15:14:21.357873,141
2021-12-23 15:14:21.357883,177
2021-12-23 15:14:21.357892,173
2021-12-23 15:14:21.357902,235
2021-12-23 15:14:21.357911,315
2021-12-23 15:14:21.357921,307
2021-12-23 15:14:21.538338,252
2021-12-23 15:14:21.538362,276
2021-12-23 15:14:21.538369,329
2021-12-23 15:14:21.538375,317
2021-12-23 15:14:21.538382,286
2021-12-23 15:14:21.538388,257
2021-12-23 15:14:21.538394,209
2021-12-23 15:14:21.538400,141
2021-12-23 15:14:21.538407,64
2021-12-23 15:14:21.538413,-14
2021-12-23 15:14:21.538419,-64
2021-12-23 15:14:21.538426,-62
2021-12-23 15:14:21.538432,-45
2021-12-23 15:14:21.538438,-88
2021-12-23 15:14:21.538445,-156
2021-12-23 15:14:21.538451,-139
2021-12-23 15:14:21.538457,-84
2021-12-23 15:14:21.538463,-81
2021-12-23 15:14:21.538469,-86
2021-12-23 15:14:21.538475,-62
2021-12-23 15:14:21.538482,-52
2021-12-23 15:14:21.538488,-24
2021-12-23 15:14:21.538494,33
2021-12-23 15:14:21.538500,-7
2021-12-23 15:14:21.538507,-117
2021-12-23 15:14:21.538513,-96
2021-12-23 15:14:21.538519,-9
2021-12-23 15:14:21.538525,-16
2021-12-23 15:14:21.538531,-31
2021-12-23 15:14:21.538538,-2
2021-12-23 15:14:21.763383,-2
2021-12-23 15:14:21.763405,-19
2021-12-23 15:14:21.763412,-7
2021-12-23 15:14:21.763419,2
2021-12-23 15:14:21.763425,-2
2021-12-23 15:14:21.763432,16
2021-12-23 15:14:21.763438,9
2021-12-23 15:14:21.763445,-36
2021-12-23 15:14:21.763451,-26
2021-12-23 15:14:21.763457,14
2021-12-23 15:14:21.763463,2
2021-12-23 15:14:21.763470,-21
2021-12-23 15:14:21.763476,2
2021-12-23 15:14:21.763483,19
2021-12-23 15:14:21.763489,12
2021-12-23 15:14:21.763495,19
2021-12-23 15:14:21.763502,28
2021-12-23 15:14:21.763508,7
2021-12-23 15:14:21.763514,-19
2021-12-23 15:14:21.763521,7
2021-12-23 15:14:21.763527,43
2021-12-23 15:14:21.763533,19
2021-12-23 15:14:21.763540,-9
2021-12-23 15:14:21.763546,12
2021-12-23 15:14:21.763552,45
2021-12-23 15:14:21.763558,45
2021-12-23 15:14:21.763565,31
2021-12-23 15:14:21.763571,19
2021-12-23 15:14:21.763578,12
2021-12-23 15:14:21.763585,12
2021-12-23 15:14:22.033341,12
2021-12-23 15:14:22.033371,2
2021-12-23 15:14:22.033382,-2
2021-12-23 15:14:22.033393,19
2021-12-23 15:14:22.033403,33
2021-12-23 15:14:22.033412,14
2021-12-23 15:14:22.033422,2
2021-12-23 15:14:22.033432,24
2021-12-23 15:14:22.033441,40
2021-12-23 15:14:22.033451,28
2021-12-23 15:14:22.033461,26
2021-12-23 15:14:22.033470,48
2021-12-23 15:14:22.033480,144
2021-12-23 15:14:22.033490,396
2021-12-23 15:14:22.033499,783
2021-12-23 15:14:22.033509,887
2021-12-23 15:14:22.033519,221
2021-12-23 15:14:22.033529,-423
2021-12-23 15:14:22.033538,-158
2021-12-23 15:14:22.033548,168
2021-12-23 15:14:22.033558,9
2021-12-23 15:14:22.033568,-57
2021-12-23 15:14:22.033577,43
2021-12-23 15:14:22.033587,24
2021-12-23 15:14:22.033597,-45
2021-12-23 15:14:22.033606,-7
2021-12-23 15:14:22.033616,55
2021-12-23 15:14:22.033626,55
2021-12-23 15:14:22.033635,76
2021-12-23 15:14:22.033645,120
2021-12-23 15:14:22.258264,122
2021-12-23 15:14:22.258294,86
2021-12-23 15:14:22.258305,33
2021-12-23 15:14:22.258315,21
2021-12-23 15:14:22.258325,79
2021-12-23 15:14:22.258334,137
2021-12-23 15:14:22.258344,170
2021-12-23 15:14:22.258353,214
2021-12-23 15:14:22.258372,221
2021-12-23 15:14:22.258383,185
2021-12-23 15:14:22.258392,185
2021-12-23 15:14:22.258402,233
2021-12-23 15:14:22.258411,298
2021-12-23 15:14:22.258421,295
2021-12-23 15:14:22.258430,271
2021-12-23 15:14:22.258440,377
2021-12-23 15:14:22.258449,466
2021-12-23 15:14:22.258458,404
2021-12-23 15:14:22.258468,322
2021-12-23 15:14:22.258477,281
2021-12-23 15:14:22.258487,194
2021-12-23 15:14:22.258496,64
2021-12-23 15:14:22.258506,-9
2021-12-23 15:14:22.258516,-24
2021-12-23 15:14:22.258525,-43
2021-12-23 15:14:22.258534,-76
2021-12-23 15:14:22.258544,-91
2021-12-23 15:14:22.258553,-74
2021-12-23 15:14:22.258563,-52
2021-12-23 15:14:22.258572,-52
2021-12-23 15:14:22.527623,-72
2021-12-23 15:14:22.527654,-69
2021-12-23 15:14:22.527665,-50
2021-12-23 15:14:22.527675,-50
2021-12-23 15:14:22.527684,-48
2021-12-23 15:14:22.527694,-45
2021-12-23 15:14:22.527704,-48
2021-12-23 15:14:22.527713,-40
2021-12-23 15:14:22.527723,-31
2021-12-23 15:14:22.527732,-19
2021-12-23 15:14:22.527742,-12
2021-12-23 15:14:22.527752,-4
2021-12-23 15:14:22.527761,19
2021-12-23 15:14:22.527771,12
2021-12-23 15:14:22.527781,-38
2021-12-23 15:14:22.527790,-24
2021-12-23 15:14:22.527800,26
2021-12-23 15:14:22.527809,12
2021-12-23 15:14:22.527819,12
2021-12-23 15:14:22.527828,60
2021-12-23 15:14:22.527838,40
2021-12-23 15:14:22.527847,-45
2021-12-23 15:14:22.527857,-67
2021-12-23 15:14:22.527866,-14
2021-12-23 15:14:22.527876,14
2021-12-23 15:14:22.527885,16
2021-12-23 15:14:22.527895,38
2021-12-23 15:14:22.527904,52
2021-12-23 15:14:22.527914,33
2021-12-23 15:14:22.527923,4
2021-12-23 15:14:22.708170,-36
2021-12-23 15:14:22.708191,-57
2021-12-23 15:14:22.708199,-9
2021-12-23 15:14:22.708205,26
2021-12-23 15:14:22.708212,21
2021-12-23 15:14:22.708218,38
2021-12-23 15:14:22.708224,21
2021-12-23 15:14:22.708231,-9
2021-12-23 15:14:22.708237,-2
2021-12-23 15:14:22.708243,-31
2021-12-23 15:14:22.708249,-67
2021-12-23 15:14:22.708256,-24
2021-12-23 15:14:22.708262,-2
2021-12-23 15:14:22.708269,-12
2021-12-23 15:14:22.708275,43
2021-12-23 15:14:22.708281,86
2021-12-23 15:14:22.708288,72
2021-12-23 15:14:22.708294,40
2021-12-23 15:14:22.708300,-19
2021-12-23 15:14:22.708306,-48
2021-12-23 15:14:22.708313,-14
2021-12-23 15:14:22.708319,4
2021-12-23 15:14:22.708325,7
2021-12-23 15:14:22.708332,38
2021-12-23 15:14:22.708338,76
2021-12-23 15:14:22.708344,62
2021-12-23 15:14:22.708351,28
2021-12-23 15:14:22.708357,40
2021-12-23 15:14:22.708363,52
2021-12-23 15:14:22.708369,144
2021-12-23 15:14:22.977312,485
2021-12-23 15:14:22.977342,933
2021-12-23 15:14:22.977353,872
2021-12-23 15:14:22.977363,64
2021-12-23 15:14:22.977373,-430
2021-12-23 15:14:22.977383,-76
2021-12-23 15:14:22.977393,115
2021-12-23 15:14:22.977402,-84
2021-12-23 15:14:22.977412,-98
2021-12-23 15:14:22.977422,-24
2021-12-23 15:14:22.977431,-19
2021-12-23 15:14:22.977441,19
2021-12-23 15:14:22.977451,40
2021-12-23 15:14:22.977460,31
2021-12-23 15:14:22.977470,21
2021-12-23 15:14:22.977480,-7
2021-12-23 15:14:22.977489,-2
2021-12-23 15:14:22.977499,36
2021-12-23 15:14:22.977509,50
2021-12-23 15:14:22.977518,55
2021-12-23 15:14:22.977528,72
2021-12-23 15:14:22.977538,76
2021-12-23 15:14:22.977547,88
2021-12-23 15:14:22.977557,115
2021-12-23 15:14:22.977567,134
2021-12-23 15:14:22.977576,153
2021-12-23 15:14:22.977586,187
2021-12-23 15:14:22.977595,214
2021-12-23 15:14:22.977605,238
2021-12-23 15:14:22.977615,264
2021-12-23 15:14:23.248705,293
2021-12-23 15:14:23.248736,310
2021-12-23 15:14:23.248748,319
2021-12-23 15:14:23.248758,322
2021-12-23 15:14:23.248768,312
2021-12-23 15:14:23.248778,286
2021-12-23 15:14:23.248787,218
2021-12-23 15:14:23.248797,127
2021-12-23 15:14:23.248807,64
2021-12-23 15:14:23.248816,4
2021-12-23 15:14:23.248826,-76
2021-12-23 15:14:23.248836,-113
2021-12-23 15:14:23.248846,-108
2021-12-23 15:14:23.248855,-110
2021-12-23 15:14:23.248865,-113
2021-12-23 15:14:23.248874,-113
2021-12-23 15:14:23.248884,-117
2021-12-23 15:14:23.248894,-110
2021-12-23 15:14:23.248903,-98
2021-12-23 15:14:23.248914,-84
2021-12-23 15:14:23.248923,-60
2021-12-23 15:14:23.248933,-55
2021-12-23 15:14:23.248942,-69
2021-12-23 15:14:23.248952,-64
2021-12-23 15:14:23.248962,-38
2021-12-23 15:14:23.248971,-21
2021-12-23 15:14:23.248981,-16
2021-12-23 15:14:23.248991,-4
2021-12-23 15:14:23.249000,-38
2021-12-23 15:14:23.249010,-117
2021-12-23 15:14:23.427351,-91
2021-12-23 15:14:23.427372,-4
2021-12-23 15:14:23.427379,9
2021-12-23 15:14:23.427386,-7
2021-12-23 15:14:23.427392,-4
2021-12-23 15:14:23.427398,-14
2021-12-23 15:14:23.427404,-14
2021-12-23 15:14:23.427411,-7
2021-12-23 15:14:23.427417,-16
2021-12-23 15:14:23.427423,-24
2021-12-23 15:14:23.427430,-9
2021-12-23 15:14:23.427436,-4
2021-12-23 15:14:23.427442,-9
2021-12-23 15:14:23.427449,-9
2021-12-23 15:14:23.427455,-7
2021-12-23 15:14:23.427462,-14
2021-12-23 15:14:23.427468,-16
2021-12-23 15:14:23.427475,-14
2021-12-23 15:14:23.427481,0
2021-12-23 15:14:23.427487,12
2021-12-23 15:14:23.427494,21
2021-12-23 15:14:23.427500,36
2021-12-23 15:14:23.427506,48
2021-12-23 15:14:23.427516,43
2021-12-23 15:14:23.427523,31
2021-12-23 15:14:23.427529,28
2021-12-23 15:14:23.427536,24
2021-12-23 15:14:23.427542,19
2021-12-23 15:14:23.427548,21
2021-12-23 15:14:23.427554,26
2021-12-23 15:14:23.608327,24
2021-12-23 15:14:23.608347,26
2021-12-23 15:14:23.608355,31
2021-12-23 15:14:23.608361,28
2021-12-23 15:14:23.608368,36
2021-12-23 15:14:23.608403,48
2021-12-23 15:14:23.608417,74
2021-12-23 15:14:23.608425,211
2021-12-23 15:14:23.608431,517
2021-12-23 15:14:23.608438,834
2021-12-23 15:14:23.608444,663
2021-12-23 15:14:23.608451,-79
2021-12-23 15:14:23.608457,-389
2021-12-23 15:14:23.608464,-24
2021-12-23 15:14:23.608470,86
2021-12-23 15:14:23.608477,-79
2021-12-23 15:14:23.608483,-31
2021-12-23 15:14:23.608489,43
2021-12-23 15:14:23.608496,0
2021-12-23 15:14:23.608502,2
2021-12-23 15:14:23.608509,33
2021-12-23 15:14:23.608515,28
2021-12-23 15:14:23.608521,28
2021-12-23 15:14:23.608527,43
2021-12-23 15:14:23.608534,50
2021-12-23 15:14:23.608540,55
2021-12-23 15:14:23.608546,67
2021-12-23 15:14:23.608553,76
2021-12-23 15:14:23.608559,84
2021-12-23 15:14:23.608565,96
2021-12-23 15:14:23.923207,110
2021-12-23 15:14:23.923238,125
2021-12-23 15:14:23.923250,141
2021-12-23 15:14:23.923260,158
2021-12-23 15:14:23.923269,177
2021-12-23 15:14:23.923279,204
2021-12-23 15:14:23.923289,233
2021-12-23 15:14:23.923298,259
2021-12-23 15:14:23.923308,278
2021-12-23 15:14:23.923318,283
2021-12-23 15:14:23.923327,286
2021-12-23 15:14:23.923337,288
2021-12-23 15:14:23.923346,271
2021-12-23 15:14:23.923356,226
2021-12-23 15:14:23.923365,156
2021-12-23 15:14:23.923375,76
2021-12-23 15:14:23.923385,7
2021-12-23 15:14:23.923394,-43
2021-12-23 15:14:23.923404,-76
2021-12-23 15:14:23.923414,-98
2021-12-23 15:14:23.923423,-108
2021-12-23 15:14:23.923433,-110
2021-12-23 15:14:23.923442,-105
2021-12-23 15:14:23.923452,-96
2021-12-23 15:14:23.923462,-91
2021-12-23 15:14:23.923471,-84
2021-12-23 15:14:23.923481,-79
2021-12-23 15:14:23.923491,-74
2021-12-23 15:14:23.923500,-64
2021-12-23 15:14:23.923510,-52
2021-12-23 15:14:24.103639,-45
2021-12-23 15:14:24.103670,-38
2021-12-23 15:14:24.103681,-33
2021-12-23 15:14:24.103691,-28
2021-12-23 15:14:24.103700,-21
2021-12-23 15:14:24.103710,-12
2021-12-23 15:14:24.103719,-9
2021-12-23 15:14:24.103729,-12
2021-12-23 15:14:24.103738,-12
2021-12-23 15:14:24.103748,-9
2021-12-23 15:14:24.103757,-4
2021-12-23 15:14:24.103767,-4
2021-12-23 15:14:24.103777,-9
2021-12-23 15:14:24.103786,-9
2021-12-23 15:14:24.103796,4
2021-12-23 15:14:24.103806,19
2021-12-23 15:14:24.103815,12
2021-12-23 15:14:24.103825,-2
2021-12-23 15:14:24.103834,-4
2021-12-23 15:14:24.103844,-4
2021-12-23 15:14:24.103853,-9
2021-12-23 15:14:24.103863,-7
2021-12-23 15:14:24.103872,-2
2021-12-23 15:14:24.103882,-2
2021-12-23 15:14:24.103891,-2
2021-12-23 15:14:24.103901,7
2021-12-23 15:14:24.103911,12
2021-12-23 15:14:24.103920,12
2021-12-23 15:14:24.103930,24
2021-12-23 15:14:24.103939,45
2021-12-23 15:14:24.328236,57
2021-12-23 15:14:24.328266,52
2021-12-23 15:14:24.328277,43
2021-12-23 15:14:24.328287,36
2021-12-23 15:14:24.328297,40
2021-12-23 15:14:24.328307,43
2021-12-23 15:14:24.328316,43
2021-12-23 15:14:24.328326,40
2021-12-23 15:14:24.328335,40
2021-12-23 15:14:24.328345,40
2021-12-23 15:14:24.328355,43
2021-12-23 15:14:24.328364,52
2021-12-23 15:14:24.328374,62
2021-12-23 15:14:24.328384,81
2021-12-23 15:14:24.328393,185
2021-12-23 15:14:24.328403,449
2021-12-23 15:14:24.328412,822
2021-12-23 15:14:24.328422,884
2021-12-23 15:14:24.328431,194
2021-12-23 15:14:24.328441,-418
2021-12-23 15:14:24.328451,-149
2021-12-23 15:14:24.328460,129
2021-12-23 15:14:24.328470,-38
2021-12-23 15:14:24.328480,-64
2021-12-23 15:14:24.328489,43
2021-12-23 15:14:24.328499,16
2021-12-23 15:14:24.328508,-9
2021-12-23 15:14:24.328518,26
2021-12-23 15:14:24.328527,26
2021-12-23 15:14:24.328537,21
2021-12-23 15:14:24.553209,48
2021-12-23 15:14:24.553240,57
2021-12-23 15:14:24.553252,52
2021-12-23 15:14:24.553262,60
2021-12-23 15:14:24.553271,76
2021-12-23 15:14:24.553281,91
2021-12-23 15:14:24.553291,101
2021-12-23 15:14:24.553301,110
2021-12-23 15:14:24.553310,120
2021-12-23 15:14:24.553320,141
2021-12-23 15:14:24.553330,170
2021-12-23 15:14:24.553340,197
2021-12-23 15:14:24.553350,216
2021-12-23 15:14:24.553359,245
2021-12-23 15:14:24.553369,281
2021-12-23 15:14:24.553379,303
2021-12-23 15:14:24.553389,319
2021-12-23 15:14:24.553399,339
2021-12-23 15:14:24.553408,341
2021-12-23 15:14:24.553418,324
2021-12-23 15:14:24.553428,288
2021-12-23 15:14:24.553438,221
2021-12-23 15:14:24.553448,132
2021-12-23 15:14:24.553458,52
2021-12-23 15:14:24.553468,-9
2021-12-23 15:14:24.553478,-52
2021-12-23 15:14:24.553487,-76
2021-12-23 15:14:24.553497,-86
2021-12-23 15:14:24.553507,-86
2021-12-23 15:14:24.553517,-76
2021-12-23 15:14:24.823720,-74
2021-12-23 15:14:24.823750,-74
2021-12-23 15:14:24.823761,-67
2021-12-23 15:14:24.823771,-60
2021-12-23 15:14:24.823781,-55
2021-12-23 15:14:24.823790,-48
2021-12-23 15:14:24.823800,-43
2021-12-23 15:14:24.823810,-38
2021-12-23 15:14:24.823819,-33
2021-12-23 15:14:24.823829,-28
2021-12-23 15:14:24.823839,-24
2021-12-23 15:14:24.823848,-19
2021-12-23 15:14:24.823858,-19
2021-12-23 15:14:24.823868,-19
2021-12-23 15:14:24.823877,-9
2021-12-23 15:14:24.823887,-7
2021-12-23 15:14:24.823897,-7
2021-12-23 15:14:24.823907,-4
2021-12-23 15:14:24.823916,-2
2021-12-23 15:14:24.823926,0
2021-12-23 15:14:24.823936,2
2021-12-23 15:14:24.823945,2
2021-12-23 15:14:24.823955,7
2021-12-23 15:14:24.823965,12
2021-12-23 15:14:24.823974,9
2021-12-23 15:14:24.823984,9
2021-12-23 15:14:24.823994,14
2021-12-23 15:14:24.824003,14
2021-12-23 15:14:24.824013,12
2021-12-23 15:14:24.824027,12
2021-12-23 15:14:25.046354,12
2021-12-23 15:14:25.046367,7
2021-12-23 15:14:25.046372,2
2021-12-23 15:14:25.046377,4
2021-12-23 15:14:25.046382,0
2021-12-23 15:14:25.046386,-7
2021-12-23 15:14:25.046391,-2
2021-12-23 15:14:25.046395,7
2021-12-23 15:14:25.046400,9
2021-12-23 15:14:25.046404,12
2021-12-23 15:14:25.046409,28
2021-12-23 15:14:25.046413,43
2021-12-23 15:14:25.046417,33
2021-12-23 15:14:25.046422,24
2021-12-23 15:14:25.046427,19
2021-12-23 15:14:25.046431,16
2021-12-23 15:14:25.046436,21
2021-12-23 15:14:25.046440,24
2021-12-23 15:14:25.046444,19
2021-12-23 15:14:25.046449,16
2021-12-23 15:14:25.046453,14
2021-12-23 15:14:25.046458,9
2021-12-23 15:14:25.046462,28
2021-12-23 15:14:25.046466,64
2021-12-23 15:14:25.046471,69
2021-12-23 15:14:25.046475,132
2021-12-23 15:14:25.046480,389
2021-12-23 15:14:25.046484,795
2021-12-23 15:14:25.046489,841
2021-12-23 15:14:25.046493,113
2021-12-23 15:14:25.272572,-447
2021-12-23 15:14:25.272598,-105
2021-12-23 15:14:25.272607,151
2021-12-23 15:14:25.272616,-16
2021-12-23 15:14:25.272624,16
2021-12-23 15:14:25.272632,117
2021-12-23 15:14:25.272640,74
2021-12-23 15:14:25.272648,57
2021-12-23 15:14:25.272656,-4
2021-12-23 15:14:25.272665,-50
2021-12-23 15:14:25.272672,60
2021-12-23 15:14:25.272678,101
2021-12-23 15:14:25.272682,45
2021-12-23 15:14:25.272687,33
2021-12-23 15:14:25.272691,0
2021-12-23 15:14:25.272695,21
2021-12-23 15:14:25.272700,117
2021-12-23 15:14:25.272704,137
2021-12-23 15:14:25.272709,132
2021-12-23 15:14:25.272713,185
2021-12-23 15:14:25.272717,187
2021-12-23 15:14:25.272722,151
2021-12-23 15:14:25.272726,165
2021-12-23 15:14:25.272730,238
2021-12-23 15:14:25.272735,319
2021-12-23 15:14:25.272739,334
2021-12-23 15:14:25.272743,312
2021-12-23 15:14:25.272748,343
2021-12-23 15:14:25.272752,420
2021-12-23 15:14:25.272757,452
2021-12-23 15:14:25.453726,389
2021-12-23 15:14:25.453757,286
2021-12-23 15:14:25.453768,216
2021-12-23 15:14:25.453779,165
2021-12-23 15:14:25.453789,84
2021-12-23 15:14:25.453799,-7
2021-12-23 15:14:25.453809,-36
2021-12-23 15:14:25.453818,-2
2021-12-23 15:14:25.453828,-7
2021-12-23 15:14:25.453838,-84
2021-12-23 15:14:25.453848,-141
2021-12-23 15:14:25.453858,-146
2021-12-23 15:14:25.453867,-110
2021-12-23 15:14:25.453877,-64
2021-12-23 15:14:25.453888,-69
2021-12-23 15:14:25.453897,-81
2021-12-23 15:14:25.453907,-26
2021-12-23 15:14:25.453917,48
2021-12-23 15:14:25.453926,55
2021-12-23 15:14:25.453936,-12
2021-12-23 15:14:25.453946,-120
2021-12-23 15:14:25.453955,-165
2021-12-23 15:14:25.453965,-69
2021-12-23 15:14:25.453975,24
2021-12-23 15:14:25.453985,36
2021-12-23 15:14:25.453994,79
2021-12-23 15:14:25.454004,88
2021-12-23 15:14:25.454014,-7
2021-12-23 15:14:25.454023,-64
2021-12-23 15:14:25.454033,-36
2021-12-23 15:14:25.812148,-38
2021-12-23 15:14:25.812163,-72
2021-12-23 15:14:25.812168,-57
2021-12-23 15:14:25.812173,-21
2021-12-23 15:14:25.812177,-21
2021-12-23 15:14:25.812182,-7
2021-12-23 15:14:25.812186,21
2021-12-23 15:14:25.812191,19
2021-12-23 15:14:25.812195,-36
2021-12-23 15:14:25.812200,-98
2021-12-23 15:14:25.812204,-40
2021-12-23 15:14:25.812209,24
2021-12-23 15:14:25.812213,2
2021-12-23 15:14:25.812218,7
2021-12-23 15:14:25.812222,-45
2021-12-23 15:14:25.812227,-117
2021-12-23 15:14:25.812231,-38
2021-12-23 15:14:25.812236,36
2021-12-23 15:14:25.812240,-7
2021-12-23 15:14:25.812244,-16
2021-12-23 15:14:25.812249,21
2021-12-23 15:14:25.812253,-9
2021-12-23 15:14:25.812258,-31
2021-12-23 15:14:25.812262,-7
2021-12-23 15:14:25.812267,-33
2021-12-23 15:14:25.812271,-36
2021-12-23 15:14:25.812276,4
2021-12-23 15:14:25.812280,7
2021-12-23 15:14:25.812285,0
2021-12-23 15:14:25.812289,40
2021-12-23 15:14:25.948223,52
2021-12-23 15:14:25.948254,-43
2021-12-23 15:14:25.948265,-84
2021-12-23 15:14:25.948275,-21
2021-12-23 15:14:25.948285,12
2021-12-23 15:14:25.948294,55
2021-12-23 15:14:25.948304,55
2021-12-23 15:14:25.948314,14
2021-12-23 15:14:25.948323,101
2021-12-23 15:14:25.948333,336
2021-12-23 15:14:25.948343,788
2021-12-23 15:14:25.948352,1074
2021-12-23 15:14:25.948362,379
2021-12-23 15:14:25.948371,-543
2021-12-23 15:14:25.948381,-401
2021-12-23 15:14:25.948390,64
2021-12-23 15:14:25.948400,9
2021-12-23 15:14:25.948410,-86
2021-12-23 15:14:25.948419,-21
2021-12-23 15:14:25.948429,-40
2021-12-23 15:14:25.948438,-79
2021-12-23 15:14:25.948448,-31
2021-12-23 15:14:25.948457,7
2021-12-23 15:14:25.948467,-36
2021-12-23 15:14:25.948477,-48
2021-12-23 15:14:25.948486,7
2021-12-23 15:14:25.948496,36
2021-12-23 15:14:25.948505,2
2021-12-23 15:14:25.948515,12
2021-12-23 15:14:25.948525,117
2021-12-23 15:14:26.263067,127
2021-12-23 15:14:26.263098,19
2021-12-23 15:14:26.263109,33
2021-12-23 15:14:26.263119,127
2021-12-23 15:14:26.263129,141
2021-12-23 15:14:26.263138,132
2021-12-23 15:14:26.263148,168
2021-12-23 15:14:26.263158,235
2021-12-23 15:14:26.263168,264
2021-12-23 15:14:26.263177,235
2021-12-23 15:14:26.263187,240
2021-12-23 15:14:26.263197,336
2021-12-23 15:14:26.263207,375
2021-12-23 15:14:26.263217,276
2021-12-23 15:14:26.263226,221
2021-12-23 15:14:26.263236,242
2021-12-23 15:14:26.263246,153
2021-12-23 15:14:26.263255,-24
2021-12-23 15:14:26.263265,-117
2021-12-23 15:14:26.263275,-81
2021-12-23 15:14:26.263284,-69
2021-12-23 15:14:26.263294,-127
2021-12-23 15:14:26.263304,-115
2021-12-23 15:14:26.263313,-96
2021-12-23 15:14:26.263323,-170
2021-12-23 15:14:26.263333,-187
2021-12-23 15:14:26.263343,-98
2021-12-23 15:14:26.263353,-91
2021-12-23 15:14:26.263362,-125
2021-12-23 15:14:26.263372,-57
2021-12-23 15:14:26.398461,-26
2021-12-23 15:14:26.398483,-69
2021-12-23 15:14:26.398490,-84
2021-12-23 15:14:26.398497,-52
2021-12-23 15:14:26.398503,12
2021-12-23 15:14:26.398509,-7
2021-12-23 15:14:26.398516,-115
2021-12-23 15:14:26.398522,-91
2021-12-23 15:14:26.398529,-4
2021-12-23 15:14:26.398535,-4
2021-12-23 15:14:26.398541,-12
2021-12-23 15:14:26.398548,-36
2021-12-23 15:14:26.398554,-93
2021-12-23 15:14:26.398560,-69
2021-12-23 15:14:26.398566,-19
2021-12-23 15:14:26.398572,-38
2021-12-23 15:14:26.398579,-12
2021-12-23 15:14:26.398585,21
2021-12-23 15:14:26.398591,-48
2021-12-23 15:14:26.398598,-96
2021-12-23 15:14:26.398604,-91
2021-12-23 15:14:26.398610,-103
2021-12-23 15:14:26.398616,-52
2021-12-23 15:14:26.398623,52
2021-12-23 15:14:26.398629,69
2021-12-23 15:14:26.398635,-21
2021-12-23 15:14:26.398641,-64
2021-12-23 15:14:26.398647,-38
2021-12-23 15:14:26.398658,-36
2021-12-23 15:14:26.398664,-14
2021-12-23 15:14:26.667528,-12
2021-12-23 15:14:26.667548,-31
2021-12-23 15:14:26.667556,36
2021-12-23 15:14:26.667562,69
2021-12-23 15:14:26.667569,24
2021-12-23 15:14:26.667575,-24
2021-12-23 15:14:26.667581,-69
2021-12-23 15:14:26.667588,-62
2021-12-23 15:14:26.667594,-50
2021-12-23 15:14:26.667600,-52
2021-12-23 15:14:26.667606,64
2021-12-23 15:14:26.667613,206
2021-12-23 15:14:26.667619,252
2021-12-23 15:14:26.667625,432
2021-12-23 15:14:26.667631,844
2021-12-23 15:14:26.667638,844
2021-12-23 15:14:26.667644,-2
2021-12-23 15:14:26.667651,-579
2021-12-23 15:14:26.667657,-177
2021-12-23 15:14:26.667663,105
2021-12-23 15:14:26.667669,-52
2021-12-23 15:14:26.667676,-26
2021-12-23 15:14:26.667682,24
2021-12-23 15:14:26.667688,-45
2021-12-23 15:14:26.667695,-14
2021-12-23 15:14:26.667701,26
2021-12-23 15:14:26.667707,26
2021-12-23 15:14:26.667713,40
2021-12-23 15:14:26.667720,28
2021-12-23 15:14:26.667726,33
2021-12-23 15:14:26.892319,36
2021-12-23 15:14:26.892338,21
2021-12-23 15:14:26.892345,115
2021-12-23 15:14:26.892352,192
2021-12-23 15:14:26.892358,108
2021-12-23 15:14:26.892365,64
2021-12-23 15:14:26.892371,113
2021-12-23 15:14:26.892378,149
2021-12-23 15:14:26.892384,182
2021-12-23 15:14:26.892390,209
2021-12-23 15:14:26.892396,257
2021-12-23 15:14:26.892403,348
2021-12-23 15:14:26.892409,329
2021-12-23 15:14:26.892415,240
2021-12-23 15:14:26.892422,271
2021-12-23 15:14:26.892428,346
2021-12-23 15:14:26.892434,358
2021-12-23 15:14:26.892441,334
2021-12-23 15:14:26.892447,310
2021-12-23 15:14:26.892453,266
2021-12-23 15:14:26.892460,120
2021-12-23 15:14:26.892466,-43
2021-12-23 15:14:26.892472,-72
2021-12-23 15:14:26.892479,-74
2021-12-23 15:14:26.892485,-117
2021-12-23 15:14:26.892491,-113
2021-12-23 15:14:26.892498,-64
2021-12-23 15:14:26.892504,-48
2021-12-23 15:14:26.892510,-21
2021-12-23 15:14:26.892516,-72
2021-12-23 15:14:27.116869,-211
2021-12-23 15:14:27.116900,-175
2021-12-23 15:14:27.116912,-74
2021-12-23 15:14:27.116921,-151
2021-12-23 15:14:27.116931,-144
2021-12-23 15:14:27.116941,72
2021-12-23 15:14:27.116951,127
2021-12-23 15:14:27.116960,-4
2021-12-23 15:14:27.116970,-67
2021-12-23 15:14:27.116979,-38
2021-12-23 15:14:27.116989,-4
2021-12-23 15:14:27.116999,-38
2021-12-23 15:14:27.117008,-36
2021-12-23 15:14:27.117018,24
2021-12-23 15:14:27.117028,7
2021-12-23 15:14:27.117037,7
2021-12-23 15:14:27.117047,72
2021-12-23 15:14:27.117057,-4
2021-12-23 15:14:27.117066,-108
2021-12-23 15:14:27.117076,19
2021-12-23 15:14:27.117086,86
2021-12-23 15:14:27.117095,2
2021-12-23 15:14:27.117105,26
2021-12-23 15:14:27.117114,24
2021-12-23 15:14:27.117124,-33
2021-12-23 15:14:27.117133,48
2021-12-23 15:14:27.117143,84
2021-12-23 15:14:27.117153,9
2021-12-23 15:14:27.117162,48
2021-12-23 15:14:27.117172,62
2021-12-23 15:14:27.298596,-21
2021-12-23 15:14:27.298617,-7
2021-12-23 15:14:27.298624,64
2021-12-23 15:14:27.298631,76
2021-12-23 15:14:27.298637,52
2021-12-23 15:14:27.298643,9
2021-12-23 15:14:27.298650,40
2021-12-23 15:14:27.298656,120
2021-12-23 15:14:27.298662,141
2021-12-23 15:14:27.298669,295
2021-12-23 15:14:27.298675,663
2021-12-23 15:14:27.298681,916
2021-12-23 15:14:27.298688,531
2021-12-23 15:14:27.298694,-245
2021-12-23 15:14:27.298701,-394
2021-12-23 15:14:27.298707,-26
2021-12-23 15:14:27.298714,16
2021-12-23 15:14:27.298720,-110
2021-12-23 15:14:27.298726,-21
2021-12-23 15:14:27.298733,55
2021-12-23 15:14:27.298739,33
2021-12-23 15:14:27.298745,69
2021-12-23 15:14:27.298751,40
2021-12-23 15:14:27.298758,0
2021-12-23 15:14:27.298764,60
2021-12-23 15:14:27.298770,33
2021-12-23 15:14:27.298777,-50
2021-12-23 15:14:27.298783,28
2021-12-23 15:14:27.298789,165
2021-12-23 15:14:27.298796,151
2021-12-23 15:14:27.568675,98
2021-12-23 15:14:27.568706,122
2021-12-23 15:14:27.568717,163
2021-12-23 15:14:27.568727,226
2021-12-23 15:14:27.568737,211
2021-12-23 15:14:27.568746,125
2021-12-23 15:14:27.568756,175
2021-12-23 15:14:27.568765,295
2021-12-23 15:14:27.568775,353
2021-12-23 15:14:27.568785,375
2021-12-23 15:14:27.568794,346
2021-12-23 15:14:27.568804,327
2021-12-23 15:14:27.568814,372
2021-12-23 15:14:27.568823,387
2021-12-23 15:14:27.568833,298
2021-12-23 15:14:27.568842,163
2021-12-23 15:14:27.568852,81
2021-12-23 15:14:27.568861,69
2021-12-23 15:14:27.568871,55
2021-12-23 15:14:27.568880,-31
2021-12-23 15:14:27.568890,-170
2021-12-23 15:14:27.568900,-197
2021-12-23 15:14:27.568909,-105
2021-12-23 15:14:27.568919,-76
2021-12-23 15:14:27.568929,-115
2021-12-23 15:14:27.568938,-129
2021-12-23 15:14:27.568948,-108
2021-12-23 15:14:27.568957,-81
2021-12-23 15:14:27.568967,-76
2021-12-23 15:14:27.568976,-64
2021-12-23 15:14:27.792654,-31
2021-12-23 15:14:27.792674,-69
2021-12-23 15:14:27.792682,-137
2021-12-23 15:14:27.792689,-57
2021-12-23 15:14:27.792695,55
2021-12-23 15:14:27.792701,19
2021-12-23 15:14:27.792708,-62
2021-12-23 15:14:27.792714,-62
2021-12-23 15:14:27.792720,14
2021-12-23 15:14:27.792727,21
2021-12-23 15:14:27.792733,-40
2021-12-23 15:14:27.792739,-40
2021-12-23 15:14:27.792745,-14
2021-12-23 15:14:27.792752,-21
2021-12-23 15:14:27.792758,-19
2021-12-23 15:14:27.792765,-31
2021-12-23 15:14:27.792771,-64
2021-12-23 15:14:27.792778,-16
2021-12-23 15:14:27.792784,81
2021-12-23 15:14:27.792790,79
2021-12-23 15:14:27.792797,4
2021-12-23 15:14:27.792803,-40
2021-12-23 15:14:27.792809,-45
2021-12-23 15:14:27.792816,-9
2021-12-23 15:14:27.792822,45
2021-12-23 15:14:27.792828,14
2021-12-23 15:14:27.792835,-79
2021-12-23 15:14:27.792841,-31
2021-12-23 15:14:27.792847,101
2021-12-23 15:14:27.792853,55
2021-12-23 15:14:28.018686,-50
2021-12-23 15:14:28.018717,50
2021-12-23 15:14:28.018730,134
2021-12-23 15:14:28.018740,62
2021-12-23 15:14:28.018749,252
2021-12-23 15:14:28.018759,735
2021-12-23 15:14:28.018769,916
2021-12-23 15:14:28.018779,363
2021-12-23 15:14:28.018788,-360
2021-12-23 15:14:28.018798,-293
2021-12-23 15:14:28.018808,72
2021-12-23 15:14:28.018817,14
2021-12-23 15:14:28.018827,-26
2021-12-23 15:14:28.018837,-31
2021-12-23 15:14:28.018846,-177
2021-12-23 15:14:28.018856,-120
2021-12-23 15:14:28.018866,50
2021-12-23 15:14:28.018876,9
2021-12-23 15:14:28.018885,-14
2021-12-23 15:14:28.018895,137
2021-12-23 15:14:28.018904,177
2021-12-23 15:14:28.018914,108
2021-12-23 15:14:28.018924,55
2021-12-23 15:14:28.018934,-62
2021-12-23 15:14:28.018944,-117
2021-12-23 15:14:28.018954,-2
2021-12-23 15:14:28.018963,72
2021-12-23 15:14:28.018973,103
2021-12-23 15:14:28.018983,252
2021-12-23 15:14:28.018992,420
2021-12-23 15:14:28.242906,367
2021-12-23 15:14:28.242928,173
2021-12-23 15:14:28.242936,161
2021-12-23 15:14:28.242942,242
2021-12-23 15:14:28.242948,197
2021-12-23 15:14:28.242954,204
2021-12-23 15:14:28.242960,353
2021-12-23 15:14:28.242967,437
2021-12-23 15:14:28.242973,387
2021-12-23 15:14:28.242979,353
2021-12-23 15:14:28.242985,334
2021-12-23 15:14:28.242992,146
2021-12-23 15:14:28.242998,-91
2021-12-23 15:14:28.243004,-132
2021-12-23 15:14:28.243010,-69
2021-12-23 15:14:28.243017,-129
2021-12-23 15:14:28.243023,-221
2021-12-23 15:14:28.243029,-158
2021-12-23 15:14:28.243035,-2
2021-12-23 15:14:28.243041,84
2021-12-23 15:14:28.243048,28
2021-12-23 15:14:28.243054,-93
2021-12-23 15:14:28.243060,-108
2021-12-23 15:14:28.243077,-72
2021-12-23 15:14:28.243084,-76
2021-12-23 15:14:28.243090,-16
2021-12-23 15:14:28.243096,14
2021-12-23 15:14:28.243102,-113
2021-12-23 15:14:28.243108,-199
2021-12-23 15:14:28.243115,-38
2021-12-23 15:14:28.467950,120
2021-12-23 15:14:28.467973,55
2021-12-23 15:14:28.467980,14
2021-12-23 15:14:28.467986,84
2021-12-23 15:14:28.467993,76
2021-12-23 15:14:28.467999,-40
2021-12-23 15:14:28.468006,-105
2021-12-23 15:14:28.468012,2
2021-12-23 15:14:28.468019,84
2021-12-23 15:14:28.468025,43
2021-12-23 15:14:28.468031,28
2021-12-23 15:14:28.468038,-19
2021-12-23 15:14:28.468044,-84
2021-12-23 15:14:28.468051,-19
2021-12-23 15:14:28.468057,28
2021-12-23 15:14:28.468064,14
2021-12-23 15:14:28.468070,81
2021-12-23 15:14:28.468077,103
2021-12-23 15:14:28.468083,-12
2021-12-23 15:14:28.468089,-33
2021-12-23 15:14:28.468096,62
2021-12-23 15:14:28.468102,40
2021-12-23 15:14:28.468108,-14
2021-12-23 15:14:28.468115,9
2021-12-23 15:14:28.468121,12
2021-12-23 15:14:28.468127,60
2021-12-23 15:14:28.468134,151
2021-12-23 15:14:28.468140,26
2021-12-23 15:14:28.468147,-151
2021-12-23 15:14:28.468153,-19
2021-12-23 15:14:28.782902,218
2021-12-23 15:14:28.782919,389
2021-12-23 15:14:28.782925,731
2021-12-23 15:14:28.782931,1072
2021-12-23 15:14:28.782936,634
2021-12-23 15:14:28.782941,-334
2021-12-23 15:14:28.782946,-466
2021-12-23 15:14:28.782951,62
2021-12-23 15:14:28.782956,67
2021-12-23 15:14:28.782962,-202
2021-12-23 15:14:28.782967,-108
2021-12-23 15:14:28.782972,105
2021-12-23 15:14:28.782977,81
2021-12-23 15:14:28.782982,-64
2021-12-23 15:14:28.782987,-69
2021-12-23 15:14:28.782992,43
2021-12-23 15:14:28.782997,69
2021-12-23 15:14:28.783002,-19
2021-12-23 15:14:28.783008,-2
2021-12-23 15:14:28.783013,122
2021-12-23 15:14:28.783018,137
2021-12-23 15:14:28.783023,76
2021-12-23 15:14:28.783028,-14
2021-12-23 15:14:28.783033,-74
2021-12-23 15:14:28.783038,55
2021-12-23 15:14:28.783043,199
2021-12-23 15:14:28.783048,177
2021-12-23 15:14:28.783053,170
2021-12-23 15:14:28.783058,276
2021-12-23 15:14:28.783063,331
2021-12-23 15:14:28.963668,278
2021-12-23 15:14:28.963698,238
2021-12-23 15:14:28.963710,288
2021-12-23 15:14:28.963720,322
2021-12-23 15:14:28.963730,307
2021-12-23 15:14:28.963740,319
2021-12-23 15:14:28.963749,303
2021-12-23 15:14:28.963759,230
2021-12-23 15:14:28.963769,115
2021-12-23 15:14:28.963778,-36
2021-12-23 15:14:28.963788,-108
2021-12-23 15:14:28.963798,-45
2021-12-23 15:14:28.963808,12
2021-12-23 15:14:28.963817,-60
2021-12-23 15:14:28.963827,-165
2021-12-23 15:14:28.963836,-146
2021-12-23 15:14:28.963846,-86
2021-12-23 15:14:28.963856,-93
2021-12-23 15:14:28.963866,-129
2021-12-23 15:14:28.963875,-175
2021-12-23 15:14:28.963885,-146
2021-12-23 15:14:28.963894,-55
2021-12-23 15:14:28.963904,-31
2021-12-23 15:14:28.963914,-38
2021-12-23 15:14:28.963923,-40
2021-12-23 15:14:28.963933,-76
2021-12-23 15:14:28.963942,-117
2021-12-23 15:14:28.963952,-141
2021-12-23 15:14:28.963962,-101
2021-12-23 15:14:28.963971,26
2021-12-23 15:14:29.232968,67
2021-12-23 15:14:29.232997,-14
2021-12-23 15:14:29.233009,-33
2021-12-23 15:14:29.233019,2
2021-12-23 15:14:29.233029,-24
2021-12-23 15:14:29.233039,-60
2021-12-23 15:14:29.233048,-98
2021-12-23 15:14:29.233058,-105
2021-12-23 15:14:29.233067,28
2021-12-23 15:14:29.233077,86
2021-12-23 15:14:29.233087,-26
2021-12-23 15:14:29.233097,-55
2021-12-23 15:14:29.233106,-4
2021-12-23 15:14:29.233116,7
2021-12-23 15:14:29.233125,12
2021-12-23 15:14:29.233135,14
2021-12-23 15:14:29.233145,14
2021-12-23 15:14:29.233154,-4
2021-12-23 15:14:29.233164,-12
2021-12-23 15:14:29.233174,24
2021-12-23 15:14:29.233183,28
2021-12-23 15:14:29.233193,19
2021-12-23 15:14:29.233203,31
2021-12-23 15:14:29.233212,2
2021-12-23 15:14:29.233222,24
2021-12-23 15:14:29.233232,91
2021-12-23 15:14:29.233242,31
2021-12-23 15:14:29.233251,-7
2021-12-23 15:14:29.233261,55
2021-12-23 15:14:29.233271,48
2021-12-23 15:14:29.413674,26
2021-12-23 15:14:29.413705,69
2021-12-23 15:14:29.413716,141
2021-12-23 15:14:29.413726,315
2021-12-23 15:14:29.413736,731
2021-12-23 15:14:29.413746,1154
2021-12-23 15:14:29.413756,817
2021-12-23 15:14:29.413765,-149
2021-12-23 15:14:29.413775,-425
2021-12-23 15:14:29.413785,9
2021-12-23 15:14:29.413795,55
2021-12-23 15:14:29.413805,-141
2021-12-23 15:14:29.413814,-40
2021-12-23 15:14:29.413824,69
2021-12-23 15:14:29.413834,-2
2021-12-23 15:14:29.413844,-14
2021-12-23 15:14:29.413853,76
2021-12-23 15:14:29.413863,91
2021-12-23 15:14:29.413873,-7
2021-12-23 15:14:29.413882,-21
2021-12-23 15:14:29.413892,74
2021-12-23 15:14:29.413902,84
2021-12-23 15:14:29.413912,-21
2021-12-23 15:14:29.413921,-38
2021-12-23 15:14:29.413931,96
2021-12-23 15:14:29.413941,180
2021-12-23 15:14:29.413950,120
2021-12-23 15:14:29.413960,60
2021-12-23 15:14:29.413970,108
2021-12-23 15:14:29.413979,194
2021-12-23 15:14:29.638697,209
2021-12-23 15:14:29.638727,206
2021-12-23 15:14:29.638738,264
2021-12-23 15:14:29.638748,300
2021-12-23 15:14:29.638758,310
2021-12-23 15:14:29.638768,351
2021-12-23 15:14:29.638777,348
2021-12-23 15:14:29.638787,329
2021-12-23 15:14:29.638797,317
2021-12-23 15:14:29.638807,204
2021-12-23 15:14:29.638816,57
2021-12-23 15:14:29.638826,-7
2021-12-23 15:14:29.638836,-40
2021-12-23 15:14:29.638846,-57
2021-12-23 15:14:29.638856,-101
2021-12-23 15:14:29.638866,-153
2021-12-23 15:14:29.638875,-122
2021-12-23 15:14:29.638885,-88
2021-12-23 15:14:29.638895,-141
2021-12-23 15:14:29.638904,-165
2021-12-23 15:14:29.638914,-120
2021-12-23 15:14:29.638924,-113
2021-12-23 15:14:29.638933,-108
2021-12-23 15:14:29.638943,-26
2021-12-23 15:14:29.638953,26
2021-12-23 15:14:29.638962,-21
2021-12-23 15:14:29.638972,-79
2021-12-23 15:14:29.638989,-86
2021-12-23 15:14:29.639013,-110
2021-12-23 15:14:29.639020,-127
2021-12-23 15:14:29.908728,-52
2021-12-23 15:14:29.908758,7
2021-12-23 15:14:29.908770,-14
2021-12-23 15:14:29.908780,16
2021-12-23 15:14:29.908789,74
2021-12-23 15:14:29.908799,4
2021-12-23 15:14:29.908809,-60
2021-12-23 15:14:29.908818,7
2021-12-23 15:14:29.908828,16
2021-12-23 15:14:29.908838,-79
2021-12-23 15:14:29.908847,-79
2021-12-23 15:14:29.908857,26
2021-12-23 15:14:29.908866,48
2021-12-23 15:14:29.908876,12
2021-12-23 15:14:29.908886,43
2021-12-23 15:14:29.908895,50
2021-12-23 15:14:29.908905,-7
2021-12-23 15:14:29.908914,9
2021-12-23 15:14:29.908924,38
2021-12-23 15:14:29.908933,12
2021-12-23 15:14:29.908943,36
2021-12-23 15:14:29.908952,86
2021-12-23 15:14:29.908962,91
2021-12-23 15:14:29.908971,40
2021-12-23 15:14:29.908981,0
2021-12-23 15:14:29.908991,2
2021-12-23 15:14:29.909000,-16
2021-12-23 15:14:29.909010,31
2021-12-23 15:14:29.909019,96
2021-12-23 15:14:29.909029,52
2021-12-23 15:14:30.088365,26
2021-12-23 15:14:30.088388,64
2021-12-23 15:14:30.088395,96
2021-12-23 15:14:30.088402,57
2021-12-23 15:14:30.088408,19
2021-12-23 15:14:30.088414,72
2021-12-23 15:14:30.088420,98
2021-12-23 15:14:30.088427,-7
2021-12-23 15:14:30.088433,-52
2021-12-23 15:14:30.088439,40
2021-12-23 15:14:30.088445,55
2021-12-23 15:14:30.088451,40
2021-12-23 15:14:30.088457,115
2021-12-23 15:14:30.088463,96
2021-12-23 15:14:30.088470,48
2021-12-23 15:14:30.088476,269
2021-12-23 15:14:30.088482,673
2021-12-23 15:14:30.088488,1017
2021-12-23 15:14:30.088494,892
2021-12-23 15:14:30.088500,81
2021-12-23 15:14:30.088507,-447
2021-12-23 15:14:30.088513,-137
2021-12-23 15:14:30.088519,88
2021-12-23 15:14:30.088525,-50
2021-12-23 15:14:30.088531,-40
2021-12-23 15:14:30.088537,38
2021-12-23 15:14:30.088544,4
2021-12-23 15:14:30.088550,-21
2021-12-23 15:14:30.088556,-2
2021-12-23 15:14:30.088562,21
2021-12-23 15:14:30.313209,-2
2021-12-23 15:14:30.313240,-21
2021-12-23 15:14:30.313251,74
2021-12-23 15:14:30.313262,105
2021-12-23 15:14:30.313271,7
2021-12-23 15:14:30.313281,45
2021-12-23 15:14:30.313291,137
2021-12-23 15:14:30.313300,96
2021-12-23 15:14:30.313310,88
2021-12-23 15:14:30.313319,132
2021-12-23 15:14:30.313329,129
2021-12-23 15:14:30.313339,161
2021-12-23 15:14:30.313348,199
2021-12-23 15:14:30.313358,216
2021-12-23 15:14:30.313367,257
2021-12-23 15:14:30.313377,278
2021-12-23 15:14:30.313387,298
2021-12-23 15:14:30.313413,363
2021-12-23 15:14:30.313423,391
2021-12-23 15:14:30.313433,348
2021-12-23 15:14:30.313443,305
2021-12-23 15:14:30.313452,264
2021-12-23 15:14:30.313462,175
2021-12-23 15:14:30.313472,81
2021-12-23 15:14:30.313482,-28
2021-12-23 15:14:30.313491,-103
2021-12-23 15:14:30.313501,-84
2021-12-23 15:14:30.313510,-96
2021-12-23 15:14:30.313520,-129
2021-12-23 15:14:30.313530,-72
2021-12-23 15:14:30.628270,-28
2021-12-23 15:14:30.628300,-110
2021-12-23 15:14:30.628312,-158
2021-12-23 15:14:30.628322,-113
2021-12-23 15:14:30.628331,-91
2021-12-23 15:14:30.628341,-86
2021-12-23 15:14:30.628351,-50
2021-12-23 15:14:30.628360,-9
2021-12-23 15:14:30.628370,-9
2021-12-23 15:14:30.628380,-91
2021-12-23 15:14:30.628389,-93
2021-12-23 15:14:30.628399,-26
2021-12-23 15:14:30.628409,-96
2021-12-23 15:14:30.628418,-144
2021-12-23 15:14:30.628428,-72
2021-12-23 15:14:30.628438,-28
2021-12-23 15:14:30.628447,-28
2021-12-23 15:14:30.628457,-28
2021-12-23 15:14:30.628466,-24
2021-12-23 15:14:30.628476,-9
2021-12-23 15:14:30.628486,4
2021-12-23 15:14:30.628496,16
2021-12-23 15:14:30.628505,-7
2021-12-23 15:14:30.628515,-43
2021-12-23 15:14:30.628525,-12
2021-12-23 15:14:30.628534,-2
2021-12-23 15:14:30.628544,-21
2021-12-23 15:14:30.628554,16
2021-12-23 15:14:30.628563,40
2021-12-23 15:14:30.628573,40
2021-12-23 15:14:30.808577,31
2021-12-23 15:14:30.808601,-16
2021-12-23 15:14:30.808609,16
2021-12-23 15:14:30.808616,50
2021-12-23 15:14:30.808622,-26
2021-12-23 15:14:30.808629,-16
2021-12-23 15:14:30.808635,86
2021-12-23 15:14:30.808641,67
2021-12-23 15:14:30.808648,16
2021-12-23 15:14:30.808654,48
2021-12-23 15:14:30.808661,33
2021-12-23 15:14:30.808667,-7
2021-12-23 15:14:30.808673,36
2021-12-23 15:14:30.808680,72
2021-12-23 15:14:30.808686,31
2021-12-23 15:14:30.808692,-12
2021-12-23 15:14:30.808699,14
2021-12-23 15:14:30.808705,60
2021-12-23 15:14:30.808711,55
2021-12-23 15:14:30.808718,50
2021-12-23 15:14:30.808724,64
2021-12-23 15:14:30.808730,76
2021-12-23 15:14:30.808737,86
2021-12-23 15:14:30.808743,50
2021-12-23 15:14:30.808749,-12
2021-12-23 15:14:30.808756,-14
2021-12-23 15:14:30.808762,76
2021-12-23 15:14:30.808768,105
2021-12-23 15:14:30.808775,2
2021-12-23 15:14:30.808781,-2
2021-12-23 15:14:31.033311,103
2021-12-23 15:14:31.033342,79
2021-12-23 15:14:31.033354,7
2021-12-23 15:14:31.033364,40
2021-12-23 15:14:31.033374,64
2021-12-23 15:14:31.033383,158
2021-12-23 15:14:31.033393,502
2021-12-23 15:14:31.033403,985
2021-12-23 15:14:31.033413,1127
2021-12-23 15:14:31.033423,384
2021-12-23 15:14:31.033433,-447
2021-12-23 15:14:31.033442,-290
2021-12-23 15:14:31.033452,64
2021-12-23 15:14:31.033462,-48
2021-12-23 15:14:31.033472,-86
2021-12-23 15:14:31.033482,9
2021-12-23 15:14:31.033492,-36
2021-12-23 15:14:31.033502,-67
2021-12-23 15:14:31.033511,4
2021-12-23 15:14:31.033521,19
2021-12-23 15:14:31.033531,-33
2021-12-23 15:14:31.033541,-45
2021-12-23 15:14:31.033551,2
2021-12-23 15:14:31.033560,64
2021-12-23 15:14:31.033570,76
2021-12-23 15:14:31.033580,28
2021-12-23 15:14:31.033590,57
2021-12-23 15:14:31.033599,146
2021-12-23 15:14:31.033609,129
2021-12-23 15:14:31.033619,74
2021-12-23 15:14:31.347535,86
2021-12-23 15:14:31.347566,134
2021-12-23 15:14:31.347578,173
2021-12-23 15:14:31.347587,170
2021-12-23 15:14:31.347597,226
2021-12-23 15:14:31.347607,327
2021-12-23 15:14:31.347616,336
2021-12-23 15:14:31.347626,317
2021-12-23 15:14:31.347635,346
2021-12-23 15:14:31.347645,360
2021-12-23 15:14:31.347655,360
2021-12-23 15:14:31.347664,365
2021-12-23 15:14:31.347674,276
2021-12-23 15:14:31.347683,132
2021-12-23 15:14:31.347693,84
2021-12-23 15:14:31.347702,14
2021-12-23 15:14:31.347711,-132
2021-12-23 15:14:31.347721,-173
2021-12-23 15:14:31.347731,-134
2021-12-23 15:14:31.347740,-120
2021-12-23 15:14:31.347749,-69
2021-12-23 15:14:31.347759,-45
2021-12-23 15:14:31.347768,-122
2021-12-23 15:14:31.347778,-120
2021-12-23 15:14:31.347787,-57
2021-12-23 15:14:31.347797,-79
2021-12-23 15:14:31.347806,-96
2021-12-23 15:14:31.347816,-103
2021-12-23 15:14:31.347825,-93
2021-12-23 15:14:31.347834,-57
2021-12-23 15:14:31.483719,-60
2021-12-23 15:14:31.483749,-48
2021-12-23 15:14:31.483760,19
2021-12-23 15:14:31.483770,-24
2021-12-23 15:14:31.483780,-108
2021-12-23 15:14:31.483790,-43
2021-12-23 15:14:31.483799,16
2021-12-23 15:14:31.483809,7
2021-12-23 15:14:31.483819,60
2021-12-23 15:14:31.483829,40
2021-12-23 15:14:31.483838,-74
2021-12-23 15:14:31.483848,-81
2021-12-23 15:14:31.483858,-21
2021-12-23 15:14:31.483868,-9
2021-12-23 15:14:31.483877,-28
2021-12-23 15:14:31.483887,-33
2021-12-23 15:14:31.483897,45
2021-12-23 15:14:31.483907,129
2021-12-23 15:14:31.483916,38
2021-12-23 15:14:31.483926,-84
2021-12-23 15:14:31.483936,-33
2021-12-23 15:14:31.483946,40
2021-12-23 15:14:31.483956,16
2021-12-23 15:14:31.483966,-28
2021-12-23 15:14:31.483976,-19
2021-12-23 15:14:31.483986,16
2021-12-23 15:14:31.483996,-7
2021-12-23 15:14:31.484006,-24
2021-12-23 15:14:31.484016,50
2021-12-23 15:14:31.484025,96
2021-12-23 15:14:31.843262,21
2021-12-23 15:14:31.843292,-52
2021-12-23 15:14:31.843304,9
2021-12-23 15:14:31.843314,69
2021-12-23 15:14:31.843324,24
2021-12-23 15:14:31.843334,-21
2021-12-23 15:14:31.843343,-19
2021-12-23 15:14:31.843353,-21
2021-12-23 15:14:31.843363,4
2021-12-23 15:14:31.843372,64
2021-12-23 15:14:31.843382,81
2021-12-23 15:14:31.843392,14
2021-12-23 15:14:31.843401,-31
2021-12-23 15:14:31.843411,12
2021-12-23 15:14:31.843421,40
2021-12-23 15:14:31.843430,33
2021-12-23 15:14:31.843440,16
2021-12-23 15:14:31.843450,-14
2021-12-23 15:14:31.843460,24
2021-12-23 15:14:31.843469,67
2021-12-23 15:14:31.843479,4
2021-12-23 15:14:31.843488,-19
2021-12-23 15:14:31.843498,28
2021-12-23 15:14:31.843508,26
2021-12-23 15:14:31.843517,-9
2021-12-23 15:14:31.843527,7
2021-12-23 15:14:31.843536,72
2021-12-23 15:14:31.843546,88
2021-12-23 15:14:31.843556,161
2021-12-23 15:14:31.843565,476
2021-12-23 15:14:31.933642,959
2021-12-23 15:14:31.933673,1046
2021-12-23 15:14:31.933684,245
2021-12-23 15:14:31.933694,-478
2021-12-23 15:14:31.933705,-206
2021-12-23 15:14:31.933714,127
2021-12-23 15:14:31.933724,-55
2021-12-23 15:14:31.933734,-122
2021-12-23 15:14:31.933744,28
2021-12-23 15:14:31.933753,38
2021-12-23 15:14:31.933763,-40
2021-12-23 15:14:31.933773,-31
2021-12-23 15:14:31.933783,26
2021-12-23 15:14:31.933793,62
2021-12-23 15:14:31.933803,60
2021-12-23 15:14:31.933812,40
2021-12-23 15:14:31.933822,62
2021-12-23 15:14:31.933832,62
2021-12-23 15:14:31.933841,33
2021-12-23 15:14:31.933851,93
2021-12-23 15:14:31.933861,103
2021-12-23 15:14:31.933870,19
2021-12-23 15:14:31.933880,69
2021-12-23 15:14:31.933890,206
2021-12-23 15:14:31.933899,235
2021-12-23 15:14:31.933909,245
2021-12-23 15:14:31.933919,312
2021-12-23 15:14:31.933928,312
2021-12-23 15:14:31.933938,266
2021-12-23 15:14:31.933948,317
2021-12-23 15:14:32.203337,341
2021-12-23 15:14:32.203359,290
2021-12-23 15:14:32.203367,358
2021-12-23 15:14:32.203373,437
2021-12-23 15:14:32.203380,389
2021-12-23 15:14:32.203386,351
2021-12-23 15:14:32.203392,259
2021-12-23 15:14:32.203399,4
2021-12-23 15:14:32.203405,-117
2021-12-23 15:14:32.203411,-33
2021-12-23 15:14:32.203418,-52
2021-12-23 15:14:32.203424,-170
2021-12-23 15:14:32.203430,-146
2021-12-23 15:14:32.203437,-14
2021-12-23 15:14:32.203443,-26
2021-12-23 15:14:32.203450,-134
2021-12-23 15:14:32.203456,-120
2021-12-23 15:14:32.203462,-84
2021-12-23 15:14:32.203469,-101
2021-12-23 15:14:32.203475,-93
2021-12-23 15:14:32.203481,-86
2021-12-23 15:14:32.203488,-103
2021-12-23 15:14:32.203494,-84
2021-12-23 15:14:32.203500,-2
2021-12-23 15:14:32.203507,24
2021-12-23 15:14:32.203513,-52
2021-12-23 15:14:32.203519,-86
2021-12-23 15:14:32.203526,-24
2021-12-23 15:14:32.203532,-7
2021-12-23 15:14:32.203538,-43
2021-12-23 15:14:32.383709,-64
2021-12-23 15:14:32.383739,-74
2021-12-23 15:14:32.383751,-19
2021-12-23 15:14:32.383761,50
2021-12-23 15:14:32.383771,36
2021-12-23 15:14:32.383781,-26
2021-12-23 15:14:32.383791,-67
2021-12-23 15:14:32.383801,-33
2021-12-23 15:14:32.383810,7
2021-12-23 15:14:32.383820,-9
2021-12-23 15:14:32.383830,-50
2021-12-23 15:14:32.383839,-74
2021-12-23 15:14:32.383849,-38
2021-12-23 15:14:32.383859,14
2021-12-23 15:14:32.383868,4
2021-12-23 15:14:32.383878,-19
2021-12-23 15:14:32.383888,-28
2021-12-23 15:14:32.383898,-55
2021-12-23 15:14:32.383907,-50
2021-12-23 15:14:32.383917,-2
2021-12-23 15:14:32.383927,33
2021-12-23 15:14:32.383936,50
2021-12-23 15:14:32.383946,57
2021-12-23 15:14:32.383956,50
2021-12-23 15:14:32.383966,33
2021-12-23 15:14:32.383975,14
2021-12-23 15:14:32.383985,-9
2021-12-23 15:14:32.383994,-24
2021-12-23 15:14:32.384004,-43
2021-12-23 15:14:32.384014,-45
2021-12-23 15:14:32.607910,-2
2021-12-23 15:14:32.607928,60
2021-12-23 15:14:32.607935,64
2021-12-23 15:14:32.607942,28
2021-12-23 15:14:32.607948,24
2021-12-23 15:14:32.607955,-4
2021-12-23 15:14:32.607961,-40
2021-12-23 15:14:32.607967,-7
2021-12-23 15:14:32.607974,64
2021-12-23 15:14:32.607980,103
2021-12-23 15:14:32.607986,69
2021-12-23 15:14:32.607993,28
2021-12-23 15:14:32.607999,12
2021-12-23 15:14:32.608005,-12
2021-12-23 15:14:32.608015,-28
2021-12-23 15:14:32.608021,-2
2021-12-23 15:14:32.608028,96
2021-12-23 15:14:32.608034,156
2021-12-23 15:14:32.608040,76
2021-12-23 15:14:32.608046,127
2021-12-23 15:14:32.608053,512
2021-12-23 15:14:32.608059,1010
2021-12-23 15:14:32.608065,1055
2021-12-23 15:14:32.608073,247
2021-12-23 15:14:32.608080,-444
2021-12-23 15:14:32.608087,-156
2021-12-23 15:14:32.608093,153
2021-12-23 15:14:32.608099,-24
2021-12-23 15:14:32.608105,-93
2021-12-23 15:14:32.608112,-31
2021-12-23 15:14:32.878224,12
2021-12-23 15:14:32.878254,74
2021-12-23 15:14:32.878265,31
2021-12-23 15:14:32.878275,-28
2021-12-23 15:14:32.878285,36
2021-12-23 15:14:32.878294,67
2021-12-23 15:14:32.878304,60
2021-12-23 15:14:32.878314,96
2021-12-23 15:14:32.878323,81
2021-12-23 15:14:32.878333,79
2021-12-23 15:14:32.878342,165
2021-12-23 15:14:32.878352,168
2021-12-23 15:14:32.878361,76
2021-12-23 15:14:32.878371,69
2021-12-23 15:14:32.878381,101
2021-12-23 15:14:32.878391,158
2021-12-23 15:14:32.878400,303
2021-12-23 15:14:32.878410,290
2021-12-23 15:14:32.878420,161
2021-12-23 15:14:32.878429,262
2021-12-23 15:14:32.878439,404
2021-12-23 15:14:32.878448,363
2021-12-23 15:14:32.878458,355
2021-12-23 15:14:32.878467,420
2021-12-23 15:14:32.878477,399
2021-12-23 15:14:32.878487,278
2021-12-23 15:14:32.878496,199
2021-12-23 15:14:32.878506,170
2021-12-23 15:14:32.878515,96
2021-12-23 15:14:32.878525,64
2021-12-23 15:14:33.148164,43
2021-12-23 15:14:33.148229,-137
2021-12-23 15:14:33.148241,-230
2021-12-23 15:14:33.148251,-120
2021-12-23 15:14:33.148261,-117
2021-12-23 15:14:33.148270,-156
2021-12-23 15:14:33.148280,-103
2021-12-23 15:14:33.148290,-79
2021-12-23 15:14:33.148300,-33
2021-12-23 15:14:33.148309,7
2021-12-23 15:14:33.148319,-98
2021-12-23 15:14:33.148329,-204
2021-12-23 15:14:33.148339,-122
2021-12-23 15:14:33.148348,-38
2021-12-23 15:14:33.148358,-72
2021-12-23 15:14:33.148368,-62
2021-12-23 15:14:33.148378,16
2021-12-23 15:14:33.148387,9
2021-12-23 15:14:33.148397,-36
2021-12-23 15:14:33.148407,0
2021-12-23 15:14:33.148416,7
2021-12-23 15:14:33.148426,-52
2021-12-23 15:14:33.148436,-62
2021-12-23 15:14:33.148445,-2
2021-12-23 15:14:33.148455,31
2021-12-23 15:14:33.148465,-16
2021-12-23 15:14:33.148474,-31
2021-12-23 15:14:33.148484,12
2021-12-23 15:14:33.148494,21
2021-12-23 15:14:33.148503,36
2021-12-23 15:14:33.372608,14
2021-12-23 15:14:33.372630,-33
2021-12-23 15:14:33.372638,31
2021-12-23 15:14:33.372644,60
2021-12-23 15:14:33.372650,-36
2021-12-23 15:14:33.372657,-43
2021-12-23 15:14:33.372663,21
2021-12-23 15:14:33.372669,28
2021-12-23 15:14:33.372675,26
2021-12-23 15:14:33.372682,72
2021-12-23 15:14:33.372688,79
2021-12-23 15:14:33.372695,9
2021-12-23 15:14:33.372701,-7
2021-12-23 15:14:33.372707,14
2021-12-23 15:14:33.372714,-19
2021-12-23 15:14:33.372720,-45
2021-12-23 15:14:33.372726,-14
2021-12-23 15:14:33.372732,62
2021-12-23 15:14:33.372738,141
2021-12-23 15:14:33.372745,115
2021-12-23 15:14:33.372751,31
2021-12-23 15:14:33.372757,60
2021-12-23 15:14:33.372763,98
2021-12-23 15:14:33.372770,55
2021-12-23 15:14:33.372776,38
2021-12-23 15:14:33.372782,28
2021-12-23 15:14:33.372788,9
2021-12-23 15:14:33.372795,55
2021-12-23 15:14:33.372801,79
2021-12-23 15:14:33.372807,24
2021-12-23 15:14:33.643240,0
2021-12-23 15:14:33.643270,67
2021-12-23 15:14:33.643282,115
2021-12-23 15:14:33.643292,170
2021-12-23 15:14:33.643302,399
2021-12-23 15:14:33.643311,762
2021-12-23 15:14:33.643321,945
2021-12-23 15:14:33.643330,423
2021-12-23 15:14:33.643340,-363
2021-12-23 15:14:33.643350,-305
2021-12-23 15:14:33.643360,144
2021-12-23 15:14:33.643370,50
2021-12-23 15:14:33.643379,-117
2021-12-23 15:14:33.643389,-26
2021-12-23 15:14:33.643399,-14
2021-12-23 15:14:33.643408,-9
2021-12-23 15:14:33.643418,79
2021-12-23 15:14:33.643427,79
2021-12-23 15:14:33.643437,48
2021-12-23 15:14:33.643446,31
2021-12-23 15:14:33.643456,-19
2021-12-23 15:14:33.643466,-21
2021-12-23 15:14:33.643475,69
2021-12-23 15:14:33.643485,141
2021-12-23 15:14:33.643495,103
2021-12-23 15:14:33.643504,64
2021-12-23 15:14:33.643514,122
2021-12-23 15:14:33.643524,187
2021-12-23 15:14:33.643533,199
2021-12-23 15:14:33.643543,146
2021-12-23 15:14:33.778655,149
2021-12-23 15:14:33.778685,245
2021-12-23 15:14:33.778696,259
2021-12-23 15:14:33.778707,233
2021-12-23 15:14:33.778717,307
2021-12-23 15:14:33.778726,375
2021-12-23 15:14:33.778736,404
2021-12-23 15:14:33.778745,447
2021-12-23 15:14:33.778755,377
2021-12-23 15:14:33.778765,254
2021-12-23 15:14:33.778774,276
2021-12-23 15:14:33.778784,245
2021-12-23 15:14:33.778793,43
2021-12-23 15:14:33.778803,-76
2021-12-23 15:14:33.778813,-62
2021-12-23 15:14:33.778823,-86
2021-12-23 15:14:33.778832,-125
2021-12-23 15:14:33.778842,-40
2021-12-23 15:14:33.778851,33
2021-12-23 15:14:33.778861,-96
2021-12-23 15:14:33.778870,-199
2021-12-23 15:14:33.778880,-129
2021-12-23 15:14:33.778889,-96
2021-12-23 15:14:33.778899,-113
2021-12-23 15:14:33.778909,-84
2021-12-23 15:14:33.778918,-57
2021-12-23 15:14:33.778928,-26
2021-12-23 15:14:33.778937,12
2021-12-23 15:14:33.778947,7
2021-12-23 15:14:33.778956,-21
2021-12-23 15:14:34.048783,-67
2021-12-23 15:14:34.048814,-88
2021-12-23 15:14:34.048825,-76
2021-12-23 15:14:34.048835,-55
2021-12-23 15:14:34.048845,-7
2021-12-23 15:14:34.048855,33
2021-12-23 15:14:34.048865,72
2021-12-23 15:14:34.048874,69
2021-12-23 15:14:34.048884,7
2021-12-23 15:14:34.048894,-14
2021-12-23 15:14:34.048904,-19
2021-12-23 15:14:34.048913,-38
2021-12-23 15:14:34.048923,-38
2021-12-23 15:14:34.048933,-28
2021-12-23 15:14:34.048942,4
2021-12-23 15:14:34.048952,36
2021-12-23 15:14:34.048962,28
2021-12-23 15:14:34.048971,-9
2021-12-23 15:14:34.048981,-36
2021-12-23 15:14:34.048991,12
2021-12-23 15:14:34.049000,43
2021-12-23 15:14:34.049010,-4
2021-12-23 15:14:34.049019,7
2021-12-23 15:14:34.049029,36
2021-12-23 15:14:34.049039,-21
2021-12-23 15:14:34.049048,-28
2021-12-23 15:14:34.049058,36
2021-12-23 15:14:34.049067,62
2021-12-23 15:14:34.049077,62
2021-12-23 15:14:34.049087,62
2021-12-23 15:14:34.228245,4
2021-12-23 15:14:34.228275,-21
2021-12-23 15:14:34.228287,40
2021-12-23 15:14:34.228297,38
2021-12-23 15:14:34.228306,-2
2021-12-23 15:14:34.228316,38
2021-12-23 15:14:34.228326,84
2021-12-23 15:14:34.228336,91
2021-12-23 15:14:34.228346,74
2021-12-23 15:14:34.228355,57
2021-12-23 15:14:34.228365,55
2021-12-23 15:14:34.228375,52
2021-12-23 15:14:34.228384,67
2021-12-23 15:14:34.228394,74
2021-12-23 15:14:34.228404,0
2021-12-23 15:14:34.228414,-19
2021-12-23 15:14:34.228423,108
2021-12-23 15:14:34.228433,115
2021-12-23 15:14:34.228443,19
2021-12-23 15:14:34.228453,57
2021-12-23 15:14:34.228462,125
2021-12-23 15:14:34.228472,101
2021-12-23 15:14:34.228481,108
2021-12-23 15:14:34.228491,290
2021-12-23 15:14:34.228501,680
2021-12-23 15:14:34.228510,1038
2021-12-23 15:14:34.228520,680
2021-12-23 15:14:34.228530,-223
2021-12-23 15:14:34.228539,-348
2021-12-23 15:14:34.228549,144
2021-12-23 15:14:34.453686,96
2021-12-23 15:14:34.453716,-149
2021-12-23 15:14:34.453728,-16
2021-12-23 15:14:34.453739,103
2021-12-23 15:14:34.453749,21
2021-12-23 15:14:34.453759,7
2021-12-23 15:14:34.453768,55
2021-12-23 15:14:34.453778,28
2021-12-23 15:14:34.453788,26
2021-12-23 15:14:34.453797,64
2021-12-23 15:14:34.453807,55
2021-12-23 15:14:34.453817,43
2021-12-23 15:14:34.453827,74
2021-12-23 15:14:34.453837,110
2021-12-23 15:14:34.453846,134
2021-12-23 15:14:34.453856,149
2021-12-23 15:14:34.453866,132
2021-12-23 15:14:34.453875,93
2021-12-23 15:14:34.453885,98
2021-12-23 15:14:34.453894,151
2021-12-23 15:14:34.453904,194
2021-12-23 15:14:34.453914,209
2021-12-23 15:14:34.453924,262
2021-12-23 15:14:34.453933,348
2021-12-23 15:14:34.453943,401
2021-12-23 15:14:34.453953,389
2021-12-23 15:14:34.453962,327
2021-12-23 15:14:34.453972,312
2021-12-23 15:14:34.453982,315
2021-12-23 15:14:34.453991,259
2021-12-23 15:14:34.678682,189
2021-12-23 15:14:34.678712,105
2021-12-23 15:14:34.678723,24
2021-12-23 15:14:34.678733,16
2021-12-23 15:14:34.678743,16
2021-12-23 15:14:34.678753,-69
2021-12-23 15:14:34.678763,-168
2021-12-23 15:14:34.678773,-149
2021-12-23 15:14:34.678782,-122
2021-12-23 15:14:34.678792,-149
2021-12-23 15:14:34.678802,-122
2021-12-23 15:14:34.678812,-81
2021-12-23 15:14:34.678822,-62
2021-12-23 15:14:34.678831,-60
2021-12-23 15:14:34.678841,-72
2021-12-23 15:14:34.678851,-50
2021-12-23 15:14:34.678860,-48
2021-12-23 15:14:34.678870,-108
2021-12-23 15:14:34.678880,-117
2021-12-23 15:14:34.678889,-76
2021-12-23 15:14:34.678899,-40
2021-12-23 15:14:34.678909,-4
2021-12-23 15:14:34.678919,0
2021-12-23 15:14:34.678928,-9
2021-12-23 15:14:34.678938,7
2021-12-23 15:14:34.678948,-12
2021-12-23 15:14:34.678958,-57
2021-12-23 15:14:34.678968,-50
2021-12-23 15:14:34.678977,-40
2021-12-23 15:14:34.678987,-33
2021-12-23 15:14:35.083131,16
2021-12-23 15:14:35.083154,45
2021-12-23 15:14:35.083161,36
2021-12-23 15:14:35.083168,26
2021-12-23 15:14:35.083174,9
2021-12-23 15:14:35.083181,-28
2021-12-23 15:14:35.083187,-38
2021-12-23 15:14:35.083193,2
2021-12-23 15:14:35.083200,14
2021-12-23 15:14:35.083206,-4
2021-12-23 15:14:35.083212,7
2021-12-23 15:14:35.083218,36
2021-12-23 15:14:35.083225,93
2021-12-23 15:14:35.083231,88
2021-12-23 15:14:35.083237,-43
2021-12-23 15:14:35.083243,-48
2021-12-23 15:14:35.083250,60
2021-12-23 15:14:35.083256,14
2021-12-23 15:14:35.083262,-45
2021-12-23 15:14:35.083269,19
2021-12-23 15:14:35.083275,64
2021-12-23 15:14:35.083281,38
2021-12-23 15:14:35.083288,24
2021-12-23 15:14:35.083294,60
2021-12-23 15:14:35.083300,84
2021-12-23 15:14:35.083306,43
2021-12-23 15:14:35.083313,-9
2021-12-23 15:14:35.083319,-12
2021-12-23 15:14:35.083325,7
2021-12-23 15:14:35.083331,24
2021-12-23 15:14:35.263000,26
2021-12-23 15:14:35.263021,26
2021-12-23 15:14:35.263029,72
2021-12-23 15:14:35.263035,127
2021-12-23 15:14:35.263041,110
2021-12-23 15:14:35.263048,24
2021-12-23 15:14:35.263054,-2
2021-12-23 15:14:35.263060,64
2021-12-23 15:14:35.263067,57
2021-12-23 15:14:35.263073,-28
2021-12-23 15:14:35.263079,2
2021-12-23 15:14:35.263086,84
2021-12-23 15:14:35.263092,72
2021-12-23 15:14:35.263098,67
2021-12-23 15:14:35.263104,96
2021-12-23 15:14:35.263111,84
2021-12-23 15:14:35.263117,153
2021-12-23 15:14:35.263123,336
2021-12-23 15:14:35.263130,596
2021-12-23 15:14:35.263139,981
2021-12-23 15:14:35.263146,803
2021-12-23 15:14:35.263152,-137
2021-12-23 15:14:35.263158,-399
2021-12-23 15:14:35.263165,115
2021-12-23 15:14:35.263171,141
2021-12-23 15:14:35.263177,-88
2021-12-23 15:14:35.263183,-26
2021-12-23 15:14:35.263190,-9
2021-12-23 15:14:35.263196,-45
2021-12-23 15:14:35.263202,36
2021-12-23 15:14:35.442228,76
2021-12-23 15:14:35.442251,24
2021-12-23 15:14:35.442259,-14
2021-12-23 15:14:35.442265,26
2021-12-23 15:14:35.442272,88
2021-12-23 15:14:35.442278,96
2021-12-23 15:14:35.442284,55
2021-12-23 15:14:35.442290,40
2021-12-23 15:14:35.442297,79
2021-12-23 15:14:35.442303,113
2021-12-23 15:14:35.442309,113
2021-12-23 15:14:35.442315,141
2021-12-23 15:14:35.442322,168
2021-12-23 15:14:35.442328,161
2021-12-23 15:14:35.442335,185
2021-12-23 15:14:35.442341,216
2021-12-23 15:14:35.442347,266
2021-12-23 15:14:35.442354,348
2021-12-23 15:14:35.442360,355
2021-12-23 15:14:35.442366,334
2021-12-23 15:14:35.442372,377
2021-12-23 15:14:35.442379,404
2021-12-23 15:14:35.442385,355
2021-12-23 15:14:35.442391,259
2021-12-23 15:14:35.442397,204
2021-12-23 15:14:35.442404,161
2021-12-23 15:14:35.442410,57
2021-12-23 15:14:35.442416,-21
2021-12-23 15:14:35.442423,-57
2021-12-23 15:14:35.442429,-86
2021-12-23 15:14:35.623670,-105
2021-12-23 15:14:35.623700,-122
2021-12-23 15:14:35.623711,-122
2021-12-23 15:14:35.623721,-125
2021-12-23 15:14:35.623731,-146
2021-12-23 15:14:35.623741,-127
2021-12-23 15:14:35.623750,-79
2021-12-23 15:14:35.623760,-72
2021-12-23 15:14:35.623770,-76
2021-12-23 15:14:35.623779,-76
2021-12-23 15:14:35.623789,-81
2021-12-23 15:14:35.623798,-86
2021-12-23 15:14:35.623808,-72
2021-12-23 15:14:35.623818,-62
2021-12-23 15:14:35.623827,-52
2021-12-23 15:14:35.623837,-24
2021-12-23 15:14:35.623846,-38
2021-12-23 15:14:35.623856,-43
2021-12-23 15:14:35.623866,2
2021-12-23 15:14:35.623875,-9
2021-12-23 15:14:35.623885,-67
2021-12-23 15:14:35.623894,-33
2021-12-23 15:14:35.623904,33
2021-12-23 15:14:35.623914,-19
2021-12-23 15:14:35.623923,-74
2021-12-23 15:14:35.623933,-7
2021-12-23 15:14:35.623942,40
2021-12-23 15:14:35.623952,9
2021-12-23 15:14:35.623962,-7
2021-12-23 15:14:35.623971,-12
2021-12-23 15:14:35.938656,-31
2021-12-23 15:14:35.938686,-28
2021-12-23 15:14:35.938697,4
2021-12-23 15:14:35.938708,26
2021-12-23 15:14:35.938717,12
2021-12-23 15:14:35.938727,7
2021-12-23 15:14:35.938736,7
2021-12-23 15:14:35.938746,-14
2021-12-23 15:14:35.938756,-16
2021-12-23 15:14:35.938765,4
2021-12-23 15:14:35.938775,31
2021-12-23 15:14:35.938784,55
2021-12-23 15:14:35.938794,55
2021-12-23 15:14:35.938804,45
2021-12-23 15:14:35.938814,38
2021-12-23 15:14:35.938823,14
2021-12-23 15:14:35.938833,-12
2021-12-23 15:14:35.938842,-21
2021-12-23 15:14:35.938852,2
2021-12-23 15:14:35.938862,55
2021-12-23 15:14:35.938871,52
2021-12-23 15:14:35.938881,28
2021-12-23 15:14:35.938890,52
2021-12-23 15:14:35.938900,43
2021-12-23 15:14:35.938909,36
2021-12-23 15:14:35.938919,86
2021-12-23 15:14:35.938929,103
2021-12-23 15:14:35.938938,52
2021-12-23 15:14:35.938948,12
2021-12-23 15:14:35.938957,31
2021-12-23 15:14:36.072925,86
2021-12-23 15:14:36.072948,91
2021-12-23 15:14:36.072955,19
2021-12-23 15:14:36.072962,-7
2021-12-23 15:14:36.072969,74
2021-12-23 15:14:36.072976,101
2021-12-23 15:14:36.072982,43
2021-12-23 15:14:36.072989,52
2021-12-23 15:14:36.072995,84
2021-12-23 15:14:36.073001,168
2021-12-23 15:14:36.073008,476
2021-12-23 15:14:36.073014,918
2021-12-23 15:14:36.073020,1026
2021-12-23 15:14:36.073027,343
2021-12-23 15:14:36.073033,-406
2021-12-23 15:14:36.073040,-238
2021-12-23 15:14:36.073046,115
2021-12-23 15:14:36.073053,-16
2021-12-23 15:14:36.073059,-81
2021-12-23 15:14:36.073065,19
2021-12-23 15:14:36.073072,31
2021-12-23 15:14:36.073078,69
2021-12-23 15:14:36.073084,96
2021-12-23 15:14:36.073091,40
2021-12-23 15:14:36.073097,16
2021-12-23 15:14:36.073104,24
2021-12-23 15:14:36.073110,24
2021-12-23 15:14:36.073116,26
2021-12-23 15:14:36.073123,38
2021-12-23 15:14:36.073129,76
2021-12-23 15:14:36.298665,127
2021-12-23 15:14:36.298696,182
2021-12-23 15:14:36.298707,192
2021-12-23 15:14:36.298717,98
2021-12-23 15:14:36.298727,50
2021-12-23 15:14:36.298736,122
2021-12-23 15:14:36.298746,170
2021-12-23 15:14:36.298756,173
2021-12-23 15:14:36.298765,245
2021-12-23 15:14:36.298775,351
2021-12-23 15:14:36.298785,379
2021-12-23 15:14:36.298794,382
2021-12-23 15:14:36.298804,387
2021-12-23 15:14:36.298813,334
2021-12-23 15:14:36.298823,283
2021-12-23 15:14:36.298832,274
2021-12-23 15:14:36.298842,250
2021-12-23 15:14:36.298851,209
2021-12-23 15:14:36.298861,125
2021-12-23 15:14:36.298870,28
2021-12-23 15:14:36.298880,26
2021-12-23 15:14:36.298890,0
2021-12-23 15:14:36.298899,-132
2021-12-23 15:14:36.298909,-163
2021-12-23 15:14:36.298918,-103
2021-12-23 15:14:36.298928,-105
2021-12-23 15:14:36.298937,-127
2021-12-23 15:14:36.298947,-149
2021-12-23 15:14:36.298956,-117
2021-12-23 15:14:36.298966,-31
2021-12-23 15:14:36.568664,-16
2021-12-23 15:14:36.568695,-55
2021-12-23 15:14:36.568706,-31
2021-12-23 15:14:36.568716,-7
2021-12-23 15:14:36.568726,-72
2021-12-23 15:14:36.568735,-110
2021-12-23 15:14:36.568745,-72
2021-12-23 15:14:36.568755,-45
2021-12-23 15:14:36.568764,-55
2021-12-23 15:14:36.568774,-40
2021-12-23 15:14:36.568784,9
2021-12-23 15:14:36.568794,14
2021-12-23 15:14:36.568804,-28
2021-12-23 15:14:36.568814,-26
2021-12-23 15:14:36.568823,-2
2021-12-23 15:14:36.568833,-16
2021-12-23 15:14:36.568843,-31
2021-12-23 15:14:36.568852,-31
2021-12-23 15:14:36.568862,-91
2021-12-23 15:14:36.568872,-105
2021-12-23 15:14:36.568881,28
2021-12-23 15:14:36.568891,84
2021-12-23 15:14:36.568901,19
2021-12-23 15:14:36.568910,24
2021-12-23 15:14:36.568920,28
2021-12-23 15:14:36.568930,0
2021-12-23 15:14:36.568940,40
2021-12-23 15:14:36.568949,0
2021-12-23 15:14:36.568959,-113
2021-12-23 15:14:36.568969,-38
2021-12-23 15:14:36.793205,93
2021-12-23 15:14:36.793235,64
2021-12-23 15:14:36.793247,33
2021-12-23 15:14:36.793257,40
2021-12-23 15:14:36.793266,9
2021-12-23 15:14:36.793276,36
2021-12-23 15:14:36.793286,88
2021-12-23 15:14:36.793295,28
2021-12-23 15:14:36.793305,-52
2021-12-23 15:14:36.793315,-50
2021-12-23 15:14:36.793324,-9
2021-12-23 15:14:36.793334,43
2021-12-23 15:14:36.793344,74
2021-12-23 15:14:36.793354,55
2021-12-23 15:14:36.793363,62
2021-12-23 15:14:36.793373,84
2021-12-23 15:14:36.793383,52
2021-12-23 15:14:36.793392,38
2021-12-23 15:14:36.793402,67
2021-12-23 15:14:36.793411,52
2021-12-23 15:14:36.793421,33
2021-12-23 15:14:36.793430,45
2021-12-23 15:14:36.793440,45
2021-12-23 15:14:36.793449,55
2021-12-23 15:14:36.793459,67
2021-12-23 15:14:36.793469,86
2021-12-23 15:14:36.793478,122
2021-12-23 15:14:36.793488,74
2021-12-23 15:14:36.793497,-7
2021-12-23 15:14:36.793507,48
2021-12-23 15:14:37.018714,139
2021-12-23 15:14:37.018744,283
2021-12-23 15:14:37.018755,654
2021-12-23 15:14:37.018766,1070
2021-12-23 15:14:37.018776,884
2021-12-23 15:14:37.018786,7
2021-12-23 15:14:37.018796,-382
2021-12-23 15:14:37.018806,36
2021-12-23 15:14:37.018815,168
2021-12-23 15:14:37.018825,-76
2021-12-23 15:14:37.018835,-101
2021-12-23 15:14:37.018845,4
2021-12-23 15:14:37.018854,4
2021-12-23 15:14:37.018864,-12
2021-12-23 15:14:37.018874,19
2021-12-23 15:14:37.018884,48
2021-12-23 15:14:37.018893,76
2021-12-23 15:14:37.018903,93
2021-12-23 15:14:37.018913,55
2021-12-23 15:14:37.018923,7
2021-12-23 15:14:37.018932,26
2021-12-23 15:14:37.018942,72
2021-12-23 15:14:37.018952,93
2021-12-23 15:14:37.018962,120
2021-12-23 15:14:37.018971,158
2021-12-23 15:14:37.018981,192
2021-12-23 15:14:37.018991,187
2021-12-23 15:14:37.019000,168
2021-12-23 15:14:37.019010,194
2021-12-23 15:14:37.019020,218
2021-12-23 15:14:37.288657,240
2021-12-23 15:14:37.288688,312
2021-12-23 15:14:37.288700,348
2021-12-23 15:14:37.288710,365
2021-12-23 15:14:37.288720,411
2021-12-23 15:14:37.288729,391
2021-12-23 15:14:37.288739,351
2021-12-23 15:14:37.288748,336
2021-12-23 15:14:37.288758,259
2021-12-23 15:14:37.288768,137
2021-12-23 15:14:37.288778,48
2021-12-23 15:14:37.288788,-14
2021-12-23 15:14:37.288797,-93
2021-12-23 15:14:37.288807,-153
2021-12-23 15:14:37.288817,-108
2021-12-23 15:14:37.288826,-21
2021-12-23 15:14:37.288836,-2
2021-12-23 15:14:37.288846,-72
2021-12-23 15:14:37.288856,-182
2021-12-23 15:14:37.288865,-182
2021-12-23 15:14:37.288875,-96
2021-12-23 15:14:37.288884,-79
2021-12-23 15:14:37.288894,-108
2021-12-23 15:14:37.288904,-86
2021-12-23 15:14:37.288914,-33
2021-12-23 15:14:37.288923,-19
2021-12-23 15:14:37.288933,-28
2021-12-23 15:14:37.288943,-50
2021-12-23 15:14:37.288952,-33
2021-12-23 15:14:37.288962,28
2021-12-23 15:14:37.512902,-9
2021-12-23 15:14:37.512924,-81
2021-12-23 15:14:37.512931,-33
2021-12-23 15:14:37.512938,24
2021-12-23 15:14:37.512944,-2
2021-12-23 15:14:37.512951,-16
2021-12-23 15:14:37.512957,12
2021-12-23 15:14:37.512963,21
2021-12-23 15:14:37.512970,12
2021-12-23 15:14:37.512976,-12
2021-12-23 15:14:37.512983,-19
2021-12-23 15:14:37.512989,4
2021-12-23 15:14:37.512995,21
2021-12-23 15:14:37.513002,7
2021-12-23 15:14:37.513008,-4
2021-12-23 15:14:37.513014,4
2021-12-23 15:14:37.513021,2
2021-12-23 15:14:37.513027,-7
2021-12-23 15:14:37.513034,33
2021-12-23 15:14:37.513040,93
2021-12-23 15:14:37.513046,64
2021-12-23 15:14:37.513052,-2
2021-12-23 15:14:37.513059,-9
2021-12-23 15:14:37.513065,12
2021-12-23 15:14:37.513071,4
2021-12-23 15:14:37.513078,2
2021-12-23 15:14:37.513084,9
2021-12-23 15:14:37.513091,12
2021-12-23 15:14:37.513097,48
2021-12-23 15:14:37.513103,122
2021-12-23 15:14:37.783678,122
2021-12-23 15:14:37.783708,7
2021-12-23 15:14:37.783720,-50
2021-12-23 15:14:37.783730,14
2021-12-23 15:14:37.783740,84
2021-12-23 15:14:37.783749,93
2021-12-23 15:14:37.783759,62
2021-12-23 15:14:37.783768,55
2021-12-23 15:14:37.783778,105
2021-12-23 15:14:37.783787,161
2021-12-23 15:14:37.783797,96
2021-12-23 15:14:37.783806,-45
2021-12-23 15:14:37.783816,-45
2021-12-23 15:14:37.783826,21
2021-12-23 15:14:37.783835,12
2021-12-23 15:14:37.783845,26
2021-12-23 15:14:37.783854,74
2021-12-23 15:14:37.783864,76
2021-12-23 15:14:37.783873,74
2021-12-23 15:14:37.783883,93
2021-12-23 15:14:37.783892,74
2021-12-23 15:14:37.783902,105
2021-12-23 15:14:37.783912,399
2021-12-23 15:14:37.783921,875
2021-12-23 15:14:37.783931,1048
2021-12-23 15:14:37.783940,396
2021-12-23 15:14:37.783950,-411
2021-12-23 15:14:37.783960,-257
2021-12-23 15:14:37.783969,177
2021-12-23 15:14:37.783979,14
2021-12-23 15:14:37.918729,-137
2021-12-23 15:14:37.918759,26
2021-12-23 15:14:37.918770,48
2021-12-23 15:14:37.918780,-33
2021-12-23 15:14:37.918790,31
2021-12-23 15:14:37.918800,103
2021-12-23 15:14:37.918809,79
2021-12-23 15:14:37.918819,36
2021-12-23 15:14:37.918829,-7
2021-12-23 15:14:37.918838,21
2021-12-23 15:14:37.918848,117
2021-12-23 15:14:37.918858,134
2021-12-23 15:14:37.918868,62
2021-12-23 15:14:37.918877,72
2021-12-23 15:14:37.918887,165
2021-12-23 15:14:37.918897,153
2021-12-23 15:14:37.918906,108
2021-12-23 15:14:37.918916,149
2021-12-23 15:14:37.918926,146
2021-12-23 15:14:37.918935,137
2021-12-23 15:14:37.918946,252
2021-12-23 15:14:37.918956,367
2021-12-23 15:14:37.918966,334
2021-12-23 15:14:37.918976,269
2021-12-23 15:14:37.918985,312
2021-12-23 15:14:37.918995,375
2021-12-23 15:14:37.919004,351
2021-12-23 15:14:37.919014,288
2021-12-23 15:14:37.919024,259
2021-12-23 15:14:37.919034,247
2021-12-23 15:14:38.143229,165
2021-12-23 15:14:38.143259,4
2021-12-23 15:14:38.143271,-84
2021-12-23 15:14:38.143281,-69
2021-12-23 15:14:38.143291,-79
2021-12-23 15:14:38.143317,-146
2021-12-23 15:14:38.143328,-197
2021-12-23 15:14:38.143337,-175
2021-12-23 15:14:38.143347,-86
2021-12-23 15:14:38.143356,-31
2021-12-23 15:14:38.143366,-108
2021-12-23 15:14:38.143376,-163
2021-12-23 15:14:38.143385,-98
2021-12-23 15:14:38.143395,-76
2021-12-23 15:14:38.143405,-96
2021-12-23 15:14:38.143414,-62
2021-12-23 15:14:38.143424,-43
2021-12-23 15:14:38.143433,-64
2021-12-23 15:14:38.143443,-43
2021-12-23 15:14:38.143452,-19
2021-12-23 15:14:38.143462,-57
2021-12-23 15:14:38.143471,-64
2021-12-23 15:14:38.143481,-28
2021-12-23 15:14:38.143491,-40
2021-12-23 15:14:38.143500,-45
2021-12-23 15:14:38.143510,-26
2021-12-23 15:14:38.143519,-31
2021-12-23 15:14:38.143529,-21
2021-12-23 15:14:38.143539,24
2021-12-23 15:14:38.143548,31
2021-12-23 15:14:38.412715,16
2021-12-23 15:14:38.412730,19
2021-12-23 15:14:38.412736,-19
2021-12-23 15:14:38.412742,-57
2021-12-23 15:14:38.412754,-48
2021-12-23 15:14:38.412784,-26
2021-12-23 15:14:38.412817,0
2021-12-23 15:14:38.412827,31
2021-12-23 15:14:38.412833,45
2021-12-23 15:14:38.412838,19
2021-12-23 15:14:38.412843,19
2021-12-23 15:14:38.412848,52
2021-12-23 15:14:38.412853,12
2021-12-23 15:14:38.412858,-38
2021-12-23 15:14:38.412869,-14
2021-12-23 15:14:38.412877,24
2021-12-23 15:14:38.412882,7
2021-12-23 15:14:38.412888,-26
2021-12-23 15:14:38.412893,12
2021-12-23 15:14:38.412898,57
2021-12-23 15:14:38.412903,38
2021-12-23 15:14:38.412908,48
2021-12-23 15:14:38.412913,81
2021-12-23 15:14:38.412919,21
2021-12-23 15:14:38.412926,-12
2021-12-23 15:14:38.412932,50
2021-12-23 15:14:38.412937,50
2021-12-23 15:14:38.412942,28
2021-12-23 15:14:38.412947,48
2021-12-23 15:14:38.412952,43
2021-12-23 15:14:38.592877,36
2021-12-23 15:14:38.592894,50
2021-12-23 15:14:38.592900,48
2021-12-23 15:14:38.592905,50
2021-12-23 15:14:38.592910,88
2021-12-23 15:14:38.592915,110
2021-12-23 15:14:38.592920,86
2021-12-23 15:14:38.592925,146
2021-12-23 15:14:38.592931,305
2021-12-23 15:14:38.592936,483
2021-12-23 15:14:38.592941,822
2021-12-23 15:14:38.592946,911
2021-12-23 15:14:38.592951,134
2021-12-23 15:14:38.592956,-480
2021-12-23 15:14:38.592961,-115
2021-12-23 15:14:38.592966,125
2021-12-23 15:14:38.592971,-67
2021-12-23 15:14:38.592976,28
2021-12-23 15:14:38.592981,81
2021-12-23 15:14:38.592987,-134
2021-12-23 15:14:38.592992,-93
2021-12-23 15:14:38.592997,86
2021-12-23 15:14:38.593002,62
2021-12-23 15:14:38.593007,52
2021-12-23 15:14:38.593012,101
2021-12-23 15:14:38.593017,24
2021-12-23 15:14:38.593022,-45
2021-12-23 15:14:38.593027,24
2021-12-23 15:14:38.593032,67
2021-12-23 15:14:38.593037,48
2021-12-23 15:14:38.908716,122
2021-12-23 15:14:38.908745,209
2021-12-23 15:14:38.908757,134
2021-12-23 15:14:38.908767,76
2021-12-23 15:14:38.908777,170
2021-12-23 15:14:38.908786,223
2021-12-23 15:14:38.908796,192
2021-12-23 15:14:38.908806,199
2021-12-23 15:14:38.908815,252
2021-12-23 15:14:38.908825,324
2021-12-23 15:14:38.908835,346
2021-12-23 15:14:38.908844,324
2021-12-23 15:14:38.908854,355
2021-12-23 15:14:38.908864,355
2021-12-23 15:14:38.908876,290
2021-12-23 15:14:38.908885,238
2021-12-23 15:14:38.908895,156
2021-12-23 15:14:38.908905,69
2021-12-23 15:14:38.908915,-21
2021-12-23 15:14:38.908924,-79
2021-12-23 15:14:38.908934,-33
2021-12-23 15:14:38.908944,-60
2021-12-23 15:14:38.908953,-163
2021-12-23 15:14:38.908963,-132
2021-12-23 15:14:38.908972,-110
2021-12-23 15:14:38.908982,-199
2021-12-23 15:14:38.908992,-177
2021-12-23 15:14:38.909001,-76
2021-12-23 15:14:38.909011,-40
2021-12-23 15:14:38.909020,-33
2021-12-23 15:14:39.088230,-45
2021-12-23 15:14:39.088261,-64
2021-12-23 15:14:39.088272,-110
2021-12-23 15:14:39.088282,-168
2021-12-23 15:14:39.088292,-110
2021-12-23 15:14:39.088302,-2
2021-12-23 15:14:39.088311,19
2021-12-23 15:14:39.088321,4
2021-12-23 15:14:39.088331,12
2021-12-23 15:14:39.088341,-14
2021-12-23 15:14:39.088351,-36
2021-12-23 15:14:39.088360,-19
2021-12-23 15:14:39.088370,-74
2021-12-23 15:14:39.088380,-141
2021-12-23 15:14:39.088390,-69
2021-12-23 15:14:39.088399,24
2021-12-23 15:14:39.088409,31
2021-12-23 15:14:39.088419,16
2021-12-23 15:14:39.088428,-14
2021-12-23 15:14:39.088438,-28
2021-12-23 15:14:39.088448,16
2021-12-23 15:14:39.088458,12
2021-12-23 15:14:39.088467,-79
2021-12-23 15:14:39.088477,-101
2021-12-23 15:14:39.088487,-16
2021-12-23 15:14:39.088496,21
2021-12-23 15:14:39.088506,-16
2021-12-23 15:14:39.088516,-9
2021-12-23 15:14:39.088526,24
2021-12-23 15:14:39.088536,14
2021-12-23 15:14:39.313243,2
2021-12-23 15:14:39.313266,21
2021-12-23 15:14:39.313279,16
2021-12-23 15:14:39.313291,2
2021-12-23 15:14:39.313303,31
2021-12-23 15:14:39.313315,48
2021-12-23 15:14:39.313327,9
2021-12-23 15:14:39.313338,-19
2021-12-23 15:14:39.313349,-2
2021-12-23 15:14:39.313360,16
2021-12-23 15:14:39.313371,31
2021-12-23 15:14:39.313382,79
2021-12-23 15:14:39.313393,86
2021-12-23 15:14:39.313403,19
2021-12-23 15:14:39.313414,0
2021-12-23 15:14:39.313425,24
2021-12-23 15:14:39.313436,9
2021-12-23 15:14:39.313443,14
2021-12-23 15:14:39.313449,149
2021-12-23 15:14:39.313455,476
2021-12-23 15:14:39.313461,899
2021-12-23 15:14:39.313468,959
2021-12-23 15:14:39.313474,295
2021-12-23 15:14:39.313480,-334
2021-12-23 15:14:39.313486,-199
2021-12-23 15:14:39.313495,14
2021-12-23 15:14:39.313501,-86
2021-12-23 15:14:39.313507,-96
2021-12-23 15:14:39.313513,0
2021-12-23 15:14:39.313519,28
2021-12-23 15:14:39.716728,50
2021-12-23 15:14:39.716749,108
2021-12-23 15:14:39.716756,88
2021-12-23 15:14:39.716763,2
2021-12-23 15:14:39.716769,4
2021-12-23 15:14:39.716775,40
2021-12-23 15:14:39.716782,14
2021-12-23 15:14:39.716788,28
2021-12-23 15:14:39.716794,103
2021-12-23 15:14:39.716801,120
2021-12-23 15:14:39.716807,120
2021-12-23 15:14:39.716813,163
2021-12-23 15:14:39.716819,149
2021-12-23 15:14:39.716826,115
2021-12-23 15:14:39.716832,151
2021-12-23 15:14:39.716838,182
2021-12-23 15:14:39.716844,194
2021-12-23 15:14:39.716851,238
2021-12-23 15:14:39.716857,293
2021-12-23 15:14:39.716863,339
2021-12-23 15:14:39.716869,358
2021-12-23 15:14:39.716876,329
2021-12-23 15:14:39.716882,327
2021-12-23 15:14:39.716889,348
2021-12-23 15:14:39.716895,286
2021-12-23 15:14:39.716901,216
2021-12-23 15:14:39.716908,175
2021-12-23 15:14:39.716914,64
2021-12-23 15:14:39.716920,-21
2021-12-23 15:14:39.716927,-33
2021-12-23 15:14:39.807404,-98
2021-12-23 15:14:39.807429,-129
2021-12-23 15:14:39.807439,-69
2021-12-23 15:14:39.807446,-55
2021-12-23 15:14:39.807452,-122
2021-12-23 15:14:39.807458,-165
2021-12-23 15:14:39.807465,-105
2021-12-23 15:14:39.807471,-36
2021-12-23 15:14:39.807478,-40
2021-12-23 15:14:39.807484,-48
2021-12-23 15:14:39.807490,-52
2021-12-23 15:14:39.807496,-60
2021-12-23 15:14:39.807505,-60
2021-12-23 15:14:39.807512,-120
2021-12-23 15:14:39.807518,-144
2021-12-23 15:14:39.807524,-14
2021-12-23 15:14:39.807530,64
2021-12-23 15:14:39.807537,40
2021-12-23 15:14:39.807543,16
2021-12-23 15:14:39.807549,-19
2021-12-23 15:14:39.807556,-21
2021-12-23 15:14:39.807564,-4
2021-12-23 15:14:39.807570,-14
2021-12-23 15:14:39.807576,-7
2021-12-23 15:14:39.807583,-31
2021-12-23 15:14:39.807589,-79
2021-12-23 15:14:39.807595,-52
2021-12-23 15:14:39.807601,19
2021-12-23 15:14:39.807607,57
2021-12-23 15:14:39.807614,26
2021-12-23 15:14:39.987534,-31
2021-12-23 15:14:39.987554,-33
2021-12-23 15:14:39.987562,-2
2021-12-23 15:14:39.987568,16
2021-12-23 15:14:39.987575,19
2021-12-23 15:14:39.987581,-7
2021-12-23 15:14:39.987587,-28
2021-12-23 15:14:39.987594,2
2021-12-23 15:14:39.987600,48
2021-12-23 15:14:39.987606,43
2021-12-23 15:14:39.987613,-7
2021-12-23 15:14:39.987619,-19
2021-12-23 15:14:39.987625,19
2021-12-23 15:14:39.987632,7
2021-12-23 15:14:39.987638,0
2021-12-23 15:14:39.987645,57
2021-12-23 15:14:39.987651,74
2021-12-23 15:14:39.987657,43
2021-12-23 15:14:39.987663,64
2021-12-23 15:14:39.987670,96
2021-12-23 15:14:39.987676,38
2021-12-23 15:14:39.987682,-26
2021-12-23 15:14:39.987689,-21
2021-12-23 15:14:39.987695,9
2021-12-23 15:14:39.987701,40
2021-12-23 15:14:39.987707,52
2021-12-23 15:14:39.987714,69
2021-12-23 15:14:39.987720,108
2021-12-23 15:14:39.987726,151
2021-12-23 15:14:39.987732,365
2021-12-23 15:14:40.258248,836
2021-12-23 15:14:40.258278,1082
2021-12-23 15:14:40.258289,456
2021-12-23 15:14:40.258301,-401
2021-12-23 15:14:40.258310,-310
2021-12-23 15:14:40.258320,139
2021-12-23 15:14:40.258329,36
2021-12-23 15:14:40.258339,-105
2021-12-23 15:14:40.258349,43
2021-12-23 15:14:40.258358,84
2021-12-23 15:14:40.258368,-43
2021-12-23 15:14:40.258378,-76
2021-12-23 15:14:40.258388,0
2021-12-23 15:14:40.258397,60
2021-12-23 15:14:40.258407,64
2021-12-23 15:14:40.258417,55
2021-12-23 15:14:40.258426,60
2021-12-23 15:14:40.258436,84
2021-12-23 15:14:40.258445,93
2021-12-23 15:14:40.258455,72
2021-12-23 15:14:40.258465,74
2021-12-23 15:14:40.258474,113
2021-12-23 15:14:40.258484,139
2021-12-23 15:14:40.258494,161
2021-12-23 15:14:40.258503,173
2021-12-23 15:14:40.258513,175
2021-12-23 15:14:40.258522,214
2021-12-23 15:14:40.258532,262
2021-12-23 15:14:40.258542,278
2021-12-23 15:14:40.258551,339
2021-12-23 15:14:40.438690,401
2021-12-23 15:14:40.438719,394
2021-12-23 15:14:40.438731,391
2021-12-23 15:14:40.438741,377
2021-12-23 15:14:40.438751,303
2021-12-23 15:14:40.438760,226
2021-12-23 15:14:40.438770,182
2021-12-23 15:14:40.438779,139
2021-12-23 15:14:40.438789,60
2021-12-23 15:14:40.438798,-2
2021-12-23 15:14:40.438808,7
2021-12-23 15:14:40.438818,-21
2021-12-23 15:14:40.438827,-105
2021-12-23 15:14:40.438837,-134
2021-12-23 15:14:40.438846,-127
2021-12-23 15:14:40.438856,-125
2021-12-23 15:14:40.438865,-105
2021-12-23 15:14:40.438875,-81
2021-12-23 15:14:40.438884,-84
2021-12-23 15:14:40.438894,-74
2021-12-23 15:14:40.438903,-12
2021-12-23 15:14:40.438913,24
2021-12-23 15:14:40.438922,-21
2021-12-23 15:14:40.438932,-79
2021-12-23 15:14:40.438941,-93
2021-12-23 15:14:40.438951,-45
2021-12-23 15:14:40.438960,4
2021-12-23 15:14:40.438970,-43
2021-12-23 15:14:40.438979,-79
2021-12-23 15:14:40.438989,2
2021-12-23 15:14:40.708339,43
2021-12-23 15:14:40.708362,-19
2021-12-23 15:14:40.708369,-26
2021-12-23 15:14:40.708375,4
2021-12-23 15:14:40.708382,-26
2021-12-23 15:14:40.708388,-52
2021-12-23 15:14:40.708394,-50
2021-12-23 15:14:40.708400,-40
2021-12-23 15:14:40.708406,-9
2021-12-23 15:14:40.708412,2
2021-12-23 15:14:40.708419,2
2021-12-23 15:14:40.708425,2
2021-12-23 15:14:40.708431,-21
2021-12-23 15:14:40.708437,-57
2021-12-23 15:14:40.708443,-55
2021-12-23 15:14:40.708450,-4
2021-12-23 15:14:40.708456,-7
2021-12-23 15:14:40.708462,-43
2021-12-23 15:14:40.708468,4
2021-12-23 15:14:40.708474,67
2021-12-23 15:14:40.708480,24
2021-12-23 15:14:40.708487,-36
2021-12-23 15:14:40.708493,-52
2021-12-23 15:14:40.708499,-55
2021-12-23 15:14:40.708505,-7
2021-12-23 15:14:40.708512,60
2021-12-23 15:14:40.708518,76
2021-12-23 15:14:40.708524,62
2021-12-23 15:14:40.708530,43
2021-12-23 15:14:40.708536,36
2021-12-23 15:14:40.933674,40
2021-12-23 15:14:40.933704,-9
2021-12-23 15:14:40.933715,-55
2021-12-23 15:14:40.933725,-9
2021-12-23 15:14:40.933735,19
2021-12-23 15:14:40.933744,19
2021-12-23 15:14:40.933754,96
2021-12-23 15:14:40.933764,108
2021-12-23 15:14:40.933773,28
2021-12-23 15:14:40.933783,173
2021-12-23 15:14:40.933792,586
2021-12-23 15:14:40.933802,981
2021-12-23 15:14:40.933811,909
2021-12-23 15:14:40.933821,113
2021-12-23 15:14:40.933830,-454
2021-12-23 15:14:40.933840,-125
2021-12-23 15:14:40.933850,115
2021-12-23 15:14:40.933859,-81
2021-12-23 15:14:40.933869,-60
2021-12-23 15:14:40.933878,50
2021-12-23 15:14:40.933888,-33
2021-12-23 15:14:40.933897,-79
2021-12-23 15:14:40.933907,-28
2021-12-23 15:14:40.933917,12
2021-12-23 15:14:40.933926,43
2021-12-23 15:14:40.933936,60
2021-12-23 15:14:40.933945,50
2021-12-23 15:14:40.933955,50
2021-12-23 15:14:40.933964,52
2021-12-23 15:14:40.933974,57
2021-12-23 15:14:41.158215,88
2021-12-23 15:14:41.158245,93
2021-12-23 15:14:41.158257,67
2021-12-23 15:14:41.158268,88
2021-12-23 15:14:41.158277,151
2021-12-23 15:14:41.158287,199
2021-12-23 15:14:41.158297,216
2021-12-23 15:14:41.158307,216
2021-12-23 15:14:41.158316,240
2021-12-23 15:14:41.158326,278
2021-12-23 15:14:41.158336,276
2021-12-23 15:14:41.158345,298
2021-12-23 15:14:41.158355,382
2021-12-23 15:14:41.158365,396
2021-12-23 15:14:41.158375,322
2021-12-23 15:14:41.158384,286
2021-12-23 15:14:41.158394,259
2021-12-23 15:14:41.158403,139
2021-12-23 15:14:41.158413,9
2021-12-23 15:14:41.158423,-28
2021-12-23 15:14:41.158432,-60
2021-12-23 15:14:41.158442,-113
2021-12-23 15:14:41.158452,-113
2021-12-23 15:14:41.158462,-48
2021-12-23 15:14:41.158471,-28
2021-12-23 15:14:41.158481,-98
2021-12-23 15:14:41.158490,-132
2021-12-23 15:14:41.158500,-101
2021-12-23 15:14:41.158510,-115
2021-12-23 15:14:41.158519,-134
2021-12-23 15:14:41.472306,-88
2021-12-23 15:14:41.472329,-57
2021-12-23 15:14:41.472336,-33
2021-12-23 15:14:41.472343,48
2021-12-23 15:14:41.472349,57
2021-12-23 15:14:41.472355,-72
2021-12-23 15:14:41.472361,-129
2021-12-23 15:14:41.472368,-69
2021-12-23 15:14:41.472432,-48
2021-12-23 15:14:41.472440,-52
2021-12-23 15:14:41.472446,-21
2021-12-23 15:14:41.472452,-4
2021-12-23 15:14:41.472459,12
2021-12-23 15:14:41.472465,45
2021-12-23 15:14:41.472471,0
2021-12-23 15:14:41.472478,-91
2021-12-23 15:14:41.472484,-62
2021-12-23 15:14:41.472490,2
2021-12-23 15:14:41.472496,-40
2021-12-23 15:14:41.472503,-48
2021-12-23 15:14:41.472509,38
2021-12-23 15:14:41.472515,33
2021-12-23 15:14:41.472522,-36
2021-12-23 15:14:41.472528,-19
2021-12-23 15:14:41.472534,-2
2021-12-23 15:14:41.472541,-38
2021-12-23 15:14:41.472547,-19
2021-12-23 15:14:41.472553,12
2021-12-23 15:14:41.472560,-21
2021-12-23 15:14:41.472566,-40
2021-12-23 15:14:41.697337,-14
2021-12-23 15:14:41.697367,16
2021-12-23 15:14:41.697379,43
2021-12-23 15:14:41.697389,52
2021-12-23 15:14:41.697398,57
2021-12-23 15:14:41.697408,43
2021-12-23 15:14:41.697418,-16
2021-12-23 15:14:41.697427,-67
2021-12-23 15:14:41.697437,-50
2021-12-23 15:14:41.697447,-2
2021-12-23 15:14:41.697456,38
2021-12-23 15:14:41.697466,76
2021-12-23 15:14:41.697475,72
2021-12-23 15:14:41.697485,16
2021-12-23 15:14:41.697495,-2
2021-12-23 15:14:41.697504,26
2021-12-23 15:14:41.697514,12
2021-12-23 15:14:41.697523,26
2021-12-23 15:14:41.697533,259
2021-12-23 15:14:41.697542,663
2021-12-23 15:14:41.697552,993
2021-12-23 15:14:41.697561,733
2021-12-23 15:14:41.697571,-98
2021-12-23 15:14:41.697581,-411
2021-12-23 15:14:41.697590,-45
2021-12-23 15:14:41.697600,62
2021-12-23 15:14:41.697609,-93
2021-12-23 15:14:41.697619,-72
2021-12-23 15:14:41.697629,14
2021-12-23 15:14:41.697638,33
2021-12-23 15:14:41.923245,62
2021-12-23 15:14:41.923276,93
2021-12-23 15:14:41.923287,84
2021-12-23 15:14:41.923297,50
2021-12-23 15:14:41.923307,12
2021-12-23 15:14:41.923317,24
2021-12-23 15:14:41.923326,50
2021-12-23 15:14:41.923336,38
2021-12-23 15:14:41.923346,57
2021-12-23 15:14:41.923355,151
2021-12-23 15:14:41.923365,192
2021-12-23 15:14:41.923374,120
2021-12-23 15:14:41.923384,105
2021-12-23 15:14:41.923394,194
2021-12-23 15:14:41.923404,235
2021-12-23 15:14:41.923413,194
2021-12-23 15:14:41.923423,209
2021-12-23 15:14:41.923433,315
2021-12-23 15:14:41.923443,295
2021-12-23 15:14:41.923452,226
2021-12-23 15:14:41.923462,315
2021-12-23 15:14:41.923472,389
2021-12-23 15:14:41.923481,343
2021-12-23 15:14:41.923491,317
2021-12-23 15:14:41.923501,310
2021-12-23 15:14:41.923510,230
2021-12-23 15:14:41.923520,93
2021-12-23 15:14:41.923530,-21
2021-12-23 15:14:41.923540,-69
2021-12-23 15:14:41.923549,-86
2021-12-23 15:14:42.103683,-115
2021-12-23 15:14:42.103713,-98
2021-12-23 15:14:42.103725,-36
2021-12-23 15:14:42.103735,-36
2021-12-23 15:14:42.103744,-50
2021-12-23 15:14:42.103754,-28
2021-12-23 15:14:42.103764,-76
2021-12-23 15:14:42.103773,-125
2021-12-23 15:14:42.103783,-74
2021-12-23 15:14:42.103793,-43
2021-12-23 15:14:42.103803,-48
2021-12-23 15:14:42.103812,-9
2021-12-23 15:14:42.103822,-7
2021-12-23 15:14:42.103832,-43
2021-12-23 15:14:42.103842,-38
2021-12-23 15:14:42.103851,-28
2021-12-23 15:14:42.103861,-38
2021-12-23 15:14:42.103871,-24
2021-12-23 15:14:42.103881,0
2021-12-23 15:14:42.103890,26
2021-12-23 15:14:42.103900,31
2021-12-23 15:14:42.103921,-48
2021-12-23 15:14:42.103931,-101
2021-12-23 15:14:42.103940,-31
2021-12-23 15:14:42.103950,9
2021-12-23 15:14:42.103960,-21
2021-12-23 15:14:42.103970,-14
2021-12-23 15:14:42.103979,9
2021-12-23 15:14:42.103989,12
2021-12-23 15:14:42.103999,9
2021-12-23 15:14:42.283708,-4
2021-12-23 15:14:42.283738,-14
2021-12-23 15:14:42.283749,-16
2021-12-23 15:14:42.283759,-50
2021-12-23 15:14:42.283769,-55
2021-12-23 15:14:42.283779,19
2021-12-23 15:14:42.283789,60
2021-12-23 15:14:42.283798,40
2021-12-23 15:14:42.283808,31
2021-12-23 15:14:42.283817,2
2021-12-23 15:14:42.283827,-45
2021-12-23 15:14:42.283836,-55
2021-12-23 15:14:42.283846,-16
2021-12-23 15:14:42.283856,36
2021-12-23 15:14:42.283866,50
2021-12-23 15:14:42.283875,31
2021-12-23 15:14:42.283885,19
2021-12-23 15:14:42.283894,14
2021-12-23 15:14:42.283904,4
2021-12-23 15:14:42.283913,-12
2021-12-23 15:14:42.283923,-14
2021-12-23 15:14:42.283932,12
2021-12-23 15:14:42.283942,31
2021-12-23 15:14:42.283952,4
2021-12-23 15:14:42.283961,-33
2021-12-23 15:14:42.283971,2
2021-12-23 15:14:42.283980,67
2021-12-23 15:14:42.283990,67
2021-12-23 15:14:42.284000,137
2021-12-23 15:14:42.284009,411
2021-12-23 15:14:42.598224,795
2021-12-23 15:14:42.598246,860
2021-12-23 15:14:42.598254,194
2021-12-23 15:14:42.598259,-418
2021-12-23 15:14:42.598265,-170
2021-12-23 15:14:42.598271,122
2021-12-23 15:14:42.598276,-26
2021-12-23 15:14:42.598282,-60
2021-12-23 15:14:42.598288,21
2021-12-23 15:14:42.598293,-21
2021-12-23 15:14:42.598300,-36
2021-12-23 15:14:42.598305,24
2021-12-23 15:14:42.598311,36
2021-12-23 15:14:42.598316,7
2021-12-23 15:14:42.598322,2
2021-12-23 15:14:42.598327,24
2021-12-23 15:14:42.598332,43
2021-12-23 15:14:42.598337,57
2021-12-23 15:14:42.598341,64
2021-12-23 15:14:42.598346,76
2021-12-23 15:14:42.598351,91
