Time,ECG
2021-12-23 14:49:05.900183,4951
2021-12-23 14:49:05.900209,4876
2021-12-23 14:49:05.900220,4836
2021-12-23 14:49:05.900230,4807
2021-12-23 14:49:05.900240,4744
2021-12-23 14:49:05.900251,4696
2021-12-23 14:49:05.900261,4658
2021-12-23 14:49:05.900271,4614
2021-12-23 14:49:05.900281,4583
2021-12-23 14:49:05.900292,4533
2021-12-23 14:49:05.900302,4472
2021-12-23 14:49:05.900312,4444
2021-12-23 14:49:05.900322,4427
2021-12-23 14:49:05.900332,4410
2021-12-23 14:49:05.900342,4398
2021-12-23 14:49:05.900352,4340
2021-12-23 14:49:05.900361,4275
2021-12-23 14:49:05.900372,4256
2021-12-23 14:49:05.900382,4213
2021-12-23 14:49:05.900392,4129
2021-12-23 14:49:05.900402,4032
2021-12-23 14:49:05.900411,3917
2021-12-23 14:49:05.900421,3804
2021-12-23 14:49:05.900431,3710
2021-12-23 14:49:05.900441,3621
2021-12-23 14:49:05.900451,3544
2021-12-23 14:49:05.900462,3482
2021-12-23 14:49:06.258467,3431
2021-12-23 14:49:06.258482,3407
2021-12-23 14:49:06.258487,3378
2021-12-23 14:49:06.258492,3330
2021-12-23 14:49:06.258496,3306
2021-12-23 14:49:06.258500,3282
2021-12-23 14:49:06.258505,3222
2021-12-23 14:49:06.258509,3181
2021-12-23 14:49:06.258514,3164
2021-12-23 14:49:06.258519,3126
2021-12-23 14:49:06.258523,3082
2021-12-23 14:49:06.258528,3034
2021-12-23 14:49:06.258532,2996
2021-12-23 14:49:06.258537,2993
2021-12-23 14:49:06.258541,2972
2021-12-23 14:49:06.258545,2909
2021-12-23 14:49:06.258550,2873
2021-12-23 14:49:06.258554,2854
2021-12-23 14:49:06.258559,2806
2021-12-23 14:49:06.258563,2763
2021-12-23 14:49:06.258572,2746
2021-12-23 14:49:06.258577,2722
2021-12-23 14:49:06.258582,2681
2021-12-23 14:49:06.258586,2635
2021-12-23 14:49:06.258590,2604
2021-12-23 14:49:06.258595,2587
2021-12-23 14:49:06.258599,2568
2021-12-23 14:49:06.258603,2544
2021-12-23 14:49:06.258608,2505
2021-12-23 14:49:06.258612,2462
2021-12-23 14:49:06.350209,2428
2021-12-23 14:49:06.350240,2402
2021-12-23 14:49:06.350269,2375
2021-12-23 14:49:06.350280,2347
2021-12-23 14:49:06.350290,2315
2021-12-23 14:49:06.350300,2303
2021-12-23 14:49:06.350310,2286
2021-12-23 14:49:06.350320,2253
2021-12-23 14:49:06.350329,2226
2021-12-23 14:49:06.350339,2202
2021-12-23 14:49:06.350349,2159
2021-12-23 14:49:06.350359,2113
2021-12-23 14:49:06.350369,2089
2021-12-23 14:49:06.350379,2080
2021-12-23 14:49:06.350388,2072
2021-12-23 14:49:06.350398,2065
2021-12-23 14:49:06.350412,2039
2021-12-23 14:49:06.350422,2007
2021-12-23 14:49:06.350432,1995
2021-12-23 14:49:06.350442,1991
2021-12-23 14:49:06.350451,1967
2021-12-23 14:49:06.350461,1935
2021-12-23 14:49:06.350471,1899
2021-12-23 14:49:06.350481,1863
2021-12-23 14:49:06.350491,1844
2021-12-23 14:49:06.350501,1832
2021-12-23 14:49:06.350510,1818
2021-12-23 14:49:06.350520,1796
2021-12-23 14:49:06.350530,1774
2021-12-23 14:49:06.350540,1765
2021-12-23 14:49:06.665180,1755
2021-12-23 14:49:06.665211,1729
2021-12-23 14:49:06.665226,1769
2021-12-23 14:49:06.665237,1947
2021-12-23 14:49:06.665246,2246
2021-12-23 14:49:06.665256,2573
2021-12-23 14:49:06.665266,2375
2021-12-23 14:49:06.665276,1507
2021-12-23 14:49:06.665286,1156
2021-12-23 14:49:06.665295,1551
2021-12-23 14:49:06.665305,1599
2021-12-23 14:49:06.665315,1370
2021-12-23 14:49:06.665325,1426
2021-12-23 14:49:06.665334,1490
2021-12-23 14:49:06.665344,1414
2021-12-23 14:49:06.665354,1397
2021-12-23 14:49:06.665363,1421
2021-12-23 14:49:06.665373,1401
2021-12-23 14:49:06.665383,1392
2021-12-23 14:49:06.665392,1397
2021-12-23 14:49:06.665405,1389
2021-12-23 14:49:06.665415,1361
2021-12-23 14:49:06.665425,1337
2021-12-23 14:49:06.665435,1353
2021-12-23 14:49:06.665444,1361
2021-12-23 14:49:06.665454,1334
2021-12-23 14:49:06.665464,1329
2021-12-23 14:49:06.665473,1339
2021-12-23 14:49:06.665483,1337
2021-12-23 14:49:06.665492,1344
2021-12-23 14:49:06.979653,1353
2021-12-23 14:49:06.979676,1358
2021-12-23 14:49:06.979684,1373
2021-12-23 14:49:06.979690,1385
2021-12-23 14:49:06.979697,1392
2021-12-23 14:49:06.979703,1397
2021-12-23 14:49:06.979710,1394
2021-12-23 14:49:06.979716,1380
2021-12-23 14:49:06.979722,1363
2021-12-23 14:49:06.979729,1334
2021-12-23 14:49:06.979741,1305
2021-12-23 14:49:06.979747,1252
2021-12-23 14:49:06.979754,1168
2021-12-23 14:49:06.979760,1086
2021-12-23 14:49:06.979766,1026
2021-12-23 14:49:06.979773,971
2021-12-23 14:49:06.979779,928
2021-12-23 14:49:06.979785,909
2021-12-23 14:49:06.979792,906
2021-12-23 14:49:06.979798,909
2021-12-23 14:49:06.979804,906
2021-12-23 14:49:06.979810,889
2021-12-23 14:49:06.979817,875
2021-12-23 14:49:06.979823,889
2021-12-23 14:49:06.979829,894
2021-12-23 14:49:06.979835,880
2021-12-23 14:49:06.979842,870
2021-12-23 14:49:06.979848,858
2021-12-23 14:49:06.979855,836
2021-12-23 14:49:06.979861,839
2021-12-23 14:49:07.113929,851
2021-12-23 14:49:07.113952,844
2021-12-23 14:49:07.113962,829
2021-12-23 14:49:07.113969,822
2021-12-23 14:49:07.113975,812
2021-12-23 14:49:07.113982,808
2021-12-23 14:49:07.113988,803
2021-12-23 14:49:07.113994,798
2021-12-23 14:49:07.114001,795
2021-12-23 14:49:07.114007,786
2021-12-23 14:49:07.114013,762
2021-12-23 14:49:07.114019,735
2021-12-23 14:49:07.114026,738
2021-12-23 14:49:07.114032,757
2021-12-23 14:49:07.114038,752
2021-12-23 14:49:07.114044,728
2021-12-23 14:49:07.114051,714
2021-12-23 14:49:07.114057,709
2021-12-23 14:49:07.114063,702
2021-12-23 14:49:07.114069,690
2021-12-23 14:49:07.114076,675
2021-12-23 14:49:07.114083,668
2021-12-23 14:49:07.114089,675
2021-12-23 14:49:07.114095,670
2021-12-23 14:49:07.114102,654
2021-12-23 14:49:07.114108,654
2021-12-23 14:49:07.114114,661
2021-12-23 14:49:07.114125,637
2021-12-23 14:49:07.114131,622
2021-12-23 14:49:07.114137,632
2021-12-23 14:49:07.340360,620
2021-12-23 14:49:07.340382,603
2021-12-23 14:49:07.340390,608
2021-12-23 14:49:07.340396,613
2021-12-23 14:49:07.340402,606
2021-12-23 14:49:07.340409,589
2021-12-23 14:49:07.340415,584
2021-12-23 14:49:07.340421,581
2021-12-23 14:49:07.340428,577
2021-12-23 14:49:07.340434,572
2021-12-23 14:49:07.340440,579
2021-12-23 14:49:07.340446,601
2021-12-23 14:49:07.340453,596
2021-12-23 14:49:07.340459,569
2021-12-23 14:49:07.340465,560
2021-12-23 14:49:07.340472,560
2021-12-23 14:49:07.340478,553
2021-12-23 14:49:07.340484,548
2021-12-23 14:49:07.340491,543
2021-12-23 14:49:07.340497,533
2021-12-23 14:49:07.340503,526
2021-12-23 14:49:07.340509,526
2021-12-23 14:49:07.340516,526
2021-12-23 14:49:07.340522,531
2021-12-23 14:49:07.340528,567
2021-12-23 14:49:07.340537,714
2021-12-23 14:49:07.340544,1036
2021-12-23 14:49:07.340550,1442
2021-12-23 14:49:07.340556,1385
2021-12-23 14:49:07.340563,557
2021-12-23 14:49:07.564052,24
2021-12-23 14:49:07.564074,370
2021-12-23 14:49:07.564082,557
2021-12-23 14:49:07.564088,351
2021-12-23 14:49:07.564094,365
2021-12-23 14:49:07.564101,466
2021-12-23 14:49:07.564107,411
2021-12-23 14:49:07.564113,404
2021-12-23 14:49:07.564120,468
2021-12-23 14:49:07.564126,454
2021-12-23 14:49:07.564132,425
2021-12-23 14:49:07.564138,447
2021-12-23 14:49:07.564145,449
2021-12-23 14:49:07.564151,435
2021-12-23 14:49:07.564157,444
2021-12-23 14:49:07.564164,449
2021-12-23 14:49:07.564170,444
2021-12-23 14:49:07.564176,459
2021-12-23 14:49:07.564183,476
2021-12-23 14:49:07.564189,483
2021-12-23 14:49:07.564195,490
2021-12-23 14:49:07.564202,488
2021-12-23 14:49:07.564208,497
2021-12-23 14:49:07.564214,538
2021-12-23 14:49:07.564220,557
2021-12-23 14:49:07.564227,557
2021-12-23 14:49:07.564233,591
2021-12-23 14:49:07.564245,618
2021-12-23 14:49:07.564252,610
2021-12-23 14:49:07.564258,615
2021-12-23 14:49:07.879589,634
2021-12-23 14:49:07.879620,620
2021-12-23 14:49:07.879631,574
2021-12-23 14:49:07.879641,521
2021-12-23 14:49:07.879652,452
2021-12-23 14:49:07.879662,375
2021-12-23 14:49:07.879672,312
2021-12-23 14:49:07.879682,266
2021-12-23 14:49:07.879692,238
2021-12-23 14:49:07.879702,221
2021-12-23 14:49:07.879712,216
2021-12-23 14:49:07.879722,228
2021-12-23 14:49:07.879732,238
2021-12-23 14:49:07.879742,233
2021-12-23 14:49:07.879752,230
2021-12-23 14:49:07.879761,240
2021-12-23 14:49:07.879771,245
2021-12-23 14:49:07.879781,240
2021-12-23 14:49:07.879791,245
2021-12-23 14:49:07.879801,250
2021-12-23 14:49:07.879811,254
2021-12-23 14:49:07.879821,286
2021-12-23 14:49:07.879830,290
2021-12-23 14:49:07.879840,262
2021-12-23 14:49:07.879850,259
2021-12-23 14:49:07.879860,274
2021-12-23 14:49:07.879870,262
2021-12-23 14:49:07.879880,247
2021-12-23 14:49:07.879890,247
2021-12-23 14:49:07.879899,252
2021-12-23 14:49:07.970207,252
2021-12-23 14:49:07.970238,250
2021-12-23 14:49:07.970250,247
2021-12-23 14:49:07.970263,242
2021-12-23 14:49:07.970273,245
2021-12-23 14:49:07.970283,247
2021-12-23 14:49:07.970293,238
2021-12-23 14:49:07.970302,242
2021-12-23 14:49:07.970312,247
2021-12-23 14:49:07.970322,238
2021-12-23 14:49:07.970332,240
2021-12-23 14:49:07.970342,240
2021-12-23 14:49:07.970352,235
2021-12-23 14:49:07.970361,235
2021-12-23 14:49:07.970371,235
2021-12-23 14:49:07.970381,252
2021-12-23 14:49:07.970391,262
2021-12-23 14:49:07.970400,240
2021-12-23 14:49:07.970410,233
2021-12-23 14:49:07.970420,247
2021-12-23 14:49:07.970430,245
2021-12-23 14:49:07.970439,235
2021-12-23 14:49:07.970449,230
2021-12-23 14:49:07.970459,223
2021-12-23 14:49:07.970469,218
2021-12-23 14:49:07.970478,233
2021-12-23 14:49:07.970502,245
2021-12-23 14:49:07.970512,242
2021-12-23 14:49:07.970522,254
2021-12-23 14:49:07.970532,262
2021-12-23 14:49:08.239357,235
2021-12-23 14:49:08.239388,233
2021-12-23 14:49:08.239400,245
2021-12-23 14:49:08.239410,233
2021-12-23 14:49:08.239420,221
2021-12-23 14:49:08.239430,226
2021-12-23 14:49:08.239440,226
2021-12-23 14:49:08.239449,223
2021-12-23 14:49:08.239459,228
2021-12-23 14:49:08.239469,233
2021-12-23 14:49:08.239479,228
2021-12-23 14:49:08.239488,226
2021-12-23 14:49:08.239498,286
2021-12-23 14:49:08.239531,488
2021-12-23 14:49:08.239541,848
2021-12-23 14:49:08.239551,1156
2021-12-23 14:49:08.239560,812
2021-12-23 14:49:08.239570,-28
2021-12-23 14:49:08.239580,-189
2021-12-23 14:49:08.239590,214
2021-12-23 14:49:08.239600,226
2021-12-23 14:49:08.239610,86
2021-12-23 14:49:08.239619,165
2021-12-23 14:49:08.239629,202
2021-12-23 14:49:08.239639,153
2021-12-23 14:49:08.239648,173
2021-12-23 14:49:08.239658,202
2021-12-23 14:49:08.239668,189
2021-12-23 14:49:08.239677,192
2021-12-23 14:49:08.239687,211
2021-12-23 14:49:08.510090,216
2021-12-23 14:49:08.510111,221
2021-12-23 14:49:08.510118,228
2021-12-23 14:49:08.510125,230
2021-12-23 14:49:08.510131,228
2021-12-23 14:49:08.510138,233
2021-12-23 14:49:08.510144,252
2021-12-23 14:49:08.510150,281
2021-12-23 14:49:08.510157,298
2021-12-23 14:49:08.510163,300
2021-12-23 14:49:08.510170,317
2021-12-23 14:49:08.510176,341
2021-12-23 14:49:08.510182,365
2021-12-23 14:49:08.510189,394
2021-12-23 14:49:08.510195,418
2021-12-23 14:49:08.510201,418
2021-12-23 14:49:08.510208,430
2021-12-23 14:49:08.510214,444
2021-12-23 14:49:08.510220,437
2021-12-23 14:49:08.510226,418
2021-12-23 14:49:08.510233,387
2021-12-23 14:49:08.510239,324
2021-12-23 14:49:08.510245,247
2021-12-23 14:49:08.510252,187
2021-12-23 14:49:08.510258,141
2021-12-23 14:49:08.510264,105
2021-12-23 14:49:08.510271,81
2021-12-23 14:49:08.510277,69
2021-12-23 14:49:08.510292,69
2021-12-23 14:49:08.510299,79
2021-12-23 14:49:08.690671,79
2021-12-23 14:49:08.690702,84
2021-12-23 14:49:08.690713,98
2021-12-23 14:49:08.690723,105
2021-12-23 14:49:08.690733,108
2021-12-23 14:49:08.690743,110
2021-12-23 14:49:08.690753,127
2021-12-23 14:49:08.690762,144
2021-12-23 14:49:08.690772,134
2021-12-23 14:49:08.690782,117
2021-12-23 14:49:08.690792,125
2021-12-23 14:49:08.690801,139
2021-12-23 14:49:08.690811,134
2021-12-23 14:49:08.690821,129
2021-12-23 14:49:08.690831,132
2021-12-23 14:49:08.690840,122
2021-12-23 14:49:08.690850,117
2021-12-23 14:49:08.690860,127
2021-12-23 14:49:08.690870,137
2021-12-23 14:49:08.690879,134
2021-12-23 14:49:08.690889,125
2021-12-23 14:49:08.690899,125
2021-12-23 14:49:08.690908,127
2021-12-23 14:49:08.690918,132
2021-12-23 14:49:08.690928,134
2021-12-23 14:49:08.690937,132
2021-12-23 14:49:08.690947,132
2021-12-23 14:49:08.690957,129
2021-12-23 14:49:08.690967,132
2021-12-23 14:49:08.690976,132
2021-12-23 14:49:08.915658,132
2021-12-23 14:49:08.915688,134
2021-12-23 14:49:08.915700,134
2021-12-23 14:49:08.915710,132
2021-12-23 14:49:08.915720,127
2021-12-23 14:49:08.915730,132
2021-12-23 14:49:08.915740,146
2021-12-23 14:49:08.915750,144
2021-12-23 14:49:08.915760,127
2021-12-23 14:49:08.915769,127
2021-12-23 14:49:08.915779,127
2021-12-23 14:49:08.915789,117
2021-12-23 14:49:08.915798,115
2021-12-23 14:49:08.915808,127
2021-12-23 14:49:08.915818,132
2021-12-23 14:49:08.915828,146
2021-12-23 14:49:08.915838,170
2021-12-23 14:49:08.915848,165
2021-12-23 14:49:08.915857,153
2021-12-23 14:49:08.915872,146
2021-12-23 14:49:08.915882,139
2021-12-23 14:49:08.915892,149
2021-12-23 14:49:08.915902,156
2021-12-23 14:49:08.915911,139
2021-12-23 14:49:08.915921,134
2021-12-23 14:49:08.915931,149
2021-12-23 14:49:08.915940,146
2021-12-23 14:49:08.915950,149
2021-12-23 14:49:08.915960,161
2021-12-23 14:49:08.915970,165
2021-12-23 14:49:09.184261,247
2021-12-23 14:49:09.184290,488
2021-12-23 14:49:09.184302,868
2021-12-23 14:49:09.184313,1115
2021-12-23 14:49:09.184323,610
2021-12-23 14:49:09.184335,-206
2021-12-23 14:49:09.184346,-173
2021-12-23 14:49:09.184356,209
2021-12-23 14:49:09.184368,91
2021-12-23 14:49:09.184378,-28
2021-12-23 14:49:09.184389,93
2021-12-23 14:49:09.184401,110
2021-12-23 14:49:09.184433,62
2021-12-23 14:49:09.184446,93
2021-12-23 14:49:09.184457,110
2021-12-23 14:49:09.184467,96
2021-12-23 14:49:09.184478,115
2021-12-23 14:49:09.184489,132
2021-12-23 14:49:09.184500,125
2021-12-23 14:49:09.184511,127
2021-12-23 14:49:09.184523,137
2021-12-23 14:49:09.184536,134
2021-12-23 14:49:09.184549,137
2021-12-23 14:49:09.184561,165
2021-12-23 14:49:09.184572,185
2021-12-23 14:49:09.184583,175
2021-12-23 14:49:09.184595,180
2021-12-23 14:49:09.184606,206
2021-12-23 14:49:09.184618,242
2021-12-23 14:49:09.184629,274
2021-12-23 14:49:09.410058,298
2021-12-23 14:49:09.410080,317
2021-12-23 14:49:09.410088,329
2021-12-23 14:49:09.410094,336
2021-12-23 14:49:09.410100,343
2021-12-23 14:49:09.410107,348
2021-12-23 14:49:09.410113,343
2021-12-23 14:49:09.410119,319
2021-12-23 14:49:09.410126,281
2021-12-23 14:49:09.410132,228
2021-12-23 14:49:09.410138,149
2021-12-23 14:49:09.410145,72
2021-12-23 14:49:09.410151,31
2021-12-23 14:49:09.410157,9
2021-12-23 14:49:09.410164,-7
2021-12-23 14:49:09.410170,-14
2021-12-23 14:49:09.410180,-12
2021-12-23 14:49:09.410186,-9
2021-12-23 14:49:09.410192,0
2021-12-23 14:49:09.410199,7
2021-12-23 14:49:09.410205,7
2021-12-23 14:49:09.410212,4
2021-12-23 14:49:09.410218,16
2021-12-23 14:49:09.410224,28
2021-12-23 14:49:09.410231,26
2021-12-23 14:49:09.410237,26
2021-12-23 14:49:09.410243,40
2021-12-23 14:49:09.410250,52
2021-12-23 14:49:09.410256,50
2021-12-23 14:49:09.410262,38
2021-12-23 14:49:09.590357,43
2021-12-23 14:49:09.590379,57
2021-12-23 14:49:09.590387,60
2021-12-23 14:49:09.590393,57
2021-12-23 14:49:09.590400,64
2021-12-23 14:49:09.590406,69
2021-12-23 14:49:09.590412,69
2021-12-23 14:49:09.590418,74
2021-12-23 14:49:09.590425,64
2021-12-23 14:49:09.590431,36
2021-12-23 14:49:09.590437,38
2021-12-23 14:49:09.590444,60
2021-12-23 14:49:09.590450,50
2021-12-23 14:49:09.590456,43
2021-12-23 14:49:09.590463,62
2021-12-23 14:49:09.590469,81
2021-12-23 14:49:09.590475,69
2021-12-23 14:49:09.590482,40
2021-12-23 14:49:09.590488,50
2021-12-23 14:49:09.590494,88
2021-12-23 14:49:09.590501,79
2021-12-23 14:49:09.590507,57
2021-12-23 14:49:09.590513,72
2021-12-23 14:49:09.590519,79
2021-12-23 14:49:09.590526,69
2021-12-23 14:49:09.590532,74
2021-12-23 14:49:09.590538,79
2021-12-23 14:49:09.590544,67
2021-12-23 14:49:09.590551,52
2021-12-23 14:49:09.590557,50
2021-12-23 14:49:09.860366,60
2021-12-23 14:49:09.860388,62
2021-12-23 14:49:09.860396,62
2021-12-23 14:49:09.860403,76
2021-12-23 14:49:09.860410,88
2021-12-23 14:49:09.860416,81
2021-12-23 14:49:09.860423,96
2021-12-23 14:49:09.860429,110
2021-12-23 14:49:09.860436,91
2021-12-23 14:49:09.860442,79
2021-12-23 14:49:09.860448,84
2021-12-23 14:49:09.860455,74
2021-12-23 14:49:09.860461,62
2021-12-23 14:49:09.860468,67
2021-12-23 14:49:09.860474,67
2021-12-23 14:49:09.860481,69
2021-12-23 14:49:09.860487,81
2021-12-23 14:49:09.860494,96
2021-12-23 14:49:09.860500,120
2021-12-23 14:49:09.860507,218
2021-12-23 14:49:09.860517,466
2021-12-23 14:49:09.860523,844
2021-12-23 14:49:09.860530,1005
2021-12-23 14:49:09.860536,408
2021-12-23 14:49:09.860543,-303
2021-12-23 14:49:09.860549,-158
2021-12-23 14:49:09.860556,161
2021-12-23 14:49:09.860562,19
2021-12-23 14:49:09.860568,-45
2021-12-23 14:49:09.860575,69
2021-12-23 14:49:10.040389,52
2021-12-23 14:49:10.040418,12
2021-12-23 14:49:10.040429,60
2021-12-23 14:49:10.040439,81
2021-12-23 14:49:10.040449,57
2021-12-23 14:49:10.040458,64
2021-12-23 14:49:10.040468,91
2021-12-23 14:49:10.040478,88
2021-12-23 14:49:10.040487,69
2021-12-23 14:49:10.040497,81
2021-12-23 14:49:10.040507,113
2021-12-23 14:49:10.040516,120
2021-12-23 14:49:10.040526,120
2021-12-23 14:49:10.040535,139
2021-12-23 14:49:10.040545,153
2021-12-23 14:49:10.040554,151
2021-12-23 14:49:10.040564,168
2021-12-23 14:49:10.040573,194
2021-12-23 14:49:10.040583,216
2021-12-23 14:49:10.040593,242
2021-12-23 14:49:10.040602,266
2021-12-23 14:49:10.040612,278
2021-12-23 14:49:10.040621,290
2021-12-23 14:49:10.040631,305
2021-12-23 14:49:10.040640,322
2021-12-23 14:49:10.040650,319
2021-12-23 14:49:10.040660,290
2021-12-23 14:49:10.040669,242
2021-12-23 14:49:10.040679,182
2021-12-23 14:49:10.040688,115
2021-12-23 14:49:10.398533,40
2021-12-23 14:49:10.398554,-16
2021-12-23 14:49:10.398561,-48
2021-12-23 14:49:10.398568,-64
2021-12-23 14:49:10.398574,-60
2021-12-23 14:49:10.398580,-31
2021-12-23 14:49:10.398587,-28
2021-12-23 14:49:10.398593,-48
2021-12-23 14:49:10.398599,-38
2021-12-23 14:49:10.398605,-16
2021-12-23 14:49:10.398622,-26
2021-12-23 14:49:10.398629,-38
2021-12-23 14:49:10.398635,-14
2021-12-23 14:49:10.398641,2
2021-12-23 14:49:10.398648,-12
2021-12-23 14:49:10.398654,-2
2021-12-23 14:49:10.398660,16
2021-12-23 14:49:10.398667,2
2021-12-23 14:49:10.398673,4
2021-12-23 14:49:10.398679,21
2021-12-23 14:49:10.398686,24
2021-12-23 14:49:10.398692,21
2021-12-23 14:49:10.398698,14
2021-12-23 14:49:10.398705,9
2021-12-23 14:49:10.398711,16
2021-12-23 14:49:10.398717,24
2021-12-23 14:49:10.398724,31
2021-12-23 14:49:10.398730,38
2021-12-23 14:49:10.398736,43
2021-12-23 14:49:10.398743,48
2021-12-23 14:49:10.535382,48
2021-12-23 14:49:10.535413,43
2021-12-23 14:49:10.535430,43
2021-12-23 14:49:10.535440,43
2021-12-23 14:49:10.535449,40
2021-12-23 14:49:10.535459,43
2021-12-23 14:49:10.535469,45
2021-12-23 14:49:10.535479,43
2021-12-23 14:49:10.535488,43
2021-12-23 14:49:10.535498,48
2021-12-23 14:49:10.535508,50
2021-12-23 14:49:10.535517,55
2021-12-23 14:49:10.535527,67
2021-12-23 14:49:10.535537,72
2021-12-23 14:49:10.535546,57
2021-12-23 14:49:10.535556,48
2021-12-23 14:49:10.535566,52
2021-12-23 14:49:10.535576,52
2021-12-23 14:49:10.535585,50
2021-12-23 14:49:10.535595,60
2021-12-23 14:49:10.535605,79
2021-12-23 14:49:10.535614,96
2021-12-23 14:49:10.535624,88
2021-12-23 14:49:10.535634,74
2021-12-23 14:49:10.535643,69
2021-12-23 14:49:10.535653,74
2021-12-23 14:49:10.535663,84
2021-12-23 14:49:10.535672,81
2021-12-23 14:49:10.535682,62
2021-12-23 14:49:10.535692,69
2021-12-23 14:49:10.848668,98
2021-12-23 14:49:10.848688,93
2021-12-23 14:49:10.848695,74
2021-12-23 14:49:10.848702,91
2021-12-23 14:49:10.848709,108
2021-12-23 14:49:10.848715,153
2021-12-23 14:49:10.848721,348
2021-12-23 14:49:10.848728,704
2021-12-23 14:49:10.848734,969
2021-12-23 14:49:10.848740,591
2021-12-23 14:49:10.848747,-206
2021-12-23 14:49:10.848753,-303
2021-12-23 14:49:10.848760,98
2021-12-23 14:49:10.848766,69
2021-12-23 14:49:10.848773,-74
2021-12-23 14:49:10.848779,26
2021-12-23 14:49:10.848786,74
2021-12-23 14:49:10.848792,16
2021-12-23 14:49:10.848799,14
2021-12-23 14:49:10.848805,48
2021-12-23 14:49:10.848812,69
2021-12-23 14:49:10.848818,67
2021-12-23 14:49:10.848825,55
2021-12-23 14:49:10.848831,69
2021-12-23 14:49:10.848837,96
2021-12-23 14:49:10.848844,98
2021-12-23 14:49:10.848850,101
2021-12-23 14:49:10.848856,117
2021-12-23 14:49:10.848863,125
2021-12-23 14:49:10.848869,141
2021-12-23 14:49:10.985645,170
2021-12-23 14:49:10.985677,175
2021-12-23 14:49:10.985690,177
2021-12-23 14:49:10.985701,194
2021-12-23 14:49:10.985712,218
2021-12-23 14:49:10.985724,254
2021-12-23 14:49:10.985735,283
2021-12-23 14:49:10.985745,290
2021-12-23 14:49:10.985756,290
2021-12-23 14:49:10.985767,305
2021-12-23 14:49:10.986032,324
2021-12-23 14:49:10.986046,319
2021-12-23 14:49:10.986053,303
2021-12-23 14:49:10.986060,269
2021-12-23 14:49:10.986066,187
2021-12-23 14:49:10.986073,91
2021-12-23 14:49:10.986079,40
2021-12-23 14:49:10.986085,4
2021-12-23 14:49:10.986091,-31
2021-12-23 14:49:10.986098,-52
2021-12-23 14:49:10.986104,-52
2021-12-23 14:49:10.986110,-38
2021-12-23 14:49:10.986116,-31
2021-12-23 14:49:10.986126,-36
2021-12-23 14:49:10.986132,-28
2021-12-23 14:49:10.986138,-9
2021-12-23 14:49:10.986145,-16
2021-12-23 14:49:10.986151,-21
2021-12-23 14:49:10.986157,4
2021-12-23 14:49:10.986163,4
2021-12-23 14:49:11.254752,-9
2021-12-23 14:49:11.254781,4
2021-12-23 14:49:11.254793,19
2021-12-23 14:49:11.254803,21
2021-12-23 14:49:11.254813,19
2021-12-23 14:49:11.254823,24
2021-12-23 14:49:11.254833,45
2021-12-23 14:49:11.254842,50
2021-12-23 14:49:11.254852,33
2021-12-23 14:49:11.254862,21
2021-12-23 14:49:11.254872,19
2021-12-23 14:49:11.254881,19
2021-12-23 14:49:11.254891,14
2021-12-23 14:49:11.254901,16
2021-12-23 14:49:11.254911,21
2021-12-23 14:49:11.254920,19
2021-12-23 14:49:11.254930,28
2021-12-23 14:49:11.254940,38
2021-12-23 14:49:11.254949,28
2021-12-23 14:49:11.254959,21
2021-12-23 14:49:11.254969,33
2021-12-23 14:49:11.254978,40
2021-12-23 14:49:11.254988,26
2021-12-23 14:49:11.254998,24
2021-12-23 14:49:11.255007,43
2021-12-23 14:49:11.255017,33
2021-12-23 14:49:11.255027,24
2021-12-23 14:49:11.255036,52
2021-12-23 14:49:11.255046,69
2021-12-23 14:49:11.255056,43
2021-12-23 14:49:11.435214,28
2021-12-23 14:49:11.435243,36
2021-12-23 14:49:11.435255,33
2021-12-23 14:49:11.435265,40
2021-12-23 14:49:11.435275,55
2021-12-23 14:49:11.435285,62
2021-12-23 14:49:11.435295,74
2021-12-23 14:49:11.435304,96
2021-12-23 14:49:11.435314,88
2021-12-23 14:49:11.435324,62
2021-12-23 14:49:11.435334,62
2021-12-23 14:49:11.435343,69
2021-12-23 14:49:11.435353,62
2021-12-23 14:49:11.435363,64
2021-12-23 14:49:11.435372,69
2021-12-23 14:49:11.435382,64
2021-12-23 14:49:11.435392,64
2021-12-23 14:49:11.435402,79
2021-12-23 14:49:11.435411,91
2021-12-23 14:49:11.435421,88
2021-12-23 14:49:11.435430,158
2021-12-23 14:49:11.435440,379
2021-12-23 14:49:11.435450,728
2021-12-23 14:49:11.435460,976
2021-12-23 14:49:11.435469,567
2021-12-23 14:49:11.435479,-218
2021-12-23 14:49:11.435489,-271
2021-12-23 14:49:11.435499,122
2021-12-23 14:49:11.435509,76
2021-12-23 14:49:11.435519,-69
2021-12-23 14:49:11.660118,7
2021-12-23 14:49:11.660148,60
2021-12-23 14:49:11.660159,40
2021-12-23 14:49:11.660169,52
2021-12-23 14:49:11.660179,69
2021-12-23 14:49:11.660189,62
2021-12-23 14:49:11.660198,55
2021-12-23 14:49:11.660208,64
2021-12-23 14:49:11.660218,74
2021-12-23 14:49:11.660228,76
2021-12-23 14:49:11.660237,84
2021-12-23 14:49:11.660247,98
2021-12-23 14:49:11.660257,113
2021-12-23 14:49:11.660266,115
2021-12-23 14:49:11.660276,117
2021-12-23 14:49:11.660286,137
2021-12-23 14:49:11.660295,161
2021-12-23 14:49:11.660305,163
2021-12-23 14:49:11.660314,170
2021-12-23 14:49:11.660324,214
2021-12-23 14:49:11.660334,252
2021-12-23 14:49:11.660343,262
2021-12-23 14:49:11.660353,278
2021-12-23 14:49:11.660363,295
2021-12-23 14:49:11.660372,298
2021-12-23 14:49:11.660388,298
2021-12-23 14:49:11.660398,295
2021-12-23 14:49:11.660407,274
2021-12-23 14:49:11.660417,218
2021-12-23 14:49:11.660427,149
2021-12-23 14:49:11.885270,93
2021-12-23 14:49:11.885298,40
2021-12-23 14:49:11.885310,-4
2021-12-23 14:49:11.885320,-36
2021-12-23 14:49:11.885331,-60
2021-12-23 14:49:11.885341,-64
2021-12-23 14:49:11.885351,-48
2021-12-23 14:49:11.885361,-43
2021-12-23 14:49:11.885370,-43
2021-12-23 14:49:11.885380,-33
2021-12-23 14:49:11.885390,-21
2021-12-23 14:49:11.885400,-14
2021-12-23 14:49:11.885410,-16
2021-12-23 14:49:11.885419,-16
2021-12-23 14:49:11.885429,-4
2021-12-23 14:49:11.885439,-7
2021-12-23 14:49:11.885449,-14
2021-12-23 14:49:11.885459,-2
2021-12-23 14:49:11.885468,16
2021-12-23 14:49:11.885478,24
2021-12-23 14:49:11.885488,24
2021-12-23 14:49:11.885497,14
2021-12-23 14:49:11.885507,19
2021-12-23 14:49:11.885516,33
2021-12-23 14:49:11.885526,21
2021-12-23 14:49:11.885536,12
2021-12-23 14:49:11.885545,19
2021-12-23 14:49:11.885555,24
2021-12-23 14:49:11.885565,26
2021-12-23 14:49:11.885574,26
2021-12-23 14:49:12.200063,21
2021-12-23 14:49:12.200080,21
2021-12-23 14:49:12.200087,31
2021-12-23 14:49:12.200092,38
2021-12-23 14:49:12.200097,31
2021-12-23 14:49:12.200102,31
2021-12-23 14:49:12.200108,31
2021-12-23 14:49:12.200113,26
2021-12-23 14:49:12.200118,36
2021-12-23 14:49:12.200123,38
2021-12-23 14:49:12.200128,31
2021-12-23 14:49:12.200134,31
2021-12-23 14:49:12.200139,31
2021-12-23 14:49:12.200144,36
2021-12-23 14:49:12.200149,40
2021-12-23 14:49:12.200154,36
2021-12-23 14:49:12.200159,26
2021-12-23 14:49:12.200167,26
2021-12-23 14:49:12.200176,40
2021-12-23 14:49:12.200187,55
2021-12-23 14:49:12.200197,62
2021-12-23 14:49:12.200205,74
2021-12-23 14:49:12.200213,81
2021-12-23 14:49:12.200220,72
2021-12-23 14:49:12.200227,64
2021-12-23 14:49:12.200236,60
2021-12-23 14:49:12.200243,48
2021-12-23 14:49:12.200251,43
2021-12-23 14:49:12.200259,57
2021-12-23 14:49:12.200267,69
2021-12-23 14:49:12.423693,67
2021-12-23 14:49:12.423715,67
2021-12-23 14:49:12.423723,79
2021-12-23 14:49:12.423729,86
2021-12-23 14:49:12.423736,76
2021-12-23 14:49:12.423742,134
2021-12-23 14:49:12.423749,341
2021-12-23 14:49:12.423755,668
2021-12-23 14:49:12.423761,964
2021-12-23 14:49:12.423767,673
2021-12-23 14:49:12.423774,-144
2021-12-23 14:49:12.423780,-317
2021-12-23 14:49:12.423786,84
2021-12-23 14:49:12.423793,76
2021-12-23 14:49:12.423799,-84
2021-12-23 14:49:12.423805,9
2021-12-23 14:49:12.423811,57
2021-12-23 14:49:12.423818,9
2021-12-23 14:49:12.423824,26
2021-12-23 14:49:12.423830,45
2021-12-23 14:49:12.423836,36
2021-12-23 14:49:12.423843,52
2021-12-23 14:49:12.423849,72
2021-12-23 14:49:12.423855,55
2021-12-23 14:49:12.423861,52
2021-12-23 14:49:12.423867,88
2021-12-23 14:49:12.423874,101
2021-12-23 14:49:12.423880,91
2021-12-23 14:49:12.423886,105
2021-12-23 14:49:12.423893,129
2021-12-23 14:49:12.605268,139
2021-12-23 14:49:12.605291,153
2021-12-23 14:49:12.605298,168
2021-12-23 14:49:12.605305,170
2021-12-23 14:49:12.605311,185
2021-12-23 14:49:12.605318,230
2021-12-23 14:49:12.605324,276
2021-12-23 14:49:12.605330,293
2021-12-23 14:49:12.605343,298
2021-12-23 14:49:12.605350,312
2021-12-23 14:49:12.605356,315
2021-12-23 14:49:12.605362,288
2021-12-23 14:49:12.605369,266
2021-12-23 14:49:12.605375,245
2021-12-23 14:49:12.605381,173
2021-12-23 14:49:12.605387,79
2021-12-23 14:49:12.605394,21
2021-12-23 14:49:12.605400,-4
2021-12-23 14:49:12.605407,-24
2021-12-23 14:49:12.605413,-38
2021-12-23 14:49:12.605419,-38
2021-12-23 14:49:12.605425,-38
2021-12-23 14:49:12.605431,-36
2021-12-23 14:49:12.605438,-19
2021-12-23 14:49:12.605444,2
2021-12-23 14:49:12.605450,14
2021-12-23 14:49:12.605457,-19
2021-12-23 14:49:12.605463,-64
2021-12-23 14:49:12.605469,-33
2021-12-23 14:49:12.605475,7
2021-12-23 14:49:12.830530,-19
2021-12-23 14:49:12.830561,-19
2021-12-23 14:49:12.830572,19
2021-12-23 14:49:12.830582,19
2021-12-23 14:49:12.830592,7
2021-12-23 14:49:12.830602,14
2021-12-23 14:49:12.830612,9
2021-12-23 14:49:12.830621,-2
2021-12-23 14:49:12.830631,0
2021-12-23 14:49:12.830641,4
2021-12-23 14:49:12.830651,12
2021-12-23 14:49:12.830660,21
2021-12-23 14:49:12.830670,24
2021-12-23 14:49:12.830680,28
2021-12-23 14:49:12.830690,43
2021-12-23 14:49:12.830700,31
2021-12-23 14:49:12.830710,2
2021-12-23 14:49:12.830719,9
2021-12-23 14:49:12.830730,21
2021-12-23 14:49:12.830740,21
2021-12-23 14:49:12.830750,16
2021-12-23 14:49:12.830760,19
2021-12-23 14:49:12.830769,31
2021-12-23 14:49:12.830779,38
2021-12-23 14:49:12.830788,45
2021-12-23 14:49:12.830798,62
2021-12-23 14:49:12.830808,64
2021-12-23 14:49:12.830817,55
2021-12-23 14:49:12.830827,45
2021-12-23 14:49:12.830837,21
2021-12-23 14:49:13.054753,21
2021-12-23 14:49:13.054777,48
2021-12-23 14:49:13.054785,52
2021-12-23 14:49:13.054792,55
2021-12-23 14:49:13.054798,72
2021-12-23 14:49:13.054805,62
2021-12-23 14:49:13.054811,31
2021-12-23 14:49:13.054818,33
2021-12-23 14:49:13.054824,36
2021-12-23 14:49:13.054831,26
2021-12-23 14:49:13.054837,38
2021-12-23 14:49:13.054844,64
2021-12-23 14:49:13.054850,79
2021-12-23 14:49:13.054857,72
2021-12-23 14:49:13.054863,60
2021-12-23 14:49:13.054870,64
2021-12-23 14:49:13.054887,62
2021-12-23 14:49:13.054894,52
2021-12-23 14:49:13.054900,60
2021-12-23 14:49:13.054907,67
2021-12-23 14:49:13.054913,57
2021-12-23 14:49:13.054920,57
2021-12-23 14:49:13.054926,67
2021-12-23 14:49:13.054932,62
2021-12-23 14:49:13.054939,69
2021-12-23 14:49:13.054945,86
2021-12-23 14:49:13.054951,139
2021-12-23 14:49:13.054958,339
2021-12-23 14:49:13.054964,728
2021-12-23 14:49:13.054971,1055
2021-12-23 14:49:13.280107,663
2021-12-23 14:49:13.280137,-182
2021-12-23 14:49:13.280149,-274
2021-12-23 14:49:13.280159,113
2021-12-23 14:49:13.280169,45
2021-12-23 14:49:13.280179,-103
2021-12-23 14:49:13.280188,-2
2021-12-23 14:49:13.280198,26
2021-12-23 14:49:13.280208,-16
2021-12-23 14:49:13.280218,16
2021-12-23 14:49:13.280228,33
2021-12-23 14:49:13.280237,21
2021-12-23 14:49:13.280247,45
2021-12-23 14:49:13.280257,52
2021-12-23 14:49:13.280266,33
2021-12-23 14:49:13.280276,50
2021-12-23 14:49:13.280286,76
2021-12-23 14:49:13.280296,64
2021-12-23 14:49:13.280305,72
2021-12-23 14:49:13.280315,96
2021-12-23 14:49:13.280324,101
2021-12-23 14:49:13.280334,115
2021-12-23 14:49:13.280344,146
2021-12-23 14:49:13.280354,168
2021-12-23 14:49:13.280363,175
2021-12-23 14:49:13.280373,192
2021-12-23 14:49:13.280383,221
2021-12-23 14:49:13.280392,252
2021-12-23 14:49:13.280402,274
2021-12-23 14:49:13.280412,293
2021-12-23 14:49:13.504823,300
2021-12-23 14:49:13.504842,295
2021-12-23 14:49:13.504850,290
2021-12-23 14:49:13.504857,281
2021-12-23 14:49:13.504867,238
2021-12-23 14:49:13.504873,163
2021-12-23 14:49:13.504897,101
2021-12-23 14:49:13.504904,57
2021-12-23 14:49:13.504910,0
2021-12-23 14:49:13.504917,-62
2021-12-23 14:49:13.504923,-81
2021-12-23 14:49:13.504929,-67
2021-12-23 14:49:13.504935,-67
2021-12-23 14:49:13.504942,-69
2021-12-23 14:49:13.504948,-62
2021-12-23 14:49:13.504954,-57
2021-12-23 14:49:13.504961,-57
2021-12-23 14:49:13.504967,-28
2021-12-23 14:49:13.504973,-2
2021-12-23 14:49:13.504979,-4
2021-12-23 14:49:13.504985,-2
2021-12-23 14:49:13.504992,-16
2021-12-23 14:49:13.504998,-38
2021-12-23 14:49:13.505004,-26
2021-12-23 14:49:13.505010,-24
2021-12-23 14:49:13.505016,-26
2021-12-23 14:49:13.505023,2
2021-12-23 14:49:13.505029,9
2021-12-23 14:49:13.505035,-12
2021-12-23 14:49:13.505042,0
2021-12-23 14:49:13.730634,21
2021-12-23 14:49:13.730657,14
2021-12-23 14:49:13.730665,16
2021-12-23 14:49:13.730671,12
2021-12-23 14:49:13.730678,-7
2021-12-23 14:49:13.730684,-7
2021-12-23 14:49:13.730690,9
2021-12-23 14:49:13.730697,0
2021-12-23 14:49:13.730703,-7
2021-12-23 14:49:13.730709,2
2021-12-23 14:49:13.730716,-4
2021-12-23 14:49:13.730722,-9
2021-12-23 14:49:13.730728,4
2021-12-23 14:49:13.730734,0
2021-12-23 14:49:13.730741,-7
2021-12-23 14:49:13.730747,0
2021-12-23 14:49:13.730753,4
2021-12-23 14:49:13.730759,2
2021-12-23 14:49:13.730766,2
2021-12-23 14:49:13.730772,14
2021-12-23 14:49:13.730778,24
2021-12-23 14:49:13.730784,21
2021-12-23 14:49:13.730791,9
2021-12-23 14:49:13.730797,2
2021-12-23 14:49:13.730803,19
2021-12-23 14:49:13.730810,33
2021-12-23 14:49:13.730824,14
2021-12-23 14:49:13.730831,4
2021-12-23 14:49:13.730837,24
2021-12-23 14:49:13.730843,40
2021-12-23 14:49:14.090463,43
2021-12-23 14:49:14.090485,50
2021-12-23 14:49:14.090493,62
2021-12-23 14:49:14.090500,55
2021-12-23 14:49:14.090506,31
2021-12-23 14:49:14.090513,43
2021-12-23 14:49:14.090519,57
2021-12-23 14:49:14.090525,33
2021-12-23 14:49:14.090532,31
2021-12-23 14:49:14.090538,50
2021-12-23 14:49:14.090545,43
2021-12-23 14:49:14.090551,24
2021-12-23 14:49:14.090557,33
2021-12-23 14:49:14.090564,48
2021-12-23 14:49:14.090570,38
2021-12-23 14:49:14.090577,43
2021-12-23 14:49:14.090583,134
2021-12-23 14:49:14.090589,367
2021-12-23 14:49:14.090596,743
2021-12-23 14:49:14.090603,1014
2021-12-23 14:49:14.090609,574
2021-12-23 14:49:14.090615,-274
2021-12-23 14:49:14.090622,-329
2021-12-23 14:49:14.090628,86
2021-12-23 14:49:14.090635,36
2021-12-23 14:49:14.090641,-110
2021-12-23 14:49:14.090648,-7
2021-12-23 14:49:14.090654,24
2021-12-23 14:49:14.090661,-36
2021-12-23 14:49:14.090667,0
2021-12-23 14:49:14.225080,60
2021-12-23 14:49:14.225110,45
2021-12-23 14:49:14.225122,16
2021-12-23 14:49:14.225132,36
2021-12-23 14:49:14.225141,57
2021-12-23 14:49:14.225151,57
2021-12-23 14:49:14.225161,67
2021-12-23 14:49:14.225171,81
2021-12-23 14:49:14.225180,81
2021-12-23 14:49:14.225190,86
2021-12-23 14:49:14.225200,108
2021-12-23 14:49:14.225209,132
2021-12-23 14:49:14.225236,144
2021-12-23 14:49:14.225246,151
2021-12-23 14:49:14.225255,165
2021-12-23 14:49:14.225265,192
2021-12-23 14:49:14.225275,223
2021-12-23 14:49:14.225285,235
2021-12-23 14:49:14.225295,252
2021-12-23 14:49:14.225304,283
2021-12-23 14:49:14.225314,290
2021-12-23 14:49:14.225324,288
2021-12-23 14:49:14.225333,293
2021-12-23 14:49:14.225343,278
2021-12-23 14:49:14.225353,230
2021-12-23 14:49:14.225362,163
2021-12-23 14:49:14.225372,81
2021-12-23 14:49:14.225382,2
2021-12-23 14:49:14.225392,-45
2021-12-23 14:49:14.225401,-67
2021-12-23 14:49:14.585710,-84
2021-12-23 14:49:14.585741,-81
2021-12-23 14:49:14.585877,-72
2021-12-23 14:49:14.585890,-79
2021-12-23 14:49:14.585902,-84
2021-12-23 14:49:14.585914,-72
2021-12-23 14:49:14.585926,-60
2021-12-23 14:49:14.585938,-57
2021-12-23 14:49:14.585950,-48
2021-12-23 14:49:14.585962,-38
2021-12-23 14:49:14.585974,-33
2021-12-23 14:49:14.585986,-28
2021-12-23 14:49:14.585997,-28
2021-12-23 14:49:14.586009,-31
2021-12-23 14:49:14.586039,-38
2021-12-23 14:49:14.586053,-40
2021-12-23 14:49:14.586066,-28
2021-12-23 14:49:14.586079,2
2021-12-23 14:49:14.586091,14
2021-12-23 14:49:14.586104,0
2021-12-23 14:49:14.586117,-2
2021-12-23 14:49:14.586130,-12
2021-12-23 14:49:14.586143,-28
2021-12-23 14:49:14.586155,-14
2021-12-23 14:49:14.586167,2
2021-12-23 14:49:14.586179,-12
2021-12-23 14:49:14.586190,-14
2021-12-23 14:49:14.586201,4
2021-12-23 14:49:14.586210,9
2021-12-23 14:49:14.586216,0
2021-12-23 14:49:14.675160,4
2021-12-23 14:49:14.675183,26
2021-12-23 14:49:14.675191,26
2021-12-23 14:49:14.675197,0
2021-12-23 14:49:14.675204,-2
2021-12-23 14:49:14.675210,21
2021-12-23 14:49:14.675217,26
2021-12-23 14:49:14.675223,14
2021-12-23 14:49:14.675229,14
2021-12-23 14:49:14.675235,14
2021-12-23 14:49:14.675241,9
2021-12-23 14:49:14.675248,16
2021-12-23 14:49:14.675254,26
2021-12-23 14:49:14.675260,21
2021-12-23 14:49:14.675266,19
2021-12-23 14:49:14.675273,45
2021-12-23 14:49:14.675279,72
2021-12-23 14:49:14.675285,64
2021-12-23 14:49:14.675291,60
2021-12-23 14:49:14.675297,55
2021-12-23 14:49:14.675304,33
2021-12-23 14:49:14.675310,45
2021-12-23 14:49:14.675316,72
2021-12-23 14:49:14.675322,40
2021-12-23 14:49:14.675328,12
2021-12-23 14:49:14.675335,36
2021-12-23 14:49:14.675341,50
2021-12-23 14:49:14.675347,50
2021-12-23 14:49:14.675353,57
2021-12-23 14:49:14.675360,55
2021-12-23 14:49:14.900065,110
2021-12-23 14:49:14.900096,327
2021-12-23 14:49:14.900107,685
2021-12-23 14:49:14.900117,978
2021-12-23 14:49:14.900127,637
2021-12-23 14:49:14.900137,-209
2021-12-23 14:49:14.900147,-363
2021-12-23 14:49:14.900156,62
2021-12-23 14:49:14.900166,52
2021-12-23 14:49:14.900175,-110
2021-12-23 14:49:14.900185,-4
2021-12-23 14:49:14.900194,50
2021-12-23 14:49:14.900204,-12
2021-12-23 14:49:14.900213,2
2021-12-23 14:49:14.900223,38
2021-12-23 14:49:14.900232,38
2021-12-23 14:49:14.900242,48
2021-12-23 14:49:14.900251,55
2021-12-23 14:49:14.900261,48
2021-12-23 14:49:14.900270,60
2021-12-23 14:49:14.900279,74
2021-12-23 14:49:14.900289,72
2021-12-23 14:49:14.900298,86
2021-12-23 14:49:14.900308,108
2021-12-23 14:49:14.900317,113
2021-12-23 14:49:14.900327,132
2021-12-23 14:49:14.900336,156
2021-12-23 14:49:14.900346,175
2021-12-23 14:49:14.900356,194
2021-12-23 14:49:14.900365,209
2021-12-23 14:49:15.169908,221
2021-12-23 14:49:15.169939,252
2021-12-23 14:49:15.169950,283
2021-12-23 14:49:15.169961,295
2021-12-23 14:49:15.169970,300
2021-12-23 14:49:15.169980,312
2021-12-23 14:49:15.169990,312
2021-12-23 14:49:15.170000,283
2021-12-23 14:49:15.170009,242
2021-12-23 14:49:15.170019,175
2021-12-23 14:49:15.170029,79
2021-12-23 14:49:15.170039,4
2021-12-23 14:49:15.170049,-33
2021-12-23 14:49:15.170059,-62
2021-12-23 14:49:15.170068,-81
2021-12-23 14:49:15.170078,-84
2021-12-23 14:49:15.170088,-74
2021-12-23 14:49:15.170098,-60
2021-12-23 14:49:15.170107,-48
2021-12-23 14:49:15.170117,-40
2021-12-23 14:49:15.170127,-33
2021-12-23 14:49:15.170137,-38
2021-12-23 14:49:15.170146,-36
2021-12-23 14:49:15.170156,-28
2021-12-23 14:49:15.170166,-31
2021-12-23 14:49:15.170175,-28
2021-12-23 14:49:15.170185,-19
2021-12-23 14:49:15.170195,-19
2021-12-23 14:49:15.170205,-16
2021-12-23 14:49:15.170215,-2
2021-12-23 14:49:15.350190,2
2021-12-23 14:49:15.350221,-4
2021-12-23 14:49:15.350232,-4
2021-12-23 14:49:15.350242,-4
2021-12-23 14:49:15.350252,-12
2021-12-23 14:49:15.350262,-9
2021-12-23 14:49:15.350271,4
2021-12-23 14:49:15.350281,9
2021-12-23 14:49:15.350290,0
2021-12-23 14:49:15.350300,4
2021-12-23 14:49:15.350309,16
2021-12-23 14:49:15.350319,2
2021-12-23 14:49:15.350328,-7
2021-12-23 14:49:15.350338,24
2021-12-23 14:49:15.350348,28
2021-12-23 14:49:15.350357,-4
2021-12-23 14:49:15.350367,7
2021-12-23 14:49:15.350376,31
2021-12-23 14:49:15.350386,16
2021-12-23 14:49:15.350395,12
2021-12-23 14:49:15.350405,26
2021-12-23 14:49:15.350414,14
2021-12-23 14:49:15.350424,9
2021-12-23 14:49:15.350433,48
2021-12-23 14:49:15.350443,62
2021-12-23 14:49:15.350452,31
2021-12-23 14:49:15.350462,12
2021-12-23 14:49:15.350471,19
2021-12-23 14:49:15.350481,19
2021-12-23 14:49:15.350490,7
2021-12-23 14:49:15.575042,16
2021-12-23 14:49:15.575072,40
2021-12-23 14:49:15.575083,45
2021-12-23 14:49:15.575093,45
2021-12-23 14:49:15.575103,67
2021-12-23 14:49:15.575113,69
2021-12-23 14:49:15.575123,48
2021-12-23 14:49:15.575132,48
2021-12-23 14:49:15.575142,62
2021-12-23 14:49:15.575152,48
2021-12-23 14:49:15.575161,28
2021-12-23 14:49:15.575216,33
2021-12-23 14:49:15.575226,45
2021-12-23 14:49:15.575236,50
2021-12-23 14:49:15.575246,50
2021-12-23 14:49:15.575255,50
2021-12-23 14:49:15.575265,60
2021-12-23 14:49:15.575275,76
2021-12-23 14:49:15.575284,180
2021-12-23 14:49:15.575294,464
2021-12-23 14:49:15.575304,853
2021-12-23 14:49:15.575313,973
2021-12-23 14:49:15.575323,355
2021-12-23 14:49:15.575332,-331
2021-12-23 14:49:15.575342,-175
2021-12-23 14:49:15.575352,120
2021-12-23 14:49:15.575362,-24
2021-12-23 14:49:15.575371,-74
2021-12-23 14:49:15.575381,26
2021-12-23 14:49:15.575391,2
2021-12-23 14:49:15.889463,-16
2021-12-23 14:49:15.889481,36
2021-12-23 14:49:15.889488,36
2021-12-23 14:49:15.889495,9
2021-12-23 14:49:15.889502,19
2021-12-23 14:49:15.889508,28
2021-12-23 14:49:15.889514,43
2021-12-23 14:49:15.889521,57
2021-12-23 14:49:15.889527,45
2021-12-23 14:49:15.889533,45
2021-12-23 14:49:15.889539,81
2021-12-23 14:49:15.889546,93
2021-12-23 14:49:15.889552,88
2021-12-23 14:49:15.889558,110
2021-12-23 14:49:15.889564,129
2021-12-23 14:49:15.889571,137
2021-12-23 14:49:15.889577,168
2021-12-23 14:49:15.889583,216
2021-12-23 14:49:15.889589,221
2021-12-23 14:49:15.889596,221
2021-12-23 14:49:15.889602,269
2021-12-23 14:49:15.889608,298
2021-12-23 14:49:15.889614,286
2021-12-23 14:49:15.889621,283
2021-12-23 14:49:15.889627,286
2021-12-23 14:49:15.889633,254
2021-12-23 14:49:15.889639,206
2021-12-23 14:49:15.889646,146
2021-12-23 14:49:15.889652,67
2021-12-23 14:49:15.889658,-2
2021-12-23 14:49:16.070558,-38
2021-12-23 14:49:16.070589,-60
2021-12-23 14:49:16.070601,-62
2021-12-23 14:49:16.070611,-55
2021-12-23 14:49:16.070621,-60
2021-12-23 14:49:16.070630,-67
2021-12-23 14:49:16.070640,-62
2021-12-23 14:49:16.070650,-57
2021-12-23 14:49:16.070659,-57
2021-12-23 14:49:16.070669,-52
2021-12-23 14:49:16.070679,-43
2021-12-23 14:49:16.070689,-38
2021-12-23 14:49:16.070699,-33
2021-12-23 14:49:16.070708,-19
2021-12-23 14:49:16.070718,-19
2021-12-23 14:49:16.070728,-24
2021-12-23 14:49:16.070738,-14
2021-12-23 14:49:16.070747,-2
2021-12-23 14:49:16.070757,-4
2021-12-23 14:49:16.070767,-2
2021-12-23 14:49:16.070777,4
2021-12-23 14:49:16.070786,2
2021-12-23 14:49:16.070797,0
2021-12-23 14:49:16.070807,4
2021-12-23 14:49:16.070817,4
2021-12-23 14:49:16.070827,4
2021-12-23 14:49:16.070837,9
2021-12-23 14:49:16.070847,12
2021-12-23 14:49:16.070856,12
2021-12-23 14:49:16.070866,16
2021-12-23 14:49:16.340479,26
2021-12-23 14:49:16.340509,24
2021-12-23 14:49:16.340521,9
2021-12-23 14:49:16.340531,9
2021-12-23 14:49:16.340540,24
2021-12-23 14:49:16.340550,28
2021-12-23 14:49:16.340560,28
2021-12-23 14:49:16.340569,28
2021-12-23 14:49:16.340579,16
2021-12-23 14:49:16.340589,7
2021-12-23 14:49:16.340598,16
2021-12-23 14:49:16.340608,24
2021-12-23 14:49:16.340618,28
2021-12-23 14:49:16.340628,33
2021-12-23 14:49:16.340637,14
2021-12-23 14:49:16.340647,-4
2021-12-23 14:49:16.340657,4
2021-12-23 14:49:16.340666,19
2021-12-23 14:49:16.340676,24
2021-12-23 14:49:16.340685,36
2021-12-23 14:49:16.340695,45
2021-12-23 14:49:16.340705,60
2021-12-23 14:49:16.340714,79
2021-12-23 14:49:16.340724,67
2021-12-23 14:49:16.340733,36
2021-12-23 14:49:16.340743,38
2021-12-23 14:49:16.340753,52
2021-12-23 14:49:16.340762,50
2021-12-23 14:49:16.340772,48
2021-12-23 14:49:16.340782,48
2021-12-23 14:49:16.654133,48
2021-12-23 14:49:16.654154,43
2021-12-23 14:49:16.654161,52
2021-12-23 14:49:16.654168,76
2021-12-23 14:49:16.654174,69
2021-12-23 14:49:16.654180,79
2021-12-23 14:49:16.654186,242
2021-12-23 14:49:16.654193,569
2021-12-23 14:49:16.654199,949
2021-12-23 14:49:16.654205,906
2021-12-23 14:49:16.654211,122
2021-12-23 14:49:16.654218,-394
2021-12-23 14:49:16.654224,-57
2021-12-23 14:49:16.654230,122
2021-12-23 14:49:16.654237,-81
2021-12-23 14:49:16.654243,-69
2021-12-23 14:49:16.654249,28
2021-12-23 14:49:16.654256,-4
2021-12-23 14:49:16.654262,-12
2021-12-23 14:49:16.654268,21
2021-12-23 14:49:16.654275,19
2021-12-23 14:49:16.654281,24
2021-12-23 14:49:16.654287,40
2021-12-23 14:49:16.654293,43
2021-12-23 14:49:16.654299,48
2021-12-23 14:49:16.654306,69
2021-12-23 14:49:16.654312,74
2021-12-23 14:49:16.654318,62
2021-12-23 14:49:16.654325,74
2021-12-23 14:49:16.654331,98
2021-12-23 14:49:16.745039,115
2021-12-23 14:49:16.745069,129
2021-12-23 14:49:16.745095,139
2021-12-23 14:49:16.745106,156
2021-12-23 14:49:16.745116,189
2021-12-23 14:49:16.745126,228
2021-12-23 14:49:16.745135,245
2021-12-23 14:49:16.745145,254
2021-12-23 14:49:16.745154,269
2021-12-23 14:49:16.745164,278
2021-12-23 14:49:16.745174,295
2021-12-23 14:49:16.745184,312
2021-12-23 14:49:16.745193,293
2021-12-23 14:49:16.745203,233
2021-12-23 14:49:16.745213,177
2021-12-23 14:49:16.745222,117
2021-12-23 14:49:16.745232,38
2021-12-23 14:49:16.745242,-26
2021-12-23 14:49:16.745252,-57
2021-12-23 14:49:16.745262,-74
2021-12-23 14:49:16.745271,-72
2021-12-23 14:49:16.745281,-64
2021-12-23 14:49:16.745290,-72
2021-12-23 14:49:16.745300,-67
2021-12-23 14:49:16.745310,-55
2021-12-23 14:49:16.745319,-60
2021-12-23 14:49:16.745338,-60
2021-12-23 14:49:16.745348,-52
2021-12-23 14:49:16.745357,-40
2021-12-23 14:49:16.745367,-36
2021-12-23 14:49:17.014052,-31
2021-12-23 14:49:17.014078,-21
2021-12-23 14:49:17.014085,-21
2021-12-23 14:49:17.014092,-28
2021-12-23 14:49:17.014099,-12
2021-12-23 14:49:17.014105,-12
2021-12-23 14:49:17.014112,-31
2021-12-23 14:49:17.014118,-21
2021-12-23 14:49:17.014125,-7
2021-12-23 14:49:17.014131,-14
2021-12-23 14:49:17.014138,-16
2021-12-23 14:49:17.014144,-14
2021-12-23 14:49:17.014150,-19
2021-12-23 14:49:17.014157,-16
2021-12-23 14:49:17.014163,-2
2021-12-23 14:49:17.014169,9
2021-12-23 14:49:17.014176,-2
2021-12-23 14:49:17.014182,-14
2021-12-23 14:49:17.014189,-4
2021-12-23 14:49:17.014195,4
2021-12-23 14:49:17.014202,4
2021-12-23 14:49:17.014208,7
2021-12-23 14:49:17.014214,9
2021-12-23 14:49:17.014221,7
2021-12-23 14:49:17.014227,19
2021-12-23 14:49:17.014234,24
2021-12-23 14:49:17.014240,2
2021-12-23 14:49:17.014246,4
2021-12-23 14:49:17.014253,31
2021-12-23 14:49:17.014259,26
2021-12-23 14:49:17.240407,14
2021-12-23 14:49:17.240438,24
2021-12-23 14:49:17.240449,36
2021-12-23 14:49:17.240459,31
2021-12-23 14:49:17.240468,16
2021-12-23 14:49:17.240478,9
2021-12-23 14:49:17.240487,21
2021-12-23 14:49:17.240497,28
2021-12-23 14:49:17.240506,16
2021-12-23 14:49:17.240516,16
2021-12-23 14:49:17.240525,45
2021-12-23 14:49:17.240535,60
2021-12-23 14:49:17.240544,52
2021-12-23 14:49:17.240554,45
2021-12-23 14:49:17.240563,40
2021-12-23 14:49:17.240573,31
2021-12-23 14:49:17.240582,24
2021-12-23 14:49:17.240592,31
2021-12-23 14:49:17.240601,38
2021-12-23 14:49:17.240611,24
2021-12-23 14:49:17.240620,21
2021-12-23 14:49:17.240630,28
2021-12-23 14:49:17.240640,21
2021-12-23 14:49:17.240649,28
2021-12-23 14:49:17.240659,57
2021-12-23 14:49:17.240668,125
2021-12-23 14:49:17.240678,334
2021-12-23 14:49:17.240687,738
2021-12-23 14:49:17.240697,1067
2021-12-23 14:49:17.240706,649
2021-12-23 14:49:17.464527,-228
2021-12-23 14:49:17.464557,-334
2021-12-23 14:49:17.464569,60
2021-12-23 14:49:17.464579,21
2021-12-23 14:49:17.464589,-113
2021-12-23 14:49:17.464599,-9
2021-12-23 14:49:17.464608,26
2021-12-23 14:49:17.464618,-21
2021-12-23 14:49:17.464628,-2
2021-12-23 14:49:17.464638,21
2021-12-23 14:49:17.464648,19
2021-12-23 14:49:17.464657,24
2021-12-23 14:49:17.464667,28
2021-12-23 14:49:17.464677,33
2021-12-23 14:49:17.464686,38
2021-12-23 14:49:17.464696,45
2021-12-23 14:49:17.464706,48
2021-12-23 14:49:17.464715,48
2021-12-23 14:49:17.464725,64
2021-12-23 14:49:17.464735,96
2021-12-23 14:49:17.464744,117
2021-12-23 14:49:17.464754,127
2021-12-23 14:49:17.464764,149
2021-12-23 14:49:17.464773,168
2021-12-23 14:49:17.464783,185
2021-12-23 14:49:17.464793,206
2021-12-23 14:49:17.464802,223
2021-12-23 14:49:17.464812,250
2021-12-23 14:49:17.464822,281
2021-12-23 14:49:17.464831,283
2021-12-23 14:49:17.690308,286
2021-12-23 14:49:17.690328,305
2021-12-23 14:49:17.690336,290
2021-12-23 14:49:17.690342,216
2021-12-23 14:49:17.690349,132
2021-12-23 14:49:17.690355,72
2021-12-23 14:49:17.690361,19
2021-12-23 14:49:17.690368,-24
2021-12-23 14:49:17.690374,-52
2021-12-23 14:49:17.690380,-79
2021-12-23 14:49:17.690387,-91
2021-12-23 14:49:17.690393,-81
2021-12-23 14:49:17.690400,-62
2021-12-23 14:49:17.690406,-48
2021-12-23 14:49:17.690412,-57
2021-12-23 14:49:17.690419,-74
2021-12-23 14:49:17.690425,-57
2021-12-23 14:49:17.690431,-40
2021-12-23 14:49:17.690438,-48
2021-12-23 14:49:17.690444,-36
2021-12-23 14:49:17.690450,-24
2021-12-23 14:49:17.690457,-45
2021-12-23 14:49:17.690463,-36
2021-12-23 14:49:17.690469,0
2021-12-23 14:49:17.690476,-14
2021-12-23 14:49:17.690489,-33
2021-12-23 14:49:17.690496,0
2021-12-23 14:49:17.690502,4
2021-12-23 14:49:17.690509,-36
2021-12-23 14:49:17.690515,-52
2021-12-23 14:49:17.915439,-19
2021-12-23 14:49:17.915469,2
2021-12-23 14:49:17.915481,-19
2021-12-23 14:49:17.915491,-36
2021-12-23 14:49:17.915501,-12
2021-12-23 14:49:17.915510,4
2021-12-23 14:49:17.915520,-4
2021-12-23 14:49:17.915530,-14
2021-12-23 14:49:17.915539,-31
2021-12-23 14:49:17.915549,-28
2021-12-23 14:49:17.915559,9
2021-12-23 14:49:17.915568,36
2021-12-23 14:49:17.915578,24
2021-12-23 14:49:17.915588,2
2021-12-23 14:49:17.915598,0
2021-12-23 14:49:17.915607,16
2021-12-23 14:49:17.915617,12
2021-12-23 14:49:17.915627,-12
2021-12-23 14:49:17.915637,-7
2021-12-23 14:49:17.915647,0
2021-12-23 14:49:17.915656,-12
2021-12-23 14:49:17.915666,0
2021-12-23 14:49:17.915676,14
2021-12-23 14:49:17.915685,4
2021-12-23 14:49:17.915695,19
2021-12-23 14:49:17.915705,60
2021-12-23 14:49:17.915715,52
2021-12-23 14:49:17.915724,24
2021-12-23 14:49:17.915734,31
2021-12-23 14:49:17.915744,33
2021-12-23 14:49:18.139858,7
2021-12-23 14:49:18.139880,-14
2021-12-23 14:49:18.139887,-4
2021-12-23 14:49:18.139894,19
2021-12-23 14:49:18.139900,14
2021-12-23 14:49:18.139907,14
2021-12-23 14:49:18.139913,43
2021-12-23 14:49:18.139920,52
2021-12-23 14:49:18.139926,48
2021-12-23 14:49:18.139932,110
2021-12-23 14:49:18.139939,315
2021-12-23 14:49:18.139945,680
2021-12-23 14:49:18.139951,913
2021-12-23 14:49:18.139958,428
2021-12-23 14:49:18.139964,-363
2021-12-23 14:49:18.139971,-351
2021-12-23 14:49:18.139977,43
2021-12-23 14:49:18.139984,-28
2021-12-23 14:49:18.139990,-144
2021-12-23 14:49:18.139996,-24
2021-12-23 14:49:18.140003,2
2021-12-23 14:49:18.140009,-48
2021-12-23 14:49:18.140015,-28
2021-12-23 14:49:18.140022,-19
2021-12-23 14:49:18.140028,-31
2021-12-23 14:49:18.140034,-4
2021-12-23 14:49:18.140041,16
2021-12-23 14:49:18.140047,9
2021-12-23 14:49:18.140053,19
2021-12-23 14:49:18.140060,45
2021-12-23 14:49:18.365042,43
2021-12-23 14:49:18.365072,38
2021-12-23 14:49:18.365089,74
2021-12-23 14:49:18.365099,98
2021-12-23 14:49:18.365109,86
2021-12-23 14:49:18.365118,127
2021-12-23 14:49:18.365128,182
2021-12-23 14:49:18.365138,156
2021-12-23 14:49:18.365148,134
2021-12-23 14:49:18.365157,182
2021-12-23 14:49:18.365167,223
2021-12-23 14:49:18.365177,247
2021-12-23 14:49:18.365187,274
2021-12-23 14:49:18.365196,281
2021-12-23 14:49:18.365206,274
2021-12-23 14:49:18.365216,269
2021-12-23 14:49:18.365225,259
2021-12-23 14:49:18.365235,214
2021-12-23 14:49:18.365245,120
2021-12-23 14:49:18.365255,38
2021-12-23 14:49:18.365264,-4
2021-12-23 14:49:18.365274,-57
2021-12-23 14:49:18.365284,-110
2021-12-23 14:49:18.365293,-117
2021-12-23 14:49:18.365303,-103
2021-12-23 14:49:18.365313,-103
2021-12-23 14:49:18.365323,-98
2021-12-23 14:49:18.365332,-91
2021-12-23 14:49:18.365342,-91
2021-12-23 14:49:18.365352,-64
2021-12-23 14:49:18.723725,-43
2021-12-23 14:49:18.723755,-64
2021-12-23 14:49:18.723766,-69
2021-12-23 14:49:18.723776,-40
2021-12-23 14:49:18.723786,-36
2021-12-23 14:49:18.723795,-40
2021-12-23 14:49:18.723805,-28
2021-12-23 14:49:18.723814,-19
2021-12-23 14:49:18.723824,-16
2021-12-23 14:49:18.723834,-12
2021-12-23 14:49:18.723843,-19
2021-12-23 14:49:18.723853,-21
2021-12-23 14:49:18.723862,-14
2021-12-23 14:49:18.723872,-7
2021-12-23 14:49:18.723882,2
2021-12-23 14:49:18.723891,0
2021-12-23 14:49:18.723901,-16
2021-12-23 14:49:18.723910,-12
2021-12-23 14:49:18.723920,4
2021-12-23 14:49:18.723929,0
2021-12-23 14:49:18.723939,-2
2021-12-23 14:49:18.723948,14
2021-12-23 14:49:18.723958,14
2021-12-23 14:49:18.723968,-2
2021-12-23 14:49:18.723977,16
2021-12-23 14:49:18.723987,52
2021-12-23 14:49:18.723996,40
2021-12-23 14:49:18.724006,7
2021-12-23 14:49:18.724015,12
2021-12-23 14:49:18.724025,12
2021-12-23 14:49:18.860458,-2
2021-12-23 14:49:18.860488,19
2021-12-23 14:49:18.860500,38
2021-12-23 14:49:18.860510,24
2021-12-23 14:49:18.860519,33
2021-12-23 14:49:18.860529,57
2021-12-23 14:49:18.860539,31
2021-12-23 14:49:18.860549,7
2021-12-23 14:49:18.860558,43
2021-12-23 14:49:18.860568,74
2021-12-23 14:49:18.860578,67
2021-12-23 14:49:18.860588,60
2021-12-23 14:49:18.860597,55
2021-12-23 14:49:18.860607,55
2021-12-23 14:49:18.860617,57
2021-12-23 14:49:18.860627,45
2021-12-23 14:49:18.860636,33
2021-12-23 14:49:18.860646,33
2021-12-23 14:49:18.860656,38
2021-12-23 14:49:18.860666,55
2021-12-23 14:49:18.860675,62
2021-12-23 14:49:18.860685,38
2021-12-23 14:49:18.860694,31
2021-12-23 14:49:18.860704,117
2021-12-23 14:49:18.860714,329
2021-12-23 14:49:18.860724,666
2021-12-23 14:49:18.860733,985
2021-12-23 14:49:18.860743,697
2021-12-23 14:49:18.860753,-180
2021-12-23 14:49:18.860763,-428
2021-12-23 14:49:19.040514,14
2021-12-23 14:49:19.040544,64
2021-12-23 14:49:19.040556,-125
2021-12-23 14:49:19.040566,-48
2021-12-23 14:49:19.040576,21
2021-12-23 14:49:19.040586,-28
2021-12-23 14:49:19.040596,-9
2021-12-23 14:49:19.040606,28
2021-12-23 14:49:19.040616,14
2021-12-23 14:49:19.040626,12
2021-12-23 14:49:19.040636,26
2021-12-23 14:49:19.040646,31
2021-12-23 14:49:19.040656,43
2021-12-23 14:49:19.040666,62
2021-12-23 14:49:19.040676,72
2021-12-23 14:49:19.040686,60
2021-12-23 14:49:19.040696,62
2021-12-23 14:49:19.040706,91
2021-12-23 14:49:19.040716,113
2021-12-23 14:49:19.040726,127
2021-12-23 14:49:19.040735,158
2021-12-23 14:49:19.040745,177
2021-12-23 14:49:19.040755,180
2021-12-23 14:49:19.040765,202
2021-12-23 14:49:19.040775,245
2021-12-23 14:49:19.040785,274
2021-12-23 14:49:19.040795,283
2021-12-23 14:49:19.040805,298
2021-12-23 14:49:19.040815,310
2021-12-23 14:49:19.040825,298
2021-12-23 14:49:19.265057,274
2021-12-23 14:49:19.265087,235
2021-12-23 14:49:19.265098,151
2021-12-23 14:49:19.265108,60
2021-12-23 14:49:19.265118,-2
2021-12-23 14:49:19.265128,-50
2021-12-23 14:49:19.265138,-74
2021-12-23 14:49:19.265148,-74
2021-12-23 14:49:19.265157,-79
2021-12-23 14:49:19.265167,-81
2021-12-23 14:49:19.265177,-88
2021-12-23 14:49:19.265187,-103
2021-12-23 14:49:19.265196,-91
2021-12-23 14:49:19.265206,-67
2021-12-23 14:49:19.265216,-64
2021-12-23 14:49:19.265225,-62
2021-12-23 14:49:19.265235,-50
2021-12-23 14:49:19.265245,-38
2021-12-23 14:49:19.265254,-40
2021-12-23 14:49:19.265264,-50
2021-12-23 14:49:19.265274,-45
2021-12-23 14:49:19.265283,-28
2021-12-23 14:49:19.265293,-19
2021-12-23 14:49:19.265303,-28
2021-12-23 14:49:19.265312,-33
2021-12-23 14:49:19.265322,-16
2021-12-23 14:49:19.265332,-7
2021-12-23 14:49:19.265341,-19
2021-12-23 14:49:19.265351,-21
2021-12-23 14:49:19.265360,-21
2021-12-23 14:49:19.490425,-38
2021-12-23 14:49:19.490455,-31
2021-12-23 14:49:19.490466,-9
2021-12-23 14:49:19.490476,-7
2021-12-23 14:49:19.490486,-7
2021-12-23 14:49:19.490495,-12
2021-12-23 14:49:19.490505,-24
2021-12-23 14:49:19.490514,-14
2021-12-23 14:49:19.490524,-7
2021-12-23 14:49:19.490533,-19
2021-12-23 14:49:19.490543,-26
2021-12-23 14:49:19.490553,-9
2021-12-23 14:49:19.490562,-4
2021-12-23 14:49:19.490572,-19
2021-12-23 14:49:19.490581,-9
2021-12-23 14:49:19.490591,-4
2021-12-23 14:49:19.490601,-21
2021-12-23 14:49:19.490610,-24
2021-12-23 14:49:19.490620,-21
2021-12-23 14:49:19.490630,-21
2021-12-23 14:49:19.490639,-14
2021-12-23 14:49:19.490649,2
2021-12-23 14:49:19.490659,19
2021-12-23 14:49:19.490668,24
2021-12-23 14:49:19.490678,19
2021-12-23 14:49:19.490687,16
2021-12-23 14:49:19.490697,7
2021-12-23 14:49:19.490707,-9
2021-12-23 14:49:19.490717,-9
2021-12-23 14:49:19.490726,4
2021-12-23 14:49:19.760566,14
2021-12-23 14:49:19.760628,14
2021-12-23 14:49:19.760639,2
2021-12-23 14:49:19.760649,0
2021-12-23 14:49:19.760659,21
2021-12-23 14:49:19.760669,43
2021-12-23 14:49:19.760679,132
2021-12-23 14:49:19.760688,391
2021-12-23 14:49:19.760698,786
2021-12-23 14:49:19.760708,1026
2021-12-23 14:49:19.760717,512
2021-12-23 14:49:19.760727,-355
2021-12-23 14:49:19.760736,-346
2021-12-23 14:49:19.760746,91
2021-12-23 14:49:19.760756,2
2021-12-23 14:49:19.760766,-139
2021-12-23 14:49:19.760775,-21
2021-12-23 14:49:19.760785,12
2021-12-23 14:49:19.760795,-31
2021-12-23 14:49:19.760804,-7
2021-12-23 14:49:19.760814,7
2021-12-23 14:49:19.760824,0
2021-12-23 14:49:19.760833,24
2021-12-23 14:49:19.760843,36
2021-12-23 14:49:19.760853,28
2021-12-23 14:49:19.760862,48
2021-12-23 14:49:19.760872,62
2021-12-23 14:49:19.760881,55
2021-12-23 14:49:19.760891,69
2021-12-23 14:49:19.760901,96
2021-12-23 14:49:19.986051,115
2021-12-23 14:49:19.986097,120
2021-12-23 14:49:19.986105,132
2021-12-23 14:49:19.986112,158
2021-12-23 14:49:19.986119,185
2021-12-23 14:49:19.986125,216
2021-12-23 14:49:19.986131,247
2021-12-23 14:49:19.986138,264
2021-12-23 14:49:19.986144,281
2021-12-23 14:49:19.986150,298
2021-12-23 14:49:19.986157,303
2021-12-23 14:49:19.986163,310
2021-12-23 14:49:19.986169,317
2021-12-23 14:49:19.986176,293
2021-12-23 14:49:19.986182,223
2021-12-23 14:49:19.986189,122
2021-12-23 14:49:19.986195,38
2021-12-23 14:49:19.986202,-12
2021-12-23 14:49:19.986208,-48
2021-12-23 14:49:19.986215,-79
2021-12-23 14:49:19.986221,-91
2021-12-23 14:49:19.986227,-79
2021-12-23 14:49:19.986234,-72
2021-12-23 14:49:19.986240,-67
2021-12-23 14:49:19.986246,-60
2021-12-23 14:49:19.986253,-67
2021-12-23 14:49:19.986259,-79
2021-12-23 14:49:19.986266,-72
2021-12-23 14:49:19.986272,-52
2021-12-23 14:49:19.986278,-38
2021-12-23 14:49:20.255425,-31
2021-12-23 14:49:20.255468,-21
2021-12-23 14:49:20.255479,-4
2021-12-23 14:49:20.255489,4
2021-12-23 14:49:20.255499,-16
2021-12-23 14:49:20.255508,-48
2021-12-23 14:49:20.255518,-45
2021-12-23 14:49:20.255528,-16
2021-12-23 14:49:20.255537,-14
2021-12-23 14:49:20.255547,-28
2021-12-23 14:49:20.255557,-40
2021-12-23 14:49:20.255566,-40
2021-12-23 14:49:20.255576,-31
2021-12-23 14:49:20.255585,-26
2021-12-23 14:49:20.255595,-16
2021-12-23 14:49:20.255604,-14
2021-12-23 14:49:20.255614,-36
2021-12-23 14:49:20.255624,-38
2021-12-23 14:49:20.255633,-19
2021-12-23 14:49:20.255643,-31
2021-12-23 14:49:20.255652,-36
2021-12-23 14:49:20.255662,-14
2021-12-23 14:49:20.255671,-14
2021-12-23 14:49:20.255681,-26
2021-12-23 14:49:20.255690,-19
2021-12-23 14:49:20.255700,-4
2021-12-23 14:49:20.255709,2
2021-12-23 14:49:20.255719,-21
2021-12-23 14:49:20.255728,-60
2021-12-23 14:49:20.255738,-52
2021-12-23 14:49:20.434740,-12
2021-12-23 14:49:20.434768,2
2021-12-23 14:49:20.434779,4
2021-12-23 14:49:20.434789,19
2021-12-23 14:49:20.434799,26
2021-12-23 14:49:20.434808,21
2021-12-23 14:49:20.434818,14
2021-12-23 14:49:20.434828,4
2021-12-23 14:49:20.434838,0
2021-12-23 14:49:20.434847,9
2021-12-23 14:49:20.434857,12
2021-12-23 14:49:20.434867,-2
2021-12-23 14:49:20.434877,-7
2021-12-23 14:49:20.434886,-4
2021-12-23 14:49:20.434896,0
2021-12-23 14:49:20.434905,21
2021-12-23 14:49:20.434915,40
2021-12-23 14:49:20.434925,74
2021-12-23 14:49:20.434935,240
2021-12-23 14:49:20.434944,598
2021-12-23 14:49:20.434954,997
2021-12-23 14:49:20.434964,815
2021-12-23 14:49:20.434973,-96
2021-12-23 14:49:20.434983,-505
2021-12-23 14:49:20.434993,-67
2021-12-23 14:49:20.435003,64
2021-12-23 14:49:20.435012,-149
2021-12-23 14:49:20.435022,-88
2021-12-23 14:49:20.435032,14
2021-12-23 14:49:20.435042,-43
2021-12-23 14:49:20.703668,-50
2021-12-23 14:49:20.703698,0
2021-12-23 14:49:20.703709,2
2021-12-23 14:49:20.703719,9
2021-12-23 14:49:20.703743,33
2021-12-23 14:49:20.703753,33
2021-12-23 14:49:20.703763,19
2021-12-23 14:49:20.703773,16
2021-12-23 14:49:20.703782,28
2021-12-23 14:49:20.703792,45
2021-12-23 14:49:20.703802,55
2021-12-23 14:49:20.703812,62
2021-12-23 14:49:20.703821,91
2021-12-23 14:49:20.703831,125
2021-12-23 14:49:20.703841,141
2021-12-23 14:49:20.703850,146
2021-12-23 14:49:20.703860,163
2021-12-23 14:49:20.703870,197
2021-12-23 14:49:20.703880,221
2021-12-23 14:49:20.703889,230
2021-12-23 14:49:20.703899,257
2021-12-23 14:49:20.703909,281
2021-12-23 14:49:20.703918,259
2021-12-23 14:49:20.703928,238
2021-12-23 14:49:20.703938,257
2021-12-23 14:49:20.703948,240
2021-12-23 14:49:20.703963,137
2021-12-23 14:49:20.703972,4
2021-12-23 14:49:20.703982,-84
2021-12-23 14:49:20.703992,-127
2021-12-23 14:49:20.884938,-139
2021-12-23 14:49:20.884959,-144
2021-12-23 14:49:20.884967,-134
2021-12-23 14:49:20.884974,-91
2021-12-23 14:49:20.884980,-60
2021-12-23 14:49:20.884986,-93
2021-12-23 14:49:20.884993,-137
2021-12-23 14:49:20.884999,-144
2021-12-23 14:49:20.885006,-153
2021-12-23 14:49:20.885012,-127
2021-12-23 14:49:20.885018,-57
2021-12-23 14:49:20.885024,-57
2021-12-23 14:49:20.885031,-98
2021-12-23 14:49:20.885037,-91
2021-12-23 14:49:20.885043,-64
2021-12-23 14:49:20.885050,-40
2021-12-23 14:49:20.885056,-14
2021-12-23 14:49:20.885063,7
2021-12-23 14:49:20.885069,14
2021-12-23 14:49:20.885076,-21
2021-12-23 14:49:20.885082,-67
2021-12-23 14:49:20.885088,-45
2021-12-23 14:49:20.885095,4
2021-12-23 14:49:20.885101,-12
2021-12-23 14:49:20.885107,-26
2021-12-23 14:49:20.885114,14
2021-12-23 14:49:20.885120,7
2021-12-23 14:49:20.885127,-38
2021-12-23 14:49:20.885133,-24
2021-12-23 14:49:20.885139,-7
2021-12-23 14:49:21.244966,-48
2021-12-23 14:49:21.244997,-72
2021-12-23 14:49:21.245009,-50
2021-12-23 14:49:21.245019,-24
2021-12-23 14:49:21.245029,-4
2021-12-23 14:49:21.245038,2
2021-12-23 14:49:21.245048,-16
2021-12-23 14:49:21.245058,-33
2021-12-23 14:49:21.245068,-33
2021-12-23 14:49:21.245077,-36
2021-12-23 14:49:21.245087,-21
2021-12-23 14:49:21.245097,12
2021-12-23 14:49:21.245107,14
2021-12-23 14:49:21.245116,-12
2021-12-23 14:49:21.245126,14
2021-12-23 14:49:21.245136,48
2021-12-23 14:49:21.245146,21
2021-12-23 14:49:21.245156,-31
2021-12-23 14:49:21.245165,-36
2021-12-23 14:49:21.245175,21
2021-12-23 14:49:21.245185,26
2021-12-23 14:49:21.245194,-26
2021-12-23 14:49:21.245204,-12
2021-12-23 14:49:21.245214,31
2021-12-23 14:49:21.245224,31
2021-12-23 14:49:21.245233,12
2021-12-23 14:49:21.245243,7
2021-12-23 14:49:21.245253,7
2021-12-23 14:49:21.245263,38
2021-12-23 14:49:21.245272,230
2021-12-23 14:49:21.334656,603
2021-12-23 14:49:21.334678,957
2021-12-23 14:49:21.334686,743
2021-12-23 14:49:21.334692,-98
2021-12-23 14:49:21.334699,-399
2021-12-23 14:49:21.334705,7
2021-12-23 14:49:21.334711,28
2021-12-23 14:49:21.334717,-158
2021-12-23 14:49:21.334724,-50
2021-12-23 14:49:21.334730,-7
2021-12-23 14:49:21.334736,-33
2021-12-23 14:49:21.334742,7
2021-12-23 14:49:21.334749,-45
2021-12-23 14:49:21.334755,-64
2021-12-23 14:49:21.334761,21
2021-12-23 14:49:21.334767,36
2021-12-23 14:49:21.334774,14
2021-12-23 14:49:21.334780,74
2021-12-23 14:49:21.334786,91
2021-12-23 14:49:21.334792,50
2021-12-23 14:49:21.334799,69
2021-12-23 14:49:21.334805,74
2021-12-23 14:49:21.334811,62
2021-12-23 14:49:21.334818,98
2021-12-23 14:49:21.334824,122
2021-12-23 14:49:21.334830,127
2021-12-23 14:49:21.334836,170
2021-12-23 14:49:21.334842,209
2021-12-23 14:49:21.334849,235
2021-12-23 14:49:21.334855,266
2021-12-23 14:49:21.604745,257
2021-12-23 14:49:21.604766,259
2021-12-23 14:49:21.604773,317
2021-12-23 14:49:21.604780,303
2021-12-23 14:49:21.604786,250
2021-12-23 14:49:21.604792,250
2021-12-23 14:49:21.604799,199
2021-12-23 14:49:21.604805,113
2021-12-23 14:49:21.604811,72
2021-12-23 14:49:21.604818,2
2021-12-23 14:49:21.604824,-79
2021-12-23 14:49:21.604830,-84
2021-12-23 14:49:21.604837,-36
2021-12-23 14:49:21.604843,-33
2021-12-23 14:49:21.604849,-98
2021-12-23 14:49:21.604855,-120
2021-12-23 14:49:21.604862,-72
2021-12-23 14:49:21.604868,-43
2021-12-23 14:49:21.604874,-43
2021-12-23 14:49:21.604881,-7
2021-12-23 14:49:21.604887,14
2021-12-23 14:49:21.604893,-7
2021-12-23 14:49:21.604900,2
2021-12-23 14:49:21.604906,21
2021-12-23 14:49:21.604912,7
2021-12-23 14:49:21.604919,7
2021-12-23 14:49:21.604929,9
2021-12-23 14:49:21.604935,-2
2021-12-23 14:49:21.604941,9
2021-12-23 14:49:21.604948,48
2021-12-23 14:49:21.830459,36
2021-12-23 14:49:21.830490,-16
2021-12-23 14:49:21.830502,-7
2021-12-23 14:49:21.830512,-2
2021-12-23 14:49:21.830522,-36
2021-12-23 14:49:21.830531,-4
2021-12-23 14:49:21.830541,60
2021-12-23 14:49:21.830551,52
2021-12-23 14:49:21.830560,26
2021-12-23 14:49:21.830570,28
2021-12-23 14:49:21.830580,9
2021-12-23 14:49:21.830590,-28
2021-12-23 14:49:21.830599,-38
2021-12-23 14:49:21.830609,-28
2021-12-23 14:49:21.830619,-26
2021-12-23 14:49:21.830628,-28
2021-12-23 14:49:21.830638,-26
2021-12-23 14:49:21.830648,-16
2021-12-23 14:49:21.830658,28
2021-12-23 14:49:21.830667,57
2021-12-23 14:49:21.830677,-16
2021-12-23 14:49:21.830687,-62
2021-12-23 14:49:21.830696,9
2021-12-23 14:49:21.830706,43
2021-12-23 14:49:21.830716,12
2021-12-23 14:49:21.830725,12
2021-12-23 14:49:21.830746,12
2021-12-23 14:49:21.830757,16
2021-12-23 14:49:21.830766,28
2021-12-23 14:49:21.830776,2
2021-12-23 14:49:22.055397,-9
2021-12-23 14:49:22.055428,24
2021-12-23 14:49:22.055440,14
2021-12-23 14:49:22.055450,7
2021-12-23 14:49:22.055460,57
2021-12-23 14:49:22.055471,64
2021-12-23 14:49:22.055480,45
2021-12-23 14:49:22.055490,139
2021-12-23 14:49:22.055500,420
2021-12-23 14:49:22.055510,870
2021-12-23 14:49:22.055520,1026
2021-12-23 14:49:22.055530,269
2021-12-23 14:49:22.055540,-524
2021-12-23 14:49:22.055549,-266
2021-12-23 14:49:22.055560,117
2021-12-23 14:49:22.055569,-57
2021-12-23 14:49:22.055579,-146
2021-12-23 14:49:22.055589,-21
2021-12-23 14:49:22.055599,-16
2021-12-23 14:49:22.055609,-55
2021-12-23 14:49:22.055619,-24
2021-12-23 14:49:22.055629,-9
2021-12-23 14:49:22.055639,-21
2021-12-23 14:49:22.055649,7
2021-12-23 14:49:22.055658,31
2021-12-23 14:49:22.055669,2
2021-12-23 14:49:22.055678,-14
2021-12-23 14:49:22.055688,21
2021-12-23 14:49:22.055698,50
2021-12-23 14:49:22.055708,57
2021-12-23 14:49:22.279624,74
2021-12-23 14:49:22.279652,86
2021-12-23 14:49:22.279659,93
2021-12-23 14:49:22.279666,120
2021-12-23 14:49:22.279672,144
2021-12-23 14:49:22.279678,165
2021-12-23 14:49:22.279684,202
2021-12-23 14:49:22.279691,235
2021-12-23 14:49:22.279697,254
2021-12-23 14:49:22.279703,271
2021-12-23 14:49:22.279710,293
2021-12-23 14:49:22.279716,310
2021-12-23 14:49:22.279722,315
2021-12-23 14:49:22.279728,298
2021-12-23 14:49:22.279735,250
2021-12-23 14:49:22.279741,189
2021-12-23 14:49:22.279748,117
2021-12-23 14:49:22.279754,45
2021-12-23 14:49:22.279760,-2
2021-12-23 14:49:22.279766,-33
2021-12-23 14:49:22.279773,-64
2021-12-23 14:49:22.279779,-76
2021-12-23 14:49:22.279785,-74
2021-12-23 14:49:22.279791,-79
2021-12-23 14:49:22.279798,-64
2021-12-23 14:49:22.279804,-21
2021-12-23 14:49:22.279810,2
2021-12-23 14:49:22.279816,-7
2021-12-23 14:49:22.279823,-19
2021-12-23 14:49:22.279829,-9
2021-12-23 14:49:22.504918,-4
2021-12-23 14:49:22.504948,-9
2021-12-23 14:49:22.504959,-16
2021-12-23 14:49:22.504969,-14
2021-12-23 14:49:22.504979,-2
2021-12-23 14:49:22.504988,2
2021-12-23 14:49:22.504998,-7
2021-12-23 14:49:22.505008,-19
2021-12-23 14:49:22.505017,-16
2021-12-23 14:49:22.505027,2
2021-12-23 14:49:22.505036,14
2021-12-23 14:49:22.505046,14
2021-12-23 14:49:22.505055,7
2021-12-23 14:49:22.505065,0
2021-12-23 14:49:22.505075,-7
2021-12-23 14:49:22.505084,-7
2021-12-23 14:49:22.505094,2
2021-12-23 14:49:22.505103,2
2021-12-23 14:49:22.505113,2
2021-12-23 14:49:22.505122,4
2021-12-23 14:49:22.505132,7
2021-12-23 14:49:22.505142,12
2021-12-23 14:49:22.505151,4
2021-12-23 14:49:22.505161,-16
2021-12-23 14:49:22.505170,-14
2021-12-23 14:49:22.505180,4
2021-12-23 14:49:22.505189,-7
2021-12-23 14:49:22.505199,-31
2021-12-23 14:49:22.505208,-21
2021-12-23 14:49:22.505218,-4
2021-12-23 14:49:22.774063,-2
2021-12-23 14:49:22.774094,0
2021-12-23 14:49:22.774105,12
2021-12-23 14:49:22.774115,26
2021-12-23 14:49:22.774125,38
2021-12-23 14:49:22.774135,31
2021-12-23 14:49:22.774145,16
2021-12-23 14:49:22.774154,7
2021-12-23 14:49:22.774177,-4
2021-12-23 14:49:22.774188,-2
2021-12-23 14:49:22.774198,14
2021-12-23 14:49:22.774207,4
2021-12-23 14:49:22.774217,-16
2021-12-23 14:49:22.774227,-4
2021-12-23 14:49:22.774236,24
2021-12-23 14:49:22.774246,45
2021-12-23 14:49:22.774256,19
2021-12-23 14:49:22.774265,-12
2021-12-23 14:49:22.774275,117
2021-12-23 14:49:22.774285,437
2021-12-23 14:49:22.774294,851
2021-12-23 14:49:22.774304,1010
2021-12-23 14:49:22.774313,339
2021-12-23 14:49:22.774323,-456
2021-12-23 14:49:22.774333,-283
2021-12-23 14:49:22.774342,76
2021-12-23 14:49:22.774352,-98
2021-12-23 14:49:22.774361,-168
2021-12-23 14:49:22.774371,-9
2021-12-23 14:49:22.774380,-4
2021-12-23 14:49:22.955360,-62
2021-12-23 14:49:22.955390,-31
2021-12-23 14:49:22.955402,-14
2021-12-23 14:49:22.955412,-48
2021-12-23 14:49:22.955421,-50
2021-12-23 14:49:22.955431,-2
2021-12-23 14:49:22.955441,9
2021-12-23 14:49:22.955450,-4
2021-12-23 14:49:22.955460,0
2021-12-23 14:49:22.955470,24
2021-12-23 14:49:22.955480,45
2021-12-23 14:49:22.955489,55
2021-12-23 14:49:22.955499,76
2021-12-23 14:49:22.955509,96
2021-12-23 14:49:22.955519,81
2021-12-23 14:49:22.955529,91
2021-12-23 14:49:22.955538,137
2021-12-23 14:49:22.955548,170
2021-12-23 14:49:22.955558,204
2021-12-23 14:49:22.955567,240
2021-12-23 14:49:22.955577,238
2021-12-23 14:49:22.955587,240
2021-12-23 14:49:22.955597,264
2021-12-23 14:49:22.955606,269
2021-12-23 14:49:22.955616,257
2021-12-23 14:49:22.955626,238
2021-12-23 14:49:22.955636,177
2021-12-23 14:49:22.955646,74
2021-12-23 14:49:22.955655,-2
2021-12-23 14:49:22.955665,-40
2021-12-23 14:49:23.224354,-72
2021-12-23 14:49:23.224384,-88
2021-12-23 14:49:23.224396,-88
2021-12-23 14:49:23.224406,-96
2021-12-23 14:49:23.224415,-103
2021-12-23 14:49:23.224425,-96
2021-12-23 14:49:23.224435,-86
2021-12-23 14:49:23.224444,-74
2021-12-23 14:49:23.224454,-64
2021-12-23 14:49:23.224463,-74
2021-12-23 14:49:23.224473,-76
2021-12-23 14:49:23.224483,-60
2021-12-23 14:49:23.224492,-45
2021-12-23 14:49:23.224502,-48
2021-12-23 14:49:23.224512,-43
2021-12-23 14:49:23.224521,-36
2021-12-23 14:49:23.224531,-38
2021-12-23 14:49:23.224540,-38
2021-12-23 14:49:23.224550,-33
2021-12-23 14:49:23.224560,-36
2021-12-23 14:49:23.224569,-31
2021-12-23 14:49:23.224579,-21
2021-12-23 14:49:23.224588,-19
2021-12-23 14:49:23.224598,-19
2021-12-23 14:49:23.224608,-19
2021-12-23 14:49:23.224617,-16
2021-12-23 14:49:23.224627,-9
2021-12-23 14:49:23.224636,-14
2021-12-23 14:49:23.224646,-24
2021-12-23 14:49:23.224656,-14
2021-12-23 14:49:23.495057,0
2021-12-23 14:49:23.495088,-9
2021-12-23 14:49:23.495099,-31
2021-12-23 14:49:23.495109,-38
2021-12-23 14:49:23.495118,-33
2021-12-23 14:49:23.495128,-21
2021-12-23 14:49:23.495138,-12
2021-12-23 14:49:23.495147,-2
2021-12-23 14:49:23.495157,4
2021-12-23 14:49:23.495166,4
2021-12-23 14:49:23.495176,4
2021-12-23 14:49:23.495186,-2
2021-12-23 14:49:23.495195,-26
2021-12-23 14:49:23.495205,-38
2021-12-23 14:49:23.495214,-16
2021-12-23 14:49:23.495224,2
2021-12-23 14:49:23.495234,-2
2021-12-23 14:49:23.495244,-12
2021-12-23 14:49:23.495253,-12
2021-12-23 14:49:23.495263,-7
2021-12-23 14:49:23.495272,4
2021-12-23 14:49:23.495282,26
2021-12-23 14:49:23.495292,115
2021-12-23 14:49:23.495301,375
2021-12-23 14:49:23.495311,769
2021-12-23 14:49:23.495320,973
2021-12-23 14:49:23.495330,437
2021-12-23 14:49:23.495340,-375
2021-12-23 14:49:23.495349,-341
2021-12-23 14:49:23.495359,67
2021-12-23 14:49:23.675349,-14
2021-12-23 14:49:23.675378,-127
2021-12-23 14:49:23.675390,-12
2021-12-23 14:49:23.675400,-2
2021-12-23 14:49:23.675409,-52
2021-12-23 14:49:23.675419,-14
2021-12-23 14:49:23.675429,16
2021-12-23 14:49:23.675438,9
2021-12-23 14:49:23.675448,16
2021-12-23 14:49:23.675458,26
2021-12-23 14:49:23.675467,21
2021-12-23 14:49:23.675477,28
2021-12-23 14:49:23.675486,45
2021-12-23 14:49:23.675496,57
2021-12-23 14:49:23.675506,62
2021-12-23 14:49:23.675515,74
2021-12-23 14:49:23.675525,86
2021-12-23 14:49:23.675535,103
2021-12-23 14:49:23.675544,127
2021-12-23 14:49:23.675554,156
2021-12-23 14:49:23.675590,182
2021-12-23 14:49:23.675601,199
2021-12-23 14:49:23.675611,226
2021-12-23 14:49:23.675620,252
2021-12-23 14:49:23.675630,257
2021-12-23 14:49:23.675640,269
2021-12-23 14:49:23.675650,290
2021-12-23 14:49:23.675659,293
2021-12-23 14:49:23.675669,269
2021-12-23 14:49:23.675679,235
2021-12-23 14:49:24.078093,177
2021-12-23 14:49:24.078113,101
2021-12-23 14:49:24.078121,28
2021-12-23 14:49:24.078127,-24
2021-12-23 14:49:24.078134,-62
2021-12-23 14:49:24.078140,-91
2021-12-23 14:49:24.078147,-101
2021-12-23 14:49:24.078153,-96
2021-12-23 14:49:24.078160,-91
2021-12-23 14:49:24.078166,-86
2021-12-23 14:49:24.078173,-74
2021-12-23 14:49:24.078179,-64
2021-12-23 14:49:24.078186,-62
2021-12-23 14:49:24.078192,-55
2021-12-23 14:49:24.078199,-43
2021-12-23 14:49:24.078205,-38
2021-12-23 14:49:24.078212,-33
2021-12-23 14:49:24.078218,-24
2021-12-23 14:49:24.078225,-12
2021-12-23 14:49:24.078231,-7
2021-12-23 14:49:24.078246,-2
2021-12-23 14:49:24.078253,0
2021-12-23 14:49:24.078259,2
2021-12-23 14:49:24.078265,7
2021-12-23 14:49:24.078272,9
2021-12-23 14:49:24.078278,7
2021-12-23 14:49:24.078301,7
2021-12-23 14:49:24.078323,19
2021-12-23 14:49:24.078333,16
2021-12-23 14:49:24.078340,-7
2021-12-23 14:49:24.169781,-12
2021-12-23 14:49:24.169811,2
2021-12-23 14:49:24.169823,4
2021-12-23 14:49:24.169833,2
2021-12-23 14:49:24.169842,7
2021-12-23 14:49:24.169852,12
2021-12-23 14:49:24.169862,12
2021-12-23 14:49:24.169871,16
2021-12-23 14:49:24.169881,21
2021-12-23 14:49:24.169891,9
2021-12-23 14:49:24.169900,-14
2021-12-23 14:49:24.169910,-7
2021-12-23 14:49:24.169920,16
2021-12-23 14:49:24.169930,19
2021-12-23 14:49:24.169939,28
2021-12-23 14:49:24.169949,48
2021-12-23 14:49:24.169959,40
2021-12-23 14:49:24.169968,24
2021-12-23 14:49:24.169978,19
2021-12-23 14:49:24.169988,19
2021-12-23 14:49:24.169997,19
2021-12-23 14:49:24.170007,24
2021-12-23 14:49:24.170017,24
2021-12-23 14:49:24.170026,16
2021-12-23 14:49:24.170036,0
2021-12-23 14:49:24.170046,0
2021-12-23 14:49:24.170056,14
2021-12-23 14:49:24.170066,21
2021-12-23 14:49:24.170075,33
2021-12-23 14:49:24.170085,137
2021-12-23 14:49:24.394737,404
2021-12-23 14:49:24.394757,798
2021-12-23 14:49:24.394764,985
2021-12-23 14:49:24.394771,408
2021-12-23 14:49:24.394777,-387
2021-12-23 14:49:24.394783,-293
2021-12-23 14:49:24.394790,88
2021-12-23 14:49:24.394796,-43
2021-12-23 14:49:24.394802,-153
2021-12-23 14:49:24.394808,-36
2021-12-23 14:49:24.394815,-31
2021-12-23 14:49:24.394821,-76
2021-12-23 14:49:24.394827,-40
2021-12-23 14:49:24.394833,-24
2021-12-23 14:49:24.394840,-40
2021-12-23 14:49:24.394846,-26
2021-12-23 14:49:24.394852,-4
2021-12-23 14:49:24.394858,-2
2021-12-23 14:49:24.394865,2
2021-12-23 14:49:24.394871,16
2021-12-23 14:49:24.394877,21
2021-12-23 14:49:24.394883,28
2021-12-23 14:49:24.394890,48
2021-12-23 14:49:24.394896,62
2021-12-23 14:49:24.394902,72
2021-12-23 14:49:24.394908,96
2021-12-23 14:49:24.394915,122
2021-12-23 14:49:24.394921,146
2021-12-23 14:49:24.394927,170
2021-12-23 14:49:24.394933,197
2021-12-23 14:49:24.574912,221
2021-12-23 14:49:24.574932,247
2021-12-23 14:49:24.574940,266
2021-12-23 14:49:24.574947,278
2021-12-23 14:49:24.574954,271
2021-12-23 14:49:24.574960,240
2021-12-23 14:49:24.574978,202
2021-12-23 14:49:24.574985,153
2021-12-23 14:49:24.574992,84
2021-12-23 14:49:24.574998,14
2021-12-23 14:49:24.575004,-31
2021-12-23 14:49:24.575011,-64
2021-12-23 14:49:24.575017,-93
2021-12-23 14:49:24.575024,-101
2021-12-23 14:49:24.575030,-81
2021-12-23 14:49:24.575036,-69
2021-12-23 14:49:24.575043,-74
2021-12-23 14:49:24.575049,-74
2021-12-23 14:49:24.575056,-62
2021-12-23 14:49:24.575062,-48
2021-12-23 14:49:24.575068,-36
2021-12-23 14:49:24.575075,-38
2021-12-23 14:49:24.575081,-48
2021-12-23 14:49:24.575087,-36
2021-12-23 14:49:24.575094,-19
2021-12-23 14:49:24.575105,-9
2021-12-23 14:49:24.575112,-2
2021-12-23 14:49:24.575118,0
2021-12-23 14:49:24.575125,-4
2021-12-23 14:49:24.575131,0
2021-12-23 14:49:24.888629,7
2021-12-23 14:49:24.888660,7
2021-12-23 14:49:24.888668,9
2021-12-23 14:49:24.888674,12
2021-12-23 14:49:24.888681,4
2021-12-23 14:49:24.888687,2
2021-12-23 14:49:24.888694,7
2021-12-23 14:49:24.888700,14
2021-12-23 14:49:24.888706,4
2021-12-23 14:49:24.888713,-9
2021-12-23 14:49:24.888719,2
2021-12-23 14:49:24.888726,14
2021-12-23 14:49:24.888732,2
2021-12-23 14:49:24.888738,-12
2021-12-23 14:49:24.888745,-9
2021-12-23 14:49:24.888751,-4
2021-12-23 14:49:24.888757,-7
2021-12-23 14:49:24.888764,-12
2021-12-23 14:49:24.888770,-12
2021-12-23 14:49:24.888776,-12
2021-12-23 14:49:24.888783,-7
2021-12-23 14:49:24.888789,-7
2021-12-23 14:49:24.888795,-4
2021-12-23 14:49:24.888802,7
2021-12-23 14:49:24.888808,24
2021-12-23 14:49:24.888814,36
2021-12-23 14:49:24.888821,43
2021-12-23 14:49:24.888827,36
2021-12-23 14:49:24.888833,14
2021-12-23 14:49:24.888839,4
2021-12-23 14:49:25.025298,12
2021-12-23 14:49:25.025319,9
2021-12-23 14:49:25.025327,0
2021-12-23 14:49:25.025334,4
2021-12-23 14:49:25.025340,4
2021-12-23 14:49:25.025346,0
2021-12-23 14:49:25.025353,7
2021-12-23 14:49:25.025359,21
2021-12-23 14:49:25.025366,31
2021-12-23 14:49:25.025372,50
2021-12-23 14:49:25.025378,180
2021-12-23 14:49:25.025385,488
2021-12-23 14:49:25.025391,901
2021-12-23 14:49:25.025397,916
2021-12-23 14:49:25.025404,134
2021-12-23 14:49:25.025410,-452
2021-12-23 14:49:25.025417,-127
2021-12-23 14:49:25.025423,103
2021-12-23 14:49:25.025429,-105
2021-12-23 14:49:25.025436,-117
2021-12-23 14:49:25.025442,-9
2021-12-23 14:49:25.025448,-43
2021-12-23 14:49:25.025454,-55
2021-12-23 14:49:25.025461,-2
2021-12-23 14:49:25.025467,2
2021-12-23 14:49:25.025473,-7
2021-12-23 14:49:25.025480,7
2021-12-23 14:49:25.025486,21
2021-12-23 14:49:25.025492,28
2021-12-23 14:49:25.025499,28
2021-12-23 14:49:25.294902,31
2021-12-23 14:49:25.294932,50
2021-12-23 14:49:25.294944,64
2021-12-23 14:49:25.294954,64
2021-12-23 14:49:25.294963,79
2021-12-23 14:49:25.294973,108
2021-12-23 14:49:25.294982,127
2021-12-23 14:49:25.294992,139
2021-12-23 14:49:25.295002,161
2021-12-23 14:49:25.295011,185
2021-12-23 14:49:25.295021,209
2021-12-23 14:49:25.295031,235
2021-12-23 14:49:25.295040,262
2021-12-23 14:49:25.295050,283
2021-12-23 14:49:25.295060,288
2021-12-23 14:49:25.295069,271
2021-12-23 14:49:25.295079,254
2021-12-23 14:49:25.295089,223
2021-12-23 14:49:25.295098,156
2021-12-23 14:49:25.295108,79
2021-12-23 14:49:25.295117,9
2021-12-23 14:49:25.295127,-43
2021-12-23 14:49:25.295137,-72
2021-12-23 14:49:25.295146,-79
2021-12-23 14:49:25.295156,-86
2021-12-23 14:49:25.295165,-76
2021-12-23 14:49:25.295176,-67
2021-12-23 14:49:25.295185,-72
2021-12-23 14:49:25.295195,-60
2021-12-23 14:49:25.295204,-45
2021-12-23 14:49:25.520375,-48
2021-12-23 14:49:25.520405,-48
2021-12-23 14:49:25.520416,-33
2021-12-23 14:49:25.520427,-24
2021-12-23 14:49:25.520436,-16
2021-12-23 14:49:25.520446,-12
2021-12-23 14:49:25.520456,-4
2021-12-23 14:49:25.520466,2
2021-12-23 14:49:25.520475,-7
2021-12-23 14:49:25.520485,-14
2021-12-23 14:49:25.520495,0
2021-12-23 14:49:25.520505,7
2021-12-23 14:49:25.520515,4
2021-12-23 14:49:25.520524,7
2021-12-23 14:49:25.520534,2
2021-12-23 14:49:25.520544,2
2021-12-23 14:49:25.520553,2
2021-12-23 14:49:25.520563,-4
2021-12-23 14:49:25.520573,-2
2021-12-23 14:49:25.520583,4
2021-12-23 14:49:25.520592,2
2021-12-23 14:49:25.520602,-4
2021-12-23 14:49:25.520612,0
2021-12-23 14:49:25.520621,9
2021-12-23 14:49:25.520631,9
2021-12-23 14:49:25.520641,9
2021-12-23 14:49:25.520650,16
2021-12-23 14:49:25.520660,14
2021-12-23 14:49:25.520670,9
2021-12-23 14:49:25.520679,16
2021-12-23 14:49:25.744871,21
2021-12-23 14:49:25.744901,16
2021-12-23 14:49:25.744912,14
2021-12-23 14:49:25.744922,12
2021-12-23 14:49:25.744932,9
2021-12-23 14:49:25.744941,9
2021-12-23 14:49:25.744951,7
2021-12-23 14:49:25.744960,7
2021-12-23 14:49:25.744970,14
2021-12-23 14:49:25.744979,24
2021-12-23 14:49:25.744989,38
2021-12-23 14:49:25.744998,50
2021-12-23 14:49:25.745008,43
2021-12-23 14:49:25.745017,19
2021-12-23 14:49:25.745027,7
2021-12-23 14:49:25.745036,12
2021-12-23 14:49:25.745059,21
2021-12-23 14:49:25.745070,19
2021-12-23 14:49:25.745079,16
2021-12-23 14:49:25.745089,19
2021-12-23 14:49:25.745098,14
2021-12-23 14:49:25.745108,7
2021-12-23 14:49:25.745118,19
2021-12-23 14:49:25.745127,33
2021-12-23 14:49:25.745137,28
2021-12-23 14:49:25.745146,81
2021-12-23 14:49:25.745156,298
2021-12-23 14:49:25.745166,673
2021-12-23 14:49:25.745175,1007
2021-12-23 14:49:25.745185,687
2021-12-23 14:49:25.970330,-189
2021-12-23 14:49:25.970360,-379
2021-12-23 14:49:25.970372,40
2021-12-23 14:49:25.970383,26
2021-12-23 14:49:25.970392,-146
2021-12-23 14:49:25.970402,-38
2021-12-23 14:49:25.970412,7
2021-12-23 14:49:25.970421,-64
2021-12-23 14:49:25.970431,-38
2021-12-23 14:49:25.970441,7
2021-12-23 14:49:25.970450,-4
2021-12-23 14:49:25.970460,0
2021-12-23 14:49:25.970470,21
2021-12-23 14:49:25.970479,21
2021-12-23 14:49:25.970489,24
2021-12-23 14:49:25.970499,36
2021-12-23 14:49:25.970509,45
2021-12-23 14:49:25.970538,57
2021-12-23 14:49:25.970548,69
2021-12-23 14:49:25.970558,76
2021-12-23 14:49:25.970568,88
2021-12-23 14:49:25.970577,115
2021-12-23 14:49:25.970587,139
2021-12-23 14:49:25.970597,151
2021-12-23 14:49:25.970606,173
2021-12-23 14:49:25.970616,202
2021-12-23 14:49:25.970626,228
2021-12-23 14:49:25.970635,252
2021-12-23 14:49:25.970645,266
2021-12-23 14:49:25.970655,276
2021-12-23 14:49:26.194898,286
2021-12-23 14:49:26.194918,283
2021-12-23 14:49:26.194925,262
2021-12-23 14:49:26.194932,211
2021-12-23 14:49:26.194938,139
2021-12-23 14:49:26.194944,76
2021-12-23 14:49:26.194951,19
2021-12-23 14:49:26.194957,-28
2021-12-23 14:49:26.194963,-60
2021-12-23 14:49:26.194969,-74
2021-12-23 14:49:26.194976,-76
2021-12-23 14:49:26.194982,-72
2021-12-23 14:49:26.194988,-74
2021-12-23 14:49:26.194994,-64
2021-12-23 14:49:26.195000,-52
2021-12-23 14:49:26.195007,-50
2021-12-23 14:49:26.195013,-43
2021-12-23 14:49:26.195019,-31
2021-12-23 14:49:26.195025,-24
2021-12-23 14:49:26.195031,-19
2021-12-23 14:49:26.195038,-14
2021-12-23 14:49:26.195044,-9
2021-12-23 14:49:26.195050,-9
2021-12-23 14:49:26.195056,-9
2021-12-23 14:49:26.195062,-2
2021-12-23 14:49:26.195069,-4
2021-12-23 14:49:26.195075,-9
2021-12-23 14:49:26.195081,-7
2021-12-23 14:49:26.195087,0
2021-12-23 14:49:26.195094,-2
2021-12-23 14:49:26.464259,-4
2021-12-23 14:49:26.464289,2
2021-12-23 14:49:26.464302,0
2021-12-23 14:49:26.464312,-21
2021-12-23 14:49:26.464321,-26
2021-12-23 14:49:26.464331,-9
2021-12-23 14:49:26.464341,-9
2021-12-23 14:49:26.464350,-24
2021-12-23 14:49:26.464360,-14
2021-12-23 14:49:26.464370,0
2021-12-23 14:49:26.464380,-7
2021-12-23 14:49:26.464389,-16
2021-12-23 14:49:26.464399,-9
2021-12-23 14:49:26.464409,-2
2021-12-23 14:49:26.464419,-2
2021-12-23 14:49:26.464428,-2
2021-12-23 14:49:26.464438,0
2021-12-23 14:49:26.464448,-2
2021-12-23 14:49:26.464457,-4
2021-12-23 14:49:26.464467,-7
2021-12-23 14:49:26.464477,-7
2021-12-23 14:49:26.464486,2
2021-12-23 14:49:26.464496,-4
2021-12-23 14:49:26.464506,-33
2021-12-23 14:49:26.464515,-31
2021-12-23 14:49:26.464525,4
2021-12-23 14:49:26.464535,16
2021-12-23 14:49:26.464545,16
2021-12-23 14:49:26.464554,31
2021-12-23 14:49:26.464564,40
2021-12-23 14:49:26.645361,31
2021-12-23 14:49:26.645391,4
2021-12-23 14:49:26.645402,-2
2021-12-23 14:49:26.645412,7
2021-12-23 14:49:26.645422,0
2021-12-23 14:49:26.645431,-12
2021-12-23 14:49:26.645441,2
2021-12-23 14:49:26.645451,7
2021-12-23 14:49:26.645460,7
2021-12-23 14:49:26.645470,19
2021-12-23 14:49:26.645479,24
2021-12-23 14:49:26.645489,19
2021-12-23 14:49:26.645498,45
2021-12-23 14:49:26.645508,180
2021-12-23 14:49:26.645517,483
2021-12-23 14:49:26.645527,901
2021-12-23 14:49:26.645537,966
2021-12-23 14:49:26.645546,209
2021-12-23 14:49:26.645556,-464
2021-12-23 14:49:26.645566,-180
2021-12-23 14:49:26.645575,122
2021-12-23 14:49:26.645585,-69
2021-12-23 14:49:26.645595,-113
2021-12-23 14:49:26.645604,0
2021-12-23 14:49:26.645614,-19
2021-12-23 14:49:26.645623,-38
2021-12-23 14:49:26.645633,2
2021-12-23 14:49:26.645642,9
2021-12-23 14:49:26.645652,4
2021-12-23 14:49:26.645662,16
2021-12-23 14:49:26.914035,26
2021-12-23 14:49:26.914065,40
2021-12-23 14:49:26.914077,52
2021-12-23 14:49:26.914086,43
2021-12-23 14:49:26.914096,40
2021-12-23 14:49:26.914106,67
2021-12-23 14:49:26.914116,86
2021-12-23 14:49:26.914125,81
2021-12-23 14:49:26.914135,93
2021-12-23 14:49:26.914145,122
2021-12-23 14:49:26.914154,137
2021-12-23 14:49:26.914164,156
2021-12-23 14:49:26.914173,187
2021-12-23 14:49:26.914183,221
2021-12-23 14:49:26.914193,245
2021-12-23 14:49:26.914203,266
2021-12-23 14:49:26.914212,278
2021-12-23 14:49:26.914222,283
2021-12-23 14:49:26.914232,286
2021-12-23 14:49:26.914241,274
2021-12-23 14:49:26.914251,242
2021-12-23 14:49:26.914261,187
2021-12-23 14:49:26.914270,110
2021-12-23 14:49:26.914280,38
2021-12-23 14:49:26.914290,-12
2021-12-23 14:49:26.914300,-43
2021-12-23 14:49:26.914309,-67
2021-12-23 14:49:26.914319,-81
2021-12-23 14:49:26.914329,-81
2021-12-23 14:49:26.914338,-67
2021-12-23 14:49:27.184923,-57
2021-12-23 14:49:27.184953,-60
2021-12-23 14:49:27.184967,-67
2021-12-23 14:49:27.184979,-67
2021-12-23 14:49:27.184990,-57
2021-12-23 14:49:27.185000,-43
2021-12-23 14:49:27.185012,-28
2021-12-23 14:49:27.185023,-28
2021-12-23 14:49:27.185034,-33
2021-12-23 14:49:27.185045,-24
2021-12-23 14:49:27.185055,-12
2021-12-23 14:49:27.185066,-4
2021-12-23 14:49:27.185078,-12
2021-12-23 14:49:27.185089,-16
2021-12-23 14:49:27.185101,0
2021-12-23 14:49:27.185111,2
2021-12-23 14:49:27.185123,-7
2021-12-23 14:49:27.185161,2
2021-12-23 14:49:27.185201,16
2021-12-23 14:49:27.185216,4
2021-12-23 14:49:27.185227,-2
2021-12-23 14:49:27.185238,7
2021-12-23 14:49:27.185249,9
2021-12-23 14:49:27.185260,7
2021-12-23 14:49:27.185271,0
2021-12-23 14:49:27.185283,-7
2021-12-23 14:49:27.185294,2
2021-12-23 14:49:27.185305,9
2021-12-23 14:49:27.185317,4
2021-12-23 14:49:27.185328,7
2021-12-23 14:49:27.409668,19
2021-12-23 14:49:27.409689,16
2021-12-23 14:49:27.409696,4
2021-12-23 14:49:27.409702,7
2021-12-23 14:49:27.409709,14
2021-12-23 14:49:27.409715,9
2021-12-23 14:49:27.409722,4
2021-12-23 14:49:27.409728,9
2021-12-23 14:49:27.409734,16
2021-12-23 14:49:27.409740,14
2021-12-23 14:49:27.409747,24
2021-12-23 14:49:27.409753,38
2021-12-23 14:49:27.409759,43
2021-12-23 14:49:27.409765,40
2021-12-23 14:49:27.409772,28
2021-12-23 14:49:27.409778,16
2021-12-23 14:49:27.409784,16
2021-12-23 14:49:27.409790,24
2021-12-23 14:49:27.409797,28
2021-12-23 14:49:27.409803,31
2021-12-23 14:49:27.409809,26
2021-12-23 14:49:27.409815,26
2021-12-23 14:49:27.409821,31
2021-12-23 14:49:27.409828,24
2021-12-23 14:49:27.409834,24
2021-12-23 14:49:27.409840,38
2021-12-23 14:49:27.409846,50
2021-12-23 14:49:27.409853,146
2021-12-23 14:49:27.409859,418
2021-12-23 14:49:27.409865,822
2021-12-23 14:49:27.679871,1017
2021-12-23 14:49:27.679902,440
2021-12-23 14:49:27.679914,-351
2021-12-23 14:49:27.679924,-257
2021-12-23 14:49:27.679934,120
2021-12-23 14:49:27.679943,-2
2021-12-23 14:49:27.679953,-115
2021-12-23 14:49:27.679963,-2
2021-12-23 14:49:27.679973,4
2021-12-23 14:49:27.679982,-36
2021-12-23 14:49:27.679992,4
2021-12-23 14:49:27.680002,28
2021-12-23 14:49:27.680012,14
2021-12-23 14:49:27.680021,26
2021-12-23 14:49:27.680031,38
2021-12-23 14:49:27.680041,33
2021-12-23 14:49:27.680051,45
2021-12-23 14:49:27.680060,64
2021-12-23 14:49:27.680070,62
2021-12-23 14:49:27.680080,60
2021-12-23 14:49:27.680089,79
2021-12-23 14:49:27.680099,96
2021-12-23 14:49:27.680109,113
2021-12-23 14:49:27.680118,132
2021-12-23 14:49:27.680128,146
2021-12-23 14:49:27.680138,168
2021-12-23 14:49:27.680148,199
2021-12-23 14:49:27.680157,226
2021-12-23 14:49:27.680177,240
2021-12-23 14:49:27.680188,264
2021-12-23 14:49:27.905047,290
2021-12-23 14:49:27.905077,290
2021-12-23 14:49:27.905088,286
2021-12-23 14:49:27.905098,283
2021-12-23 14:49:27.905108,252
2021-12-23 14:49:27.905117,197
2021-12-23 14:49:27.905127,134
2021-12-23 14:49:27.905137,64
2021-12-23 14:49:27.905146,0
2021-12-23 14:49:27.905156,-45
2021-12-23 14:49:27.905166,-69
2021-12-23 14:49:27.905175,-67
2021-12-23 14:49:27.905185,-64
2021-12-23 14:49:27.905194,-76
2021-12-23 14:49:27.905204,-81
2021-12-23 14:49:27.905214,-64
2021-12-23 14:49:27.905223,-48
2021-12-23 14:49:27.905233,-43
2021-12-23 14:49:27.905242,-40
2021-12-23 14:49:27.905252,-36
2021-12-23 14:49:27.905262,-31
2021-12-23 14:49:27.905271,-31
2021-12-23 14:49:27.905280,-21
2021-12-23 14:49:27.905290,-7
2021-12-23 14:49:27.905300,-12
2021-12-23 14:49:27.905309,-19
2021-12-23 14:49:27.905319,-9
2021-12-23 14:49:27.905328,0
2021-12-23 14:49:27.905338,-2
2021-12-23 14:49:27.905348,-2
2021-12-23 14:49:28.085144,-7
2021-12-23 14:49:28.085175,-12
2021-12-23 14:49:28.085187,-2
2021-12-23 14:49:28.085197,-2
2021-12-23 14:49:28.085206,-14
2021-12-23 14:49:28.085216,-12
2021-12-23 14:49:28.085226,0
2021-12-23 14:49:28.085236,0
2021-12-23 14:49:28.085246,-4
2021-12-23 14:49:28.085255,-2
2021-12-23 14:49:28.085265,-4
2021-12-23 14:49:28.085275,-7
2021-12-23 14:49:28.085285,-4
2021-12-23 14:49:28.085294,-4
2021-12-23 14:49:28.085304,-4
2021-12-23 14:49:28.085314,0
2021-12-23 14:49:28.085337,7
2021-12-23 14:49:28.085347,14
2021-12-23 14:49:28.085357,9
2021-12-23 14:49:28.085366,2
2021-12-23 14:49:28.085376,9
2021-12-23 14:49:28.085386,21
2021-12-23 14:49:28.085396,16
2021-12-23 14:49:28.085405,9
2021-12-23 14:49:28.085415,4
2021-12-23 14:49:28.085424,7
2021-12-23 14:49:28.085434,7
2021-12-23 14:49:28.085444,4
2021-12-23 14:49:28.085454,12
2021-12-23 14:49:28.085463,31
2021-12-23 14:49:28.309292,40
2021-12-23 14:49:28.309322,45
2021-12-23 14:49:28.309333,57
2021-12-23 14:49:28.309344,69
2021-12-23 14:49:28.309354,57
2021-12-23 14:49:28.309363,36
2021-12-23 14:49:28.309373,31
2021-12-23 14:49:28.309383,38
2021-12-23 14:49:28.309392,26
2021-12-23 14:49:28.309402,21
2021-12-23 14:49:28.309412,40
2021-12-23 14:49:28.309422,45
2021-12-23 14:49:28.309431,31
2021-12-23 14:49:28.309441,36
2021-12-23 14:49:28.309451,48
2021-12-23 14:49:28.309460,48
2021-12-23 14:49:28.309470,74
2021-12-23 14:49:28.309480,228
2021-12-23 14:49:28.309490,548
2021-12-23 14:49:28.309499,957
2021-12-23 14:49:28.309509,969
2021-12-23 14:49:28.309519,177
2021-12-23 14:49:28.309528,-423
2021-12-23 14:49:28.309538,-105
2021-12-23 14:49:28.309548,122
2021-12-23 14:49:28.309558,-86
2021-12-23 14:49:28.309567,-81
2021-12-23 14:49:28.309577,28
2021-12-23 14:49:28.309587,-28
2021-12-23 14:49:28.309597,-45
2021-12-23 14:49:28.490259,16
2021-12-23 14:49:28.490289,16
2021-12-23 14:49:28.490300,2
2021-12-23 14:49:28.490310,24
2021-12-23 14:49:28.490320,31
2021-12-23 14:49:28.490330,28
2021-12-23 14:49:28.490340,48
2021-12-23 14:49:28.490349,62
2021-12-23 14:49:28.490376,57
2021-12-23 14:49:28.490386,55
2021-12-23 14:49:28.490395,74
2021-12-23 14:49:28.490405,93
2021-12-23 14:49:28.490415,105
2021-12-23 14:49:28.490424,129
2021-12-23 14:49:28.490434,149
2021-12-23 14:49:28.490443,163
2021-12-23 14:49:28.490453,182
2021-12-23 14:49:28.490462,214
2021-12-23 14:49:28.490472,242
2021-12-23 14:49:28.490481,257
2021-12-23 14:49:28.490491,259
2021-12-23 14:49:28.490501,266
2021-12-23 14:49:28.490549,276
2021-12-23 14:49:28.490560,271
2021-12-23 14:49:28.490569,235
2021-12-23 14:49:28.490579,177
2021-12-23 14:49:28.490588,108
2021-12-23 14:49:28.490598,40
2021-12-23 14:49:28.490608,-19
2021-12-23 14:49:28.490617,-57
2021-12-23 14:49:28.715280,-69
2021-12-23 14:49:28.715310,-76
2021-12-23 14:49:28.715321,-84
2021-12-23 14:49:28.715331,-79
2021-12-23 14:49:28.715340,-69
2021-12-23 14:49:28.715350,-62
2021-12-23 14:49:28.715360,-57
2021-12-23 14:49:28.715369,-57
2021-12-23 14:49:28.715379,-55
2021-12-23 14:49:28.715389,-43
2021-12-23 14:49:28.715398,-40
2021-12-23 14:49:28.715408,-45
2021-12-23 14:49:28.715417,-45
2021-12-23 14:49:28.715427,-36
2021-12-23 14:49:28.715437,-24
2021-12-23 14:49:28.715446,-21
2021-12-23 14:49:28.715456,-33
2021-12-23 14:49:28.715465,-40
2021-12-23 14:49:28.715475,-28
2021-12-23 14:49:28.715484,-19
2021-12-23 14:49:28.715494,-16
2021-12-23 14:49:28.715504,-12
2021-12-23 14:49:28.715513,-16
2021-12-23 14:49:28.715523,-28
2021-12-23 14:49:28.715532,-21
2021-12-23 14:49:28.715542,-12
2021-12-23 14:49:28.715563,-14
2021-12-23 14:49:28.715573,-14
2021-12-23 14:49:28.715583,-14
2021-12-23 14:49:28.715592,-14
2021-12-23 14:49:29.118452,-16
2021-12-23 14:49:29.118474,-9
2021-12-23 14:49:29.118482,4
2021-12-23 14:49:29.118489,-2
2021-12-23 14:49:29.118495,-24
2021-12-23 14:49:29.118502,-21
2021-12-23 14:49:29.118508,-12
2021-12-23 14:49:29.118515,-9
2021-12-23 14:49:29.118521,-7
2021-12-23 14:49:29.118527,-4
2021-12-23 14:49:29.118534,-9
2021-12-23 14:49:29.118540,-2
2021-12-23 14:49:29.118546,4
2021-12-23 14:49:29.118553,0
2021-12-23 14:49:29.118559,-2
2021-12-23 14:49:29.118566,9
2021-12-23 14:49:29.118572,7
2021-12-23 14:49:29.118579,-12
2021-12-23 14:49:29.118585,-7
2021-12-23 14:49:29.118591,9
2021-12-23 14:49:29.118598,14
2021-12-23 14:49:29.118604,21
2021-12-23 14:49:29.118610,31
2021-12-23 14:49:29.118617,40
2021-12-23 14:49:29.118623,40
2021-12-23 14:49:29.118629,24
2021-12-23 14:49:29.118636,19
2021-12-23 14:49:29.118642,21
2021-12-23 14:49:29.118648,21
2021-12-23 14:49:29.118655,28
2021-12-23 14:49:29.210010,28
2021-12-23 14:49:29.210040,19
2021-12-23 14:49:29.210052,26
2021-12-23 14:49:29.210062,40
2021-12-23 14:49:29.210072,36
2021-12-23 14:49:29.210081,24
2021-12-23 14:49:29.210091,33
2021-12-23 14:49:29.210101,91
2021-12-23 14:49:29.210111,271
2021-12-23 14:49:29.210121,620
2021-12-23 14:49:29.210130,1019
2021-12-23 14:49:29.210140,853
2021-12-23 14:49:29.210150,-48
2021-12-23 14:49:29.210160,-449
2021-12-23 14:49:29.210170,-21
2021-12-23 14:49:29.210179,84
2021-12-23 14:49:29.210189,-134
2021-12-23 14:49:29.210199,-60
2021-12-23 14:49:29.210209,33
2021-12-23 14:49:29.210218,-33
2021-12-23 14:49:29.210228,-33
2021-12-23 14:49:29.210238,21
2021-12-23 14:49:29.210247,14
2021-12-23 14:49:29.210257,4
2021-12-23 14:49:29.210267,19
2021-12-23 14:49:29.210276,31
2021-12-23 14:49:29.210286,31
2021-12-23 14:49:29.210296,31
2021-12-23 14:49:29.210305,43
2021-12-23 14:49:29.210315,62
2021-12-23 14:49:29.434292,69
2021-12-23 14:49:29.434311,79
2021-12-23 14:49:29.434319,98
2021-12-23 14:49:29.434325,115
2021-12-23 14:49:29.434332,129
2021-12-23 14:49:29.434338,151
2021-12-23 14:49:29.434344,170
2021-12-23 14:49:29.434350,187
2021-12-23 14:49:29.434357,202
2021-12-23 14:49:29.434363,223
2021-12-23 14:49:29.434369,250
2021-12-23 14:49:29.434376,266
2021-12-23 14:49:29.434382,274
2021-12-23 14:49:29.434388,281
2021-12-23 14:49:29.434395,259
2021-12-23 14:49:29.434402,209
2021-12-23 14:49:29.434409,149
2021-12-23 14:49:29.434415,88
2021-12-23 14:49:29.434421,19
2021-12-23 14:49:29.434427,-38
2021-12-23 14:49:29.434434,-67
2021-12-23 14:49:29.434440,-84
2021-12-23 14:49:29.434446,-98
2021-12-23 14:49:29.434453,-101
2021-12-23 14:49:29.434459,-98
2021-12-23 14:49:29.434465,-93
2021-12-23 14:49:29.434471,-86
2021-12-23 14:49:29.434478,-84
2021-12-23 14:49:29.434484,-81
2021-12-23 14:49:29.434490,-64
2021-12-23 14:49:29.660081,-50
2021-12-23 14:49:29.660111,-57
2021-12-23 14:49:29.660122,-52
2021-12-23 14:49:29.660132,-36
2021-12-23 14:49:29.660142,-33
2021-12-23 14:49:29.660152,-33
2021-12-23 14:49:29.660162,-16
2021-12-23 14:49:29.660171,-19
2021-12-23 14:49:29.660181,-26
2021-12-23 14:49:29.660191,-19
2021-12-23 14:49:29.660200,-19
2021-12-23 14:49:29.660210,-24
2021-12-23 14:49:29.660219,-14
2021-12-23 14:49:29.660229,-12
2021-12-23 14:49:29.660239,-28
2021-12-23 14:49:29.660248,-28
2021-12-23 14:49:29.660271,-14
2021-12-23 14:49:29.660281,-9
2021-12-23 14:49:29.660291,-4
2021-12-23 14:49:29.660301,-2
2021-12-23 14:49:29.660310,0
2021-12-23 14:49:29.660320,0
2021-12-23 14:49:29.660330,-2
2021-12-23 14:49:29.660339,4
2021-12-23 14:49:29.660349,12
2021-12-23 14:49:29.660359,0
2021-12-23 14:49:29.660368,-9
2021-12-23 14:49:29.660378,7
2021-12-23 14:49:29.660387,14
2021-12-23 14:49:29.660397,7
2021-12-23 14:49:29.885203,16
2021-12-23 14:49:29.885234,21
2021-12-23 14:49:29.885246,14
2021-12-23 14:49:29.885256,7
2021-12-23 14:49:29.885265,4
2021-12-23 14:49:29.885275,19
2021-12-23 14:49:29.885284,28
2021-12-23 14:49:29.885294,28
2021-12-23 14:49:29.885304,43
2021-12-23 14:49:29.885313,57
2021-12-23 14:49:29.885323,52
2021-12-23 14:49:29.885332,38
2021-12-23 14:49:29.885342,19
2021-12-23 14:49:29.885352,12
2021-12-23 14:49:29.885361,19
2021-12-23 14:49:29.885371,19
2021-12-23 14:49:29.885380,19
2021-12-23 14:49:29.885390,28
2021-12-23 14:49:29.885399,31
2021-12-23 14:49:29.885409,26
2021-12-23 14:49:29.885431,31
2021-12-23 14:49:29.885442,38
2021-12-23 14:49:29.885451,45
2021-12-23 14:49:29.885461,64
2021-12-23 14:49:29.885470,192
2021-12-23 14:49:29.885480,509
2021-12-23 14:49:29.885490,925
2021-12-23 14:49:29.885500,940
2021-12-23 14:49:29.885509,170
2021-12-23 14:49:29.885519,-432
2021-12-23 14:49:30.110086,-125
2021-12-23 14:49:30.110109,127
2021-12-23 14:49:30.110117,-74
2021-12-23 14:49:30.110123,-98
2021-12-23 14:49:30.110130,12
2021-12-23 14:49:30.110136,-19
2021-12-23 14:49:30.110143,-36
2021-12-23 14:49:30.110149,14
2021-12-23 14:49:30.110155,19
2021-12-23 14:49:30.110162,4
2021-12-23 14:49:30.110168,24
2021-12-23 14:49:30.110174,36
2021-12-23 14:49:30.110181,33
2021-12-23 14:49:30.110187,48
2021-12-23 14:49:30.110194,72
2021-12-23 14:49:30.110200,60
2021-12-23 14:49:30.110206,45
2021-12-23 14:49:30.110213,74
2021-12-23 14:49:30.110228,103
2021-12-23 14:49:30.110235,108
2021-12-23 14:49:30.110242,127
2021-12-23 14:49:30.110248,151
2021-12-23 14:49:30.110254,170
2021-12-23 14:49:30.110261,194
2021-12-23 14:49:30.110295,223
2021-12-23 14:49:30.110308,247
2021-12-23 14:49:30.110319,266
2021-12-23 14:49:30.110354,278
2021-12-23 14:49:30.110376,290
2021-12-23 14:49:30.110384,290
2021-12-23 14:49:30.334950,264
2021-12-23 14:49:30.334972,230
2021-12-23 14:49:30.334979,177
2021-12-23 14:49:30.334986,98
2021-12-23 14:49:30.334992,28
2021-12-23 14:49:30.334998,-21
2021-12-23 14:49:30.335005,-62
2021-12-23 14:49:30.335011,-79
2021-12-23 14:49:30.335017,-76
2021-12-23 14:49:30.335023,-79
2021-12-23 14:49:30.335030,-84
2021-12-23 14:49:30.335036,-79
2021-12-23 14:49:30.335042,-69
2021-12-23 14:49:30.335048,-62
2021-12-23 14:49:30.335054,-55
2021-12-23 14:49:30.335061,-50
2021-12-23 14:49:30.335067,-50
2021-12-23 14:49:30.335073,-50
2021-12-23 14:49:30.335080,-43
2021-12-23 14:49:30.335086,-36
2021-12-23 14:49:30.335092,-36
2021-12-23 14:49:30.335098,-36
2021-12-23 14:49:30.335104,-31
2021-12-23 14:49:30.335110,-24
2021-12-23 14:49:30.335117,-19
2021-12-23 14:49:30.335123,-14
2021-12-23 14:49:30.335129,-9
2021-12-23 14:49:30.335135,-14
2021-12-23 14:49:30.335141,-16
2021-12-23 14:49:30.335148,-7
2021-12-23 14:49:30.560073,-9
2021-12-23 14:49:30.560103,-19
2021-12-23 14:49:30.560114,-12
2021-12-23 14:49:30.560124,2
2021-12-23 14:49:30.560134,-7
2021-12-23 14:49:30.560144,-19
2021-12-23 14:49:30.560154,-7
2021-12-23 14:49:30.560163,-2
2021-12-23 14:49:30.560173,-12
2021-12-23 14:49:30.560183,-9
2021-12-23 14:49:30.560193,2
2021-12-23 14:49:30.560202,-2
2021-12-23 14:49:30.560212,0
2021-12-23 14:49:30.560222,7
2021-12-23 14:49:30.560232,12
2021-12-23 14:49:30.560242,16
2021-12-23 14:49:30.560251,9
2021-12-23 14:49:30.560261,0
2021-12-23 14:49:30.560271,9
2021-12-23 14:49:30.560280,21
2021-12-23 14:49:30.560290,21
2021-12-23 14:49:30.560300,19
2021-12-23 14:49:30.560309,21
2021-12-23 14:49:30.560319,16
2021-12-23 14:49:30.560329,12
2021-12-23 14:49:30.560338,12
2021-12-23 14:49:30.560348,28
2021-12-23 14:49:30.560358,48
2021-12-23 14:49:30.560367,38
2021-12-23 14:49:30.560377,31
2021-12-23 14:49:30.829776,60
2021-12-23 14:49:30.829797,72
2021-12-23 14:49:30.829804,48
2021-12-23 14:49:30.829811,28
2021-12-23 14:49:30.829817,26
2021-12-23 14:49:30.829824,26
2021-12-23 14:49:30.829843,36
2021-12-23 14:49:30.829851,40
2021-12-23 14:49:30.829857,38
2021-12-23 14:49:30.829864,31
2021-12-23 14:49:30.829870,26
2021-12-23 14:49:30.829876,19
2021-12-23 14:49:30.829883,28
2021-12-23 14:49:30.829889,48
2021-12-23 14:49:30.829896,108
2021-12-23 14:49:30.829902,319
2021-12-23 14:49:30.829908,699
2021-12-23 14:49:30.829915,1038
2021-12-23 14:49:30.829921,707
2021-12-23 14:49:30.829928,-173
2021-12-23 14:49:30.829934,-363
2021-12-23 14:49:30.829941,60
2021-12-23 14:49:30.829947,48
2021-12-23 14:49:30.829953,-139
2021-12-23 14:49:30.829960,-36
2021-12-23 14:49:30.829966,14
2021-12-23 14:49:30.829973,-48
2021-12-23 14:49:30.829979,-21
2021-12-23 14:49:30.829986,19
2021-12-23 14:49:30.829992,7
2021-12-23 14:49:31.143946,14
2021-12-23 14:49:31.143976,26
2021-12-23 14:49:31.143987,26
2021-12-23 14:49:31.143997,36
2021-12-23 14:49:31.144007,45
2021-12-23 14:49:31.144017,40
2021-12-23 14:49:31.144027,48
2021-12-23 14:49:31.144036,67
2021-12-23 14:49:31.144046,81
2021-12-23 14:49:31.144055,91
2021-12-23 14:49:31.144065,98
2021-12-23 14:49:31.144075,103
2021-12-23 14:49:31.144084,134
2021-12-23 14:49:31.144094,173
2021-12-23 14:49:31.144104,187
2021-12-23 14:49:31.144114,199
2021-12-23 14:49:31.144123,226
2021-12-23 14:49:31.144135,245
2021-12-23 14:49:31.144144,262
2021-12-23 14:49:31.144154,276
2021-12-23 14:49:31.144164,278
2021-12-23 14:49:31.144173,254
2021-12-23 14:49:31.144183,204
2021-12-23 14:49:31.144193,146
2021-12-23 14:49:31.144202,81
2021-12-23 14:49:31.144212,9
2021-12-23 14:49:31.144222,-38
2021-12-23 14:49:31.144232,-64
2021-12-23 14:49:31.144242,-88
2021-12-23 14:49:31.144251,-101
2021-12-23 14:49:31.279824,-93
2021-12-23 14:49:31.279846,-84
2021-12-23 14:49:31.279853,-79
2021-12-23 14:49:31.279860,-76
2021-12-23 14:49:31.279866,-67
2021-12-23 14:49:31.279872,-55
2021-12-23 14:49:31.279878,-45
2021-12-23 14:49:31.279884,-40
2021-12-23 14:49:31.279891,-57
2021-12-23 14:49:31.279897,-67
2021-12-23 14:49:31.279903,-40
2021-12-23 14:49:31.279909,-31
2021-12-23 14:49:31.279915,-36
2021-12-23 14:49:31.279922,-31
2021-12-23 14:49:31.279928,-31
2021-12-23 14:49:31.279934,-28
2021-12-23 14:49:31.279940,-21
2021-12-23 14:49:31.279947,-21
2021-12-23 14:49:31.279953,-21
2021-12-23 14:49:31.279959,-19
2021-12-23 14:49:31.279965,-19
2021-12-23 14:49:31.279971,-19
2021-12-23 14:49:31.279977,-14
2021-12-23 14:49:31.279984,-9
2021-12-23 14:49:31.279990,-2
2021-12-23 14:49:31.279996,7
2021-12-23 14:49:31.280002,7
2021-12-23 14:49:31.280009,-12
2021-12-23 14:49:31.280015,-21
2021-12-23 14:49:31.280021,-7
2021-12-23 14:49:31.549790,-2
2021-12-23 14:49:31.549820,-12
2021-12-23 14:49:31.549831,-9
2021-12-23 14:49:31.549841,-2
2021-12-23 14:49:31.549851,2
2021-12-23 14:49:31.549860,14
2021-12-23 14:49:31.549870,12
2021-12-23 14:49:31.549879,-9
2021-12-23 14:49:31.549982,-4
2021-12-23 14:49:31.549993,4
2021-12-23 14:49:31.550003,-7
2021-12-23 14:49:31.550012,-9
2021-12-23 14:49:31.550022,4
2021-12-23 14:49:31.550031,2
2021-12-23 14:49:31.550041,-2
2021-12-23 14:49:31.550051,-7
2021-12-23 14:49:31.550060,-19
2021-12-23 14:49:31.550070,-9
2021-12-23 14:49:31.550080,19
2021-12-23 14:49:31.550089,31
2021-12-23 14:49:31.550099,24
2021-12-23 14:49:31.550108,26
2021-12-23 14:49:31.550118,38
2021-12-23 14:49:31.550128,40
2021-12-23 14:49:31.550137,24
2021-12-23 14:49:31.550147,9
2021-12-23 14:49:31.550156,9
2021-12-23 14:49:31.550166,21
2021-12-23 14:49:31.550176,28
2021-12-23 14:49:31.550185,31
2021-12-23 14:49:31.775418,28
2021-12-23 14:49:31.775448,19
2021-12-23 14:49:31.775459,16
2021-12-23 14:49:31.775469,33
2021-12-23 14:49:31.775479,40
2021-12-23 14:49:31.775489,76
2021-12-23 14:49:31.775498,257
2021-12-23 14:49:31.775508,615
2021-12-23 14:49:31.775518,995
2021-12-23 14:49:31.775527,803
2021-12-23 14:49:31.775537,-76
2021-12-23 14:49:31.775547,-442
2021-12-23 14:49:31.775557,-21
2021-12-23 14:49:31.775566,81
2021-12-23 14:49:31.775576,-132
2021-12-23 14:49:31.775586,-81
2021-12-23 14:49:31.775595,4
2021-12-23 14:49:31.775605,-40
2021-12-23 14:49:31.775615,-36
2021-12-23 14:49:31.775625,0
2021-12-23 14:49:31.775634,-4
2021-12-23 14:49:31.775644,0
2021-12-23 14:49:31.775654,16
2021-12-23 14:49:31.775663,21
2021-12-23 14:49:31.775673,28
2021-12-23 14:49:31.775683,38
2021-12-23 14:49:31.775692,50
2021-12-23 14:49:31.775702,57
2021-12-23 14:49:31.775711,45
2021-12-23 14:49:31.775721,45
2021-12-23 14:49:31.954652,81
2021-12-23 14:49:31.954674,108
2021-12-23 14:49:31.954681,117
2021-12-23 14:49:31.954688,139
2021-12-23 14:49:31.954694,168
2021-12-23 14:49:31.954701,180
2021-12-23 14:49:31.954707,192
2021-12-23 14:49:31.954714,233
2021-12-23 14:49:31.954720,264
2021-12-23 14:49:31.954727,257
2021-12-23 14:49:31.954733,254
2021-12-23 14:49:31.954739,269
2021-12-23 14:49:31.954746,250
2021-12-23 14:49:31.954752,202
2021-12-23 14:49:31.954758,146
2021-12-23 14:49:31.954765,81
2021-12-23 14:49:31.954771,7
2021-12-23 14:49:31.954777,-48
2021-12-23 14:49:31.954784,-84
2021-12-23 14:49:31.954790,-105
2021-12-23 14:49:31.954797,-117
2021-12-23 14:49:31.954803,-125
2021-12-23 14:49:31.954809,-120
2021-12-23 14:49:31.954815,-113
2021-12-23 14:49:31.954822,-110
2021-12-23 14:49:31.954828,-93
2021-12-23 14:49:31.954834,-76
2021-12-23 14:49:31.954841,-62
2021-12-23 14:49:31.954847,-60
2021-12-23 14:49:31.954853,-69
2021-12-23 14:49:32.179738,-60
2021-12-23 14:49:32.179768,-43
2021-12-23 14:49:32.179779,-48
2021-12-23 14:49:32.179789,-38
2021-12-23 14:49:32.179799,-16
2021-12-23 14:49:32.179809,-24
2021-12-23 14:49:32.179818,-33
2021-12-23 14:49:32.179828,-24
2021-12-23 14:49:32.179838,-24
2021-12-23 14:49:32.179847,-26
2021-12-23 14:49:32.179857,-38
2021-12-23 14:49:32.179867,-38
2021-12-23 14:49:32.179876,-21
2021-12-23 14:49:32.179886,-16
2021-12-23 14:49:32.179896,-26
2021-12-23 14:49:32.179906,-28
2021-12-23 14:49:32.179915,-21
2021-12-23 14:49:32.179925,-24
2021-12-23 14:49:32.179935,-14
2021-12-23 14:49:32.179944,-4
2021-12-23 14:49:32.179954,-19
2021-12-23 14:49:32.179964,-21
2021-12-23 14:49:32.179974,-2
2021-12-23 14:49:32.179983,-7
2021-12-23 14:49:32.179993,-19
2021-12-23 14:49:32.180002,-14
2021-12-23 14:49:32.180012,-7
2021-12-23 14:49:32.180022,-7
2021-12-23 14:49:32.180032,-2
2021-12-23 14:49:32.180042,12
2021-12-23 14:49:32.404890,31
2021-12-23 14:49:32.404911,48
2021-12-23 14:49:32.404918,55
2021-12-23 14:49:32.404925,40
2021-12-23 14:49:32.404931,16
2021-12-23 14:49:32.404937,0
2021-12-23 14:49:32.404944,4
2021-12-23 14:49:32.404950,14
2021-12-23 14:49:32.404956,21
2021-12-23 14:49:32.404963,16
2021-12-23 14:49:32.404979,0
2021-12-23 14:49:32.404986,-2
2021-12-23 14:49:32.404992,19
2021-12-23 14:49:32.404998,24
2021-12-23 14:49:32.405005,21
2021-12-23 14:49:32.405011,43
2021-12-23 14:49:32.405017,175
2021-12-23 14:49:32.405024,480
2021-12-23 14:49:32.405030,856
2021-12-23 14:49:32.405036,911
2021-12-23 14:49:32.405043,230
2021-12-23 14:49:32.405049,-442
2021-12-23 14:49:32.405055,-221
2021-12-23 14:49:32.405062,98
2021-12-23 14:49:32.405068,-55
2021-12-23 14:49:32.405074,-101
2021-12-23 14:49:32.405081,19
2021-12-23 14:49:32.405087,-4
2021-12-23 14:49:32.405093,-45
2021-12-23 14:49:32.405099,4
2021-12-23 14:49:32.675208,24
2021-12-23 14:49:32.675239,12
2021-12-23 14:49:32.675251,31
2021-12-23 14:49:32.675261,45
2021-12-23 14:49:32.675270,36
2021-12-23 14:49:32.675280,31
2021-12-23 14:49:32.675289,45
2021-12-23 14:49:32.675299,67
2021-12-23 14:49:32.675308,81
2021-12-23 14:49:32.675318,81
2021-12-23 14:49:32.675327,91
2021-12-23 14:49:32.675337,113
2021-12-23 14:49:32.675347,132
2021-12-23 14:49:32.675356,149
2021-12-23 14:49:32.675366,175
2021-12-23 14:49:32.675376,204
2021-12-23 14:49:32.675399,230
2021-12-23 14:49:32.675409,252
2021-12-23 14:49:32.675419,269
2021-12-23 14:49:32.675428,278
2021-12-23 14:49:32.675438,281
2021-12-23 14:49:32.675447,274
2021-12-23 14:49:32.675457,254
2021-12-23 14:49:32.675466,226
2021-12-23 14:49:32.675476,168
2021-12-23 14:49:32.675485,91
2021-12-23 14:49:32.675495,21
2021-12-23 14:49:32.675505,-31
2021-12-23 14:49:32.675514,-67
2021-12-23 14:49:32.675524,-76
2021-12-23 14:49:32.899739,-79
2021-12-23 14:49:32.899770,-84
2021-12-23 14:49:32.899782,-84
2021-12-23 14:49:32.899792,-72
2021-12-23 14:49:32.899801,-64
2021-12-23 14:49:32.899811,-64
2021-12-23 14:49:32.899820,-62
2021-12-23 14:49:32.899830,-50
2021-12-23 14:49:32.899839,-38
2021-12-23 14:49:32.899849,-36
2021-12-23 14:49:32.899859,-40
2021-12-23 14:49:32.899868,-40
2021-12-23 14:49:32.899878,-31
2021-12-23 14:49:32.899888,-16
2021-12-23 14:49:32.899897,-12
2021-12-23 14:49:32.899907,-24
2021-12-23 14:49:32.899916,-38
2021-12-23 14:49:32.899926,-36
2021-12-23 14:49:32.899935,-21
2021-12-23 14:49:32.899945,-14
2021-12-23 14:49:32.899954,-16
2021-12-23 14:49:32.899964,-19
2021-12-23 14:49:32.899973,-19
2021-12-23 14:49:32.899983,-12
2021-12-23 14:49:32.899992,-12
2021-12-23 14:49:32.900002,-14
2021-12-23 14:49:32.900012,-12
2021-12-23 14:49:32.900021,-9
2021-12-23 14:49:32.900031,-4
2021-12-23 14:49:32.900040,2
2021-12-23 14:49:33.169534,2
2021-12-23 14:49:33.169565,-4
2021-12-23 14:49:33.169576,-4
2021-12-23 14:49:33.169587,4
2021-12-23 14:49:33.169597,4
2021-12-23 14:49:33.169607,7
2021-12-23 14:49:33.169617,14
2021-12-23 14:49:33.169626,9
2021-12-23 14:49:33.169636,9
2021-12-23 14:49:33.169646,16
2021-12-23 14:49:33.169656,19
2021-12-23 14:49:33.169665,26
2021-12-23 14:49:33.169675,21
2021-12-23 14:49:33.169685,-9
2021-12-23 14:49:33.169695,-16
2021-12-23 14:49:33.169705,7
2021-12-23 14:49:33.169714,28
2021-12-23 14:49:33.169724,28
2021-12-23 14:49:33.169734,31
2021-12-23 14:49:33.169743,50
2021-12-23 14:49:33.169753,62
2021-12-23 14:49:33.169763,48
2021-12-23 14:49:33.169773,38
2021-12-23 14:49:33.169782,33
2021-12-23 14:49:33.169792,26
2021-12-23 14:49:33.169802,28
2021-12-23 14:49:33.169812,38
2021-12-23 14:49:33.169822,31
2021-12-23 14:49:33.169831,16
2021-12-23 14:49:33.169841,26
2021-12-23 14:49:33.349899,43
2021-12-23 14:49:33.349930,45
2021-12-23 14:49:33.349942,40
2021-12-23 14:49:33.349952,81
2021-12-23 14:49:33.349962,259
2021-12-23 14:49:33.349972,603
2021-12-23 14:49:33.349982,1007
2021-12-23 14:49:33.349991,909
2021-12-23 14:49:33.350001,43
2021-12-23 14:49:33.350011,-435
2021-12-23 14:49:33.350021,-38
2021-12-23 14:49:33.350031,117
2021-12-23 14:49:33.350041,-105
2021-12-23 14:49:33.350051,-84
2021-12-23 14:49:33.350060,14
2021-12-23 14:49:33.350070,-28
2021-12-23 14:49:33.350080,-31
2021-12-23 14:49:33.350090,16
2021-12-23 14:49:33.350100,16
2021-12-23 14:49:33.350109,4
2021-12-23 14:49:33.350119,19
2021-12-23 14:49:33.350129,26
2021-12-23 14:49:33.350139,24
2021-12-23 14:49:33.350148,36
2021-12-23 14:49:33.350158,45
2021-12-23 14:49:33.350168,48
2021-12-23 14:49:33.350178,57
2021-12-23 14:49:33.350188,76
2021-12-23 14:49:33.350197,98
2021-12-23 14:49:33.350207,113
2021-12-23 14:49:33.575293,120
2021-12-23 14:49:33.575324,132
2021-12-23 14:49:33.575336,161
2021-12-23 14:49:33.575346,189
2021-12-23 14:49:33.575356,211
2021-12-23 14:49:33.575366,235
2021-12-23 14:49:33.575376,259
2021-12-23 14:49:33.575385,266
2021-12-23 14:49:33.575395,271
2021-12-23 14:49:33.575405,278
2021-12-23 14:49:33.575415,266
2021-12-23 14:49:33.575424,221
2021-12-23 14:49:33.575434,156
2021-12-23 14:49:33.575444,86
2021-12-23 14:49:33.575454,12
2021-12-23 14:49:33.575464,-45
2021-12-23 14:49:33.575473,-67
2021-12-23 14:49:33.575483,-76
2021-12-23 14:49:33.575493,-84
2021-12-23 14:49:33.575503,-79
2021-12-23 14:49:33.575513,-76
2021-12-23 14:49:33.575555,-79
2021-12-23 14:49:33.575564,-69
2021-12-23 14:49:33.575574,-57
2021-12-23 14:49:33.575584,-55
2021-12-23 14:49:33.575593,-43
2021-12-23 14:49:33.575603,-45
2021-12-23 14:49:33.575613,-55
2021-12-23 14:49:33.575622,-43
2021-12-23 14:49:33.575632,-31
2021-12-23 14:49:33.799523,-38
2021-12-23 14:49:33.799540,-36
2021-12-23 14:49:33.799546,-21
2021-12-23 14:49:33.799551,-16
2021-12-23 14:49:33.799556,-19
2021-12-23 14:49:33.799561,-9
2021-12-23 14:49:33.799566,-12
2021-12-23 14:49:33.799571,-28
2021-12-23 14:49:33.799576,-33
2021-12-23 14:49:33.799581,-12
2021-12-23 14:49:33.799586,0
2021-12-23 14:49:33.799591,-9
2021-12-23 14:49:33.799596,-21
2021-12-23 14:49:33.799601,-12
2021-12-23 14:49:33.799606,0
2021-12-23 14:49:33.799611,0
2021-12-23 14:49:33.799616,4
2021-12-23 14:49:33.799621,-9
2021-12-23 14:49:33.799626,-26
2021-12-23 14:49:33.799631,-7
2021-12-23 14:49:33.799637,16
2021-12-23 14:49:33.799642,14
2021-12-23 14:49:33.799654,7
2021-12-23 14:49:33.799659,2
2021-12-23 14:49:33.799664,7
2021-12-23 14:49:33.799669,16
2021-12-23 14:49:33.799674,12
2021-12-23 14:49:33.799679,2
2021-12-23 14:49:33.799684,9
2021-12-23 14:49:33.799689,19
2021-12-23 14:49:34.024677,9
2021-12-23 14:49:34.024708,-4
2021-12-23 14:49:34.024720,0
2021-12-23 14:49:34.024731,4
2021-12-23 14:49:34.024741,0
2021-12-23 14:49:34.024751,7
2021-12-23 14:49:34.024761,26
2021-12-23 14:49:34.024771,31
2021-12-23 14:49:34.024780,36
2021-12-23 14:49:34.024790,50
2021-12-23 14:49:34.024800,48
2021-12-23 14:49:34.024810,28
2021-12-23 14:49:34.024820,24
2021-12-23 14:49:34.024829,38
2021-12-23 14:49:34.024839,43
2021-12-23 14:49:34.024849,24
2021-12-23 14:49:34.024859,14
2021-12-23 14:49:34.024869,24
2021-12-23 14:49:34.024879,28
2021-12-23 14:49:34.024888,33
2021-12-23 14:49:34.024898,40
2021-12-23 14:49:34.024908,45
2021-12-23 14:49:34.024918,43
2021-12-23 14:49:34.024928,103
2021-12-23 14:49:34.024938,319
2021-12-23 14:49:34.024948,697
2021-12-23 14:49:34.024958,1050
2021-12-23 14:49:34.024968,750
2021-12-23 14:49:34.024977,-158
2021-12-23 14:49:34.024987,-391
2021-12-23 14:49:34.249766,55
2021-12-23 14:49:34.249797,62
2021-12-23 14:49:34.249809,-141
2021-12-23 14:49:34.249819,-45
2021-12-23 14:49:34.249829,19
2021-12-23 14:49:34.249839,-43
2021-12-23 14:49:34.249849,-26
2021-12-23 14:49:34.249859,16
2021-12-23 14:49:34.249869,9
2021-12-23 14:49:34.249879,16
2021-12-23 14:49:34.249888,33
2021-12-23 14:49:34.249898,21
2021-12-23 14:49:34.249908,16
2021-12-23 14:49:34.249918,40
2021-12-23 14:49:34.249928,52
2021-12-23 14:49:34.249937,52
2021-12-23 14:49:34.249947,62
2021-12-23 14:49:34.249957,81
2021-12-23 14:49:34.249966,98
2021-12-23 14:49:34.249976,115
2021-12-23 14:49:34.249986,137
2021-12-23 14:49:34.249995,163
2021-12-23 14:49:34.250005,192
2021-12-23 14:49:34.250015,221
2021-12-23 14:49:34.250025,228
2021-12-23 14:49:34.250035,233
2021-12-23 14:49:34.250045,257
2021-12-23 14:49:34.250055,281
2021-12-23 14:49:34.250065,283
2021-12-23 14:49:34.250074,283
2021-12-23 14:49:34.520205,271
2021-12-23 14:49:34.520235,223
2021-12-23 14:49:34.520246,146
2021-12-23 14:49:34.520256,64
2021-12-23 14:49:34.520266,-7
2021-12-23 14:49:34.520276,-50
2021-12-23 14:49:34.520285,-72
2021-12-23 14:49:34.520295,-91
2021-12-23 14:49:34.520305,-101
2021-12-23 14:49:34.520315,-98
2021-12-23 14:49:34.520325,-88
2021-12-23 14:49:34.520334,-79
2021-12-23 14:49:34.520344,-69
2021-12-23 14:49:34.520354,-67
2021-12-23 14:49:34.520363,-62
2021-12-23 14:49:34.520373,-55
2021-12-23 14:49:34.520383,-52
2021-12-23 14:49:34.520392,-55
2021-12-23 14:49:34.520402,-52
2021-12-23 14:49:34.520412,-38
2021-12-23 14:49:34.520422,-36
2021-12-23 14:49:34.520431,-40
2021-12-23 14:49:34.520441,-31
2021-12-23 14:49:34.520451,-16
2021-12-23 14:49:34.520461,-19
2021-12-23 14:49:34.520470,-24
2021-12-23 14:49:34.520480,-14
2021-12-23 14:49:34.520490,-16
2021-12-23 14:49:34.520500,-24
2021-12-23 14:49:34.520510,-12
2021-12-23 14:49:34.744717,-4
2021-12-23 14:49:34.744738,-9
2021-12-23 14:49:34.744746,-7
2021-12-23 14:49:34.744752,-7
2021-12-23 14:49:34.744758,-16
2021-12-23 14:49:34.744765,-16
2021-12-23 14:49:34.744771,-12
2021-12-23 14:49:34.744777,-7
2021-12-23 14:49:34.744783,-7
2021-12-23 14:49:34.744789,-7
2021-12-23 14:49:34.744796,-7
2021-12-23 14:49:34.744824,2
2021-12-23 14:49:34.744831,0
2021-12-23 14:49:34.744837,-7
2021-12-23 14:49:34.744844,0
2021-12-23 14:49:34.744850,7
2021-12-23 14:49:34.744856,0
2021-12-23 14:49:34.744863,-2
2021-12-23 14:49:34.744869,7
2021-12-23 14:49:34.744875,19
2021-12-23 14:49:34.744881,9
2021-12-23 14:49:34.744888,-4
2021-12-23 14:49:34.744894,4
2021-12-23 14:49:34.744900,19
2021-12-23 14:49:34.744906,14
2021-12-23 14:49:34.744913,12
2021-12-23 14:49:34.744919,14
2021-12-23 14:49:34.744925,7
2021-12-23 14:49:34.744932,9
2021-12-23 14:49:34.744938,26
2021-12-23 14:49:34.969784,40
2021-12-23 14:49:34.969806,48
2021-12-23 14:49:34.969813,62
2021-12-23 14:49:34.969819,62
2021-12-23 14:49:34.969824,33
2021-12-23 14:49:34.969830,16
2021-12-23 14:49:34.969835,26
2021-12-23 14:49:34.969841,24
2021-12-23 14:49:34.969846,12
2021-12-23 14:49:34.969851,16
2021-12-23 14:49:34.969857,28
2021-12-23 14:49:34.969862,26
2021-12-23 14:49:34.969867,21
2021-12-23 14:49:34.969872,26
2021-12-23 14:49:34.969877,38
2021-12-23 14:49:34.969882,33
2021-12-23 14:49:34.969887,72
2021-12-23 14:49:34.969893,276
2021-12-23 14:49:34.969897,654
2021-12-23 14:49:34.969903,1024
2021-12-23 14:49:34.969908,798
2021-12-23 14:49:34.969913,-93
2021-12-23 14:49:34.969918,-428
2021-12-23 14:49:34.969923,0
2021-12-23 14:49:34.969928,72
2021-12-23 14:49:34.969933,-132
2021-12-23 14:49:34.969938,-57
2021-12-23 14:49:34.969943,16
2021-12-23 14:49:34.969948,-45
2021-12-23 14:49:34.969953,-31
2021-12-23 14:49:35.283408,19
2021-12-23 14:49:35.283477,16
2021-12-23 14:49:35.283521,12
2021-12-23 14:49:35.283541,14
2021-12-23 14:49:35.283560,12
2021-12-23 14:49:35.283577,28
2021-12-23 14:49:35.283595,48
2021-12-23 14:49:35.283607,50
2021-12-23 14:49:35.283617,55
2021-12-23 14:49:35.283627,62
2021-12-23 14:49:35.283637,69
2021-12-23 14:49:35.283646,84
2021-12-23 14:49:35.283656,103
2021-12-23 14:49:35.283666,122
2021-12-23 14:49:35.283675,139
2021-12-23 14:49:35.283685,161
2021-12-23 14:49:35.283695,194
2021-12-23 14:49:35.283705,218
2021-12-23 14:49:35.283714,233
2021-12-23 14:49:35.283724,254
2021-12-23 14:49:35.283734,278
2021-12-23 14:49:35.283743,290
2021-12-23 14:49:35.283753,281
2021-12-23 14:49:35.283763,254
2021-12-23 14:49:35.283772,223
2021-12-23 14:49:35.283782,168
2021-12-23 14:49:35.283792,88
2021-12-23 14:49:35.283802,16
2021-12-23 14:49:35.283811,-33
2021-12-23 14:49:35.283821,-67
2021-12-23 14:49:35.420245,-86
2021-12-23 14:49:35.420275,-93
2021-12-23 14:49:35.420286,-86
2021-12-23 14:49:35.420297,-84
2021-12-23 14:49:35.420307,-88
2021-12-23 14:49:35.420316,-76
2021-12-23 14:49:35.420326,-57
2021-12-23 14:49:35.420336,-64
2021-12-23 14:49:35.420345,-79
2021-12-23 14:49:35.420355,-74
2021-12-23 14:49:35.420365,-62
2021-12-23 14:49:35.420374,-52
2021-12-23 14:49:35.420384,-50
2021-12-23 14:49:35.420394,-50
2021-12-23 14:49:35.420403,-45
2021-12-23 14:49:35.420413,-38
2021-12-23 14:49:35.420423,-38
2021-12-23 14:49:35.420432,-33
2021-12-23 14:49:35.420442,-28
2021-12-23 14:49:35.420452,-33
2021-12-23 14:49:35.420462,-33
2021-12-23 14:49:35.420471,-26
2021-12-23 14:49:35.420481,-19
2021-12-23 14:49:35.420490,-24
2021-12-23 14:49:35.420500,-26
2021-12-23 14:49:35.420510,-24
2021-12-23 14:49:35.420519,-24
2021-12-23 14:49:35.420529,-14
2021-12-23 14:49:35.420539,-4
2021-12-23 14:49:35.420548,-9
2021-12-23 14:49:35.689370,-14
2021-12-23 14:49:35.689392,-7
2021-12-23 14:49:35.689399,-2
2021-12-23 14:49:35.689406,0
2021-12-23 14:49:35.689412,7
2021-12-23 14:49:35.689419,2
2021-12-23 14:49:35.689425,-9
2021-12-23 14:49:35.689431,0
2021-12-23 14:49:35.689437,12
2021-12-23 14:49:35.689444,2
2021-12-23 14:49:35.689450,-4
2021-12-23 14:49:35.689456,-2
2021-12-23 14:49:35.689462,0
2021-12-23 14:49:35.689469,14
2021-12-23 14:49:35.689475,24
2021-12-23 14:49:35.689481,28
2021-12-23 14:49:35.689487,43
2021-12-23 14:49:35.689494,48
2021-12-23 14:49:35.689500,33
2021-12-23 14:49:35.689506,14
2021-12-23 14:49:35.689512,12
2021-12-23 14:49:35.689518,21
2021-12-23 14:49:35.689525,19
2021-12-23 14:49:35.689531,21
2021-12-23 14:49:35.689537,31
2021-12-23 14:49:35.689543,33
2021-12-23 14:49:35.689568,28
2021-12-23 14:49:35.689575,31
2021-12-23 14:49:35.689581,38
2021-12-23 14:49:35.689587,45
2021-12-23 14:49:35.870017,57
2021-12-23 14:49:35.870038,139
2021-12-23 14:49:35.870046,389
2021-12-23 14:49:35.870053,779
2021-12-23 14:49:35.870059,1026
2021-12-23 14:49:35.870066,557
2021-12-23 14:49:35.870072,-290
2021-12-23 14:49:35.870078,-339
2021-12-23 14:49:35.870085,88
2021-12-23 14:49:35.870091,36
2021-12-23 14:49:35.870097,-117
2021-12-23 14:49:35.870104,-9
2021-12-23 14:49:35.870110,28
2021-12-23 14:49:35.870116,-19
2021-12-23 14:49:35.870123,2
2021-12-23 14:49:35.870129,21
2021-12-23 14:49:35.870135,12
2021-12-23 14:49:35.870142,21
2021-12-23 14:49:35.870148,19
2021-12-23 14:49:35.870154,12
2021-12-23 14:49:35.870160,31
2021-12-23 14:49:35.870167,50
2021-12-23 14:49:35.870173,52
2021-12-23 14:49:35.870179,57
2021-12-23 14:49:35.870185,72
2021-12-23 14:49:35.870192,86
2021-12-23 14:49:35.870198,101
2021-12-23 14:49:35.870204,115
2021-12-23 14:49:35.870211,134
2021-12-23 14:49:35.870217,170
2021-12-23 14:49:36.094768,199
2021-12-23 14:49:36.094799,211
2021-12-23 14:49:36.094810,228
2021-12-23 14:49:36.094820,259
2021-12-23 14:49:36.094830,271
2021-12-23 14:49:36.094840,274
