Time,ECG
2021-12-23 15:04:09.163448,38
2021-12-23 15:04:09.163464,33
2021-12-23 15:04:09.163469,36
2021-12-23 15:04:09.163474,43
2021-12-23 15:04:09.163478,57
2021-12-23 15:04:09.163496,161
2021-12-23 15:04:09.163501,437
2021-12-23 15:04:09.163505,846
2021-12-23 15:04:09.163509,952
2021-12-23 15:04:09.163513,252
2021-12-23 15:04:09.163518,-423
2021-12-23 15:04:09.163522,-165
2021-12-23 15:04:09.163526,129
2021-12-23 15:04:09.163530,-69
2021-12-23 15:04:09.163534,-120
2021-12-23 15:04:09.163538,0
2021-12-23 15:04:09.163542,-19
2021-12-23 15:04:09.163547,-43
2021-12-23 15:04:09.163551,0
2021-12-23 15:04:09.163555,4
2021-12-23 15:04:09.163559,-9
2021-12-23 15:04:09.163563,9
2021-12-23 15:04:09.163567,24
2021-12-23 15:04:09.163571,21
2021-12-23 15:04:09.163575,28
2021-12-23 15:04:09.163579,45
2021-12-23 15:04:09.163584,60
2021-12-23 15:04:09.163588,72
2021-12-23 15:04:09.163592,86
2021-12-23 15:04:09.163596,101
2021-12-23 15:04:09.269735,122
2021-12-23 15:04:09.269764,146
2021-12-23 15:04:09.269775,168
2021-12-23 15:04:09.269786,194
2021-12-23 15:04:09.269795,226
2021-12-23 15:04:09.269805,257
2021-12-23 15:04:09.269817,286
2021-12-23 15:04:09.269826,305
2021-12-23 15:04:09.269836,310
2021-12-23 15:04:09.269846,317
2021-12-23 15:04:09.269856,317
2021-12-23 15:04:09.269866,278
2021-12-23 15:04:09.269875,202
2021-12-23 15:04:09.269885,113
2021-12-23 15:04:09.269895,31
2021-12-23 15:04:09.269905,-28
2021-12-23 15:04:09.269914,-62
2021-12-23 15:04:09.269925,-79
2021-12-23 15:04:09.269935,-91
2021-12-23 15:04:09.269945,-93
2021-12-23 15:04:09.269955,-81
2021-12-23 15:04:09.269964,-72
2021-12-23 15:04:09.269974,-81
2021-12-23 15:04:09.269984,-86
2021-12-23 15:04:09.269993,-69
2021-12-23 15:04:09.270003,-55
2021-12-23 15:04:09.270013,-55
2021-12-23 15:04:09.270023,-50
2021-12-23 15:04:09.270032,-38
2021-12-23 15:04:09.270046,-26
2021-12-23 15:04:09.494739,-16
2021-12-23 15:04:09.494770,-12
2021-12-23 15:04:09.494782,-14
2021-12-23 15:04:09.494792,-16
2021-12-23 15:04:09.494802,-4
2021-12-23 15:04:09.494811,12
2021-12-23 15:04:09.494822,9
2021-12-23 15:04:09.494831,0
2021-12-23 15:04:09.494841,7
2021-12-23 15:04:09.494851,9
2021-12-23 15:04:09.494861,9
2021-12-23 15:04:09.494871,9
2021-12-23 15:04:09.494880,0
2021-12-23 15:04:09.494897,0
2021-12-23 15:04:09.494907,12
2021-12-23 15:04:09.494917,19
2021-12-23 15:04:09.494927,21
2021-12-23 15:04:09.494937,16
2021-12-23 15:04:09.494947,9
2021-12-23 15:04:09.494956,14
2021-12-23 15:04:09.494966,19
2021-12-23 15:04:09.494976,26
2021-12-23 15:04:09.494986,33
2021-12-23 15:04:09.494996,48
2021-12-23 15:04:09.495006,69
2021-12-23 15:04:09.495016,64
2021-12-23 15:04:09.495025,38
2021-12-23 15:04:09.495035,38
2021-12-23 15:04:09.495045,43
2021-12-23 15:04:09.495075,31
2021-12-23 15:04:09.674287,40
2021-12-23 15:04:09.674318,48
2021-12-23 15:04:09.674330,28
2021-12-23 15:04:09.674340,38
2021-12-23 15:04:09.674350,57
2021-12-23 15:04:09.674360,50
2021-12-23 15:04:09.674370,50
2021-12-23 15:04:09.674380,69
2021-12-23 15:04:09.674390,81
2021-12-23 15:04:09.674400,153
2021-12-23 15:04:09.674410,404
2021-12-23 15:04:09.674420,820
2021-12-23 15:04:09.674430,995
2021-12-23 15:04:09.674439,379
2021-12-23 15:04:09.674449,-382
2021-12-23 15:04:09.674459,-230
2021-12-23 15:04:09.674469,153
2021-12-23 15:04:09.674483,14
2021-12-23 15:04:09.674493,-88
2021-12-23 15:04:09.674503,43
2021-12-23 15:04:09.674513,48
2021-12-23 15:04:09.674523,-14
2021-12-23 15:04:09.674533,12
2021-12-23 15:04:09.674543,40
2021-12-23 15:04:09.674553,36
2021-12-23 15:04:09.674563,52
2021-12-23 15:04:09.674573,67
2021-12-23 15:04:09.674583,64
2021-12-23 15:04:09.674592,72
2021-12-23 15:04:09.674602,84
2021-12-23 15:04:09.988564,91
2021-12-23 15:04:09.988584,103
2021-12-23 15:04:09.988592,120
2021-12-23 15:04:09.988599,139
2021-12-23 15:04:09.988605,173
2021-12-23 15:04:09.988611,199
2021-12-23 15:04:09.988618,204
2021-12-23 15:04:09.988629,228
2021-12-23 15:04:09.988636,271
2021-12-23 15:04:09.988642,310
2021-12-23 15:04:09.988648,334
2021-12-23 15:04:09.988655,341
2021-12-23 15:04:09.988661,351
2021-12-23 15:04:09.988668,367
2021-12-23 15:04:09.988674,348
2021-12-23 15:04:09.988680,293
2021-12-23 15:04:09.988687,223
2021-12-23 15:04:09.988693,141
2021-12-23 15:04:09.988699,57
2021-12-23 15:04:09.988706,-19
2021-12-23 15:04:09.988712,-62
2021-12-23 15:04:09.988719,-79
2021-12-23 15:04:09.988725,-88
2021-12-23 15:04:09.988731,-91
2021-12-23 15:04:09.988738,-79
2021-12-23 15:04:09.988744,-74
2021-12-23 15:04:09.988750,-74
2021-12-23 15:04:09.988757,-69
2021-12-23 15:04:09.988763,-60
2021-12-23 15:04:09.988771,-55
2021-12-23 15:04:10.168520,-45
2021-12-23 15:04:10.168541,-36
2021-12-23 15:04:10.168548,-33
2021-12-23 15:04:10.168555,-36
2021-12-23 15:04:10.168561,-31
2021-12-23 15:04:10.168568,-24
2021-12-23 15:04:10.168574,-9
2021-12-23 15:04:10.168580,2
2021-12-23 15:04:10.168586,2
2021-12-23 15:04:10.168593,2
2021-12-23 15:04:10.168599,7
2021-12-23 15:04:10.168605,12
2021-12-23 15:04:10.168612,12
2021-12-23 15:04:10.168618,21
2021-12-23 15:04:10.168624,26
2021-12-23 15:04:10.168631,21
2021-12-23 15:04:10.168637,21
2021-12-23 15:04:10.168643,19
2021-12-23 15:04:10.168650,19
2021-12-23 15:04:10.168656,26
2021-12-23 15:04:10.168662,26
2021-12-23 15:04:10.168668,21
2021-12-23 15:04:10.168675,19
2021-12-23 15:04:10.168681,33
2021-12-23 15:04:10.168692,40
2021-12-23 15:04:10.168699,40
2021-12-23 15:04:10.168705,57
2021-12-23 15:04:10.168712,72
2021-12-23 15:04:10.168718,60
2021-12-23 15:04:10.168724,45
2021-12-23 15:04:10.394076,43
2021-12-23 15:04:10.394093,38
2021-12-23 15:04:10.394099,33
2021-12-23 15:04:10.394104,38
2021-12-23 15:04:10.394110,38
2021-12-23 15:04:10.394116,33
2021-12-23 15:04:10.394121,33
2021-12-23 15:04:10.394126,40
2021-12-23 15:04:10.394131,43
2021-12-23 15:04:10.394136,50
2021-12-23 15:04:10.394141,55
2021-12-23 15:04:10.394146,91
2021-12-23 15:04:10.394151,262
2021-12-23 15:04:10.394156,608
2021-12-23 15:04:10.394161,935
2021-12-23 15:04:10.394166,658
2021-12-23 15:04:10.394171,-182
2021-12-23 15:04:10.394176,-406
2021-12-23 15:04:10.394181,33
2021-12-23 15:04:10.394187,84
2021-12-23 15:04:10.394192,-101
2021-12-23 15:04:10.394197,-28
2021-12-23 15:04:10.394204,33
2021-12-23 15:04:10.394209,-16
2021-12-23 15:04:10.394214,-4
2021-12-23 15:04:10.394219,26
2021-12-23 15:04:10.394224,12
2021-12-23 15:04:10.394229,12
2021-12-23 15:04:10.394234,31
2021-12-23 15:04:10.394239,31
2021-12-23 15:04:10.619379,38
2021-12-23 15:04:10.619402,52
2021-12-23 15:04:10.619410,62
2021-12-23 15:04:10.619416,69
2021-12-23 15:04:10.619423,86
2021-12-23 15:04:10.619429,101
2021-12-23 15:04:10.619436,117
2021-12-23 15:04:10.619442,141
2021-12-23 15:04:10.619448,163
2021-12-23 15:04:10.619455,187
2021-12-23 15:04:10.619461,214
2021-12-23 15:04:10.619467,242
2021-12-23 15:04:10.619474,269
2021-12-23 15:04:10.619480,290
2021-12-23 15:04:10.619487,300
2021-12-23 15:04:10.619493,303
2021-12-23 15:04:10.619499,298
2021-12-23 15:04:10.619506,271
2021-12-23 15:04:10.619512,211
2021-12-23 15:04:10.619518,129
2021-12-23 15:04:10.619525,45
2021-12-23 15:04:10.619531,-24
2021-12-23 15:04:10.619538,-69
2021-12-23 15:04:10.619544,-88
2021-12-23 15:04:10.619555,-96
2021-12-23 15:04:10.619561,-98
2021-12-23 15:04:10.619567,-98
2021-12-23 15:04:10.619574,-96
2021-12-23 15:04:10.619580,-84
2021-12-23 15:04:10.619586,-76
2021-12-23 15:04:10.887931,-72
2021-12-23 15:04:10.887961,-62
2021-12-23 15:04:10.887972,-60
2021-12-23 15:04:10.887982,-60
2021-12-23 15:04:10.887992,-48
2021-12-23 15:04:10.888002,-38
2021-12-23 15:04:10.888012,-31
2021-12-23 15:04:10.888021,-21
2021-12-23 15:04:10.888031,-19
2021-12-23 15:04:10.888041,-16
2021-12-23 15:04:10.888051,-12
2021-12-23 15:04:10.888060,-7
2021-12-23 15:04:10.888070,0
2021-12-23 15:04:10.888080,2
2021-12-23 15:04:10.888090,0
2021-12-23 15:04:10.888100,2
2021-12-23 15:04:10.888110,4
2021-12-23 15:04:10.888120,7
2021-12-23 15:04:10.888130,12
2021-12-23 15:04:10.888139,14
2021-12-23 15:04:10.888149,16
2021-12-23 15:04:10.888159,14
2021-12-23 15:04:10.888169,9
2021-12-23 15:04:10.888178,9
2021-12-23 15:04:10.888188,16
2021-12-23 15:04:10.888198,16
2021-12-23 15:04:10.888208,9
2021-12-23 15:04:10.888218,12
2021-12-23 15:04:10.888228,14
2021-12-23 15:04:10.888237,12
2021-12-23 15:04:11.069764,9
2021-12-23 15:04:11.069795,16
2021-12-23 15:04:11.069806,26
2021-12-23 15:04:11.069816,31
2021-12-23 15:04:11.069826,36
2021-12-23 15:04:11.069836,52
2021-12-23 15:04:11.069845,62
2021-12-23 15:04:11.069855,52
2021-12-23 15:04:11.069865,40
2021-12-23 15:04:11.069875,33
2021-12-23 15:04:11.069885,26
2021-12-23 15:04:11.069894,28
2021-12-23 15:04:11.069905,36
2021-12-23 15:04:11.069914,31
2021-12-23 15:04:11.069924,31
2021-12-23 15:04:11.069934,31
2021-12-23 15:04:11.069944,33
2021-12-23 15:04:11.069953,38
2021-12-23 15:04:11.069963,48
2021-12-23 15:04:11.069973,57
2021-12-23 15:04:11.069983,105
2021-12-23 15:04:11.069993,286
2021-12-23 15:04:11.070003,625
2021-12-23 15:04:11.070012,976
2021-12-23 15:04:11.070022,740
2021-12-23 15:04:11.070032,-105
2021-12-23 15:04:11.070042,-358
2021-12-23 15:04:11.070052,62
2021-12-23 15:04:11.070062,88
2021-12-23 15:04:11.070071,-110
2021-12-23 15:04:11.294686,-33
2021-12-23 15:04:11.294717,33
2021-12-23 15:04:11.294729,-26
2021-12-23 15:04:11.294739,-16
2021-12-23 15:04:11.294749,21
2021-12-23 15:04:11.294759,12
2021-12-23 15:04:11.294769,9
2021-12-23 15:04:11.294779,28
2021-12-23 15:04:11.294789,28
2021-12-23 15:04:11.294799,28
2021-12-23 15:04:11.294815,45
2021-12-23 15:04:11.294825,57
2021-12-23 15:04:11.294835,62
2021-12-23 15:04:11.294845,76
2021-12-23 15:04:11.294854,98
2021-12-23 15:04:11.294864,103
2021-12-23 15:04:11.294874,113
2021-12-23 15:04:11.294883,139
2021-12-23 15:04:11.294893,161
2021-12-23 15:04:11.294902,185
2021-12-23 15:04:11.294912,221
2021-12-23 15:04:11.294922,254
2021-12-23 15:04:11.294932,274
2021-12-23 15:04:11.294942,290
2021-12-23 15:04:11.294951,307
2021-12-23 15:04:11.294961,310
2021-12-23 15:04:11.294971,276
2021-12-23 15:04:11.294980,216
2021-12-23 15:04:11.294990,146
2021-12-23 15:04:11.295000,72
2021-12-23 15:04:11.518620,4
2021-12-23 15:04:11.518640,-43
2021-12-23 15:04:11.518648,-84
2021-12-23 15:04:11.518654,-98
2021-12-23 15:04:11.518661,-91
2021-12-23 15:04:11.518667,-91
2021-12-23 15:04:11.518674,-101
2021-12-23 15:04:11.518680,-93
2021-12-23 15:04:11.518687,-79
2021-12-23 15:04:11.518693,-74
2021-12-23 15:04:11.518699,-72
2021-12-23 15:04:11.518706,-69
2021-12-23 15:04:11.518712,-69
2021-12-23 15:04:11.518718,-55
2021-12-23 15:04:11.518725,-36
2021-12-23 15:04:11.518731,-43
2021-12-23 15:04:11.518738,-45
2021-12-23 15:04:11.518744,-31
2021-12-23 15:04:11.518750,-24
2021-12-23 15:04:11.518757,-24
2021-12-23 15:04:11.518763,-19
2021-12-23 15:04:11.518770,-14
2021-12-23 15:04:11.518776,-9
2021-12-23 15:04:11.518783,0
2021-12-23 15:04:11.518789,4
2021-12-23 15:04:11.518801,4
2021-12-23 15:04:11.518807,9
2021-12-23 15:04:11.518814,14
2021-12-23 15:04:11.518820,12
2021-12-23 15:04:11.518826,2
2021-12-23 15:04:11.743679,4
2021-12-23 15:04:11.743699,14
2021-12-23 15:04:11.743707,9
2021-12-23 15:04:11.743713,12
2021-12-23 15:04:11.743720,33
2021-12-23 15:04:11.743726,21
2021-12-23 15:04:11.743732,2
2021-12-23 15:04:11.743739,21
2021-12-23 15:04:11.743745,26
2021-12-23 15:04:11.743752,7
2021-12-23 15:04:11.743758,26
2021-12-23 15:04:11.743764,40
2021-12-23 15:04:11.743771,16
2021-12-23 15:04:11.743777,28
2021-12-23 15:04:11.743784,72
2021-12-23 15:04:11.743790,60
2021-12-23 15:04:11.743796,26
2021-12-23 15:04:11.743803,24
2021-12-23 15:04:11.743809,33
2021-12-23 15:04:11.743815,26
2021-12-23 15:04:11.743822,31
2021-12-23 15:04:11.743828,50
2021-12-23 15:04:11.743835,50
2021-12-23 15:04:11.743841,28
2021-12-23 15:04:11.743847,33
2021-12-23 15:04:11.743854,57
2021-12-23 15:04:11.743860,64
2021-12-23 15:04:11.743867,69
2021-12-23 15:04:11.743873,113
2021-12-23 15:04:11.743880,266
2021-12-23 15:04:11.969748,545
2021-12-23 15:04:11.969779,851
2021-12-23 15:04:11.969791,707
2021-12-23 15:04:11.969801,-55
2021-12-23 15:04:11.969811,-391
2021-12-23 15:04:11.969821,4
2021-12-23 15:04:11.969830,120
2021-12-23 15:04:11.969840,-81
2021-12-23 15:04:11.969850,-40
2021-12-23 15:04:11.969859,40
2021-12-23 15:04:11.969869,-9
2021-12-23 15:04:11.969878,-12
2021-12-23 15:04:11.969888,26
2021-12-23 15:04:11.969898,31
2021-12-23 15:04:11.969907,31
2021-12-23 15:04:11.969917,40
2021-12-23 15:04:11.969932,52
2021-12-23 15:04:11.969942,64
2021-12-23 15:04:11.969951,69
2021-12-23 15:04:11.969961,74
2021-12-23 15:04:11.969971,91
2021-12-23 15:04:11.969981,110
2021-12-23 15:04:11.969991,125
2021-12-23 15:04:11.970000,144
2021-12-23 15:04:11.970010,163
2021-12-23 15:04:11.970019,185
2021-12-23 15:04:11.970029,211
2021-12-23 15:04:11.970039,235
2021-12-23 15:04:11.970048,271
2021-12-23 15:04:11.970058,303
2021-12-23 15:04:12.239716,327
2021-12-23 15:04:12.239746,346
2021-12-23 15:04:12.239758,351
2021-12-23 15:04:12.239768,341
2021-12-23 15:04:12.239778,315
2021-12-23 15:04:12.239788,266
2021-12-23 15:04:12.239798,189
2021-12-23 15:04:12.239808,101
2021-12-23 15:04:12.239817,33
2021-12-23 15:04:12.239827,-14
2021-12-23 15:04:12.239837,-52
2021-12-23 15:04:12.239847,-64
2021-12-23 15:04:12.239857,-57
2021-12-23 15:04:12.239867,-52
2021-12-23 15:04:12.239876,-50
2021-12-23 15:04:12.239886,-43
2021-12-23 15:04:12.239896,-40
2021-12-23 15:04:12.239906,-43
2021-12-23 15:04:12.239916,-33
2021-12-23 15:04:12.239926,-21
2021-12-23 15:04:12.239935,-19
2021-12-23 15:04:12.239945,-16
2021-12-23 15:04:12.239955,-4
2021-12-23 15:04:12.239965,9
2021-12-23 15:04:12.239975,12
2021-12-23 15:04:12.239985,14
2021-12-23 15:04:12.239994,19
2021-12-23 15:04:12.240004,28
2021-12-23 15:04:12.240014,38
2021-12-23 15:04:12.240024,36
2021-12-23 15:04:12.464644,40
2021-12-23 15:04:12.464665,48
2021-12-23 15:04:12.464673,52
2021-12-23 15:04:12.464680,55
2021-12-23 15:04:12.464686,52
2021-12-23 15:04:12.464692,50
2021-12-23 15:04:12.464698,52
2021-12-23 15:04:12.464705,57
2021-12-23 15:04:12.464711,55
2021-12-23 15:04:12.464717,45
2021-12-23 15:04:12.464724,45
2021-12-23 15:04:12.464730,52
2021-12-23 15:04:12.464736,50
2021-12-23 15:04:12.464748,52
2021-12-23 15:04:12.464755,55
2021-12-23 15:04:12.464761,62
2021-12-23 15:04:12.464767,79
2021-12-23 15:04:12.464774,74
2021-12-23 15:04:12.464780,55
2021-12-23 15:04:12.464786,55
2021-12-23 15:04:12.464793,60
2021-12-23 15:04:12.464799,50
2021-12-23 15:04:12.464805,48
2021-12-23 15:04:12.464811,55
2021-12-23 15:04:12.464818,57
2021-12-23 15:04:12.464824,57
2021-12-23 15:04:12.464830,62
2021-12-23 15:04:12.464836,72
2021-12-23 15:04:12.464843,84
2021-12-23 15:04:12.464849,93
2021-12-23 15:04:12.733618,110
2021-12-23 15:04:12.733649,230
2021-12-23 15:04:12.733661,488
2021-12-23 15:04:12.733671,808
2021-12-23 15:04:12.733681,803
2021-12-23 15:04:12.733691,125
2021-12-23 15:04:12.733701,-372
2021-12-23 15:04:12.733711,-55
2021-12-23 15:04:12.733720,163
2021-12-23 15:04:12.733730,-28
2021-12-23 15:04:12.733740,-33
2021-12-23 15:04:12.733750,72
2021-12-23 15:04:12.733759,36
2021-12-23 15:04:12.733769,14
2021-12-23 15:04:12.733779,50
2021-12-23 15:04:12.733788,50
2021-12-23 15:04:12.733798,43
2021-12-23 15:04:12.733808,67
2021-12-23 15:04:12.733818,76
2021-12-23 15:04:12.733827,76
2021-12-23 15:04:12.733837,84
2021-12-23 15:04:12.733847,93
2021-12-23 15:04:12.733856,105
2021-12-23 15:04:12.733866,125
2021-12-23 15:04:12.733876,139
2021-12-23 15:04:12.733886,151
2021-12-23 15:04:12.733895,175
2021-12-23 15:04:12.733905,199
2021-12-23 15:04:12.733915,211
2021-12-23 15:04:12.733924,240
2021-12-23 15:04:12.957984,276
2021-12-23 15:04:12.958014,300
2021-12-23 15:04:12.958026,319
2021-12-23 15:04:12.958036,336
2021-12-23 15:04:12.958046,346
2021-12-23 15:04:12.958056,341
2021-12-23 15:04:12.958066,324
2021-12-23 15:04:12.958076,276
2021-12-23 15:04:12.958085,189
2021-12-23 15:04:12.958095,98
2021-12-23 15:04:12.958105,38
2021-12-23 15:04:12.958115,-2
2021-12-23 15:04:12.958125,-31
2021-12-23 15:04:12.958135,-48
2021-12-23 15:04:12.958145,-48
2021-12-23 15:04:12.958154,-43
2021-12-23 15:04:12.958164,-43
2021-12-23 15:04:12.958179,-40
2021-12-23 15:04:12.958189,-36
2021-12-23 15:04:12.958199,-31
2021-12-23 15:04:12.958209,-33
2021-12-23 15:04:12.958219,-26
2021-12-23 15:04:12.958229,-19
2021-12-23 15:04:12.958239,-14
2021-12-23 15:04:12.958248,-4
2021-12-23 15:04:12.958259,2
2021-12-23 15:04:12.958269,9
2021-12-23 15:04:12.958279,19
2021-12-23 15:04:12.958289,24
2021-12-23 15:04:12.958298,31
2021-12-23 15:04:13.184078,36
2021-12-23 15:04:13.184107,38
2021-12-23 15:04:13.184121,38
2021-12-23 15:04:13.184133,38
2021-12-23 15:04:13.184144,38
2021-12-23 15:04:13.184156,43
2021-12-23 15:04:13.184167,45
2021-12-23 15:04:13.184178,45
2021-12-23 15:04:13.184188,48
2021-12-23 15:04:13.184201,50
2021-12-23 15:04:13.184212,45
2021-12-23 15:04:13.184223,43
2021-12-23 15:04:13.184234,43
2021-12-23 15:04:13.184245,40
2021-12-23 15:04:13.184257,36
2021-12-23 15:04:13.184268,36
2021-12-23 15:04:13.184280,40
2021-12-23 15:04:13.184291,52
2021-12-23 15:04:13.184303,57
2021-12-23 15:04:13.184315,55
2021-12-23 15:04:13.184326,64
2021-12-23 15:04:13.184337,81
2021-12-23 15:04:13.184348,72
2021-12-23 15:04:13.184360,55
2021-12-23 15:04:13.184372,52
2021-12-23 15:04:13.184384,57
2021-12-23 15:04:13.184396,50
2021-12-23 15:04:13.184407,48
2021-12-23 15:04:13.184419,48
2021-12-23 15:04:13.184431,52
2021-12-23 15:04:13.453624,55
2021-12-23 15:04:13.453655,55
2021-12-23 15:04:13.453666,60
2021-12-23 15:04:13.453676,72
2021-12-23 15:04:13.453686,91
2021-12-23 15:04:13.453696,197
2021-12-23 15:04:13.453705,444
2021-12-23 15:04:13.453715,803
2021-12-23 15:04:13.453725,904
2021-12-23 15:04:13.453735,281
2021-12-23 15:04:13.453744,-324
2021-12-23 15:04:13.453754,-91
2021-12-23 15:04:13.453764,153
2021-12-23 15:04:13.453774,-31
2021-12-23 15:04:13.453784,-33
2021-12-23 15:04:13.453793,72
2021-12-23 15:04:13.453803,-21
2021-12-23 15:04:13.453813,-88
2021-12-23 15:04:13.453822,-7
2021-12-23 15:04:13.453832,31
2021-12-23 15:04:13.453842,7
2021-12-23 15:04:13.453852,16
2021-12-23 15:04:13.453861,31
2021-12-23 15:04:13.453871,33
2021-12-23 15:04:13.453881,64
2021-12-23 15:04:13.453890,96
2021-12-23 15:04:13.453900,93
2021-12-23 15:04:13.453910,55
2021-12-23 15:04:13.453920,36
2021-12-23 15:04:13.453934,74
2021-12-23 15:04:13.589320,115
2021-12-23 15:04:13.589343,122
2021-12-23 15:04:13.589351,141
2021-12-23 15:04:13.589357,177
2021-12-23 15:04:13.589363,223
2021-12-23 15:04:13.589370,274
2021-12-23 15:04:13.589376,303
2021-12-23 15:04:13.589382,281
2021-12-23 15:04:13.589389,233
2021-12-23 15:04:13.589395,230
2021-12-23 15:04:13.589401,254
2021-12-23 15:04:13.589408,218
2021-12-23 15:04:13.589414,132
2021-12-23 15:04:13.589420,55
2021-12-23 15:04:13.589426,12
2021-12-23 15:04:13.589433,-12
2021-12-23 15:04:13.589439,-52
2021-12-23 15:04:13.589445,-98
2021-12-23 15:04:13.589452,-120
2021-12-23 15:04:13.589458,-117
2021-12-23 15:04:13.589465,-110
2021-12-23 15:04:13.589471,-101
2021-12-23 15:04:13.589477,-91
2021-12-23 15:04:13.589483,-76
2021-12-23 15:04:13.589490,-67
2021-12-23 15:04:13.589496,-43
2021-12-23 15:04:13.589502,-19
2021-12-23 15:04:13.589508,-48
2021-12-23 15:04:13.589515,-96
2021-12-23 15:04:13.589521,-88
2021-12-23 15:04:13.814322,-60
2021-12-23 15:04:13.814346,-55
2021-12-23 15:04:13.814353,-43
2021-12-23 15:04:13.814360,-16
2021-12-23 15:04:13.814366,-7
2021-12-23 15:04:13.814373,-24
2021-12-23 15:04:13.814380,-28
2021-12-23 15:04:13.814386,-19
2021-12-23 15:04:13.814393,9
2021-12-23 15:04:13.814399,26
2021-12-23 15:04:13.814406,-14
2021-12-23 15:04:13.814412,-57
2021-12-23 15:04:13.814419,-26
2021-12-23 15:04:13.814425,14
2021-12-23 15:04:13.814432,-2
2021-12-23 15:04:13.814439,-16
2021-12-23 15:04:13.814448,0
2021-12-23 15:04:13.814455,14
2021-12-23 15:04:13.814461,28
2021-12-23 15:04:13.814468,52
2021-12-23 15:04:13.814474,21
2021-12-23 15:04:13.814480,-45
2021-12-23 15:04:13.814487,-36
2021-12-23 15:04:13.814493,28
2021-12-23 15:04:13.814500,43
2021-12-23 15:04:13.814506,14
2021-12-23 15:04:13.814513,14
2021-12-23 15:04:13.814519,24
2021-12-23 15:04:13.814525,9
2021-12-23 15:04:13.814532,-2
2021-12-23 15:04:14.038886,14
2021-12-23 15:04:14.038908,57
2021-12-23 15:04:14.038916,67
2021-12-23 15:04:14.038922,12
2021-12-23 15:04:14.038929,-7
2021-12-23 15:04:14.038935,31
2021-12-23 15:04:14.038941,38
2021-12-23 15:04:14.038947,129
2021-12-23 15:04:14.038954,416
2021-12-23 15:04:14.038960,776
2021-12-23 15:04:14.038966,822
2021-12-23 15:04:14.038973,202
2021-12-23 15:04:14.038979,-348
2021-12-23 15:04:14.038985,-120
2021-12-23 15:04:14.038992,98
2021-12-23 15:04:14.038998,-74
2021-12-23 15:04:14.039004,-72
2021-12-23 15:04:14.039011,55
2021-12-23 15:04:14.039017,28
2021-12-23 15:04:14.039023,-9
2021-12-23 15:04:14.039035,26
2021-12-23 15:04:14.039042,40
2021-12-23 15:04:14.039048,26
2021-12-23 15:04:14.039054,31
2021-12-23 15:04:14.039061,48
2021-12-23 15:04:14.039067,62
2021-12-23 15:04:14.039074,86
2021-12-23 15:04:14.039080,91
2021-12-23 15:04:14.039086,88
2021-12-23 15:04:14.039093,113
2021-12-23 15:04:14.309710,120
2021-12-23 15:04:14.309740,115
2021-12-23 15:04:14.309751,156
2021-12-23 15:04:14.309762,187
2021-12-23 15:04:14.309772,199
2021-12-23 15:04:14.309781,230
2021-12-23 15:04:14.309791,250
2021-12-23 15:04:14.309801,274
2021-12-23 15:04:14.309810,322
2021-12-23 15:04:14.309820,322
2021-12-23 15:04:14.309830,295
2021-12-23 15:04:14.309839,315
2021-12-23 15:04:14.309849,300
2021-12-23 15:04:14.309858,214
2021-12-23 15:04:14.309868,144
2021-12-23 15:04:14.309878,103
2021-12-23 15:04:14.309888,52
2021-12-23 15:04:14.309897,4
2021-12-23 15:04:14.309907,-21
2021-12-23 15:04:14.309917,-38
2021-12-23 15:04:14.309926,-48
2021-12-23 15:04:14.309936,-64
2021-12-23 15:04:14.309945,-96
2021-12-23 15:04:14.309955,-91
2021-12-23 15:04:14.309965,-28
2021-12-23 15:04:14.309974,-7
2021-12-23 15:04:14.309984,-48
2021-12-23 15:04:14.309994,-55
2021-12-23 15:04:14.310004,-16
2021-12-23 15:04:14.310013,-9
2021-12-23 15:04:14.534742,-28
2021-12-23 15:04:14.534772,-16
2021-12-23 15:04:14.534784,12
2021-12-23 15:04:14.534795,-4
2021-12-23 15:04:14.534805,-14
2021-12-23 15:04:14.534814,33
2021-12-23 15:04:14.534824,48
2021-12-23 15:04:14.534834,4
2021-12-23 15:04:14.534844,-16
2021-12-23 15:04:14.534854,-12
2021-12-23 15:04:14.534864,9
2021-12-23 15:04:14.534874,26
2021-12-23 15:04:14.534884,24
2021-12-23 15:04:14.534893,16
2021-12-23 15:04:14.534903,12
2021-12-23 15:04:14.534913,9
2021-12-23 15:04:14.534923,-2
2021-12-23 15:04:14.534932,-2
2021-12-23 15:04:14.534942,33
2021-12-23 15:04:14.534952,64
2021-12-23 15:04:14.534962,43
2021-12-23 15:04:14.534971,24
2021-12-23 15:04:14.534981,38
2021-12-23 15:04:14.534991,57
2021-12-23 15:04:14.535000,57
2021-12-23 15:04:14.535010,38
2021-12-23 15:04:14.535020,12
2021-12-23 15:04:14.535030,0
2021-12-23 15:04:14.535040,7
2021-12-23 15:04:14.535049,33
2021-12-23 15:04:14.803334,50
2021-12-23 15:04:14.803353,50
2021-12-23 15:04:14.803360,64
2021-12-23 15:04:14.803366,69
2021-12-23 15:04:14.803373,79
2021-12-23 15:04:14.803379,221
2021-12-23 15:04:14.803385,529
2021-12-23 15:04:14.803392,844
2021-12-23 15:04:14.803398,661
2021-12-23 15:04:14.803404,-84
2021-12-23 15:04:14.803411,-365
2021-12-23 15:04:14.803417,9
2021-12-23 15:04:14.803423,88
2021-12-23 15:04:14.803429,-108
2021-12-23 15:04:14.803435,-79
2021-12-23 15:04:14.803442,2
2021-12-23 15:04:14.803448,0
2021-12-23 15:04:14.803454,38
2021-12-23 15:04:14.803464,64
2021-12-23 15:04:14.803470,28
2021-12-23 15:04:14.803491,14
2021-12-23 15:04:14.803496,12
2021-12-23 15:04:14.803504,-2
2021-12-23 15:04:14.803509,21
2021-12-23 15:04:14.803514,67
2021-12-23 15:04:14.803520,86
2021-12-23 15:04:14.803526,79
2021-12-23 15:04:14.803531,79
2021-12-23 15:04:14.803536,93
2021-12-23 15:04:14.803541,103
2021-12-23 15:04:15.027737,110
2021-12-23 15:04:15.027759,134
2021-12-23 15:04:15.027766,168
2021-12-23 15:04:15.027773,189
2021-12-23 15:04:15.027779,218
2021-12-23 15:04:15.027790,250
2021-12-23 15:04:15.027796,269
2021-12-23 15:04:15.027803,286
2021-12-23 15:04:15.027809,286
2021-12-23 15:04:15.027815,250
2021-12-23 15:04:15.027822,192
2021-12-23 15:04:15.027828,129
2021-12-23 15:04:15.027834,64
2021-12-23 15:04:15.027841,7
2021-12-23 15:04:15.027847,-38
2021-12-23 15:04:15.027853,-74
2021-12-23 15:04:15.027860,-93
2021-12-23 15:04:15.027866,-101
2021-12-23 15:04:15.027872,-110
2021-12-23 15:04:15.027878,-113
2021-12-23 15:04:15.027885,-105
2021-12-23 15:04:15.027891,-110
2021-12-23 15:04:15.027897,-108
2021-12-23 15:04:15.027903,-91
2021-12-23 15:04:15.027909,-101
2021-12-23 15:04:15.027916,-105
2021-12-23 15:04:15.027922,-55
2021-12-23 15:04:15.027928,-24
2021-12-23 15:04:15.027934,-52
2021-12-23 15:04:15.027940,-57
2021-12-23 15:04:15.254106,-40
2021-12-23 15:04:15.254136,-43
2021-12-23 15:04:15.254148,-60
2021-12-23 15:04:15.254158,-50
2021-12-23 15:04:15.254168,-24
2021-12-23 15:04:15.254178,-19
2021-12-23 15:04:15.254188,-21
2021-12-23 15:04:15.254198,-2
2021-12-23 15:04:15.254207,-7
2021-12-23 15:04:15.254217,-31
2021-12-23 15:04:15.254227,-31
2021-12-23 15:04:15.254237,-28
2021-12-23 15:04:15.254246,-38
2021-12-23 15:04:15.254256,-38
2021-12-23 15:04:15.254266,-16
2021-12-23 15:04:15.254278,-7
2021-12-23 15:04:15.254288,-14
2021-12-23 15:04:15.254297,-16
2021-12-23 15:04:15.254307,-9
2021-12-23 15:04:15.254317,-9
2021-12-23 15:04:15.254327,0
2021-12-23 15:04:15.254336,19
2021-12-23 15:04:15.254346,14
2021-12-23 15:04:15.254356,0
2021-12-23 15:04:15.254366,2
2021-12-23 15:04:15.254376,9
2021-12-23 15:04:15.254385,0
2021-12-23 15:04:15.254395,-2
2021-12-23 15:04:15.254405,7
2021-12-23 15:04:15.254415,4
2021-12-23 15:04:15.434272,0
2021-12-23 15:04:15.434303,2
2021-12-23 15:04:15.434315,7
2021-12-23 15:04:15.434325,28
2021-12-23 15:04:15.434334,50
2021-12-23 15:04:15.434344,98
2021-12-23 15:04:15.434354,293
2021-12-23 15:04:15.434363,656
2021-12-23 15:04:15.434373,923
2021-12-23 15:04:15.434382,526
2021-12-23 15:04:15.434392,-254
2021-12-23 15:04:15.434402,-327
2021-12-23 15:04:15.434412,43
2021-12-23 15:04:15.434421,-4
2021-12-23 15:04:15.434431,-129
2021-12-23 15:04:15.434441,-21
2021-12-23 15:04:15.434450,-2
2021-12-23 15:04:15.434460,-74
2021-12-23 15:04:15.434470,-50
2021-12-23 15:04:15.434480,-9
2021-12-23 15:04:15.434489,-24
2021-12-23 15:04:15.434499,-19
2021-12-23 15:04:15.434508,9
2021-12-23 15:04:15.434518,19
2021-12-23 15:04:15.434528,31
2021-12-23 15:04:15.434537,36
2021-12-23 15:04:15.434547,21
2021-12-23 15:04:15.434556,26
2021-12-23 15:04:15.434566,48
2021-12-23 15:04:15.434576,55
2021-12-23 15:04:15.658925,64
2021-12-23 15:04:15.658948,96
2021-12-23 15:04:15.658956,125
2021-12-23 15:04:15.658962,151
2021-12-23 15:04:15.658969,177
2021-12-23 15:04:15.658981,177
2021-12-23 15:04:15.658988,165
2021-12-23 15:04:15.658994,180
2021-12-23 15:04:15.659001,223
2021-12-23 15:04:15.659007,252
2021-12-23 15:04:15.659014,233
2021-12-23 15:04:15.659020,177
2021-12-23 15:04:15.659026,105
2021-12-23 15:04:15.659033,48
2021-12-23 15:04:15.659039,-4
2021-12-23 15:04:15.659046,-76
2021-12-23 15:04:15.659052,-132
2021-12-23 15:04:15.659058,-134
2021-12-23 15:04:15.659065,-105
2021-12-23 15:04:15.659071,-93
2021-12-23 15:04:15.659077,-108
2021-12-23 15:04:15.659083,-110
2021-12-23 15:04:15.659090,-103
2021-12-23 15:04:15.659096,-103
2021-12-23 15:04:15.659102,-108
2021-12-23 15:04:15.659108,-117
2021-12-23 15:04:15.659115,-108
2021-12-23 15:04:15.659121,-60
2021-12-23 15:04:15.659127,-19
2021-12-23 15:04:15.659133,-24
2021-12-23 15:04:15.928814,-43
2021-12-23 15:04:15.928845,-33
2021-12-23 15:04:15.928856,-33
2021-12-23 15:04:15.928866,-64
2021-12-23 15:04:15.928876,-67
2021-12-23 15:04:15.928885,-31
2021-12-23 15:04:15.928895,-28
2021-12-23 15:04:15.928904,-28
2021-12-23 15:04:15.928914,14
2021-12-23 15:04:15.928923,19
2021-12-23 15:04:15.928933,-33
2021-12-23 15:04:15.928943,-69
2021-12-23 15:04:15.928952,-50
2021-12-23 15:04:15.928962,14
2021-12-23 15:04:15.928971,31
2021-12-23 15:04:15.928981,-7
2021-12-23 15:04:15.928990,4
2021-12-23 15:04:15.929000,40
2021-12-23 15:04:15.929010,-2
2021-12-23 15:04:15.929019,-50
2021-12-23 15:04:15.929029,-36
2021-12-23 15:04:15.929039,-4
2021-12-23 15:04:15.929048,16
2021-12-23 15:04:15.929058,28
2021-12-23 15:04:15.929068,28
2021-12-23 15:04:15.929077,28
2021-12-23 15:04:15.929087,31
2021-12-23 15:04:15.929096,21
2021-12-23 15:04:15.929106,-12
2021-12-23 15:04:15.929116,-38
2021-12-23 15:04:16.198854,0
2021-12-23 15:04:16.198871,72
2021-12-23 15:04:16.198877,64
2021-12-23 15:04:16.198882,14
2021-12-23 15:04:16.198887,19
2021-12-23 15:04:16.198893,36
2021-12-23 15:04:16.198898,14
2021-12-23 15:04:16.198903,-4
2021-12-23 15:04:16.198908,-14
2021-12-23 15:04:16.198913,24
2021-12-23 15:04:16.198918,173
2021-12-23 15:04:16.198923,413
2021-12-23 15:04:16.198928,740
2021-12-23 15:04:16.198933,875
2021-12-23 15:04:16.198938,288
2021-12-23 15:04:16.198943,-372
2021-12-23 15:04:16.198948,-206
2021-12-23 15:04:16.198953,69
2021-12-23 15:04:16.198958,-69
2021-12-23 15:04:16.198963,-79
2021-12-23 15:04:16.198968,38
2021-12-23 15:04:16.198973,-7
2021-12-23 15:04:16.198978,-36
2021-12-23 15:04:16.198983,19
2021-12-23 15:04:16.198988,12
2021-12-23 15:04:16.198993,-24
2021-12-23 15:04:16.198998,-33
2021-12-23 15:04:16.199003,-14
2021-12-23 15:04:16.199008,38
2021-12-23 15:04:16.199013,69
2021-12-23 15:04:16.424172,52
2021-12-23 15:04:16.424203,48
2021-12-23 15:04:16.424215,76
2021-12-23 15:04:16.424225,79
2021-12-23 15:04:16.424235,55
2021-12-23 15:04:16.424244,60
2021-12-23 15:04:16.424254,103
2021-12-23 15:04:16.424264,158
2021-12-23 15:04:16.424273,173
2021-12-23 15:04:16.424283,175
2021-12-23 15:04:16.424293,202
2021-12-23 15:04:16.424303,216
2021-12-23 15:04:16.424312,202
2021-12-23 15:04:16.424322,182
2021-12-23 15:04:16.424332,189
2021-12-23 15:04:16.424341,228
2021-12-23 15:04:16.424351,216
2021-12-23 15:04:16.424361,127
2021-12-23 15:04:16.424370,52
2021-12-23 15:04:16.424380,9
2021-12-23 15:04:16.424390,-45
2021-12-23 15:04:16.424400,-91
2021-12-23 15:04:16.424410,-105
2021-12-23 15:04:16.424419,-127
2021-12-23 15:04:16.424429,-149
2021-12-23 15:04:16.424439,-110
2021-12-23 15:04:16.424448,-55
2021-12-23 15:04:16.424458,-67
2021-12-23 15:04:16.424468,-84
2021-12-23 15:04:16.424477,-60
2021-12-23 15:04:16.603994,-52
2021-12-23 15:04:16.604024,-72
2021-12-23 15:04:16.604032,-79
2021-12-23 15:04:16.604038,-93
2021-12-23 15:04:16.604044,-81
2021-12-23 15:04:16.604051,-24
2021-12-23 15:04:16.604057,0
2021-12-23 15:04:16.604063,-33
2021-12-23 15:04:16.604070,-43
2021-12-23 15:04:16.604076,-21
2021-12-23 15:04:16.604082,-24
2021-12-23 15:04:16.604088,-48
2021-12-23 15:04:16.604095,-74
2021-12-23 15:04:16.604101,-57
2021-12-23 15:04:16.604107,-14
2021-12-23 15:04:16.604113,-33
2021-12-23 15:04:16.604120,-36
2021-12-23 15:04:16.604126,31
2021-12-23 15:04:16.604132,24
2021-12-23 15:04:16.604139,-36
2021-12-23 15:04:16.604145,-31
2021-12-23 15:04:16.604151,-28
2021-12-23 15:04:16.604158,-67
2021-12-23 15:04:16.604164,-67
2021-12-23 15:04:16.604170,-7
2021-12-23 15:04:16.604176,55
2021-12-23 15:04:16.604183,48
2021-12-23 15:04:16.604189,2
2021-12-23 15:04:16.604195,-12
2021-12-23 15:04:16.604202,0
2021-12-23 15:04:16.829127,2
2021-12-23 15:04:16.829150,0
2021-12-23 15:04:16.829158,-12
2021-12-23 15:04:16.829164,-19
2021-12-23 15:04:16.829170,19
2021-12-23 15:04:16.829177,72
2021-12-23 15:04:16.829183,64
2021-12-23 15:04:16.829189,28
2021-12-23 15:04:16.829195,24
2021-12-23 15:04:16.829202,14
2021-12-23 15:04:16.829208,-36
2021-12-23 15:04:16.829214,-40
2021-12-23 15:04:16.829220,43
2021-12-23 15:04:16.829227,72
2021-12-23 15:04:16.829233,21
2021-12-23 15:04:16.829239,21
2021-12-23 15:04:16.829246,48
2021-12-23 15:04:16.829252,31
2021-12-23 15:04:16.829258,76
2021-12-23 15:04:16.829264,329
2021-12-23 15:04:16.829271,764
2021-12-23 15:04:16.829277,925
2021-12-23 15:04:16.829283,339
2021-12-23 15:04:16.829289,-305
2021-12-23 15:04:16.829296,-151
2021-12-23 15:04:16.829302,113
2021-12-23 15:04:16.829308,-43
2021-12-23 15:04:16.829314,-101
2021-12-23 15:04:16.829321,-12
2021-12-23 15:04:16.829327,-52
2021-12-23 15:04:17.098998,-74
2021-12-23 15:04:17.099028,16
2021-12-23 15:04:17.099040,57
2021-12-23 15:04:17.099050,14
2021-12-23 15:04:17.099060,4
2021-12-23 15:04:17.099070,16
2021-12-23 15:04:17.099080,12
2021-12-23 15:04:17.099089,16
2021-12-23 15:04:17.099099,33
2021-12-23 15:04:17.099109,31
2021-12-23 15:04:17.099118,4
2021-12-23 15:04:17.099128,-2
2021-12-23 15:04:17.099138,72
2021-12-23 15:04:17.099147,125
2021-12-23 15:04:17.099157,69
2021-12-23 15:04:17.099167,93
2021-12-23 15:04:17.099176,202
2021-12-23 15:04:17.099186,209
2021-12-23 15:04:17.099196,185
2021-12-23 15:04:17.099205,214
2021-12-23 15:04:17.099215,226
2021-12-23 15:04:17.099224,223
2021-12-23 15:04:17.099234,223
2021-12-23 15:04:17.099244,197
2021-12-23 15:04:17.099253,180
2021-12-23 15:04:17.099263,180
2021-12-23 15:04:17.099273,105
2021-12-23 15:04:17.099282,19
2021-12-23 15:04:17.099292,-14
2021-12-23 15:04:17.099302,-60
2021-12-23 15:04:17.279284,-96
2021-12-23 15:04:17.279314,-101
2021-12-23 15:04:17.279326,-96
2021-12-23 15:04:17.279336,-69
2021-12-23 15:04:17.279346,-40
2021-12-23 15:04:17.279356,-55
2021-12-23 15:04:17.279366,-64
2021-12-23 15:04:17.279376,-45
2021-12-23 15:04:17.279386,-38
2021-12-23 15:04:17.279395,-45
2021-12-23 15:04:17.279405,-62
2021-12-23 15:04:17.279415,-60
2021-12-23 15:04:17.279426,-19
2021-12-23 15:04:17.279484,14
2021-12-23 15:04:17.279507,14
2021-12-23 15:04:17.279516,4
2021-12-23 15:04:17.279523,2
2021-12-23 15:04:17.279529,7
2021-12-23 15:04:17.279536,4
2021-12-23 15:04:17.279542,0
2021-12-23 15:04:17.279549,2
2021-12-23 15:04:17.279555,-9
2021-12-23 15:04:17.279562,-19
2021-12-23 15:04:17.279568,14
2021-12-23 15:04:17.279574,50
2021-12-23 15:04:17.279581,19
2021-12-23 15:04:17.279587,-12
2021-12-23 15:04:17.279594,19
2021-12-23 15:04:17.279600,40
2021-12-23 15:04:17.279606,33
2021-12-23 15:04:17.549930,21
2021-12-23 15:04:17.549960,2
2021-12-23 15:04:17.549972,-4
2021-12-23 15:04:17.549982,19
2021-12-23 15:04:17.549992,36
2021-12-23 15:04:17.550002,38
2021-12-23 15:04:17.550011,38
2021-12-23 15:04:17.550021,26
2021-12-23 15:04:17.550031,2
2021-12-23 15:04:17.550040,-4
2021-12-23 15:04:17.550050,7
2021-12-23 15:04:17.550068,24
2021-12-23 15:04:17.550078,40
2021-12-23 15:04:17.550088,26
2021-12-23 15:04:17.550098,16
2021-12-23 15:04:17.550108,69
2021-12-23 15:04:17.550117,81
2021-12-23 15:04:17.550127,21
2021-12-23 15:04:17.550137,14
2021-12-23 15:04:17.550146,31
2021-12-23 15:04:17.550156,2
2021-12-23 15:04:17.550166,24
2021-12-23 15:04:17.550175,88
2021-12-23 15:04:17.550185,72
2021-12-23 15:04:17.550195,36
2021-12-23 15:04:17.550205,52
2021-12-23 15:04:17.550214,69
2021-12-23 15:04:17.550224,153
2021-12-23 15:04:17.550234,413
2021-12-23 15:04:17.550244,820
2021-12-23 15:04:17.729305,990
2021-12-23 15:04:17.729336,372
2021-12-23 15:04:17.729347,-327
2021-12-23 15:04:17.729358,-132
2021-12-23 15:04:17.729367,161
2021-12-23 15:04:17.729377,-26
2021-12-23 15:04:17.729387,-76
2021-12-23 15:04:17.729396,55
2021-12-23 15:04:17.729406,24
2021-12-23 15:04:17.729416,-48
2021-12-23 15:04:17.729425,-9
2021-12-23 15:04:17.729435,24
2021-12-23 15:04:17.729445,9
2021-12-23 15:04:17.729454,4
2021-12-23 15:04:17.729464,12
2021-12-23 15:04:17.729474,28
2021-12-23 15:04:17.729483,43
2021-12-23 15:04:17.729493,28
2021-12-23 15:04:17.729502,24
2021-12-23 15:04:17.729512,79
2021-12-23 15:04:17.729522,132
2021-12-23 15:04:17.729531,132
2021-12-23 15:04:17.729541,141
2021-12-23 15:04:17.729551,170
2021-12-23 15:04:17.729560,163
2021-12-23 15:04:17.729570,163
2021-12-23 15:04:17.729579,199
2021-12-23 15:04:17.729589,226
2021-12-23 15:04:17.729599,242
2021-12-23 15:04:17.729608,257
2021-12-23 15:04:17.999282,235
2021-12-23 15:04:17.999303,214
2021-12-23 15:04:17.999310,257
2021-12-23 15:04:17.999318,295
2021-12-23 15:04:17.999329,216
2021-12-23 15:04:17.999340,96
2021-12-23 15:04:17.999352,64
2021-12-23 15:04:17.999359,36
2021-12-23 15:04:17.999365,-57
2021-12-23 15:04:17.999371,-139
2021-12-23 15:04:17.999378,-115
2021-12-23 15:04:17.999384,-26
2021-12-23 15:04:17.999390,-9
2021-12-23 15:04:17.999397,-45
2021-12-23 15:04:17.999405,-45
2021-12-23 15:04:17.999415,-31
2021-12-23 15:04:17.999424,-28
2021-12-23 15:04:17.999432,-24
2021-12-23 15:04:17.999440,-16
2021-12-23 15:04:17.999448,-14
2021-12-23 15:04:17.999456,-4
2021-12-23 15:04:17.999464,4
2021-12-23 15:04:17.999472,2
2021-12-23 15:04:17.999479,-4
2021-12-23 15:04:17.999487,-7
2021-12-23 15:04:17.999495,-14
2021-12-23 15:04:17.999501,-33
2021-12-23 15:04:17.999508,-16
2021-12-23 15:04:17.999517,31
2021-12-23 15:04:17.999528,26
2021-12-23 15:04:18.224841,-21
2021-12-23 15:04:18.224886,-52
2021-12-23 15:04:18.224898,-7
2021-12-23 15:04:18.224908,91
2021-12-23 15:04:18.224918,93
2021-12-23 15:04:18.224927,33
2021-12-23 15:04:18.224937,28
2021-12-23 15:04:18.224947,48
2021-12-23 15:04:18.224957,36
2021-12-23 15:04:18.224966,28
2021-12-23 15:04:18.224976,33
2021-12-23 15:04:18.224986,21
2021-12-23 15:04:18.224996,0
2021-12-23 15:04:18.225006,-19
2021-12-23 15:04:18.225015,-9
2021-12-23 15:04:18.225025,72
2021-12-23 15:04:18.225035,125
2021-12-23 15:04:18.225045,67
2021-12-23 15:04:18.225055,26
2021-12-23 15:04:18.225064,33
2021-12-23 15:04:18.225074,-2
2021-12-23 15:04:18.225084,-14
2021-12-23 15:04:18.225093,21
2021-12-23 15:04:18.225103,12
2021-12-23 15:04:18.225113,33
2021-12-23 15:04:18.225122,91
2021-12-23 15:04:18.225132,57
2021-12-23 15:04:18.225142,7
2021-12-23 15:04:18.225151,36
2021-12-23 15:04:18.225161,67
2021-12-23 15:04:18.449770,117
2021-12-23 15:04:18.449800,324
2021-12-23 15:04:18.449812,692
2021-12-23 15:04:18.449823,990
2021-12-23 15:04:18.449832,687
2021-12-23 15:04:18.449843,-108
2021-12-23 15:04:18.449853,-322
2021-12-23 15:04:18.449862,38
2021-12-23 15:04:18.449872,64
2021-12-23 15:04:18.449882,-98
2021-12-23 15:04:18.449892,-33
2021-12-23 15:04:18.449902,21
2021-12-23 15:04:18.449911,-28
2021-12-23 15:04:18.449921,-24
2021-12-23 15:04:18.449931,4
2021-12-23 15:04:18.449941,-36
2021-12-23 15:04:18.449950,-26
2021-12-23 15:04:18.449960,64
2021-12-23 15:04:18.449970,76
2021-12-23 15:04:18.449980,33
2021-12-23 15:04:18.449989,48
2021-12-23 15:04:18.449999,88
2021-12-23 15:04:18.450009,88
2021-12-23 15:04:18.450019,88
2021-12-23 15:04:18.450028,110
2021-12-23 15:04:18.450038,122
2021-12-23 15:04:18.450048,127
2021-12-23 15:04:18.450057,149
2021-12-23 15:04:18.450067,173
2021-12-23 15:04:18.450077,175
2021-12-23 15:04:18.674301,192
2021-12-23 15:04:18.674332,218
2021-12-23 15:04:18.674344,223
2021-12-23 15:04:18.674355,254
2021-12-23 15:04:18.674364,305
2021-12-23 15:04:18.674374,298
2021-12-23 15:04:18.674384,262
2021-12-23 15:04:18.674394,221
2021-12-23 15:04:18.674408,149
2021-12-23 15:04:18.674418,60
2021-12-23 15:04:18.674428,-12
2021-12-23 15:04:18.674438,-57
2021-12-23 15:04:18.674447,-50
2021-12-23 15:04:18.674457,-16
2021-12-23 15:04:18.674467,-31
2021-12-23 15:04:18.674477,-64
2021-12-23 15:04:18.674486,-69
2021-12-23 15:04:18.674496,-72
2021-12-23 15:04:18.674506,-69
2021-12-23 15:04:18.674515,-74
2021-12-23 15:04:18.674525,-84
2021-12-23 15:04:18.674535,-67
2021-12-23 15:04:18.674544,-43
2021-12-23 15:04:18.674554,-19
2021-12-23 15:04:18.674564,-4
2021-12-23 15:04:18.674574,-28
2021-12-23 15:04:18.674584,-38
2021-12-23 15:04:18.674593,-28
2021-12-23 15:04:18.674603,-50
2021-12-23 15:04:18.674613,-69
2021-12-23 15:04:18.899726,-52
2021-12-23 15:04:18.899756,-33
2021-12-23 15:04:18.899767,-43
2021-12-23 15:04:18.899777,-69
2021-12-23 15:04:18.899787,-74
2021-12-23 15:04:18.899797,-45
2021-12-23 15:04:18.899806,-33
2021-12-23 15:04:18.899816,-67
2021-12-23 15:04:18.899826,-105
2021-12-23 15:04:18.899835,-120
2021-12-23 15:04:18.899845,-115
2021-12-23 15:04:18.899855,-62
2021-12-23 15:04:18.899864,-14
2021-12-23 15:04:18.899874,-45
2021-12-23 15:04:18.899884,-60
2021-12-23 15:04:18.899894,-28
2021-12-23 15:04:18.899903,-36
2021-12-23 15:04:18.899913,-57
2021-12-23 15:04:18.899922,-52
2021-12-23 15:04:18.899932,-60
2021-12-23 15:04:18.899941,-84
2021-12-23 15:04:18.899951,-72
2021-12-23 15:04:18.899960,-38
2021-12-23 15:04:18.899970,-36
2021-12-23 15:04:18.899980,-45
2021-12-23 15:04:18.899989,-26
2021-12-23 15:04:18.899999,16
2021-12-23 15:04:18.900008,88
2021-12-23 15:04:18.900018,240
2021-12-23 15:04:18.900028,545
2021-12-23 15:04:19.167972,894
2021-12-23 15:04:19.168003,774
2021-12-23 15:04:19.168015,-52
2021-12-23 15:04:19.168024,-555
2021-12-23 15:04:19.168034,-204
2021-12-23 15:04:19.168044,9
2021-12-23 15:04:19.168054,-153
2021-12-23 15:04:19.168063,-127
2021-12-23 15:04:19.168073,-52
2021-12-23 15:04:19.168083,-98
2021-12-23 15:04:19.168092,-64
2021-12-23 15:04:19.168102,-19
2021-12-23 15:04:19.168112,-64
2021-12-23 15:04:19.168121,-57
2021-12-23 15:04:19.168131,-2
2021-12-23 15:04:19.168141,2
2021-12-23 15:04:19.168151,4
2021-12-23 15:04:19.168160,28
2021-12-23 15:04:19.168170,26
2021-12-23 15:04:19.168180,9
2021-12-23 15:04:19.168189,28
2021-12-23 15:04:19.168199,72
2021-12-23 15:04:19.168209,91
2021-12-23 15:04:19.168218,98
2021-12-23 15:04:19.168228,122
2021-12-23 15:04:19.168237,168
2021-12-23 15:04:19.168247,204
2021-12-23 15:04:19.168257,202
2021-12-23 15:04:19.168266,209
2021-12-23 15:04:19.168276,240
2021-12-23 15:04:19.394394,216
2021-12-23 15:04:19.394414,192
2021-12-23 15:04:19.394420,269
2021-12-23 15:04:19.394425,300
2021-12-23 15:04:19.394430,180
2021-12-23 15:04:19.394435,84
2021-12-23 15:04:19.394440,48
2021-12-23 15:04:19.394444,-33
2021-12-23 15:04:19.394449,-103
2021-12-23 15:04:19.394454,-113
2021-12-23 15:04:19.394459,-139
2021-12-23 15:04:19.394464,-180
2021-12-23 15:04:19.394469,-182
2021-12-23 15:04:19.394473,-146
2021-12-23 15:04:19.394478,-88
2021-12-23 15:04:19.394483,-81
2021-12-23 15:04:19.394488,-110
2021-12-23 15:04:19.394493,-103
2021-12-23 15:04:19.394497,-79
2021-12-23 15:04:19.394502,-91
2021-12-23 15:04:19.394507,-120
2021-12-23 15:04:19.394512,-115
2021-12-23 15:04:19.394516,-36
2021-12-23 15:04:19.394521,21
2021-12-23 15:04:19.394526,-12
2021-12-23 15:04:19.394531,-38
2021-12-23 15:04:19.394536,-24
2021-12-23 15:04:19.394541,-26
2021-12-23 15:04:19.394545,-31
2021-12-23 15:04:19.394550,-28
2021-12-23 15:04:19.574251,-43
2021-12-23 15:04:19.574282,-74
2021-12-23 15:04:19.574293,-74
2021-12-23 15:04:19.574303,-26
2021-12-23 15:04:19.574313,7
2021-12-23 15:04:19.574323,0
2021-12-23 15:04:19.574333,9
2021-12-23 15:04:19.574342,21
2021-12-23 15:04:19.574352,9
2021-12-23 15:04:19.574362,-9
2021-12-23 15:04:19.574372,-31
2021-12-23 15:04:19.574381,-28
2021-12-23 15:04:19.574391,4
2021-12-23 15:04:19.574401,21
2021-12-23 15:04:19.574410,2
2021-12-23 15:04:19.574420,-7
2021-12-23 15:04:19.574430,-2
2021-12-23 15:04:19.574439,-2
2021-12-23 15:04:19.574449,-4
2021-12-23 15:04:19.574458,19
2021-12-23 15:04:19.574468,64
2021-12-23 15:04:19.574478,180
2021-12-23 15:04:19.574487,464
2021-12-23 15:04:19.574497,858
2021-12-23 15:04:19.574507,834
2021-12-23 15:04:19.574516,69
2021-12-23 15:04:19.574526,-437
2021-12-23 15:04:19.574536,-105
2021-12-23 15:04:19.574545,91
2021-12-23 15:04:19.574555,-98
2021-12-23 15:04:19.889251,-79
2021-12-23 15:04:19.889273,28
2021-12-23 15:04:19.889281,-16
2021-12-23 15:04:19.889287,-45
2021-12-23 15:04:19.889294,-12
2021-12-23 15:04:19.889300,-4
2021-12-23 15:04:19.889306,14
2021-12-23 15:04:19.889313,40
2021-12-23 15:04:19.889319,28
2021-12-23 15:04:19.889325,21
2021-12-23 15:04:19.889332,36
2021-12-23 15:04:19.889338,40
2021-12-23 15:04:19.889344,40
2021-12-23 15:04:19.889350,40
2021-12-23 15:04:19.889357,43
2021-12-23 15:04:19.889363,84
2021-12-23 15:04:19.889370,139
2021-12-23 15:04:19.889376,144
2021-12-23 15:04:19.889382,141
2021-12-23 15:04:19.889389,182
2021-12-23 15:04:19.889395,211
2021-12-23 15:04:19.889401,218
2021-12-23 15:04:19.889408,223
2021-12-23 15:04:19.889418,226
2021-12-23 15:04:19.889424,233
2021-12-23 15:04:19.889431,238
2021-12-23 15:04:19.889437,228
2021-12-23 15:04:19.889443,194
2021-12-23 15:04:19.889450,117
2021-12-23 15:04:19.889456,28
2021-12-23 15:04:20.158636,-28
2021-12-23 15:04:20.158667,-62
2021-12-23 15:04:20.158679,-91
2021-12-23 15:04:20.158689,-91
2021-12-23 15:04:20.158699,-74
2021-12-23 15:04:20.158708,-88
2021-12-23 15:04:20.158718,-113
2021-12-23 15:04:20.158727,-108
2021-12-23 15:04:20.158737,-93
2021-12-23 15:04:20.158747,-74
2021-12-23 15:04:20.158756,-62
2021-12-23 15:04:20.158766,-74
2021-12-23 15:04:20.158775,-62
2021-12-23 15:04:20.158785,-28
2021-12-23 15:04:20.158795,-38
2021-12-23 15:04:20.158804,-50
2021-12-23 15:04:20.158814,-24
2021-12-23 15:04:20.158824,-14
2021-12-23 15:04:20.158833,-21
2021-12-23 15:04:20.158843,-24
2021-12-23 15:04:20.158852,-33
2021-12-23 15:04:20.158862,-40
2021-12-23 15:04:20.158871,-26
2021-12-23 15:04:20.158881,-14
2021-12-23 15:04:20.158891,-4
2021-12-23 15:04:20.158900,-9
2021-12-23 15:04:20.158910,-19
2021-12-23 15:04:20.158919,12
2021-12-23 15:04:20.158929,50
2021-12-23 15:04:20.158939,24
2021-12-23 15:04:20.294721,0
2021-12-23 15:04:20.294751,21
2021-12-23 15:04:20.294762,24
2021-12-23 15:04:20.294772,2
2021-12-23 15:04:20.294782,-7
2021-12-23 15:04:20.294792,2
2021-12-23 15:04:20.294802,31
2021-12-23 15:04:20.294811,45
2021-12-23 15:04:20.294821,24
2021-12-23 15:04:20.294831,16
2021-12-23 15:04:20.294840,26
2021-12-23 15:04:20.294850,40
2021-12-23 15:04:20.294859,173
2021-12-23 15:04:20.294869,512
2021-12-23 15:04:20.294879,904
2021-12-23 15:04:20.294889,808
2021-12-23 15:04:20.294898,28
2021-12-23 15:04:20.294908,-404
2021-12-23 15:04:20.294918,-60
2021-12-23 15:04:20.294927,84
2021-12-23 15:04:20.294937,-86
2021-12-23 15:04:20.294947,-43
2021-12-23 15:04:20.294956,24
2021-12-23 15:04:20.294966,-21
2021-12-23 15:04:20.294976,0
2021-12-23 15:04:20.294985,36
2021-12-23 15:04:20.294995,9
2021-12-23 15:04:20.295005,-4
2021-12-23 15:04:20.295014,26
2021-12-23 15:04:20.295024,64
2021-12-23 15:04:20.519280,55
2021-12-23 15:04:20.519310,43
2021-12-23 15:04:20.519322,79
2021-12-23 15:04:20.519332,103
2021-12-23 15:04:20.519342,98
2021-12-23 15:04:20.519351,105
2021-12-23 15:04:20.519361,120
2021-12-23 15:04:20.519370,120
2021-12-23 15:04:20.519380,132
2021-12-23 15:04:20.519390,185
2021-12-23 15:04:20.519399,238
2021-12-23 15:04:20.519409,240
2021-12-23 15:04:20.519418,214
2021-12-23 15:04:20.519428,226
2021-12-23 15:04:20.519438,269
2021-12-23 15:04:20.519447,269
2021-12-23 15:04:20.519457,242
2021-12-23 15:04:20.519467,216
2021-12-23 15:04:20.519476,141
2021-12-23 15:04:20.519486,40
2021-12-23 15:04:20.519495,-21
2021-12-23 15:04:20.519505,-52
2021-12-23 15:04:20.519515,-79
2021-12-23 15:04:20.519524,-76
2021-12-23 15:04:20.519534,-74
2021-12-23 15:04:20.519543,-98
2021-12-23 15:04:20.519553,-103
2021-12-23 15:04:20.519562,-81
2021-12-23 15:04:20.519572,-84
2021-12-23 15:04:20.519582,-103
2021-12-23 15:04:20.833740,-98
2021-12-23 15:04:20.833759,-57
2021-12-23 15:04:20.833767,-38
2021-12-23 15:04:20.833773,-62
2021-12-23 15:04:20.833780,-55
2021-12-23 15:04:20.833786,-28
2021-12-23 15:04:20.833793,-33
2021-12-23 15:04:20.833799,-36
2021-12-23 15:04:20.833805,-24
2021-12-23 15:04:20.833811,-24
2021-12-23 15:04:20.833818,-33
2021-12-23 15:04:20.833824,-50
2021-12-23 15:04:20.833830,-62
2021-12-23 15:04:20.833837,-19
2021-12-23 15:04:20.833843,26
2021-12-23 15:04:20.833849,2
2021-12-23 15:04:20.833855,-12
2021-12-23 15:04:20.833862,14
2021-12-23 15:04:20.833868,26
2021-12-23 15:04:20.833874,21
2021-12-23 15:04:20.833880,4
2021-12-23 15:04:20.833887,-7
2021-12-23 15:04:20.833893,-4
2021-12-23 15:04:20.833899,-9
2021-12-23 15:04:20.833906,-21
2021-12-23 15:04:20.833912,-26
2021-12-23 15:04:20.833918,-33
2021-12-23 15:04:20.833924,-43
2021-12-23 15:04:20.833930,-26
2021-12-23 15:04:20.833937,19
2021-12-23 15:04:20.969789,31
2021-12-23 15:04:20.969819,72
2021-12-23 15:04:20.969830,259
2021-12-23 15:04:20.969840,591
2021-12-23 15:04:20.969850,894
2021-12-23 15:04:20.969860,620
2021-12-23 15:04:20.969869,-187
2021-12-23 15:04:20.969879,-382
2021-12-23 15:04:20.969889,24
2021-12-23 15:04:20.969899,36
2021-12-23 15:04:20.969909,-122
2021-12-23 15:04:20.969919,-38
2021-12-23 15:04:20.969928,-12
2021-12-23 15:04:20.969938,-74
2021-12-23 15:04:20.969948,-33
2021-12-23 15:04:20.969958,19
2021-12-23 15:04:20.969967,7
2021-12-23 15:04:20.969977,-9
2021-12-23 15:04:20.969987,0
2021-12-23 15:04:20.969997,2
2021-12-23 15:04:20.970006,-7
2021-12-23 15:04:20.970016,26
2021-12-23 15:04:20.970026,96
2021-12-23 15:04:20.970036,101
2021-12-23 15:04:20.970046,69
2021-12-23 15:04:20.970056,86
2021-12-23 15:04:20.970065,110
2021-12-23 15:04:20.970075,115
2021-12-23 15:04:20.970085,134
2021-12-23 15:04:20.970095,177
2021-12-23 15:04:21.238583,214
2021-12-23 15:04:21.238612,230
2021-12-23 15:04:21.238624,233
2021-12-23 15:04:21.238634,230
2021-12-23 15:04:21.238644,257
2021-12-23 15:04:21.238654,295
2021-12-23 15:04:21.238663,264
2021-12-23 15:04:21.238673,185
2021-12-23 15:04:21.238683,120
2021-12-23 15:04:21.238692,43
2021-12-23 15:04:21.238702,-50
2021-12-23 15:04:21.238712,-84
2021-12-23 15:04:21.238722,-60
2021-12-23 15:04:21.238732,-64
2021-12-23 15:04:21.238741,-84
2021-12-23 15:04:21.238751,-76
2021-12-23 15:04:21.238761,-79
2021-12-23 15:04:21.238771,-91
2021-12-23 15:04:21.238781,-88
2021-12-23 15:04:21.238790,-69
2021-12-23 15:04:21.238800,-57
2021-12-23 15:04:21.238810,-45
2021-12-23 15:04:21.238820,-24
2021-12-23 15:04:21.238830,-26
2021-12-23 15:04:21.238840,-36
2021-12-23 15:04:21.238849,-26
2021-12-23 15:04:21.238859,-21
2021-12-23 15:04:21.238869,-48
2021-12-23 15:04:21.238879,-60
2021-12-23 15:04:21.238894,-16
2021-12-23 15:04:21.419788,21
2021-12-23 15:04:21.419818,9
2021-12-23 15:04:21.419830,-2
2021-12-23 15:04:21.419840,0
2021-12-23 15:04:21.419850,-2
2021-12-23 15:04:21.419860,2
2021-12-23 15:04:21.419870,16
2021-12-23 15:04:21.419880,21
2021-12-23 15:04:21.419890,14
2021-12-23 15:04:21.419900,14
2021-12-23 15:04:21.419910,9
2021-12-23 15:04:21.419920,19
2021-12-23 15:04:21.419930,38
2021-12-23 15:04:21.419940,21
2021-12-23 15:04:21.419949,9
2021-12-23 15:04:21.419960,21
2021-12-23 15:04:21.419970,9
2021-12-23 15:04:21.419980,0
2021-12-23 15:04:21.419990,16
2021-12-23 15:04:21.419999,28
2021-12-23 15:04:21.420009,50
2021-12-23 15:04:21.420019,127
2021-12-23 15:04:21.420029,290
2021-12-23 15:04:21.420039,572
2021-12-23 15:04:21.420049,870
2021-12-23 15:04:21.420059,598
2021-12-23 15:04:21.420069,-192
2021-12-23 15:04:21.420078,-341
2021-12-23 15:04:21.420088,74
2021-12-23 15:04:21.420098,50
2021-12-23 15:04:21.689246,-132
2021-12-23 15:04:21.689277,-24
2021-12-23 15:04:21.689288,38
2021-12-23 15:04:21.689299,-14
2021-12-23 15:04:21.689308,7
2021-12-23 15:04:21.689318,31
2021-12-23 15:04:21.689328,2
2021-12-23 15:04:21.689338,0
2021-12-23 15:04:21.689347,26
2021-12-23 15:04:21.689357,21
2021-12-23 15:04:21.689367,38
2021-12-23 15:04:21.689376,96
2021-12-23 15:04:21.689386,93
2021-12-23 15:04:21.689395,60
2021-12-23 15:04:21.689405,69
2021-12-23 15:04:21.689415,96
2021-12-23 15:04:21.689424,149
2021-12-23 15:04:21.689434,185
2021-12-23 15:04:21.689444,175
2021-12-23 15:04:21.689453,189
2021-12-23 15:04:21.689463,228
2021-12-23 15:04:21.689473,240
2021-12-23 15:04:21.689482,259
2021-12-23 15:04:21.689492,288
2021-12-23 15:04:21.689502,300
2021-12-23 15:04:21.689511,293
2021-12-23 15:04:21.689521,266
2021-12-23 15:04:21.689531,211
2021-12-23 15:04:21.689540,146
2021-12-23 15:04:21.689550,79
2021-12-23 15:04:21.914647,16
2021-12-23 15:04:21.914705,-24
2021-12-23 15:04:21.914718,-48
2021-12-23 15:04:21.914725,-72
2021-12-23 15:04:21.914732,-74
2021-12-23 15:04:21.914738,-48
2021-12-23 15:04:21.914745,-33
2021-12-23 15:04:21.914751,-31
2021-12-23 15:04:21.914757,-26
2021-12-23 15:04:21.914764,-40
2021-12-23 15:04:21.914770,-52
2021-12-23 15:04:21.914776,-31
2021-12-23 15:04:21.914783,-19
2021-12-23 15:04:21.914789,-19
2021-12-23 15:04:21.914795,4
2021-12-23 15:04:21.914802,9
2021-12-23 15:04:21.914808,-12
2021-12-23 15:04:21.914814,-7
2021-12-23 15:04:21.914820,12
2021-12-23 15:04:21.914827,2
2021-12-23 15:04:21.914833,-12
2021-12-23 15:04:21.914839,-19
2021-12-23 15:04:21.914846,0
2021-12-23 15:04:21.914852,36
2021-12-23 15:04:21.914858,21
2021-12-23 15:04:21.914865,0
2021-12-23 15:04:21.914871,36
2021-12-23 15:04:21.914877,31
2021-12-23 15:04:21.914884,-14
2021-12-23 15:04:21.914890,-7
2021-12-23 15:04:22.139691,9
2021-12-23 15:04:22.139722,-4
2021-12-23 15:04:22.139734,-14
2021-12-23 15:04:22.139744,0
2021-12-23 15:04:22.139754,38
2021-12-23 15:04:22.139763,60
2021-12-23 15:04:22.139773,33
2021-12-23 15:04:22.139783,12
2021-12-23 15:04:22.139793,14
2021-12-23 15:04:22.139802,4
2021-12-23 15:04:22.139812,-9
2021-12-23 15:04:22.139822,-4
2021-12-23 15:04:22.139831,14
2021-12-23 15:04:22.139841,33
2021-12-23 15:04:22.139851,33
2021-12-23 15:04:22.139860,33
2021-12-23 15:04:22.139870,43
2021-12-23 15:04:22.139880,52
2021-12-23 15:04:22.139889,134
2021-12-23 15:04:22.139899,401
2021-12-23 15:04:22.139909,817
2021-12-23 15:04:22.139919,969
2021-12-23 15:04:22.139928,334
2021-12-23 15:04:22.139938,-387
2021-12-23 15:04:22.139948,-180
2021-12-23 15:04:22.139958,175
2021-12-23 15:04:22.139968,-12
2021-12-23 15:04:22.139978,-105
2021-12-23 15:04:22.139988,26
2021-12-23 15:04:22.139997,12
2021-12-23 15:04:22.364222,-43
2021-12-23 15:04:22.364253,-7
2021-12-23 15:04:22.364265,16
2021-12-23 15:04:22.364275,26
2021-12-23 15:04:22.364284,52
2021-12-23 15:04:22.364294,69
2021-12-23 15:04:22.364304,67
2021-12-23 15:04:22.364314,60
2021-12-23 15:04:22.364323,62
2021-12-23 15:04:22.364333,76
2021-12-23 15:04:22.364343,81
2021-12-23 15:04:22.364352,91
2021-12-23 15:04:22.364362,134
2021-12-23 15:04:22.364371,168
2021-12-23 15:04:22.364381,165
2021-12-23 15:04:22.364391,177
2021-12-23 15:04:22.364401,211
2021-12-23 15:04:22.364410,228
2021-12-23 15:04:22.364420,226
2021-12-23 15:04:22.364430,238
2021-12-23 15:04:22.364439,290
2021-12-23 15:04:22.364449,331
2021-12-23 15:04:22.364458,312
2021-12-23 15:04:22.364468,274
2021-12-23 15:04:22.364478,226
2021-12-23 15:04:22.364487,146
2021-12-23 15:04:22.364497,57
2021-12-23 15:04:22.364506,0
2021-12-23 15:04:22.364516,-38
2021-12-23 15:04:22.364526,-62
2021-12-23 15:04:22.634020,-74
2021-12-23 15:04:22.634042,-93
2021-12-23 15:04:22.634050,-93
2021-12-23 15:04:22.634057,-52
2021-12-23 15:04:22.634063,-31
2021-12-23 15:04:22.634069,-52
2021-12-23 15:04:22.634076,-62
2021-12-23 15:04:22.634082,-55
2021-12-23 15:04:22.634088,-55
2021-12-23 15:04:22.634095,-60
2021-12-23 15:04:22.634101,-50
2021-12-23 15:04:22.634107,-21
2021-12-23 15:04:22.634114,-7
2021-12-23 15:04:22.634120,-21
2021-12-23 15:04:22.634126,-43
2021-12-23 15:04:22.634133,-48
2021-12-23 15:04:22.634139,-21
2021-12-23 15:04:22.634146,9
2021-12-23 15:04:22.634152,9
2021-12-23 15:04:22.634158,0
2021-12-23 15:04:22.634165,-2
2021-12-23 15:04:22.634171,-12
2021-12-23 15:04:22.634177,0
2021-12-23 15:04:22.634184,28
2021-12-23 15:04:22.634190,24
2021-12-23 15:04:22.634196,-2
2021-12-23 15:04:22.634203,-14
2021-12-23 15:04:22.634209,7
2021-12-23 15:04:22.634216,31
2021-12-23 15:04:22.634222,21
2021-12-23 15:04:22.904029,9
2021-12-23 15:04:22.904059,26
2021-12-23 15:04:22.904071,36
2021-12-23 15:04:22.904081,12
2021-12-23 15:04:22.904091,-9
2021-12-23 15:04:22.904101,14
2021-12-23 15:04:22.904110,33
2021-12-23 15:04:22.904120,9
2021-12-23 15:04:22.904130,21
2021-12-23 15:04:22.904139,57
2021-12-23 15:04:22.904149,45
2021-12-23 15:04:22.904159,24
2021-12-23 15:04:22.904169,24
2021-12-23 15:04:22.904179,26
2021-12-23 15:04:22.904188,28
2021-12-23 15:04:22.904198,19
2021-12-23 15:04:22.904208,74
2021-12-23 15:04:22.904218,341
2021-12-23 15:04:22.904228,788
2021-12-23 15:04:22.904237,1031
2021-12-23 15:04:22.904247,490
2021-12-23 15:04:22.904257,-322
2021-12-23 15:04:22.904267,-262
2021-12-23 15:04:22.904277,129
2021-12-23 15:04:22.904287,12
2021-12-23 15:04:22.904297,-98
2021-12-23 15:04:22.904307,21
2021-12-23 15:04:22.904316,19
2021-12-23 15:04:22.904332,-60
2021-12-23 15:04:22.904342,-36
2021-12-23 15:04:23.084551,28
2021-12-23 15:04:23.084581,50
2021-12-23 15:04:23.084592,45
2021-12-23 15:04:23.084602,67
2021-12-23 15:04:23.084612,69
2021-12-23 15:04:23.084622,28
2021-12-23 15:04:23.084632,19
2021-12-23 15:04:23.084641,72
2021-12-23 15:04:23.084651,108
2021-12-23 15:04:23.084660,96
2021-12-23 15:04:23.084670,103
2021-12-23 15:04:23.084679,139
2021-12-23 15:04:23.084689,149
2021-12-23 15:04:23.084698,153
2021-12-23 15:04:23.084708,202
2021-12-23 15:04:23.084718,259
2021-12-23 15:04:23.084727,264
2021-12-23 15:04:23.084737,257
2021-12-23 15:04:23.084746,286
2021-12-23 15:04:23.084756,295
2021-12-23 15:04:23.084765,262
2021-12-23 15:04:23.084775,230
2021-12-23 15:04:23.084785,211
2021-12-23 15:04:23.084794,153
2021-12-23 15:04:23.084804,52
2021-12-23 15:04:23.084813,4
2021-12-23 15:04:23.084823,-9
2021-12-23 15:04:23.084832,-55
2021-12-23 15:04:23.084842,-79
2021-12-23 15:04:23.084851,-64
2021-12-23 15:04:23.308293,-74
2021-12-23 15:04:23.308323,-84
2021-12-23 15:04:23.308335,-64
2021-12-23 15:04:23.308345,-64
2021-12-23 15:04:23.308374,-74
2021-12-23 15:04:23.308383,-48
2021-12-23 15:04:23.308393,-19
2021-12-23 15:04:23.308403,-26
2021-12-23 15:04:23.308412,-31
2021-12-23 15:04:23.308422,-28
2021-12-23 15:04:23.308431,-21
2021-12-23 15:04:23.308441,-19
2021-12-23 15:04:23.308451,-4
2021-12-23 15:04:23.308461,24
2021-12-23 15:04:23.308470,12
2021-12-23 15:04:23.308480,-19
2021-12-23 15:04:23.308490,-31
2021-12-23 15:04:23.308499,-26
2021-12-23 15:04:23.308509,-16
2021-12-23 15:04:23.308519,0
2021-12-23 15:04:23.308529,36
2021-12-23 15:04:23.308538,48
2021-12-23 15:04:23.308548,4
2021-12-23 15:04:23.308558,-12
2021-12-23 15:04:23.308567,-9
2021-12-23 15:04:23.308577,-24
2021-12-23 15:04:23.308587,-19
2021-12-23 15:04:23.308596,4
2021-12-23 15:04:23.308606,14
2021-12-23 15:04:23.308616,14
2021-12-23 15:04:23.623619,19
2021-12-23 15:04:23.623649,26
2021-12-23 15:04:23.623661,7
2021-12-23 15:04:23.623671,-21
2021-12-23 15:04:23.623681,16
2021-12-23 15:04:23.623690,81
2021-12-23 15:04:23.623700,64
2021-12-23 15:04:23.623710,21
2021-12-23 15:04:23.623719,24
2021-12-23 15:04:23.623729,21
2021-12-23 15:04:23.623739,7
2021-12-23 15:04:23.623749,16
2021-12-23 15:04:23.623758,31
2021-12-23 15:04:23.623768,16
2021-12-23 15:04:23.623778,9
2021-12-23 15:04:23.623787,31
2021-12-23 15:04:23.623797,28
2021-12-23 15:04:23.623807,14
2021-12-23 15:04:23.623816,168
2021-12-23 15:04:23.623826,553
2021-12-23 15:04:23.623836,966
2021-12-23 15:04:23.623845,896
2021-12-23 15:04:23.623855,91
2021-12-23 15:04:23.623865,-432
2021-12-23 15:04:23.623874,-84
2021-12-23 15:04:23.623884,113
2021-12-23 15:04:23.623894,-103
2021-12-23 15:04:23.623903,-69
2021-12-23 15:04:23.623913,74
2021-12-23 15:04:23.623923,31
2021-12-23 15:04:23.758797,-7
2021-12-23 15:04:23.758818,36
2021-12-23 15:04:23.758826,26
2021-12-23 15:04:23.758832,-12
2021-12-23 15:04:23.758839,24
2021-12-23 15:04:23.758845,96
2021-12-23 15:04:23.758851,105
2021-12-23 15:04:23.758858,76
2021-12-23 15:04:23.758864,79
2021-12-23 15:04:23.758870,103
2021-12-23 15:04:23.758877,115
2021-12-23 15:04:23.758883,127
2021-12-23 15:04:23.758889,141
2021-12-23 15:04:23.758896,161
2021-12-23 15:04:23.758902,180
2021-12-23 15:04:23.758909,194
2021-12-23 15:04:23.758915,206
2021-12-23 15:04:23.758921,242
2021-12-23 15:04:23.758928,303
2021-12-23 15:04:23.758934,315
2021-12-23 15:04:23.758940,290
2021-12-23 15:04:23.758947,293
2021-12-23 15:04:23.758953,288
2021-12-23 15:04:23.758960,247
2021-12-23 15:04:23.758966,187
2021-12-23 15:04:23.758972,113
2021-12-23 15:04:23.758978,33
2021-12-23 15:04:23.758985,-16
2021-12-23 15:04:23.758991,-45
2021-12-23 15:04:23.758998,-72
2021-12-23 15:04:24.028868,-81
2021-12-23 15:04:24.028890,-81
2021-12-23 15:04:24.028897,-86
2021-12-23 15:04:24.028904,-84
2021-12-23 15:04:24.028910,-72
2021-12-23 15:04:24.028917,-64
2021-12-23 15:04:24.028923,-60
2021-12-23 15:04:24.028929,-60
2021-12-23 15:04:24.028935,-64
2021-12-23 15:04:24.028942,-48
2021-12-23 15:04:24.028948,-24
2021-12-23 15:04:24.028954,-28
2021-12-23 15:04:24.028961,-43
2021-12-23 15:04:24.028967,-40
2021-12-23 15:04:24.028973,-31
2021-12-23 15:04:24.028979,-28
2021-12-23 15:04:24.028986,-36
2021-12-23 15:04:24.028992,-40
2021-12-23 15:04:24.028998,-36
2021-12-23 15:04:24.029005,-33
2021-12-23 15:04:24.029011,-45
2021-12-23 15:04:24.029017,-45
2021-12-23 15:04:24.029023,-33
2021-12-23 15:04:24.029030,-33
2021-12-23 15:04:24.029036,-40
2021-12-23 15:04:24.029042,-36
2021-12-23 15:04:24.029049,-26
2021-12-23 15:04:24.029055,-26
2021-12-23 15:04:24.029061,-28
2021-12-23 15:04:24.029067,-36
2021-12-23 15:04:24.254172,-52
2021-12-23 15:04:24.254202,-74
2021-12-23 15:04:24.254214,-57
2021-12-23 15:04:24.254224,-2
2021-12-23 15:04:24.254234,33
2021-12-23 15:04:24.254244,43
2021-12-23 15:04:24.254254,38
2021-12-23 15:04:24.254264,12
2021-12-23 15:04:24.254274,-12
2021-12-23 15:04:24.254283,-7
2021-12-23 15:04:24.254293,-2
2021-12-23 15:04:24.254303,-12
2021-12-23 15:04:24.254313,-26
2021-12-23 15:04:24.254322,-43
2021-12-23 15:04:24.254332,-21
2021-12-23 15:04:24.254342,36
2021-12-23 15:04:24.254352,36
2021-12-23 15:04:24.254362,7
2021-12-23 15:04:24.254372,38
2021-12-23 15:04:24.254381,134
2021-12-23 15:04:24.254392,353
2021-12-23 15:04:24.254402,759
2021-12-23 15:04:24.254412,988
2021-12-23 15:04:24.254421,418
2021-12-23 15:04:24.254431,-389
2021-12-23 15:04:24.254441,-305
2021-12-23 15:04:24.254451,105
2021-12-23 15:04:24.254461,14
2021-12-23 15:04:24.254471,-98
2021-12-23 15:04:24.254480,4
2021-12-23 15:04:24.434244,16
2021-12-23 15:04:24.434275,-24
2021-12-23 15:04:24.434286,7
2021-12-23 15:04:24.434296,31
2021-12-23 15:04:24.434306,19
2021-12-23 15:04:24.434316,31
2021-12-23 15:04:24.434326,43
2021-12-23 15:04:24.434335,43
2021-12-23 15:04:24.434345,55
2021-12-23 15:04:24.434355,69
2021-12-23 15:04:24.434365,72
2021-12-23 15:04:24.434374,86
2021-12-23 15:04:24.434384,103
2021-12-23 15:04:24.434394,115
2021-12-23 15:04:24.434403,125
2021-12-23 15:04:24.434413,139
2021-12-23 15:04:24.434423,173
2021-12-23 15:04:24.434433,209
2021-12-23 15:04:24.434442,226
2021-12-23 15:04:24.434452,238
2021-12-23 15:04:24.434462,264
2021-12-23 15:04:24.434472,278
2021-12-23 15:04:24.434482,281
2021-12-23 15:04:24.434491,278
2021-12-23 15:04:24.434501,257
2021-12-23 15:04:24.434511,204
2021-12-23 15:04:24.434521,127
2021-12-23 15:04:24.434531,40
2021-12-23 15:04:24.434540,-33
2021-12-23 15:04:24.434550,-72
2021-12-23 15:04:24.659183,-88
2021-12-23 15:04:24.659213,-101
2021-12-23 15:04:24.659225,-115
2021-12-23 15:04:24.659235,-127
2021-12-23 15:04:24.659245,-125
2021-12-23 15:04:24.659254,-122
2021-12-23 15:04:24.659264,-137
2021-12-23 15:04:24.659274,-144
2021-12-23 15:04:24.659283,-105
2021-12-23 15:04:24.659293,-64
2021-12-23 15:04:24.659303,-64
2021-12-23 15:04:24.659312,-69
2021-12-23 15:04:24.659322,-62
2021-12-23 15:04:24.659332,-55
2021-12-23 15:04:24.659341,-55
2021-12-23 15:04:24.659351,-57
2021-12-23 15:04:24.659361,-50
2021-12-23 15:04:24.659371,-45
2021-12-23 15:04:24.659380,-48
2021-12-23 15:04:24.659390,-50
2021-12-23 15:04:24.659400,-48
2021-12-23 15:04:24.659409,-45
2021-12-23 15:04:24.659419,-40
2021-12-23 15:04:24.659434,-40
2021-12-23 15:04:24.659444,-45
2021-12-23 15:04:24.659454,-45
2021-12-23 15:04:24.659463,-43
2021-12-23 15:04:24.659473,-43
2021-12-23 15:04:24.659483,-43
2021-12-23 15:04:24.659492,-33
2021-12-23 15:04:24.884137,-16
2021-12-23 15:04:24.884167,-19
2021-12-23 15:04:24.884179,-33
2021-12-23 15:04:24.884189,-33
2021-12-23 15:04:24.884200,-21
2021-12-23 15:04:24.884209,-19
2021-12-23 15:04:24.884219,-9
2021-12-23 15:04:24.884229,7
2021-12-23 15:04:24.884239,12
2021-12-23 15:04:24.884248,12
2021-12-23 15:04:24.884258,9
2021-12-23 15:04:24.884268,-2
2021-12-23 15:04:24.884278,-7
2021-12-23 15:04:24.884287,-2
2021-12-23 15:04:24.884297,7
2021-12-23 15:04:24.884307,7
2021-12-23 15:04:24.884317,4
2021-12-23 15:04:24.884327,7
2021-12-23 15:04:24.884336,9
2021-12-23 15:04:24.884346,21
2021-12-23 15:04:24.884355,36
2021-12-23 15:04:24.884365,151
2021-12-23 15:04:24.884375,495
2021-12-23 15:04:24.884385,942
2021-12-23 15:04:24.884394,954
2021-12-23 15:04:24.884404,161
2021-12-23 15:04:24.884414,-476
2021-12-23 15:04:24.884423,-175
2021-12-23 15:04:24.884433,103
2021-12-23 15:04:24.884443,-76
2021-12-23 15:04:25.109335,-91
2021-12-23 15:04:25.109358,24
2021-12-23 15:04:25.109366,-12
2021-12-23 15:04:25.109373,-43
2021-12-23 15:04:25.109379,-2
2021-12-23 15:04:25.109386,-4
2021-12-23 15:04:25.109392,-14
2021-12-23 15:04:25.109398,14
2021-12-23 15:04:25.109405,28
2021-12-23 15:04:25.109411,19
2021-12-23 15:04:25.109417,33
2021-12-23 15:04:25.109424,52
2021-12-23 15:04:25.109430,60
2021-12-23 15:04:25.109436,74
2021-12-23 15:04:25.109443,98
2021-12-23 15:04:25.109449,110
2021-12-23 15:04:25.109455,113
2021-12-23 15:04:25.109461,144
2021-12-23 15:04:25.109468,192
2021-12-23 15:04:25.109474,209
2021-12-23 15:04:25.109480,216
2021-12-23 15:04:25.109487,242
2021-12-23 15:04:25.109493,269
2021-12-23 15:04:25.109499,278
2021-12-23 15:04:25.109506,278
2021-12-23 15:04:25.109512,274
2021-12-23 15:04:25.109518,242
2021-12-23 15:04:25.109525,182
2021-12-23 15:04:25.109531,103
2021-12-23 15:04:25.109537,43
2021-12-23 15:04:25.468308,2
2021-12-23 15:04:25.468339,-40
2021-12-23 15:04:25.468351,-103
2021-12-23 15:04:25.468361,-141
2021-12-23 15:04:25.468371,-134
2021-12-23 15:04:25.468381,-122
2021-12-23 15:04:25.468391,-115
2021-12-23 15:04:25.468400,-110
2021-12-23 15:04:25.468410,-115
2021-12-23 15:04:25.468420,-108
2021-12-23 15:04:25.468430,-91
2021-12-23 15:04:25.468440,-86
2021-12-23 15:04:25.468449,-74
2021-12-23 15:04:25.468459,-64
2021-12-23 15:04:25.468468,-60
2021-12-23 15:04:25.468478,-48
2021-12-23 15:04:25.468488,-36
2021-12-23 15:04:25.468498,-28
2021-12-23 15:04:25.468507,-19
2021-12-23 15:04:25.468517,-9
2021-12-23 15:04:25.468526,-7
2021-12-23 15:04:25.468536,-12
2021-12-23 15:04:25.468546,-16
2021-12-23 15:04:25.468555,-7
2021-12-23 15:04:25.468565,-7
2021-12-23 15:04:25.468574,-24
2021-12-23 15:04:25.468584,-28
2021-12-23 15:04:25.468594,-19
2021-12-23 15:04:25.468603,-14
2021-12-23 15:04:25.468613,-21
2021-12-23 15:04:25.603791,-24
2021-12-23 15:04:25.603811,-9
2021-12-23 15:04:25.603819,-2
2021-12-23 15:04:25.603826,-7
2021-12-23 15:04:25.603832,4
2021-12-23 15:04:25.603839,33
2021-12-23 15:04:25.603845,24
2021-12-23 15:04:25.603852,-7
2021-12-23 15:04:25.603858,-4
2021-12-23 15:04:25.603864,14
2021-12-23 15:04:25.603871,16
2021-12-23 15:04:25.603878,0
2021-12-23 15:04:25.603884,-16
2021-12-23 15:04:25.603891,-7
2021-12-23 15:04:25.603897,12
2021-12-23 15:04:25.603904,0
2021-12-23 15:04:25.603910,-16
2021-12-23 15:04:25.603917,-2
2021-12-23 15:04:25.603923,24
2021-12-23 15:04:25.603929,105
2021-12-23 15:04:25.603936,360
2021-12-23 15:04:25.603942,771
2021-12-23 15:04:25.603949,990
2021-12-23 15:04:25.603955,428
2021-12-23 15:04:25.603962,-401
2021-12-23 15:04:25.603968,-339
2021-12-23 15:04:25.603975,74
2021-12-23 15:04:25.603981,-28
2021-12-23 15:04:25.603987,-149
2021-12-23 15:04:25.603994,-24
2021-12-23 15:04:25.828973,-19
2021-12-23 15:04:25.828995,-79
2021-12-23 15:04:25.829003,-28
2021-12-23 15:04:25.829009,19
2021-12-23 15:04:25.829015,-2
2021-12-23 15:04:25.829022,-7
2021-12-23 15:04:25.829028,9
2021-12-23 15:04:25.829034,7
2021-12-23 15:04:25.829040,9
2021-12-23 15:04:25.829046,24
2021-12-23 15:04:25.829053,28
2021-12-23 15:04:25.829059,45
2021-12-23 15:04:25.829065,79
2021-12-23 15:04:25.829071,105
2021-12-23 15:04:25.829077,98
2021-12-23 15:04:25.829083,86
2021-12-23 15:04:25.829090,125
2021-12-23 15:04:25.829096,189
2021-12-23 15:04:25.829102,223
2021-12-23 15:04:25.829108,233
2021-12-23 15:04:25.829114,254
2021-12-23 15:04:25.829121,271
2021-12-23 15:04:25.829127,271
2021-12-23 15:04:25.829133,252
2021-12-23 15:04:25.829139,223
2021-12-23 15:04:25.829145,185
2021-12-23 15:04:25.829151,110
2021-12-23 15:04:25.829158,21
2021-12-23 15:04:25.829164,-50
2021-12-23 15:04:25.829170,-93
2021-12-23 15:04:26.054608,-103
2021-12-23 15:04:26.054639,-117
2021-12-23 15:04:26.054650,-129
2021-12-23 15:04:26.054660,-115
2021-12-23 15:04:26.054670,-96
2021-12-23 15:04:26.054680,-91
2021-12-23 15:04:26.054690,-98
2021-12-23 15:04:26.054699,-108
2021-12-23 15:04:26.054709,-98
2021-12-23 15:04:26.054719,-79
2021-12-23 15:04:26.054729,-62
2021-12-23 15:04:26.054738,-52
2021-12-23 15:04:26.054748,-57
2021-12-23 15:04:26.054758,-60
2021-12-23 15:04:26.054767,-57
2021-12-23 15:04:26.054777,-55
2021-12-23 15:04:26.054787,-38
2021-12-23 15:04:26.054797,-24
2021-12-23 15:04:26.054806,-24
2021-12-23 15:04:26.054816,-21
2021-12-23 15:04:26.054826,-19
2021-12-23 15:04:26.054835,-24
2021-12-23 15:04:26.054845,-21
2021-12-23 15:04:26.054855,-9
2021-12-23 15:04:26.054864,-12
2021-12-23 15:04:26.054874,-24
2021-12-23 15:04:26.054883,-19
2021-12-23 15:04:26.054893,-9
2021-12-23 15:04:26.054903,-14
2021-12-23 15:04:26.054912,-26
2021-12-23 15:04:26.324023,-31
2021-12-23 15:04:26.324053,-24
2021-12-23 15:04:26.324065,-9
2021-12-23 15:04:26.324075,-2
2021-12-23 15:04:26.324085,4
2021-12-23 15:04:26.324094,19
2021-12-23 15:04:26.324104,31
2021-12-23 15:04:26.324114,19
2021-12-23 15:04:26.324123,4
2021-12-23 15:04:26.324133,4
2021-12-23 15:04:26.324143,7
2021-12-23 15:04:26.324152,4
2021-12-23 15:04:26.324162,4
2021-12-23 15:04:26.324172,7
2021-12-23 15:04:26.324182,9
2021-12-23 15:04:26.324191,14
2021-12-23 15:04:26.324201,21
2021-12-23 15:04:26.324211,31
2021-12-23 15:04:26.324221,31
2021-12-23 15:04:26.324230,84
2021-12-23 15:04:26.324240,307
2021-12-23 15:04:26.324249,714
2021-12-23 15:04:26.324259,1065
2021-12-23 15:04:26.324269,733
2021-12-23 15:04:26.324279,-173
2021-12-23 15:04:26.324288,-396
2021-12-23 15:04:26.324298,36
2021-12-23 15:04:26.324308,55
2021-12-23 15:04:26.324318,-127
2021-12-23 15:04:26.324328,-40
2021-12-23 15:04:26.504612,14
2021-12-23 15:04:26.504643,-45
2021-12-23 15:04:26.504654,-31
2021-12-23 15:04:26.504664,4
2021-12-23 15:04:26.504674,-4
2021-12-23 15:04:26.504684,-4
2021-12-23 15:04:26.504694,7
2021-12-23 15:04:26.504704,14
2021-12-23 15:04:26.504714,26
2021-12-23 15:04:26.504724,40
2021-12-23 15:04:26.504733,48
2021-12-23 15:04:26.504743,50
2021-12-23 15:04:26.504752,64
2021-12-23 15:04:26.504762,84
2021-12-23 15:04:26.504772,101
2021-12-23 15:04:26.504782,122
2021-12-23 15:04:26.504791,151
2021-12-23 15:04:26.504801,175
2021-12-23 15:04:26.504811,197
2021-12-23 15:04:26.504820,223
2021-12-23 15:04:26.504830,245
2021-12-23 15:04:26.504839,262
2021-12-23 15:04:26.504849,276
2021-12-23 15:04:26.504859,283
2021-12-23 15:04:26.504868,269
2021-12-23 15:04:26.504878,221
2021-12-23 15:04:26.504887,144
2021-12-23 15:04:26.504897,62
2021-12-23 15:04:26.504907,-9
2021-12-23 15:04:26.504916,-67
2021-12-23 15:04:26.863583,-101
2021-12-23 15:04:26.863614,-113
2021-12-23 15:04:26.863626,-113
2021-12-23 15:04:26.863636,-115
2021-12-23 15:04:26.863645,-117
2021-12-23 15:04:26.863655,-115
2021-12-23 15:04:26.863665,-108
2021-12-23 15:04:26.863675,-98
2021-12-23 15:04:26.863685,-96
2021-12-23 15:04:26.863694,-91
2021-12-23 15:04:26.863704,-79
2021-12-23 15:04:26.863714,-72
2021-12-23 15:04:26.863723,-64
2021-12-23 15:04:26.863733,-50
2021-12-23 15:04:26.863743,-40
2021-12-23 15:04:26.863753,-43
2021-12-23 15:04:26.863762,-38
2021-12-23 15:04:26.863786,-24
2021-12-23 15:04:26.863797,-19
2021-12-23 15:04:26.863807,-16
2021-12-23 15:04:26.863816,-12
2021-12-23 15:04:26.863826,-19
2021-12-23 15:04:26.863836,-28
2021-12-23 15:04:26.863846,-21
2021-12-23 15:04:26.863856,-7
2021-12-23 15:04:26.863866,-2
2021-12-23 15:04:26.863875,-9
2021-12-23 15:04:26.863885,-12
2021-12-23 15:04:26.863895,-9
2021-12-23 15:04:26.863905,-12
2021-12-23 15:04:26.954190,-9
2021-12-23 15:04:26.954221,-4
2021-12-23 15:04:26.954232,-14
2021-12-23 15:04:26.954242,-19
2021-12-23 15:04:26.954251,-9
2021-12-23 15:04:26.954261,2
2021-12-23 15:04:26.954271,2
2021-12-23 15:04:26.954280,12
2021-12-23 15:04:26.954290,26
2021-12-23 15:04:26.954299,21
2021-12-23 15:04:26.954309,0
2021-12-23 15:04:26.954319,-14
2021-12-23 15:04:26.954328,-16
2021-12-23 15:04:26.954338,-19
2021-12-23 15:04:26.954347,-16
2021-12-23 15:04:26.954357,-12
2021-12-23 15:04:26.954367,-14
2021-12-23 15:04:26.954376,-16
2021-12-23 15:04:26.954386,-14
2021-12-23 15:04:26.954395,-12
2021-12-23 15:04:26.954405,-4
2021-12-23 15:04:26.954414,26
2021-12-23 15:04:26.954424,185
2021-12-23 15:04:26.954434,531
2021-12-23 15:04:26.954443,949
2021-12-23 15:04:26.954453,906
2021-12-23 15:04:26.954462,74
2021-12-23 15:04:26.954472,-490
2021-12-23 15:04:26.954482,-139
2021-12-23 15:04:26.954491,76
2021-12-23 15:04:27.269622,-127
2021-12-23 15:04:27.269653,-115
2021-12-23 15:04:27.269664,2
2021-12-23 15:04:27.269674,-38
2021-12-23 15:04:27.269684,-67
2021-12-23 15:04:27.269694,-26
2021-12-23 15:04:27.269703,-14
2021-12-23 15:04:27.269713,-21
2021-12-23 15:04:27.269722,-12
2021-12-23 15:04:27.269732,2
2021-12-23 15:04:27.269742,9
2021-12-23 15:04:27.269751,7
2021-12-23 15:04:27.269761,21
2021-12-23 15:04:27.269771,55
2021-12-23 15:04:27.269780,64
2021-12-23 15:04:27.269790,69
2021-12-23 15:04:27.269799,96
2021-12-23 15:04:27.269810,122
2021-12-23 15:04:27.269819,144
2021-12-23 15:04:27.269829,168
2021-12-23 15:04:27.269838,197
2021-12-23 15:04:27.269848,230
2021-12-23 15:04:27.269857,259
2021-12-23 15:04:27.269867,288
2021-12-23 15:04:27.269876,317
2021-12-23 15:04:27.269886,327
2021-12-23 15:04:27.269896,317
2021-12-23 15:04:27.269905,286
2021-12-23 15:04:27.269915,218
2021-12-23 15:04:27.269924,129
2021-12-23 15:04:27.492816,55
2021-12-23 15:04:27.492847,-2
2021-12-23 15:04:27.492859,-48
2021-12-23 15:04:27.492869,-79
2021-12-23 15:04:27.492879,-91
2021-12-23 15:04:27.492889,-84
2021-12-23 15:04:27.492898,-79
2021-12-23 15:04:27.492908,-76
2021-12-23 15:04:27.492918,-64
2021-12-23 15:04:27.492927,-60
2021-12-23 15:04:27.492937,-64
2021-12-23 15:04:27.492946,-62
2021-12-23 15:04:27.492956,-48
2021-12-23 15:04:27.492965,-40
2021-12-23 15:04:27.492975,-43
2021-12-23 15:04:27.492984,-31
2021-12-23 15:04:27.492994,-21
2021-12-23 15:04:27.493004,-21
2021-12-23 15:04:27.493013,-14
2021-12-23 15:04:27.493023,-2
2021-12-23 15:04:27.493032,-4
2021-12-23 15:04:27.493042,-2
2021-12-23 15:04:27.493052,4
2021-12-23 15:04:27.493061,7
2021-12-23 15:04:27.493071,7
2021-12-23 15:04:27.493081,9
2021-12-23 15:04:27.493090,12
2021-12-23 15:04:27.493100,14
2021-12-23 15:04:27.493109,14
2021-12-23 15:04:27.493119,19
2021-12-23 15:04:27.719659,19
2021-12-23 15:04:27.719690,14
2021-12-23 15:04:27.719702,12
2021-12-23 15:04:27.719712,14
2021-12-23 15:04:27.719722,12
2021-12-23 15:04:27.719732,12
2021-12-23 15:04:27.719741,19
2021-12-23 15:04:27.719751,24
2021-12-23 15:04:27.719761,26
2021-12-23 15:04:27.719771,38
2021-12-23 15:04:27.719780,52
2021-12-23 15:04:27.719790,60
2021-12-23 15:04:27.719800,48
2021-12-23 15:04:27.719810,38
2021-12-23 15:04:27.719820,31
2021-12-23 15:04:27.719829,24
2021-12-23 15:04:27.719839,28
2021-12-23 15:04:27.719849,43
2021-12-23 15:04:27.719859,40
2021-12-23 15:04:27.719869,33
2021-12-23 15:04:27.719878,38
2021-12-23 15:04:27.719888,45
2021-12-23 15:04:27.719898,52
2021-12-23 15:04:27.719908,72
2021-12-23 15:04:27.719918,158
2021-12-23 15:04:27.719928,425
2021-12-23 15:04:27.719938,851
2021-12-23 15:04:27.719947,1046
2021-12-23 15:04:27.719957,447
2021-12-23 15:04:27.719967,-348
2021-12-23 15:04:27.988529,-257
2021-12-23 15:04:27.988552,115
2021-12-23 15:04:27.988559,4
2021-12-23 15:04:27.988566,-88
2021-12-23 15:04:27.988572,24
2021-12-23 15:04:27.988579,31
2021-12-23 15:04:27.988585,-2
2021-12-23 15:04:27.988591,26
2021-12-23 15:04:27.988598,36
2021-12-23 15:04:27.988604,31
2021-12-23 15:04:27.988610,50
2021-12-23 15:04:27.988617,60
2021-12-23 15:04:27.988623,69
2021-12-23 15:04:27.988629,84
2021-12-23 15:04:27.988635,86
2021-12-23 15:04:27.988642,93
2021-12-23 15:04:27.988648,108
2021-12-23 15:04:27.988654,122
2021-12-23 15:04:27.988661,139
2021-12-23 15:04:27.988667,158
2021-12-23 15:04:27.988673,177
2021-12-23 15:04:27.988679,199
2021-12-23 15:04:27.988686,226
2021-12-23 15:04:27.988692,252
2021-12-23 15:04:27.988698,283
2021-12-23 15:04:27.988705,310
2021-12-23 15:04:27.988711,324
2021-12-23 15:04:27.988717,334
2021-12-23 15:04:27.988724,336
2021-12-23 15:04:27.988730,312
2021-12-23 15:04:28.124159,247
2021-12-23 15:04:28.124190,161
2021-12-23 15:04:28.124201,76
2021-12-23 15:04:28.124211,9
2021-12-23 15:04:28.124221,-36
2021-12-23 15:04:28.124231,-67
2021-12-23 15:04:28.124241,-86
2021-12-23 15:04:28.124251,-91
2021-12-23 15:04:28.124260,-84
2021-12-23 15:04:28.124270,-74
2021-12-23 15:04:28.124280,-79
2021-12-23 15:04:28.124289,-81
2021-12-23 15:04:28.124299,-74
2021-12-23 15:04:28.124309,-72
2021-12-23 15:04:28.124318,-67
2021-12-23 15:04:28.124328,-57
2021-12-23 15:04:28.124338,-52
2021-12-23 15:04:28.124347,-45
2021-12-23 15:04:28.124357,-36
2021-12-23 15:04:28.124367,-26
2021-12-23 15:04:28.124376,-16
2021-12-23 15:04:28.124386,-12
2021-12-23 15:04:28.124396,-7
2021-12-23 15:04:28.124405,-2
2021-12-23 15:04:28.124415,0
2021-12-23 15:04:28.124425,2
2021-12-23 15:04:28.124435,4
2021-12-23 15:04:28.124444,4
2021-12-23 15:04:28.124454,7
2021-12-23 15:04:28.124464,7
2021-12-23 15:04:28.349615,0
2021-12-23 15:04:28.349645,0
2021-12-23 15:04:28.349657,9
2021-12-23 15:04:28.349667,9
2021-12-23 15:04:28.349677,4
2021-12-23 15:04:28.349687,2
2021-12-23 15:04:28.349696,-2
2021-12-23 15:04:28.349706,2
2021-12-23 15:04:28.349716,9
2021-12-23 15:04:28.349725,7
2021-12-23 15:04:28.349735,4
2021-12-23 15:04:28.349745,7
2021-12-23 15:04:28.349754,0
2021-12-23 15:04:28.349764,0
2021-12-23 15:04:28.349774,12
2021-12-23 15:04:28.349783,16
2021-12-23 15:04:28.349793,24
2021-12-23 15:04:28.349802,36
2021-12-23 15:04:28.349812,43
2021-12-23 15:04:28.349822,48
2021-12-23 15:04:28.349831,48
2021-12-23 15:04:28.349841,40
2021-12-23 15:04:28.349851,38
2021-12-23 15:04:28.349860,31
2021-12-23 15:04:28.349870,33
2021-12-23 15:04:28.349879,45
2021-12-23 15:04:28.349889,45
2021-12-23 15:04:28.349899,43
2021-12-23 15:04:28.349908,50
2021-12-23 15:04:28.349918,50
2021-12-23 15:04:28.574168,57
2021-12-23 15:04:28.574200,69
2021-12-23 15:04:28.574211,120
2021-12-23 15:04:28.574222,307
2021-12-23 15:04:28.574231,661
2021-12-23 15:04:28.574241,983
2021-12-23 15:04:28.574250,680
2021-12-23 15:04:28.574260,-165
2021-12-23 15:04:28.574270,-363
2021-12-23 15:04:28.574280,57
2021-12-23 15:04:28.574289,72
2021-12-23 15:04:28.574299,-105
2021-12-23 15:04:28.574309,-21
2021-12-23 15:04:28.574318,24
2021-12-23 15:04:28.574328,-33
2021-12-23 15:04:28.574337,-14
2021-12-23 15:04:28.574347,24
2021-12-23 15:04:28.574357,12
2021-12-23 15:04:28.574366,16
2021-12-23 15:04:28.574376,40
2021-12-23 15:04:28.574386,40
2021-12-23 15:04:28.574395,40
2021-12-23 15:04:28.574405,57
2021-12-23 15:04:28.574414,62
2021-12-23 15:04:28.574424,64
2021-12-23 15:04:28.574433,81
2021-12-23 15:04:28.574443,105
2021-12-23 15:04:28.574453,132
2021-12-23 15:04:28.574462,151
2021-12-23 15:04:28.574472,170
2021-12-23 15:04:28.799160,204
2021-12-23 15:04:28.799191,242
2021-12-23 15:04:28.799202,269
2021-12-23 15:04:28.799212,290
2021-12-23 15:04:28.799222,312
2021-12-23 15:04:28.799232,324
2021-12-23 15:04:28.799242,331
2021-12-23 15:04:28.799252,324
2021-12-23 15:04:28.799261,288
2021-12-23 15:04:28.799271,221
2021-12-23 15:04:28.799281,134
2021-12-23 15:04:28.799291,55
2021-12-23 15:04:28.799301,0
2021-12-23 15:04:28.799311,-36
2021-12-23 15:04:28.799320,-55
2021-12-23 15:04:28.799330,-62
2021-12-23 15:04:28.799340,-64
2021-12-23 15:04:28.799350,-60
2021-12-23 15:04:28.799359,-52
2021-12-23 15:04:28.799369,-48
2021-12-23 15:04:28.799379,-43
2021-12-23 15:04:28.799388,-43
2021-12-23 15:04:28.799398,-43
2021-12-23 15:04:28.799408,-28
2021-12-23 15:04:28.799418,-14
2021-12-23 15:04:28.799428,-26
2021-12-23 15:04:28.799437,-28
2021-12-23 15:04:28.799447,-7
2021-12-23 15:04:28.799457,0
2021-12-23 15:04:28.799466,-2
2021-12-23 15:04:29.069647,9
2021-12-23 15:04:29.069668,19
2021-12-23 15:04:29.069675,14
2021-12-23 15:04:29.069682,21
2021-12-23 15:04:29.069688,28
2021-12-23 15:04:29.069695,19
2021-12-23 15:04:29.069701,24
2021-12-23 15:04:29.069708,38
2021-12-23 15:04:29.069714,36
2021-12-23 15:04:29.069720,33
2021-12-23 15:04:29.069727,33
2021-12-23 15:04:29.069733,33
2021-12-23 15:04:29.069739,33
2021-12-23 15:04:29.069746,33
2021-12-23 15:04:29.069762,33
2021-12-23 15:04:29.069769,38
2021-12-23 15:04:29.069775,45
2021-12-23 15:04:29.069781,40
2021-12-23 15:04:29.069788,36
2021-12-23 15:04:29.069794,36
2021-12-23 15:04:29.069801,38
2021-12-23 15:04:29.069807,40
2021-12-23 15:04:29.069813,43
2021-12-23 15:04:29.069820,43
2021-12-23 15:04:29.069826,38
2021-12-23 15:04:29.069833,33
2021-12-23 15:04:29.069839,28
2021-12-23 15:04:29.069845,26
2021-12-23 15:04:29.069852,31
2021-12-23 15:04:29.069858,40
2021-12-23 15:04:29.293654,45
2021-12-23 15:04:29.293670,50
2021-12-23 15:04:29.293676,62
2021-12-23 15:04:29.293681,69
2021-12-23 15:04:29.293687,57
2021-12-23 15:04:29.293692,48
2021-12-23 15:04:29.293697,48
2021-12-23 15:04:29.293702,48
2021-12-23 15:04:29.293707,43
2021-12-23 15:04:29.293712,43
2021-12-23 15:04:29.293717,50
2021-12-23 15:04:29.293723,50
2021-12-23 15:04:29.293728,50
2021-12-23 15:04:29.293733,50
2021-12-23 15:04:29.293738,55
2021-12-23 15:04:29.293743,62
2021-12-23 15:04:29.293748,115
2021-12-23 15:04:29.293754,327
2021-12-23 15:04:29.293759,711
2021-12-23 15:04:29.293764,1055
2021-12-23 15:04:29.293769,731
2021-12-23 15:04:29.293774,-161
2021-12-23 15:04:29.293779,-370
2021-12-23 15:04:29.293785,57
2021-12-23 15:04:29.293790,67
2021-12-23 15:04:29.293795,-110
2021-12-23 15:04:29.293800,-21
2021-12-23 15:04:29.293805,26
2021-12-23 15:04:29.293811,-33
2021-12-23 15:04:29.293816,-16
2021-12-23 15:04:29.563377,12
2021-12-23 15:04:29.563409,4
2021-12-23 15:04:29.563420,38
2021-12-23 15:04:29.563431,72
2021-12-23 15:04:29.563441,60
2021-12-23 15:04:29.563450,52
2021-12-23 15:04:29.563460,69
2021-12-23 15:04:29.563470,79
2021-12-23 15:04:29.563480,84
2021-12-23 15:04:29.563490,93
2021-12-23 15:04:29.563500,110
2021-12-23 15:04:29.563510,129
2021-12-23 15:04:29.563520,151
2021-12-23 15:04:29.563529,173
2021-12-23 15:04:29.563539,194
2021-12-23 15:04:29.563549,221
2021-12-23 15:04:29.563559,254
2021-12-23 15:04:29.563569,286
2021-12-23 15:04:29.563579,305
2021-12-23 15:04:29.563589,322
2021-12-23 15:04:29.563598,334
2021-12-23 15:04:29.563608,327
2021-12-23 15:04:29.563618,295
2021-12-23 15:04:29.563628,238
2021-12-23 15:04:29.563638,151
2021-12-23 15:04:29.563647,72
2021-12-23 15:04:29.563657,9
2021-12-23 15:04:29.563667,-40
2021-12-23 15:04:29.563677,-69
2021-12-23 15:04:29.563687,-74
2021-12-23 15:04:29.744180,-69
2021-12-23 15:04:29.744211,-69
2021-12-23 15:04:29.744223,-64
2021-12-23 15:04:29.744233,-55
2021-12-23 15:04:29.744242,-48
2021-12-23 15:04:29.744252,-43
2021-12-23 15:04:29.744262,-33
2021-12-23 15:04:29.744271,-28
2021-12-23 15:04:29.744281,-26
2021-12-23 15:04:29.744291,-19
2021-12-23 15:04:29.744300,-12
2021-12-23 15:04:29.744310,-7
2021-12-23 15:04:29.744320,-4
2021-12-23 15:04:29.744329,-7
2021-12-23 15:04:29.744339,-7
2021-12-23 15:04:29.744349,7
2021-12-23 15:04:29.744359,16
2021-12-23 15:04:29.744368,19
2021-12-23 15:04:29.744378,16
2021-12-23 15:04:29.744387,14
2021-12-23 15:04:29.744397,14
2021-12-23 15:04:29.744406,19
2021-12-23 15:04:29.744416,19
2021-12-23 15:04:29.744425,16
2021-12-23 15:04:29.744435,16
2021-12-23 15:04:29.744444,19
2021-12-23 15:04:29.744454,24
2021-12-23 15:04:29.744463,28
2021-12-23 15:04:29.744473,26
2021-12-23 15:04:29.744483,21
2021-12-23 15:04:29.969632,19
2021-12-23 15:04:29.969662,19
2021-12-23 15:04:29.969674,21
2021-12-23 15:04:29.969684,19
2021-12-23 15:04:29.969694,19
2021-12-23 15:04:29.969704,19
2021-12-23 15:04:29.969714,19
2021-12-23 15:04:29.969724,16
2021-12-23 15:04:29.969733,19
2021-12-23 15:04:29.969743,24
2021-12-23 15:04:29.969753,26
2021-12-23 15:04:29.969763,26
2021-12-23 15:04:29.969773,24
2021-12-23 15:04:29.969782,16
2021-12-23 15:04:29.969792,14
2021-12-23 15:04:29.969801,19
2021-12-23 15:04:29.969811,28
2021-12-23 15:04:29.969821,36
2021-12-23 15:04:29.969830,38
2021-12-23 15:04:29.969840,50
2021-12-23 15:04:29.969850,60
2021-12-23 15:04:29.969860,48
2021-12-23 15:04:29.969869,36
2021-12-23 15:04:29.969879,33
2021-12-23 15:04:29.969889,31
2021-12-23 15:04:29.969898,31
2021-12-23 15:04:29.969908,33
2021-12-23 15:04:29.969918,33
2021-12-23 15:04:29.969927,26
2021-12-23 15:04:29.969937,21
2021-12-23 15:04:30.239048,26
2021-12-23 15:04:30.239079,36
2021-12-23 15:04:30.239090,36
2021-12-23 15:04:30.239101,88
2021-12-23 15:04:30.239110,305
2021-12-23 15:04:30.239120,699
2021-12-23 15:04:30.239130,1036
2021-12-23 15:04:30.239139,685
2021-12-23 15:04:30.239149,-209
2021-12-23 15:04:30.239159,-387
2021-12-23 15:04:30.239169,52
2021-12-23 15:04:30.239178,55
2021-12-23 15:04:30.239188,-117
2021-12-23 15:04:30.239198,-19
2021-12-23 15:04:30.239209,31
2021-12-23 15:04:30.239219,-26
2021-12-23 15:04:30.239229,-7
2021-12-23 15:04:30.239238,28
2021-12-23 15:04:30.239248,19
2021-12-23 15:04:30.239258,21
2021-12-23 15:04:30.239267,43
2021-12-23 15:04:30.239277,48
2021-12-23 15:04:30.239286,50
2021-12-23 15:04:30.239296,64
2021-12-23 15:04:30.239306,74
2021-12-23 15:04:30.239316,86
2021-12-23 15:04:30.239325,103
2021-12-23 15:04:30.239335,117
2021-12-23 15:04:30.239344,134
2021-12-23 15:04:30.239354,156
2021-12-23 15:04:30.419619,177
2021-12-23 15:04:30.419650,202
2021-12-23 15:04:30.419662,230
2021-12-23 15:04:30.419672,259
2021-12-23 15:04:30.419682,281
2021-12-23 15:04:30.419691,298
2021-12-23 15:04:30.419701,310
2021-12-23 15:04:30.419710,322
2021-12-23 15:04:30.419720,322
2021-12-23 15:04:30.419730,300
2021-12-23 15:04:30.419739,250
2021-12-23 15:04:30.419749,168
2021-12-23 15:04:30.419758,81
2021-12-23 15:04:30.419768,14
2021-12-23 15:04:30.419778,-28
2021-12-23 15:04:30.419788,-62
2021-12-23 15:04:30.419797,-76
2021-12-23 15:04:30.419807,-79
2021-12-23 15:04:30.419817,-76
2021-12-23 15:04:30.419826,-72
2021-12-23 15:04:30.419836,-64
2021-12-23 15:04:30.419845,-57
2021-12-23 15:04:30.419855,-52
2021-12-23 15:04:30.419864,-50
2021-12-23 15:04:30.419874,-38
2021-12-23 15:04:30.419884,-26
2021-12-23 15:04:30.419893,-21
2021-12-23 15:04:30.419903,-16
2021-12-23 15:04:30.419912,-9
2021-12-23 15:04:30.419922,-2
2021-12-23 15:04:30.644156,2
2021-12-23 15:04:30.644187,7
2021-12-23 15:04:30.644198,7
2021-12-23 15:04:30.644208,4
2021-12-23 15:04:30.644218,-4
2021-12-23 15:04:30.644228,-9
2021-12-23 15:04:30.644237,-7
2021-12-23 15:04:30.644247,-2
2021-12-23 15:04:30.644257,-2
2021-12-23 15:04:30.644267,-2
2021-12-23 15:04:30.644276,-2
2021-12-23 15:04:30.644286,-2
2021-12-23 15:04:30.644296,2
2021-12-23 15:04:30.644305,7
2021-12-23 15:04:30.644315,7
2021-12-23 15:04:30.644325,7
2021-12-23 15:04:30.644335,7
2021-12-23 15:04:30.644345,9
2021-12-23 15:04:30.644354,12
2021-12-23 15:04:30.644364,16
2021-12-23 15:04:30.644374,19
2021-12-23 15:04:30.644384,21
2021-12-23 15:04:30.644394,19
2021-12-23 15:04:30.644403,21
2021-12-23 15:04:30.644413,21
2021-12-23 15:04:30.644423,21
2021-12-23 15:04:30.644432,16
2021-12-23 15:04:30.644442,19
2021-12-23 15:04:30.644452,24
2021-12-23 15:04:30.644461,24
2021-12-23 15:04:30.958030,21
2021-12-23 15:04:30.958049,19
2021-12-23 15:04:30.958057,21
2021-12-23 15:04:30.958063,24
2021-12-23 15:04:30.958069,26
2021-12-23 15:04:30.958076,33
2021-12-23 15:04:30.958082,45
2021-12-23 15:04:30.958088,60
2021-12-23 15:04:30.958095,57
2021-12-23 15:04:30.958101,40
2021-12-23 15:04:30.958107,31
2021-12-23 15:04:30.958113,31
2021-12-23 15:04:30.958120,33
2021-12-23 15:04:30.958126,36
2021-12-23 15:04:30.958132,38
2021-12-23 15:04:30.958138,36
2021-12-23 15:04:30.958145,38
2021-12-23 15:04:30.958151,43
2021-12-23 15:04:30.958157,50
2021-12-23 15:04:30.958163,57
2021-12-23 15:04:30.958170,76
2021-12-23 15:04:30.958176,197
2021-12-23 15:04:30.958182,502
2021-12-23 15:04:30.958188,923
2021-12-23 15:04:30.958195,993
2021-12-23 15:04:30.958201,254
2021-12-23 15:04:30.958207,-413
2021-12-23 15:04:30.958214,-149
2021-12-23 15:04:30.958220,146
2021-12-23 15:04:30.958226,-31
2021-12-23 15:04:31.183992,-64
2021-12-23 15:04:31.184023,50
2021-12-23 15:04:31.184035,19
2021-12-23 15:04:31.184045,-14
2021-12-23 15:04:31.184054,28
2021-12-23 15:04:31.184064,40
2021-12-23 15:04:31.184074,31
2021-12-23 15:04:31.184084,48
2021-12-23 15:04:31.184093,60
2021-12-23 15:04:31.184103,57
2021-12-23 15:04:31.184113,57
2021-12-23 15:04:31.184122,67
2021-12-23 15:04:31.184132,84
2021-12-23 15:04:31.184142,96
2021-12-23 15:04:31.184151,108
2021-12-23 15:04:31.184161,120
2021-12-23 15:04:31.184170,139
2021-12-23 15:04:31.184180,161
2021-12-23 15:04:31.184190,189
2021-12-23 15:04:31.184199,214
2021-12-23 15:04:31.184209,240
2021-12-23 15:04:31.184219,264
2021-12-23 15:04:31.184228,286
2021-12-23 15:04:31.184238,303
2021-12-23 15:04:31.184247,319
2021-12-23 15:04:31.184257,331
2021-12-23 15:04:31.184267,319
2021-12-23 15:04:31.184276,281
2021-12-23 15:04:31.184286,221
2021-12-23 15:04:31.184295,144
2021-12-23 15:04:31.408866,67
2021-12-23 15:04:31.408884,4
2021-12-23 15:04:31.408890,-38
2021-12-23 15:04:31.408895,-64
2021-12-23 15:04:31.408900,-72
2021-12-23 15:04:31.408906,-76
2021-12-23 15:04:31.408911,-76
2021-12-23 15:04:31.408916,-72
2021-12-23 15:04:31.408921,-72
2021-12-23 15:04:31.408926,-69
2021-12-23 15:04:31.408931,-55
2021-12-23 15:04:31.408936,-45
2021-12-23 15:04:31.408942,-48
2021-12-23 15:04:31.408948,-45
2021-12-23 15:04:31.408953,-36
2021-12-23 15:04:31.408958,-33
2021-12-23 15:04:31.408963,-33
2021-12-23 15:04:31.408969,-24
2021-12-23 15:04:31.408974,-12
2021-12-23 15:04:31.408979,-9
2021-12-23 15:04:31.408984,-9
2021-12-23 15:04:31.408989,-4
2021-12-23 15:04:31.408994,-2
2021-12-23 15:04:31.408999,-4
2021-12-23 15:04:31.409004,-4
2021-12-23 15:04:31.409009,-2
2021-12-23 15:04:31.409014,-4
2021-12-23 15:04:31.409019,-7
2021-12-23 15:04:31.409024,-2
2021-12-23 15:04:31.409029,-2
2021-12-23 15:04:31.633332,0
2021-12-23 15:04:31.633353,0
2021-12-23 15:04:31.633361,-4
2021-12-23 15:04:31.633368,-2
2021-12-23 15:04:31.633374,2
2021-12-23 15:04:31.633381,7
2021-12-23 15:04:31.633387,7
2021-12-23 15:04:31.633393,2
2021-12-23 15:04:31.633400,0
2021-12-23 15:04:31.633406,7
2021-12-23 15:04:31.633413,9
2021-12-23 15:04:31.633419,9
2021-12-23 15:04:31.633425,12
2021-12-23 15:04:31.633432,14
2021-12-23 15:04:31.633438,9
2021-12-23 15:04:31.633445,2
2021-12-23 15:04:31.633451,4
2021-12-23 15:04:31.633458,7
2021-12-23 15:04:31.633464,0
2021-12-23 15:04:31.633478,-2
2021-12-23 15:04:31.633485,2
2021-12-23 15:04:31.633491,12
2021-12-23 15:04:31.633498,14
2021-12-23 15:04:31.633504,26
2021-12-23 15:04:31.633510,48
2021-12-23 15:04:31.633517,45
2021-12-23 15:04:31.633523,28
2021-12-23 15:04:31.633529,21
2021-12-23 15:04:31.633536,28
2021-12-23 15:04:31.633542,31
2021-12-23 15:04:31.814179,28
2021-12-23 15:04:31.814201,28
2021-12-23 15:04:31.814208,33
2021-12-23 15:04:31.814214,40
2021-12-23 15:04:31.814219,45
2021-12-23 15:04:31.814224,48
2021-12-23 15:04:31.814229,43
2021-12-23 15:04:31.814234,72
2021-12-23 15:04:31.814239,233
2021-12-23 15:04:31.814244,586
2021-12-23 15:04:31.814249,1005
2021-12-23 15:04:31.814255,925
2021-12-23 15:04:31.814260,72
2021-12-23 15:04:31.814265,-452
2021-12-23 15:04:31.814270,-79
2021-12-23 15:04:31.814275,120
2021-12-23 15:04:31.814280,-79
2021-12-23 15:04:31.814285,-57
2021-12-23 15:04:31.814290,38
2021-12-23 15:04:31.814296,-7
2021-12-23 15:04:31.814301,-19
2021-12-23 15:04:31.814306,28
2021-12-23 15:04:31.814311,31
2021-12-23 15:04:31.814316,21
2021-12-23 15:04:31.814321,38
2021-12-23 15:04:31.814326,48
2021-12-23 15:04:31.814331,52
2021-12-23 15:04:31.814336,64
2021-12-23 15:04:31.814341,81
2021-12-23 15:04:31.814346,93
2021-12-23 15:04:32.084583,101
2021-12-23 15:04:32.084605,110
2021-12-23 15:04:32.084613,132
2021-12-23 15:04:32.084619,153
2021-12-23 15:04:32.084626,175
2021-12-23 15:04:32.084632,199
2021-12-23 15:04:32.084638,223
2021-12-23 15:04:32.084645,247
2021-12-23 15:04:32.084651,276
2021-12-23 15:04:32.084657,295
2021-12-23 15:04:32.084664,315
2021-12-23 15:04:32.084670,329
2021-12-23 15:04:32.084676,329
2021-12-23 15:04:32.084683,315
2021-12-23 15:04:32.084689,278
2021-12-23 15:04:32.084695,209
2021-12-23 15:04:32.084705,122
2021-12-23 15:04:32.084717,50
2021-12-23 15:04:32.084728,-9
2021-12-23 15:04:32.084739,-55
2021-12-23 15:04:32.084750,-84
2021-12-23 15:04:32.084761,-91
2021-12-23 15:04:32.084772,-93
2021-12-23 15:04:32.084784,-91
2021-12-23 15:04:32.084795,-84
2021-12-23 15:04:32.084808,-76
2021-12-23 15:04:32.084819,-69
2021-12-23 15:04:32.084830,-60
2021-12-23 15:04:32.084842,-52
2021-12-23 15:04:32.084854,-50
2021-12-23 15:04:32.264586,-40
2021-12-23 15:04:32.264629,-28
2021-12-23 15:04:32.264641,-24
2021-12-23 15:04:32.264651,-21
2021-12-23 15:04:32.264661,-14
2021-12-23 15:04:32.264671,-9
2021-12-23 15:04:32.264681,-12
2021-12-23 15:04:32.264691,-9
2021-12-23 15:04:32.264700,-2
2021-12-23 15:04:32.264710,0
2021-12-23 15:04:32.264720,0
2021-12-23 15:04:32.264730,-2
2021-12-23 15:04:32.264740,-4
2021-12-23 15:04:32.264749,-4
2021-12-23 15:04:32.264759,-2
2021-12-23 15:04:32.264769,2
2021-12-23 15:04:32.264778,4
2021-12-23 15:04:32.264788,2
2021-12-23 15:04:32.264798,2
2021-12-23 15:04:32.264808,4
2021-12-23 15:04:32.264817,4
2021-12-23 15:04:32.264827,2
2021-12-23 15:04:32.264837,4
2021-12-23 15:04:32.264846,7
2021-12-23 15:04:32.264856,9
2021-12-23 15:04:32.264866,12
2021-12-23 15:04:32.264875,14
2021-12-23 15:04:32.264885,14
2021-12-23 15:04:32.264895,9
2021-12-23 15:04:32.264904,9
2021-12-23 15:04:32.489086,7
2021-12-23 15:04:32.489114,7
2021-12-23 15:04:32.489122,14
2021-12-23 15:04:32.489129,24
2021-12-23 15:04:32.489135,21
2021-12-23 15:04:32.489141,26
2021-12-23 15:04:32.489148,48
2021-12-23 15:04:32.489154,48
2021-12-23 15:04:32.489160,36
2021-12-23 15:04:32.489166,33
2021-12-23 15:04:32.489173,28
2021-12-23 15:04:32.489179,16
2021-12-23 15:04:32.489186,24
2021-12-23 15:04:32.489192,31
2021-12-23 15:04:32.489198,28
2021-12-23 15:04:32.489205,31
2021-12-23 15:04:32.489211,36
2021-12-23 15:04:32.489217,33
2021-12-23 15:04:32.489223,38
2021-12-23 15:04:32.489230,55
2021-12-23 15:04:32.489236,156
2021-12-23 15:04:32.489242,449
2021-12-23 15:04:32.489248,880
2021-12-23 15:04:32.489255,1050
2021-12-23 15:04:32.489261,411
2021-12-23 15:04:32.489268,-391
2021-12-23 15:04:32.489274,-271
2021-12-23 15:04:32.489280,98
2021-12-23 15:04:32.489287,-31
2021-12-23 15:04:32.489293,-113
2021-12-23 15:04:32.758534,14
2021-12-23 15:04:32.758564,14
2021-12-23 15:04:32.758576,-33
2021-12-23 15:04:32.758586,7
2021-12-23 15:04:32.758596,19
2021-12-23 15:04:32.758606,-2
2021-12-23 15:04:32.758616,14
2021-12-23 15:04:32.758625,33
2021-12-23 15:04:32.758635,33
2021-12-23 15:04:32.758645,45
2021-12-23 15:04:32.758654,57
2021-12-23 15:04:32.758664,60
2021-12-23 15:04:32.758674,74
2021-12-23 15:04:32.758683,96
2021-12-23 15:04:32.758693,110
2021-12-23 15:04:32.758702,125
2021-12-23 15:04:32.758712,149
2021-12-23 15:04:32.758722,175
2021-12-23 15:04:32.758731,197
2021-12-23 15:04:32.758741,226
2021-12-23 15:04:32.758750,259
2021-12-23 15:04:32.758760,286
2021-12-23 15:04:32.758770,298
2021-12-23 15:04:32.758779,310
2021-12-23 15:04:32.758789,322
2021-12-23 15:04:32.758798,310
2021-12-23 15:04:32.758808,274
2021-12-23 15:04:32.758818,211
2021-12-23 15:04:32.758827,125
2021-12-23 15:04:32.758837,45
2021-12-23 15:04:32.984925,-16
2021-12-23 15:04:32.984953,-60
2021-12-23 15:04:32.984966,-88
2021-12-23 15:04:32.984978,-103
2021-12-23 15:04:32.985015,-108
2021-12-23 15:04:32.985049,-105
2021-12-23 15:04:32.985069,-101
2021-12-23 15:04:32.985081,-96
2021-12-23 15:04:32.985092,-91
2021-12-23 15:04:32.985103,-88
2021-12-23 15:04:32.985115,-81
2021-12-23 15:04:32.985126,-69
2021-12-23 15:04:32.985137,-57
2021-12-23 15:04:32.985148,-50
2021-12-23 15:04:32.985160,-40
2021-12-23 15:04:32.985172,-38
2021-12-23 15:04:32.985183,-38
2021-12-23 15:04:32.985194,-31
2021-12-23 15:04:32.985206,-26
2021-12-23 15:04:32.985218,-24
2021-12-23 15:04:32.985229,-21
2021-12-23 15:04:32.985241,-21
2021-12-23 15:04:32.985252,-19
2021-12-23 15:04:32.985263,-14
2021-12-23 15:04:32.985274,-12
2021-12-23 15:04:32.985286,-12
2021-12-23 15:04:32.985297,-12
2021-12-23 15:04:32.985308,-12
2021-12-23 15:04:32.985320,-12
2021-12-23 15:04:32.985331,-7
2021-12-23 15:04:33.208285,-4
2021-12-23 15:04:33.208300,-7
2021-12-23 15:04:33.208306,-14
2021-12-23 15:04:33.208311,-14
2021-12-23 15:04:33.208316,-9
2021-12-23 15:04:33.208321,-4
2021-12-23 15:04:33.208326,-2
2021-12-23 15:04:33.208331,0
2021-12-23 15:04:33.208336,-2
2021-12-23 15:04:33.208341,-4
2021-12-23 15:04:33.208346,0
2021-12-23 15:04:33.208351,4
2021-12-23 15:04:33.208356,2
2021-12-23 15:04:33.208361,0
2021-12-23 15:04:33.208366,-2
2021-12-23 15:04:33.208371,2
2021-12-23 15:04:33.208376,12
2021-12-23 15:04:33.208382,21
2021-12-23 15:04:33.208386,36
2021-12-23 15:04:33.208391,48
2021-12-23 15:04:33.208397,48
2021-12-23 15:04:33.208402,36
2021-12-23 15:04:33.208407,28
2021-12-23 15:04:33.208412,26
2021-12-23 15:04:33.208417,28
2021-12-23 15:04:33.208422,33
2021-12-23 15:04:33.208427,33
2021-12-23 15:04:33.208432,33
2021-12-23 15:04:33.208437,33
2021-12-23 15:04:33.208442,36
2021-12-23 15:04:33.479595,43
2021-12-23 15:04:33.479626,48
2021-12-23 15:04:33.479638,69
2021-12-23 15:04:33.479648,214
2021-12-23 15:04:33.479658,548
2021-12-23 15:04:33.479668,973
2021-12-23 15:04:33.479678,978
2021-12-23 15:04:33.479688,175
2021-12-23 15:04:33.479697,-440
2021-12-23 15:04:33.479707,-122
2021-12-23 15:04:33.479717,132
2021-12-23 15:04:33.479727,-62
2021-12-23 15:04:33.479737,-72
2021-12-23 15:04:33.479747,38
2021-12-23 15:04:33.479756,-4
2021-12-23 15:04:33.479766,-26
2021-12-23 15:04:33.479776,21
2021-12-23 15:04:33.479786,26
2021-12-23 15:04:33.479796,16
2021-12-23 15:04:33.479805,36
2021-12-23 15:04:33.479816,45
2021-12-23 15:04:33.479825,45
2021-12-23 15:04:33.479835,57
2021-12-23 15:04:33.479845,72
2021-12-23 15:04:33.479855,84
2021-12-23 15:04:33.479864,93
2021-12-23 15:04:33.479874,108
2021-12-23 15:04:33.479884,122
2021-12-23 15:04:33.479894,141
2021-12-23 15:04:33.479904,165
2021-12-23 15:04:33.703246,189
2021-12-23 15:04:33.703277,214
2021-12-23 15:04:33.703289,245
2021-12-23 15:04:33.703299,274
2021-12-23 15:04:33.703309,295
2021-12-23 15:04:33.703318,315
2021-12-23 15:04:33.703328,329
2021-12-23 15:04:33.703338,329
2021-12-23 15:04:33.703348,312
2021-12-23 15:04:33.703357,276
2021-12-23 15:04:33.703367,209
2021-12-23 15:04:33.703377,125
2021-12-23 15:04:33.703387,43
2021-12-23 15:04:33.703397,-21
2021-12-23 15:04:33.703406,-62
2021-12-23 15:04:33.703416,-84
2021-12-23 15:04:33.703426,-93
2021-12-23 15:04:33.703436,-93
2021-12-23 15:04:33.703446,-93
2021-12-23 15:04:33.703455,-93
2021-12-23 15:04:33.703465,-86
2021-12-23 15:04:33.703475,-79
2021-12-23 15:04:33.703484,-72
2021-12-23 15:04:33.703494,-62
2021-12-23 15:04:33.703503,-55
2021-12-23 15:04:33.703513,-50
2021-12-23 15:04:33.703523,-45
2021-12-23 15:04:33.703533,-36
2021-12-23 15:04:33.703542,-26
2021-12-23 15:04:33.703552,-19
2021-12-23 15:04:33.929306,-16
2021-12-23 15:04:33.929337,-12
2021-12-23 15:04:33.929349,-14
2021-12-23 15:04:33.929359,-16
2021-12-23 15:04:33.929369,-14
2021-12-23 15:04:33.929379,-12
2021-12-23 15:04:33.929388,-16
2021-12-23 15:04:33.929398,-16
2021-12-23 15:04:33.929407,-14
2021-12-23 15:04:33.929417,-14
2021-12-23 15:04:33.929427,-16
2021-12-23 15:04:33.929437,-14
2021-12-23 15:04:33.929446,-12
2021-12-23 15:04:33.929456,-14
2021-12-23 15:04:33.929466,-14
2021-12-23 15:04:33.929476,-12
2021-12-23 15:04:33.929485,-12
2021-12-23 15:04:33.929495,-7
2021-12-23 15:04:33.929505,-7
2021-12-23 15:04:33.929514,-7
2021-12-23 15:04:33.929524,-9
2021-12-23 15:04:33.929534,-14
2021-12-23 15:04:33.929543,-12
2021-12-23 15:04:33.929553,-4
2021-12-23 15:04:33.929563,2
2021-12-23 15:04:33.929572,9
2021-12-23 15:04:33.929582,21
2021-12-23 15:04:33.929592,36
2021-12-23 15:04:33.929602,40
2021-12-23 15:04:33.929611,28
2021-12-23 15:04:34.109696,16
2021-12-23 15:04:34.109729,12
2021-12-23 15:04:34.109741,14
2021-12-23 15:04:34.109783,16
2021-12-23 15:04:34.109793,14
2021-12-23 15:04:34.109802,14
2021-12-23 15:04:34.109812,12
2021-12-23 15:04:34.109822,14
2021-12-23 15:04:34.109831,21
2021-12-23 15:04:34.109841,26
2021-12-23 15:04:34.109850,40
2021-12-23 15:04:34.109860,163
2021-12-23 15:04:34.109870,476
2021-12-23 15:04:34.109879,916
2021-12-23 15:04:34.109889,1029
2021-12-23 15:04:34.109899,305
2021-12-23 15:04:34.109909,-418
2021-12-23 15:04:34.109918,-192
2021-12-23 15:04:34.109928,120
2021-12-23 15:04:34.109938,-57
2021-12-23 15:04:34.109947,-105
2021-12-23 15:04:34.109957,16
2021-12-23 15:04:34.109966,-4
2021-12-23 15:04:34.109976,-38
2021-12-23 15:04:34.109985,7
2021-12-23 15:04:34.109995,19
2021-12-23 15:04:34.110005,9
2021-12-23 15:04:34.110014,26
2021-12-23 15:04:34.110023,38
2021-12-23 15:04:34.110033,40
2021-12-23 15:04:34.334486,52
2021-12-23 15:04:34.334507,67
2021-12-23 15:04:34.334515,74
2021-12-23 15:04:34.334521,86
2021-12-23 15:04:34.334528,101
2021-12-23 15:04:34.334534,113
2021-12-23 15:04:34.334541,129
2021-12-23 15:04:34.334547,151
2021-12-23 15:04:34.334553,175
2021-12-23 15:04:34.334560,202
2021-12-23 15:04:34.334566,230
2021-12-23 15:04:34.334573,257
2021-12-23 15:04:34.334579,281
2021-12-23 15:04:34.334585,300
2021-12-23 15:04:34.334592,312
2021-12-23 15:04:34.334598,315
2021-12-23 15:04:34.334605,303
2021-12-23 15:04:34.334611,262
2021-12-23 15:04:34.334617,189
2021-12-23 15:04:34.334624,105
2021-12-23 15:04:34.334630,33
2021-12-23 15:04:34.334637,-24
2021-12-23 15:04:34.334643,-60
2021-12-23 15:04:34.334650,-76
2021-12-23 15:04:34.334656,-81
2021-12-23 15:04:34.334662,-81
2021-12-23 15:04:34.334669,-76
2021-12-23 15:04:34.334675,-72
2021-12-23 15:04:34.334681,-69
2021-12-23 15:04:34.334688,-62
2021-12-23 15:04:34.559154,-55
2021-12-23 15:04:34.559185,-50
2021-12-23 15:04:34.559196,-45
2021-12-23 15:04:34.559206,-40
2021-12-23 15:04:34.559216,-38
2021-12-23 15:04:34.559232,-31
2021-12-23 15:04:34.559242,-21
2021-12-23 15:04:34.559252,-16
2021-12-23 15:04:34.559262,-14
2021-12-23 15:04:34.559271,-16
2021-12-23 15:04:34.559281,-19
2021-12-23 15:04:34.559291,-14
2021-12-23 15:04:34.559301,-7
2021-12-23 15:04:34.559310,-7
2021-12-23 15:04:34.559320,-7
2021-12-23 15:04:34.559330,-2
2021-12-23 15:04:34.559339,-2
2021-12-23 15:04:34.559349,-2
2021-12-23 15:04:34.559359,-2
2021-12-23 15:04:34.559369,-4
2021-12-23 15:04:34.559378,-4
2021-12-23 15:04:34.559388,-7
2021-12-23 15:04:34.559397,-9
2021-12-23 15:04:34.559407,-9
2021-12-23 15:04:34.559417,-12
2021-12-23 15:04:34.559427,-16
2021-12-23 15:04:34.559437,-14
2021-12-23 15:04:34.559446,-7
2021-12-23 15:04:34.559456,0
2021-12-23 15:04:34.559466,7
2021-12-23 15:04:34.829041,21
2021-12-23 15:04:34.829072,33
2021-12-23 15:04:34.829084,28
2021-12-23 15:04:34.829094,12
2021-12-23 15:04:34.829104,4
2021-12-23 15:04:34.829114,7
2021-12-23 15:04:34.829123,9
2021-12-23 15:04:34.829133,12
2021-12-23 15:04:34.829143,14
2021-12-23 15:04:34.829152,12
2021-12-23 15:04:34.829162,12
2021-12-23 15:04:34.829172,16
2021-12-23 15:04:34.829182,26
2021-12-23 15:04:34.829191,33
2021-12-23 15:04:34.829201,84
2021-12-23 15:04:34.829211,295
2021-12-23 15:04:34.829220,694
2021-12-23 15:04:34.829230,1043
2021-12-23 15:04:34.829240,723
2021-12-23 15:04:34.829249,-165
2021-12-23 15:04:34.829259,-384
2021-12-23 15:04:34.829269,43
2021-12-23 15:04:34.829279,55
2021-12-23 15:04:34.829288,-139
2021-12-23 15:04:34.829298,-48
2021-12-23 15:04:34.829308,21
2021-12-23 15:04:34.829318,-28
2021-12-23 15:04:34.829328,-26
2021-12-23 15:04:34.829338,0
2021-12-23 15:04:34.829348,-7
2021-12-23 15:04:35.054526,4
2021-12-23 15:04:35.054557,28
2021-12-23 15:04:35.054569,26
2021-12-23 15:04:35.054579,26
2021-12-23 15:04:35.054588,45
2021-12-23 15:04:35.054598,64
2021-12-23 15:04:35.054608,76
2021-12-23 15:04:35.054618,84
2021-12-23 15:04:35.054628,96
2021-12-23 15:04:35.054637,110
2021-12-23 15:04:35.054647,127
2021-12-23 15:04:35.054657,156
2021-12-23 15:04:35.054666,199
2021-12-23 15:04:35.054676,230
2021-12-23 15:04:35.054686,245
2021-12-23 15:04:35.054696,264
2021-12-23 15:04:35.054705,305
2021-12-23 15:04:35.054715,329
2021-12-23 15:04:35.054725,324
2021-12-23 15:04:35.054734,324
2021-12-23 15:04:35.054744,298
2021-12-23 15:04:35.054754,228
2021-12-23 15:04:35.054763,146
2021-12-23 15:04:35.054773,62
2021-12-23 15:04:35.054783,-16
2021-12-23 15:04:35.054792,-67
2021-12-23 15:04:35.054802,-93
2021-12-23 15:04:35.054812,-105
2021-12-23 15:04:35.054821,-110
2021-12-23 15:04:35.054831,-96
2021-12-23 15:04:35.324497,-84
2021-12-23 15:04:35.324518,-86
2021-12-23 15:04:35.324526,-88
2021-12-23 15:04:35.324532,-81
2021-12-23 15:04:35.324539,-64
2021-12-23 15:04:35.324545,-60
2021-12-23 15:04:35.324552,-57
2021-12-23 15:04:35.324558,-48
2021-12-23 15:04:35.324565,-43
2021-12-23 15:04:35.324571,-40
2021-12-23 15:04:35.324577,-33
2021-12-23 15:04:35.324584,-28
2021-12-23 15:04:35.324590,-24
2021-12-23 15:04:35.324596,-21
2021-12-23 15:04:35.324603,-21
2021-12-23 15:04:35.324609,-24
2021-12-23 15:04:35.324616,-21
2021-12-23 15:04:35.324622,-24
2021-12-23 15:04:35.324629,-26
2021-12-23 15:04:35.324639,-26
2021-12-23 15:04:35.324650,-21
2021-12-23 15:04:35.324659,-12
2021-12-23 15:04:35.324665,-7
2021-12-23 15:04:35.324672,2
2021-12-23 15:04:35.324678,16
2021-12-23 15:04:35.324685,19
2021-12-23 15:04:35.324691,7
2021-12-23 15:04:35.324697,-2
2021-12-23 15:04:35.324704,-2
2021-12-23 15:04:35.324710,0
2021-12-23 15:04:35.593803,2
2021-12-23 15:04:35.593823,0
2021-12-23 15:04:35.593831,2
2021-12-23 15:04:35.593837,7
2021-12-23 15:04:35.593844,9
2021-12-23 15:04:35.593850,14
2021-12-23 15:04:35.593856,26
2021-12-23 15:04:35.593863,24
2021-12-23 15:04:35.593869,96
2021-12-23 15:04:35.593875,387
2021-12-23 15:04:35.593881,839
2021-12-23 15:04:35.593888,988
2021-12-23 15:04:35.593894,324
2021-12-23 15:04:35.593900,-432
2021-12-23 15:04:35.593907,-276
2021-12-23 15:04:35.593913,76
2021-12-23 15:04:35.593919,-55
2021-12-23 15:04:35.593926,-127
2021-12-23 15:04:35.593932,-16
2021-12-23 15:04:35.593938,-28
2021-12-23 15:04:35.593945,-67
2021-12-23 15:04:35.593951,-28
2021-12-23 15:04:35.593957,-12
2021-12-23 15:04:35.593964,-21
2021-12-23 15:04:35.593970,-4
2021-12-23 15:04:35.593976,9
2021-12-23 15:04:35.593983,14
2021-12-23 15:04:35.593989,24
2021-12-23 15:04:35.593995,38
2021-12-23 15:04:35.594002,43
2021-12-23 15:04:35.772792,52
2021-12-23 15:04:35.772823,72
2021-12-23 15:04:35.772834,91
2021-12-23 15:04:35.772844,110
2021-12-23 15:04:35.772854,134
2021-12-23 15:04:35.772864,163
2021-12-23 15:04:35.772873,194
2021-12-23 15:04:35.772883,226
2021-12-23 15:04:35.772892,252
2021-12-23 15:04:35.772902,276
2021-12-23 15:04:35.772912,295
2021-12-23 15:04:35.772921,305
2021-12-23 15:04:35.772931,298
2021-12-23 15:04:35.772940,266
2021-12-23 15:04:35.772950,209
2021-12-23 15:04:35.772960,125
2021-12-23 15:04:35.772969,43
2021-12-23 15:04:35.772979,-21
2021-12-23 15:04:35.772988,-64
2021-12-23 15:04:35.772998,-91
2021-12-23 15:04:35.773007,-103
2021-12-23 15:04:35.773017,-103
2021-12-23 15:04:35.773026,-98
2021-12-23 15:04:35.773036,-98
2021-12-23 15:04:35.773045,-96
2021-12-23 15:04:35.773055,-88
2021-12-23 15:04:35.773064,-79
2021-12-23 15:04:35.773074,-69
2021-12-23 15:04:35.773083,-60
2021-12-23 15:04:35.773093,-50
2021-12-23 15:04:36.088954,-45
2021-12-23 15:04:36.088985,-38
2021-12-23 15:04:36.088996,-28
2021-12-23 15:04:36.089006,-24
2021-12-23 15:04:36.089015,-24
2021-12-23 15:04:36.089025,-24
2021-12-23 15:04:36.089034,-24
2021-12-23 15:04:36.089044,-19
2021-12-23 15:04:36.089054,-19
2021-12-23 15:04:36.089063,-16
2021-12-23 15:04:36.089073,-16
2021-12-23 15:04:36.089083,-28
2021-12-23 15:04:36.089092,-36
2021-12-23 15:04:36.089102,-36
2021-12-23 15:04:36.089112,-36
2021-12-23 15:04:36.089122,-26
2021-12-23 15:04:36.089131,-7
2021-12-23 15:04:36.089141,-7
2021-12-23 15:04:36.089150,-9
2021-12-23 15:04:36.089160,14
2021-12-23 15:04:36.089170,38
2021-12-23 15:04:36.089179,26
2021-12-23 15:04:36.089189,0
2021-12-23 15:04:36.089199,7
2021-12-23 15:04:36.089208,16
2021-12-23 15:04:36.089218,9
2021-12-23 15:04:36.089228,9
2021-12-23 15:04:36.089237,16
2021-12-23 15:04:36.089247,21
2021-12-23 15:04:36.089257,19
2021-12-23 15:04:36.179584,16
2021-12-23 15:04:36.179615,31
2021-12-23 15:04:36.179626,50
2021-12-23 15:04:36.179636,55
2021-12-23 15:04:36.179646,137
2021-12-23 15:04:36.179655,425
2021-12-23 15:04:36.179665,877
2021-12-23 15:04:36.179675,1082
2021-12-23 15:04:36.179684,454
2021-12-23 15:04:36.179694,-370
2021-12-23 15:04:36.179704,-257
2021-12-23 15:04:36.179714,125
2021-12-23 15:04:36.179724,-19
2021-12-23 15:04:36.179733,-115
2021-12-23 15:04:36.179743,16
2021-12-23 15:04:36.179753,16
2021-12-23 15:04:36.179762,-28
2021-12-23 15:04:36.179772,9
2021-12-23 15:04:36.179782,21
2021-12-23 15:04:36.179792,2
2021-12-23 15:04:36.179801,24
2021-12-23 15:04:36.179811,43
2021-12-23 15:04:36.179821,36
2021-12-23 15:04:36.179830,24
2021-12-23 15:04:36.179840,31
2021-12-23 15:04:36.179850,43
2021-12-23 15:04:36.179859,57
2021-12-23 15:04:36.179869,96
2021-12-23 15:04:36.179879,129
2021-12-23 15:04:36.179889,132
2021-12-23 15:04:36.448446,146
2021-12-23 15:04:36.448466,182
2021-12-23 15:04:36.448473,211
2021-12-23 15:04:36.448480,235
2021-12-23 15:04:36.448487,264
2021-12-23 15:04:36.448493,298
2021-12-23 15:04:36.448500,324
2021-12-23 15:04:36.448506,331
2021-12-23 15:04:36.448513,327
2021-12-23 15:04:36.448519,312
2021-12-23 15:04:36.448526,266
2021-12-23 15:04:36.448532,187
2021-12-23 15:04:36.448538,108
2021-12-23 15:04:36.448545,45
2021-12-23 15:04:36.448551,4
2021-12-23 15:04:36.448558,-24
2021-12-23 15:04:36.448564,-38
2021-12-23 15:04:36.448570,-43
2021-12-23 15:04:36.448577,-48
2021-12-23 15:04:36.448583,-38
2021-12-23 15:04:36.448590,-24
2021-12-23 15:04:36.448596,-12
2021-12-23 15:04:36.448603,-7
2021-12-23 15:04:36.448609,-7
2021-12-23 15:04:36.448615,-2
2021-12-23 15:04:36.448622,4
2021-12-23 15:04:36.448628,9
2021-12-23 15:04:36.448635,16
2021-12-23 15:04:36.448641,24
2021-12-23 15:04:36.448648,24
2021-12-23 15:04:36.674110,31
2021-12-23 15:04:36.674141,40
2021-12-23 15:04:36.674153,31
2021-12-23 15:04:36.674163,21
2021-12-23 15:04:36.674172,24
2021-12-23 15:04:36.674182,26
2021-12-23 15:04:36.674192,24
2021-12-23 15:04:36.674201,28
2021-12-23 15:04:36.674211,31
2021-12-23 15:04:36.674221,28
2021-12-23 15:04:36.674230,33
2021-12-23 15:04:36.674240,40
2021-12-23 15:04:36.674250,38
2021-12-23 15:04:36.674260,48
2021-12-23 15:04:36.674269,84
2021-12-23 15:04:36.674279,98
2021-12-23 15:04:36.674289,72
2021-12-23 15:04:36.674298,52
2021-12-23 15:04:36.674308,55
2021-12-23 15:04:36.674318,48
2021-12-23 15:04:36.674327,28
2021-12-23 15:04:36.674337,26
2021-12-23 15:04:36.674347,52
2021-12-23 15:04:36.674357,74
2021-12-23 15:04:36.674366,69
2021-12-23 15:04:36.674376,57
2021-12-23 15:04:36.674386,64
2021-12-23 15:04:36.674395,76
2021-12-23 15:04:36.674405,108
2021-12-23 15:04:36.674415,276
2021-12-23 15:04:36.943767,658
2021-12-23 15:04:36.943799,1120
2021-12-23 15:04:36.943810,1084
2021-12-23 15:04:36.943821,180
2021-12-23 15:04:36.943831,-452
2021-12-23 15:04:36.943841,-88
2021-12-23 15:04:36.943850,146
2021-12-23 15:04:36.943860,-81
2021-12-23 15:04:36.943870,-88
2021-12-23 15:04:36.943880,16
2021-12-23 15:04:36.943922,-24
2021-12-23 15:04:36.943932,-19
2021-12-23 15:04:36.943942,31
2021-12-23 15:04:36.943952,12
2021-12-23 15:04:36.943961,-2
2021-12-23 15:04:36.943971,26
2021-12-23 15:04:36.943980,33
2021-12-23 15:04:36.943990,21
2021-12-23 15:04:36.944000,26
2021-12-23 15:04:36.944010,52
2021-12-23 15:04:36.944019,86
2021-12-23 15:04:36.944029,108
2021-12-23 15:04:36.944038,115
2021-12-23 15:04:36.944048,129
2021-12-23 15:04:36.944058,146
2021-12-23 15:04:36.944067,156
2021-12-23 15:04:36.944077,189
2021-12-23 15:04:36.944087,238
2021-12-23 15:04:36.944096,271
2021-12-23 15:04:36.944106,293
2021-12-23 15:04:37.124131,327
2021-12-23 15:04:37.124163,346
2021-12-23 15:04:37.124174,317
2021-12-23 15:04:37.124185,303
2021-12-23 15:04:37.124194,307
2021-12-23 15:04:37.124204,252
2021-12-23 15:04:37.124214,158
2021-12-23 15:04:37.124224,84
2021-12-23 15:04:37.124234,21
2021-12-23 15:04:37.124244,-24
2021-12-23 15:04:37.124253,-55
2021-12-23 15:04:37.124263,-69
2021-12-23 15:04:37.124273,-74
2021-12-23 15:04:37.124283,-96
2021-12-23 15:04:37.124293,-98
2021-12-23 15:04:37.124302,-76
2021-12-23 15:04:37.124312,-55
2021-12-23 15:04:37.124322,-40
2021-12-23 15:04:37.124332,-50
2021-12-23 15:04:37.124341,-62
2021-12-23 15:04:37.124351,-55
2021-12-23 15:04:37.124361,-48
2021-12-23 15:04:37.124371,-36
2021-12-23 15:04:37.124380,-12
2021-12-23 15:04:37.124390,-9
2021-12-23 15:04:37.124400,-12
2021-12-23 15:04:37.124410,2
2021-12-23 15:04:37.124420,0
2021-12-23 15:04:37.124430,2
2021-12-23 15:04:37.124440,14
2021-12-23 15:04:37.349594,-16
2021-12-23 15:04:37.349625,-38
2021-12-23 15:04:37.349637,-4
2021-12-23 15:04:37.349647,-4
2021-12-23 15:04:37.349657,-26
2021-12-23 15:04:37.349667,14
2021-12-23 15:04:37.349676,55
2021-12-23 15:04:37.349686,26
2021-12-23 15:04:37.349696,14
2021-12-23 15:04:37.349705,43
2021-12-23 15:04:37.349715,40
2021-12-23 15:04:37.349724,38
2021-12-23 15:04:37.349734,55
2021-12-23 15:04:37.349744,43
2021-12-23 15:04:37.349753,24
2021-12-23 15:04:37.349763,50
2021-12-23 15:04:37.349773,81
2021-12-23 15:04:37.349782,55
2021-12-23 15:04:37.349792,16
2021-12-23 15:04:37.349801,16
2021-12-23 15:04:37.349811,36
2021-12-23 15:04:37.349821,40
2021-12-23 15:04:37.349830,40
2021-12-23 15:04:37.349840,69
2021-12-23 15:04:37.349850,211
2021-12-23 15:04:37.349859,526
2021-12-23 15:04:37.349869,957
2021-12-23 15:04:37.349879,1123
2021-12-23 15:04:37.349888,459
2021-12-23 15:04:37.349898,-367
2021-12-23 15:04:37.663973,-250
2021-12-23 15:04:37.664004,120
2021-12-23 15:04:37.664016,-26
2021-12-23 15:04:37.664026,-120
2021-12-23 15:04:37.664036,12
2021-12-23 15:04:37.664045,2
2021-12-23 15:04:37.664055,-55
2021-12-23 15:04:37.664065,-2
2021-12-23 15:04:37.664075,38
2021-12-23 15:04:37.664084,7
2021-12-23 15:04:37.664094,0
2021-12-23 15:04:37.664104,36
2021-12-23 15:04:37.664114,40
2021-12-23 15:04:37.664123,43
2021-12-23 15:04:37.664133,69
2021-12-23 15:04:37.664143,81
2021-12-23 15:04:37.664153,103
2021-12-23 15:04:37.664162,134
2021-12-23 15:04:37.664172,134
2021-12-23 15:04:37.664182,117
2021-12-23 15:04:37.664192,144
2021-12-23 15:04:37.664201,216
2021-12-23 15:04:37.664211,252
2021-12-23 15:04:37.664220,240
2021-12-23 15:04:37.664230,247
2021-12-23 15:04:37.664240,295
2021-12-23 15:04:37.664249,331
2021-12-23 15:04:37.664259,329
2021-12-23 15:04:37.664269,317
2021-12-23 15:04:37.664278,290
2021-12-23 15:04:37.842783,252
2021-12-23 15:04:37.842813,197
2021-12-23 15:04:37.842825,93
2021-12-23 15:04:37.842835,21
2021-12-23 15:04:37.842845,-33
2021-12-23 15:04:37.842855,-115
2021-12-23 15:04:37.842865,-91
2021-12-23 15:04:37.842875,-19
2021-12-23 15:04:37.842964,-55
2021-12-23 15:04:37.842976,-88
2021-12-23 15:04:37.842986,-67
2021-12-23 15:04:37.842996,-86
2021-12-23 15:04:37.843006,-110
2021-12-23 15:04:37.843015,-74
2021-12-23 15:04:37.843025,-21
2021-12-23 15:04:37.843035,-14
2021-12-23 15:04:37.843045,-50
2021-12-23 15:04:37.843054,-52
2021-12-23 15:04:37.843064,-19
2021-12-23 15:04:37.843074,-33
2021-12-23 15:04:37.843084,-52
2021-12-23 15:04:37.843094,-28
2021-12-23 15:04:37.843104,-21
2021-12-23 15:04:37.843113,-48
2021-12-23 15:04:37.843123,-55
2021-12-23 15:04:37.843133,-4
2021-12-23 15:04:37.843143,33
2021-12-23 15:04:37.843153,14
2021-12-23 15:04:37.843163,-2
2021-12-23 15:04:37.843173,-4
2021-12-23 15:04:38.068848,-24
2021-12-23 15:04:38.068868,-21
2021-12-23 15:04:38.068876,28
2021-12-23 15:04:38.068883,36
2021-12-23 15:04:38.068889,-7
2021-12-23 15:04:38.068896,-24
2021-12-23 15:04:38.068902,4
2021-12-23 15:04:38.068908,52
2021-12-23 15:04:38.068915,50
2021-12-23 15:04:38.068921,7
2021-12-23 15:04:38.068927,9
2021-12-23 15:04:38.068934,43
2021-12-23 15:04:38.068940,16
2021-12-23 15:04:38.068946,-43
2021-12-23 15:04:38.068953,-52
2021-12-23 15:04:38.068959,-67
2021-12-23 15:04:38.068965,-40
2021-12-23 15:04:38.068972,98
2021-12-23 15:04:38.068978,156
2021-12-23 15:04:38.068984,125
2021-12-23 15:04:38.068991,300
2021-12-23 15:04:38.068997,723
2021-12-23 15:04:38.069003,1070
2021-12-23 15:04:38.069010,735
2021-12-23 15:04:38.069016,-177
2021-12-23 15:04:38.069022,-440
2021-12-23 15:04:38.069029,9
2021-12-23 15:04:38.069035,81
2021-12-23 15:04:38.069041,-103
2021-12-23 15:04:38.069048,-36
2021-12-23 15:04:38.249676,28
2021-12-23 15:04:38.249706,-38
2021-12-23 15:04:38.249718,-79
2021-12-23 15:04:38.249728,-43
2021-12-23 15:04:38.249738,48
2021-12-23 15:04:38.249748,67
2021-12-23 15:04:38.249758,-50
2021-12-23 15:04:38.249768,-31
2021-12-23 15:04:38.249777,110
2021-12-23 15:04:38.249787,72
2021-12-23 15:04:38.249797,-31
2021-12-23 15:04:38.249807,14
2021-12-23 15:04:38.249817,113
2021-12-23 15:04:38.249827,129
2021-12-23 15:04:38.249837,113
2021-12-23 15:04:38.249846,146
2021-12-23 15:04:38.249856,197
2021-12-23 15:04:38.249866,209
2021-12-23 15:04:38.249876,204
2021-12-23 15:04:38.249886,218
2021-12-23 15:04:38.249896,197
2021-12-23 15:04:38.249905,146
2021-12-23 15:04:38.249915,226
2021-12-23 15:04:38.249925,375
2021-12-23 15:04:38.249935,367
2021-12-23 15:04:38.249945,233
2021-12-23 15:04:38.249955,158
2021-12-23 15:04:38.249965,122
2021-12-23 15:04:38.249975,31
2021-12-23 15:04:38.249985,-19
2021-12-23 15:04:38.518808,-43
2021-12-23 15:04:38.518827,-113
2021-12-23 15:04:38.518834,-141
2021-12-23 15:04:38.518840,-74
2021-12-23 15:04:38.518847,-24
2021-12-23 15:04:38.518853,-74
2021-12-23 15:04:38.518860,-84
2021-12-23 15:04:38.518866,-48
2021-12-23 15:04:38.518872,-96
2021-12-23 15:04:38.518879,-120
2021-12-23 15:04:38.518885,-60
2021-12-23 15:04:38.518891,-12
2021-12-23 15:04:38.518898,-7
2021-12-23 15:04:38.518904,0
2021-12-23 15:04:38.518910,14
2021-12-23 15:04:38.518917,7
2021-12-23 15:04:38.518923,-55
2021-12-23 15:04:38.518930,-93
2021-12-23 15:04:38.518936,-72
2021-12-23 15:04:38.518942,-57
2021-12-23 15:04:38.518948,-40
2021-12-23 15:04:38.518955,-36
2021-12-23 15:04:38.518961,-60
2021-12-23 15:04:38.518967,-33
2021-12-23 15:04:38.518974,40
2021-12-23 15:04:38.518980,57
2021-12-23 15:04:38.518986,19
2021-12-23 15:04:38.518993,-12
2021-12-23 15:04:38.518999,-2
2021-12-23 15:04:38.519005,-4
2021-12-23 15:04:38.743150,-57
2021-12-23 15:04:38.743164,-69
2021-12-23 15:04:38.743169,19
2021-12-23 15:04:38.743174,113
2021-12-23 15:04:38.743178,103
2021-12-23 15:04:38.743182,16
2021-12-23 15:04:38.743187,7
2021-12-23 15:04:38.743191,45
2021-12-23 15:04:38.743195,-14
2021-12-23 15:04:38.743200,-60
2021-12-23 15:04:38.743204,24
2021-12-23 15:04:38.743208,125
2021-12-23 15:04:38.743213,317
2021-12-23 15:04:38.743217,747
2021-12-23 15:04:38.743221,1091
2021-12-23 15:04:38.743226,682
2021-12-23 15:04:38.743230,-228
2021-12-23 15:04:38.743235,-396
2021-12-23 15:04:38.743239,21
2021-12-23 15:04:38.743243,-7
2021-12-23 15:04:38.743248,-192
2021-12-23 15:04:38.743252,-72
2021-12-23 15:04:38.743257,7
2021-12-23 15:04:38.743261,-48
2021-12-23 15:04:38.743265,-19
2021-12-23 15:04:38.743270,12
2021-12-23 15:04:38.743274,-9
2021-12-23 15:04:38.743278,7
2021-12-23 15:04:38.743283,12
2021-12-23 15:04:38.743287,-7
2021-12-23 15:04:38.968376,31
2021-12-23 15:04:38.968394,50
2021-12-23 15:04:38.968399,4
2021-12-23 15:04:38.968404,12
2021-12-23 15:04:38.968408,74
2021-12-23 15:04:38.968412,93
2021-12-23 15:04:38.968417,105
2021-12-23 15:04:38.968421,149
2021-12-23 15:04:38.968425,177
2021-12-23 15:04:38.968430,204
2021-12-23 15:04:38.968434,240
2021-12-23 15:04:38.968438,242
2021-12-23 15:04:38.968443,214
2021-12-23 15:04:38.968447,228
2021-12-23 15:04:38.968452,259
2021-12-23 15:04:38.968456,233
2021-12-23 15:04:38.968460,218
2021-12-23 15:04:38.968465,230
2021-12-23 15:04:38.968469,189
2021-12-23 15:04:38.968473,88
2021-12-23 15:04:38.968478,-12
2021-12-23 15:04:38.968482,-69
2021-12-23 15:04:38.968487,-115
2021-12-23 15:04:38.968491,-149
2021-12-23 15:04:38.968495,-149
2021-12-23 15:04:38.968500,-139
2021-12-23 15:04:38.968504,-110
2021-12-23 15:04:38.968508,-60
2021-12-23 15:04:38.968513,-52
2021-12-23 15:04:38.968517,-74
2021-12-23 15:04:39.194240,-67
