Time,ECG
2021-12-23 14:59:07.679968,26
2021-12-23 14:59:07.679983,26
2021-12-23 14:59:07.679989,24
2021-12-23 14:59:07.679993,24
2021-12-23 14:59:07.679998,28
2021-12-23 14:59:07.680002,33
2021-12-23 14:59:07.680007,38
2021-12-23 14:59:07.680011,45
2021-12-23 14:59:07.680016,72
2021-12-23 14:59:07.680021,194
2021-12-23 14:59:07.680025,480
2021-12-23 14:59:07.680029,870
2021-12-23 14:59:07.680034,894
2021-12-23 14:59:07.680038,161
2021-12-23 14:59:07.680043,-420
2021-12-23 14:59:07.680047,-129
2021-12-23 14:59:07.680052,105
2021-12-23 14:59:07.680056,-81
2021-12-23 14:59:07.680061,-91
2021-12-23 14:59:07.680065,12
2021-12-23 14:59:07.680070,-26
2021-12-23 14:59:07.680074,-43
2021-12-23 14:59:07.680078,7
2021-12-23 14:59:07.680083,7
2021-12-23 14:59:07.680087,-7
2021-12-23 14:59:07.680092,12
2021-12-23 14:59:07.680097,21
2021-12-23 14:59:07.680101,21
2021-12-23 14:59:07.680105,33
2021-12-23 14:59:07.680110,48
2021-12-23 14:59:07.994079,55
2021-12-23 14:59:07.994099,72
2021-12-23 14:59:07.994105,88
2021-12-23 14:59:07.994110,93
2021-12-23 14:59:07.994115,108
2021-12-23 14:59:07.994120,139
2021-12-23 14:59:07.994127,165
2021-12-23 14:59:07.994132,182
2021-12-23 14:59:07.994137,204
2021-12-23 14:59:07.994142,228
2021-12-23 14:59:07.994147,250
2021-12-23 14:59:07.994153,271
2021-12-23 14:59:07.994158,288
2021-12-23 14:59:07.994163,293
2021-12-23 14:59:07.994168,283
2021-12-23 14:59:07.994173,254
2021-12-23 14:59:07.994178,199
2021-12-23 14:59:07.994184,125
2021-12-23 14:59:07.994189,52
2021-12-23 14:59:07.994195,-7
2021-12-23 14:59:07.994201,-52
2021-12-23 14:59:07.994206,-76
2021-12-23 14:59:07.994211,-86
2021-12-23 14:59:07.994216,-88
2021-12-23 14:59:07.994221,-91
2021-12-23 14:59:07.994226,-88
2021-12-23 14:59:07.994231,-76
2021-12-23 14:59:07.994236,-62
2021-12-23 14:59:07.994242,-57
2021-12-23 14:59:07.994249,-55
2021-12-23 14:59:08.130372,-43
2021-12-23 14:59:08.130395,-38
2021-12-23 14:59:08.130402,-33
2021-12-23 14:59:08.130409,-26
2021-12-23 14:59:08.130415,-24
2021-12-23 14:59:08.130422,-21
2021-12-23 14:59:08.130428,-16
2021-12-23 14:59:08.130435,-16
2021-12-23 14:59:08.130441,-16
2021-12-23 14:59:08.130448,-9
2021-12-23 14:59:08.130454,2
2021-12-23 14:59:08.130461,4
2021-12-23 14:59:08.130467,4
2021-12-23 14:59:08.130479,4
2021-12-23 14:59:08.130486,0
2021-12-23 14:59:08.130493,0
2021-12-23 14:59:08.130499,9
2021-12-23 14:59:08.130506,12
2021-12-23 14:59:08.130512,7
2021-12-23 14:59:08.130518,4
2021-12-23 14:59:08.130525,12
2021-12-23 14:59:08.130531,16
2021-12-23 14:59:08.130537,9
2021-12-23 14:59:08.130544,4
2021-12-23 14:59:08.130550,4
2021-12-23 14:59:08.130556,9
2021-12-23 14:59:08.130563,16
2021-12-23 14:59:08.130569,19
2021-12-23 14:59:08.130575,24
2021-12-23 14:59:08.130597,36
2021-12-23 14:59:08.356114,31
2021-12-23 14:59:08.356208,19
2021-12-23 14:59:08.356220,14
2021-12-23 14:59:08.356231,14
2021-12-23 14:59:08.356256,14
2021-12-23 14:59:08.356262,16
2021-12-23 14:59:08.356269,19
2021-12-23 14:59:08.356275,16
2021-12-23 14:59:08.356281,16
2021-12-23 14:59:08.356288,21
2021-12-23 14:59:08.356294,26
2021-12-23 14:59:08.356300,36
2021-12-23 14:59:08.356307,40
2021-12-23 14:59:08.356313,86
2021-12-23 14:59:08.356319,271
2021-12-23 14:59:08.356326,620
2021-12-23 14:59:08.356332,976
2021-12-23 14:59:08.356341,750
2021-12-23 14:59:08.356348,-103
2021-12-23 14:59:08.356354,-394
2021-12-23 14:59:08.356361,16
2021-12-23 14:59:08.356367,72
2021-12-23 14:59:08.356373,-122
2021-12-23 14:59:08.356380,-48
2021-12-23 14:59:08.356386,24
2021-12-23 14:59:08.356392,-36
2021-12-23 14:59:08.356399,-33
2021-12-23 14:59:08.356405,-2
2021-12-23 14:59:08.356411,-9
2021-12-23 14:59:08.356418,-2
2021-12-23 14:59:08.626046,14
2021-12-23 14:59:08.626077,16
2021-12-23 14:59:08.626088,19
2021-12-23 14:59:08.626098,36
2021-12-23 14:59:08.626108,50
2021-12-23 14:59:08.626118,55
2021-12-23 14:59:08.626128,62
2021-12-23 14:59:08.626145,81
2021-12-23 14:59:08.626155,98
2021-12-23 14:59:08.626165,117
2021-12-23 14:59:08.626174,139
2021-12-23 14:59:08.626184,161
2021-12-23 14:59:08.626194,180
2021-12-23 14:59:08.626204,209
2021-12-23 14:59:08.626213,242
2021-12-23 14:59:08.626223,269
2021-12-23 14:59:08.626233,281
2021-12-23 14:59:08.626243,286
2021-12-23 14:59:08.626252,290
2021-12-23 14:59:08.626262,281
2021-12-23 14:59:08.626272,240
2021-12-23 14:59:08.626281,173
2021-12-23 14:59:08.626291,93
2021-12-23 14:59:08.626301,21
2021-12-23 14:59:08.626311,-28
2021-12-23 14:59:08.626320,-60
2021-12-23 14:59:08.626330,-79
2021-12-23 14:59:08.626340,-81
2021-12-23 14:59:08.626350,-72
2021-12-23 14:59:08.626361,-69
2021-12-23 14:59:08.805144,-72
2021-12-23 14:59:08.805167,-72
2021-12-23 14:59:08.805174,-62
2021-12-23 14:59:08.805181,-52
2021-12-23 14:59:08.805187,-48
2021-12-23 14:59:08.805194,-48
2021-12-23 14:59:08.805200,-38
2021-12-23 14:59:08.805206,-26
2021-12-23 14:59:08.805212,-24
2021-12-23 14:59:08.805219,-21
2021-12-23 14:59:08.805225,-14
2021-12-23 14:59:08.805231,-7
2021-12-23 14:59:08.805237,-7
2021-12-23 14:59:08.805244,-7
2021-12-23 14:59:08.805250,0
2021-12-23 14:59:08.805256,2
2021-12-23 14:59:08.805263,-2
2021-12-23 14:59:08.805269,-2
2021-12-23 14:59:08.805275,0
2021-12-23 14:59:08.805282,0
2021-12-23 14:59:08.805288,-2
2021-12-23 14:59:08.805294,0
2021-12-23 14:59:08.805301,9
2021-12-23 14:59:08.805307,12
2021-12-23 14:59:08.805319,4
2021-12-23 14:59:08.805326,7
2021-12-23 14:59:08.805332,14
2021-12-23 14:59:08.805339,12
2021-12-23 14:59:08.805345,9
2021-12-23 14:59:08.805351,9
2021-12-23 14:59:09.029998,4
2021-12-23 14:59:09.030019,-2
2021-12-23 14:59:09.030027,-12
2021-12-23 14:59:09.030034,-16
2021-12-23 14:59:09.030040,-12
2021-12-23 14:59:09.030046,4
2021-12-23 14:59:09.030053,21
2021-12-23 14:59:09.030059,26
2021-12-23 14:59:09.030066,21
2021-12-23 14:59:09.030072,12
2021-12-23 14:59:09.030079,2
2021-12-23 14:59:09.030086,0
2021-12-23 14:59:09.030092,2
2021-12-23 14:59:09.030099,2
2021-12-23 14:59:09.030105,4
2021-12-23 14:59:09.030112,12
2021-12-23 14:59:09.030118,14
2021-12-23 14:59:09.030124,16
2021-12-23 14:59:09.030131,24
2021-12-23 14:59:09.030137,38
2021-12-23 14:59:09.030144,43
2021-12-23 14:59:09.030150,88
2021-12-23 14:59:09.030158,283
2021-12-23 14:59:09.030165,639
2021-12-23 14:59:09.030171,971
2021-12-23 14:59:09.030178,694
2021-12-23 14:59:09.030184,-161
2021-12-23 14:59:09.030191,-401
2021-12-23 14:59:09.030197,19
2021-12-23 14:59:09.030203,52
2021-12-23 14:59:09.300628,-122
2021-12-23 14:59:09.300651,-38
2021-12-23 14:59:09.300659,14
2021-12-23 14:59:09.300666,-48
2021-12-23 14:59:09.300672,-38
2021-12-23 14:59:09.300678,-4
2021-12-23 14:59:09.300685,-12
2021-12-23 14:59:09.300691,-7
2021-12-23 14:59:09.300697,9
2021-12-23 14:59:09.300704,14
2021-12-23 14:59:09.300710,19
2021-12-23 14:59:09.300716,31
2021-12-23 14:59:09.300722,40
2021-12-23 14:59:09.300729,50
2021-12-23 14:59:09.300735,67
2021-12-23 14:59:09.300741,81
2021-12-23 14:59:09.300748,96
2021-12-23 14:59:09.300754,117
2021-12-23 14:59:09.300760,144
2021-12-23 14:59:09.300766,165
2021-12-23 14:59:09.300773,189
2021-12-23 14:59:09.300779,221
2021-12-23 14:59:09.300785,247
2021-12-23 14:59:09.300792,264
2021-12-23 14:59:09.300804,278
2021-12-23 14:59:09.300810,290
2021-12-23 14:59:09.300817,295
2021-12-23 14:59:09.300823,281
2021-12-23 14:59:09.300829,242
2021-12-23 14:59:09.300836,185
2021-12-23 14:59:09.525513,113
2021-12-23 14:59:09.525543,38
2021-12-23 14:59:09.525555,-16
2021-12-23 14:59:09.525565,-52
2021-12-23 14:59:09.525575,-67
2021-12-23 14:59:09.525585,-72
2021-12-23 14:59:09.525594,-74
2021-12-23 14:59:09.525604,-74
2021-12-23 14:59:09.525614,-74
2021-12-23 14:59:09.525623,-76
2021-12-23 14:59:09.525633,-64
2021-12-23 14:59:09.525643,-50
2021-12-23 14:59:09.525653,-43
2021-12-23 14:59:09.525662,-36
2021-12-23 14:59:09.525672,-33
2021-12-23 14:59:09.525682,-38
2021-12-23 14:59:09.525691,-31
2021-12-23 14:59:09.525701,-14
2021-12-23 14:59:09.525711,-7
2021-12-23 14:59:09.525720,-7
2021-12-23 14:59:09.525730,-2
2021-12-23 14:59:09.525739,-2
2021-12-23 14:59:09.525749,-4
2021-12-23 14:59:09.525759,0
2021-12-23 14:59:09.525769,7
2021-12-23 14:59:09.525778,2
2021-12-23 14:59:09.525788,2
2021-12-23 14:59:09.525798,9
2021-12-23 14:59:09.525807,12
2021-12-23 14:59:09.525817,4
2021-12-23 14:59:09.795792,2
2021-12-23 14:59:09.795813,14
2021-12-23 14:59:09.795821,24
2021-12-23 14:59:09.795828,26
2021-12-23 14:59:09.795834,24
2021-12-23 14:59:09.795841,26
2021-12-23 14:59:09.795847,33
2021-12-23 14:59:09.795853,38
2021-12-23 14:59:09.795860,26
2021-12-23 14:59:09.795866,19
2021-12-23 14:59:09.795872,19
2021-12-23 14:59:09.795879,16
2021-12-23 14:59:09.795885,14
2021-12-23 14:59:09.795891,9
2021-12-23 14:59:09.795898,4
2021-12-23 14:59:09.795904,4
2021-12-23 14:59:09.795911,14
2021-12-23 14:59:09.795917,24
2021-12-23 14:59:09.795923,31
2021-12-23 14:59:09.795930,45
2021-12-23 14:59:09.795936,48
2021-12-23 14:59:09.795942,40
2021-12-23 14:59:09.795949,33
2021-12-23 14:59:09.795955,31
2021-12-23 14:59:09.795961,31
2021-12-23 14:59:09.795968,36
2021-12-23 14:59:09.795974,36
2021-12-23 14:59:09.795980,36
2021-12-23 14:59:09.795986,40
2021-12-23 14:59:09.795993,40
2021-12-23 14:59:10.109160,36
2021-12-23 14:59:10.109190,40
2021-12-23 14:59:10.109201,55
2021-12-23 14:59:10.109211,146
2021-12-23 14:59:10.109221,406
2021-12-23 14:59:10.109231,803
2021-12-23 14:59:10.109240,990
2021-12-23 14:59:10.109250,418
2021-12-23 14:59:10.109259,-360
2021-12-23 14:59:10.109269,-262
2021-12-23 14:59:10.109283,105
2021-12-23 14:59:10.109293,-24
2021-12-23 14:59:10.109303,-122
2021-12-23 14:59:10.109312,-2
2021-12-23 14:59:10.109322,-4
2021-12-23 14:59:10.109332,-52
2021-12-23 14:59:10.109341,-14
2021-12-23 14:59:10.109351,12
2021-12-23 14:59:10.109360,2
2021-12-23 14:59:10.109370,9
2021-12-23 14:59:10.109379,16
2021-12-23 14:59:10.109389,19
2021-12-23 14:59:10.109399,31
2021-12-23 14:59:10.109408,50
2021-12-23 14:59:10.109418,57
2021-12-23 14:59:10.109427,64
2021-12-23 14:59:10.109437,86
2021-12-23 14:59:10.109446,103
2021-12-23 14:59:10.109456,113
2021-12-23 14:59:10.109465,129
2021-12-23 14:59:10.245555,151
2021-12-23 14:59:10.245585,168
2021-12-23 14:59:10.245597,197
2021-12-23 14:59:10.245606,235
2021-12-23 14:59:10.245616,257
2021-12-23 14:59:10.245626,271
2021-12-23 14:59:10.245635,286
2021-12-23 14:59:10.245645,288
2021-12-23 14:59:10.245655,281
2021-12-23 14:59:10.245664,262
2021-12-23 14:59:10.245674,221
2021-12-23 14:59:10.245684,158
2021-12-23 14:59:10.245694,88
2021-12-23 14:59:10.245704,19
2021-12-23 14:59:10.245714,-36
2021-12-23 14:59:10.245723,-67
2021-12-23 14:59:10.245733,-74
2021-12-23 14:59:10.245743,-79
2021-12-23 14:59:10.245752,-84
2021-12-23 14:59:10.245762,-81
2021-12-23 14:59:10.245772,-72
2021-12-23 14:59:10.245781,-64
2021-12-23 14:59:10.245791,-60
2021-12-23 14:59:10.245800,-60
2021-12-23 14:59:10.245810,-52
2021-12-23 14:59:10.245824,-38
2021-12-23 14:59:10.245834,-26
2021-12-23 14:59:10.245844,-31
2021-12-23 14:59:10.245853,-26
2021-12-23 14:59:10.245863,-7
2021-12-23 14:59:10.425514,-7
2021-12-23 14:59:10.425534,-19
2021-12-23 14:59:10.425541,-12
2021-12-23 14:59:10.425548,-4
2021-12-23 14:59:10.425554,-7
2021-12-23 14:59:10.425561,-9
2021-12-23 14:59:10.425567,-9
2021-12-23 14:59:10.425573,-7
2021-12-23 14:59:10.425579,-7
2021-12-23 14:59:10.425586,-4
2021-12-23 14:59:10.425592,-2
2021-12-23 14:59:10.425598,-7
2021-12-23 14:59:10.425605,-12
2021-12-23 14:59:10.425611,-7
2021-12-23 14:59:10.425617,-2
2021-12-23 14:59:10.425624,-12
2021-12-23 14:59:10.425630,-21
2021-12-23 14:59:10.425636,-24
2021-12-23 14:59:10.425642,-28
2021-12-23 14:59:10.425649,-36
2021-12-23 14:59:10.425655,-31
2021-12-23 14:59:10.425661,-24
2021-12-23 14:59:10.425667,-14
2021-12-23 14:59:10.425674,-2
2021-12-23 14:59:10.425680,2
2021-12-23 14:59:10.425686,4
2021-12-23 14:59:10.425693,9
2021-12-23 14:59:10.425699,0
2021-12-23 14:59:10.425706,-12
2021-12-23 14:59:10.425712,-7
2021-12-23 14:59:10.650221,0
2021-12-23 14:59:10.650243,0
2021-12-23 14:59:10.650250,0
2021-12-23 14:59:10.650256,2
2021-12-23 14:59:10.650263,2
2021-12-23 14:59:10.650269,2
2021-12-23 14:59:10.650275,12
2021-12-23 14:59:10.650281,28
2021-12-23 14:59:10.650288,117
2021-12-23 14:59:10.650294,370
2021-12-23 14:59:10.650300,750
2021-12-23 14:59:10.650306,921
2021-12-23 14:59:10.650312,365
2021-12-23 14:59:10.650319,-391
2021-12-23 14:59:10.650325,-317
2021-12-23 14:59:10.650331,57
2021-12-23 14:59:10.650343,-21
2021-12-23 14:59:10.650350,-110
2021-12-23 14:59:10.650357,-7
2021-12-23 14:59:10.650363,0
2021-12-23 14:59:10.650370,-38
2021-12-23 14:59:10.650376,-7
2021-12-23 14:59:10.650382,16
2021-12-23 14:59:10.650388,7
2021-12-23 14:59:10.650395,16
2021-12-23 14:59:10.650401,31
2021-12-23 14:59:10.650407,40
2021-12-23 14:59:10.650413,55
2021-12-23 14:59:10.650419,64
2021-12-23 14:59:10.650425,69
2021-12-23 14:59:10.874773,84
2021-12-23 14:59:10.874791,101
2021-12-23 14:59:10.874798,117
2021-12-23 14:59:10.874805,132
2021-12-23 14:59:10.874812,151
2021-12-23 14:59:10.874818,170
2021-12-23 14:59:10.874824,185
2021-12-23 14:59:10.874831,209
2021-12-23 14:59:10.874837,242
2021-12-23 14:59:10.874843,262
2021-12-23 14:59:10.874850,274
2021-12-23 14:59:10.874856,288
2021-12-23 14:59:10.874862,295
2021-12-23 14:59:10.874869,293
2021-12-23 14:59:10.874875,276
2021-12-23 14:59:10.874881,226
2021-12-23 14:59:10.874888,144
2021-12-23 14:59:10.874894,62
2021-12-23 14:59:10.874901,2
2021-12-23 14:59:10.874907,-45
2021-12-23 14:59:10.874913,-76
2021-12-23 14:59:10.874920,-91
2021-12-23 14:59:10.874926,-96
2021-12-23 14:59:10.874932,-91
2021-12-23 14:59:10.874939,-86
2021-12-23 14:59:10.874945,-76
2021-12-23 14:59:10.874951,-72
2021-12-23 14:59:10.874958,-72
2021-12-23 14:59:10.874964,-67
2021-12-23 14:59:10.874970,-52
2021-12-23 14:59:11.145513,-40
2021-12-23 14:59:11.145544,-36
2021-12-23 14:59:11.145555,-31
2021-12-23 14:59:11.145565,-31
2021-12-23 14:59:11.145575,-31
2021-12-23 14:59:11.145584,-21
2021-12-23 14:59:11.145593,-9
2021-12-23 14:59:11.145603,-7
2021-12-23 14:59:11.145612,-7
2021-12-23 14:59:11.145622,-7
2021-12-23 14:59:11.145631,-7
2021-12-23 14:59:11.145641,-4
2021-12-23 14:59:11.145650,-4
2021-12-23 14:59:11.145665,-4
2021-12-23 14:59:11.145674,-2
2021-12-23 14:59:11.145684,-4
2021-12-23 14:59:11.145693,-9
2021-12-23 14:59:11.145703,-4
2021-12-23 14:59:11.145712,7
2021-12-23 14:59:11.145722,7
2021-12-23 14:59:11.145731,4
2021-12-23 14:59:11.145741,7
2021-12-23 14:59:11.145750,4
2021-12-23 14:59:11.145760,-4
2021-12-23 14:59:11.145769,-9
2021-12-23 14:59:11.145779,-4
2021-12-23 14:59:11.145788,7
2021-12-23 14:59:11.145797,14
2021-12-23 14:59:11.145807,12
2021-12-23 14:59:11.145816,26
2021-12-23 14:59:11.505951,43
2021-12-23 14:59:11.505981,40
2021-12-23 14:59:11.505993,24
2021-12-23 14:59:11.506002,19
2021-12-23 14:59:11.506012,26
2021-12-23 14:59:11.506022,31
2021-12-23 14:59:11.506032,26
2021-12-23 14:59:11.506042,26
2021-12-23 14:59:11.506052,21
2021-12-23 14:59:11.506062,12
2021-12-23 14:59:11.506072,7
2021-12-23 14:59:11.506081,16
2021-12-23 14:59:11.506091,28
2021-12-23 14:59:11.506101,36
2021-12-23 14:59:11.506110,96
2021-12-23 14:59:11.506120,307
2021-12-23 14:59:11.506130,670
2021-12-23 14:59:11.506139,976
2021-12-23 14:59:11.506149,622
2021-12-23 14:59:11.506159,-226
2021-12-23 14:59:11.506169,-367
2021-12-23 14:59:11.506179,50
2021-12-23 14:59:11.506188,31
2021-12-23 14:59:11.506198,-132
2021-12-23 14:59:11.506208,-36
2021-12-23 14:59:11.506217,4
2021-12-23 14:59:11.506227,-48
2021-12-23 14:59:11.506237,-24
2021-12-23 14:59:11.506246,12
2021-12-23 14:59:11.506256,0
2021-12-23 14:59:11.686017,2
2021-12-23 14:59:11.686047,14
2021-12-23 14:59:11.686059,16
2021-12-23 14:59:11.686068,24
2021-12-23 14:59:11.686078,36
2021-12-23 14:59:11.686088,48
2021-12-23 14:59:11.686098,60
2021-12-23 14:59:11.686107,76
2021-12-23 14:59:11.686117,91
2021-12-23 14:59:11.686127,101
2021-12-23 14:59:11.686136,120
2021-12-23 14:59:11.686146,146
2021-12-23 14:59:11.686156,170
2021-12-23 14:59:11.686165,199
2021-12-23 14:59:11.686175,228
2021-12-23 14:59:11.686184,247
2021-12-23 14:59:11.686194,264
2021-12-23 14:59:11.686211,283
2021-12-23 14:59:11.686222,300
2021-12-23 14:59:11.686231,298
2021-12-23 14:59:11.686241,276
2021-12-23 14:59:11.686251,240
2021-12-23 14:59:11.686260,175
2021-12-23 14:59:11.686270,101
2021-12-23 14:59:11.686279,36
2021-12-23 14:59:11.686289,-21
2021-12-23 14:59:11.686299,-60
2021-12-23 14:59:11.686308,-72
2021-12-23 14:59:11.686318,-64
2021-12-23 14:59:11.686327,-57
2021-12-23 14:59:11.865916,-57
2021-12-23 14:59:11.865946,-55
2021-12-23 14:59:11.865958,-52
2021-12-23 14:59:11.865968,-50
2021-12-23 14:59:11.865978,-40
2021-12-23 14:59:11.865988,-31
2021-12-23 14:59:11.865998,-24
2021-12-23 14:59:11.866007,-19
2021-12-23 14:59:11.866017,-14
2021-12-23 14:59:11.866027,-9
2021-12-23 14:59:11.866037,-7
2021-12-23 14:59:11.866047,-4
2021-12-23 14:59:11.866056,0
2021-12-23 14:59:11.866066,0
2021-12-23 14:59:11.866076,0
2021-12-23 14:59:11.866086,4
2021-12-23 14:59:11.866096,14
2021-12-23 14:59:11.866106,21
2021-12-23 14:59:11.866115,19
2021-12-23 14:59:11.866125,16
2021-12-23 14:59:11.866135,24
2021-12-23 14:59:11.866145,24
2021-12-23 14:59:11.866155,14
2021-12-23 14:59:11.866165,14
2021-12-23 14:59:11.866174,19
2021-12-23 14:59:11.866184,4
2021-12-23 14:59:11.866194,-4
2021-12-23 14:59:11.866204,7
2021-12-23 14:59:11.866214,12
2021-12-23 14:59:11.866223,2
2021-12-23 14:59:12.089152,-14
2021-12-23 14:59:12.089183,-16
2021-12-23 14:59:12.089195,0
2021-12-23 14:59:12.089205,2
2021-12-23 14:59:12.089215,9
2021-12-23 14:59:12.089224,31
2021-12-23 14:59:12.089234,50
2021-12-23 14:59:12.089244,36
2021-12-23 14:59:12.089254,4
2021-12-23 14:59:12.089263,-2
2021-12-23 14:59:12.089273,12
2021-12-23 14:59:12.089283,9
2021-12-23 14:59:12.089293,-4
2021-12-23 14:59:12.089303,0
2021-12-23 14:59:12.089312,4
2021-12-23 14:59:12.089322,-2
2021-12-23 14:59:12.089333,0
2021-12-23 14:59:12.089343,7
2021-12-23 14:59:12.089352,7
2021-12-23 14:59:12.089362,26
2021-12-23 14:59:12.089372,156
2021-12-23 14:59:12.089382,490
2021-12-23 14:59:12.089392,933
2021-12-23 14:59:12.089402,959
2021-12-23 14:59:12.089412,156
2021-12-23 14:59:12.089421,-500
2021-12-23 14:59:12.089431,-199
2021-12-23 14:59:12.089441,86
2021-12-23 14:59:12.089451,-93
2021-12-23 14:59:12.089466,-125
2021-12-23 14:59:12.270973,-26
2021-12-23 14:59:12.271003,-50
2021-12-23 14:59:12.271015,-62
2021-12-23 14:59:12.271025,-19
2021-12-23 14:59:12.271034,-14
2021-12-23 14:59:12.271044,-28
2021-12-23 14:59:12.271053,-12
2021-12-23 14:59:12.271063,4
2021-12-23 14:59:12.271072,12
2021-12-23 14:59:12.271082,19
2021-12-23 14:59:12.271092,28
2021-12-23 14:59:12.271101,38
2021-12-23 14:59:12.271110,48
2021-12-23 14:59:12.271120,64
2021-12-23 14:59:12.271129,81
2021-12-23 14:59:12.271139,96
2021-12-23 14:59:12.271148,125
2021-12-23 14:59:12.271158,158
2021-12-23 14:59:12.271167,182
2021-12-23 14:59:12.271177,209
2021-12-23 14:59:12.271186,242
2021-12-23 14:59:12.271196,264
2021-12-23 14:59:12.271205,276
2021-12-23 14:59:12.271215,290
2021-12-23 14:59:12.271225,298
2021-12-23 14:59:12.271234,290
2021-12-23 14:59:12.271244,264
2021-12-23 14:59:12.271253,204
2021-12-23 14:59:12.271263,125
2021-12-23 14:59:12.271272,48
2021-12-23 14:59:12.540998,-14
2021-12-23 14:59:12.541019,-57
2021-12-23 14:59:12.541027,-84
2021-12-23 14:59:12.541034,-101
2021-12-23 14:59:12.541040,-108
2021-12-23 14:59:12.541046,-103
2021-12-23 14:59:12.541053,-93
2021-12-23 14:59:12.541059,-88
2021-12-23 14:59:12.541066,-86
2021-12-23 14:59:12.541072,-76
2021-12-23 14:59:12.541079,-69
2021-12-23 14:59:12.541085,-64
2021-12-23 14:59:12.541091,-62
2021-12-23 14:59:12.541098,-57
2021-12-23 14:59:12.541104,-50
2021-12-23 14:59:12.541110,-40
2021-12-23 14:59:12.541117,-38
2021-12-23 14:59:12.541123,-38
2021-12-23 14:59:12.541130,-36
2021-12-23 14:59:12.541136,-28
2021-12-23 14:59:12.541142,-21
2021-12-23 14:59:12.541148,-21
2021-12-23 14:59:12.541155,-19
2021-12-23 14:59:12.541161,-14
2021-12-23 14:59:12.541167,-14
2021-12-23 14:59:12.541174,-12
2021-12-23 14:59:12.541180,-14
2021-12-23 14:59:12.541186,-21
2021-12-23 14:59:12.541193,-21
2021-12-23 14:59:12.541199,-16
2021-12-23 14:59:12.720449,-12
2021-12-23 14:59:12.720480,-9
2021-12-23 14:59:12.720491,-4
2021-12-23 14:59:12.720502,12
2021-12-23 14:59:12.720512,24
2021-12-23 14:59:12.720522,14
2021-12-23 14:59:12.720532,0
2021-12-23 14:59:12.720542,-4
2021-12-23 14:59:12.720552,-19
2021-12-23 14:59:12.720561,-16
2021-12-23 14:59:12.720571,4
2021-12-23 14:59:12.720581,2
2021-12-23 14:59:12.720591,-14
2021-12-23 14:59:12.720601,-19
2021-12-23 14:59:12.720611,-9
2021-12-23 14:59:12.720621,-4
2021-12-23 14:59:12.720631,-12
2021-12-23 14:59:12.720640,-16
2021-12-23 14:59:12.720650,55
2021-12-23 14:59:12.720660,295
2021-12-23 14:59:12.720675,692
2021-12-23 14:59:12.720685,981
2021-12-23 14:59:12.720695,562
2021-12-23 14:59:12.720705,-278
2021-12-23 14:59:12.720715,-351
2021-12-23 14:59:12.720724,67
2021-12-23 14:59:12.720734,21
2021-12-23 14:59:12.720744,-117
2021-12-23 14:59:12.720754,-21
2021-12-23 14:59:12.720763,-2
2021-12-23 14:59:12.990206,-57
2021-12-23 14:59:12.990231,-21
2021-12-23 14:59:12.990239,16
2021-12-23 14:59:12.990245,-2
2021-12-23 14:59:12.990252,-7
2021-12-23 14:59:12.990258,19
2021-12-23 14:59:12.990265,31
2021-12-23 14:59:12.990271,28
2021-12-23 14:59:12.990277,31
2021-12-23 14:59:12.990283,38
2021-12-23 14:59:12.990290,52
2021-12-23 14:59:12.990296,64
2021-12-23 14:59:12.990302,72
2021-12-23 14:59:12.990309,81
2021-12-23 14:59:12.990315,103
2021-12-23 14:59:12.990321,134
2021-12-23 14:59:12.990327,165
2021-12-23 14:59:12.990334,187
2021-12-23 14:59:12.990340,221
2021-12-23 14:59:12.990346,264
2021-12-23 14:59:12.990353,278
2021-12-23 14:59:12.990359,271
2021-12-23 14:59:12.990365,269
2021-12-23 14:59:12.990371,264
2021-12-23 14:59:12.990378,242
2021-12-23 14:59:12.990384,199
2021-12-23 14:59:12.990391,127
2021-12-23 14:59:12.990397,14
2021-12-23 14:59:12.990403,-67
2021-12-23 14:59:12.990409,-76
2021-12-23 14:59:13.215484,-72
2021-12-23 14:59:13.215514,-57
2021-12-23 14:59:13.215525,-81
2021-12-23 14:59:13.215535,-139
2021-12-23 14:59:13.215545,-110
2021-12-23 14:59:13.215554,-48
2021-12-23 14:59:13.215564,-64
2021-12-23 14:59:13.215574,-81
2021-12-23 14:59:13.215583,-69
2021-12-23 14:59:13.215593,-60
2021-12-23 14:59:13.215603,-45
2021-12-23 14:59:13.215613,-28
2021-12-23 14:59:13.215622,-28
2021-12-23 14:59:13.215632,-28
2021-12-23 14:59:13.215642,-26
2021-12-23 14:59:13.215652,-16
2021-12-23 14:59:13.215662,4
2021-12-23 14:59:13.215672,-7
2021-12-23 14:59:13.215681,-48
2021-12-23 14:59:13.215691,-52
2021-12-23 14:59:13.215701,-36
2021-12-23 14:59:13.215710,-12
2021-12-23 14:59:13.215720,12
2021-12-23 14:59:13.215730,0
2021-12-23 14:59:13.215740,-16
2021-12-23 14:59:13.215749,-21
2021-12-23 14:59:13.215759,-26
2021-12-23 14:59:13.215769,-19
2021-12-23 14:59:13.215778,-7
2021-12-23 14:59:13.215788,-2
2021-12-23 14:59:13.440636,2
2021-12-23 14:59:13.440658,9
2021-12-23 14:59:13.440665,33
2021-12-23 14:59:13.440672,57
2021-12-23 14:59:13.440678,60
2021-12-23 14:59:13.440684,31
2021-12-23 14:59:13.440690,4
2021-12-23 14:59:13.440697,14
2021-12-23 14:59:13.440703,21
2021-12-23 14:59:13.440709,24
2021-12-23 14:59:13.440715,31
2021-12-23 14:59:13.440722,-12
2021-12-23 14:59:13.440728,-38
2021-12-23 14:59:13.440734,9
2021-12-23 14:59:13.440740,21
2021-12-23 14:59:13.440747,4
2021-12-23 14:59:13.440753,40
2021-12-23 14:59:13.440759,161
2021-12-23 14:59:13.440765,435
2021-12-23 14:59:13.440772,846
2021-12-23 14:59:13.440778,995
2021-12-23 14:59:13.440784,339
2021-12-23 14:59:13.440794,-408
2021-12-23 14:59:13.440801,-221
2021-12-23 14:59:13.440807,129
2021-12-23 14:59:13.440813,-40
2021-12-23 14:59:13.440820,-134
2021-12-23 14:59:13.440826,-12
2021-12-23 14:59:13.440833,-12
2021-12-23 14:59:13.440840,-43
2021-12-23 14:59:13.665702,2
2021-12-23 14:59:13.665724,16
2021-12-23 14:59:13.665731,0
2021-12-23 14:59:13.665738,9
2021-12-23 14:59:13.665744,7
2021-12-23 14:59:13.665751,0
2021-12-23 14:59:13.665757,36
2021-12-23 14:59:13.665764,48
2021-12-23 14:59:13.665770,28
2021-12-23 14:59:13.665776,45
2021-12-23 14:59:13.665783,76
2021-12-23 14:59:13.665789,84
2021-12-23 14:59:13.665796,101
2021-12-23 14:59:13.665802,120
2021-12-23 14:59:13.665809,139
2021-12-23 14:59:13.665815,173
2021-12-23 14:59:13.665821,199
2021-12-23 14:59:13.665828,216
2021-12-23 14:59:13.665834,238
2021-12-23 14:59:13.665840,262
2021-12-23 14:59:13.665847,276
2021-12-23 14:59:13.665853,276
2021-12-23 14:59:13.665859,278
2021-12-23 14:59:13.665866,257
2021-12-23 14:59:13.665872,185
2021-12-23 14:59:13.665878,96
2021-12-23 14:59:13.665885,16
2021-12-23 14:59:13.665891,-26
2021-12-23 14:59:13.665897,-38
2021-12-23 14:59:13.665904,-64
2021-12-23 14:59:13.890454,-72
2021-12-23 14:59:13.890475,-74
2021-12-23 14:59:13.890482,-88
2021-12-23 14:59:13.890489,-74
2021-12-23 14:59:13.890495,-50
2021-12-23 14:59:13.890501,-50
2021-12-23 14:59:13.890508,-31
2021-12-23 14:59:13.890514,-9
2021-12-23 14:59:13.890520,-31
2021-12-23 14:59:13.890527,-24
2021-12-23 14:59:13.890533,19
2021-12-23 14:59:13.890539,-4
2021-12-23 14:59:13.890546,-33
2021-12-23 14:59:13.890552,-7
2021-12-23 14:59:13.890558,0
2021-12-23 14:59:13.890565,-9
2021-12-23 14:59:13.890571,4
2021-12-23 14:59:13.890577,14
2021-12-23 14:59:13.890601,9
2021-12-23 14:59:13.890611,7
2021-12-23 14:59:13.890635,0
2021-12-23 14:59:13.890642,-7
2021-12-23 14:59:13.890648,7
2021-12-23 14:59:13.890655,9
2021-12-23 14:59:13.890661,-9
2021-12-23 14:59:13.890667,-12
2021-12-23 14:59:13.890674,-2
2021-12-23 14:59:13.890680,-7
2021-12-23 14:59:13.890686,-2
2021-12-23 14:59:13.890692,28
2021-12-23 14:59:14.204663,28
2021-12-23 14:59:14.204694,-7
2021-12-23 14:59:14.204705,-2
2021-12-23 14:59:14.204715,28
2021-12-23 14:59:14.204725,19
2021-12-23 14:59:14.204735,-4
2021-12-23 14:59:14.204746,-14
2021-12-23 14:59:14.204755,-4
2021-12-23 14:59:14.204765,19
2021-12-23 14:59:14.204775,26
2021-12-23 14:59:14.204785,16
2021-12-23 14:59:14.204794,16
2021-12-23 14:59:14.204804,33
2021-12-23 14:59:14.204814,74
2021-12-23 14:59:14.204824,218
2021-12-23 14:59:14.204834,541
2021-12-23 14:59:14.204843,954
2021-12-23 14:59:14.204853,949
2021-12-23 14:59:14.204863,144
2021-12-23 14:59:14.204872,-476
2021-12-23 14:59:14.204882,-156
2021-12-23 14:59:14.204892,113
2021-12-23 14:59:14.204901,-84
2021-12-23 14:59:14.204911,-110
2021-12-23 14:59:14.204921,7
2021-12-23 14:59:14.204931,-14
2021-12-23 14:59:14.204940,-38
2021-12-23 14:59:14.204950,2
2021-12-23 14:59:14.204960,9
2021-12-23 14:59:14.204970,4
2021-12-23 14:59:14.340901,24
2021-12-23 14:59:14.340931,33
2021-12-23 14:59:14.340943,31
2021-12-23 14:59:14.340952,36
2021-12-23 14:59:14.340962,50
2021-12-23 14:59:14.340978,67
2021-12-23 14:59:14.340988,76
2021-12-23 14:59:14.340998,88
2021-12-23 14:59:14.341008,105
2021-12-23 14:59:14.341017,127
2021-12-23 14:59:14.341027,141
2021-12-23 14:59:14.341037,146
2021-12-23 14:59:14.341047,158
2021-12-23 14:59:14.341057,202
2021-12-23 14:59:14.341067,245
2021-12-23 14:59:14.341076,230
2021-12-23 14:59:14.341086,228
2021-12-23 14:59:14.341096,264
2021-12-23 14:59:14.341106,264
2021-12-23 14:59:14.341116,235
2021-12-23 14:59:14.341126,202
2021-12-23 14:59:14.341136,144
2021-12-23 14:59:14.341146,60
2021-12-23 14:59:14.341156,-26
2021-12-23 14:59:14.341166,-84
2021-12-23 14:59:14.341175,-93
2021-12-23 14:59:14.341185,-86
2021-12-23 14:59:14.341195,-122
2021-12-23 14:59:14.341205,-161
2021-12-23 14:59:14.341214,-129
2021-12-23 14:59:14.565447,-101
2021-12-23 14:59:14.565477,-110
2021-12-23 14:59:14.565489,-105
2021-12-23 14:59:14.565499,-91
2021-12-23 14:59:14.565508,-86
2021-12-23 14:59:14.565518,-86
2021-12-23 14:59:14.565527,-81
2021-12-23 14:59:14.565537,-79
2021-12-23 14:59:14.565546,-79
2021-12-23 14:59:14.565556,-81
2021-12-23 14:59:14.565565,-84
2021-12-23 14:59:14.565575,-74
2021-12-23 14:59:14.565584,-52
2021-12-23 14:59:14.565594,-52
2021-12-23 14:59:14.565603,-62
2021-12-23 14:59:14.565613,-57
2021-12-23 14:59:14.565622,-50
2021-12-23 14:59:14.565632,-55
2021-12-23 14:59:14.565642,-48
2021-12-23 14:59:14.565651,-31
2021-12-23 14:59:14.565661,-28
2021-12-23 14:59:14.565670,-40
2021-12-23 14:59:14.565680,-28
2021-12-23 14:59:14.565689,-7
2021-12-23 14:59:14.565699,2
2021-12-23 14:59:14.565708,4
2021-12-23 14:59:14.565718,0
2021-12-23 14:59:14.565728,-14
2021-12-23 14:59:14.565737,-21
2021-12-23 14:59:14.565747,-14
2021-12-23 14:59:14.835960,-9
2021-12-23 14:59:14.835990,-7
2021-12-23 14:59:14.836001,-2
2021-12-23 14:59:14.836011,-2
2021-12-23 14:59:14.836021,-7
2021-12-23 14:59:14.836031,2
2021-12-23 14:59:14.836041,12
2021-12-23 14:59:14.836050,48
2021-12-23 14:59:14.836060,242
2021-12-23 14:59:14.836070,632
2021-12-23 14:59:14.836079,925
2021-12-23 14:59:14.836089,545
2021-12-23 14:59:14.836099,-269
2021-12-23 14:59:14.836108,-394
2021-12-23 14:59:14.836118,7
2021-12-23 14:59:14.836127,16
2021-12-23 14:59:14.836137,-113
2021-12-23 14:59:14.836147,-24
2021-12-23 14:59:14.836156,16
2021-12-23 14:59:14.836166,-24
2021-12-23 14:59:14.836176,-2
2021-12-23 14:59:14.836185,14
2021-12-23 14:59:14.836195,2
2021-12-23 14:59:14.836204,26
2021-12-23 14:59:14.836213,50
2021-12-23 14:59:14.836223,40
2021-12-23 14:59:14.836232,45
2021-12-23 14:59:14.836242,64
2021-12-23 14:59:14.836251,74
2021-12-23 14:59:14.836261,86
2021-12-23 14:59:15.059846,105
2021-12-23 14:59:15.059866,122
2021-12-23 14:59:15.059874,137
2021-12-23 14:59:15.059880,153
2021-12-23 14:59:15.059887,177
2021-12-23 14:59:15.059893,206
2021-12-23 14:59:15.059899,235
2021-12-23 14:59:15.059906,259
2021-12-23 14:59:15.059912,276
2021-12-23 14:59:15.059918,286
2021-12-23 14:59:15.059925,293
2021-12-23 14:59:15.059931,298
2021-12-23 14:59:15.059938,281
2021-12-23 14:59:15.059944,230
2021-12-23 14:59:15.059950,161
2021-12-23 14:59:15.059957,81
2021-12-23 14:59:15.059963,2
2021-12-23 14:59:15.059969,-50
2021-12-23 14:59:15.059976,-76
2021-12-23 14:59:15.059982,-96
2021-12-23 14:59:15.059989,-105
2021-12-23 14:59:15.059995,-108
2021-12-23 14:59:15.060001,-103
2021-12-23 14:59:15.060008,-93
2021-12-23 14:59:15.060014,-88
2021-12-23 14:59:15.060020,-86
2021-12-23 14:59:15.060027,-76
2021-12-23 14:59:15.060033,-67
2021-12-23 14:59:15.060040,-62
2021-12-23 14:59:15.060046,-57
2021-12-23 14:59:15.330433,-48
2021-12-23 14:59:15.330459,-38
2021-12-23 14:59:15.330484,-36
2021-12-23 14:59:15.330494,-31
2021-12-23 14:59:15.330504,-26
2021-12-23 14:59:15.330514,-21
2021-12-23 14:59:15.330523,-16
2021-12-23 14:59:15.330533,-16
2021-12-23 14:59:15.330543,-19
2021-12-23 14:59:15.330552,-21
2021-12-23 14:59:15.330562,-21
2021-12-23 14:59:15.330571,-24
2021-12-23 14:59:15.330581,-21
2021-12-23 14:59:15.330591,-19
2021-12-23 14:59:15.330600,-19
2021-12-23 14:59:15.330610,-9
2021-12-23 14:59:15.330619,7
2021-12-23 14:59:15.330629,19
2021-12-23 14:59:15.330639,21
2021-12-23 14:59:15.330648,19
2021-12-23 14:59:15.330658,9
2021-12-23 14:59:15.330667,2
2021-12-23 14:59:15.330677,2
2021-12-23 14:59:15.330686,4
2021-12-23 14:59:15.330696,4
2021-12-23 14:59:15.330705,7
2021-12-23 14:59:15.330715,14
2021-12-23 14:59:15.330724,16
2021-12-23 14:59:15.330734,14
2021-12-23 14:59:15.330743,21
2021-12-23 14:59:15.510895,33
2021-12-23 14:59:15.510926,79
2021-12-23 14:59:15.510938,264
2021-12-23 14:59:15.510947,625
2021-12-23 14:59:15.510957,1000
2021-12-23 14:59:15.510967,788
2021-12-23 14:59:15.510976,-88
2021-12-23 14:59:15.510986,-420
2021-12-23 14:59:15.510995,-4
2021-12-23 14:59:15.511005,72
2021-12-23 14:59:15.511015,-117
2021-12-23 14:59:15.511024,-45
2021-12-23 14:59:15.511033,26
2021-12-23 14:59:15.511043,-33
2021-12-23 14:59:15.511052,-28
2021-12-23 14:59:15.511062,12
2021-12-23 14:59:15.511072,4
2021-12-23 14:59:15.511081,2
2021-12-23 14:59:15.511091,16
2021-12-23 14:59:15.511100,16
2021-12-23 14:59:15.511110,24
2021-12-23 14:59:15.511119,36
2021-12-23 14:59:15.511128,43
2021-12-23 14:59:15.511138,55
2021-12-23 14:59:15.511147,74
2021-12-23 14:59:15.511157,91
2021-12-23 14:59:15.511166,105
2021-12-23 14:59:15.511176,122
2021-12-23 14:59:15.511185,141
2021-12-23 14:59:15.511195,163
2021-12-23 14:59:15.736050,194
2021-12-23 14:59:15.736071,221
2021-12-23 14:59:15.736079,242
2021-12-23 14:59:15.736086,259
2021-12-23 14:59:15.736092,274
2021-12-23 14:59:15.736098,278
2021-12-23 14:59:15.736105,271
2021-12-23 14:59:15.736111,235
2021-12-23 14:59:15.736117,170
2021-12-23 14:59:15.736124,91
2021-12-23 14:59:15.736130,19
2021-12-23 14:59:15.736136,-36
2021-12-23 14:59:15.736143,-76
2021-12-23 14:59:15.736149,-101
2021-12-23 14:59:15.736155,-103
2021-12-23 14:59:15.736161,-96
2021-12-23 14:59:15.736168,-91
2021-12-23 14:59:15.736174,-91
2021-12-23 14:59:15.736180,-88
2021-12-23 14:59:15.736187,-81
2021-12-23 14:59:15.736193,-74
2021-12-23 14:59:15.736199,-74
2021-12-23 14:59:15.736205,-67
2021-12-23 14:59:15.736212,-60
2021-12-23 14:59:15.736218,-55
2021-12-23 14:59:15.736224,-50
2021-12-23 14:59:15.736230,-40
2021-12-23 14:59:15.736237,-36
2021-12-23 14:59:15.736243,-36
2021-12-23 14:59:15.736249,-33
2021-12-23 14:59:15.960207,-24
2021-12-23 14:59:15.960226,-24
2021-12-23 14:59:15.960232,-26
2021-12-23 14:59:15.960237,-28
2021-12-23 14:59:15.960242,-33
2021-12-23 14:59:15.960248,-38
2021-12-23 14:59:15.960253,-33
2021-12-23 14:59:15.960258,-26
2021-12-23 14:59:15.960263,-21
2021-12-23 14:59:15.960268,-14
2021-12-23 14:59:15.960274,0
2021-12-23 14:59:15.960279,9
2021-12-23 14:59:15.960284,0
2021-12-23 14:59:15.960289,-12
2021-12-23 14:59:15.960294,-16
2021-12-23 14:59:15.960299,-19
2021-12-23 14:59:15.960305,-14
2021-12-23 14:59:15.960310,-12
2021-12-23 14:59:15.960315,-12
2021-12-23 14:59:15.960320,-12
2021-12-23 14:59:15.960325,-4
2021-12-23 14:59:15.960330,7
2021-12-23 14:59:15.960335,16
2021-12-23 14:59:15.960340,16
2021-12-23 14:59:15.960346,33
2021-12-23 14:59:15.960351,173
2021-12-23 14:59:15.960356,500
2021-12-23 14:59:15.960361,923
2021-12-23 14:59:15.960366,959
2021-12-23 14:59:15.960371,185
2021-12-23 14:59:16.274104,-454
2021-12-23 14:59:16.274134,-163
2021-12-23 14:59:16.274146,101
2021-12-23 14:59:16.274156,-98
2021-12-23 14:59:16.274166,-117
2021-12-23 14:59:16.274176,4
2021-12-23 14:59:16.274185,-26
2021-12-23 14:59:16.274195,-55
2021-12-23 14:59:16.274205,-7
2021-12-23 14:59:16.274214,0
2021-12-23 14:59:16.274224,-12
2021-12-23 14:59:16.274239,4
2021-12-23 14:59:16.274249,16
2021-12-23 14:59:16.274259,19
2021-12-23 14:59:16.274269,31
2021-12-23 14:59:16.274278,43
2021-12-23 14:59:16.274288,52
2021-12-23 14:59:16.274298,64
2021-12-23 14:59:16.274307,81
2021-12-23 14:59:16.274317,103
2021-12-23 14:59:16.274327,120
2021-12-23 14:59:16.274336,134
2021-12-23 14:59:16.274346,165
2021-12-23 14:59:16.274356,204
2021-12-23 14:59:16.274365,230
2021-12-23 14:59:16.274375,250
2021-12-23 14:59:16.274385,271
2021-12-23 14:59:16.274394,286
2021-12-23 14:59:16.274404,288
2021-12-23 14:59:16.274413,283
2021-12-23 14:59:16.409490,257
2021-12-23 14:59:16.409505,194
2021-12-23 14:59:16.409511,113
2021-12-23 14:59:16.409516,36
2021-12-23 14:59:16.409521,-26
2021-12-23 14:59:16.409526,-69
2021-12-23 14:59:16.409531,-88
2021-12-23 14:59:16.409536,-96
2021-12-23 14:59:16.409541,-96
2021-12-23 14:59:16.409546,-93
2021-12-23 14:59:16.409551,-93
2021-12-23 14:59:16.409556,-93
2021-12-23 14:59:16.409561,-88
2021-12-23 14:59:16.409566,-74
2021-12-23 14:59:16.409571,-62
2021-12-23 14:59:16.409576,-60
2021-12-23 14:59:16.409581,-60
2021-12-23 14:59:16.409586,-55
2021-12-23 14:59:16.409591,-48
2021-12-23 14:59:16.409596,-45
2021-12-23 14:59:16.409601,-40
2021-12-23 14:59:16.409606,-36
2021-12-23 14:59:16.409611,-36
2021-12-23 14:59:16.409616,-33
2021-12-23 14:59:16.409621,-26
2021-12-23 14:59:16.409626,-21
2021-12-23 14:59:16.409631,-21
2021-12-23 14:59:16.409636,-19
2021-12-23 14:59:16.409641,-14
2021-12-23 14:59:16.409646,-19
2021-12-23 14:59:16.681038,-33
2021-12-23 14:59:16.681069,-38
2021-12-23 14:59:16.681080,-36
2021-12-23 14:59:16.681090,-38
2021-12-23 14:59:16.681100,-36
2021-12-23 14:59:16.681109,-26
2021-12-23 14:59:16.681119,-24
2021-12-23 14:59:16.681128,-14
2021-12-23 14:59:16.681138,0
2021-12-23 14:59:16.681148,-2
2021-12-23 14:59:16.681157,-21
2021-12-23 14:59:16.681167,-28
2021-12-23 14:59:16.681177,-21
2021-12-23 14:59:16.681186,-14
2021-12-23 14:59:16.681196,-9
2021-12-23 14:59:16.681205,-12
2021-12-23 14:59:16.681215,-14
2021-12-23 14:59:16.681225,-7
2021-12-23 14:59:16.681235,2
2021-12-23 14:59:16.681244,2
2021-12-23 14:59:16.681254,4
2021-12-23 14:59:16.681263,9
2021-12-23 14:59:16.681273,57
2021-12-23 14:59:16.681283,266
2021-12-23 14:59:16.681292,644
2021-12-23 14:59:16.681302,981
2021-12-23 14:59:16.681311,702
2021-12-23 14:59:16.681321,-158
2021-12-23 14:59:16.681331,-401
2021-12-23 14:59:16.681340,21
2021-12-23 14:59:16.905923,62
2021-12-23 14:59:16.905954,-120
2021-12-23 14:59:16.905965,-38
2021-12-23 14:59:16.905975,19
2021-12-23 14:59:16.905985,-40
2021-12-23 14:59:16.905994,-24
2021-12-23 14:59:16.906004,21
2021-12-23 14:59:16.906013,14
2021-12-23 14:59:16.906023,9
2021-12-23 14:59:16.906033,24
2021-12-23 14:59:16.906042,31
2021-12-23 14:59:16.906052,40
2021-12-23 14:59:16.906062,50
2021-12-23 14:59:16.906071,52
2021-12-23 14:59:16.906081,64
2021-12-23 14:59:16.906091,84
2021-12-23 14:59:16.906100,96
2021-12-23 14:59:16.906110,113
2021-12-23 14:59:16.906119,137
2021-12-23 14:59:16.906129,161
2021-12-23 14:59:16.906138,187
2021-12-23 14:59:16.906148,216
2021-12-23 14:59:16.906158,242
2021-12-23 14:59:16.906167,264
2021-12-23 14:59:16.906177,283
2021-12-23 14:59:16.906187,298
2021-12-23 14:59:16.906196,303
2021-12-23 14:59:16.906206,293
2021-12-23 14:59:16.906216,257
2021-12-23 14:59:16.906225,192
2021-12-23 14:59:17.130491,113
2021-12-23 14:59:17.130521,40
2021-12-23 14:59:17.130532,-19
2021-12-23 14:59:17.130542,-57
2021-12-23 14:59:17.130552,-76
2021-12-23 14:59:17.130561,-91
2021-12-23 14:59:17.130571,-96
2021-12-23 14:59:17.130581,-88
2021-12-23 14:59:17.130591,-81
2021-12-23 14:59:17.130600,-76
2021-12-23 14:59:17.130610,-74
2021-12-23 14:59:17.130619,-69
2021-12-23 14:59:17.130629,-60
2021-12-23 14:59:17.130638,-55
2021-12-23 14:59:17.130648,-55
2021-12-23 14:59:17.130658,-52
2021-12-23 14:59:17.130667,-50
2021-12-23 14:59:17.130677,-50
2021-12-23 14:59:17.130686,-45
2021-12-23 14:59:17.130696,-43
2021-12-23 14:59:17.130705,-38
2021-12-23 14:59:17.130715,-33
2021-12-23 14:59:17.130724,-26
2021-12-23 14:59:17.130734,-24
2021-12-23 14:59:17.130744,-21
2021-12-23 14:59:17.130753,-21
2021-12-23 14:59:17.130763,-21
2021-12-23 14:59:17.130772,-19
2021-12-23 14:59:17.130782,-16
2021-12-23 14:59:17.130791,-14
2021-12-23 14:59:17.355921,-9
2021-12-23 14:59:17.355952,-9
2021-12-23 14:59:17.355963,-7
2021-12-23 14:59:17.355973,-4
2021-12-23 14:59:17.355983,-4
2021-12-23 14:59:17.355992,-2
2021-12-23 14:59:17.356002,-4
2021-12-23 14:59:17.356011,-9
2021-12-23 14:59:17.356032,-9
2021-12-23 14:59:17.356042,-2
2021-12-23 14:59:17.356051,4
2021-12-23 14:59:17.356061,12
2021-12-23 14:59:17.356071,26
2021-12-23 14:59:17.356080,38
2021-12-23 14:59:17.356089,31
2021-12-23 14:59:17.356099,21
2021-12-23 14:59:17.356108,16
2021-12-23 14:59:17.356118,14
2021-12-23 14:59:17.356127,16
2021-12-23 14:59:17.356137,19
2021-12-23 14:59:17.356146,24
2021-12-23 14:59:17.356156,26
2021-12-23 14:59:17.356165,28
2021-12-23 14:59:17.356175,38
2021-12-23 14:59:17.356184,38
2021-12-23 14:59:17.356194,31
2021-12-23 14:59:17.356203,48
2021-12-23 14:59:17.356213,158
2021-12-23 14:59:17.356222,432
2021-12-23 14:59:17.356232,841
2021-12-23 14:59:17.581027,1014
2021-12-23 14:59:17.581057,401
2021-12-23 14:59:17.581069,-360
2021-12-23 14:59:17.581079,-218
2021-12-23 14:59:17.581089,132
2021-12-23 14:59:17.581098,-21
2021-12-23 14:59:17.581108,-110
2021-12-23 14:59:17.581118,7
2021-12-23 14:59:17.581127,-4
2021-12-23 14:59:17.581137,-50
2021-12-23 14:59:17.581146,-7
2021-12-23 14:59:17.581156,9
2021-12-23 14:59:17.581166,-19
2021-12-23 14:59:17.581175,-14
2021-12-23 14:59:17.581185,7
2021-12-23 14:59:17.581194,14
2021-12-23 14:59:17.581204,14
2021-12-23 14:59:17.581213,21
2021-12-23 14:59:17.581223,36
2021-12-23 14:59:17.581233,45
2021-12-23 14:59:17.581242,55
2021-12-23 14:59:17.581252,84
2021-12-23 14:59:17.581261,110
2021-12-23 14:59:17.581271,129
2021-12-23 14:59:17.581281,165
2021-12-23 14:59:17.581290,192
2021-12-23 14:59:17.581300,206
2021-12-23 14:59:17.581309,240
2021-12-23 14:59:17.581319,274
2021-12-23 14:59:17.581328,288
2021-12-23 14:59:17.805171,295
2021-12-23 14:59:17.805194,298
2021-12-23 14:59:17.805202,290
2021-12-23 14:59:17.805208,254
2021-12-23 14:59:17.805215,189
2021-12-23 14:59:17.805221,113
2021-12-23 14:59:17.805228,26
2021-12-23 14:59:17.805234,-48
2021-12-23 14:59:17.805240,-79
2021-12-23 14:59:17.805246,-86
2021-12-23 14:59:17.805253,-103
2021-12-23 14:59:17.805259,-110
2021-12-23 14:59:17.805265,-105
2021-12-23 14:59:17.805272,-115
2021-12-23 14:59:17.805278,-108
2021-12-23 14:59:17.805284,-91
2021-12-23 14:59:17.805290,-98
2021-12-23 14:59:17.805297,-103
2021-12-23 14:59:17.805303,-86
2021-12-23 14:59:17.805309,-72
2021-12-23 14:59:17.805315,-79
2021-12-23 14:59:17.805322,-81
2021-12-23 14:59:17.805328,-64
2021-12-23 14:59:17.805334,-57
2021-12-23 14:59:17.805340,-55
2021-12-23 14:59:17.805347,-45
2021-12-23 14:59:17.805353,-45
2021-12-23 14:59:17.805359,-50
2021-12-23 14:59:17.805366,-40
2021-12-23 14:59:17.805372,-31
2021-12-23 14:59:18.030471,-31
2021-12-23 14:59:18.030502,-31
2021-12-23 14:59:18.030513,-28
2021-12-23 14:59:18.030523,-36
2021-12-23 14:59:18.030533,-38
2021-12-23 14:59:18.030543,-21
2021-12-23 14:59:18.030553,-7
2021-12-23 14:59:18.030563,-9
2021-12-23 14:59:18.030572,0
2021-12-23 14:59:18.030582,16
2021-12-23 14:59:18.030592,12
2021-12-23 14:59:18.030601,0
2021-12-23 14:59:18.030611,-7
2021-12-23 14:59:18.030621,-12
2021-12-23 14:59:18.030631,-14
2021-12-23 14:59:18.030640,-9
2021-12-23 14:59:18.030650,-9
2021-12-23 14:59:18.030660,-12
2021-12-23 14:59:18.030669,-12
2021-12-23 14:59:18.030679,-7
2021-12-23 14:59:18.030689,0
2021-12-23 14:59:18.030699,9
2021-12-23 14:59:18.030708,24
2021-12-23 14:59:18.030718,43
2021-12-23 14:59:18.030728,153
2021-12-23 14:59:18.030737,454
2021-12-23 14:59:18.030747,832
2021-12-23 14:59:18.030757,817
2021-12-23 14:59:18.030767,110
2021-12-23 14:59:18.030777,-454
2021-12-23 14:59:18.299609,-194
2021-12-23 14:59:18.299639,67
2021-12-23 14:59:18.299650,-62
2021-12-23 14:59:18.299660,-74
2021-12-23 14:59:18.299670,16
2021-12-23 14:59:18.299679,-9
2021-12-23 14:59:18.299689,-24
2021-12-23 14:59:18.299699,16
2021-12-23 14:59:18.299709,26
2021-12-23 14:59:18.299719,21
2021-12-23 14:59:18.299728,26
2021-12-23 14:59:18.299738,26
2021-12-23 14:59:18.299747,38
2021-12-23 14:59:18.299757,57
2021-12-23 14:59:18.299767,67
2021-12-23 14:59:18.299776,74
2021-12-23 14:59:18.299786,84
2021-12-23 14:59:18.299796,101
2021-12-23 14:59:18.299805,117
2021-12-23 14:59:18.299815,137
2021-12-23 14:59:18.299825,158
2021-12-23 14:59:18.299834,175
2021-12-23 14:59:18.299844,197
2021-12-23 14:59:18.299854,223
2021-12-23 14:59:18.299863,252
2021-12-23 14:59:18.299873,274
2021-12-23 14:59:18.299882,281
2021-12-23 14:59:18.299892,278
2021-12-23 14:59:18.299902,276
2021-12-23 14:59:18.299911,257
2021-12-23 14:59:18.480524,204
2021-12-23 14:59:18.480555,129
2021-12-23 14:59:18.480567,48
2021-12-23 14:59:18.480577,-16
2021-12-23 14:59:18.480587,-60
2021-12-23 14:59:18.480596,-91
2021-12-23 14:59:18.480606,-110
2021-12-23 14:59:18.480616,-110
2021-12-23 14:59:18.480626,-103
2021-12-23 14:59:18.480635,-108
2021-12-23 14:59:18.480645,-110
2021-12-23 14:59:18.480655,-101
2021-12-23 14:59:18.480665,-88
2021-12-23 14:59:18.480674,-81
2021-12-23 14:59:18.480684,-72
2021-12-23 14:59:18.480694,-64
2021-12-23 14:59:18.480703,-55
2021-12-23 14:59:18.480713,-40
2021-12-23 14:59:18.480723,-33
2021-12-23 14:59:18.480733,-33
2021-12-23 14:59:18.480742,-28
2021-12-23 14:59:18.480752,-24
2021-12-23 14:59:18.480762,-26
2021-12-23 14:59:18.480785,-33
2021-12-23 14:59:18.480795,-33
2021-12-23 14:59:18.480805,-28
2021-12-23 14:59:18.480815,-26
2021-12-23 14:59:18.480824,-28
2021-12-23 14:59:18.480835,-28
2021-12-23 14:59:18.480844,-24
2021-12-23 14:59:18.750978,-21
2021-12-23 14:59:18.751008,-19
2021-12-23 14:59:18.751019,-26
2021-12-23 14:59:18.751029,-33
2021-12-23 14:59:18.751039,-31
2021-12-23 14:59:18.751048,-16
2021-12-23 14:59:18.751058,-7
2021-12-23 14:59:18.751067,-7
2021-12-23 14:59:18.751077,2
2021-12-23 14:59:18.751087,14
2021-12-23 14:59:18.751096,12
2021-12-23 14:59:18.751106,4
2021-12-23 14:59:18.751115,4
2021-12-23 14:59:18.751125,2
2021-12-23 14:59:18.751134,2
2021-12-23 14:59:18.751144,2
2021-12-23 14:59:18.751153,2
2021-12-23 14:59:18.751163,4
2021-12-23 14:59:18.751172,9
2021-12-23 14:59:18.751182,12
2021-12-23 14:59:18.751191,14
2021-12-23 14:59:18.751201,24
2021-12-23 14:59:18.751210,36
2021-12-23 14:59:18.751219,98
2021-12-23 14:59:18.751229,312
2021-12-23 14:59:18.751238,687
2021-12-23 14:59:18.751248,1000
2021-12-23 14:59:18.751257,649
2021-12-23 14:59:18.751267,-211
2021-12-23 14:59:18.751276,-370
2021-12-23 14:59:18.975497,55
2021-12-23 14:59:18.975527,45
2021-12-23 14:59:18.975538,-120
2021-12-23 14:59:18.975549,-24
2021-12-23 14:59:18.975558,24
2021-12-23 14:59:18.975568,-31
2021-12-23 14:59:18.975578,-9
2021-12-23 14:59:18.975588,24
2021-12-23 14:59:18.975597,7
2021-12-23 14:59:18.975607,4
2021-12-23 14:59:18.975617,21
2021-12-23 14:59:18.975627,26
2021-12-23 14:59:18.975636,36
2021-12-23 14:59:18.975646,45
2021-12-23 14:59:18.975656,48
2021-12-23 14:59:18.975665,52
2021-12-23 14:59:18.975675,72
2021-12-23 14:59:18.975685,91
2021-12-23 14:59:18.975695,108
2021-12-23 14:59:18.975704,132
2021-12-23 14:59:18.975714,153
2021-12-23 14:59:18.975724,170
2021-12-23 14:59:18.975733,202
2021-12-23 14:59:18.975743,233
2021-12-23 14:59:18.975753,254
2021-12-23 14:59:18.975762,274
2021-12-23 14:59:18.975772,283
2021-12-23 14:59:18.975782,278
2021-12-23 14:59:18.975791,266
2021-12-23 14:59:18.975801,238
2021-12-23 14:59:19.200478,173
2021-12-23 14:59:19.200500,84
2021-12-23 14:59:19.200506,9
2021-12-23 14:59:19.200511,-43
2021-12-23 14:59:19.200517,-79
2021-12-23 14:59:19.200521,-98
2021-12-23 14:59:19.200526,-103
2021-12-23 14:59:19.200531,-101
2021-12-23 14:59:19.200536,-103
2021-12-23 14:59:19.200541,-101
2021-12-23 14:59:19.200545,-86
2021-12-23 14:59:19.200550,-76
2021-12-23 14:59:19.200555,-79
2021-12-23 14:59:19.200560,-79
2021-12-23 14:59:19.200564,-72
2021-12-23 14:59:19.200569,-64
2021-12-23 14:59:19.200574,-55
2021-12-23 14:59:19.200579,-48
2021-12-23 14:59:19.200584,-45
2021-12-23 14:59:19.200589,-48
2021-12-23 14:59:19.200593,-40
2021-12-23 14:59:19.200598,-31
2021-12-23 14:59:19.200603,-26
2021-12-23 14:59:19.200608,-24
2021-12-23 14:59:19.200613,-16
2021-12-23 14:59:19.200617,-14
2021-12-23 14:59:19.200622,-12
2021-12-23 14:59:19.200628,-9
2021-12-23 14:59:19.200633,-12
2021-12-23 14:59:19.200637,-12
2021-12-23 14:59:19.425957,-14
2021-12-23 14:59:19.425986,-19
2021-12-23 14:59:19.425998,-19
2021-12-23 14:59:19.426008,-14
2021-12-23 14:59:19.426017,0
2021-12-23 14:59:19.426027,9
2021-12-23 14:59:19.426037,7
2021-12-23 14:59:19.426047,12
2021-12-23 14:59:19.426057,28
2021-12-23 14:59:19.426067,26
2021-12-23 14:59:19.426077,19
2021-12-23 14:59:19.426087,16
2021-12-23 14:59:19.426096,12
2021-12-23 14:59:19.426106,9
2021-12-23 14:59:19.426116,16
2021-12-23 14:59:19.426125,14
2021-12-23 14:59:19.426135,16
2021-12-23 14:59:19.426145,28
2021-12-23 14:59:19.426154,33
2021-12-23 14:59:19.426164,28
2021-12-23 14:59:19.426174,36
2021-12-23 14:59:19.426183,52
2021-12-23 14:59:19.426193,137
2021-12-23 14:59:19.426202,382
2021-12-23 14:59:19.426212,774
2021-12-23 14:59:19.426222,1024
2021-12-23 14:59:19.426231,538
2021-12-23 14:59:19.426241,-290
2021-12-23 14:59:19.426251,-293
2021-12-23 14:59:19.426260,105
2021-12-23 14:59:19.650527,19
2021-12-23 14:59:19.650557,-108
2021-12-23 14:59:19.650568,4
2021-12-23 14:59:19.650578,16
2021-12-23 14:59:19.650588,-43
2021-12-23 14:59:19.650598,-16
2021-12-23 14:59:19.650607,2
2021-12-23 14:59:19.650617,-14
2021-12-23 14:59:19.650627,0
2021-12-23 14:59:19.650637,21
2021-12-23 14:59:19.650647,21
2021-12-23 14:59:19.650657,26
2021-12-23 14:59:19.650667,36
2021-12-23 14:59:19.650676,45
2021-12-23 14:59:19.650687,60
2021-12-23 14:59:19.650697,74
2021-12-23 14:59:19.650706,91
2021-12-23 14:59:19.650716,108
2021-12-23 14:59:19.650726,129
2021-12-23 14:59:19.650736,156
2021-12-23 14:59:19.650745,187
2021-12-23 14:59:19.650755,216
2021-12-23 14:59:19.650765,245
2021-12-23 14:59:19.650774,264
2021-12-23 14:59:19.650784,278
2021-12-23 14:59:19.650794,290
2021-12-23 14:59:19.650804,293
2021-12-23 14:59:19.650814,276
2021-12-23 14:59:19.650823,235
2021-12-23 14:59:19.650833,163
2021-12-23 14:59:19.964872,81
2021-12-23 14:59:19.964894,12
2021-12-23 14:59:19.964901,-40
2021-12-23 14:59:19.964907,-81
2021-12-23 14:59:19.964912,-103
2021-12-23 14:59:19.964918,-110
2021-12-23 14:59:19.964923,-110
2021-12-23 14:59:19.964929,-101
2021-12-23 14:59:19.964934,-93
2021-12-23 14:59:19.964940,-93
2021-12-23 14:59:19.964946,-91
2021-12-23 14:59:19.964952,-81
2021-12-23 14:59:19.964957,-76
2021-12-23 14:59:19.964963,-72
2021-12-23 14:59:19.964969,-62
2021-12-23 14:59:19.964975,-57
2021-12-23 14:59:19.964981,-50
2021-12-23 14:59:19.964987,-45
2021-12-23 14:59:19.964992,-38
2021-12-23 14:59:19.964997,-28
2021-12-23 14:59:19.965002,-28
2021-12-23 14:59:19.965007,-28
2021-12-23 14:59:19.965012,-21
2021-12-23 14:59:19.965017,-16
2021-12-23 14:59:19.965022,-16
2021-12-23 14:59:19.965028,-12
2021-12-23 14:59:19.965033,-7
2021-12-23 14:59:19.965038,-7
2021-12-23 14:59:19.965043,-4
2021-12-23 14:59:19.965057,-2
2021-12-23 14:59:20.100934,-2
2021-12-23 14:59:20.100964,-2
2021-12-23 14:59:20.100976,2
2021-12-23 14:59:20.100986,-4
2021-12-23 14:59:20.100996,-12
2021-12-23 14:59:20.101005,-4
2021-12-23 14:59:20.101015,7
2021-12-23 14:59:20.101024,14
2021-12-23 14:59:20.101034,24
2021-12-23 14:59:20.101044,33
2021-12-23 14:59:20.101054,31
2021-12-23 14:59:20.101063,16
2021-12-23 14:59:20.101073,12
2021-12-23 14:59:20.101082,9
2021-12-23 14:59:20.101092,9
2021-12-23 14:59:20.101102,14
2021-12-23 14:59:20.101112,16
2021-12-23 14:59:20.101121,12
2021-12-23 14:59:20.101131,9
2021-12-23 14:59:20.101141,14
2021-12-23 14:59:20.101150,21
2021-12-23 14:59:20.101160,26
2021-12-23 14:59:20.101170,31
2021-12-23 14:59:20.101179,55
2021-12-23 14:59:20.101189,187
2021-12-23 14:59:20.101199,505
2021-12-23 14:59:20.101208,918
2021-12-23 14:59:20.101218,945
2021-12-23 14:59:20.101228,180
2021-12-23 14:59:20.101238,-428
2021-12-23 14:59:20.414638,-129
2021-12-23 14:59:20.414668,117
2021-12-23 14:59:20.414680,-74
2021-12-23 14:59:20.414690,-91
2021-12-23 14:59:20.414699,12
2021-12-23 14:59:20.414709,-24
2021-12-23 14:59:20.414719,-43
2021-12-23 14:59:20.414728,0
2021-12-23 14:59:20.414738,2
2021-12-23 14:59:20.414747,-12
2021-12-23 14:59:20.414757,4
2021-12-23 14:59:20.414766,14
2021-12-23 14:59:20.414776,19
2021-12-23 14:59:20.414786,31
2021-12-23 14:59:20.414795,48
2021-12-23 14:59:20.414805,55
2021-12-23 14:59:20.414814,64
2021-12-23 14:59:20.414824,84
2021-12-23 14:59:20.414833,103
2021-12-23 14:59:20.414843,122
2021-12-23 14:59:20.414852,146
2021-12-23 14:59:20.414862,168
2021-12-23 14:59:20.414871,194
2021-12-23 14:59:20.414881,218
2021-12-23 14:59:20.414891,242
2021-12-23 14:59:20.414900,262
2021-12-23 14:59:20.414910,278
2021-12-23 14:59:20.414919,283
2021-12-23 14:59:20.414929,283
2021-12-23 14:59:20.414938,269
2021-12-23 14:59:20.595413,216
2021-12-23 14:59:20.595439,139
2021-12-23 14:59:20.595497,62
2021-12-23 14:59:20.595519,-4
2021-12-23 14:59:20.595533,-57
2021-12-23 14:59:20.595544,-86
2021-12-23 14:59:20.595555,-93
2021-12-23 14:59:20.595568,-96
2021-12-23 14:59:20.595579,-98
2021-12-23 14:59:20.595591,-98
2021-12-23 14:59:20.595602,-91
2021-12-23 14:59:20.595632,-81
2021-12-23 14:59:20.595650,-74
2021-12-23 14:59:20.595663,-72
2021-12-23 14:59:20.595674,-72
2021-12-23 14:59:20.595681,-74
2021-12-23 14:59:20.595687,-64
2021-12-23 14:59:20.595696,-52
2021-12-23 14:59:20.595708,-50
2021-12-23 14:59:20.595720,-43
2021-12-23 14:59:20.595731,-38
2021-12-23 14:59:20.595743,-36
2021-12-23 14:59:20.595771,-31
2021-12-23 14:59:20.595813,-19
2021-12-23 14:59:20.595826,-19
2021-12-23 14:59:20.595837,-21
2021-12-23 14:59:20.595848,-16
2021-12-23 14:59:20.595860,-14
2021-12-23 14:59:20.595871,-12
2021-12-23 14:59:20.595882,-9
2021-12-23 14:59:20.910591,-4
2021-12-23 14:59:20.910633,-2
2021-12-23 14:59:20.910645,-2
2021-12-23 14:59:20.910655,-2
2021-12-23 14:59:20.910665,0
2021-12-23 14:59:20.910674,4
2021-12-23 14:59:20.910684,2
2021-12-23 14:59:20.910694,-2
2021-12-23 14:59:20.910704,-9
2021-12-23 14:59:20.910713,-9
2021-12-23 14:59:20.910723,2
2021-12-23 14:59:20.910732,12
2021-12-23 14:59:20.910742,16
2021-12-23 14:59:20.910752,31
2021-12-23 14:59:20.910761,40
2021-12-23 14:59:20.910771,26
2021-12-23 14:59:20.910781,12
2021-12-23 14:59:20.910790,14
2021-12-23 14:59:20.910800,16
2021-12-23 14:59:20.910810,16
2021-12-23 14:59:20.910819,14
2021-12-23 14:59:20.910829,16
2021-12-23 14:59:20.910838,19
2021-12-23 14:59:20.910848,24
2021-12-23 14:59:20.910857,28
2021-12-23 14:59:20.910867,33
2021-12-23 14:59:20.910877,38
2021-12-23 14:59:20.910887,40
2021-12-23 14:59:20.910896,129
2021-12-23 14:59:20.910906,391
2021-12-23 14:59:21.089886,788
2021-12-23 14:59:21.089916,990
2021-12-23 14:59:21.089928,430
2021-12-23 14:59:21.089938,-351
2021-12-23 14:59:21.089948,-257
2021-12-23 14:59:21.089958,117
2021-12-23 14:59:21.089968,-7
2021-12-23 14:59:21.089977,-110
2021-12-23 14:59:21.089987,4
2021-12-23 14:59:21.089997,7
2021-12-23 14:59:21.090007,-33
2021-12-23 14:59:21.090017,2
2021-12-23 14:59:21.090027,16
2021-12-23 14:59:21.090036,4
2021-12-23 14:59:21.090046,14
2021-12-23 14:59:21.090056,28
2021-12-23 14:59:21.090065,33
2021-12-23 14:59:21.090075,43
2021-12-23 14:59:21.090085,52
2021-12-23 14:59:21.090095,57
2021-12-23 14:59:21.090104,64
2021-12-23 14:59:21.090114,79
2021-12-23 14:59:21.090124,98
2021-12-23 14:59:21.090134,117
2021-12-23 14:59:21.090143,137
2021-12-23 14:59:21.090153,156
2021-12-23 14:59:21.090163,177
2021-12-23 14:59:21.090173,204
2021-12-23 14:59:21.090182,228
2021-12-23 14:59:21.090192,247
2021-12-23 14:59:21.270230,262
2021-12-23 14:59:21.270249,271
2021-12-23 14:59:21.270256,276
2021-12-23 14:59:21.270262,264
2021-12-23 14:59:21.270269,228
2021-12-23 14:59:21.270275,165
2021-12-23 14:59:21.270281,88
2021-12-23 14:59:21.270288,14
2021-12-23 14:59:21.270294,-38
2021-12-23 14:59:21.270300,-72
2021-12-23 14:59:21.270307,-96
2021-12-23 14:59:21.270313,-108
2021-12-23 14:59:21.270319,-105
2021-12-23 14:59:21.270325,-103
2021-12-23 14:59:21.270332,-98
2021-12-23 14:59:21.270338,-91
2021-12-23 14:59:21.270345,-86
2021-12-23 14:59:21.270351,-81
2021-12-23 14:59:21.270357,-74
2021-12-23 14:59:21.270363,-67
2021-12-23 14:59:21.270370,-60
2021-12-23 14:59:21.270376,-52
2021-12-23 14:59:21.270382,-43
2021-12-23 14:59:21.270388,-38
2021-12-23 14:59:21.270395,-33
2021-12-23 14:59:21.270401,-26
2021-12-23 14:59:21.270407,-21
2021-12-23 14:59:21.270413,-21
2021-12-23 14:59:21.270419,-21
2021-12-23 14:59:21.270426,-16
2021-12-23 14:59:21.495905,-14
2021-12-23 14:59:21.495935,-12
2021-12-23 14:59:21.495946,-7
2021-12-23 14:59:21.495956,-4
2021-12-23 14:59:21.495966,-2
2021-12-23 14:59:21.495976,0
2021-12-23 14:59:21.495986,0
2021-12-23 14:59:21.495995,-2
2021-12-23 14:59:21.496005,-2
2021-12-23 14:59:21.496015,0
2021-12-23 14:59:21.496024,4
2021-12-23 14:59:21.496034,4
2021-12-23 14:59:21.496044,-2
2021-12-23 14:59:21.496055,-7
2021-12-23 14:59:21.496065,-4
2021-12-23 14:59:21.496074,4
2021-12-23 14:59:21.496084,16
2021-12-23 14:59:21.496094,28
2021-12-23 14:59:21.496104,40
2021-12-23 14:59:21.496113,50
2021-12-23 14:59:21.496123,48
2021-12-23 14:59:21.496133,33
2021-12-23 14:59:21.496142,28
2021-12-23 14:59:21.496152,28
2021-12-23 14:59:21.496162,28
2021-12-23 14:59:21.496171,24
2021-12-23 14:59:21.496181,21
2021-12-23 14:59:21.496191,21
2021-12-23 14:59:21.496240,21
2021-12-23 14:59:21.496250,21
2021-12-23 14:59:21.720930,31
2021-12-23 14:59:21.720960,43
2021-12-23 14:59:21.720972,40
2021-12-23 14:59:21.720982,86
2021-12-23 14:59:21.720992,295
2021-12-23 14:59:21.721002,675
2021-12-23 14:59:21.721012,997
2021-12-23 14:59:21.721022,663
2021-12-23 14:59:21.721031,-204
2021-12-23 14:59:21.721041,-391
2021-12-23 14:59:21.721051,38
2021-12-23 14:59:21.721060,50
2021-12-23 14:59:21.721070,-125
2021-12-23 14:59:21.721080,-38
2021-12-23 14:59:21.721090,16
2021-12-23 14:59:21.721099,-40
2021-12-23 14:59:21.721109,-21
2021-12-23 14:59:21.721119,14
2021-12-23 14:59:21.721128,2
2021-12-23 14:59:21.721138,2
2021-12-23 14:59:21.721148,21
2021-12-23 14:59:21.721158,24
2021-12-23 14:59:21.721167,24
2021-12-23 14:59:21.721177,31
2021-12-23 14:59:21.721187,40
2021-12-23 14:59:21.721196,50
2021-12-23 14:59:21.721206,62
2021-12-23 14:59:21.721216,74
2021-12-23 14:59:21.721225,93
2021-12-23 14:59:21.721235,120
2021-12-23 14:59:21.989601,139
2021-12-23 14:59:21.989624,158
2021-12-23 14:59:21.989631,182
2021-12-23 14:59:21.989638,211
2021-12-23 14:59:21.989644,230
2021-12-23 14:59:21.989651,238
2021-12-23 14:59:21.989657,250
2021-12-23 14:59:21.989664,259
2021-12-23 14:59:21.989670,252
2021-12-23 14:59:21.989676,228
2021-12-23 14:59:21.989682,177
2021-12-23 14:59:21.989688,103
2021-12-23 14:59:21.989695,28
2021-12-23 14:59:21.989701,-26
2021-12-23 14:59:21.989707,-67
2021-12-23 14:59:21.989714,-96
2021-12-23 14:59:21.989720,-105
2021-12-23 14:59:21.989726,-105
2021-12-23 14:59:21.989732,-98
2021-12-23 14:59:21.989739,-88
2021-12-23 14:59:21.989745,-84
2021-12-23 14:59:21.989752,-81
2021-12-23 14:59:21.989759,-76
2021-12-23 14:59:21.989765,-67
2021-12-23 14:59:21.989771,-52
2021-12-23 14:59:21.989777,-45
2021-12-23 14:59:21.989784,-40
2021-12-23 14:59:21.989790,-38
2021-12-23 14:59:21.989796,-33
2021-12-23 14:59:21.989803,-26
2021-12-23 14:59:22.170535,-21
2021-12-23 14:59:22.170556,-21
2021-12-23 14:59:22.170564,-24
2021-12-23 14:59:22.170571,-19
2021-12-23 14:59:22.170577,-19
2021-12-23 14:59:22.170584,-21
2021-12-23 14:59:22.170590,-21
2021-12-23 14:59:22.170596,-16
2021-12-23 14:59:22.170603,-12
2021-12-23 14:59:22.170609,-14
2021-12-23 14:59:22.170615,-19
2021-12-23 14:59:22.170622,-16
2021-12-23 14:59:22.170628,-2
2021-12-23 14:59:22.170634,2
2021-12-23 14:59:22.170641,-2
2021-12-23 14:59:22.170647,-2
2021-12-23 14:59:22.170654,-7
2021-12-23 14:59:22.170660,-12
2021-12-23 14:59:22.170666,-12
2021-12-23 14:59:22.170673,-7
2021-12-23 14:59:22.170679,-2
2021-12-23 14:59:22.170685,2
2021-12-23 14:59:22.170692,9
2021-12-23 14:59:22.170698,31
2021-12-23 14:59:22.170705,45
2021-12-23 14:59:22.170711,36
2021-12-23 14:59:22.170717,19
2021-12-23 14:59:22.170724,19
2021-12-23 14:59:22.170730,19
2021-12-23 14:59:22.170736,14
2021-12-23 14:59:22.529307,16
2021-12-23 14:59:22.529353,21
2021-12-23 14:59:22.529365,14
2021-12-23 14:59:22.529375,12
2021-12-23 14:59:22.529385,21
2021-12-23 14:59:22.529394,31
2021-12-23 14:59:22.529404,33
2021-12-23 14:59:22.529414,33
2021-12-23 14:59:22.529423,98
2021-12-23 14:59:22.529433,319
2021-12-23 14:59:22.529443,680
2021-12-23 14:59:22.529452,945
2021-12-23 14:59:22.529462,543
2021-12-23 14:59:22.529472,-271
2021-12-23 14:59:22.529481,-343
2021-12-23 14:59:22.529491,74
2021-12-23 14:59:22.529501,40
2021-12-23 14:59:22.529511,-110
2021-12-23 14:59:22.529520,-14
2021-12-23 14:59:22.529530,26
2021-12-23 14:59:22.529540,-24
2021-12-23 14:59:22.529549,-4
2021-12-23 14:59:22.529559,24
2021-12-23 14:59:22.529569,12
2021-12-23 14:59:22.529579,12
2021-12-23 14:59:22.529588,26
2021-12-23 14:59:22.529598,36
2021-12-23 14:59:22.529607,33
2021-12-23 14:59:22.529617,31
2021-12-23 14:59:22.529626,48
2021-12-23 14:59:22.666026,62
2021-12-23 14:59:22.666056,64
2021-12-23 14:59:22.666068,84
2021-12-23 14:59:22.666078,113
2021-12-23 14:59:22.666087,127
2021-12-23 14:59:22.666097,139
2021-12-23 14:59:22.666107,156
2021-12-23 14:59:22.666116,177
2021-12-23 14:59:22.666126,199
2021-12-23 14:59:22.666135,216
2021-12-23 14:59:22.666145,235
2021-12-23 14:59:22.666155,250
2021-12-23 14:59:22.666164,250
2021-12-23 14:59:22.666174,240
2021-12-23 14:59:22.666183,226
2021-12-23 14:59:22.666193,177
2021-12-23 14:59:22.666203,110
2021-12-23 14:59:22.666212,40
2021-12-23 14:59:22.666222,-19
2021-12-23 14:59:22.666231,-60
2021-12-23 14:59:22.666241,-84
2021-12-23 14:59:22.666250,-93
2021-12-23 14:59:22.666260,-88
2021-12-23 14:59:22.666270,-96
2021-12-23 14:59:22.666279,-96
2021-12-23 14:59:22.666289,-76
2021-12-23 14:59:22.666298,-62
2021-12-23 14:59:22.666308,-64
2021-12-23 14:59:22.666317,-60
2021-12-23 14:59:22.666327,-50
2021-12-23 14:59:22.935500,-50
2021-12-23 14:59:22.935530,-38
2021-12-23 14:59:22.935541,-28
2021-12-23 14:59:22.935551,-31
2021-12-23 14:59:22.935561,-33
2021-12-23 14:59:22.935571,-26
2021-12-23 14:59:22.935581,-21
2021-12-23 14:59:22.935590,-26
2021-12-23 14:59:22.935600,-24
2021-12-23 14:59:22.935609,-19
2021-12-23 14:59:22.935619,-24
2021-12-23 14:59:22.935628,-28
2021-12-23 14:59:22.935638,-24
2021-12-23 14:59:22.935647,-12
2021-12-23 14:59:22.935657,-7
2021-12-23 14:59:22.935667,-9
2021-12-23 14:59:22.935676,-9
2021-12-23 14:59:22.935686,-4
2021-12-23 14:59:22.935696,-12
2021-12-23 14:59:22.935705,-21
2021-12-23 14:59:22.935715,-14
2021-12-23 14:59:22.935724,2
2021-12-23 14:59:22.935734,14
2021-12-23 14:59:22.935744,24
2021-12-23 14:59:22.935753,26
2021-12-23 14:59:22.935763,28
2021-12-23 14:59:22.935772,33
2021-12-23 14:59:22.935782,19
2021-12-23 14:59:22.935791,0
2021-12-23 14:59:22.935801,12
2021-12-23 14:59:23.115967,21
2021-12-23 14:59:23.115997,7
2021-12-23 14:59:23.116008,7
2021-12-23 14:59:23.116018,14
2021-12-23 14:59:23.116028,14
2021-12-23 14:59:23.116038,16
2021-12-23 14:59:23.116047,24
2021-12-23 14:59:23.116057,36
2021-12-23 14:59:23.116067,113
2021-12-23 14:59:23.116076,348
2021-12-23 14:59:23.116086,728
2021-12-23 14:59:23.116095,957
2021-12-23 14:59:23.116105,480
2021-12-23 14:59:23.116115,-336
2021-12-23 14:59:23.116125,-372
2021-12-23 14:59:23.116135,26
2021-12-23 14:59:23.116144,-4
2021-12-23 14:59:23.116154,-113
2021-12-23 14:59:23.116164,-14
2021-12-23 14:59:23.116173,9
2021-12-23 14:59:23.116183,-38
2021-12-23 14:59:23.116192,-16
2021-12-23 14:59:23.116202,4
2021-12-23 14:59:23.116212,0
2021-12-23 14:59:23.116221,7
2021-12-23 14:59:23.116231,19
2021-12-23 14:59:23.116241,21
2021-12-23 14:59:23.116250,28
2021-12-23 14:59:23.116260,43
2021-12-23 14:59:23.116270,60
2021-12-23 14:59:23.340962,72
2021-12-23 14:59:23.340992,79
2021-12-23 14:59:23.341004,93
2021-12-23 14:59:23.341014,115
2021-12-23 14:59:23.341024,137
2021-12-23 14:59:23.341033,153
2021-12-23 14:59:23.341043,165
2021-12-23 14:59:23.341053,182
2021-12-23 14:59:23.341062,214
2021-12-23 14:59:23.341072,240
2021-12-23 14:59:23.341082,250
2021-12-23 14:59:23.341091,262
2021-12-23 14:59:23.341101,271
2021-12-23 14:59:23.341111,259
2021-12-23 14:59:23.341120,226
2021-12-23 14:59:23.341130,173
2021-12-23 14:59:23.341140,101
2021-12-23 14:59:23.341149,24
2021-12-23 14:59:23.341159,-31
2021-12-23 14:59:23.341169,-72
2021-12-23 14:59:23.341178,-101
2021-12-23 14:59:23.341188,-105
2021-12-23 14:59:23.341198,-103
2021-12-23 14:59:23.341212,-98
2021-12-23 14:59:23.341222,-88
2021-12-23 14:59:23.341232,-86
2021-12-23 14:59:23.341242,-79
2021-12-23 14:59:23.341251,-60
2021-12-23 14:59:23.341261,-52
2021-12-23 14:59:23.341271,-50
2021-12-23 14:59:23.565493,-38
2021-12-23 14:59:23.565522,-33
2021-12-23 14:59:23.565534,-33
2021-12-23 14:59:23.565544,-21
2021-12-23 14:59:23.565553,-16
2021-12-23 14:59:23.565563,-24
2021-12-23 14:59:23.565572,-24
2021-12-23 14:59:23.565582,-21
2021-12-23 14:59:23.565592,-19
2021-12-23 14:59:23.565601,-19
2021-12-23 14:59:23.565611,-19
2021-12-23 14:59:23.565621,-19
2021-12-23 14:59:23.565631,-21
2021-12-23 14:59:23.565640,-19
2021-12-23 14:59:23.565650,-12
2021-12-23 14:59:23.565660,-16
2021-12-23 14:59:23.565670,-21
2021-12-23 14:59:23.565680,-21
2021-12-23 14:59:23.565690,-21
2021-12-23 14:59:23.565699,-19
2021-12-23 14:59:23.565709,-9
2021-12-23 14:59:23.565718,-2
2021-12-23 14:59:23.565728,12
2021-12-23 14:59:23.565738,28
2021-12-23 14:59:23.565748,26
2021-12-23 14:59:23.565757,14
2021-12-23 14:59:23.565767,14
2021-12-23 14:59:23.565776,9
2021-12-23 14:59:23.565786,2
2021-12-23 14:59:23.565796,9
2021-12-23 14:59:23.789574,14
2021-12-23 14:59:23.789590,14
2021-12-23 14:59:23.789595,14
2021-12-23 14:59:23.789601,14
2021-12-23 14:59:23.789606,14
2021-12-23 14:59:23.789611,19
2021-12-23 14:59:23.789616,24
2021-12-23 14:59:23.789621,105
2021-12-23 14:59:23.789626,382
2021-12-23 14:59:23.789631,798
2021-12-23 14:59:23.789636,959
2021-12-23 14:59:23.789641,346
2021-12-23 14:59:23.789646,-408
2021-12-23 14:59:23.789651,-278
2021-12-23 14:59:23.789656,84
2021-12-23 14:59:23.789661,-36
2021-12-23 14:59:23.789666,-115
2021-12-23 14:59:23.789671,-2
2021-12-23 14:59:23.789676,-7
2021-12-23 14:59:23.789681,-48
2021-12-23 14:59:23.789686,-4
2021-12-23 14:59:23.789691,12
2021-12-23 14:59:23.789696,-4
2021-12-23 14:59:23.789701,4
2021-12-23 14:59:23.789706,21
2021-12-23 14:59:23.789712,24
2021-12-23 14:59:23.789717,31
2021-12-23 14:59:23.789722,38
2021-12-23 14:59:23.789727,45
2021-12-23 14:59:23.789732,62
2021-12-23 14:59:24.060247,81
2021-12-23 14:59:24.060268,93
2021-12-23 14:59:24.060276,105
2021-12-23 14:59:24.060282,125
2021-12-23 14:59:24.060289,146
2021-12-23 14:59:24.060295,173
2021-12-23 14:59:24.060302,202
2021-12-23 14:59:24.060308,226
2021-12-23 14:59:24.060315,242
2021-12-23 14:59:24.060321,250
2021-12-23 14:59:24.060327,259
2021-12-23 14:59:24.060334,266
2021-12-23 14:59:24.060340,254
2021-12-23 14:59:24.060346,204
2021-12-23 14:59:24.060353,137
2021-12-23 14:59:24.060359,64
2021-12-23 14:59:24.060365,-7
2021-12-23 14:59:24.060372,-60
2021-12-23 14:59:24.060378,-86
2021-12-23 14:59:24.060385,-98
2021-12-23 14:59:24.060391,-103
2021-12-23 14:59:24.060398,-105
2021-12-23 14:59:24.060404,-103
2021-12-23 14:59:24.060410,-101
2021-12-23 14:59:24.060417,-96
2021-12-23 14:59:24.060423,-86
2021-12-23 14:59:24.060429,-76
2021-12-23 14:59:24.060436,-76
2021-12-23 14:59:24.060442,-76
2021-12-23 14:59:24.060449,-60
2021-12-23 14:59:24.285740,-43
2021-12-23 14:59:24.285761,-38
2021-12-23 14:59:24.285768,-33
2021-12-23 14:59:24.285775,-31
2021-12-23 14:59:24.285781,-31
2021-12-23 14:59:24.285787,-24
2021-12-23 14:59:24.285794,-19
2021-12-23 14:59:24.285800,-16
2021-12-23 14:59:24.285806,-12
2021-12-23 14:59:24.285813,-9
2021-12-23 14:59:24.285819,-14
2021-12-23 14:59:24.285825,-14
2021-12-23 14:59:24.285832,-12
2021-12-23 14:59:24.285838,-14
2021-12-23 14:59:24.285844,-26
2021-12-23 14:59:24.285851,-26
2021-12-23 14:59:24.285857,-14
2021-12-23 14:59:24.285863,-9
2021-12-23 14:59:24.285870,-4
2021-12-23 14:59:24.285876,12
2021-12-23 14:59:24.285883,26
2021-12-23 14:59:24.285889,24
2021-12-23 14:59:24.285895,14
2021-12-23 14:59:24.285902,9
2021-12-23 14:59:24.285908,7
2021-12-23 14:59:24.285914,7
2021-12-23 14:59:24.285921,9
2021-12-23 14:59:24.285927,9
2021-12-23 14:59:24.285933,9
2021-12-23 14:59:24.285940,16
2021-12-23 14:59:24.598951,19
2021-12-23 14:59:24.598971,24
2021-12-23 14:59:24.598978,28
2021-12-23 14:59:24.598985,31
2021-12-23 14:59:24.598991,117
2021-12-23 14:59:24.598997,394
2021-12-23 14:59:24.599004,820
2021-12-23 14:59:24.599010,1048
2021-12-23 14:59:24.599016,488
2021-12-23 14:59:24.599023,-351
2021-12-23 14:59:24.599029,-305
2021-12-23 14:59:24.599035,88
2021-12-23 14:59:24.599042,-24
2021-12-23 14:59:24.599048,-144
2021-12-23 14:59:24.599054,-28
2021-12-23 14:59:24.599061,-19
2021-12-23 14:59:24.599067,-62
2021-12-23 14:59:24.599073,-24
2021-12-23 14:59:24.599080,-2
2021-12-23 14:59:24.599086,-16
2021-12-23 14:59:24.599092,-4
2021-12-23 14:59:24.599099,12
2021-12-23 14:59:24.599105,12
2021-12-23 14:59:24.599111,16
2021-12-23 14:59:24.599118,36
2021-12-23 14:59:24.599124,45
2021-12-23 14:59:24.599130,50
2021-12-23 14:59:24.599187,67
2021-12-23 14:59:24.599197,81
2021-12-23 14:59:24.599206,91
2021-12-23 14:59:24.735675,110
2021-12-23 14:59:24.735706,137
2021-12-23 14:59:24.735718,158
2021-12-23 14:59:24.735728,187
2021-12-23 14:59:24.735738,218
2021-12-23 14:59:24.735747,240
2021-12-23 14:59:24.735757,257
2021-12-23 14:59:24.735767,266
2021-12-23 14:59:24.735776,264
2021-12-23 14:59:24.735786,245
2021-12-23 14:59:24.735796,202
2021-12-23 14:59:24.735805,129
2021-12-23 14:59:24.735815,52
2021-12-23 14:59:24.735825,-14
2021-12-23 14:59:24.735834,-69
2021-12-23 14:59:24.735844,-103
2021-12-23 14:59:24.735854,-110
2021-12-23 14:59:24.735864,-113
2021-12-23 14:59:24.735873,-110
2021-12-23 14:59:24.735883,-101
2021-12-23 14:59:24.735893,-98
2021-12-23 14:59:24.735902,-98
2021-12-23 14:59:24.735912,-88
2021-12-23 14:59:24.735921,-74
2021-12-23 14:59:24.735931,-67
2021-12-23 14:59:24.735941,-72
2021-12-23 14:59:24.735950,-69
2021-12-23 14:59:24.735960,-50
2021-12-23 14:59:24.735970,-40
2021-12-23 14:59:24.735979,-36
2021-12-23 14:59:24.960692,-28
2021-12-23 14:59:24.960722,-24
2021-12-23 14:59:24.960734,-21
2021-12-23 14:59:24.960744,-19
2021-12-23 14:59:24.960754,-14
2021-12-23 14:59:24.960764,-9
2021-12-23 14:59:24.960773,-7
2021-12-23 14:59:24.960783,-14
2021-12-23 14:59:24.960793,-26
2021-12-23 14:59:24.960802,-28
2021-12-23 14:59:24.960812,-24
2021-12-23 14:59:24.960822,-16
2021-12-23 14:59:24.960831,-14
2021-12-23 14:59:24.960841,-9
2021-12-23 14:59:24.960851,4
2021-12-23 14:59:24.960860,21
2021-12-23 14:59:24.960870,16
2021-12-23 14:59:24.960880,0
2021-12-23 14:59:24.960890,-2
2021-12-23 14:59:24.960899,-2
2021-12-23 14:59:24.960909,-4
2021-12-23 14:59:24.960919,-7
2021-12-23 14:59:24.960928,-2
2021-12-23 14:59:24.960938,4
2021-12-23 14:59:24.960947,9
2021-12-23 14:59:24.960957,12
2021-12-23 14:59:24.960967,14
2021-12-23 14:59:24.960976,19
2021-12-23 14:59:24.960986,45
2021-12-23 14:59:24.960996,182
2021-12-23 14:59:25.186557,502
2021-12-23 14:59:25.186588,916
2021-12-23 14:59:25.186603,945
2021-12-23 14:59:25.186615,182
2021-12-23 14:59:25.186627,-440
2021-12-23 14:59:25.186639,-149
2021-12-23 14:59:25.186651,103
2021-12-23 14:59:25.186662,-93
2021-12-23 14:59:25.186673,-113
2021-12-23 14:59:25.186684,7
2021-12-23 14:59:25.186695,-26
2021-12-23 14:59:25.186706,-52
2021-12-23 14:59:25.186717,-12
2021-12-23 14:59:25.186728,-7
2021-12-23 14:59:25.186738,-19
2021-12-23 14:59:25.186748,-4
2021-12-23 14:59:25.186758,9
2021-12-23 14:59:25.186768,14
2021-12-23 14:59:25.186780,21
2021-12-23 14:59:25.186792,36
2021-12-23 14:59:25.186804,40
2021-12-23 14:59:25.187060,50
2021-12-23 14:59:25.187077,72
2021-12-23 14:59:25.187085,93
2021-12-23 14:59:25.187092,110
2021-12-23 14:59:25.187098,134
2021-12-23 14:59:25.187104,168
2021-12-23 14:59:25.187111,202
2021-12-23 14:59:25.187117,228
2021-12-23 14:59:25.187123,254
2021-12-23 14:59:25.454864,276
2021-12-23 14:59:25.454885,290
2021-12-23 14:59:25.454892,298
2021-12-23 14:59:25.454899,290
2021-12-23 14:59:25.454905,257
2021-12-23 14:59:25.454911,187
2021-12-23 14:59:25.454918,98
2021-12-23 14:59:25.454924,21
2021-12-23 14:59:25.454930,-36
2021-12-23 14:59:25.454936,-74
2021-12-23 14:59:25.454943,-96
2021-12-23 14:59:25.454949,-110
2021-12-23 14:59:25.454955,-120
2021-12-23 14:59:25.454961,-110
2021-12-23 14:59:25.454968,-98
2021-12-23 14:59:25.454974,-98
2021-12-23 14:59:25.454980,-96
2021-12-23 14:59:25.454991,-86
2021-12-23 14:59:25.454997,-79
2021-12-23 14:59:25.455003,-74
2021-12-23 14:59:25.455010,-72
2021-12-23 14:59:25.455016,-67
2021-12-23 14:59:25.455022,-57
2021-12-23 14:59:25.455029,-48
2021-12-23 14:59:25.455035,-38
2021-12-23 14:59:25.455041,-33
2021-12-23 14:59:25.455048,-33
2021-12-23 14:59:25.455054,-28
2021-12-23 14:59:25.455061,-31
2021-12-23 14:59:25.455067,-38
2021-12-23 14:59:25.635977,-36
2021-12-23 14:59:25.636007,-26
2021-12-23 14:59:25.636019,-19
2021-12-23 14:59:25.636029,-14
2021-12-23 14:59:25.636038,-7
2021-12-23 14:59:25.636048,4
2021-12-23 14:59:25.636057,19
2021-12-23 14:59:25.636067,19
2021-12-23 14:59:25.636077,7
2021-12-23 14:59:25.636086,2
2021-12-23 14:59:25.636096,-9
2021-12-23 14:59:25.636105,-21
2021-12-23 14:59:25.636115,-14
2021-12-23 14:59:25.636124,-7
2021-12-23 14:59:25.636134,-7
2021-12-23 14:59:25.636143,-2
2021-12-23 14:59:25.636153,2
2021-12-23 14:59:25.636163,2
2021-12-23 14:59:25.636172,7
2021-12-23 14:59:25.636182,33
2021-12-23 14:59:25.636191,187
2021-12-23 14:59:25.636201,538
2021-12-23 14:59:25.636210,973
2021-12-23 14:59:25.636220,957
2021-12-23 14:59:25.636229,129
2021-12-23 14:59:25.636239,-466
2021-12-23 14:59:25.636249,-129
2021-12-23 14:59:25.636258,103
2021-12-23 14:59:25.636268,-103
2021-12-23 14:59:25.636278,-105
2021-12-23 14:59:25.860483,4
2021-12-23 14:59:25.860514,-28
2021-12-23 14:59:25.860525,-43
2021-12-23 14:59:25.860536,-4
2021-12-23 14:59:25.860545,-9
2021-12-23 14:59:25.860555,-14
2021-12-23 14:59:25.860565,12
2021-12-23 14:59:25.860574,21
2021-12-23 14:59:25.860584,21
2021-12-23 14:59:25.860594,31
2021-12-23 14:59:25.860604,40
2021-12-23 14:59:25.860614,52
2021-12-23 14:59:25.860623,69
2021-12-23 14:59:25.860633,88
2021-12-23 14:59:25.860643,108
2021-12-23 14:59:25.860652,127
2021-12-23 14:59:25.860662,151
2021-12-23 14:59:25.860672,177
2021-12-23 14:59:25.860682,209
2021-12-23 14:59:25.860691,238
2021-12-23 14:59:25.860701,262
2021-12-23 14:59:25.860711,281
2021-12-23 14:59:25.860721,295
2021-12-23 14:59:25.860730,303
2021-12-23 14:59:25.860740,288
2021-12-23 14:59:25.860750,245
2021-12-23 14:59:25.860759,177
2021-12-23 14:59:25.860769,98
2021-12-23 14:59:25.860779,21
2021-12-23 14:59:25.860788,-36
2021-12-23 14:59:26.175506,-67
2021-12-23 14:59:26.175536,-79
2021-12-23 14:59:26.175547,-88
2021-12-23 14:59:26.175557,-93
2021-12-23 14:59:26.175567,-93
2021-12-23 14:59:26.175577,-86
2021-12-23 14:59:26.175587,-79
2021-12-23 14:59:26.175596,-76
2021-12-23 14:59:26.175606,-72
2021-12-23 14:59:26.175616,-67
2021-12-23 14:59:26.175625,-64
2021-12-23 14:59:26.175635,-60
2021-12-23 14:59:26.175644,-55
2021-12-23 14:59:26.175654,-48
2021-12-23 14:59:26.175664,-38
2021-12-23 14:59:26.175673,-38
2021-12-23 14:59:26.175683,-38
2021-12-23 14:59:26.175693,-28
2021-12-23 14:59:26.175702,-24
2021-12-23 14:59:26.175712,-31
2021-12-23 14:59:26.175722,-36
2021-12-23 14:59:26.175731,-36
2021-12-23 14:59:26.175741,-38
2021-12-23 14:59:26.175751,-36
2021-12-23 14:59:26.175760,-24
2021-12-23 14:59:26.175770,-16
2021-12-23 14:59:26.175779,-9
2021-12-23 14:59:26.175789,4
2021-12-23 14:59:26.175799,16
2021-12-23 14:59:26.175808,12
2021-12-23 14:59:26.356100,-2
2021-12-23 14:59:26.356131,-7
2021-12-23 14:59:26.356142,-7
2021-12-23 14:59:26.356168,-9
2021-12-23 14:59:26.356178,-9
2021-12-23 14:59:26.356188,-2
2021-12-23 14:59:26.356198,2
2021-12-23 14:59:26.356208,4
2021-12-23 14:59:26.356218,7
2021-12-23 14:59:26.356227,9
2021-12-23 14:59:26.356237,16
2021-12-23 14:59:26.356246,16
2021-12-23 14:59:26.356256,98
2021-12-23 14:59:26.356266,394
2021-12-23 14:59:26.356276,865
2021-12-23 14:59:26.356285,1118
2021-12-23 14:59:26.356295,529
2021-12-23 14:59:26.356304,-367
2021-12-23 14:59:26.356314,-336
2021-12-23 14:59:26.356324,86
2021-12-23 14:59:26.356333,-24
2021-12-23 14:59:26.356376,-153
2021-12-23 14:59:26.356385,-28
2021-12-23 14:59:26.356395,-7
2021-12-23 14:59:26.356405,-55
2021-12-23 14:59:26.356414,-21
2021-12-23 14:59:26.356424,2
2021-12-23 14:59:26.356433,-14
2021-12-23 14:59:26.356443,-7
2021-12-23 14:59:26.356452,12
2021-12-23 14:59:26.624763,21
2021-12-23 14:59:26.624793,31
2021-12-23 14:59:26.624805,38
2021-12-23 14:59:26.624815,52
2021-12-23 14:59:26.624824,74
2021-12-23 14:59:26.624834,88
2021-12-23 14:59:26.624844,96
2021-12-23 14:59:26.624854,122
2021-12-23 14:59:26.624863,146
2021-12-23 14:59:26.624873,170
2021-12-23 14:59:26.624882,204
2021-12-23 14:59:26.624892,238
2021-12-23 14:59:26.624902,264
2021-12-23 14:59:26.624911,286
2021-12-23 14:59:26.624921,298
2021-12-23 14:59:26.624930,307
2021-12-23 14:59:26.624940,307
2021-12-23 14:59:26.624950,281
2021-12-23 14:59:26.624959,218
2021-12-23 14:59:26.624969,137
2021-12-23 14:59:26.624978,52
2021-12-23 14:59:26.624988,-19
2021-12-23 14:59:26.624998,-74
2021-12-23 14:59:26.625007,-101
2021-12-23 14:59:26.625017,-108
2021-12-23 14:59:26.625026,-105
2021-12-23 14:59:26.625036,-105
2021-12-23 14:59:26.625046,-103
2021-12-23 14:59:26.625056,-93
2021-12-23 14:59:26.625065,-86
2021-12-23 14:59:26.804665,-86
2021-12-23 14:59:26.804682,-84
2021-12-23 14:59:26.804688,-74
2021-12-23 14:59:26.804694,-67
2021-12-23 14:59:26.804699,-62
2021-12-23 14:59:26.804704,-52
2021-12-23 14:59:26.804709,-45
2021-12-23 14:59:26.804714,-40
2021-12-23 14:59:26.804719,-38
2021-12-23 14:59:26.804724,-43
2021-12-23 14:59:26.804729,-43
2021-12-23 14:59:26.804734,-31
2021-12-23 14:59:26.804739,-28
2021-12-23 14:59:26.804744,-36
2021-12-23 14:59:26.804749,-40
2021-12-23 14:59:26.804754,-40
2021-12-23 14:59:26.804759,-43
2021-12-23 14:59:26.804764,-43
2021-12-23 14:59:26.804769,-36
2021-12-23 14:59:26.804774,-24
2021-12-23 14:59:26.804779,-16
2021-12-23 14:59:26.804784,-7
2021-12-23 14:59:26.804789,0
2021-12-23 14:59:26.804794,-4
2021-12-23 14:59:26.804799,-16
2021-12-23 14:59:26.804804,-19
2021-12-23 14:59:26.804809,-14
2021-12-23 14:59:26.804814,-12
2021-12-23 14:59:26.804819,-12
2021-12-23 14:59:26.804824,-12
2021-12-23 14:59:27.030470,-7
2021-12-23 14:59:27.030492,-9
2021-12-23 14:59:27.030499,-9
2021-12-23 14:59:27.030506,-7
2021-12-23 14:59:27.030513,0
2021-12-23 14:59:27.030520,0
2021-12-23 14:59:27.030526,21
2021-12-23 14:59:27.030532,185
2021-12-23 14:59:27.030539,567
2021-12-23 14:59:27.030545,981
2021-12-23 14:59:27.030552,800
2021-12-23 14:59:27.030558,-86
2021-12-23 14:59:27.030564,-480
2021-12-23 14:59:27.030571,-69
2021-12-23 14:59:27.030577,57
2021-12-23 14:59:27.030583,-129
2021-12-23 14:59:27.030590,-69
2021-12-23 14:59:27.030596,14
2021-12-23 14:59:27.030603,-38
2021-12-23 14:59:27.030609,-33
2021-12-23 14:59:27.030615,12
2021-12-23 14:59:27.030622,4
2021-12-23 14:59:27.030628,2
2021-12-23 14:59:27.030634,24
2021-12-23 14:59:27.030641,31
2021-12-23 14:59:27.030647,36
2021-12-23 14:59:27.030653,48
2021-12-23 14:59:27.030659,57
2021-12-23 14:59:27.030666,69
2021-12-23 14:59:27.030672,81
2021-12-23 14:59:27.255871,88
2021-12-23 14:59:27.255892,108
2021-12-23 14:59:27.255900,137
2021-12-23 14:59:27.255906,168
2021-12-23 14:59:27.255913,197
2021-12-23 14:59:27.255919,218
2021-12-23 14:59:27.255925,242
2021-12-23 14:59:27.255931,266
2021-12-23 14:59:27.255938,286
2021-12-23 14:59:27.255944,295
2021-12-23 14:59:27.255950,300
2021-12-23 14:59:27.255957,283
2021-12-23 14:59:27.255963,230
2021-12-23 14:59:27.255969,156
2021-12-23 14:59:27.255976,69
2021-12-23 14:59:27.255982,-12
2021-12-23 14:59:27.255988,-62
2021-12-23 14:59:27.255995,-84
2021-12-23 14:59:27.256001,-96
2021-12-23 14:59:27.256007,-98
2021-12-23 14:59:27.256014,-91
2021-12-23 14:59:27.256020,-91
2021-12-23 14:59:27.256026,-91
2021-12-23 14:59:27.256033,-81
2021-12-23 14:59:27.256039,-69
2021-12-23 14:59:27.256045,-64
2021-12-23 14:59:27.256051,-55
2021-12-23 14:59:27.256058,-48
2021-12-23 14:59:27.256064,-43
2021-12-23 14:59:27.256070,-28
2021-12-23 14:59:27.570338,-16
2021-12-23 14:59:27.570368,-12
2021-12-23 14:59:27.570379,-7
2021-12-23 14:59:27.570389,2
2021-12-23 14:59:27.570398,7
2021-12-23 14:59:27.570408,7
2021-12-23 14:59:27.570418,7
2021-12-23 14:59:27.570428,0
2021-12-23 14:59:27.570437,-7
2021-12-23 14:59:27.570447,-7
2021-12-23 14:59:27.570456,-2
2021-12-23 14:59:27.570466,-4
2021-12-23 14:59:27.570476,-4
2021-12-23 14:59:27.570485,0
2021-12-23 14:59:27.570495,2
2021-12-23 14:59:27.570505,2
2021-12-23 14:59:27.570514,2
2021-12-23 14:59:27.570524,2
2021-12-23 14:59:27.570534,4
2021-12-23 14:59:27.570543,4
2021-12-23 14:59:27.570553,2
2021-12-23 14:59:27.570562,4
2021-12-23 14:59:27.570572,14
2021-12-23 14:59:27.570581,19
2021-12-23 14:59:27.570591,31
2021-12-23 14:59:27.570601,50
2021-12-23 14:59:27.570610,57
2021-12-23 14:59:27.570620,45
2021-12-23 14:59:27.570629,31
2021-12-23 14:59:27.570639,28
2021-12-23 14:59:27.749922,31
2021-12-23 14:59:27.749943,33
2021-12-23 14:59:27.749951,28
2021-12-23 14:59:27.749957,24
2021-12-23 14:59:27.749963,28
2021-12-23 14:59:27.749969,33
2021-12-23 14:59:27.749975,33
2021-12-23 14:59:27.749982,33
2021-12-23 14:59:27.749988,40
2021-12-23 14:59:27.749994,43
2021-12-23 14:59:27.750000,91
2021-12-23 14:59:27.750007,305
2021-12-23 14:59:27.750013,699
2021-12-23 14:59:27.750019,1082
2021-12-23 14:59:27.750029,810
2021-12-23 14:59:27.750036,-110
2021-12-23 14:59:27.750042,-406
2021-12-23 14:59:27.750048,28
2021-12-23 14:59:27.750055,69
2021-12-23 14:59:27.750061,-125
2021-12-23 14:59:27.750067,-38
2021-12-23 14:59:27.750074,28
2021-12-23 14:59:27.750080,-31
2021-12-23 14:59:27.750086,-14
2021-12-23 14:59:27.750092,31
2021-12-23 14:59:27.750099,19
2021-12-23 14:59:27.750105,16
2021-12-23 14:59:27.750111,33
2021-12-23 14:59:27.750118,38
2021-12-23 14:59:27.750124,45
2021-12-23 14:59:27.975579,64
2021-12-23 14:59:27.975609,79
2021-12-23 14:59:27.975620,81
2021-12-23 14:59:27.975630,86
2021-12-23 14:59:27.975640,105
2021-12-23 14:59:27.975650,129
2021-12-23 14:59:27.975659,151
2021-12-23 14:59:27.975669,175
2021-12-23 14:59:27.975679,204
2021-12-23 14:59:27.975688,233
2021-12-23 14:59:27.975698,259
2021-12-23 14:59:27.975707,281
2021-12-23 14:59:27.975717,298
2021-12-23 14:59:27.975727,310
2021-12-23 14:59:27.975737,319
2021-12-23 14:59:27.975746,310
2021-12-23 14:59:27.975756,264
2021-12-23 14:59:27.975766,189
2021-12-23 14:59:27.975775,110
2021-12-23 14:59:27.975785,38
2021-12-23 14:59:27.975795,-19
2021-12-23 14:59:27.975804,-55
2021-12-23 14:59:27.975814,-72
2021-12-23 14:59:27.975823,-81
2021-12-23 14:59:27.975833,-84
2021-12-23 14:59:27.975842,-79
2021-12-23 14:59:27.975852,-72
2021-12-23 14:59:27.975862,-64
2021-12-23 14:59:27.975871,-60
2021-12-23 14:59:27.975881,-55
2021-12-23 14:59:28.245507,-50
2021-12-23 14:59:28.245538,-43
2021-12-23 14:59:28.245549,-40
2021-12-23 14:59:28.245559,-40
2021-12-23 14:59:28.245569,-33
2021-12-23 14:59:28.245578,-24
2021-12-23 14:59:28.245588,-24
2021-12-23 14:59:28.245598,-28
2021-12-23 14:59:28.245607,-28
2021-12-23 14:59:28.245617,-26
2021-12-23 14:59:28.245626,-24
2021-12-23 14:59:28.245636,-19
2021-12-23 14:59:28.245646,-16
2021-12-23 14:59:28.245655,-21
2021-12-23 14:59:28.245665,-26
2021-12-23 14:59:28.245675,-26
2021-12-23 14:59:28.245684,-24
2021-12-23 14:59:28.245694,-21
2021-12-23 14:59:28.245704,-14
2021-12-23 14:59:28.245714,-12
2021-12-23 14:59:28.245723,-16
2021-12-23 14:59:28.245733,-14
2021-12-23 14:59:28.245742,-9
2021-12-23 14:59:28.245752,-7
2021-12-23 14:59:28.245761,-2
2021-12-23 14:59:28.245771,2
2021-12-23 14:59:28.245781,2
2021-12-23 14:59:28.245790,-2
2021-12-23 14:59:28.245800,-4
2021-12-23 14:59:28.245810,-4
2021-12-23 14:59:28.470834,-2
2021-12-23 14:59:28.470855,9
2021-12-23 14:59:28.470863,21
2021-12-23 14:59:28.470869,31
2021-12-23 14:59:28.470875,45
2021-12-23 14:59:28.470882,52
2021-12-23 14:59:28.470888,45
2021-12-23 14:59:28.470894,31
2021-12-23 14:59:28.470901,21
2021-12-23 14:59:28.470907,19
2021-12-23 14:59:28.470913,26
2021-12-23 14:59:28.470919,31
2021-12-23 14:59:28.470926,31
2021-12-23 14:59:28.470932,33
2021-12-23 14:59:28.470938,33
2021-12-23 14:59:28.470945,33
2021-12-23 14:59:28.470951,33
2021-12-23 14:59:28.470957,43
2021-12-23 14:59:28.470964,52
2021-12-23 14:59:28.470970,115
2021-12-23 14:59:28.470977,336
2021-12-23 14:59:28.470983,733
2021-12-23 14:59:28.470989,1079
2021-12-23 14:59:28.470996,740
2021-12-23 14:59:28.471002,-163
2021-12-23 14:59:28.471008,-367
2021-12-23 14:59:28.471014,62
2021-12-23 14:59:28.471021,62
2021-12-23 14:59:28.471027,-115
2021-12-23 14:59:28.471033,-16
2021-12-23 14:59:28.739564,38
2021-12-23 14:59:28.739594,-21
2021-12-23 14:59:28.739606,-2
2021-12-23 14:59:28.739616,33
2021-12-23 14:59:28.739626,21
2021-12-23 14:59:28.739636,28
2021-12-23 14:59:28.739646,48
2021-12-23 14:59:28.739655,43
2021-12-23 14:59:28.739665,40
2021-12-23 14:59:28.739675,55
2021-12-23 14:59:28.739685,64
2021-12-23 14:59:28.739695,74
2021-12-23 14:59:28.739705,91
2021-12-23 14:59:28.739715,103
2021-12-23 14:59:28.739724,117
2021-12-23 14:59:28.739734,144
2021-12-23 14:59:28.739744,173
2021-12-23 14:59:28.739754,197
2021-12-23 14:59:28.739763,218
2021-12-23 14:59:28.739773,247
2021-12-23 14:59:28.739783,278
2021-12-23 14:59:28.739793,300
2021-12-23 14:59:28.739802,315
2021-12-23 14:59:28.739812,324
2021-12-23 14:59:28.739822,317
2021-12-23 14:59:28.739832,278
2021-12-23 14:59:28.739841,209
2021-12-23 14:59:28.739851,120
2021-12-23 14:59:28.739861,38
2021-12-23 14:59:28.739871,-24
2021-12-23 14:59:28.875486,-64
2021-12-23 14:59:28.875517,-86
2021-12-23 14:59:28.875528,-91
2021-12-23 14:59:28.875538,-93
2021-12-23 14:59:28.875548,-93
2021-12-23 14:59:28.875558,-86
2021-12-23 14:59:28.875567,-84
2021-12-23 14:59:28.875577,-84
2021-12-23 14:59:28.875586,-76
2021-12-23 14:59:28.875596,-72
2021-12-23 14:59:28.875605,-67
2021-12-23 14:59:28.875615,-57
2021-12-23 14:59:28.875624,-55
2021-12-23 14:59:28.875634,-55
2021-12-23 14:59:28.875643,-45
2021-12-23 14:59:28.875653,-33
2021-12-23 14:59:28.875662,-33
2021-12-23 14:59:28.875672,-28
2021-12-23 14:59:28.875684,-16
2021-12-23 14:59:28.875693,-19
2021-12-23 14:59:28.875703,-24
2021-12-23 14:59:28.875712,-14
2021-12-23 14:59:28.875722,-9
2021-12-23 14:59:28.875731,-16
2021-12-23 14:59:28.875741,-16
2021-12-23 14:59:28.875750,-12
2021-12-23 14:59:28.875760,-14
2021-12-23 14:59:28.875769,-12
2021-12-23 14:59:28.875779,-4
2021-12-23 14:59:28.875788,0
2021-12-23 14:59:29.235594,2
2021-12-23 14:59:29.235624,4
2021-12-23 14:59:29.235637,0
2021-12-23 14:59:29.235647,4
2021-12-23 14:59:29.235657,12
2021-12-23 14:59:29.235667,7
2021-12-23 14:59:29.235676,0
2021-12-23 14:59:29.235686,2
2021-12-23 14:59:29.235696,0
2021-12-23 14:59:29.235706,-4
2021-12-23 14:59:29.235716,-2
2021-12-23 14:59:29.235725,7
2021-12-23 14:59:29.235735,19
2021-12-23 14:59:29.235745,33
2021-12-23 14:59:29.235755,48
2021-12-23 14:59:29.235764,50
2021-12-23 14:59:29.235774,43
2021-12-23 14:59:29.235784,33
2021-12-23 14:59:29.235794,26
2021-12-23 14:59:29.235803,21
2021-12-23 14:59:29.235813,19
2021-12-23 14:59:29.235823,21
2021-12-23 14:59:29.235832,16
2021-12-23 14:59:29.235842,12
2021-12-23 14:59:29.235852,16
2021-12-23 14:59:29.235862,26
2021-12-23 14:59:29.235871,28
2021-12-23 14:59:29.235881,31
2021-12-23 14:59:29.235891,33
2021-12-23 14:59:29.235901,79
2021-12-23 14:59:29.325609,278
2021-12-23 14:59:29.325638,685
2021-12-23 14:59:29.325649,1091
2021-12-23 14:59:29.325659,832
2021-12-23 14:59:29.325669,-110
2021-12-23 14:59:29.325679,-435
2021-12-23 14:59:29.325689,4
2021-12-23 14:59:29.325699,67
2021-12-23 14:59:29.325709,-132
2021-12-23 14:59:29.325718,-50
2021-12-23 14:59:29.325728,24
2021-12-23 14:59:29.325738,-38
2021-12-23 14:59:29.325748,-33
2021-12-23 14:59:29.325757,9
2021-12-23 14:59:29.325767,4
2021-12-23 14:59:29.325777,0
2021-12-23 14:59:29.325787,14
2021-12-23 14:59:29.325797,26
2021-12-23 14:59:29.325806,31
2021-12-23 14:59:29.325816,38
2021-12-23 14:59:29.325826,48
2021-12-23 14:59:29.325835,52
2021-12-23 14:59:29.325845,64
2021-12-23 14:59:29.325855,84
2021-12-23 14:59:29.325864,103
2021-12-23 14:59:29.325874,122
2021-12-23 14:59:29.325884,146
2021-12-23 14:59:29.325893,180
2021-12-23 14:59:29.325903,204
2021-12-23 14:59:29.325913,228
2021-12-23 14:59:29.594610,259
2021-12-23 14:59:29.594628,283
2021-12-23 14:59:29.594634,300
2021-12-23 14:59:29.594639,315
2021-12-23 14:59:29.594644,305
2021-12-23 14:59:29.594649,266
2021-12-23 14:59:29.594654,204
2021-12-23 14:59:29.594659,122
2021-12-23 14:59:29.594664,31
2021-12-23 14:59:29.594669,-38
2021-12-23 14:59:29.594674,-81
2021-12-23 14:59:29.594679,-105
2021-12-23 14:59:29.594684,-117
2021-12-23 14:59:29.594689,-117
2021-12-23 14:59:29.594693,-113
2021-12-23 14:59:29.594698,-113
2021-12-23 14:59:29.594703,-108
2021-12-23 14:59:29.594708,-98
2021-12-23 14:59:29.594713,-86
2021-12-23 14:59:29.594718,-81
2021-12-23 14:59:29.594723,-74
2021-12-23 14:59:29.594728,-69
2021-12-23 14:59:29.594733,-64
2021-12-23 14:59:29.594738,-55
2021-12-23 14:59:29.594743,-50
2021-12-23 14:59:29.594748,-45
2021-12-23 14:59:29.594753,-43
2021-12-23 14:59:29.594758,-43
2021-12-23 14:59:29.594763,-36
2021-12-23 14:59:29.594768,-26
2021-12-23 14:59:29.820546,-21
2021-12-23 14:59:29.820567,-19
2021-12-23 14:59:29.820573,-14
2021-12-23 14:59:29.820579,-14
2021-12-23 14:59:29.820584,-14
2021-12-23 14:59:29.820590,-9
2021-12-23 14:59:29.820596,-4
2021-12-23 14:59:29.820601,0
2021-12-23 14:59:29.820607,-2
2021-12-23 14:59:29.820612,-7
2021-12-23 14:59:29.820617,-7
2021-12-23 14:59:29.820622,0
2021-12-23 14:59:29.820627,4
2021-12-23 14:59:29.820632,4
2021-12-23 14:59:29.820637,7
2021-12-23 14:59:29.820642,9
2021-12-23 14:59:29.820647,7
2021-12-23 14:59:29.820652,7
2021-12-23 14:59:29.820657,7
2021-12-23 14:59:29.820662,4
2021-12-23 14:59:29.820667,7
2021-12-23 14:59:29.820672,19
2021-12-23 14:59:29.820677,31
2021-12-23 14:59:29.820682,40
2021-12-23 14:59:29.820687,55
2021-12-23 14:59:29.820692,52
2021-12-23 14:59:29.820697,36
2021-12-23 14:59:29.820702,21
2021-12-23 14:59:29.820707,19
2021-12-23 14:59:29.820712,21
2021-12-23 14:59:30.045460,24
2021-12-23 14:59:30.045491,26
2021-12-23 14:59:30.045502,28
2021-12-23 14:59:30.045512,31
2021-12-23 14:59:30.045522,31
2021-12-23 14:59:30.045532,31
2021-12-23 14:59:30.045541,38
2021-12-23 14:59:30.045551,45
2021-12-23 14:59:30.045560,52
2021-12-23 14:59:30.045570,144
2021-12-23 14:59:30.045579,428
2021-12-23 14:59:30.045589,863
2021-12-23 14:59:30.045599,1070
2021-12-23 14:59:30.045609,452
2021-12-23 14:59:30.045618,-377
2021-12-23 14:59:30.045628,-281
2021-12-23 14:59:30.045638,103
2021-12-23 14:59:30.045647,-31
2021-12-23 14:59:30.045657,-132
2021-12-23 14:59:30.045667,-4
2021-12-23 14:59:30.045676,-4
2021-12-23 14:59:30.045686,-52
2021-12-23 14:59:30.045695,-12
2021-12-23 14:59:30.045705,7
2021-12-23 14:59:30.045714,-2
2021-12-23 14:59:30.045724,9
2021-12-23 14:59:30.045734,24
2021-12-23 14:59:30.045744,24
2021-12-23 14:59:30.045753,31
2021-12-23 14:59:30.045763,43
2021-12-23 14:59:30.270607,48
2021-12-23 14:59:30.270629,50
2021-12-23 14:59:30.270637,67
2021-12-23 14:59:30.270643,86
2021-12-23 14:59:30.270649,105
2021-12-23 14:59:30.270668,132
2021-12-23 14:59:30.270674,163
2021-12-23 14:59:30.270681,192
2021-12-23 14:59:30.270687,221
2021-12-23 14:59:30.270693,250
2021-12-23 14:59:30.270700,276
2021-12-23 14:59:30.270706,300
2021-12-23 14:59:30.270712,317
2021-12-23 14:59:30.270718,322
2021-12-23 14:59:30.270724,303
2021-12-23 14:59:30.270730,257
2021-12-23 14:59:30.270737,187
2021-12-23 14:59:30.270743,101
2021-12-23 14:59:30.270749,21
2021-12-23 14:59:30.270760,-33
2021-12-23 14:59:30.270767,-67
2021-12-23 14:59:30.270773,-86
2021-12-23 14:59:30.270779,-88
2021-12-23 14:59:30.270785,-84
2021-12-23 14:59:30.270792,-81
2021-12-23 14:59:30.270798,-76
2021-12-23 14:59:30.270804,-74
2021-12-23 14:59:30.270810,-67
2021-12-23 14:59:30.270817,-62
2021-12-23 14:59:30.270823,-55
2021-12-23 14:59:30.630508,-50
2021-12-23 14:59:30.630538,-48
2021-12-23 14:59:30.630549,-40
2021-12-23 14:59:30.630559,-28
2021-12-23 14:59:30.630568,-21
2021-12-23 14:59:30.630578,-21
2021-12-23 14:59:30.630587,-16
2021-12-23 14:59:30.630597,-9
2021-12-23 14:59:30.630607,-7
2021-12-23 14:59:30.630616,-4
2021-12-23 14:59:30.630626,0
2021-12-23 14:59:30.630635,2
2021-12-23 14:59:30.630645,2
2021-12-23 14:59:30.630655,0
2021-12-23 14:59:30.630664,0
2021-12-23 14:59:30.630674,-2
2021-12-23 14:59:30.630684,0
2021-12-23 14:59:30.630693,2
2021-12-23 14:59:30.630703,2
2021-12-23 14:59:30.630712,-4
2021-12-23 14:59:30.630722,-2
2021-12-23 14:59:30.630732,4
2021-12-23 14:59:30.630741,4
2021-12-23 14:59:30.630751,9
2021-12-23 14:59:30.630760,12
2021-12-23 14:59:30.630770,12
2021-12-23 14:59:30.630779,14
2021-12-23 14:59:30.630789,16
2021-12-23 14:59:30.630798,16
2021-12-23 14:59:30.630808,19
2021-12-23 14:59:30.764596,21
2021-12-23 14:59:30.764627,21
2021-12-23 14:59:30.764638,21
2021-12-23 14:59:30.764648,16
2021-12-23 14:59:30.764658,7
2021-12-23 14:59:30.764668,-2
2021-12-23 14:59:30.764678,-4
2021-12-23 14:59:30.764688,7
2021-12-23 14:59:30.764697,16
2021-12-23 14:59:30.764707,24
2021-12-23 14:59:30.764717,36
2021-12-23 14:59:30.764727,40
2021-12-23 14:59:30.764736,26
2021-12-23 14:59:30.764746,12
2021-12-23 14:59:30.764756,9
2021-12-23 14:59:30.764765,12
2021-12-23 14:59:30.764775,12
2021-12-23 14:59:30.764785,14
2021-12-23 14:59:30.764794,16
2021-12-23 14:59:30.764804,19
2021-12-23 14:59:30.764814,19
2021-12-23 14:59:30.764823,21
2021-12-23 14:59:30.764833,26
2021-12-23 14:59:30.764843,26
2021-12-23 14:59:30.764852,24
2021-12-23 14:59:30.764862,110
2021-12-23 14:59:30.764872,377
2021-12-23 14:59:30.764881,808
2021-12-23 14:59:30.764891,1096
2021-12-23 14:59:30.764901,601
2021-12-23 14:59:30.990168,-293
2021-12-23 14:59:30.990191,-339
2021-12-23 14:59:30.990199,81
2021-12-23 14:59:30.990206,4
2021-12-23 14:59:30.990212,-137
2021-12-23 14:59:30.990219,-24
2021-12-23 14:59:30.990225,-2
2021-12-23 14:59:30.990232,-57
2021-12-23 14:59:30.990238,-24
2021-12-23 14:59:30.990244,7
2021-12-23 14:59:30.990251,-7
2021-12-23 14:59:30.990257,-7
2021-12-23 14:59:30.990263,7
2021-12-23 14:59:30.990270,14
2021-12-23 14:59:30.990276,24
2021-12-23 14:59:30.990282,33
2021-12-23 14:59:30.990288,43
2021-12-23 14:59:30.990295,55
2021-12-23 14:59:30.990301,69
2021-12-23 14:59:30.990307,88
2021-12-23 14:59:30.990314,105
2021-12-23 14:59:30.990320,129
2021-12-23 14:59:30.990326,153
2021-12-23 14:59:30.990333,182
2021-12-23 14:59:30.990339,216
2021-12-23 14:59:30.990345,250
2021-12-23 14:59:30.990352,278
2021-12-23 14:59:30.990358,298
2021-12-23 14:59:30.990364,315
2021-12-23 14:59:30.990370,322
2021-12-23 14:59:31.170438,315
2021-12-23 14:59:31.170468,286
2021-12-23 14:59:31.170480,226
2021-12-23 14:59:31.170490,141
2021-12-23 14:59:31.170500,60
2021-12-23 14:59:31.170509,-4
2021-12-23 14:59:31.170519,-52
2021-12-23 14:59:31.170529,-79
2021-12-23 14:59:31.170538,-91
2021-12-23 14:59:31.170548,-91
2021-12-23 14:59:31.170558,-88
2021-12-23 14:59:31.170567,-86
2021-12-23 14:59:31.170577,-86
2021-12-23 14:59:31.170587,-79
2021-12-23 14:59:31.170597,-69
2021-12-23 14:59:31.170606,-64
2021-12-23 14:59:31.170616,-67
2021-12-23 14:59:31.170626,-67
2021-12-23 14:59:31.170635,-57
2021-12-23 14:59:31.170645,-50
2021-12-23 14:59:31.170655,-48
2021-12-23 14:59:31.170664,-40
2021-12-23 14:59:31.170674,-33
2021-12-23 14:59:31.170684,-31
2021-12-23 14:59:31.170693,-26
2021-12-23 14:59:31.170703,-19
2021-12-23 14:59:31.170713,-14
2021-12-23 14:59:31.170723,-14
2021-12-23 14:59:31.170732,-12
2021-12-23 14:59:31.170742,-12
2021-12-23 14:59:31.440350,-7
2021-12-23 14:59:31.440380,-7
2021-12-23 14:59:31.440392,-12
2021-12-23 14:59:31.440402,-12
2021-12-23 14:59:31.440411,-7
2021-12-23 14:59:31.440421,-9
2021-12-23 14:59:31.440430,-7
2021-12-23 14:59:31.440440,-2
2021-12-23 14:59:31.440450,0
2021-12-23 14:59:31.440459,-7
2021-12-23 14:59:31.440469,-14
2021-12-23 14:59:31.440479,-14
2021-12-23 14:59:31.440488,-12
2021-12-23 14:59:31.440498,-12
2021-12-23 14:59:31.440508,-12
2021-12-23 14:59:31.440517,-12
2021-12-23 14:59:31.440527,-9
2021-12-23 14:59:31.440537,-7
2021-12-23 14:59:31.440547,0
2021-12-23 14:59:31.440556,0
2021-12-23 14:59:31.440566,-2
2021-12-23 14:59:31.440575,0
2021-12-23 14:59:31.440585,2
2021-12-23 14:59:31.440595,-4
2021-12-23 14:59:31.440604,-7
2021-12-23 14:59:31.440614,-2
2021-12-23 14:59:31.440623,7
2021-12-23 14:59:31.440633,16
2021-12-23 14:59:31.440642,21
2021-12-23 14:59:31.440652,33
2021-12-23 14:59:31.710432,52
2021-12-23 14:59:31.710455,55
2021-12-23 14:59:31.710463,36
2021-12-23 14:59:31.710469,19
2021-12-23 14:59:31.710475,14
2021-12-23 14:59:31.710481,16
2021-12-23 14:59:31.710488,21
2021-12-23 14:59:31.710494,24
2021-12-23 14:59:31.710500,24
2021-12-23 14:59:31.710506,24
2021-12-23 14:59:31.710512,24
2021-12-23 14:59:31.710518,26
2021-12-23 14:59:31.710524,31
2021-12-23 14:59:31.710531,31
2021-12-23 14:59:31.710537,48
2021-12-23 14:59:31.710543,170
2021-12-23 14:59:31.710549,483
2021-12-23 14:59:31.710555,928
2021-12-23 14:59:31.710562,1048
2021-12-23 14:59:31.710568,319
2021-12-23 14:59:31.710574,-418
2021-12-23 14:59:31.710580,-202
2021-12-23 14:59:31.710587,113
2021-12-23 14:59:31.710593,-67
2021-12-23 14:59:31.710599,-115
2021-12-23 14:59:31.710605,14
2021-12-23 14:59:31.710611,-7
2021-12-23 14:59:31.710617,-43
2021-12-23 14:59:31.710623,4
2021-12-23 14:59:31.710630,19
2021-12-23 14:59:31.935349,2
2021-12-23 14:59:31.935378,14
2021-12-23 14:59:31.935389,24
2021-12-23 14:59:31.935399,24
2021-12-23 14:59:31.935409,33
2021-12-23 14:59:31.935419,48
2021-12-23 14:59:31.935428,57
2021-12-23 14:59:31.935438,72
2021-12-23 14:59:31.935448,79
2021-12-23 14:59:31.935457,84
2021-12-23 14:59:31.935467,103
2021-12-23 14:59:31.935477,139
2021-12-23 14:59:31.935486,165
2021-12-23 14:59:31.935496,185
2021-12-23 14:59:31.935506,204
2021-12-23 14:59:31.935516,235
2021-12-23 14:59:31.935526,271
2021-12-23 14:59:31.935536,295
2021-12-23 14:59:31.935545,310
2021-12-23 14:59:31.935555,317
2021-12-23 14:59:31.935564,305
2021-12-23 14:59:31.935574,266
2021-12-23 14:59:31.935583,202
2021-12-23 14:59:31.935593,122
2021-12-23 14:59:31.935603,43
2021-12-23 14:59:31.935612,-24
2021-12-23 14:59:31.935622,-64
2021-12-23 14:59:31.935632,-84
2021-12-23 14:59:31.935641,-93
2021-12-23 14:59:31.935651,-101
2021-12-23 14:59:32.115936,-101
2021-12-23 14:59:32.115967,-96
2021-12-23 14:59:32.115978,-91
2021-12-23 14:59:32.115988,-88
2021-12-23 14:59:32.115997,-86
2021-12-23 14:59:32.116007,-79
2021-12-23 14:59:32.116017,-69
2021-12-23 14:59:32.116026,-62
2021-12-23 14:59:32.116036,-62
2021-12-23 14:59:32.116046,-57
2021-12-23 14:59:32.116055,-50
2021-12-23 14:59:32.116065,-43
2021-12-23 14:59:32.116074,-33
2021-12-23 14:59:32.116084,-31
2021-12-23 14:59:32.116093,-31
2021-12-23 14:59:32.116103,-28
2021-12-23 14:59:32.116113,-26
2021-12-23 14:59:32.116122,-24
2021-12-23 14:59:32.116132,-24
2021-12-23 14:59:32.116141,-26
2021-12-23 14:59:32.116151,-28
2021-12-23 14:59:32.116160,-31
2021-12-23 14:59:32.116171,-31
2021-12-23 14:59:32.116180,-36
2021-12-23 14:59:32.116190,-38
2021-12-23 14:59:32.116199,-33
2021-12-23 14:59:32.116209,-33
2021-12-23 14:59:32.116219,-28
2021-12-23 14:59:32.116228,-26
2021-12-23 14:59:32.116238,-28
2021-12-23 14:59:32.340945,-26
2021-12-23 14:59:32.340975,-19
2021-12-23 14:59:32.340986,-19
2021-12-23 14:59:32.340996,-16
2021-12-23 14:59:32.341005,-14
2021-12-23 14:59:32.341015,-9
2021-12-23 14:59:32.341025,-7
2021-12-23 14:59:32.341034,-4
2021-12-23 14:59:32.341044,-7
2021-12-23 14:59:32.341054,-9
2021-12-23 14:59:32.341064,-7
2021-12-23 14:59:32.341073,-9
2021-12-23 14:59:32.341083,-14
2021-12-23 14:59:32.341092,-9
2021-12-23 14:59:32.341102,4
2021-12-23 14:59:32.341112,14
2021-12-23 14:59:32.341122,26
2021-12-23 14:59:32.341131,38
2021-12-23 14:59:32.341141,31
2021-12-23 14:59:32.341150,19
2021-12-23 14:59:32.341160,14
2021-12-23 14:59:32.341169,9
2021-12-23 14:59:32.341179,12
2021-12-23 14:59:32.341188,19
2021-12-23 14:59:32.341198,19
2021-12-23 14:59:32.341207,19
2021-12-23 14:59:32.341217,24
2021-12-23 14:59:32.341227,26
2021-12-23 14:59:32.341237,26
2021-12-23 14:59:32.341246,36
2021-12-23 14:59:32.565513,40
2021-12-23 14:59:32.565544,72
2021-12-23 14:59:32.565556,242
2021-12-23 14:59:32.565566,608
2021-12-23 14:59:32.565575,1024
2021-12-23 14:59:32.565585,913
2021-12-23 14:59:32.565595,43
2021-12-23 14:59:32.565604,-442
2021-12-23 14:59:32.565614,-60
2021-12-23 14:59:32.565624,105
2021-12-23 14:59:32.565634,-98
2021-12-23 14:59:32.565643,-64
2021-12-23 14:59:32.565653,28
2021-12-23 14:59:32.565663,-24
2021-12-23 14:59:32.565673,-28
2021-12-23 14:59:32.565682,19
2021-12-23 14:59:32.565692,16
2021-12-23 14:59:32.565701,12
2021-12-23 14:59:32.565711,31
2021-12-23 14:59:32.565721,36
2021-12-23 14:59:32.565730,36
2021-12-23 14:59:32.565740,48
2021-12-23 14:59:32.565749,62
2021-12-23 14:59:32.565759,72
2021-12-23 14:59:32.565768,79
2021-12-23 14:59:32.565778,93
2021-12-23 14:59:32.565788,115
2021-12-23 14:59:32.565797,134
2021-12-23 14:59:32.565807,156
2021-12-23 14:59:32.565817,177
2021-12-23 14:59:32.925229,199
2021-12-23 14:59:32.925251,233
2021-12-23 14:59:32.925258,266
2021-12-23 14:59:32.925265,290
2021-12-23 14:59:32.925271,305
2021-12-23 14:59:32.925277,315
2021-12-23 14:59:32.925283,317
2021-12-23 14:59:32.925290,303
2021-12-23 14:59:32.925296,257
2021-12-23 14:59:32.925302,177
2021-12-23 14:59:32.925308,96
2021-12-23 14:59:32.925315,21
2021-12-23 14:59:32.925321,-40
2021-12-23 14:59:32.925327,-79
2021-12-23 14:59:32.925334,-96
2021-12-23 14:59:32.925340,-101
2021-12-23 14:59:32.925346,-98
2021-12-23 14:59:32.925353,-98
2021-12-23 14:59:32.925359,-93
2021-12-23 14:59:32.925365,-86
2021-12-23 14:59:32.925372,-81
2021-12-23 14:59:32.925378,-76
2021-12-23 14:59:32.925384,-69
2021-12-23 14:59:32.925390,-64
2021-12-23 14:59:32.925397,-62
2021-12-23 14:59:32.925403,-57
2021-12-23 14:59:32.925409,-45
2021-12-23 14:59:32.925415,-40
2021-12-23 14:59:32.925421,-36
2021-12-23 14:59:32.925428,-31
2021-12-23 14:59:33.105501,-28
2021-12-23 14:59:33.105532,-28
2021-12-23 14:59:33.105543,-26
2021-12-23 14:59:33.105553,-24
2021-12-23 14:59:33.105563,-24
2021-12-23 14:59:33.105573,-21
2021-12-23 14:59:33.105583,-21
2021-12-23 14:59:33.105593,-24
2021-12-23 14:59:33.105602,-26
2021-12-23 14:59:33.105612,-24
2021-12-23 14:59:33.105622,-19
2021-12-23 14:59:33.105631,-19
2021-12-23 14:59:33.105641,-16
2021-12-23 14:59:33.105651,-16
2021-12-23 14:59:33.105660,-14
2021-12-23 14:59:33.105670,-12
2021-12-23 14:59:33.105680,-7
2021-12-23 14:59:33.105690,-9
2021-12-23 14:59:33.105699,-14
2021-12-23 14:59:33.105709,-12
2021-12-23 14:59:33.105719,-4
2021-12-23 14:59:33.105729,0
2021-12-23 14:59:33.105738,2
2021-12-23 14:59:33.105748,2
2021-12-23 14:59:33.105758,2
2021-12-23 14:59:33.105768,0
2021-12-23 14:59:33.105777,-2
2021-12-23 14:59:33.105787,4
2021-12-23 14:59:33.105797,4
2021-12-23 14:59:33.105807,-2
2021-12-23 14:59:33.240869,-2
2021-12-23 14:59:33.240890,2
2021-12-23 14:59:33.240898,0
2021-12-23 14:59:33.240904,4
2021-12-23 14:59:33.240911,24
2021-12-23 14:59:33.240931,33
2021-12-23 14:59:33.240938,38
2021-12-23 14:59:33.240944,38
2021-12-23 14:59:33.240950,26
2021-12-23 14:59:33.240957,16
2021-12-23 14:59:33.240963,14
2021-12-23 14:59:33.240969,14
2021-12-23 14:59:33.240975,16
2021-12-23 14:59:33.240982,21
2021-12-23 14:59:33.240988,24
2021-12-23 14:59:33.240994,24
2021-12-23 14:59:33.241000,24
2021-12-23 14:59:33.241006,19
2021-12-23 14:59:33.241013,26
2021-12-23 14:59:33.241019,33
2021-12-23 14:59:33.241025,88
2021-12-23 14:59:33.241031,310
2021-12-23 14:59:33.241038,716
2021-12-23 14:59:33.241044,1094
2021-12-23 14:59:33.241050,805
2021-12-23 14:59:33.241056,-129
2021-12-23 14:59:33.241063,-428
2021-12-23 14:59:33.241069,4
2021-12-23 14:59:33.241075,55
2021-12-23 14:59:33.241081,-137
2021-12-23 14:59:33.555194,-60
2021-12-23 14:59:33.555223,7
2021-12-23 14:59:33.555235,-48
2021-12-23 14:59:33.555245,-36
2021-12-23 14:59:33.555255,4
2021-12-23 14:59:33.555265,0
2021-12-23 14:59:33.555275,-7
2021-12-23 14:59:33.555285,12
2021-12-23 14:59:33.555294,24
2021-12-23 14:59:33.555304,19
2021-12-23 14:59:33.555314,21
2021-12-23 14:59:33.555324,40
2021-12-23 14:59:33.555334,52
2021-12-23 14:59:33.555343,62
2021-12-23 14:59:33.555353,81
2021-12-23 14:59:33.555363,96
2021-12-23 14:59:33.555372,115
2021-12-23 14:59:33.555382,149
2021-12-23 14:59:33.555392,177
2021-12-23 14:59:33.555401,187
2021-12-23 14:59:33.555411,211
2021-12-23 14:59:33.555421,247
2021-12-23 14:59:33.555431,278
2021-12-23 14:59:33.555440,300
2021-12-23 14:59:33.555450,307
2021-12-23 14:59:33.555460,307
2021-12-23 14:59:33.555470,295
2021-12-23 14:59:33.555479,254
2021-12-23 14:59:33.555489,182
2021-12-23 14:59:33.555499,96
2021-12-23 14:59:33.734791,12
2021-12-23 14:59:33.734820,-48
2021-12-23 14:59:33.734828,-88
2021-12-23 14:59:33.734834,-105
2021-12-23 14:59:33.734841,-105
2021-12-23 14:59:33.734847,-105
2021-12-23 14:59:33.734853,-108
2021-12-23 14:59:33.734859,-101
2021-12-23 14:59:33.734865,-96
2021-12-23 14:59:33.734872,-101
2021-12-23 14:59:33.734878,-101
2021-12-23 14:59:33.734884,-96
2021-12-23 14:59:33.734891,-91
2021-12-23 14:59:33.734897,-81
2021-12-23 14:59:33.734903,-76
2021-12-23 14:59:33.734909,-81
2021-12-23 14:59:33.734916,-74
2021-12-23 14:59:33.734922,-62
2021-12-23 14:59:33.734928,-52
2021-12-23 14:59:33.734934,-45
2021-12-23 14:59:33.734941,-45
2021-12-23 14:59:33.734947,-45
2021-12-23 14:59:33.734953,-40
2021-12-23 14:59:33.734959,-38
2021-12-23 14:59:33.734966,-36
2021-12-23 14:59:33.734972,-31
2021-12-23 14:59:33.734978,-36
2021-12-23 14:59:33.734984,-43
2021-12-23 14:59:33.734990,-36
2021-12-23 14:59:33.734997,-33
2021-12-23 14:59:33.960463,-33
2021-12-23 14:59:33.960493,-28
2021-12-23 14:59:33.960504,-24
2021-12-23 14:59:33.960514,-26
2021-12-23 14:59:33.960524,-26
2021-12-23 14:59:33.960534,-26
2021-12-23 14:59:33.960543,-21
2021-12-23 14:59:33.960553,-16
2021-12-23 14:59:33.960562,-19
2021-12-23 14:59:33.960572,-24
2021-12-23 14:59:33.960581,-19
2021-12-23 14:59:33.960591,-14
2021-12-23 14:59:33.960600,-19
2021-12-23 14:59:33.960610,-21
2021-12-23 14:59:33.960620,-14
2021-12-23 14:59:33.960629,-4
2021-12-23 14:59:33.960639,7
2021-12-23 14:59:33.960649,24
2021-12-23 14:59:33.960658,33
2021-12-23 14:59:33.960667,24
2021-12-23 14:59:33.960677,12
2021-12-23 14:59:33.960686,7
2021-12-23 14:59:33.960696,9
2021-12-23 14:59:33.960705,14
2021-12-23 14:59:33.960715,12
2021-12-23 14:59:33.960724,12
2021-12-23 14:59:33.960734,21
2021-12-23 14:59:33.960743,26
2021-12-23 14:59:33.960753,24
2021-12-23 14:59:33.960762,24
2021-12-23 14:59:34.229823,31
2021-12-23 14:59:34.229853,50
2021-12-23 14:59:34.229865,127
2021-12-23 14:59:34.229875,365
2021-12-23 14:59:34.229885,776
2021-12-23 14:59:34.229894,1050
2021-12-23 14:59:34.229904,567
2021-12-23 14:59:34.229929,-305
2021-12-23 14:59:34.229939,-358
2021-12-23 14:59:34.229949,60
2021-12-23 14:59:34.229959,12
2021-12-23 14:59:34.229969,-122
2021-12-23 14:59:34.229978,-16
2021-12-23 14:59:34.229988,9
2021-12-23 14:59:34.229998,-40
2021-12-23 14:59:34.230007,-9
2021-12-23 14:59:34.230017,9
2021-12-23 14:59:34.230027,-7
2021-12-23 14:59:34.230037,4
2021-12-23 14:59:34.230046,24
2021-12-23 14:59:34.230056,24
2021-12-23 14:59:34.230066,28
2021-12-23 14:59:34.230075,43
2021-12-23 14:59:34.230085,57
2021-12-23 14:59:34.230095,72
2021-12-23 14:59:34.230104,84
2021-12-23 14:59:34.230114,96
2021-12-23 14:59:34.230124,115
2021-12-23 14:59:34.230134,144
2021-12-23 14:59:34.230143,170
2021-12-23 14:59:34.455927,197
2021-12-23 14:59:34.455957,226
2021-12-23 14:59:34.455969,257
2021-12-23 14:59:34.455979,283
2021-12-23 14:59:34.455989,300
2021-12-23 14:59:34.455998,315
2021-12-23 14:59:34.456008,327
2021-12-23 14:59:34.456018,319
2021-12-23 14:59:34.456028,290
2021-12-23 14:59:34.456037,230
2021-12-23 14:59:34.456047,144
2021-12-23 14:59:34.456057,55
2021-12-23 14:59:34.456066,-14
2021-12-23 14:59:34.456076,-67
2021-12-23 14:59:34.456086,-101
2021-12-23 14:59:34.456096,-110
2021-12-23 14:59:34.456105,-110
2021-12-23 14:59:34.456115,-105
2021-12-23 14:59:34.456124,-103
2021-12-23 14:59:34.456134,-103
2021-12-23 14:59:34.456143,-96
2021-12-23 14:59:34.456153,-86
2021-12-23 14:59:34.456163,-81
2021-12-23 14:59:34.456172,-81
2021-12-23 14:59:34.456182,-74
2021-12-23 14:59:34.456191,-62
2021-12-23 14:59:34.456201,-55
2021-12-23 14:59:34.456210,-50
2021-12-23 14:59:34.456220,-45
2021-12-23 14:59:34.456230,-40
2021-12-23 14:59:34.636007,-33
2021-12-23 14:59:34.636037,-28
2021-12-23 14:59:34.636049,-26
2021-12-23 14:59:34.636059,-24
2021-12-23 14:59:34.636068,-16
2021-12-23 14:59:34.636078,-12
2021-12-23 14:59:34.636088,-19
2021-12-23 14:59:34.636098,-26
2021-12-23 14:59:34.636107,-19
2021-12-23 14:59:34.636117,-14
2021-12-23 14:59:34.636127,-14
2021-12-23 14:59:34.636137,-14
2021-12-23 14:59:34.636146,-14
2021-12-23 14:59:34.636156,-12
2021-12-23 14:59:34.636166,-9
2021-12-23 14:59:34.636175,-12
2021-12-23 14:59:34.636185,-12
2021-12-23 14:59:34.636195,-7
2021-12-23 14:59:34.636205,-4
2021-12-23 14:59:34.636214,-7
2021-12-23 14:59:34.636224,-4
2021-12-23 14:59:34.636234,-2
2021-12-23 14:59:34.636244,0
2021-12-23 14:59:34.636254,-7
2021-12-23 14:59:34.636263,-12
2021-12-23 14:59:34.636273,-14
2021-12-23 14:59:34.636283,-16
2021-12-23 14:59:34.636293,-16
2021-12-23 14:59:34.636303,-7
2021-12-23 14:59:34.636313,0
2021-12-23 14:59:34.948900,4
2021-12-23 14:59:34.948917,16
2021-12-23 14:59:34.948923,38
2021-12-23 14:59:34.948929,48
2021-12-23 14:59:34.948934,28
2021-12-23 14:59:34.948939,12
2021-12-23 14:59:34.948944,12
2021-12-23 14:59:34.948949,9
2021-12-23 14:59:34.948954,9
2021-12-23 14:59:34.948959,19
2021-12-23 14:59:34.948964,16
2021-12-23 14:59:34.948970,4
2021-12-23 14:59:34.948975,0
2021-12-23 14:59:34.948980,16
2021-12-23 14:59:34.948985,26
2021-12-23 14:59:34.948990,24
2021-12-23 14:59:34.948995,48
2021-12-23 14:59:34.949000,170
2021-12-23 14:59:34.949005,459
2021-12-23 14:59:34.949011,901
2021-12-23 14:59:34.949016,1091
2021-12-23 14:59:34.949021,420
2021-12-23 14:59:34.949026,-391
2021-12-23 14:59:34.949031,-245
2021-12-23 14:59:34.949036,110
2021-12-23 14:59:34.949041,-48
2021-12-23 14:59:34.949046,-125
2021-12-23 14:59:34.949051,2
2021-12-23 14:59:34.949056,-9
2021-12-23 14:59:34.949061,-48
2021-12-23 14:59:35.085563,-4
2021-12-23 14:59:35.085594,12
2021-12-23 14:59:35.085606,-2
2021-12-23 14:59:35.085616,9
2021-12-23 14:59:35.085626,24
2021-12-23 14:59:35.085635,26
2021-12-23 14:59:35.085645,31
2021-12-23 14:59:35.085655,45
2021-12-23 14:59:35.085664,55
2021-12-23 14:59:35.085674,62
2021-12-23 14:59:35.085684,69
2021-12-23 14:59:35.085694,81
2021-12-23 14:59:35.085703,101
2021-12-23 14:59:35.085713,125
2021-12-23 14:59:35.085723,153
2021-12-23 14:59:35.085732,182
2021-12-23 14:59:35.085742,209
2021-12-23 14:59:35.085752,238
2021-12-23 14:59:35.085762,271
2021-12-23 14:59:35.085772,295
2021-12-23 14:59:35.085781,310
2021-12-23 14:59:35.085791,322
2021-12-23 14:59:35.085801,317
2021-12-23 14:59:35.085810,283
2021-12-23 14:59:35.085820,216
2021-12-23 14:59:35.085830,129
2021-12-23 14:59:35.085839,50
2021-12-23 14:59:35.085849,-14
2021-12-23 14:59:35.085859,-64
2021-12-23 14:59:35.085868,-96
2021-12-23 14:59:35.355036,-105
2021-12-23 14:59:35.355066,-103
2021-12-23 14:59:35.355078,-103
2021-12-23 14:59:35.355088,-101
2021-12-23 14:59:35.355097,-101
2021-12-23 14:59:35.355107,-91
2021-12-23 14:59:35.355116,-81
2021-12-23 14:59:35.355126,-76
2021-12-23 14:59:35.355135,-69
2021-12-23 14:59:35.355145,-67
2021-12-23 14:59:35.355154,-67
2021-12-23 14:59:35.355164,-60
2021-12-23 14:59:35.355173,-50
2021-12-23 14:59:35.355183,-45
2021-12-23 14:59:35.355192,-48
2021-12-23 14:59:35.355202,-45
2021-12-23 14:59:35.355211,-40
2021-12-23 14:59:35.355221,-36
2021-12-23 14:59:35.355231,-36
2021-12-23 14:59:35.355240,-31
2021-12-23 14:59:35.355250,-26
2021-12-23 14:59:35.355260,-24
2021-12-23 14:59:35.355269,-28
2021-12-23 14:59:35.355279,-28
2021-12-23 14:59:35.355288,-24
2021-12-23 14:59:35.355298,-16
2021-12-23 14:59:35.355307,-16
2021-12-23 14:59:35.355317,-16
2021-12-23 14:59:35.355326,-9
2021-12-23 14:59:35.355336,-4
2021-12-23 14:59:35.625427,-2
2021-12-23 14:59:35.625457,2
2021-12-23 14:59:35.625468,4
2021-12-23 14:59:35.625478,-2
2021-12-23 14:59:35.625488,-7
2021-12-23 14:59:35.625498,-2
2021-12-23 14:59:35.625508,7
2021-12-23 14:59:35.625518,4
2021-12-23 14:59:35.625528,-2
2021-12-23 14:59:35.625537,-9
2021-12-23 14:59:35.625547,-9
2021-12-23 14:59:35.625557,0
2021-12-23 14:59:35.625567,14
2021-12-23 14:59:35.625577,21
2021-12-23 14:59:35.625586,21
2021-12-23 14:59:35.625596,36
2021-12-23 14:59:35.625605,48
2021-12-23 14:59:35.625615,38
2021-12-23 14:59:35.625624,24
2021-12-23 14:59:35.625634,21
2021-12-23 14:59:35.625644,19
2021-12-23 14:59:35.625653,12
2021-12-23 14:59:35.625663,14
2021-12-23 14:59:35.625672,21
2021-12-23 14:59:35.625682,21
2021-12-23 14:59:35.625691,24
2021-12-23 14:59:35.625701,28
2021-12-23 14:59:35.625710,38
2021-12-23 14:59:35.625720,45
2021-12-23 14:59:35.625729,81
2021-12-23 14:59:35.805631,240
2021-12-23 14:59:35.805653,553
2021-12-23 14:59:35.805660,952
2021-12-23 14:59:35.805667,937
2021-12-23 14:59:35.805673,139
2021-12-23 14:59:35.805680,-420
2021-12-23 14:59:35.805686,-86
2021-12-23 14:59:35.805692,122
2021-12-23 14:59:35.805699,-81
2021-12-23 14:59:35.805705,-76
2021-12-23 14:59:35.805711,33
2021-12-23 14:59:35.805717,-2
2021-12-23 14:59:35.805723,-21
2021-12-23 14:59:35.805730,14
2021-12-23 14:59:35.805736,14
2021-12-23 14:59:35.805742,9
2021-12-23 14:59:35.805749,24
2021-12-23 14:59:35.805755,26
2021-12-23 14:59:35.805761,31
2021-12-23 14:59:35.805767,43
2021-12-23 14:59:35.805773,45
2021-12-23 14:59:35.805780,50
2021-12-23 14:59:35.805786,72
2021-12-23 14:59:35.805792,93
2021-12-23 14:59:35.805798,110
2021-12-23 14:59:35.805805,129
2021-12-23 14:59:35.805811,151
2021-12-23 14:59:35.805817,177
2021-12-23 14:59:35.805824,204
2021-12-23 14:59:35.805830,235
2021-12-23 14:59:36.030007,266
2021-12-23 14:59:36.030029,295
2021-12-23 14:59:36.030037,317
2021-12-23 14:59:36.030043,331
2021-12-23 14:59:36.030048,339
2021-12-23 14:59:36.030054,327
2021-12-23 14:59:36.030060,281
2021-12-23 14:59:36.030065,214
2021-12-23 14:59:36.030070,132
2021-12-23 14:59:36.030075,45
2021-12-23 14:59:36.030080,-14
2021-12-23 14:59:36.030085,-43
2021-12-23 14:59:36.030090,-55
2021-12-23 14:59:36.030095,-69
2021-12-23 14:59:36.030100,-81
2021-12-23 14:59:36.030105,-79
2021-12-23 14:59:36.030110,-76
2021-12-23 14:59:36.030115,-79
2021-12-23 14:59:36.030121,-67
2021-12-23 14:59:36.030126,-67
2021-12-23 14:59:36.030131,-72
2021-12-23 14:59:36.030136,-57
2021-12-23 14:59:36.030141,-43
2021-12-23 14:59:36.030146,-45
2021-12-23 14:59:36.030151,-43
2021-12-23 14:59:36.030156,-33
2021-12-23 14:59:36.030161,-31
2021-12-23 14:59:36.030167,-24
2021-12-23 14:59:36.030172,-24
2021-12-23 14:59:36.030177,-26
2021-12-23 14:59:36.255419,-14
2021-12-23 14:59:36.255449,-9
2021-12-23 14:59:36.255460,-14
2021-12-23 14:59:36.255470,-14
2021-12-23 14:59:36.255480,-24
2021-12-23 14:59:36.255490,-24
2021-12-23 14:59:36.255499,-12
2021-12-23 14:59:36.255509,-14
2021-12-23 14:59:36.255518,-31
2021-12-23 14:59:36.255528,-36
2021-12-23 14:59:36.255538,-28
2021-12-23 14:59:36.255547,-28
2021-12-23 14:59:36.255557,-26
2021-12-23 14:59:36.255567,-21
2021-12-23 14:59:36.255577,-26
2021-12-23 14:59:36.255586,-33
2021-12-23 14:59:36.255596,-31
2021-12-23 14:59:36.255606,-24
2021-12-23 14:59:36.255615,-24
2021-12-23 14:59:36.255625,-24
2021-12-23 14:59:36.255635,-19
2021-12-23 14:59:36.255644,-16
2021-12-23 14:59:36.255654,-4
2021-12-23 14:59:36.255664,7
2021-12-23 14:59:36.255674,7
2021-12-23 14:59:36.255683,14
2021-12-23 14:59:36.255693,21
2021-12-23 14:59:36.255702,9
2021-12-23 14:59:36.255712,-7
2021-12-23 14:59:36.255722,-9
2021-12-23 14:59:36.480254,-7
2021-12-23 14:59:36.480274,0
2021-12-23 14:59:36.480282,0
2021-12-23 14:59:36.480289,-7
2021-12-23 14:59:36.480295,-12
2021-12-23 14:59:36.480301,-9
2021-12-23 14:59:36.480308,2
2021-12-23 14:59:36.480314,16
2021-12-23 14:59:36.480374,28
2021-12-23 14:59:36.480382,55
2021-12-23 14:59:36.480389,182
2021-12-23 14:59:36.480395,476
2021-12-23 14:59:36.480401,839
2021-12-23 14:59:36.480408,851
2021-12-23 14:59:36.480414,139
2021-12-23 14:59:36.480420,-464
2021-12-23 14:59:36.480427,-197
2021-12-23 14:59:36.480433,81
2021-12-23 14:59:36.480439,-72
2021-12-23 14:59:36.480446,-91
2021-12-23 14:59:36.480452,16
2021-12-23 14:59:36.480458,-12
2021-12-23 14:59:36.480465,-38
2021-12-23 14:59:36.480471,0
2021-12-23 14:59:36.480477,9
2021-12-23 14:59:36.480484,12
2021-12-23 14:59:36.480490,38
2021-12-23 14:59:36.480496,43
2021-12-23 14:59:36.480503,40
2021-12-23 14:59:36.480509,60
2021-12-23 14:59:36.705901,74
2021-12-23 14:59:36.705931,79
2021-12-23 14:59:36.705942,98
2021-12-23 14:59:36.705952,115
2021-12-23 14:59:36.705962,127
2021-12-23 14:59:36.705972,144
2021-12-23 14:59:36.705982,165
2021-12-23 14:59:36.705991,189
2021-12-23 14:59:36.706001,218
2021-12-23 14:59:36.706011,250
2021-12-23 14:59:36.706020,276
2021-12-23 14:59:36.706030,298
2021-12-23 14:59:36.706039,317
2021-12-23 14:59:36.706049,331
2021-12-23 14:59:36.706059,334
2021-12-23 14:59:36.706068,319
2021-12-23 14:59:36.706078,276
2021-12-23 14:59:36.706088,199
2021-12-23 14:59:36.706098,105
2021-12-23 14:59:36.706107,31
2021-12-23 14:59:36.706117,-21
2021-12-23 14:59:36.706126,-57
2021-12-23 14:59:36.706136,-79
2021-12-23 14:59:36.706146,-86
2021-12-23 14:59:36.706155,-84
2021-12-23 14:59:36.706165,-76
2021-12-23 14:59:36.706175,-69
2021-12-23 14:59:36.706184,-74
2021-12-23 14:59:36.706194,-74
2021-12-23 14:59:36.706203,-45
2021-12-23 14:59:36.974077,-40
2021-12-23 14:59:36.974107,-60
2021-12-23 14:59:36.974119,-50
2021-12-23 14:59:36.974129,-24
2021-12-23 14:59:36.974139,-14
2021-12-23 14:59:36.974149,-21
2021-12-23 14:59:36.974158,-26
2021-12-23 14:59:36.974168,-12
2021-12-23 14:59:36.974178,-2
2021-12-23 14:59:36.974187,-9
2021-12-23 14:59:36.974197,-7
2021-12-23 14:59:36.974207,-4
2021-12-23 14:59:36.974217,-19
2021-12-23 14:59:36.974226,-12
2021-12-23 14:59:36.974236,9
2021-12-23 14:59:36.974246,2
2021-12-23 14:59:36.974255,-16
2021-12-23 14:59:36.974265,-16
2021-12-23 14:59:36.974275,-4
2021-12-23 14:59:36.974285,0
2021-12-23 14:59:36.974294,-12
2021-12-23 14:59:36.974304,-16
2021-12-23 14:59:36.974314,-7
2021-12-23 14:59:36.974323,-9
2021-12-23 14:59:36.974333,-9
2021-12-23 14:59:36.974342,-2
2021-12-23 14:59:36.974352,-12
2021-12-23 14:59:36.974362,-26
2021-12-23 14:59:36.974372,-21
2021-12-23 14:59:36.974381,-19
2021-12-23 14:59:37.200610,-24
2021-12-23 14:59:37.200633,-28
2021-12-23 14:59:37.200641,-21
2021-12-23 14:59:37.200647,-7
2021-12-23 14:59:37.200653,-2
2021-12-23 14:59:37.200660,14
2021-12-23 14:59:37.200666,26
2021-12-23 14:59:37.200672,12
2021-12-23 14:59:37.200679,0
2021-12-23 14:59:37.200685,2
2021-12-23 14:59:37.200692,0
2021-12-23 14:59:37.200698,-4
2021-12-23 14:59:37.200704,-2
2021-12-23 14:59:37.200711,12
2021-12-23 14:59:37.200717,7
2021-12-23 14:59:37.200723,-4
2021-12-23 14:59:37.200729,16
2021-12-23 14:59:37.200736,31
2021-12-23 14:59:37.200742,21
2021-12-23 14:59:37.200748,48
2021-12-23 14:59:37.200754,161
2021-12-23 14:59:37.200761,425
2021-12-23 14:59:37.200767,822
2021-12-23 14:59:37.200773,978
2021-12-23 14:59:37.200780,355
2021-12-23 14:59:37.200786,-408
2021-12-23 14:59:37.200792,-266
2021-12-23 14:59:37.200798,96
2021-12-23 14:59:37.200805,-43
2021-12-23 14:59:37.200811,-125
2021-12-23 14:59:37.425981,-2
2021-12-23 14:59:37.426011,0
2021-12-23 14:59:37.426022,-38
2021-12-23 14:59:37.426032,-4
2021-12-23 14:59:37.426042,7
2021-12-23 14:59:37.426052,4
2021-12-23 14:59:37.426061,26
2021-12-23 14:59:37.426071,38
2021-12-23 14:59:37.426081,31
2021-12-23 14:59:37.426090,36
2021-12-23 14:59:37.426100,57
2021-12-23 14:59:37.426110,64
2021-12-23 14:59:37.426119,74
2021-12-23 14:59:37.426129,96
2021-12-23 14:59:37.426139,103
2021-12-23 14:59:37.426148,125
2021-12-23 14:59:37.426160,161
2021-12-23 14:59:37.426169,175
2021-12-23 14:59:37.426179,189
2021-12-23 14:59:37.426189,233
2021-12-23 14:59:37.426198,274
2021-12-23 14:59:37.426208,300
2021-12-23 14:59:37.426217,322
2021-12-23 14:59:37.426227,336
2021-12-23 14:59:37.426237,336
2021-12-23 14:59:37.426246,334
2021-12-23 14:59:37.426256,305
2021-12-23 14:59:37.426265,235
2021-12-23 14:59:37.426275,149
2021-12-23 14:59:37.426285,67
2021-12-23 14:59:37.650452,-4
2021-12-23 14:59:37.650483,-50
2021-12-23 14:59:37.650494,-81
2021-12-23 14:59:37.650504,-93
2021-12-23 14:59:37.650513,-88
2021-12-23 14:59:37.650523,-81
2021-12-23 14:59:37.650533,-79
2021-12-23 14:59:37.650542,-74
2021-12-23 14:59:37.650552,-69
2021-12-23 14:59:37.650561,-67
2021-12-23 14:59:37.650571,-62
2021-12-23 14:59:37.650580,-55
2021-12-23 14:59:37.650590,-48
2021-12-23 14:59:37.650599,-38
2021-12-23 14:59:37.650610,-33
2021-12-23 14:59:37.650619,-31
2021-12-23 14:59:37.650629,-21
2021-12-23 14:59:37.650639,-14
2021-12-23 14:59:37.650648,-7
2021-12-23 14:59:37.650658,-2
2021-12-23 14:59:37.650668,0
2021-12-23 14:59:37.650677,2
2021-12-23 14:59:37.650687,4
2021-12-23 14:59:37.650696,7
2021-12-23 14:59:37.650706,9
2021-12-23 14:59:37.650715,7
2021-12-23 14:59:37.650725,0
2021-12-23 14:59:37.650734,-4
2021-12-23 14:59:37.650744,-2
