Time,ECG
2021-12-23 15:29:16.991516,-113
2021-12-23 15:29:16.991555,12
2021-12-23 15:29:16.991569,7
2021-12-23 15:29:16.991581,-38
2021-12-23 15:29:16.991592,2
2021-12-23 15:29:16.991604,16
2021-12-23 15:29:16.991614,0
2021-12-23 15:29:16.991624,14
2021-12-23 15:29:16.991634,31
2021-12-23 15:29:16.991646,31
2021-12-23 15:29:16.991656,36
2021-12-23 15:29:16.991666,48
2021-12-23 15:29:16.991676,60
2021-12-23 15:29:16.991686,72
2021-12-23 15:29:16.991696,81
2021-12-23 15:29:16.991705,93
2021-12-23 15:29:16.991727,110
2021-12-23 15:29:16.991744,122
2021-12-23 15:29:16.991754,139
2021-12-23 15:29:16.991764,163
2021-12-23 15:29:16.991773,192
2021-12-23 15:29:16.991782,218
2021-12-23 15:29:16.991791,245
2021-12-23 15:29:16.991800,271
2021-12-23 15:29:16.991809,293
2021-12-23 15:29:16.991816,310
2021-12-23 15:29:16.991824,322
2021-12-23 15:29:16.991831,329
2021-12-23 15:29:16.991838,322
2021-12-23 15:29:16.991845,293
2021-12-23 15:29:17.172430,238
2021-12-23 15:29:17.172453,161
2021-12-23 15:29:17.172461,79
2021-12-23 15:29:17.172467,4
2021-12-23 15:29:17.172473,-50
2021-12-23 15:29:17.172480,-81
2021-12-23 15:29:17.172487,-96
2021-12-23 15:29:17.172494,-101
2021-12-23 15:29:17.172500,-101
2021-12-23 15:29:17.172506,-98
2021-12-23 15:29:17.172513,-96
2021-12-23 15:29:17.172519,-91
2021-12-23 15:29:17.172525,-81
2021-12-23 15:29:17.172532,-74
2021-12-23 15:29:17.172538,-69
2021-12-23 15:29:17.172544,-64
2021-12-23 15:29:17.172551,-62
2021-12-23 15:29:17.172558,-55
2021-12-23 15:29:17.172564,-45
2021-12-23 15:29:17.172570,-36
2021-12-23 15:29:17.172577,-31
2021-12-23 15:29:17.172583,-28
2021-12-23 15:29:17.172589,-24
2021-12-23 15:29:17.172596,-19
2021-12-23 15:29:17.172602,-12
2021-12-23 15:29:17.172608,-9
2021-12-23 15:29:17.172614,-9
2021-12-23 15:29:17.172621,-12
2021-12-23 15:29:17.172627,-14
2021-12-23 15:29:17.172636,-12
2021-12-23 15:29:17.531833,-7
2021-12-23 15:29:17.531855,-7
2021-12-23 15:29:17.531883,-7
2021-12-23 15:29:17.531893,-4
2021-12-23 15:29:17.531903,-4
2021-12-23 15:29:17.531913,-2
2021-12-23 15:29:17.531923,2
2021-12-23 15:29:17.531932,7
2021-12-23 15:29:17.531942,9
2021-12-23 15:29:17.531952,7
2021-12-23 15:29:17.531962,4
2021-12-23 15:29:17.531972,9
2021-12-23 15:29:17.531981,16
2021-12-23 15:29:17.531997,19
2021-12-23 15:29:17.532008,21
2021-12-23 15:29:17.532017,24
2021-12-23 15:29:17.532027,24
2021-12-23 15:29:17.532037,24
2021-12-23 15:29:17.532047,26
2021-12-23 15:29:17.532056,31
2021-12-23 15:29:17.532066,36
2021-12-23 15:29:17.532076,36
2021-12-23 15:29:17.532086,36
2021-12-23 15:29:17.532095,40
2021-12-23 15:29:17.532105,40
2021-12-23 15:29:17.532115,36
2021-12-23 15:29:17.532125,31
2021-12-23 15:29:17.532134,26
2021-12-23 15:29:17.532144,28
2021-12-23 15:29:17.532156,38
2021-12-23 15:29:17.666844,45
2021-12-23 15:29:17.666867,60
2021-12-23 15:29:17.666875,74
2021-12-23 15:29:17.666881,72
2021-12-23 15:29:17.666888,57
2021-12-23 15:29:17.666894,50
2021-12-23 15:29:17.666901,48
2021-12-23 15:29:17.666907,50
2021-12-23 15:29:17.666913,50
2021-12-23 15:29:17.666920,50
2021-12-23 15:29:17.666926,50
2021-12-23 15:29:17.666932,52
2021-12-23 15:29:17.666939,55
2021-12-23 15:29:17.666945,55
2021-12-23 15:29:17.666951,55
2021-12-23 15:29:17.666958,55
2021-12-23 15:29:17.666964,91
2021-12-23 15:29:17.666975,257
2021-12-23 15:29:17.666982,598
2021-12-23 15:29:17.666988,1036
2021-12-23 15:29:17.666995,1086
2021-12-23 15:29:17.667001,286
2021-12-23 15:29:17.667009,-416
2021-12-23 15:29:17.667016,-146
2021-12-23 15:29:17.667023,134
2021-12-23 15:29:17.667029,-67
2021-12-23 15:29:17.667035,-98
2021-12-23 15:29:17.667042,16
2021-12-23 15:29:17.667048,-16
2021-12-23 15:29:17.667054,-43
2021-12-23 15:29:17.803536,2
2021-12-23 15:29:17.803554,7
2021-12-23 15:29:17.803564,-4
2021-12-23 15:29:17.803571,4
2021-12-23 15:29:17.803577,12
2021-12-23 15:29:17.803584,19
2021-12-23 15:29:17.803590,31
2021-12-23 15:29:17.803602,43
2021-12-23 15:29:17.803609,50
2021-12-23 15:29:17.803615,62
2021-12-23 15:29:17.803622,74
2021-12-23 15:29:17.803628,91
2021-12-23 15:29:17.803635,108
2021-12-23 15:29:17.803641,125
2021-12-23 15:29:17.803648,146
2021-12-23 15:29:17.803654,168
2021-12-23 15:29:17.803661,189
2021-12-23 15:29:17.803667,218
2021-12-23 15:29:17.803678,250
2021-12-23 15:29:17.803685,274
2021-12-23 15:29:17.803692,290
2021-12-23 15:29:17.803711,307
2021-12-23 15:29:17.803716,322
2021-12-23 15:29:17.803721,329
2021-12-23 15:29:17.803726,322
2021-12-23 15:29:17.803731,290
2021-12-23 15:29:17.803736,228
2021-12-23 15:29:17.803742,146
2021-12-23 15:29:17.803747,62
2021-12-23 15:29:17.803752,-4
2021-12-23 15:29:18.072791,-55
2021-12-23 15:29:18.072822,-88
2021-12-23 15:29:18.072833,-108
2021-12-23 15:29:18.072843,-117
2021-12-23 15:29:18.072852,-115
2021-12-23 15:29:18.072862,-110
2021-12-23 15:29:18.072872,-105
2021-12-23 15:29:18.072882,-103
2021-12-23 15:29:18.072891,-101
2021-12-23 15:29:18.072901,-93
2021-12-23 15:29:18.072911,-81
2021-12-23 15:29:18.072920,-72
2021-12-23 15:29:18.072930,-67
2021-12-23 15:29:18.072940,-64
2021-12-23 15:29:18.072950,-60
2021-12-23 15:29:18.072959,-50
2021-12-23 15:29:18.072969,-40
2021-12-23 15:29:18.072979,-38
2021-12-23 15:29:18.072989,-33
2021-12-23 15:29:18.072998,-28
2021-12-23 15:29:18.073008,-26
2021-12-23 15:29:18.073018,-24
2021-12-23 15:29:18.073027,-21
2021-12-23 15:29:18.073037,-19
2021-12-23 15:29:18.073054,-14
2021-12-23 15:29:18.073064,-14
2021-12-23 15:29:18.073074,-16
2021-12-23 15:29:18.073083,-19
2021-12-23 15:29:18.073093,-19
2021-12-23 15:29:18.073103,-14
2021-12-23 15:29:18.341897,-12
2021-12-23 15:29:18.341919,-12
2021-12-23 15:29:18.341927,-7
2021-12-23 15:29:18.341933,-4
2021-12-23 15:29:18.341940,-7
2021-12-23 15:29:18.341946,-7
2021-12-23 15:29:18.341952,-4
2021-12-23 15:29:18.341959,-2
2021-12-23 15:29:18.341965,0
2021-12-23 15:29:18.341971,0
2021-12-23 15:29:18.341978,4
2021-12-23 15:29:18.341984,9
2021-12-23 15:29:18.341990,12
2021-12-23 15:29:18.341997,12
2021-12-23 15:29:18.342004,14
2021-12-23 15:29:18.342010,19
2021-12-23 15:29:18.342016,21
2021-12-23 15:29:18.342023,26
2021-12-23 15:29:18.342029,28
2021-12-23 15:29:18.342035,28
2021-12-23 15:29:18.342042,28
2021-12-23 15:29:18.342048,26
2021-12-23 15:29:18.342056,21
2021-12-23 15:29:18.342063,19
2021-12-23 15:29:18.342069,24
2021-12-23 15:29:18.342075,31
2021-12-23 15:29:18.342082,38
2021-12-23 15:29:18.342088,50
2021-12-23 15:29:18.342094,67
2021-12-23 15:29:18.342100,76
2021-12-23 15:29:18.478283,64
2021-12-23 15:29:18.478312,50
2021-12-23 15:29:18.478323,45
2021-12-23 15:29:18.478334,43
2021-12-23 15:29:18.478344,43
2021-12-23 15:29:18.478354,48
2021-12-23 15:29:18.478364,48
2021-12-23 15:29:18.478373,45
2021-12-23 15:29:18.478383,48
2021-12-23 15:29:18.478393,50
2021-12-23 15:29:18.478403,52
2021-12-23 15:29:18.478413,57
2021-12-23 15:29:18.478423,72
2021-12-23 15:29:18.478432,185
2021-12-23 15:29:18.478442,476
2021-12-23 15:29:18.478452,896
2021-12-23 15:29:18.478462,1132
2021-12-23 15:29:18.478471,574
2021-12-23 15:29:18.478481,-300
2021-12-23 15:29:18.478491,-286
2021-12-23 15:29:18.478501,117
2021-12-23 15:29:18.478511,9
2021-12-23 15:29:18.478520,-117
2021-12-23 15:29:18.478530,4
2021-12-23 15:29:18.478547,16
2021-12-23 15:29:18.478557,-36
2021-12-23 15:29:18.478567,-2
2021-12-23 15:29:18.478577,24
2021-12-23 15:29:18.478586,9
2021-12-23 15:29:18.478596,16
2021-12-23 15:29:18.658404,36
2021-12-23 15:29:18.658434,40
2021-12-23 15:29:18.658446,43
2021-12-23 15:29:18.658455,48
2021-12-23 15:29:18.658465,55
2021-12-23 15:29:18.658475,60
2021-12-23 15:29:18.658484,69
2021-12-23 15:29:18.658494,86
2021-12-23 15:29:18.658503,105
2021-12-23 15:29:18.658513,117
2021-12-23 15:29:18.658523,132
2021-12-23 15:29:18.658532,153
2021-12-23 15:29:18.658542,177
2021-12-23 15:29:18.658551,204
2021-12-23 15:29:18.658561,228
2021-12-23 15:29:18.658571,257
2021-12-23 15:29:18.658581,281
2021-12-23 15:29:18.658590,295
2021-12-23 15:29:18.658600,307
2021-12-23 15:29:18.658609,322
2021-12-23 15:29:18.658619,319
2021-12-23 15:29:18.658628,295
2021-12-23 15:29:18.658638,247
2021-12-23 15:29:18.658647,173
2021-12-23 15:29:18.658657,91
2021-12-23 15:29:18.658666,19
2021-12-23 15:29:18.658676,-36
2021-12-23 15:29:18.658686,-74
2021-12-23 15:29:18.658695,-96
2021-12-23 15:29:18.658705,-101
2021-12-23 15:29:18.882900,-101
2021-12-23 15:29:18.882920,-98
2021-12-23 15:29:18.882927,-91
2021-12-23 15:29:18.882934,-86
2021-12-23 15:29:18.882940,-84
2021-12-23 15:29:18.882947,-81
2021-12-23 15:29:18.882953,-74
2021-12-23 15:29:18.882959,-64
2021-12-23 15:29:18.882966,-57
2021-12-23 15:29:18.882972,-48
2021-12-23 15:29:18.882978,-40
2021-12-23 15:29:18.882985,-36
2021-12-23 15:29:18.882991,-31
2021-12-23 15:29:18.882997,-24
2021-12-23 15:29:18.883003,-19
2021-12-23 15:29:18.883010,-19
2021-12-23 15:29:18.883016,-16
2021-12-23 15:29:18.883022,-14
2021-12-23 15:29:18.883029,-14
2021-12-23 15:29:18.883035,-12
2021-12-23 15:29:18.883041,-7
2021-12-23 15:29:18.883047,-4
2021-12-23 15:29:18.883054,-4
2021-12-23 15:29:18.883060,-2
2021-12-23 15:29:18.883066,0
2021-12-23 15:29:18.883073,4
2021-12-23 15:29:18.883079,9
2021-12-23 15:29:18.883085,9
2021-12-23 15:29:18.883092,7
2021-12-23 15:29:18.883098,9
2021-12-23 15:29:19.153213,16
2021-12-23 15:29:19.153233,19
2021-12-23 15:29:19.153241,21
2021-12-23 15:29:19.153248,21
2021-12-23 15:29:19.153254,19
2021-12-23 15:29:19.153261,24
2021-12-23 15:29:19.153267,26
2021-12-23 15:29:19.153273,21
2021-12-23 15:29:19.153279,19
2021-12-23 15:29:19.153286,16
2021-12-23 15:29:19.153297,19
2021-12-23 15:29:19.153304,24
2021-12-23 15:29:19.153310,26
2021-12-23 15:29:19.153317,26
2021-12-23 15:29:19.153323,28
2021-12-23 15:29:19.153329,28
2021-12-23 15:29:19.153336,21
2021-12-23 15:29:19.153342,19
2021-12-23 15:29:19.153348,16
2021-12-23 15:29:19.153355,19
2021-12-23 15:29:19.153361,26
2021-12-23 15:29:19.153367,38
2021-12-23 15:29:19.153374,45
2021-12-23 15:29:19.153380,62
2021-12-23 15:29:19.153386,79
2021-12-23 15:29:19.153393,79
2021-12-23 15:29:19.153399,62
2021-12-23 15:29:19.153405,48
2021-12-23 15:29:19.153411,45
2021-12-23 15:29:19.153418,50
2021-12-23 15:29:19.512847,52
2021-12-23 15:29:19.512869,52
2021-12-23 15:29:19.512876,52
2021-12-23 15:29:19.512883,50
2021-12-23 15:29:19.512889,55
2021-12-23 15:29:19.512895,60
2021-12-23 15:29:19.512902,57
2021-12-23 15:29:19.512908,60
2021-12-23 15:29:19.512914,105
2021-12-23 15:29:19.512921,283
2021-12-23 15:29:19.512927,632
2021-12-23 15:29:19.512933,1046
2021-12-23 15:29:19.512940,1005
2021-12-23 15:29:19.512946,165
2021-12-23 15:29:19.512953,-420
2021-12-23 15:29:19.512959,-88
2021-12-23 15:29:19.512965,125
2021-12-23 15:29:19.512972,-81
2021-12-23 15:29:19.512978,-74
2021-12-23 15:29:19.512985,36
2021-12-23 15:29:19.512991,-9
2021-12-23 15:29:19.512997,-33
2021-12-23 15:29:19.513003,12
2021-12-23 15:29:19.513010,16
2021-12-23 15:29:19.513016,12
2021-12-23 15:29:19.513026,31
2021-12-23 15:29:19.513033,40
2021-12-23 15:29:19.513039,38
2021-12-23 15:29:19.513046,48
2021-12-23 15:29:19.513052,62
2021-12-23 15:29:19.693210,72
2021-12-23 15:29:19.693240,81
2021-12-23 15:29:19.693251,88
2021-12-23 15:29:19.693261,98
2021-12-23 15:29:19.693271,113
2021-12-23 15:29:19.693281,132
2021-12-23 15:29:19.693291,153
2021-12-23 15:29:19.693301,175
2021-12-23 15:29:19.693310,202
2021-12-23 15:29:19.693320,226
2021-12-23 15:29:19.693330,254
2021-12-23 15:29:19.693340,283
2021-12-23 15:29:19.693349,310
2021-12-23 15:29:19.693359,322
2021-12-23 15:29:19.693369,329
2021-12-23 15:29:19.693378,331
2021-12-23 15:29:19.693388,322
2021-12-23 15:29:19.693398,288
2021-12-23 15:29:19.693408,228
2021-12-23 15:29:19.693417,151
2021-12-23 15:29:19.693427,69
2021-12-23 15:29:19.693437,0
2021-12-23 15:29:19.693447,-48
2021-12-23 15:29:19.693456,-76
2021-12-23 15:29:19.693466,-91
2021-12-23 15:29:19.693476,-96
2021-12-23 15:29:19.693485,-98
2021-12-23 15:29:19.693495,-98
2021-12-23 15:29:19.693504,-91
2021-12-23 15:29:19.693514,-84
2021-12-23 15:29:19.917683,-79
2021-12-23 15:29:19.917707,-74
2021-12-23 15:29:19.917720,-64
2021-12-23 15:29:19.917731,-55
2021-12-23 15:29:19.917737,-48
2021-12-23 15:29:19.917744,-40
2021-12-23 15:29:19.917750,-31
2021-12-23 15:29:19.917757,-28
2021-12-23 15:29:19.917763,-28
2021-12-23 15:29:19.917769,-24
2021-12-23 15:29:19.917776,-16
2021-12-23 15:29:19.917782,-14
2021-12-23 15:29:19.917788,-14
2021-12-23 15:29:19.917795,-12
2021-12-23 15:29:19.917801,-12
2021-12-23 15:29:19.917807,-9
2021-12-23 15:29:19.917817,-7
2021-12-23 15:29:19.917824,-7
2021-12-23 15:29:19.917831,-4
2021-12-23 15:29:19.917837,-2
2021-12-23 15:29:19.917843,-2
2021-12-23 15:29:19.917849,-4
2021-12-23 15:29:19.917856,-2
2021-12-23 15:29:19.917862,4
2021-12-23 15:29:19.917869,7
2021-12-23 15:29:19.917875,4
2021-12-23 15:29:19.917881,7
2021-12-23 15:29:19.917887,9
2021-12-23 15:29:19.917894,9
2021-12-23 15:29:19.917900,9
2021-12-23 15:29:20.052978,12
2021-12-23 15:29:20.053000,16
2021-12-23 15:29:20.053007,19
2021-12-23 15:29:20.053014,21
2021-12-23 15:29:20.053020,21
2021-12-23 15:29:20.053027,26
2021-12-23 15:29:20.053033,28
2021-12-23 15:29:20.053040,28
2021-12-23 15:29:20.053046,28
2021-12-23 15:29:20.053052,31
2021-12-23 15:29:20.053059,31
2021-12-23 15:29:20.053065,31
2021-12-23 15:29:20.053071,33
2021-12-23 15:29:20.053078,26
2021-12-23 15:29:20.053084,19
2021-12-23 15:29:20.053091,19
2021-12-23 15:29:20.053097,26
2021-12-23 15:29:20.053103,38
2021-12-23 15:29:20.053110,50
2021-12-23 15:29:20.053116,60
2021-12-23 15:29:20.053122,64
2021-12-23 15:29:20.053129,62
2021-12-23 15:29:20.053135,50
2021-12-23 15:29:20.053142,43
2021-12-23 15:29:20.053148,38
2021-12-23 15:29:20.053154,38
2021-12-23 15:29:20.053161,38
2021-12-23 15:29:20.053167,38
2021-12-23 15:29:20.053173,38
2021-12-23 15:29:20.053180,40
2021-12-23 15:29:20.233866,43
2021-12-23 15:29:20.233896,48
2021-12-23 15:29:20.233908,52
2021-12-23 15:29:20.233918,55
2021-12-23 15:29:20.233927,84
2021-12-23 15:29:20.233937,240
2021-12-23 15:29:20.233946,560
2021-12-23 15:29:20.233956,981
2021-12-23 15:29:20.233966,1048
2021-12-23 15:29:20.233976,288
2021-12-23 15:29:20.233985,-411
2021-12-23 15:29:20.233995,-163
2021-12-23 15:29:20.234005,117
2021-12-23 15:29:20.234020,-74
2021-12-23 15:29:20.234029,-103
2021-12-23 15:29:20.234039,14
2021-12-23 15:29:20.234049,-19
2021-12-23 15:29:20.234059,-50
2021-12-23 15:29:20.234068,-2
2021-12-23 15:29:20.234078,4
2021-12-23 15:29:20.234087,-7
2021-12-23 15:29:20.234097,14
2021-12-23 15:29:20.234107,28
2021-12-23 15:29:20.234116,24
2021-12-23 15:29:20.234126,26
2021-12-23 15:29:20.234136,40
2021-12-23 15:29:20.234145,45
2021-12-23 15:29:20.234155,52
2021-12-23 15:29:20.234165,64
2021-12-23 15:29:20.234174,79
2021-12-23 15:29:20.458367,91
2021-12-23 15:29:20.458397,105
2021-12-23 15:29:20.458408,132
2021-12-23 15:29:20.458418,161
2021-12-23 15:29:20.458428,182
2021-12-23 15:29:20.458438,197
2021-12-23 15:29:20.458447,228
2021-12-23 15:29:20.458457,269
2021-12-23 15:29:20.458467,293
2021-12-23 15:29:20.458476,298
2021-12-23 15:29:20.458486,307
2021-12-23 15:29:20.458496,319
2021-12-23 15:29:20.458505,322
2021-12-23 15:29:20.458515,295
2021-12-23 15:29:20.458525,245
2021-12-23 15:29:20.458534,168
2021-12-23 15:29:20.458544,84
2021-12-23 15:29:20.458553,9
2021-12-23 15:29:20.458563,-43
2021-12-23 15:29:20.458572,-74
2021-12-23 15:29:20.458582,-86
2021-12-23 15:29:20.458592,-96
2021-12-23 15:29:20.458601,-98
2021-12-23 15:29:20.458611,-88
2021-12-23 15:29:20.458620,-84
2021-12-23 15:29:20.458630,-96
2021-12-23 15:29:20.458640,-88
2021-12-23 15:29:20.458649,-69
2021-12-23 15:29:20.458659,-64
2021-12-23 15:29:20.458669,-67
2021-12-23 15:29:20.683424,-57
2021-12-23 15:29:20.683445,-40
2021-12-23 15:29:20.683452,-31
2021-12-23 15:29:20.683459,-28
2021-12-23 15:29:20.683465,-26
2021-12-23 15:29:20.683471,-24
2021-12-23 15:29:20.683478,-24
2021-12-23 15:29:20.683484,-14
2021-12-23 15:29:20.683490,-7
2021-12-23 15:29:20.683497,-16
2021-12-23 15:29:20.683503,-19
2021-12-23 15:29:20.683509,-14
2021-12-23 15:29:20.683516,-12
2021-12-23 15:29:20.683522,-4
2021-12-23 15:29:20.683528,2
2021-12-23 15:29:20.683535,0
2021-12-23 15:29:20.683541,-2
2021-12-23 15:29:20.683553,-2
2021-12-23 15:29:20.683560,0
2021-12-23 15:29:20.683566,7
2021-12-23 15:29:20.683573,12
2021-12-23 15:29:20.683579,12
2021-12-23 15:29:20.683585,14
2021-12-23 15:29:20.683592,19
2021-12-23 15:29:20.683598,16
2021-12-23 15:29:20.683604,16
2021-12-23 15:29:20.683611,28
2021-12-23 15:29:20.683617,28
2021-12-23 15:29:20.683623,19
2021-12-23 15:29:20.683630,21
2021-12-23 15:29:20.998748,26
2021-12-23 15:29:20.998778,19
2021-12-23 15:29:20.998790,19
2021-12-23 15:29:20.998800,21
2021-12-23 15:29:20.998810,24
2021-12-23 15:29:20.998820,33
2021-12-23 15:29:20.998830,43
2021-12-23 15:29:20.998839,52
2021-12-23 15:29:20.998849,67
2021-12-23 15:29:20.998859,62
2021-12-23 15:29:20.998868,40
2021-12-23 15:29:20.998878,40
2021-12-23 15:29:20.998888,48
2021-12-23 15:29:20.998897,40
2021-12-23 15:29:20.998907,36
2021-12-23 15:29:20.998917,36
2021-12-23 15:29:20.998927,40
2021-12-23 15:29:20.998936,48
2021-12-23 15:29:20.998946,50
2021-12-23 15:29:20.998956,50
2021-12-23 15:29:20.998965,62
2021-12-23 15:29:20.998975,79
2021-12-23 15:29:20.998985,132
2021-12-23 15:29:20.998994,317
2021-12-23 15:29:20.999004,663
2021-12-23 15:29:20.999014,1048
2021-12-23 15:29:20.999023,942
2021-12-23 15:29:20.999033,74
2021-12-23 15:29:20.999043,-452
2021-12-23 15:29:20.999053,-84
2021-12-23 15:29:21.222711,105
2021-12-23 15:29:21.222733,-91
2021-12-23 15:29:21.222741,-67
2021-12-23 15:29:21.222748,26
2021-12-23 15:29:21.222754,-26
2021-12-23 15:29:21.222760,-36
2021-12-23 15:29:21.222767,16
2021-12-23 15:29:21.222773,16
2021-12-23 15:29:21.222779,7
2021-12-23 15:29:21.222786,21
2021-12-23 15:29:21.222792,33
2021-12-23 15:29:21.222799,40
2021-12-23 15:29:21.222805,50
2021-12-23 15:29:21.222811,64
2021-12-23 15:29:21.222818,74
2021-12-23 15:29:21.222824,84
2021-12-23 15:29:21.222830,96
2021-12-23 15:29:21.222838,113
2021-12-23 15:29:21.222844,134
2021-12-23 15:29:21.222850,153
2021-12-23 15:29:21.222856,168
2021-12-23 15:29:21.222863,185
2021-12-23 15:29:21.222869,216
2021-12-23 15:29:21.222875,245
2021-12-23 15:29:21.222881,266
2021-12-23 15:29:21.222888,295
2021-12-23 15:29:21.222894,319
2021-12-23 15:29:21.222900,327
2021-12-23 15:29:21.222907,336
2021-12-23 15:29:21.222919,343
2021-12-23 15:29:21.447531,329
2021-12-23 15:29:21.447561,283
2021-12-23 15:29:21.447572,206
2021-12-23 15:29:21.447583,120
2021-12-23 15:29:21.447593,38
2021-12-23 15:29:21.447602,-28
2021-12-23 15:29:21.447612,-74
2021-12-23 15:29:21.447622,-101
2021-12-23 15:29:21.447632,-115
2021-12-23 15:29:21.447642,-120
2021-12-23 15:29:21.447652,-115
2021-12-23 15:29:21.447661,-108
2021-12-23 15:29:21.447671,-101
2021-12-23 15:29:21.447681,-93
2021-12-23 15:29:21.447691,-91
2021-12-23 15:29:21.447700,-86
2021-12-23 15:29:21.447710,-76
2021-12-23 15:29:21.447719,-69
2021-12-23 15:29:21.447729,-60
2021-12-23 15:29:21.447739,-52
2021-12-23 15:29:21.447748,-50
2021-12-23 15:29:21.447758,-45
2021-12-23 15:29:21.447768,-38
2021-12-23 15:29:21.447777,-31
2021-12-23 15:29:21.447787,-24
2021-12-23 15:29:21.447797,-19
2021-12-23 15:29:21.447806,-16
2021-12-23 15:29:21.447816,-16
2021-12-23 15:29:21.447826,-16
2021-12-23 15:29:21.447835,-14
2021-12-23 15:29:21.718182,-12
2021-12-23 15:29:21.718213,-12
2021-12-23 15:29:21.718225,-12
2021-12-23 15:29:21.718235,-9
2021-12-23 15:29:21.718245,-9
2021-12-23 15:29:21.718255,-7
2021-12-23 15:29:21.718264,-4
2021-12-23 15:29:21.718274,-7
2021-12-23 15:29:21.718284,-9
2021-12-23 15:29:21.718293,-4
2021-12-23 15:29:21.718303,0
2021-12-23 15:29:21.718313,2
2021-12-23 15:29:21.718323,2
2021-12-23 15:29:21.718332,2
2021-12-23 15:29:21.718342,0
2021-12-23 15:29:21.718352,2
2021-12-23 15:29:21.718361,4
2021-12-23 15:29:21.718371,9
2021-12-23 15:29:21.718381,12
2021-12-23 15:29:21.718390,12
2021-12-23 15:29:21.718400,14
2021-12-23 15:29:21.718409,16
2021-12-23 15:29:21.718419,16
2021-12-23 15:29:21.718428,19
2021-12-23 15:29:21.718438,16
2021-12-23 15:29:21.718447,12
2021-12-23 15:29:21.718457,7
2021-12-23 15:29:21.718467,14
2021-12-23 15:29:21.718476,26
2021-12-23 15:29:21.718486,38
2021-12-23 15:29:21.853347,48
2021-12-23 15:29:21.853377,60
2021-12-23 15:29:21.853389,67
2021-12-23 15:29:21.853398,57
2021-12-23 15:29:21.853408,43
2021-12-23 15:29:21.853417,33
2021-12-23 15:29:21.853427,33
2021-12-23 15:29:21.853436,36
2021-12-23 15:29:21.853446,38
2021-12-23 15:29:21.853455,36
2021-12-23 15:29:21.853465,40
2021-12-23 15:29:21.853474,43
2021-12-23 15:29:21.853484,38
2021-12-23 15:29:21.853494,40
2021-12-23 15:29:21.853503,48
2021-12-23 15:29:21.853513,96
2021-12-23 15:29:21.853523,288
2021-12-23 15:29:21.853532,656
2021-12-23 15:29:21.853542,1074
2021-12-23 15:29:21.853551,995
2021-12-23 15:29:21.853569,120
2021-12-23 15:29:21.853579,-432
2021-12-23 15:29:21.853589,-74
2021-12-23 15:29:21.853599,115
2021-12-23 15:29:21.853608,-98
2021-12-23 15:29:21.853618,-84
2021-12-23 15:29:21.853627,14
2021-12-23 15:29:21.853637,-36
2021-12-23 15:29:21.853647,-45
2021-12-23 15:29:21.853656,0
2021-12-23 15:29:22.078487,-2
2021-12-23 15:29:22.078509,-7
2021-12-23 15:29:22.078517,14
2021-12-23 15:29:22.078524,16
2021-12-23 15:29:22.078530,16
2021-12-23 15:29:22.078537,33
2021-12-23 15:29:22.078543,43
2021-12-23 15:29:22.078550,45
2021-12-23 15:29:22.078556,55
2021-12-23 15:29:22.078563,67
2021-12-23 15:29:22.078569,79
2021-12-23 15:29:22.078575,96
2021-12-23 15:29:22.078582,113
2021-12-23 15:29:22.078588,127
2021-12-23 15:29:22.078594,149
2021-12-23 15:29:22.078601,177
2021-12-23 15:29:22.078607,206
2021-12-23 15:29:22.078614,230
2021-12-23 15:29:22.078620,257
2021-12-23 15:29:22.078626,281
2021-12-23 15:29:22.078633,295
2021-12-23 15:29:22.078639,305
2021-12-23 15:29:22.078646,310
2021-12-23 15:29:22.078652,303
2021-12-23 15:29:22.078658,269
2021-12-23 15:29:22.078665,206
2021-12-23 15:29:22.078671,129
2021-12-23 15:29:22.078678,52
2021-12-23 15:29:22.078684,-16
2021-12-23 15:29:22.078690,-64
2021-12-23 15:29:22.303452,-93
2021-12-23 15:29:22.303473,-105
2021-12-23 15:29:22.303480,-108
2021-12-23 15:29:22.303487,-110
2021-12-23 15:29:22.303493,-108
2021-12-23 15:29:22.303500,-105
2021-12-23 15:29:22.303506,-101
2021-12-23 15:29:22.303512,-93
2021-12-23 15:29:22.303519,-84
2021-12-23 15:29:22.303525,-81
2021-12-23 15:29:22.303532,-79
2021-12-23 15:29:22.303538,-74
2021-12-23 15:29:22.303545,-67
2021-12-23 15:29:22.303551,-60
2021-12-23 15:29:22.303558,-55
2021-12-23 15:29:22.303564,-52
2021-12-23 15:29:22.303570,-48
2021-12-23 15:29:22.303577,-40
2021-12-23 15:29:22.303583,-33
2021-12-23 15:29:22.303589,-26
2021-12-23 15:29:22.303595,-21
2021-12-23 15:29:22.303602,-19
2021-12-23 15:29:22.303608,-16
2021-12-23 15:29:22.303614,-16
2021-12-23 15:29:22.303621,-16
2021-12-23 15:29:22.303627,-9
2021-12-23 15:29:22.303633,-7
2021-12-23 15:29:22.303640,-9
2021-12-23 15:29:22.303654,-9
2021-12-23 15:29:22.303661,-4
2021-12-23 15:29:22.528369,-2
2021-12-23 15:29:22.528400,2
2021-12-23 15:29:22.528412,7
2021-12-23 15:29:22.528422,7
2021-12-23 15:29:22.528432,7
2021-12-23 15:29:22.528441,4
2021-12-23 15:29:22.528451,9
2021-12-23 15:29:22.528461,16
2021-12-23 15:29:22.528471,19
2021-12-23 15:29:22.528480,16
2021-12-23 15:29:22.528490,14
2021-12-23 15:29:22.528500,12
2021-12-23 15:29:22.528510,12
2021-12-23 15:29:22.528519,16
2021-12-23 15:29:22.528529,16
2021-12-23 15:29:22.528539,12
2021-12-23 15:29:22.528549,4
2021-12-23 15:29:22.528559,7
2021-12-23 15:29:22.528568,14
2021-12-23 15:29:22.528578,21
2021-12-23 15:29:22.528588,26
2021-12-23 15:29:22.528597,40
2021-12-23 15:29:22.528612,55
2021-12-23 15:29:22.528622,57
2021-12-23 15:29:22.528632,45
2021-12-23 15:29:22.528642,36
2021-12-23 15:29:22.528651,36
2021-12-23 15:29:22.528661,38
2021-12-23 15:29:22.528671,40
2021-12-23 15:29:22.528681,40
2021-12-23 15:29:22.753850,43
2021-12-23 15:29:22.753881,43
2021-12-23 15:29:22.753892,45
2021-12-23 15:29:22.753902,45
2021-12-23 15:29:22.753912,48
2021-12-23 15:29:22.753922,50
2021-12-23 15:29:22.753931,108
2021-12-23 15:29:22.753941,307
2021-12-23 15:29:22.753951,670
2021-12-23 15:29:22.753961,1077
2021-12-23 15:29:22.753970,964
2021-12-23 15:29:22.753980,79
2021-12-23 15:29:22.753990,-420
2021-12-23 15:29:22.754000,-43
2021-12-23 15:29:22.754010,115
2021-12-23 15:29:22.754020,-98
2021-12-23 15:29:22.754029,-67
2021-12-23 15:29:22.754039,31
2021-12-23 15:29:22.754049,-16
2021-12-23 15:29:22.754059,-24
2021-12-23 15:29:22.754068,19
2021-12-23 15:29:22.754078,12
2021-12-23 15:29:22.754088,4
2021-12-23 15:29:22.754097,26
2021-12-23 15:29:22.754107,33
2021-12-23 15:29:22.754116,36
2021-12-23 15:29:22.754126,48
2021-12-23 15:29:22.754136,57
2021-12-23 15:29:22.754145,64
2021-12-23 15:29:22.754155,76
2021-12-23 15:29:23.023189,91
2021-12-23 15:29:23.023207,110
2021-12-23 15:29:23.023213,125
2021-12-23 15:29:23.023218,137
2021-12-23 15:29:23.023224,156
2021-12-23 15:29:23.023229,185
2021-12-23 15:29:23.023234,216
2021-12-23 15:29:23.023239,247
2021-12-23 15:29:23.023244,278
2021-12-23 15:29:23.023249,300
2021-12-23 15:29:23.023254,322
2021-12-23 15:29:23.023260,341
2021-12-23 15:29:23.023265,351
2021-12-23 15:29:23.023270,353
2021-12-23 15:29:23.023275,339
2021-12-23 15:29:23.023280,290
2021-12-23 15:29:23.023285,216
2021-12-23 15:29:23.023291,129
2021-12-23 15:29:23.023296,48
2021-12-23 15:29:23.023301,-19
2021-12-23 15:29:23.023306,-64
2021-12-23 15:29:23.023311,-91
2021-12-23 15:29:23.023316,-103
2021-12-23 15:29:23.023321,-108
2021-12-23 15:29:23.023326,-110
2021-12-23 15:29:23.023332,-105
2021-12-23 15:29:23.023337,-98
2021-12-23 15:29:23.023342,-93
2021-12-23 15:29:23.023347,-88
2021-12-23 15:29:23.023352,-79
2021-12-23 15:29:23.383952,-72
2021-12-23 15:29:23.383983,-67
2021-12-23 15:29:23.383994,-60
2021-12-23 15:29:23.384004,-50
2021-12-23 15:29:23.384014,-43
2021-12-23 15:29:23.384024,-36
2021-12-23 15:29:23.384033,-28
2021-12-23 15:29:23.384043,-19
2021-12-23 15:29:23.384053,-19
2021-12-23 15:29:23.384062,-21
2021-12-23 15:29:23.384072,-21
2021-12-23 15:29:23.384081,-14
2021-12-23 15:29:23.384091,-9
2021-12-23 15:29:23.384101,-7
2021-12-23 15:29:23.384110,-7
2021-12-23 15:29:23.384120,-7
2021-12-23 15:29:23.384129,-4
2021-12-23 15:29:23.384139,-4
2021-12-23 15:29:23.384149,-4
2021-12-23 15:29:23.384158,-7
2021-12-23 15:29:23.384168,-4
2021-12-23 15:29:23.384177,-2
2021-12-23 15:29:23.384187,4
2021-12-23 15:29:23.384197,9
2021-12-23 15:29:23.384207,12
2021-12-23 15:29:23.384216,14
2021-12-23 15:29:23.384226,14
2021-12-23 15:29:23.384235,16
2021-12-23 15:29:23.384245,21
2021-12-23 15:29:23.384254,26
2021-12-23 15:29:23.517472,31
2021-12-23 15:29:23.517503,28
2021-12-23 15:29:23.517515,28
2021-12-23 15:29:23.517525,33
2021-12-23 15:29:23.517534,38
2021-12-23 15:29:23.517549,38
2021-12-23 15:29:23.517559,38
2021-12-23 15:29:23.517569,38
2021-12-23 15:29:23.517579,33
2021-12-23 15:29:23.517589,26
2021-12-23 15:29:23.517599,26
2021-12-23 15:29:23.517609,36
2021-12-23 15:29:23.517619,45
2021-12-23 15:29:23.517628,50
2021-12-23 15:29:23.517638,62
2021-12-23 15:29:23.517648,79
2021-12-23 15:29:23.517658,79
2021-12-23 15:29:23.517667,64
2021-12-23 15:29:23.517677,55
2021-12-23 15:29:23.517687,55
2021-12-23 15:29:23.517696,55
2021-12-23 15:29:23.517706,48
2021-12-23 15:29:23.517716,50
2021-12-23 15:29:23.517726,55
2021-12-23 15:29:23.517735,52
2021-12-23 15:29:23.517745,55
2021-12-23 15:29:23.517755,60
2021-12-23 15:29:23.517765,67
2021-12-23 15:29:23.517775,69
2021-12-23 15:29:23.517784,110
2021-12-23 15:29:23.698740,288
2021-12-23 15:29:23.698770,637
2021-12-23 15:29:23.698782,1041
2021-12-23 15:29:23.698792,973
2021-12-23 15:29:23.698802,127
2021-12-23 15:29:23.698812,-418
2021-12-23 15:29:23.698821,-67
2021-12-23 15:29:23.698831,125
2021-12-23 15:29:23.698841,-84
2021-12-23 15:29:23.698850,-69
2021-12-23 15:29:23.698860,33
2021-12-23 15:29:23.698870,-9
2021-12-23 15:29:23.698879,-24
2021-12-23 15:29:23.698889,16
2021-12-23 15:29:23.698899,16
2021-12-23 15:29:23.698908,14
2021-12-23 15:29:23.698918,33
2021-12-23 15:29:23.698928,38
2021-12-23 15:29:23.698938,33
2021-12-23 15:29:23.698947,45
2021-12-23 15:29:23.698957,62
2021-12-23 15:29:23.698967,69
2021-12-23 15:29:23.698976,72
2021-12-23 15:29:23.698986,84
2021-12-23 15:29:23.698996,101
2021-12-23 15:29:23.699005,115
2021-12-23 15:29:23.699015,137
2021-12-23 15:29:23.699025,163
2021-12-23 15:29:23.699034,189
2021-12-23 15:29:23.699044,218
2021-12-23 15:29:23.968757,247
2021-12-23 15:29:23.968779,278
2021-12-23 15:29:23.968786,310
2021-12-23 15:29:23.968793,331
2021-12-23 15:29:23.968799,343
2021-12-23 15:29:23.968805,355
2021-12-23 15:29:23.968812,360
2021-12-23 15:29:23.968818,341
2021-12-23 15:29:23.968824,303
2021-12-23 15:29:23.968830,235
2021-12-23 15:29:23.968837,146
2021-12-23 15:29:23.968843,60
2021-12-23 15:29:23.968849,-7
2021-12-23 15:29:23.968856,-57
2021-12-23 15:29:23.968862,-93
2021-12-23 15:29:23.968868,-108
2021-12-23 15:29:23.968874,-108
2021-12-23 15:29:23.968880,-105
2021-12-23 15:29:23.968887,-103
2021-12-23 15:29:23.968893,-96
2021-12-23 15:29:23.968899,-91
2021-12-23 15:29:23.968905,-86
2021-12-23 15:29:23.968912,-79
2021-12-23 15:29:23.968918,-72
2021-12-23 15:29:23.968924,-69
2021-12-23 15:29:23.968930,-64
2021-12-23 15:29:23.968936,-55
2021-12-23 15:29:23.968943,-48
2021-12-23 15:29:23.968949,-40
2021-12-23 15:29:23.968955,-36
2021-12-23 15:29:24.328523,-31
2021-12-23 15:29:24.328555,-26
2021-12-23 15:29:24.328567,-21
2021-12-23 15:29:24.328577,-19
2021-12-23 15:29:24.328587,-16
2021-12-23 15:29:24.328597,-14
2021-12-23 15:29:24.328607,-14
2021-12-23 15:29:24.328617,-16
2021-12-23 15:29:24.328626,-16
2021-12-23 15:29:24.328636,-16
2021-12-23 15:29:24.328646,-16
2021-12-23 15:29:24.328656,-12
2021-12-23 15:29:24.328665,-9
2021-12-23 15:29:24.328675,-4
2021-12-23 15:29:24.328685,-2
2021-12-23 15:29:24.328695,0
2021-12-23 15:29:24.328705,2
2021-12-23 15:29:24.328715,4
2021-12-23 15:29:24.328725,4
2021-12-23 15:29:24.328735,4
2021-12-23 15:29:24.328745,7
2021-12-23 15:29:24.328754,9
2021-12-23 15:29:24.328764,12
2021-12-23 15:29:24.328789,16
2021-12-23 15:29:24.328796,19
2021-12-23 15:29:24.328802,21
2021-12-23 15:29:24.328808,19
2021-12-23 15:29:24.328814,16
2021-12-23 15:29:24.328821,19
2021-12-23 15:29:24.328827,21
2021-12-23 15:29:24.462820,21
2021-12-23 15:29:24.462856,16
2021-12-23 15:29:24.462868,12
2021-12-23 15:29:24.462878,14
2021-12-23 15:29:24.462888,19
2021-12-23 15:29:24.462898,26
2021-12-23 15:29:24.462907,38
2021-12-23 15:29:24.462917,57
2021-12-23 15:29:24.462927,67
2021-12-23 15:29:24.462937,60
2021-12-23 15:29:24.462947,43
2021-12-23 15:29:24.462956,36
2021-12-23 15:29:24.462966,38
2021-12-23 15:29:24.462976,43
2021-12-23 15:29:24.462985,45
2021-12-23 15:29:24.462995,45
2021-12-23 15:29:24.463005,45
2021-12-23 15:29:24.463014,45
2021-12-23 15:29:24.463024,52
2021-12-23 15:29:24.463034,60
2021-12-23 15:29:24.463044,64
2021-12-23 15:29:24.463053,67
2021-12-23 15:29:24.463063,134
2021-12-23 15:29:24.463073,360
2021-12-23 15:29:24.463082,747
2021-12-23 15:29:24.463092,1106
2021-12-23 15:29:24.463102,836
2021-12-23 15:29:24.463112,-76
2021-12-23 15:29:24.463122,-396
2021-12-23 15:29:24.463132,26
2021-12-23 15:29:24.688637,96
2021-12-23 15:29:24.688682,-96
2021-12-23 15:29:24.688694,-24
2021-12-23 15:29:24.688704,43
2021-12-23 15:29:24.688713,-19
2021-12-23 15:29:24.688723,-12
2021-12-23 15:29:24.688733,26
2021-12-23 15:29:24.688742,19
2021-12-23 15:29:24.688752,19
2021-12-23 15:29:24.688762,31
2021-12-23 15:29:24.688772,28
2021-12-23 15:29:24.688782,28
2021-12-23 15:29:24.688791,38
2021-12-23 15:29:24.688801,50
2021-12-23 15:29:24.688811,60
2021-12-23 15:29:24.688820,69
2021-12-23 15:29:24.688830,79
2021-12-23 15:29:24.688840,93
2021-12-23 15:29:24.688849,115
2021-12-23 15:29:24.688859,137
2021-12-23 15:29:24.688868,158
2021-12-23 15:29:24.688878,180
2021-12-23 15:29:24.688887,209
2021-12-23 15:29:24.688897,245
2021-12-23 15:29:24.688907,278
2021-12-23 15:29:24.688916,305
2021-12-23 15:29:24.688926,324
2021-12-23 15:29:24.688936,334
2021-12-23 15:29:24.688945,341
2021-12-23 15:29:24.688955,341
2021-12-23 15:29:24.868087,322
2021-12-23 15:29:24.868106,271
2021-12-23 15:29:24.868113,197
2021-12-23 15:29:24.868120,105
2021-12-23 15:29:24.868126,21
2021-12-23 15:29:24.868132,-38
2021-12-23 15:29:24.868139,-76
2021-12-23 15:29:24.868145,-101
2021-12-23 15:29:24.868151,-110
2021-12-23 15:29:24.868157,-117
2021-12-23 15:29:24.868164,-113
2021-12-23 15:29:24.868170,-103
2021-12-23 15:29:24.868176,-98
2021-12-23 15:29:24.868182,-91
2021-12-23 15:29:24.868189,-81
2021-12-23 15:29:24.868195,-79
2021-12-23 15:29:24.868201,-74
2021-12-23 15:29:24.868207,-62
2021-12-23 15:29:24.868214,-55
2021-12-23 15:29:24.868220,-50
2021-12-23 15:29:24.868227,-45
2021-12-23 15:29:24.868233,-40
2021-12-23 15:29:24.868239,-36
2021-12-23 15:29:24.868245,-28
2021-12-23 15:29:24.868252,-24
2021-12-23 15:29:24.868258,-21
2021-12-23 15:29:24.868264,-16
2021-12-23 15:29:24.868271,0
2021-12-23 15:29:24.868277,0
2021-12-23 15:29:24.868284,-16
2021-12-23 15:29:25.183825,-21
2021-12-23 15:29:25.183855,-12
2021-12-23 15:29:25.183866,-9
2021-12-23 15:29:25.183876,-12
2021-12-23 15:29:25.183886,-7
2021-12-23 15:29:25.183896,-4
2021-12-23 15:29:25.183906,0
2021-12-23 15:29:25.183915,7
2021-12-23 15:29:25.183925,4
2021-12-23 15:29:25.183935,-4
2021-12-23 15:29:25.183944,2
2021-12-23 15:29:25.183954,7
2021-12-23 15:29:25.183963,7
2021-12-23 15:29:25.183973,12
2021-12-23 15:29:25.183983,12
2021-12-23 15:29:25.183992,9
2021-12-23 15:29:25.184002,14
2021-12-23 15:29:25.184011,16
2021-12-23 15:29:25.184021,14
2021-12-23 15:29:25.184030,9
2021-12-23 15:29:25.184040,12
2021-12-23 15:29:25.184049,19
2021-12-23 15:29:25.184059,24
2021-12-23 15:29:25.184068,28
2021-12-23 15:29:25.184077,33
2021-12-23 15:29:25.184087,36
2021-12-23 15:29:25.184096,33
2021-12-23 15:29:25.184106,28
2021-12-23 15:29:25.184115,26
2021-12-23 15:29:25.184125,26
2021-12-23 15:29:25.318767,28
2021-12-23 15:29:25.318797,36
2021-12-23 15:29:25.318808,45
2021-12-23 15:29:25.318818,52
2021-12-23 15:29:25.318828,64
2021-12-23 15:29:25.318837,74
2021-12-23 15:29:25.318847,69
2021-12-23 15:29:25.318857,57
2021-12-23 15:29:25.318867,48
2021-12-23 15:29:25.318876,45
2021-12-23 15:29:25.318886,48
2021-12-23 15:29:25.318901,55
2021-12-23 15:29:25.318911,60
2021-12-23 15:29:25.318921,60
2021-12-23 15:29:25.318931,57
2021-12-23 15:29:25.318940,52
2021-12-23 15:29:25.318950,55
2021-12-23 15:29:25.318960,62
2021-12-23 15:29:25.318970,67
2021-12-23 15:29:25.318979,125
2021-12-23 15:29:25.318990,336
2021-12-23 15:29:25.318999,707
2021-12-23 15:29:25.319009,1101
2021-12-23 15:29:25.319019,937
2021-12-23 15:29:25.319028,26
2021-12-23 15:29:25.319038,-418
2021-12-23 15:29:25.319048,-14
2021-12-23 15:29:25.319058,113
2021-12-23 15:29:25.319068,-98
2021-12-23 15:29:25.319077,-50
2021-12-23 15:29:25.633004,36
2021-12-23 15:29:25.633025,-21
2021-12-23 15:29:25.633033,-21
2021-12-23 15:29:25.633039,21
2021-12-23 15:29:25.633046,14
2021-12-23 15:29:25.633052,12
2021-12-23 15:29:25.633058,26
2021-12-23 15:29:25.633065,28
2021-12-23 15:29:25.633071,28
2021-12-23 15:29:25.633077,43
2021-12-23 15:29:25.633084,52
2021-12-23 15:29:25.633090,60
2021-12-23 15:29:25.633096,72
2021-12-23 15:29:25.633102,84
2021-12-23 15:29:25.633109,93
2021-12-23 15:29:25.633115,108
2021-12-23 15:29:25.633121,129
2021-12-23 15:29:25.633127,151
2021-12-23 15:29:25.633134,175
2021-12-23 15:29:25.633140,199
2021-12-23 15:29:25.633146,230
2021-12-23 15:29:25.633153,257
2021-12-23 15:29:25.633159,276
2021-12-23 15:29:25.633165,295
2021-12-23 15:29:25.633172,315
2021-12-23 15:29:25.633178,324
2021-12-23 15:29:25.633184,324
2021-12-23 15:29:25.633191,312
2021-12-23 15:29:25.633197,278
2021-12-23 15:29:25.633203,211
2021-12-23 15:29:25.813797,132
2021-12-23 15:29:25.813818,52
2021-12-23 15:29:25.813825,-14
2021-12-23 15:29:25.813832,-64
2021-12-23 15:29:25.813838,-93
2021-12-23 15:29:25.813844,-110
2021-12-23 15:29:25.813850,-110
2021-12-23 15:29:25.813856,-105
2021-12-23 15:29:25.813863,-103
2021-12-23 15:29:25.813869,-101
2021-12-23 15:29:25.813875,-93
2021-12-23 15:29:25.813881,-86
2021-12-23 15:29:25.813888,-81
2021-12-23 15:29:25.813894,-74
2021-12-23 15:29:25.813900,-64
2021-12-23 15:29:25.813906,-57
2021-12-23 15:29:25.813912,-50
2021-12-23 15:29:25.813918,-45
2021-12-23 15:29:25.813924,-43
2021-12-23 15:29:25.813931,-38
2021-12-23 15:29:25.813937,-31
2021-12-23 15:29:25.813943,-28
2021-12-23 15:29:25.813949,-24
2021-12-23 15:29:25.813955,-21
2021-12-23 15:29:25.813961,-21
2021-12-23 15:29:25.813967,-19
2021-12-23 15:29:25.813974,-14
2021-12-23 15:29:25.813980,-14
2021-12-23 15:29:25.813986,-14
2021-12-23 15:29:25.813992,-9
2021-12-23 15:29:26.038301,-9
2021-12-23 15:29:26.038327,-7
2021-12-23 15:29:26.038338,-2
2021-12-23 15:29:26.038349,0
2021-12-23 15:29:26.038358,4
2021-12-23 15:29:26.038367,4
2021-12-23 15:29:26.038376,-2
2021-12-23 15:29:26.038385,4
2021-12-23 15:29:26.038394,14
2021-12-23 15:29:26.038404,16
2021-12-23 15:29:26.038413,16
2021-12-23 15:29:26.038423,19
2021-12-23 15:29:26.038433,12
2021-12-23 15:29:26.038442,14
2021-12-23 15:29:26.038452,26
2021-12-23 15:29:26.038461,28
2021-12-23 15:29:26.038471,24
2021-12-23 15:29:26.038480,26
2021-12-23 15:29:26.038490,28
2021-12-23 15:29:26.038500,31
2021-12-23 15:29:26.038509,33
2021-12-23 15:29:26.038518,36
2021-12-23 15:29:26.038528,36
2021-12-23 15:29:26.038537,38
2021-12-23 15:29:26.038546,38
2021-12-23 15:29:26.038555,33
2021-12-23 15:29:26.038564,28
2021-12-23 15:29:26.038573,26
2021-12-23 15:29:26.038582,26
2021-12-23 15:29:26.038591,31
2021-12-23 15:29:26.263326,40
2021-12-23 15:29:26.263348,55
2021-12-23 15:29:26.263355,69
2021-12-23 15:29:26.263362,74
2021-12-23 15:29:26.263368,62
2021-12-23 15:29:26.263374,45
2021-12-23 15:29:26.263380,40
2021-12-23 15:29:26.263387,40
2021-12-23 15:29:26.263393,43
2021-12-23 15:29:26.263399,45
2021-12-23 15:29:26.263405,45
2021-12-23 15:29:26.263412,40
2021-12-23 15:29:26.263418,43
2021-12-23 15:29:26.263424,48
2021-12-23 15:29:26.263430,50
2021-12-23 15:29:26.263437,57
2021-12-23 15:29:26.263443,67
2021-12-23 15:29:26.263449,165
2021-12-23 15:29:26.263455,444
2021-12-23 15:29:26.263462,872
2021-12-23 15:29:26.263468,1137
2021-12-23 15:29:26.263474,610
2021-12-23 15:29:26.263480,-288
2021-12-23 15:29:26.263486,-317
2021-12-23 15:29:26.263493,103
2021-12-23 15:29:26.263499,21
2021-12-23 15:29:26.263505,-115
2021-12-23 15:29:26.263512,0
2021-12-23 15:29:26.263518,16
2021-12-23 15:29:26.263524,-36
2021-12-23 15:29:26.488056,-2
2021-12-23 15:29:26.488077,24
2021-12-23 15:29:26.488084,12
2021-12-23 15:29:26.488091,19
2021-12-23 15:29:26.488097,33
2021-12-23 15:29:26.488103,33
2021-12-23 15:29:26.488110,40
2021-12-23 15:29:26.488116,55
2021-12-23 15:29:26.488130,64
2021-12-23 15:29:26.488137,72
2021-12-23 15:29:26.488143,79
2021-12-23 15:29:26.488149,88
2021-12-23 15:29:26.488156,103
2021-12-23 15:29:26.488162,120
2021-12-23 15:29:26.488168,137
2021-12-23 15:29:26.488175,153
2021-12-23 15:29:26.488181,175
2021-12-23 15:29:26.488187,204
2021-12-23 15:29:26.488194,238
2021-12-23 15:29:26.488200,271
2021-12-23 15:29:26.488206,298
2021-12-23 15:29:26.488213,317
2021-12-23 15:29:26.488219,331
2021-12-23 15:29:26.488225,341
2021-12-23 15:29:26.488232,341
2021-12-23 15:29:26.488238,322
2021-12-23 15:29:26.488244,274
2021-12-23 15:29:26.488250,192
2021-12-23 15:29:26.488257,105
2021-12-23 15:29:26.488263,36
2021-12-23 15:29:26.758390,-21
2021-12-23 15:29:26.758420,-62
2021-12-23 15:29:26.758432,-81
2021-12-23 15:29:26.758442,-91
2021-12-23 15:29:26.758451,-101
2021-12-23 15:29:26.758461,-98
2021-12-23 15:29:26.758471,-88
2021-12-23 15:29:26.758480,-84
2021-12-23 15:29:26.758490,-81
2021-12-23 15:29:26.758500,-79
2021-12-23 15:29:26.758509,-72
2021-12-23 15:29:26.758519,-62
2021-12-23 15:29:26.758529,-52
2021-12-23 15:29:26.758539,-45
2021-12-23 15:29:26.758548,-40
2021-12-23 15:29:26.758558,-38
2021-12-23 15:29:26.758567,-36
2021-12-23 15:29:26.758577,-33
2021-12-23 15:29:26.758587,-26
2021-12-23 15:29:26.758596,-19
2021-12-23 15:29:26.758606,-19
2021-12-23 15:29:26.758615,-16
2021-12-23 15:29:26.758625,-12
2021-12-23 15:29:26.758634,-9
2021-12-23 15:29:26.758644,-9
2021-12-23 15:29:26.758654,-4
2021-12-23 15:29:26.758663,-2
2021-12-23 15:29:26.758673,-4
2021-12-23 15:29:26.758683,0
2021-12-23 15:29:26.758692,4
2021-12-23 15:29:27.118362,9
2021-12-23 15:29:27.118392,9
2021-12-23 15:29:27.118404,12
2021-12-23 15:29:27.118413,14
2021-12-23 15:29:27.118423,14
2021-12-23 15:29:27.118433,16
2021-12-23 15:29:27.118442,21
2021-12-23 15:29:27.118452,28
2021-12-23 15:29:27.118462,28
2021-12-23 15:29:27.118471,26
2021-12-23 15:29:27.118481,33
2021-12-23 15:29:27.118491,36
2021-12-23 15:29:27.118501,36
2021-12-23 15:29:27.118511,36
2021-12-23 15:29:27.118520,38
2021-12-23 15:29:27.118530,36
2021-12-23 15:29:27.118539,36
2021-12-23 15:29:27.118549,40
2021-12-23 15:29:27.118559,40
2021-12-23 15:29:27.118568,36
2021-12-23 15:29:27.118578,33
2021-12-23 15:29:27.118588,33
2021-12-23 15:29:27.118597,36
2021-12-23 15:29:27.118607,33
2021-12-23 15:29:27.118616,28
2021-12-23 15:29:27.118626,26
2021-12-23 15:29:27.118636,31
2021-12-23 15:29:27.118645,40
2021-12-23 15:29:27.118655,52
2021-12-23 15:29:27.118665,62
2021-12-23 15:29:27.208257,76
2021-12-23 15:29:27.208277,79
2021-12-23 15:29:27.208284,64
2021-12-23 15:29:27.208291,52
2021-12-23 15:29:27.208297,50
2021-12-23 15:29:27.208303,52
2021-12-23 15:29:27.208310,55
2021-12-23 15:29:27.208316,57
2021-12-23 15:29:27.208322,57
2021-12-23 15:29:27.208328,50
2021-12-23 15:29:27.208335,48
2021-12-23 15:29:27.208341,55
2021-12-23 15:29:27.208347,60
2021-12-23 15:29:27.208353,57
2021-12-23 15:29:27.208360,57
2021-12-23 15:29:27.208366,132
2021-12-23 15:29:27.208372,377
2021-12-23 15:29:27.208379,776
2021-12-23 15:29:27.208385,1135
2021-12-23 15:29:27.208391,832
2021-12-23 15:29:27.208397,-113
2021-12-23 15:29:27.208404,-408
2021-12-23 15:29:27.208410,28
2021-12-23 15:29:27.208416,79
2021-12-23 15:29:27.208423,-117
2021-12-23 15:29:27.208429,-38
2021-12-23 15:29:27.208435,28
2021-12-23 15:29:27.208441,-31
2021-12-23 15:29:27.208448,-19
2021-12-23 15:29:27.208454,19
2021-12-23 15:29:27.433258,7
2021-12-23 15:29:27.433298,7
2021-12-23 15:29:27.433309,24
2021-12-23 15:29:27.433319,24
2021-12-23 15:29:27.433329,24
2021-12-23 15:29:27.433338,38
2021-12-23 15:29:27.433347,45
2021-12-23 15:29:27.433357,45
2021-12-23 15:29:27.433367,57
2021-12-23 15:29:27.433376,72
2021-12-23 15:29:27.433386,86
2021-12-23 15:29:27.433395,103
2021-12-23 15:29:27.433405,120
2021-12-23 15:29:27.433414,137
2021-12-23 15:29:27.433424,161
2021-12-23 15:29:27.433434,192
2021-12-23 15:29:27.433443,223
2021-12-23 15:29:27.433453,254
2021-12-23 15:29:27.433462,281
2021-12-23 15:29:27.433472,300
2021-12-23 15:29:27.433481,317
2021-12-23 15:29:27.433491,331
2021-12-23 15:29:27.433500,331
2021-12-23 15:29:27.433510,315
2021-12-23 15:29:27.433520,271
2021-12-23 15:29:27.433529,202
2021-12-23 15:29:27.433539,120
2021-12-23 15:29:27.433548,40
2021-12-23 15:29:27.433558,-26
2021-12-23 15:29:27.433568,-69
2021-12-23 15:29:27.701484,-93
2021-12-23 15:29:27.701507,-103
2021-12-23 15:29:27.701514,-105
2021-12-23 15:29:27.701521,-103
2021-12-23 15:29:27.701527,-98
2021-12-23 15:29:27.701534,-91
2021-12-23 15:29:27.701540,-86
2021-12-23 15:29:27.701546,-88
2021-12-23 15:29:27.701552,-81
2021-12-23 15:29:27.701559,-69
2021-12-23 15:29:27.701565,-62
2021-12-23 15:29:27.701571,-62
2021-12-23 15:29:27.701577,-60
2021-12-23 15:29:27.701584,-57
2021-12-23 15:29:27.701590,-55
2021-12-23 15:29:27.701596,-52
2021-12-23 15:29:27.701602,-50
2021-12-23 15:29:27.701609,-45
2021-12-23 15:29:27.701615,-40
2021-12-23 15:29:27.701621,-38
2021-12-23 15:29:27.701628,-36
2021-12-23 15:29:27.701634,-31
2021-12-23 15:29:27.701640,-28
2021-12-23 15:29:27.701655,-26
2021-12-23 15:29:27.701662,-24
2021-12-23 15:29:27.701668,-24
2021-12-23 15:29:27.701674,-19
2021-12-23 15:29:27.701680,-16
2021-12-23 15:29:27.701687,-16
2021-12-23 15:29:27.701693,-14
2021-12-23 15:29:27.883852,-12
2021-12-23 15:29:27.883873,-7
2021-12-23 15:29:27.883881,-2
2021-12-23 15:29:27.883887,0
2021-12-23 15:29:27.883894,4
2021-12-23 15:29:27.883906,7
2021-12-23 15:29:27.883912,9
2021-12-23 15:29:27.883919,12
2021-12-23 15:29:27.883925,14
2021-12-23 15:29:27.883931,12
2021-12-23 15:29:27.883937,12
2021-12-23 15:29:27.883944,19
2021-12-23 15:29:27.883950,24
2021-12-23 15:29:27.883956,21
2021-12-23 15:29:27.883962,21
2021-12-23 15:29:27.883968,21
2021-12-23 15:29:27.883975,21
2021-12-23 15:29:27.883981,16
2021-12-23 15:29:27.883987,12
2021-12-23 15:29:27.883993,16
2021-12-23 15:29:27.884000,16
2021-12-23 15:29:27.884006,9
2021-12-23 15:29:27.884012,4
2021-12-23 15:29:27.884018,7
2021-12-23 15:29:27.884024,12
2021-12-23 15:29:27.884031,24
2021-12-23 15:29:27.884037,31
2021-12-23 15:29:27.884043,43
2021-12-23 15:29:27.884049,57
2021-12-23 15:29:27.884056,55
2021-12-23 15:29:28.063650,40
2021-12-23 15:29:28.063667,31
2021-12-23 15:29:28.063673,28
2021-12-23 15:29:28.063678,36
2021-12-23 15:29:28.063683,31
2021-12-23 15:29:28.063688,19
2021-12-23 15:29:28.063693,24
2021-12-23 15:29:28.063699,38
2021-12-23 15:29:28.063704,36
2021-12-23 15:29:28.063709,33
2021-12-23 15:29:28.063714,43
2021-12-23 15:29:28.063719,52
2021-12-23 15:29:28.063725,86
2021-12-23 15:29:28.063730,242
2021-12-23 15:29:28.063735,567
2021-12-23 15:29:28.063741,1000
2021-12-23 15:29:28.063747,1089
2021-12-23 15:29:28.063752,322
2021-12-23 15:29:28.063757,-416
2021-12-23 15:29:28.063763,-177
2021-12-23 15:29:28.063768,132
2021-12-23 15:29:28.063773,-55
2021-12-23 15:29:28.063778,-108
2021-12-23 15:29:28.063783,12
2021-12-23 15:29:28.063788,-9
2021-12-23 15:29:28.063793,-38
2021-12-23 15:29:28.063798,4
2021-12-23 15:29:28.063804,9
2021-12-23 15:29:28.063809,-7
2021-12-23 15:29:28.063814,2
2021-12-23 15:29:28.333421,16
2021-12-23 15:29:28.333443,21
2021-12-23 15:29:28.333450,36
2021-12-23 15:29:28.333457,43
2021-12-23 15:29:28.333463,43
2021-12-23 15:29:28.333469,55
2021-12-23 15:29:28.333475,74
2021-12-23 15:29:28.333482,86
2021-12-23 15:29:28.333488,103
2021-12-23 15:29:28.333494,125
2021-12-23 15:29:28.333501,139
2021-12-23 15:29:28.333507,158
2021-12-23 15:29:28.333513,187
2021-12-23 15:29:28.333519,221
2021-12-23 15:29:28.333526,257
2021-12-23 15:29:28.333532,286
2021-12-23 15:29:28.333538,307
2021-12-23 15:29:28.333545,331
2021-12-23 15:29:28.333551,353
2021-12-23 15:29:28.333557,365
2021-12-23 15:29:28.333563,358
2021-12-23 15:29:28.333569,319
2021-12-23 15:29:28.333576,257
2021-12-23 15:29:28.333582,180
2021-12-23 15:29:28.333588,96
2021-12-23 15:29:28.333594,21
2021-12-23 15:29:28.333600,-36
2021-12-23 15:29:28.333607,-72
2021-12-23 15:29:28.333613,-86
2021-12-23 15:29:28.333619,-91
2021-12-23 15:29:28.648230,-93
2021-12-23 15:29:28.648260,-93
2021-12-23 15:29:28.648272,-93
2021-12-23 15:29:28.648283,-91
2021-12-23 15:29:28.648292,-81
2021-12-23 15:29:28.648302,-69
2021-12-23 15:29:28.648312,-62
2021-12-23 15:29:28.648322,-55
2021-12-23 15:29:28.648332,-48
2021-12-23 15:29:28.648341,-48
2021-12-23 15:29:28.648351,-48
2021-12-23 15:29:28.648361,-36
2021-12-23 15:29:28.648371,-21
2021-12-23 15:29:28.648381,-12
2021-12-23 15:29:28.648390,-9
2021-12-23 15:29:28.648400,-12
2021-12-23 15:29:28.648410,-9
2021-12-23 15:29:28.648420,-4
2021-12-23 15:29:28.648430,0
2021-12-23 15:29:28.648439,2
2021-12-23 15:29:28.648449,2
2021-12-23 15:29:28.648459,2
2021-12-23 15:29:28.648468,4
2021-12-23 15:29:28.648478,12
2021-12-23 15:29:28.648488,14
2021-12-23 15:29:28.648498,9
2021-12-23 15:29:28.648507,4
2021-12-23 15:29:28.648517,4
2021-12-23 15:29:28.648527,9
2021-12-23 15:29:28.648536,9
2021-12-23 15:29:28.827776,14
2021-12-23 15:29:28.827816,26
2021-12-23 15:29:28.827827,21
2021-12-23 15:29:28.827837,14
2021-12-23 15:29:28.827846,21
2021-12-23 15:29:28.827856,31
2021-12-23 15:29:28.827865,33
2021-12-23 15:29:28.827875,38
2021-12-23 15:29:28.827885,31
2021-12-23 15:29:28.827894,24
2021-12-23 15:29:28.827904,31
2021-12-23 15:29:28.827913,33
2021-12-23 15:29:28.827923,28
2021-12-23 15:29:28.827933,26
2021-12-23 15:29:28.827942,28
2021-12-23 15:29:28.827952,36
2021-12-23 15:29:28.827961,48
2021-12-23 15:29:28.827971,64
2021-12-23 15:29:28.827980,79
2021-12-23 15:29:28.827990,74
2021-12-23 15:29:28.828000,57
2021-12-23 15:29:28.828009,48
2021-12-23 15:29:28.828019,48
2021-12-23 15:29:28.828028,50
2021-12-23 15:29:28.828038,52
2021-12-23 15:29:28.828048,52
2021-12-23 15:29:28.828057,50
2021-12-23 15:29:28.828067,50
2021-12-23 15:29:28.828076,52
2021-12-23 15:29:28.828086,60
2021-12-23 15:29:29.053288,64
2021-12-23 15:29:29.053310,72
2021-12-23 15:29:29.053318,86
2021-12-23 15:29:29.053325,185
2021-12-23 15:29:29.053331,456
2021-12-23 15:29:29.053338,868
2021-12-23 15:29:29.053344,1130
2021-12-23 15:29:29.053350,632
2021-12-23 15:29:29.053357,-269
2021-12-23 15:29:29.053363,-329
2021-12-23 15:29:29.053370,96
2021-12-23 15:29:29.053376,38
2021-12-23 15:29:29.053382,-98
2021-12-23 15:29:29.053389,9
2021-12-23 15:29:29.053395,26
2021-12-23 15:29:29.053402,-31
2021-12-23 15:29:29.053409,0
2021-12-23 15:29:29.053416,33
2021-12-23 15:29:29.053423,24
2021-12-23 15:29:29.053429,31
2021-12-23 15:29:29.053435,48
2021-12-23 15:29:29.053441,52
2021-12-23 15:29:29.053448,57
2021-12-23 15:29:29.053454,64
2021-12-23 15:29:29.053460,67
2021-12-23 15:29:29.053467,76
2021-12-23 15:29:29.053473,88
2021-12-23 15:29:29.053479,101
2021-12-23 15:29:29.053486,115
2021-12-23 15:29:29.053500,134
2021-12-23 15:29:29.233966,153
2021-12-23 15:29:29.233987,173
2021-12-23 15:29:29.233994,192
2021-12-23 15:29:29.234001,221
2021-12-23 15:29:29.234007,254
2021-12-23 15:29:29.234013,286
2021-12-23 15:29:29.234020,312
2021-12-23 15:29:29.234026,331
2021-12-23 15:29:29.234032,343
2021-12-23 15:29:29.234038,353
2021-12-23 15:29:29.234045,351
2021-12-23 15:29:29.234051,324
2021-12-23 15:29:29.234057,266
2021-12-23 15:29:29.234064,177
2021-12-23 15:29:29.234070,81
2021-12-23 15:29:29.234076,4
2021-12-23 15:29:29.234082,-50
2021-12-23 15:29:29.234089,-84
2021-12-23 15:29:29.234095,-96
2021-12-23 15:29:29.234101,-98
2021-12-23 15:29:29.234108,-103
2021-12-23 15:29:29.234114,-105
2021-12-23 15:29:29.234120,-96
2021-12-23 15:29:29.234127,-91
2021-12-23 15:29:29.234133,-88
2021-12-23 15:29:29.234139,-81
2021-12-23 15:29:29.234145,-74
2021-12-23 15:29:29.234151,-67
2021-12-23 15:29:29.234158,-55
2021-12-23 15:29:29.234164,-40
2021-12-23 15:29:29.503302,-31
2021-12-23 15:29:29.503333,-31
2021-12-23 15:29:29.503345,-26
2021-12-23 15:29:29.503355,-19
2021-12-23 15:29:29.503364,-14
2021-12-23 15:29:29.503374,-14
2021-12-23 15:29:29.503384,-14
2021-12-23 15:29:29.503393,-9
2021-12-23 15:29:29.503403,4
2021-12-23 15:29:29.503413,4
2021-12-23 15:29:29.503423,-7
2021-12-23 15:29:29.503433,-12
2021-12-23 15:29:29.503442,-4
2021-12-23 15:29:29.503452,-4
2021-12-23 15:29:29.503462,-4
2021-12-23 15:29:29.503471,0
2021-12-23 15:29:29.503481,4
2021-12-23 15:29:29.503491,9
2021-12-23 15:29:29.503501,12
2021-12-23 15:29:29.503510,12
2021-12-23 15:29:29.503520,9
2021-12-23 15:29:29.503530,9
2021-12-23 15:29:29.503540,12
2021-12-23 15:29:29.503549,12
2021-12-23 15:29:29.503559,14
2021-12-23 15:29:29.503569,21
2021-12-23 15:29:29.503578,24
2021-12-23 15:29:29.503588,19
2021-12-23 15:29:29.503598,21
2021-12-23 15:29:29.503607,26
2021-12-23 15:29:29.727637,26
2021-12-23 15:29:29.727668,24
2021-12-23 15:29:29.727680,28
2021-12-23 15:29:29.727690,28
2021-12-23 15:29:29.727699,26
2021-12-23 15:29:29.727709,16
2021-12-23 15:29:29.727719,9
2021-12-23 15:29:29.727728,0
2021-12-23 15:29:29.727738,-7
2021-12-23 15:29:29.727747,-9
2021-12-23 15:29:29.727757,-4
2021-12-23 15:29:29.727766,4
2021-12-23 15:29:29.727776,9
2021-12-23 15:29:29.727786,21
2021-12-23 15:29:29.727795,36
2021-12-23 15:29:29.727805,33
2021-12-23 15:29:29.727814,19
2021-12-23 15:29:29.727824,4
2021-12-23 15:29:29.727833,-2
2021-12-23 15:29:29.727843,-2
2021-12-23 15:29:29.727852,-2
2021-12-23 15:29:29.727862,2
2021-12-23 15:29:29.727871,9
2021-12-23 15:29:29.727881,12
2021-12-23 15:29:29.727891,4
2021-12-23 15:29:29.727900,7
2021-12-23 15:29:29.727910,26
2021-12-23 15:29:29.727919,38
2021-12-23 15:29:29.727929,62
2021-12-23 15:29:29.727938,238
2021-12-23 15:29:29.908344,603
2021-12-23 15:29:29.908375,1031
2021-12-23 15:29:29.908386,1036
2021-12-23 15:29:29.908396,216
2021-12-23 15:29:29.908406,-435
2021-12-23 15:29:29.908416,-137
2021-12-23 15:29:29.908425,117
2021-12-23 15:29:29.908435,-79
2021-12-23 15:29:29.908444,-88
2021-12-23 15:29:29.908454,26
2021-12-23 15:29:29.908464,-14
2021-12-23 15:29:29.908473,-43
2021-12-23 15:29:29.908483,4
2021-12-23 15:29:29.908493,14
2021-12-23 15:29:29.908502,0
2021-12-23 15:29:29.908512,12
2021-12-23 15:29:29.908521,24
2021-12-23 15:29:29.908531,24
2021-12-23 15:29:29.908541,31
2021-12-23 15:29:29.908550,45
2021-12-23 15:29:29.908560,55
2021-12-23 15:29:29.908570,60
2021-12-23 15:29:29.908579,64
2021-12-23 15:29:29.908589,72
2021-12-23 15:29:29.908598,88
2021-12-23 15:29:29.908608,110
2021-12-23 15:29:29.908617,129
2021-12-23 15:29:29.908627,151
2021-12-23 15:29:29.908636,180
2021-12-23 15:29:29.908646,209
2021-12-23 15:29:30.133847,240
2021-12-23 15:29:30.133877,271
2021-12-23 15:29:30.133889,295
2021-12-23 15:29:30.133899,315
2021-12-23 15:29:30.133909,327
2021-12-23 15:29:30.133919,334
2021-12-23 15:29:30.133928,329
2021-12-23 15:29:30.133938,298
2021-12-23 15:29:30.133948,235
2021-12-23 15:29:30.133958,151
2021-12-23 15:29:30.133967,64
2021-12-23 15:29:30.133977,-7
2021-12-23 15:29:30.133987,-60
2021-12-23 15:29:30.133997,-96
2021-12-23 15:29:30.134006,-115
2021-12-23 15:29:30.134016,-127
2021-12-23 15:29:30.134026,-127
2021-12-23 15:29:30.134035,-113
2021-12-23 15:29:30.134045,-98
2021-12-23 15:29:30.134055,-93
2021-12-23 15:29:30.134064,-86
2021-12-23 15:29:30.134074,-76
2021-12-23 15:29:30.134084,-74
2021-12-23 15:29:30.134094,-79
2021-12-23 15:29:30.134103,-69
2021-12-23 15:29:30.134113,-52
2021-12-23 15:29:30.134123,-33
2021-12-23 15:29:30.134132,-14
2021-12-23 15:29:30.134142,-7
2021-12-23 15:29:30.134151,-4
2021-12-23 15:29:30.403197,4
2021-12-23 15:29:30.403217,9
2021-12-23 15:29:30.403225,9
2021-12-23 15:29:30.403231,9
2021-12-23 15:29:30.403238,12
2021-12-23 15:29:30.403244,16
2021-12-23 15:29:30.403250,16
2021-12-23 15:29:30.403256,12
2021-12-23 15:29:30.403263,14
2021-12-23 15:29:30.403269,16
2021-12-23 15:29:30.403275,14
2021-12-23 15:29:30.403282,16
2021-12-23 15:29:30.403288,19
2021-12-23 15:29:30.403294,21
2021-12-23 15:29:30.403300,24
2021-12-23 15:29:30.403307,21
2021-12-23 15:29:30.403313,19
2021-12-23 15:29:30.403319,16
2021-12-23 15:29:30.403325,12
2021-12-23 15:29:30.403332,16
2021-12-23 15:29:30.403338,19
2021-12-23 15:29:30.403344,16
2021-12-23 15:29:30.403350,14
2021-12-23 15:29:30.403356,14
2021-12-23 15:29:30.403363,16
2021-12-23 15:29:30.403369,16
2021-12-23 15:29:30.403375,16
2021-12-23 15:29:30.403381,14
2021-12-23 15:29:30.403388,14
2021-12-23 15:29:30.403394,14
2021-12-23 15:29:30.628145,14
2021-12-23 15:29:30.628178,14
2021-12-23 15:29:30.628186,9
2021-12-23 15:29:30.628192,2
2021-12-23 15:29:30.628199,2
2021-12-23 15:29:30.628210,9
2021-12-23 15:29:30.628221,19
2021-12-23 15:29:30.628233,28
2021-12-23 15:29:30.628244,38
2021-12-23 15:29:30.628256,48
2021-12-23 15:29:30.628273,52
2021-12-23 15:29:30.628285,45
2021-12-23 15:29:30.628297,33
2021-12-23 15:29:30.628308,31
2021-12-23 15:29:30.628319,36
2021-12-23 15:29:30.628330,36
2021-12-23 15:29:30.628342,33
2021-12-23 15:29:30.628354,38
2021-12-23 15:29:30.628366,40
2021-12-23 15:29:30.628377,36
2021-12-23 15:29:30.628384,33
2021-12-23 15:29:30.628391,43
2021-12-23 15:29:30.628397,52
2021-12-23 15:29:30.628403,79
2021-12-23 15:29:30.628409,221
2021-12-23 15:29:30.628416,531
2021-12-23 15:29:30.628422,957
2021-12-23 15:29:30.628428,1120
2021-12-23 15:29:30.628456,449
2021-12-23 15:29:30.628462,-370
2021-12-23 15:29:30.898006,-226
2021-12-23 15:29:30.898029,144
2021-12-23 15:29:30.898036,-14
2021-12-23 15:29:30.898043,-101
2021-12-23 15:29:30.898049,28
2021-12-23 15:29:30.898055,21
2021-12-23 15:29:30.898061,-26
2021-12-23 15:29:30.898067,14
2021-12-23 15:29:30.898074,26
2021-12-23 15:29:30.898080,9
2021-12-23 15:29:30.898086,26
2021-12-23 15:29:30.898092,45
2021-12-23 15:29:30.898098,43
2021-12-23 15:29:30.898105,48
2021-12-23 15:29:30.898111,57
2021-12-23 15:29:30.898117,62
2021-12-23 15:29:30.898123,72
2021-12-23 15:29:30.898129,81
2021-12-23 15:29:30.898136,88
2021-12-23 15:29:30.898142,96
2021-12-23 15:29:30.898148,115
2021-12-23 15:29:30.898154,132
2021-12-23 15:29:30.898160,149
2021-12-23 15:29:30.898167,170
2021-12-23 15:29:30.898173,197
2021-12-23 15:29:30.898179,226
2021-12-23 15:29:30.898185,254
2021-12-23 15:29:30.898191,281
2021-12-23 15:29:30.898198,305
2021-12-23 15:29:30.898204,319
2021-12-23 15:29:31.077957,327
2021-12-23 15:29:31.078002,324
2021-12-23 15:29:31.078035,295
2021-12-23 15:29:31.078050,235
2021-12-23 15:29:31.078059,151
2021-12-23 15:29:31.078067,69
2021-12-23 15:29:31.078075,-2
2021-12-23 15:29:31.078083,-62
2021-12-23 15:29:31.078091,-101
2021-12-23 15:29:31.078099,-115
2021-12-23 15:29:31.078107,-115
2021-12-23 15:29:31.078115,-110
2021-12-23 15:29:31.078123,-113
2021-12-23 15:29:31.078131,-110
2021-12-23 15:29:31.078139,-103
2021-12-23 15:29:31.078149,-93
2021-12-23 15:29:31.078156,-86
2021-12-23 15:29:31.078161,-74
2021-12-23 15:29:31.078166,-64
2021-12-23 15:29:31.078170,-57
2021-12-23 15:29:31.078175,-45
2021-12-23 15:29:31.078181,-36
2021-12-23 15:29:31.078186,-28
2021-12-23 15:29:31.078191,-28
2021-12-23 15:29:31.078196,-28
2021-12-23 15:29:31.078200,-24
2021-12-23 15:29:31.078205,-16
2021-12-23 15:29:31.078210,-9
2021-12-23 15:29:31.078214,-2
2021-12-23 15:29:31.078219,0
2021-12-23 15:29:31.303326,-2
2021-12-23 15:29:31.303359,2
2021-12-23 15:29:31.303366,9
2021-12-23 15:29:31.303373,9
2021-12-23 15:29:31.303379,12
2021-12-23 15:29:31.303386,14
2021-12-23 15:29:31.303392,14
2021-12-23 15:29:31.303399,12
2021-12-23 15:29:31.303405,14
2021-12-23 15:29:31.303411,21
2021-12-23 15:29:31.303418,24
2021-12-23 15:29:31.303424,21
2021-12-23 15:29:31.303430,21
2021-12-23 15:29:31.303437,26
2021-12-23 15:29:31.303443,24
2021-12-23 15:29:31.303449,21
2021-12-23 15:29:31.303455,24
2021-12-23 15:29:31.303462,31
2021-12-23 15:29:31.303468,31
2021-12-23 15:29:31.303474,28
2021-12-23 15:29:31.303480,33
2021-12-23 15:29:31.303487,33
2021-12-23 15:29:31.303493,33
2021-12-23 15:29:31.303499,36
2021-12-23 15:29:31.303506,36
2021-12-23 15:29:31.303512,31
2021-12-23 15:29:31.303518,26
2021-12-23 15:29:31.303525,24
2021-12-23 15:29:31.303531,21
2021-12-23 15:29:31.303537,24
2021-12-23 15:29:31.617738,31
2021-12-23 15:29:31.617761,40
2021-12-23 15:29:31.617768,50
2021-12-23 15:29:31.617773,62
2021-12-23 15:29:31.617779,72
2021-12-23 15:29:31.617784,62
2021-12-23 15:29:31.617789,43
2021-12-23 15:29:31.617794,33
2021-12-23 15:29:31.617799,38
2021-12-23 15:29:31.617804,43
2021-12-23 15:29:31.617809,43
2021-12-23 15:29:31.617815,36
2021-12-23 15:29:31.617820,38
2021-12-23 15:29:31.617825,48
2021-12-23 15:29:31.617830,50
2021-12-23 15:29:31.617835,45
2021-12-23 15:29:31.617840,52
2021-12-23 15:29:31.617845,81
2021-12-23 15:29:31.617850,214
2021-12-23 15:29:31.617855,519
2021-12-23 15:29:31.617860,947
2021-12-23 15:29:31.617865,1113
2021-12-23 15:29:31.617870,456
2021-12-23 15:29:31.617875,-360
2021-12-23 15:29:31.617880,-230
2021-12-23 15:29:31.617885,139
2021-12-23 15:29:31.617891,-9
2021-12-23 15:29:31.617896,-103
2021-12-23 15:29:31.617901,19
2021-12-23 15:29:31.617906,7
2021-12-23 15:29:31.800913,-40
2021-12-23 15:29:31.800940,2
2021-12-23 15:29:31.800949,19
2021-12-23 15:29:31.800957,7
2021-12-23 15:29:31.800965,26
2021-12-23 15:29:31.800973,36
2021-12-23 15:29:31.800983,28
2021-12-23 15:29:31.800992,36
2021-12-23 15:29:31.801001,52
2021-12-23 15:29:31.801010,60
2021-12-23 15:29:31.801019,74
2021-12-23 15:29:31.801028,86
2021-12-23 15:29:31.801038,93
2021-12-23 15:29:31.801047,108
2021-12-23 15:29:31.801056,129
2021-12-23 15:29:31.801065,146
2021-12-23 15:29:31.801074,170
2021-12-23 15:29:31.801083,197
2021-12-23 15:29:31.801091,226
2021-12-23 15:29:31.801100,254
2021-12-23 15:29:31.801109,283
2021-12-23 15:29:31.801118,303
2021-12-23 15:29:31.801127,319
2021-12-23 15:29:31.801136,336
2021-12-23 15:29:31.801145,346
2021-12-23 15:29:31.801154,346
2021-12-23 15:29:31.801164,319
2021-12-23 15:29:31.801173,262
2021-12-23 15:29:31.801182,180
2021-12-23 15:29:31.801191,93
2021-12-23 15:29:32.023245,9
2021-12-23 15:29:32.023268,-52
2021-12-23 15:29:32.023275,-86
2021-12-23 15:29:32.023281,-105
2021-12-23 15:29:32.023286,-122
2021-12-23 15:29:32.023291,-122
2021-12-23 15:29:32.023297,-115
2021-12-23 15:29:32.023302,-108
2021-12-23 15:29:32.023307,-105
2021-12-23 15:29:32.023312,-103
2021-12-23 15:29:32.023317,-96
2021-12-23 15:29:32.023322,-88
2021-12-23 15:29:32.023327,-88
2021-12-23 15:29:32.023332,-79
2021-12-23 15:29:32.023337,-69
2021-12-23 15:29:32.023342,-67
2021-12-23 15:29:32.023348,-57
2021-12-23 15:29:32.023353,-40
2021-12-23 15:29:32.023358,-36
2021-12-23 15:29:32.023363,-33
2021-12-23 15:29:32.023368,-21
2021-12-23 15:29:32.023373,-14
2021-12-23 15:29:32.023378,-21
2021-12-23 15:29:32.023383,-24
2021-12-23 15:29:32.023388,-24
2021-12-23 15:29:32.023393,-21
2021-12-23 15:29:32.023398,-14
2021-12-23 15:29:32.023404,-9
2021-12-23 15:29:32.023409,-9
2021-12-23 15:29:32.023414,-2
2021-12-23 15:29:32.247461,4
2021-12-23 15:29:32.247475,-2
2021-12-23 15:29:32.247480,-12
2021-12-23 15:29:32.247484,-14
2021-12-23 15:29:32.247489,-16
2021-12-23 15:29:32.247494,-9
2021-12-23 15:29:32.247498,2
2021-12-23 15:29:32.247502,7
2021-12-23 15:29:32.247507,9
2021-12-23 15:29:32.247511,7
2021-12-23 15:29:32.247516,4
2021-12-23 15:29:32.247520,4
2021-12-23 15:29:32.247524,7
2021-12-23 15:29:32.247529,9
2021-12-23 15:29:32.247533,12
2021-12-23 15:29:32.247537,7
2021-12-23 15:29:32.247542,2
2021-12-23 15:29:32.247546,2
2021-12-23 15:29:32.247551,7
2021-12-23 15:29:32.247555,19
2021-12-23 15:29:32.247560,31
2021-12-23 15:29:32.247564,38
2021-12-23 15:29:32.247568,50
2021-12-23 15:29:32.247573,62
2021-12-23 15:29:32.247577,52
2021-12-23 15:29:32.247581,38
2021-12-23 15:29:32.247586,36
2021-12-23 15:29:32.247590,33
2021-12-23 15:29:32.247594,33
2021-12-23 15:29:32.247599,38
2021-12-23 15:29:32.473028,40
2021-12-23 15:29:32.473047,40
2021-12-23 15:29:32.473053,40
2021-12-23 15:29:32.473058,40
2021-12-23 15:29:32.473063,43
2021-12-23 15:29:32.473068,52
2021-12-23 15:29:32.473073,69
2021-12-23 15:29:32.473078,158
2021-12-23 15:29:32.473083,411
2021-12-23 15:29:32.473088,808
2021-12-23 15:29:32.473093,1094
2021-12-23 15:29:32.473098,663
2021-12-23 15:29:32.473103,-240
2021-12-23 15:29:32.473108,-370
2021-12-23 15:29:32.473113,62
2021-12-23 15:29:32.473118,38
2021-12-23 15:29:32.473123,-115
2021-12-23 15:29:32.473128,-12
2021-12-23 15:29:32.473134,28
2021-12-23 15:29:32.473139,-31
2021-12-23 15:29:32.473144,-12
2021-12-23 15:29:32.473149,21
2021-12-23 15:29:32.473154,14
2021-12-23 15:29:32.473162,21
2021-12-23 15:29:32.473168,43
2021-12-23 15:29:32.473173,45
2021-12-23 15:29:32.473178,48
2021-12-23 15:29:32.473182,62
2021-12-23 15:29:32.473187,74
2021-12-23 15:29:32.473192,81
2021-12-23 15:29:32.742890,98
2021-12-23 15:29:32.742912,113
2021-12-23 15:29:32.742919,125
2021-12-23 15:29:32.742926,139
2021-12-23 15:29:32.742931,161
2021-12-23 15:29:32.742943,182
2021-12-23 15:29:32.742949,206
2021-12-23 15:29:32.742953,233
2021-12-23 15:29:32.742959,257
2021-12-23 15:29:32.742964,281
2021-12-23 15:29:32.742969,305
2021-12-23 15:29:32.742974,324
2021-12-23 15:29:32.742979,336
2021-12-23 15:29:32.742984,341
2021-12-23 15:29:32.742989,339
2021-12-23 15:29:32.742994,315
2021-12-23 15:29:32.742999,257
2021-12-23 15:29:32.743004,180
2021-12-23 15:29:32.743009,96
2021-12-23 15:29:32.743014,16
2021-12-23 15:29:32.743019,-45
2021-12-23 15:29:32.743024,-84
2021-12-23 15:29:32.743029,-103
2021-12-23 15:29:32.743034,-108
2021-12-23 15:29:32.743039,-110
2021-12-23 15:29:32.743044,-108
2021-12-23 15:29:32.743049,-103
2021-12-23 15:29:32.743053,-96
2021-12-23 15:29:32.743058,-86
2021-12-23 15:29:32.743063,-79
2021-12-23 15:29:32.923313,-72
2021-12-23 15:29:32.923334,-67
2021-12-23 15:29:32.923342,-60
2021-12-23 15:29:32.923348,-52
2021-12-23 15:29:32.923355,-43
2021-12-23 15:29:32.923361,-36
2021-12-23 15:29:32.923367,-28
2021-12-23 15:29:32.923373,-24
2021-12-23 15:29:32.923379,-24
2021-12-23 15:29:32.923386,-24
2021-12-23 15:29:32.923392,-16
2021-12-23 15:29:32.923398,-12
2021-12-23 15:29:32.923404,-9
2021-12-23 15:29:32.923411,-9
2021-12-23 15:29:32.923417,-14
2021-12-23 15:29:32.923423,-12
2021-12-23 15:29:32.923429,-7
2021-12-23 15:29:32.923436,-7
2021-12-23 15:29:32.923442,-4
2021-12-23 15:29:32.923448,-4
2021-12-23 15:29:32.923454,-4
2021-12-23 15:29:32.923460,-2
2021-12-23 15:29:32.923466,4
2021-12-23 15:29:32.923473,4
2021-12-23 15:29:32.923479,4
2021-12-23 15:29:32.923485,9
2021-12-23 15:29:32.923491,12
2021-12-23 15:29:32.923498,16
2021-12-23 15:29:32.923504,21
2021-12-23 15:29:32.923510,24
2021-12-23 15:29:33.237472,26
2021-12-23 15:29:33.237487,26
2021-12-23 15:29:33.237492,28
2021-12-23 15:29:33.237497,31
2021-12-23 15:29:33.237501,31
2021-12-23 15:29:33.237506,28
2021-12-23 15:29:33.237510,31
2021-12-23 15:29:33.237514,31
2021-12-23 15:29:33.237519,33
2021-12-23 15:29:33.237523,33
2021-12-23 15:29:33.237528,28
2021-12-23 15:29:33.237532,21
2021-12-23 15:29:33.237536,16
2021-12-23 15:29:33.237541,16
2021-12-23 15:29:33.237545,28
2021-12-23 15:29:33.237550,38
2021-12-23 15:29:33.237554,45
2021-12-23 15:29:33.237559,57
2021-12-23 15:29:33.237563,62
2021-12-23 15:29:33.237568,57
2021-12-23 15:29:33.237572,45
2021-12-23 15:29:33.237576,36
2021-12-23 15:29:33.237580,33
2021-12-23 15:29:33.237585,38
2021-12-23 15:29:33.237589,38
2021-12-23 15:29:33.237594,38
2021-12-23 15:29:33.237598,40
2021-12-23 15:29:33.237602,43
2021-12-23 15:29:33.237607,45
2021-12-23 15:29:33.237611,48
2021-12-23 15:29:33.507722,52
2021-12-23 15:29:33.507743,69
2021-12-23 15:29:33.507750,192
2021-12-23 15:29:33.507756,488
2021-12-23 15:29:33.507761,921
2021-12-23 15:29:33.507766,1149
2021-12-23 15:29:33.507771,550
2021-12-23 15:29:33.507776,-327
2021-12-23 15:29:33.507781,-276
2021-12-23 15:29:33.507786,120
2021-12-23 15:29:33.507791,-4
2021-12-23 15:29:33.507796,-122
2021-12-23 15:29:33.507801,-2
2021-12-23 15:29:33.507806,2
2021-12-23 15:29:33.507811,-45
2021-12-23 15:29:33.507816,-7
2021-12-23 15:29:33.507821,12
2021-12-23 15:29:33.507826,-4
2021-12-23 15:29:33.507831,4
2021-12-23 15:29:33.507836,21
2021-12-23 15:29:33.507842,26
2021-12-23 15:29:33.507847,31
2021-12-23 15:29:33.507852,40
2021-12-23 15:29:33.507857,45
2021-12-23 15:29:33.507862,57
2021-12-23 15:29:33.507867,76
2021-12-23 15:29:33.507872,91
2021-12-23 15:29:33.507877,105
2021-12-23 15:29:33.507882,125
2021-12-23 15:29:33.507887,141
2021-12-23 15:29:33.688627,165
2021-12-23 15:29:33.688649,197
2021-12-23 15:29:33.688657,218
2021-12-23 15:29:33.688664,242
2021-12-23 15:29:33.688670,278
2021-12-23 15:29:33.688676,300
2021-12-23 15:29:33.688683,312
2021-12-23 15:29:33.688689,331
2021-12-23 15:29:33.688695,346
2021-12-23 15:29:33.688702,343
2021-12-23 15:29:33.688708,322
2021-12-23 15:29:33.688714,264
2021-12-23 15:29:33.688721,185
2021-12-23 15:29:33.688727,103
2021-12-23 15:29:33.688733,24
2021-12-23 15:29:33.688740,-38
2021-12-23 15:29:33.688746,-76
2021-12-23 15:29:33.688752,-98
2021-12-23 15:29:33.688758,-105
2021-12-23 15:29:33.688765,-103
2021-12-23 15:29:33.688771,-98
2021-12-23 15:29:33.688777,-96
2021-12-23 15:29:33.688784,-91
2021-12-23 15:29:33.688790,-91
2021-12-23 15:29:33.688796,-88
2021-12-23 15:29:33.688803,-79
2021-12-23 15:29:33.688809,-69
2021-12-23 15:29:33.688815,-62
2021-12-23 15:29:33.688821,-55
2021-12-23 15:29:33.688827,-50
2021-12-23 15:29:33.867425,-40
2021-12-23 15:29:33.867446,-33
2021-12-23 15:29:33.867453,-28
2021-12-23 15:29:33.867460,-24
2021-12-23 15:29:33.867466,-21
2021-12-23 15:29:33.867472,-14
2021-12-23 15:29:33.867479,-9
2021-12-23 15:29:33.867485,-4
2021-12-23 15:29:33.867491,-2
2021-12-23 15:29:33.867497,-2
2021-12-23 15:29:33.867504,-4
2021-12-23 15:29:33.867510,-7
2021-12-23 15:29:33.867516,-2
2021-12-23 15:29:33.867523,2
2021-12-23 15:29:33.867529,0
2021-12-23 15:29:33.867535,0
2021-12-23 15:29:33.867541,0
2021-12-23 15:29:33.867548,2
2021-12-23 15:29:33.867554,4
2021-12-23 15:29:33.867560,7
2021-12-23 15:29:33.867566,12
2021-12-23 15:29:33.867572,9
2021-12-23 15:29:33.867578,9
2021-12-23 15:29:33.867585,12
2021-12-23 15:29:33.867591,16
2021-12-23 15:29:33.867597,19
2021-12-23 15:29:33.867603,19
2021-12-23 15:29:33.867609,19
2021-12-23 15:29:33.867616,24
2021-12-23 15:29:33.867622,26
2021-12-23 15:29:34.182882,31
2021-12-23 15:29:34.182902,36
2021-12-23 15:29:34.182908,33
2021-12-23 15:29:34.182913,26
2021-12-23 15:29:34.182918,19
2021-12-23 15:29:34.182923,16
2021-12-23 15:29:34.182928,21
2021-12-23 15:29:34.182933,31
2021-12-23 15:29:34.182939,43
2021-12-23 15:29:34.182944,48
2021-12-23 15:29:34.182949,60
2021-12-23 15:29:34.182954,76
2021-12-23 15:29:34.182959,76
2021-12-23 15:29:34.182964,62
2021-12-23 15:29:34.182969,52
2021-12-23 15:29:34.182974,48
2021-12-23 15:29:34.182979,43
2021-12-23 15:29:34.182984,48
2021-12-23 15:29:34.182989,50
2021-12-23 15:29:34.182994,48
2021-12-23 15:29:34.182999,50
2021-12-23 15:29:34.183004,55
2021-12-23 15:29:34.183009,55
2021-12-23 15:29:34.183014,55
2021-12-23 15:29:34.183019,62
2021-12-23 15:29:34.183024,98
2021-12-23 15:29:34.183029,252
2021-12-23 15:29:34.183034,581
2021-12-23 15:29:34.183039,1012
2021-12-23 15:29:34.183044,1084
2021-12-23 15:29:34.318465,319
2021-12-23 15:29:34.318487,-401
2021-12-23 15:29:34.318494,-161
2021-12-23 15:29:34.318501,134
2021-12-23 15:29:34.318507,-52
2021-12-23 15:29:34.318513,-91
2021-12-23 15:29:34.318519,28
2021-12-23 15:29:34.318526,0
2021-12-23 15:29:34.318532,-33
2021-12-23 15:29:34.318538,7
2021-12-23 15:29:34.318545,16
2021-12-23 15:29:34.318551,7
2021-12-23 15:29:34.318557,21
2021-12-23 15:29:34.318563,36
2021-12-23 15:29:34.318570,33
2021-12-23 15:29:34.318576,38
2021-12-23 15:29:34.318582,50
2021-12-23 15:29:34.318588,62
2021-12-23 15:29:34.318594,72
2021-12-23 15:29:34.318601,81
2021-12-23 15:29:34.318607,91
2021-12-23 15:29:34.318613,103
2021-12-23 15:29:34.318620,122
2021-12-23 15:29:34.318626,146
2021-12-23 15:29:34.318632,170
2021-12-23 15:29:34.318638,199
2021-12-23 15:29:34.318645,228
2021-12-23 15:29:34.318651,254
2021-12-23 15:29:34.318657,281
2021-12-23 15:29:34.318663,307
2021-12-23 15:29:34.633401,322
2021-12-23 15:29:34.633447,334
2021-12-23 15:29:34.633458,343
2021-12-23 15:29:34.633468,336
2021-12-23 15:29:34.633478,303
2021-12-23 15:29:34.633488,247
2021-12-23 15:29:34.633498,170
2021-12-23 15:29:34.633507,84
2021-12-23 15:29:34.633517,0
2021-12-23 15:29:34.633527,-57
2021-12-23 15:29:34.633537,-84
2021-12-23 15:29:34.633547,-101
2021-12-23 15:29:34.633557,-108
2021-12-23 15:29:34.633567,-108
2021-12-23 15:29:34.633577,-103
2021-12-23 15:29:34.633586,-98
2021-12-23 15:29:34.633596,-91
2021-12-23 15:29:34.633611,-88
2021-12-23 15:29:34.633621,-86
2021-12-23 15:29:34.633630,-76
2021-12-23 15:29:34.633640,-69
2021-12-23 15:29:34.633650,-64
2021-12-23 15:29:34.633660,-57
2021-12-23 15:29:34.633670,-48
2021-12-23 15:29:34.633679,-38
2021-12-23 15:29:34.633689,-38
2021-12-23 15:29:34.633699,-38
2021-12-23 15:29:34.633709,-26
2021-12-23 15:29:34.633718,-16
2021-12-23 15:29:34.633728,-16
2021-12-23 15:29:34.767883,-14
2021-12-23 15:29:34.767904,-9
2021-12-23 15:29:34.767911,-7
2021-12-23 15:29:34.767918,-7
2021-12-23 15:29:34.767924,-9
2021-12-23 15:29:34.767930,-9
2021-12-23 15:29:34.767936,-7
2021-12-23 15:29:34.767942,-7
2021-12-23 15:29:34.767949,-9
2021-12-23 15:29:34.767955,-7
2021-12-23 15:29:34.767961,-2
2021-12-23 15:29:34.767967,0
2021-12-23 15:29:34.767973,2
2021-12-23 15:29:34.767980,4
2021-12-23 15:29:34.767986,4
2021-12-23 15:29:34.767992,7
2021-12-23 15:29:34.767998,12
2021-12-23 15:29:34.768004,14
2021-12-23 15:29:34.768011,16
2021-12-23 15:29:34.768017,19
2021-12-23 15:29:34.768023,24
2021-12-23 15:29:34.768029,26
2021-12-23 15:29:34.768035,31
2021-12-23 15:29:34.768042,31
2021-12-23 15:29:34.768048,26
2021-12-23 15:29:34.768054,19
2021-12-23 15:29:34.768060,21
2021-12-23 15:29:34.768066,26
2021-12-23 15:29:34.768072,24
2021-12-23 15:29:34.768078,16
2021-12-23 15:29:35.082837,19
2021-12-23 15:29:35.082865,24
2021-12-23 15:29:35.082872,31
2021-12-23 15:29:35.082879,40
2021-12-23 15:29:35.082886,55
2021-12-23 15:29:35.082892,69
2021-12-23 15:29:35.082899,72
2021-12-23 15:29:35.082905,57
2021-12-23 15:29:35.082912,48
2021-12-23 15:29:35.082918,50
2021-12-23 15:29:35.082925,45
2021-12-23 15:29:35.082932,40
2021-12-23 15:29:35.082938,40
2021-12-23 15:29:35.082945,45
2021-12-23 15:29:35.082951,45
2021-12-23 15:29:35.082958,45
2021-12-23 15:29:35.082965,48
2021-12-23 15:29:35.082971,48
2021-12-23 15:29:35.082978,50
2021-12-23 15:29:35.082984,69
2021-12-23 15:29:35.082991,170
2021-12-23 15:29:35.082997,430
2021-12-23 15:29:35.083003,846
2021-12-23 15:29:35.083010,1166
2021-12-23 15:29:35.083016,721
2021-12-23 15:29:35.083023,-218
2021-12-23 15:29:35.083029,-351
2021-12-23 15:29:35.083036,81
2021-12-23 15:29:35.083042,43
2021-12-23 15:29:35.083049,-122
2021-12-23 15:29:35.218805,-14
2021-12-23 15:29:35.218835,28
2021-12-23 15:29:35.218847,-28
2021-12-23 15:29:35.218857,-12
2021-12-23 15:29:35.218867,14
2021-12-23 15:29:35.218876,4
2021-12-23 15:29:35.218886,9
2021-12-23 15:29:35.218896,26
2021-12-23 15:29:35.218905,33
2021-12-23 15:29:35.218915,33
2021-12-23 15:29:35.218925,31
2021-12-23 15:29:35.218934,40
2021-12-23 15:29:35.218944,60
2021-12-23 15:29:35.218953,72
2021-12-23 15:29:35.218963,84
2021-12-23 15:29:35.218973,101
2021-12-23 15:29:35.218983,115
2021-12-23 15:29:35.218992,129
2021-12-23 15:29:35.219002,151
2021-12-23 15:29:35.219011,182
2021-12-23 15:29:35.219021,216
2021-12-23 15:29:35.219031,242
2021-12-23 15:29:35.219040,271
2021-12-23 15:29:35.219050,303
2021-12-23 15:29:35.219059,324
2021-12-23 15:29:35.219069,331
2021-12-23 15:29:35.219079,341
2021-12-23 15:29:35.219088,341
2021-12-23 15:29:35.219098,319
2021-12-23 15:29:35.219107,264
2021-12-23 15:29:35.488097,187
2021-12-23 15:29:35.488117,101
2021-12-23 15:29:35.488124,21
2021-12-23 15:29:35.488144,-40
2021-12-23 15:29:35.488149,-84
2021-12-23 15:29:35.488154,-113
2021-12-23 15:29:35.488159,-122
2021-12-23 15:29:35.488164,-120
2021-12-23 15:29:35.488169,-120
2021-12-23 15:29:35.488174,-117
2021-12-23 15:29:35.488179,-108
2021-12-23 15:29:35.488184,-105
2021-12-23 15:29:35.488189,-103
2021-12-23 15:29:35.488194,-93
2021-12-23 15:29:35.488199,-84
2021-12-23 15:29:35.488204,-76
2021-12-23 15:29:35.488209,-64
2021-12-23 15:29:35.488214,-57
2021-12-23 15:29:35.488219,-55
2021-12-23 15:29:35.488224,-48
2021-12-23 15:29:35.488229,-38
2021-12-23 15:29:35.488234,-31
2021-12-23 15:29:35.488239,-28
2021-12-23 15:29:35.488244,-19
2021-12-23 15:29:35.488249,-19
2021-12-23 15:29:35.488254,-21
2021-12-23 15:29:35.488259,-14
2021-12-23 15:29:35.488264,-7
2021-12-23 15:29:35.488269,-9
2021-12-23 15:29:35.488274,-12
2021-12-23 15:29:35.668827,-9
2021-12-23 15:29:35.668857,-7
2021-12-23 15:29:35.668868,-4
2021-12-23 15:29:35.668879,-4
2021-12-23 15:29:35.668889,-4
2021-12-23 15:29:35.668899,-4
2021-12-23 15:29:35.668909,2
2021-12-23 15:29:35.668918,7
2021-12-23 15:29:35.668928,7
2021-12-23 15:29:35.668938,7
2021-12-23 15:29:35.668948,9
2021-12-23 15:29:35.668958,12
2021-12-23 15:29:35.668968,14
2021-12-23 15:29:35.668977,19
2021-12-23 15:29:35.668987,19
2021-12-23 15:29:35.668997,14
2021-12-23 15:29:35.669007,12
2021-12-23 15:29:35.669017,14
2021-12-23 15:29:35.669026,21
2021-12-23 15:29:35.669037,21
2021-12-23 15:29:35.669047,16
2021-12-23 15:29:35.669057,9
2021-12-23 15:29:35.669066,9
2021-12-23 15:29:35.669076,14
2021-12-23 15:29:35.669086,19
2021-12-23 15:29:35.669096,31
2021-12-23 15:29:35.669106,50
2021-12-23 15:29:35.669115,64
2021-12-23 15:29:35.669125,67
2021-12-23 15:29:35.669135,57
2021-12-23 15:29:36.027023,50
2021-12-23 15:29:36.027044,45
2021-12-23 15:29:36.027052,38
2021-12-23 15:29:36.027058,31
2021-12-23 15:29:36.027065,31
2021-12-23 15:29:36.027071,33
2021-12-23 15:29:36.027077,36
2021-12-23 15:29:36.027084,40
2021-12-23 15:29:36.027090,43
2021-12-23 15:29:36.027096,40
2021-12-23 15:29:36.027103,45
2021-12-23 15:29:36.027109,60
2021-12-23 15:29:36.027115,153
2021-12-23 15:29:36.027122,418
2021-12-23 15:29:36.027128,832
2021-12-23 15:29:36.027134,1139
2021-12-23 15:29:36.027140,707
2021-12-23 15:29:36.027147,-218
2021-12-23 15:29:36.027153,-353
2021-12-23 15:29:36.027160,84
2021-12-23 15:29:36.027166,50
2021-12-23 15:29:36.027172,-115
2021-12-23 15:29:36.027179,-12
2021-12-23 15:29:36.027185,26
2021-12-23 15:29:36.027191,-31
2021-12-23 15:29:36.027198,-4
2021-12-23 15:29:36.027204,26
2021-12-23 15:29:36.027210,9
2021-12-23 15:29:36.027217,14
2021-12-23 15:29:36.027223,38
2021-12-23 15:29:36.432053,43
2021-12-23 15:29:36.432075,48
2021-12-23 15:29:36.432083,60
2021-12-23 15:29:36.432089,67
2021-12-23 15:29:36.432096,72
2021-12-23 15:29:36.432102,84
2021-12-23 15:29:36.432109,98
2021-12-23 15:29:36.432115,115
2021-12-23 15:29:36.432121,129
2021-12-23 15:29:36.432128,146
2021-12-23 15:29:36.432134,168
2021-12-23 15:29:36.432140,194
2021-12-23 15:29:36.432147,218
2021-12-23 15:29:36.432153,245
2021-12-23 15:29:36.432159,274
2021-12-23 15:29:36.432166,298
2021-12-23 15:29:36.432193,319
2021-12-23 15:29:36.432199,339
2021-12-23 15:29:36.432205,351
2021-12-23 15:29:36.432212,348
2021-12-23 15:29:36.432218,324
2021-12-23 15:29:36.432224,269
2021-12-23 15:29:36.432231,185
2021-12-23 15:29:36.432237,96
2021-12-23 15:29:36.432243,21
2021-12-23 15:29:36.432250,-38
2021-12-23 15:29:36.432256,-76
2021-12-23 15:29:36.432311,-96
2021-12-23 15:29:36.432330,-103
2021-12-23 15:29:36.432338,-101
2021-12-23 15:29:36.566879,-98
2021-12-23 15:29:36.566900,-93
2021-12-23 15:29:36.566907,-88
2021-12-23 15:29:36.566914,-84
2021-12-23 15:29:36.566920,-76
2021-12-23 15:29:36.566927,-72
2021-12-23 15:29:36.566933,-67
2021-12-23 15:29:36.566939,-62
2021-12-23 15:29:36.566945,-55
2021-12-23 15:29:36.566952,-50
2021-12-23 15:29:36.566958,-43
2021-12-23 15:29:36.566964,-33
2021-12-23 15:29:36.566971,-28
2021-12-23 15:29:36.566977,-21
2021-12-23 15:29:36.566984,-16
2021-12-23 15:29:36.566990,-12
2021-12-23 15:29:36.566996,-9
2021-12-23 15:29:36.567003,-4
2021-12-23 15:29:36.567009,2
2021-12-23 15:29:36.567015,0
2021-12-23 15:29:36.567022,-4
2021-12-23 15:29:36.567028,-2
2021-12-23 15:29:36.567034,0
2021-12-23 15:29:36.567040,0
2021-12-23 15:29:36.567047,4
2021-12-23 15:29:36.567053,9
2021-12-23 15:29:36.567060,9
2021-12-23 15:29:36.567066,14
2021-12-23 15:29:36.567072,19
2021-12-23 15:29:36.567079,24
2021-12-23 15:29:36.702737,24
2021-12-23 15:29:36.702757,19
2021-12-23 15:29:36.702765,9
2021-12-23 15:29:36.702771,12
2021-12-23 15:29:36.702777,21
2021-12-23 15:29:36.702784,26
2021-12-23 15:29:36.702790,28
2021-12-23 15:29:36.702796,33
2021-12-23 15:29:36.702802,31
2021-12-23 15:29:36.702809,31
2021-12-23 15:29:36.702815,33
2021-12-23 15:29:36.702821,36
2021-12-23 15:29:36.702828,38
2021-12-23 15:29:36.702834,38
2021-12-23 15:29:36.702840,38
2021-12-23 15:29:36.702847,38
2021-12-23 15:29:36.702853,40
2021-12-23 15:29:36.702859,36
2021-12-23 15:29:36.702865,28
2021-12-23 15:29:36.702872,26
2021-12-23 15:29:36.702878,31
2021-12-23 15:29:36.702884,38
2021-12-23 15:29:36.702890,40
2021-12-23 15:29:36.702897,50
2021-12-23 15:29:36.702903,79
2021-12-23 15:29:36.702909,96
2021-12-23 15:29:36.702916,76
2021-12-23 15:29:36.702922,43
2021-12-23 15:29:36.702928,40
2021-12-23 15:29:36.702934,50
2021-12-23 15:29:36.928277,45
2021-12-23 15:29:36.928298,43
2021-12-23 15:29:36.928305,45
2021-12-23 15:29:36.928312,40
2021-12-23 15:29:36.928318,40
2021-12-23 15:29:36.928324,45
2021-12-23 15:29:36.928330,48
2021-12-23 15:29:36.928337,50
2021-12-23 15:29:36.928343,79
2021-12-23 15:29:36.928349,230
2021-12-23 15:29:36.928356,555
2021-12-23 15:29:36.928362,990
2021-12-23 15:29:36.928368,1111
2021-12-23 15:29:36.928374,377
2021-12-23 15:29:36.928384,-404
2021-12-23 15:29:36.928391,-202
2021-12-23 15:29:36.928397,129
2021-12-23 15:29:36.928403,-50
2021-12-23 15:29:36.928410,-110
2021-12-23 15:29:36.928416,16
2021-12-23 15:29:36.928423,-4
2021-12-23 15:29:36.928429,-43
2021-12-23 15:29:36.928435,2
2021-12-23 15:29:36.928442,14
2021-12-23 15:29:36.928448,0
2021-12-23 15:29:36.928454,14
2021-12-23 15:29:36.928461,28
2021-12-23 15:29:36.928467,31
2021-12-23 15:29:36.928473,40
2021-12-23 15:29:36.928480,55
2021-12-23 15:29:37.108559,60
2021-12-23 15:29:37.108578,69
2021-12-23 15:29:37.108586,86
2021-12-23 15:29:37.108592,103
2021-12-23 15:29:37.108599,117
2021-12-23 15:29:37.108606,134
2021-12-23 15:29:37.108612,151
2021-12-23 15:29:37.108619,168
2021-12-23 15:29:37.108625,192
2021-12-23 15:29:37.108631,218
2021-12-23 15:29:37.108637,247
2021-12-23 15:29:37.108644,276
2021-12-23 15:29:37.108650,307
2021-12-23 15:29:37.108656,331
2021-12-23 15:29:37.108662,343
2021-12-23 15:29:37.108669,346
2021-12-23 15:29:37.108675,341
2021-12-23 15:29:37.108681,317
2021-12-23 15:29:37.108687,257
2021-12-23 15:29:37.108694,175
2021-12-23 15:29:37.108700,93
2021-12-23 15:29:37.108706,19
2021-12-23 15:29:37.108712,-38
2021-12-23 15:29:37.108718,-76
2021-12-23 15:29:37.108725,-96
2021-12-23 15:29:37.108731,-101
2021-12-23 15:29:37.108737,-98
2021-12-23 15:29:37.108743,-96
2021-12-23 15:29:37.108750,-93
2021-12-23 15:29:37.108756,-86
2021-12-23 15:29:37.287933,-81
2021-12-23 15:29:37.287955,-74
2021-12-23 15:29:37.287962,-72
2021-12-23 15:29:37.287968,-69
2021-12-23 15:29:37.287975,-64
2021-12-23 15:29:37.287981,-57
2021-12-23 15:29:37.287988,-50
2021-12-23 15:29:37.287994,-40
2021-12-23 15:29:37.288000,-33
2021-12-23 15:29:37.288006,-26
2021-12-23 15:29:37.288013,-21
2021-12-23 15:29:37.288019,-26
2021-12-23 15:29:37.288026,-26
2021-12-23 15:29:37.288032,-14
2021-12-23 15:29:37.288038,-9
2021-12-23 15:29:37.288045,-16
2021-12-23 15:29:37.288051,-16
2021-12-23 15:29:37.288057,-14
2021-12-23 15:29:37.288064,-24
2021-12-23 15:29:37.288070,-21
2021-12-23 15:29:37.288076,-4
2021-12-23 15:29:37.288082,4
2021-12-23 15:29:37.288089,0
2021-12-23 15:29:37.288095,0
2021-12-23 15:29:37.288101,4
2021-12-23 15:29:37.288108,7
2021-12-23 15:29:37.288114,7
2021-12-23 15:29:37.288120,7
2021-12-23 15:29:37.288127,9
2021-12-23 15:29:37.288133,14
2021-12-23 15:29:37.558380,19
2021-12-23 15:29:37.558411,21
2021-12-23 15:29:37.558422,24
2021-12-23 15:29:37.558432,24
2021-12-23 15:29:37.558442,26
2021-12-23 15:29:37.558452,26
2021-12-23 15:29:37.558462,28
2021-12-23 15:29:37.558471,31
2021-12-23 15:29:37.558481,31
2021-12-23 15:29:37.558491,31
2021-12-23 15:29:37.558501,28
2021-12-23 15:29:37.558510,28
2021-12-23 15:29:37.558520,33
2021-12-23 15:29:37.558530,36
2021-12-23 15:29:37.558540,36
2021-12-23 15:29:37.558549,36
2021-12-23 15:29:37.558559,33
2021-12-23 15:29:37.558569,24
2021-12-23 15:29:37.558578,24
2021-12-23 15:29:37.558588,28
2021-12-23 15:29:37.558597,38
2021-12-23 15:29:37.558607,45
2021-12-23 15:29:37.558617,48
2021-12-23 15:29:37.558626,60
2021-12-23 15:29:37.558636,79
2021-12-23 15:29:37.558645,79
2021-12-23 15:29:37.558655,64
2021-12-23 15:29:37.558665,60
2021-12-23 15:29:37.558674,57
2021-12-23 15:29:37.558684,48
2021-12-23 15:29:37.783810,52
2021-12-23 15:29:37.783841,57
2021-12-23 15:29:37.783852,57
2021-12-23 15:29:37.783862,57
2021-12-23 15:29:37.783872,57
2021-12-23 15:29:37.783882,60
2021-12-23 15:29:37.783891,67
2021-12-23 15:29:37.783901,69
2021-12-23 15:29:37.783911,110
2021-12-23 15:29:37.783920,295
2021-12-23 15:29:37.783930,656
2021-12-23 15:29:37.783940,1077
2021-12-23 15:29:37.783949,995
2021-12-23 15:29:37.783959,113
2021-12-23 15:29:37.783969,-432
2021-12-23 15:29:37.783979,-69
2021-12-23 15:29:37.783988,110
2021-12-23 15:29:37.783998,-105
2021-12-23 15:29:37.784008,-81
2021-12-23 15:29:37.784017,19
2021-12-23 15:29:37.784027,-31
2021-12-23 15:29:37.784037,-45
2021-12-23 15:29:37.784047,-2
2021-12-23 15:29:37.784056,-4
2021-12-23 15:29:37.784066,-7
2021-12-23 15:29:37.784075,16
2021-12-23 15:29:37.784085,26
2021-12-23 15:29:37.784095,21
2021-12-23 15:29:37.784105,26
2021-12-23 15:29:37.784114,38
2021-12-23 15:29:38.142021,48
2021-12-23 15:29:38.142052,57
2021-12-23 15:29:38.142064,64
2021-12-23 15:29:38.142074,72
2021-12-23 15:29:38.142084,84
2021-12-23 15:29:38.142094,101
2021-12-23 15:29:38.142104,125
2021-12-23 15:29:38.142113,156
2021-12-23 15:29:38.142123,185
2021-12-23 15:29:38.142133,206
2021-12-23 15:29:38.142142,230
2021-12-23 15:29:38.142152,266
2021-12-23 15:29:38.142162,295
2021-12-23 15:29:38.142172,312
2021-12-23 15:29:38.142181,327
2021-12-23 15:29:38.142191,327
2021-12-23 15:29:38.142201,315
2021-12-23 15:29:38.142210,288
2021-12-23 15:29:38.142220,233
2021-12-23 15:29:38.142229,153
2021-12-23 15:29:38.142239,69
2021-12-23 15:29:38.142253,-4
2021-12-23 15:29:38.142267,-57
2021-12-23 15:29:38.142277,-86
2021-12-23 15:29:38.142286,-98
2021-12-23 15:29:38.142296,-105
2021-12-23 15:29:38.142310,-105
2021-12-23 15:29:38.142320,-103
2021-12-23 15:29:38.142329,-98
2021-12-23 15:29:38.142339,-91
2021-12-23 15:29:38.278795,-84
2021-12-23 15:29:38.278825,-76
2021-12-23 15:29:38.278838,-72
2021-12-23 15:29:38.278848,-64
2021-12-23 15:29:38.278858,-57
2021-12-23 15:29:38.278867,-48
2021-12-23 15:29:38.278877,-40
2021-12-23 15:29:38.278886,-33
2021-12-23 15:29:38.278896,-26
2021-12-23 15:29:38.278905,-24
2021-12-23 15:29:38.278915,-19
2021-12-23 15:29:38.278925,-14
2021-12-23 15:29:38.278934,-9
2021-12-23 15:29:38.278944,0
2021-12-23 15:29:38.278954,-2
2021-12-23 15:29:38.278963,-7
2021-12-23 15:29:38.278973,0
2021-12-23 15:29:38.278982,2
2021-12-23 15:29:38.278992,-9
2021-12-23 15:29:38.279002,-7
2021-12-23 15:29:38.279011,-7
2021-12-23 15:29:38.279021,-9
2021-12-23 15:29:38.279030,-7
2021-12-23 15:29:38.279040,-4
2021-12-23 15:29:38.279049,-7
2021-12-23 15:29:38.279059,-4
2021-12-23 15:29:38.279068,-4
2021-12-23 15:29:38.279078,-4
2021-12-23 15:29:38.279088,2
2021-12-23 15:29:38.279097,7
2021-12-23 15:29:38.503402,9
2021-12-23 15:29:38.503432,7
2021-12-23 15:29:38.503443,7
2021-12-23 15:29:38.503453,12
2021-12-23 15:29:38.503463,12
2021-12-23 15:29:38.503473,12
2021-12-23 15:29:38.503483,16
2021-12-23 15:29:38.503492,19
2021-12-23 15:29:38.503502,24
2021-12-23 15:29:38.503511,21
2021-12-23 15:29:38.503522,21
2021-12-23 15:29:38.503531,28
2021-12-23 15:29:38.503541,33
2021-12-23 15:29:38.503551,26
2021-12-23 15:29:38.503561,26
2021-12-23 15:29:38.503571,36
2021-12-23 15:29:38.503580,38
2021-12-23 15:29:38.503590,31
2021-12-23 15:29:38.503600,28
2021-12-23 15:29:38.503609,28
2021-12-23 15:29:38.503619,33
2021-12-23 15:29:38.503629,43
2021-12-23 15:29:38.503638,50
2021-12-23 15:29:38.503648,60
2021-12-23 15:29:38.503658,81
2021-12-23 15:29:38.503668,88
2021-12-23 15:29:38.503677,74
2021-12-23 15:29:38.503687,64
2021-12-23 15:29:38.503697,64
2021-12-23 15:29:38.503706,62
2021-12-23 15:29:38.683656,67
2021-12-23 15:29:38.683686,69
2021-12-23 15:29:38.683697,64
2021-12-23 15:29:38.683707,62
2021-12-23 15:29:38.683717,67
2021-12-23 15:29:38.683727,69
2021-12-23 15:29:38.683736,69
2021-12-23 15:29:38.683746,72
2021-12-23 15:29:38.683756,86
2021-12-23 15:29:38.683766,182
2021-12-23 15:29:38.683776,432
2021-12-23 15:29:38.683785,817
2021-12-23 15:29:38.683795,1098
2021-12-23 15:29:38.683805,666
2021-12-23 15:29:38.683815,-209
2021-12-23 15:29:38.683825,-300
2021-12-23 15:29:38.683835,120
2021-12-23 15:29:38.683844,62
2021-12-23 15:29:38.683854,-98
2021-12-23 15:29:38.683864,4
2021-12-23 15:29:38.683874,36
2021-12-23 15:29:38.683883,-26
2021-12-23 15:29:38.683893,2
2021-12-23 15:29:38.683903,33
2021-12-23 15:29:38.683912,14
2021-12-23 15:29:38.683922,16
2021-12-23 15:29:38.683932,31
2021-12-23 15:29:38.683942,28
2021-12-23 15:29:38.683951,36
2021-12-23 15:29:38.683961,48
2021-12-23 15:29:38.908341,52
2021-12-23 15:29:38.908362,57
2021-12-23 15:29:38.908369,67
2021-12-23 15:29:38.908376,81
2021-12-23 15:29:38.908382,98
2021-12-23 15:29:38.908388,120
2021-12-23 15:29:38.908395,141
2021-12-23 15:29:38.908401,161
2021-12-23 15:29:38.908407,180
2021-12-23 15:29:38.908413,204
2021-12-23 15:29:38.908420,235
2021-12-23 15:29:38.908426,269
2021-12-23 15:29:38.908432,295
2021-12-23 15:29:38.908439,315
2021-12-23 15:29:38.908445,334
2021-12-23 15:29:38.908451,346
2021-12-23 15:29:38.908457,346
2021-12-23 15:29:38.908464,331
2021-12-23 15:29:38.908470,290
2021-12-23 15:29:38.908476,223
2021-12-23 15:29:38.908482,144
2021-12-23 15:29:38.908489,64
2021-12-23 15:29:38.908495,-2
2021-12-23 15:29:38.908501,-45
2021-12-23 15:29:38.908507,-69
2021-12-23 15:29:38.908514,-81
2021-12-23 15:29:38.908520,-84
2021-12-23 15:29:38.908526,-81
2021-12-23 15:29:38.908532,-81
2021-12-23 15:29:38.908539,-84
2021-12-23 15:29:39.133191,-76
2021-12-23 15:29:39.133220,-69
2021-12-23 15:29:39.133232,-64
2021-12-23 15:29:39.133242,-57
2021-12-23 15:29:39.133252,-52
2021-12-23 15:29:39.133261,-50
2021-12-23 15:29:39.133271,-45
2021-12-23 15:29:39.133281,-40
2021-12-23 15:29:39.133290,-33
2021-12-23 15:29:39.133300,-28
2021-12-23 15:29:39.133310,-24
2021-12-23 15:29:39.133319,-24
2021-12-23 15:29:39.133329,-24
2021-12-23 15:29:39.133339,-21
2021-12-23 15:29:39.133350,-21
2021-12-23 15:29:39.133360,-19
2021-12-23 15:29:39.133370,-9
2021-12-23 15:29:39.133380,0
2021-12-23 15:29:39.133389,0
2021-12-23 15:29:39.133399,-2
2021-12-23 15:29:39.133409,9
2021-12-23 15:29:39.133419,21
2021-12-23 15:29:39.133428,9
2021-12-23 15:29:39.133438,2
2021-12-23 15:29:39.133448,14
2021-12-23 15:29:39.133458,16
2021-12-23 15:29:39.133467,9
2021-12-23 15:29:39.133477,14
2021-12-23 15:29:39.133487,21
2021-12-23 15:29:39.133497,19
2021-12-23 15:29:39.403408,12
2021-12-23 15:29:39.403444,4
2021-12-23 15:29:39.403450,12
2021-12-23 15:29:39.403455,16
2021-12-23 15:29:39.403460,14
2021-12-23 15:29:39.403465,14
2021-12-23 15:29:39.403470,19
2021-12-23 15:29:39.403475,21
2021-12-23 15:29:39.403480,24
2021-12-23 15:29:39.403486,24
2021-12-23 15:29:39.403491,21
2021-12-23 15:29:39.403496,19
2021-12-23 15:29:39.403501,24
2021-12-23 15:29:39.403506,26
2021-12-23 15:29:39.403511,26
2021-12-23 15:29:39.403516,26
2021-12-23 15:29:39.403521,26
2021-12-23 15:29:39.403526,24
2021-12-23 15:29:39.403531,21
2021-12-23 15:29:39.403540,19
2021-12-23 15:29:39.403545,19
2021-12-23 15:29:39.403550,28
2021-12-23 15:29:39.403556,40
2021-12-23 15:29:39.403561,48
2021-12-23 15:29:39.403566,67
2021-12-23 15:29:39.403571,76
2021-12-23 15:29:39.403576,64
2021-12-23 15:29:39.403581,45
2021-12-23 15:29:39.403586,38
2021-12-23 15:29:39.403591,36
2021-12-23 15:29:39.628358,38
2021-12-23 15:29:39.628380,36
2021-12-23 15:29:39.628387,31
2021-12-23 15:29:39.628394,31
2021-12-23 15:29:39.628400,33
2021-12-23 15:29:39.628406,43
2021-12-23 15:29:39.628412,52
2021-12-23 15:29:39.628419,57
2021-12-23 15:29:39.628425,64
2021-12-23 15:29:39.628431,134
2021-12-23 15:29:39.628438,360
2021-12-23 15:29:39.628444,752
2021-12-23 15:29:39.628450,1106
2021-12-23 15:29:39.628457,800
2021-12-23 15:29:39.628463,-120
2021-12-23 15:29:39.628470,-401
2021-12-23 15:29:39.628476,24
2021-12-23 15:29:39.628482,62
2021-12-23 15:29:39.628489,-127
2021-12-23 15:29:39.628495,-45
2021-12-23 15:29:39.628501,19
2021-12-23 15:29:39.628507,-40
2021-12-23 15:29:39.628514,-31
2021-12-23 15:29:39.628520,4
2021-12-23 15:29:39.628526,-4
2021-12-23 15:29:39.628532,-4
2021-12-23 15:29:39.628539,12
2021-12-23 15:29:39.628545,16
2021-12-23 15:29:39.628552,21
2021-12-23 15:29:39.628558,36
2021-12-23 15:29:39.943341,48
2021-12-23 15:29:39.943371,55
2021-12-23 15:29:39.943383,62
2021-12-23 15:29:39.943393,62
2021-12-23 15:29:39.943403,72
2021-12-23 15:29:39.943412,101
2021-12-23 15:29:39.943422,122
2021-12-23 15:29:39.943431,141
2021-12-23 15:29:39.943441,170
2021-12-23 15:29:39.943450,197
2021-12-23 15:29:39.943460,223
2021-12-23 15:29:39.943470,259
2021-12-23 15:29:39.943480,295
2021-12-23 15:29:39.943489,315
2021-12-23 15:29:39.943499,331
2021-12-23 15:29:39.943508,346
2021-12-23 15:29:39.943518,341
2021-12-23 15:29:39.943528,319
2021-12-23 15:29:39.943537,290
2021-12-23 15:29:39.943547,238
2021-12-23 15:29:39.943557,168
2021-12-23 15:29:39.943566,93
2021-12-23 15:29:39.943576,16
2021-12-23 15:29:39.943585,-40
2021-12-23 15:29:39.943595,-69
2021-12-23 15:29:39.943605,-84
2021-12-23 15:29:39.943615,-93
2021-12-23 15:29:39.943624,-96
2021-12-23 15:29:39.943634,-93
2021-12-23 15:29:39.943643,-84
2021-12-23 15:29:40.168120,-74
2021-12-23 15:29:40.168156,-72
2021-12-23 15:29:40.168168,-67
2021-12-23 15:29:40.168178,-60
2021-12-23 15:29:40.168188,-52
2021-12-23 15:29:40.168198,-40
2021-12-23 15:29:40.168207,-33
2021-12-23 15:29:40.168217,-36
2021-12-23 15:29:40.168227,-33
2021-12-23 15:29:40.168237,-24
2021-12-23 15:29:40.168246,-21
2021-12-23 15:29:40.168256,-21
2021-12-23 15:29:40.168266,-14
2021-12-23 15:29:40.168276,-9
2021-12-23 15:29:40.168286,-16
2021-12-23 15:29:40.168296,-14
2021-12-23 15:29:40.168306,-4
2021-12-23 15:29:40.168316,0
2021-12-23 15:29:40.168325,-2
2021-12-23 15:29:40.168335,-4
2021-12-23 15:29:40.168345,-4
2021-12-23 15:29:40.168354,-4
2021-12-23 15:29:40.168364,-4
2021-12-23 15:29:40.168374,4
2021-12-23 15:29:40.168383,4
2021-12-23 15:29:40.168393,-2
2021-12-23 15:29:40.168403,-2
2021-12-23 15:29:40.168413,2
2021-12-23 15:29:40.168422,4
2021-12-23 15:29:40.168432,4
2021-12-23 15:29:40.348792,7
2021-12-23 15:29:40.348822,14
2021-12-23 15:29:40.348833,16
2021-12-23 15:29:40.348843,9
2021-12-23 15:29:40.348852,16
2021-12-23 15:29:40.348862,36
2021-12-23 15:29:40.348872,31
2021-12-23 15:29:40.348881,14
2021-12-23 15:29:40.348891,4
2021-12-23 15:29:40.348901,4
2021-12-23 15:29:40.348910,9
2021-12-23 15:29:40.348920,19
2021-12-23 15:29:40.348930,28
2021-12-23 15:29:40.348939,38
2021-12-23 15:29:40.348949,50
2021-12-23 15:29:40.348959,48
2021-12-23 15:29:40.348969,36
2021-12-23 15:29:40.348978,26
2021-12-23 15:29:40.348988,26
2021-12-23 15:29:40.348998,31
2021-12-23 15:29:40.349008,21
2021-12-23 15:29:40.349018,9
2021-12-23 15:29:40.349027,12
2021-12-23 15:29:40.349037,28
2021-12-23 15:29:40.349047,36
2021-12-23 15:29:40.349056,31
2021-12-23 15:29:40.349066,38
2021-12-23 15:29:40.349076,55
2021-12-23 15:29:40.349086,108
2021-12-23 15:29:40.349095,298
2021-12-23 15:29:40.528331,649
2021-12-23 15:29:40.528352,1012
2021-12-23 15:29:40.528360,848
2021-12-23 15:29:40.528366,-7
2021-12-23 15:29:40.528373,-447
2021-12-23 15:29:40.528379,-62
2021-12-23 15:29:40.528385,96
2021-12-23 15:29:40.528392,-98
2021-12-23 15:29:40.528398,-64
2021-12-23 15:29:40.528404,24
2021-12-23 15:29:40.528411,-28
2021-12-23 15:29:40.528417,-33
2021-12-23 15:29:40.528423,14
2021-12-23 15:29:40.528430,12
2021-12-23 15:29:40.528436,0
2021-12-23 15:29:40.528442,14
2021-12-23 15:29:40.528449,24
2021-12-23 15:29:40.528455,26
2021-12-23 15:29:40.528461,28
2021-12-23 15:29:40.528468,33
2021-12-23 15:29:40.528474,45
2021-12-23 15:29:40.528480,60
2021-12-23 15:29:40.528486,72
2021-12-23 15:29:40.528493,88
2021-12-23 15:29:40.528499,105
2021-12-23 15:29:40.528505,122
2021-12-23 15:29:40.528511,144
2021-12-23 15:29:40.528518,170
2021-12-23 15:29:40.528524,202
2021-12-23 15:29:40.528530,233
2021-12-23 15:29:40.753734,264
2021-12-23 15:29:40.753755,290
2021-12-23 15:29:40.753762,315
2021-12-23 15:29:40.753769,341
2021-12-23 15:29:40.753775,360
2021-12-23 15:29:40.753781,348
2021-12-23 15:29:40.753787,334
2021-12-23 15:29:40.753794,317
2021-12-23 15:29:40.753800,226
2021-12-23 15:29:40.753806,96
2021-12-23 15:29:40.753813,14
2021-12-23 15:29:40.753819,-38
2021-12-23 15:29:40.753826,-84
2021-12-23 15:29:40.753832,-93
2021-12-23 15:29:40.753838,-86
2021-12-23 15:29:40.753844,-113
2021-12-23 15:29:40.753851,-151
2021-12-23 15:29:40.753857,-144
2021-12-23 15:29:40.753863,-137
2021-12-23 15:29:40.753870,-149
2021-12-23 15:29:40.753876,-125
2021-12-23 15:29:40.753882,-96
2021-12-23 15:29:40.753888,-93
2021-12-23 15:29:40.753894,-86
2021-12-23 15:29:40.753901,-74
2021-12-23 15:29:40.753907,-67
2021-12-23 15:29:40.753913,-48
2021-12-23 15:29:40.753920,-19
2021-12-23 15:29:40.753926,-9
2021-12-23 15:29:40.753932,-24
2021-12-23 15:29:40.978781,-28
2021-12-23 15:29:40.978812,-31
2021-12-23 15:29:40.978823,-36
2021-12-23 15:29:40.978833,-40
2021-12-23 15:29:40.978842,-33
2021-12-23 15:29:40.978852,-26
2021-12-23 15:29:40.978862,-26
2021-12-23 15:29:40.978871,-21
2021-12-23 15:29:40.978881,-19
2021-12-23 15:29:40.978890,-14
2021-12-23 15:29:40.978900,-14
2021-12-23 15:29:40.978910,-19
2021-12-23 15:29:40.978919,-19
2021-12-23 15:29:40.978929,-9
2021-12-23 15:29:40.978939,-2
2021-12-23 15:29:40.978948,-9
2021-12-23 15:29:40.978958,-16
2021-12-23 15:29:40.978967,-9
2021-12-23 15:29:40.978977,-4
2021-12-23 15:29:40.978987,-14
2021-12-23 15:29:40.978996,-14
2021-12-23 15:29:40.979006,-4
2021-12-23 15:29:40.979016,-2
2021-12-23 15:29:40.979025,-2
2021-12-23 15:29:40.979035,-2
2021-12-23 15:29:40.979044,0
2021-12-23 15:29:40.979054,0
2021-12-23 15:29:40.979064,-2
2021-12-23 15:29:40.979073,-4
2021-12-23 15:29:40.979083,-7
2021-12-23 15:29:41.203681,-7
2021-12-23 15:29:41.203711,2
2021-12-23 15:29:41.203723,16
2021-12-23 15:29:41.203733,26
2021-12-23 15:29:41.203742,31
2021-12-23 15:29:41.203752,33
2021-12-23 15:29:41.203762,26
2021-12-23 15:29:41.203771,14
2021-12-23 15:29:41.203781,4
2021-12-23 15:29:41.203791,-4
2021-12-23 15:29:41.203801,-4
2021-12-23 15:29:41.203810,4
2021-12-23 15:29:41.203820,4
2021-12-23 15:29:41.203830,-2
2021-12-23 15:29:41.203840,0
2021-12-23 15:29:41.203850,4
2021-12-23 15:29:41.203860,7
2021-12-23 15:29:41.203870,9
2021-12-23 15:29:41.203880,14
2021-12-23 15:29:41.203889,101
2021-12-23 15:29:41.203899,348
2021-12-23 15:29:41.203909,738
2021-12-23 15:29:41.203919,1036
2021-12-23 15:29:41.203928,632
2021-12-23 15:29:41.203938,-262
2021-12-23 15:29:41.203948,-408
2021-12-23 15:29:41.203958,12
2021-12-23 15:29:41.203967,-14
2021-12-23 15:29:41.203977,-170
2021-12-23 15:29:41.203987,-64
2021-12-23 15:29:41.428037,-24
2021-12-23 15:29:41.428059,-76
2021-12-23 15:29:41.428067,-48
2021-12-23 15:29:41.428073,-16
2021-12-23 15:29:41.428080,-33
2021-12-23 15:29:41.428086,-28
2021-12-23 15:29:41.428092,-9
2021-12-23 15:29:41.428099,-2
2021-12-23 15:29:41.428105,9
2021-12-23 15:29:41.428112,19
2021-12-23 15:29:41.428118,24
2021-12-23 15:29:41.428124,33
2021-12-23 15:29:41.428131,45
2021-12-23 15:29:41.428137,57
2021-12-23 15:29:41.428143,72
2021-12-23 15:29:41.428150,81
2021-12-23 15:29:41.428156,98
2021-12-23 15:29:41.428162,129
2021-12-23 15:29:41.428168,158
2021-12-23 15:29:41.428175,180
2021-12-23 15:29:41.428181,209
2021-12-23 15:29:41.428187,240
2021-12-23 15:29:41.428194,264
2021-12-23 15:29:41.428200,286
2021-12-23 15:29:41.428206,319
2021-12-23 15:29:41.428213,343
2021-12-23 15:29:41.428219,341
2021-12-23 15:29:41.428225,317
2021-12-23 15:29:41.428232,266
2021-12-23 15:29:41.428238,189
2021-12-23 15:29:41.698054,115
2021-12-23 15:29:41.698077,50
2021-12-23 15:29:41.698085,-24
2021-12-23 15:29:41.698091,-86
2021-12-23 15:29:41.698098,-101
2021-12-23 15:29:41.698104,-101
2021-12-23 15:29:41.698110,-108
2021-12-23 15:29:41.698117,-108
2021-12-23 15:29:41.698123,-93
2021-12-23 15:29:41.698129,-86
2021-12-23 15:29:41.698135,-91
2021-12-23 15:29:41.698142,-86
2021-12-23 15:29:41.698148,-74
2021-12-23 15:29:41.698154,-69
2021-12-23 15:29:41.698161,-62
2021-12-23 15:29:41.698167,-52
2021-12-23 15:29:41.698173,-45
2021-12-23 15:29:41.698180,-31
2021-12-23 15:29:41.698186,-26
2021-12-23 15:29:41.698192,-31
2021-12-23 15:29:41.698199,-21
2021-12-23 15:29:41.698205,-9
2021-12-23 15:29:41.698211,-9
2021-12-23 15:29:41.698218,-4
2021-12-23 15:29:41.698224,-2
2021-12-23 15:29:41.698230,-7
2021-12-23 15:29:41.698237,-7
2021-12-23 15:29:41.698243,-4
2021-12-23 15:29:41.698249,-2
2021-12-23 15:29:41.698256,-2
2021-12-23 15:29:41.923459,0
2021-12-23 15:29:41.923481,4
2021-12-23 15:29:41.923489,2
2021-12-23 15:29:41.923495,-2
2021-12-23 15:29:41.923502,2
2021-12-23 15:29:41.923508,9
2021-12-23 15:29:41.923515,9
2021-12-23 15:29:41.923521,2
2021-12-23 15:29:41.923527,2
2021-12-23 15:29:41.923534,16
2021-12-23 15:29:41.923540,12
2021-12-23 15:29:41.923547,4
2021-12-23 15:29:41.923553,26
2021-12-23 15:29:41.923560,38
2021-12-23 15:29:41.923566,24
2021-12-23 15:29:41.923572,26
2021-12-23 15:29:41.923578,45
2021-12-23 15:29:41.923585,57
2021-12-23 15:29:41.923591,52
2021-12-23 15:29:41.923597,40
2021-12-23 15:29:41.923604,36
2021-12-23 15:29:41.923610,33
2021-12-23 15:29:41.923616,36
2021-12-23 15:29:41.923623,40
2021-12-23 15:29:41.923629,40
2021-12-23 15:29:41.923635,40
2021-12-23 15:29:41.923641,40
2021-12-23 15:29:41.923648,45
2021-12-23 15:29:41.923654,52
2021-12-23 15:29:41.923660,64
2021-12-23 15:29:42.192139,74
2021-12-23 15:29:42.192158,151
2021-12-23 15:29:42.192166,396
2021-12-23 15:29:42.192174,795
2021-12-23 15:29:42.192181,1106
2021-12-23 15:29:42.192188,733
2021-12-23 15:29:42.192194,-170
2021-12-23 15:29:42.192200,-379
2021-12-23 15:29:42.192207,40
2021-12-23 15:29:42.192213,60
2021-12-23 15:29:42.192219,-103
2021-12-23 15:29:42.192226,-16
2021-12-23 15:29:42.192232,33
2021-12-23 15:29:42.192238,-21
2021-12-23 15:29:42.192244,-7
2021-12-23 15:29:42.192251,26
2021-12-23 15:29:42.192257,19
2021-12-23 15:29:42.192263,24
2021-12-23 15:29:42.192270,40
2021-12-23 15:29:42.192276,43
2021-12-23 15:29:42.192282,48
2021-12-23 15:29:42.192289,57
2021-12-23 15:29:42.192295,69
2021-12-23 15:29:42.192301,81
2021-12-23 15:29:42.192307,93
2021-12-23 15:29:42.192314,105
2021-12-23 15:29:42.192320,113
2021-12-23 15:29:42.192326,122
2021-12-23 15:29:42.192332,137
2021-12-23 15:29:42.192338,165
2021-12-23 15:29:42.373557,206
2021-12-23 15:29:42.373588,235
2021-12-23 15:29:42.373599,259
2021-12-23 15:29:42.373610,290
2021-12-23 15:29:42.373619,317
2021-12-23 15:29:42.373634,339
2021-12-23 15:29:42.373645,358
2021-12-23 15:29:42.373654,363
2021-12-23 15:29:42.373664,353
2021-12-23 15:29:42.373674,319
2021-12-23 15:29:42.373684,262
2021-12-23 15:29:42.373693,180
2021-12-23 15:29:42.373703,84
2021-12-23 15:29:42.373713,-2
2021-12-23 15:29:42.373723,-62
2021-12-23 15:29:42.373733,-98
2021-12-23 15:29:42.373743,-117
2021-12-23 15:29:42.373753,-122
2021-12-23 15:29:42.373762,-122
2021-12-23 15:29:42.373772,-120
2021-12-23 15:29:42.373781,-115
2021-12-23 15:29:42.373791,-113
2021-12-23 15:29:42.373800,-108
2021-12-23 15:29:42.373810,-101
2021-12-23 15:29:42.373820,-93
2021-12-23 15:29:42.373829,-86
2021-12-23 15:29:42.373839,-76
2021-12-23 15:29:42.373849,-69
2021-12-23 15:29:42.373858,-62
2021-12-23 15:29:42.373868,-52
2021-12-23 15:29:42.733846,-45
2021-12-23 15:29:42.733876,-33
2021-12-23 15:29:42.733887,-26
2021-12-23 15:29:42.733897,-24
2021-12-23 15:29:42.733907,-19
2021-12-23 15:29:42.733916,-14
2021-12-23 15:29:42.733926,-14
2021-12-23 15:29:42.733935,-14
2021-12-23 15:29:42.733945,-9
2021-12-23 15:29:42.733955,-7
2021-12-23 15:29:42.733964,-7
2021-12-23 15:29:42.733974,-4
2021-12-23 15:29:42.733984,-7
2021-12-23 15:29:42.733993,-4
2021-12-23 15:29:42.734003,-2
2021-12-23 15:29:42.734013,-2
2021-12-23 15:29:42.734022,-2
2021-12-23 15:29:42.734032,2
2021-12-23 15:29:42.734041,7
2021-12-23 15:29:42.734051,9
2021-12-23 15:29:42.734061,14
2021-12-23 15:29:42.734071,16
2021-12-23 15:29:42.734080,16
2021-12-23 15:29:42.734090,16
2021-12-23 15:29:42.734099,14
2021-12-23 15:29:42.734109,2
2021-12-23 15:29:42.734119,-7
2021-12-23 15:29:42.734129,-2
2021-12-23 15:29:42.734138,9
2021-12-23 15:29:42.734148,19
2021-12-23 15:29:42.913587,28
2021-12-23 15:29:42.913617,38
2021-12-23 15:29:42.913629,48
2021-12-23 15:29:42.913639,62
2021-12-23 15:29:42.913649,62
2021-12-23 15:29:42.913659,45
2021-12-23 15:29:42.913669,31
2021-12-23 15:29:42.913678,24
2021-12-23 15:29:42.913688,19
2021-12-23 15:29:42.913698,19
2021-12-23 15:29:42.913707,21
2021-12-23 15:29:42.913717,19
2021-12-23 15:29:42.913727,21
2021-12-23 15:29:42.913737,26
2021-12-23 15:29:42.913746,26
2021-12-23 15:29:42.913756,28
2021-12-23 15:29:42.913766,33
2021-12-23 15:29:42.913775,88
2021-12-23 15:29:42.913785,300
2021-12-23 15:29:42.913795,692
2021-12-23 15:29:42.913804,1111
2021-12-23 15:29:42.913814,961
2021-12-23 15:29:42.913824,36
2021-12-23 15:29:42.913834,-440
2021-12-23 15:29:42.913843,-36
2021-12-23 15:29:42.913853,105
2021-12-23 15:29:42.913863,-108
2021-12-23 15:29:42.913873,-60
2021-12-23 15:29:42.913882,33
2021-12-23 15:29:42.913892,-24
2021-12-23 15:29:43.093332,-24
2021-12-23 15:29:43.093362,24
2021-12-23 15:29:43.093374,14
2021-12-23 15:29:43.093384,9
2021-12-23 15:29:43.093407,28
2021-12-23 15:29:43.093414,33
2021-12-23 15:29:43.093420,36
2021-12-23 15:29:43.093426,50
2021-12-23 15:29:43.093433,62
2021-12-23 15:29:43.093439,72
2021-12-23 15:29:43.093446,86
2021-12-23 15:29:43.093452,101
2021-12-23 15:29:43.093458,120
2021-12-23 15:29:43.093465,129
2021-12-23 15:29:43.093471,137
2021-12-23 15:29:43.093477,161
2021-12-23 15:29:43.093484,194
2021-12-23 15:29:43.093490,218
2021-12-23 15:29:43.093497,252
2021-12-23 15:29:43.093503,290
2021-12-23 15:29:43.093509,319
2021-12-23 15:29:43.093516,343
2021-12-23 15:29:43.093522,358
2021-12-23 15:29:43.093529,358
2021-12-23 15:29:43.093535,358
2021-12-23 15:29:43.093542,341
2021-12-23 15:29:43.093548,290
2021-12-23 15:29:43.093554,214
2021-12-23 15:29:43.093561,129
2021-12-23 15:29:43.093567,48
2021-12-23 15:29:43.273380,-14
2021-12-23 15:29:43.273410,-52
2021-12-23 15:29:43.273422,-74
2021-12-23 15:29:43.273432,-88
2021-12-23 15:29:43.273442,-93
2021-12-23 15:29:43.273451,-86
2021-12-23 15:29:43.273461,-79
2021-12-23 15:29:43.273471,-74
2021-12-23 15:29:43.273480,-69
2021-12-23 15:29:43.273489,-64
2021-12-23 15:29:43.273499,-64
2021-12-23 15:29:43.273509,-60
2021-12-23 15:29:43.273518,-55
2021-12-23 15:29:43.273528,-57
2021-12-23 15:29:43.273537,-52
2021-12-23 15:29:43.273547,-45
2021-12-23 15:29:43.273556,-45
2021-12-23 15:29:43.273566,-43
2021-12-23 15:29:43.273575,-31
2021-12-23 15:29:43.273584,-26
2021-12-23 15:29:43.273594,-21
2021-12-23 15:29:43.273604,-21
2021-12-23 15:29:43.273613,-19
2021-12-23 15:29:43.273623,-12
2021-12-23 15:29:43.273632,-9
2021-12-23 15:29:43.273642,-7
2021-12-23 15:29:43.273651,-2
2021-12-23 15:29:43.273661,-2
2021-12-23 15:29:43.273671,2
2021-12-23 15:29:43.273680,7
2021-12-23 15:29:43.543395,9
2021-12-23 15:29:43.543425,9
2021-12-23 15:29:43.543436,7
2021-12-23 15:29:43.543446,7
2021-12-23 15:29:43.543456,7
2021-12-23 15:29:43.543465,9
2021-12-23 15:29:43.543475,12
2021-12-23 15:29:43.543485,12
2021-12-23 15:29:43.543494,16
2021-12-23 15:29:43.543504,14
2021-12-23 15:29:43.543514,12
2021-12-23 15:29:43.543523,19
2021-12-23 15:29:43.543533,24
2021-12-23 15:29:43.543542,16
2021-12-23 15:29:43.543552,14
2021-12-23 15:29:43.543562,21
2021-12-23 15:29:43.543571,24
2021-12-23 15:29:43.543581,24
2021-12-23 15:29:43.543590,28
2021-12-23 15:29:43.543600,33
2021-12-23 15:29:43.543610,31
2021-12-23 15:29:43.543619,24
2021-12-23 15:29:43.543629,21
2021-12-23 15:29:43.543638,28
2021-12-23 15:29:43.543648,31
2021-12-23 15:29:43.543658,26
2021-12-23 15:29:43.543667,33
2021-12-23 15:29:43.543688,50
2021-12-23 15:29:43.543698,67
2021-12-23 15:29:43.543707,72
2021-12-23 15:29:43.768934,64
2021-12-23 15:29:43.768957,57
2021-12-23 15:29:43.768964,52
2021-12-23 15:29:43.768971,48
2021-12-23 15:29:43.768977,48
2021-12-23 15:29:43.768983,48
2021-12-23 15:29:43.768989,45
2021-12-23 15:29:43.768995,48
2021-12-23 15:29:43.769001,48
2021-12-23 15:29:43.769008,43
2021-12-23 15:29:43.769014,48
2021-12-23 15:29:43.769020,62
2021-12-23 15:29:43.769026,151
2021-12-23 15:29:43.769032,401
2021-12-23 15:29:43.769039,805
2021-12-23 15:29:43.769045,1156
2021-12-23 15:29:43.769051,824
2021-12-23 15:29:43.769057,-122
2021-12-23 15:29:43.769063,-387
2021-12-23 15:29:43.769070,43
2021-12-23 15:29:43.769076,57
2021-12-23 15:29:43.769083,-137
2021-12-23 15:29:43.769089,-40
2021-12-23 15:29:43.769095,19
2021-12-23 15:29:43.769101,-40
2021-12-23 15:29:43.769107,-24
2021-12-23 15:29:43.769114,14
2021-12-23 15:29:43.769120,2
2021-12-23 15:29:43.769126,2
2021-12-23 15:29:43.769132,19
2021-12-23 15:29:43.993759,24
2021-12-23 15:29:43.993781,28
2021-12-23 15:29:43.993789,43
2021-12-23 15:29:43.993795,52
2021-12-23 15:29:43.993801,62
2021-12-23 15:29:43.993808,76
2021-12-23 15:29:43.993814,91
2021-12-23 15:29:43.993820,105
2021-12-23 15:29:43.993827,115
2021-12-23 15:29:43.993833,129
2021-12-23 15:29:43.993839,151
2021-12-23 15:29:43.993846,177
2021-12-23 15:29:43.993852,204
2021-12-23 15:29:43.993858,230
2021-12-23 15:29:43.993864,257
2021-12-23 15:29:43.993871,288
2021-12-23 15:29:43.993877,315
2021-12-23 15:29:43.993883,331
2021-12-23 15:29:43.993890,346
2021-12-23 15:29:43.993896,348
2021-12-23 15:29:43.993902,331
2021-12-23 15:29:43.993909,286
2021-12-23 15:29:43.993915,211
2021-12-23 15:29:43.993921,127
2021-12-23 15:29:43.993928,50
2021-12-23 15:29:43.993934,-12
2021-12-23 15:29:43.993940,-60
2021-12-23 15:29:43.993947,-88
2021-12-23 15:29:43.993953,-96
2021-12-23 15:29:43.993959,-93
2021-12-23 15:29:44.397516,-91
2021-12-23 15:29:44.397536,-93
2021-12-23 15:29:44.397544,-96
2021-12-23 15:29:44.397550,-93
2021-12-23 15:29:44.397557,-84
2021-12-23 15:29:44.397563,-76
2021-12-23 15:29:44.397569,-74
2021-12-23 15:29:44.397576,-69
2021-12-23 15:29:44.397582,-62
2021-12-23 15:29:44.397588,-55
2021-12-23 15:29:44.397595,-50
2021-12-23 15:29:44.397601,-48
2021-12-23 15:29:44.397607,-45
2021-12-23 15:29:44.397614,-48
2021-12-23 15:29:44.397620,-40
2021-12-23 15:29:44.397626,-31
2021-12-23 15:29:44.397632,-31
2021-12-23 15:29:44.397639,-28
2021-12-23 15:29:44.397645,-24
2021-12-23 15:29:44.397651,-19
2021-12-23 15:29:44.397658,-16
2021-12-23 15:29:44.397664,-14
2021-12-23 15:29:44.397670,-12
2021-12-23 15:29:44.397677,-9
2021-12-23 15:29:44.397683,-9
2021-12-23 15:29:44.397689,-12
2021-12-23 15:29:44.397695,-9
2021-12-23 15:29:44.397702,-4
2021-12-23 15:29:44.397708,0
2021-12-23 15:29:44.397714,2
2021-12-23 15:29:44.623984,7
2021-12-23 15:29:44.624015,9
2021-12-23 15:29:44.624026,14
2021-12-23 15:29:44.624036,16
2021-12-23 15:29:44.624046,19
2021-12-23 15:29:44.624056,24
2021-12-23 15:29:44.624065,26
2021-12-23 15:29:44.624075,31
2021-12-23 15:29:44.624085,33
2021-12-23 15:29:44.624094,36
2021-12-23 15:29:44.624104,36
2021-12-23 15:29:44.624114,36
2021-12-23 15:29:44.624124,33
2021-12-23 15:29:44.624134,33
2021-12-23 15:29:44.624143,33
2021-12-23 15:29:44.624153,33
2021-12-23 15:29:44.624163,38
2021-12-23 15:29:44.624172,38
2021-12-23 15:29:44.624182,31
2021-12-23 15:29:44.624192,28
2021-12-23 15:29:44.624201,33
2021-12-23 15:29:44.624211,45
2021-12-23 15:29:44.624221,55
2021-12-23 15:29:44.624230,64
2021-12-23 15:29:44.624240,81
2021-12-23 15:29:44.624250,93
2021-12-23 15:29:44.624259,84
2021-12-23 15:29:44.624269,69
2021-12-23 15:29:44.624279,64
2021-12-23 15:29:44.624288,60
2021-12-23 15:29:44.758401,60
2021-12-23 15:29:44.758432,62
2021-12-23 15:29:44.758443,62
2021-12-23 15:29:44.758453,62
2021-12-23 15:29:44.758463,67
2021-12-23 15:29:44.758472,69
2021-12-23 15:29:44.758482,72
2021-12-23 15:29:44.758492,76
2021-12-23 15:29:44.758501,79
2021-12-23 15:29:44.758511,156
2021-12-23 15:29:44.758521,411
2021-12-23 15:29:44.758530,820
2021-12-23 15:29:44.758540,1163
2021-12-23 15:29:44.758550,812
2021-12-23 15:29:44.758559,-134
2021-12-23 15:29:44.758569,-375
2021-12-23 15:29:44.758579,64
2021-12-23 15:29:44.758588,76
2021-12-23 15:29:44.758598,-115
2021-12-23 15:29:44.758608,-19
2021-12-23 15:29:44.758617,40
2021-12-23 15:29:44.758627,-21
2021-12-23 15:29:44.758636,-7
2021-12-23 15:29:44.758646,33
2021-12-23 15:29:44.758655,26
2021-12-23 15:29:44.758665,28
2021-12-23 15:29:44.758674,48
2021-12-23 15:29:44.758684,52
2021-12-23 15:29:44.758694,52
2021-12-23 15:29:44.758703,60
2021-12-23 15:29:44.938508,69
2021-12-23 15:29:44.938539,74
2021-12-23 15:29:44.938551,81
2021-12-23 15:29:44.938561,93
2021-12-23 15:29:44.938570,105
2021-12-23 15:29:44.938580,115
2021-12-23 15:29:44.938590,137
2021-12-23 15:29:44.938600,161
2021-12-23 15:29:44.938609,185
2021-12-23 15:29:44.938619,211
2021-12-23 15:29:44.938629,240
2021-12-23 15:29:44.938639,266
2021-12-23 15:29:44.938649,295
2021-12-23 15:29:44.938659,322
2021-12-23 15:29:44.938669,341
2021-12-23 15:29:44.938678,353
2021-12-23 15:29:44.938688,355
2021-12-23 15:29:44.938698,341
2021-12-23 15:29:44.938708,295
2021-12-23 15:29:44.938717,223
2021-12-23 15:29:44.938727,139
2021-12-23 15:29:44.938737,57
2021-12-23 15:29:44.938747,-14
2021-12-23 15:29:44.938757,-67
2021-12-23 15:29:44.938766,-93
2021-12-23 15:29:44.938776,-103
2021-12-23 15:29:44.938786,-108
2021-12-23 15:29:44.938795,-108
2021-12-23 15:29:44.938805,-103
2021-12-23 15:29:44.938815,-101
2021-12-23 15:29:45.163891,-91
2021-12-23 15:29:45.163921,-84
2021-12-23 15:29:45.163932,-79
2021-12-23 15:29:45.163942,-76
2021-12-23 15:29:45.163952,-74
2021-12-23 15:29:45.163962,-69
2021-12-23 15:29:45.163971,-60
2021-12-23 15:29:45.163981,-48
2021-12-23 15:29:45.163991,-43
2021-12-23 15:29:45.164000,-38
2021-12-23 15:29:45.164010,-31
2021-12-23 15:29:45.164019,-24
2021-12-23 15:29:45.164029,-19
2021-12-23 15:29:45.164039,-21
2021-12-23 15:29:45.164048,-19
2021-12-23 15:29:45.164058,-16
2021-12-23 15:29:45.164068,-16
2021-12-23 15:29:45.164078,-16
2021-12-23 15:29:45.164087,-14
2021-12-23 15:29:45.164097,-14
2021-12-23 15:29:45.164106,-14
2021-12-23 15:29:45.164116,-14
2021-12-23 15:29:45.164126,-12
2021-12-23 15:29:45.164135,-9
2021-12-23 15:29:45.164145,-4
2021-12-23 15:29:45.164155,-2
2021-12-23 15:29:45.164164,0
2021-12-23 15:29:45.164174,0
2021-12-23 15:29:45.164184,4
2021-12-23 15:29:45.164193,9
2021-12-23 15:29:45.522888,12
2021-12-23 15:29:45.522919,14
2021-12-23 15:29:45.522931,14
2021-12-23 15:29:45.522941,14
2021-12-23 15:29:45.522950,12
2021-12-23 15:29:45.522960,16
2021-12-23 15:29:45.522969,16
2021-12-23 15:29:45.522979,14
2021-12-23 15:29:45.522989,14
2021-12-23 15:29:45.522998,16
2021-12-23 15:29:45.523008,19
2021-12-23 15:29:45.523018,24
2021-12-23 15:29:45.523028,26
2021-12-23 15:29:45.523037,24
2021-12-23 15:29:45.523047,19
2021-12-23 15:29:45.523056,12
2021-12-23 15:29:45.523066,12
2021-12-23 15:29:45.523075,26
2021-12-23 15:29:45.523085,38
2021-12-23 15:29:45.523095,45
2021-12-23 15:29:45.523104,64
2021-12-23 15:29:45.523114,74
2021-12-23 15:29:45.523123,60
2021-12-23 15:29:45.523133,45
2021-12-23 15:29:45.523142,40
2021-12-23 15:29:45.523152,40
2021-12-23 15:29:45.523162,43
2021-12-23 15:29:45.523171,43
2021-12-23 15:29:45.523181,43
2021-12-23 15:29:45.523190,48
2021-12-23 15:29:45.658456,50
2021-12-23 15:29:45.658499,52
2021-12-23 15:29:45.658511,52
2021-12-23 15:29:45.658521,55
2021-12-23 15:29:45.658530,62
2021-12-23 15:29:45.658540,129
2021-12-23 15:29:45.658550,353
2021-12-23 15:29:45.658559,743
2021-12-23 15:29:45.658655,1132
2021-12-23 15:29:45.658667,901
2021-12-23 15:29:45.658677,-33
2021-12-23 15:29:45.658687,-406
2021-12-23 15:29:45.658697,19
2021-12-23 15:29:45.658706,101
2021-12-23 15:29:45.658716,-108
2021-12-23 15:29:45.658726,-43
2021-12-23 15:29:45.658735,36
2021-12-23 15:29:45.658745,-24
2021-12-23 15:29:45.658755,-21
2021-12-23 15:29:45.658764,19
2021-12-23 15:29:45.658774,0
2021-12-23 15:29:45.658784,-7
2021-12-23 15:29:45.658794,19
2021-12-23 15:29:45.658803,26
2021-12-23 15:29:45.658813,24
2021-12-23 15:29:45.658822,31
2021-12-23 15:29:45.658832,38
2021-12-23 15:29:45.658842,50
2021-12-23 15:29:45.658851,67
2021-12-23 15:29:45.658861,76
2021-12-23 15:29:45.838774,86
2021-12-23 15:29:45.838816,103
2021-12-23 15:29:45.838828,117
2021-12-23 15:29:45.838838,134
2021-12-23 15:29:45.838848,163
2021-12-23 15:29:45.838858,199
2021-12-23 15:29:45.838867,228
2021-12-23 15:29:45.838877,250
2021-12-23 15:29:45.838887,271
2021-12-23 15:29:45.838896,295
2021-12-23 15:29:45.838906,319
2021-12-23 15:29:45.838916,334
2021-12-23 15:29:45.838926,327
2021-12-23 15:29:45.838935,310
2021-12-23 15:29:45.838945,274
2021-12-23 15:29:45.838954,202
2021-12-23 15:29:45.838964,108
2021-12-23 15:29:45.838974,21
2021-12-23 15:29:45.838983,-50
2021-12-23 15:29:45.838993,-96
2021-12-23 15:29:45.839003,-115
2021-12-23 15:29:45.839012,-115
2021-12-23 15:29:45.839022,-115
2021-12-23 15:29:45.839032,-125
2021-12-23 15:29:45.839041,-125
2021-12-23 15:29:45.839051,-120
2021-12-23 15:29:45.839061,-122
2021-12-23 15:29:45.839070,-117
2021-12-23 15:29:45.839080,-103
2021-12-23 15:29:45.839090,-93
2021-12-23 15:29:46.063148,-86
2021-12-23 15:29:46.063168,-67
2021-12-23 15:29:46.063176,-55
2021-12-23 15:29:46.063182,-48
2021-12-23 15:29:46.063189,-40
2021-12-23 15:29:46.063195,-36
2021-12-23 15:29:46.063202,-33
2021-12-23 15:29:46.063208,-36
2021-12-23 15:29:46.063214,-33
2021-12-23 15:29:46.063221,-19
2021-12-23 15:29:46.063227,-14
2021-12-23 15:29:46.063233,-24
2021-12-23 15:29:46.063240,-24
2021-12-23 15:29:46.063246,-14
2021-12-23 15:29:46.063252,-7
2021-12-23 15:29:46.063259,-9
2021-12-23 15:29:46.063265,-12
2021-12-23 15:29:46.063271,-16
2021-12-23 15:29:46.063278,-14
2021-12-23 15:29:46.063284,-2
2021-12-23 15:29:46.063291,12
2021-12-23 15:29:46.063298,21
2021-12-23 15:29:46.063304,24
2021-12-23 15:29:46.063311,24
2021-12-23 15:29:46.063317,24
2021-12-23 15:29:46.063323,16
2021-12-23 15:29:46.063330,4
2021-12-23 15:29:46.063336,14
2021-12-23 15:29:46.063342,33
2021-12-23 15:29:46.063349,36
2021-12-23 15:29:46.377422,36
2021-12-23 15:29:46.377443,52
2021-12-23 15:29:46.377451,57
2021-12-23 15:29:46.377457,31
2021-12-23 15:29:46.377478,16
2021-12-23 15:29:46.377489,24
2021-12-23 15:29:46.377498,24
2021-12-23 15:29:46.377508,19
2021-12-23 15:29:46.377518,38
2021-12-23 15:29:46.377527,57
2021-12-23 15:29:46.377537,57
2021-12-23 15:29:46.377547,69
2021-12-23 15:29:46.377556,79
2021-12-23 15:29:46.377566,64
2021-12-23 15:29:46.377576,64
2021-12-23 15:29:46.377586,88
2021-12-23 15:29:46.377596,101
2021-12-23 15:29:46.377605,86
2021-12-23 15:29:46.377615,62
2021-12-23 15:29:46.377625,48
2021-12-23 15:29:46.377634,48
2021-12-23 15:29:46.377644,62
2021-12-23 15:29:46.377654,76
2021-12-23 15:29:46.377663,79
2021-12-23 15:29:46.377673,74
2021-12-23 15:29:46.377682,72
2021-12-23 15:29:46.377692,60
2021-12-23 15:29:46.377702,52
2021-12-23 15:29:46.377711,72
2021-12-23 15:29:46.377721,163
2021-12-23 15:29:46.513444,401
2021-12-23 15:29:46.513466,776
2021-12-23 15:29:46.513474,1111
2021-12-23 15:29:46.513481,865
2021-12-23 15:29:46.513487,-12
2021-12-23 15:29:46.513494,-363
2021-12-23 15:29:46.513500,26
2021-12-23 15:29:46.513507,108
2021-12-23 15:29:46.513513,-79
2021-12-23 15:29:46.513519,-9
2021-12-23 15:29:46.513526,74
2021-12-23 15:29:46.513532,14
2021-12-23 15:29:46.513538,-2
2021-12-23 15:29:46.513545,40
2021-12-23 15:29:46.513551,45
2021-12-23 15:29:46.513557,26
2021-12-23 15:29:46.513563,40
2021-12-23 15:29:46.513569,81
2021-12-23 15:29:46.513576,98
2021-12-23 15:29:46.513582,86
2021-12-23 15:29:46.513588,88
2021-12-23 15:29:46.513594,88
2021-12-23 15:29:46.513601,72
2021-12-23 15:29:46.513607,86
2021-12-23 15:29:46.513613,134
2021-12-23 15:29:46.513619,153
2021-12-23 15:29:46.513625,168
2021-12-23 15:29:46.513632,218
2021-12-23 15:29:46.513638,254
2021-12-23 15:29:46.513644,242
2021-12-23 15:29:46.783357,242
2021-12-23 15:29:46.783387,266
2021-12-23 15:29:46.783399,303
2021-12-23 15:29:46.783409,353
2021-12-23 15:29:46.783418,391
2021-12-23 15:29:46.783428,396
2021-12-23 15:29:46.783437,396
2021-12-23 15:29:46.783447,375
2021-12-23 15:29:46.783457,317
2021-12-23 15:29:46.783466,221
2021-12-23 15:29:46.783476,103
2021-12-23 15:29:46.783485,31
2021-12-23 15:29:46.783495,9
2021-12-23 15:29:46.783505,-21
2021-12-23 15:29:46.783514,-57
2021-12-23 15:29:46.783524,-72
2021-12-23 15:29:46.783533,-91
2021-12-23 15:29:46.783543,-108
2021-12-23 15:29:46.783552,-115
2021-12-23 15:29:46.783562,-127
2021-12-23 15:29:46.783572,-110
2021-12-23 15:29:46.783581,-64
2021-12-23 15:29:46.783591,-67
2021-12-23 15:29:46.783600,-62
2021-12-23 15:29:46.783609,-16
2021-12-23 15:29:46.783619,-16
2021-12-23 15:29:46.783628,-52
2021-12-23 15:29:46.783638,-50
2021-12-23 15:29:46.783648,-33
2021-12-23 15:29:46.783657,-36
2021-12-23 15:29:46.963381,-26
2021-12-23 15:29:46.963412,0
2021-12-23 15:29:46.963424,19
2021-12-23 15:29:46.963434,24
2021-12-23 15:29:46.963443,7
2021-12-23 15:29:46.963453,0
2021-12-23 15:29:46.963463,0
2021-12-23 15:29:46.963472,-28
2021-12-23 15:29:46.963482,-43
2021-12-23 15:29:46.963492,2
2021-12-23 15:29:46.963501,48
