Time,ECG
2021-12-23 15:19:14.173135,-96
2021-12-23 15:19:14.173164,-93
2021-12-23 15:19:14.173176,-86
2021-12-23 15:19:14.173187,-79
2021-12-23 15:19:14.173198,-72
2021-12-23 15:19:14.173210,-62
2021-12-23 15:19:14.173221,-52
2021-12-23 15:19:14.173232,-48
2021-12-23 15:19:14.173243,-43
2021-12-23 15:19:14.173253,-38
2021-12-23 15:19:14.173259,-33
2021-12-23 15:19:14.173266,-26
2021-12-23 15:19:14.173272,-21
2021-12-23 15:19:14.173278,-24
2021-12-23 15:19:14.173284,-24
2021-12-23 15:19:14.173291,-26
2021-12-23 15:19:14.173297,-24
2021-12-23 15:19:14.173304,-19
2021-12-23 15:19:14.173310,-19
2021-12-23 15:19:14.173316,-21
2021-12-23 15:19:14.173323,-16
2021-12-23 15:19:14.173329,-14
2021-12-23 15:19:14.173336,-9
2021-12-23 15:19:14.173342,-7
2021-12-23 15:19:14.173348,-4
2021-12-23 15:19:14.173355,-2
2021-12-23 15:19:14.173362,0
2021-12-23 15:19:14.173368,2
2021-12-23 15:19:14.173374,2
2021-12-23 15:19:14.173381,4
2021-12-23 15:19:14.398636,9
2021-12-23 15:19:14.398666,9
2021-12-23 15:19:14.398677,9
2021-12-23 15:19:14.398687,9
2021-12-23 15:19:14.398697,14
2021-12-23 15:19:14.398706,21
2021-12-23 15:19:14.398717,16
2021-12-23 15:19:14.398727,12
2021-12-23 15:19:14.398736,14
2021-12-23 15:19:14.398746,26
2021-12-23 15:19:14.398755,24
2021-12-23 15:19:14.398765,19
2021-12-23 15:19:14.398775,24
2021-12-23 15:19:14.398784,28
2021-12-23 15:19:14.398794,26
2021-12-23 15:19:14.398804,24
2021-12-23 15:19:14.398813,24
2021-12-23 15:19:14.398824,24
2021-12-23 15:19:14.398833,21
2021-12-23 15:19:14.398843,26
2021-12-23 15:19:14.398852,28
2021-12-23 15:19:14.398862,26
2021-12-23 15:19:14.398872,40
2021-12-23 15:19:14.398881,62
2021-12-23 15:19:14.398891,60
2021-12-23 15:19:14.398900,52
2021-12-23 15:19:14.398910,48
2021-12-23 15:19:14.398919,33
2021-12-23 15:19:14.398929,28
2021-12-23 15:19:14.398942,38
2021-12-23 15:19:14.578168,40
2021-12-23 15:19:14.578199,36
2021-12-23 15:19:14.578210,31
2021-12-23 15:19:14.578220,38
2021-12-23 15:19:14.578229,48
2021-12-23 15:19:14.578239,43
2021-12-23 15:19:14.578248,50
2021-12-23 15:19:14.578258,74
2021-12-23 15:19:14.578268,177
2021-12-23 15:19:14.578277,478
2021-12-23 15:19:14.578287,952
2021-12-23 15:19:14.578297,1163
2021-12-23 15:19:14.578307,495
2021-12-23 15:19:14.578322,-379
2021-12-23 15:19:14.578333,-283
2021-12-23 15:19:14.578343,103
2021-12-23 15:19:14.578352,-33
2021-12-23 15:19:14.578362,-132
2021-12-23 15:19:14.578371,-7
2021-12-23 15:19:14.578381,-12
2021-12-23 15:19:14.578390,-64
2021-12-23 15:19:14.578400,-26
2021-12-23 15:19:14.578410,-4
2021-12-23 15:19:14.578419,-19
2021-12-23 15:19:14.578429,-4
2021-12-23 15:19:14.578438,14
2021-12-23 15:19:14.578448,16
2021-12-23 15:19:14.578457,24
2021-12-23 15:19:14.578467,40
2021-12-23 15:19:14.578480,45
2021-12-23 15:19:14.848614,52
2021-12-23 15:19:14.848644,67
2021-12-23 15:19:14.848656,81
2021-12-23 15:19:14.848665,93
2021-12-23 15:19:14.848675,113
2021-12-23 15:19:14.848685,134
2021-12-23 15:19:14.848694,156
2021-12-23 15:19:14.848704,187
2021-12-23 15:19:14.848713,228
2021-12-23 15:19:14.848723,266
2021-12-23 15:19:14.848733,295
2021-12-23 15:19:14.848742,319
2021-12-23 15:19:14.848752,339
2021-12-23 15:19:14.848761,351
2021-12-23 15:19:14.848771,348
2021-12-23 15:19:14.848780,319
2021-12-23 15:19:14.848790,257
2021-12-23 15:19:14.848805,168
2021-12-23 15:19:14.848815,69
2021-12-23 15:19:14.848824,-12
2021-12-23 15:19:14.848834,-72
2021-12-23 15:19:14.848843,-110
2021-12-23 15:19:14.848853,-127
2021-12-23 15:19:14.848862,-132
2021-12-23 15:19:14.848872,-129
2021-12-23 15:19:14.848882,-122
2021-12-23 15:19:14.848891,-117
2021-12-23 15:19:14.848901,-110
2021-12-23 15:19:14.848910,-101
2021-12-23 15:19:14.848920,-93
2021-12-23 15:19:15.028108,-84
2021-12-23 15:19:15.028139,-74
2021-12-23 15:19:15.028151,-64
2021-12-23 15:19:15.028161,-55
2021-12-23 15:19:15.028170,-48
2021-12-23 15:19:15.028180,-40
2021-12-23 15:19:15.028190,-28
2021-12-23 15:19:15.028207,-21
2021-12-23 15:19:15.028217,-16
2021-12-23 15:19:15.028227,-12
2021-12-23 15:19:15.028237,-7
2021-12-23 15:19:15.028246,-7
2021-12-23 15:19:15.028256,-2
2021-12-23 15:19:15.028266,2
2021-12-23 15:19:15.028276,4
2021-12-23 15:19:15.028285,4
2021-12-23 15:19:15.028295,4
2021-12-23 15:19:15.028305,7
2021-12-23 15:19:15.028314,12
2021-12-23 15:19:15.028324,12
2021-12-23 15:19:15.028334,12
2021-12-23 15:19:15.028344,14
2021-12-23 15:19:15.028353,16
2021-12-23 15:19:15.028363,19
2021-12-23 15:19:15.028373,21
2021-12-23 15:19:15.028383,19
2021-12-23 15:19:15.028392,14
2021-12-23 15:19:15.028402,14
2021-12-23 15:19:15.028412,16
2021-12-23 15:19:15.028423,19
2021-12-23 15:19:15.253112,21
2021-12-23 15:19:15.253142,24
2021-12-23 15:19:15.253154,26
2021-12-23 15:19:15.253164,24
2021-12-23 15:19:15.253173,21
2021-12-23 15:19:15.253183,24
2021-12-23 15:19:15.253193,26
2021-12-23 15:19:15.253202,26
2021-12-23 15:19:15.253211,26
2021-12-23 15:19:15.253221,26
2021-12-23 15:19:15.253231,24
2021-12-23 15:19:15.253240,26
2021-12-23 15:19:15.253250,26
2021-12-23 15:19:15.253260,24
2021-12-23 15:19:15.253269,26
2021-12-23 15:19:15.253279,33
2021-12-23 15:19:15.253289,33
2021-12-23 15:19:15.253298,38
2021-12-23 15:19:15.253308,52
2021-12-23 15:19:15.253317,69
2021-12-23 15:19:15.253327,69
2021-12-23 15:19:15.253336,60
2021-12-23 15:19:15.253346,52
2021-12-23 15:19:15.253355,45
2021-12-23 15:19:15.253373,40
2021-12-23 15:19:15.253383,45
2021-12-23 15:19:15.253392,48
2021-12-23 15:19:15.253402,40
2021-12-23 15:19:15.253412,40
2021-12-23 15:19:15.253421,48
2021-12-23 15:19:15.567743,52
2021-12-23 15:19:15.567765,60
2021-12-23 15:19:15.567772,69
2021-12-23 15:19:15.567779,93
2021-12-23 15:19:15.567785,233
2021-12-23 15:19:15.567792,545
2021-12-23 15:19:15.567798,949
2021-12-23 15:19:15.567805,971
2021-12-23 15:19:15.567811,194
2021-12-23 15:19:15.567817,-442
2021-12-23 15:19:15.567824,-141
2021-12-23 15:19:15.567830,127
2021-12-23 15:19:15.567837,-64
2021-12-23 15:19:15.567843,-81
2021-12-23 15:19:15.567849,31
2021-12-23 15:19:15.567856,-9
2021-12-23 15:19:15.567862,-36
2021-12-23 15:19:15.567868,9
2021-12-23 15:19:15.567875,14
2021-12-23 15:19:15.567881,2
2021-12-23 15:19:15.567888,19
2021-12-23 15:19:15.567894,28
2021-12-23 15:19:15.567903,31
2021-12-23 15:19:15.567909,40
2021-12-23 15:19:15.567915,52
2021-12-23 15:19:15.567922,60
2021-12-23 15:19:15.567928,72
2021-12-23 15:19:15.567934,81
2021-12-23 15:19:15.567941,93
2021-12-23 15:19:15.567947,115
2021-12-23 15:19:15.838126,134
2021-12-23 15:19:15.838157,151
2021-12-23 15:19:15.838169,177
2021-12-23 15:19:15.838178,211
2021-12-23 15:19:15.838188,250
2021-12-23 15:19:15.838198,283
2021-12-23 15:19:15.838207,315
2021-12-23 15:19:15.838217,341
2021-12-23 15:19:15.838227,355
2021-12-23 15:19:15.838236,363
2021-12-23 15:19:15.838246,358
2021-12-23 15:19:15.838256,322
2021-12-23 15:19:15.838265,250
2021-12-23 15:19:15.838275,158
2021-12-23 15:19:15.838285,62
2021-12-23 15:19:15.838294,-16
2021-12-23 15:19:15.838304,-67
2021-12-23 15:19:15.838314,-91
2021-12-23 15:19:15.838323,-105
2021-12-23 15:19:15.838333,-108
2021-12-23 15:19:15.838342,-108
2021-12-23 15:19:15.838352,-103
2021-12-23 15:19:15.838362,-93
2021-12-23 15:19:15.838371,-86
2021-12-23 15:19:15.838386,-79
2021-12-23 15:19:15.838396,-74
2021-12-23 15:19:15.838405,-67
2021-12-23 15:19:15.838415,-62
2021-12-23 15:19:15.838425,-52
2021-12-23 15:19:15.838434,-45
2021-12-23 15:19:16.018599,-36
2021-12-23 15:19:16.018630,-28
2021-12-23 15:19:16.018641,-24
2021-12-23 15:19:16.018651,-19
2021-12-23 15:19:16.018661,-12
2021-12-23 15:19:16.018671,-7
2021-12-23 15:19:16.018681,0
2021-12-23 15:19:16.018691,2
2021-12-23 15:19:16.018701,2
2021-12-23 15:19:16.018710,4
2021-12-23 15:19:16.018720,9
2021-12-23 15:19:16.018730,12
2021-12-23 15:19:16.018739,9
2021-12-23 15:19:16.018749,7
2021-12-23 15:19:16.018759,9
2021-12-23 15:19:16.018769,12
2021-12-23 15:19:16.018778,14
2021-12-23 15:19:16.018788,16
2021-12-23 15:19:16.018798,19
2021-12-23 15:19:16.018807,21
2021-12-23 15:19:16.018817,21
2021-12-23 15:19:16.018827,24
2021-12-23 15:19:16.018836,24
2021-12-23 15:19:16.018846,28
2021-12-23 15:19:16.018857,31
2021-12-23 15:19:16.018867,28
2021-12-23 15:19:16.018876,26
2021-12-23 15:19:16.018886,28
2021-12-23 15:19:16.018896,31
2021-12-23 15:19:16.018905,33
2021-12-23 15:19:16.197722,38
2021-12-23 15:19:16.197737,38
2021-12-23 15:19:16.197743,38
2021-12-23 15:19:16.197749,40
2021-12-23 15:19:16.197754,40
2021-12-23 15:19:16.197759,40
2021-12-23 15:19:16.197764,43
2021-12-23 15:19:16.197769,40
2021-12-23 15:19:16.197774,36
2021-12-23 15:19:16.197779,33
2021-12-23 15:19:16.197784,31
2021-12-23 15:19:16.197789,31
2021-12-23 15:19:16.197794,33
2021-12-23 15:19:16.197798,36
2021-12-23 15:19:16.197803,36
2021-12-23 15:19:16.197808,45
2021-12-23 15:19:16.197813,60
2021-12-23 15:19:16.197818,62
2021-12-23 15:19:16.197823,52
2021-12-23 15:19:16.197828,40
2021-12-23 15:19:16.197833,36
2021-12-23 15:19:16.197838,38
2021-12-23 15:19:16.197843,38
2021-12-23 15:19:16.197848,36
2021-12-23 15:19:16.197853,36
2021-12-23 15:19:16.197858,38
2021-12-23 15:19:16.197863,40
2021-12-23 15:19:16.197868,43
2021-12-23 15:19:16.197873,50
2021-12-23 15:19:16.197878,60
2021-12-23 15:19:16.467523,115
2021-12-23 15:19:16.467554,319
2021-12-23 15:19:16.467566,702
2021-12-23 15:19:16.467576,1072
2021-12-23 15:19:16.467585,824
2021-12-23 15:19:16.467595,-93
2021-12-23 15:19:16.467605,-437
2021-12-23 15:19:16.467615,-2
2021-12-23 15:19:16.467625,88
2021-12-23 15:19:16.467635,-108
2021-12-23 15:19:16.467655,-40
2021-12-23 15:19:16.467665,36
2021-12-23 15:19:16.467674,-26
2021-12-23 15:19:16.467684,-24
2021-12-23 15:19:16.467694,16
2021-12-23 15:19:16.467703,4
2021-12-23 15:19:16.467713,-2
2021-12-23 15:19:16.467723,14
2021-12-23 15:19:16.467732,19
2021-12-23 15:19:16.467742,24
2021-12-23 15:19:16.467752,36
2021-12-23 15:19:16.467761,48
2021-12-23 15:19:16.467771,57
2021-12-23 15:19:16.467780,69
2021-12-23 15:19:16.467790,86
2021-12-23 15:19:16.467800,103
2021-12-23 15:19:16.467809,122
2021-12-23 15:19:16.467819,144
2021-12-23 15:19:16.467829,173
2021-12-23 15:19:16.467838,204
2021-12-23 15:19:16.693602,235
2021-12-23 15:19:16.693632,274
2021-12-23 15:19:16.693644,307
2021-12-23 15:19:16.693654,336
2021-12-23 15:19:16.693663,358
2021-12-23 15:19:16.693673,375
2021-12-23 15:19:16.693683,377
2021-12-23 15:19:16.693693,365
2021-12-23 15:19:16.693702,319
2021-12-23 15:19:16.693712,240
2021-12-23 15:19:16.693722,141
2021-12-23 15:19:16.693732,50
2021-12-23 15:19:16.693741,-28
2021-12-23 15:19:16.693751,-84
2021-12-23 15:19:16.693761,-108
2021-12-23 15:19:16.693771,-117
2021-12-23 15:19:16.693780,-120
2021-12-23 15:19:16.693790,-120
2021-12-23 15:19:16.693799,-115
2021-12-23 15:19:16.693809,-110
2021-12-23 15:19:16.693819,-105
2021-12-23 15:19:16.693829,-98
2021-12-23 15:19:16.693838,-91
2021-12-23 15:19:16.693848,-84
2021-12-23 15:19:16.693858,-76
2021-12-23 15:19:16.693875,-67
2021-12-23 15:19:16.693885,-57
2021-12-23 15:19:16.693895,-50
2021-12-23 15:19:16.693904,-43
2021-12-23 15:19:16.693914,-36
2021-12-23 15:19:16.918588,-31
2021-12-23 15:19:16.918618,-24
2021-12-23 15:19:16.918630,-16
2021-12-23 15:19:16.918640,-14
2021-12-23 15:19:16.918650,-14
2021-12-23 15:19:16.918660,-9
2021-12-23 15:19:16.918670,-4
2021-12-23 15:19:16.918680,-2
2021-12-23 15:19:16.918689,0
2021-12-23 15:19:16.918699,2
2021-12-23 15:19:16.918709,0
2021-12-23 15:19:16.918719,-2
2021-12-23 15:19:16.918728,2
2021-12-23 15:19:16.918738,7
2021-12-23 15:19:16.918748,7
2021-12-23 15:19:16.918757,7
2021-12-23 15:19:16.918767,7
2021-12-23 15:19:16.918777,7
2021-12-23 15:19:16.918786,12
2021-12-23 15:19:16.918796,14
2021-12-23 15:19:16.918805,12
2021-12-23 15:19:16.918815,12
2021-12-23 15:19:16.918825,12
2021-12-23 15:19:16.918834,16
2021-12-23 15:19:16.918843,21
2021-12-23 15:19:16.918853,24
2021-12-23 15:19:16.918863,26
2021-12-23 15:19:16.918872,26
2021-12-23 15:19:16.918882,28
2021-12-23 15:19:16.918892,31
2021-12-23 15:19:17.098132,33
2021-12-23 15:19:17.098164,36
2021-12-23 15:19:17.098175,38
2021-12-23 15:19:17.098185,36
2021-12-23 15:19:17.098195,33
2021-12-23 15:19:17.098205,33
2021-12-23 15:19:17.098214,36
2021-12-23 15:19:17.098224,33
2021-12-23 15:19:17.098234,28
2021-12-23 15:19:17.098244,28
2021-12-23 15:19:17.098253,33
2021-12-23 15:19:17.098263,40
2021-12-23 15:19:17.098273,45
2021-12-23 15:19:17.098282,60
2021-12-23 15:19:17.098292,74
2021-12-23 15:19:17.098302,72
2021-12-23 15:19:17.098317,57
2021-12-23 15:19:17.098327,45
2021-12-23 15:19:17.098337,36
2021-12-23 15:19:17.098347,38
2021-12-23 15:19:17.098357,43
2021-12-23 15:19:17.098366,40
2021-12-23 15:19:17.098376,36
2021-12-23 15:19:17.098386,36
2021-12-23 15:19:17.098395,38
2021-12-23 15:19:17.098405,40
2021-12-23 15:19:17.098415,48
2021-12-23 15:19:17.098425,57
2021-12-23 15:19:17.098434,113
2021-12-23 15:19:17.098444,329
2021-12-23 15:19:17.412956,714
2021-12-23 15:19:17.412986,1074
2021-12-23 15:19:17.412998,805
2021-12-23 15:19:17.413008,-115
2021-12-23 15:19:17.413018,-432
2021-12-23 15:19:17.413028,7
2021-12-23 15:19:17.413037,86
2021-12-23 15:19:17.413047,-105
2021-12-23 15:19:17.413057,-36
2021-12-23 15:19:17.413066,33
2021-12-23 15:19:17.413076,-26
2021-12-23 15:19:17.413086,-16
2021-12-23 15:19:17.413095,21
2021-12-23 15:19:17.413105,12
2021-12-23 15:19:17.413115,9
2021-12-23 15:19:17.413125,24
2021-12-23 15:19:17.413134,28
2021-12-23 15:19:17.413144,36
2021-12-23 15:19:17.413153,48
2021-12-23 15:19:17.413163,60
2021-12-23 15:19:17.413173,69
2021-12-23 15:19:17.413182,79
2021-12-23 15:19:17.413192,93
2021-12-23 15:19:17.413201,110
2021-12-23 15:19:17.413211,129
2021-12-23 15:19:17.413221,149
2021-12-23 15:19:17.413230,173
2021-12-23 15:19:17.413240,202
2021-12-23 15:19:17.413249,235
2021-12-23 15:19:17.413259,274
2021-12-23 15:19:17.637164,310
2021-12-23 15:19:17.637186,339
2021-12-23 15:19:17.637193,358
2021-12-23 15:19:17.637200,372
2021-12-23 15:19:17.637206,377
2021-12-23 15:19:17.637212,365
2021-12-23 15:19:17.637219,324
2021-12-23 15:19:17.637225,247
2021-12-23 15:19:17.637233,151
2021-12-23 15:19:17.637244,57
2021-12-23 15:19:17.637272,-14
2021-12-23 15:19:17.637278,-62
2021-12-23 15:19:17.637283,-88
2021-12-23 15:19:17.637292,-103
2021-12-23 15:19:17.637297,-108
2021-12-23 15:19:17.637302,-110
2021-12-23 15:19:17.637307,-103
2021-12-23 15:19:17.637312,-96
2021-12-23 15:19:17.637317,-88
2021-12-23 15:19:17.637322,-81
2021-12-23 15:19:17.637327,-79
2021-12-23 15:19:17.637332,-72
2021-12-23 15:19:17.637337,-64
2021-12-23 15:19:17.637342,-60
2021-12-23 15:19:17.637347,-57
2021-12-23 15:19:17.637353,-50
2021-12-23 15:19:17.637358,-40
2021-12-23 15:19:17.637363,-40
2021-12-23 15:19:17.637368,-36
2021-12-23 15:19:17.637373,-26
2021-12-23 15:19:17.996557,-21
2021-12-23 15:19:17.996580,-19
2021-12-23 15:19:17.996588,-14
2021-12-23 15:19:17.996596,-12
2021-12-23 15:19:17.996603,-7
2021-12-23 15:19:17.996609,-4
2021-12-23 15:19:17.996616,-2
2021-12-23 15:19:17.996622,-2
2021-12-23 15:19:17.996629,-4
2021-12-23 15:19:17.996635,-4
2021-12-23 15:19:17.996641,0
2021-12-23 15:19:17.996651,4
2021-12-23 15:19:17.996686,7
2021-12-23 15:19:17.996790,7
2021-12-23 15:19:17.996819,4
2021-12-23 15:19:17.996828,4
2021-12-23 15:19:17.996836,9
2021-12-23 15:19:17.996844,14
2021-12-23 15:19:17.996851,16
2021-12-23 15:19:17.996859,19
2021-12-23 15:19:17.996866,21
2021-12-23 15:19:17.996874,24
2021-12-23 15:19:17.996881,24
2021-12-23 15:19:17.996888,26
2021-12-23 15:19:17.996896,31
2021-12-23 15:19:17.996904,31
2021-12-23 15:19:17.996911,31
2021-12-23 15:19:17.996919,33
2021-12-23 15:19:17.996926,33
2021-12-23 15:19:17.996934,33
2021-12-23 15:19:18.133609,33
2021-12-23 15:19:18.133640,36
2021-12-23 15:19:18.133651,36
2021-12-23 15:19:18.133661,38
2021-12-23 15:19:18.133671,38
2021-12-23 15:19:18.133680,33
2021-12-23 15:19:18.133690,31
2021-12-23 15:19:18.133699,33
2021-12-23 15:19:18.133709,40
2021-12-23 15:19:18.133718,45
2021-12-23 15:19:18.133728,50
2021-12-23 15:19:18.133738,69
2021-12-23 15:19:18.133747,76
2021-12-23 15:19:18.133756,64
2021-12-23 15:19:18.133766,57
2021-12-23 15:19:18.133775,52
2021-12-23 15:19:18.133785,48
2021-12-23 15:19:18.133802,50
2021-12-23 15:19:18.133812,50
2021-12-23 15:19:18.133821,45
2021-12-23 15:19:18.133831,43
2021-12-23 15:19:18.133841,43
2021-12-23 15:19:18.133851,45
2021-12-23 15:19:18.133860,50
2021-12-23 15:19:18.133870,57
2021-12-23 15:19:18.133880,74
2021-12-23 15:19:18.133889,185
2021-12-23 15:19:18.133899,471
2021-12-23 15:19:18.133908,892
2021-12-23 15:19:18.133918,1077
2021-12-23 15:19:18.268595,454
2021-12-23 15:19:18.268625,-379
2021-12-23 15:19:18.268636,-283
2021-12-23 15:19:18.268646,110
2021-12-23 15:19:18.268656,-12
2021-12-23 15:19:18.268666,-113
2021-12-23 15:19:18.268676,4
2021-12-23 15:19:18.268686,7
2021-12-23 15:19:18.268695,-38
2021-12-23 15:19:18.268705,0
2021-12-23 15:19:18.268715,16
2021-12-23 15:19:18.268725,2
2021-12-23 15:19:18.268735,12
2021-12-23 15:19:18.268744,24
2021-12-23 15:19:18.268754,26
2021-12-23 15:19:18.268764,33
2021-12-23 15:19:18.268773,48
2021-12-23 15:19:18.268783,55
2021-12-23 15:19:18.268793,62
2021-12-23 15:19:18.268803,74
2021-12-23 15:19:18.268812,93
2021-12-23 15:19:18.268822,110
2021-12-23 15:19:18.268832,127
2021-12-23 15:19:18.268841,151
2021-12-23 15:19:18.268851,177
2021-12-23 15:19:18.268860,206
2021-12-23 15:19:18.268870,245
2021-12-23 15:19:18.268880,281
2021-12-23 15:19:18.268890,312
2021-12-23 15:19:18.268899,336
2021-12-23 15:19:18.583665,355
2021-12-23 15:19:18.583696,367
2021-12-23 15:19:18.583707,367
2021-12-23 15:19:18.583717,341
2021-12-23 15:19:18.583726,286
2021-12-23 15:19:18.583736,202
2021-12-23 15:19:18.583746,103
2021-12-23 15:19:18.583756,19
2021-12-23 15:19:18.583766,-43
2021-12-23 15:19:18.583775,-86
2021-12-23 15:19:18.583785,-110
2021-12-23 15:19:18.583795,-117
2021-12-23 15:19:18.583805,-120
2021-12-23 15:19:18.583814,-115
2021-12-23 15:19:18.583824,-108
2021-12-23 15:19:18.583834,-103
2021-12-23 15:19:18.583843,-96
2021-12-23 15:19:18.583853,-91
2021-12-23 15:19:18.583863,-84
2021-12-23 15:19:18.583872,-74
2021-12-23 15:19:18.583882,-69
2021-12-23 15:19:18.583891,-60
2021-12-23 15:19:18.583901,-50
2021-12-23 15:19:18.583910,-45
2021-12-23 15:19:18.583920,-38
2021-12-23 15:19:18.583930,-28
2021-12-23 15:19:18.583939,-24
2021-12-23 15:19:18.583949,-21
2021-12-23 15:19:18.583959,-16
2021-12-23 15:19:18.583978,-14
2021-12-23 15:19:18.763178,-9
2021-12-23 15:19:18.763200,-4
2021-12-23 15:19:18.763207,-2
2021-12-23 15:19:18.763213,-2
2021-12-23 15:19:18.763219,-4
2021-12-23 15:19:18.763224,-9
2021-12-23 15:19:18.763230,-9
2021-12-23 15:19:18.763235,-4
2021-12-23 15:19:18.763241,-2
2021-12-23 15:19:18.763245,-2
2021-12-23 15:19:18.763251,-2
2021-12-23 15:19:18.763256,-2
2021-12-23 15:19:18.763261,0
2021-12-23 15:19:18.763266,7
2021-12-23 15:19:18.763271,9
2021-12-23 15:19:18.763276,12
2021-12-23 15:19:18.763281,9
2021-12-23 15:19:18.763286,12
2021-12-23 15:19:18.763291,16
2021-12-23 15:19:18.763296,19
2021-12-23 15:19:18.763301,21
2021-12-23 15:19:18.763306,21
2021-12-23 15:19:18.763311,21
2021-12-23 15:19:18.763316,24
2021-12-23 15:19:18.763321,26
2021-12-23 15:19:18.763326,28
2021-12-23 15:19:18.763331,28
2021-12-23 15:19:18.763336,28
2021-12-23 15:19:18.763341,31
2021-12-23 15:19:18.763346,33
2021-12-23 15:19:18.987546,40
2021-12-23 15:19:18.987567,43
2021-12-23 15:19:18.987574,38
2021-12-23 15:19:18.987581,33
2021-12-23 15:19:18.987587,28
2021-12-23 15:19:18.987594,28
2021-12-23 15:19:18.987600,36
2021-12-23 15:19:18.987606,38
2021-12-23 15:19:18.987612,38
2021-12-23 15:19:18.987619,55
2021-12-23 15:19:18.987625,69
2021-12-23 15:19:18.987631,64
2021-12-23 15:19:18.987638,52
2021-12-23 15:19:18.987644,45
2021-12-23 15:19:18.987650,43
2021-12-23 15:19:18.987657,43
2021-12-23 15:19:18.987663,33
2021-12-23 15:19:18.987669,28
2021-12-23 15:19:18.987675,38
2021-12-23 15:19:18.987682,43
2021-12-23 15:19:18.987688,40
2021-12-23 15:19:18.987694,43
2021-12-23 15:19:18.987701,52
2021-12-23 15:19:18.987707,72
2021-12-23 15:19:18.987713,185
2021-12-23 15:19:18.987719,480
2021-12-23 15:19:18.987726,911
2021-12-23 15:19:18.987732,1123
2021-12-23 15:19:18.987738,512
2021-12-23 15:19:18.987745,-360
2021-12-23 15:19:19.213639,-298
2021-12-23 15:19:19.213665,115
2021-12-23 15:19:19.213673,4
2021-12-23 15:19:19.213680,-110
2021-12-23 15:19:19.213688,7
2021-12-23 15:19:19.213696,12
2021-12-23 15:19:19.213703,-36
2021-12-23 15:19:19.213711,0
2021-12-23 15:19:19.213718,14
2021-12-23 15:19:19.213725,-14
2021-12-23 15:19:19.213732,-12
2021-12-23 15:19:19.213740,9
2021-12-23 15:19:19.213748,16
2021-12-23 15:19:19.213756,21
2021-12-23 15:19:19.213763,36
2021-12-23 15:19:19.213771,43
2021-12-23 15:19:19.213779,50
2021-12-23 15:19:19.213786,67
2021-12-23 15:19:19.213795,84
2021-12-23 15:19:19.213803,98
2021-12-23 15:19:19.213838,125
2021-12-23 15:19:19.213847,151
2021-12-23 15:19:19.213856,175
2021-12-23 15:19:19.213864,204
2021-12-23 15:19:19.213874,242
2021-12-23 15:19:19.213882,281
2021-12-23 15:19:19.213890,312
2021-12-23 15:19:19.213899,336
2021-12-23 15:19:19.213908,360
2021-12-23 15:19:19.213917,375
2021-12-23 15:19:19.438270,375
2021-12-23 15:19:19.438293,358
2021-12-23 15:19:19.438300,303
2021-12-23 15:19:19.438306,211
2021-12-23 15:19:19.438313,115
2021-12-23 15:19:19.438319,31
2021-12-23 15:19:19.438325,-36
2021-12-23 15:19:19.438332,-81
2021-12-23 15:19:19.438338,-108
2021-12-23 15:19:19.438346,-120
2021-12-23 15:19:19.438352,-125
2021-12-23 15:19:19.438358,-125
2021-12-23 15:19:19.438365,-117
2021-12-23 15:19:19.438371,-108
2021-12-23 15:19:19.438377,-110
2021-12-23 15:19:19.438384,-110
2021-12-23 15:19:19.438390,-98
2021-12-23 15:19:19.438396,-86
2021-12-23 15:19:19.438403,-81
2021-12-23 15:19:19.438409,-72
2021-12-23 15:19:19.438415,-64
2021-12-23 15:19:19.438421,-62
2021-12-23 15:19:19.438428,-50
2021-12-23 15:19:19.438434,-38
2021-12-23 15:19:19.438440,-33
2021-12-23 15:19:19.438447,-26
2021-12-23 15:19:19.438453,-19
2021-12-23 15:19:19.438459,-16
2021-12-23 15:19:19.438466,-16
2021-12-23 15:19:19.438472,-12
2021-12-23 15:19:19.706751,-7
2021-12-23 15:19:19.706772,-4
2021-12-23 15:19:19.706779,-4
2021-12-23 15:19:19.706786,-2
2021-12-23 15:19:19.706792,2
2021-12-23 15:19:19.706799,7
2021-12-23 15:19:19.706805,9
2021-12-23 15:19:19.706811,12
2021-12-23 15:19:19.706818,7
2021-12-23 15:19:19.706824,4
2021-12-23 15:19:19.706830,9
2021-12-23 15:19:19.706837,12
2021-12-23 15:19:19.706843,16
2021-12-23 15:19:19.706850,16
2021-12-23 15:19:19.706856,12
2021-12-23 15:19:19.706863,4
2021-12-23 15:19:19.706869,4
2021-12-23 15:19:19.706875,9
2021-12-23 15:19:19.706882,14
2021-12-23 15:19:19.706888,14
2021-12-23 15:19:19.706894,16
2021-12-23 15:19:19.706901,19
2021-12-23 15:19:19.706907,19
2021-12-23 15:19:19.706913,24
2021-12-23 15:19:19.706920,21
2021-12-23 15:19:19.706926,16
2021-12-23 15:19:19.706932,14
2021-12-23 15:19:19.706938,16
2021-12-23 15:19:19.706945,28
2021-12-23 15:19:19.706951,33
2021-12-23 15:19:19.933563,40
2021-12-23 15:19:19.933594,55
2021-12-23 15:19:19.933605,67
2021-12-23 15:19:19.933615,60
2021-12-23 15:19:19.933625,50
2021-12-23 15:19:19.933635,45
2021-12-23 15:19:19.933644,40
2021-12-23 15:19:19.933654,38
2021-12-23 15:19:19.933664,40
2021-12-23 15:19:19.933673,40
2021-12-23 15:19:19.933683,43
2021-12-23 15:19:19.933693,45
2021-12-23 15:19:19.933702,45
2021-12-23 15:19:19.933712,40
2021-12-23 15:19:19.933722,45
2021-12-23 15:19:19.933731,57
2021-12-23 15:19:19.933741,120
2021-12-23 15:19:19.933751,336
2021-12-23 15:19:19.933760,714
2021-12-23 15:19:19.933770,1038
2021-12-23 15:19:19.933780,711
2021-12-23 15:19:19.933789,-187
2021-12-23 15:19:19.933804,-423
2021-12-23 15:19:19.933814,26
2021-12-23 15:19:19.933824,69
2021-12-23 15:19:19.933833,-110
2021-12-23 15:19:19.933843,-26
2021-12-23 15:19:19.933852,33
2021-12-23 15:19:19.933862,-21
2021-12-23 15:19:19.933871,-7
2021-12-23 15:19:20.113721,28
2021-12-23 15:19:20.113751,16
2021-12-23 15:19:20.113762,16
2021-12-23 15:19:20.113772,31
2021-12-23 15:19:20.113782,36
2021-12-23 15:19:20.113791,38
2021-12-23 15:19:20.113801,43
2021-12-23 15:19:20.113811,50
2021-12-23 15:19:20.113821,62
2021-12-23 15:19:20.113830,74
2021-12-23 15:19:20.113840,91
2021-12-23 15:19:20.113850,110
2021-12-23 15:19:20.113859,127
2021-12-23 15:19:20.113869,144
2021-12-23 15:19:20.113878,170
2021-12-23 15:19:20.113888,204
2021-12-23 15:19:20.113897,238
2021-12-23 15:19:20.113907,269
2021-12-23 15:19:20.113917,298
2021-12-23 15:19:20.113926,324
2021-12-23 15:19:20.113936,348
2021-12-23 15:19:20.113945,358
2021-12-23 15:19:20.113955,355
2021-12-23 15:19:20.113964,343
2021-12-23 15:19:20.113974,298
2021-12-23 15:19:20.113984,216
2021-12-23 15:19:20.113994,120
2021-12-23 15:19:20.114003,33
2021-12-23 15:19:20.114013,-36
2021-12-23 15:19:20.114023,-86
2021-12-23 15:19:20.382517,-113
2021-12-23 15:19:20.382549,-120
2021-12-23 15:19:20.382560,-120
2021-12-23 15:19:20.382570,-117
2021-12-23 15:19:20.382580,-113
2021-12-23 15:19:20.382590,-110
2021-12-23 15:19:20.382600,-110
2021-12-23 15:19:20.382609,-101
2021-12-23 15:19:20.382619,-91
2021-12-23 15:19:20.382629,-84
2021-12-23 15:19:20.382638,-76
2021-12-23 15:19:20.382648,-72
2021-12-23 15:19:20.382658,-67
2021-12-23 15:19:20.382667,-60
2021-12-23 15:19:20.382677,-50
2021-12-23 15:19:20.382687,-45
2021-12-23 15:19:20.382697,-40
2021-12-23 15:19:20.382706,-33
2021-12-23 15:19:20.382716,-28
2021-12-23 15:19:20.382726,-28
2021-12-23 15:19:20.382735,-26
2021-12-23 15:19:20.382745,-21
2021-12-23 15:19:20.382755,-16
2021-12-23 15:19:20.382764,-14
2021-12-23 15:19:20.382774,-9
2021-12-23 15:19:20.382784,-7
2021-12-23 15:19:20.382793,-7
2021-12-23 15:19:20.382803,-2
2021-12-23 15:19:20.382813,0
2021-12-23 15:19:20.382823,0
2021-12-23 15:19:20.563602,2
2021-12-23 15:19:20.563632,7
2021-12-23 15:19:20.563644,12
2021-12-23 15:19:20.563654,14
2021-12-23 15:19:20.563664,14
2021-12-23 15:19:20.563674,12
2021-12-23 15:19:20.563684,14
2021-12-23 15:19:20.563693,21
2021-12-23 15:19:20.563703,21
2021-12-23 15:19:20.563713,21
2021-12-23 15:19:20.563722,24
2021-12-23 15:19:20.563732,24
2021-12-23 15:19:20.563742,24
2021-12-23 15:19:20.563751,26
2021-12-23 15:19:20.563761,31
2021-12-23 15:19:20.563770,33
2021-12-23 15:19:20.563780,31
2021-12-23 15:19:20.563790,28
2021-12-23 15:19:20.563800,31
2021-12-23 15:19:20.563809,31
2021-12-23 15:19:20.563819,28
2021-12-23 15:19:20.563828,24
2021-12-23 15:19:20.563838,24
2021-12-23 15:19:20.563848,31
2021-12-23 15:19:20.563857,40
2021-12-23 15:19:20.563867,50
2021-12-23 15:19:20.563877,62
2021-12-23 15:19:20.563886,57
2021-12-23 15:19:20.563896,45
2021-12-23 15:19:20.563906,43
2021-12-23 15:19:20.877162,38
2021-12-23 15:19:20.877190,36
2021-12-23 15:19:20.877201,40
2021-12-23 15:19:20.877212,40
2021-12-23 15:19:20.877222,33
2021-12-23 15:19:20.877236,33
2021-12-23 15:19:20.877246,40
2021-12-23 15:19:20.877255,43
2021-12-23 15:19:20.877265,50
2021-12-23 15:19:20.877275,57
2021-12-23 15:19:20.877285,79
2021-12-23 15:19:20.877294,214
2021-12-23 15:19:20.877305,526
2021-12-23 15:19:20.877314,933
2021-12-23 15:19:20.877324,983
2021-12-23 15:19:20.877334,233
2021-12-23 15:19:20.877343,-447
2021-12-23 15:19:20.877353,-180
2021-12-23 15:19:20.877363,122
2021-12-23 15:19:20.877373,-52
2021-12-23 15:19:20.877383,-88
2021-12-23 15:19:20.877392,26
2021-12-23 15:19:20.877402,-2
2021-12-23 15:19:20.877412,-36
2021-12-23 15:19:20.877421,4
2021-12-23 15:19:20.877431,16
2021-12-23 15:19:20.877441,7
2021-12-23 15:19:20.877451,19
2021-12-23 15:19:20.877461,31
2021-12-23 15:19:20.877470,36
2021-12-23 15:19:21.148243,45
2021-12-23 15:19:21.148266,55
2021-12-23 15:19:21.148273,62
2021-12-23 15:19:21.148280,67
2021-12-23 15:19:21.148287,76
2021-12-23 15:19:21.148293,91
2021-12-23 15:19:21.148299,110
2021-12-23 15:19:21.148306,129
2021-12-23 15:19:21.148312,153
2021-12-23 15:19:21.148318,180
2021-12-23 15:19:21.148325,209
2021-12-23 15:19:21.148331,247
2021-12-23 15:19:21.148337,283
2021-12-23 15:19:21.148344,315
2021-12-23 15:19:21.148350,341
2021-12-23 15:19:21.148357,355
2021-12-23 15:19:21.148363,360
2021-12-23 15:19:21.148369,363
2021-12-23 15:19:21.148376,341
2021-12-23 15:19:21.148382,278
2021-12-23 15:19:21.148388,189
2021-12-23 15:19:21.148395,96
2021-12-23 15:19:21.148401,14
2021-12-23 15:19:21.148407,-43
2021-12-23 15:19:21.148414,-79
2021-12-23 15:19:21.148420,-103
2021-12-23 15:19:21.148426,-113
2021-12-23 15:19:21.148433,-115
2021-12-23 15:19:21.148439,-108
2021-12-23 15:19:21.148445,-101
2021-12-23 15:19:21.283653,-93
2021-12-23 15:19:21.283684,-86
2021-12-23 15:19:21.283695,-86
2021-12-23 15:19:21.283705,-84
2021-12-23 15:19:21.283715,-76
2021-12-23 15:19:21.283724,-64
2021-12-23 15:19:21.283734,-57
2021-12-23 15:19:21.283744,-50
2021-12-23 15:19:21.283753,-43
2021-12-23 15:19:21.283763,-40
2021-12-23 15:19:21.283772,-33
2021-12-23 15:19:21.283782,-24
2021-12-23 15:19:21.283791,-19
2021-12-23 15:19:21.283801,-16
2021-12-23 15:19:21.283811,-14
2021-12-23 15:19:21.283821,-16
2021-12-23 15:19:21.283830,-12
2021-12-23 15:19:21.283840,-7
2021-12-23 15:19:21.283850,-4
2021-12-23 15:19:21.283860,-2
2021-12-23 15:19:21.283869,-2
2021-12-23 15:19:21.283879,-2
2021-12-23 15:19:21.283889,0
2021-12-23 15:19:21.283899,4
2021-12-23 15:19:21.283908,9
2021-12-23 15:19:21.283918,12
2021-12-23 15:19:21.283928,12
2021-12-23 15:19:21.283937,7
2021-12-23 15:19:21.283947,7
2021-12-23 15:19:21.283957,12
2021-12-23 15:19:21.508111,14
2021-12-23 15:19:21.508142,16
2021-12-23 15:19:21.508153,16
2021-12-23 15:19:21.508163,19
2021-12-23 15:19:21.508173,21
2021-12-23 15:19:21.508183,24
2021-12-23 15:19:21.508192,26
2021-12-23 15:19:21.508202,28
2021-12-23 15:19:21.508211,28
2021-12-23 15:19:21.508221,26
2021-12-23 15:19:21.508231,31
2021-12-23 15:19:21.508240,33
2021-12-23 15:19:21.508250,33
2021-12-23 15:19:21.508259,28
2021-12-23 15:19:21.508269,24
2021-12-23 15:19:21.508279,21
2021-12-23 15:19:21.508288,26
2021-12-23 15:19:21.508298,36
2021-12-23 15:19:21.508307,40
2021-12-23 15:19:21.508317,48
2021-12-23 15:19:21.508326,62
2021-12-23 15:19:21.508336,69
2021-12-23 15:19:21.508346,62
2021-12-23 15:19:21.508356,52
2021-12-23 15:19:21.508365,48
2021-12-23 15:19:21.508375,45
2021-12-23 15:19:21.508384,48
2021-12-23 15:19:21.508394,50
2021-12-23 15:19:21.508403,50
2021-12-23 15:19:21.508413,50
2021-12-23 15:19:21.777880,50
2021-12-23 15:19:21.777921,52
2021-12-23 15:19:21.777933,57
2021-12-23 15:19:21.777943,67
2021-12-23 15:19:21.777964,93
2021-12-23 15:19:21.777975,242
2021-12-23 15:19:21.777984,560
2021-12-23 15:19:21.777994,966
2021-12-23 15:19:21.778004,1000
2021-12-23 15:19:21.778013,228
2021-12-23 15:19:21.778023,-444
2021-12-23 15:19:21.778033,-170
2021-12-23 15:19:21.778043,122
2021-12-23 15:19:21.778052,-60
2021-12-23 15:19:21.778062,-93
2021-12-23 15:19:21.778072,24
2021-12-23 15:19:21.778081,-4
2021-12-23 15:19:21.778091,-33
2021-12-23 15:19:21.778101,12
2021-12-23 15:19:21.778110,19
2021-12-23 15:19:21.778120,7
2021-12-23 15:19:21.778129,24
2021-12-23 15:19:21.778139,38
2021-12-23 15:19:21.778148,40
2021-12-23 15:19:21.778158,50
2021-12-23 15:19:21.778168,62
2021-12-23 15:19:21.778177,69
2021-12-23 15:19:21.778187,81
2021-12-23 15:19:21.778196,93
2021-12-23 15:19:21.778206,108
2021-12-23 15:19:21.957815,125
2021-12-23 15:19:21.957837,139
2021-12-23 15:19:21.957845,161
2021-12-23 15:19:21.957851,187
2021-12-23 15:19:21.957857,218
2021-12-23 15:19:21.957864,252
2021-12-23 15:19:21.957870,286
2021-12-23 15:19:21.957876,312
2021-12-23 15:19:21.957883,336
2021-12-23 15:19:21.957889,355
2021-12-23 15:19:21.957895,367
2021-12-23 15:19:21.957902,367
2021-12-23 15:19:21.957908,339
2021-12-23 15:19:21.957915,276
2021-12-23 15:19:21.957921,189
2021-12-23 15:19:21.957927,98
2021-12-23 15:19:21.957934,16
2021-12-23 15:19:21.957940,-43
2021-12-23 15:19:21.957946,-84
2021-12-23 15:19:21.957953,-103
2021-12-23 15:19:21.957959,-108
2021-12-23 15:19:21.957966,-105
2021-12-23 15:19:21.957972,-103
2021-12-23 15:19:21.957978,-96
2021-12-23 15:19:21.957985,-91
2021-12-23 15:19:21.957991,-86
2021-12-23 15:19:21.957997,-79
2021-12-23 15:19:21.958004,-72
2021-12-23 15:19:21.958010,-64
2021-12-23 15:19:21.958016,-57
2021-12-23 15:19:22.228105,-48
2021-12-23 15:19:22.228127,-43
2021-12-23 15:19:22.228134,-33
2021-12-23 15:19:22.228141,-28
2021-12-23 15:19:22.228147,-26
2021-12-23 15:19:22.228154,-24
2021-12-23 15:19:22.228160,-21
2021-12-23 15:19:22.228166,-16
2021-12-23 15:19:22.228173,-12
2021-12-23 15:19:22.228179,-9
2021-12-23 15:19:22.228185,-7
2021-12-23 15:19:22.228192,-9
2021-12-23 15:19:22.228198,-9
2021-12-23 15:19:22.228205,-7
2021-12-23 15:19:22.228211,-9
2021-12-23 15:19:22.228217,-14
2021-12-23 15:19:22.228224,-12
2021-12-23 15:19:22.228230,-7
2021-12-23 15:19:22.228237,-4
2021-12-23 15:19:22.228243,0
2021-12-23 15:19:22.228249,4
2021-12-23 15:19:22.228256,7
2021-12-23 15:19:22.228262,9
2021-12-23 15:19:22.228268,12
2021-12-23 15:19:22.228275,14
2021-12-23 15:19:22.228281,19
2021-12-23 15:19:22.228287,24
2021-12-23 15:19:22.228293,24
2021-12-23 15:19:22.228299,26
2021-12-23 15:19:22.228306,28
2021-12-23 15:19:22.408266,31
2021-12-23 15:19:22.408288,33
2021-12-23 15:19:22.408296,36
2021-12-23 15:19:22.408302,38
2021-12-23 15:19:22.408309,38
2021-12-23 15:19:22.408315,40
2021-12-23 15:19:22.408321,36
2021-12-23 15:19:22.408327,33
2021-12-23 15:19:22.408333,33
2021-12-23 15:19:22.408340,31
2021-12-23 15:19:22.408346,33
2021-12-23 15:19:22.408352,36
2021-12-23 15:19:22.408358,40
2021-12-23 15:19:22.408364,52
2021-12-23 15:19:22.408371,67
2021-12-23 15:19:22.408377,74
2021-12-23 15:19:22.408383,62
2021-12-23 15:19:22.408389,50
2021-12-23 15:19:22.408396,45
2021-12-23 15:19:22.408402,43
2021-12-23 15:19:22.408408,45
2021-12-23 15:19:22.408414,45
2021-12-23 15:19:22.408420,45
2021-12-23 15:19:22.408427,45
2021-12-23 15:19:22.408433,50
2021-12-23 15:19:22.408439,52
2021-12-23 15:19:22.408445,60
2021-12-23 15:19:22.408452,67
2021-12-23 15:19:22.408458,96
2021-12-23 15:19:22.408464,238
2021-12-23 15:19:22.678575,557
2021-12-23 15:19:22.678596,971
2021-12-23 15:19:22.678603,1034
2021-12-23 15:19:22.678610,281
2021-12-23 15:19:22.678616,-420
2021-12-23 15:19:22.678623,-170
2021-12-23 15:19:22.678629,137
2021-12-23 15:19:22.678635,-43
2021-12-23 15:19:22.678642,-86
2021-12-23 15:19:22.678648,26
2021-12-23 15:19:22.678654,-2
2021-12-23 15:19:22.678684,-31
2021-12-23 15:19:22.678691,14
2021-12-23 15:19:22.678698,19
2021-12-23 15:19:22.678704,4
2021-12-23 15:19:22.678710,21
2021-12-23 15:19:22.678716,33
2021-12-23 15:19:22.678723,38
2021-12-23 15:19:22.678729,50
2021-12-23 15:19:22.678735,57
2021-12-23 15:19:22.678741,60
2021-12-23 15:19:22.678748,72
2021-12-23 15:19:22.678754,88
2021-12-23 15:19:22.678760,103
2021-12-23 15:19:22.678767,117
2021-12-23 15:19:22.678773,139
2021-12-23 15:19:22.678779,161
2021-12-23 15:19:22.678785,182
2021-12-23 15:19:22.678791,214
2021-12-23 15:19:22.678797,245
2021-12-23 15:19:22.903152,278
2021-12-23 15:19:22.903182,312
2021-12-23 15:19:22.903194,336
2021-12-23 15:19:22.903204,346
2021-12-23 15:19:22.903214,353
2021-12-23 15:19:22.903224,358
2021-12-23 15:19:22.903234,336
2021-12-23 15:19:22.903243,274
2021-12-23 15:19:22.903253,187
2021-12-23 15:19:22.903263,96
2021-12-23 15:19:22.903273,12
2021-12-23 15:19:22.903282,-52
2021-12-23 15:19:22.903292,-91
2021-12-23 15:19:22.903302,-105
2021-12-23 15:19:22.903311,-115
2021-12-23 15:19:22.903321,-122
2021-12-23 15:19:22.903331,-120
2021-12-23 15:19:22.903341,-108
2021-12-23 15:19:22.903350,-103
2021-12-23 15:19:22.903360,-98
2021-12-23 15:19:22.903370,-91
2021-12-23 15:19:22.903379,-88
2021-12-23 15:19:22.903389,-84
2021-12-23 15:19:22.903399,-67
2021-12-23 15:19:22.903408,-57
2021-12-23 15:19:22.903418,-52
2021-12-23 15:19:22.903427,-45
2021-12-23 15:19:22.903437,-40
2021-12-23 15:19:22.903447,-36
2021-12-23 15:19:22.903456,-24
2021-12-23 15:19:23.173144,-19
2021-12-23 15:19:23.173174,-26
2021-12-23 15:19:23.173185,-19
2021-12-23 15:19:23.173195,-7
2021-12-23 15:19:23.173204,-9
2021-12-23 15:19:23.173214,-12
2021-12-23 15:19:23.173224,-2
2021-12-23 15:19:23.173233,7
2021-12-23 15:19:23.173243,0
2021-12-23 15:19:23.173253,-9
2021-12-23 15:19:23.173263,-2
2021-12-23 15:19:23.173272,4
2021-12-23 15:19:23.173283,-4
2021-12-23 15:19:23.173292,-9
2021-12-23 15:19:23.173302,-4
2021-12-23 15:19:23.173311,-2
2021-12-23 15:19:23.173321,7
2021-12-23 15:19:23.173331,14
2021-12-23 15:19:23.173340,4
2021-12-23 15:19:23.173350,4
2021-12-23 15:19:23.173360,24
2021-12-23 15:19:23.173369,26
2021-12-23 15:19:23.173379,12
2021-12-23 15:19:23.173388,19
2021-12-23 15:19:23.173398,24
2021-12-23 15:19:23.173407,16
2021-12-23 15:19:23.173417,9
2021-12-23 15:19:23.173426,9
2021-12-23 15:19:23.173436,12
2021-12-23 15:19:23.173446,14
2021-12-23 15:19:23.353614,16
2021-12-23 15:19:23.353644,24
2021-12-23 15:19:23.353656,36
2021-12-23 15:19:23.353666,50
2021-12-23 15:19:23.353676,57
2021-12-23 15:19:23.353686,48
2021-12-23 15:19:23.353696,40
2021-12-23 15:19:23.353705,38
2021-12-23 15:19:23.353715,36
2021-12-23 15:19:23.353725,36
2021-12-23 15:19:23.353734,33
2021-12-23 15:19:23.353744,31
2021-12-23 15:19:23.353754,31
2021-12-23 15:19:23.353764,36
2021-12-23 15:19:23.353773,38
2021-12-23 15:19:23.353783,43
2021-12-23 15:19:23.353793,57
2021-12-23 15:19:23.353803,88
2021-12-23 15:19:23.353812,209
2021-12-23 15:19:23.353822,502
2021-12-23 15:19:23.353832,909
2021-12-23 15:19:23.353841,1024
2021-12-23 15:19:23.353851,343
2021-12-23 15:19:23.353861,-413
2021-12-23 15:19:23.353871,-238
2021-12-23 15:19:23.353880,120
2021-12-23 15:19:23.353890,-21
2021-12-23 15:19:23.353900,-96
2021-12-23 15:19:23.353910,24
2021-12-23 15:19:23.353919,14
2021-12-23 15:19:23.578141,-24
2021-12-23 15:19:23.578171,16
2021-12-23 15:19:23.578182,33
2021-12-23 15:19:23.578192,24
2021-12-23 15:19:23.578202,33
2021-12-23 15:19:23.578212,45
2021-12-23 15:19:23.578221,52
2021-12-23 15:19:23.578231,62
2021-12-23 15:19:23.578241,62
2021-12-23 15:19:23.578250,67
2021-12-23 15:19:23.578260,86
2021-12-23 15:19:23.578269,110
2021-12-23 15:19:23.578279,125
2021-12-23 15:19:23.578289,134
2021-12-23 15:19:23.578298,151
2021-12-23 15:19:23.578308,175
2021-12-23 15:19:23.578317,197
2021-12-23 15:19:23.578327,233
2021-12-23 15:19:23.578337,278
2021-12-23 15:19:23.578346,300
2021-12-23 15:19:23.578356,322
2021-12-23 15:19:23.578366,358
2021-12-23 15:19:23.578375,372
2021-12-23 15:19:23.578385,377
2021-12-23 15:19:23.578394,382
2021-12-23 15:19:23.578404,351
2021-12-23 15:19:23.578413,271
2021-12-23 15:19:23.578423,185
2021-12-23 15:19:23.578432,96
2021-12-23 15:19:23.578442,9
2021-12-23 15:19:23.847107,-52
2021-12-23 15:19:23.847136,-93
2021-12-23 15:19:23.847147,-125
2021-12-23 15:19:23.847157,-134
2021-12-23 15:19:23.847167,-122
2021-12-23 15:19:23.847176,-120
2021-12-23 15:19:23.847186,-120
2021-12-23 15:19:23.847196,-105
2021-12-23 15:19:23.847214,-101
2021-12-23 15:19:23.847224,-115
2021-12-23 15:19:23.847233,-103
2021-12-23 15:19:23.847243,-69
2021-12-23 15:19:23.847253,-67
2021-12-23 15:19:23.847262,-81
2021-12-23 15:19:23.847272,-69
2021-12-23 15:19:23.847281,-48
2021-12-23 15:19:23.847291,-40
2021-12-23 15:19:23.847300,-38
2021-12-23 15:19:23.847310,-36
2021-12-23 15:19:23.847319,-36
2021-12-23 15:19:23.847329,-31
2021-12-23 15:19:23.847339,-21
2021-12-23 15:19:23.847348,-14
2021-12-23 15:19:23.847358,-12
2021-12-23 15:19:23.847367,-7
2021-12-23 15:19:23.847377,-7
2021-12-23 15:19:23.847386,-7
2021-12-23 15:19:23.847396,-12
2021-12-23 15:19:23.847405,-9
2021-12-23 15:19:23.847415,4
2021-12-23 15:19:24.028167,0
2021-12-23 15:19:24.028197,-2
2021-12-23 15:19:24.028209,9
2021-12-23 15:19:24.028219,12
2021-12-23 15:19:24.028229,2
2021-12-23 15:19:24.028238,-2
2021-12-23 15:19:24.028248,-4
2021-12-23 15:19:24.028258,2
2021-12-23 15:19:24.028268,14
2021-12-23 15:19:24.028278,19
2021-12-23 15:19:24.028287,24
2021-12-23 15:19:24.028297,40
2021-12-23 15:19:24.028307,48
2021-12-23 15:19:24.028316,36
2021-12-23 15:19:24.028326,26
2021-12-23 15:19:24.028336,24
2021-12-23 15:19:24.028345,24
2021-12-23 15:19:24.028355,26
2021-12-23 15:19:24.028365,26
2021-12-23 15:19:24.028374,26
2021-12-23 15:19:24.028384,26
2021-12-23 15:19:24.028393,28
2021-12-23 15:19:24.028403,31
2021-12-23 15:19:24.028413,33
2021-12-23 15:19:24.028422,50
2021-12-23 15:19:24.028432,79
2021-12-23 15:19:24.028442,182
2021-12-23 15:19:24.028452,447
2021-12-23 15:19:24.028461,822
2021-12-23 15:19:24.028471,959
2021-12-23 15:19:24.252956,367
2021-12-23 15:19:24.252972,-382
2021-12-23 15:19:24.252978,-271
2021-12-23 15:19:24.252984,101
2021-12-23 15:19:24.252989,-4
2021-12-23 15:19:24.252994,-93
2021-12-23 15:19:24.252999,16
2021-12-23 15:19:24.253004,16
2021-12-23 15:19:24.253009,-31
2021-12-23 15:19:24.253014,2
2021-12-23 15:19:24.253019,24
2021-12-23 15:19:24.253024,9
2021-12-23 15:19:24.253029,19
2021-12-23 15:19:24.253034,33
2021-12-23 15:19:24.253039,36
2021-12-23 15:19:24.253044,45
2021-12-23 15:19:24.253049,57
2021-12-23 15:19:24.253054,69
2021-12-23 15:19:24.253059,81
2021-12-23 15:19:24.253064,98
2021-12-23 15:19:24.253069,113
2021-12-23 15:19:24.253074,127
2021-12-23 15:19:24.253079,141
2021-12-23 15:19:24.253084,161
2021-12-23 15:19:24.253089,189
2021-12-23 15:19:24.253094,223
2021-12-23 15:19:24.253100,254
2021-12-23 15:19:24.253105,288
2021-12-23 15:19:24.253110,317
2021-12-23 15:19:24.253115,336
2021-12-23 15:19:24.523644,351
2021-12-23 15:19:24.523674,360
2021-12-23 15:19:24.523685,351
2021-12-23 15:19:24.523696,307
2021-12-23 15:19:24.523705,230
2021-12-23 15:19:24.523715,137
2021-12-23 15:19:24.523725,50
2021-12-23 15:19:24.523735,-24
2021-12-23 15:19:24.523745,-76
2021-12-23 15:19:24.523754,-105
2021-12-23 15:19:24.523764,-117
2021-12-23 15:19:24.523774,-120
2021-12-23 15:19:24.523783,-115
2021-12-23 15:19:24.523793,-113
2021-12-23 15:19:24.523803,-110
2021-12-23 15:19:24.523812,-108
2021-12-23 15:19:24.523822,-105
2021-12-23 15:19:24.523832,-98
2021-12-23 15:19:24.523841,-91
2021-12-23 15:19:24.523851,-81
2021-12-23 15:19:24.523860,-74
2021-12-23 15:19:24.523870,-69
2021-12-23 15:19:24.523880,-62
2021-12-23 15:19:24.523890,-57
2021-12-23 15:19:24.523899,-52
2021-12-23 15:19:24.523909,-40
2021-12-23 15:19:24.523919,-31
2021-12-23 15:19:24.523928,-31
2021-12-23 15:19:24.523938,-31
2021-12-23 15:19:24.523948,-24
2021-12-23 15:19:24.837725,-16
2021-12-23 15:19:24.837740,-14
2021-12-23 15:19:24.837745,-16
2021-12-23 15:19:24.837750,-16
2021-12-23 15:19:24.837754,-12
2021-12-23 15:19:24.837759,-7
2021-12-23 15:19:24.837763,-9
2021-12-23 15:19:24.837768,-7
2021-12-23 15:19:24.837772,-2
2021-12-23 15:19:24.837776,-2
2021-12-23 15:19:24.837781,-2
2021-12-23 15:19:24.837785,-2
2021-12-23 15:19:24.837790,-2
2021-12-23 15:19:24.837794,-2
2021-12-23 15:19:24.837798,-2
2021-12-23 15:19:24.837803,-7
2021-12-23 15:19:24.837807,-7
2021-12-23 15:19:24.837812,-4
2021-12-23 15:19:24.837816,-4
2021-12-23 15:19:24.837820,-7
2021-12-23 15:19:24.837825,-4
2021-12-23 15:19:24.837829,4
2021-12-23 15:19:24.837834,14
2021-12-23 15:19:24.837838,21
2021-12-23 15:19:24.837842,36
2021-12-23 15:19:24.837847,43
2021-12-23 15:19:24.837851,33
2021-12-23 15:19:24.837856,16
2021-12-23 15:19:24.837860,12
2021-12-23 15:19:24.837865,24
2021-12-23 15:19:24.972803,31
2021-12-23 15:19:24.972824,33
2021-12-23 15:19:24.972834,43
2021-12-23 15:19:24.972842,40
2021-12-23 15:19:24.972851,43
2021-12-23 15:19:24.972859,52
2021-12-23 15:19:24.972867,60
2021-12-23 15:19:24.972875,74
2021-12-23 15:19:24.972883,146
2021-12-23 15:19:24.972891,360
2021-12-23 15:19:24.972898,728
2021-12-23 15:19:24.972906,1074
2021-12-23 15:19:24.972914,786
2021-12-23 15:19:24.972922,-117
2021-12-23 15:19:24.972930,-391
2021-12-23 15:19:24.972938,40
2021-12-23 15:19:24.972946,84
2021-12-23 15:19:24.972954,-103
2021-12-23 15:19:24.972961,-16
2021-12-23 15:19:24.972969,48
2021-12-23 15:19:24.972977,-12
2021-12-23 15:19:24.972985,0
2021-12-23 15:19:24.972993,36
2021-12-23 15:19:24.973005,26
2021-12-23 15:19:24.973013,28
2021-12-23 15:19:24.973021,48
2021-12-23 15:19:24.973029,48
2021-12-23 15:19:24.973037,45
2021-12-23 15:19:24.973044,55
2021-12-23 15:19:24.973052,64
2021-12-23 15:19:25.198609,74
2021-12-23 15:19:25.198630,91
2021-12-23 15:19:25.198638,101
2021-12-23 15:19:25.198644,117
2021-12-23 15:19:25.198650,141
2021-12-23 15:19:25.198657,163
2021-12-23 15:19:25.198663,189
2021-12-23 15:19:25.198670,221
2021-12-23 15:19:25.198676,254
2021-12-23 15:19:25.198682,290
2021-12-23 15:19:25.198689,327
2021-12-23 15:19:25.198695,353
2021-12-23 15:19:25.198702,375
2021-12-23 15:19:25.198708,389
2021-12-23 15:19:25.198715,389
2021-12-23 15:19:25.198721,363
2021-12-23 15:19:25.198727,307
2021-12-23 15:19:25.198734,218
2021-12-23 15:19:25.198740,117
2021-12-23 15:19:25.198747,28
2021-12-23 15:19:25.198753,-38
2021-12-23 15:19:25.198760,-81
2021-12-23 15:19:25.198766,-101
2021-12-23 15:19:25.198773,-103
2021-12-23 15:19:25.198779,-103
2021-12-23 15:19:25.198785,-101
2021-12-23 15:19:25.198792,-93
2021-12-23 15:19:25.198798,-88
2021-12-23 15:19:25.198805,-81
2021-12-23 15:19:25.198811,-76
2021-12-23 15:19:25.467570,-72
2021-12-23 15:19:25.467600,-69
2021-12-23 15:19:25.467611,-64
2021-12-23 15:19:25.467622,-57
2021-12-23 15:19:25.467631,-50
2021-12-23 15:19:25.467641,-45
2021-12-23 15:19:25.467651,-43
2021-12-23 15:19:25.467660,-40
2021-12-23 15:19:25.467670,-40
2021-12-23 15:19:25.467679,-36
2021-12-23 15:19:25.467689,-33
2021-12-23 15:19:25.467699,-28
2021-12-23 15:19:25.467709,-26
2021-12-23 15:19:25.467719,-28
2021-12-23 15:19:25.467728,-28
2021-12-23 15:19:25.467738,-21
2021-12-23 15:19:25.467747,-16
2021-12-23 15:19:25.467757,-16
2021-12-23 15:19:25.467767,-14
2021-12-23 15:19:25.467776,-12
2021-12-23 15:19:25.467786,-9
2021-12-23 15:19:25.467795,-7
2021-12-23 15:19:25.467805,-2
2021-12-23 15:19:25.467815,2
2021-12-23 15:19:25.467824,4
2021-12-23 15:19:25.467834,7
2021-12-23 15:19:25.467843,9
2021-12-23 15:19:25.467853,12
2021-12-23 15:19:25.467862,14
2021-12-23 15:19:25.467872,16
2021-12-23 15:19:25.648620,19
2021-12-23 15:19:25.648649,19
2021-12-23 15:19:25.648661,14
2021-12-23 15:19:25.648671,9
2021-12-23 15:19:25.648680,9
2021-12-23 15:19:25.648690,16
2021-12-23 15:19:25.648700,24
2021-12-23 15:19:25.648709,24
2021-12-23 15:19:25.648720,33
2021-12-23 15:19:25.648729,50
2021-12-23 15:19:25.648739,57
2021-12-23 15:19:25.648748,50
2021-12-23 15:19:25.648758,40
2021-12-23 15:19:25.648768,33
2021-12-23 15:19:25.648777,31
2021-12-23 15:19:25.648787,36
2021-12-23 15:19:25.648796,36
2021-12-23 15:19:25.648806,38
2021-12-23 15:19:25.648816,38
2021-12-23 15:19:25.648825,40
2021-12-23 15:19:25.648835,43
2021-12-23 15:19:25.648845,52
2021-12-23 15:19:25.648854,62
2021-12-23 15:19:25.648864,103
2021-12-23 15:19:25.648874,271
2021-12-23 15:19:25.648883,606
2021-12-23 15:19:25.648893,1007
2021-12-23 15:19:25.648903,969
2021-12-23 15:19:25.648912,137
2021-12-23 15:19:25.648922,-449
2021-12-23 15:19:25.917288,-105
2021-12-23 15:19:25.917320,129
2021-12-23 15:19:25.917331,-69
2021-12-23 15:19:25.917342,-67
2021-12-23 15:19:25.917351,38
2021-12-23 15:19:25.917361,-7
2021-12-23 15:19:25.917371,-26
2021-12-23 15:19:25.917380,19
2021-12-23 15:19:25.917390,24
2021-12-23 15:19:25.917399,14
2021-12-23 15:19:25.917409,33
2021-12-23 15:19:25.917451,43
2021-12-23 15:19:25.917468,43
2021-12-23 15:19:25.917485,52
2021-12-23 15:19:25.917501,67
2021-12-23 15:19:25.917520,76
2021-12-23 15:19:25.917562,86
2021-12-23 15:19:25.917576,103
2021-12-23 15:19:25.917587,117
2021-12-23 15:19:25.917596,137
2021-12-23 15:19:25.917606,161
2021-12-23 15:19:25.917616,187
2021-12-23 15:19:25.917626,218
2021-12-23 15:19:25.917636,252
2021-12-23 15:19:25.917645,290
2021-12-23 15:19:25.917655,324
2021-12-23 15:19:25.917665,353
2021-12-23 15:19:25.917674,375
2021-12-23 15:19:25.917689,391
2021-12-23 15:19:25.917714,401
2021-12-23 15:19:26.143168,387
2021-12-23 15:19:26.143191,341
2021-12-23 15:19:26.143198,264
2021-12-23 15:19:26.143205,168
2021-12-23 15:19:26.143211,74
2021-12-23 15:19:26.143218,-2
2021-12-23 15:19:26.143224,-57
2021-12-23 15:19:26.143231,-84
2021-12-23 15:19:26.143237,-93
2021-12-23 15:19:26.143243,-96
2021-12-23 15:19:26.143250,-98
2021-12-23 15:19:26.143256,-98
2021-12-23 15:19:26.143262,-93
2021-12-23 15:19:26.143268,-86
2021-12-23 15:19:26.143275,-79
2021-12-23 15:19:26.143281,-74
2021-12-23 15:19:26.143287,-69
2021-12-23 15:19:26.143294,-62
2021-12-23 15:19:26.143300,-57
2021-12-23 15:19:26.143306,-48
2021-12-23 15:19:26.143312,-43
2021-12-23 15:19:26.143318,-38
2021-12-23 15:19:26.143325,-33
2021-12-23 15:19:26.143331,-28
2021-12-23 15:19:26.143337,-21
2021-12-23 15:19:26.143344,-16
2021-12-23 15:19:26.143350,-12
2021-12-23 15:19:26.143356,-7
2021-12-23 15:19:26.143363,-4
2021-12-23 15:19:26.143369,-7
2021-12-23 15:19:26.457528,-9
2021-12-23 15:19:26.457549,-14
2021-12-23 15:19:26.457555,-14
2021-12-23 15:19:26.457561,-14
2021-12-23 15:19:26.457566,-21
2021-12-23 15:19:26.457571,-24
2021-12-23 15:19:26.457576,-19
2021-12-23 15:19:26.457581,-16
2021-12-23 15:19:26.457586,-21
2021-12-23 15:19:26.457592,-21
2021-12-23 15:19:26.457597,-19
2021-12-23 15:19:26.457602,-16
2021-12-23 15:19:26.457607,-14
2021-12-23 15:19:26.457612,-12
2021-12-23 15:19:26.457617,-12
2021-12-23 15:19:26.457622,-9
2021-12-23 15:19:26.457627,-9
2021-12-23 15:19:26.457632,-4
2021-12-23 15:19:26.457637,0
2021-12-23 15:19:26.457643,4
2021-12-23 15:19:26.457648,4
2021-12-23 15:19:26.457653,2
2021-12-23 15:19:26.457658,-2
2021-12-23 15:19:26.457663,-2
2021-12-23 15:19:26.457668,4
2021-12-23 15:19:26.457673,14
2021-12-23 15:19:26.457678,19
2021-12-23 15:19:26.457683,26
2021-12-23 15:19:26.457688,43
2021-12-23 15:19:26.457697,52
2021-12-23 15:19:26.592850,48
2021-12-23 15:19:26.592870,40
2021-12-23 15:19:26.592881,36
2021-12-23 15:19:26.592890,31
2021-12-23 15:19:26.592900,31
2021-12-23 15:19:26.592909,33
2021-12-23 15:19:26.592918,33
2021-12-23 15:19:26.592927,36
2021-12-23 15:19:26.592936,40
2021-12-23 15:19:26.592946,40
2021-12-23 15:19:26.592955,43
2021-12-23 15:19:26.592978,50
2021-12-23 15:19:26.592987,74
2021-12-23 15:19:26.592996,197
2021-12-23 15:19:26.593005,495
2021-12-23 15:19:26.593014,918
2021-12-23 15:19:26.593023,1082
2021-12-23 15:19:26.593032,430
2021-12-23 15:19:26.593041,-384
2021-12-23 15:19:26.593050,-254
2021-12-23 15:19:26.593059,122
2021-12-23 15:19:26.593068,-19
2021-12-23 15:19:26.593077,-108
2021-12-23 15:19:26.593086,19
2021-12-23 15:19:26.593095,16
2021-12-23 15:19:26.593104,-26
2021-12-23 15:19:26.593113,12
2021-12-23 15:19:26.593121,24
2021-12-23 15:19:26.593130,9
2021-12-23 15:19:26.593139,24
2021-12-23 15:19:26.862665,40
2021-12-23 15:19:26.862686,40
2021-12-23 15:19:26.862694,50
2021-12-23 15:19:26.862700,62
2021-12-23 15:19:26.862707,69
2021-12-23 15:19:26.862713,79
2021-12-23 15:19:26.862720,91
2021-12-23 15:19:26.862726,105
2021-12-23 15:19:26.862732,122
2021-12-23 15:19:26.862739,139
2021-12-23 15:19:26.862745,163
2021-12-23 15:19:26.862751,192
2021-12-23 15:19:26.862758,226
2021-12-23 15:19:26.862764,257
2021-12-23 15:19:26.862771,293
2021-12-23 15:19:26.862777,319
2021-12-23 15:19:26.862784,343
2021-12-23 15:19:26.862790,365
2021-12-23 15:19:26.862797,377
2021-12-23 15:19:26.862803,375
2021-12-23 15:19:26.862809,346
2021-12-23 15:19:26.862816,278
2021-12-23 15:19:26.862822,187
2021-12-23 15:19:26.862829,96
2021-12-23 15:19:26.862835,14
2021-12-23 15:19:26.862841,-45
2021-12-23 15:19:26.862848,-81
2021-12-23 15:19:26.862855,-101
2021-12-23 15:19:26.862861,-108
2021-12-23 15:19:26.862867,-105
2021-12-23 15:19:27.043158,-103
2021-12-23 15:19:27.043189,-98
2021-12-23 15:19:27.043201,-93
2021-12-23 15:19:27.043211,-91
2021-12-23 15:19:27.043221,-84
2021-12-23 15:19:27.043231,-74
2021-12-23 15:19:27.043241,-69
2021-12-23 15:19:27.043250,-62
2021-12-23 15:19:27.043260,-60
2021-12-23 15:19:27.043270,-55
2021-12-23 15:19:27.043280,-45
2021-12-23 15:19:27.043290,-38
2021-12-23 15:19:27.043299,-33
2021-12-23 15:19:27.043309,-28
2021-12-23 15:19:27.043319,-24
2021-12-23 15:19:27.043329,-24
2021-12-23 15:19:27.043338,-19
2021-12-23 15:19:27.043348,-14
2021-12-23 15:19:27.043358,-12
2021-12-23 15:19:27.043368,-14
2021-12-23 15:19:27.043377,-16
2021-12-23 15:19:27.043387,-16
2021-12-23 15:19:27.043397,-16
2021-12-23 15:19:27.043407,-16
2021-12-23 15:19:27.043416,-14
2021-12-23 15:19:27.043426,-12
2021-12-23 15:19:27.043436,-14
2021-12-23 15:19:27.043446,-14
2021-12-23 15:19:27.043456,-9
2021-12-23 15:19:27.043465,-7
2021-12-23 15:19:27.267613,-4
2021-12-23 15:19:27.267636,0
2021-12-23 15:19:27.267644,-2
2021-12-23 15:19:27.267650,0
2021-12-23 15:19:27.267657,0
2021-12-23 15:19:27.267663,0
2021-12-23 15:19:27.267670,4
2021-12-23 15:19:27.267676,9
2021-12-23 15:19:27.267683,9
2021-12-23 15:19:27.267689,7
2021-12-23 15:19:27.267695,7
2021-12-23 15:19:27.267702,7
2021-12-23 15:19:27.267708,2
2021-12-23 15:19:27.267714,-4
2021-12-23 15:19:27.267720,-7
2021-12-23 15:19:27.267727,-7
2021-12-23 15:19:27.267733,0
2021-12-23 15:19:27.267739,4
2021-12-23 15:19:27.267746,12
2021-12-23 15:19:27.267752,24
2021-12-23 15:19:27.267758,40
2021-12-23 15:19:27.267765,45
2021-12-23 15:19:27.267771,38
2021-12-23 15:19:27.267777,33
2021-12-23 15:19:27.267784,31
2021-12-23 15:19:27.267790,28
2021-12-23 15:19:27.267796,31
2021-12-23 15:19:27.267803,31
2021-12-23 15:19:27.267809,36
2021-12-23 15:19:27.267822,38
2021-12-23 15:19:27.493607,40
2021-12-23 15:19:27.493638,40
2021-12-23 15:19:27.493649,48
2021-12-23 15:19:27.493659,57
2021-12-23 15:19:27.493669,88
2021-12-23 15:19:27.493678,240
2021-12-23 15:19:27.493688,569
2021-12-23 15:19:27.493698,985
2021-12-23 15:19:27.493708,1026
2021-12-23 15:19:27.493717,242
2021-12-23 15:19:27.493727,-440
2021-12-23 15:19:27.493737,-161
2021-12-23 15:19:27.493747,129
2021-12-23 15:19:27.493756,-60
2021-12-23 15:19:27.493766,-88
2021-12-23 15:19:27.493776,31
2021-12-23 15:19:27.493786,0
2021-12-23 15:19:27.493795,-26
2021-12-23 15:19:27.493805,16
2021-12-23 15:19:27.493816,21
2021-12-23 15:19:27.493825,9
2021-12-23 15:19:27.493835,28
2021-12-23 15:19:27.493845,40
2021-12-23 15:19:27.493854,43
2021-12-23 15:19:27.493864,52
2021-12-23 15:19:27.493873,67
2021-12-23 15:19:27.493883,79
2021-12-23 15:19:27.493893,91
2021-12-23 15:19:27.493902,108
2021-12-23 15:19:27.493912,125
2021-12-23 15:19:27.718422,141
2021-12-23 15:19:27.718444,163
2021-12-23 15:19:27.718451,189
2021-12-23 15:19:27.718457,218
2021-12-23 15:19:27.718463,250
2021-12-23 15:19:27.718470,286
2021-12-23 15:19:27.718476,315
2021-12-23 15:19:27.718482,341
2021-12-23 15:19:27.718488,363
2021-12-23 15:19:27.718494,377
2021-12-23 15:19:27.718501,387
2021-12-23 15:19:27.718507,382
2021-12-23 15:19:27.718514,346
2021-12-23 15:19:27.718520,276
2021-12-23 15:19:27.718526,189
2021-12-23 15:19:27.718533,96
2021-12-23 15:19:27.718539,14
2021-12-23 15:19:27.718545,-48
2021-12-23 15:19:27.718551,-86
2021-12-23 15:19:27.718558,-103
2021-12-23 15:19:27.718564,-108
2021-12-23 15:19:27.718570,-113
2021-12-23 15:19:27.718576,-110
2021-12-23 15:19:27.718583,-103
2021-12-23 15:19:27.718589,-98
2021-12-23 15:19:27.718595,-93
2021-12-23 15:19:27.718601,-84
2021-12-23 15:19:27.718607,-81
2021-12-23 15:19:27.718614,-76
2021-12-23 15:19:27.718620,-72
2021-12-23 15:19:27.986492,-67
2021-12-23 15:19:27.986520,-62
2021-12-23 15:19:27.986534,-55
2021-12-23 15:19:27.986545,-48
2021-12-23 15:19:27.986556,-43
2021-12-23 15:19:27.986567,-43
2021-12-23 15:19:27.986577,-40
2021-12-23 15:19:27.986587,-33
2021-12-23 15:19:27.986597,-26
2021-12-23 15:19:27.986608,-26
2021-12-23 15:19:27.986619,-24
2021-12-23 15:19:27.986631,-26
2021-12-23 15:19:27.986702,-24
2021-12-23 15:19:27.986734,-19
2021-12-23 15:19:27.986747,-16
2021-12-23 15:19:27.986759,-16
2021-12-23 15:19:27.986770,-16
2021-12-23 15:19:27.986780,-12
2021-12-23 15:19:27.986791,-9
2021-12-23 15:19:27.986801,-7
2021-12-23 15:19:27.986811,-4
2021-12-23 15:19:27.986820,-2
2021-12-23 15:19:27.986832,0
2021-12-23 15:19:27.986844,-2
2021-12-23 15:19:27.986855,0
2021-12-23 15:19:27.986866,4
2021-12-23 15:19:27.986878,9
2021-12-23 15:19:27.986889,12
2021-12-23 15:19:27.986903,12
2021-12-23 15:19:27.986914,12
2021-12-23 15:19:28.168587,9
2021-12-23 15:19:28.168617,14
2021-12-23 15:19:28.168629,24
2021-12-23 15:19:28.168638,26
2021-12-23 15:19:28.168648,19
2021-12-23 15:19:28.168658,16
2021-12-23 15:19:28.168668,19
2021-12-23 15:19:28.168677,19
2021-12-23 15:19:28.168687,16
2021-12-23 15:19:28.168696,14
2021-12-23 15:19:28.168706,19
2021-12-23 15:19:28.168715,26
2021-12-23 15:19:28.168725,33
2021-12-23 15:19:28.168735,48
2021-12-23 15:19:28.168744,57
2021-12-23 15:19:28.168754,55
2021-12-23 15:19:28.168764,43
2021-12-23 15:19:28.168773,36
2021-12-23 15:19:28.168783,43
2021-12-23 15:19:28.168792,48
2021-12-23 15:19:28.168802,45
2021-12-23 15:19:28.168812,43
2021-12-23 15:19:28.168821,48
2021-12-23 15:19:28.168831,45
2021-12-23 15:19:28.168840,38
2021-12-23 15:19:28.168850,43
2021-12-23 15:19:28.168859,52
2021-12-23 15:19:28.168869,69
2021-12-23 15:19:28.168879,189
2021-12-23 15:19:28.168888,485
2021-12-23 15:19:28.438018,916
2021-12-23 15:19:28.438048,1113
2021-12-23 15:19:28.438059,471
2021-12-23 15:19:28.438069,-384
2021-12-23 15:19:28.438079,-276
2021-12-23 15:19:28.438089,120
2021-12-23 15:19:28.438098,-16
2021-12-23 15:19:28.438108,-117
2021-12-23 15:19:28.438118,16
2021-12-23 15:19:28.438127,14
2021-12-23 15:19:28.438137,-45
2021-12-23 15:19:28.438147,-2
2021-12-23 15:19:28.438156,26
2021-12-23 15:19:28.438166,12
2021-12-23 15:19:28.438176,21
2021-12-23 15:19:28.438185,36
2021-12-23 15:19:28.438195,31
2021-12-23 15:19:28.438205,38
2021-12-23 15:19:28.438214,62
2021-12-23 15:19:28.438224,69
2021-12-23 15:19:28.438234,72
2021-12-23 15:19:28.438243,84
2021-12-23 15:19:28.438253,103
2021-12-23 15:19:28.438263,120
2021-12-23 15:19:28.438272,141
2021-12-23 15:19:28.438282,168
2021-12-23 15:19:28.438293,194
2021-12-23 15:19:28.438303,221
2021-12-23 15:19:28.438312,252
2021-12-23 15:19:28.438322,290
2021-12-23 15:19:28.662430,329
2021-12-23 15:19:28.662450,355
2021-12-23 15:19:28.662458,375
2021-12-23 15:19:28.662464,379
2021-12-23 15:19:28.662470,370
2021-12-23 15:19:28.662477,358
2021-12-23 15:19:28.662483,310
2021-12-23 15:19:28.662489,218
2021-12-23 15:19:28.662496,117
2021-12-23 15:19:28.662502,28
2021-12-23 15:19:28.662508,-43
2021-12-23 15:19:28.662514,-81
2021-12-23 15:19:28.662521,-105
2021-12-23 15:19:28.662527,-122
2021-12-23 15:19:28.662533,-127
2021-12-23 15:19:28.662539,-120
2021-12-23 15:19:28.662546,-117
2021-12-23 15:19:28.662552,-113
2021-12-23 15:19:28.662558,-110
2021-12-23 15:19:28.662564,-105
2021-12-23 15:19:28.662570,-93
2021-12-23 15:19:28.662577,-91
2021-12-23 15:19:28.662583,-86
2021-12-23 15:19:28.662589,-72
2021-12-23 15:19:28.662595,-62
2021-12-23 15:19:28.662602,-57
2021-12-23 15:19:28.662608,-50
2021-12-23 15:19:28.662614,-50
2021-12-23 15:19:28.662620,-50
2021-12-23 15:19:28.662626,-48
2021-12-23 15:19:28.888580,-43
2021-12-23 15:19:28.888611,-36
2021-12-23 15:19:28.888623,-33
2021-12-23 15:19:28.888633,-33
2021-12-23 15:19:28.888643,-31
2021-12-23 15:19:28.888652,-28
2021-12-23 15:19:28.888662,-26
2021-12-23 15:19:28.888672,-21
2021-12-23 15:19:28.888681,-24
2021-12-23 15:19:28.888691,-28
2021-12-23 15:19:28.888701,-21
2021-12-23 15:19:28.888710,-12
2021-12-23 15:19:28.888720,-9
2021-12-23 15:19:28.888730,-9
2021-12-23 15:19:28.888740,-9
2021-12-23 15:19:28.888749,-9
2021-12-23 15:19:28.888759,-4
2021-12-23 15:19:28.888768,0
2021-12-23 15:19:28.888778,2
2021-12-23 15:19:28.888788,4
2021-12-23 15:19:28.888798,7
2021-12-23 15:19:28.888807,7
2021-12-23 15:19:28.888817,7
2021-12-23 15:19:28.888826,12
2021-12-23 15:19:28.888836,14
2021-12-23 15:19:28.888845,12
2021-12-23 15:19:28.888855,9
2021-12-23 15:19:28.888865,9
2021-12-23 15:19:28.888874,14
2021-12-23 15:19:28.888884,21
2021-12-23 15:19:29.158136,31
2021-12-23 15:19:29.158167,40
2021-12-23 15:19:29.158178,50
2021-12-23 15:19:29.158189,48
2021-12-23 15:19:29.158198,40
2021-12-23 15:19:29.158208,36
2021-12-23 15:19:29.158218,31
2021-12-23 15:19:29.158227,31
2021-12-23 15:19:29.158237,31
2021-12-23 15:19:29.158247,31
2021-12-23 15:19:29.158256,33
2021-12-23 15:19:29.158266,36
2021-12-23 15:19:29.158276,38
2021-12-23 15:19:29.158285,38
2021-12-23 15:19:29.158295,45
2021-12-23 15:19:29.158305,57
2021-12-23 15:19:29.158314,108
2021-12-23 15:19:29.158324,303
2021-12-23 15:19:29.158334,670
2021-12-23 15:19:29.158343,1053
2021-12-23 15:19:29.158353,880
2021-12-23 15:19:29.158363,-14
2021-12-23 15:19:29.158373,-454
2021-12-23 15:19:29.158382,-43
2021-12-23 15:19:29.158392,110
2021-12-23 15:19:29.158402,-88
2021-12-23 15:19:29.158411,-43
2021-12-23 15:19:29.158421,48
2021-12-23 15:19:29.158431,-2
2021-12-23 15:19:29.158441,-4
2021-12-23 15:19:29.338353,38
2021-12-23 15:19:29.338375,31
2021-12-23 15:19:29.338383,26
2021-12-23 15:19:29.338389,38
2021-12-23 15:19:29.338396,40
2021-12-23 15:19:29.338402,40
2021-12-23 15:19:29.338409,55
2021-12-23 15:19:29.338415,62
2021-12-23 15:19:29.338421,72
2021-12-23 15:19:29.338428,86
2021-12-23 15:19:29.338434,101
2021-12-23 15:19:29.338440,117
2021-12-23 15:19:29.338446,134
2021-12-23 15:19:29.338453,151
2021-12-23 15:19:29.338459,177
2021-12-23 15:19:29.338466,209
2021-12-23 15:19:29.338472,242
2021-12-23 15:19:29.338479,276
2021-12-23 15:19:29.338485,307
2021-12-23 15:19:29.338491,331
2021-12-23 15:19:29.338498,355
2021-12-23 15:19:29.338504,372
2021-12-23 15:19:29.338510,379
2021-12-23 15:19:29.338516,370
2021-12-23 15:19:29.338523,329
2021-12-23 15:19:29.338529,252
2021-12-23 15:19:29.338535,153
2021-12-23 15:19:29.338542,60
2021-12-23 15:19:29.338548,-14
2021-12-23 15:19:29.338554,-69
2021-12-23 15:19:29.563580,-101
2021-12-23 15:19:29.563610,-113
2021-12-23 15:19:29.563621,-115
2021-12-23 15:19:29.563631,-115
2021-12-23 15:19:29.563640,-113
2021-12-23 15:19:29.563650,-113
2021-12-23 15:19:29.563660,-113
2021-12-23 15:19:29.563670,-105
2021-12-23 15:19:29.563679,-96
2021-12-23 15:19:29.563689,-91
2021-12-23 15:19:29.563699,-86
2021-12-23 15:19:29.563709,-79
2021-12-23 15:19:29.563718,-72
2021-12-23 15:19:29.563728,-62
2021-12-23 15:19:29.563738,-52
2021-12-23 15:19:29.563747,-48
2021-12-23 15:19:29.563757,-38
2021-12-23 15:19:29.563767,-33
2021-12-23 15:19:29.563777,-31
2021-12-23 15:19:29.563786,-28
2021-12-23 15:19:29.563796,-24
2021-12-23 15:19:29.563806,-19
2021-12-23 15:19:29.563816,-19
2021-12-23 15:19:29.563825,-16
2021-12-23 15:19:29.563835,-14
2021-12-23 15:19:29.563844,-12
2021-12-23 15:19:29.563854,-9
2021-12-23 15:19:29.563864,-7
2021-12-23 15:19:29.563874,-7
2021-12-23 15:19:29.563883,-4
2021-12-23 15:19:29.833145,-2
2021-12-23 15:19:29.833175,2
2021-12-23 15:19:29.833186,4
2021-12-23 15:19:29.833196,7
2021-12-23 15:19:29.833206,7
2021-12-23 15:19:29.833216,7
2021-12-23 15:19:29.833225,4
2021-12-23 15:19:29.833235,4
2021-12-23 15:19:29.833245,4
2021-12-23 15:19:29.833254,0
2021-12-23 15:19:29.833264,0
2021-12-23 15:19:29.833274,0
2021-12-23 15:19:29.833284,0
2021-12-23 15:19:29.833293,4
2021-12-23 15:19:29.833303,9
2021-12-23 15:19:29.833313,9
2021-12-23 15:19:29.833322,9
2021-12-23 15:19:29.833332,4
2021-12-23 15:19:29.833342,4
2021-12-23 15:19:29.833351,12
2021-12-23 15:19:29.833361,19
2021-12-23 15:19:29.833371,24
2021-12-23 15:19:29.833380,33
2021-12-23 15:19:29.833395,50
2021-12-23 15:19:29.833405,60
2021-12-23 15:19:29.833414,55
2021-12-23 15:19:29.833424,48
2021-12-23 15:19:29.833434,40
2021-12-23 15:19:29.833444,36
2021-12-23 15:19:29.833454,38
2021-12-23 15:19:30.056833,43
2021-12-23 15:19:30.056864,43
2021-12-23 15:19:30.056875,45
2021-12-23 15:19:30.056885,48
2021-12-23 15:19:30.056895,48
2021-12-23 15:19:30.056905,50
2021-12-23 15:19:30.056915,60
2021-12-23 15:19:30.056924,91
2021-12-23 15:19:30.056934,238
2021-12-23 15:19:30.056944,567
2021-12-23 15:19:30.056954,995
2021-12-23 15:19:30.056964,1065
2021-12-23 15:19:30.056974,290
2021-12-23 15:19:30.056984,-432
2021-12-23 15:19:30.057005,-177
2021-12-23 15:19:30.057015,129
2021-12-23 15:19:30.057025,-57
2021-12-23 15:19:30.057035,-96
2021-12-23 15:19:30.057044,26
2021-12-23 15:19:30.057054,0
2021-12-23 15:19:30.057064,-31
2021-12-23 15:19:30.057074,14
2021-12-23 15:19:30.057084,21
2021-12-23 15:19:30.057094,9
2021-12-23 15:19:30.057103,26
2021-12-23 15:19:30.057113,38
2021-12-23 15:19:30.057123,38
2021-12-23 15:19:30.057133,48
2021-12-23 15:19:30.057142,57
2021-12-23 15:19:30.057152,67
2021-12-23 15:19:30.238571,79
2021-12-23 15:19:30.238601,93
2021-12-23 15:19:30.238612,108
2021-12-23 15:19:30.238622,122
2021-12-23 15:19:30.238632,139
2021-12-23 15:19:30.238642,161
2021-12-23 15:19:30.238651,192
2021-12-23 15:19:30.238661,226
2021-12-23 15:19:30.238671,259
2021-12-23 15:19:30.238681,290
2021-12-23 15:19:30.238691,317
2021-12-23 15:19:30.238700,341
2021-12-23 15:19:30.238710,358
2021-12-23 15:19:30.238720,370
2021-12-23 15:19:30.238730,367
2021-12-23 15:19:30.238740,334
2021-12-23 15:19:30.238749,266
2021-12-23 15:19:30.238759,177
2021-12-23 15:19:30.238769,81
2021-12-23 15:19:30.238779,-2
2021-12-23 15:19:30.238788,-62
2021-12-23 15:19:30.238798,-101
2021-12-23 15:19:30.238808,-120
2021-12-23 15:19:30.238818,-125
2021-12-23 15:19:30.238827,-122
2021-12-23 15:19:30.238837,-117
2021-12-23 15:19:30.238846,-115
2021-12-23 15:19:30.238856,-110
2021-12-23 15:19:30.238866,-105
2021-12-23 15:19:30.238876,-98
2021-12-23 15:19:30.597311,-88
2021-12-23 15:19:30.597326,-81
2021-12-23 15:19:30.597332,-76
2021-12-23 15:19:30.597337,-74
2021-12-23 15:19:30.597342,-69
2021-12-23 15:19:30.597347,-60
2021-12-23 15:19:30.597351,-50
2021-12-23 15:19:30.597356,-45
2021-12-23 15:19:30.597361,-40
2021-12-23 15:19:30.597366,-40
2021-12-23 15:19:30.597371,-38
2021-12-23 15:19:30.597375,-26
2021-12-23 15:19:30.597380,-21
2021-12-23 15:19:30.597385,-21
2021-12-23 15:19:30.597390,-21
2021-12-23 15:19:30.597394,-21
2021-12-23 15:19:30.597399,-19
2021-12-23 15:19:30.597404,-14
2021-12-23 15:19:30.597409,-12
2021-12-23 15:19:30.597414,-7
2021-12-23 15:19:30.597418,-7
2021-12-23 15:19:30.597423,-9
2021-12-23 15:19:30.597428,-4
2021-12-23 15:19:30.597433,0
2021-12-23 15:19:30.597437,-4
2021-12-23 15:19:30.597442,0
2021-12-23 15:19:30.597447,26
2021-12-23 15:19:30.597452,28
2021-12-23 15:19:30.597457,12
2021-12-23 15:19:30.597461,19
2021-12-23 15:19:30.733730,0
2021-12-23 15:19:30.733750,-28
2021-12-23 15:19:30.733758,-7
2021-12-23 15:19:30.733764,12
2021-12-23 15:19:30.733771,4
2021-12-23 15:19:30.733777,0
2021-12-23 15:19:30.733784,7
2021-12-23 15:19:30.733790,9
2021-12-23 15:19:30.733796,-2
2021-12-23 15:19:30.733803,-4
2021-12-23 15:19:30.733809,7
2021-12-23 15:19:30.733815,14
2021-12-23 15:19:30.733821,19
2021-12-23 15:19:30.733828,31
2021-12-23 15:19:30.733834,40
2021-12-23 15:19:30.733840,28
2021-12-23 15:19:30.733847,16
2021-12-23 15:19:30.733853,19
2021-12-23 15:19:30.733859,19
2021-12-23 15:19:30.733866,21
2021-12-23 15:19:30.733872,24
2021-12-23 15:19:30.733879,19
2021-12-23 15:19:30.733885,16
2021-12-23 15:19:30.733892,24
2021-12-23 15:19:30.733898,33
2021-12-23 15:19:30.733904,43
2021-12-23 15:19:30.733911,50
2021-12-23 15:19:30.733917,60
2021-12-23 15:19:30.733923,161
2021-12-23 15:19:30.733930,425
2021-12-23 15:19:30.958155,812
2021-12-23 15:19:30.958185,1050
2021-12-23 15:19:30.958197,529
2021-12-23 15:19:30.958207,-307
2021-12-23 15:19:30.958217,-286
2021-12-23 15:19:30.958227,113
2021-12-23 15:19:30.958236,21
2021-12-23 15:19:30.958246,-98
2021-12-23 15:19:30.958256,24
2021-12-23 15:19:30.958266,52
2021-12-23 15:19:30.958275,4
2021-12-23 15:19:30.958285,36
2021-12-23 15:19:30.958294,69
2021-12-23 15:19:30.958304,48
2021-12-23 15:19:30.958314,38
2021-12-23 15:19:30.958323,72
2021-12-23 15:19:30.958333,81
2021-12-23 15:19:30.958342,64
2021-12-23 15:19:30.958352,81
2021-12-23 15:19:30.958361,105
2021-12-23 15:19:30.958371,122
2021-12-23 15:19:30.958380,161
2021-12-23 15:19:30.958390,163
2021-12-23 15:19:30.958399,120
2021-12-23 15:19:30.958409,132
2021-12-23 15:19:30.958419,194
2021-12-23 15:19:30.958428,214
2021-12-23 15:19:30.958438,226
2021-12-23 15:19:30.958447,276
2021-12-23 15:19:30.958457,312
2021-12-23 15:19:31.228156,331
2021-12-23 15:19:31.228185,363
2021-12-23 15:19:31.228196,384
2021-12-23 15:19:31.228206,387
2021-12-23 15:19:31.228216,387
2021-12-23 15:19:31.228226,379
2021-12-23 15:19:31.228236,329
2021-12-23 15:19:31.228245,230
2021-12-23 15:19:31.228255,141
2021-12-23 15:19:31.228265,74
2021-12-23 15:19:31.228274,28
2021-12-23 15:19:31.228284,9
2021-12-23 15:19:31.228294,-24
2021-12-23 15:19:31.228304,-72
2021-12-23 15:19:31.228314,-103
2021-12-23 15:19:31.228324,-110
2021-12-23 15:19:31.228334,-98
2021-12-23 15:19:31.228343,-74
2021-12-23 15:19:31.228353,-72
2021-12-23 15:19:31.228363,-74
2021-12-23 15:19:31.228373,-57
2021-12-23 15:19:31.228382,-60
2021-12-23 15:19:31.228392,-72
2021-12-23 15:19:31.228402,-57
2021-12-23 15:19:31.228412,-43
2021-12-23 15:19:31.228421,-33
2021-12-23 15:19:31.228431,-33
2021-12-23 15:19:31.228441,-36
2021-12-23 15:19:31.228451,-28
2021-12-23 15:19:31.228460,-24
2021-12-23 15:19:31.407878,-26
2021-12-23 15:19:31.407895,-19
2021-12-23 15:19:31.407901,-7
2021-12-23 15:19:31.407907,-4
2021-12-23 15:19:31.407912,0
2021-12-23 15:19:31.407917,12
2021-12-23 15:19:31.407922,14
2021-12-23 15:19:31.407927,9
2021-12-23 15:19:31.407932,4
2021-12-23 15:19:31.407937,7
2021-12-23 15:19:31.407942,9
2021-12-23 15:19:31.407947,12
2021-12-23 15:19:31.407952,14
2021-12-23 15:19:31.407957,16
2021-12-23 15:19:31.407962,21
2021-12-23 15:19:31.407967,21
2021-12-23 15:19:31.407972,4
2021-12-23 15:19:31.407977,-14
2021-12-23 15:19:31.407982,-7
2021-12-23 15:19:31.407987,4
2021-12-23 15:19:31.407992,0
2021-12-23 15:19:31.407997,-4
2021-12-23 15:19:31.408002,-7
2021-12-23 15:19:31.408007,-14
2021-12-23 15:19:31.408012,-12
2021-12-23 15:19:31.408017,12
2021-12-23 15:19:31.408022,21
2021-12-23 15:19:31.408027,12
2021-12-23 15:19:31.408032,33
2021-12-23 15:19:31.408037,60
2021-12-23 15:19:31.633287,40
2021-12-23 15:19:31.633309,24
2021-12-23 15:19:31.633317,33
2021-12-23 15:19:31.633323,36
2021-12-23 15:19:31.633330,33
2021-12-23 15:19:31.633336,40
2021-12-23 15:19:31.633342,48
2021-12-23 15:19:31.633348,48
2021-12-23 15:19:31.633354,48
2021-12-23 15:19:31.633360,48
2021-12-23 15:19:31.633367,33
2021-12-23 15:19:31.633373,24
2021-12-23 15:19:31.633379,64
2021-12-23 15:19:31.633385,214
2021-12-23 15:19:31.633391,492
2021-12-23 15:19:31.633398,875
2021-12-23 15:19:31.633404,969
2021-12-23 15:19:31.633410,274
2021-12-23 15:19:31.633416,-399
2021-12-23 15:19:31.633422,-149
2021-12-23 15:19:31.633428,129
2021-12-23 15:19:31.633435,-72
2021-12-23 15:19:31.633441,-101
2021-12-23 15:19:31.633447,21
2021-12-23 15:19:31.633453,-16
2021-12-23 15:19:31.633460,-48
2021-12-23 15:19:31.633466,7
2021-12-23 15:19:31.633473,12
2021-12-23 15:19:31.633479,-19
2021-12-23 15:19:31.633485,-7
2021-12-23 15:19:31.903145,9
2021-12-23 15:19:31.903175,0
2021-12-23 15:19:31.903186,0
2021-12-23 15:19:31.903197,14
2021-12-23 15:19:31.903207,31
2021-12-23 15:19:31.903216,33
2021-12-23 15:19:31.903226,43
2021-12-23 15:19:31.903236,69
2021-12-23 15:19:31.903245,84
2021-12-23 15:19:31.903255,103
2021-12-23 15:19:31.903265,127
2021-12-23 15:19:31.903274,149
2021-12-23 15:19:31.903284,180
2021-12-23 15:19:31.903294,223
2021-12-23 15:19:31.903304,259
2021-12-23 15:19:31.903313,286
2021-12-23 15:19:31.903323,303
2021-12-23 15:19:31.903337,317
2021-12-23 15:19:31.903347,331
2021-12-23 15:19:31.903357,334
2021-12-23 15:19:31.903367,310
2021-12-23 15:19:31.903377,250
2021-12-23 15:19:31.903387,156
2021-12-23 15:19:31.903396,57
2021-12-23 15:19:31.903406,-14
2021-12-23 15:19:31.903416,-62
2021-12-23 15:19:31.903426,-103
2021-12-23 15:19:31.903435,-137
2021-12-23 15:19:31.903445,-146
2021-12-23 15:19:31.903455,-139
2021-12-23 15:19:32.126787,-134
2021-12-23 15:19:32.126817,-132
2021-12-23 15:19:32.126828,-122
2021-12-23 15:19:32.126838,-115
2021-12-23 15:19:32.126848,-113
2021-12-23 15:19:32.126858,-115
2021-12-23 15:19:32.126868,-108
2021-12-23 15:19:32.126877,-96
2021-12-23 15:19:32.126887,-86
2021-12-23 15:19:32.126897,-74
2021-12-23 15:19:32.126907,-64
2021-12-23 15:19:32.126916,-69
2021-12-23 15:19:32.126926,-69
2021-12-23 15:19:32.126936,-67
2021-12-23 15:19:32.126946,-60
2021-12-23 15:19:32.126955,-48
2021-12-23 15:19:32.126965,-45
2021-12-23 15:19:32.126975,-50
2021-12-23 15:19:32.126984,-38
2021-12-23 15:19:32.126994,-26
2021-12-23 15:19:32.127004,-16
2021-12-23 15:19:32.127014,-12
2021-12-23 15:19:32.127023,-14
2021-12-23 15:19:32.127033,-14
2021-12-23 15:19:32.127043,-4
2021-12-23 15:19:32.127063,-9
2021-12-23 15:19:32.127074,-21
2021-12-23 15:19:32.127083,-19
2021-12-23 15:19:32.127093,-19
2021-12-23 15:19:32.127103,-16
2021-12-23 15:19:32.397564,-21
2021-12-23 15:19:32.397584,-16
2021-12-23 15:19:32.397592,2
2021-12-23 15:19:32.397598,-9
2021-12-23 15:19:32.397605,-19
2021-12-23 15:19:32.397611,0
2021-12-23 15:19:32.397618,0
2021-12-23 15:19:32.397624,2
2021-12-23 15:19:32.397630,28
2021-12-23 15:19:32.397637,19
2021-12-23 15:19:32.397643,-9
2021-12-23 15:19:32.397649,-7
2021-12-23 15:19:32.397656,-4
2021-12-23 15:19:32.397662,-12
2021-12-23 15:19:32.397668,0
2021-12-23 15:19:32.397675,7
2021-12-23 15:19:32.397681,2
2021-12-23 15:19:32.397688,4
2021-12-23 15:19:32.397694,19
2021-12-23 15:19:32.397700,38
2021-12-23 15:19:32.397707,48
2021-12-23 15:19:32.397713,64
2021-12-23 15:19:32.397719,214
2021-12-23 15:19:32.397726,548
2021-12-23 15:19:32.397732,949
2021-12-23 15:19:32.397738,884
2021-12-23 15:19:32.397745,48
2021-12-23 15:19:32.397751,-480
2021-12-23 15:19:32.397757,-93
2021-12-23 15:19:32.397764,122
2021-12-23 15:19:32.622942,-86
2021-12-23 15:19:32.622963,-69
2021-12-23 15:19:32.622970,36
2021-12-23 15:19:32.622977,-7
2021-12-23 15:19:32.622983,-16
2021-12-23 15:19:32.622990,28
2021-12-23 15:19:32.622996,36
2021-12-23 15:19:32.623003,31
2021-12-23 15:19:32.623009,24
2021-12-23 15:19:32.623015,24
2021-12-23 15:19:32.623022,45
2021-12-23 15:19:32.623028,60
2021-12-23 15:19:32.623034,60
2021-12-23 15:19:32.623041,69
2021-12-23 15:19:32.623047,76
2021-12-23 15:19:32.623053,91
2021-12-23 15:19:32.623060,115
2021-12-23 15:19:32.623066,137
2021-12-23 15:19:32.623072,153
2021-12-23 15:19:32.623079,177
2021-12-23 15:19:32.623085,202
2021-12-23 15:19:32.623091,228
2021-12-23 15:19:32.623098,266
2021-12-23 15:19:32.623104,303
2021-12-23 15:19:32.623110,329
2021-12-23 15:19:32.623128,346
2021-12-23 15:19:32.623159,355
2021-12-23 15:19:32.623169,360
2021-12-23 15:19:32.623175,348
2021-12-23 15:19:32.623185,303
2021-12-23 15:19:32.803633,226
2021-12-23 15:19:32.803663,129
2021-12-23 15:19:32.803675,36
2021-12-23 15:19:32.803685,-33
2021-12-23 15:19:32.803695,-76
2021-12-23 15:19:32.803705,-101
2021-12-23 15:19:32.803714,-113
2021-12-23 15:19:32.803724,-115
2021-12-23 15:19:32.803734,-115
2021-12-23 15:19:32.803743,-113
2021-12-23 15:19:32.803753,-103
2021-12-23 15:19:32.803763,-93
2021-12-23 15:19:32.803772,-88
2021-12-23 15:19:32.803782,-88
2021-12-23 15:19:32.803791,-86
2021-12-23 15:19:32.803801,-72
2021-12-23 15:19:32.803811,-57
2021-12-23 15:19:32.803820,-57
2021-12-23 15:19:32.803830,-55
2021-12-23 15:19:32.803839,-43
2021-12-23 15:19:32.803849,-38
2021-12-23 15:19:32.803859,-38
2021-12-23 15:19:32.803868,-36
2021-12-23 15:19:32.803878,-31
2021-12-23 15:19:32.803888,-21
2021-12-23 15:19:32.803897,-19
2021-12-23 15:19:32.803907,-24
2021-12-23 15:19:32.803917,-21
2021-12-23 15:19:32.803927,-12
2021-12-23 15:19:32.803936,-7
2021-12-23 15:19:33.117495,-16
2021-12-23 15:19:33.117525,-16
2021-12-23 15:19:33.117536,-9
2021-12-23 15:19:33.117547,-9
2021-12-23 15:19:33.117556,-21
2021-12-23 15:19:33.117566,-28
2021-12-23 15:19:33.117576,-28
2021-12-23 15:19:33.117585,-21
2021-12-23 15:19:33.117595,-19
2021-12-23 15:19:33.117605,-14
2021-12-23 15:19:33.117615,0
2021-12-23 15:19:33.117624,16
2021-12-23 15:19:33.117634,14
2021-12-23 15:19:33.117644,-2
2021-12-23 15:19:33.117654,-9
2021-12-23 15:19:33.117663,-4
2021-12-23 15:19:33.117673,0
2021-12-23 15:19:33.117683,0
2021-12-23 15:19:33.117692,-2
2021-12-23 15:19:33.117702,-4
2021-12-23 15:19:33.117712,0
2021-12-23 15:19:33.117722,9
2021-12-23 15:19:33.117732,12
2021-12-23 15:19:33.117742,21
2021-12-23 15:19:33.117752,40
2021-12-23 15:19:33.117761,127
2021-12-23 15:19:33.117771,372
2021-12-23 15:19:33.117781,757
2021-12-23 15:19:33.117791,1005
2021-12-23 15:19:33.117801,521
2021-12-23 15:19:33.252907,-319
2021-12-23 15:19:33.252927,-334
2021-12-23 15:19:33.252934,84
2021-12-23 15:19:33.252941,14
2021-12-23 15:19:33.252947,-115
2021-12-23 15:19:33.252954,-4
2021-12-23 15:19:33.252960,12
2021-12-23 15:19:33.252966,-38
2021-12-23 15:19:33.252973,-2
2021-12-23 15:19:33.252979,21
2021-12-23 15:19:33.252985,7
2021-12-23 15:19:33.252991,19
2021-12-23 15:19:33.252998,36
2021-12-23 15:19:33.253004,33
2021-12-23 15:19:33.253010,38
2021-12-23 15:19:33.253016,52
2021-12-23 15:19:33.253023,60
2021-12-23 15:19:33.253029,67
2021-12-23 15:19:33.253035,79
2021-12-23 15:19:33.253042,86
2021-12-23 15:19:33.253048,101
2021-12-23 15:19:33.253054,125
2021-12-23 15:19:33.253060,151
2021-12-23 15:19:33.253067,177
2021-12-23 15:19:33.253073,206
2021-12-23 15:19:33.253079,240
2021-12-23 15:19:33.253086,271
2021-12-23 15:19:33.253092,295
2021-12-23 15:19:33.253098,319
2021-12-23 15:19:33.253105,339
2021-12-23 15:19:33.478537,346
2021-12-23 15:19:33.478568,336
2021-12-23 15:19:33.478579,303
2021-12-23 15:19:33.478589,235
2021-12-23 15:19:33.478599,146
2021-12-23 15:19:33.478609,55
2021-12-23 15:19:33.478619,-19
2021-12-23 15:19:33.478629,-72
2021-12-23 15:19:33.478638,-101
2021-12-23 15:19:33.478648,-113
2021-12-23 15:19:33.478657,-110
2021-12-23 15:19:33.478667,-113
2021-12-23 15:19:33.478677,-113
2021-12-23 15:19:33.478687,-103
2021-12-23 15:19:33.478697,-93
2021-12-23 15:19:33.478707,-86
2021-12-23 15:19:33.478716,-79
2021-12-23 15:19:33.478726,-69
2021-12-23 15:19:33.478736,-62
2021-12-23 15:19:33.478745,-55
2021-12-23 15:19:33.478755,-48
2021-12-23 15:19:33.478765,-43
2021-12-23 15:19:33.478774,-38
2021-12-23 15:19:33.478784,-31
2021-12-23 15:19:33.478794,-26
2021-12-23 15:19:33.478803,-19
2021-12-23 15:19:33.478813,-14
2021-12-23 15:19:33.478823,-9
2021-12-23 15:19:33.478832,-7
2021-12-23 15:19:33.478842,-4
2021-12-23 15:19:33.703125,0
2021-12-23 15:19:33.703156,4
2021-12-23 15:19:33.703168,2
2021-12-23 15:19:33.703177,2
2021-12-23 15:19:33.703187,-2
2021-12-23 15:19:33.703197,-7
2021-12-23 15:19:33.703207,-4
2021-12-23 15:19:33.703216,4
2021-12-23 15:19:33.703226,9
2021-12-23 15:19:33.703236,9
2021-12-23 15:19:33.703245,9
2021-12-23 15:19:33.703255,26
2021-12-23 15:19:33.703265,33
2021-12-23 15:19:33.703274,21
2021-12-23 15:19:33.703284,12
2021-12-23 15:19:33.703294,9
2021-12-23 15:19:33.703303,7
2021-12-23 15:19:33.703313,9
2021-12-23 15:19:33.703323,14
2021-12-23 15:19:33.703332,16
2021-12-23 15:19:33.703342,16
2021-12-23 15:19:33.703351,19
2021-12-23 15:19:33.703361,21
2021-12-23 15:19:33.703371,28
2021-12-23 15:19:33.703380,33
2021-12-23 15:19:33.703390,69
2021-12-23 15:19:33.703400,252
2021-12-23 15:19:33.703409,610
2021-12-23 15:19:33.703419,1002
2021-12-23 15:19:33.703428,848
2021-12-23 15:19:33.928106,-38
2021-12-23 15:19:33.928136,-464
2021-12-23 15:19:33.928147,-50
2021-12-23 15:19:33.928157,86
2021-12-23 15:19:33.928167,-117
2021-12-23 15:19:33.928177,-69
2021-12-23 15:19:33.928187,21
2021-12-23 15:19:33.928196,-28
2021-12-23 15:19:33.928206,-31
2021-12-23 15:19:33.928216,9
2021-12-23 15:19:33.928226,0
2021-12-23 15:19:33.928235,-4
2021-12-23 15:19:33.928245,14
2021-12-23 15:19:33.928255,21
2021-12-23 15:19:33.928264,26
2021-12-23 15:19:33.928274,38
2021-12-23 15:19:33.928284,50
2021-12-23 15:19:33.928293,62
2021-12-23 15:19:33.928303,76
2021-12-23 15:19:33.928313,93
2021-12-23 15:19:33.928322,113
2021-12-23 15:19:33.928332,132
2021-12-23 15:19:33.928341,153
2021-12-23 15:19:33.928351,182
2021-12-23 15:19:33.928361,214
2021-12-23 15:19:33.928370,247
2021-12-23 15:19:33.928380,283
2021-12-23 15:19:33.928390,315
2021-12-23 15:19:33.928399,336
2021-12-23 15:19:33.928409,355
2021-12-23 15:19:34.287257,370
2021-12-23 15:19:34.287287,370
2021-12-23 15:19:34.287299,341
2021-12-23 15:19:34.287309,274
2021-12-23 15:19:34.287319,182
2021-12-23 15:19:34.287328,93
2021-12-23 15:19:34.287338,19
2021-12-23 15:19:34.287348,-38
2021-12-23 15:19:34.287358,-72
2021-12-23 15:19:34.287367,-91
2021-12-23 15:19:34.287377,-101
2021-12-23 15:19:34.287387,-96
2021-12-23 15:19:34.287396,-91
2021-12-23 15:19:34.287406,-86
2021-12-23 15:19:34.287427,-84
2021-12-23 15:19:34.287437,-79
2021-12-23 15:19:34.287447,-72
2021-12-23 15:19:34.287457,-62
2021-12-23 15:19:34.287467,-55
2021-12-23 15:19:34.287476,-48
2021-12-23 15:19:34.287486,-43
2021-12-23 15:19:34.287496,-38
2021-12-23 15:19:34.287505,-31
2021-12-23 15:19:34.287515,-24
2021-12-23 15:19:34.287525,-19
2021-12-23 15:19:34.287534,-12
2021-12-23 15:19:34.287544,-9
2021-12-23 15:19:34.287553,-9
2021-12-23 15:19:34.287563,-7
2021-12-23 15:19:34.287573,-7
2021-12-23 15:19:34.468268,-9
2021-12-23 15:19:34.468291,-7
2021-12-23 15:19:34.468298,-2
2021-12-23 15:19:34.468305,-4
2021-12-23 15:19:34.468311,-4
2021-12-23 15:19:34.468317,2
2021-12-23 15:19:34.468324,4
2021-12-23 15:19:34.468330,9
2021-12-23 15:19:34.468336,4
2021-12-23 15:19:34.468343,-9
2021-12-23 15:19:34.468349,-19
2021-12-23 15:19:34.468356,-12
2021-12-23 15:19:34.468362,0
2021-12-23 15:19:34.468369,2
2021-12-23 15:19:34.468375,4
2021-12-23 15:19:34.468381,16
2021-12-23 15:19:34.468388,26
2021-12-23 15:19:34.468394,24
2021-12-23 15:19:34.468400,16
2021-12-23 15:19:34.468407,12
2021-12-23 15:19:34.468413,7
2021-12-23 15:19:34.468419,4
2021-12-23 15:19:34.468426,7
2021-12-23 15:19:34.468432,12
2021-12-23 15:19:34.468438,12
2021-12-23 15:19:34.468445,14
2021-12-23 15:19:34.468451,19
2021-12-23 15:19:34.468457,26
2021-12-23 15:19:34.468464,33
2021-12-23 15:19:34.468470,50
2021-12-23 15:19:34.648591,173
2021-12-23 15:19:34.648621,473
2021-12-23 15:19:34.648632,892
2021-12-23 15:19:34.648642,1019
2021-12-23 15:19:34.648652,331
2021-12-23 15:19:34.648662,-435
2021-12-23 15:19:34.648672,-250
2021-12-23 15:19:34.648682,103
2021-12-23 15:19:34.648692,-57
2021-12-23 15:19:34.648701,-127
2021-12-23 15:19:34.648711,0
2021-12-23 15:19:34.648721,-12
2021-12-23 15:19:34.648731,-55
2021-12-23 15:19:34.648741,-12
2021-12-23 15:19:34.648750,2
2021-12-23 15:19:34.648760,-9
2021-12-23 15:19:34.648770,4
2021-12-23 15:19:34.648780,19
2021-12-23 15:19:34.648789,19
2021-12-23 15:19:34.648799,21
2021-12-23 15:19:34.648809,36
2021-12-23 15:19:34.648819,50
2021-12-23 15:19:34.648828,60
2021-12-23 15:19:34.648838,76
2021-12-23 15:19:34.648847,96
2021-12-23 15:19:34.648857,110
2021-12-23 15:19:34.648867,127
2021-12-23 15:19:34.648876,153
2021-12-23 15:19:34.648886,185
2021-12-23 15:19:34.648896,218
2021-12-23 15:19:34.873180,252
2021-12-23 15:19:34.873210,283
2021-12-23 15:19:34.873221,310
2021-12-23 15:19:34.873231,327
2021-12-23 15:19:34.873241,336
2021-12-23 15:19:34.873251,339
2021-12-23 15:19:34.873261,331
2021-12-23 15:19:34.873270,290
2021-12-23 15:19:34.873280,214
2021-12-23 15:19:34.873290,125
2021-12-23 15:19:34.873300,43
2021-12-23 15:19:34.873309,-26
2021-12-23 15:19:34.873319,-74
2021-12-23 15:19:34.873329,-103
2021-12-23 15:19:34.873339,-113
2021-12-23 15:19:34.873348,-113
2021-12-23 15:19:34.873358,-110
2021-12-23 15:19:34.873368,-103
2021-12-23 15:19:34.873378,-96
2021-12-23 15:19:34.873388,-91
2021-12-23 15:19:34.873398,-88
2021-12-23 15:19:34.873407,-81
2021-12-23 15:19:34.873417,-72
2021-12-23 15:19:34.873427,-62
2021-12-23 15:19:34.873436,-52
2021-12-23 15:19:34.873446,-45
2021-12-23 15:19:34.873455,-40
2021-12-23 15:19:34.873465,-33
2021-12-23 15:19:34.873475,-26
2021-12-23 15:19:34.873484,-24
2021-12-23 15:19:35.142541,-19
2021-12-23 15:19:35.142571,-14
2021-12-23 15:19:35.142583,-9
2021-12-23 15:19:35.142593,-7
2021-12-23 15:19:35.142602,-4
2021-12-23 15:19:35.142612,-2
2021-12-23 15:19:35.142622,-4
2021-12-23 15:19:35.142631,-4
2021-12-23 15:19:35.142642,0
2021-12-23 15:19:35.142651,2
2021-12-23 15:19:35.142661,2
2021-12-23 15:19:35.142671,2
2021-12-23 15:19:35.142681,2
2021-12-23 15:19:35.142690,4
2021-12-23 15:19:35.142700,7
2021-12-23 15:19:35.142710,9
2021-12-23 15:19:35.142720,14
2021-12-23 15:19:35.142729,12
2021-12-23 15:19:35.142739,7
2021-12-23 15:19:35.142749,2
2021-12-23 15:19:35.142758,7
2021-12-23 15:19:35.142768,14
2021-12-23 15:19:35.142778,19
2021-12-23 15:19:35.142787,24
2021-12-23 15:19:35.142797,36
2021-12-23 15:19:35.142806,48
2021-12-23 15:19:35.142816,48
2021-12-23 15:19:35.142826,36
2021-12-23 15:19:35.142835,28
2021-12-23 15:19:35.142845,26
2021-12-23 15:19:35.368277,26
2021-12-23 15:19:35.368298,28
2021-12-23 15:19:35.368305,31
2021-12-23 15:19:35.368312,31
2021-12-23 15:19:35.368318,33
2021-12-23 15:19:35.368325,36
2021-12-23 15:19:35.368331,38
2021-12-23 15:19:35.368337,48
2021-12-23 15:19:35.368344,60
2021-12-23 15:19:35.368350,125
2021-12-23 15:19:35.368356,343
2021-12-23 15:19:35.368362,714
2021-12-23 15:19:35.368369,1024
2021-12-23 15:19:35.368375,670
2021-12-23 15:19:35.368381,-221
2021-12-23 15:19:35.368388,-408
2021-12-23 15:19:35.368394,36
2021-12-23 15:19:35.368400,45
2021-12-23 15:19:35.368406,-129
2021-12-23 15:19:35.368413,-33
2021-12-23 15:19:35.368419,16
2021-12-23 15:19:35.368425,-43
2021-12-23 15:19:35.368431,-24
2021-12-23 15:19:35.368438,12
2021-12-23 15:19:35.368444,-2
2021-12-23 15:19:35.368451,0
2021-12-23 15:19:35.368457,19
2021-12-23 15:19:35.368464,24
2021-12-23 15:19:35.368470,28
2021-12-23 15:19:35.368476,43
2021-12-23 15:19:35.548600,55
2021-12-23 15:19:35.548630,67
2021-12-23 15:19:35.548642,79
2021-12-23 15:19:35.548652,96
2021-12-23 15:19:35.548661,110
2021-12-23 15:19:35.548671,129
2021-12-23 15:19:35.548681,153
2021-12-23 15:19:35.548690,180
2021-12-23 15:19:35.548700,211
2021-12-23 15:19:35.548710,242
2021-12-23 15:19:35.548719,271
2021-12-23 15:19:35.548729,295
2021-12-23 15:19:35.548739,317
2021-12-23 15:19:35.548748,336
2021-12-23 15:19:35.548758,348
2021-12-23 15:19:35.548767,348
2021-12-23 15:19:35.548777,324
2021-12-23 15:19:35.548787,266
2021-12-23 15:19:35.548796,187
2021-12-23 15:19:35.548806,103
2021-12-23 15:19:35.548816,26
2021-12-23 15:19:35.548825,-33
2021-12-23 15:19:35.548835,-72
2021-12-23 15:19:35.548844,-91
2021-12-23 15:19:35.548854,-93
2021-12-23 15:19:35.548864,-96
2021-12-23 15:19:35.548873,-96
2021-12-23 15:19:35.548883,-93
2021-12-23 15:19:35.548892,-86
2021-12-23 15:19:35.548902,-79
2021-12-23 15:19:35.817869,-72
2021-12-23 15:19:35.817892,-62
2021-12-23 15:19:35.817899,-52
2021-12-23 15:19:35.817906,-48
2021-12-23 15:19:35.817912,-45
2021-12-23 15:19:35.817919,-40
2021-12-23 15:19:35.817925,-31
2021-12-23 15:19:35.817931,-24
2021-12-23 15:19:35.817937,-19
2021-12-23 15:19:35.817944,-16
2021-12-23 15:19:35.817950,-16
2021-12-23 15:19:35.817956,-14
2021-12-23 15:19:35.817963,-9
2021-12-23 15:19:35.817969,-7
2021-12-23 15:19:35.817975,-4
2021-12-23 15:19:35.817982,-4
2021-12-23 15:19:35.817988,-7
2021-12-23 15:19:35.817994,-7
2021-12-23 15:19:35.818000,-2
2021-12-23 15:19:35.818007,2
2021-12-23 15:19:35.818013,2
2021-12-23 15:19:35.818019,4
2021-12-23 15:19:35.818026,4
2021-12-23 15:19:35.818032,9
2021-12-23 15:19:35.818038,14
2021-12-23 15:19:35.818045,14
2021-12-23 15:19:35.818051,19
2021-12-23 15:19:35.818057,21
2021-12-23 15:19:35.818064,19
2021-12-23 15:19:35.818070,14
2021-12-23 15:19:36.043194,12
2021-12-23 15:19:36.043225,14
2021-12-23 15:19:36.043236,19
2021-12-23 15:19:36.043264,24
2021-12-23 15:19:36.043289,28
2021-12-23 15:19:36.043302,40
2021-12-23 15:19:36.043318,57
2021-12-23 15:19:36.043334,62
2021-12-23 15:19:36.043349,52
2021-12-23 15:19:36.043403,38
2021-12-23 15:19:36.043420,28
2021-12-23 15:19:36.043444,33
2021-12-23 15:19:36.043463,36
2021-12-23 15:19:36.043481,36
2021-12-23 15:19:36.043500,36
2021-12-23 15:19:36.043517,31
2021-12-23 15:19:36.043534,33
2021-12-23 15:19:36.043551,38
2021-12-23 15:19:36.043565,45
2021-12-23 15:19:36.043574,52
2021-12-23 15:19:36.043584,74
2021-12-23 15:19:36.043594,209
2021-12-23 15:19:36.043604,524
2021-12-23 15:19:36.043613,937
2021-12-23 15:19:36.043624,985
2021-12-23 15:19:36.043634,226
2021-12-23 15:19:36.043648,-442
2021-12-23 15:19:36.043673,-168
2021-12-23 15:19:36.043679,122
2021-12-23 15:19:36.043686,-62
2021-12-23 15:19:36.311203,-93
2021-12-23 15:19:36.311224,21
2021-12-23 15:19:36.311232,-9
2021-12-23 15:19:36.311238,-38
2021-12-23 15:19:36.311245,4
2021-12-23 15:19:36.311251,14
2021-12-23 15:19:36.311257,7
2021-12-23 15:19:36.311264,24
2021-12-23 15:19:36.311270,31
2021-12-23 15:19:36.311276,26
2021-12-23 15:19:36.311282,40
2021-12-23 15:19:36.311289,57
2021-12-23 15:19:36.311295,64
2021-12-23 15:19:36.311302,76
2021-12-23 15:19:36.311308,91
2021-12-23 15:19:36.311314,101
2021-12-23 15:19:36.311321,120
2021-12-23 15:19:36.311327,144
2021-12-23 15:19:36.311333,170
2021-12-23 15:19:36.311340,197
2021-12-23 15:19:36.311346,228
2021-12-23 15:19:36.311352,259
2021-12-23 15:19:36.311359,286
2021-12-23 15:19:36.311365,307
2021-12-23 15:19:36.311371,329
2021-12-23 15:19:36.311377,343
2021-12-23 15:19:36.311384,348
2021-12-23 15:19:36.311390,339
2021-12-23 15:19:36.311396,303
2021-12-23 15:19:36.311403,233
2021-12-23 15:19:36.538247,146
2021-12-23 15:19:36.538270,62
2021-12-23 15:19:36.538277,-9
2021-12-23 15:19:36.538284,-60
2021-12-23 15:19:36.538290,-84
2021-12-23 15:19:36.538297,-91
2021-12-23 15:19:36.538303,-93
2021-12-23 15:19:36.538310,-93
2021-12-23 15:19:36.538316,-93
2021-12-23 15:19:36.538322,-86
2021-12-23 15:19:36.538329,-76
2021-12-23 15:19:36.538335,-69
2021-12-23 15:19:36.538341,-60
2021-12-23 15:19:36.538348,-55
2021-12-23 15:19:36.538354,-52
2021-12-23 15:19:36.538360,-45
2021-12-23 15:19:36.538367,-36
2021-12-23 15:19:36.538373,-26
2021-12-23 15:19:36.538379,-21
2021-12-23 15:19:36.538386,-16
2021-12-23 15:19:36.538392,-12
2021-12-23 15:19:36.538398,-7
2021-12-23 15:19:36.538405,-2
2021-12-23 15:19:36.538411,0
2021-12-23 15:19:36.538418,4
2021-12-23 15:19:36.538424,9
2021-12-23 15:19:36.538430,9
2021-12-23 15:19:36.538436,9
2021-12-23 15:19:36.538443,14
2021-12-23 15:19:36.538449,16
2021-12-23 15:19:36.763660,19
2021-12-23 15:19:36.763691,21
2021-12-23 15:19:36.763703,21
2021-12-23 15:19:36.763713,24
2021-12-23 15:19:36.763722,21
2021-12-23 15:19:36.763732,24
2021-12-23 15:19:36.763742,24
2021-12-23 15:19:36.763752,21
2021-12-23 15:19:36.763761,21
2021-12-23 15:19:36.763771,24
2021-12-23 15:19:36.763781,33
2021-12-23 15:19:36.763791,43
2021-12-23 15:19:36.763801,31
2021-12-23 15:19:36.763811,7
2021-12-23 15:19:36.763820,2
2021-12-23 15:19:36.763830,14
2021-12-23 15:19:36.763840,21
2021-12-23 15:19:36.763849,31
2021-12-23 15:19:36.763859,38
2021-12-23 15:19:36.763874,50
2021-12-23 15:19:36.763884,67
2021-12-23 15:19:36.763893,67
2021-12-23 15:19:36.763903,57
2021-12-23 15:19:36.763913,50
2021-12-23 15:19:36.763923,50
2021-12-23 15:19:36.763932,48
2021-12-23 15:19:36.763942,48
2021-12-23 15:19:36.763952,45
2021-12-23 15:19:36.763962,38
2021-12-23 15:19:36.763971,36
2021-12-23 15:19:36.943167,36
2021-12-23 15:19:36.943188,38
2021-12-23 15:19:36.943195,45
2021-12-23 15:19:36.943202,52
2021-12-23 15:19:36.943208,98
2021-12-23 15:19:36.943215,295
2021-12-23 15:19:36.943221,666
2021-12-23 15:19:36.943227,1041
2021-12-23 15:19:36.943234,841
2021-12-23 15:19:36.943240,-62
2021-12-23 15:19:36.943247,-454
2021-12-23 15:19:36.943253,-31
2021-12-23 15:19:36.943259,88
2021-12-23 15:19:36.943266,-110
2021-12-23 15:19:36.943272,-52
2021-12-23 15:19:36.943279,28
2021-12-23 15:19:36.943285,-26
2021-12-23 15:19:36.943291,-24
2021-12-23 15:19:36.943298,14
2021-12-23 15:19:36.943304,4
2021-12-23 15:19:36.943310,4
2021-12-23 15:19:36.943317,24
2021-12-23 15:19:36.943323,31
2021-12-23 15:19:36.943329,36
2021-12-23 15:19:36.943336,50
2021-12-23 15:19:36.943342,62
2021-12-23 15:19:36.943348,72
2021-12-23 15:19:36.943355,86
2021-12-23 15:19:36.943361,101
2021-12-23 15:19:36.943367,120
2021-12-23 15:19:37.213460,139
2021-12-23 15:19:37.213483,161
2021-12-23 15:19:37.213490,189
2021-12-23 15:19:37.213497,221
2021-12-23 15:19:37.213503,252
2021-12-23 15:19:37.213509,283
2021-12-23 15:19:37.213516,310
2021-12-23 15:19:37.213522,331
2021-12-23 15:19:37.213529,351
2021-12-23 15:19:37.213535,360
2021-12-23 15:19:37.213541,363
2021-12-23 15:19:37.213548,346
2021-12-23 15:19:37.213554,295
2021-12-23 15:19:37.213560,214
2021-12-23 15:19:37.213567,122
2021-12-23 15:19:37.213573,38
2021-12-23 15:19:37.213579,-26
2021-12-23 15:19:37.213586,-69
2021-12-23 15:19:37.213592,-93
2021-12-23 15:19:37.213598,-101
2021-12-23 15:19:37.213605,-103
2021-12-23 15:19:37.213611,-101
2021-12-23 15:19:37.213618,-96
2021-12-23 15:19:37.213624,-93
2021-12-23 15:19:37.213630,-91
2021-12-23 15:19:37.213637,-81
2021-12-23 15:19:37.213643,-74
2021-12-23 15:19:37.213650,-67
2021-12-23 15:19:37.213656,-60
2021-12-23 15:19:37.213662,-50
2021-12-23 15:19:37.392590,-40
2021-12-23 15:19:37.392616,-33
2021-12-23 15:19:37.392630,-31
2021-12-23 15:19:37.392656,-31
2021-12-23 15:19:37.392668,-31
2021-12-23 15:19:37.392680,-28
2021-12-23 15:19:37.392692,-26
2021-12-23 15:19:37.392701,-24
2021-12-23 15:19:37.392708,-24
2021-12-23 15:19:37.392719,-21
2021-12-23 15:19:37.392729,-24
2021-12-23 15:19:37.392735,-24
2021-12-23 15:19:37.392742,-21
2021-12-23 15:19:37.392748,-16
2021-12-23 15:19:37.392754,-16
2021-12-23 15:19:37.392761,-14
2021-12-23 15:19:37.392767,-14
2021-12-23 15:19:37.392773,-16
2021-12-23 15:19:37.392780,-14
2021-12-23 15:19:37.392794,-7
2021-12-23 15:19:37.392806,-4
2021-12-23 15:19:37.392814,-4
2021-12-23 15:19:37.392822,-2
2021-12-23 15:19:37.392829,0
2021-12-23 15:19:37.392838,2
2021-12-23 15:19:37.392852,7
2021-12-23 15:19:37.392870,7
2021-12-23 15:19:37.392971,9
2021-12-23 15:19:37.392986,7
2021-12-23 15:19:37.392993,7
2021-12-23 15:19:37.618153,0
2021-12-23 15:19:37.618174,-4
2021-12-23 15:19:37.618182,-4
2021-12-23 15:19:37.618188,-2
2021-12-23 15:19:37.618194,0
2021-12-23 15:19:37.618201,4
2021-12-23 15:19:37.618207,24
2021-12-23 15:19:37.618213,38
2021-12-23 15:19:37.618220,36
2021-12-23 15:19:37.618226,24
2021-12-23 15:19:37.618232,14
2021-12-23 15:19:37.618239,7
2021-12-23 15:19:37.618245,9
2021-12-23 15:19:37.618251,12
2021-12-23 15:19:37.618257,12
2021-12-23 15:19:37.618264,12
2021-12-23 15:19:37.618270,14
2021-12-23 15:19:37.618277,21
2021-12-23 15:19:37.618283,26
2021-12-23 15:19:37.618289,36
2021-12-23 15:19:37.618296,48
2021-12-23 15:19:37.618302,110
2021-12-23 15:19:37.618309,331
2021-12-23 15:19:37.618315,721
2021-12-23 15:19:37.618321,1062
2021-12-23 15:19:37.618328,733
2021-12-23 15:19:37.618334,-182
2021-12-23 15:19:37.618340,-423
2021-12-23 15:19:37.618347,28
2021-12-23 15:19:37.618353,69
2021-12-23 15:19:37.888167,-110
2021-12-23 15:19:37.888197,-19
2021-12-23 15:19:37.888208,38
2021-12-23 15:19:37.888218,-21
2021-12-23 15:19:37.888228,-9
2021-12-23 15:19:37.888238,31
2021-12-23 15:19:37.888247,21
2021-12-23 15:19:37.888257,24
2021-12-23 15:19:37.888266,38
2021-12-23 15:19:37.888276,38
2021-12-23 15:19:37.888285,40
2021-12-23 15:19:37.888295,52
2021-12-23 15:19:37.888305,60
2021-12-23 15:19:37.888314,74
2021-12-23 15:19:37.888324,91
2021-12-23 15:19:37.888333,101
2021-12-23 15:19:37.888343,110
2021-12-23 15:19:37.888352,132
2021-12-23 15:19:37.888362,158
2021-12-23 15:19:37.888371,187
2021-12-23 15:19:37.888381,216
2021-12-23 15:19:37.888391,247
2021-12-23 15:19:37.888400,281
2021-12-23 15:19:37.888410,312
2021-12-23 15:19:37.888419,334
2021-12-23 15:19:37.888429,353
2021-12-23 15:19:37.888438,372
2021-12-23 15:19:37.888448,375
2021-12-23 15:19:37.888458,355
2021-12-23 15:19:37.888467,307
2021-12-23 15:19:38.157951,230
2021-12-23 15:19:38.157981,139
2021-12-23 15:19:38.157992,55
2021-12-23 15:19:38.158003,-12
2021-12-23 15:19:38.158012,-55
2021-12-23 15:19:38.158022,-74
2021-12-23 15:19:38.158031,-79
2021-12-23 15:19:38.158041,-86
2021-12-23 15:19:38.158050,-91
2021-12-23 15:19:38.158060,-84
2021-12-23 15:19:38.158070,-74
2021-12-23 15:19:38.158079,-74
2021-12-23 15:19:38.158089,-72
2021-12-23 15:19:38.158099,-67
2021-12-23 15:19:38.158109,-62
2021-12-23 15:19:38.158118,-60
2021-12-23 15:19:38.158128,-52
2021-12-23 15:19:38.158138,-43
2021-12-23 15:19:38.158147,-36
2021-12-23 15:19:38.158157,-28
2021-12-23 15:19:38.158166,-26
2021-12-23 15:19:38.158176,-21
2021-12-23 15:19:38.158186,-12
2021-12-23 15:19:38.158195,-12
2021-12-23 15:19:38.158205,-14
2021-12-23 15:19:38.158214,-12
2021-12-23 15:19:38.158224,-4
2021-12-23 15:19:38.158233,-4
2021-12-23 15:19:38.158243,-2
2021-12-23 15:19:38.158253,0
2021-12-23 15:19:38.472468,-2
2021-12-23 15:19:38.472498,2
2021-12-23 15:19:38.472509,7
2021-12-23 15:19:38.472519,2
2021-12-23 15:19:38.472529,2
2021-12-23 15:19:38.472539,0
2021-12-23 15:19:38.472549,-7
2021-12-23 15:19:38.472558,-7
2021-12-23 15:19:38.472568,-2
2021-12-23 15:19:38.472578,0
2021-12-23 15:19:38.472587,7
2021-12-23 15:19:38.472597,7
2021-12-23 15:19:38.472607,0
2021-12-23 15:19:38.472617,4
2021-12-23 15:19:38.472626,12
2021-12-23 15:19:38.472636,4
2021-12-23 15:19:38.472646,-4
2021-12-23 15:19:38.472655,0
2021-12-23 15:19:38.472665,4
2021-12-23 15:19:38.472675,-2
2021-12-23 15:19:38.472684,-9
2021-12-23 15:19:38.472694,0
2021-12-23 15:19:38.472704,14
2021-12-23 15:19:38.472714,24
2021-12-23 15:19:38.472723,36
2021-12-23 15:19:38.472733,36
2021-12-23 15:19:38.472742,28
2021-12-23 15:19:38.472752,19
2021-12-23 15:19:38.472761,14
2021-12-23 15:19:38.472771,19
2021-12-23 15:19:38.563592,26
2021-12-23 15:19:38.563622,26
2021-12-23 15:19:38.563634,26
2021-12-23 15:19:38.563644,28
2021-12-23 15:19:38.563653,31
2021-12-23 15:19:38.563663,36
2021-12-23 15:19:38.563673,48
2021-12-23 15:19:38.563682,64
2021-12-23 15:19:38.563692,161
2021-12-23 15:19:38.563702,440
2021-12-23 15:19:38.563712,875
2021-12-23 15:19:38.563721,1123
2021-12-23 15:19:38.563731,557
2021-12-23 15:19:38.563741,-343
2021-12-23 15:19:38.563750,-334
2021-12-23 15:19:38.563760,96
2021-12-23 15:19:38.563770,9
2021-12-23 15:19:38.563780,-113
2021-12-23 15:19:38.563789,4
2021-12-23 15:19:38.563799,19
2021-12-23 15:19:38.563808,-33
2021-12-23 15:19:38.563818,0
2021-12-23 15:19:38.563828,24
2021-12-23 15:19:38.563838,14
2021-12-23 15:19:38.563847,24
2021-12-23 15:19:38.563857,36
2021-12-23 15:19:38.563866,38
2021-12-23 15:19:38.563876,48
2021-12-23 15:19:38.563885,64
2021-12-23 15:19:38.563895,76
2021-12-23 15:19:38.787701,86
2021-12-23 15:19:38.787722,101
2021-12-23 15:19:38.787729,117
2021-12-23 15:19:38.787735,132
2021-12-23 15:19:38.787742,153
2021-12-23 15:19:38.787748,182
2021-12-23 15:19:38.787754,209
2021-12-23 15:19:38.787761,235
2021-12-23 15:19:38.787767,269
2021-12-23 15:19:38.787774,303
2021-12-23 15:19:38.787780,331
2021-12-23 15:19:38.787786,353
2021-12-23 15:19:38.787793,370
2021-12-23 15:19:38.787799,377
2021-12-23 15:19:38.787805,375
2021-12-23 15:19:38.787812,351
2021-12-23 15:19:38.787818,286
2021-12-23 15:19:38.787824,194
2021-12-23 15:19:38.787830,98
2021-12-23 15:19:38.787837,16
2021-12-23 15:19:38.787843,-45
2021-12-23 15:19:38.787850,-93
2021-12-23 15:19:38.787856,-120
2021-12-23 15:19:38.787862,-127
2021-12-23 15:19:38.787869,-127
2021-12-23 15:19:38.787875,-125
2021-12-23 15:19:38.787882,-117
2021-12-23 15:19:38.787888,-113
2021-12-23 15:19:38.787894,-105
2021-12-23 15:19:38.787900,-98
2021-12-23 15:19:39.013625,-88
2021-12-23 15:19:39.013656,-76
2021-12-23 15:19:39.013667,-67
2021-12-23 15:19:39.013677,-57
2021-12-23 15:19:39.013686,-50
2021-12-23 15:19:39.013696,-43
2021-12-23 15:19:39.013705,-38
2021-12-23 15:19:39.013715,-31
2021-12-23 15:19:39.013724,-24
2021-12-23 15:19:39.013734,-19
2021-12-23 15:19:39.013744,-16
2021-12-23 15:19:39.013754,-19
2021-12-23 15:19:39.013763,-21
2021-12-23 15:19:39.013773,-21
2021-12-23 15:19:39.013782,-21
2021-12-23 15:19:39.013792,-24
2021-12-23 15:19:39.013801,-21
2021-12-23 15:19:39.013811,-19
2021-12-23 15:19:39.013820,-19
2021-12-23 15:19:39.013830,-16
2021-12-23 15:19:39.013839,-12
2021-12-23 15:19:39.013849,-12
2021-12-23 15:19:39.013858,-9
2021-12-23 15:19:39.013868,-9
2021-12-23 15:19:39.013877,-7
2021-12-23 15:19:39.013887,-7
2021-12-23 15:19:39.013896,-7
2021-12-23 15:19:39.013906,-4
2021-12-23 15:19:39.013915,-2
2021-12-23 15:19:39.013925,0
2021-12-23 15:19:39.238627,2
2021-12-23 15:19:39.238646,7
2021-12-23 15:19:39.238653,9
2021-12-23 15:19:39.238660,7
2021-12-23 15:19:39.238666,4
2021-12-23 15:19:39.238673,-4
2021-12-23 15:19:39.238679,-4
2021-12-23 15:19:39.238686,4
2021-12-23 15:19:39.238692,12
2021-12-23 15:19:39.238698,14
2021-12-23 15:19:39.238705,26
2021-12-23 15:19:39.238711,40
2021-12-23 15:19:39.238718,45
2021-12-23 15:19:39.238724,43
2021-12-23 15:19:39.238731,38
2021-12-23 15:19:39.238737,28
2021-12-23 15:19:39.238744,28
2021-12-23 15:19:39.238750,33
2021-12-23 15:19:39.238756,36
2021-12-23 15:19:39.238763,40
2021-12-23 15:19:39.238769,40
2021-12-23 15:19:39.238775,43
2021-12-23 15:19:39.238782,45
2021-12-23 15:19:39.238788,55
2021-12-23 15:19:39.238794,64
2021-12-23 15:19:39.238801,108
2021-12-23 15:19:39.238807,293
2021-12-23 15:19:39.238813,651
2021-12-23 15:19:39.238820,1058
2021-12-23 15:19:39.238826,947
2021-12-23 15:19:39.463334,52
2021-12-23 15:19:39.463356,-459
2021-12-23 15:19:39.463363,-64
2021-12-23 15:19:39.463369,113
2021-12-23 15:19:39.463376,-101
2021-12-23 15:19:39.463382,-64
2021-12-23 15:19:39.463388,36
2021-12-23 15:19:39.463395,-14
2021-12-23 15:19:39.463401,-21
2021-12-23 15:19:39.463407,21
2021-12-23 15:19:39.463414,14
2021-12-23 15:19:39.463420,7
2021-12-23 15:19:39.463426,31
2021-12-23 15:19:39.463432,40
2021-12-23 15:19:39.463439,40
2021-12-23 15:19:39.463445,52
2021-12-23 15:19:39.463451,64
2021-12-23 15:19:39.463457,74
2021-12-23 15:19:39.463464,86
2021-12-23 15:19:39.463470,103
2021-12-23 15:19:39.463476,122
2021-12-23 15:19:39.463482,139
2021-12-23 15:19:39.463488,161
2021-12-23 15:19:39.463495,187
2021-12-23 15:19:39.463501,221
2021-12-23 15:19:39.463507,254
2021-12-23 15:19:39.463513,288
2021-12-23 15:19:39.463520,319
2021-12-23 15:19:39.463526,343
2021-12-23 15:19:39.463532,363
2021-12-23 15:19:39.777975,379
2021-12-23 15:19:39.778005,387
2021-12-23 15:19:39.778017,372
2021-12-23 15:19:39.778027,324
2021-12-23 15:19:39.778036,240
2021-12-23 15:19:39.778052,146
2021-12-23 15:19:39.778062,60
2021-12-23 15:19:39.778072,-12
2021-12-23 15:19:39.778082,-62
2021-12-23 15:19:39.778091,-93
2021-12-23 15:19:39.778101,-108
2021-12-23 15:19:39.778111,-108
2021-12-23 15:19:39.778121,-105
2021-12-23 15:19:39.778131,-101
2021-12-23 15:19:39.778140,-96
2021-12-23 15:19:39.778150,-91
2021-12-23 15:19:39.778160,-86
2021-12-23 15:19:39.778170,-79
2021-12-23 15:19:39.778179,-72
2021-12-23 15:19:39.778189,-64
2021-12-23 15:19:39.778199,-57
2021-12-23 15:19:39.778209,-50
2021-12-23 15:19:39.778218,-45
2021-12-23 15:19:39.778228,-40
2021-12-23 15:19:39.778238,-36
2021-12-23 15:19:39.778248,-31
2021-12-23 15:19:39.778258,-28
2021-12-23 15:19:39.778267,-26
2021-12-23 15:19:39.778277,-21
2021-12-23 15:19:39.778287,-19
2021-12-23 15:19:39.958152,-19
2021-12-23 15:19:39.958181,-19
2021-12-23 15:19:39.958193,-21
2021-12-23 15:19:39.958203,-26
2021-12-23 15:19:39.958213,-28
2021-12-23 15:19:39.958223,-21
2021-12-23 15:19:39.958232,-19
2021-12-23 15:19:39.958242,-16
2021-12-23 15:19:39.958252,-16
2021-12-23 15:19:39.958262,-19
2021-12-23 15:19:39.958272,-16
2021-12-23 15:19:39.958281,-12
2021-12-23 15:19:39.958291,-7
2021-12-23 15:19:39.958301,-4
2021-12-23 15:19:39.958311,-4
2021-12-23 15:19:39.958320,-4
2021-12-23 15:19:39.958330,-2
2021-12-23 15:19:39.958340,4
2021-12-23 15:19:39.958350,9
2021-12-23 15:19:39.958359,12
2021-12-23 15:19:39.958369,12
2021-12-23 15:19:39.958379,12
2021-12-23 15:19:39.958389,16
2021-12-23 15:19:39.958399,21
2021-12-23 15:19:39.958409,21
2021-12-23 15:19:39.958418,21
2021-12-23 15:19:39.958428,16
2021-12-23 15:19:39.958438,12
2021-12-23 15:19:39.958447,16
2021-12-23 15:19:39.958457,28
2021-12-23 15:19:40.183147,33
2021-12-23 15:19:40.183177,40
2021-12-23 15:19:40.183188,57
2021-12-23 15:19:40.183198,64
2021-12-23 15:19:40.183208,57
2021-12-23 15:19:40.183218,52
2021-12-23 15:19:40.183227,48
2021-12-23 15:19:40.183237,43
2021-12-23 15:19:40.183247,43
2021-12-23 15:19:40.183256,43
2021-12-23 15:19:40.183266,45
2021-12-23 15:19:40.183275,45
2021-12-23 15:19:40.183285,50
2021-12-23 15:19:40.183295,52
2021-12-23 15:19:40.183304,52
2021-12-23 15:19:40.183314,57
2021-12-23 15:19:40.183324,93
2021-12-23 15:19:40.183333,259
2021-12-23 15:19:40.183343,603
2021-12-23 15:19:40.183353,1029
2021-12-23 15:19:40.183362,1024
2021-12-23 15:19:40.183372,192
2021-12-23 15:19:40.183382,-447
2021-12-23 15:19:40.183391,-122
2021-12-23 15:19:40.183401,141
2021-12-23 15:19:40.183411,-55
2021-12-23 15:19:40.183421,-62
2021-12-23 15:19:40.183430,52
2021-12-23 15:19:40.183440,14
2021-12-23 15:19:40.183450,-2
2021-12-23 15:19:40.497239,45
2021-12-23 15:19:40.497269,48
2021-12-23 15:19:40.497281,31
2021-12-23 15:19:40.497291,43
2021-12-23 15:19:40.497301,52
2021-12-23 15:19:40.497310,55
2021-12-23 15:19:40.497320,67
2021-12-23 15:19:40.497330,79
2021-12-23 15:19:40.497339,86
2021-12-23 15:19:40.497349,96
2021-12-23 15:19:40.497359,117
2021-12-23 15:19:40.497368,141
2021-12-23 15:19:40.497378,158
2021-12-23 15:19:40.497388,165
2021-12-23 15:19:40.497398,177
2021-12-23 15:19:40.497407,202
2021-12-23 15:19:40.497417,242
2021-12-23 15:19:40.497427,293
2021-12-23 15:19:40.497437,334
2021-12-23 15:19:40.497446,363
2021-12-23 15:19:40.497456,399
2021-12-23 15:19:40.497466,425
2021-12-23 15:19:40.497475,416
2021-12-23 15:19:40.497485,401
2021-12-23 15:19:40.497495,379
2021-12-23 15:19:40.497504,305
2021-12-23 15:19:40.497514,199
2021-12-23 15:19:40.497524,108
2021-12-23 15:19:40.497533,31
2021-12-23 15:19:40.497543,-28
2021-12-23 15:19:40.678114,-64
2021-12-23 15:19:40.678144,-72
2021-12-23 15:19:40.678156,-64
2021-12-23 15:19:40.678166,-55
2021-12-23 15:19:40.678175,-50
2021-12-23 15:19:40.678185,-50
2021-12-23 15:19:40.678195,-55
2021-12-23 15:19:40.678204,-62
2021-12-23 15:19:40.678214,-74
2021-12-23 15:19:40.678224,-74
2021-12-23 15:19:40.678233,-67
2021-12-23 15:19:40.678243,-55
2021-12-23 15:19:40.678252,-38
2021-12-23 15:19:40.678262,-16
2021-12-23 15:19:40.678272,-2
2021-12-23 15:19:40.678281,-2
2021-12-23 15:19:40.678291,-9
2021-12-23 15:19:40.678300,-9
2021-12-23 15:19:40.678310,-12
2021-12-23 15:19:40.678319,-16
2021-12-23 15:19:40.678329,-4
2021-12-23 15:19:40.678339,12
2021-12-23 15:19:40.678348,19
2021-12-23 15:19:40.678358,14
2021-12-23 15:19:40.678367,2
2021-12-23 15:19:40.678377,4
2021-12-23 15:19:40.678386,4
2021-12-23 15:19:40.678396,-7
2021-12-23 15:19:40.678405,2
2021-12-23 15:19:40.678415,24
2021-12-23 15:19:40.902595,26
2021-12-23 15:19:40.902617,33
2021-12-23 15:19:40.902625,38
2021-12-23 15:19:40.902632,21
2021-12-23 15:19:40.902638,7
2021-12-23 15:19:40.902644,9
2021-12-23 15:19:40.902651,9
2021-12-23 15:19:40.902657,16
2021-12-23 15:19:40.902664,31
2021-12-23 15:19:40.902670,21
2021-12-23 15:19:40.902676,9
2021-12-23 15:19:40.902683,21
2021-12-23 15:19:40.902689,14
2021-12-23 15:19:40.902695,9
2021-12-23 15:19:40.902702,38
2021-12-23 15:19:40.902708,52
2021-12-23 15:19:40.902714,40
2021-12-23 15:19:40.902721,33
2021-12-23 15:19:40.902727,31
2021-12-23 15:19:40.902733,26
2021-12-23 15:19:40.902740,31
2021-12-23 15:19:40.902746,31
2021-12-23 15:19:40.902752,26
2021-12-23 15:19:40.902759,33
2021-12-23 15:19:40.902765,33
2021-12-23 15:19:40.902771,24
2021-12-23 15:19:40.902778,33
2021-12-23 15:19:40.902784,62
2021-12-23 15:19:40.902790,108
2021-12-23 15:19:40.902797,276
2021-12-23 15:19:41.083640,637
2021-12-23 15:19:41.083671,1046
2021-12-23 15:19:41.083682,952
2021-12-23 15:19:41.083692,88
2021-12-23 15:19:41.083702,-468
2021-12-23 15:19:41.083712,-117
2021-12-23 15:19:41.083722,105
2021-12-23 15:19:41.083732,-74
2021-12-23 15:19:41.083741,-52
2021-12-23 15:19:41.083751,40
2021-12-23 15:19:41.083761,-4
2021-12-23 15:19:41.083771,-7
2021-12-23 15:19:41.083781,52
2021-12-23 15:19:41.083790,67
2021-12-23 15:19:41.083800,48
2021-12-23 15:19:41.083810,31
2021-12-23 15:19:41.083819,40
2021-12-23 15:19:41.083829,72
2021-12-23 15:19:41.083839,96
2021-12-23 15:19:41.083848,108
2021-12-23 15:19:41.083858,120
2021-12-23 15:19:41.083868,134
2021-12-23 15:19:41.083878,153
2021-12-23 15:19:41.083888,165
2021-12-23 15:19:41.083898,180
2021-12-23 15:19:41.083908,228
2021-12-23 15:19:41.083917,281
2021-12-23 15:19:41.083927,303
2021-12-23 15:19:41.083937,317
2021-12-23 15:19:41.083947,363
2021-12-23 15:19:41.308611,394
2021-12-23 15:19:41.308641,365
2021-12-23 15:19:41.308653,353
2021-12-23 15:19:41.308663,389
2021-12-23 15:19:41.308673,425
2021-12-23 15:19:41.308683,435
2021-12-23 15:19:41.308693,365
2021-12-23 15:19:41.308702,216
2021-12-23 15:19:41.308712,76
2021-12-23 15:19:41.308722,9
2021-12-23 15:19:41.308731,-21
2021-12-23 15:19:41.308741,-62
2021-12-23 15:19:41.308751,-110
2021-12-23 15:19:41.308760,-137
2021-12-23 15:19:41.308770,-134
2021-12-23 15:19:41.308780,-122
2021-12-23 15:19:41.308790,-120
2021-12-23 15:19:41.308799,-115
2021-12-23 15:19:41.308809,-105
2021-12-23 15:19:41.308819,-101
2021-12-23 15:19:41.308828,-103
2021-12-23 15:19:41.308838,-101
2021-12-23 15:19:41.308848,-105
2021-12-23 15:19:41.308857,-105
2021-12-23 15:19:41.308867,-91
2021-12-23 15:19:41.308877,-86
2021-12-23 15:19:41.308887,-86
2021-12-23 15:19:41.308896,-76
2021-12-23 15:19:41.308906,-67
2021-12-23 15:19:41.308916,-72
2021-12-23 15:19:41.713603,-64
2021-12-23 15:19:41.713634,-52
2021-12-23 15:19:41.713645,-52
2021-12-23 15:19:41.713655,-50
2021-12-23 15:19:41.713664,-60
2021-12-23 15:19:41.713674,-91
2021-12-23 15:19:41.713683,-86
2021-12-23 15:19:41.713693,-48
2021-12-23 15:19:41.713703,-45
2021-12-23 15:19:41.713713,-62
2021-12-23 15:19:41.713722,-64
2021-12-23 15:19:41.713732,-64
2021-12-23 15:19:41.713742,-69
2021-12-23 15:19:41.713752,-69
2021-12-23 15:19:41.713761,-50
2021-12-23 15:19:41.713771,-36
2021-12-23 15:19:41.713781,-36
2021-12-23 15:19:41.713790,-33
2021-12-23 15:19:41.713800,-24
2021-12-23 15:19:41.713809,-24
2021-12-23 15:19:41.713819,-31
2021-12-23 15:19:41.713829,-28
2021-12-23 15:19:41.713838,-21
2021-12-23 15:19:41.713848,-24
2021-12-23 15:19:41.713858,-38
2021-12-23 15:19:41.713867,-40
2021-12-23 15:19:41.713877,-36
2021-12-23 15:19:41.713886,-31
2021-12-23 15:19:41.713896,-21
2021-12-23 15:19:41.713906,2
2021-12-23 15:19:41.802827,33
2021-12-23 15:19:41.802844,55
2021-12-23 15:19:41.802850,120
2021-12-23 15:19:41.802855,331
2021-12-23 15:19:41.802867,682
2021-12-23 15:19:41.802872,875
2021-12-23 15:19:41.802877,394
2021-12-23 15:19:41.802882,-367
2021-12-23 15:19:41.802887,-360
2021-12-23 15:19:41.802892,26
2021-12-23 15:19:41.802896,-24
2021-12-23 15:19:41.802901,-125
2021-12-23 15:19:41.802906,-19
2021-12-23 15:19:41.802911,-16
2021-12-23 15:19:41.802916,-84
2021-12-23 15:19:41.802920,-45
2021-12-23 15:19:41.802932,-14
2021-12-23 15:19:41.802937,-36
2021-12-23 15:19:41.802942,-19
2021-12-23 15:19:41.802947,16
2021-12-23 15:19:41.802952,2
2021-12-23 15:19:41.802957,-12
2021-12-23 15:19:41.802962,14
2021-12-23 15:19:41.802966,33
2021-12-23 15:19:41.802971,40
2021-12-23 15:19:41.802976,52
2021-12-23 15:19:41.802981,62
2021-12-23 15:19:41.802986,76
2021-12-23 15:19:41.803007,98
2021-12-23 15:19:41.803021,115
2021-12-23 15:19:42.028188,149
2021-12-23 15:19:42.028219,192
2021-12-23 15:19:42.028230,204
2021-12-23 15:19:42.028240,218
2021-12-23 15:19:42.028250,262
2021-12-23 15:19:42.028260,288
2021-12-23 15:19:42.028270,300
2021-12-23 15:19:42.028280,310
2021-12-23 15:19:42.028289,295
2021-12-23 15:19:42.028299,252
2021-12-23 15:19:42.028309,185
2021-12-23 15:19:42.028319,91
2021-12-23 15:19:42.028328,4
2021-12-23 15:19:42.028338,-55
2021-12-23 15:19:42.028348,-103
2021-12-23 15:19:42.028358,-132
2021-12-23 15:19:42.028367,-137
2021-12-23 15:19:42.028377,-134
2021-12-23 15:19:42.028387,-129
2021-12-23 15:19:42.028396,-122
2021-12-23 15:19:42.028406,-122
2021-12-23 15:19:42.028416,-125
2021-12-23 15:19:42.028426,-115
2021-12-23 15:19:42.028435,-108
2021-12-23 15:19:42.028445,-108
2021-12-23 15:19:42.028455,-101
2021-12-23 15:19:42.028464,-79
2021-12-23 15:19:42.028491,-64
2021-12-23 15:19:42.028509,-60
2021-12-23 15:19:42.028526,-52
2021-12-23 15:19:42.253639,-50
2021-12-23 15:19:42.253669,-50
2021-12-23 15:19:42.253680,-40
2021-12-23 15:19:42.253690,-28
2021-12-23 15:19:42.253700,-14
2021-12-23 15:19:42.253710,-7
2021-12-23 15:19:42.253719,-9
2021-12-23 15:19:42.253729,-12
2021-12-23 15:19:42.253738,-9
2021-12-23 15:19:42.253748,-7
2021-12-23 15:19:42.253758,-4
2021-12-23 15:19:42.253767,-2
2021-12-23 15:19:42.253777,0
2021-12-23 15:19:42.253787,-7
2021-12-23 15:19:42.253796,-16
2021-12-23 15:19:42.253806,-12
2021-12-23 15:19:42.253816,-12
2021-12-23 15:19:42.253825,-14
2021-12-23 15:19:42.253835,-9
2021-12-23 15:19:42.253844,-2
2021-12-23 15:19:42.253854,0
2021-12-23 15:19:42.253864,7
2021-12-23 15:19:42.253874,21
2021-12-23 15:19:42.253884,26
2021-12-23 15:19:42.253894,16
2021-12-23 15:19:42.253903,14
2021-12-23 15:19:42.253913,16
2021-12-23 15:19:42.253923,16
2021-12-23 15:19:42.253932,21
2021-12-23 15:19:42.253942,24
2021-12-23 15:19:42.522260,19
2021-12-23 15:19:42.522291,24
2021-12-23 15:19:42.522302,24
2021-12-23 15:19:42.522312,26
2021-12-23 15:19:42.522322,36
2021-12-23 15:19:42.522332,50
2021-12-23 15:19:42.522341,98
2021-12-23 15:19:42.522351,271
2021-12-23 15:19:42.522361,618
2021-12-23 15:19:42.522371,1002
2021-12-23 15:19:42.522380,836
2021-12-23 15:19:42.522390,-24
2021-12-23 15:19:42.522400,-418
2021-12-23 15:19:42.522410,-24
2021-12-23 15:19:42.522420,98
2021-12-23 15:19:42.522429,-93
2021-12-23 15:19:42.522439,-38
2021-12-23 15:19:42.522449,50
2021-12-23 15:19:42.522459,0
2021-12-23 15:19:42.522469,-9
2021-12-23 15:19:42.522479,33
2021-12-23 15:19:42.522488,48
2021-12-23 15:19:42.522498,45
2021-12-23 15:19:42.522508,55
2021-12-23 15:19:42.522518,60
2021-12-23 15:19:42.522527,60
2021-12-23 15:19:42.522537,76
2021-12-23 15:19:42.522547,98
2021-12-23 15:19:42.522556,103
2021-12-23 15:19:42.522566,110
2021-12-23 15:19:42.703011,132
2021-12-23 15:19:42.703041,151
2021-12-23 15:19:42.703052,168
2021-12-23 15:19:42.703062,192
2021-12-23 15:19:42.703072,214
2021-12-23 15:19:42.703081,240
2021-12-23 15:19:42.703091,274
2021-12-23 15:19:42.703101,310
2021-12-23 15:19:42.703110,339
2021-12-23 15:19:42.703120,365
2021-12-23 15:19:42.703130,384
2021-12-23 15:19:42.703139,391
2021-12-23 15:19:42.703149,384
2021-12-23 15:19:42.703159,360
2021-12-23 15:19:42.703169,305
2021-12-23 15:19:42.703178,211
2021-12-23 15:19:42.703188,105
2021-12-23 15:19:42.703198,28
2021-12-23 15:19:42.703207,-14
2021-12-23 15:19:42.703217,-45
2021-12-23 15:19:42.703226,-72
2021-12-23 15:19:42.703236,-79
2021-12-23 15:19:42.703246,-72
2021-12-23 15:19:42.703255,-72
2021-12-23 15:19:42.703265,-69
2021-12-23 15:19:42.703275,-64
2021-12-23 15:19:42.703284,-60
2021-12-23 15:19:42.703294,-55
2021-12-23 15:19:42.703304,-45
2021-12-23 15:19:42.703313,-40
2021-12-23 15:19:42.928167,-36
2021-12-23 15:19:42.928197,-26
2021-12-23 15:19:42.928209,-16
2021-12-23 15:19:42.928219,-12
2021-12-23 15:19:42.928228,-7
2021-12-23 15:19:42.928238,0
2021-12-23 15:19:42.928248,2
2021-12-23 15:19:42.928258,-4
2021-12-23 15:19:42.928346,-9
2021-12-23 15:19:42.928358,-7
2021-12-23 15:19:42.928368,0
2021-12-23 15:19:42.928378,-4
2021-12-23 15:19:42.928387,-4
2021-12-23 15:19:42.928397,0
2021-12-23 15:19:42.928407,0
2021-12-23 15:19:42.928417,-2
2021-12-23 15:19:42.928427,0
2021-12-23 15:19:42.928437,2
2021-12-23 15:19:42.928447,-2
2021-12-23 15:19:42.928457,-7
2021-12-23 15:19:42.928466,-2
2021-12-23 15:19:42.928476,4
2021-12-23 15:19:42.928486,12
2021-12-23 15:19:42.928496,19
2021-12-23 15:19:42.928506,33
2021-12-23 15:19:42.928516,45
2021-12-23 15:19:42.928526,45
2021-12-23 15:19:42.928535,36
2021-12-23 15:19:42.928545,24
2021-12-23 15:19:42.928555,16
2021-12-23 15:19:43.198728,16
2021-12-23 15:19:43.198750,16
2021-12-23 15:19:43.198757,16
2021-12-23 15:19:43.198764,14
2021-12-23 15:19:43.198770,12
2021-12-23 15:19:43.198776,9
2021-12-23 15:19:43.198783,14
2021-12-23 15:19:43.198815,33
2021-12-23 15:19:43.198836,50
2021-12-23 15:19:43.198844,153
2021-12-23 15:19:43.198851,435
2021-12-23 15:19:43.198858,844
2021-12-23 15:19:43.198864,1046
2021-12-23 15:19:43.198870,480
2021-12-23 15:19:43.198877,-348
2021-12-23 15:19:43.198883,-300
2021-12-23 15:19:43.198889,91
2021-12-23 15:19:43.198896,-14
2021-12-23 15:19:43.198902,-122
2021-12-23 15:19:43.198908,2
2021-12-23 15:19:43.198915,12
2021-12-23 15:19:43.198921,-38
2021-12-23 15:19:43.198928,0
2021-12-23 15:19:43.198934,26
2021-12-23 15:19:43.198941,14
2021-12-23 15:19:43.198947,24
2021-12-23 15:19:43.198953,40
2021-12-23 15:19:43.198960,43
2021-12-23 15:19:43.198966,50
2021-12-23 15:19:43.198972,64
2021-12-23 15:19:43.423168,74
2021-12-23 15:19:43.423190,84
2021-12-23 15:19:43.423197,103
2021-12-23 15:19:43.423204,117
2021-12-23 15:19:43.423210,134
2021-12-23 15:19:43.423216,161
2021-12-23 15:19:43.423223,189
2021-12-23 15:19:43.423229,218
2021-12-23 15:19:43.423235,254
2021-12-23 15:19:43.423241,290
2021-12-23 15:19:43.423247,317
2021-12-23 15:19:43.423254,343
2021-12-23 15:19:43.423260,370
2021-12-23 15:19:43.423266,382
2021-12-23 15:19:43.423273,382
2021-12-23 15:19:43.423279,367
2021-12-23 15:19:43.423285,322
2021-12-23 15:19:43.423291,240
2021-12-23 15:19:43.423298,146
2021-12-23 15:19:43.423304,62
2021-12-23 15:19:43.423310,-7
2021-12-23 15:19:43.423316,-55
2021-12-23 15:19:43.423323,-79
2021-12-23 15:19:43.423329,-84
2021-12-23 15:19:43.423335,-84
2021-12-23 15:19:43.423341,-81
2021-12-23 15:19:43.423347,-74
2021-12-23 15:19:43.423354,-69
2021-12-23 15:19:43.423360,-62
2021-12-23 15:19:43.423366,-55
2021-12-23 15:19:43.648628,-45
2021-12-23 15:19:43.648658,-40
2021-12-23 15:19:43.648670,-36
2021-12-23 15:19:43.648680,-31
2021-12-23 15:19:43.648690,-24
2021-12-23 15:19:43.648699,-16
2021-12-23 15:19:43.648709,-9
2021-12-23 15:19:43.648718,-2
2021-12-23 15:19:43.648728,2
2021-12-23 15:19:43.648738,0
2021-12-23 15:19:43.648748,2
2021-12-23 15:19:43.648757,9
2021-12-23 15:19:43.648767,14
2021-12-23 15:19:43.648777,16
2021-12-23 15:19:43.648786,14
2021-12-23 15:19:43.648796,12
2021-12-23 15:19:43.648805,14
2021-12-23 15:19:43.648815,19
2021-12-23 15:19:43.648825,21
2021-12-23 15:19:43.648834,24
2021-12-23 15:19:43.648844,24
2021-12-23 15:19:43.648853,26
2021-12-23 15:19:43.648863,26
2021-12-23 15:19:43.648873,26
2021-12-23 15:19:43.648882,21
2021-12-23 15:19:43.648892,16
2021-12-23 15:19:43.648902,19
2021-12-23 15:19:43.648911,26
2021-12-23 15:19:43.648921,33
2021-12-23 15:19:43.648930,38
2021-12-23 15:19:43.873163,55
2021-12-23 15:19:43.873193,69
2021-12-23 15:19:43.873204,60
2021-12-23 15:19:43.873214,43
2021-12-23 15:19:43.873224,36
2021-12-23 15:19:43.873233,36
2021-12-23 15:19:43.873243,36
2021-12-23 15:19:43.873252,36
2021-12-23 15:19:43.873262,31
2021-12-23 15:19:43.873271,28
2021-12-23 15:19:43.873281,33
2021-12-23 15:19:43.873290,40
2021-12-23 15:19:43.873300,50
2021-12-23 15:19:43.873310,55
2021-12-23 15:19:43.873319,76
2021-12-23 15:19:43.873328,230
2021-12-23 15:19:43.873338,572
2021-12-23 15:19:43.873347,1005
2021-12-23 15:19:43.873357,1034
2021-12-23 15:19:43.873366,228
2021-12-23 15:19:43.873376,-444
2021-12-23 15:19:43.873385,-156
2021-12-23 15:19:43.873395,108
2021-12-23 15:19:43.873404,-91
2021-12-23 15:19:43.873413,-105
2021-12-23 15:19:43.873423,12
2021-12-23 15:19:43.873432,-26
2021-12-23 15:19:43.873442,-50
2021-12-23 15:19:43.873451,-2
2021-12-23 15:19:43.873461,4
2021-12-23 15:19:44.143160,-2
2021-12-23 15:19:44.143190,14
2021-12-23 15:19:44.143201,26
2021-12-23 15:19:44.143211,26
2021-12-23 15:19:44.143221,38
2021-12-23 15:19:44.143231,50
2021-12-23 15:19:44.143240,57
2021-12-23 15:19:44.143250,64
2021-12-23 15:19:44.143260,79
2021-12-23 15:19:44.143269,96
2021-12-23 15:19:44.143279,117
2021-12-23 15:19:44.143289,141
2021-12-23 15:19:44.143298,165
2021-12-23 15:19:44.143308,194
2021-12-23 15:19:44.143318,223
2021-12-23 15:19:44.143327,254
2021-12-23 15:19:44.143337,288
2021-12-23 15:19:44.143347,315
2021-12-23 15:19:44.143357,336
2021-12-23 15:19:44.143366,351
2021-12-23 15:19:44.143376,358
2021-12-23 15:19:44.143385,341
2021-12-23 15:19:44.143395,295
2021-12-23 15:19:44.143405,218
2021-12-23 15:19:44.143415,129
2021-12-23 15:19:44.143424,45
2021-12-23 15:19:44.143434,-16
2021-12-23 15:19:44.143443,-60
2021-12-23 15:19:44.143453,-84
2021-12-23 15:19:44.143463,-88
2021-12-23 15:19:44.368147,-91
2021-12-23 15:19:44.368168,-88
2021-12-23 15:19:44.368175,-84
2021-12-23 15:19:44.368181,-79
