Time,ECG
2021-12-10 13:58:34.719470,-30
2021-12-10 13:58:34.719490,-38
2021-12-10 13:58:34.719500,-59
2021-12-10 13:58:34.719509,-66
2021-12-10 13:58:34.719518,-54
2021-12-10 13:58:34.719527,-33
2021-12-10 13:58:34.719535,-33
2021-12-10 13:58:34.719544,-54
2021-12-10 13:58:34.719552,-73
2021-12-10 13:58:34.719561,-64
2021-12-10 13:58:34.719569,-45
2021-12-10 13:58:34.719578,-35
2021-12-10 13:58:34.719586,-40
2021-12-10 13:58:34.719594,-54
2021-12-10 13:58:34.719603,-64
2021-12-10 13:58:34.719611,-57
2021-12-10 13:58:34.719620,-42
2021-12-10 13:58:34.719628,-28
2021-12-10 13:58:34.719637,-21
2021-12-10 13:58:34.719645,-28
2021-12-10 13:58:34.719654,-30
2021-12-10 13:58:34.719662,-21
2021-12-10 13:58:34.719670,-11
2021-12-10 13:58:34.719679,-2
2021-12-10 13:58:34.719687,2
2021-12-10 13:58:34.719695,-4
2021-12-10 13:58:34.719704,-4
2021-12-10 13:58:34.719713,19
2021-12-10 13:58:34.719721,52
2021-12-10 13:58:34.719730,30
2021-12-10 13:58:34.846258,-40
2021-12-10 13:58:34.846281,-61
2021-12-10 13:58:34.846291,-42
2021-12-10 13:58:34.846300,-81
2021-12-10 13:58:34.846309,-126
2021-12-10 13:58:34.846318,-114
2021-12-10 13:58:34.846327,-112
2021-12-10 13:58:34.846336,-138
2021-12-10 13:58:34.846344,-128
2021-12-10 13:58:34.846352,-107
2021-12-10 13:58:34.846361,-119
2021-12-10 13:58:34.846369,-164
2021-12-10 13:58:34.846377,-290
2021-12-10 13:58:34.846385,-312
2021-12-10 13:58:34.846394,97
2021-12-10 13:58:34.846402,941
2021-12-10 13:58:34.846411,1774
2021-12-10 13:58:34.846420,1735
2021-12-10 13:58:34.846429,610
2021-12-10 13:58:34.846437,-340
2021-12-10 13:58:34.846445,-324
2021-12-10 13:58:34.846454,-126
2021-12-10 13:58:34.846462,-250
2021-12-10 13:58:34.846470,-309
2021-12-10 13:58:34.846479,-238
2021-12-10 13:58:34.846487,-233
2021-12-10 13:58:34.846495,-245
2021-12-10 13:58:34.846504,-214
2021-12-10 13:58:34.846513,-190
2021-12-10 13:58:34.846523,-178
2021-12-10 13:58:35.027183,-169
2021-12-10 13:58:35.027205,-147
2021-12-10 13:58:35.027215,-123
2021-12-10 13:58:35.027224,-114
2021-12-10 13:58:35.027232,-97
2021-12-10 13:58:35.027241,-81
2021-12-10 13:58:35.027249,-78
2021-12-10 13:58:35.027257,-59
2021-12-10 13:58:35.027266,-26
2021-12-10 13:58:35.027274,-7
2021-12-10 13:58:35.027283,2
2021-12-10 13:58:35.027291,4
2021-12-10 13:58:35.027300,-7
2021-12-10 13:58:35.027323,2
2021-12-10 13:58:35.027332,14
2021-12-10 13:58:35.027341,0
2021-12-10 13:58:35.027349,-19
2021-12-10 13:58:35.027358,-42
2021-12-10 13:58:35.027366,-73
2021-12-10 13:58:35.027375,-83
2021-12-10 13:58:35.027383,-76
2021-12-10 13:58:35.027392,-90
2021-12-10 13:58:35.027400,-104
2021-12-10 13:58:35.027408,-109
2021-12-10 13:58:35.027417,-116
2021-12-10 13:58:35.027425,-107
2021-12-10 13:58:35.027433,-90
2021-12-10 13:58:35.027442,-85
2021-12-10 13:58:35.027450,-81
2021-12-10 13:58:35.027460,-81
2021-12-10 13:58:35.297147,-78
2021-12-10 13:58:35.297169,-57
2021-12-10 13:58:35.297178,-40
2021-12-10 13:58:35.297187,-42
2021-12-10 13:58:35.297196,-47
2021-12-10 13:58:35.297204,-69
2021-12-10 13:58:35.297213,-88
2021-12-10 13:58:35.297221,-83
2021-12-10 13:58:35.297230,-90
2021-12-10 13:58:35.297238,-100
2021-12-10 13:58:35.297246,-100
2021-12-10 13:58:35.297255,-116
2021-12-10 13:58:35.297263,-119
2021-12-10 13:58:35.297271,-97
2021-12-10 13:58:35.297280,-88
2021-12-10 13:58:35.297288,-95
2021-12-10 13:58:35.297297,-104
2021-12-10 13:58:35.297308,-114
2021-12-10 13:58:35.297317,-109
2021-12-10 13:58:35.297325,-85
2021-12-10 13:58:35.297333,-78
2021-12-10 13:58:35.297342,-81
2021-12-10 13:58:35.297350,-76
2021-12-10 13:58:35.297358,-78
2021-12-10 13:58:35.297367,-73
2021-12-10 13:58:35.297375,-52
2021-12-10 13:58:35.297383,-47
2021-12-10 13:58:35.297391,-61
2021-12-10 13:58:35.297400,-78
2021-12-10 13:58:35.297408,-81
2021-12-10 13:58:35.477189,-73
2021-12-10 13:58:35.477212,-61
2021-12-10 13:58:35.477221,-54
2021-12-10 13:58:35.477229,-50
2021-12-10 13:58:35.477238,-54
2021-12-10 13:58:35.477246,-66
2021-12-10 13:58:35.477255,-52
2021-12-10 13:58:35.477267,-33
2021-12-10 13:58:35.477275,-47
2021-12-10 13:58:35.477284,-81
2021-12-10 13:58:35.477292,-100
2021-12-10 13:58:35.477301,-95
2021-12-10 13:58:35.477309,-83
2021-12-10 13:58:35.477317,-71
2021-12-10 13:58:35.477325,-64
2021-12-10 13:58:35.477334,-69
2021-12-10 13:58:35.477342,-88
2021-12-10 13:58:35.477350,-135
2021-12-10 13:58:35.477359,-255
2021-12-10 13:58:35.477367,-293
2021-12-10 13:58:35.477375,69
2021-12-10 13:58:35.477384,882
2021-12-10 13:58:35.477392,1738
2021-12-10 13:58:35.477400,1785
2021-12-10 13:58:35.477409,708
2021-12-10 13:58:35.477417,-331
2021-12-10 13:58:35.477425,-379
2021-12-10 13:58:35.477433,-140
2021-12-10 13:58:35.477442,-250
2021-12-10 13:58:35.477451,-326
2021-12-10 13:58:35.702169,-231
2021-12-10 13:58:35.702195,-221
2021-12-10 13:58:35.702205,-255
2021-12-10 13:58:35.702212,-245
2021-12-10 13:58:35.702220,-243
2021-12-10 13:58:35.702227,-228
2021-12-10 13:58:35.702234,-193
2021-12-10 13:58:35.702243,-169
2021-12-10 13:58:35.702251,-154
2021-12-10 13:58:35.702259,-145
2021-12-10 13:58:35.702267,-162
2021-12-10 13:58:35.702275,-176
2021-12-10 13:58:35.702283,-159
2021-12-10 13:58:35.702291,-133
2021-12-10 13:58:35.702300,-119
2021-12-10 13:58:35.702308,-126
2021-12-10 13:58:35.702316,-116
2021-12-10 13:58:35.702325,-76
2021-12-10 13:58:35.702333,-47
2021-12-10 13:58:35.702342,-35
2021-12-10 13:58:35.702350,-35
2021-12-10 13:58:35.702359,-50
2021-12-10 13:58:35.702367,-57
2021-12-10 13:58:35.702375,-52
2021-12-10 13:58:35.702389,-54
2021-12-10 13:58:35.702398,-64
2021-12-10 13:58:35.702406,-76
2021-12-10 13:58:35.702415,-97
2021-12-10 13:58:35.702423,-107
2021-12-10 13:58:35.702431,-97
2021-12-10 13:58:35.926716,-90
2021-12-10 13:58:35.926736,-85
2021-12-10 13:58:35.926746,-81
2021-12-10 13:58:35.926755,-81
2021-12-10 13:58:35.926763,-76
2021-12-10 13:58:35.926772,-59
2021-12-10 13:58:35.926780,-42
2021-12-10 13:58:35.926789,-33
2021-12-10 13:58:35.926797,-42
2021-12-10 13:58:35.926805,-71
2021-12-10 13:58:35.926813,-66
2021-12-10 13:58:35.926822,-38
2021-12-10 13:58:35.926830,-26
2021-12-10 13:58:35.926839,-38
2021-12-10 13:58:35.926847,-83
2021-12-10 13:58:35.926855,-123
2021-12-10 13:58:35.926864,-104
2021-12-10 13:58:35.926872,-73
2021-12-10 13:58:35.926881,-69
2021-12-10 13:58:35.926889,-61
2021-12-10 13:58:35.926897,-61
2021-12-10 13:58:35.926906,-71
2021-12-10 13:58:35.926916,-59
2021-12-10 13:58:35.926924,-38
2021-12-10 13:58:35.926933,-30
2021-12-10 13:58:35.926941,-26
2021-12-10 13:58:35.926950,-30
2021-12-10 13:58:35.926958,-52
2021-12-10 13:58:35.926966,-57
2021-12-10 13:58:35.926975,-40
2021-12-10 13:58:36.195419,-30
2021-12-10 13:58:36.195439,-35
2021-12-10 13:58:36.195449,-38
2021-12-10 13:58:36.195458,-40
2021-12-10 13:58:36.195466,-35
2021-12-10 13:58:36.195474,-19
2021-12-10 13:58:36.195483,-9
2021-12-10 13:58:36.195491,-16
2021-12-10 13:58:36.195499,-45
2021-12-10 13:58:36.195507,-59
2021-12-10 13:58:36.195516,-42
2021-12-10 13:58:36.195524,-23
2021-12-10 13:58:36.195532,-2
2021-12-10 13:58:36.195541,7
2021-12-10 13:58:36.195549,-28
2021-12-10 13:58:36.195557,-61
2021-12-10 13:58:36.195566,-83
2021-12-10 13:58:36.195574,-121
2021-12-10 13:58:36.195583,-135
2021-12-10 13:58:36.195591,-135
2021-12-10 13:58:36.195599,-159
2021-12-10 13:58:36.195607,-176
2021-12-10 13:58:36.195616,-154
2021-12-10 13:58:36.195624,-135
2021-12-10 13:58:36.195638,-133
2021-12-10 13:58:36.195646,-166
2021-12-10 13:58:36.195655,-290
2021-12-10 13:58:36.195663,-362
2021-12-10 13:58:36.195672,-64
2021-12-10 13:58:36.195680,715
2021-12-10 13:58:36.422163,1659
2021-12-10 13:58:36.422187,1909
2021-12-10 13:58:36.422196,958
2021-12-10 13:58:36.422205,-188
2021-12-10 13:58:36.422214,-371
2021-12-10 13:58:36.422222,-83
2021-12-10 13:58:36.422231,-145
2021-12-10 13:58:36.422239,-298
2021-12-10 13:58:36.422248,-245
2021-12-10 13:58:36.422256,-205
2021-12-10 13:58:36.422265,-226
2021-12-10 13:58:36.422273,-197
2021-12-10 13:58:36.422281,-169
2021-12-10 13:58:36.422290,-190
2021-12-10 13:58:36.422298,-193
2021-12-10 13:58:36.422307,-159
2021-12-10 13:58:36.422315,-133
2021-12-10 13:58:36.422324,-121
2021-12-10 13:58:36.422332,-121
2021-12-10 13:58:36.422341,-116
2021-12-10 13:58:36.422349,-92
2021-12-10 13:58:36.422357,-64
2021-12-10 13:58:36.422366,-38
2021-12-10 13:58:36.422374,-9
2021-12-10 13:58:36.422383,9
2021-12-10 13:58:36.422391,11
2021-12-10 13:58:36.422399,26
2021-12-10 13:58:36.422408,40
2021-12-10 13:58:36.422416,45
2021-12-10 13:58:36.422425,50
2021-12-10 13:58:36.691565,42
2021-12-10 13:58:36.691588,21
2021-12-10 13:58:36.691597,9
2021-12-10 13:58:36.691606,0
2021-12-10 13:58:36.691615,-9
2021-12-10 13:58:36.691623,-14
2021-12-10 13:58:36.691632,-38
2021-12-10 13:58:36.691641,-69
2021-12-10 13:58:36.691649,-66
2021-12-10 13:58:36.691657,-61
2021-12-10 13:58:36.691666,-61
2021-12-10 13:58:36.691674,-52
2021-12-10 13:58:36.691683,-64
2021-12-10 13:58:36.691691,-85
2021-12-10 13:58:36.691699,-71
2021-12-10 13:58:36.691708,-57
2021-12-10 13:58:36.691716,-57
2021-12-10 13:58:36.691724,-47
2021-12-10 13:58:36.691733,-45
2021-12-10 13:58:36.691741,-57
2021-12-10 13:58:36.691750,-69
2021-12-10 13:58:36.691758,-92
2021-12-10 13:58:36.691766,-123
2021-12-10 13:58:36.691775,-131
2021-12-10 13:58:36.691783,-116
2021-12-10 13:58:36.691791,-107
2021-12-10 13:58:36.691800,-104
2021-12-10 13:58:36.691808,-112
2021-12-10 13:58:36.691817,-119
2021-12-10 13:58:36.691825,-109
2021-12-10 13:58:36.871423,-104
2021-12-10 13:58:36.871443,-100
2021-12-10 13:58:36.871452,-92
2021-12-10 13:58:36.871460,-90
2021-12-10 13:58:36.871469,-83
2021-12-10 13:58:36.871477,-73
2021-12-10 13:58:36.871486,-81
2021-12-10 13:58:36.871494,-71
2021-12-10 13:58:36.871502,-54
2021-12-10 13:58:36.871511,-52
2021-12-10 13:58:36.871524,-50
2021-12-10 13:58:36.871532,-47
2021-12-10 13:58:36.871541,-52
2021-12-10 13:58:36.871549,-45
2021-12-10 13:58:36.871558,-26
2021-12-10 13:58:36.871566,-23
2021-12-10 13:58:36.871574,-30
2021-12-10 13:58:36.871583,-52
2021-12-10 13:58:36.871591,-69
2021-12-10 13:58:36.871599,-45
2021-12-10 13:58:36.871608,-30
2021-12-10 13:58:36.871616,-59
2021-12-10 13:58:36.871624,-83
2021-12-10 13:58:36.871633,-102
2021-12-10 13:58:36.871641,-121
2021-12-10 13:58:36.871649,-116
2021-12-10 13:58:36.871658,-104
2021-12-10 13:58:36.871666,-107
2021-12-10 13:58:36.871674,-104
2021-12-10 13:58:36.871682,-97
2021-12-10 13:58:37.097187,-92
2021-12-10 13:58:37.097210,-81
2021-12-10 13:58:37.097219,-107
2021-12-10 13:58:37.097228,-226
2021-12-10 13:58:37.097236,-293
2021-12-10 13:58:37.097244,-2
2021-12-10 13:58:37.097253,784
2021-12-10 13:58:37.097261,1738
2021-12-10 13:58:37.097270,1960
2021-12-10 13:58:37.097278,968
2021-12-10 13:58:37.097287,-185
2021-12-10 13:58:37.097295,-362
2021-12-10 13:58:37.097304,-76
2021-12-10 13:58:37.097312,-133
2021-12-10 13:58:37.097320,-257
2021-12-10 13:58:37.097329,-183
2021-12-10 13:58:37.097337,-154
2021-12-10 13:58:37.097345,-193
2021-12-10 13:58:37.097354,-164
2021-12-10 13:58:37.097362,-119
2021-12-10 13:58:37.097370,-114
2021-12-10 13:58:37.097379,-104
2021-12-10 13:58:37.097387,-83
2021-12-10 13:58:37.097395,-78
2021-12-10 13:58:37.097403,-83
2021-12-10 13:58:37.097416,-69
2021-12-10 13:58:37.097425,-42
2021-12-10 13:58:37.097433,-42
2021-12-10 13:58:37.097442,-66
2021-12-10 13:58:37.097450,-59
2021-12-10 13:58:37.276930,-11
2021-12-10 13:58:37.276954,21
2021-12-10 13:58:37.276963,30
2021-12-10 13:58:37.276972,40
2021-12-10 13:58:37.276981,40
2021-12-10 13:58:37.276989,35
2021-12-10 13:58:37.276997,40
2021-12-10 13:58:37.277006,52
2021-12-10 13:58:37.277014,42
2021-12-10 13:58:37.277022,9
2021-12-10 13:58:37.277031,-30
2021-12-10 13:58:37.277039,-50
2021-12-10 13:58:37.277047,-42
2021-12-10 13:58:37.277056,-40
2021-12-10 13:58:37.277064,-52
2021-12-10 13:58:37.277072,-64
2021-12-10 13:58:37.277081,-90
2021-12-10 13:58:37.277089,-100
2021-12-10 13:58:37.277097,-78
2021-12-10 13:58:37.277106,-57
2021-12-10 13:58:37.277114,-50
2021-12-10 13:58:37.277122,-52
2021-12-10 13:58:37.277130,-54
2021-12-10 13:58:37.277139,-45
2021-12-10 13:58:37.277147,-28
2021-12-10 13:58:37.277156,-21
2021-12-10 13:58:37.277164,-35
2021-12-10 13:58:37.277172,-57
2021-12-10 13:58:37.277180,-59
2021-12-10 13:58:37.277189,-52
2021-12-10 13:58:37.547170,-59
2021-12-10 13:58:37.547193,-54
2021-12-10 13:58:37.547202,-42
2021-12-10 13:58:37.547211,-69
2021-12-10 13:58:37.547219,-100
2021-12-10 13:58:37.547228,-85
2021-12-10 13:58:37.547236,-59
2021-12-10 13:58:37.547245,-57
2021-12-10 13:58:37.547253,-57
2021-12-10 13:58:37.547262,-76
2021-12-10 13:58:37.547270,-97
2021-12-10 13:58:37.547279,-78
2021-12-10 13:58:37.547287,-52
2021-12-10 13:58:37.547296,-50
2021-12-10 13:58:37.547304,-50
2021-12-10 13:58:37.547313,-52
2021-12-10 13:58:37.547324,-52
2021-12-10 13:58:37.547333,-40
2021-12-10 13:58:37.547341,-23
2021-12-10 13:58:37.547350,-26
2021-12-10 13:58:37.547358,-45
2021-12-10 13:58:37.547367,-66
2021-12-10 13:58:37.547375,-81
2021-12-10 13:58:37.547383,-83
2021-12-10 13:58:37.547392,-73
2021-12-10 13:58:37.547400,-57
2021-12-10 13:58:37.547408,-42
2021-12-10 13:58:37.547416,-38
2021-12-10 13:58:37.547425,-66
2021-12-10 13:58:37.547433,-81
2021-12-10 13:58:37.817141,-61
2021-12-10 13:58:37.817161,-64
2021-12-10 13:58:37.817170,-100
2021-12-10 13:58:37.817177,-138
2021-12-10 13:58:37.817185,-145
2021-12-10 13:58:37.817192,-119
2021-12-10 13:58:37.817200,-102
2021-12-10 13:58:37.817207,-95
2021-12-10 13:58:37.817214,-107
2021-12-10 13:58:37.817222,-152
2021-12-10 13:58:37.817229,-245
2021-12-10 13:58:37.817237,-309
2021-12-10 13:58:37.817244,-90
2021-12-10 13:58:37.817252,605
2021-12-10 13:58:37.817259,1537
2021-12-10 13:58:37.817267,1895
2021-12-10 13:58:37.817274,1082
2021-12-10 13:58:37.817281,-90
2021-12-10 13:58:37.817289,-391
2021-12-10 13:58:37.817296,-95
2021-12-10 13:58:37.817304,-107
2021-12-10 13:58:37.817311,-269
2021-12-10 13:58:37.817318,-205
2021-12-10 13:58:37.817326,-135
2021-12-10 13:58:37.817333,-162
2021-12-10 13:58:37.817340,-143
2021-12-10 13:58:37.817348,-109
2021-12-10 13:58:37.817355,-119
2021-12-10 13:58:37.817362,-102
2021-12-10 13:58:37.817369,-71
2021-12-10 13:58:37.996807,-73
2021-12-10 13:58:37.996829,-81
2021-12-10 13:58:37.996838,-64
2021-12-10 13:58:37.996847,-47
2021-12-10 13:58:37.996855,-26
2021-12-10 13:58:37.996864,2
2021-12-10 13:58:37.996872,30
2021-12-10 13:58:37.996880,47
2021-12-10 13:58:37.996889,52
2021-12-10 13:58:37.996897,54
2021-12-10 13:58:37.996905,73
2021-12-10 13:58:37.996914,92
2021-12-10 13:58:37.996922,95
2021-12-10 13:58:37.996934,83
2021-12-10 13:58:37.996943,45
2021-12-10 13:58:37.996951,11
2021-12-10 13:58:37.996960,14
2021-12-10 13:58:37.996968,21
2021-12-10 13:58:37.996976,11
2021-12-10 13:58:37.996985,-9
2021-12-10 13:58:37.996993,-47
2021-12-10 13:58:37.997001,-66
2021-12-10 13:58:37.997009,-57
2021-12-10 13:58:37.997018,-42
2021-12-10 13:58:37.997026,-40
2021-12-10 13:58:37.997034,-40
2021-12-10 13:58:37.997043,-47
2021-12-10 13:58:37.997051,-40
2021-12-10 13:58:37.997059,-21
2021-12-10 13:58:37.997068,-9
2021-12-10 13:58:38.265482,2
2021-12-10 13:58:38.265506,7
2021-12-10 13:58:38.265515,-14
2021-12-10 13:58:38.265524,-45
2021-12-10 13:58:38.265533,-54
2021-12-10 13:58:38.265541,-45
2021-12-10 13:58:38.265550,-40
2021-12-10 13:58:38.265558,-61
2021-12-10 13:58:38.265567,-112
2021-12-10 13:58:38.265575,-150
2021-12-10 13:58:38.265583,-140
2021-12-10 13:58:38.265592,-114
2021-12-10 13:58:38.265600,-119
2021-12-10 13:58:38.265608,-138
2021-12-10 13:58:38.265617,-145
2021-12-10 13:58:38.265625,-133
2021-12-10 13:58:38.265634,-116
2021-12-10 13:58:38.265642,-104
2021-12-10 13:58:38.265650,-97
2021-12-10 13:58:38.265659,-90
2021-12-10 13:58:38.265667,-85
2021-12-10 13:58:38.265676,-78
2021-12-10 13:58:38.265684,-66
2021-12-10 13:58:38.265693,-59
2021-12-10 13:58:38.265701,-71
2021-12-10 13:58:38.265709,-90
2021-12-10 13:58:38.265718,-95
2021-12-10 13:58:38.265726,-104
2021-12-10 13:58:38.265734,-112
2021-12-10 13:58:38.265743,-95
2021-12-10 13:58:38.491755,-85
2021-12-10 13:58:38.491776,-83
2021-12-10 13:58:38.491785,-57
2021-12-10 13:58:38.491794,-40
2021-12-10 13:58:38.491803,-64
2021-12-10 13:58:38.491811,-78
2021-12-10 13:58:38.491819,-90
2021-12-10 13:58:38.491828,-123
2021-12-10 13:58:38.491836,-135
2021-12-10 13:58:38.491845,-119
2021-12-10 13:58:38.491853,-112
2021-12-10 13:58:38.491861,-104
2021-12-10 13:58:38.491870,-114
2021-12-10 13:58:38.491878,-131
2021-12-10 13:58:38.491887,-123
2021-12-10 13:58:38.491895,-131
2021-12-10 13:58:38.491904,-226
2021-12-10 13:58:38.491915,-293
2021-12-10 13:58:38.491924,-30
2021-12-10 13:58:38.491932,686
2021-12-10 13:58:38.491941,1573
2021-12-10 13:58:38.491949,1828
2021-12-10 13:58:38.491957,939
2021-12-10 13:58:38.491965,-159
2021-12-10 13:58:38.491974,-338
2021-12-10 13:58:38.491982,-57
2021-12-10 13:58:38.491991,-95
2021-12-10 13:58:38.491999,-207
2021-12-10 13:58:38.492008,-133
2021-12-10 13:58:38.492016,-100
2021-12-10 13:58:38.672190,-133
2021-12-10 13:58:38.672212,-109
2021-12-10 13:58:38.672222,-73
2021-12-10 13:58:38.672231,-73
2021-12-10 13:58:38.672240,-59
2021-12-10 13:58:38.672248,-28
2021-12-10 13:58:38.672257,-26
2021-12-10 13:58:38.672265,-33
2021-12-10 13:58:38.672274,-14
2021-12-10 13:58:38.672282,9
2021-12-10 13:58:38.672291,23
2021-12-10 13:58:38.672299,33
2021-12-10 13:58:38.672308,28
2021-12-10 13:58:38.672316,23
2021-12-10 13:58:38.672324,14
2021-12-10 13:58:38.672333,2
2021-12-10 13:58:38.672341,16
2021-12-10 13:58:38.672349,21
2021-12-10 13:58:38.672358,-9
2021-12-10 13:58:38.672366,-14
2021-12-10 13:58:38.672375,-2
2021-12-10 13:58:38.672383,-16
2021-12-10 13:58:38.672391,-30
2021-12-10 13:58:38.672400,-33
2021-12-10 13:58:38.672408,-38
2021-12-10 13:58:38.672416,-33
2021-12-10 13:58:38.672425,-28
2021-12-10 13:58:38.672433,-35
2021-12-10 13:58:38.672441,-35
2021-12-10 13:58:38.672449,-30
2021-12-10 13:58:38.942198,-28
2021-12-10 13:58:38.942220,-16
2021-12-10 13:58:38.942230,0
2021-12-10 13:58:38.942238,2
2021-12-10 13:58:38.942247,-2
2021-12-10 13:58:38.942256,-16
2021-12-10 13:58:38.942264,-21
2021-12-10 13:58:38.942272,-4
2021-12-10 13:58:38.942281,-9
2021-12-10 13:58:38.942289,-47
2021-12-10 13:58:38.942298,-73
2021-12-10 13:58:38.942306,-85
2021-12-10 13:58:38.942314,-90
2021-12-10 13:58:38.942323,-73
2021-12-10 13:58:38.942331,-66
2021-12-10 13:58:38.942340,-71
2021-12-10 13:58:38.942348,-71
2021-12-10 13:58:38.942356,-66
2021-12-10 13:58:38.942365,-59
2021-12-10 13:58:38.942373,-45
2021-12-10 13:58:38.942381,-45
2021-12-10 13:58:38.942390,-50
2021-12-10 13:58:38.942398,-42
2021-12-10 13:58:38.942406,-38
2021-12-10 13:58:38.942414,-33
2021-12-10 13:58:38.942423,-21
2021-12-10 13:58:38.942431,-14
2021-12-10 13:58:38.942439,-16
2021-12-10 13:58:38.942448,-19
2021-12-10 13:58:38.942459,-23
2021-12-10 13:58:39.166826,-33
2021-12-10 13:58:39.166848,-40
2021-12-10 13:58:39.166857,-42
2021-12-10 13:58:39.166866,-59
2021-12-10 13:58:39.166874,-92
2021-12-10 13:58:39.166882,-112
2021-12-10 13:58:39.166891,-100
2021-12-10 13:58:39.166899,-73
2021-12-10 13:58:39.166907,-54
2021-12-10 13:58:39.166915,-42
2021-12-10 13:58:39.166924,-57
2021-12-10 13:58:39.166932,-76
2021-12-10 13:58:39.166940,-83
2021-12-10 13:58:39.166948,-95
2021-12-10 13:58:39.166957,-102
2021-12-10 13:58:39.166965,-100
2021-12-10 13:58:39.166973,-107
2021-12-10 13:58:39.166981,-112
2021-12-10 13:58:39.166989,-100
2021-12-10 13:58:39.166998,-109
2021-12-10 13:58:39.167006,-147
2021-12-10 13:58:39.167014,-171
2021-12-10 13:58:39.167022,-240
2021-12-10 13:58:39.167030,-324
2021-12-10 13:58:39.167038,-133
2021-12-10 13:58:39.167047,498
2021-12-10 13:58:39.167055,1354
2021-12-10 13:58:39.167063,1738
2021-12-10 13:58:39.167071,1025
2021-12-10 13:58:39.167079,-90
2021-12-10 13:58:39.347170,-383
2021-12-10 13:58:39.347191,-95
2021-12-10 13:58:39.347201,-92
2021-12-10 13:58:39.347209,-231
2021-12-10 13:58:39.347218,-185
2021-12-10 13:58:39.347227,-135
2021-12-10 13:58:39.347235,-147
2021-12-10 13:58:39.347243,-128
2021-12-10 13:58:39.347252,-100
2021-12-10 13:58:39.347260,-114
2021-12-10 13:58:39.347269,-128
2021-12-10 13:58:39.347277,-104
2021-12-10 13:58:39.347285,-92
2021-12-10 13:58:39.347294,-104
2021-12-10 13:58:39.347302,-92
2021-12-10 13:58:39.347311,-83
2021-12-10 13:58:39.347319,-90
2021-12-10 13:58:39.347327,-59
2021-12-10 13:58:39.347335,-14
2021-12-10 13:58:39.347344,4
2021-12-10 13:58:39.347352,19
2021-12-10 13:58:39.347360,23
2021-12-10 13:58:39.347369,26
2021-12-10 13:58:39.347377,42
2021-12-10 13:58:39.347385,54
2021-12-10 13:58:39.347394,52
2021-12-10 13:58:39.347402,45
2021-12-10 13:58:39.347410,21
2021-12-10 13:58:39.347418,4
2021-12-10 13:58:39.347427,9
2021-12-10 13:58:39.617205,14
2021-12-10 13:58:39.617228,9
2021-12-10 13:58:39.617237,-7
2021-12-10 13:58:39.617246,-45
2021-12-10 13:58:39.617255,-59
2021-12-10 13:58:39.617263,-38
2021-12-10 13:58:39.617271,-23
2021-12-10 13:58:39.617280,-23
2021-12-10 13:58:39.617288,-30
2021-12-10 13:58:39.617297,-52
2021-12-10 13:58:39.617305,-52
2021-12-10 13:58:39.617313,-23
2021-12-10 13:58:39.617322,-7
2021-12-10 13:58:39.617330,-4
2021-12-10 13:58:39.617338,-11
2021-12-10 13:58:39.617347,-33
2021-12-10 13:58:39.617355,-33
2021-12-10 13:58:39.617364,-14
2021-12-10 13:58:39.617372,-19
2021-12-10 13:58:39.617380,-30
2021-12-10 13:58:39.617392,-33
2021-12-10 13:58:39.617401,-47
2021-12-10 13:58:39.617409,-47
2021-12-10 13:58:39.617417,-28
2021-12-10 13:58:39.617426,-28
2021-12-10 13:58:39.617434,-57
2021-12-10 13:58:39.617443,-90
2021-12-10 13:58:39.617451,-97
2021-12-10 13:58:39.617460,-83
2021-12-10 13:58:39.617468,-71
2021-12-10 13:58:39.841934,-59
2021-12-10 13:58:39.841957,-50
2021-12-10 13:58:39.841966,-52
2021-12-10 13:58:39.841975,-64
2021-12-10 13:58:39.841983,-57
2021-12-10 13:58:39.841992,-33
2021-12-10 13:58:39.842000,-21
2021-12-10 13:58:39.842009,-28
2021-12-10 13:58:39.842017,-64
2021-12-10 13:58:39.842026,-100
2021-12-10 13:58:39.842034,-90
2021-12-10 13:58:39.842043,-66
2021-12-10 13:58:39.842051,-52
2021-12-10 13:58:39.842060,-57
2021-12-10 13:58:39.842068,-83
2021-12-10 13:58:39.842077,-109
2021-12-10 13:58:39.842085,-131
2021-12-10 13:58:39.842093,-154
2021-12-10 13:58:39.842102,-152
2021-12-10 13:58:39.842110,-138
2021-12-10 13:58:39.842118,-150
2021-12-10 13:58:39.842127,-157
2021-12-10 13:58:39.842135,-133
2021-12-10 13:58:39.842144,-112
2021-12-10 13:58:39.842152,-116
2021-12-10 13:58:39.842160,-181
2021-12-10 13:58:39.842169,-290
2021-12-10 13:58:39.842177,-193
2021-12-10 13:58:39.842186,343
2021-12-10 13:58:39.842194,1182
2021-12-10 13:58:40.066861,1731
2021-12-10 13:58:40.066884,1254
2021-12-10 13:58:40.066894,104
2021-12-10 13:58:40.066903,-400
2021-12-10 13:58:40.066912,-147
2021-12-10 13:58:40.066920,-61
2021-12-10 13:58:40.066928,-193
2021-12-10 13:58:40.066937,-183
2021-12-10 13:58:40.066945,-150
2021-12-10 13:58:40.066953,-174
2021-12-10 13:58:40.066962,-150
2021-12-10 13:58:40.066970,-104
2021-12-10 13:58:40.066979,-97
2021-12-10 13:58:40.066988,-109
2021-12-10 13:58:40.066996,-114
2021-12-10 13:58:40.067005,-100
2021-12-10 13:58:40.067013,-66
2021-12-10 13:58:40.067022,-40
2021-12-10 13:58:40.067031,-35
2021-12-10 13:58:40.067039,-40
2021-12-10 13:58:40.067047,-26
2021-12-10 13:58:40.067056,2
2021-12-10 13:58:40.067064,26
2021-12-10 13:58:40.067072,47
2021-12-10 13:58:40.067081,64
2021-12-10 13:58:40.067089,66
2021-12-10 13:58:40.067097,66
2021-12-10 13:58:40.067106,69
2021-12-10 13:58:40.067114,66
2021-12-10 13:58:40.067122,61
2021-12-10 13:58:40.335461,42
2021-12-10 13:58:40.335482,2
2021-12-10 13:58:40.335492,-35
2021-12-10 13:58:40.335500,-42
2021-12-10 13:58:40.335509,-33
2021-12-10 13:58:40.335517,-33
2021-12-10 13:58:40.335525,-47
2021-12-10 13:58:40.335534,-66
2021-12-10 13:58:40.335542,-69
2021-12-10 13:58:40.335550,-61
2021-12-10 13:58:40.335559,-54
2021-12-10 13:58:40.335567,-42
2021-12-10 13:58:40.335575,-47
2021-12-10 13:58:40.335583,-66
2021-12-10 13:58:40.335591,-61
2021-12-10 13:58:40.335600,-45
2021-12-10 13:58:40.335608,-35
2021-12-10 13:58:40.335616,-28
2021-12-10 13:58:40.335625,-28
2021-12-10 13:58:40.335633,-28
2021-12-10 13:58:40.335641,-30
2021-12-10 13:58:40.335649,-50
2021-12-10 13:58:40.335660,-54
2021-12-10 13:58:40.335669,-35
2021-12-10 13:58:40.335677,-38
2021-12-10 13:58:40.335685,-57
2021-12-10 13:58:40.335694,-61
2021-12-10 13:58:40.335702,-54
2021-12-10 13:58:40.335710,-50
2021-12-10 13:58:40.335719,-45
2021-12-10 13:58:40.517177,-42
2021-12-10 13:58:40.517200,-40
2021-12-10 13:58:40.517209,-38
2021-12-10 13:58:40.517218,-38
2021-12-10 13:58:40.517226,-28
2021-12-10 13:58:40.517235,-23
2021-12-10 13:58:40.517243,-45
2021-12-10 13:58:40.517252,-52
2021-12-10 13:58:40.517260,-33
2021-12-10 13:58:40.517268,-28
2021-12-10 13:58:40.517277,-23
2021-12-10 13:58:40.517285,-26
2021-12-10 13:58:40.517293,-47
2021-12-10 13:58:40.517302,-35
2021-12-10 13:58:40.517310,9
2021-12-10 13:58:40.517319,2
2021-12-10 13:58:40.517327,-33
2021-12-10 13:58:40.517335,-35
2021-12-10 13:58:40.517344,-59
2021-12-10 13:58:40.517352,-92
2021-12-10 13:58:40.517360,-83
2021-12-10 13:58:40.517369,-81
2021-12-10 13:58:40.517377,-102
2021-12-10 13:58:40.517385,-123
2021-12-10 13:58:40.517394,-135
2021-12-10 13:58:40.517401,-126
2021-12-10 13:58:40.517410,-109
2021-12-10 13:58:40.517418,-135
2021-12-10 13:58:40.517426,-226
2021-12-10 13:58:40.517435,-257
2021-12-10 13:58:40.741622,38
2021-12-10 13:58:40.741642,746
2021-12-10 13:58:40.741651,1526
2021-12-10 13:58:40.741660,1599
2021-12-10 13:58:40.741669,646
2021-12-10 13:58:40.741677,-298
2021-12-10 13:58:40.741686,-355
2021-12-10 13:58:40.741694,-145
2021-12-10 13:58:40.741702,-238
2021-12-10 13:58:40.741711,-302
2021-12-10 13:58:40.741719,-221
2021-12-10 13:58:40.741728,-233
2021-12-10 13:58:40.741736,-262
2021-12-10 13:58:40.741744,-207
2021-12-10 13:58:40.741753,-174
2021-12-10 13:58:40.741761,-176
2021-12-10 13:58:40.741770,-157
2021-12-10 13:58:40.741778,-131
2021-12-10 13:58:40.741786,-114
2021-12-10 13:58:40.741795,-88
2021-12-10 13:58:40.741803,-61
2021-12-10 13:58:40.741811,-40
2021-12-10 13:58:40.741820,-19
2021-12-10 13:58:40.741828,-4
2021-12-10 13:58:40.741837,0
2021-12-10 13:58:40.741845,-2
2021-12-10 13:58:40.741854,2
2021-12-10 13:58:40.741862,14
2021-12-10 13:58:40.741870,26
2021-12-10 13:58:40.741879,26
2021-12-10 13:58:40.966839,28
2021-12-10 13:58:40.966859,42
2021-12-10 13:58:40.966869,47
2021-12-10 13:58:40.966877,26
2021-12-10 13:58:40.966886,-11
2021-12-10 13:58:40.966894,-35
2021-12-10 13:58:40.966903,-28
2021-12-10 13:58:40.966911,-14
2021-12-10 13:58:40.966920,-23
2021-12-10 13:58:40.966928,-40
2021-12-10 13:58:40.966937,-64
2021-12-10 13:58:40.966945,-88
2021-12-10 13:58:40.966954,-85
2021-12-10 13:58:40.966962,-64
2021-12-10 13:58:40.966970,-50
2021-12-10 13:58:40.966979,-50
2021-12-10 13:58:40.966987,-52
2021-12-10 13:58:40.966995,-50
2021-12-10 13:58:40.967004,-35
2021-12-10 13:58:40.967012,-26
2021-12-10 13:58:40.967020,-21
2021-12-10 13:58:40.967029,-14
2021-12-10 13:58:40.967037,-14
2021-12-10 13:58:40.967045,-14
2021-12-10 13:58:40.967053,-4
2021-12-10 13:58:40.967062,9
2021-12-10 13:58:40.967070,4
2021-12-10 13:58:40.967078,-21
2021-12-10 13:58:40.967087,-35
2021-12-10 13:58:40.967095,-21
2021-12-10 13:58:41.192136,-7
2021-12-10 13:58:41.192157,-7
2021-12-10 13:58:41.192166,-23
2021-12-10 13:58:41.192175,-57
2021-12-10 13:58:41.192184,-83
2021-12-10 13:58:41.192197,-78
2021-12-10 13:58:41.192206,-61
2021-12-10 13:58:41.192214,-50
2021-12-10 13:58:41.192222,-47
2021-12-10 13:58:41.192231,-64
2021-12-10 13:58:41.192239,-83
2021-12-10 13:58:41.192248,-64
2021-12-10 13:58:41.192256,-38
2021-12-10 13:58:41.192265,-61
2021-12-10 13:58:41.192273,-85
2021-12-10 13:58:41.192282,-57
2021-12-10 13:58:41.192290,-45
2021-12-10 13:58:41.192299,-54
2021-12-10 13:58:41.192307,-50
2021-12-10 13:58:41.192315,-42
2021-12-10 13:58:41.192324,-50
2021-12-10 13:58:41.192332,-64
2021-12-10 13:58:41.192341,-83
2021-12-10 13:58:41.192349,-85
2021-12-10 13:58:41.192357,-83
2021-12-10 13:58:41.192366,-92
2021-12-10 13:58:41.192374,-104
2021-12-10 13:58:41.192383,-114
2021-12-10 13:58:41.192391,-162
2021-12-10 13:58:41.192400,-274
2021-12-10 13:58:41.462184,-309
2021-12-10 13:58:41.462206,2
2021-12-10 13:58:41.462216,708
2021-12-10 13:58:41.462225,1437
2021-12-10 13:58:41.462233,1471
2021-12-10 13:58:41.462242,550
2021-12-10 13:58:41.462250,-317
2021-12-10 13:58:41.462259,-331
2021-12-10 13:58:41.462267,-116
2021-12-10 13:58:41.462276,-216
2021-12-10 13:58:41.462284,-278
2021-12-10 13:58:41.462292,-183
2021-12-10 13:58:41.462301,-166
2021-12-10 13:58:41.462309,-181
2021-12-10 13:58:41.462318,-147
2021-12-10 13:58:41.462326,-138
2021-12-10 13:58:41.462335,-131
2021-12-10 13:58:41.462343,-92
2021-12-10 13:58:41.462351,-64
2021-12-10 13:58:41.462359,-47
2021-12-10 13:58:41.462368,-35
2021-12-10 13:58:41.462376,-28
2021-12-10 13:58:41.462385,-11
2021-12-10 13:58:41.462393,23
2021-12-10 13:58:41.462401,54
2021-12-10 13:58:41.462410,71
2021-12-10 13:58:41.462418,81
2021-12-10 13:58:41.462426,83
2021-12-10 13:58:41.462434,97
2021-12-10 13:58:41.462443,119
2021-12-10 13:58:41.732179,116
2021-12-10 13:58:41.732200,90
2021-12-10 13:58:41.732210,66
2021-12-10 13:58:41.732219,50
2021-12-10 13:58:41.732227,40
2021-12-10 13:58:41.732236,35
2021-12-10 13:58:41.732244,35
2021-12-10 13:58:41.732253,35
2021-12-10 13:58:41.732261,9
2021-12-10 13:58:41.732270,-26
2021-12-10 13:58:41.732278,-16
2021-12-10 13:58:41.732286,7
2021-12-10 13:58:41.732295,9
2021-12-10 13:58:41.732303,2
2021-12-10 13:58:41.732311,-14
2021-12-10 13:58:41.732320,-28
2021-12-10 13:58:41.732328,-9
2021-12-10 13:58:41.732336,14
2021-12-10 13:58:41.732345,14
2021-12-10 13:58:41.732353,-14
2021-12-10 13:58:41.732361,-52
2021-12-10 13:58:41.732369,-50
2021-12-10 13:58:41.732378,-23
2021-12-10 13:58:41.732386,-7
2021-12-10 13:58:41.732394,0
2021-12-10 13:58:41.732403,4
2021-12-10 13:58:41.732411,4
2021-12-10 13:58:41.732419,4
2021-12-10 13:58:41.732428,14
2021-12-10 13:58:41.732436,30
2021-12-10 13:58:41.912236,45
2021-12-10 13:58:41.912257,45
2021-12-10 13:58:41.912267,28
2021-12-10 13:58:41.912276,11
2021-12-10 13:58:41.912284,9
2021-12-10 13:58:41.912293,26
2021-12-10 13:58:41.912301,40
2021-12-10 13:58:41.912309,23
2021-12-10 13:58:41.912318,-11
2021-12-10 13:58:41.912326,-23
2021-12-10 13:58:41.912334,7
2021-12-10 13:58:41.912343,26
2021-12-10 13:58:41.912351,26
2021-12-10 13:58:41.912359,45
2021-12-10 13:58:41.912368,69
2021-12-10 13:58:41.912376,61
2021-12-10 13:58:41.912384,54
2021-12-10 13:58:41.912392,66
2021-12-10 13:58:41.912401,52
2021-12-10 13:58:41.912409,7
2021-12-10 13:58:41.912417,-11
2021-12-10 13:58:41.912426,2
2021-12-10 13:58:41.912434,9
2021-12-10 13:58:41.912442,16
2021-12-10 13:58:41.912451,26
2021-12-10 13:58:41.912459,23
2021-12-10 13:58:41.912467,16
2021-12-10 13:58:41.912476,-21
2021-12-10 13:58:41.912484,-133
2021-12-10 13:58:41.912492,-131
2021-12-10 13:58:42.181808,247
2021-12-10 13:58:42.181832,972
2021-12-10 13:58:42.181842,1607
2021-12-10 13:58:42.181851,1411
2021-12-10 13:58:42.181859,367
2021-12-10 13:58:42.181868,-333
2021-12-10 13:58:42.181877,-224
2021-12-10 13:58:42.181885,-92
2021-12-10 13:58:42.181894,-200
2021-12-10 13:58:42.181902,-209
2021-12-10 13:58:42.181911,-150
2021-12-10 13:58:42.181919,-150
2021-12-10 13:58:42.181927,-159
2021-12-10 13:58:42.181936,-150
2021-12-10 13:58:42.181944,-138
2021-12-10 13:58:42.181953,-121
2021-12-10 13:58:42.181961,-104
2021-12-10 13:58:42.181969,-92
2021-12-10 13:58:42.181977,-81
2021-12-10 13:58:42.181986,-66
2021-12-10 13:58:42.181994,-45
2021-12-10 13:58:42.182002,-28
2021-12-10 13:58:42.182010,-14
2021-12-10 13:58:42.182018,11
2021-12-10 13:58:42.182027,23
2021-12-10 13:58:42.182035,2
2021-12-10 13:58:42.182043,0
2021-12-10 13:58:42.182052,28
2021-12-10 13:58:42.182060,38
2021-12-10 13:58:42.182068,38
2021-12-10 13:58:42.405554,38
2021-12-10 13:58:42.405576,30
2021-12-10 13:58:42.405586,28
2021-12-10 13:58:42.405594,23
2021-12-10 13:58:42.405603,14
2021-12-10 13:58:42.405611,19
2021-12-10 13:58:42.405650,26
2021-12-10 13:58:42.405658,7
2021-12-10 13:58:42.405667,-26
2021-12-10 13:58:42.405675,-30
2021-12-10 13:58:42.405684,-16
2021-12-10 13:58:42.405692,-19
2021-12-10 13:58:42.405700,-45
2021-12-10 13:58:42.405709,-45
2021-12-10 13:58:42.405717,-28
2021-12-10 13:58:42.405726,-28
2021-12-10 13:58:42.405734,-23
2021-12-10 13:58:42.405743,-11
2021-12-10 13:58:42.405751,-28
2021-12-10 13:58:42.405759,-30
2021-12-10 13:58:42.405768,-14
2021-12-10 13:58:42.405776,-9
2021-12-10 13:58:42.405785,-2
2021-12-10 13:58:42.405793,9
2021-12-10 13:58:42.405801,4
2021-12-10 13:58:42.405809,9
2021-12-10 13:58:42.405818,23
2021-12-10 13:58:42.405826,19
2021-12-10 13:58:42.405834,23
2021-12-10 13:58:42.405843,30
2021-12-10 13:58:42.632235,26
2021-12-10 13:58:42.632258,33
2021-12-10 13:58:42.632267,52
2021-12-10 13:58:42.632276,54
2021-12-10 13:58:42.632285,50
2021-12-10 13:58:42.632293,38
2021-12-10 13:58:42.632302,19
2021-12-10 13:58:42.632310,23
2021-12-10 13:58:42.632319,52
2021-12-10 13:58:42.632327,61
2021-12-10 13:58:42.632336,40
2021-12-10 13:58:42.632344,14
2021-12-10 13:58:42.632353,7
2021-12-10 13:58:42.632361,7
2021-12-10 13:58:42.632370,-19
2021-12-10 13:58:42.632378,-52
2021-12-10 13:58:42.632387,-54
2021-12-10 13:58:42.632395,-47
2021-12-10 13:58:42.632404,-40
2021-12-10 13:58:42.632412,-28
2021-12-10 13:58:42.632421,-19
2021-12-10 13:58:42.632429,-23
2021-12-10 13:58:42.632437,-47
2021-12-10 13:58:42.632446,-133
2021-12-10 13:58:42.632454,-174
2021-12-10 13:58:42.632463,90
2021-12-10 13:58:42.632471,739
2021-12-10 13:58:42.632480,1475
2021-12-10 13:58:42.632488,1604
2021-12-10 13:58:42.632497,736
2021-12-10 13:58:42.812217,-197
2021-12-10 13:58:42.812239,-283
2021-12-10 13:58:42.812248,-78
2021-12-10 13:58:42.812257,-140
2021-12-10 13:58:42.812269,-207
2021-12-10 13:58:42.812277,-176
2021-12-10 13:58:42.812286,-178
2021-12-10 13:58:42.812294,-183
2021-12-10 13:58:42.812303,-162
2021-12-10 13:58:42.812311,-145
2021-12-10 13:58:42.812319,-138
2021-12-10 13:58:42.812328,-133
2021-12-10 13:58:42.812336,-131
2021-12-10 13:58:42.812345,-107
2021-12-10 13:58:42.812353,-71
2021-12-10 13:58:42.812362,-59
2021-12-10 13:58:42.812370,-76
2021-12-10 13:58:42.812378,-78
2021-12-10 13:58:42.812386,-42
2021-12-10 13:58:42.812395,-7
2021-12-10 13:58:42.812403,9
2021-12-10 13:58:42.812411,19
2021-12-10 13:58:42.812420,26
2021-12-10 13:58:42.812428,30
2021-12-10 13:58:42.812437,40
2021-12-10 13:58:42.812445,47
2021-12-10 13:58:42.812454,47
2021-12-10 13:58:42.812462,33
2021-12-10 13:58:42.812471,14
2021-12-10 13:58:42.812479,14
2021-12-10 13:58:43.036860,26
2021-12-10 13:58:43.036882,35
2021-12-10 13:58:43.036892,38
2021-12-10 13:58:43.036900,19
2021-12-10 13:58:43.036909,-14
2021-12-10 13:58:43.036917,-14
2021-12-10 13:58:43.036926,11
2021-12-10 13:58:43.036934,23
2021-12-10 13:58:43.036942,21
2021-12-10 13:58:43.036951,14
2021-12-10 13:58:43.036959,-2
2021-12-10 13:58:43.036970,4
2021-12-10 13:58:43.036979,28
2021-12-10 13:58:43.036987,16
2021-12-10 13:58:43.036996,-4
2021-12-10 13:58:43.037004,0
2021-12-10 13:58:43.037013,9
2021-12-10 13:58:43.037021,16
2021-12-10 13:58:43.037030,33
2021-12-10 13:58:43.037038,42
2021-12-10 13:58:43.037046,42
2021-12-10 13:58:43.037055,35
2021-12-10 13:58:43.037063,38
2021-12-10 13:58:43.037072,54
2021-12-10 13:58:43.037080,69
2021-12-10 13:58:43.037089,73
2021-12-10 13:58:43.037097,78
2021-12-10 13:58:43.037105,71
2021-12-10 13:58:43.037113,66
2021-12-10 13:58:43.037122,78
2021-12-10 13:58:43.306878,92
2021-12-10 13:58:43.306901,116
2021-12-10 13:58:43.306910,143
2021-12-10 13:58:43.306919,114
2021-12-10 13:58:43.306927,73
2021-12-10 13:58:43.306936,88
2021-12-10 13:58:43.306944,78
2021-12-10 13:58:43.306953,14
2021-12-10 13:58:43.306961,-11
2021-12-10 13:58:43.306969,-19
2021-12-10 13:58:43.306978,-30
2021-12-10 13:58:43.306986,-19
2021-12-10 13:58:43.306994,4
2021-12-10 13:58:43.307003,11
2021-12-10 13:58:43.307011,14
2021-12-10 13:58:43.307019,-26
2021-12-10 13:58:43.307027,-135
2021-12-10 13:58:43.307036,-197
2021-12-10 13:58:43.307044,28
2021-12-10 13:58:43.307052,660
2021-12-10 13:58:43.307061,1447
2021-12-10 13:58:43.307069,1659
2021-12-10 13:58:43.307077,829
2021-12-10 13:58:43.307086,-145
2021-12-10 13:58:43.307094,-271
2021-12-10 13:58:43.307102,-33
2021-12-10 13:58:43.307110,-81
2021-12-10 13:58:43.307119,-159
2021-12-10 13:58:43.307127,-90
2021-12-10 13:58:43.307135,-59
2021-12-10 13:58:43.621249,-73
2021-12-10 13:58:43.621272,-50
2021-12-10 13:58:43.621281,-35
2021-12-10 13:58:43.621290,-47
2021-12-10 13:58:43.621298,-28
2021-12-10 13:58:43.621307,2
2021-12-10 13:58:43.621315,16
2021-12-10 13:58:43.621323,19
2021-12-10 13:58:43.621332,-11
2021-12-10 13:58:43.621340,-45
2021-12-10 13:58:43.621348,-38
2021-12-10 13:58:43.621356,-23
2021-12-10 13:58:43.621365,-9
2021-12-10 13:58:43.621373,7
2021-12-10 13:58:43.621382,-2
2021-12-10 13:58:43.621390,-16
2021-12-10 13:58:43.621399,0
2021-12-10 13:58:43.621407,0
2021-12-10 13:58:43.621415,-26
2021-12-10 13:58:43.621424,-30
2021-12-10 13:58:43.621432,-42
2021-12-10 13:58:43.621440,-69
2021-12-10 13:58:43.621449,-71
2021-12-10 13:58:43.621457,-59
2021-12-10 13:58:43.621465,-59
2021-12-10 13:58:43.621473,-71
2021-12-10 13:58:43.621482,-88
2021-12-10 13:58:43.621490,-97
2021-12-10 13:58:43.621499,-92
2021-12-10 13:58:43.621507,-78
2021-12-10 13:58:43.801595,-69
2021-12-10 13:58:43.801616,-66
2021-12-10 13:58:43.801626,-73
2021-12-10 13:58:43.801634,-76
2021-12-10 13:58:43.801643,-61
2021-12-10 13:58:43.801652,-42
2021-12-10 13:58:43.801660,-33
2021-12-10 13:58:43.801669,-38
2021-12-10 13:58:43.801677,-45
2021-12-10 13:58:43.801685,-40
2021-12-10 13:58:43.801694,-28
2021-12-10 13:58:43.801702,-38
2021-12-10 13:58:43.801710,-78
2021-12-10 13:58:43.801719,-109
2021-12-10 13:58:43.801728,-121
2021-12-10 13:58:43.801736,-116
2021-12-10 13:58:43.801744,-102
2021-12-10 13:58:43.801755,-88
2021-12-10 13:58:43.801764,-81
2021-12-10 13:58:43.801772,-88
2021-12-10 13:58:43.801780,-102
2021-12-10 13:58:43.801789,-100
2021-12-10 13:58:43.801797,-83
2021-12-10 13:58:43.801806,-69
2021-12-10 13:58:43.801814,-64
2021-12-10 13:58:43.801823,-57
2021-12-10 13:58:43.801831,-33
2021-12-10 13:58:43.801840,-11
2021-12-10 13:58:43.801848,-16
2021-12-10 13:58:43.801856,-14
2021-12-10 13:58:43.981916,-14
2021-12-10 13:58:43.981936,-38
2021-12-10 13:58:43.981946,-52
2021-12-10 13:58:43.981955,-42
2021-12-10 13:58:43.981963,-38
2021-12-10 13:58:43.981972,-33
2021-12-10 13:58:43.981980,-33
2021-12-10 13:58:43.981989,-50
2021-12-10 13:58:43.981997,-57
2021-12-10 13:58:43.982005,-59
2021-12-10 13:58:43.982014,-123
2021-12-10 13:58:43.982022,-219
2021-12-10 13:58:43.982031,-112
2021-12-10 13:58:43.982039,391
2021-12-10 13:58:43.982048,1187
2021-12-10 13:58:43.982056,1681
2021-12-10 13:58:43.982065,1165
2021-12-10 13:58:43.982073,81
2021-12-10 13:58:43.982082,-352
2021-12-10 13:58:43.982090,-145
2021-12-10 13:58:43.982099,-116
2021-12-10 13:58:43.982108,-259
2021-12-10 13:58:43.982116,-243
2021-12-10 13:58:43.982125,-190
2021-12-10 13:58:43.982133,-209
2021-12-10 13:58:43.982142,-207
2021-12-10 13:58:43.982150,-171
2021-12-10 13:58:43.982158,-157
2021-12-10 13:58:43.982167,-147
2021-12-10 13:58:43.982175,-123
2021-12-10 13:58:44.206802,-114
2021-12-10 13:58:44.206822,-107
2021-12-10 13:58:44.206831,-85
2021-12-10 13:58:44.206840,-69
2021-12-10 13:58:44.206849,-52
2021-12-10 13:58:44.206857,-35
2021-12-10 13:58:44.206865,-42
2021-12-10 13:58:44.206874,-42
2021-12-10 13:58:44.206885,-16
2021-12-10 13:58:44.206893,2
2021-12-10 13:58:44.206902,-7
2021-12-10 13:58:44.206910,-26
2021-12-10 13:58:44.206919,-54
2021-12-10 13:58:44.206927,-85
2021-12-10 13:58:44.206936,-97
2021-12-10 13:58:44.206944,-100
2021-12-10 13:58:44.206953,-112
2021-12-10 13:58:44.206961,-135
2021-12-10 13:58:44.206969,-178
2021-12-10 13:58:44.206978,-197
2021-12-10 13:58:44.206986,-183
2021-12-10 13:58:44.206994,-193
2021-12-10 13:58:44.207003,-209
2021-12-10 13:58:44.207011,-219
2021-12-10 13:58:44.207019,-231
2021-12-10 13:58:44.207028,-216
2021-12-10 13:58:44.207036,-197
2021-12-10 13:58:44.207044,-197
2021-12-10 13:58:44.207053,-190
2021-12-10 13:58:44.207061,-176
2021-12-10 13:58:44.476483,-174
2021-12-10 13:58:44.476505,-166
2021-12-10 13:58:44.476515,-154
2021-12-10 13:58:44.476523,-150
2021-12-10 13:58:44.476531,-150
2021-12-10 13:58:44.476540,-159
2021-12-10 13:58:44.476548,-174
2021-12-10 13:58:44.476556,-162
2021-12-10 13:58:44.476564,-143
2021-12-10 13:58:44.476573,-143
2021-12-10 13:58:44.476581,-145
2021-12-10 13:58:44.476589,-154
2021-12-10 13:58:44.476598,-171
2021-12-10 13:58:44.476606,-159
2021-12-10 13:58:44.476615,-143
2021-12-10 13:58:44.476623,-145
2021-12-10 13:58:44.476632,-138
2021-12-10 13:58:44.476640,-128
2021-12-10 13:58:44.476648,-126
2021-12-10 13:58:44.476657,-114
2021-12-10 13:58:44.476665,-100
2021-12-10 13:58:44.476673,-95
2021-12-10 13:58:44.476681,-71
2021-12-10 13:58:44.476690,-40
2021-12-10 13:58:44.476698,-42
2021-12-10 13:58:44.476706,-64
2021-12-10 13:58:44.476715,-78
2021-12-10 13:58:44.476723,-95
2021-12-10 13:58:44.476731,-107
2021-12-10 13:58:44.476740,-107
2021-12-10 13:58:44.657257,-95
2021-12-10 13:58:44.657280,-83
2021-12-10 13:58:44.657289,-76
2021-12-10 13:58:44.657298,-76
2021-12-10 13:58:44.657306,-83
2021-12-10 13:58:44.657315,-95
2021-12-10 13:58:44.657323,-126
2021-12-10 13:58:44.657332,-207
2021-12-10 13:58:44.657340,-228
2021-12-10 13:58:44.657348,69
2021-12-10 13:58:44.657357,751
2021-12-10 13:58:44.657365,1473
2021-12-10 13:58:44.657373,1511
2021-12-10 13:58:44.657381,596
2021-12-10 13:58:44.657390,-262
2021-12-10 13:58:44.657398,-288
2021-12-10 13:58:44.657407,-97
2021-12-10 13:58:44.657415,-183
2021-12-10 13:58:44.657423,-228
2021-12-10 13:58:44.657431,-150
2021-12-10 13:58:44.657440,-150
2021-12-10 13:58:44.657448,-188
2021-12-10 13:58:44.657456,-181
2021-12-10 13:58:44.657464,-185
2021-12-10 13:58:44.657472,-202
2021-12-10 13:58:44.657481,-174
2021-12-10 13:58:44.657489,-150
2021-12-10 13:58:44.657497,-171
2021-12-10 13:58:44.657505,-190
2021-12-10 13:58:44.657513,-169
2021-12-10 13:58:44.881880,-131
2021-12-10 13:58:44.881901,-109
2021-12-10 13:58:44.881911,-92
2021-12-10 13:58:44.881920,-81
2021-12-10 13:58:44.881928,-88
2021-12-10 13:58:44.881937,-78
2021-12-10 13:58:44.881945,-47
2021-12-10 13:58:44.881953,-26
2021-12-10 13:58:44.881962,-21
2021-12-10 13:58:44.881970,-35
2021-12-10 13:58:44.881978,-66
2021-12-10 13:58:44.881987,-90
2021-12-10 13:58:44.881995,-97
2021-12-10 13:58:44.882003,-112
2021-12-10 13:58:44.882012,-143
2021-12-10 13:58:44.882020,-174
2021-12-10 13:58:44.882028,-178
2021-12-10 13:58:44.882037,-176
2021-12-10 13:58:44.882045,-174
2021-12-10 13:58:44.882053,-166
2021-12-10 13:58:44.882062,-169
2021-12-10 13:58:44.882070,-185
2021-12-10 13:58:44.882079,-188
2021-12-10 13:58:44.882087,-171
2021-12-10 13:58:44.882095,-154
2021-12-10 13:58:44.882103,-140
2021-12-10 13:58:44.882112,-128
2021-12-10 13:58:44.882120,-128
2021-12-10 13:58:44.882128,-133
2021-12-10 13:58:44.882137,-131
2021-12-10 13:58:45.151821,-138
2021-12-10 13:58:45.151841,-135
2021-12-10 13:58:45.151851,-128
2021-12-10 13:58:45.151860,-154
2021-12-10 13:58:45.151868,-171
2021-12-10 13:58:45.151877,-140
2021-12-10 13:58:45.151885,-114
2021-12-10 13:58:45.151893,-104
2021-12-10 13:58:45.151902,-107
2021-12-10 13:58:45.151910,-128
2021-12-10 13:58:45.151918,-145
2021-12-10 13:58:45.151927,-119
2021-12-10 13:58:45.151935,-95
2021-12-10 13:58:45.151943,-90
2021-12-10 13:58:45.151952,-90
2021-12-10 13:58:45.151960,-90
2021-12-10 13:58:45.151968,-83
2021-12-10 13:58:45.151976,-61
2021-12-10 13:58:45.151984,-45
2021-12-10 13:58:45.151997,-26
2021-12-10 13:58:45.152005,2
2021-12-10 13:58:45.152014,2
2021-12-10 13:58:45.152025,-9
2021-12-10 13:58:45.152034,4
2021-12-10 13:58:45.152042,4
2021-12-10 13:58:45.152050,-11
2021-12-10 13:58:45.152058,-19
2021-12-10 13:58:45.152067,-35
2021-12-10 13:58:45.152075,-66
2021-12-10 13:58:45.152083,-83
2021-12-10 13:58:45.377237,-64
2021-12-10 13:58:45.377259,-59
2021-12-10 13:58:45.377269,-97
2021-12-10 13:58:45.377278,-140
2021-12-10 13:58:45.377286,-212
2021-12-10 13:58:45.377295,-247
2021-12-10 13:58:45.377303,2
2021-12-10 13:58:45.377312,658
2021-12-10 13:58:45.377320,1413
2021-12-10 13:58:45.377328,1554
2021-12-10 13:58:45.377337,717
2021-12-10 13:58:45.377346,-209
2021-12-10 13:58:45.377354,-324
2021-12-10 13:58:45.377362,-97
2021-12-10 13:58:45.377371,-159
2021-12-10 13:58:45.377379,-259
2021-12-10 13:58:45.377388,-190
2021-12-10 13:58:45.377396,-150
2021-12-10 13:58:45.377404,-166
2021-12-10 13:58:45.377413,-152
2021-12-10 13:58:45.377421,-154
2021-12-10 13:58:45.377429,-169
2021-12-10 13:58:45.377437,-143
2021-12-10 13:58:45.377454,-107
2021-12-10 13:58:45.377463,-92
2021-12-10 13:58:45.377472,-88
2021-12-10 13:58:45.377480,-83
2021-12-10 13:58:45.377489,-73
2021-12-10 13:58:45.377497,-45
2021-12-10 13:58:45.377506,-11
2021-12-10 13:58:45.602296,7
2021-12-10 13:58:45.602320,19
2021-12-10 13:58:45.602329,19
2021-12-10 13:58:45.602338,7
2021-12-10 13:58:45.602347,4
2021-12-10 13:58:45.602355,16
2021-12-10 13:58:45.602364,11
2021-12-10 13:58:45.602372,-9
2021-12-10 13:58:45.602381,-42
2021-12-10 13:58:45.602389,-71
2021-12-10 13:58:45.602398,-85
2021-12-10 13:58:45.602406,-95
2021-12-10 13:58:45.602415,-109
2021-12-10 13:58:45.602423,-150
2021-12-10 13:58:45.602432,-197
2021-12-10 13:58:45.602440,-207
2021-12-10 13:58:45.602449,-197
2021-12-10 13:58:45.602457,-193
2021-12-10 13:58:45.602466,-188
2021-12-10 13:58:45.602474,-185
2021-12-10 13:58:45.602482,-188
2021-12-10 13:58:45.602491,-183
2021-12-10 13:58:45.602500,-164
2021-12-10 13:58:45.602508,-145
2021-12-10 13:58:45.602516,-145
2021-12-10 13:58:45.602525,-145
2021-12-10 13:58:45.602533,-135
2021-12-10 13:58:45.602542,-133
2021-12-10 13:58:45.602550,-128
2021-12-10 13:58:45.602558,-107
2021-12-10 13:58:45.827332,-90
2021-12-10 13:58:45.827353,-90
2021-12-10 13:58:45.827363,-97
2021-12-10 13:58:45.827372,-123
2021-12-10 13:58:45.827380,-157
2021-12-10 13:58:45.827389,-157
2021-12-10 13:58:45.827397,-169
2021-12-10 13:58:45.827405,-202
2021-12-10 13:58:45.827414,-200
2021-12-10 13:58:45.827422,-159
2021-12-10 13:58:45.827430,-128
2021-12-10 13:58:45.827439,-114
2021-12-10 13:58:45.827447,-123
2021-12-10 13:58:45.827455,-123
2021-12-10 13:58:45.827464,-88
2021-12-10 13:58:45.827472,-66
2021-12-10 13:58:45.827480,-76
2021-12-10 13:58:45.827489,-61
2021-12-10 13:58:45.827497,-57
2021-12-10 13:58:45.827505,-83
2021-12-10 13:58:45.827513,-88
2021-12-10 13:58:45.827522,-73
2021-12-10 13:58:45.827530,-64
2021-12-10 13:58:45.827538,-57
2021-12-10 13:58:45.827546,-54
2021-12-10 13:58:45.827555,-47
2021-12-10 13:58:45.827563,-33
2021-12-10 13:58:45.827572,-52
2021-12-10 13:58:45.827580,-140
2021-12-10 13:58:45.827588,-200
2021-12-10 13:58:46.097230,19
2021-12-10 13:58:46.097253,641
2021-12-10 13:58:46.097262,1442
2021-12-10 13:58:46.097271,1721
2021-12-10 13:58:46.097280,946
2021-12-10 13:58:46.097288,-85
2021-12-10 13:58:46.097297,-305
2021-12-10 13:58:46.097305,-95
2021-12-10 13:58:46.097314,-138
2021-12-10 13:58:46.097322,-214
2021-12-10 13:58:46.097330,-140
2021-12-10 13:58:46.097338,-121
2021-12-10 13:58:46.097347,-162
2021-12-10 13:58:46.097355,-152
2021-12-10 13:58:46.097364,-131
2021-12-10 13:58:46.097372,-147
2021-12-10 13:58:46.097380,-147
2021-12-10 13:58:46.097389,-116
2021-12-10 13:58:46.097397,-109
2021-12-10 13:58:46.097406,-104
2021-12-10 13:58:46.097414,-95
2021-12-10 13:58:46.097422,-126
2021-12-10 13:58:46.097431,-150
2021-12-10 13:58:46.097439,-102
2021-12-10 13:58:46.097447,-42
2021-12-10 13:58:46.097456,-11
2021-12-10 13:58:46.097464,23
2021-12-10 13:58:46.097472,61
2021-12-10 13:58:46.097481,73
2021-12-10 13:58:46.097489,66
2021-12-10 13:58:46.277331,59
2021-12-10 13:58:46.277353,45
2021-12-10 13:58:46.277362,33
2021-12-10 13:58:46.277371,28
2021-12-10 13:58:46.277379,16
2021-12-10 13:58:46.277387,-26
2021-12-10 13:58:46.277396,-66
2021-12-10 13:58:46.277404,-81
2021-12-10 13:58:46.277412,-126
2021-12-10 13:58:46.277421,-205
2021-12-10 13:58:46.277429,-238
2021-12-10 13:58:46.277437,-243
2021-12-10 13:58:46.277446,-255
2021-12-10 13:58:46.277454,-240
2021-12-10 13:58:46.277463,-219
2021-12-10 13:58:46.277471,-216
2021-12-10 13:58:46.277479,-209
2021-12-10 13:58:46.277487,-212
2021-12-10 13:58:46.277496,-219
2021-12-10 13:58:46.277504,-205
2021-12-10 13:58:46.277512,-183
2021-12-10 13:58:46.277520,-174
2021-12-10 13:58:46.277529,-159
2021-12-10 13:58:46.277537,-152
2021-12-10 13:58:46.277545,-145
2021-12-10 13:58:46.277554,-116
2021-12-10 13:58:46.277562,-102
2021-12-10 13:58:46.277570,-104
2021-12-10 13:58:46.277578,-97
2021-12-10 13:58:46.277587,-92
2021-12-10 13:58:46.545965,-92
2021-12-10 13:58:46.545987,-76
2021-12-10 13:58:46.545997,-59
2021-12-10 13:58:46.546005,-54
2021-12-10 13:58:46.546014,-40
2021-12-10 13:58:46.546022,-33
2021-12-10 13:58:46.546030,-30
2021-12-10 13:58:46.546039,-11
2021-12-10 13:58:46.546047,-14
2021-12-10 13:58:46.546055,-38
2021-12-10 13:58:46.546064,-52
2021-12-10 13:58:46.546072,-76
2021-12-10 13:58:46.546080,-107
2021-12-10 13:58:46.546089,-112
2021-12-10 13:58:46.546097,-100
2021-12-10 13:58:46.546105,-102
2021-12-10 13:58:46.546113,-112
2021-12-10 13:58:46.546122,-121
2021-12-10 13:58:46.546130,-197
2021-12-10 13:58:46.546139,-288
2021-12-10 13:58:46.546147,-104
2021-12-10 13:58:46.546156,534
2021-12-10 13:58:46.546164,1444
2021-12-10 13:58:46.546172,1898
2021-12-10 13:58:46.546181,1177
2021-12-10 13:58:46.546189,-40
2021-12-10 13:58:46.546197,-417
2021-12-10 13:58:46.546205,-133
2021-12-10 13:58:46.546213,-112
2021-12-10 13:58:46.546222,-240
2021-12-10 13:58:46.816608,-174
2021-12-10 13:58:46.816629,-112
2021-12-10 13:58:46.816638,-138
2021-12-10 13:58:46.816647,-128
2021-12-10 13:58:46.816656,-100
2021-12-10 13:58:46.816664,-71
2021-12-10 13:58:46.816672,-19
2021-12-10 13:58:46.816680,14
2021-12-10 13:58:46.816689,2
2021-12-10 13:58:46.816697,-16
2021-12-10 13:58:46.816705,-23
2021-12-10 13:58:46.816713,-11
2021-12-10 13:58:46.816722,19
2021-12-10 13:58:46.816730,42
2021-12-10 13:58:46.816738,28
2021-12-10 13:58:46.816747,2
2021-12-10 13:58:46.816755,16
2021-12-10 13:58:46.816763,54
2021-12-10 13:58:46.816771,76
2021-12-10 13:58:46.816780,83
2021-12-10 13:58:46.816788,90
2021-12-10 13:58:46.816796,76
2021-12-10 13:58:46.816805,52
2021-12-10 13:58:46.816813,50
2021-12-10 13:58:46.816821,50
2021-12-10 13:58:46.816830,35
2021-12-10 13:58:46.816838,11
2021-12-10 13:58:46.816846,-21
2021-12-10 13:58:46.816855,-54
2021-12-10 13:58:46.816869,-76
2021-12-10 13:58:46.997283,-83
2021-12-10 13:58:46.997305,-97
2021-12-10 13:58:46.997315,-123
2021-12-10 13:58:46.997323,-147
2021-12-10 13:58:46.997332,-159
2021-12-10 13:58:46.997341,-143
2021-12-10 13:58:46.997349,-123
2021-12-10 13:58:46.997357,-119
2021-12-10 13:58:46.997366,-114
2021-12-10 13:58:46.997374,-121
2021-12-10 13:58:46.997382,-123
2021-12-10 13:58:46.997391,-104
2021-12-10 13:58:46.997399,-90
2021-12-10 13:58:46.997407,-85
2021-12-10 13:58:46.997416,-73
2021-12-10 13:58:46.997424,-76
2021-12-10 13:58:46.997432,-90
2021-12-10 13:58:46.997441,-88
2021-12-10 13:58:46.997449,-71
2021-12-10 13:58:46.997457,-59
2021-12-10 13:58:46.997466,-66
2021-12-10 13:58:46.997474,-81
2021-12-10 13:58:46.997482,-85
2021-12-10 13:58:46.997490,-66
2021-12-10 13:58:46.997499,-45
2021-12-10 13:58:46.997507,-38
2021-12-10 13:58:46.997515,-35
2021-12-10 13:58:46.997524,-19
2021-12-10 13:58:46.997532,11
2021-12-10 13:58:46.997540,28
2021-12-10 13:58:47.221915,28
2021-12-10 13:58:47.221937,28
2021-12-10 13:58:47.221947,4
2021-12-10 13:58:47.221955,-23
2021-12-10 13:58:47.221964,-19
2021-12-10 13:58:47.221972,-2
2021-12-10 13:58:47.221981,4
2021-12-10 13:58:47.221989,11
2021-12-10 13:58:47.221997,-2
2021-12-10 13:58:47.222005,-35
2021-12-10 13:58:47.222014,-38
2021-12-10 13:58:47.222022,-76
2021-12-10 13:58:47.222030,-193
2021-12-10 13:58:47.222039,-138
2021-12-10 13:58:47.222047,345
2021-12-10 13:58:47.222055,1189
2021-12-10 13:58:47.222064,1871
2021-12-10 13:58:47.222072,1542
2021-12-10 13:58:47.222080,324
2021-12-10 13:58:47.222089,-412
2021-12-10 13:58:47.222097,-252
2021-12-10 13:58:47.222105,-104
2021-12-10 13:58:47.222113,-238
2021-12-10 13:58:47.222122,-240
2021-12-10 13:58:47.222130,-157
2021-12-10 13:58:47.222138,-171
2021-12-10 13:58:47.222146,-188
2021-12-10 13:58:47.222154,-157
2021-12-10 13:58:47.222163,-135
2021-12-10 13:58:47.222171,-121
2021-12-10 13:58:47.446876,-97
2021-12-10 13:58:47.446899,-83
2021-12-10 13:58:47.446909,-92
2021-12-10 13:58:47.446917,-97
2021-12-10 13:58:47.446926,-71
2021-12-10 13:58:47.446934,-35
2021-12-10 13:58:47.446942,-14
2021-12-10 13:58:47.446951,-9
2021-12-10 13:58:47.446959,-16
2021-12-10 13:58:47.446967,-7
2021-12-10 13:58:47.446975,26
2021-12-10 13:58:47.446983,59
2021-12-10 13:58:47.446991,73
2021-12-10 13:58:47.447000,59
2021-12-10 13:58:47.447008,28
2021-12-10 13:58:47.447016,23
2021-12-10 13:58:47.447025,38
2021-12-10 13:58:47.447033,38
2021-12-10 13:58:47.447041,26
2021-12-10 13:58:47.447050,11
2021-12-10 13:58:47.447058,-26
2021-12-10 13:58:47.447066,-69
2021-12-10 13:58:47.447074,-85
2021-12-10 13:58:47.447083,-100
2021-12-10 13:58:47.447091,-116
2021-12-10 13:58:47.447099,-128
2021-12-10 13:58:47.447107,-150
2021-12-10 13:58:47.447116,-152
2021-12-10 13:58:47.447124,-131
2021-12-10 13:58:47.447132,-116
2021-12-10 13:58:47.717432,-109
2021-12-10 13:58:47.717453,-107
2021-12-10 13:58:47.717463,-107
2021-12-10 13:58:47.717471,-109
2021-12-10 13:58:47.717479,-100
2021-12-10 13:58:47.717488,-88
2021-12-10 13:58:47.717496,-92
2021-12-10 13:58:47.717504,-116
2021-12-10 13:58:47.717512,-126
2021-12-10 13:58:47.717521,-112
2021-12-10 13:58:47.717529,-95
2021-12-10 13:58:47.717537,-90
2021-12-10 13:58:47.717545,-95
2021-12-10 13:58:47.717554,-112
2021-12-10 13:58:47.717562,-119
2021-12-10 13:58:47.717570,-107
2021-12-10 13:58:47.717578,-100
2021-12-10 13:58:47.717587,-88
2021-12-10 13:58:47.717595,-81
2021-12-10 13:58:47.717603,-83
2021-12-10 13:58:47.717612,-81
2021-12-10 13:58:47.717620,-76
2021-12-10 13:58:47.717628,-85
2021-12-10 13:58:47.717636,-73
2021-12-10 13:58:47.717645,-38
2021-12-10 13:58:47.717653,-57
2021-12-10 13:58:47.717661,-104
2021-12-10 13:58:47.717669,-100
2021-12-10 13:58:47.717677,-92
2021-12-10 13:58:47.717686,-107
2021-12-10 13:58:47.942276,-104
2021-12-10 13:58:47.942299,-90
2021-12-10 13:58:47.942308,-88
2021-12-10 13:58:47.942317,-83
2021-12-10 13:58:47.942325,-69
2021-12-10 13:58:47.942334,-50
2021-12-10 13:58:47.942342,-64
2021-12-10 13:58:47.942351,-121
2021-12-10 13:58:47.942359,-216
2021-12-10 13:58:47.942368,-207
2021-12-10 13:58:47.942376,169
2021-12-10 13:58:47.942385,934
2021-12-10 13:58:47.942393,1645
2021-12-10 13:58:47.942402,1533
2021-12-10 13:58:47.942410,512
2021-12-10 13:58:47.942419,-276
2021-12-10 13:58:47.942427,-202
2021-12-10 13:58:47.942436,-14
2021-12-10 13:58:47.942445,-140
2021-12-10 13:58:47.942453,-195
2021-12-10 13:58:47.942461,-109
2021-12-10 13:58:47.942470,-109
2021-12-10 13:58:47.942478,-128
2021-12-10 13:58:47.942487,-88
2021-12-10 13:58:47.942495,-73
2021-12-10 13:58:47.942503,-88
2021-12-10 13:58:47.942512,-69
2021-12-10 13:58:47.942520,-47
2021-12-10 13:58:47.942529,-38
2021-12-10 13:58:47.942537,-38
2021-12-10 13:58:48.121925,-42
2021-12-10 13:58:48.121948,-26
2021-12-10 13:58:48.121958,-4
2021-12-10 13:58:48.121966,0
2021-12-10 13:58:48.121975,7
2021-12-10 13:58:48.121983,7
2021-12-10 13:58:48.121992,-7
2021-12-10 13:58:48.122000,11
2021-12-10 13:58:48.122008,35
2021-12-10 13:58:48.122017,30
2021-12-10 13:58:48.122025,26
2021-12-10 13:58:48.122034,21
2021-12-10 13:58:48.122042,4
2021-12-10 13:58:48.122050,0
2021-12-10 13:58:48.122059,0
2021-12-10 13:58:48.122067,-19
2021-12-10 13:58:48.122076,-35
2021-12-10 13:58:48.122084,-54
2021-12-10 13:58:48.122092,-85
2021-12-10 13:58:48.122100,-102
2021-12-10 13:58:48.122109,-107
2021-12-10 13:58:48.122117,-119
2021-12-10 13:58:48.122125,-131
2021-12-10 13:58:48.122133,-143
2021-12-10 13:58:48.122141,-145
2021-12-10 13:58:48.122150,-133
2021-12-10 13:58:48.122158,-145
2021-12-10 13:58:48.122166,-176
2021-12-10 13:58:48.122174,-174
2021-12-10 13:58:48.122183,-164
2021-12-10 13:58:48.391650,-202
2021-12-10 13:58:48.391672,-238
2021-12-10 13:58:48.391682,-209
2021-12-10 13:58:48.391691,-169
2021-12-10 13:58:48.391699,-174
2021-12-10 13:58:48.391708,-197
2021-12-10 13:58:48.391716,-188
2021-12-10 13:58:48.391724,-162
2021-12-10 13:58:48.391733,-150
2021-12-10 13:58:48.391741,-147
2021-12-10 13:58:48.391750,-150
2021-12-10 13:58:48.391758,-164
2021-12-10 13:58:48.391766,-154
2021-12-10 13:58:48.391774,-123
2021-12-10 13:58:48.391783,-112
2021-12-10 13:58:48.391791,-114
2021-12-10 13:58:48.391799,-109
2021-12-10 13:58:48.391808,-102
2021-12-10 13:58:48.391816,-85
2021-12-10 13:58:48.391824,-64
2021-12-10 13:58:48.391832,-40
2021-12-10 13:58:48.391841,-19
2021-12-10 13:58:48.391849,-21
2021-12-10 13:58:48.391857,-35
2021-12-10 13:58:48.391865,-23
2021-12-10 13:58:48.391873,-19
2021-12-10 13:58:48.391881,-35
2021-12-10 13:58:48.391890,-42
2021-12-10 13:58:48.391901,-50
2021-12-10 13:58:48.391909,-61
2021-12-10 13:58:48.616574,-50
2021-12-10 13:58:48.616597,-21
2021-12-10 13:58:48.616606,-11
2021-12-10 13:58:48.616615,-26
2021-12-10 13:58:48.616623,-78
2021-12-10 13:58:48.616632,-183
2021-12-10 13:58:48.616640,-212
2021-12-10 13:58:48.616649,85
2021-12-10 13:58:48.616657,772
2021-12-10 13:58:48.616666,1537
2021-12-10 13:58:48.616674,1623
2021-12-10 13:58:48.616682,684
2021-12-10 13:58:48.616691,-228
2021-12-10 13:58:48.616699,-255
2021-12-10 13:58:48.616707,-33
2021-12-10 13:58:48.616716,-104
2021-12-10 13:58:48.616724,-162
2021-12-10 13:58:48.616733,-92
2021-12-10 13:58:48.616741,-73
2021-12-10 13:58:48.616749,-78
2021-12-10 13:58:48.616758,-42
2021-12-10 13:58:48.616766,-33
2021-12-10 13:58:48.616775,-42
2021-12-10 13:58:48.616783,-21
2021-12-10 13:58:48.616791,16
2021-12-10 13:58:48.616799,30
2021-12-10 13:58:48.616808,30
2021-12-10 13:58:48.616816,23
2021-12-10 13:58:48.616825,30
2021-12-10 13:58:48.616833,47
2021-12-10 13:58:48.842076,47
2021-12-10 13:58:48.842097,40
2021-12-10 13:58:48.842107,54
2021-12-10 13:58:48.842116,61
2021-12-10 13:58:48.842124,50
2021-12-10 13:58:48.842133,52
2021-12-10 13:58:48.842141,35
2021-12-10 13:58:48.842150,-9
2021-12-10 13:58:48.842158,-28
2021-12-10 13:58:48.842167,-52
2021-12-10 13:58:48.842175,-90
2021-12-10 13:58:48.842183,-83
2021-12-10 13:58:48.842192,-57
2021-12-10 13:58:48.842200,-52
2021-12-10 13:58:48.842208,-54
2021-12-10 13:58:48.842217,-81
2021-12-10 13:58:48.842225,-112
2021-12-10 13:58:48.842234,-107
2021-12-10 13:58:48.842242,-92
2021-12-10 13:58:48.842251,-102
2021-12-10 13:58:48.842259,-119
2021-12-10 13:58:48.842267,-126
2021-12-10 13:58:48.842276,-119
2021-12-10 13:58:48.842284,-100
2021-12-10 13:58:48.842293,-83
2021-12-10 13:58:48.842301,-73
2021-12-10 13:58:48.842310,-71
2021-12-10 13:58:48.842318,-78
2021-12-10 13:58:48.842326,-73
2021-12-10 13:58:48.842335,-54
2021-12-10 13:58:49.066878,-42
2021-12-10 13:58:49.066899,-40
2021-12-10 13:58:49.066909,-57
2021-12-10 13:58:49.066917,-78
2021-12-10 13:58:49.066926,-69
2021-12-10 13:58:49.066934,-47
2021-12-10 13:58:49.066942,-40
2021-12-10 13:58:49.066950,-35
2021-12-10 13:58:49.066959,-47
2021-12-10 13:58:49.066967,-76
2021-12-10 13:58:49.066975,-73
2021-12-10 13:58:49.066984,-47
2021-12-10 13:58:49.066992,-30
2021-12-10 13:58:49.067000,-30
2021-12-10 13:58:49.067009,-50
2021-12-10 13:58:49.067017,-73
2021-12-10 13:58:49.067025,-64
2021-12-10 13:58:49.067034,-33
2021-12-10 13:58:49.067042,-9
2021-12-10 13:58:49.067050,21
2021-12-10 13:58:49.067058,23
2021-12-10 13:58:49.067066,2
2021-12-10 13:58:49.067075,7
2021-12-10 13:58:49.067083,14
2021-12-10 13:58:49.067091,0
2021-12-10 13:58:49.067099,2
2021-12-10 13:58:49.067108,2
2021-12-10 13:58:49.067116,-9
2021-12-10 13:58:49.067124,-4
2021-12-10 13:58:49.067133,11
2021-12-10 13:58:49.381293,14
2021-12-10 13:58:49.381315,19
2021-12-10 13:58:49.381325,-4
2021-12-10 13:58:49.381334,-114
2021-12-10 13:58:49.381342,-178
2021-12-10 13:58:49.381351,73
2021-12-10 13:58:49.381359,743
2021-12-10 13:58:49.381367,1533
2021-12-10 13:58:49.381376,1676
2021-12-10 13:58:49.381384,784
2021-12-10 13:58:49.381392,-171
2021-12-10 13:58:49.381401,-286
2021-12-10 13:58:49.381409,-76
2021-12-10 13:58:49.381417,-133
2021-12-10 13:58:49.381426,-228
2021-12-10 13:58:49.381434,-185
2021-12-10 13:58:49.381443,-140
2021-12-10 13:58:49.381451,-133
2021-12-10 13:58:49.381460,-116
2021-12-10 13:58:49.381468,-109
2021-12-10 13:58:49.381476,-119
2021-12-10 13:58:49.381484,-112
2021-12-10 13:58:49.381493,-85
2021-12-10 13:58:49.381501,-54
2021-12-10 13:58:49.381509,-26
2021-12-10 13:58:49.381517,-14
2021-12-10 13:58:49.381526,-9
2021-12-10 13:58:49.381534,4
2021-12-10 13:58:49.381543,28
2021-12-10 13:58:49.381551,52
2021-12-10 13:58:49.517269,76
2021-12-10 13:58:49.517290,92
2021-12-10 13:58:49.517300,97
2021-12-10 13:58:49.517308,104
2021-12-10 13:58:49.517317,116
2021-12-10 13:58:49.517325,123
2021-12-10 13:58:49.517334,97
2021-12-10 13:58:49.517342,40
2021-12-10 13:58:49.517351,9
2021-12-10 13:58:49.517359,14
2021-12-10 13:58:49.517367,0
2021-12-10 13:58:49.517375,-23
2021-12-10 13:58:49.517384,-33
2021-12-10 13:58:49.517392,-64
2021-12-10 13:58:49.517400,-100
2021-12-10 13:58:49.517409,-100
2021-12-10 13:58:49.517417,-88
2021-12-10 13:58:49.517426,-81
2021-12-10 13:58:49.517434,-81
2021-12-10 13:58:49.517442,-90
2021-12-10 13:58:49.517451,-88
2021-12-10 13:58:49.517459,-76
2021-12-10 13:58:49.517467,-61
2021-12-10 13:58:49.517475,-47
2021-12-10 13:58:49.517484,-42
2021-12-10 13:58:49.517492,-50
2021-12-10 13:58:49.517500,-47
2021-12-10 13:58:49.517508,-35
2021-12-10 13:58:49.517517,-28
2021-12-10 13:58:49.517525,-19
2021-12-10 13:58:49.742271,-9
2021-12-10 13:58:49.742293,-7
2021-12-10 13:58:49.742303,-4
2021-12-10 13:58:49.742311,-2
2021-12-10 13:58:49.742320,4
2021-12-10 13:58:49.742328,14
2021-12-10 13:58:49.742337,4
2021-12-10 13:58:49.742345,-14
2021-12-10 13:58:49.742354,-21
2021-12-10 13:58:49.742362,-30
2021-12-10 13:58:49.742371,-28
2021-12-10 13:58:49.742379,-14
2021-12-10 13:58:49.742388,-28
2021-12-10 13:58:49.742396,-45
2021-12-10 13:58:49.742404,-28
2021-12-10 13:58:49.742413,-16
2021-12-10 13:58:49.742421,-14
2021-12-10 13:58:49.742429,-9
2021-12-10 13:58:49.742438,-23
2021-12-10 13:58:49.742446,-30
2021-12-10 13:58:49.742454,-21
2021-12-10 13:58:49.742463,-23
2021-12-10 13:58:49.742471,-38
2021-12-10 13:58:49.742479,-35
2021-12-10 13:58:49.742488,-30
2021-12-10 13:58:49.742496,-30
2021-12-10 13:58:49.742505,-19
2021-12-10 13:58:49.742513,-7
2021-12-10 13:58:49.742521,2
2021-12-10 13:58:49.742530,9
2021-12-10 13:58:49.967075,4
2021-12-10 13:58:49.967098,-45
2021-12-10 13:58:49.967107,-131
2021-12-10 13:58:49.967116,-45
2021-12-10 13:58:49.967124,431
2021-12-10 13:58:49.967133,1189
2021-12-10 13:58:49.967141,1678
2021-12-10 13:58:49.967150,1247
2021-12-10 13:58:49.967158,207
2021-12-10 13:58:49.967167,-278
2021-12-10 13:58:49.967175,-100
2021-12-10 13:58:49.967184,-61
2021-12-10 13:58:49.967192,-205
2021-12-10 13:58:49.967200,-174
2021-12-10 13:58:49.967209,-114
2021-12-10 13:58:49.967217,-143
2021-12-10 13:58:49.967225,-131
2021-12-10 13:58:49.967234,-92
2021-12-10 13:58:49.967242,-92
2021-12-10 13:58:49.967250,-71
2021-12-10 13:58:49.967259,-35
2021-12-10 13:58:49.967267,-30
2021-12-10 13:58:49.967275,-23
2021-12-10 13:58:49.967284,-4
2021-12-10 13:58:49.967292,14
2021-12-10 13:58:49.967300,30
2021-12-10 13:58:49.967308,47
2021-12-10 13:58:49.967317,59
2021-12-10 13:58:49.967325,71
2021-12-10 13:58:49.967333,83
2021-12-10 13:58:50.192310,83
2021-12-10 13:58:50.192332,81
2021-12-10 13:58:50.192341,81
2021-12-10 13:58:50.192350,57
2021-12-10 13:58:50.192358,19
2021-12-10 13:58:50.192367,-16
2021-12-10 13:58:50.192375,-33
2021-12-10 13:58:50.192383,-33
2021-12-10 13:58:50.192392,-33
2021-12-10 13:58:50.192400,-47
2021-12-10 13:58:50.192408,-61
2021-12-10 13:58:50.192417,-90
2021-12-10 13:58:50.192425,-116
2021-12-10 13:58:50.192433,-123
2021-12-10 13:58:50.192441,-123
2021-12-10 13:58:50.192450,-119
2021-12-10 13:58:50.192458,-116
2021-12-10 13:58:50.192466,-109
2021-12-10 13:58:50.192475,-92
2021-12-10 13:58:50.192483,-78
2021-12-10 13:58:50.192491,-66
2021-12-10 13:58:50.192500,-61
2021-12-10 13:58:50.192508,-73
2021-12-10 13:58:50.192519,-97
2021-12-10 13:58:50.192528,-97
2021-12-10 13:58:50.192536,-73
2021-12-10 13:58:50.192544,-59
2021-12-10 13:58:50.192553,-64
2021-12-10 13:58:50.192561,-66
2021-12-10 13:58:50.192569,-59
2021-12-10 13:58:50.462233,-40
2021-12-10 13:58:50.462253,-21
2021-12-10 13:58:50.462263,-16
2021-12-10 13:58:50.462271,-28
2021-12-10 13:58:50.462280,-47
2021-12-10 13:58:50.462288,-59
2021-12-10 13:58:50.462296,-40
2021-12-10 13:58:50.462305,-19
2021-12-10 13:58:50.462313,-19
2021-12-10 13:58:50.462321,-21
2021-12-10 13:58:50.462330,-35
2021-12-10 13:58:50.462338,-42
2021-12-10 13:58:50.462346,-21
2021-12-10 13:58:50.462355,0
2021-12-10 13:58:50.462363,-9
2021-12-10 13:58:50.462371,-23
2021-12-10 13:58:50.462380,-2
2021-12-10 13:58:50.462388,21
2021-12-10 13:58:50.462396,14
2021-12-10 13:58:50.462405,16
2021-12-10 13:58:50.462413,19
2021-12-10 13:58:50.462421,-4
2021-12-10 13:58:50.462430,-16
2021-12-10 13:58:50.462438,0
2021-12-10 13:58:50.462446,14
2021-12-10 13:58:50.462454,19
2021-12-10 13:58:50.462462,26
2021-12-10 13:58:50.462471,23
2021-12-10 13:58:50.462479,14
2021-12-10 13:58:50.462487,0
2021-12-10 13:58:50.730983,-69
2021-12-10 13:58:50.731005,-121
2021-12-10 13:58:50.731014,104
2021-12-10 13:58:50.731023,701
2021-12-10 13:58:50.731032,1411
2021-12-10 13:58:50.731040,1597
2021-12-10 13:58:50.731048,827
2021-12-10 13:58:50.731057,-112
2021-12-10 13:58:50.731065,-255
2021-12-10 13:58:50.731074,-40
2021-12-10 13:58:50.731082,-95
2021-12-10 13:58:50.731090,-166
2021-12-10 13:58:50.731099,-92
2021-12-10 13:58:50.731107,-73
2021-12-10 13:58:50.731116,-104
2021-12-10 13:58:50.731124,-109
2021-12-10 13:58:50.731132,-116
2021-12-10 13:58:50.731140,-119
2021-12-10 13:58:50.731149,-100
2021-12-10 13:58:50.731157,-73
2021-12-10 13:58:50.731165,-61
2021-12-10 13:58:50.731174,-64
2021-12-10 13:58:50.731182,-52
2021-12-10 13:58:50.731190,-28
2021-12-10 13:58:50.731198,-26
2021-12-10 13:58:50.731207,-23
2021-12-10 13:58:50.731215,-11
2021-12-10 13:58:50.731224,-26
2021-12-10 13:58:50.731232,-59
2021-12-10 13:58:50.731240,-66
2021-12-10 13:58:50.912399,-45
2021-12-10 13:58:50.912421,-35
2021-12-10 13:58:50.912431,-50
2021-12-10 13:58:50.912440,-69
2021-12-10 13:58:50.912448,-76
2021-12-10 13:58:50.912457,-73
2021-12-10 13:58:50.912466,-73
2021-12-10 13:58:50.912474,-64
2021-12-10 13:58:50.912483,-73
2021-12-10 13:58:50.912491,-114
2021-12-10 13:58:50.912499,-123
2021-12-10 13:58:50.912508,-100
2021-12-10 13:58:50.912516,-88
2021-12-10 13:58:50.912525,-88
2021-12-10 13:58:50.912533,-102
2021-12-10 13:58:50.912542,-128
2021-12-10 13:58:50.912550,-116
2021-12-10 13:58:50.912559,-85
2021-12-10 13:58:50.912567,-85
2021-12-10 13:58:50.912575,-104
2021-12-10 13:58:50.912584,-112
2021-12-10 13:58:50.912592,-112
2021-12-10 13:58:50.912601,-102
2021-12-10 13:58:50.912609,-85
2021-12-10 13:58:50.912617,-73
2021-12-10 13:58:50.912626,-69
2021-12-10 13:58:50.912634,-69
2021-12-10 13:58:50.912642,-78
2021-12-10 13:58:50.912651,-73
2021-12-10 13:58:50.912659,-57
2021-12-10 13:58:51.137012,-45
2021-12-10 13:58:51.137035,-35
2021-12-10 13:58:51.137044,-42
2021-12-10 13:58:51.137052,-54
2021-12-10 13:58:51.137060,-38
2021-12-10 13:58:51.137069,-16
2021-12-10 13:58:51.137077,-11
2021-12-10 13:58:51.137086,-19
2021-12-10 13:58:51.137094,-40
2021-12-10 13:58:51.137102,-52
2021-12-10 13:58:51.137111,-30
2021-12-10 13:58:51.137119,-19
2021-12-10 13:58:51.137127,-30
2021-12-10 13:58:51.137136,-42
2021-12-10 13:58:51.137144,-61
2021-12-10 13:58:51.137153,-57
2021-12-10 13:58:51.137161,0
2021-12-10 13:58:51.137170,30
2021-12-10 13:58:51.137178,14
2021-12-10 13:58:51.137186,7
2021-12-10 13:58:51.137195,-11
2021-12-10 13:58:51.137203,-59
2021-12-10 13:58:51.137211,-69
2021-12-10 13:58:51.137219,-35
2021-12-10 13:58:51.137228,-23
2021-12-10 13:58:51.137239,-33
2021-12-10 13:58:51.137247,-26
2021-12-10 13:58:51.137255,-4
2021-12-10 13:58:51.137264,14
2021-12-10 13:58:51.137272,-16
2021-12-10 13:58:51.361933,-128
2021-12-10 13:58:51.361956,-157
2021-12-10 13:58:51.361965,162
2021-12-10 13:58:51.361974,844
2021-12-10 13:58:51.361982,1490
2021-12-10 13:58:51.361991,1387
2021-12-10 13:58:51.361999,431
2021-12-10 13:58:51.362008,-329
2021-12-10 13:58:51.362016,-290
2021-12-10 13:58:51.362025,-114
2021-12-10 13:58:51.362033,-190
2021-12-10 13:58:51.362042,-214
2021-12-10 13:58:51.362050,-150
2021-12-10 13:58:51.362058,-171
2021-12-10 13:58:51.362067,-202
2021-12-10 13:58:51.362075,-162
2021-12-10 13:58:51.362084,-126
2021-12-10 13:58:51.362092,-116
2021-12-10 13:58:51.362101,-102
2021-12-10 13:58:51.362109,-97
2021-12-10 13:58:51.362118,-102
2021-12-10 13:58:51.362126,-100
2021-12-10 13:58:51.362134,-97
2021-12-10 13:58:51.362143,-116
2021-12-10 13:58:51.362151,-128
2021-12-10 13:58:51.362160,-107
2021-12-10 13:58:51.362168,-85
2021-12-10 13:58:51.362177,-81
2021-12-10 13:58:51.362185,-69
2021-12-10 13:58:51.362194,-40
2021-12-10 13:58:51.587346,-30
2021-12-10 13:58:51.587369,-40
2021-12-10 13:58:51.587378,-45
2021-12-10 13:58:51.587387,-47
2021-12-10 13:58:51.587396,-52
2021-12-10 13:58:51.587404,-57
2021-12-10 13:58:51.587412,-76
2021-12-10 13:58:51.587421,-102
2021-12-10 13:58:51.587429,-100
2021-12-10 13:58:51.587437,-85
2021-12-10 13:58:51.587446,-83
2021-12-10 13:58:51.587454,-81
2021-12-10 13:58:51.587463,-92
2021-12-10 13:58:51.587471,-112
2021-12-10 13:58:51.587480,-104
2021-12-10 13:58:51.587488,-85
2021-12-10 13:58:51.587496,-81
2021-12-10 13:58:51.587505,-71
2021-12-10 13:58:51.587513,-61
2021-12-10 13:58:51.587521,-59
2021-12-10 13:58:51.587529,-54
2021-12-10 13:58:51.587538,-42
2021-12-10 13:58:51.587546,-40
2021-12-10 13:58:51.587554,-28
2021-12-10 13:58:51.587563,-9
2021-12-10 13:58:51.587571,-16
2021-12-10 13:58:51.587579,-33
2021-12-10 13:58:51.587587,-21
2021-12-10 13:58:51.587596,-7
2021-12-10 13:58:51.587604,-4
2021-12-10 13:58:51.814197,0
2021-12-10 13:58:51.814221,4
2021-12-10 13:58:51.814230,2
2021-12-10 13:58:51.814239,0
2021-12-10 13:58:51.814248,4
2021-12-10 13:58:51.814256,0
2021-12-10 13:58:51.814265,-19
2021-12-10 13:58:51.814273,-21
2021-12-10 13:58:51.814282,-4
2021-12-10 13:58:51.814290,-26
2021-12-10 13:58:51.814298,-64
2021-12-10 13:58:51.814307,-52
2021-12-10 13:58:51.814315,-30
2021-12-10 13:58:51.814324,-33
2021-12-10 13:58:51.814332,-26
2021-12-10 13:58:51.814340,-14
2021-12-10 13:58:51.814349,-26
2021-12-10 13:58:51.814358,-52
2021-12-10 13:58:51.814366,-59
2021-12-10 13:58:51.814374,-40
2021-12-10 13:58:51.814383,-28
2021-12-10 13:58:51.814391,-30
2021-12-10 13:58:51.814399,-21
2021-12-10 13:58:51.814407,-11
2021-12-10 13:58:51.814416,-16
2021-12-10 13:58:51.814424,-42
2021-12-10 13:58:51.814433,-145
2021-12-10 13:58:51.814441,-209
2021-12-10 13:58:51.814449,83
2021-12-10 13:58:51.814458,805
2021-12-10 13:58:52.037127,1561
2021-12-10 13:58:52.037148,1580
2021-12-10 13:58:52.037158,605
2021-12-10 13:58:52.037166,-276
2021-12-10 13:58:52.037175,-269
2021-12-10 13:58:52.037184,-81
2021-12-10 13:58:52.037192,-174
2021-12-10 13:58:52.037200,-195
2021-12-10 13:58:52.037209,-119
2021-12-10 13:58:52.037217,-131
2021-12-10 13:58:52.037225,-150
2021-12-10 13:58:52.037234,-135
2021-12-10 13:58:52.037242,-126
2021-12-10 13:58:52.037250,-112
2021-12-10 13:58:52.037259,-88
2021-12-10 13:58:52.037267,-69
2021-12-10 13:58:52.037275,-61
2021-12-10 13:58:52.037284,-66
2021-12-10 13:58:52.037292,-66
2021-12-10 13:58:52.037300,-57
2021-12-10 13:58:52.037309,-54
2021-12-10 13:58:52.037317,-57
2021-12-10 13:58:52.037325,-40
2021-12-10 13:58:52.037333,-26
2021-12-10 13:58:52.037342,-16
2021-12-10 13:58:52.037350,-2
2021-12-10 13:58:52.037358,4
2021-12-10 13:58:52.037367,-2
2021-12-10 13:58:52.037375,-11
2021-12-10 13:58:52.037383,-40
2021-12-10 13:58:52.262286,-64
2021-12-10 13:58:52.262307,-59
2021-12-10 13:58:52.262316,-61
2021-12-10 13:58:52.262325,-78
2021-12-10 13:58:52.262333,-97
2021-12-10 13:58:52.262341,-112
2021-12-10 13:58:52.262356,-104
2021-12-10 13:58:52.262364,-90
2021-12-10 13:58:52.262373,-92
2021-12-10 13:58:52.262381,-104
2021-12-10 13:58:52.262389,-121
2021-12-10 13:58:52.262398,-126
2021-12-10 13:58:52.262406,-109
2021-12-10 13:58:52.262414,-85
2021-12-10 13:58:52.262423,-83
2021-12-10 13:58:52.262431,-112
2021-12-10 13:58:52.262439,-150
2021-12-10 13:58:52.262454,-143
2021-12-10 13:58:52.262462,-114
2021-12-10 13:58:52.262471,-104
2021-12-10 13:58:52.262479,-104
2021-12-10 13:58:52.262487,-97
2021-12-10 13:58:52.262496,-97
2021-12-10 13:58:52.262504,-92
2021-12-10 13:58:52.262513,-78
2021-12-10 13:58:52.262521,-66
2021-12-10 13:58:52.262529,-59
2021-12-10 13:58:52.262537,-61
2021-12-10 13:58:52.262546,-66
2021-12-10 13:58:52.262554,-54
2021-12-10 13:58:52.532210,-45
2021-12-10 13:58:52.532229,-61
2021-12-10 13:58:52.532238,-78
2021-12-10 13:58:52.532247,-90
2021-12-10 13:58:52.532256,-100
2021-12-10 13:58:52.532265,-66
2021-12-10 13:58:52.532273,-19
2021-12-10 13:58:52.532281,-19
2021-12-10 13:58:52.532290,-35
2021-12-10 13:58:52.532298,-50
2021-12-10 13:58:52.532307,-81
2021-12-10 13:58:52.532315,-95
2021-12-10 13:58:52.532323,-73
2021-12-10 13:58:52.532332,-52
2021-12-10 13:58:52.532340,-50
2021-12-10 13:58:52.532348,-52
2021-12-10 13:58:52.532357,-54
2021-12-10 13:58:52.532365,-47
2021-12-10 13:58:52.532373,-40
2021-12-10 13:58:52.532382,-102
2021-12-10 13:58:52.532390,-240
2021-12-10 13:58:52.532398,-185
2021-12-10 13:58:52.532407,317
2021-12-10 13:58:52.532415,1120
2021-12-10 13:58:52.532423,1695
2021-12-10 13:58:52.532431,1330
2021-12-10 13:58:52.532440,224
2021-12-10 13:58:52.532448,-355
2021-12-10 13:58:52.532456,-164
2021-12-10 13:58:52.532465,-52
2021-12-10 13:58:52.800568,-150
2021-12-10 13:58:52.800589,-128
2021-12-10 13:58:52.800598,-92
2021-12-10 13:58:52.800607,-145
2021-12-10 13:58:52.800615,-152
2021-12-10 13:58:52.800624,-102
2021-12-10 13:58:52.800632,-85
2021-12-10 13:58:52.800640,-81
2021-12-10 13:58:52.800649,-73
2021-12-10 13:58:52.800657,-88
2021-12-10 13:58:52.800665,-83
2021-12-10 13:58:52.800674,-47
2021-12-10 13:58:52.800682,-26
2021-12-10 13:58:52.800690,-16
2021-12-10 13:58:52.800699,-23
2021-12-10 13:58:52.800707,-54
2021-12-10 13:58:52.800715,-59
2021-12-10 13:58:52.800723,-33
2021-12-10 13:58:52.800732,-35
2021-12-10 13:58:52.800740,-47
2021-12-10 13:58:52.800748,-47
2021-12-10 13:58:52.800757,-81
2021-12-10 13:58:52.800765,-126
2021-12-10 13:58:52.800773,-119
2021-12-10 13:58:52.800782,-102
2021-12-10 13:58:52.800790,-119
2021-12-10 13:58:52.800798,-140
2021-12-10 13:58:52.800811,-150
2021-12-10 13:58:52.800819,-147
2021-12-10 13:58:52.800828,-143
2021-12-10 13:58:53.027354,-145
2021-12-10 13:58:53.027376,-143
2021-12-10 13:58:53.027386,-150
2021-12-10 13:58:53.027395,-159
2021-12-10 13:58:53.027403,-152
2021-12-10 13:58:53.027412,-152
2021-12-10 13:58:53.027420,-164
2021-12-10 13:58:53.027429,-164
2021-12-10 13:58:53.027437,-178
2021-12-10 13:58:53.027446,-193
2021-12-10 13:58:53.027454,-176
2021-12-10 13:58:53.027463,-152
2021-12-10 13:58:53.027471,-143
2021-12-10 13:58:53.027480,-145
2021-12-10 13:58:53.027488,-171
2021-12-10 13:58:53.027497,-183
2021-12-10 13:58:53.027505,-154
2021-12-10 13:58:53.027513,-135
2021-12-10 13:58:53.027522,-131
2021-12-10 13:58:53.027530,-128
2021-12-10 13:58:53.027539,-157
2021-12-10 13:58:53.027547,-181
2021-12-10 13:58:53.027556,-162
2021-12-10 13:58:53.027564,-140
2021-12-10 13:58:53.027573,-109
2021-12-10 13:58:53.027581,-66
2021-12-10 13:58:53.027589,-71
2021-12-10 13:58:53.027598,-95
2021-12-10 13:58:53.027606,-78
2021-12-10 13:58:53.027614,-50
2021-12-10 13:58:53.206969,-21
2021-12-10 13:58:53.206990,-9
2021-12-10 13:58:53.207000,-28
2021-12-10 13:58:53.207009,-40
2021-12-10 13:58:53.207017,-33
2021-12-10 13:58:53.207026,-33
2021-12-10 13:58:53.207035,-42
2021-12-10 13:58:53.207043,-54
2021-12-10 13:58:53.207051,-66
2021-12-10 13:58:53.207060,-71
2021-12-10 13:58:53.207068,-54
2021-12-10 13:58:53.207076,-38
2021-12-10 13:58:53.207085,-42
2021-12-10 13:58:53.207093,-81
2021-12-10 13:58:53.207102,-169
2021-12-10 13:58:53.207110,-243
2021-12-10 13:58:53.207118,-64
2021-12-10 13:58:53.207127,526
2021-12-10 13:58:53.207135,1330
2021-12-10 13:58:53.207143,1669
2021-12-10 13:58:53.207152,977
2021-12-10 13:58:53.207160,-71
2021-12-10 13:58:53.207168,-352
2021-12-10 13:58:53.207177,-97
2021-12-10 13:58:53.207185,-107
2021-12-10 13:58:53.207193,-238
2021-12-10 13:58:53.207201,-202
2021-12-10 13:58:53.207210,-200
2021-12-10 13:58:53.207218,-245
2021-12-10 13:58:53.207227,-205
2021-12-10 13:58:53.477290,-169
2021-12-10 13:58:53.477311,-178
2021-12-10 13:58:53.477320,-166
2021-12-10 13:58:53.477329,-145
2021-12-10 13:58:53.477337,-123
2021-12-10 13:58:53.477346,-100
2021-12-10 13:58:53.477354,-90
2021-12-10 13:58:53.477362,-100
2021-12-10 13:58:53.477371,-97
2021-12-10 13:58:53.477379,-88
2021-12-10 13:58:53.477387,-81
2021-12-10 13:58:53.477395,-54
2021-12-10 13:58:53.477404,-40
2021-12-10 13:58:53.477412,-54
2021-12-10 13:58:53.477420,-64
2021-12-10 13:58:53.477428,-59
2021-12-10 13:58:53.477437,-69
2021-12-10 13:58:53.477445,-88
2021-12-10 13:58:53.477453,-95
2021-12-10 13:58:53.477461,-95
2021-12-10 13:58:53.477470,-102
2021-12-10 13:58:53.477478,-112
2021-12-10 13:58:53.477486,-112
2021-12-10 13:58:53.477494,-116
2021-12-10 13:58:53.477503,-133
2021-12-10 13:58:53.477511,-140
2021-12-10 13:58:53.477519,-138
2021-12-10 13:58:53.477528,-143
2021-12-10 13:58:53.477536,-131
2021-12-10 13:58:53.477544,-109
2021-12-10 13:58:53.657367,-109
2021-12-10 13:58:53.657389,-112
2021-12-10 13:58:53.657398,-90
2021-12-10 13:58:53.657407,-76
2021-12-10 13:58:53.657416,-73
2021-12-10 13:58:53.657424,-78
2021-12-10 13:58:53.657432,-95
2021-12-10 13:58:53.657441,-97
2021-12-10 13:58:53.657449,-76
2021-12-10 13:58:53.657457,-64
2021-12-10 13:58:53.657466,-59
2021-12-10 13:58:53.657474,-66
2021-12-10 13:58:53.657482,-78
2021-12-10 13:58:53.657491,-61
2021-12-10 13:58:53.657499,-38
2021-12-10 13:58:53.657507,-35
2021-12-10 13:58:53.657516,-33
2021-12-10 13:58:53.657524,-40
2021-12-10 13:58:53.657532,-61
2021-12-10 13:58:53.657541,-52
2021-12-10 13:58:53.657549,-26
2021-12-10 13:58:53.657557,-19
2021-12-10 13:58:53.657566,2
2021-12-10 13:58:53.657574,35
2021-12-10 13:58:53.657582,33
2021-12-10 13:58:53.657591,26
2021-12-10 13:58:53.657599,38
2021-12-10 13:58:53.657607,28
2021-12-10 13:58:53.657615,14
2021-12-10 13:58:53.657624,11
2021-12-10 13:58:53.882047,16
2021-12-10 13:58:53.882069,11
2021-12-10 13:58:53.882079,-19
2021-12-10 13:58:53.882088,-42
2021-12-10 13:58:53.882097,-28
2021-12-10 13:58:53.882105,-40
2021-12-10 13:58:53.882114,-112
2021-12-10 13:58:53.882122,-195
2021-12-10 13:58:53.882131,-140
2021-12-10 13:58:53.882140,276
2021-12-10 13:58:53.882148,1053
2021-12-10 13:58:53.882157,1700
2021-12-10 13:58:53.882165,1433
2021-12-10 13:58:53.882174,329
2021-12-10 13:58:53.882182,-355
2021-12-10 13:58:53.882191,-202
2021-12-10 13:58:53.882199,-59
2021-12-10 13:58:53.882208,-166
2021-12-10 13:58:53.882216,-162
2021-12-10 13:58:53.882225,-95
2021-12-10 13:58:53.882233,-104
2021-12-10 13:58:53.882242,-100
2021-12-10 13:58:53.882250,-73
2021-12-10 13:58:53.882259,-78
2021-12-10 13:58:53.882268,-69
2021-12-10 13:58:53.882276,-30
2021-12-10 13:58:53.882285,-7
2021-12-10 13:58:53.882293,4
2021-12-10 13:58:53.882303,19
2021-12-10 13:58:53.882312,35
2021-12-10 13:58:54.107029,57
2021-12-10 13:58:54.107051,78
2021-12-10 13:58:54.107061,90
2021-12-10 13:58:54.107069,95
2021-12-10 13:58:54.107078,92
2021-12-10 13:58:54.107086,85
2021-12-10 13:58:54.107094,95
2021-12-10 13:58:54.107103,109
2021-12-10 13:58:54.107111,107
2021-12-10 13:58:54.107119,88
2021-12-10 13:58:54.107127,54
2021-12-10 13:58:54.107136,21
2021-12-10 13:58:54.107144,2
2021-12-10 13:58:54.107153,-11
2021-12-10 13:58:54.107161,-30
2021-12-10 13:58:54.107169,-69
2021-12-10 13:58:54.107178,-121
2021-12-10 13:58:54.107186,-133
2021-12-10 13:58:54.107194,-114
2021-12-10 13:58:54.107202,-112
2021-12-10 13:58:54.107211,-114
2021-12-10 13:58:54.107219,-114
2021-12-10 13:58:54.107227,-119
2021-12-10 13:58:54.107235,-112
2021-12-10 13:58:54.107244,-95
2021-12-10 13:58:54.107252,-85
2021-12-10 13:58:54.107260,-83
2021-12-10 13:58:54.107268,-83
2021-12-10 13:58:54.107276,-81
2021-12-10 13:58:54.107284,-71
2021-12-10 13:58:54.332350,-57
2021-12-10 13:58:54.332372,-47
2021-12-10 13:58:54.332381,-50
2021-12-10 13:58:54.332390,-69
2021-12-10 13:58:54.332398,-95
2021-12-10 13:58:54.332407,-95
2021-12-10 13:58:54.332415,-88
2021-12-10 13:58:54.332424,-114
2021-12-10 13:58:54.332432,-140
2021-12-10 13:58:54.332441,-145
2021-12-10 13:58:54.332449,-157
2021-12-10 13:58:54.332457,-150
2021-12-10 13:58:54.332465,-123
2021-12-10 13:58:54.332474,-107
2021-12-10 13:58:54.332482,-100
2021-12-10 13:58:54.332491,-102
2021-12-10 13:58:54.332499,-104
2021-12-10 13:58:54.332507,-90
2021-12-10 13:58:54.332516,-64
2021-12-10 13:58:54.332524,-47
2021-12-10 13:58:54.332532,-50
2021-12-10 13:58:54.332540,-57
2021-12-10 13:58:54.332548,-66
2021-12-10 13:58:54.332557,-71
2021-12-10 13:58:54.332565,-61
2021-12-10 13:58:54.332573,-52
2021-12-10 13:58:54.332582,-47
2021-12-10 13:58:54.332590,-52
2021-12-10 13:58:54.332598,-50
2021-12-10 13:58:54.332607,-30
2021-12-10 13:58:54.647382,-19
2021-12-10 13:58:54.647405,-45
2021-12-10 13:58:54.647415,-159
2021-12-10 13:58:54.647424,-224
2021-12-10 13:58:54.647432,88
2021-12-10 13:58:54.647441,834
2021-12-10 13:58:54.647449,1623
2021-12-10 13:58:54.647457,1695
2021-12-10 13:58:54.647466,732
2021-12-10 13:58:54.647474,-243
2021-12-10 13:58:54.647482,-295
2021-12-10 13:58:54.647491,-30
2021-12-10 13:58:54.647499,-90
2021-12-10 13:58:54.647508,-162
2021-12-10 13:58:54.647527,-95
2021-12-10 13:58:54.647536,-95
2021-12-10 13:58:54.647544,-112
2021-12-10 13:58:54.647553,-69
2021-12-10 13:58:54.647561,-42
2021-12-10 13:58:54.647569,-54
2021-12-10 13:58:54.647578,-66
2021-12-10 13:58:54.647586,-69
2021-12-10 13:58:54.647594,-64
2021-12-10 13:58:54.647603,-47
2021-12-10 13:58:54.647611,-26
2021-12-10 13:58:54.647619,-7
2021-12-10 13:58:54.647628,2
2021-12-10 13:58:54.647636,7
2021-12-10 13:58:54.647644,28
2021-12-10 13:58:54.647652,64
2021-12-10 13:58:54.870959,85
2021-12-10 13:58:54.870979,97
2021-12-10 13:58:54.870988,97
2021-12-10 13:58:54.870996,85
2021-12-10 13:58:54.871007,85
2021-12-10 13:58:54.871015,97
2021-12-10 13:58:54.871023,95
2021-12-10 13:58:54.871030,76
2021-12-10 13:58:54.871038,47
2021-12-10 13:58:54.871046,21
2021-12-10 13:58:54.871053,11
2021-12-10 13:58:54.871061,-2
2021-12-10 13:58:54.871069,-57
2021-12-10 13:58:54.871077,-135
2021-12-10 13:58:54.871084,-185
2021-12-10 13:58:54.871092,-205
2021-12-10 13:58:54.871100,-202
2021-12-10 13:58:54.871108,-188
2021-12-10 13:58:54.871116,-176
2021-12-10 13:58:54.871123,-183
2021-12-10 13:58:54.871131,-209
2021-12-10 13:58:54.871139,-233
2021-12-10 13:58:54.871147,-231
2021-12-10 13:58:54.871155,-212
2021-12-10 13:58:54.871162,-190
2021-12-10 13:58:54.871170,-185
2021-12-10 13:58:54.871178,-193
2021-12-10 13:58:54.871186,-183
2021-12-10 13:58:54.871194,-162
2021-12-10 13:58:54.871201,-147
2021-12-10 13:58:55.051942,-135
2021-12-10 13:58:55.051964,-123
2021-12-10 13:58:55.051974,-123
2021-12-10 13:58:55.051982,-126
2021-12-10 13:58:55.051991,-116
2021-12-10 13:58:55.052000,-97
2021-12-10 13:58:55.052008,-90
2021-12-10 13:58:55.052016,-102
2021-12-10 13:58:55.052023,-121
2021-12-10 13:58:55.052029,-119
2021-12-10 13:58:55.052037,-102
2021-12-10 13:58:55.052044,-90
2021-12-10 13:58:55.052051,-78
2021-12-10 13:58:55.052059,-64
2021-12-10 13:58:55.052066,-61
2021-12-10 13:58:55.052073,-61
2021-12-10 13:58:55.052081,-47
2021-12-10 13:58:55.052088,-42
2021-12-10 13:58:55.052094,-59
2021-12-10 13:58:55.052101,-71
2021-12-10 13:58:55.052108,-66
2021-12-10 13:58:55.052116,-64
2021-12-10 13:58:55.052123,-61
2021-12-10 13:58:55.052130,-61
2021-12-10 13:58:55.052137,-71
2021-12-10 13:58:55.052144,-78
2021-12-10 13:58:55.052151,-83
2021-12-10 13:58:55.052159,-157
2021-12-10 13:58:55.052166,-243
2021-12-10 13:58:55.052173,-73
2021-12-10 13:58:55.277433,512
2021-12-10 13:58:55.277456,1325
2021-12-10 13:58:55.277466,1745
2021-12-10 13:58:55.277475,1132
2021-12-10 13:58:55.277483,38
2021-12-10 13:58:55.277492,-326
2021-12-10 13:58:55.277500,-76
2021-12-10 13:58:55.277509,-61
2021-12-10 13:58:55.277517,-195
2021-12-10 13:58:55.277526,-147
2021-12-10 13:58:55.277534,-97
2021-12-10 13:58:55.277543,-119
2021-12-10 13:58:55.277551,-107
2021-12-10 13:58:55.277559,-95
2021-12-10 13:58:55.277568,-100
2021-12-10 13:58:55.277576,-81
2021-12-10 13:58:55.277585,-50
2021-12-10 13:58:55.277593,-47
2021-12-10 13:58:55.277601,-88
2021-12-10 13:58:55.277610,-112
2021-12-10 13:58:55.277618,-88
2021-12-10 13:58:55.277627,-59
2021-12-10 13:58:55.277635,-47
2021-12-10 13:58:55.277644,-21
2021-12-10 13:58:55.277652,-2
2021-12-10 13:58:55.277660,-9
2021-12-10 13:58:55.277669,-21
2021-12-10 13:58:55.277677,-9
2021-12-10 13:58:55.277685,7
2021-12-10 13:58:55.277694,11
2021-12-10 13:58:55.546772,7
2021-12-10 13:58:55.546793,2
2021-12-10 13:58:55.546803,0
2021-12-10 13:58:55.546812,-9
2021-12-10 13:58:55.546820,-16
2021-12-10 13:58:55.546829,-28
2021-12-10 13:58:55.546837,-54
2021-12-10 13:58:55.546846,-73
2021-12-10 13:58:55.546854,-81
2021-12-10 13:58:55.546862,-102
2021-12-10 13:58:55.546871,-114
2021-12-10 13:58:55.546879,-128
2021-12-10 13:58:55.546888,-157
2021-12-10 13:58:55.546896,-159
2021-12-10 13:58:55.546904,-135
2021-12-10 13:58:55.546913,-126
2021-12-10 13:58:55.546921,-119
2021-12-10 13:58:55.546929,-112
2021-12-10 13:58:55.546938,-112
2021-12-10 13:58:55.546946,-107
2021-12-10 13:58:55.546954,-95
2021-12-10 13:58:55.546963,-88
2021-12-10 13:58:55.546971,-78
2021-12-10 13:58:55.546979,-71
2021-12-10 13:58:55.546988,-73
2021-12-10 13:58:55.546996,-61
2021-12-10 13:58:55.547004,-52
2021-12-10 13:58:55.547013,-69
2021-12-10 13:58:55.547021,-88
2021-12-10 13:58:55.547029,-88
2021-12-10 13:58:55.727339,-76
2021-12-10 13:58:55.727362,-66
2021-12-10 13:58:55.727371,-64
2021-12-10 13:58:55.727380,-64
2021-12-10 13:58:55.727389,-59
2021-12-10 13:58:55.727397,-71
2021-12-10 13:58:55.727405,-90
2021-12-10 13:58:55.727414,-73
2021-12-10 13:58:55.727422,-50
2021-12-10 13:58:55.727430,-47
2021-12-10 13:58:55.727439,-47
2021-12-10 13:58:55.727447,-38
2021-12-10 13:58:55.727456,-21
2021-12-10 13:58:55.727464,-9
2021-12-10 13:58:55.727472,-7
2021-12-10 13:58:55.727481,-11
2021-12-10 13:58:55.727489,-30
2021-12-10 13:58:55.727498,-52
2021-12-10 13:58:55.727506,-50
2021-12-10 13:58:55.727514,-35
2021-12-10 13:58:55.727523,-28
2021-12-10 13:58:55.727531,-28
2021-12-10 13:58:55.727539,-19
2021-12-10 13:58:55.727548,-19
2021-12-10 13:58:55.727556,-52
2021-12-10 13:58:55.727564,-112
2021-12-10 13:58:55.727573,-197
2021-12-10 13:58:55.727581,-164
2021-12-10 13:58:55.727589,245
2021-12-10 13:58:55.727598,1008
2021-12-10 13:58:55.952064,1652
2021-12-10 13:58:55.952086,1430
2021-12-10 13:58:55.952096,381
2021-12-10 13:58:55.952105,-317
2021-12-10 13:58:55.952113,-209
2021-12-10 13:58:55.952122,-73
2021-12-10 13:58:55.952130,-174
2021-12-10 13:58:55.952138,-174
2021-12-10 13:58:55.952147,-109
2021-12-10 13:58:55.952155,-126
2021-12-10 13:58:55.952163,-147
2021-12-10 13:58:55.952172,-145
2021-12-10 13:58:55.952179,-143
2021-12-10 13:58:55.952186,-123
2021-12-10 13:58:55.952193,-100
2021-12-10 13:58:55.952199,-92
2021-12-10 13:58:55.952207,-85
2021-12-10 13:58:55.952215,-66
2021-12-10 13:58:55.952226,-42
2021-12-10 13:58:55.952233,-26
2021-12-10 13:58:55.952300,-11
2021-12-10 13:58:55.952315,0
2021-12-10 13:58:55.952324,14
2021-12-10 13:58:55.952333,38
2021-12-10 13:58:55.952341,61
2021-12-10 13:58:55.952350,73
2021-12-10 13:58:55.952358,83
2021-12-10 13:58:55.952367,81
2021-12-10 13:58:55.952375,66
2021-12-10 13:58:55.952383,61
2021-12-10 13:58:56.267006,61
2021-12-10 13:58:56.267028,40
2021-12-10 13:58:56.267038,-9
2021-12-10 13:58:56.267047,-64
2021-12-10 13:58:56.267055,-109
2021-12-10 13:58:56.267064,-133
2021-12-10 13:58:56.267072,-133
2021-12-10 13:58:56.267080,-128
2021-12-10 13:58:56.267089,-140
2021-12-10 13:58:56.267097,-166
2021-12-10 13:58:56.267105,-188
2021-12-10 13:58:56.267113,-171
2021-12-10 13:58:56.267121,-150
2021-12-10 13:58:56.267130,-147
2021-12-10 13:58:56.267138,-140
2021-12-10 13:58:56.267146,-138
2021-12-10 13:58:56.267155,-143
2021-12-10 13:58:56.267163,-133
2021-12-10 13:58:56.267171,-109
2021-12-10 13:58:56.267179,-90
2021-12-10 13:58:56.267188,-73
2021-12-10 13:58:56.267196,-73
2021-12-10 13:58:56.267204,-102
2021-12-10 13:58:56.267212,-114
2021-12-10 13:58:56.267220,-85
2021-12-10 13:58:56.267228,-64
2021-12-10 13:58:56.267237,-64
2021-12-10 13:58:56.267245,-69
2021-12-10 13:58:56.267253,-81
2021-12-10 13:58:56.267261,-107
2021-12-10 13:58:56.537018,-121
2021-12-10 13:58:56.537042,-97
2021-12-10 13:58:56.537051,-78
2021-12-10 13:58:56.537060,-92
2021-12-10 13:58:56.537068,-107
2021-12-10 13:58:56.537076,-95
2021-12-10 13:58:56.537085,-76
2021-12-10 13:58:56.537093,-61
2021-12-10 13:58:56.537101,-59
2021-12-10 13:58:56.537110,-66
2021-12-10 13:58:56.537118,-59
2021-12-10 13:58:56.537126,-11
2021-12-10 13:58:56.537135,21
2021-12-10 13:58:56.537143,19
2021-12-10 13:58:56.537151,4
2021-12-10 13:58:56.537160,-26
2021-12-10 13:58:56.537168,-54
2021-12-10 13:58:56.537177,-42
2021-12-10 13:58:56.537185,-21
2021-12-10 13:58:56.537193,-19
2021-12-10 13:58:56.537201,-30
2021-12-10 13:58:56.537210,-50
2021-12-10 13:58:56.537218,-47
2021-12-10 13:58:56.537226,-21
2021-12-10 13:58:56.537235,-26
2021-12-10 13:58:56.537243,-95
2021-12-10 13:58:56.537251,-188
2021-12-10 13:58:56.537259,-57
2021-12-10 13:58:56.537268,495
2021-12-10 13:58:56.537276,1299
2021-12-10 13:58:56.717389,1709
2021-12-10 13:58:56.717412,1120
2021-12-10 13:58:56.717421,71
2021-12-10 13:58:56.717430,-276
2021-12-10 13:58:56.717439,-33
2021-12-10 13:58:56.717448,-7
2021-12-10 13:58:56.717456,-152
2021-12-10 13:58:56.717464,-143
2021-12-10 13:58:56.717473,-114
2021-12-10 13:58:56.717481,-150
2021-12-10 13:58:56.717489,-135
2021-12-10 13:58:56.717498,-92
2021-12-10 13:58:56.717506,-85
2021-12-10 13:58:56.717514,-76
2021-12-10 13:58:56.717523,-71
2021-12-10 13:58:56.717531,-78
2021-12-10 13:58:56.717540,-59
2021-12-10 13:58:56.717548,-26
2021-12-10 13:58:56.717557,-9
2021-12-10 13:58:56.717565,-4
2021-12-10 13:58:56.717573,-11
2021-12-10 13:58:56.717582,-16
2021-12-10 13:58:56.717590,9
2021-12-10 13:58:56.717598,40
2021-12-10 13:58:56.717607,57
2021-12-10 13:58:56.717615,52
2021-12-10 13:58:56.717623,19
2021-12-10 13:58:56.717632,-14
2021-12-10 13:58:56.717640,-16
2021-12-10 13:58:56.717649,-26
2021-12-10 13:58:56.941299,-52
2021-12-10 13:58:56.941322,-66
2021-12-10 13:58:56.941332,-81
2021-12-10 13:58:56.941340,-95
2021-12-10 13:58:56.941349,-95
2021-12-10 13:58:56.941357,-119
2021-12-10 13:58:56.941366,-157
2021-12-10 13:58:56.941378,-164
2021-12-10 13:58:56.941386,-169
2021-12-10 13:58:56.941394,-185
2021-12-10 13:58:56.941402,-169
2021-12-10 13:58:56.941411,-140
2021-12-10 13:58:56.941419,-135
2021-12-10 13:58:56.941428,-147
2021-12-10 13:58:56.941436,-162
2021-12-10 13:58:56.941445,-154
2021-12-10 13:58:56.941453,-133
2021-12-10 13:58:56.941462,-114
2021-12-10 13:58:56.941470,-112
2021-12-10 13:58:56.941478,-126
2021-12-10 13:58:56.941487,-133
2021-12-10 13:58:56.941495,-119
2021-12-10 13:58:56.941503,-97
2021-12-10 13:58:56.941512,-83
2021-12-10 13:58:56.941520,-76
2021-12-10 13:58:56.941528,-71
2021-12-10 13:58:56.941537,-71
2021-12-10 13:58:56.941545,-64
2021-12-10 13:58:56.941553,-52
2021-12-10 13:58:56.941562,-35
2021-12-10 13:58:57.167064,-28
2021-12-10 13:58:57.167087,-23
2021-12-10 13:58:57.167097,-21
2021-12-10 13:58:57.167106,-16
2021-12-10 13:58:57.167115,-4
2021-12-10 13:58:57.167124,7
2021-12-10 13:58:57.167132,0
2021-12-10 13:58:57.167140,-23
2021-12-10 13:58:57.167148,-28
2021-12-10 13:58:57.167156,-19
2021-12-10 13:58:57.167163,-23
2021-12-10 13:58:57.167171,-4
2021-12-10 13:58:57.167179,16
2021-12-10 13:58:57.167186,-11
2021-12-10 13:58:57.167194,-28
2021-12-10 13:58:57.167201,-14
2021-12-10 13:58:57.167209,-26
2021-12-10 13:58:57.167216,-38
2021-12-10 13:58:57.167224,-30
2021-12-10 13:58:57.167256,-28
2021-12-10 13:58:57.167264,-26
2021-12-10 13:58:57.167272,-21
2021-12-10 13:58:57.167279,-14
2021-12-10 13:58:57.167287,-4
2021-12-10 13:58:57.167298,-14
2021-12-10 13:58:57.167306,-83
2021-12-10 13:58:57.167336,-171
2021-12-10 13:58:57.167344,-57
2021-12-10 13:58:57.167352,443
2021-12-10 13:58:57.167360,1189
2021-12-10 13:58:57.347313,1609
2021-12-10 13:58:57.347334,1089
2021-12-10 13:58:57.347343,61
2021-12-10 13:58:57.347352,-317
2021-12-10 13:58:57.347360,-78
2021-12-10 13:58:57.347369,-45
2021-12-10 13:58:57.347377,-181
2021-12-10 13:58:57.347386,-154
2021-12-10 13:58:57.347394,-104
2021-12-10 13:58:57.347403,-135
2021-12-10 13:58:57.347411,-135
2021-12-10 13:58:57.347419,-119
2021-12-10 13:58:57.347428,-154
2021-12-10 13:58:57.347436,-166
2021-12-10 13:58:57.347445,-126
2021-12-10 13:58:57.347453,-104
2021-12-10 13:58:57.347461,-97
2021-12-10 13:58:57.347470,-83
2021-12-10 13:58:57.347478,-92
2021-12-10 13:58:57.347486,-104
2021-12-10 13:58:57.347495,-90
2021-12-10 13:58:57.347503,-81
2021-12-10 13:58:57.347511,-83
2021-12-10 13:58:57.347520,-78
2021-12-10 13:58:57.347528,-66
2021-12-10 13:58:57.347536,-52
2021-12-10 13:58:57.347544,-40
2021-12-10 13:58:57.347553,-45
2021-12-10 13:58:57.347561,-52
2021-12-10 13:58:57.347569,-57
2021-12-10 13:58:57.662114,-69
2021-12-10 13:58:57.662136,-71
2021-12-10 13:58:57.662146,-61
2021-12-10 13:58:57.662154,-66
2021-12-10 13:58:57.662162,-71
2021-12-10 13:58:57.662171,-85
2021-12-10 13:58:57.662179,-109
2021-12-10 13:58:57.662188,-102
2021-12-10 13:58:57.662196,-88
2021-12-10 13:58:57.662204,-92
2021-12-10 13:58:57.662213,-92
2021-12-10 13:58:57.662221,-97
2021-12-10 13:58:57.662229,-107
2021-12-10 13:58:57.662238,-97
2021-12-10 13:58:57.662246,-102
2021-12-10 13:58:57.662254,-121
2021-12-10 13:58:57.662263,-107
2021-12-10 13:58:57.662271,-97
2021-12-10 13:58:57.662279,-97
2021-12-10 13:58:57.662288,-78
2021-12-10 13:58:57.662296,-59
2021-12-10 13:58:57.662304,-59
2021-12-10 13:58:57.662312,-59
2021-12-10 13:58:57.662320,-50
2021-12-10 13:58:57.662329,-45
2021-12-10 13:58:57.662337,-38
2021-12-10 13:58:57.662345,-26
2021-12-10 13:58:57.662353,-26
2021-12-10 13:58:57.662362,-30
2021-12-10 13:58:57.662370,-28
2021-12-10 13:58:57.841379,-14
2021-12-10 13:58:57.841400,2
2021-12-10 13:58:57.841410,11
2021-12-10 13:58:57.841419,7
2021-12-10 13:58:57.841427,-4
2021-12-10 13:58:57.841436,-23
2021-12-10 13:58:57.841444,-19
2021-12-10 13:58:57.841453,0
2021-12-10 13:58:57.841461,11
2021-12-10 13:58:57.841469,14
2021-12-10 13:58:57.841478,9
2021-12-10 13:58:57.841486,19
2021-12-10 13:58:57.841495,54
2021-12-10 13:58:57.841503,71
2021-12-10 13:58:57.841511,50
2021-12-10 13:58:57.841520,33
2021-12-10 13:58:57.841529,2
2021-12-10 13:58:57.841537,-64
2021-12-10 13:58:57.841545,-88
2021-12-10 13:58:57.841554,-57
2021-12-10 13:58:57.841562,-47
2021-12-10 13:58:57.841570,-66
2021-12-10 13:58:57.841579,-78
2021-12-10 13:58:57.841587,-85
2021-12-10 13:58:57.841595,-92
2021-12-10 13:58:57.841604,-116
2021-12-10 13:58:57.841612,-197
2021-12-10 13:58:57.841620,-236
2021-12-10 13:58:57.841629,26
2021-12-10 13:58:57.841637,672
2021-12-10 13:58:58.022033,1373
2021-12-10 13:58:58.022054,1418
2021-12-10 13:58:58.022064,555
2021-12-10 13:58:58.022073,-259
2021-12-10 13:58:58.022081,-288
2021-12-10 13:58:58.022090,-90
2021-12-10 13:58:58.022109,-140
2021-12-10 13:58:58.022118,-178
2021-12-10 13:58:58.022147,-121
2021-12-10 13:58:58.022157,-128
2021-12-10 13:58:58.022189,-166
2021-12-10 13:58:58.022204,-140
2021-12-10 13:58:58.022214,-107
2021-12-10 13:58:58.022222,-97
2021-12-10 13:58:58.022231,-100
2021-12-10 13:58:58.022239,-116
2021-12-10 13:58:58.022248,-128
2021-12-10 13:58:58.022256,-128
2021-12-10 13:58:58.022264,-138
2021-12-10 13:58:58.022273,-140
2021-12-10 13:58:58.022281,-121
2021-12-10 13:58:58.022289,-112
2021-12-10 13:58:58.022298,-109
2021-12-10 13:58:58.022306,-81
2021-12-10 13:58:58.022315,-54
2021-12-10 13:58:58.022323,-45
2021-12-10 13:58:58.022332,-42
2021-12-10 13:58:58.022340,-50
2021-12-10 13:58:58.022349,-57
2021-12-10 13:58:58.022357,-52
2021-12-10 13:58:58.292432,-54
2021-12-10 13:58:58.292452,-59
2021-12-10 13:58:58.292501,-69
2021-12-10 13:58:58.292520,-102
2021-12-10 13:58:58.292530,-123
2021-12-10 13:58:58.292539,-109
2021-12-10 13:58:58.292547,-102
2021-12-10 13:58:58.292556,-116
2021-12-10 13:58:58.292564,-133
2021-12-10 13:58:58.292573,-150
2021-12-10 13:58:58.292581,-150
2021-12-10 13:58:58.292590,-123
2021-12-10 13:58:58.292598,-104
2021-12-10 13:58:58.292607,-97
2021-12-10 13:58:58.292615,-100
2021-12-10 13:58:58.292624,-109
2021-12-10 13:58:58.292632,-109
2021-12-10 13:58:58.292641,-85
2021-12-10 13:58:58.292649,-59
2021-12-10 13:58:58.292658,-54
2021-12-10 13:58:58.292666,-83
2021-12-10 13:58:58.292675,-114
2021-12-10 13:58:58.292683,-123
2021-12-10 13:58:58.292691,-145
2021-12-10 13:58:58.292700,-159
2021-12-10 13:58:58.292708,-140
2021-12-10 13:58:58.292717,-138
2021-12-10 13:58:58.292725,-162
2021-12-10 13:58:58.292734,-145
2021-12-10 13:58:58.292742,-112
2021-12-10 13:58:58.517646,-104
2021-12-10 13:58:58.517699,-109
2021-12-10 13:58:58.517708,-109
2021-12-10 13:58:58.517717,-112
2021-12-10 13:58:58.517725,-107
2021-12-10 13:58:58.517733,-90
2021-12-10 13:58:58.517742,-81
2021-12-10 13:58:58.517750,-73
2021-12-10 13:58:58.517759,-88
2021-12-10 13:58:58.517767,-100
2021-12-10 13:58:58.517775,-57
2021-12-10 13:58:58.517784,-21
2021-12-10 13:58:58.517792,-26
2021-12-10 13:58:58.517800,-26
2021-12-10 13:58:58.517809,-45
2021-12-10 13:58:58.517817,-85
2021-12-10 13:58:58.517825,-85
2021-12-10 13:58:58.517834,-59
2021-12-10 13:58:58.517842,-50
2021-12-10 13:58:58.517851,-66
2021-12-10 13:58:58.517859,-92
2021-12-10 13:58:58.517867,-102
2021-12-10 13:58:58.517875,-107
2021-12-10 13:58:58.517884,-135
2021-12-10 13:58:58.517892,-209
2021-12-10 13:58:58.517900,-252
2021-12-10 13:58:58.517908,-11
2021-12-10 13:58:58.517917,634
2021-12-10 13:58:58.517925,1387
2021-12-10 13:58:58.517934,1523
2021-12-10 13:58:58.742544,677
2021-12-10 13:58:58.742567,-233
2021-12-10 13:58:58.742576,-314
2021-12-10 13:58:58.742585,-95
2021-12-10 13:58:58.742593,-138
2021-12-10 13:58:58.742602,-181
2021-12-10 13:58:58.742610,-109
2021-12-10 13:58:58.742618,-109
2021-12-10 13:58:58.742626,-157
2021-12-10 13:58:58.742635,-145
2021-12-10 13:58:58.742643,-128
2021-12-10 13:58:58.742652,-133
2021-12-10 13:58:58.742660,-131
2021-12-10 13:58:58.742672,-152
2021-12-10 13:58:58.742681,-174
2021-12-10 13:58:58.742689,-152
2021-12-10 13:58:58.742697,-121
2021-12-10 13:58:58.742706,-104
2021-12-10 13:58:58.742714,-85
2021-12-10 13:58:58.742722,-69
2021-12-10 13:58:58.742731,-66
2021-12-10 13:58:58.742739,-50
2021-12-10 13:58:58.742747,-21
2021-12-10 13:58:58.742756,0
2021-12-10 13:58:58.742764,-2
2021-12-10 13:58:58.742772,-30
2021-12-10 13:58:58.742780,-50
2021-12-10 13:58:58.742788,-54
2021-12-10 13:58:58.742797,-88
2021-12-10 13:58:58.742805,-140
2021-12-10 13:58:59.010711,-150
2021-12-10 13:58:59.010735,-138
2021-12-10 13:58:59.010744,-140
2021-12-10 13:58:59.010753,-140
2021-12-10 13:58:59.010762,-131
2021-12-10 13:58:59.010770,-123
2021-12-10 13:58:59.010779,-126
2021-12-10 13:58:59.010787,-140
2021-12-10 13:58:59.010795,-143
2021-12-10 13:58:59.010804,-121
2021-12-10 13:58:59.010812,-97
2021-12-10 13:58:59.010820,-85
2021-12-10 13:58:59.010829,-88
2021-12-10 13:58:59.010837,-100
2021-12-10 13:58:59.010846,-88
2021-12-10 13:58:59.010854,-64
2021-12-10 13:58:59.010863,-54
2021-12-10 13:58:59.010871,-40
2021-12-10 13:58:59.010880,-30
2021-12-10 13:58:59.010888,-40
2021-12-10 13:58:59.010896,-40
2021-12-10 13:58:59.010904,-30
2021-12-10 13:58:59.010913,-19
2021-12-10 13:58:59.010921,-4
2021-12-10 13:58:59.010929,-4
2021-12-10 13:58:59.010938,-14
2021-12-10 13:58:59.010946,-26
2021-12-10 13:58:59.010954,-40
2021-12-10 13:58:59.010963,-30
2021-12-10 13:58:59.010971,-4
2021-12-10 13:58:59.192422,0
2021-12-10 13:58:59.192444,-2
2021-12-10 13:58:59.192453,9
2021-12-10 13:58:59.192462,35
2021-12-10 13:58:59.192471,66
2021-12-10 13:58:59.192479,64
2021-12-10 13:58:59.192488,33
2021-12-10 13:58:59.192496,19
2021-12-10 13:58:59.192505,19
2021-12-10 13:58:59.192513,9
2021-12-10 13:58:59.192522,4
2021-12-10 13:58:59.192530,4
2021-12-10 13:58:59.192539,-11
2021-12-10 13:58:59.192548,-9
2021-12-10 13:58:59.192556,9
2021-12-10 13:58:59.192565,11
2021-12-10 13:58:59.192573,7
2021-12-10 13:58:59.192582,-47
2021-12-10 13:58:59.192590,-174
2021-12-10 13:58:59.192599,-140
2021-12-10 13:58:59.192607,305
2021-12-10 13:58:59.192616,1068
2021-12-10 13:58:59.192624,1685
2021-12-10 13:58:59.192633,1413
2021-12-10 13:58:59.192641,312
2021-12-10 13:58:59.192650,-331
2021-12-10 13:58:59.192658,-150
2021-12-10 13:58:59.192667,-38
2021-12-10 13:58:59.192675,-154
2021-12-10 13:58:59.192684,-147
2021-12-10 13:58:59.462282,-107
2021-12-10 13:58:59.462304,-116
2021-12-10 13:58:59.462314,-102
2021-12-10 13:58:59.462323,-88
2021-12-10 13:58:59.462331,-119
2021-12-10 13:58:59.462340,-154
2021-12-10 13:58:59.462348,-152
2021-12-10 13:58:59.462356,-128
2021-12-10 13:58:59.462365,-128
2021-12-10 13:58:59.462373,-133
2021-12-10 13:58:59.462382,-126
2021-12-10 13:58:59.462390,-138
2021-12-10 13:58:59.462398,-150
2021-12-10 13:58:59.462407,-119
2021-12-10 13:58:59.462415,-90
2021-12-10 13:58:59.462424,-81
2021-12-10 13:58:59.462432,-66
2021-12-10 13:58:59.462441,-54
2021-12-10 13:58:59.462449,-57
2021-12-10 13:58:59.462457,-52
2021-12-10 13:58:59.462466,-50
2021-12-10 13:58:59.462474,-64
2021-12-10 13:58:59.462482,-76
2021-12-10 13:58:59.462491,-85
2021-12-10 13:58:59.462499,-92
2021-12-10 13:58:59.462508,-81
2021-12-10 13:58:59.462516,-73
2021-12-10 13:58:59.462524,-83
2021-12-10 13:58:59.462533,-92
2021-12-10 13:58:59.462541,-95
2021-12-10 13:58:59.687410,-102
2021-12-10 13:58:59.687433,-112
2021-12-10 13:58:59.687446,-109
2021-12-10 13:58:59.687455,-100
2021-12-10 13:58:59.687463,-104
2021-12-10 13:58:59.687471,-112
2021-12-10 13:58:59.687480,-97
2021-12-10 13:58:59.687488,-76
2021-12-10 13:58:59.687497,-69
2021-12-10 13:58:59.687505,-66
2021-12-10 13:58:59.687513,-76
2021-12-10 13:58:59.687521,-92
2021-12-10 13:58:59.687530,-83
2021-12-10 13:58:59.687538,-59
2021-12-10 13:58:59.687547,-57
2021-12-10 13:58:59.687555,-59
2021-12-10 13:58:59.687563,-57
2021-12-10 13:58:59.687572,-59
2021-12-10 13:58:59.687580,-50
2021-12-10 13:58:59.687588,-33
2021-12-10 13:58:59.687596,-30
2021-12-10 13:58:59.687605,-30
2021-12-10 13:58:59.687613,-28
2021-12-10 13:58:59.687621,-26
2021-12-10 13:58:59.687629,-4
2021-12-10 13:58:59.687638,35
2021-12-10 13:58:59.687646,54
2021-12-10 13:58:59.687655,35
2021-12-10 13:58:59.687663,23
2021-12-10 13:58:59.687671,28
2021-12-10 13:58:59.867012,23
2021-12-10 13:58:59.867034,11
2021-12-10 13:58:59.867044,-4
2021-12-10 13:58:59.867053,-40
2021-12-10 13:58:59.867061,-69
2021-12-10 13:58:59.867069,-66
2021-12-10 13:58:59.867078,-42
2021-12-10 13:58:59.867086,-30
2021-12-10 13:58:59.867094,-52
2021-12-10 13:58:59.867103,-159
2021-12-10 13:58:59.867111,-278
2021-12-10 13:58:59.867120,-90
2021-12-10 13:58:59.867128,538
2021-12-10 13:58:59.867136,1371
2021-12-10 13:58:59.867145,1750
2021-12-10 13:58:59.867153,1044
2021-12-10 13:58:59.867161,-85
2021-12-10 13:58:59.867170,-398
2021-12-10 13:58:59.867178,-135
2021-12-10 13:58:59.867186,-126
2021-12-10 13:58:59.867194,-226
2021-12-10 13:58:59.867203,-181
2021-12-10 13:58:59.867211,-159
2021-12-10 13:58:59.867219,-169
2021-12-10 13:58:59.867228,-131
2021-12-10 13:58:59.867236,-102
2021-12-10 13:58:59.867244,-100
2021-12-10 13:58:59.867253,-95
2021-12-10 13:58:59.867261,-81
2021-12-10 13:58:59.867269,-61
2021-12-10 13:59:00.182055,-35
2021-12-10 13:59:00.182076,-11
2021-12-10 13:59:00.182085,-2
2021-12-10 13:59:00.182094,-19
2021-12-10 13:59:00.182102,-40
2021-12-10 13:59:00.182120,-28
2021-12-10 13:59:00.182128,2
2021-12-10 13:59:00.182137,14
2021-12-10 13:59:00.182145,2
2021-12-10 13:59:00.182154,-30
2021-12-10 13:59:00.182162,-54
2021-12-10 13:59:00.182171,-52
2021-12-10 13:59:00.182179,-47
2021-12-10 13:59:00.182187,-52
2021-12-10 13:59:00.182196,-66
2021-12-10 13:59:00.182204,-88
2021-12-10 13:59:00.182212,-97
2021-12-10 13:59:00.182221,-92
2021-12-10 13:59:00.182229,-95
2021-12-10 13:59:00.182237,-102
2021-12-10 13:59:00.182246,-112
2021-12-10 13:59:00.182254,-126
2021-12-10 13:59:00.182262,-126
2021-12-10 13:59:00.182271,-107
2021-12-10 13:59:00.182279,-90
2021-12-10 13:59:00.182287,-83
2021-12-10 13:59:00.182296,-81
2021-12-10 13:59:00.182304,-81
2021-12-10 13:59:00.182312,-73
2021-12-10 13:59:00.182321,-59
2021-12-10 13:59:00.407034,-42
2021-12-10 13:59:00.407058,-26
2021-12-10 13:59:00.407068,-23
2021-12-10 13:59:00.407077,-30
2021-12-10 13:59:00.407085,-26
2021-12-10 13:59:00.407094,-11
2021-12-10 13:59:00.407102,-14
2021-12-10 13:59:00.407111,-35
2021-12-10 13:59:00.407119,-57
2021-12-10 13:59:00.407127,-78
2021-12-10 13:59:00.407136,-76
2021-12-10 13:59:00.407144,-54
2021-12-10 13:59:00.407153,-38
2021-12-10 13:59:00.407161,-26
2021-12-10 13:59:00.407169,-28
2021-12-10 13:59:00.407178,-59
2021-12-10 13:59:00.407186,-83
2021-12-10 13:59:00.407194,-45
2021-12-10 13:59:00.407203,9
2021-12-10 13:59:00.407211,9
2021-12-10 13:59:00.407219,-33
2021-12-10 13:59:00.407228,-50
2021-12-10 13:59:00.407236,-40
2021-12-10 13:59:00.407244,-50
2021-12-10 13:59:00.407253,-61
2021-12-10 13:59:00.407261,-54
2021-12-10 13:59:00.407269,-50
2021-12-10 13:59:00.407277,-57
2021-12-10 13:59:00.407286,-69
2021-12-10 13:59:00.407294,-59
2021-12-10 13:59:00.587452,-7
2021-12-10 13:59:00.587475,4
2021-12-10 13:59:00.587484,-109
2021-12-10 13:59:00.587493,-171
2021-12-10 13:59:00.587501,102
2021-12-10 13:59:00.587510,767
2021-12-10 13:59:00.587518,1535
2021-12-10 13:59:00.587526,1697
2021-12-10 13:59:00.587535,846
2021-12-10 13:59:00.587543,-104
2021-12-10 13:59:00.587551,-209
2021-12-10 13:59:00.587559,26
2021-12-10 13:59:00.587568,-21
2021-12-10 13:59:00.587576,-112
2021-12-10 13:59:00.587584,-85
2021-12-10 13:59:00.587592,-88
2021-12-10 13:59:00.587601,-92
2021-12-10 13:59:00.587609,-69
2021-12-10 13:59:00.587617,-78
2021-12-10 13:59:00.587625,-114
2021-12-10 13:59:00.587634,-121
2021-12-10 13:59:00.587642,-78
2021-12-10 13:59:00.587650,-47
2021-12-10 13:59:00.587658,-95
2021-12-10 13:59:00.587667,-123
2021-12-10 13:59:00.587675,-59
2021-12-10 13:59:00.587683,2
2021-12-10 13:59:00.587691,16
2021-12-10 13:59:00.587700,28
2021-12-10 13:59:00.587708,85
2021-12-10 13:59:00.857395,150
2021-12-10 13:59:00.857425,154
2021-12-10 13:59:00.857435,154
2021-12-10 13:59:00.857444,174
2021-12-10 13:59:00.857452,159
2021-12-10 13:59:00.857461,147
2021-12-10 13:59:00.857469,145
2021-12-10 13:59:00.857478,100
2021-12-10 13:59:00.857486,42
2021-12-10 13:59:00.857495,28
2021-12-10 13:59:00.857503,11
2021-12-10 13:59:00.857512,-42
2021-12-10 13:59:00.857520,-83
2021-12-10 13:59:00.857529,-97
2021-12-10 13:59:00.857537,-119
2021-12-10 13:59:00.857545,-138
2021-12-10 13:59:00.857554,-121
2021-12-10 13:59:00.857562,-92
2021-12-10 13:59:00.857571,-90
2021-12-10 13:59:00.857579,-95
2021-12-10 13:59:00.857587,-90
2021-12-10 13:59:00.857596,-112
2021-12-10 13:59:00.857604,-145
2021-12-10 13:59:00.857613,-138
2021-12-10 13:59:00.857621,-116
2021-12-10 13:59:00.857630,-116
2021-12-10 13:59:00.857638,-109
2021-12-10 13:59:00.857646,-95
2021-12-10 13:59:00.857655,-92
2021-12-10 13:59:00.857664,-83
2021-12-10 13:59:01.080750,-73
2021-12-10 13:59:01.080773,-71
2021-12-10 13:59:01.080783,-69
2021-12-10 13:59:01.080792,-61
2021-12-10 13:59:01.080801,-47
2021-12-10 13:59:01.080809,-42
2021-12-10 13:59:01.080817,-64
2021-12-10 13:59:01.080826,-78
2021-12-10 13:59:01.080834,-57
2021-12-10 13:59:01.080843,-45
2021-12-10 13:59:01.080851,-38
2021-12-10 13:59:01.080859,-19
2021-12-10 13:59:01.080868,-14
2021-12-10 13:59:01.080876,-9
2021-12-10 13:59:01.080885,21
2021-12-10 13:59:01.080893,35
2021-12-10 13:59:01.080901,23
2021-12-10 13:59:01.080910,23
2021-12-10 13:59:01.080918,-7
2021-12-10 13:59:01.080926,-42
2021-12-10 13:59:01.080935,-30
2021-12-10 13:59:01.080943,-16
2021-12-10 13:59:01.080951,-19
2021-12-10 13:59:01.080959,-9
2021-12-10 13:59:01.080968,-7
2021-12-10 13:59:01.080976,-2
2021-12-10 13:59:01.080984,9
2021-12-10 13:59:01.080992,-19
2021-12-10 13:59:01.081001,-109
2021-12-10 13:59:01.081009,-121
2021-12-10 13:59:01.352079,171
2021-12-10 13:59:01.352102,820
2021-12-10 13:59:01.352112,1497
2021-12-10 13:59:01.352120,1480
2021-12-10 13:59:01.352129,579
2021-12-10 13:59:01.352137,-205
2021-12-10 13:59:01.352146,-202
2021-12-10 13:59:01.352154,-16
2021-12-10 13:59:01.352162,-83
2021-12-10 13:59:01.352171,-128
2021-12-10 13:59:01.352179,-73
2021-12-10 13:59:01.352187,-88
2021-12-10 13:59:01.352195,-119
2021-12-10 13:59:01.352204,-83
2021-12-10 13:59:01.352212,-66
2021-12-10 13:59:01.352220,-88
2021-12-10 13:59:01.352229,-78
2021-12-10 13:59:01.352237,-59
2021-12-10 13:59:01.352245,-66
2021-12-10 13:59:01.352253,-64
2021-12-10 13:59:01.352262,-42
2021-12-10 13:59:01.352270,-30
2021-12-10 13:59:01.352278,-16
2021-12-10 13:59:01.352287,-2
2021-12-10 13:59:01.352295,14
2021-12-10 13:59:01.352303,38
2021-12-10 13:59:01.352312,54
2021-12-10 13:59:01.352320,40
2021-12-10 13:59:01.352328,7
2021-12-10 13:59:01.352337,0
2021-12-10 13:59:01.487384,19
2021-12-10 13:59:01.487405,28
2021-12-10 13:59:01.487415,21
2021-12-10 13:59:01.487424,14
2021-12-10 13:59:01.487432,-2
2021-12-10 13:59:01.487440,-26
2021-12-10 13:59:01.487449,-33
2021-12-10 13:59:01.487457,-26
2021-12-10 13:59:01.487465,-40
2021-12-10 13:59:01.487474,-73
2021-12-10 13:59:01.487482,-104
2021-12-10 13:59:01.487491,-135
2021-12-10 13:59:01.487499,-145
2021-12-10 13:59:01.487507,-119
2021-12-10 13:59:01.487516,-102
2021-12-10 13:59:01.487524,-112
2021-12-10 13:59:01.487532,-119
2021-12-10 13:59:01.487540,-123
2021-12-10 13:59:01.487549,-123
2021-12-10 13:59:01.487557,-104
2021-12-10 13:59:01.487565,-92
2021-12-10 13:59:01.487574,-102
2021-12-10 13:59:01.487582,-114
2021-12-10 13:59:01.487590,-119
2021-12-10 13:59:01.487599,-107
2021-12-10 13:59:01.487607,-88
2021-12-10 13:59:01.487615,-81
2021-12-10 13:59:01.487623,-85
2021-12-10 13:59:01.487632,-90
2021-12-10 13:59:01.487640,-85
2021-12-10 13:59:01.712441,-71
2021-12-10 13:59:01.712464,-57
2021-12-10 13:59:01.712474,-52
2021-12-10 13:59:01.712482,-64
2021-12-10 13:59:01.712491,-78
2021-12-10 13:59:01.712499,-85
2021-12-10 13:59:01.712508,-71
2021-12-10 13:59:01.712516,-52
2021-12-10 13:59:01.712525,-33
2021-12-10 13:59:01.712533,-21
2021-12-10 13:59:01.712541,-30
2021-12-10 13:59:01.712550,-40
2021-12-10 13:59:01.712558,-26
2021-12-10 13:59:01.712567,-16
2021-12-10 13:59:01.712575,-35
2021-12-10 13:59:01.712584,-50
2021-12-10 13:59:01.712592,-52
2021-12-10 13:59:01.712601,-45
2021-12-10 13:59:01.712609,-42
2021-12-10 13:59:01.712618,-50
2021-12-10 13:59:01.712626,-52
2021-12-10 13:59:01.712635,-52
2021-12-10 13:59:01.712643,-64
2021-12-10 13:59:01.712651,-109
2021-12-10 13:59:01.712659,-185
2021-12-10 13:59:01.712668,-97
2021-12-10 13:59:01.712676,393
2021-12-10 13:59:01.712685,1196
2021-12-10 13:59:01.712693,1762
2021-12-10 13:59:01.712701,1354
2021-12-10 13:59:01.982440,252
2021-12-10 13:59:01.982463,-278
2021-12-10 13:59:01.982473,-92
2021-12-10 13:59:01.982482,-71
2021-12-10 13:59:01.982491,-224
2021-12-10 13:59:01.982499,-171
2021-12-10 13:59:01.982508,-97
2021-12-10 13:59:01.982517,-119
2021-12-10 13:59:01.982525,-114
2021-12-10 13:59:01.982534,-104
2021-12-10 13:59:01.982542,-121
2021-12-10 13:59:01.982550,-95
2021-12-10 13:59:01.982559,-52
2021-12-10 13:59:01.982567,-30
2021-12-10 13:59:01.982576,-21
2021-12-10 13:59:01.982584,-26
2021-12-10 13:59:01.982593,-30
2021-12-10 13:59:01.982601,-16
2021-12-10 13:59:01.982610,11
2021-12-10 13:59:01.982619,35
2021-12-10 13:59:01.982627,40
2021-12-10 13:59:01.982636,30
2021-12-10 13:59:01.982644,42
2021-12-10 13:59:01.982653,73
2021-12-10 13:59:01.982661,83
2021-12-10 13:59:01.982668,81
2021-12-10 13:59:01.982677,76
2021-12-10 13:59:01.982685,57
2021-12-10 13:59:01.982694,45
2021-12-10 13:59:01.982702,52
2021-12-10 13:59:02.252075,52
2021-12-10 13:59:02.252098,45
2021-12-10 13:59:02.252107,33
2021-12-10 13:59:02.252116,4
2021-12-10 13:59:02.252125,-9
2021-12-10 13:59:02.252133,0
2021-12-10 13:59:02.252142,-9
2021-12-10 13:59:02.252150,-35
2021-12-10 13:59:02.252159,-59
2021-12-10 13:59:02.252167,-95
2021-12-10 13:59:02.252176,-104
2021-12-10 13:59:02.252184,-78
2021-12-10 13:59:02.252193,-64
2021-12-10 13:59:02.252202,-64
2021-12-10 13:59:02.252210,-78
2021-12-10 13:59:02.252218,-102
2021-12-10 13:59:02.252227,-95
2021-12-10 13:59:02.252235,-71
2021-12-10 13:59:02.252244,-64
2021-12-10 13:59:02.252252,-57
2021-12-10 13:59:02.252261,-59
2021-12-10 13:59:02.252269,-69
2021-12-10 13:59:02.252277,-69
2021-12-10 13:59:02.252286,-71
2021-12-10 13:59:02.252294,-73
2021-12-10 13:59:02.252302,-61
2021-12-10 13:59:02.252311,-64
2021-12-10 13:59:02.252319,-71
2021-12-10 13:59:02.252328,-54
2021-12-10 13:59:02.252336,-35
2021-12-10 13:59:02.432508,-28
2021-12-10 13:59:02.432530,-26
2021-12-10 13:59:02.432540,-28
2021-12-10 13:59:02.432549,-28
2021-12-10 13:59:02.432557,2
2021-12-10 13:59:02.432566,47
2021-12-10 13:59:02.432574,57
2021-12-10 13:59:02.432583,33
2021-12-10 13:59:02.432591,-2
2021-12-10 13:59:02.432600,-40
2021-12-10 13:59:02.432608,-42
2021-12-10 13:59:02.432617,-21
2021-12-10 13:59:02.432625,-19
2021-12-10 13:59:02.432633,-35
2021-12-10 13:59:02.432642,-54
2021-12-10 13:59:02.432650,-52
2021-12-10 13:59:02.432658,-35
2021-12-10 13:59:02.432667,-23
2021-12-10 13:59:02.432675,-57
2021-12-10 13:59:02.432683,-181
2021-12-10 13:59:02.432692,-226
2021-12-10 13:59:02.432700,114
2021-12-10 13:59:02.432709,860
2021-12-10 13:59:02.432717,1626
2021-12-10 13:59:02.432725,1626
2021-12-10 13:59:02.432733,605
2021-12-10 13:59:02.432742,-283
2021-12-10 13:59:02.432750,-257
2021-12-10 13:59:02.432759,-38
2021-12-10 13:59:02.432767,-114
2021-12-10 13:59:02.702495,-154
2021-12-10 13:59:02.702518,-92
2021-12-10 13:59:02.702528,-102
2021-12-10 13:59:02.702536,-123
2021-12-10 13:59:02.702545,-85
2021-12-10 13:59:02.702553,-54
2021-12-10 13:59:02.702561,-59
2021-12-10 13:59:02.702570,-78
2021-12-10 13:59:02.702578,-88
2021-12-10 13:59:02.702586,-76
2021-12-10 13:59:02.702595,-61
2021-12-10 13:59:02.702603,-64
2021-12-10 13:59:02.702612,-76
2021-12-10 13:59:02.702649,-92
2021-12-10 13:59:02.702658,-112
2021-12-10 13:59:02.702666,-135
2021-12-10 13:59:02.702674,-104
2021-12-10 13:59:02.702683,-14
2021-12-10 13:59:02.702691,35
2021-12-10 13:59:02.702700,16
2021-12-10 13:59:02.702708,21
2021-12-10 13:59:02.702716,42
2021-12-10 13:59:02.702725,30
2021-12-10 13:59:02.702733,11
2021-12-10 13:59:02.702742,-4
2021-12-10 13:59:02.702750,-16
2021-12-10 13:59:02.702758,2
2021-12-10 13:59:02.702767,-19
2021-12-10 13:59:02.702775,-73
2021-12-10 13:59:02.702783,-54
2021-12-10 13:59:02.882022,-28
2021-12-10 13:59:02.882044,-64
2021-12-10 13:59:02.882053,-97
2021-12-10 13:59:02.882062,-102
2021-12-10 13:59:02.882070,-85
2021-12-10 13:59:02.882079,-71
2021-12-10 13:59:02.882087,-95
2021-12-10 13:59:02.882096,-116
2021-12-10 13:59:02.882104,-104
2021-12-10 13:59:02.882113,-102
2021-12-10 13:59:02.882121,-114
2021-12-10 13:59:02.882130,-97
2021-12-10 13:59:02.882138,-81
2021-12-10 13:59:02.882147,-95
2021-12-10 13:59:02.882155,-128
2021-12-10 13:59:02.882163,-157
2021-12-10 13:59:02.882172,-147
2021-12-10 13:59:02.882180,-131
2021-12-10 13:59:02.882189,-143
2021-12-10 13:59:02.882197,-135
2021-12-10 13:59:02.882206,-109
2021-12-10 13:59:02.882214,-109
2021-12-10 13:59:02.882222,-123
2021-12-10 13:59:02.882231,-126
2021-12-10 13:59:02.882239,-107
2021-12-10 13:59:02.882247,-97
2021-12-10 13:59:02.882256,-119
2021-12-10 13:59:02.882264,-97
2021-12-10 13:59:02.882272,-66
2021-12-10 13:59:02.882280,-102
2021-12-10 13:59:03.241105,-128
2021-12-10 13:59:03.241126,-90
2021-12-10 13:59:03.241136,-57
2021-12-10 13:59:03.241145,-42
2021-12-10 13:59:03.241153,-33
2021-12-10 13:59:03.241161,-52
2021-12-10 13:59:03.241170,-69
2021-12-10 13:59:03.241178,-69
2021-12-10 13:59:03.241186,-88
2021-12-10 13:59:03.241194,-100
2021-12-10 13:59:03.241203,-90
2021-12-10 13:59:03.241211,-95
2021-12-10 13:59:03.241219,-107
2021-12-10 13:59:03.241228,-92
2021-12-10 13:59:03.241236,-76
2021-12-10 13:59:03.241244,-76
2021-12-10 13:59:03.241252,-92
2021-12-10 13:59:03.241261,-169
2021-12-10 13:59:03.241269,-212
2021-12-10 13:59:03.241277,45
2021-12-10 13:59:03.241286,650
2021-12-10 13:59:03.241294,1323
2021-12-10 13:59:03.241302,1440
2021-12-10 13:59:03.241310,665
2021-12-10 13:59:03.241318,-174
2021-12-10 13:59:03.241327,-240
2021-12-10 13:59:03.241335,-11
2021-12-10 13:59:03.241343,-66
2021-12-10 13:59:03.241351,-147
2021-12-10 13:59:03.241360,-90
2021-12-10 13:59:03.376828,-83
2021-12-10 13:59:03.376851,-133
2021-12-10 13:59:03.376861,-143
2021-12-10 13:59:03.376870,-114
2021-12-10 13:59:03.376879,-107
2021-12-10 13:59:03.376887,-135
2021-12-10 13:59:03.376895,-131
2021-12-10 13:59:03.376904,-95
2021-12-10 13:59:03.376968,-81
2021-12-10 13:59:03.376978,-73
2021-12-10 13:59:03.376987,-69
2021-12-10 13:59:03.376995,-71
2021-12-10 13:59:03.377004,-40
2021-12-10 13:59:03.377012,-2
2021-12-10 13:59:03.377020,9
2021-12-10 13:59:03.377029,26
2021-12-10 13:59:03.377037,40
2021-12-10 13:59:03.377046,28
2021-12-10 13:59:03.377054,26
2021-12-10 13:59:03.377062,42
2021-12-10 13:59:03.377070,26
2021-12-10 13:59:03.377079,-40
2021-12-10 13:59:03.377087,-92
2021-12-10 13:59:03.377095,-114
2021-12-10 13:59:03.377104,-128
2021-12-10 13:59:03.377112,-143
2021-12-10 13:59:03.377120,-152
2021-12-10 13:59:03.377128,-159
2021-12-10 13:59:03.377137,-171
2021-12-10 13:59:03.377145,-178
2021-12-10 13:59:03.557537,-162
2021-12-10 13:59:03.557559,-138
2021-12-10 13:59:03.557569,-140
2021-12-10 13:59:03.557577,-162
2021-12-10 13:59:03.557586,-178
2021-12-10 13:59:03.557595,-169
2021-12-10 13:59:03.557603,-145
2021-12-10 13:59:03.557612,-128
2021-12-10 13:59:03.557620,-119
2021-12-10 13:59:03.557629,-128
2021-12-10 13:59:03.557637,-150
2021-12-10 13:59:03.557646,-145
2021-12-10 13:59:03.557654,-119
2021-12-10 13:59:03.557663,-107
2021-12-10 13:59:03.557701,-102
2021-12-10 13:59:03.557709,-100
2021-12-10 13:59:03.557718,-114
2021-12-10 13:59:03.557726,-112
2021-12-10 13:59:03.557735,-83
2021-12-10 13:59:03.557743,-61
2021-12-10 13:59:03.557751,-54
2021-12-10 13:59:03.557760,-59
2021-12-10 13:59:03.557768,-69
2021-12-10 13:59:03.557776,-57
2021-12-10 13:59:03.557785,-30
2021-12-10 13:59:03.557793,-14
2021-12-10 13:59:03.557802,-16
2021-12-10 13:59:03.557810,-19
2021-12-10 13:59:03.557818,-4
2021-12-10 13:59:03.557826,2
2021-12-10 13:59:03.827329,9
2021-12-10 13:59:03.827350,33
2021-12-10 13:59:03.827360,59
2021-12-10 13:59:03.827369,57
2021-12-10 13:59:03.827378,23
2021-12-10 13:59:03.827386,9
2021-12-10 13:59:03.827395,2
2021-12-10 13:59:03.827403,-21
2021-12-10 13:59:03.827414,-45
2021-12-10 13:59:03.827423,-71
2021-12-10 13:59:03.827432,-90
2021-12-10 13:59:03.827440,-78
2021-12-10 13:59:03.827449,-57
2021-12-10 13:59:03.827457,-33
2021-12-10 13:59:03.827466,-21
2021-12-10 13:59:03.827474,-45
2021-12-10 13:59:03.827483,-97
2021-12-10 13:59:03.827491,-157
2021-12-10 13:59:03.827499,-107
2021-12-10 13:59:03.827508,240
2021-12-10 13:59:03.827613,884
2021-12-10 13:59:03.827624,1435
2021-12-10 13:59:03.827632,1232
2021-12-10 13:59:03.827638,326
2021-12-10 13:59:03.827645,-250
2021-12-10 13:59:03.827652,-143
2021-12-10 13:59:03.827659,-66
2021-12-10 13:59:03.827666,-195
2021-12-10 13:59:03.827710,-178
2021-12-10 13:59:03.827716,-104
2021-12-10 13:59:04.052086,-119
2021-12-10 13:59:04.052109,-112
2021-12-10 13:59:04.052119,-81
2021-12-10 13:59:04.052128,-92
2021-12-10 13:59:04.052136,-85
2021-12-10 13:59:04.052144,-45
2021-12-10 13:59:04.052153,-28
2021-12-10 13:59:04.052161,-45
2021-12-10 13:59:04.052170,-71
2021-12-10 13:59:04.052178,-78
2021-12-10 13:59:04.052186,-52
2021-12-10 13:59:04.052195,-11
2021-12-10 13:59:04.052203,9
2021-12-10 13:59:04.052212,19
2021-12-10 13:59:04.052220,-2
2021-12-10 13:59:04.052229,-33
