Time,ECG
2021-12-10 13:48:31.891068,-526
2021-12-10 13:48:31.891088,-307
2021-12-10 13:48:31.891097,-295
2021-12-10 13:48:31.891105,-364
2021-12-10 13:48:31.891113,-309
2021-12-10 13:48:31.891121,-295
2021-12-10 13:48:31.891129,-324
2021-12-10 13:48:31.891136,-317
2021-12-10 13:48:31.891144,-300
2021-12-10 13:48:31.891153,-286
2021-12-10 13:48:31.891161,-276
2021-12-10 13:48:31.891169,-264
2021-12-10 13:48:31.891177,-243
2021-12-10 13:48:31.891185,-240
2021-12-10 13:48:31.891193,-238
2021-12-10 13:48:31.891201,-212
2021-12-10 13:48:31.891210,-190
2021-12-10 13:48:31.891218,-178
2021-12-10 13:48:31.891226,-166
2021-12-10 13:48:31.891234,-157
2021-12-10 13:48:31.891242,-145
2021-12-10 13:48:31.891250,-128
2021-12-10 13:48:31.891258,-116
2021-12-10 13:48:31.891265,-119
2021-12-10 13:48:31.891272,-140
2021-12-10 13:48:31.891280,-162
2021-12-10 13:48:31.891288,-178
2021-12-10 13:48:31.891296,-197
2021-12-10 13:48:31.891304,-207
2021-12-10 13:48:31.891312,-193
2021-12-10 13:48:31.930076,-183
2021-12-10 13:48:31.930095,-188
2021-12-10 13:48:31.930104,-193
2021-12-10 13:48:31.930113,-216
2021-12-10 13:48:31.930121,-236
2021-12-10 13:48:31.930130,-228
2021-12-10 13:48:31.930139,-245
2021-12-10 13:48:31.930148,-269
2021-12-10 13:48:31.930156,-255
2021-12-10 13:48:31.930165,-228
2021-12-10 13:48:31.930173,-216
2021-12-10 13:48:31.930181,-216
2021-12-10 13:48:31.930190,-233
2021-12-10 13:48:31.930199,-240
2021-12-10 13:48:31.930207,-224
2021-12-10 13:48:31.930215,-219
2021-12-10 13:48:31.930224,-214
2021-12-10 13:48:31.930233,-195
2021-12-10 13:48:31.930241,-195
2021-12-10 13:48:31.930249,-197
2021-12-10 13:48:31.930258,-190
2021-12-10 13:48:31.930266,-183
2021-12-10 13:48:31.930275,-176
2021-12-10 13:48:31.930283,-169
2021-12-10 13:48:31.930291,-169
2021-12-10 13:48:31.930300,-162
2021-12-10 13:48:31.930308,-145
2021-12-10 13:48:31.930316,-140
2021-12-10 13:48:31.930325,-123
2021-12-10 13:48:31.930334,-95
2021-12-10 13:48:32.110397,-92
2021-12-10 13:48:32.110415,-97
2021-12-10 13:48:32.110424,-133
2021-12-10 13:48:32.110433,-202
2021-12-10 13:48:32.110442,-219
2021-12-10 13:48:32.110450,-202
2021-12-10 13:48:32.110458,-216
2021-12-10 13:48:32.110467,-212
2021-12-10 13:48:32.110475,-183
2021-12-10 13:48:32.110484,-181
2021-12-10 13:48:32.110492,-188
2021-12-10 13:48:32.110500,-200
2021-12-10 13:48:32.110509,-262
2021-12-10 13:48:32.110521,-357
2021-12-10 13:48:32.110530,-283
2021-12-10 13:48:32.110539,145
2021-12-10 13:48:32.110547,898
2021-12-10 13:48:32.110555,1502
2021-12-10 13:48:32.110564,1177
2021-12-10 13:48:32.110572,92
2021-12-10 13:48:32.110581,-488
2021-12-10 13:48:32.110589,-309
2021-12-10 13:48:32.110597,-202
2021-12-10 13:48:32.110606,-300
2021-12-10 13:48:32.110614,-283
2021-12-10 13:48:32.110623,-216
2021-12-10 13:48:32.110631,-224
2021-12-10 13:48:32.110640,-224
2021-12-10 13:48:32.110648,-193
2021-12-10 13:48:32.110658,-181
2021-12-10 13:48:32.424127,-181
2021-12-10 13:48:32.424147,-154
2021-12-10 13:48:32.424157,-147
2021-12-10 13:48:32.424165,-159
2021-12-10 13:48:32.424174,-159
2021-12-10 13:48:32.424183,-166
2021-12-10 13:48:32.424191,-174
2021-12-10 13:48:32.424199,-166
2021-12-10 13:48:32.424208,-157
2021-12-10 13:48:32.424216,-140
2021-12-10 13:48:32.424224,-121
2021-12-10 13:48:32.424233,-126
2021-12-10 13:48:32.424241,-121
2021-12-10 13:48:32.424249,-95
2021-12-10 13:48:32.424258,-83
2021-12-10 13:48:32.424266,-95
2021-12-10 13:48:32.424274,-109
2021-12-10 13:48:32.424286,-119
2021-12-10 13:48:32.424295,-119
2021-12-10 13:48:32.424303,-109
2021-12-10 13:48:32.424311,-109
2021-12-10 13:48:32.424320,-131
2021-12-10 13:48:32.424328,-152
2021-12-10 13:48:32.424336,-169
2021-12-10 13:48:32.424345,-183
2021-12-10 13:48:32.424353,-202
2021-12-10 13:48:32.424361,-212
2021-12-10 13:48:32.424370,-205
2021-12-10 13:48:32.424378,-205
2021-12-10 13:48:32.424386,-202
2021-12-10 13:48:32.560078,-185
2021-12-10 13:48:32.560099,-174
2021-12-10 13:48:32.560108,-169
2021-12-10 13:48:32.560117,-178
2021-12-10 13:48:32.560125,-205
2021-12-10 13:48:32.560134,-209
2021-12-10 13:48:32.560143,-183
2021-12-10 13:48:32.560155,-190
2021-12-10 13:48:32.560164,-243
2021-12-10 13:48:32.560173,-283
2021-12-10 13:48:32.560181,-298
2021-12-10 13:48:32.560189,-288
2021-12-10 13:48:32.560198,-267
2021-12-10 13:48:32.560206,-245
2021-12-10 13:48:32.560214,-233
2021-12-10 13:48:32.560223,-236
2021-12-10 13:48:32.560231,-231
2021-12-10 13:48:32.560239,-202
2021-12-10 13:48:32.560248,-176
2021-12-10 13:48:32.560255,-166
2021-12-10 13:48:32.560263,-181
2021-12-10 13:48:32.560271,-202
2021-12-10 13:48:32.560279,-207
2021-12-10 13:48:32.560288,-193
2021-12-10 13:48:32.560296,-174
2021-12-10 13:48:32.560305,-162
2021-12-10 13:48:32.560313,-162
2021-12-10 13:48:32.560322,-162
2021-12-10 13:48:32.560330,-166
2021-12-10 13:48:32.560340,-188
2021-12-10 13:48:32.875435,-276
2021-12-10 13:48:32.875454,-300
2021-12-10 13:48:32.875464,28
2021-12-10 13:48:32.875473,758
2021-12-10 13:48:32.875481,1557
2021-12-10 13:48:32.875490,1630
2021-12-10 13:48:32.875498,617
2021-12-10 13:48:32.875507,-362
2021-12-10 13:48:32.875515,-402
2021-12-10 13:48:32.875523,-195
2021-12-10 13:48:32.875532,-293
2021-12-10 13:48:32.875540,-350
2021-12-10 13:48:32.875549,-276
2021-12-10 13:48:32.875557,-262
2021-12-10 13:48:32.875565,-274
2021-12-10 13:48:32.875574,-250
2021-12-10 13:48:32.875582,-228
2021-12-10 13:48:32.875591,-209
2021-12-10 13:48:32.875599,-181
2021-12-10 13:48:32.875608,-152
2021-12-10 13:48:32.875616,-140
2021-12-10 13:48:32.875624,-143
2021-12-10 13:48:32.875632,-126
2021-12-10 13:48:32.875640,-88
2021-12-10 13:48:32.875653,-59
2021-12-10 13:48:32.875662,-35
2021-12-10 13:48:32.875670,-19
2021-12-10 13:48:32.875678,-14
2021-12-10 13:48:32.875687,0
2021-12-10 13:48:32.875695,26
2021-12-10 13:48:33.056010,26
2021-12-10 13:48:33.056031,7
2021-12-10 13:48:33.056040,-14
2021-12-10 13:48:33.056048,-38
2021-12-10 13:48:33.056057,-54
2021-12-10 13:48:33.056065,-54
2021-12-10 13:48:33.056073,-54
2021-12-10 13:48:33.056082,-59
2021-12-10 13:48:33.056090,-88
2021-12-10 13:48:33.056098,-131
2021-12-10 13:48:33.056107,-138
2021-12-10 13:48:33.056115,-126
2021-12-10 13:48:33.056124,-133
2021-12-10 13:48:33.056132,-171
2021-12-10 13:48:33.056141,-219
2021-12-10 13:48:33.056149,-228
2021-12-10 13:48:33.056158,-197
2021-12-10 13:48:33.056166,-176
2021-12-10 13:48:33.056175,-166
2021-12-10 13:48:33.056183,-159
2021-12-10 13:48:33.056191,-181
2021-12-10 13:48:33.056200,-214
2021-12-10 13:48:33.056211,-205
2021-12-10 13:48:33.056219,-197
2021-12-10 13:48:33.056228,-209
2021-12-10 13:48:33.056236,-205
2021-12-10 13:48:33.056244,-202
2021-12-10 13:48:33.056250,-216
2021-12-10 13:48:33.056258,-207
2021-12-10 13:48:33.056266,-188
2021-12-10 13:48:33.280509,-185
2021-12-10 13:48:33.280528,-183
2021-12-10 13:48:33.280538,-183
2021-12-10 13:48:33.280547,-181
2021-12-10 13:48:33.280555,-147
2021-12-10 13:48:33.280563,-112
2021-12-10 13:48:33.280572,-104
2021-12-10 13:48:33.280580,-114
2021-12-10 13:48:33.280588,-157
2021-12-10 13:48:33.280597,-193
2021-12-10 13:48:33.280605,-178
2021-12-10 13:48:33.280613,-159
2021-12-10 13:48:33.280622,-157
2021-12-10 13:48:33.280630,-162
2021-12-10 13:48:33.280638,-183
2021-12-10 13:48:33.280647,-207
2021-12-10 13:48:33.280655,-212
2021-12-10 13:48:33.280663,-231
2021-12-10 13:48:33.280672,-331
2021-12-10 13:48:33.280680,-388
2021-12-10 13:48:33.280688,-71
2021-12-10 13:48:33.280697,717
2021-12-10 13:48:33.280705,1607
2021-12-10 13:48:33.280713,1726
2021-12-10 13:48:33.280726,705
2021-12-10 13:48:33.280735,-338
2021-12-10 13:48:33.280743,-422
2021-12-10 13:48:33.280752,-150
2021-12-10 13:48:33.280760,-202
2021-12-10 13:48:33.280769,-281
2021-12-10 13:48:33.505394,-200
2021-12-10 13:48:33.505412,-183
2021-12-10 13:48:33.505422,-212
2021-12-10 13:48:33.505430,-181
2021-12-10 13:48:33.505439,-145
2021-12-10 13:48:33.505447,-138
2021-12-10 13:48:33.505455,-126
2021-12-10 13:48:33.505464,-131
2021-12-10 13:48:33.505472,-138
2021-12-10 13:48:33.505480,-114
2021-12-10 13:48:33.505489,-81
2021-12-10 13:48:33.505497,-61
2021-12-10 13:48:33.505506,-52
2021-12-10 13:48:33.505514,-47
2021-12-10 13:48:33.505522,-30
2021-12-10 13:48:33.505531,0
2021-12-10 13:48:33.505539,23
2021-12-10 13:48:33.505547,28
2021-12-10 13:48:33.505556,4
2021-12-10 13:48:33.505564,-30
2021-12-10 13:48:33.505572,-33
2021-12-10 13:48:33.505581,-21
2021-12-10 13:48:33.505589,-28
2021-12-10 13:48:33.505597,-40
2021-12-10 13:48:33.505606,-45
2021-12-10 13:48:33.505614,-57
2021-12-10 13:48:33.505622,-81
2021-12-10 13:48:33.505631,-114
2021-12-10 13:48:33.505639,-131
2021-12-10 13:48:33.505647,-126
2021-12-10 13:48:33.730014,-133
2021-12-10 13:48:33.730032,-145
2021-12-10 13:48:33.730041,-140
2021-12-10 13:48:33.730049,-133
2021-12-10 13:48:33.730058,-128
2021-12-10 13:48:33.730066,-119
2021-12-10 13:48:33.730075,-133
2021-12-10 13:48:33.730083,-145
2021-12-10 13:48:33.730092,-131
2021-12-10 13:48:33.730100,-114
2021-12-10 13:48:33.730109,-107
2021-12-10 13:48:33.730117,-102
2021-12-10 13:48:33.730125,-119
2021-12-10 13:48:33.730133,-138
2021-12-10 13:48:33.730142,-121
2021-12-10 13:48:33.730150,-104
2021-12-10 13:48:33.730159,-116
2021-12-10 13:48:33.730167,-126
2021-12-10 13:48:33.730176,-140
2021-12-10 13:48:33.730184,-162
2021-12-10 13:48:33.730192,-188
2021-12-10 13:48:33.730201,-193
2021-12-10 13:48:33.730209,-176
2021-12-10 13:48:33.730217,-169
2021-12-10 13:48:33.730226,-176
2021-12-10 13:48:33.730234,-169
2021-12-10 13:48:33.730242,-147
2021-12-10 13:48:33.730251,-119
2021-12-10 13:48:33.730259,-95
2021-12-10 13:48:33.730267,-95
2021-12-10 13:48:33.999517,-102
2021-12-10 13:48:33.999538,-102
2021-12-10 13:48:33.999547,-114
2021-12-10 13:48:33.999556,-123
2021-12-10 13:48:33.999564,-116
2021-12-10 13:48:33.999573,-128
2021-12-10 13:48:33.999581,-157
2021-12-10 13:48:33.999590,-147
2021-12-10 13:48:33.999598,-121
2021-12-10 13:48:33.999607,-123
2021-12-10 13:48:33.999617,-157
2021-12-10 13:48:33.999626,-267
2021-12-10 13:48:33.999634,-350
2021-12-10 13:48:33.999643,-78
2021-12-10 13:48:33.999651,655
2021-12-10 13:48:33.999660,1535
2021-12-10 13:48:33.999668,1785
2021-12-10 13:48:33.999677,891
2021-12-10 13:48:33.999685,-224
2021-12-10 13:48:33.999693,-407
2021-12-10 13:48:33.999701,-112
2021-12-10 13:48:33.999710,-164
2021-12-10 13:48:33.999718,-302
2021-12-10 13:48:33.999726,-236
2021-12-10 13:48:33.999734,-226
2021-12-10 13:48:33.999743,-274
2021-12-10 13:48:33.999751,-226
2021-12-10 13:48:33.999759,-185
2021-12-10 13:48:33.999768,-197
2021-12-10 13:48:33.999776,-185
2021-12-10 13:48:34.180524,-154
2021-12-10 13:48:34.180545,-128
2021-12-10 13:48:34.180555,-104
2021-12-10 13:48:34.180563,-92
2021-12-10 13:48:34.180572,-90
2021-12-10 13:48:34.180580,-81
2021-12-10 13:48:34.180589,-59
2021-12-10 13:48:34.180597,-26
2021-12-10 13:48:34.180605,4
2021-12-10 13:48:34.180614,21
2021-12-10 13:48:34.180622,21
2021-12-10 13:48:34.180630,14
2021-12-10 13:48:34.180639,26
2021-12-10 13:48:34.180647,42
2021-12-10 13:48:34.180655,40
2021-12-10 13:48:34.180663,30
2021-12-10 13:48:34.180672,9
2021-12-10 13:48:34.180680,-11
2021-12-10 13:48:34.180688,-11
2021-12-10 13:48:34.180697,-9
2021-12-10 13:48:34.180705,-21
2021-12-10 13:48:34.180713,-40
2021-12-10 13:48:34.180721,-59
2021-12-10 13:48:34.180730,-90
2021-12-10 13:48:34.180738,-119
2021-12-10 13:48:34.180749,-109
2021-12-10 13:48:34.180758,-95
2021-12-10 13:48:34.180766,-100
2021-12-10 13:48:34.180774,-107
2021-12-10 13:48:34.180783,-97
2021-12-10 13:48:34.448743,-76
2021-12-10 13:48:34.448763,-66
2021-12-10 13:48:34.448772,-73
2021-12-10 13:48:34.448781,-88
2021-12-10 13:48:34.448790,-107
2021-12-10 13:48:34.448798,-112
2021-12-10 13:48:34.448807,-92
2021-12-10 13:48:34.448815,-78
2021-12-10 13:48:34.448823,-73
2021-12-10 13:48:34.448832,-83
2021-12-10 13:48:34.448840,-104
2021-12-10 13:48:34.448849,-100
2021-12-10 13:48:34.448857,-83
2021-12-10 13:48:34.448866,-92
2021-12-10 13:48:34.448874,-109
2021-12-10 13:48:34.448882,-123
2021-12-10 13:48:34.448891,-147
2021-12-10 13:48:34.448899,-143
2021-12-10 13:48:34.448907,-114
2021-12-10 13:48:34.448916,-104
2021-12-10 13:48:34.448924,-109
2021-12-10 13:48:34.448932,-112
2021-12-10 13:48:34.448941,-112
2021-12-10 13:48:34.448949,-102
2021-12-10 13:48:34.448957,-81
2021-12-10 13:48:34.448965,-59
2021-12-10 13:48:34.448974,-61
2021-12-10 13:48:34.448982,-88
2021-12-10 13:48:34.448991,-97
2021-12-10 13:48:34.448999,-109
2021-12-10 13:48:34.675516,-154
2021-12-10 13:48:34.675536,-164
2021-12-10 13:48:34.675546,-145
2021-12-10 13:48:34.675554,-174
2021-12-10 13:48:34.675563,-205
2021-12-10 13:48:34.675571,-178
2021-12-10 13:48:34.675579,-145
2021-12-10 13:48:34.675588,-133
2021-12-10 13:48:34.675596,-152
2021-12-10 13:48:34.675604,-267
2021-12-10 13:48:34.675612,-374
2021-12-10 13:48:34.675621,-157
2021-12-10 13:48:34.675629,500
2021-12-10 13:48:34.675637,1361
2021-12-10 13:48:34.675646,1747
2021-12-10 13:48:34.675654,1015
2021-12-10 13:48:34.675666,-119
2021-12-10 13:48:34.675674,-407
2021-12-10 13:48:34.675683,-114
2021-12-10 13:48:34.675691,-95
2021-12-10 13:48:34.675699,-214
2021-12-10 13:48:34.675707,-171
2021-12-10 13:48:34.675716,-135
2021-12-10 13:48:34.675724,-145
2021-12-10 13:48:34.675732,-109
2021-12-10 13:48:34.675741,-73
2021-12-10 13:48:34.675749,-73
2021-12-10 13:48:34.675757,-76
2021-12-10 13:48:34.675766,-78
2021-12-10 13:48:34.675774,-64
2021-12-10 13:48:34.900094,-28
2021-12-10 13:48:34.900113,-2
2021-12-10 13:48:34.900123,-2
2021-12-10 13:48:34.900132,-4
2021-12-10 13:48:34.900140,14
2021-12-10 13:48:34.900149,50
2021-12-10 13:48:34.900157,81
2021-12-10 13:48:34.900165,102
2021-12-10 13:48:34.900174,100
2021-12-10 13:48:34.900182,69
2021-12-10 13:48:34.900190,78
2021-12-10 13:48:34.900199,109
2021-12-10 13:48:34.900207,104
2021-12-10 13:48:34.900215,90
2021-12-10 13:48:34.900223,69
2021-12-10 13:48:34.900232,23
2021-12-10 13:48:34.900240,-2
2021-12-10 13:48:34.900248,-9
2021-12-10 13:48:34.900257,-9
2021-12-10 13:48:34.900265,-9
2021-12-10 13:48:34.900274,-26
2021-12-10 13:48:34.900282,-50
2021-12-10 13:48:34.900290,-45
2021-12-10 13:48:34.900298,-26
2021-12-10 13:48:34.900307,-19
2021-12-10 13:48:34.900315,-14
2021-12-10 13:48:34.900323,-19
2021-12-10 13:48:34.900332,-30
2021-12-10 13:48:34.900340,-23
2021-12-10 13:48:34.900348,-16
2021-12-10 13:48:35.125613,-28
2021-12-10 13:48:35.125635,-30
2021-12-10 13:48:35.125644,-28
2021-12-10 13:48:35.125653,-40
2021-12-10 13:48:35.125661,-52
2021-12-10 13:48:35.125669,-81
2021-12-10 13:48:35.125678,-109
2021-12-10 13:48:35.125686,-119
2021-12-10 13:48:35.125694,-150
2021-12-10 13:48:35.125703,-183
2021-12-10 13:48:35.125711,-174
2021-12-10 13:48:35.125719,-150
2021-12-10 13:48:35.125728,-147
2021-12-10 13:48:35.125740,-164
2021-12-10 13:48:35.125749,-185
2021-12-10 13:48:35.125757,-183
2021-12-10 13:48:35.125765,-159
2021-12-10 13:48:35.125773,-140
2021-12-10 13:48:35.125782,-135
2021-12-10 13:48:35.125790,-131
2021-12-10 13:48:35.125798,-128
2021-12-10 13:48:35.125806,-123
2021-12-10 13:48:35.125814,-109
2021-12-10 13:48:35.125822,-97
2021-12-10 13:48:35.125830,-88
2021-12-10 13:48:35.125838,-81
2021-12-10 13:48:35.125847,-78
2021-12-10 13:48:35.125855,-71
2021-12-10 13:48:35.125863,-40
2021-12-10 13:48:35.125871,2
2021-12-10 13:48:35.395517,14
2021-12-10 13:48:35.395538,-2
2021-12-10 13:48:35.395547,-21
2021-12-10 13:48:35.395556,-38
2021-12-10 13:48:35.395564,-40
2021-12-10 13:48:35.395572,-26
2021-12-10 13:48:35.395581,-26
2021-12-10 13:48:35.395589,-50
2021-12-10 13:48:35.395597,-69
2021-12-10 13:48:35.395606,-64
2021-12-10 13:48:35.395614,-45
2021-12-10 13:48:35.395622,-35
2021-12-10 13:48:35.395631,-73
2021-12-10 13:48:35.395639,-195
2021-12-10 13:48:35.395647,-243
2021-12-10 13:48:35.395655,71
2021-12-10 13:48:35.395664,803
2021-12-10 13:48:35.395672,1602
2021-12-10 13:48:35.395680,1676
2021-12-10 13:48:35.395689,705
2021-12-10 13:48:35.395697,-233
2021-12-10 13:48:35.395705,-264
2021-12-10 13:48:35.395713,-23
2021-12-10 13:48:35.395721,-90
2021-12-10 13:48:35.395730,-154
2021-12-10 13:48:35.395738,-85
2021-12-10 13:48:35.395746,-73
2021-12-10 13:48:35.395754,-92
2021-12-10 13:48:35.395762,-59
2021-12-10 13:48:35.395770,-30
2021-12-10 13:48:35.620152,-33
2021-12-10 13:48:35.620173,-21
2021-12-10 13:48:35.620182,-2
2021-12-10 13:48:35.620191,-4
2021-12-10 13:48:35.620199,-14
2021-12-10 13:48:35.620208,-4
2021-12-10 13:48:35.620216,-9
2021-12-10 13:48:35.620224,-38
2021-12-10 13:48:35.620233,-28
2021-12-10 13:48:35.620241,7
2021-12-10 13:48:35.620249,0
2021-12-10 13:48:35.620258,-33
2021-12-10 13:48:35.620266,-40
2021-12-10 13:48:35.620274,-28
2021-12-10 13:48:35.620283,-21
2021-12-10 13:48:35.620291,-26
2021-12-10 13:48:35.620299,-26
2021-12-10 13:48:35.620311,-28
2021-12-10 13:48:35.620320,-57
2021-12-10 13:48:35.620328,-73
2021-12-10 13:48:35.620337,-59
2021-12-10 13:48:35.620345,-57
2021-12-10 13:48:35.620353,-64
2021-12-10 13:48:35.620361,-61
2021-12-10 13:48:35.620370,-57
2021-12-10 13:48:35.620378,-52
2021-12-10 13:48:35.620386,-52
2021-12-10 13:48:35.620395,-76
2021-12-10 13:48:35.620403,-88
2021-12-10 13:48:35.620411,-92
2021-12-10 13:48:35.800080,-109
2021-12-10 13:48:35.800099,-104
2021-12-10 13:48:35.800108,-90
2021-12-10 13:48:35.800117,-102
2021-12-10 13:48:35.800126,-97
2021-12-10 13:48:35.800134,-76
2021-12-10 13:48:35.800142,-85
2021-12-10 13:48:35.800151,-90
2021-12-10 13:48:35.800159,-71
2021-12-10 13:48:35.800168,-69
2021-12-10 13:48:35.800176,-76
2021-12-10 13:48:35.800184,-81
2021-12-10 13:48:35.800192,-92
2021-12-10 13:48:35.800201,-83
2021-12-10 13:48:35.800209,-57
2021-12-10 13:48:35.800217,-52
2021-12-10 13:48:35.800225,-57
2021-12-10 13:48:35.800234,-59
2021-12-10 13:48:35.800242,-69
2021-12-10 13:48:35.800250,-59
2021-12-10 13:48:35.800259,-42
2021-12-10 13:48:35.800267,-38
2021-12-10 13:48:35.800275,-30
2021-12-10 13:48:35.800283,-26
2021-12-10 13:48:35.800292,-23
2021-12-10 13:48:35.800300,-11
2021-12-10 13:48:35.800308,2
2021-12-10 13:48:35.800317,2
2021-12-10 13:48:35.800325,9
2021-12-10 13:48:35.800333,14
2021-12-10 13:48:36.070730,16
2021-12-10 13:48:36.070751,30
2021-12-10 13:48:36.070761,45
2021-12-10 13:48:36.070769,52
2021-12-10 13:48:36.070778,71
2021-12-10 13:48:36.070787,76
2021-12-10 13:48:36.070795,50
2021-12-10 13:48:36.070804,38
2021-12-10 13:48:36.070812,28
2021-12-10 13:48:36.070820,-4
2021-12-10 13:48:36.070829,-28
2021-12-10 13:48:36.070837,-33
2021-12-10 13:48:36.070845,-33
2021-12-10 13:48:36.070854,-19
2021-12-10 13:48:36.070862,-9
2021-12-10 13:48:36.070870,-7
2021-12-10 13:48:36.070879,-7
2021-12-10 13:48:36.070887,-38
2021-12-10 13:48:36.070895,-114
2021-12-10 13:48:36.070903,-193
2021-12-10 13:48:36.070912,-109
2021-12-10 13:48:36.070920,338
2021-12-10 13:48:36.070929,1075
2021-12-10 13:48:36.070937,1566
2021-12-10 13:48:36.070946,1142
2021-12-10 13:48:36.070954,126
2021-12-10 13:48:36.070962,-317
2021-12-10 13:48:36.070971,-121
2021-12-10 13:48:36.070979,-66
2021-12-10 13:48:36.070990,-162
2021-12-10 13:48:36.250464,-112
2021-12-10 13:48:36.250483,-59
2021-12-10 13:48:36.250492,-90
2021-12-10 13:48:36.250501,-97
2021-12-10 13:48:36.250509,-88
2021-12-10 13:48:36.250518,-92
2021-12-10 13:48:36.250526,-73
2021-12-10 13:48:36.250534,-40
2021-12-10 13:48:36.250543,-28
2021-12-10 13:48:36.250551,-33
2021-12-10 13:48:36.250560,-38
2021-12-10 13:48:36.250568,-26
2021-12-10 13:48:36.250576,7
2021-12-10 13:48:36.250585,30
2021-12-10 13:48:36.250593,26
2021-12-10 13:48:36.250601,4
2021-12-10 13:48:36.250610,-23
2021-12-10 13:48:36.250618,-40
2021-12-10 13:48:36.250626,-26
2021-12-10 13:48:36.250635,-4
2021-12-10 13:48:36.250643,-7
2021-12-10 13:48:36.250651,-28
2021-12-10 13:48:36.250660,-50
2021-12-10 13:48:36.250668,-50
2021-12-10 13:48:36.250676,-40
2021-12-10 13:48:36.250684,-33
2021-12-10 13:48:36.250693,-26
2021-12-10 13:48:36.250701,-28
2021-12-10 13:48:36.250709,-21
2021-12-10 13:48:36.250718,-2
2021-12-10 13:48:36.564405,4
2021-12-10 13:48:36.564426,7
2021-12-10 13:48:36.564435,7
2021-12-10 13:48:36.564444,-19
2021-12-10 13:48:36.564453,-52
2021-12-10 13:48:36.564461,-38
2021-12-10 13:48:36.564470,-7
2021-12-10 13:48:36.564478,-2
2021-12-10 13:48:36.564487,-4
2021-12-10 13:48:36.564496,-19
2021-12-10 13:48:36.564504,-38
2021-12-10 13:48:36.564513,-35
2021-12-10 13:48:36.564521,-38
2021-12-10 13:48:36.564530,-42
2021-12-10 13:48:36.564547,-35
2021-12-10 13:48:36.564579,-42
2021-12-10 13:48:36.564591,-42
2021-12-10 13:48:36.564600,-23
2021-12-10 13:48:36.564609,-9
2021-12-10 13:48:36.564617,-2
2021-12-10 13:48:36.564625,-2
2021-12-10 13:48:36.564634,-19
2021-12-10 13:48:36.564642,-35
2021-12-10 13:48:36.564650,-54
2021-12-10 13:48:36.564658,-57
2021-12-10 13:48:36.564667,-26
2021-12-10 13:48:36.564675,-11
2021-12-10 13:48:36.564684,-26
2021-12-10 13:48:36.564692,-26
2021-12-10 13:48:36.564700,-4
2021-12-10 13:48:36.745004,11
2021-12-10 13:48:36.745021,21
2021-12-10 13:48:36.745030,21
2021-12-10 13:48:36.745039,11
2021-12-10 13:48:36.745047,9
2021-12-10 13:48:36.745056,19
2021-12-10 13:48:36.745064,30
2021-12-10 13:48:36.745072,47
2021-12-10 13:48:36.745081,57
2021-12-10 13:48:36.745089,52
2021-12-10 13:48:36.745098,50
2021-12-10 13:48:36.745106,57
2021-12-10 13:48:36.745114,45
2021-12-10 13:48:36.745122,7
2021-12-10 13:48:36.745131,-38
2021-12-10 13:48:36.745139,-71
2021-12-10 13:48:36.745147,-69
2021-12-10 13:48:36.745155,-42
2021-12-10 13:48:36.745164,-30
2021-12-10 13:48:36.745172,-33
2021-12-10 13:48:36.745184,-40
2021-12-10 13:48:36.745192,-52
2021-12-10 13:48:36.745200,-107
2021-12-10 13:48:36.745209,-207
2021-12-10 13:48:36.745217,-119
2021-12-10 13:48:36.745225,388
2021-12-10 13:48:36.745234,1194
2021-12-10 13:48:36.745242,1766
2021-12-10 13:48:36.745250,1373
2021-12-10 13:48:36.745259,231
2021-12-10 13:48:36.970160,-352
2021-12-10 13:48:36.970182,-147
2021-12-10 13:48:36.970192,-73
2021-12-10 13:48:36.970201,-209
2021-12-10 13:48:36.970210,-185
2021-12-10 13:48:36.970218,-143
2021-12-10 13:48:36.970227,-176
2021-12-10 13:48:36.970236,-178
2021-12-10 13:48:36.970245,-181
2021-12-10 13:48:36.970254,-202
2021-12-10 13:48:36.970262,-185
2021-12-10 13:48:36.970271,-147
2021-12-10 13:48:36.970281,-131
2021-12-10 13:48:36.970289,-128
2021-12-10 13:48:36.970298,-138
2021-12-10 13:48:36.970307,-150
2021-12-10 13:48:36.970316,-143
2021-12-10 13:48:36.970325,-123
2021-12-10 13:48:36.970334,-95
2021-12-10 13:48:36.970342,-81
2021-12-10 13:48:36.970351,-76
2021-12-10 13:48:36.970360,-52
2021-12-10 13:48:36.970369,-33
2021-12-10 13:48:36.970378,-33
2021-12-10 13:48:36.970386,-30
2021-12-10 13:48:36.970394,-38
2021-12-10 13:48:36.970403,-59
2021-12-10 13:48:36.970411,-83
2021-12-10 13:48:36.970419,-121
2021-12-10 13:48:36.970427,-154
2021-12-10 13:48:37.195535,-140
2021-12-10 13:48:37.195554,-114
2021-12-10 13:48:37.195564,-116
2021-12-10 13:48:37.195572,-123
2021-12-10 13:48:37.195580,-114
2021-12-10 13:48:37.195587,-92
2021-12-10 13:48:37.195595,-92
2021-12-10 13:48:37.195603,-126
2021-12-10 13:48:37.195610,-145
2021-12-10 13:48:37.195618,-114
2021-12-10 13:48:37.195625,-90
2021-12-10 13:48:37.195633,-88
2021-12-10 13:48:37.195641,-83
2021-12-10 13:48:37.195648,-95
2021-12-10 13:48:37.195656,-107
2021-12-10 13:48:37.195663,-97
2021-12-10 13:48:37.195670,-83
2021-12-10 13:48:37.195678,-78
2021-12-10 13:48:37.195686,-90
2021-12-10 13:48:37.195694,-107
2021-12-10 13:48:37.195702,-97
2021-12-10 13:48:37.195709,-85
2021-12-10 13:48:37.195717,-85
2021-12-10 13:48:37.195724,-76
2021-12-10 13:48:37.195732,-69
2021-12-10 13:48:37.195739,-73
2021-12-10 13:48:37.195747,-73
2021-12-10 13:48:37.195755,-69
2021-12-10 13:48:37.195763,-66
2021-12-10 13:48:37.195770,-52
2021-12-10 13:48:37.420402,-45
2021-12-10 13:48:37.420420,-50
2021-12-10 13:48:37.420429,-52
2021-12-10 13:48:37.420438,-50
2021-12-10 13:48:37.420446,-47
2021-12-10 13:48:37.420455,-52
2021-12-10 13:48:37.420463,-71
2021-12-10 13:48:37.420472,-71
2021-12-10 13:48:37.420480,-54
2021-12-10 13:48:37.420488,-57
2021-12-10 13:48:37.420496,-57
2021-12-10 13:48:37.420505,-59
2021-12-10 13:48:37.420513,-97
2021-12-10 13:48:37.420521,-126
2021-12-10 13:48:37.420530,-107
2021-12-10 13:48:37.420538,-97
2021-12-10 13:48:37.420546,-100
2021-12-10 13:48:37.420555,-90
2021-12-10 13:48:37.420563,-85
2021-12-10 13:48:37.420571,-97
2021-12-10 13:48:37.420579,-164
2021-12-10 13:48:37.420588,-298
2021-12-10 13:48:37.420599,-286
2021-12-10 13:48:37.420607,126
2021-12-10 13:48:37.420616,918
2021-12-10 13:48:37.420624,1683
2021-12-10 13:48:37.420633,1597
2021-12-10 13:48:37.420641,455
2021-12-10 13:48:37.420649,-467
2021-12-10 13:48:37.420658,-407
2021-12-10 13:48:37.645171,-200
2021-12-10 13:48:37.645193,-302
2021-12-10 13:48:37.645202,-324
2021-12-10 13:48:37.645211,-257
2021-12-10 13:48:37.645219,-300
2021-12-10 13:48:37.645228,-360
2021-12-10 13:48:37.645237,-352
2021-12-10 13:48:37.645245,-319
2021-12-10 13:48:37.645254,-302
2021-12-10 13:48:37.645262,-283
2021-12-10 13:48:37.645271,-257
2021-12-10 13:48:37.645279,-250
2021-12-10 13:48:37.645288,-252
2021-12-10 13:48:37.645296,-228
2021-12-10 13:48:37.645304,-195
2021-12-10 13:48:37.645313,-178
2021-12-10 13:48:37.645321,-154
2021-12-10 13:48:37.645330,-126
2021-12-10 13:48:37.645338,-104
2021-12-10 13:48:37.645347,-71
2021-12-10 13:48:37.645355,-47
2021-12-10 13:48:37.645363,-59
2021-12-10 13:48:37.645372,-76
2021-12-10 13:48:37.645380,-95
2021-12-10 13:48:37.645388,-100
2021-12-10 13:48:37.645397,-92
2021-12-10 13:48:37.645405,-102
2021-12-10 13:48:37.645413,-109
2021-12-10 13:48:37.645422,-102
2021-12-10 13:48:37.645430,-104
2021-12-10 13:48:37.959489,-104
2021-12-10 13:48:37.959507,-92
2021-12-10 13:48:37.959517,-92
2021-12-10 13:48:37.959526,-109
2021-12-10 13:48:37.959534,-123
2021-12-10 13:48:37.959542,-138
2021-12-10 13:48:37.959551,-138
2021-12-10 13:48:37.959559,-109
2021-12-10 13:48:37.959567,-95
2021-12-10 13:48:37.959576,-102
2021-12-10 13:48:37.959584,-102
2021-12-10 13:48:37.959592,-107
2021-12-10 13:48:37.959601,-112
2021-12-10 13:48:37.959609,-88
2021-12-10 13:48:37.959617,-73
2021-12-10 13:48:37.959625,-76
2021-12-10 13:48:37.959634,-73
2021-12-10 13:48:37.959642,-76
2021-12-10 13:48:37.959650,-71
2021-12-10 13:48:37.959659,-52
2021-12-10 13:48:37.959667,-42
2021-12-10 13:48:37.959675,-50
2021-12-10 13:48:37.959684,-57
2021-12-10 13:48:37.959692,-69
2021-12-10 13:48:37.959700,-76
2021-12-10 13:48:37.959708,-78
2021-12-10 13:48:37.959716,-69
2021-12-10 13:48:37.959725,-64
2021-12-10 13:48:37.959733,-71
2021-12-10 13:48:37.959741,-69
2021-12-10 13:48:38.095561,-54
2021-12-10 13:48:38.095582,-42
2021-12-10 13:48:38.095591,-35
2021-12-10 13:48:38.095600,-47
2021-12-10 13:48:38.095609,-71
2021-12-10 13:48:38.095617,-78
2021-12-10 13:48:38.095625,-76
2021-12-10 13:48:38.095634,-71
2021-12-10 13:48:38.095642,-73
2021-12-10 13:48:38.095650,-88
2021-12-10 13:48:38.095659,-109
2021-12-10 13:48:38.095667,-143
2021-12-10 13:48:38.095675,-150
2021-12-10 13:48:38.095683,-126
2021-12-10 13:48:38.095692,-116
2021-12-10 13:48:38.095700,-133
2021-12-10 13:48:38.095708,-154
2021-12-10 13:48:38.095717,-202
2021-12-10 13:48:38.095725,-298
2021-12-10 13:48:38.095733,-278
2021-12-10 13:48:38.095742,119
2021-12-10 13:48:38.095750,901
2021-12-10 13:48:38.095758,1664
2021-12-10 13:48:38.095767,1590
2021-12-10 13:48:38.095775,476
2021-12-10 13:48:38.095783,-443
2021-12-10 13:48:38.095792,-424
2021-12-10 13:48:38.095800,-252
2021-12-10 13:48:38.095808,-352
2021-12-10 13:48:38.095817,-367
2021-12-10 13:48:38.409857,-283
2021-12-10 13:48:38.409876,-283
2021-12-10 13:48:38.409886,-298
2021-12-10 13:48:38.409894,-295
2021-12-10 13:48:38.409903,-312
2021-12-10 13:48:38.409915,-293
2021-12-10 13:48:38.409923,-250
2021-12-10 13:48:38.409932,-226
2021-12-10 13:48:38.409940,-212
2021-12-10 13:48:38.409948,-216
2021-12-10 13:48:38.409956,-226
2021-12-10 13:48:38.409965,-200
2021-12-10 13:48:38.409973,-164
2021-12-10 13:48:38.409981,-135
2021-12-10 13:48:38.409989,-109
2021-12-10 13:48:38.409997,-100
2021-12-10 13:48:38.410005,-88
2021-12-10 13:48:38.410014,-54
2021-12-10 13:48:38.410022,-35
2021-12-10 13:48:38.410030,-33
2021-12-10 13:48:38.410039,-38
2021-12-10 13:48:38.410047,-52
2021-12-10 13:48:38.410055,-59
2021-12-10 13:48:38.410063,-54
2021-12-10 13:48:38.410071,-57
2021-12-10 13:48:38.410079,-61
2021-12-10 13:48:38.410088,-66
2021-12-10 13:48:38.410096,-95
2021-12-10 13:48:38.410104,-133
2021-12-10 13:48:38.410112,-143
2021-12-10 13:48:38.634750,-126
2021-12-10 13:48:38.634769,-121
2021-12-10 13:48:38.634779,-131
2021-12-10 13:48:38.634788,-133
2021-12-10 13:48:38.634796,-119
2021-12-10 13:48:38.634805,-97
2021-12-10 13:48:38.634814,-83
2021-12-10 13:48:38.634822,-78
2021-12-10 13:48:38.634831,-95
2021-12-10 13:48:38.634839,-123
2021-12-10 13:48:38.634848,-116
2021-12-10 13:48:38.634856,-90
2021-12-10 13:48:38.634864,-88
2021-12-10 13:48:38.634872,-81
2021-12-10 13:48:38.634881,-81
2021-12-10 13:48:38.634889,-126
2021-12-10 13:48:38.634898,-171
2021-12-10 13:48:38.634906,-176
2021-12-10 13:48:38.634915,-154
2021-12-10 13:48:38.634923,-143
2021-12-10 13:48:38.634931,-152
2021-12-10 13:48:38.634939,-166
2021-12-10 13:48:38.634948,-157
2021-12-10 13:48:38.634956,-133
2021-12-10 13:48:38.634965,-121
2021-12-10 13:48:38.634973,-109
2021-12-10 13:48:38.634981,-95
2021-12-10 13:48:38.634989,-78
2021-12-10 13:48:38.634998,-59
2021-12-10 13:48:38.635006,-52
2021-12-10 13:48:38.815067,-69
2021-12-10 13:48:38.815085,-102
2021-12-10 13:48:38.815095,-116
2021-12-10 13:48:38.815103,-114
2021-12-10 13:48:38.815112,-112
2021-12-10 13:48:38.815120,-100
2021-12-10 13:48:38.815129,-97
2021-12-10 13:48:38.815137,-121
2021-12-10 13:48:38.815146,-157
2021-12-10 13:48:38.815154,-174
2021-12-10 13:48:38.815163,-212
2021-12-10 13:48:38.815171,-321
2021-12-10 13:48:38.815179,-286
2021-12-10 13:48:38.815188,166
2021-12-10 13:48:38.815196,994
2021-12-10 13:48:38.815204,1721
2021-12-10 13:48:38.815212,1516
2021-12-10 13:48:38.815221,350
2021-12-10 13:48:38.815229,-445
2021-12-10 13:48:38.815238,-331
2021-12-10 13:48:38.815246,-169
2021-12-10 13:48:38.815254,-293
2021-12-10 13:48:38.815263,-302
2021-12-10 13:48:38.815271,-209
2021-12-10 13:48:38.815279,-216
2021-12-10 13:48:38.815287,-236
2021-12-10 13:48:38.815296,-209
2021-12-10 13:48:38.815304,-212
2021-12-10 13:48:38.815312,-214
2021-12-10 13:48:38.815320,-190
2021-12-10 13:48:39.040528,-188
2021-12-10 13:48:39.040548,-190
2021-12-10 13:48:39.040558,-185
2021-12-10 13:48:39.040567,-190
2021-12-10 13:48:39.040575,-169
2021-12-10 13:48:39.040584,-133
2021-12-10 13:48:39.040592,-116
2021-12-10 13:48:39.040601,-123
2021-12-10 13:48:39.040609,-126
2021-12-10 13:48:39.040617,-97
2021-12-10 13:48:39.040626,-59
2021-12-10 13:48:39.040634,-42
2021-12-10 13:48:39.040643,-42
2021-12-10 13:48:39.040651,-64
2021-12-10 13:48:39.040659,-90
2021-12-10 13:48:39.040667,-83
2021-12-10 13:48:39.040675,-76
2021-12-10 13:48:39.040684,-83
2021-12-10 13:48:39.040692,-95
2021-12-10 13:48:39.040700,-109
2021-12-10 13:48:39.040709,-123
2021-12-10 13:48:39.040717,-143
2021-12-10 13:48:39.040725,-178
2021-12-10 13:48:39.040734,-207
2021-12-10 13:48:39.040742,-197
2021-12-10 13:48:39.040750,-181
2021-12-10 13:48:39.040758,-176
2021-12-10 13:48:39.040767,-164
2021-12-10 13:48:39.040775,-145
2021-12-10 13:48:39.040783,-131
2021-12-10 13:48:39.310572,-121
2021-12-10 13:48:39.310596,-114
2021-12-10 13:48:39.310605,-109
2021-12-10 13:48:39.310614,-107
2021-12-10 13:48:39.310623,-109
2021-12-10 13:48:39.310631,-119
2021-12-10 13:48:39.310639,-138
2021-12-10 13:48:39.310648,-152
2021-12-10 13:48:39.310656,-143
2021-12-10 13:48:39.310664,-128
2021-12-10 13:48:39.310673,-116
2021-12-10 13:48:39.310681,-104
2021-12-10 13:48:39.310689,-114
2021-12-10 13:48:39.310698,-133
2021-12-10 13:48:39.310706,-123
2021-12-10 13:48:39.310714,-104
2021-12-10 13:48:39.310723,-97
2021-12-10 13:48:39.310731,-90
2021-12-10 13:48:39.310739,-81
2021-12-10 13:48:39.310747,-76
2021-12-10 13:48:39.310755,-71
2021-12-10 13:48:39.310763,-64
2021-12-10 13:48:39.310771,-54
2021-12-10 13:48:39.310780,-35
2021-12-10 13:48:39.310788,-9
2021-12-10 13:48:39.310796,2
2021-12-10 13:48:39.310804,-4
2021-12-10 13:48:39.310812,0
2021-12-10 13:48:39.310821,0
2021-12-10 13:48:39.310829,-16
2021-12-10 13:48:39.580133,-23
2021-12-10 13:48:39.580152,-11
2021-12-10 13:48:39.580162,-7
2021-12-10 13:48:39.580171,-14
2021-12-10 13:48:39.580179,-14
2021-12-10 13:48:39.580187,-2
2021-12-10 13:48:39.580196,-11
2021-12-10 13:48:39.580204,-81
2021-12-10 13:48:39.580212,-193
2021-12-10 13:48:39.580220,-181
2021-12-10 13:48:39.580228,202
2021-12-10 13:48:39.580237,982
2021-12-10 13:48:39.580245,1752
2021-12-10 13:48:39.580253,1673
2021-12-10 13:48:39.580262,565
2021-12-10 13:48:39.580270,-336
2021-12-10 13:48:39.580278,-295
2021-12-10 13:48:39.580286,-102
2021-12-10 13:48:39.580295,-228
2021-12-10 13:48:39.580303,-274
2021-12-10 13:48:39.580311,-185
2021-12-10 13:48:39.580320,-185
2021-12-10 13:48:39.580328,-185
2021-12-10 13:48:39.580336,-152
2021-12-10 13:48:39.580345,-157
2021-12-10 13:48:39.580353,-159
2021-12-10 13:48:39.580361,-135
2021-12-10 13:48:39.580369,-131
2021-12-10 13:48:39.580377,-150
2021-12-10 13:48:39.580386,-164
2021-12-10 13:48:39.760471,-143
2021-12-10 13:48:39.760490,-102
2021-12-10 13:48:39.760499,-95
2021-12-10 13:48:39.760508,-104
2021-12-10 13:48:39.760517,-97
2021-12-10 13:48:39.760525,-100
2021-12-10 13:48:39.760534,-121
2021-12-10 13:48:39.760542,-104
2021-12-10 13:48:39.760551,-83
2021-12-10 13:48:39.760559,-107
2021-12-10 13:48:39.760568,-119
2021-12-10 13:48:39.760576,-107
2021-12-10 13:48:39.760584,-114
2021-12-10 13:48:39.760593,-119
2021-12-10 13:48:39.760601,-116
2021-12-10 13:48:39.760609,-123
2021-12-10 13:48:39.760618,-126
2021-12-10 13:48:39.760626,-128
2021-12-10 13:48:39.760635,-133
2021-12-10 13:48:39.760643,-126
2021-12-10 13:48:39.760651,-121
2021-12-10 13:48:39.760659,-133
2021-12-10 13:48:39.760667,-145
2021-12-10 13:48:39.760676,-152
2021-12-10 13:48:39.760684,-145
2021-12-10 13:48:39.760692,-126
2021-12-10 13:48:39.760701,-114
2021-12-10 13:48:39.760709,-114
2021-12-10 13:48:39.760717,-112
2021-12-10 13:48:39.760726,-107
2021-12-10 13:48:39.985560,-95
2021-12-10 13:48:39.985579,-85
2021-12-10 13:48:39.985589,-83
2021-12-10 13:48:39.985598,-83
2021-12-10 13:48:39.985606,-97
2021-12-10 13:48:39.985615,-116
2021-12-10 13:48:39.985623,-104
2021-12-10 13:48:39.985632,-76
2021-12-10 13:48:39.985640,-73
2021-12-10 13:48:39.985649,-78
2021-12-10 13:48:39.985657,-78
2021-12-10 13:48:39.985666,-90
2021-12-10 13:48:39.985674,-90
2021-12-10 13:48:39.985682,-71
2021-12-10 13:48:39.985691,-61
2021-12-10 13:48:39.985699,-71
2021-12-10 13:48:39.985707,-92
2021-12-10 13:48:39.985716,-97
2021-12-10 13:48:39.985724,-76
2021-12-10 13:48:39.985732,-54
2021-12-10 13:48:39.985740,-52
2021-12-10 13:48:39.985749,-42
2021-12-10 13:48:39.985757,-14
2021-12-10 13:48:39.985765,-9
2021-12-10 13:48:39.985774,-11
2021-12-10 13:48:39.985782,4
2021-12-10 13:48:39.985790,-2
2021-12-10 13:48:39.985799,-33
2021-12-10 13:48:39.985807,-40
2021-12-10 13:48:39.985815,-28
2021-12-10 13:48:40.165592,-16
2021-12-10 13:48:40.165613,-9
2021-12-10 13:48:40.165623,-7
2021-12-10 13:48:40.165631,-9
2021-12-10 13:48:40.165640,-30
2021-12-10 13:48:40.165648,-112
2021-12-10 13:48:40.165657,-233
2021-12-10 13:48:40.165665,-200
2021-12-10 13:48:40.165673,200
2021-12-10 13:48:40.165682,958
2021-12-10 13:48:40.165690,1683
2021-12-10 13:48:40.165701,1576
2021-12-10 13:48:40.165710,491
2021-12-10 13:48:40.165718,-360
2021-12-10 13:48:40.165727,-307
2021-12-10 13:48:40.165735,-138
2021-12-10 13:48:40.165744,-274
2021-12-10 13:48:40.165752,-319
2021-12-10 13:48:40.165760,-236
2021-12-10 13:48:40.165768,-228
2021-12-10 13:48:40.165777,-243
2021-12-10 13:48:40.165785,-219
2021-12-10 13:48:40.165793,-202
2021-12-10 13:48:40.165802,-181
2021-12-10 13:48:40.165810,-154
2021-12-10 13:48:40.165818,-138
2021-12-10 13:48:40.165826,-126
2021-12-10 13:48:40.165835,-123
2021-12-10 13:48:40.165843,-109
2021-12-10 13:48:40.165852,-71
2021-12-10 13:48:40.479837,-45
2021-12-10 13:48:40.479855,-30
2021-12-10 13:48:40.479864,-21
2021-12-10 13:48:40.479873,-35
2021-12-10 13:48:40.479881,-38
2021-12-10 13:48:40.479890,0
2021-12-10 13:48:40.479898,9
2021-12-10 13:48:40.479906,-14
2021-12-10 13:48:40.479914,-40
2021-12-10 13:48:40.479923,-92
2021-12-10 13:48:40.479931,-131
2021-12-10 13:48:40.479939,-116
2021-12-10 13:48:40.479948,-109
2021-12-10 13:48:40.479956,-119
2021-12-10 13:48:40.479964,-128
2021-12-10 13:48:40.479972,-157
2021-12-10 13:48:40.479981,-174
2021-12-10 13:48:40.479989,-159
2021-12-10 13:48:40.479997,-147
2021-12-10 13:48:40.480005,-147
2021-12-10 13:48:40.480014,-150
2021-12-10 13:48:40.480022,-157
2021-12-10 13:48:40.480030,-145
2021-12-10 13:48:40.480038,-121
2021-12-10 13:48:40.480047,-107
2021-12-10 13:48:40.480055,-95
2021-12-10 13:48:40.480063,-95
2021-12-10 13:48:40.480071,-102
2021-12-10 13:48:40.480079,-90
2021-12-10 13:48:40.480088,-71
2021-12-10 13:48:40.748780,-61
2021-12-10 13:48:40.748799,-54
2021-12-10 13:48:40.748808,-54
2021-12-10 13:48:40.748817,-61
2021-12-10 13:48:40.748825,-52
2021-12-10 13:48:40.748834,-33
2021-12-10 13:48:40.748842,-23
2021-12-10 13:48:40.748850,-28
2021-12-10 13:48:40.748859,-50
2021-12-10 13:48:40.748867,-78
2021-12-10 13:48:40.748876,-100
2021-12-10 13:48:40.748884,-109
2021-12-10 13:48:40.748892,-95
2021-12-10 13:48:40.748901,-88
2021-12-10 13:48:40.748909,-112
2021-12-10 13:48:40.748918,-119
2021-12-10 13:48:40.748926,-102
2021-12-10 13:48:40.748934,-112
2021-12-10 13:48:40.748943,-116
2021-12-10 13:48:40.748951,-102
2021-12-10 13:48:40.748959,-107
2021-12-10 13:48:40.748967,-109
2021-12-10 13:48:40.748975,-76
2021-12-10 13:48:40.748984,-26
2021-12-10 13:48:40.748992,-2
2021-12-10 13:48:40.749000,-16
2021-12-10 13:48:40.749009,-23
2021-12-10 13:48:40.749017,-16
2021-12-10 13:48:40.749025,-19
2021-12-10 13:48:40.749033,-19
2021-12-10 13:48:40.885546,-4
2021-12-10 13:48:40.885564,-4
2021-12-10 13:48:40.885574,-14
2021-12-10 13:48:40.885582,-7
2021-12-10 13:48:40.885591,9
2021-12-10 13:48:40.885599,21
2021-12-10 13:48:40.885608,0
2021-12-10 13:48:40.885616,-109
2021-12-10 13:48:40.885624,-219
2021-12-10 13:48:40.885633,-30
2021-12-10 13:48:40.885641,605
2021-12-10 13:48:40.885650,1473
2021-12-10 13:48:40.885658,1898
2021-12-10 13:48:40.885666,1187
2021-12-10 13:48:40.885675,-7
2021-12-10 13:48:40.885683,-383
2021-12-10 13:48:40.885692,-119
2021-12-10 13:48:40.885700,-88
2021-12-10 13:48:40.885708,-205
2021-12-10 13:48:40.885716,-171
2021-12-10 13:48:40.885725,-140
2021-12-10 13:48:40.885733,-154
2021-12-10 13:48:40.885741,-128
2021-12-10 13:48:40.885750,-95
2021-12-10 13:48:40.885758,-88
2021-12-10 13:48:40.885766,-76
2021-12-10 13:48:40.885775,-61
2021-12-10 13:48:40.885783,-54
2021-12-10 13:48:40.885791,-33
2021-12-10 13:48:40.885800,4
2021-12-10 13:48:41.110594,23
2021-12-10 13:48:41.110615,23
2021-12-10 13:48:41.110624,35
2021-12-10 13:48:41.110633,59
2021-12-10 13:48:41.110642,83
2021-12-10 13:48:41.110651,88
2021-12-10 13:48:41.110659,59
2021-12-10 13:48:41.110668,26
2021-12-10 13:48:41.110676,16
2021-12-10 13:48:41.110684,19
2021-12-10 13:48:41.110693,14
2021-12-10 13:48:41.110701,7
2021-12-10 13:48:41.110709,-16
2021-12-10 13:48:41.110718,-52
2021-12-10 13:48:41.110726,-66
2021-12-10 13:48:41.110734,-95
2021-12-10 13:48:41.110743,-135
2021-12-10 13:48:41.110751,-128
2021-12-10 13:48:41.110759,-119
2021-12-10 13:48:41.110768,-133
2021-12-10 13:48:41.110776,-140
2021-12-10 13:48:41.110784,-154
2021-12-10 13:48:41.110792,-157
2021-12-10 13:48:41.110801,-133
2021-12-10 13:48:41.110809,-119
2021-12-10 13:48:41.110818,-119
2021-12-10 13:48:41.110826,-107
2021-12-10 13:48:41.110834,-97
2021-12-10 13:48:41.110842,-88
2021-12-10 13:48:41.110851,-71
2021-12-10 13:48:41.335509,-64
2021-12-10 13:48:41.335529,-61
2021-12-10 13:48:41.335538,-54
2021-12-10 13:48:41.335547,-50
2021-12-10 13:48:41.335555,-38
2021-12-10 13:48:41.335564,-35
2021-12-10 13:48:41.335572,-61
2021-12-10 13:48:41.335581,-69
2021-12-10 13:48:41.335592,-47
2021-12-10 13:48:41.335600,-42
2021-12-10 13:48:41.335609,-45
2021-12-10 13:48:41.335617,-42
2021-12-10 13:48:41.335626,-64
2021-12-10 13:48:41.335634,-69
2021-12-10 13:48:41.335642,-47
2021-12-10 13:48:41.335651,-40
2021-12-10 13:48:41.335659,-38
2021-12-10 13:48:41.335668,-33
2021-12-10 13:48:41.335676,-33
2021-12-10 13:48:41.335685,-19
2021-12-10 13:48:41.335693,-4
2021-12-10 13:48:41.335701,-7
2021-12-10 13:48:41.335710,-14
2021-12-10 13:48:41.335718,-26
2021-12-10 13:48:41.335727,-35
2021-12-10 13:48:41.335735,-21
2021-12-10 13:48:41.335744,-2
2021-12-10 13:48:41.335752,7
2021-12-10 13:48:41.335761,33
2021-12-10 13:48:41.335769,54
2021-12-10 13:48:41.560166,42
2021-12-10 13:48:41.560186,47
2021-12-10 13:48:41.560196,64
2021-12-10 13:48:41.560204,42
2021-12-10 13:48:41.560213,23
2021-12-10 13:48:41.560221,16
2021-12-10 13:48:41.560229,2
2021-12-10 13:48:41.560237,14
2021-12-10 13:48:41.560246,33
2021-12-10 13:48:41.560254,30
2021-12-10 13:48:41.560263,23
2021-12-10 13:48:41.560271,-14
2021-12-10 13:48:41.560279,-135
2021-12-10 13:48:41.560288,-236
2021-12-10 13:48:41.560296,-40
2021-12-10 13:48:41.560304,600
2021-12-10 13:48:41.560313,1514
2021-12-10 13:48:41.560321,1991
2021-12-10 13:48:41.560329,1311
2021-12-10 13:48:41.560338,102
2021-12-10 13:48:41.560346,-324
2021-12-10 13:48:41.560354,-88
2021-12-10 13:48:41.560363,-88
2021-12-10 13:48:41.560371,-238
2021-12-10 13:48:41.560379,-190
2021-12-10 13:48:41.560387,-145
2021-12-10 13:48:41.560396,-183
2021-12-10 13:48:41.560404,-162
2021-12-10 13:48:41.560412,-123
2021-12-10 13:48:41.560420,-119
2021-12-10 13:48:41.830131,-95
2021-12-10 13:48:41.830148,-59
2021-12-10 13:48:41.830158,-59
2021-12-10 13:48:41.830166,-71
2021-12-10 13:48:41.830175,-83
2021-12-10 13:48:41.830183,-95
2021-12-10 13:48:41.830191,-73
2021-12-10 13:48:41.830200,-33
2021-12-10 13:48:41.830208,-7
2021-12-10 13:48:41.830216,4
2021-12-10 13:48:41.830225,4
2021-12-10 13:48:41.830233,14
2021-12-10 13:48:41.830242,47
2021-12-10 13:48:41.830250,69
2021-12-10 13:48:41.830259,73
2021-12-10 13:48:41.830267,71
2021-12-10 13:48:41.830275,59
2021-12-10 13:48:41.830284,47
2021-12-10 13:48:41.830292,50
2021-12-10 13:48:41.830300,57
2021-12-10 13:48:41.830309,54
2021-12-10 13:48:41.830317,45
2021-12-10 13:48:41.830325,33
2021-12-10 13:48:41.830333,35
2021-12-10 13:48:41.830342,50
2021-12-10 13:48:41.830350,59
2021-12-10 13:48:41.830358,54
2021-12-10 13:48:41.830366,28
2021-12-10 13:48:41.830375,9
2021-12-10 13:48:41.830383,33
2021-12-10 13:48:42.010222,57
2021-12-10 13:48:42.010243,64
2021-12-10 13:48:42.010253,76
2021-12-10 13:48:42.010261,73
2021-12-10 13:48:42.010270,57
2021-12-10 13:48:42.010278,69
2021-12-10 13:48:42.010287,97
2021-12-10 13:48:42.010295,112
2021-12-10 13:48:42.010303,119
2021-12-10 13:48:42.010311,114
2021-12-10 13:48:42.010323,104
2021-12-10 13:48:42.010331,114
2021-12-10 13:48:42.010339,138
2021-12-10 13:48:42.010348,154
2021-12-10 13:48:42.010356,157
2021-12-10 13:48:42.010364,135
2021-12-10 13:48:42.010373,114
2021-12-10 13:48:42.010381,131
2021-12-10 13:48:42.010389,157
2021-12-10 13:48:42.010398,159
2021-12-10 13:48:42.010406,162
2021-12-10 13:48:42.010414,157
2021-12-10 13:48:42.010422,152
2021-12-10 13:48:42.010431,171
2021-12-10 13:48:42.010439,190
2021-12-10 13:48:42.010447,197
2021-12-10 13:48:42.010455,188
2021-12-10 13:48:42.010464,147
2021-12-10 13:48:42.010472,119
2021-12-10 13:48:42.010481,123
2021-12-10 13:48:42.280544,128
2021-12-10 13:48:42.280562,140
2021-12-10 13:48:42.280572,145
2021-12-10 13:48:42.280580,112
2021-12-10 13:48:42.280589,88
2021-12-10 13:48:42.280597,97
2021-12-10 13:48:42.280606,114
2021-12-10 13:48:42.280614,140
2021-12-10 13:48:42.280623,157
2021-12-10 13:48:42.280631,126
2021-12-10 13:48:42.280639,112
2021-12-10 13:48:42.280648,140
2021-12-10 13:48:42.280656,143
2021-12-10 13:48:42.280664,128
2021-12-10 13:48:42.280672,121
2021-12-10 13:48:42.280681,109
2021-12-10 13:48:42.280689,121
2021-12-10 13:48:42.280697,157
2021-12-10 13:48:42.280705,169
2021-12-10 13:48:42.280714,166
2021-12-10 13:48:42.280722,147
2021-12-10 13:48:42.280730,50
2021-12-10 13:48:42.280739,-42
2021-12-10 13:48:42.280747,150
2021-12-10 13:48:42.280755,774
2021-12-10 13:48:42.280763,1626
2021-12-10 13:48:42.280772,2022
2021-12-10 13:48:42.280780,1311
2021-12-10 13:48:42.280789,147
2021-12-10 13:48:42.280797,-209
2021-12-10 13:48:42.505502,52
2021-12-10 13:48:42.505519,47
2021-12-10 13:48:42.505528,-109
2021-12-10 13:48:42.505537,-69
2021-12-10 13:48:42.505545,-11
2021-12-10 13:48:42.505554,-30
2021-12-10 13:48:42.505562,-16
2021-12-10 13:48:42.505570,14
2021-12-10 13:48:42.505579,-7
2021-12-10 13:48:42.505587,-26
2021-12-10 13:48:42.505595,7
2021-12-10 13:48:42.505604,40
2021-12-10 13:48:42.505612,57
2021-12-10 13:48:42.505620,71
2021-12-10 13:48:42.505629,64
2021-12-10 13:48:42.505637,57
2021-12-10 13:48:42.505645,85
2021-12-10 13:48:42.505653,119
2021-12-10 13:48:42.505662,140
2021-12-10 13:48:42.505670,154
2021-12-10 13:48:42.505678,162
2021-12-10 13:48:42.505686,162
2021-12-10 13:48:42.505695,181
2021-12-10 13:48:42.505708,205
2021-12-10 13:48:42.505716,205
2021-12-10 13:48:42.505725,188
2021-12-10 13:48:42.505733,164
2021-12-10 13:48:42.505741,152
2021-12-10 13:48:42.505750,152
2021-12-10 13:48:42.505758,157
2021-12-10 13:48:42.774157,164
2021-12-10 13:48:42.774176,164
2021-12-10 13:48:42.774186,131
2021-12-10 13:48:42.774194,61
2021-12-10 13:48:42.774203,35
2021-12-10 13:48:42.774211,73
2021-12-10 13:48:42.774219,83
2021-12-10 13:48:42.774228,52
2021-12-10 13:48:42.774236,33
2021-12-10 13:48:42.774244,47
2021-12-10 13:48:42.774252,66
2021-12-10 13:48:42.774261,78
2021-12-10 13:48:42.774269,85
2021-12-10 13:48:42.774277,71
2021-12-10 13:48:42.774285,52
2021-12-10 13:48:42.774294,61
2021-12-10 13:48:42.774302,81
2021-12-10 13:48:42.774310,90
2021-12-10 13:48:42.774319,95
2021-12-10 13:48:42.774327,92
2021-12-10 13:48:42.774335,88
2021-12-10 13:48:42.774344,92
2021-12-10 13:48:42.774352,109
2021-12-10 13:48:42.774360,119
2021-12-10 13:48:42.774369,121
2021-12-10 13:48:42.774377,116
2021-12-10 13:48:42.774385,114
2021-12-10 13:48:42.774393,112
2021-12-10 13:48:42.774401,116
2021-12-10 13:48:42.774409,131
2021-12-10 13:48:42.955426,138
2021-12-10 13:48:42.955443,128
2021-12-10 13:48:42.955452,104
2021-12-10 13:48:42.955461,90
2021-12-10 13:48:42.955469,95
2021-12-10 13:48:42.955478,81
2021-12-10 13:48:42.955486,40
2021-12-10 13:48:42.955495,16
2021-12-10 13:48:42.955503,23
2021-12-10 13:48:42.955511,35
2021-12-10 13:48:42.955520,40
2021-12-10 13:48:42.955528,50
2021-12-10 13:48:42.955536,40
2021-12-10 13:48:42.955545,9
2021-12-10 13:48:42.955553,9
2021-12-10 13:48:42.955561,28
2021-12-10 13:48:42.955569,35
2021-12-10 13:48:42.955578,59
2021-12-10 13:48:42.955586,88
2021-12-10 13:48:42.955594,90
2021-12-10 13:48:42.955602,81
2021-12-10 13:48:42.955610,78
2021-12-10 13:48:42.955619,57
2021-12-10 13:48:42.955627,23
2021-12-10 13:48:42.955635,9
2021-12-10 13:48:42.955644,-4
2021-12-10 13:48:42.955652,-16
2021-12-10 13:48:42.955660,-16
2021-12-10 13:48:42.955669,-9
2021-12-10 13:48:42.955677,-4
2021-12-10 13:48:43.180597,-11
2021-12-10 13:48:43.180617,-50
2021-12-10 13:48:43.180627,-143
2021-12-10 13:48:43.180635,-154
2021-12-10 13:48:43.180643,178
2021-12-10 13:48:43.180652,898
2021-12-10 13:48:43.180660,1599
2021-12-10 13:48:43.180668,1526
2021-12-10 13:48:43.180677,519
2021-12-10 13:48:43.180685,-329
2021-12-10 13:48:43.180693,-305
2021-12-10 13:48:43.180701,-104
2021-12-10 13:48:43.180710,-216
2021-12-10 13:48:43.180718,-267
2021-12-10 13:48:43.180726,-176
2021-12-10 13:48:43.180734,-174
2021-12-10 13:48:43.180742,-188
2021-12-10 13:48:43.180751,-150
2021-12-10 13:48:43.180759,-143
2021-12-10 13:48:43.180767,-140
2021-12-10 13:48:43.180775,-112
2021-12-10 13:48:43.180784,-83
2021-12-10 13:48:43.180792,-73
2021-12-10 13:48:43.180800,-59
2021-12-10 13:48:43.180808,-40
2021-12-10 13:48:43.180816,-16
2021-12-10 13:48:43.180825,2
2021-12-10 13:48:43.180833,14
2021-12-10 13:48:43.180841,33
2021-12-10 13:48:43.180850,50
2021-12-10 13:48:43.450145,59
2021-12-10 13:48:43.450164,83
2021-12-10 13:48:43.450174,100
2021-12-10 13:48:43.450183,90
2021-12-10 13:48:43.450191,78
2021-12-10 13:48:43.450199,59
2021-12-10 13:48:43.450208,33
2021-12-10 13:48:43.450217,30
2021-12-10 13:48:43.450225,26
2021-12-10 13:48:43.450233,-9
2021-12-10 13:48:43.450242,-42
2021-12-10 13:48:43.450250,-57
2021-12-10 13:48:43.450258,-64
2021-12-10 13:48:43.450267,-54
2021-12-10 13:48:43.450275,-47
2021-12-10 13:48:43.450283,-54
2021-12-10 13:48:43.450291,-61
2021-12-10 13:48:43.450300,-59
2021-12-10 13:48:43.450308,-52
2021-12-10 13:48:43.450316,-35
2021-12-10 13:48:43.450325,-26
2021-12-10 13:48:43.450333,-30
2021-12-10 13:48:43.450341,-30
2021-12-10 13:48:43.450350,-28
2021-12-10 13:48:43.450358,-30
2021-12-10 13:48:43.450366,-21
2021-12-10 13:48:43.450374,-16
2021-12-10 13:48:43.450383,-19
2021-12-10 13:48:43.450391,-16
2021-12-10 13:48:43.450399,-21
2021-12-10 13:48:43.630163,-38
2021-12-10 13:48:43.630182,-42
2021-12-10 13:48:43.630192,-38
2021-12-10 13:48:43.630201,-45
2021-12-10 13:48:43.630209,-69
2021-12-10 13:48:43.630217,-88
2021-12-10 13:48:43.630226,-81
2021-12-10 13:48:43.630234,-64
2021-12-10 13:48:43.630242,-64
2021-12-10 13:48:43.630251,-73
2021-12-10 13:48:43.630259,-69
2021-12-10 13:48:43.630267,-71
2021-12-10 13:48:43.630275,-85
2021-12-10 13:48:43.630284,-97
2021-12-10 13:48:43.630292,-128
2021-12-10 13:48:43.630300,-154
2021-12-10 13:48:43.630309,-157
2021-12-10 13:48:43.630317,-169
2021-12-10 13:48:43.630326,-157
2021-12-10 13:48:43.630334,-135
2021-12-10 13:48:43.630342,-147
2021-12-10 13:48:43.630350,-171
2021-12-10 13:48:43.630359,-181
2021-12-10 13:48:43.630367,-193
2021-12-10 13:48:43.630375,-193
2021-12-10 13:48:43.630383,-174
2021-12-10 13:48:43.630392,-150
2021-12-10 13:48:43.630400,-135
2021-12-10 13:48:43.630409,-131
2021-12-10 13:48:43.630417,-128
2021-12-10 13:48:43.855514,-119
2021-12-10 13:48:43.855534,-121
2021-12-10 13:48:43.855543,-138
2021-12-10 13:48:43.855552,-162
2021-12-10 13:48:43.855560,-193
2021-12-10 13:48:43.855569,-188
2021-12-10 13:48:43.855577,-157
2021-12-10 13:48:43.855585,-150
2021-12-10 13:48:43.855593,-157
2021-12-10 13:48:43.855602,-169
2021-12-10 13:48:43.855610,-226
2021-12-10 13:48:43.855619,-326
2021-12-10 13:48:43.855627,-338
2021-12-10 13:48:43.855635,-47
2021-12-10 13:48:43.855644,639
2021-12-10 13:48:43.855652,1418
2021-12-10 13:48:43.855660,1502
2021-12-10 13:48:43.855669,553
2021-12-10 13:48:43.855677,-367
2021-12-10 13:48:43.855685,-395
2021-12-10 13:48:43.855694,-176
2021-12-10 13:48:43.855702,-257
2021-12-10 13:48:43.855710,-302
2021-12-10 13:48:43.855719,-216
2021-12-10 13:48:43.855727,-202
2021-12-10 13:48:43.855735,-209
2021-12-10 13:48:43.855743,-176
2021-12-10 13:48:43.855752,-174
2021-12-10 13:48:43.855760,-181
2021-12-10 13:48:43.855772,-143
2021-12-10 13:48:44.125663,-109
2021-12-10 13:48:44.125684,-104
2021-12-10 13:48:44.125693,-100
2021-12-10 13:48:44.125702,-112
2021-12-10 13:48:44.125710,-114
2021-12-10 13:48:44.125719,-76
2021-12-10 13:48:44.125727,-45
2021-12-10 13:48:44.125735,-33
2021-12-10 13:48:44.125743,-26
2021-12-10 13:48:44.125752,-45
2021-12-10 13:48:44.125760,-45
2021-12-10 13:48:44.125768,-9
2021-12-10 13:48:44.125776,4
2021-12-10 13:48:44.125785,-7
2021-12-10 13:48:44.125793,-14
2021-12-10 13:48:44.125801,-38
2021-12-10 13:48:44.125810,-71
2021-12-10 13:48:44.125818,-71
2021-12-10 13:48:44.125826,-71
2021-12-10 13:48:44.125835,-104
2021-12-10 13:48:44.125843,-140
2021-12-10 13:48:44.125851,-145
2021-12-10 13:48:44.125859,-138
2021-12-10 13:48:44.125868,-126
2021-12-10 13:48:44.125876,-112
2021-12-10 13:48:44.125884,-100
2021-12-10 13:48:44.125892,-107
2021-12-10 13:48:44.125901,-121
2021-12-10 13:48:44.125909,-112
2021-12-10 13:48:44.125917,-88
2021-12-10 13:48:44.350552,-76
2021-12-10 13:48:44.350572,-83
2021-12-10 13:48:44.350581,-107
2021-12-10 13:48:44.350590,-121
2021-12-10 13:48:44.350599,-107
2021-12-10 13:48:44.350607,-95
2021-12-10 13:48:44.350616,-95
2021-12-10 13:48:44.350624,-95
2021-12-10 13:48:44.350632,-112
2021-12-10 13:48:44.350641,-138
2021-12-10 13:48:44.350649,-140
2021-12-10 13:48:44.350658,-121
2021-12-10 13:48:44.350666,-112
2021-12-10 13:48:44.350674,-123
2021-12-10 13:48:44.350683,-154
2021-12-10 13:48:44.350691,-166
2021-12-10 13:48:44.350700,-152
2021-12-10 13:48:44.350708,-157
2021-12-10 13:48:44.350716,-181
2021-12-10 13:48:44.350725,-176
2021-12-10 13:48:44.350733,-169
2021-12-10 13:48:44.350741,-190
2021-12-10 13:48:44.350750,-200
2021-12-10 13:48:44.350758,-190
2021-12-10 13:48:44.350766,-193
2021-12-10 13:48:44.350775,-212
2021-12-10 13:48:44.350783,-219
2021-12-10 13:48:44.350791,-219
2021-12-10 13:48:44.350800,-209
2021-12-10 13:48:44.350808,-183
2021-12-10 13:48:44.619605,-150
2021-12-10 13:48:44.619625,-135
2021-12-10 13:48:44.619635,-152
2021-12-10 13:48:44.619642,-157
2021-12-10 13:48:44.619650,-140
2021-12-10 13:48:44.619659,-150
2021-12-10 13:48:44.619667,-169
2021-12-10 13:48:44.619675,-178
2021-12-10 13:48:44.619683,-200
2021-12-10 13:48:44.619690,-207
2021-12-10 13:48:44.619698,-185
2021-12-10 13:48:44.619706,-169
2021-12-10 13:48:44.619714,-164
2021-12-10 13:48:44.619722,-181
2021-12-10 13:48:44.619731,-269
2021-12-10 13:48:44.619739,-379
2021-12-10 13:48:44.619747,-276
2021-12-10 13:48:44.619755,231
2021-12-10 13:48:44.619764,1061
2021-12-10 13:48:44.619772,1685
2021-12-10 13:48:44.619780,1294
2021-12-10 13:48:44.619788,102
2021-12-10 13:48:44.619797,-505
2021-12-10 13:48:44.619805,-283
2021-12-10 13:48:44.619813,-183
2021-12-10 13:48:44.619821,-331
2021-12-10 13:48:44.619830,-336
2021-12-10 13:48:44.619838,-271
2021-12-10 13:48:44.619846,-274
2021-12-10 13:48:44.619854,-262
2021-12-10 13:48:44.978668,-231
2021-12-10 13:48:44.978687,-228
2021-12-10 13:48:44.978697,-221
2021-12-10 13:48:44.978705,-197
2021-12-10 13:48:44.978714,-174
2021-12-10 13:48:44.978723,-150
2021-12-10 13:48:44.978731,-145
2021-12-10 13:48:44.978740,-157
2021-12-10 13:48:44.978748,-147
2021-12-10 13:48:44.978756,-116
2021-12-10 13:48:44.978765,-95
2021-12-10 13:48:44.978773,-73
2021-12-10 13:48:44.978781,-64
2021-12-10 13:48:44.978790,-69
2021-12-10 13:48:44.978798,-54
2021-12-10 13:48:44.978806,-40
2021-12-10 13:48:44.978815,-42
2021-12-10 13:48:44.978823,-42
2021-12-10 13:48:44.978832,-57
2021-12-10 13:48:44.978840,-81
2021-12-10 13:48:44.978848,-92
2021-12-10 13:48:44.978857,-116
2021-12-10 13:48:44.978865,-145
2021-12-10 13:48:44.978874,-147
2021-12-10 13:48:44.978882,-143
2021-12-10 13:48:44.978890,-152
2021-12-10 13:48:44.978898,-154
2021-12-10 13:48:44.978907,-152
2021-12-10 13:48:44.978915,-147
2021-12-10 13:48:44.978923,-135
2021-12-10 13:48:45.070057,-133
2021-12-10 13:48:45.070077,-133
2021-12-10 13:48:45.070086,-123
2021-12-10 13:48:45.070095,-121
2021-12-10 13:48:45.070104,-116
2021-12-10 13:48:45.070112,-104
2021-12-10 13:48:45.070120,-126
2021-12-10 13:48:45.070129,-154
2021-12-10 13:48:45.070137,-143
2021-12-10 13:48:45.070146,-131
2021-12-10 13:48:45.070154,-135
2021-12-10 13:48:45.070163,-140
2021-12-10 13:48:45.070171,-162
2021-12-10 13:48:45.070179,-169
2021-12-10 13:48:45.070188,-150
2021-12-10 13:48:45.070196,-145
2021-12-10 13:48:45.070204,-150
2021-12-10 13:48:45.070213,-157
2021-12-10 13:48:45.070221,-181
2021-12-10 13:48:45.070229,-188
2021-12-10 13:48:45.070238,-166
2021-12-10 13:48:45.070246,-164
2021-12-10 13:48:45.070255,-164
2021-12-10 13:48:45.070263,-164
2021-12-10 13:48:45.070271,-181
2021-12-10 13:48:45.070280,-176
2021-12-10 13:48:45.070288,-162
2021-12-10 13:48:45.070296,-174
2021-12-10 13:48:45.070305,-188
2021-12-10 13:48:45.070313,-195
2021-12-10 13:48:45.294883,-228
2021-12-10 13:48:45.294901,-252
2021-12-10 13:48:45.294910,-221
2021-12-10 13:48:45.294919,-193
2021-12-10 13:48:45.294927,-209
2021-12-10 13:48:45.294936,-231
2021-12-10 13:48:45.294944,-240
2021-12-10 13:48:45.294952,-245
2021-12-10 13:48:45.294961,-245
2021-12-10 13:48:45.294969,-240
2021-12-10 13:48:45.294978,-238
2021-12-10 13:48:45.294986,-255
2021-12-10 13:48:45.294995,-269
2021-12-10 13:48:45.295003,-247
2021-12-10 13:48:45.295011,-231
2021-12-10 13:48:45.295020,-255
2021-12-10 13:48:45.295028,-333
2021-12-10 13:48:45.295037,-414
2021-12-10 13:48:45.295045,-245
2021-12-10 13:48:45.295053,371
2021-12-10 13:48:45.295062,1232
2021-12-10 13:48:45.295070,1676
2021-12-10 13:48:45.295078,1037
2021-12-10 13:48:45.295087,-119
2021-12-10 13:48:45.295095,-522
2021-12-10 13:48:45.295103,-281
2021-12-10 13:48:45.295111,-264
2021-12-10 13:48:45.295120,-381
2021-12-10 13:48:45.295128,-321
2021-12-10 13:48:45.295136,-274
2021-12-10 13:48:45.475526,-293
2021-12-10 13:48:45.475545,-264
2021-12-10 13:48:45.475555,-228
2021-12-10 13:48:45.475564,-228
2021-12-10 13:48:45.475572,-233
2021-12-10 13:48:45.475581,-228
2021-12-10 13:48:45.475589,-205
2021-12-10 13:48:45.475597,-164
2021-12-10 13:48:45.475605,-143
2021-12-10 13:48:45.475614,-138
2021-12-10 13:48:45.475622,-140
2021-12-10 13:48:45.475630,-140
2021-12-10 13:48:45.475638,-107
2021-12-10 13:48:45.475647,-61
2021-12-10 13:48:45.475655,-42
2021-12-10 13:48:45.475663,-33
2021-12-10 13:48:45.475671,-26
2021-12-10 13:48:45.475680,-26
2021-12-10 13:48:45.475688,-14
2021-12-10 13:48:45.475696,-2
2021-12-10 13:48:45.475705,-4
2021-12-10 13:48:45.475713,-21
2021-12-10 13:48:45.475721,-50
2021-12-10 13:48:45.475730,-66
2021-12-10 13:48:45.475738,-57
2021-12-10 13:48:45.475746,-47
2021-12-10 13:48:45.475754,-66
2021-12-10 13:48:45.475762,-102
2021-12-10 13:48:45.475777,-123
2021-12-10 13:48:45.475785,-119
2021-12-10 13:48:45.700182,-109
2021-12-10 13:48:45.700202,-102
2021-12-10 13:48:45.700211,-102
2021-12-10 13:48:45.700220,-121
2021-12-10 13:48:45.700228,-145
2021-12-10 13:48:45.700236,-162
2021-12-10 13:48:45.700245,-176
2021-12-10 13:48:45.700253,-176
2021-12-10 13:48:45.700261,-166
2021-12-10 13:48:45.700270,-181
2021-12-10 13:48:45.700278,-200
2021-12-10 13:48:45.700286,-183
2021-12-10 13:48:45.700294,-157
2021-12-10 13:48:45.700303,-150
2021-12-10 13:48:45.700311,-150
2021-12-10 13:48:45.700319,-169
2021-12-10 13:48:45.700328,-185
2021-12-10 13:48:45.700336,-169
2021-12-10 13:48:45.700344,-154
2021-12-10 13:48:45.700352,-147
2021-12-10 13:48:45.700360,-135
2021-12-10 13:48:45.700369,-140
2021-12-10 13:48:45.700377,-157
2021-12-10 13:48:45.700385,-145
2021-12-10 13:48:45.700393,-123
2021-12-10 13:48:45.700402,-109
2021-12-10 13:48:45.700410,-104
2021-12-10 13:48:45.700418,-114
2021-12-10 13:48:45.700426,-121
2021-12-10 13:48:45.700435,-121
2021-12-10 13:48:45.970237,-133
2021-12-10 13:48:45.970258,-123
2021-12-10 13:48:45.970268,-88
2021-12-10 13:48:45.970276,-107
2021-12-10 13:48:45.970285,-145
2021-12-10 13:48:45.970294,-131
2021-12-10 13:48:45.970302,-135
2021-12-10 13:48:45.970311,-174
2021-12-10 13:48:45.970319,-202
2021-12-10 13:48:45.970328,-233
2021-12-10 13:48:45.970336,-247
2021-12-10 13:48:45.970345,-224
2021-12-10 13:48:45.970353,-207
2021-12-10 13:48:45.970362,-197
2021-12-10 13:48:45.970370,-197
2021-12-10 13:48:45.970379,-243
2021-12-10 13:48:45.970388,-350
2021-12-10 13:48:45.970396,-386
2021-12-10 13:48:45.970405,-97
2021-12-10 13:48:45.970413,619
2021-12-10 13:48:45.970421,1492
2021-12-10 13:48:45.970430,1731
2021-12-10 13:48:45.970438,825
2021-12-10 13:48:45.970446,-274
2021-12-10 13:48:45.970455,-443
2021-12-10 13:48:45.970463,-174
2021-12-10 13:48:45.970472,-221
2021-12-10 13:48:45.970480,-321
2021-12-10 13:48:45.970489,-243
2021-12-10 13:48:45.970497,-202
2021-12-10 13:48:46.240629,-216
2021-12-10 13:48:46.240650,-200
2021-12-10 13:48:46.240660,-209
2021-12-10 13:48:46.240668,-226
2021-12-10 13:48:46.240677,-188
2021-12-10 13:48:46.240685,-150
2021-12-10 13:48:46.240694,-145
2021-12-10 13:48:46.240702,-133
2021-12-10 13:48:46.240711,-128
2021-12-10 13:48:46.240719,-138
2021-12-10 13:48:46.240727,-126
2021-12-10 13:48:46.240736,-121
2021-12-10 13:48:46.240744,-131
2021-12-10 13:48:46.240752,-107
2021-12-10 13:48:46.240761,-97
2021-12-10 13:48:46.240769,-107
2021-12-10 13:48:46.240777,-78
2021-12-10 13:48:46.240785,-47
2021-12-10 13:48:46.240794,-45
2021-12-10 13:48:46.240802,-47
2021-12-10 13:48:46.240811,-59
2021-12-10 13:48:46.240819,-81
2021-12-10 13:48:46.240827,-88
2021-12-10 13:48:46.240836,-83
2021-12-10 13:48:46.240844,-85
2021-12-10 13:48:46.240852,-95
2021-12-10 13:48:46.240860,-107
2021-12-10 13:48:46.240869,-119
2021-12-10 13:48:46.240877,-123
2021-12-10 13:48:46.240885,-116
2021-12-10 13:48:46.420519,-102
2021-12-10 13:48:46.420537,-95
2021-12-10 13:48:46.420547,-104
2021-12-10 13:48:46.420555,-119
2021-12-10 13:48:46.420564,-128
2021-12-10 13:48:46.420573,-123
2021-12-10 13:48:46.420581,-100
2021-12-10 13:48:46.420589,-85
2021-12-10 13:48:46.420598,-85
2021-12-10 13:48:46.420606,-85
2021-12-10 13:48:46.420615,-78
2021-12-10 13:48:46.420623,-59
2021-12-10 13:48:46.420631,-40
2021-12-10 13:48:46.420640,-57
2021-12-10 13:48:46.420648,-97
2021-12-10 13:48:46.420656,-97
2021-12-10 13:48:46.420665,-66
2021-12-10 13:48:46.420673,-57
2021-12-10 13:48:46.420681,-71
2021-12-10 13:48:46.420690,-85
2021-12-10 13:48:46.420698,-100
2021-12-10 13:48:46.420707,-100
2021-12-10 13:48:46.420715,-88
2021-12-10 13:48:46.420723,-73
2021-12-10 13:48:46.420731,-66
2021-12-10 13:48:46.420740,-76
2021-12-10 13:48:46.420748,-102
2021-12-10 13:48:46.420756,-119
2021-12-10 13:48:46.420765,-97
2021-12-10 13:48:46.420773,-57
2021-12-10 13:48:46.645203,-35
2021-12-10 13:48:46.645222,-47
2021-12-10 13:48:46.645231,-59
2021-12-10 13:48:46.645240,-54
2021-12-10 13:48:46.645248,-59
2021-12-10 13:48:46.645257,-78
2021-12-10 13:48:46.645265,-114
2021-12-10 13:48:46.645274,-154
2021-12-10 13:48:46.645282,-162
2021-12-10 13:48:46.645291,-143
2021-12-10 13:48:46.645299,-131
2021-12-10 13:48:46.645307,-128
2021-12-10 13:48:46.645316,-140
2021-12-10 13:48:46.645324,-205
2021-12-10 13:48:46.645332,-319
2021-12-10 13:48:46.645341,-324
2021-12-10 13:48:46.645349,21
2021-12-10 13:48:46.645357,770
2021-12-10 13:48:46.645366,1580
2021-12-10 13:48:46.645374,1576
2021-12-10 13:48:46.645382,460
2021-12-10 13:48:46.645391,-510
2021-12-10 13:48:46.645399,-491
2021-12-10 13:48:46.645407,-257
2021-12-10 13:48:46.645416,-345
2021-12-10 13:48:46.645424,-395
2021-12-10 13:48:46.645432,-317
2021-12-10 13:48:46.645440,-312
2021-12-10 13:48:46.645449,-319
2021-12-10 13:48:46.645457,-276
2021-12-10 13:48:46.913862,-267
2021-12-10 13:48:46.913881,-264
2021-12-10 13:48:46.913891,-233
2021-12-10 13:48:46.913899,-214
2021-12-10 13:48:46.913908,-202
2021-12-10 13:48:46.913916,-176
2021-12-10 13:48:46.913925,-178
2021-12-10 13:48:46.913933,-190
2021-12-10 13:48:46.913941,-188
2021-12-10 13:48:46.913949,-169
2021-12-10 13:48:46.913958,-135
2021-12-10 13:48:46.913966,-112
2021-12-10 13:48:46.913974,-116
2021-12-10 13:48:46.913983,-107
2021-12-10 13:48:46.913991,-73
2021-12-10 13:48:46.914000,-64
2021-12-10 13:48:46.914008,-66
2021-12-10 13:48:46.914016,-57
2021-12-10 13:48:46.914024,-69
2021-12-10 13:48:46.914033,-85
2021-12-10 13:48:46.914041,-88
2021-12-10 13:48:46.914049,-97
2021-12-10 13:48:46.914057,-107
2021-12-10 13:48:46.914066,-112
2021-12-10 13:48:46.914074,-121
2021-12-10 13:48:46.914082,-123
2021-12-10 13:48:46.914091,-119
2021-12-10 13:48:46.914099,-121
2021-12-10 13:48:46.914107,-119
2021-12-10 13:48:46.914116,-109
2021-12-10 13:48:47.095321,-107
2021-12-10 13:48:47.095342,-97
2021-12-10 13:48:47.095352,-78
2021-12-10 13:48:47.095360,-71
2021-12-10 13:48:47.095369,-71
2021-12-10 13:48:47.095377,-78
2021-12-10 13:48:47.095386,-90
2021-12-10 13:48:47.095394,-78
2021-12-10 13:48:47.095402,-52
2021-12-10 13:48:47.095411,-64
2021-12-10 13:48:47.095419,-97
2021-12-10 13:48:47.095428,-119
2021-12-10 13:48:47.095436,-123
2021-12-10 13:48:47.095444,-109
2021-12-10 13:48:47.095453,-92
2021-12-10 13:48:47.095461,-92
2021-12-10 13:48:47.095470,-90
2021-12-10 13:48:47.095478,-88
2021-12-10 13:48:47.095487,-90
2021-12-10 13:48:47.095495,-76
2021-12-10 13:48:47.095504,-66
2021-12-10 13:48:47.095512,-78
2021-12-10 13:48:47.095520,-114
2021-12-10 13:48:47.095529,-143
2021-12-10 13:48:47.095539,-131
2021-12-10 13:48:47.095551,-109
2021-12-10 13:48:47.095562,-107
2021-12-10 13:48:47.095574,-102
2021-12-10 13:48:47.095587,-95
2021-12-10 13:48:47.095600,-90
2021-12-10 13:48:47.320600,-73
2021-12-10 13:48:47.320619,-33
2021-12-10 13:48:47.320629,-14
2021-12-10 13:48:47.320638,-30
2021-12-10 13:48:47.320646,-52
2021-12-10 13:48:47.320655,-83
2021-12-10 13:48:47.320663,-112
2021-12-10 13:48:47.320672,-107
2021-12-10 13:48:47.320680,-100
2021-12-10 13:48:47.320689,-104
2021-12-10 13:48:47.320697,-119
2021-12-10 13:48:47.320705,-147
2021-12-10 13:48:47.320713,-166
2021-12-10 13:48:47.320722,-159
2021-12-10 13:48:47.320730,-166
2021-12-10 13:48:47.320739,-257
2021-12-10 13:48:47.320747,-371
2021-12-10 13:48:47.320755,-214
2021-12-10 13:48:47.320764,417
2021-12-10 13:48:47.320772,1354
2021-12-10 13:48:47.320780,1902
2021-12-10 13:48:47.320789,1297
2021-12-10 13:48:47.320797,57
2021-12-10 13:48:47.320808,-450
2021-12-10 13:48:47.320817,-193
2021-12-10 13:48:47.320825,-133
2021-12-10 13:48:47.320833,-302
2021-12-10 13:48:47.320841,-290
2021-12-10 13:48:47.320850,-243
2021-12-10 13:48:47.320858,-276
2021-12-10 13:48:47.545186,-252
2021-12-10 13:48:47.545204,-207
2021-12-10 13:48:47.545214,-205
2021-12-10 13:48:47.545222,-216
2021-12-10 13:48:47.545231,-224
2021-12-10 13:48:47.545239,-219
2021-12-10 13:48:47.545247,-190
2021-12-10 13:48:47.545256,-157
2021-12-10 13:48:47.545264,-135
2021-12-10 13:48:47.545272,-135
2021-12-10 13:48:47.545280,-145
2021-12-10 13:48:47.545289,-123
2021-12-10 13:48:47.545297,-76
2021-12-10 13:48:47.545305,-50
2021-12-10 13:48:47.545313,-57
2021-12-10 13:48:47.545321,-64
2021-12-10 13:48:47.545330,-45
2021-12-10 13:48:47.545338,-21
2021-12-10 13:48:47.545346,-11
2021-12-10 13:48:47.545354,-9
2021-12-10 13:48:47.545363,-14
2021-12-10 13:48:47.545371,-33
2021-12-10 13:48:47.545379,-50
2021-12-10 13:48:47.545387,-50
2021-12-10 13:48:47.545395,-52
2021-12-10 13:48:47.545403,-61
2021-12-10 13:48:47.545412,-73
2021-12-10 13:48:47.545420,-112
2021-12-10 13:48:47.545428,-154
2021-12-10 13:48:47.545436,-145
2021-12-10 13:48:47.859577,-116
2021-12-10 13:48:47.859597,-109
2021-12-10 13:48:47.859606,-116
2021-12-10 13:48:47.859615,-138
2021-12-10 13:48:47.859623,-150
2021-12-10 13:48:47.859631,-123
2021-12-10 13:48:47.859640,-102
2021-12-10 13:48:47.859648,-95
2021-12-10 13:48:47.859656,-97
2021-12-10 13:48:47.859665,-116
2021-12-10 13:48:47.859673,-128
2021-12-10 13:48:47.859681,-104
2021-12-10 13:48:47.859690,-83
2021-12-10 13:48:47.859698,-73
2021-12-10 13:48:47.859706,-61
2021-12-10 13:48:47.859714,-64
2021-12-10 13:48:47.859723,-85
2021-12-10 13:48:47.859731,-85
2021-12-10 13:48:47.859739,-61
2021-12-10 13:48:47.859747,-52
2021-12-10 13:48:47.859756,-59
2021-12-10 13:48:47.859764,-66
2021-12-10 13:48:47.859772,-57
2021-12-10 13:48:47.859780,-35
2021-12-10 13:48:47.859789,-28
2021-12-10 13:48:47.859797,-19
2021-12-10 13:48:47.859805,-16
2021-12-10 13:48:47.859813,-28
2021-12-10 13:48:47.859821,-23
2021-12-10 13:48:47.859830,-4
2021-12-10 13:48:48.040668,9
2021-12-10 13:48:48.040688,14
2021-12-10 13:48:48.040697,2
2021-12-10 13:48:48.040706,-14
2021-12-10 13:48:48.040715,-7
2021-12-10 13:48:48.040723,11
2021-12-10 13:48:48.040731,23
2021-12-10 13:48:48.040740,38
2021-12-10 13:48:48.040748,35
2021-12-10 13:48:48.040757,-7
2021-12-10 13:48:48.040765,-16
2021-12-10 13:48:48.040773,11
2021-12-10 13:48:48.040782,9
2021-12-10 13:48:48.040790,-19
2021-12-10 13:48:48.040799,-50
2021-12-10 13:48:48.040807,-78
2021-12-10 13:48:48.040815,-71
2021-12-10 13:48:48.040824,-52
2021-12-10 13:48:48.040832,-66
2021-12-10 13:48:48.040840,-85
2021-12-10 13:48:48.040849,-95
2021-12-10 13:48:48.040857,-135
2021-12-10 13:48:48.040865,-243
2021-12-10 13:48:48.040874,-283
2021-12-10 13:48:48.040882,21
2021-12-10 13:48:48.040891,774
2021-12-10 13:48:48.040899,1664
2021-12-10 13:48:48.040907,1855
2021-12-10 13:48:48.040916,898
2021-12-10 13:48:48.040924,-200
2021-12-10 13:48:48.265614,-371
2021-12-10 13:48:48.265633,-126
2021-12-10 13:48:48.265643,-219
2021-12-10 13:48:48.265651,-371
2021-12-10 13:48:48.265660,-319
2021-12-10 13:48:48.265668,-281
2021-12-10 13:48:48.265676,-298
2021-12-10 13:48:48.265685,-286
2021-12-10 13:48:48.265693,-283
2021-12-10 13:48:48.265702,-288
2021-12-10 13:48:48.265710,-257
2021-12-10 13:48:48.265719,-219
2021-12-10 13:48:48.265727,-205
2021-12-10 13:48:48.265735,-205
2021-12-10 13:48:48.265743,-209
2021-12-10 13:48:48.265752,-193
2021-12-10 13:48:48.265760,-157
2021-12-10 13:48:48.265769,-116
2021-12-10 13:48:48.265777,-83
2021-12-10 13:48:48.265785,-57
2021-12-10 13:48:48.265794,-52
2021-12-10 13:48:48.265802,-54
2021-12-10 13:48:48.265810,-26
2021-12-10 13:48:48.265819,0
2021-12-10 13:48:48.265827,-2
2021-12-10 13:48:48.265835,-7
2021-12-10 13:48:48.265843,-11
2021-12-10 13:48:48.265852,-14
2021-12-10 13:48:48.265860,-19
2021-12-10 13:48:48.265869,-16
2021-12-10 13:48:48.490170,-19
2021-12-10 13:48:48.490188,-33
2021-12-10 13:48:48.490198,-47
2021-12-10 13:48:48.490207,-52
2021-12-10 13:48:48.490215,-52
2021-12-10 13:48:48.490224,-47
2021-12-10 13:48:48.490233,-47
2021-12-10 13:48:48.490241,-64
2021-12-10 13:48:48.490249,-76
2021-12-10 13:48:48.490258,-64
2021-12-10 13:48:48.490266,-47
2021-12-10 13:48:48.490275,-33
2021-12-10 13:48:48.490283,-33
2021-12-10 13:48:48.490292,-50
2021-12-10 13:48:48.490300,-57
2021-12-10 13:48:48.490308,-40
2021-12-10 13:48:48.490317,-23
2021-12-10 13:48:48.490325,-14
2021-12-10 13:48:48.490333,-9
2021-12-10 13:48:48.490341,-9
2021-12-10 13:48:48.490350,-9
2021-12-10 13:48:48.490358,-14
2021-12-10 13:48:48.490366,-26
2021-12-10 13:48:48.490375,-30
2021-12-10 13:48:48.490383,-23
2021-12-10 13:48:48.490391,-21
2021-12-10 13:48:48.490400,-16
2021-12-10 13:48:48.490408,-9
2021-12-10 13:48:48.490416,2
2021-12-10 13:48:48.490425,14
2021-12-10 13:48:48.715201,14
2021-12-10 13:48:48.715220,11
2021-12-10 13:48:48.715229,19
2021-12-10 13:48:48.715238,23
2021-12-10 13:48:48.715246,28
2021-12-10 13:48:48.715255,38
2021-12-10 13:48:48.715263,23
2021-12-10 13:48:48.715271,-2
2021-12-10 13:48:48.715280,-4
2021-12-10 13:48:48.715288,-30
2021-12-10 13:48:48.715296,-81
2021-12-10 13:48:48.715305,-88
2021-12-10 13:48:48.715313,-85
2021-12-10 13:48:48.715321,-102
2021-12-10 13:48:48.715330,-95
2021-12-10 13:48:48.715338,-78
2021-12-10 13:48:48.715346,-73
2021-12-10 13:48:48.715354,-59
2021-12-10 13:48:48.715363,-33
2021-12-10 13:48:48.715371,-11
2021-12-10 13:48:48.715379,-9
2021-12-10 13:48:48.715387,-11
2021-12-10 13:48:48.715396,-2
2021-12-10 13:48:48.715404,-7
2021-12-10 13:48:48.715412,-33
2021-12-10 13:48:48.715420,-42
2021-12-10 13:48:48.715428,-33
2021-12-10 13:48:48.715437,-28
2021-12-10 13:48:48.715445,-21
2021-12-10 13:48:48.715453,-14
2021-12-10 13:48:48.984886,-28
2021-12-10 13:48:48.984905,-61
2021-12-10 13:48:48.984915,-147
2021-12-10 13:48:48.984923,-271
2021-12-10 13:48:48.984932,-152
2021-12-10 13:48:48.984940,426
2021-12-10 13:48:48.984948,1304
2021-12-10 13:48:48.984956,1850
2021-12-10 13:48:48.984964,1309
2021-12-10 13:48:48.984971,104
2021-12-10 13:48:48.984979,-417
2021-12-10 13:48:48.984987,-195
2021-12-10 13:48:48.984995,-147
2021-12-10 13:48:48.985003,-281
2021-12-10 13:48:48.985011,-236
2021-12-10 13:48:48.985019,-178
2021-12-10 13:48:48.985027,-207
2021-12-10 13:48:48.985034,-195
2021-12-10 13:48:48.985042,-159
2021-12-10 13:48:48.985050,-143
2021-12-10 13:48:48.985058,-128
2021-12-10 13:48:48.985066,-107
2021-12-10 13:48:48.985074,-92
2021-12-10 13:48:48.985082,-81
2021-12-10 13:48:48.985090,-61
2021-12-10 13:48:48.985098,-38
2021-12-10 13:48:48.985105,-33
2021-12-10 13:48:48.985113,-40
2021-12-10 13:48:48.985121,-21
2021-12-10 13:48:48.985128,9
2021-12-10 13:48:49.165600,30
2021-12-10 13:48:49.165618,59
2021-12-10 13:48:49.165628,81
2021-12-10 13:48:49.165637,81
2021-12-10 13:48:49.165645,73
2021-12-10 13:48:49.165654,52
2021-12-10 13:48:49.165662,42
2021-12-10 13:48:49.165670,47
2021-12-10 13:48:49.165679,42
2021-12-10 13:48:49.165687,28
2021-12-10 13:48:49.165695,11
2021-12-10 13:48:49.165704,-2
2021-12-10 13:48:49.165712,4
2021-12-10 13:48:49.165720,11
2021-12-10 13:48:49.165729,-11
2021-12-10 13:48:49.165738,-61
2021-12-10 13:48:49.165746,-95
2021-12-10 13:48:49.165755,-90
2021-12-10 13:48:49.165763,-69
2021-12-10 13:48:49.165771,-50
2021-12-10 13:48:49.165780,-35
2021-12-10 13:48:49.165788,-33
2021-12-10 13:48:49.165797,-33
2021-12-10 13:48:49.165805,-30
2021-12-10 13:48:49.165813,-11
2021-12-10 13:48:49.165822,9
2021-12-10 13:48:49.165830,16
2021-12-10 13:48:49.165838,14
2021-12-10 13:48:49.165846,2
2021-12-10 13:48:49.165855,-7
2021-12-10 13:48:49.390614,11
2021-12-10 13:48:49.390633,33
2021-12-10 13:48:49.390642,33
2021-12-10 13:48:49.390651,14
2021-12-10 13:48:49.390659,-7
2021-12-10 13:48:49.390668,-14
2021-12-10 13:48:49.390676,9
2021-12-10 13:48:49.390684,33
2021-12-10 13:48:49.390692,35
2021-12-10 13:48:49.390701,16
2021-12-10 13:48:49.390709,-16
2021-12-10 13:48:49.390717,-26
2021-12-10 13:48:49.390726,-4
2021-12-10 13:48:49.390734,9
2021-12-10 13:48:49.390742,7
2021-12-10 13:48:49.390750,7
2021-12-10 13:48:49.390759,7
2021-12-10 13:48:49.390776,11
2021-12-10 13:48:49.390784,26
2021-12-10 13:48:49.390793,42
2021-12-10 13:48:49.390801,47
2021-12-10 13:48:49.390809,42
2021-12-10 13:48:49.390818,40
2021-12-10 13:48:49.390826,59
2021-12-10 13:48:49.390834,76
2021-12-10 13:48:49.390843,83
2021-12-10 13:48:49.390851,83
2021-12-10 13:48:49.390859,73
2021-12-10 13:48:49.390867,73
2021-12-10 13:48:49.390875,88
2021-12-10 13:48:49.660217,90
2021-12-10 13:48:49.660236,78
2021-12-10 13:48:49.660245,59
2021-12-10 13:48:49.660253,19
2021-12-10 13:48:49.660262,-14
2021-12-10 13:48:49.660270,-11
2021-12-10 13:48:49.660279,-2
2021-12-10 13:48:49.660287,-2
2021-12-10 13:48:49.660295,-9
2021-12-10 13:48:49.660304,-38
2021-12-10 13:48:49.660312,-54
2021-12-10 13:48:49.660321,-33
2021-12-10 13:48:49.660329,-11
2021-12-10 13:48:49.660337,-14
2021-12-10 13:48:49.660346,-69
2021-12-10 13:48:49.660354,-202
2021-12-10 13:48:49.660363,-183
2021-12-10 13:48:49.660371,269
2021-12-10 13:48:49.660379,1118
2021-12-10 13:48:49.660387,1888
2021-12-10 13:48:49.660396,1731
2021-12-10 13:48:49.660404,565
2021-12-10 13:48:49.660412,-309
2021-12-10 13:48:49.660421,-209
2021-12-10 13:48:49.660429,9
2021-12-10 13:48:49.660437,-112
2021-12-10 13:48:49.660446,-157
2021-12-10 13:48:49.660454,-88
2021-12-10 13:48:49.660462,-90
2021-12-10 13:48:49.660471,-90
2021-12-10 13:48:49.885584,-45
2021-12-10 13:48:49.885602,-26
2021-12-10 13:48:49.885612,-35
2021-12-10 13:48:49.885620,-42
2021-12-10 13:48:49.885629,-21
2021-12-10 13:48:49.885637,11
2021-12-10 13:48:49.885646,35
2021-12-10 13:48:49.885654,54
2021-12-10 13:48:49.885662,54
2021-12-10 13:48:49.885670,38
2021-12-10 13:48:49.885679,59
2021-12-10 13:48:49.885687,102
2021-12-10 13:48:49.885695,123
2021-12-10 13:48:49.885703,143
2021-12-10 13:48:49.885712,143
2021-12-10 13:48:49.885720,121
2021-12-10 13:48:49.885728,131
2021-12-10 13:48:49.885737,157
2021-12-10 13:48:49.885745,159
2021-12-10 13:48:49.885753,147
2021-12-10 13:48:49.885761,131
2021-12-10 13:48:49.885770,112
2021-12-10 13:48:49.885778,107
2021-12-10 13:48:49.885786,119
2021-12-10 13:48:49.885794,126
2021-12-10 13:48:49.885802,123
2021-12-10 13:48:49.885810,109
2021-12-10 13:48:49.885818,95
2021-12-10 13:48:49.885827,100
2021-12-10 13:48:49.885835,116
2021-12-10 13:48:50.111279,123
2021-12-10 13:48:50.111300,131
2021-12-10 13:48:50.111308,131
2021-12-10 13:48:50.111314,123
2021-12-10 13:48:50.111318,119
2021-12-10 13:48:50.111324,112
2021-12-10 13:48:50.111329,116
2021-12-10 13:48:50.111334,112
2021-12-10 13:48:50.111338,73
2021-12-10 13:48:50.111343,52
2021-12-10 13:48:50.111348,73
2021-12-10 13:48:50.111352,90
2021-12-10 13:48:50.111358,90
2021-12-10 13:48:50.111362,83
2021-12-10 13:48:50.111367,59
2021-12-10 13:48:50.111372,50
2021-12-10 13:48:50.111376,73
2021-12-10 13:48:50.111382,92
2021-12-10 13:48:50.111386,100
2021-12-10 13:48:50.111391,102
2021-12-10 13:48:50.111396,102
2021-12-10 13:48:50.111400,107
2021-12-10 13:48:50.111405,116
2021-12-10 13:48:50.111410,128
2021-12-10 13:48:50.111415,145
2021-12-10 13:48:50.111420,150
2021-12-10 13:48:50.111425,121
2021-12-10 13:48:50.111430,78
2021-12-10 13:48:50.111434,69
2021-12-10 13:48:50.111439,81
2021-12-10 13:48:50.380630,78
2021-12-10 13:48:50.380649,59
2021-12-10 13:48:50.380659,52
2021-12-10 13:48:50.380667,59
2021-12-10 13:48:50.380676,69
2021-12-10 13:48:50.380684,83
2021-12-10 13:48:50.380693,73
2021-12-10 13:48:50.380701,35
2021-12-10 13:48:50.380710,21
2021-12-10 13:48:50.380718,42
2021-12-10 13:48:50.380727,57
2021-12-10 13:48:50.380735,66
2021-12-10 13:48:50.380743,83
2021-12-10 13:48:50.380752,97
2021-12-10 13:48:50.380760,97
2021-12-10 13:48:50.380769,100
2021-12-10 13:48:50.380777,116
2021-12-10 13:48:50.380786,131
2021-12-10 13:48:50.380794,119
2021-12-10 13:48:50.380802,104
2021-12-10 13:48:50.380811,119
2021-12-10 13:48:50.380819,133
2021-12-10 13:48:50.380827,135
2021-12-10 13:48:50.380836,152
2021-12-10 13:48:50.380844,166
2021-12-10 13:48:50.380852,166
2021-12-10 13:48:50.380861,143
2021-12-10 13:48:50.380869,45
2021-12-10 13:48:50.380877,-9
2021-12-10 13:48:50.380886,264
2021-12-10 13:48:50.560274,970
2021-12-10 13:48:50.560293,1836
2021-12-10 13:48:50.560303,2100
2021-12-10 13:48:50.560311,1235
2021-12-10 13:48:50.560320,128
2021-12-10 13:48:50.560328,-73
2021-12-10 13:48:50.560337,185
2021-12-10 13:48:50.560345,123
2021-12-10 13:48:50.560353,2
2021-12-10 13:48:50.560361,59
2021-12-10 13:48:50.560370,83
2021-12-10 13:48:50.560378,69
2021-12-10 13:48:50.560386,100
2021-12-10 13:48:50.560394,126
2021-12-10 13:48:50.560403,131
2021-12-10 13:48:50.560411,145
2021-12-10 13:48:50.560419,171
2021-12-10 13:48:50.560427,183
2021-12-10 13:48:50.560436,174
2021-12-10 13:48:50.560444,174
2021-12-10 13:48:50.560452,202
2021-12-10 13:48:50.560461,224
2021-12-10 13:48:50.560469,238
2021-12-10 13:48:50.560477,259
2021-12-10 13:48:50.560486,278
2021-12-10 13:48:50.560514,293
2021-12-10 13:48:50.560523,309
2021-12-10 13:48:50.560532,321
2021-12-10 13:48:50.560540,329
2021-12-10 13:48:50.560548,329
2021-12-10 13:48:50.785630,319
2021-12-10 13:48:50.785651,290
2021-12-10 13:48:50.785661,240
2021-12-10 13:48:50.785669,207
2021-12-10 13:48:50.785678,209
2021-12-10 13:48:50.785686,195
2021-12-10 13:48:50.785694,159
2021-12-10 13:48:50.785702,159
2021-12-10 13:48:50.785711,174
2021-12-10 13:48:50.785719,145
2021-12-10 13:48:50.785727,104
2021-12-10 13:48:50.785736,66
2021-12-10 13:48:50.785744,42
2021-12-10 13:48:50.785752,59
2021-12-10 13:48:50.785761,83
2021-12-10 13:48:50.785769,78
2021-12-10 13:48:50.785777,78
2021-12-10 13:48:50.785786,90
2021-12-10 13:48:50.785794,100
2021-12-10 13:48:50.785802,109
2021-12-10 13:48:50.785811,116
2021-12-10 13:48:50.785819,116
2021-12-10 13:48:50.785827,119
2021-12-10 13:48:50.785836,123
2021-12-10 13:48:50.785844,128
2021-12-10 13:48:50.785852,135
2021-12-10 13:48:50.785860,143
2021-12-10 13:48:50.785869,140
2021-12-10 13:48:50.785877,138
2021-12-10 13:48:50.785885,126
2021-12-10 13:48:51.053978,109
2021-12-10 13:48:51.054003,109
2021-12-10 13:48:51.054012,100
2021-12-10 13:48:51.054021,71
2021-12-10 13:48:51.054029,57
2021-12-10 13:48:51.054037,40
2021-12-10 13:48:51.054046,30
2021-12-10 13:48:51.054054,47
2021-12-10 13:48:51.054062,57
2021-12-10 13:48:51.054070,52
2021-12-10 13:48:51.054079,42
2021-12-10 13:48:51.054087,23
2021-12-10 13:48:51.054095,11
2021-12-10 13:48:51.054104,9
2021-12-10 13:48:51.054112,4
2021-12-10 13:48:51.054121,4
2021-12-10 13:48:51.054129,11
2021-12-10 13:48:51.054137,16
2021-12-10 13:48:51.054145,30
2021-12-10 13:48:51.054154,50
2021-12-10 13:48:51.054162,50
2021-12-10 13:48:51.054170,47
2021-12-10 13:48:51.054178,50
2021-12-10 13:48:51.054187,54
2021-12-10 13:48:51.054195,85
2021-12-10 13:48:51.054203,126
2021-12-10 13:48:51.054212,126
2021-12-10 13:48:51.054220,109
2021-12-10 13:48:51.054228,109
2021-12-10 13:48:51.054236,100
2021-12-10 13:48:51.280007,90
2021-12-10 13:48:51.280026,100
2021-12-10 13:48:51.280036,107
2021-12-10 13:48:51.280044,92
2021-12-10 13:48:51.280053,61
2021-12-10 13:48:51.280061,45
2021-12-10 13:48:51.280070,54
2021-12-10 13:48:51.280078,38
2021-12-10 13:48:51.280087,-54
2021-12-10 13:48:51.280095,-185
2021-12-10 13:48:51.280103,-162
2021-12-10 13:48:51.280112,257
2021-12-10 13:48:51.280120,1065
2021-12-10 13:48:51.280128,1774
2021-12-10 13:48:51.280137,1557
2021-12-10 13:48:51.280145,424
2021-12-10 13:48:51.280153,-350
2021-12-10 13:48:51.280162,-207
2021-12-10 13:48:51.280170,-16
2021-12-10 13:48:51.280179,-140
2021-12-10 13:48:51.280187,-164
2021-12-10 13:48:51.280195,-95
2021-12-10 13:48:51.280204,-116
2021-12-10 13:48:51.280212,-121
2021-12-10 13:48:51.280220,-78
2021-12-10 13:48:51.280229,-59
2021-12-10 13:48:51.280237,-52
2021-12-10 13:48:51.280245,-42
2021-12-10 13:48:51.280254,-35
2021-12-10 13:48:51.280262,-14
2021-12-10 13:48:51.505621,14
2021-12-10 13:48:51.505639,33
2021-12-10 13:48:51.505648,47
2021-12-10 13:48:51.505657,35
2021-12-10 13:48:51.505666,19
2021-12-10 13:48:51.505674,47
2021-12-10 13:48:51.505682,88
2021-12-10 13:48:51.505691,104
2021-12-10 13:48:51.505699,109
2021-12-10 13:48:51.505707,100
2021-12-10 13:48:51.505716,88
2021-12-10 13:48:51.505724,100
2021-12-10 13:48:51.505732,104
2021-12-10 13:48:51.505741,92
2021-12-10 13:48:51.505749,76
2021-12-10 13:48:51.505757,35
2021-12-10 13:48:51.505765,-19
2021-12-10 13:48:51.505774,-52
2021-12-10 13:48:51.505782,-47
2021-12-10 13:48:51.505790,-38
2021-12-10 13:48:51.505799,-42
2021-12-10 13:48:51.505807,-61
2021-12-10 13:48:51.505815,-69
2021-12-10 13:48:51.505823,-54
2021-12-10 13:48:51.505832,-40
2021-12-10 13:48:51.505840,-33
2021-12-10 13:48:51.505848,-33
2021-12-10 13:48:51.505856,-42
2021-12-10 13:48:51.505864,-35
2021-12-10 13:48:51.505873,-16
2021-12-10 13:48:51.730227,-9
2021-12-10 13:48:51.730247,-9
2021-12-10 13:48:51.730256,-9
2021-12-10 13:48:51.730265,-26
2021-12-10 13:48:51.730273,-28
2021-12-10 13:48:51.730282,-14
2021-12-10 13:48:51.730290,-16
2021-12-10 13:48:51.730298,-33
2021-12-10 13:48:51.730307,-57
2021-12-10 13:48:51.730315,-95
2021-12-10 13:48:51.730323,-112
2021-12-10 13:48:51.730332,-97
2021-12-10 13:48:51.730340,-104
2021-12-10 13:48:51.730348,-152
2021-12-10 13:48:51.730362,-200
2021-12-10 13:48:51.730371,-216
2021-12-10 13:48:51.730379,-197
2021-12-10 13:48:51.730387,-174
2021-12-10 13:48:51.730395,-174
2021-12-10 13:48:51.730404,-193
2021-12-10 13:48:51.730416,-207
2021-12-10 13:48:51.730424,-202
2021-12-10 13:48:51.730432,-185
2021-12-10 13:48:51.730440,-164
2021-12-10 13:48:51.730449,-150
2021-12-10 13:48:51.730457,-145
2021-12-10 13:48:51.730465,-152
2021-12-10 13:48:51.730473,-152
2021-12-10 13:48:51.730482,-131
2021-12-10 13:48:51.730490,-109
2021-12-10 13:48:51.955735,-90
2021-12-10 13:48:51.955753,-61
2021-12-10 13:48:51.955798,-42
2021-12-10 13:48:51.955806,-59
2021-12-10 13:48:51.955814,-57
2021-12-10 13:48:51.955823,-35
2021-12-10 13:48:51.955868,-42
2021-12-10 13:48:51.955876,-76
2021-12-10 13:48:51.955884,-104
2021-12-10 13:48:51.955892,-114
2021-12-10 13:48:51.955941,-97
2021-12-10 13:48:51.955949,-78
2021-12-10 13:48:51.955957,-71
2021-12-10 13:48:51.956000,-81
2021-12-10 13:48:51.956009,-109
2021-12-10 13:48:51.956017,-176
2021-12-10 13:48:51.956025,-264
2021-12-10 13:48:51.956076,-181
2021-12-10 13:48:51.956084,293
2021-12-10 13:48:51.956092,1087
2021-12-10 13:48:51.956100,1671
2021-12-10 13:48:51.956149,1292
2021-12-10 13:48:51.956157,169
2021-12-10 13:48:51.956165,-414
2021-12-10 13:48:51.956173,-214
2021-12-10 13:48:51.956216,-112
2021-12-10 13:48:51.956224,-247
2021-12-10 13:48:51.956232,-233
2021-12-10 13:48:51.956241,-164
2021-12-10 13:48:51.956281,-174
2021-12-10 13:48:52.224741,-169
2021-12-10 13:48:52.224763,-140
2021-12-10 13:48:52.224773,-143
2021-12-10 13:48:52.224781,-140
2021-12-10 13:48:52.224790,-114
2021-12-10 13:48:52.224798,-90
2021-12-10 13:48:52.224806,-85
2021-12-10 13:48:52.224815,-97
2021-12-10 13:48:52.224823,-109
2021-12-10 13:48:52.224831,-90
2021-12-10 13:48:52.224840,-57
2021-12-10 13:48:52.224848,-33
2021-12-10 13:48:52.224856,-28
2021-12-10 13:48:52.224865,-40
2021-12-10 13:48:52.224873,-40
2021-12-10 13:48:52.224881,-19
2021-12-10 13:48:52.224890,-2
2021-12-10 13:48:52.224898,-2
2021-12-10 13:48:52.224907,-26
2021-12-10 13:48:52.224915,-71
2021-12-10 13:48:52.224923,-90
2021-12-10 13:48:52.224932,-92
2021-12-10 13:48:52.224940,-107
2021-12-10 13:48:52.224949,-126
2021-12-10 13:48:52.224957,-140
2021-12-10 13:48:52.224965,-147
2021-12-10 13:48:52.224974,-157
2021-12-10 13:48:52.224982,-174
2021-12-10 13:48:52.224990,-171
2021-12-10 13:48:52.224999,-152
2021-12-10 13:48:52.405261,-152
2021-12-10 13:48:52.405280,-152
2021-12-10 13:48:52.405290,-145
2021-12-10 13:48:52.405298,-147
2021-12-10 13:48:52.405307,-150
2021-12-10 13:48:52.405315,-143
2021-12-10 13:48:52.405324,-150
2021-12-10 13:48:52.405332,-164
2021-12-10 13:48:52.405341,-157
2021-12-10 13:48:52.405350,-145
2021-12-10 13:48:52.405358,-145
2021-12-10 13:48:52.405367,-143
2021-12-10 13:48:52.405375,-162
2021-12-10 13:48:52.405384,-178
2021-12-10 13:48:52.405392,-171
2021-12-10 13:48:52.405401,-166
2021-12-10 13:48:52.405409,-181
2021-12-10 13:48:52.405418,-193
2021-12-10 13:48:52.405426,-207
2021-12-10 13:48:52.405435,-231
2021-12-10 13:48:52.405443,-240
2021-12-10 13:48:52.405451,-233
2021-12-10 13:48:52.405460,-224
2021-12-10 13:48:52.405468,-212
2021-12-10 13:48:52.405476,-205
2021-12-10 13:48:52.405485,-224
2021-12-10 13:48:52.405493,-231
2021-12-10 13:48:52.405501,-219
2021-12-10 13:48:52.405509,-212
2021-12-10 13:48:52.405518,-207
2021-12-10 13:48:52.630279,-197
2021-12-10 13:48:52.630299,-185
2021-12-10 13:48:52.630309,-185
2021-12-10 13:48:52.630317,-197
2021-12-10 13:48:52.630326,-185
2021-12-10 13:48:52.630334,-178
2021-12-10 13:48:52.630342,-193
2021-12-10 13:48:52.630351,-169
2021-12-10 13:48:52.630359,-119
2021-12-10 13:48:52.630368,-128
2021-12-10 13:48:52.630376,-147
2021-12-10 13:48:52.630385,-140
2021-12-10 13:48:52.630393,-164
2021-12-10 13:48:52.630401,-188
2021-12-10 13:48:52.630410,-169
2021-12-10 13:48:52.630418,-164
2021-12-10 13:48:52.630426,-176
2021-12-10 13:48:52.630435,-174
2021-12-10 13:48:52.630443,-164
2021-12-10 13:48:52.630451,-157
2021-12-10 13:48:52.630460,-147
2021-12-10 13:48:52.630468,-181
2021-12-10 13:48:52.630476,-271
2021-12-10 13:48:52.630485,-276
2021-12-10 13:48:52.630493,23
2021-12-10 13:48:52.630501,693
2021-12-10 13:48:52.630510,1392
2021-12-10 13:48:52.630518,1335
2021-12-10 13:48:52.630526,345
2021-12-10 13:48:52.630534,-443
2021-12-10 13:48:52.855610,-383
2021-12-10 13:48:52.855629,-188
2021-12-10 13:48:52.855638,-271
2021-12-10 13:48:52.855647,-305
2021-12-10 13:48:52.855655,-243
2021-12-10 13:48:52.855664,-262
2021-12-10 13:48:52.855672,-283
2021-12-10 13:48:52.855680,-236
2021-12-10 13:48:52.855689,-209
2021-12-10 13:48:52.855697,-214
2021-12-10 13:48:52.855705,-214
2021-12-10 13:48:52.855714,-219
2021-12-10 13:48:52.855722,-209
2021-12-10 13:48:52.855730,-178
2021-12-10 13:48:52.855738,-162
2021-12-10 13:48:52.855747,-152
2021-12-10 13:48:52.855755,-131
2021-12-10 13:48:52.855763,-116
2021-12-10 13:48:52.855772,-100
2021-12-10 13:48:52.855780,-69
2021-12-10 13:48:52.855788,-47
2021-12-10 13:48:52.855796,-45
2021-12-10 13:48:52.855805,-50
2021-12-10 13:48:52.855813,-45
2021-12-10 13:48:52.855821,-38
2021-12-10 13:48:52.855829,-38
2021-12-10 13:48:52.855837,-42
2021-12-10 13:48:52.855845,-57
2021-12-10 13:48:52.855854,-69
2021-12-10 13:48:52.855862,-81
2021-12-10 13:48:53.124438,-92
2021-12-10 13:48:53.124459,-78
2021-12-10 13:48:53.124469,-69
2021-12-10 13:48:53.124477,-88
2021-12-10 13:48:53.124486,-119
2021-12-10 13:48:53.124494,-131
2021-12-10 13:48:53.124503,-109
2021-12-10 13:48:53.124511,-95
2021-12-10 13:48:53.124519,-109
2021-12-10 13:48:53.124527,-138
2021-12-10 13:48:53.124536,-166
2021-12-10 13:48:53.124544,-171
2021-12-10 13:48:53.124552,-152
2021-12-10 13:48:53.124560,-140
2021-12-10 13:48:53.124569,-138
2021-12-10 13:48:53.124577,-143
2021-12-10 13:48:53.124585,-152
2021-12-10 13:48:53.124593,-147
2021-12-10 13:48:53.124602,-133
2021-12-10 13:48:53.124610,-119
2021-12-10 13:48:53.124618,-116
2021-12-10 13:48:53.124627,-128
2021-12-10 13:48:53.124635,-138
2021-12-10 13:48:53.124643,-128
2021-12-10 13:48:53.124651,-112
2021-12-10 13:48:53.124659,-100
2021-12-10 13:48:53.124668,-100
2021-12-10 13:48:53.124676,-109
2021-12-10 13:48:53.124684,-133
2021-12-10 13:48:53.124692,-174
2021-12-10 13:48:53.350628,-216
2021-12-10 13:48:53.350647,-243
2021-12-10 13:48:53.350657,-267
2021-12-10 13:48:53.350666,-298
2021-12-10 13:48:53.350674,-312
2021-12-10 13:48:53.350682,-293
2021-12-10 13:48:53.350691,-269
2021-12-10 13:48:53.350699,-267
2021-12-10 13:48:53.350707,-264
2021-12-10 13:48:53.350716,-276
2021-12-10 13:48:53.350724,-278
2021-12-10 13:48:53.350732,-231
2021-12-10 13:48:53.350741,-195
2021-12-10 13:48:53.350749,-207
2021-12-10 13:48:53.350758,-216
2021-12-10 13:48:53.350766,-233
2021-12-10 13:48:53.350774,-250
2021-12-10 13:48:53.350783,-233
2021-12-10 13:48:53.350791,-212
2021-12-10 13:48:53.350799,-207
2021-12-10 13:48:53.350808,-200
2021-12-10 13:48:53.350816,-200
2021-12-10 13:48:53.350824,-202
2021-12-10 13:48:53.350832,-188
2021-12-10 13:48:53.350840,-197
2021-12-10 13:48:53.350849,-276
2021-12-10 13:48:53.350857,-312
2021-12-10 13:48:53.350865,-57
2021-12-10 13:48:53.350873,588
2021-12-10 13:48:53.350882,1306
2021-12-10 13:48:53.575297,1368
2021-12-10 13:48:53.575316,503
2021-12-10 13:48:53.575325,-333
2021-12-10 13:48:53.575334,-376
2021-12-10 13:48:53.575343,-183
2021-12-10 13:48:53.575351,-228
2021-12-10 13:48:53.575359,-262
2021-12-10 13:48:53.575368,-200
2021-12-10 13:48:53.575376,-216
2021-12-10 13:48:53.575385,-259
2021-12-10 13:48:53.575393,-228
2021-12-10 13:48:53.575401,-185
2021-12-10 13:48:53.575410,-174
2021-12-10 13:48:53.575418,-162
2021-12-10 13:48:53.575426,-162
2021-12-10 13:48:53.575435,-185
2021-12-10 13:48:53.575443,-176
2021-12-10 13:48:53.575452,-138
2021-12-10 13:48:53.575460,-116
2021-12-10 13:48:53.575468,-104
2021-12-10 13:48:53.575476,-97
2021-12-10 13:48:53.575485,-100
2021-12-10 13:48:53.575493,-76
2021-12-10 13:48:53.575501,-40
2021-12-10 13:48:53.575510,-30
2021-12-10 13:48:53.575518,-33
2021-12-10 13:48:53.575526,-33
2021-12-10 13:48:53.575534,-35
2021-12-10 13:48:53.575543,-33
2021-12-10 13:48:53.575551,-35
2021-12-10 13:48:53.890051,-35
2021-12-10 13:48:53.890070,-40
2021-12-10 13:48:53.890080,-54
2021-12-10 13:48:53.890088,-73
2021-12-10 13:48:53.890097,-104
2021-12-10 13:48:53.890106,-152
2021-12-10 13:48:53.890114,-171
2021-12-10 13:48:53.890123,-162
2021-12-10 13:48:53.890131,-193
2021-12-10 13:48:53.890140,-224
2021-12-10 13:48:53.890148,-197
2021-12-10 13:48:53.890157,-171
2021-12-10 13:48:53.890165,-169
2021-12-10 13:48:53.890173,-176
2021-12-10 13:48:53.890182,-200
2021-12-10 13:48:53.890190,-200
2021-12-10 13:48:53.890198,-171
2021-12-10 13:48:53.890207,-159
2021-12-10 13:48:53.890215,-159
2021-12-10 13:48:53.890223,-154
2021-12-10 13:48:53.890231,-159
2021-12-10 13:48:53.890240,-176
2021-12-10 13:48:53.890248,-178
2021-12-10 13:48:53.890256,-159
2021-12-10 13:48:53.890265,-152
2021-12-10 13:48:53.890273,-157
2021-12-10 13:48:53.890281,-157
2021-12-10 13:48:53.890289,-150
2021-12-10 13:48:53.890298,-140
2021-12-10 13:48:53.890306,-128
2021-12-10 13:48:54.025694,-116
2021-12-10 13:48:54.025713,-114
2021-12-10 13:48:54.025722,-121
2021-12-10 13:48:54.025731,-128
2021-12-10 13:48:54.025740,-116
2021-12-10 13:48:54.025748,-97
2021-12-10 13:48:54.025757,-90
2021-12-10 13:48:54.025765,-104
2021-12-10 13:48:54.025773,-121
2021-12-10 13:48:54.025782,-95
2021-12-10 13:48:54.025790,-52
2021-12-10 13:48:54.025798,-59
2021-12-10 13:48:54.025807,-104
2021-12-10 13:48:54.025815,-131
2021-12-10 13:48:54.025824,-166
2021-12-10 13:48:54.025832,-202
2021-12-10 13:48:54.025840,-195
2021-12-10 13:48:54.025849,-181
2021-12-10 13:48:54.025857,-185
2021-12-10 13:48:54.025866,-193
2021-12-10 13:48:54.025874,-193
2021-12-10 13:48:54.025882,-185
2021-12-10 13:48:54.025891,-174
2021-12-10 13:48:54.025899,-200
2021-12-10 13:48:54.025907,-309
2021-12-10 13:48:54.025916,-336
2021-12-10 13:48:54.025924,7
2021-12-10 13:48:54.025932,722
2021-12-10 13:48:54.025941,1425
2021-12-10 13:48:54.025949,1371
2021-12-10 13:48:54.295684,383
2021-12-10 13:48:54.295704,-410
2021-12-10 13:48:54.295713,-348
2021-12-10 13:48:54.295722,-171
2021-12-10 13:48:54.295731,-243
2021-12-10 13:48:54.295739,-245
2021-12-10 13:48:54.295748,-205
2021-12-10 13:48:54.295756,-238
2021-12-10 13:48:54.295764,-233
2021-12-10 13:48:54.295773,-209
2021-12-10 13:48:54.295781,-243
2021-12-10 13:48:54.295790,-247
2021-12-10 13:48:54.295798,-226
2021-12-10 13:48:54.295807,-233
2021-12-10 13:48:54.295815,-221
2021-12-10 13:48:54.295823,-188
2021-12-10 13:48:54.295832,-166
2021-12-10 13:48:54.295840,-145
2021-12-10 13:48:54.295848,-121
2021-12-10 13:48:54.295886,-102
2021-12-10 13:48:54.295895,-78
2021-12-10 13:48:54.295904,-61
2021-12-10 13:48:54.295912,-45
2021-12-10 13:48:54.295920,-23
2021-12-10 13:48:54.295929,-23
2021-12-10 13:48:54.295937,-28
2021-12-10 13:48:54.295946,-21
2021-12-10 13:48:54.295954,-30
2021-12-10 13:48:54.295962,-42
2021-12-10 13:48:54.295971,-38
2021-12-10 13:48:54.475266,-47
2021-12-10 13:48:54.475285,-50
2021-12-10 13:48:54.475295,-35
2021-12-10 13:48:54.475304,-35
2021-12-10 13:48:54.475312,-40
2021-12-10 13:48:54.475321,-50
2021-12-10 13:48:54.475329,-78
2021-12-10 13:48:54.475338,-83
2021-12-10 13:48:54.475346,-64
2021-12-10 13:48:54.475355,-69
2021-12-10 13:48:54.475363,-69
2021-12-10 13:48:54.475372,-59
2021-12-10 13:48:54.475380,-66
2021-12-10 13:48:54.475388,-61
2021-12-10 13:48:54.475397,-40
2021-12-10 13:48:54.475405,-38
2021-12-10 13:48:54.475413,-42
2021-12-10 13:48:54.475422,-47
2021-12-10 13:48:54.475430,-59
2021-12-10 13:48:54.475438,-52
2021-12-10 13:48:54.475446,-45
2021-12-10 13:48:54.475455,-54
2021-12-10 13:48:54.475463,-50
2021-12-10 13:48:54.475472,-47
2021-12-10 13:48:54.475480,-52
2021-12-10 13:48:54.475488,-38
2021-12-10 13:48:54.475496,-30
2021-12-10 13:48:54.475505,-40
2021-12-10 13:48:54.475513,-33
2021-12-10 13:48:54.475521,-26
2021-12-10 13:48:54.700288,-21
2021-12-10 13:48:54.700307,-9
2021-12-10 13:48:54.700317,-4
2021-12-10 13:48:54.700325,-4
2021-12-10 13:48:54.700334,-14
2021-12-10 13:48:54.700342,-40
2021-12-10 13:48:54.700350,-57
2021-12-10 13:48:54.700358,-57
2021-12-10 13:48:54.700367,-71
2021-12-10 13:48:54.700375,-83
2021-12-10 13:48:54.700383,-85
2021-12-10 13:48:54.700391,-107
2021-12-10 13:48:54.700400,-116
2021-12-10 13:48:54.700408,-121
2021-12-10 13:48:54.700416,-147
2021-12-10 13:48:54.700424,-185
2021-12-10 13:48:54.700432,-247
2021-12-10 13:48:54.700440,-355
2021-12-10 13:48:54.700448,-355
2021-12-10 13:48:54.700457,9
2021-12-10 13:48:54.700465,751
2021-12-10 13:48:54.700473,1490
2021-12-10 13:48:54.700481,1449
2021-12-10 13:48:54.700490,405
2021-12-10 13:48:54.700498,-464
2021-12-10 13:48:54.700506,-417
2021-12-10 13:48:54.700514,-236
2021-12-10 13:48:54.700522,-326
2021-12-10 13:48:54.700530,-333
2021-12-10 13:48:54.700538,-264
2021-12-10 13:48:54.925577,-269
2021-12-10 13:48:54.925594,-257
2021-12-10 13:48:54.925604,-216
2021-12-10 13:48:54.925613,-216
2021-12-10 13:48:54.925621,-240
2021-12-10 13:48:54.925629,-240
2021-12-10 13:48:54.925637,-209
2021-12-10 13:48:54.925646,-176
2021-12-10 13:48:54.925654,-164
2021-12-10 13:48:54.925663,-159
2021-12-10 13:48:54.925671,-159
2021-12-10 13:48:54.925679,-150
2021-12-10 13:48:54.925687,-121
2021-12-10 13:48:54.925696,-92
2021-12-10 13:48:54.925704,-78
2021-12-10 13:48:54.925712,-88
2021-12-10 13:48:54.925721,-102
2021-12-10 13:48:54.925729,-85
2021-12-10 13:48:54.925737,-59
2021-12-10 13:48:54.925745,-61
2021-12-10 13:48:54.925754,-71
2021-12-10 13:48:54.925762,-81
2021-12-10 13:48:54.925770,-90
2021-12-10 13:48:54.925779,-92
2021-12-10 13:48:54.925787,-81
2021-12-10 13:48:54.925795,-66
2021-12-10 13:48:54.925803,-66
2021-12-10 13:48:54.925812,-83
2021-12-10 13:48:54.925820,-102
2021-12-10 13:48:54.925828,-97
2021-12-10 13:48:55.239402,-81
2021-12-10 13:48:55.239422,-66
2021-12-10 13:48:55.239431,-57
2021-12-10 13:48:55.239440,-78
2021-12-10 13:48:55.239448,-114
2021-12-10 13:48:55.239457,-97
2021-12-10 13:48:55.239465,-64
2021-12-10 13:48:55.239473,-54
2021-12-10 13:48:55.239481,-52
2021-12-10 13:48:55.239490,-66
2021-12-10 13:48:55.239498,-88
2021-12-10 13:48:55.239506,-76
2021-12-10 13:48:55.239515,-47
2021-12-10 13:48:55.239523,-42
2021-12-10 13:48:55.239532,-50
2021-12-10 13:48:55.239540,-57
2021-12-10 13:48:55.239548,-59
2021-12-10 13:48:55.239557,-69
2021-12-10 13:48:55.239565,-81
2021-12-10 13:48:55.239573,-76
2021-12-10 13:48:55.239582,-78
2021-12-10 13:48:55.239590,-107
2021-12-10 13:48:55.239598,-109
2021-12-10 13:48:55.239606,-78
2021-12-10 13:48:55.239615,-61
2021-12-10 13:48:55.239623,-71
2021-12-10 13:48:55.239631,-88
2021-12-10 13:48:55.239639,-100
2021-12-10 13:48:55.239647,-97
2021-12-10 13:48:55.239656,-78
2021-12-10 13:48:55.420634,-66
2021-12-10 13:48:55.420653,-61
2021-12-10 13:48:55.420663,-66
2021-12-10 13:48:55.420671,-78
2021-12-10 13:48:55.420680,-88
2021-12-10 13:48:55.420688,-152
2021-12-10 13:48:55.420696,-243
2021-12-10 13:48:55.420705,-81
2021-12-10 13:48:55.420713,515
2021-12-10 13:48:55.420722,1342
2021-12-10 13:48:55.420730,1759
2021-12-10 13:48:55.420739,1108
2021-12-10 13:48:55.420747,-47
2021-12-10 13:48:55.420755,-438
2021-12-10 13:48:55.420764,-205
2021-12-10 13:48:55.420772,-202
2021-12-10 13:48:55.420780,-302
2021-12-10 13:48:55.420789,-231
2021-12-10 13:48:55.420797,-190
2021-12-10 13:48:55.420806,-231
2021-12-10 13:48:55.420814,-238
2021-12-10 13:48:55.420822,-221
2021-12-10 13:48:55.420830,-205
2021-12-10 13:48:55.420839,-176
2021-12-10 13:48:55.420847,-147
2021-12-10 13:48:55.420856,-128
2021-12-10 13:48:55.420864,-123
2021-12-10 13:48:55.420872,-121
2021-12-10 13:48:55.420880,-92
2021-12-10 13:48:55.420889,-66
2021-12-10 13:48:55.645313,-69
2021-12-10 13:48:55.645333,-61
2021-12-10 13:48:55.645342,-54
2021-12-10 13:48:55.645351,-66
2021-12-10 13:48:55.645359,-50
2021-12-10 13:48:55.645368,-14
2021-12-10 13:48:55.645376,-7
2021-12-10 13:48:55.645384,-21
2021-12-10 13:48:55.645392,-50
2021-12-10 13:48:55.645401,-76
2021-12-10 13:48:55.645409,-76
2021-12-10 13:48:55.645417,-71
2021-12-10 13:48:55.645426,-81
2021-12-10 13:48:55.645434,-104
2021-12-10 13:48:55.645443,-147
2021-12-10 13:48:55.645451,-178
2021-12-10 13:48:55.645459,-178
2021-12-10 13:48:55.645468,-169
2021-12-10 13:48:55.645476,-164
2021-12-10 13:48:55.645484,-159
2021-12-10 13:48:55.645493,-164
2021-12-10 13:48:55.645501,-185
2021-12-10 13:48:55.645509,-193
2021-12-10 13:48:55.645517,-169
2021-12-10 13:48:55.645525,-145
2021-12-10 13:48:55.645534,-150
2021-12-10 13:48:55.645542,-181
2021-12-10 13:48:55.645550,-195
2021-12-10 13:48:55.645558,-169
2021-12-10 13:48:55.645567,-145
2021-12-10 13:48:55.914642,-138
2021-12-10 13:48:55.914661,-126
2021-12-10 13:48:55.914670,-123
2021-12-10 13:48:55.914679,-128
2021-12-10 13:48:55.914687,-119
2021-12-10 13:48:55.914696,-102
2021-12-10 13:48:55.914704,-85
2021-12-10 13:48:55.914712,-97
2021-12-10 13:48:55.914720,-112
2021-12-10 13:48:55.914729,-81
2021-12-10 13:48:55.914737,-59
2021-12-10 13:48:55.914745,-59
2021-12-10 13:48:55.914754,-52
2021-12-10 13:48:55.914762,-81
2021-12-10 13:48:55.914770,-121
2021-12-10 13:48:55.914779,-116
2021-12-10 13:48:55.914787,-97
2021-12-10 13:48:55.914795,-88
2021-12-10 13:48:55.914803,-81
2021-12-10 13:48:55.914812,-78
2021-12-10 13:48:55.914820,-76
2021-12-10 13:48:55.914828,-78
2021-12-10 13:48:55.914836,-112
2021-12-10 13:48:55.914844,-224
2021-12-10 13:48:55.914853,-276
2021-12-10 13:48:55.914861,52
2021-12-10 13:48:55.914869,844
2021-12-10 13:48:55.914877,1681
2021-12-10 13:48:55.914886,1714
2021-12-10 13:48:55.914894,679
2021-12-10 13:48:56.095391,-288
2021-12-10 13:48:56.095412,-326
2021-12-10 13:48:56.095421,-95
2021-12-10 13:48:56.095430,-157
2021-12-10 13:48:56.095439,-209
2021-12-10 13:48:56.095447,-133
2021-12-10 13:48:56.095456,-135
2021-12-10 13:48:56.095464,-181
2021-12-10 13:48:56.095473,-154
2021-12-10 13:48:56.095481,-123
2021-12-10 13:48:56.095490,-116
2021-12-10 13:48:56.095498,-97
2021-12-10 13:48:56.095506,-92
2021-12-10 13:48:56.095515,-107
2021-12-10 13:48:56.095523,-90
2021-12-10 13:48:56.095532,-71
2021-12-10 13:48:56.095540,-71
2021-12-10 13:48:56.095548,-57
2021-12-10 13:48:56.095557,-38
2021-12-10 13:48:56.095565,-33
2021-12-10 13:48:56.095573,-9
2021-12-10 13:48:56.095582,16
2021-12-10 13:48:56.095590,35
2021-12-10 13:48:56.095599,52
2021-12-10 13:48:56.095607,50
2021-12-10 13:48:56.095615,30
2021-12-10 13:48:56.095624,7
2021-12-10 13:48:56.095632,-7
2021-12-10 13:48:56.095640,-9
2021-12-10 13:48:56.095649,-16
2021-12-10 13:48:56.320886,-45
2021-12-10 13:48:56.320910,-92
2021-12-10 13:48:56.320919,-143
2021-12-10 13:48:56.320927,-157
2021-12-10 13:48:56.320936,-152
2021-12-10 13:48:56.320944,-174
2021-12-10 13:48:56.320953,-216
2021-12-10 13:48:56.320961,-226
2021-12-10 13:48:56.320969,-212
2021-12-10 13:48:56.320978,-224
2021-12-10 13:48:56.320986,-226
2021-12-10 13:48:56.320995,-219
2021-12-10 13:48:56.321003,-233
2021-12-10 13:48:56.321011,-228
2021-12-10 13:48:56.321020,-202
2021-12-10 13:48:56.321028,-202
2021-12-10 13:48:56.321037,-197
2021-12-10 13:48:56.321045,-183
2021-12-10 13:48:56.321053,-183
2021-12-10 13:48:56.321062,-174
2021-12-10 13:48:56.321070,-154
2021-12-10 13:48:56.321078,-152
2021-12-10 13:48:56.321086,-150
2021-12-10 13:48:56.321095,-145
2021-12-10 13:48:56.321103,-140
2021-12-10 13:48:56.321112,-123
2021-12-10 13:48:56.321120,-112
2021-12-10 13:48:56.321128,-123
2021-12-10 13:48:56.321137,-123
2021-12-10 13:48:56.321145,-100
2021-12-10 13:48:56.545486,-88
2021-12-10 13:48:56.545508,-81
2021-12-10 13:48:56.545517,-83
2021-12-10 13:48:56.545526,-104
2021-12-10 13:48:56.545534,-114
2021-12-10 13:48:56.545543,-131
2021-12-10 13:48:56.545551,-145
2021-12-10 13:48:56.545560,-126
2021-12-10 13:48:56.545568,-112
2021-12-10 13:48:56.545576,-119
2021-12-10 13:48:56.545585,-121
2021-12-10 13:48:56.545593,-135
2021-12-10 13:48:56.545601,-205
2021-12-10 13:48:56.545610,-317
2021-12-10 13:48:56.545618,-262
2021-12-10 13:48:56.545627,228
2021-12-10 13:48:56.545635,1125
2021-12-10 13:48:56.545644,1852
2021-12-10 13:48:56.545652,1530
2021-12-10 13:48:56.545660,321
2021-12-10 13:48:56.545669,-400
2021-12-10 13:48:56.545677,-238
2021-12-10 13:48:56.545686,-85
2021-12-10 13:48:56.545694,-205
2021-12-10 13:48:56.545702,-212
2021-12-10 13:48:56.545722,-131
2021-12-10 13:48:56.545731,-138
2021-12-10 13:48:56.545739,-152
2021-12-10 13:48:56.545748,-126
2021-12-10 13:48:56.545756,-119
2021-12-10 13:48:56.770759,-133
2021-12-10 13:48:56.770779,-116
2021-12-10 13:48:56.770789,-88
2021-12-10 13:48:56.770798,-85
2021-12-10 13:48:56.770806,-97
2021-12-10 13:48:56.770815,-97
2021-12-10 13:48:56.770823,-92
2021-12-10 13:48:56.770831,-102
2021-12-10 13:48:56.770840,-90
2021-12-10 13:48:56.770848,-59
2021-12-10 13:48:56.770857,-57
2021-12-10 13:48:56.770865,-54
2021-12-10 13:48:56.770874,-16
2021-12-10 13:48:56.770882,19
2021-12-10 13:48:56.770891,26
2021-12-10 13:48:56.770899,21
2021-12-10 13:48:56.770908,9
2021-12-10 13:48:56.770916,2
2021-12-10 13:48:56.770925,0
2021-12-10 13:48:56.770933,-19
2021-12-10 13:48:56.770942,-50
2021-12-10 13:48:56.770950,-71
2021-12-10 13:48:56.770959,-95
2021-12-10 13:48:56.770967,-107
2021-12-10 13:48:56.770976,-104
2021-12-10 13:48:56.770984,-102
2021-12-10 13:48:56.770993,-104
2021-12-10 13:48:56.771001,-109
2021-12-10 13:48:56.771010,-112
2021-12-10 13:48:56.771018,-100
2021-12-10 13:48:57.040941,-83
2021-12-10 13:48:57.040965,-85
2021-12-10 13:48:57.040975,-104
2021-12-10 13:48:57.040984,-133
2021-12-10 13:48:57.040992,-152
2021-12-10 13:48:57.041001,-147
2021-12-10 13:48:57.041009,-121
2021-12-10 13:48:57.041017,-102
2021-12-10 13:48:57.041026,-112
2021-12-10 13:48:57.041034,-150
2021-12-10 13:48:57.041043,-178
2021-12-10 13:48:57.041051,-169
2021-12-10 13:48:57.041059,-164
2021-12-10 13:48:57.041068,-166
2021-12-10 13:48:57.041076,-162
2021-12-10 13:48:57.041085,-166
2021-12-10 13:48:57.041093,-176
2021-12-10 13:48:57.041102,-159
2021-12-10 13:48:57.041110,-143
2021-12-10 13:48:57.041119,-135
2021-12-10 13:48:57.041127,-131
2021-12-10 13:48:57.041136,-138
2021-12-10 13:48:57.041144,-138
2021-12-10 13:48:57.041152,-116
2021-12-10 13:48:57.041161,-104
2021-12-10 13:48:57.041169,-97
2021-12-10 13:48:57.041178,-69
2021-12-10 13:48:57.041186,-50
2021-12-10 13:48:57.041194,-59
2021-12-10 13:48:57.041203,-52
2021-12-10 13:48:57.309486,-33
2021-12-10 13:48:57.309510,-42
2021-12-10 13:48:57.309519,-57
2021-12-10 13:48:57.309528,-69
2021-12-10 13:48:57.309536,-90
2021-12-10 13:48:57.309552,-90
2021-12-10 13:48:57.309561,-66
2021-12-10 13:48:57.309569,-59
2021-12-10 13:48:57.309578,-76
2021-12-10 13:48:57.309586,-104
2021-12-10 13:48:57.309594,-154
2021-12-10 13:48:57.309602,-271
2021-12-10 13:48:57.309611,-309
2021-12-10 13:48:57.309619,83
2021-12-10 13:48:57.309628,951
2021-12-10 13:48:57.309636,1752
2021-12-10 13:48:57.309644,1623
2021-12-10 13:48:57.309652,498
2021-12-10 13:48:57.309661,-383
2021-12-10 13:48:57.309669,-331
2021-12-10 13:48:57.309677,-126
2021-12-10 13:48:57.309685,-243
2021-12-10 13:48:57.309694,-290
2021-12-10 13:48:57.309702,-190
2021-12-10 13:48:57.309710,-181
2021-12-10 13:48:57.309718,-195
2021-12-10 13:48:57.309727,-164
2021-12-10 13:48:57.309735,-154
2021-12-10 13:48:57.309743,-143
2021-12-10 13:48:57.309751,-107
2021-12-10 13:48:57.535456,-85
2021-12-10 13:48:57.535477,-71
2021-12-10 13:48:57.535487,-61
2021-12-10 13:48:57.535496,-54
2021-12-10 13:48:57.535504,-33
2021-12-10 13:48:57.535513,-11
2021-12-10 13:48:57.535521,-7
2021-12-10 13:48:57.535529,2
2021-12-10 13:48:57.535538,2
2021-12-10 13:48:57.535546,-4
2021-12-10 13:48:57.535554,21
2021-12-10 13:48:57.535563,57
2021-12-10 13:48:57.535571,71
2021-12-10 13:48:57.535579,69
2021-12-10 13:48:57.535587,45
2021-12-10 13:48:57.535596,19
2021-12-10 13:48:57.535604,21
2021-12-10 13:48:57.535613,21
2021-12-10 13:48:57.535621,-7
2021-12-10 13:48:57.535629,-40
2021-12-10 13:48:57.535638,-64
2021-12-10 13:48:57.535646,-83
2021-12-10 13:48:57.535654,-88
2021-12-10 13:48:57.535663,-83
2021-12-10 13:48:57.535671,-81
2021-12-10 13:48:57.535679,-81
2021-12-10 13:48:57.535688,-88
2021-12-10 13:48:57.535696,-85
2021-12-10 13:48:57.535704,-69
2021-12-10 13:48:57.535713,-52
2021-12-10 13:48:57.715465,-45
2021-12-10 13:48:57.715488,-40
2021-12-10 13:48:57.715497,-47
2021-12-10 13:48:57.715506,-52
2021-12-10 13:48:57.715514,-42
2021-12-10 13:48:57.715523,-30
2021-12-10 13:48:57.715531,-19
2021-12-10 13:48:57.715539,-21
2021-12-10 13:48:57.715548,-52
2021-12-10 13:48:57.715556,-83
2021-12-10 13:48:57.715564,-83
2021-12-10 13:48:57.715573,-83
2021-12-10 13:48:57.715581,-97
2021-12-10 13:48:57.715589,-121
2021-12-10 13:48:57.715598,-143
2021-12-10 13:48:57.715606,-138
2021-12-10 13:48:57.715614,-116
2021-12-10 13:48:57.715623,-128
2021-12-10 13:48:57.715631,-176
2021-12-10 13:48:57.715639,-212
2021-12-10 13:48:57.715647,-207
2021-12-10 13:48:57.715656,-188
2021-12-10 13:48:57.715664,-178
2021-12-10 13:48:57.715672,-162
2021-12-10 13:48:57.715680,-152
2021-12-10 13:48:57.715689,-152
2021-12-10 13:48:57.715697,-143
2021-12-10 13:48:57.715705,-126
2021-12-10 13:48:57.715713,-119
2021-12-10 13:48:57.715722,-104
2021-12-10 13:48:58.075189,-90
2021-12-10 13:48:58.075209,-95
2021-12-10 13:48:58.075219,-102
2021-12-10 13:48:58.075228,-69
2021-12-10 13:48:58.075236,-16
2021-12-10 13:48:58.075245,-9
2021-12-10 13:48:58.075253,-42
2021-12-10 13:48:58.075262,-59
2021-12-10 13:48:58.075270,-59
2021-12-10 13:48:58.075279,-78
2021-12-10 13:48:58.075287,-100
2021-12-10 13:48:58.075296,-95
2021-12-10 13:48:58.075304,-92
2021-12-10 13:48:58.075313,-114
2021-12-10 13:48:58.075321,-114
2021-12-10 13:48:58.075329,-92
2021-12-10 13:48:58.075338,-90
2021-12-10 13:48:58.075346,-112
2021-12-10 13:48:58.075355,-209
2021-12-10 13:48:58.075363,-283
2021-12-10 13:48:58.075372,-2
2021-12-10 13:48:58.075380,751
2021-12-10 13:48:58.075389,1640
2021-12-10 13:48:58.075397,1876
2021-12-10 13:48:58.075405,968
2021-12-10 13:48:58.075414,-133
2021-12-10 13:48:58.075422,-307
2021-12-10 13:48:58.075431,-35
2021-12-10 13:48:58.075439,-76
2021-12-10 13:48:58.075447,-176
2021-12-10 13:48:58.165913,-109
2021-12-10 13:48:58.165936,-100
2021-12-10 13:48:58.165945,-126
2021-12-10 13:48:58.165954,-81
2021-12-10 13:48:58.165962,-50
2021-12-10 13:48:58.165971,-66
2021-12-10 13:48:58.165979,-88
2021-12-10 13:48:58.165987,-88
2021-12-10 13:48:58.165996,-61
2021-12-10 13:48:58.166004,-40
2021-12-10 13:48:58.166012,-30
2021-12-10 13:48:58.166021,-33
2021-12-10 13:48:58.166029,-38
2021-12-10 13:48:58.166037,-28
2021-12-10 13:48:58.166045,-4
2021-12-10 13:48:58.166053,14
2021-12-10 13:48:58.166062,38
2021-12-10 13:48:58.166070,45
2021-12-10 13:48:58.166078,26
2021-12-10 13:48:58.166087,33
2021-12-10 13:48:58.166095,54
2021-12-10 13:48:58.166103,42
2021-12-10 13:48:58.166111,28
2021-12-10 13:48:58.166119,16
2021-12-10 13:48:58.166127,-23
2021-12-10 13:48:58.166136,-57
2021-12-10 13:48:58.166144,-45
2021-12-10 13:48:58.166152,-40
2021-12-10 13:48:58.166160,-57
2021-12-10 13:48:58.166169,-69
2021-12-10 13:48:58.390724,-78
2021-12-10 13:48:58.390742,-95
2021-12-10 13:48:58.390752,-107
2021-12-10 13:48:58.390760,-119
2021-12-10 13:48:58.390769,-143
2021-12-10 13:48:58.390777,-174
2021-12-10 13:48:58.390786,-176
2021-12-10 13:48:58.390794,-154
2021-12-10 13:48:58.390803,-143
2021-12-10 13:48:58.390811,-140
2021-12-10 13:48:58.390820,-140
2021-12-10 13:48:58.390828,-154
2021-12-10 13:48:58.390836,-162
2021-12-10 13:48:58.390845,-150
2021-12-10 13:48:58.390853,-159
2021-12-10 13:48:58.390861,-176
2021-12-10 13:48:58.390870,-166
2021-12-10 13:48:58.390878,-157
2021-12-10 13:48:58.390886,-150
2021-12-10 13:48:58.390895,-128
2021-12-10 13:48:58.390903,-116
2021-12-10 13:48:58.390912,-116
2021-12-10 13:48:58.390920,-109
2021-12-10 13:48:58.390928,-100
2021-12-10 13:48:58.390936,-88
2021-12-10 13:48:58.390945,-71
2021-12-10 13:48:58.390953,-64
2021-12-10 13:48:58.390961,-64
2021-12-10 13:48:58.390969,-66
2021-12-10 13:48:58.390978,-69
2021-12-10 13:48:58.615505,-57
2021-12-10 13:48:58.615528,-35
2021-12-10 13:48:58.615537,-28
2021-12-10 13:48:58.615546,-33
2021-12-10 13:48:58.615554,-54
2021-12-10 13:48:58.615563,-73
2021-12-10 13:48:58.615571,-59
2021-12-10 13:48:58.615580,-30
2021-12-10 13:48:58.615588,-30
2021-12-10 13:48:58.615596,-40
2021-12-10 13:48:58.615605,-50
2021-12-10 13:48:58.615613,-61
2021-12-10 13:48:58.615621,-57
2021-12-10 13:48:58.615629,-33
2021-12-10 13:48:58.615638,-11
2021-12-10 13:48:58.615646,9
2021-12-10 13:48:58.615655,0
2021-12-10 13:48:58.615663,-21
2021-12-10 13:48:58.615671,-7
2021-12-10 13:48:58.615679,4
2021-12-10 13:48:58.615688,-16
2021-12-10 13:48:58.615696,-28
2021-12-10 13:48:58.615704,-26
2021-12-10 13:48:58.615712,-26
2021-12-10 13:48:58.615721,-11
2021-12-10 13:48:58.615729,2
2021-12-10 13:48:58.615737,9
2021-12-10 13:48:58.615745,0
2021-12-10 13:48:58.615754,-50
2021-12-10 13:48:58.615762,-200
2021-12-10 13:48:58.840435,-288
2021-12-10 13:48:58.840456,30
2021-12-10 13:48:58.840465,798
2021-12-10 13:48:58.840474,1628
2021-12-10 13:48:58.840482,1735
2021-12-10 13:48:58.840491,760
2021-12-10 13:48:58.840499,-262
2021-12-10 13:48:58.840507,-352
2021-12-10 13:48:58.840516,-97
2021-12-10 13:48:58.840524,-185
2021-12-10 13:48:58.840532,-305
2021-12-10 13:48:58.840540,-221
2021-12-10 13:48:58.840549,-181
2021-12-10 13:48:58.840557,-207
2021-12-10 13:48:58.840565,-178
2021-12-10 13:48:58.840573,-164
2021-12-10 13:48:58.840582,-171
2021-12-10 13:48:58.840590,-150
2021-12-10 13:48:58.840598,-140
2021-12-10 13:48:58.840606,-162
2021-12-10 13:48:58.840615,-164
2021-12-10 13:48:58.840623,-157
2021-12-10 13:48:58.840631,-164
2021-12-10 13:48:58.840640,-154
2021-12-10 13:48:58.840648,-116
2021-12-10 13:48:58.840656,-90
2021-12-10 13:48:58.840664,-81
2021-12-10 13:48:58.840672,-76
2021-12-10 13:48:58.840680,-57
2021-12-10 13:48:58.840689,-33
2021-12-10 13:48:59.110883,-16
2021-12-10 13:48:59.110905,-16
2021-12-10 13:48:59.110915,-28
2021-12-10 13:48:59.110923,-66
2021-12-10 13:48:59.110932,-95
2021-12-10 13:48:59.110940,-83
2021-12-10 13:48:59.110949,-71
2021-12-10 13:48:59.110957,-76
2021-12-10 13:48:59.110965,-88
2021-12-10 13:48:59.110974,-119
2021-12-10 13:48:59.110982,-128
2021-12-10 13:48:59.110990,-104
2021-12-10 13:48:59.110998,-92
2021-12-10 13:48:59.111007,-88
2021-12-10 13:48:59.111015,-85
2021-12-10 13:48:59.111024,-97
2021-12-10 13:48:59.111032,-92
2021-12-10 13:48:59.111040,-69
2021-12-10 13:48:59.111049,-52
2021-12-10 13:48:59.111057,-47
2021-12-10 13:48:59.111065,-57
2021-12-10 13:48:59.111074,-73
2021-12-10 13:48:59.111083,-64
2021-12-10 13:48:59.111092,-40
2021-12-10 13:48:59.111100,-33
2021-12-10 13:48:59.111108,-26
2021-12-10 13:48:59.111117,-21
2021-12-10 13:48:59.111125,-38
2021-12-10 13:48:59.111134,-38
2021-12-10 13:48:59.111142,-14
2021-12-10 13:48:59.379515,2
2021-12-10 13:48:59.379538,9
2021-12-10 13:48:59.379547,4
2021-12-10 13:48:59.379556,-16
2021-12-10 13:48:59.379565,-26
2021-12-10 13:48:59.379573,-47
2021-12-10 13:48:59.379581,-66
2021-12-10 13:48:59.379590,-57
2021-12-10 13:48:59.379598,-73
2021-12-10 13:48:59.379606,-102
2021-12-10 13:48:59.379615,-83
2021-12-10 13:48:59.379623,-52
2021-12-10 13:48:59.379631,-50
2021-12-10 13:48:59.379640,-52
2021-12-10 13:48:59.379648,-76
2021-12-10 13:48:59.379656,-95
2021-12-10 13:48:59.379665,-83
2021-12-10 13:48:59.379673,-76
2021-12-10 13:48:59.379681,-83
2021-12-10 13:48:59.379690,-78
2021-12-10 13:48:59.379698,-81
2021-12-10 13:48:59.379706,-85
2021-12-10 13:48:59.379715,-90
2021-12-10 13:48:59.379723,-102
2021-12-10 13:48:59.379731,-97
2021-12-10 13:48:59.379739,-64
2021-12-10 13:48:59.379748,-40
2021-12-10 13:48:59.379756,-40
2021-12-10 13:48:59.379764,-38
2021-12-10 13:48:59.379772,-21
2021-12-10 13:48:59.560478,-19
2021-12-10 13:48:59.560499,-42
2021-12-10 13:48:59.560509,-59
2021-12-10 13:48:59.560517,-57
2021-12-10 13:48:59.560526,-42
2021-12-10 13:48:59.560534,-33
2021-12-10 13:48:59.560542,-35
2021-12-10 13:48:59.560550,-61
2021-12-10 13:48:59.560559,-97
2021-12-10 13:48:59.560567,-147
2021-12-10 13:48:59.560576,-259
2021-12-10 13:48:59.560584,-295
2021-12-10 13:48:59.560592,42
2021-12-10 13:48:59.560600,791
2021-12-10 13:48:59.560609,1564
2021-12-10 13:48:59.560617,1590
2021-12-10 13:48:59.560625,596
2021-12-10 13:48:59.560634,-331
2021-12-10 13:48:59.560642,-357
2021-12-10 13:48:59.560650,-133
2021-12-10 13:48:59.560658,-221
2021-12-10 13:48:59.560667,-283
2021-12-10 13:48:59.560675,-197
2021-12-10 13:48:59.560683,-183
2021-12-10 13:48:59.560691,-224
2021-12-10 13:48:59.560700,-221
2021-12-10 13:48:59.560708,-195
2021-12-10 13:48:59.560716,-181
2021-12-10 13:48:59.560724,-166
2021-12-10 13:48:59.560732,-140
2021-12-10 13:48:59.830511,-119
2021-12-10 13:48:59.830533,-107
2021-12-10 13:48:59.830543,-95
2021-12-10 13:48:59.830552,-81
2021-12-10 13:48:59.830560,-50
2021-12-10 13:48:59.830569,-19
2021-12-10 13:48:59.830577,-16
2021-12-10 13:48:59.830585,-33
2021-12-10 13:48:59.830594,-21
2021-12-10 13:48:59.830602,9
2021-12-10 13:48:59.830611,16
2021-12-10 13:48:59.830619,-9
2021-12-10 13:48:59.830627,-64
2021-12-10 13:48:59.830636,-95
2021-12-10 13:48:59.830644,-88
2021-12-10 13:48:59.830652,-81
2021-12-10 13:48:59.830660,-88
2021-12-10 13:48:59.830669,-92
2021-12-10 13:48:59.830677,-90
2021-12-10 13:48:59.830685,-81
2021-12-10 13:48:59.830694,-85
2021-12-10 13:48:59.830702,-97
2021-12-10 13:48:59.830710,-88
2021-12-10 13:48:59.830718,-66
2021-12-10 13:48:59.830727,-64
2021-12-10 13:48:59.830736,-76
2021-12-10 13:48:59.830744,-90
2021-12-10 13:48:59.830752,-85
2021-12-10 13:48:59.830761,-61
2021-12-10 13:48:59.830769,-57
2021-12-10 13:49:00.010468,-73
2021-12-10 13:49:00.010492,-73
2021-12-10 13:49:00.010502,-61
2021-12-10 13:49:00.010511,-52
2021-12-10 13:49:00.010519,-35
2021-12-10 13:49:00.010528,-30
2021-12-10 13:49:00.010536,-47
2021-12-10 13:49:00.010545,-64
2021-12-10 13:49:00.010553,-64
2021-12-10 13:49:00.010562,-64
2021-12-10 13:49:00.010570,-64
2021-12-10 13:49:00.010579,-66
2021-12-10 13:49:00.010587,-85
2021-12-10 13:49:00.010596,-95
2021-12-10 13:49:00.010604,-81
2021-12-10 13:49:00.010613,-76
2021-12-10 13:49:00.010621,-83
2021-12-10 13:49:00.010630,-83
2021-12-10 13:49:00.010638,-92
2021-12-10 13:49:00.010646,-95
2021-12-10 13:49:00.010655,-81
2021-12-10 13:49:00.010663,-71
2021-12-10 13:49:00.010672,-69
2021-12-10 13:49:00.010680,-61
2021-12-10 13:49:00.010688,-54
2021-12-10 13:49:00.010697,-50
2021-12-10 13:49:00.010706,-50
2021-12-10 13:49:00.010714,-64
2021-12-10 13:49:00.010722,-90
2021-12-10 13:49:00.010731,-123
2021-12-10 13:49:00.235888,-140
2021-12-10 13:49:00.235911,-121
2021-12-10 13:49:00.235921,-102
2021-12-10 13:49:00.235929,-102
2021-12-10 13:49:00.235938,-104
2021-12-10 13:49:00.235946,-109
2021-12-10 13:49:00.235955,-97
2021-12-10 13:49:00.235963,-71
2021-12-10 13:49:00.235972,-64
2021-12-10 13:49:00.235980,-66
2021-12-10 13:49:00.235988,-88
2021-12-10 13:49:00.235997,-131
2021-12-10 13:49:00.236005,-135
2021-12-10 13:49:00.236013,-107
2021-12-10 13:49:00.236021,-107
2021-12-10 13:49:00.236030,-112
2021-12-10 13:49:00.236038,-102
2021-12-10 13:49:00.236047,-116
2021-12-10 13:49:00.236055,-145
2021-12-10 13:49:00.236063,-171
2021-12-10 13:49:00.236072,-262
2021-12-10 13:49:00.236080,-283
2021-12-10 13:49:00.236088,66
2021-12-10 13:49:00.236097,817
2021-12-10 13:49:00.236105,1585
2021-12-10 13:49:00.236114,1576
2021-12-10 13:49:00.236122,562
2021-12-10 13:49:00.236130,-319
2021-12-10 13:49:00.236139,-298
2021-12-10 13:49:00.236147,-83
2021-12-10 13:49:00.460517,-188
2021-12-10 13:49:00.460540,-255
2021-12-10 13:49:00.460549,-176
2021-12-10 13:49:00.460558,-169
2021-12-10 13:49:00.460567,-200
2021-12-10 13:49:00.460575,-181
2021-12-10 13:49:00.460584,-159
2021-12-10 13:49:00.460592,-143
2021-12-10 13:49:00.460663,-119
2021-12-10 13:49:00.460673,-109
2021-12-10 13:49:00.460682,-121
2021-12-10 13:49:00.460690,-123
2021-12-10 13:49:00.460699,-90
2021-12-10 13:49:00.460707,-54
2021-12-10 13:49:00.460715,-38
2021-12-10 13:49:00.460724,-28
2021-12-10 13:49:00.460732,-21
2021-12-10 13:49:00.460741,-2
2021-12-10 13:49:00.460749,30
2021-12-10 13:49:00.460757,50
2021-12-10 13:49:00.460766,64
2021-12-10 13:49:00.460774,69
2021-12-10 13:49:00.460782,47
2021-12-10 13:49:00.460791,40
2021-12-10 13:49:00.460799,52
2021-12-10 13:49:00.460807,50
2021-12-10 13:49:00.460815,33
2021-12-10 13:49:00.460824,23
2021-12-10 13:49:00.460832,19
2021-12-10 13:49:00.460840,26
2021-12-10 13:49:00.685868,42
2021-12-10 13:49:00.685891,38
2021-12-10 13:49:00.685900,2
2021-12-10 13:49:00.685909,-45
2021-12-10 13:49:00.685918,-83
2021-12-10 13:49:00.685926,-95
2021-12-10 13:49:00.685935,-78
2021-12-10 13:49:00.685943,-61
2021-12-10 13:49:00.685951,-64
2021-12-10 13:49:00.685960,-78
2021-12-10 13:49:00.685968,-104
2021-12-10 13:49:00.685977,-107
2021-12-10 13:49:00.685985,-83
2021-12-10 13:49:00.685993,-64
2021-12-10 13:49:00.686002,-57
2021-12-10 13:49:00.686010,-61
2021-12-10 13:49:00.686019,-71
2021-12-10 13:49:00.686027,-61
2021-12-10 13:49:00.686035,-40
2021-12-10 13:49:00.686043,-30
2021-12-10 13:49:00.686052,-30
2021-12-10 13:49:00.686060,-40
2021-12-10 13:49:00.686068,-78
2021-12-10 13:49:00.686076,-112
2021-12-10 13:49:00.686085,-102
2021-12-10 13:49:00.686093,-97
2021-12-10 13:49:00.686101,-121
2021-12-10 13:49:00.686109,-143
2021-12-10 13:49:00.686118,-150
2021-12-10 13:49:00.686126,-143
2021-12-10 13:49:00.955869,-126
2021-12-10 13:49:00.955891,-114
2021-12-10 13:49:00.955900,-123
2021-12-10 13:49:00.955909,-152
2021-12-10 13:49:00.955918,-178
2021-12-10 13:49:00.955926,-181
2021-12-10 13:49:00.955934,-166
2021-12-10 13:49:00.955943,-154
2021-12-10 13:49:00.955951,-159
2021-12-10 13:49:00.955960,-188
2021-12-10 13:49:00.955968,-183
2021-12-10 13:49:00.955976,-140
2021-12-10 13:49:00.955984,-119
2021-12-10 13:49:00.955993,-112
2021-12-10 13:49:00.956001,-83
2021-12-10 13:49:00.956009,-61
2021-12-10 13:49:00.956017,-66
2021-12-10 13:49:00.956025,-59
2021-12-10 13:49:00.956033,-45
2021-12-10 13:49:00.956042,-54
2021-12-10 13:49:00.956050,-71
2021-12-10 13:49:00.956058,-81
