Time,ECG
2021-12-10 13:53:33.267661,-59
2021-12-10 13:53:33.267680,-66
2021-12-10 13:53:33.267690,-76
2021-12-10 13:53:33.267698,-73
2021-12-10 13:53:33.267707,-57
2021-12-10 13:53:33.267715,-45
2021-12-10 13:53:33.267724,-45
2021-12-10 13:53:33.267732,-66
2021-12-10 13:53:33.267741,-85
2021-12-10 13:53:33.267749,-76
2021-12-10 13:53:33.267758,-54
2021-12-10 13:53:33.267766,-35
2021-12-10 13:53:33.267775,-21
2021-12-10 13:53:33.267783,-19
2021-12-10 13:53:33.267791,-21
2021-12-10 13:53:33.267799,-33
2021-12-10 13:53:33.267808,-54
2021-12-10 13:53:33.267817,-71
2021-12-10 13:53:33.267825,-71
2021-12-10 13:53:33.267833,-73
2021-12-10 13:53:33.267842,-78
2021-12-10 13:53:33.267850,-73
2021-12-10 13:53:33.267858,-57
2021-12-10 13:53:33.267866,-38
2021-12-10 13:53:33.267874,-30
2021-12-10 13:53:33.267883,-40
2021-12-10 13:53:33.267891,-81
2021-12-10 13:53:33.267900,-193
2021-12-10 13:53:33.267908,-197
2021-12-10 13:53:33.267917,205
2021-12-10 13:53:33.298054,1015
2021-12-10 13:53:33.298071,1783
2021-12-10 13:53:33.298081,1702
2021-12-10 13:53:33.298089,622
2021-12-10 13:53:33.298098,-255
2021-12-10 13:53:33.298106,-205
2021-12-10 13:53:33.298115,-16
2021-12-10 13:53:33.298124,-147
2021-12-10 13:53:33.298132,-193
2021-12-10 13:53:33.298141,-112
2021-12-10 13:53:33.298149,-104
2021-12-10 13:53:33.298157,-112
2021-12-10 13:53:33.298166,-100
2021-12-10 13:53:33.298174,-109
2021-12-10 13:53:33.298182,-97
2021-12-10 13:53:33.298190,-73
2021-12-10 13:53:33.298199,-59
2021-12-10 13:53:33.298208,-42
2021-12-10 13:53:33.298216,-35
2021-12-10 13:53:33.298225,-59
2021-12-10 13:53:33.298233,-90
2021-12-10 13:53:33.298241,-85
2021-12-10 13:53:33.298250,-45
2021-12-10 13:53:33.298258,-21
2021-12-10 13:53:33.298267,-14
2021-12-10 13:53:33.298275,2
2021-12-10 13:53:33.298283,21
2021-12-10 13:53:33.298290,23
2021-12-10 13:53:33.298298,23
2021-12-10 13:53:33.298308,23
2021-12-10 13:53:33.478582,16
2021-12-10 13:53:33.478604,9
2021-12-10 13:53:33.478614,4
2021-12-10 13:53:33.478623,-9
2021-12-10 13:53:33.478631,-16
2021-12-10 13:53:33.478639,-30
2021-12-10 13:53:33.478648,-59
2021-12-10 13:53:33.478656,-54
2021-12-10 13:53:33.478664,-45
2021-12-10 13:53:33.478672,-69
2021-12-10 13:53:33.478681,-88
2021-12-10 13:53:33.478689,-95
2021-12-10 13:53:33.478698,-114
2021-12-10 13:53:33.478721,-131
2021-12-10 13:53:33.478730,-121
2021-12-10 13:53:33.478738,-107
2021-12-10 13:53:33.478747,-104
2021-12-10 13:53:33.478755,-116
2021-12-10 13:53:33.478763,-126
2021-12-10 13:53:33.478771,-114
2021-12-10 13:53:33.478780,-126
2021-12-10 13:53:33.478788,-143
2021-12-10 13:53:33.478796,-133
2021-12-10 13:53:33.478805,-140
2021-12-10 13:53:33.478813,-157
2021-12-10 13:53:33.478821,-133
2021-12-10 13:53:33.478830,-112
2021-12-10 13:53:33.478838,-116
2021-12-10 13:53:33.478846,-107
2021-12-10 13:53:33.478857,-95
2021-12-10 13:53:33.658787,-92
2021-12-10 13:53:33.658808,-78
2021-12-10 13:53:33.658817,-69
2021-12-10 13:53:33.658826,-59
2021-12-10 13:53:33.658835,-26
2021-12-10 13:53:33.658843,-7
2021-12-10 13:53:33.658852,-11
2021-12-10 13:53:33.658860,4
2021-12-10 13:53:33.658869,9
2021-12-10 13:53:33.658877,-14
2021-12-10 13:53:33.658886,-35
2021-12-10 13:53:33.658894,-52
2021-12-10 13:53:33.658903,-52
2021-12-10 13:53:33.658911,-33
2021-12-10 13:53:33.658920,-23
2021-12-10 13:53:33.658928,-23
2021-12-10 13:53:33.658936,-35
2021-12-10 13:53:33.658948,-95
2021-12-10 13:53:33.658957,-205
2021-12-10 13:53:33.658966,-193
2021-12-10 13:53:33.658974,214
2021-12-10 13:53:33.658983,1063
2021-12-10 13:53:33.658991,1905
2021-12-10 13:53:33.658999,1831
2021-12-10 13:53:33.659008,643
2021-12-10 13:53:33.659016,-331
2021-12-10 13:53:33.659025,-305
2021-12-10 13:53:33.659033,-107
2021-12-10 13:53:33.659042,-209
2021-12-10 13:53:33.659050,-233
2021-12-10 13:53:33.883500,-154
2021-12-10 13:53:33.883522,-152
2021-12-10 13:53:33.883532,-152
2021-12-10 13:53:33.883541,-119
2021-12-10 13:53:33.883549,-133
2021-12-10 13:53:33.883557,-143
2021-12-10 13:53:33.883566,-102
2021-12-10 13:53:33.883578,-71
2021-12-10 13:53:33.883587,-61
2021-12-10 13:53:33.883595,-50
2021-12-10 13:53:33.883604,-50
2021-12-10 13:53:33.883612,-42
2021-12-10 13:53:33.883620,-4
2021-12-10 13:53:33.883629,23
2021-12-10 13:53:33.883638,19
2021-12-10 13:53:33.883646,7
2021-12-10 13:53:33.883654,9
2021-12-10 13:53:33.883663,23
2021-12-10 13:53:33.883671,38
2021-12-10 13:53:33.883679,38
2021-12-10 13:53:33.883688,21
2021-12-10 13:53:33.883696,-4
2021-12-10 13:53:33.883704,-30
2021-12-10 13:53:33.883712,-42
2021-12-10 13:53:33.883721,-57
2021-12-10 13:53:33.883729,-66
2021-12-10 13:53:33.883737,-61
2021-12-10 13:53:33.883746,-69
2021-12-10 13:53:33.883754,-83
2021-12-10 13:53:33.883763,-78
2021-12-10 13:53:34.198263,-61
2021-12-10 13:53:34.198285,-50
2021-12-10 13:53:34.198294,-52
2021-12-10 13:53:34.198303,-81
2021-12-10 13:53:34.198311,-114
2021-12-10 13:53:34.198320,-114
2021-12-10 13:53:34.198328,-107
2021-12-10 13:53:34.198337,-119
2021-12-10 13:53:34.198345,-128
2021-12-10 13:53:34.198354,-145
2021-12-10 13:53:34.198362,-154
2021-12-10 13:53:34.198371,-133
2021-12-10 13:53:34.198379,-116
2021-12-10 13:53:34.198388,-116
2021-12-10 13:53:34.198396,-114
2021-12-10 13:53:34.198405,-123
2021-12-10 13:53:34.198413,-128
2021-12-10 13:53:34.198421,-114
2021-12-10 13:53:34.198430,-97
2021-12-10 13:53:34.198438,-83
2021-12-10 13:53:34.198447,-76
2021-12-10 13:53:34.198455,-73
2021-12-10 13:53:34.198464,-57
2021-12-10 13:53:34.198472,-38
2021-12-10 13:53:34.198485,-21
2021-12-10 13:53:34.198494,-19
2021-12-10 13:53:34.198502,-69
2021-12-10 13:53:34.198511,-116
2021-12-10 13:53:34.198519,-97
2021-12-10 13:53:34.198528,-66
2021-12-10 13:53:34.378794,-66
2021-12-10 13:53:34.378815,-76
2021-12-10 13:53:34.378824,-116
2021-12-10 13:53:34.378833,-154
2021-12-10 13:53:34.378842,-140
2021-12-10 13:53:34.378850,-171
2021-12-10 13:53:34.378859,-286
2021-12-10 13:53:34.378867,-226
2021-12-10 13:53:34.378875,274
2021-12-10 13:53:34.378884,1142
2021-12-10 13:53:34.378892,1888
2021-12-10 13:53:34.378901,1614
2021-12-10 13:53:34.378909,340
2021-12-10 13:53:34.378918,-460
2021-12-10 13:53:34.378926,-293
2021-12-10 13:53:34.378935,-145
2021-12-10 13:53:34.378943,-269
2021-12-10 13:53:34.378951,-247
2021-12-10 13:53:34.378960,-157
2021-12-10 13:53:34.378968,-166
2021-12-10 13:53:34.378977,-185
2021-12-10 13:53:34.378985,-162
2021-12-10 13:53:34.378995,-135
2021-12-10 13:53:34.379003,-109
2021-12-10 13:53:34.379012,-81
2021-12-10 13:53:34.379020,-59
2021-12-10 13:53:34.379029,-59
2021-12-10 13:53:34.379037,-57
2021-12-10 13:53:34.379045,-42
2021-12-10 13:53:34.379053,-30
2021-12-10 13:53:34.648431,-11
2021-12-10 13:53:34.648452,16
2021-12-10 13:53:34.648462,26
2021-12-10 13:53:34.648471,33
2021-12-10 13:53:34.648480,61
2021-12-10 13:53:34.648488,90
2021-12-10 13:53:34.648497,97
2021-12-10 13:53:34.648505,76
2021-12-10 13:53:34.648514,30
2021-12-10 13:53:34.648522,-16
2021-12-10 13:53:34.648531,-30
2021-12-10 13:53:34.648539,-19
2021-12-10 13:53:34.648548,-16
2021-12-10 13:53:34.648556,-45
2021-12-10 13:53:34.648565,-85
2021-12-10 13:53:34.648573,-95
2021-12-10 13:53:34.648581,-83
2021-12-10 13:53:34.648590,-73
2021-12-10 13:53:34.648598,-66
2021-12-10 13:53:34.648607,-66
2021-12-10 13:53:34.648615,-66
2021-12-10 13:53:34.648624,-61
2021-12-10 13:53:34.648632,-47
2021-12-10 13:53:34.648640,-33
2021-12-10 13:53:34.648652,-16
2021-12-10 13:53:34.648661,-11
2021-12-10 13:53:34.648669,-21
2021-12-10 13:53:34.648678,-19
2021-12-10 13:53:34.648686,-2
2021-12-10 13:53:34.648694,-11
2021-12-10 13:53:34.829214,-54
2021-12-10 13:53:34.829236,-90
2021-12-10 13:53:34.829246,-102
2021-12-10 13:53:34.829255,-109
2021-12-10 13:53:34.829263,-112
2021-12-10 13:53:34.829271,-95
2021-12-10 13:53:34.829280,-81
2021-12-10 13:53:34.829288,-102
2021-12-10 13:53:34.829296,-140
2021-12-10 13:53:34.829305,-143
2021-12-10 13:53:34.829313,-109
2021-12-10 13:53:34.829321,-78
2021-12-10 13:53:34.829330,-71
2021-12-10 13:53:34.829338,-88
2021-12-10 13:53:34.829346,-85
2021-12-10 13:53:34.829354,-81
2021-12-10 13:53:34.829363,-95
2021-12-10 13:53:34.829371,-90
2021-12-10 13:53:34.829380,-81
2021-12-10 13:53:34.829388,-97
2021-12-10 13:53:34.829396,-109
2021-12-10 13:53:34.829405,-95
2021-12-10 13:53:34.829413,-76
2021-12-10 13:53:34.829421,-57
2021-12-10 13:53:34.829430,-71
2021-12-10 13:53:34.829438,-181
2021-12-10 13:53:34.829447,-269
2021-12-10 13:53:34.829455,-16
2021-12-10 13:53:34.829463,734
2021-12-10 13:53:34.829472,1702
2021-12-10 13:53:35.053816,2069
2021-12-10 13:53:35.053837,1177
2021-12-10 13:53:35.053846,-100
2021-12-10 13:53:35.053854,-410
2021-12-10 13:53:35.053862,-92
2021-12-10 13:53:35.053871,-95
2021-12-10 13:53:35.053880,-238
2021-12-10 13:53:35.053888,-190
2021-12-10 13:53:35.053897,-143
2021-12-10 13:53:35.053909,-166
2021-12-10 13:53:35.053956,-143
2021-12-10 13:53:35.053970,-102
2021-12-10 13:53:35.053978,-112
2021-12-10 13:53:35.053987,-126
2021-12-10 13:53:35.053996,-95
2021-12-10 13:53:35.054004,-64
2021-12-10 13:53:35.054013,-47
2021-12-10 13:53:35.054021,-19
2021-12-10 13:53:35.054030,-2
2021-12-10 13:53:35.054038,9
2021-12-10 13:53:35.054050,40
2021-12-10 13:53:35.054062,69
2021-12-10 13:53:35.054070,83
2021-12-10 13:53:35.054079,100
2021-12-10 13:53:35.054087,107
2021-12-10 13:53:35.054096,112
2021-12-10 13:53:35.054104,121
2021-12-10 13:53:35.054113,121
2021-12-10 13:53:35.054121,109
2021-12-10 13:53:35.054130,100
2021-12-10 13:53:35.322086,85
2021-12-10 13:53:35.322107,78
2021-12-10 13:53:35.322116,76
2021-12-10 13:53:35.322125,57
2021-12-10 13:53:35.322133,11
2021-12-10 13:53:35.322142,-42
2021-12-10 13:53:35.322150,-73
2021-12-10 13:53:35.322158,-71
2021-12-10 13:53:35.322166,-69
2021-12-10 13:53:35.322174,-73
2021-12-10 13:53:35.322185,-64
2021-12-10 13:53:35.322194,-64
2021-12-10 13:53:35.322202,-81
2021-12-10 13:53:35.322210,-92
2021-12-10 13:53:35.322219,-119
2021-12-10 13:53:35.322227,-131
2021-12-10 13:53:35.322235,-114
2021-12-10 13:53:35.322243,-104
2021-12-10 13:53:35.322252,-107
2021-12-10 13:53:35.322260,-85
2021-12-10 13:53:35.322268,-66
2021-12-10 13:53:35.322277,-69
2021-12-10 13:53:35.322285,-61
2021-12-10 13:53:35.322293,-50
2021-12-10 13:53:35.322302,-52
2021-12-10 13:53:35.322310,-59
2021-12-10 13:53:35.322318,-59
2021-12-10 13:53:35.322327,-66
2021-12-10 13:53:35.322335,-85
2021-12-10 13:53:35.322343,-90
2021-12-10 13:53:35.548458,-83
2021-12-10 13:53:35.548479,-64
2021-12-10 13:53:35.548488,-33
2021-12-10 13:53:35.548496,-7
2021-12-10 13:53:35.548503,-21
2021-12-10 13:53:35.548510,-52
2021-12-10 13:53:35.548517,-78
2021-12-10 13:53:35.548525,-102
2021-12-10 13:53:35.548532,-100
2021-12-10 13:53:35.548539,-85
2021-12-10 13:53:35.548547,-95
2021-12-10 13:53:35.548555,-112
2021-12-10 13:53:35.548563,-90
2021-12-10 13:53:35.548571,-57
2021-12-10 13:53:35.548579,-59
2021-12-10 13:53:35.548587,-81
2021-12-10 13:53:35.548596,-150
2021-12-10 13:53:35.548604,-267
2021-12-10 13:53:35.548612,-159
2021-12-10 13:53:35.548621,429
2021-12-10 13:53:35.548629,1373
2021-12-10 13:53:35.548637,2031
2021-12-10 13:53:35.548646,1549
2021-12-10 13:53:35.548654,250
2021-12-10 13:53:35.548662,-371
2021-12-10 13:53:35.548675,-100
2021-12-10 13:53:35.548683,9
2021-12-10 13:53:35.548692,-150
2021-12-10 13:53:35.548700,-126
2021-12-10 13:53:35.548709,-52
2021-12-10 13:53:35.773769,-73
2021-12-10 13:53:35.773788,-54
2021-12-10 13:53:35.773798,-11
2021-12-10 13:53:35.773806,-26
2021-12-10 13:53:35.773815,-35
2021-12-10 13:53:35.773823,-9
2021-12-10 13:53:35.773831,19
2021-12-10 13:53:35.773840,30
2021-12-10 13:53:35.773848,26
2021-12-10 13:53:35.773857,11
2021-12-10 13:53:35.773865,9
2021-12-10 13:53:35.773873,21
2021-12-10 13:53:35.773881,45
2021-12-10 13:53:35.773890,76
2021-12-10 13:53:35.773898,92
2021-12-10 13:53:35.773906,90
2021-12-10 13:53:35.773914,73
2021-12-10 13:53:35.773923,71
2021-12-10 13:53:35.773931,73
2021-12-10 13:53:35.773939,38
2021-12-10 13:53:35.773948,0
2021-12-10 13:53:35.773956,0
2021-12-10 13:53:35.773964,-2
2021-12-10 13:53:35.773972,-16
2021-12-10 13:53:35.773981,-9
2021-12-10 13:53:35.773989,0
2021-12-10 13:53:35.773997,-9
2021-12-10 13:53:35.774006,-40
2021-12-10 13:53:35.774014,-61
2021-12-10 13:53:35.774022,-47
2021-12-10 13:53:36.043952,-28
2021-12-10 13:53:36.043972,-19
2021-12-10 13:53:36.043981,-21
2021-12-10 13:53:36.043990,-54
2021-12-10 13:53:36.043999,-76
2021-12-10 13:53:36.044007,-52
2021-12-10 13:53:36.044016,-23
2021-12-10 13:53:36.044024,-23
2021-12-10 13:53:36.044033,-21
2021-12-10 13:53:36.044041,-7
2021-12-10 13:53:36.044050,-14
2021-12-10 13:53:36.044058,-42
2021-12-10 13:53:36.044066,-38
2021-12-10 13:53:36.044075,-9
2021-12-10 13:53:36.044083,-9
2021-12-10 13:53:36.044092,-50
2021-12-10 13:53:36.044105,-69
2021-12-10 13:53:36.044114,-52
2021-12-10 13:53:36.044122,-52
2021-12-10 13:53:36.044131,-61
2021-12-10 13:53:36.044139,-76
2021-12-10 13:53:36.044147,-104
2021-12-10 13:53:36.044156,-107
2021-12-10 13:53:36.044164,-81
2021-12-10 13:53:36.044173,-73
2021-12-10 13:53:36.044181,-71
2021-12-10 13:53:36.044190,-54
2021-12-10 13:53:36.044198,-35
2021-12-10 13:53:36.044206,-28
2021-12-10 13:53:36.044215,-28
2021-12-10 13:53:36.268831,-16
2021-12-10 13:53:36.268853,-16
2021-12-10 13:53:36.268862,-40
2021-12-10 13:53:36.268871,-54
2021-12-10 13:53:36.268880,-47
2021-12-10 13:53:36.268888,-38
2021-12-10 13:53:36.268896,-30
2021-12-10 13:53:36.268905,-21
2021-12-10 13:53:36.268913,-19
2021-12-10 13:53:36.268921,-42
2021-12-10 13:53:36.268930,-73
2021-12-10 13:53:36.268938,-159
2021-12-10 13:53:36.268947,-226
2021-12-10 13:53:36.268955,50
2021-12-10 13:53:36.268963,803
2021-12-10 13:53:36.268972,1647
2021-12-10 13:53:36.268980,1766
2021-12-10 13:53:36.268988,789
2021-12-10 13:53:36.268997,-224
2021-12-10 13:53:36.269005,-305
2021-12-10 13:53:36.269013,-88
2021-12-10 13:53:36.269021,-188
2021-12-10 13:53:36.269030,-255
2021-12-10 13:53:36.269038,-169
2021-12-10 13:53:36.269046,-183
2021-12-10 13:53:36.269054,-231
2021-12-10 13:53:36.269063,-200
2021-12-10 13:53:36.269071,-169
2021-12-10 13:53:36.269079,-166
2021-12-10 13:53:36.269087,-150
2021-12-10 13:53:36.448499,-123
2021-12-10 13:53:36.448519,-95
2021-12-10 13:53:36.448529,-85
2021-12-10 13:53:36.448538,-83
2021-12-10 13:53:36.448547,-64
2021-12-10 13:53:36.448555,-28
2021-12-10 13:53:36.448564,4
2021-12-10 13:53:36.448573,16
2021-12-10 13:53:36.448581,-2
2021-12-10 13:53:36.448590,-7
2021-12-10 13:53:36.448599,21
2021-12-10 13:53:36.448607,45
2021-12-10 13:53:36.448616,52
2021-12-10 13:53:36.448629,50
2021-12-10 13:53:36.448638,23
2021-12-10 13:53:36.448646,-7
2021-12-10 13:53:36.448655,-9
2021-12-10 13:53:36.448663,9
2021-12-10 13:53:36.448672,9
2021-12-10 13:53:36.448680,-16
2021-12-10 13:53:36.448689,-61
2021-12-10 13:53:36.448697,-78
2021-12-10 13:53:36.448706,-66
2021-12-10 13:53:36.448714,-59
2021-12-10 13:53:36.448722,-50
2021-12-10 13:53:36.448731,-42
2021-12-10 13:53:36.448740,-57
2021-12-10 13:53:36.448748,-52
2021-12-10 13:53:36.448756,-26
2021-12-10 13:53:36.448765,-21
2021-12-10 13:53:36.673783,-23
2021-12-10 13:53:36.673804,-14
2021-12-10 13:53:36.673813,-11
2021-12-10 13:53:36.673822,-14
2021-12-10 13:53:36.673830,-16
2021-12-10 13:53:36.673839,-11
2021-12-10 13:53:36.673847,-7
2021-12-10 13:53:36.673856,-21
2021-12-10 13:53:36.673864,-40
2021-12-10 13:53:36.673872,-38
2021-12-10 13:53:36.673881,-42
2021-12-10 13:53:36.673889,-64
2021-12-10 13:53:36.673898,-76
2021-12-10 13:53:36.673906,-104
2021-12-10 13:53:36.673914,-131
2021-12-10 13:53:36.673922,-121
2021-12-10 13:53:36.673931,-114
2021-12-10 13:53:36.673939,-131
2021-12-10 13:53:36.673947,-133
2021-12-10 13:53:36.673955,-121
2021-12-10 13:53:36.673964,-121
2021-12-10 13:53:36.673972,-116
2021-12-10 13:53:36.673980,-97
2021-12-10 13:53:36.673988,-85
2021-12-10 13:53:36.673996,-83
2021-12-10 13:53:36.674004,-85
2021-12-10 13:53:36.674013,-81
2021-12-10 13:53:36.674021,-71
2021-12-10 13:53:36.674029,-40
2021-12-10 13:53:36.674037,-21
2021-12-10 13:53:36.898733,-61
2021-12-10 13:53:36.898752,-88
2021-12-10 13:53:36.898762,-66
2021-12-10 13:53:36.898771,-76
2021-12-10 13:53:36.898779,-97
2021-12-10 13:53:36.898788,-81
2021-12-10 13:53:36.898796,-83
2021-12-10 13:53:36.898804,-109
2021-12-10 13:53:36.898813,-97
2021-12-10 13:53:36.898821,-73
2021-12-10 13:53:36.898830,-69
2021-12-10 13:53:36.898838,-66
2021-12-10 13:53:36.898846,-133
2021-12-10 13:53:36.898855,-276
2021-12-10 13:53:36.898863,-233
2021-12-10 13:53:36.898872,243
2021-12-10 13:53:36.898880,1101
2021-12-10 13:53:36.898891,1857
2021-12-10 13:53:36.898900,1623
2021-12-10 13:53:36.898908,412
2021-12-10 13:53:36.898917,-369
2021-12-10 13:53:36.898925,-207
2021-12-10 13:53:36.898933,-40
2021-12-10 13:53:36.898942,-176
2021-12-10 13:53:36.898950,-195
2021-12-10 13:53:36.898958,-114
2021-12-10 13:53:36.898967,-121
2021-12-10 13:53:36.898975,-131
2021-12-10 13:53:36.898983,-85
2021-12-10 13:53:36.898992,-69
2021-12-10 13:53:37.258097,-81
2021-12-10 13:53:37.258116,-57
2021-12-10 13:53:37.258126,-21
2021-12-10 13:53:37.258134,-14
2021-12-10 13:53:37.258143,-11
2021-12-10 13:53:37.258151,2
2021-12-10 13:53:37.258160,4
2021-12-10 13:53:37.258168,14
2021-12-10 13:53:37.258176,40
2021-12-10 13:53:37.258185,52
2021-12-10 13:53:37.258193,61
2021-12-10 13:53:37.258201,50
2021-12-10 13:53:37.258210,11
2021-12-10 13:53:37.258218,9
2021-12-10 13:53:37.258226,30
2021-12-10 13:53:37.258235,19
2021-12-10 13:53:37.258243,-2
2021-12-10 13:53:37.258251,-9
2021-12-10 13:53:37.258259,-11
2021-12-10 13:53:37.258268,-14
2021-12-10 13:53:37.258276,-23
2021-12-10 13:53:37.258285,-42
2021-12-10 13:53:37.258293,-45
2021-12-10 13:53:37.258301,-42
2021-12-10 13:53:37.258310,-54
2021-12-10 13:53:37.258318,-45
2021-12-10 13:53:37.258326,-26
2021-12-10 13:53:37.258335,-26
2021-12-10 13:53:37.258343,-21
2021-12-10 13:53:37.258351,-19
2021-12-10 13:53:37.392115,-33
2021-12-10 13:53:37.392142,-35
2021-12-10 13:53:37.392151,-38
2021-12-10 13:53:37.392160,-57
2021-12-10 13:53:37.392168,-76
2021-12-10 13:53:37.392177,-92
2021-12-10 13:53:37.392185,-112
2021-12-10 13:53:37.392193,-119
2021-12-10 13:53:37.392202,-107
2021-12-10 13:53:37.392210,-107
2021-12-10 13:53:37.392218,-123
2021-12-10 13:53:37.392227,-135
2021-12-10 13:53:37.392235,-126
2021-12-10 13:53:37.392243,-102
2021-12-10 13:53:37.392252,-95
2021-12-10 13:53:37.392260,-102
2021-12-10 13:53:37.392269,-112
2021-12-10 13:53:37.392277,-128
2021-12-10 13:53:37.392285,-128
2021-12-10 13:53:37.392293,-102
2021-12-10 13:53:37.392302,-90
2021-12-10 13:53:37.392310,-90
2021-12-10 13:53:37.392318,-83
2021-12-10 13:53:37.392327,-90
2021-12-10 13:53:37.392335,-90
2021-12-10 13:53:37.392343,-71
2021-12-10 13:53:37.392352,-57
2021-12-10 13:53:37.392360,-57
2021-12-10 13:53:37.392368,-64
2021-12-10 13:53:37.392380,-71
2021-12-10 13:53:37.573845,-52
2021-12-10 13:53:37.573866,-21
2021-12-10 13:53:37.573875,9
2021-12-10 13:53:37.573884,16
2021-12-10 13:53:37.573892,-16
2021-12-10 13:53:37.573901,-30
2021-12-10 13:53:37.573909,-16
2021-12-10 13:53:37.573918,-16
2021-12-10 13:53:37.573926,-23
2021-12-10 13:53:37.573934,-26
2021-12-10 13:53:37.573943,-54
2021-12-10 13:53:37.573951,-73
2021-12-10 13:53:37.573960,-54
2021-12-10 13:53:37.573968,-26
2021-12-10 13:53:37.573976,-19
2021-12-10 13:53:37.573985,-40
2021-12-10 13:53:37.573993,-126
2021-12-10 13:53:37.574001,-231
2021-12-10 13:53:37.574010,-92
2021-12-10 13:53:37.574018,493
2021-12-10 13:53:37.574027,1394
2021-12-10 13:53:37.574035,1993
2021-12-10 13:53:37.574043,1466
2021-12-10 13:53:37.574052,212
2021-12-10 13:53:37.574060,-343
2021-12-10 13:53:37.574069,-114
2021-12-10 13:53:37.574077,-54
2021-12-10 13:53:37.574085,-197
2021-12-10 13:53:37.574094,-183
2021-12-10 13:53:37.574102,-135
2021-12-10 13:53:37.843365,-154
2021-12-10 13:53:37.843383,-140
2021-12-10 13:53:37.843393,-109
2021-12-10 13:53:37.843401,-126
2021-12-10 13:53:37.843410,-150
2021-12-10 13:53:37.843418,-128
2021-12-10 13:53:37.843426,-100
2021-12-10 13:53:37.843435,-85
2021-12-10 13:53:37.843443,-66
2021-12-10 13:53:37.843451,-69
2021-12-10 13:53:37.843460,-85
2021-12-10 13:53:37.843468,-76
2021-12-10 13:53:37.843476,-71
2021-12-10 13:53:37.843484,-78
2021-12-10 13:53:37.843493,-54
2021-12-10 13:53:37.843501,-45
2021-12-10 13:53:37.843509,-54
2021-12-10 13:53:37.843518,-42
2021-12-10 13:53:37.843526,-40
2021-12-10 13:53:37.843534,-69
2021-12-10 13:53:37.843542,-102
2021-12-10 13:53:37.843551,-133
2021-12-10 13:53:37.843559,-159
2021-12-10 13:53:37.843567,-157
2021-12-10 13:53:37.843576,-133
2021-12-10 13:53:37.843584,-116
2021-12-10 13:53:37.843592,-121
2021-12-10 13:53:37.843600,-140
2021-12-10 13:53:37.843609,-140
2021-12-10 13:53:37.843617,-116
2021-12-10 13:53:38.068745,-102
2021-12-10 13:53:38.068764,-95
2021-12-10 13:53:38.068774,-90
2021-12-10 13:53:38.068783,-88
2021-12-10 13:53:38.068791,-85
2021-12-10 13:53:38.068800,-73
2021-12-10 13:53:38.068808,-64
2021-12-10 13:53:38.068817,-54
2021-12-10 13:53:38.068825,-54
2021-12-10 13:53:38.068833,-76
2021-12-10 13:53:38.068842,-78
2021-12-10 13:53:38.068850,-57
2021-12-10 13:53:38.068859,-47
2021-12-10 13:53:38.068867,-42
2021-12-10 13:53:38.068876,-52
2021-12-10 13:53:38.068884,-73
2021-12-10 13:53:38.068893,-76
2021-12-10 13:53:38.068901,-59
2021-12-10 13:53:38.068910,-42
2021-12-10 13:53:38.068918,-33
2021-12-10 13:53:38.068932,-33
2021-12-10 13:53:38.068941,-42
2021-12-10 13:53:38.068949,-33
2021-12-10 13:53:38.068958,-23
2021-12-10 13:53:38.068966,-19
2021-12-10 13:53:38.068975,2
2021-12-10 13:53:38.068983,11
2021-12-10 13:53:38.068992,-2
2021-12-10 13:53:38.069000,-7
2021-12-10 13:53:38.069008,-16
2021-12-10 13:53:38.293699,-28
2021-12-10 13:53:38.293717,-11
2021-12-10 13:53:38.293727,-7
2021-12-10 13:53:38.293736,-26
2021-12-10 13:53:38.293744,-19
2021-12-10 13:53:38.293753,2
2021-12-10 13:53:38.293761,14
2021-12-10 13:53:38.293769,23
2021-12-10 13:53:38.293778,23
2021-12-10 13:53:38.293786,14
2021-12-10 13:53:38.293795,19
2021-12-10 13:53:38.293803,40
2021-12-10 13:53:38.293811,50
2021-12-10 13:53:38.293820,26
2021-12-10 13:53:38.293828,-16
2021-12-10 13:53:38.293836,-42
2021-12-10 13:53:38.293845,-21
2021-12-10 13:53:38.293853,-7
2021-12-10 13:53:38.293862,-54
2021-12-10 13:53:38.293870,-102
2021-12-10 13:53:38.293878,-95
2021-12-10 13:53:38.293887,-102
2021-12-10 13:53:38.293895,-178
2021-12-10 13:53:38.293903,-276
2021-12-10 13:53:38.293912,-145
2021-12-10 13:53:38.293920,443
2021-12-10 13:53:38.293929,1359
2021-12-10 13:53:38.293937,1967
2021-12-10 13:53:38.293946,1425
2021-12-10 13:53:38.293954,147
2021-12-10 13:53:38.518486,-405
2021-12-10 13:53:38.518506,-157
2021-12-10 13:53:38.518515,-95
2021-12-10 13:53:38.518524,-231
2021-12-10 13:53:38.518533,-183
2021-12-10 13:53:38.518541,-123
2021-12-10 13:53:38.518549,-154
2021-12-10 13:53:38.518557,-164
2021-12-10 13:53:38.518566,-159
2021-12-10 13:53:38.518574,-171
2021-12-10 13:53:38.518582,-162
2021-12-10 13:53:38.518590,-147
2021-12-10 13:53:38.518599,-152
2021-12-10 13:53:38.518607,-162
2021-12-10 13:53:38.518615,-169
2021-12-10 13:53:38.518624,-150
2021-12-10 13:53:38.518632,-119
2021-12-10 13:53:38.518641,-97
2021-12-10 13:53:38.518649,-88
2021-12-10 13:53:38.518657,-78
2021-12-10 13:53:38.518666,-61
2021-12-10 13:53:38.518674,-40
2021-12-10 13:53:38.518682,-30
2021-12-10 13:53:38.518690,-30
2021-12-10 13:53:38.518699,-35
2021-12-10 13:53:38.518707,-47
2021-12-10 13:53:38.518715,-64
2021-12-10 13:53:38.518724,-78
2021-12-10 13:53:38.518732,-81
2021-12-10 13:53:38.518740,-76
2021-12-10 13:53:38.743717,-71
2021-12-10 13:53:38.743735,-57
2021-12-10 13:53:38.743744,-45
2021-12-10 13:53:38.743753,-59
2021-12-10 13:53:38.743761,-66
2021-12-10 13:53:38.743769,-45
2021-12-10 13:53:38.743777,-50
2021-12-10 13:53:38.743785,-69
2021-12-10 13:53:38.743794,-54
2021-12-10 13:53:38.743802,-38
2021-12-10 13:53:38.743810,-38
2021-12-10 13:53:38.743818,-28
2021-12-10 13:53:38.743827,-28
2021-12-10 13:53:38.743835,-47
2021-12-10 13:53:38.743843,-42
2021-12-10 13:53:38.743851,-26
2021-12-10 13:53:38.743860,-14
2021-12-10 13:53:38.743868,-7
2021-12-10 13:53:38.743876,-11
2021-12-10 13:53:38.743884,-14
2021-12-10 13:53:38.743893,-9
2021-12-10 13:53:38.743901,-7
2021-12-10 13:53:38.743912,0
2021-12-10 13:53:38.743921,-2
2021-12-10 13:53:38.743929,-38
2021-12-10 13:53:38.743938,-52
2021-12-10 13:53:38.743946,-28
2021-12-10 13:53:38.743954,-19
2021-12-10 13:53:38.743962,-26
2021-12-10 13:53:38.743970,-19
2021-12-10 13:53:39.013372,-11
2021-12-10 13:53:39.013391,-2
2021-12-10 13:53:39.013401,4
2021-12-10 13:53:39.013411,0
2021-12-10 13:53:39.013421,-7
2021-12-10 13:53:39.013430,-21
2021-12-10 13:53:39.013439,-57
2021-12-10 13:53:39.013448,-59
2021-12-10 13:53:39.013457,-33
2021-12-10 13:53:39.013466,-42
2021-12-10 13:53:39.013475,-69
2021-12-10 13:53:39.013484,-78
2021-12-10 13:53:39.013493,-83
2021-12-10 13:53:39.013502,-78
2021-12-10 13:53:39.013511,-50
2021-12-10 13:53:39.013520,-16
2021-12-10 13:53:39.013529,-7
2021-12-10 13:53:39.013538,-16
2021-12-10 13:53:39.013547,-19
2021-12-10 13:53:39.013555,-11
2021-12-10 13:53:39.013564,-21
2021-12-10 13:53:39.013573,-30
2021-12-10 13:53:39.013582,-23
2021-12-10 13:53:39.013591,-16
2021-12-10 13:53:39.013600,-16
2021-12-10 13:53:39.013609,-7
2021-12-10 13:53:39.013618,2
2021-12-10 13:53:39.013627,-4
2021-12-10 13:53:39.013635,-57
2021-12-10 13:53:39.013644,-193
2021-12-10 13:53:39.238769,-212
2021-12-10 13:53:39.238789,221
2021-12-10 13:53:39.238798,1108
2021-12-10 13:53:39.238807,1938
2021-12-10 13:53:39.238816,1816
2021-12-10 13:53:39.238824,600
2021-12-10 13:53:39.238832,-391
2021-12-10 13:53:39.238841,-340
2021-12-10 13:53:39.238849,-112
2021-12-10 13:53:39.238858,-252
2021-12-10 13:53:39.238866,-312
2021-12-10 13:53:39.238875,-231
2021-12-10 13:53:39.238883,-243
2021-12-10 13:53:39.238891,-250
2021-12-10 13:53:39.238900,-197
2021-12-10 13:53:39.238908,-178
2021-12-10 13:53:39.238916,-183
2021-12-10 13:53:39.238925,-188
2021-12-10 13:53:39.238933,-181
2021-12-10 13:53:39.238941,-147
2021-12-10 13:53:39.238950,-119
2021-12-10 13:53:39.238958,-104
2021-12-10 13:53:39.238966,-88
2021-12-10 13:53:39.238975,-71
2021-12-10 13:53:39.238983,-50
2021-12-10 13:53:39.238992,-28
2021-12-10 13:53:39.239000,-7
2021-12-10 13:53:39.239008,11
2021-12-10 13:53:39.239017,23
2021-12-10 13:53:39.239025,-2
2021-12-10 13:53:39.462570,-42
2021-12-10 13:53:39.462590,-35
2021-12-10 13:53:39.462600,-19
2021-12-10 13:53:39.462609,-42
2021-12-10 13:53:39.462617,-73
2021-12-10 13:53:39.462626,-81
2021-12-10 13:53:39.462634,-71
2021-12-10 13:53:39.462643,-54
2021-12-10 13:53:39.462651,-47
2021-12-10 13:53:39.462659,-76
2021-12-10 13:53:39.462667,-109
2021-12-10 13:53:39.462676,-97
2021-12-10 13:53:39.462684,-66
2021-12-10 13:53:39.462692,-59
2021-12-10 13:53:39.462700,-59
2021-12-10 13:53:39.462708,-57
2021-12-10 13:53:39.462717,-73
2021-12-10 13:53:39.462725,-81
2021-12-10 13:53:39.462733,-57
2021-12-10 13:53:39.462742,-35
2021-12-10 13:53:39.462750,-33
2021-12-10 13:53:39.462758,-38
2021-12-10 13:53:39.462767,-40
2021-12-10 13:53:39.462775,-23
2021-12-10 13:53:39.462783,-9
2021-12-10 13:53:39.462791,-9
2021-12-10 13:53:39.462800,-4
2021-12-10 13:53:39.462808,-2
2021-12-10 13:53:39.462816,-7
2021-12-10 13:53:39.462825,-4
2021-12-10 13:53:39.643770,14
2021-12-10 13:53:39.643789,30
2021-12-10 13:53:39.643799,28
2021-12-10 13:53:39.643807,-2
2021-12-10 13:53:39.643816,-50
2021-12-10 13:53:39.643827,-61
2021-12-10 13:53:39.643836,-33
2021-12-10 13:53:39.643844,-19
2021-12-10 13:53:39.643852,-23
2021-12-10 13:53:39.643861,-45
2021-12-10 13:53:39.643869,-76
2021-12-10 13:53:39.643877,-83
2021-12-10 13:53:39.643886,-76
2021-12-10 13:53:39.643894,-71
2021-12-10 13:53:39.643902,-71
2021-12-10 13:53:39.643910,-81
2021-12-10 13:53:39.643918,-73
2021-12-10 13:53:39.643927,-38
2021-12-10 13:53:39.643935,-2
2021-12-10 13:53:39.643943,7
2021-12-10 13:53:39.643951,2
2021-12-10 13:53:39.643959,0
2021-12-10 13:53:39.643967,-14
2021-12-10 13:53:39.643976,-28
2021-12-10 13:53:39.643984,-30
2021-12-10 13:53:39.643992,-40
2021-12-10 13:53:39.644000,-47
2021-12-10 13:53:39.644008,-61
2021-12-10 13:53:39.644017,-76
2021-12-10 13:53:39.644025,-64
2021-12-10 13:53:39.913753,-54
2021-12-10 13:53:39.913771,-104
2021-12-10 13:53:39.913781,-245
2021-12-10 13:53:39.913789,-274
2021-12-10 13:53:39.913798,147
2021-12-10 13:53:39.913806,1018
2021-12-10 13:53:39.913814,1816
2021-12-10 13:53:39.913823,1664
2021-12-10 13:53:39.913831,457
2021-12-10 13:53:39.913840,-460
2021-12-10 13:53:39.913848,-340
2021-12-10 13:53:39.913856,-107
2021-12-10 13:53:39.913865,-259
2021-12-10 13:53:39.913873,-326
2021-12-10 13:53:39.913881,-252
2021-12-10 13:53:39.913890,-264
2021-12-10 13:53:39.913898,-267
2021-12-10 13:53:39.913906,-207
2021-12-10 13:53:39.913914,-188
2021-12-10 13:53:39.913923,-178
2021-12-10 13:53:39.913931,-152
2021-12-10 13:53:39.913939,-147
2021-12-10 13:53:39.913948,-135
2021-12-10 13:53:39.913956,-100
2021-12-10 13:53:39.913965,-71
2021-12-10 13:53:39.913973,-47
2021-12-10 13:53:39.913981,-38
2021-12-10 13:53:39.913990,-33
2021-12-10 13:53:39.913998,-7
2021-12-10 13:53:39.914006,26
2021-12-10 13:53:40.138822,42
2021-12-10 13:53:40.138842,47
2021-12-10 13:53:40.138851,42
2021-12-10 13:53:40.138860,26
2021-12-10 13:53:40.138868,26
2021-12-10 13:53:40.138877,23
2021-12-10 13:53:40.138885,7
2021-12-10 13:53:40.138894,-7
2021-12-10 13:53:40.138902,-28
2021-12-10 13:53:40.138910,-50
2021-12-10 13:53:40.138919,-33
2021-12-10 13:53:40.138927,-14
2021-12-10 13:53:40.138935,-7
2021-12-10 13:53:40.138944,-4
2021-12-10 13:53:40.138952,-30
2021-12-10 13:53:40.138960,-71
2021-12-10 13:53:40.138968,-76
2021-12-10 13:53:40.138977,-52
2021-12-10 13:53:40.138985,-38
2021-12-10 13:53:40.138993,-33
2021-12-10 13:53:40.139002,-35
2021-12-10 13:53:40.139010,-33
2021-12-10 13:53:40.139019,-21
2021-12-10 13:53:40.139027,-7
2021-12-10 13:53:40.139035,2
2021-12-10 13:53:40.139043,-2
2021-12-10 13:53:40.139052,-9
2021-12-10 13:53:40.139060,-2
2021-12-10 13:53:40.139068,7
2021-12-10 13:53:40.139077,9
2021-12-10 13:53:40.363473,19
2021-12-10 13:53:40.363493,28
2021-12-10 13:53:40.363502,19
2021-12-10 13:53:40.363511,9
2021-12-10 13:53:40.363520,21
2021-12-10 13:53:40.363528,23
2021-12-10 13:53:40.363536,2
2021-12-10 13:53:40.363545,-26
2021-12-10 13:53:40.363553,-47
2021-12-10 13:53:40.363561,-54
2021-12-10 13:53:40.363570,-81
2021-12-10 13:53:40.363578,-109
2021-12-10 13:53:40.363586,-102
2021-12-10 13:53:40.363595,-104
2021-12-10 13:53:40.363603,-128
2021-12-10 13:53:40.363612,-121
2021-12-10 13:53:40.363620,-102
2021-12-10 13:53:40.363628,-109
2021-12-10 13:53:40.363637,-123
2021-12-10 13:53:40.363645,-109
2021-12-10 13:53:40.363654,-81
2021-12-10 13:53:40.363662,-69
2021-12-10 13:53:40.363670,-59
2021-12-10 13:53:40.363678,-45
2021-12-10 13:53:40.363687,-47
2021-12-10 13:53:40.363695,-76
2021-12-10 13:53:40.363703,-102
2021-12-10 13:53:40.363712,-112
2021-12-10 13:53:40.363720,-114
2021-12-10 13:53:40.363728,-114
2021-12-10 13:53:40.588880,-116
2021-12-10 13:53:40.588904,-114
2021-12-10 13:53:40.588914,-119
2021-12-10 13:53:40.588922,-154
2021-12-10 13:53:40.588931,-257
2021-12-10 13:53:40.588939,-293
2021-12-10 13:53:40.588948,26
2021-12-10 13:53:40.588956,789
2021-12-10 13:53:40.588964,1642
2021-12-10 13:53:40.588973,1712
2021-12-10 13:53:40.588981,667
2021-12-10 13:53:40.588989,-319
2021-12-10 13:53:40.588998,-348
2021-12-10 13:53:40.589006,-119
2021-12-10 13:53:40.589014,-212
2021-12-10 13:53:40.589022,-276
2021-12-10 13:53:40.589031,-195
2021-12-10 13:53:40.589039,-174
2021-12-10 13:53:40.589047,-190
2021-12-10 13:53:40.589056,-176
2021-12-10 13:53:40.589064,-171
2021-12-10 13:53:40.589072,-164
2021-12-10 13:53:40.589080,-135
2021-12-10 13:53:40.589089,-114
2021-12-10 13:53:40.589097,-109
2021-12-10 13:53:40.589105,-92
2021-12-10 13:53:40.589114,-59
2021-12-10 13:53:40.589122,-42
2021-12-10 13:53:40.589130,-33
2021-12-10 13:53:40.589139,-11
2021-12-10 13:53:40.858168,7
2021-12-10 13:53:40.858187,23
2021-12-10 13:53:40.858196,40
2021-12-10 13:53:40.858205,42
2021-12-10 13:53:40.858213,45
2021-12-10 13:53:40.858222,40
2021-12-10 13:53:40.858230,9
2021-12-10 13:53:40.858238,-14
2021-12-10 13:53:40.858247,-19
2021-12-10 13:53:40.858255,-28
2021-12-10 13:53:40.858263,-26
2021-12-10 13:53:40.858272,-26
2021-12-10 13:53:40.858280,-50
2021-12-10 13:53:40.858288,-50
2021-12-10 13:53:40.858297,-28
2021-12-10 13:53:40.858305,-45
2021-12-10 13:53:40.858313,-81
2021-12-10 13:53:40.858322,-90
2021-12-10 13:53:40.858330,-85
2021-12-10 13:53:40.858339,-76
2021-12-10 13:53:40.858347,-64
2021-12-10 13:53:40.858355,-73
2021-12-10 13:53:40.858364,-92
2021-12-10 13:53:40.858372,-90
2021-12-10 13:53:40.858380,-76
2021-12-10 13:53:40.858389,-64
2021-12-10 13:53:40.858397,-52
2021-12-10 13:53:40.858405,-52
2021-12-10 13:53:40.858413,-45
2021-12-10 13:53:40.858425,-35
2021-12-10 13:53:41.083774,-33
2021-12-10 13:53:41.083792,-26
2021-12-10 13:53:41.083802,-19
2021-12-10 13:53:41.083810,-19
2021-12-10 13:53:41.083819,-16
2021-12-10 13:53:41.083827,-16
2021-12-10 13:53:41.083836,-19
2021-12-10 13:53:41.083844,-16
2021-12-10 13:53:41.083852,-7
2021-12-10 13:53:41.083861,-11
2021-12-10 13:53:41.083869,-47
2021-12-10 13:53:41.083877,-76
2021-12-10 13:53:41.083885,-69
2021-12-10 13:53:41.083894,-45
2021-12-10 13:53:41.083902,-45
2021-12-10 13:53:41.083911,-54
2021-12-10 13:53:41.083919,-45
2021-12-10 13:53:41.083927,-28
2021-12-10 13:53:41.083936,-7
2021-12-10 13:53:41.083944,14
2021-12-10 13:53:41.083953,9
2021-12-10 13:53:41.083961,2
2021-12-10 13:53:41.083970,-7
2021-12-10 13:53:41.083978,-30
2021-12-10 13:53:41.083987,-50
2021-12-10 13:53:41.083995,-35
2021-12-10 13:53:41.084003,-19
2021-12-10 13:53:41.084012,-30
2021-12-10 13:53:41.084020,-33
2021-12-10 13:53:41.084029,-35
2021-12-10 13:53:41.263400,-57
2021-12-10 13:53:41.263419,-114
2021-12-10 13:53:41.263428,-240
2021-12-10 13:53:41.263437,-255
2021-12-10 13:53:41.263446,150
2021-12-10 13:53:41.263454,977
2021-12-10 13:53:41.263463,1771
2021-12-10 13:53:41.263471,1611
2021-12-10 13:53:41.263480,388
2021-12-10 13:53:41.263488,-464
2021-12-10 13:53:41.263497,-321
2021-12-10 13:53:41.263505,-143
2021-12-10 13:53:41.263514,-255
2021-12-10 13:53:41.263522,-250
2021-12-10 13:53:41.263531,-171
2021-12-10 13:53:41.263539,-190
2021-12-10 13:53:41.263547,-226
2021-12-10 13:53:41.263560,-202
2021-12-10 13:53:41.263569,-162
2021-12-10 13:53:41.263577,-147
2021-12-10 13:53:41.263585,-147
2021-12-10 13:53:41.263594,-169
2021-12-10 13:53:41.263602,-193
2021-12-10 13:53:41.263610,-166
2021-12-10 13:53:41.263619,-116
2021-12-10 13:53:41.263627,-114
2021-12-10 13:53:41.263636,-123
2021-12-10 13:53:41.263644,-107
2021-12-10 13:53:41.263652,-88
2021-12-10 13:53:41.263661,-69
2021-12-10 13:53:41.532171,-35
2021-12-10 13:53:41.532191,-19
2021-12-10 13:53:41.532200,-26
2021-12-10 13:53:41.532209,-54
2021-12-10 13:53:41.532217,-92
2021-12-10 13:53:41.532226,-104
2021-12-10 13:53:41.532234,-97
2021-12-10 13:53:41.532243,-97
2021-12-10 13:53:41.532251,-100
2021-12-10 13:53:41.532259,-112
2021-12-10 13:53:41.532268,-128
2021-12-10 13:53:41.532279,-109
2021-12-10 13:53:41.532287,-83
2021-12-10 13:53:41.532296,-76
2021-12-10 13:53:41.532304,-69
2021-12-10 13:53:41.532312,-71
2021-12-10 13:53:41.532320,-78
2021-12-10 13:53:41.532329,-59
2021-12-10 13:53:41.532337,-35
2021-12-10 13:53:41.532345,-23
2021-12-10 13:53:41.532353,-19
2021-12-10 13:53:41.532362,-26
2021-12-10 13:53:41.532370,-28
2021-12-10 13:53:41.532378,-7
2021-12-10 13:53:41.532386,9
2021-12-10 13:53:41.532395,11
2021-12-10 13:53:41.532403,16
2021-12-10 13:53:41.532411,4
2021-12-10 13:53:41.532420,-16
2021-12-10 13:53:41.532428,-7
2021-12-10 13:53:41.758801,9
2021-12-10 13:53:41.758820,11
2021-12-10 13:53:41.758830,-2
2021-12-10 13:53:41.758839,-35
2021-12-10 13:53:41.758847,-50
2021-12-10 13:53:41.758855,-30
2021-12-10 13:53:41.758864,-9
2021-12-10 13:53:41.758872,-7
2021-12-10 13:53:41.758880,-21
2021-12-10 13:53:41.758889,-50
2021-12-10 13:53:41.758897,-57
2021-12-10 13:53:41.758905,-30
2021-12-10 13:53:41.758914,4
2021-12-10 13:53:41.758922,28
2021-12-10 13:53:41.758930,23
2021-12-10 13:53:41.758938,-7
2021-12-10 13:53:41.758946,-26
2021-12-10 13:53:41.758955,-30
2021-12-10 13:53:41.758963,-35
2021-12-10 13:53:41.758971,-30
2021-12-10 13:53:41.758980,-33
2021-12-10 13:53:41.758988,-52
2021-12-10 13:53:41.758997,-47
2021-12-10 13:53:41.759005,-21
2021-12-10 13:53:41.759013,-14
2021-12-10 13:53:41.759022,-28
2021-12-10 13:53:41.759030,-121
2021-12-10 13:53:41.759038,-288
2021-12-10 13:53:41.759047,-207
2021-12-10 13:53:41.759055,407
2021-12-10 13:53:41.983781,1390
2021-12-10 13:53:41.983801,2050
2021-12-10 13:53:41.983810,1518
2021-12-10 13:53:41.983819,152
2021-12-10 13:53:41.983828,-479
2021-12-10 13:53:41.983837,-188
2021-12-10 13:53:41.983845,-92
2021-12-10 13:53:41.983854,-281
2021-12-10 13:53:41.983862,-283
2021-12-10 13:53:41.983871,-243
2021-12-10 13:53:41.983880,-269
2021-12-10 13:53:41.983888,-245
2021-12-10 13:53:41.983896,-202
2021-12-10 13:53:41.983905,-197
2021-12-10 13:53:41.983913,-212
2021-12-10 13:53:41.983922,-214
2021-12-10 13:53:41.983930,-185
2021-12-10 13:53:41.983939,-152
2021-12-10 13:53:41.983947,-131
2021-12-10 13:53:41.983956,-114
2021-12-10 13:53:41.983964,-104
2021-12-10 13:53:41.983972,-88
2021-12-10 13:53:41.983981,-59
2021-12-10 13:53:41.983989,-30
2021-12-10 13:53:41.983998,-14
2021-12-10 13:53:41.984006,0
2021-12-10 13:53:41.984015,-2
2021-12-10 13:53:41.984023,-11
2021-12-10 13:53:41.984031,-9
2021-12-10 13:53:41.984040,-7
2021-12-10 13:53:42.208797,-16
2021-12-10 13:53:42.208816,-38
2021-12-10 13:53:42.208826,-64
2021-12-10 13:53:42.208834,-71
2021-12-10 13:53:42.208843,-57
2021-12-10 13:53:42.208851,-47
2021-12-10 13:53:42.208860,-47
2021-12-10 13:53:42.208868,-61
2021-12-10 13:53:42.208876,-92
2021-12-10 13:53:42.208885,-90
2021-12-10 13:53:42.208893,-69
2021-12-10 13:53:42.208902,-59
2021-12-10 13:53:42.208910,-47
2021-12-10 13:53:42.208918,-54
2021-12-10 13:53:42.208927,-73
2021-12-10 13:53:42.208935,-69
2021-12-10 13:53:42.208944,-47
2021-12-10 13:53:42.208952,-33
2021-12-10 13:53:42.208960,-28
2021-12-10 13:53:42.208969,-30
2021-12-10 13:53:42.208977,-30
2021-12-10 13:53:42.208985,-23
2021-12-10 13:53:42.208994,-16
2021-12-10 13:53:42.209002,-9
2021-12-10 13:53:42.209010,-4
2021-12-10 13:53:42.209019,0
2021-12-10 13:53:42.209027,-2
2021-12-10 13:53:42.209036,-4
2021-12-10 13:53:42.209044,2
2021-12-10 13:53:42.209053,9
2021-12-10 13:53:42.478439,9
2021-12-10 13:53:42.478463,4
2021-12-10 13:53:42.478473,-21
2021-12-10 13:53:42.478481,-71
2021-12-10 13:53:42.478490,-97
2021-12-10 13:53:42.478498,-81
2021-12-10 13:53:42.478507,-83
2021-12-10 13:53:42.478515,-95
2021-12-10 13:53:42.478524,-64
2021-12-10 13:53:42.478532,-38
2021-12-10 13:53:42.478541,-40
2021-12-10 13:53:42.478549,-33
2021-12-10 13:53:42.478557,-42
2021-12-10 13:53:42.478565,-85
2021-12-10 13:53:42.478574,-95
2021-12-10 13:53:42.478582,-73
2021-12-10 13:53:42.478590,-64
2021-12-10 13:53:42.478599,-57
2021-12-10 13:53:42.478607,-50
2021-12-10 13:53:42.478615,-45
2021-12-10 13:53:42.478623,-45
2021-12-10 13:53:42.478632,-97
2021-12-10 13:53:42.478640,-240
2021-12-10 13:53:42.478648,-264
2021-12-10 13:53:42.478657,150
2021-12-10 13:53:42.478665,1032
2021-12-10 13:53:42.478673,1919
2021-12-10 13:53:42.478682,1855
2021-12-10 13:53:42.478690,641
2021-12-10 13:53:42.478698,-338
2021-12-10 13:53:42.658866,-264
2021-12-10 13:53:42.658886,-26
2021-12-10 13:53:42.658896,-154
2021-12-10 13:53:42.658904,-214
2021-12-10 13:53:42.658913,-119
2021-12-10 13:53:42.658921,-119
2021-12-10 13:53:42.658929,-159
2021-12-10 13:53:42.658938,-133
2021-12-10 13:53:42.658950,-100
2021-12-10 13:53:42.658959,-100
2021-12-10 13:53:42.658967,-85
2021-12-10 13:53:42.658976,-73
2021-12-10 13:53:42.658984,-97
2021-12-10 13:53:42.658992,-104
2021-12-10 13:53:42.659001,-83
2021-12-10 13:53:42.659009,-83
2021-12-10 13:53:42.659017,-81
2021-12-10 13:53:42.659026,-64
2021-12-10 13:53:42.659034,-71
2021-12-10 13:53:42.659042,-64
2021-12-10 13:53:42.659050,-35
2021-12-10 13:53:42.659059,-33
2021-12-10 13:53:42.659067,-38
2021-12-10 13:53:42.659075,-38
2021-12-10 13:53:42.659083,-50
2021-12-10 13:53:42.659091,-57
2021-12-10 13:53:42.659100,-61
2021-12-10 13:53:42.659108,-76
2021-12-10 13:53:42.659117,-76
2021-12-10 13:53:42.659125,-66
2021-12-10 13:53:42.927801,-61
2021-12-10 13:53:42.927820,-61
2021-12-10 13:53:42.927830,-57
2021-12-10 13:53:42.927839,-57
2021-12-10 13:53:42.927847,-61
2021-12-10 13:53:42.927856,-78
2021-12-10 13:53:42.927864,-90
2021-12-10 13:53:42.927873,-85
2021-12-10 13:53:42.927881,-100
2021-12-10 13:53:42.927889,-131
2021-12-10 13:53:42.927898,-123
2021-12-10 13:53:42.927906,-123
2021-12-10 13:53:42.927914,-140
2021-12-10 13:53:42.927923,-116
2021-12-10 13:53:42.927931,-90
2021-12-10 13:53:42.927939,-95
2021-12-10 13:53:42.927948,-92
2021-12-10 13:53:42.927956,-85
2021-12-10 13:53:42.927965,-78
2021-12-10 13:53:42.927973,-61
2021-12-10 13:53:42.927981,-54
2021-12-10 13:53:42.927990,-54
2021-12-10 13:53:42.927998,-52
2021-12-10 13:53:42.928006,-50
2021-12-10 13:53:42.928014,-42
2021-12-10 13:53:42.928023,-23
2021-12-10 13:53:42.928031,-14
2021-12-10 13:53:42.928039,-16
2021-12-10 13:53:42.928048,-19
2021-12-10 13:53:42.928056,-11
2021-12-10 13:53:43.153190,0
2021-12-10 13:53:43.153209,9
2021-12-10 13:53:43.153219,9
2021-12-10 13:53:43.153228,7
2021-12-10 13:53:43.153236,9
2021-12-10 13:53:43.153245,19
2021-12-10 13:53:43.153253,28
2021-12-10 13:53:43.153262,42
2021-12-10 13:53:43.153270,42
2021-12-10 13:53:43.153278,7
2021-12-10 13:53:43.153287,-47
2021-12-10 13:53:43.153296,-81
2021-12-10 13:53:43.153304,-66
2021-12-10 13:53:43.153313,-45
2021-12-10 13:53:43.153321,-40
2021-12-10 13:53:43.153330,-42
2021-12-10 13:53:43.153338,-54
2021-12-10 13:53:43.153347,-69
2021-12-10 13:53:43.153355,-131
2021-12-10 13:53:43.153364,-236
2021-12-10 13:53:43.153372,-116
2021-12-10 13:53:43.153381,498
2021-12-10 13:53:43.153389,1440
2021-12-10 13:53:43.153398,2026
2021-12-10 13:53:43.153406,1447
2021-12-10 13:53:43.153414,138
2021-12-10 13:53:43.153423,-429
2021-12-10 13:53:43.153431,-150
2021-12-10 13:53:43.153440,-76
2021-12-10 13:53:43.153448,-233
2021-12-10 13:53:43.333441,-193
2021-12-10 13:53:43.333461,-123
2021-12-10 13:53:43.333470,-154
2021-12-10 13:53:43.333479,-164
2021-12-10 13:53:43.333487,-159
2021-12-10 13:53:43.333496,-154
2021-12-10 13:53:43.333504,-119
2021-12-10 13:53:43.333512,-90
2021-12-10 13:53:43.333521,-92
2021-12-10 13:53:43.333529,-116
2021-12-10 13:53:43.333537,-128
2021-12-10 13:53:43.333546,-121
2021-12-10 13:53:43.333554,-121
2021-12-10 13:53:43.333562,-135
2021-12-10 13:53:43.333571,-159
2021-12-10 13:53:43.333579,-178
2021-12-10 13:53:43.333587,-178
2021-12-10 13:53:43.333596,-174
2021-12-10 13:53:43.333604,-181
2021-12-10 13:53:43.333612,-176
2021-12-10 13:53:43.333621,-169
2021-12-10 13:53:43.333629,-193
2021-12-10 13:53:43.333637,-221
2021-12-10 13:53:43.333645,-221
2021-12-10 13:53:43.333654,-214
2021-12-10 13:53:43.333662,-224
2021-12-10 13:53:43.333671,-228
2021-12-10 13:53:43.333679,-228
2021-12-10 13:53:43.333687,-226
2021-12-10 13:53:43.333696,-214
2021-12-10 13:53:43.647156,-212
2021-12-10 13:53:43.647176,-209
2021-12-10 13:53:43.647186,-214
2021-12-10 13:53:43.647195,-243
2021-12-10 13:53:43.647203,-255
2021-12-10 13:53:43.647212,-224
2021-12-10 13:53:43.647220,-197
2021-12-10 13:53:43.647229,-200
2021-12-10 13:53:43.647237,-205
2021-12-10 13:53:43.647245,-216
2021-12-10 13:53:43.647254,-221
2021-12-10 13:53:43.647262,-205
2021-12-10 13:53:43.647270,-183
2021-12-10 13:53:43.647279,-183
2021-12-10 13:53:43.647287,-214
2021-12-10 13:53:43.647295,-233
2021-12-10 13:53:43.647303,-212
2021-12-10 13:53:43.647311,-183
2021-12-10 13:53:43.647320,-169
2021-12-10 13:53:43.647328,-159
2021-12-10 13:53:43.647336,-164
2021-12-10 13:53:43.647344,-174
2021-12-10 13:53:43.647352,-157
2021-12-10 13:53:43.647361,-135
2021-12-10 13:53:43.647369,-123
2021-12-10 13:53:43.647377,-109
2021-12-10 13:53:43.647385,-107
2021-12-10 13:53:43.647393,-112
2021-12-10 13:53:43.647402,-97
2021-12-10 13:53:43.647410,-73
2021-12-10 13:53:43.828809,-57
2021-12-10 13:53:43.828828,-28
2021-12-10 13:53:43.828838,-11
2021-12-10 13:53:43.828846,-30
2021-12-10 13:53:43.828855,-30
2021-12-10 13:53:43.828863,-19
2021-12-10 13:53:43.828871,-26
2021-12-10 13:53:43.828880,-35
2021-12-10 13:53:43.828888,-50
2021-12-10 13:53:43.828896,-76
2021-12-10 13:53:43.828904,-71
2021-12-10 13:53:43.828912,-45
2021-12-10 13:53:43.828920,-40
2021-12-10 13:53:43.828929,-47
2021-12-10 13:53:43.828937,-102
2021-12-10 13:53:43.828945,-245
2021-12-10 13:53:43.828953,-293
2021-12-10 13:53:43.828961,47
2021-12-10 13:53:43.828970,810
2021-12-10 13:53:43.828978,1592
2021-12-10 13:53:43.828986,1573
2021-12-10 13:53:43.828994,519
2021-12-10 13:53:43.829002,-376
2021-12-10 13:53:43.829013,-333
2021-12-10 13:53:43.829021,-116
2021-12-10 13:53:43.829030,-207
2021-12-10 13:53:43.829038,-247
2021-12-10 13:53:43.829046,-188
2021-12-10 13:53:43.829055,-200
2021-12-10 13:53:43.829063,-205
2021-12-10 13:53:44.053823,-159
2021-12-10 13:53:44.053843,-138
2021-12-10 13:53:44.053853,-145
2021-12-10 13:53:44.053861,-135
2021-12-10 13:53:44.053870,-109
2021-12-10 13:53:44.053878,-83
2021-12-10 13:53:44.053887,-64
2021-12-10 13:53:44.053895,-64
2021-12-10 13:53:44.053904,-81
2021-12-10 13:53:44.053912,-73
2021-12-10 13:53:44.053920,-40
2021-12-10 13:53:44.053929,-7
2021-12-10 13:53:44.053937,7
2021-12-10 13:53:44.053945,-4
2021-12-10 13:53:44.053953,-23
2021-12-10 13:53:44.053962,-23
2021-12-10 13:53:44.053970,-19
2021-12-10 13:53:44.053978,-47
2021-12-10 13:53:44.053987,-102
2021-12-10 13:53:44.053995,-143
2021-12-10 13:53:44.054003,-166
2021-12-10 13:53:44.054012,-174
2021-12-10 13:53:44.054020,-157
2021-12-10 13:53:44.054028,-135
2021-12-10 13:53:44.054036,-128
2021-12-10 13:53:44.054044,-128
2021-12-10 13:53:44.054053,-128
2021-12-10 13:53:44.054061,-128
2021-12-10 13:53:44.054069,-121
2021-12-10 13:53:44.054077,-102
2021-12-10 13:53:44.278802,-90
2021-12-10 13:53:44.278821,-88
2021-12-10 13:53:44.278830,-85
2021-12-10 13:53:44.278838,-85
2021-12-10 13:53:44.278847,-81
2021-12-10 13:53:44.278855,-69
2021-12-10 13:53:44.278864,-66
2021-12-10 13:53:44.278872,-83
2021-12-10 13:53:44.278880,-97
2021-12-10 13:53:44.278889,-88
2021-12-10 13:53:44.278897,-71
2021-12-10 13:53:44.278905,-59
2021-12-10 13:53:44.278914,-64
2021-12-10 13:53:44.278922,-85
2021-12-10 13:53:44.278930,-88
2021-12-10 13:53:44.278939,-71
2021-12-10 13:53:44.278947,-66
2021-12-10 13:53:44.278956,-61
2021-12-10 13:53:44.278964,-52
2021-12-10 13:53:44.278972,-59
2021-12-10 13:53:44.278980,-78
2021-12-10 13:53:44.278989,-90
2021-12-10 13:53:44.278997,-71
2021-12-10 13:53:44.279005,-45
2021-12-10 13:53:44.279013,-33
2021-12-10 13:53:44.279021,-54
2021-12-10 13:53:44.279030,-95
2021-12-10 13:53:44.279038,-90
2021-12-10 13:53:44.279046,-38
2021-12-10 13:53:44.279054,-16
2021-12-10 13:53:44.503570,-26
2021-12-10 13:53:44.503593,-23
2021-12-10 13:53:44.503602,-23
2021-12-10 13:53:44.503611,-38
2021-12-10 13:53:44.503619,-38
2021-12-10 13:53:44.503628,-33
2021-12-10 13:53:44.503636,-45
2021-12-10 13:53:44.503645,-52
2021-12-10 13:53:44.503653,-40
2021-12-10 13:53:44.503662,-42
2021-12-10 13:53:44.503670,-45
2021-12-10 13:53:44.503679,-97
2021-12-10 13:53:44.503687,-233
2021-12-10 13:53:44.503696,-190
2021-12-10 13:53:44.503704,305
2021-12-10 13:53:44.503713,1149
2021-12-10 13:53:44.503721,1802
2021-12-10 13:53:44.503730,1459
2021-12-10 13:53:44.503738,288
2021-12-10 13:53:44.503747,-338
2021-12-10 13:53:44.503755,-128
2021-12-10 13:53:44.503763,-23
2021-12-10 13:53:44.503772,-166
2021-12-10 13:53:44.503780,-166
2021-12-10 13:53:44.503788,-121
2021-12-10 13:53:44.503796,-152
2021-12-10 13:53:44.503805,-150
2021-12-10 13:53:44.503813,-112
2021-12-10 13:53:44.503821,-102
2021-12-10 13:53:44.503830,-100
2021-12-10 13:53:44.728945,-81
2021-12-10 13:53:44.728966,-57
2021-12-10 13:53:44.728975,-38
2021-12-10 13:53:44.728984,-23
2021-12-10 13:53:44.728992,-9
2021-12-10 13:53:44.729000,-14
2021-12-10 13:53:44.729009,-28
2021-12-10 13:53:44.729017,-2
2021-12-10 13:53:44.729025,33
2021-12-10 13:53:44.729034,42
2021-12-10 13:53:44.729042,45
2021-12-10 13:53:44.729050,35
2021-12-10 13:53:44.729058,26
2021-12-10 13:53:44.729067,35
2021-12-10 13:53:44.729075,26
2021-12-10 13:53:44.729083,-19
2021-12-10 13:53:44.729092,-47
2021-12-10 13:53:44.729100,-64
2021-12-10 13:53:44.729108,-81
2021-12-10 13:53:44.729116,-73
2021-12-10 13:53:44.729124,-64
2021-12-10 13:53:44.729133,-88
2021-12-10 13:53:44.729141,-100
2021-12-10 13:53:44.729149,-97
2021-12-10 13:53:44.729157,-114
2021-12-10 13:53:44.729165,-126
2021-12-10 13:53:44.729174,-114
2021-12-10 13:53:44.729182,-102
2021-12-10 13:53:44.729190,-102
2021-12-10 13:53:44.729198,-100
2021-12-10 13:53:44.953882,-90
2021-12-10 13:53:44.953903,-97
2021-12-10 13:53:44.953912,-131
2021-12-10 13:53:44.953921,-143
2021-12-10 13:53:44.953929,-140
2021-12-10 13:53:44.953938,-152
2021-12-10 13:53:44.953946,-150
2021-12-10 13:53:44.953954,-126
2021-12-10 13:53:44.953962,-112
2021-12-10 13:53:44.953971,-104
2021-12-10 13:53:44.953979,-116
2021-12-10 13:53:44.953987,-135
2021-12-10 13:53:44.953995,-121
2021-12-10 13:53:44.954004,-95
2021-12-10 13:53:44.954012,-88
2021-12-10 13:53:44.954020,-83
2021-12-10 13:53:44.954029,-76
2021-12-10 13:53:44.954037,-73
2021-12-10 13:53:44.954045,-66
2021-12-10 13:53:44.954053,-47
2021-12-10 13:53:44.954062,-33
2021-12-10 13:53:44.954070,-28
2021-12-10 13:53:44.954078,-14
2021-12-10 13:53:44.954087,16
2021-12-10 13:53:44.954095,30
2021-12-10 13:53:44.954103,28
2021-12-10 13:53:44.954112,14
2021-12-10 13:53:44.954120,-23
2021-12-10 13:53:44.954128,-40
2021-12-10 13:53:44.954136,-30
2021-12-10 13:53:45.178477,-19
2021-12-10 13:53:45.178496,-9
2021-12-10 13:53:45.178506,0
2021-12-10 13:53:45.178515,-19
2021-12-10 13:53:45.178523,-50
2021-12-10 13:53:45.178531,-54
2021-12-10 13:53:45.178539,-100
2021-12-10 13:53:45.178548,-212
2021-12-10 13:53:45.178556,-138
2021-12-10 13:53:45.178564,388
2021-12-10 13:53:45.178572,1266
2021-12-10 13:53:45.178581,1926
2021-12-10 13:53:45.178589,1502
2021-12-10 13:53:45.178597,247
2021-12-10 13:53:45.178605,-367
2021-12-10 13:53:45.178614,-138
2021-12-10 13:53:45.178622,-50
2021-12-10 13:53:45.178630,-162
2021-12-10 13:53:45.178638,-114
2021-12-10 13:53:45.178646,-66
2021-12-10 13:53:45.178655,-109
2021-12-10 13:53:45.178663,-121
2021-12-10 13:53:45.178671,-88
2021-12-10 13:53:45.178679,-71
2021-12-10 13:53:45.178687,-61
2021-12-10 13:53:45.178696,-47
2021-12-10 13:53:45.178704,-30
2021-12-10 13:53:45.178712,-23
2021-12-10 13:53:45.178721,-23
2021-12-10 13:53:45.178732,-14
2021-12-10 13:53:45.448533,11
2021-12-10 13:53:45.448554,38
2021-12-10 13:53:45.448564,47
2021-12-10 13:53:45.448573,26
2021-12-10 13:53:45.448581,9
2021-12-10 13:53:45.448589,33
2021-12-10 13:53:45.448598,33
2021-12-10 13:53:45.448606,-11
2021-12-10 13:53:45.448614,-42
2021-12-10 13:53:45.448623,-81
2021-12-10 13:53:45.448631,-131
2021-12-10 13:53:45.448639,-138
2021-12-10 13:53:45.448648,-140
2021-12-10 13:53:45.448656,-162
2021-12-10 13:53:45.448665,-162
2021-12-10 13:53:45.448673,-164
2021-12-10 13:53:45.448681,-169
2021-12-10 13:53:45.448690,-154
2021-12-10 13:53:45.448698,-145
2021-12-10 13:53:45.448706,-133
2021-12-10 13:53:45.448715,-131
2021-12-10 13:53:45.448723,-147
2021-12-10 13:53:45.448731,-135
2021-12-10 13:53:45.448740,-104
2021-12-10 13:53:45.448748,-95
2021-12-10 13:53:45.448756,-85
2021-12-10 13:53:45.448765,-71
2021-12-10 13:53:45.448773,-83
2021-12-10 13:53:45.448781,-78
2021-12-10 13:53:45.448790,-47
2021-12-10 13:53:45.762199,-57
2021-12-10 13:53:45.762219,-81
2021-12-10 13:53:45.762229,-81
2021-12-10 13:53:45.762237,-76
2021-12-10 13:53:45.762246,-73
2021-12-10 13:53:45.762254,-61
2021-12-10 13:53:45.762262,-45
2021-12-10 13:53:45.762270,-42
2021-12-10 13:53:45.762278,-76
2021-12-10 13:53:45.762287,-97
2021-12-10 13:53:45.762295,-73
2021-12-10 13:53:45.762303,-52
2021-12-10 13:53:45.762311,-45
2021-12-10 13:53:45.762320,-38
2021-12-10 13:53:45.762328,-54
2021-12-10 13:53:45.762336,-83
2021-12-10 13:53:45.762344,-73
2021-12-10 13:53:45.762353,-38
2021-12-10 13:53:45.762361,-7
2021-12-10 13:53:45.762369,16
2021-12-10 13:53:45.762377,9
2021-12-10 13:53:45.762386,-4
2021-12-10 13:53:45.762394,9
2021-12-10 13:53:45.762402,11
2021-12-10 13:53:45.762410,-4
2021-12-10 13:53:45.762418,-4
2021-12-10 13:53:45.762427,0
2021-12-10 13:53:45.762435,-9
2021-12-10 13:53:45.762443,0
2021-12-10 13:53:45.762451,23
2021-12-10 13:53:45.898819,33
2021-12-10 13:53:45.898838,21
2021-12-10 13:53:45.898848,-78
2021-12-10 13:53:45.898857,-236
2021-12-10 13:53:45.898865,-116
2021-12-10 13:53:45.898874,526
2021-12-10 13:53:45.898882,1514
2021-12-10 13:53:45.898891,2122
2021-12-10 13:53:45.898899,1511
2021-12-10 13:53:45.898908,197
2021-12-10 13:53:45.898916,-333
2021-12-10 13:53:45.898925,-50
2021-12-10 13:53:45.898933,-4
2021-12-10 13:53:45.898941,-224
2021-12-10 13:53:45.898949,-231
2021-12-10 13:53:45.898958,-171
2021-12-10 13:53:45.898966,-200
2021-12-10 13:53:45.898975,-181
2021-12-10 13:53:45.898983,-138
2021-12-10 13:53:45.898991,-157
2021-12-10 13:53:45.899000,-176
2021-12-10 13:53:45.899008,-140
2021-12-10 13:53:45.899016,-107
2021-12-10 13:53:45.899024,-92
2021-12-10 13:53:45.899033,-69
2021-12-10 13:53:45.899041,-50
2021-12-10 13:53:45.899049,-40
2021-12-10 13:53:45.899058,-21
2021-12-10 13:53:45.899066,11
2021-12-10 13:53:45.899074,42
2021-12-10 13:53:46.213887,61
2021-12-10 13:53:46.213908,69
2021-12-10 13:53:46.213917,71
2021-12-10 13:53:46.213926,73
2021-12-10 13:53:46.213934,57
2021-12-10 13:53:46.213942,7
2021-12-10 13:53:46.213951,-40
2021-12-10 13:53:46.213959,-78
2021-12-10 13:53:46.213967,-116
2021-12-10 13:53:46.213976,-128
2021-12-10 13:53:46.213984,-123
2021-12-10 13:53:46.213992,-126
2021-12-10 13:53:46.214001,-138
2021-12-10 13:53:46.214009,-162
2021-12-10 13:53:46.214017,-169
2021-12-10 13:53:46.214025,-159
2021-12-10 13:53:46.214033,-150
2021-12-10 13:53:46.214042,-138
2021-12-10 13:53:46.214050,-138
2021-12-10 13:53:46.214058,-140
2021-12-10 13:53:46.214066,-121
2021-12-10 13:53:46.214075,-104
2021-12-10 13:53:46.214083,-95
2021-12-10 13:53:46.214091,-78
2021-12-10 13:53:46.214099,-71
2021-12-10 13:53:46.214107,-69
2021-12-10 13:53:46.214116,-57
2021-12-10 13:53:46.214124,-52
2021-12-10 13:53:46.214132,-47
2021-12-10 13:53:46.214140,-33
2021-12-10 13:53:46.348401,-28
2021-12-10 13:53:46.348420,-33
2021-12-10 13:53:46.348429,-26
2021-12-10 13:53:46.348438,-19
2021-12-10 13:53:46.348447,-16
2021-12-10 13:53:46.348455,-4
2021-12-10 13:53:46.348464,-9
2021-12-10 13:53:46.348473,-26
2021-12-10 13:53:46.348481,-26
2021-12-10 13:53:46.348489,-7
2021-12-10 13:53:46.348498,-2
2021-12-10 13:53:46.348506,-11
2021-12-10 13:53:46.348515,-30
2021-12-10 13:53:46.348523,-38
2021-12-10 13:53:46.348532,-23
2021-12-10 13:53:46.348540,4
2021-12-10 13:53:46.348549,33
2021-12-10 13:53:46.348557,42
2021-12-10 13:53:46.348565,23
2021-12-10 13:53:46.348574,-7
2021-12-10 13:53:46.348630,-23
2021-12-10 13:53:46.348642,-26
2021-12-10 13:53:46.348650,-26
2021-12-10 13:53:46.348659,-38
2021-12-10 13:53:46.348667,-54
2021-12-10 13:53:46.348676,-45
2021-12-10 13:53:46.348685,-28
2021-12-10 13:53:46.348694,-30
2021-12-10 13:53:46.348703,-33
2021-12-10 13:53:46.348712,-100
2021-12-10 13:53:46.618585,-238
2021-12-10 13:53:46.618606,-143
2021-12-10 13:53:46.618616,474
2021-12-10 13:53:46.618625,1478
2021-12-10 13:53:46.618634,2186
2021-12-10 13:53:46.618642,1685
2021-12-10 13:53:46.618651,307
2021-12-10 13:53:46.618659,-398
2021-12-10 13:53:46.618667,-145
2021-12-10 13:53:46.618676,-26
2021-12-10 13:53:46.618684,-221
2021-12-10 13:53:46.618693,-240
2021-12-10 13:53:46.618701,-185
2021-12-10 13:53:46.618710,-207
2021-12-10 13:53:46.618718,-193
2021-12-10 13:53:46.618726,-154
2021-12-10 13:53:46.618735,-152
2021-12-10 13:53:46.618743,-143
2021-12-10 13:53:46.618752,-116
2021-12-10 13:53:46.618760,-92
2021-12-10 13:53:46.618768,-78
2021-12-10 13:53:46.618777,-61
2021-12-10 13:53:46.618785,-40
2021-12-10 13:53:46.618793,-23
2021-12-10 13:53:46.618802,-4
2021-12-10 13:53:46.618810,26
2021-12-10 13:53:46.618818,50
2021-12-10 13:53:46.618827,59
2021-12-10 13:53:46.618835,69
2021-12-10 13:53:46.618843,78
2021-12-10 13:53:46.798916,85
2021-12-10 13:53:46.798936,83
2021-12-10 13:53:46.798945,59
2021-12-10 13:53:46.798954,26
2021-12-10 13:53:46.798963,-11
2021-12-10 13:53:46.798971,-61
2021-12-10 13:53:46.798979,-81
2021-12-10 13:53:46.798988,-76
2021-12-10 13:53:46.798996,-83
2021-12-10 13:53:46.799004,-102
2021-12-10 13:53:46.799013,-121
2021-12-10 13:53:46.799021,-138
2021-12-10 13:53:46.799029,-135
2021-12-10 13:53:46.799037,-114
2021-12-10 13:53:46.799046,-107
2021-12-10 13:53:46.799054,-112
2021-12-10 13:53:46.799062,-128
2021-12-10 13:53:46.799071,-143
2021-12-10 13:53:46.799079,-123
2021-12-10 13:53:46.799087,-92
2021-12-10 13:53:46.799096,-90
2021-12-10 13:53:46.799104,-95
2021-12-10 13:53:46.799112,-90
2021-12-10 13:53:46.799120,-95
2021-12-10 13:53:46.799128,-121
2021-12-10 13:53:46.799137,-135
2021-12-10 13:53:46.799145,-114
2021-12-10 13:53:46.799153,-104
2021-12-10 13:53:46.799169,-116
2021-12-10 13:53:46.799177,-109
2021-12-10 13:53:47.023849,-85
2021-12-10 13:53:47.023868,-66
2021-12-10 13:53:47.023879,-61
2021-12-10 13:53:47.023888,-73
2021-12-10 13:53:47.023898,-97
2021-12-10 13:53:47.023907,-97
2021-12-10 13:53:47.023916,-73
2021-12-10 13:53:47.023925,-57
2021-12-10 13:53:47.023934,-57
2021-12-10 13:53:47.023943,-61
2021-12-10 13:53:47.023951,-81
2021-12-10 13:53:47.023960,-78
2021-12-10 13:53:47.023969,-71
2021-12-10 13:53:47.023978,-83
2021-12-10 13:53:47.023987,-83
2021-12-10 13:53:47.023996,-54
2021-12-10 13:53:47.024005,-33
2021-12-10 13:53:47.024014,-28
2021-12-10 13:53:47.024023,-16
2021-12-10 13:53:47.024031,-7
2021-12-10 13:53:47.024040,-21
2021-12-10 13:53:47.024049,-45
2021-12-10 13:53:47.024058,-45
2021-12-10 13:53:47.024067,-23
2021-12-10 13:53:47.024076,-11
2021-12-10 13:53:47.024085,-4
2021-12-10 13:53:47.024094,4
2021-12-10 13:53:47.024102,0
2021-12-10 13:53:47.024111,-23
2021-12-10 13:53:47.024120,-116
2021-12-10 13:53:47.293938,-219
2021-12-10 13:53:47.293960,-30
2021-12-10 13:53:47.293969,677
2021-12-10 13:53:47.293978,1664
2021-12-10 13:53:47.293986,2098
2021-12-10 13:53:47.293995,1301
2021-12-10 13:53:47.294003,35
2021-12-10 13:53:47.294012,-348
2021-12-10 13:53:47.294020,-64
2021-12-10 13:53:47.294028,-92
2021-12-10 13:53:47.294037,-269
2021-12-10 13:53:47.294045,-190
2021-12-10 13:53:47.294053,-121
2021-12-10 13:53:47.294062,-164
2021-12-10 13:53:47.294070,-166
2021-12-10 13:53:47.294078,-150
2021-12-10 13:53:47.294087,-143
2021-12-10 13:53:47.294095,-114
2021-12-10 13:53:47.294103,-85
2021-12-10 13:53:47.294112,-71
2021-12-10 13:53:47.294120,-61
2021-12-10 13:53:47.294128,-61
2021-12-10 13:53:47.294136,-45
2021-12-10 13:53:47.294145,-9
2021-12-10 13:53:47.294153,16
2021-12-10 13:53:47.294161,30
2021-12-10 13:53:47.294169,45
2021-12-10 13:53:47.294178,47
2021-12-10 13:53:47.294186,40
2021-12-10 13:53:47.294194,35
2021-12-10 13:53:47.518609,14
2021-12-10 13:53:47.518630,-33
2021-12-10 13:53:47.518639,-69
2021-12-10 13:53:47.518648,-83
2021-12-10 13:53:47.518657,-88
2021-12-10 13:53:47.518666,-90
2021-12-10 13:53:47.518674,-85
2021-12-10 13:53:47.518683,-85
2021-12-10 13:53:47.518691,-116
2021-12-10 13:53:47.518700,-157
2021-12-10 13:53:47.518708,-152
2021-12-10 13:53:47.518716,-131
2021-12-10 13:53:47.518725,-131
2021-12-10 13:53:47.518733,-128
2021-12-10 13:53:47.518742,-138
2021-12-10 13:53:47.518750,-159
2021-12-10 13:53:47.518760,-164
2021-12-10 13:53:47.518768,-162
2021-12-10 13:53:47.518776,-154
2021-12-10 13:53:47.518785,-138
2021-12-10 13:53:47.518793,-133
2021-12-10 13:53:47.518802,-140
2021-12-10 13:53:47.518810,-126
2021-12-10 13:53:47.518818,-107
2021-12-10 13:53:47.518827,-90
2021-12-10 13:53:47.518835,-78
2021-12-10 13:53:47.518844,-81
2021-12-10 13:53:47.518852,-85
2021-12-10 13:53:47.518860,-71
2021-12-10 13:53:47.518868,-52
2021-12-10 13:53:47.787480,-45
2021-12-10 13:53:47.787499,-40
2021-12-10 13:53:47.787508,-42
2021-12-10 13:53:47.787517,-42
2021-12-10 13:53:47.787526,-33
2021-12-10 13:53:47.787534,-16
2021-12-10 13:53:47.787542,-9
2021-12-10 13:53:47.787551,-14
2021-12-10 13:53:47.787559,-38
2021-12-10 13:53:47.787567,-47
2021-12-10 13:53:47.787576,-28
2021-12-10 13:53:47.787584,-11
2021-12-10 13:53:47.787592,-2
2021-12-10 13:53:47.787601,-11
2021-12-10 13:53:47.787609,-38
2021-12-10 13:53:47.787617,-40
2021-12-10 13:53:47.787626,-9
2021-12-10 13:53:47.787634,23
2021-12-10 13:53:47.787642,28
2021-12-10 13:53:47.787651,-2
2021-12-10 13:53:47.787659,-19
2021-12-10 13:53:47.787667,-14
2021-12-10 13:53:47.787675,-19
2021-12-10 13:53:47.787683,-21
2021-12-10 13:53:47.787692,-7
2021-12-10 13:53:47.787700,-7
2021-12-10 13:53:47.787708,-14
2021-12-10 13:53:47.787716,-11
2021-12-10 13:53:47.787724,2
2021-12-10 13:53:47.787732,11
2021-12-10 13:53:47.968468,-28
2021-12-10 13:53:47.968487,-159
2021-12-10 13:53:47.968496,-209
2021-12-10 13:53:47.968505,154
2021-12-10 13:53:47.968513,1006
2021-12-10 13:53:47.968522,1881
2021-12-10 13:53:47.968530,1836
2021-12-10 13:53:47.968538,629
2021-12-10 13:53:47.968547,-391
2021-12-10 13:53:47.968555,-338
2021-12-10 13:53:47.968564,-81
2021-12-10 13:53:47.968572,-197
2021-12-10 13:53:47.968580,-269
2021-12-10 13:53:47.968589,-207
2021-12-10 13:53:47.968597,-214
2021-12-10 13:53:47.968605,-221
2021-12-10 13:53:47.968614,-176
2021-12-10 13:53:47.968622,-150
2021-12-10 13:53:47.968631,-147
2021-12-10 13:53:47.968639,-135
2021-12-10 13:53:47.968647,-126
2021-12-10 13:53:47.968656,-131
2021-12-10 13:53:47.968664,-126
2021-12-10 13:53:47.968672,-90
2021-12-10 13:53:47.968681,-76
2021-12-10 13:53:47.968689,-88
2021-12-10 13:53:47.968697,-81
2021-12-10 13:53:47.968706,-66
2021-12-10 13:53:47.968714,-71
2021-12-10 13:53:47.968722,-54
2021-12-10 13:53:48.283179,-38
2021-12-10 13:53:48.283196,-45
2021-12-10 13:53:48.283206,-47
2021-12-10 13:53:48.283215,-50
2021-12-10 13:53:48.283223,-61
2021-12-10 13:53:48.283231,-69
2021-12-10 13:53:48.283240,-95
2021-12-10 13:53:48.283248,-126
2021-12-10 13:53:48.283257,-121
2021-12-10 13:53:48.283265,-104
2021-12-10 13:53:48.283273,-97
2021-12-10 13:53:48.283282,-97
2021-12-10 13:53:48.283290,-114
2021-12-10 13:53:48.283299,-128
2021-12-10 13:53:48.283307,-116
2021-12-10 13:53:48.283315,-104
2021-12-10 13:53:48.283323,-97
2021-12-10 13:53:48.283332,-88
2021-12-10 13:53:48.283340,-83
2021-12-10 13:53:48.283349,-71
2021-12-10 13:53:48.283357,-57
2021-12-10 13:53:48.283365,-52
2021-12-10 13:53:48.283373,-59
2021-12-10 13:53:48.283382,-71
2021-12-10 13:53:48.283390,-81
2021-12-10 13:53:48.283398,-66
2021-12-10 13:53:48.283406,-50
2021-12-10 13:53:48.283415,-50
2021-12-10 13:53:48.283423,-45
2021-12-10 13:53:48.283431,-35
2021-12-10 13:53:48.418527,-40
2021-12-10 13:53:48.418546,-35
2021-12-10 13:53:48.418556,-23
2021-12-10 13:53:48.418564,-21
2021-12-10 13:53:48.418573,-16
2021-12-10 13:53:48.418581,-14
2021-12-10 13:53:48.418589,-26
2021-12-10 13:53:48.418598,-16
2021-12-10 13:53:48.418606,2
2021-12-10 13:53:48.418615,2
2021-12-10 13:53:48.418623,7
2021-12-10 13:53:48.418631,9
2021-12-10 13:53:48.418640,-19
2021-12-10 13:53:48.418648,-35
2021-12-10 13:53:48.418657,-14
2021-12-10 13:53:48.418665,-4
2021-12-10 13:53:48.418674,-11
2021-12-10 13:53:48.418682,-21
2021-12-10 13:53:48.418690,-38
2021-12-10 13:53:48.418698,-26
2021-12-10 13:53:48.418707,11
2021-12-10 13:53:48.418715,30
2021-12-10 13:53:48.418724,28
2021-12-10 13:53:48.418732,23
2021-12-10 13:53:48.418740,11
2021-12-10 13:53:48.418749,-19
2021-12-10 13:53:48.418757,-42
2021-12-10 13:53:48.418765,-33
2021-12-10 13:53:48.418774,-28
2021-12-10 13:53:48.418782,-45
2021-12-10 13:53:48.643967,-54
2021-12-10 13:53:48.643989,-45
2021-12-10 13:53:48.643998,-42
2021-12-10 13:53:48.644007,-64
2021-12-10 13:53:48.644016,-169
2021-12-10 13:53:48.644024,-302
2021-12-10 13:53:48.644033,-123
2021-12-10 13:53:48.644041,569
2021-12-10 13:53:48.644049,1514
2021-12-10 13:53:48.644058,1926
2021-12-10 13:53:48.644066,1137
2021-12-10 13:53:48.644074,-92
2021-12-10 13:53:48.644083,-412
2021-12-10 13:53:48.644091,-97
2021-12-10 13:53:48.644099,-90
2021-12-10 13:53:48.644108,-226
2021-12-10 13:53:48.644116,-171
2021-12-10 13:53:48.644124,-131
2021-12-10 13:53:48.644133,-152
2021-12-10 13:53:48.644141,-133
2021-12-10 13:53:48.644149,-119
2021-12-10 13:53:48.644157,-131
2021-12-10 13:53:48.644166,-131
2021-12-10 13:53:48.644180,-128
2021-12-10 13:53:48.644188,-116
2021-12-10 13:53:48.644196,-88
2021-12-10 13:53:48.644205,-81
2021-12-10 13:53:48.644213,-100
2021-12-10 13:53:48.644221,-104
2021-12-10 13:53:48.644230,-78
2021-12-10 13:53:48.913237,-50
2021-12-10 13:53:48.913256,-28
2021-12-10 13:53:48.913265,-16
2021-12-10 13:53:48.913274,-23
2021-12-10 13:53:48.913282,-50
2021-12-10 13:53:48.913291,-57
2021-12-10 13:53:48.913299,-42
2021-12-10 13:53:48.913307,-40
2021-12-10 13:53:48.913316,-59
2021-12-10 13:53:48.913324,-85
2021-12-10 13:53:48.913333,-114
2021-12-10 13:53:48.913341,-116
2021-12-10 13:53:48.913349,-92
2021-12-10 13:53:48.913358,-71
2021-12-10 13:53:48.913366,-71
2021-12-10 13:53:48.913375,-81
2021-12-10 13:53:48.913383,-83
2021-12-10 13:53:48.913391,-85
2021-12-10 13:53:48.913400,-109
2021-12-10 13:53:48.913408,-121
2021-12-10 13:53:48.913417,-104
2021-12-10 13:53:48.913425,-100
2021-12-10 13:53:48.913433,-100
2021-12-10 13:53:48.913442,-81
2021-12-10 13:53:48.913450,-69
2021-12-10 13:53:48.913458,-61
2021-12-10 13:53:48.913467,-47
2021-12-10 13:53:48.913475,-42
2021-12-10 13:53:48.913484,-52
2021-12-10 13:53:48.913492,-57
2021-12-10 13:53:49.138854,-52
2021-12-10 13:53:49.138873,-42
2021-12-10 13:53:49.138882,-38
2021-12-10 13:53:49.138890,-59
2021-12-10 13:53:49.138899,-85
2021-12-10 13:53:49.138907,-73
2021-12-10 13:53:49.138915,-47
2021-12-10 13:53:49.138923,-35
2021-12-10 13:53:49.138931,-33
2021-12-10 13:53:49.138940,-42
2021-12-10 13:53:49.138948,-47
2021-12-10 13:53:49.138956,-21
2021-12-10 13:53:49.138965,-2
2021-12-10 13:53:49.138973,0
2021-12-10 13:53:49.138981,2
2021-12-10 13:53:49.138989,-4
2021-12-10 13:53:49.138998,-7
2021-12-10 13:53:49.139006,7
2021-12-10 13:53:49.139014,26
2021-12-10 13:53:49.139022,35
2021-12-10 13:53:49.139031,35
2021-12-10 13:53:49.139039,28
2021-12-10 13:53:49.139047,28
2021-12-10 13:53:49.139055,40
2021-12-10 13:53:49.139064,52
2021-12-10 13:53:49.139072,66
2021-12-10 13:53:49.139080,69
2021-12-10 13:53:49.139088,45
2021-12-10 13:53:49.139096,38
2021-12-10 13:53:49.139105,57
2021-12-10 13:53:49.363516,42
2021-12-10 13:53:49.363535,0
2021-12-10 13:53:49.363545,-23
2021-12-10 13:53:49.363553,-30
2021-12-10 13:53:49.363562,-28
2021-12-10 13:53:49.363570,-16
2021-12-10 13:53:49.363579,-2
2021-12-10 13:53:49.363588,2
2021-12-10 13:53:49.363596,-28
2021-12-10 13:53:49.363605,-128
2021-12-10 13:53:49.363613,-243
2021-12-10 13:53:49.363621,-154
2021-12-10 13:53:49.363630,367
2021-12-10 13:53:49.363638,1263
2021-12-10 13:53:49.363647,1924
2021-12-10 13:53:49.363655,1461
2021-12-10 13:53:49.363664,178
2021-12-10 13:53:49.363672,-448
2021-12-10 13:53:49.363681,-214
2021-12-10 13:53:49.363689,-123
2021-12-10 13:53:49.363698,-271
2021-12-10 13:53:49.363706,-250
2021-12-10 13:53:49.363714,-193
2021-12-10 13:53:49.363723,-250
2021-12-10 13:53:49.363731,-274
2021-12-10 13:53:49.363740,-226
2021-12-10 13:53:49.363748,-212
2021-12-10 13:53:49.363756,-216
2021-12-10 13:53:49.363765,-181
2021-12-10 13:53:49.363774,-145
2021-12-10 13:53:49.588989,-128
2021-12-10 13:53:49.589009,-107
2021-12-10 13:53:49.589018,-90
2021-12-10 13:53:49.589027,-92
2021-12-10 13:53:49.589035,-78
2021-12-10 13:53:49.589043,-38
2021-12-10 13:53:49.589052,-11
2021-12-10 13:53:49.589060,-14
2021-12-10 13:53:49.589068,-26
2021-12-10 13:53:49.589077,-30
2021-12-10 13:53:49.589085,-19
2021-12-10 13:53:49.589093,-4
2021-12-10 13:53:49.589102,-7
2021-12-10 13:53:49.589110,-35
2021-12-10 13:53:49.589118,-76
2021-12-10 13:53:49.589127,-90
2021-12-10 13:53:49.589135,-76
2021-12-10 13:53:49.589144,-61
2021-12-10 13:53:49.589152,-47
2021-12-10 13:53:49.589160,-38
2021-12-10 13:53:49.589169,-45
2021-12-10 13:53:49.589177,-47
2021-12-10 13:53:49.589185,-33
2021-12-10 13:53:49.589193,-16
2021-12-10 13:53:49.589202,-9
2021-12-10 13:53:49.589210,-4
2021-12-10 13:53:49.589219,-2
2021-12-10 13:53:49.589227,4
2021-12-10 13:53:49.589235,21
2021-12-10 13:53:49.589243,33
2021-12-10 13:53:49.902097,40
2021-12-10 13:53:49.902115,40
2021-12-10 13:53:49.902124,38
2021-12-10 13:53:49.902132,35
2021-12-10 13:53:49.902141,40
2021-12-10 13:53:49.902150,26
2021-12-10 13:53:49.902158,2
2021-12-10 13:53:49.902167,-19
2021-12-10 13:53:49.902175,-30
2021-12-10 13:53:49.902184,-21
2021-12-10 13:53:49.902192,-9
2021-12-10 13:53:49.902201,-2
2021-12-10 13:53:49.902209,-2
2021-12-10 13:53:49.902218,-23
2021-12-10 13:53:49.902226,-40
2021-12-10 13:53:49.902235,-33
2021-12-10 13:53:49.902243,-19
2021-12-10 13:53:49.902252,-7
2021-12-10 13:53:49.902260,2
2021-12-10 13:53:49.902269,0
2021-12-10 13:53:49.902277,0
2021-12-10 13:53:49.902285,2
2021-12-10 13:53:49.902294,2
2021-12-10 13:53:49.902302,-4
2021-12-10 13:53:49.902311,-9
2021-12-10 13:53:49.902319,-11
2021-12-10 13:53:49.902328,-11
2021-12-10 13:53:49.902336,-9
2021-12-10 13:53:49.902345,-4
2021-12-10 13:53:49.902353,-16
2021-12-10 13:53:50.038854,-35
2021-12-10 13:53:50.038872,-23
2021-12-10 13:53:50.038882,-9
2021-12-10 13:53:50.038890,-16
2021-12-10 13:53:50.038899,-14
2021-12-10 13:53:50.038907,-7
2021-12-10 13:53:50.038915,-16
2021-12-10 13:53:50.038924,-40
2021-12-10 13:53:50.038932,-54
2021-12-10 13:53:50.038940,-45
2021-12-10 13:53:50.038949,-26
2021-12-10 13:53:50.038957,-23
2021-12-10 13:53:50.038965,-57
2021-12-10 13:53:50.038974,-109
2021-12-10 13:53:50.038982,-193
2021-12-10 13:53:50.038990,-298
2021-12-10 13:53:50.038999,-145
2021-12-10 13:53:50.039007,517
2021-12-10 13:53:50.039015,1444
2021-12-10 13:53:50.039023,1862
2021-12-10 13:53:50.039032,1108
2021-12-10 13:53:50.039040,-107
2021-12-10 13:53:50.039048,-457
2021-12-10 13:53:50.039057,-150
2021-12-10 13:53:50.039065,-135
2021-12-10 13:53:50.039073,-271
2021-12-10 13:53:50.039081,-205
2021-12-10 13:53:50.039090,-159
2021-12-10 13:53:50.039098,-188
2021-12-10 13:53:50.039106,-162
2021-12-10 13:53:50.353804,-133
2021-12-10 13:53:50.353823,-138
2021-12-10 13:53:50.353832,-116
2021-12-10 13:53:50.353841,-85
2021-12-10 13:53:50.353849,-71
2021-12-10 13:53:50.353858,-73
2021-12-10 13:53:50.353866,-83
2021-12-10 13:53:50.353875,-64
2021-12-10 13:53:50.353883,-33
2021-12-10 13:53:50.353892,-38
2021-12-10 13:53:50.353900,-47
2021-12-10 13:53:50.353909,-40
2021-12-10 13:53:50.353917,-35
2021-12-10 13:53:50.353926,-11
2021-12-10 13:53:50.353934,16
2021-12-10 13:53:50.353942,11
2021-12-10 13:53:50.353951,-2
2021-12-10 13:53:50.353959,-9
2021-12-10 13:53:50.353967,-19
2021-12-10 13:53:50.353976,-16
2021-12-10 13:53:50.353984,-7
2021-12-10 13:53:50.353993,-16
2021-12-10 13:53:50.354001,-28
2021-12-10 13:53:50.354009,-28
2021-12-10 13:53:50.354018,-21
2021-12-10 13:53:50.354026,-7
2021-12-10 13:53:50.354034,2
2021-12-10 13:53:50.354043,-2
2021-12-10 13:53:50.354051,-16
2021-12-10 13:53:50.354059,-28
2021-12-10 13:53:50.533623,-9
2021-12-10 13:53:50.533645,23
2021-12-10 13:53:50.533654,21
2021-12-10 13:53:50.533663,2
2021-12-10 13:53:50.533672,-14
2021-12-10 13:53:50.533680,-42
2021-12-10 13:53:50.533688,-52
2021-12-10 13:53:50.533697,-19
2021-12-10 13:53:50.533705,-7
2021-12-10 13:53:50.533714,-16
2021-12-10 13:53:50.533722,-7
2021-12-10 13:53:50.533731,-9
2021-12-10 13:53:50.533739,-23
2021-12-10 13:53:50.533747,-9
2021-12-10 13:53:50.533755,11
2021-12-10 13:53:50.533764,4
2021-12-10 13:53:50.533772,-14
2021-12-10 13:53:50.533780,-30
2021-12-10 13:53:50.533789,-28
2021-12-10 13:53:50.533797,-7
2021-12-10 13:53:50.533805,2
2021-12-10 13:53:50.533813,-7
2021-12-10 13:53:50.533821,-38
2021-12-10 13:53:50.533830,-64
2021-12-10 13:53:50.533838,-42
2021-12-10 13:53:50.533846,-21
2021-12-10 13:53:50.533855,-30
2021-12-10 13:53:50.533863,-35
2021-12-10 13:53:50.533871,-33
2021-12-10 13:53:50.533879,-26
2021-12-10 13:53:50.713890,-7
2021-12-10 13:53:50.713909,9
2021-12-10 13:53:50.713919,7
2021-12-10 13:53:50.713928,9
2021-12-10 13:53:50.713936,4
2021-12-10 13:53:50.713944,-9
2021-12-10 13:53:50.713953,7
2021-12-10 13:53:50.713961,33
2021-12-10 13:53:50.713970,14
2021-12-10 13:53:50.713978,-23
2021-12-10 13:53:50.713986,-47
2021-12-10 13:53:50.713995,-54
2021-12-10 13:53:50.714003,-52
2021-12-10 13:53:50.714011,-78
2021-12-10 13:53:50.714020,-114
2021-12-10 13:53:50.714028,-140
2021-12-10 13:53:50.714036,-188
2021-12-10 13:53:50.714047,-281
2021-12-10 13:53:50.714056,-362
2021-12-10 13:53:50.714064,-195
2021-12-10 13:53:50.714072,443
2021-12-10 13:53:50.714081,1368
2021-12-10 13:53:50.714089,1821
2021-12-10 13:53:50.714097,1108
2021-12-10 13:53:50.714106,-88
2021-12-10 13:53:50.714114,-441
2021-12-10 13:53:50.714122,-145
2021-12-10 13:53:50.714131,-131
2021-12-10 13:53:50.714139,-274
2021-12-10 13:53:50.714147,-209
2021-12-10 13:53:50.983873,-143
2021-12-10 13:53:50.983892,-171
2021-12-10 13:53:50.983902,-166
2021-12-10 13:53:50.983910,-164
2021-12-10 13:53:50.983919,-188
2021-12-10 13:53:50.983927,-159
2021-12-10 13:53:50.983936,-112
2021-12-10 13:53:50.983944,-88
2021-12-10 13:53:50.983952,-78
2021-12-10 13:53:50.983960,-92
2021-12-10 13:53:50.983969,-123
2021-12-10 13:53:50.983977,-123
2021-12-10 13:53:50.983986,-92
2021-12-10 13:53:50.983994,-61
2021-12-10 13:53:50.984003,-54
2021-12-10 13:53:50.984011,-71
2021-12-10 13:53:50.984019,-64
2021-12-10 13:53:50.984027,-30
2021-12-10 13:53:50.984036,-23
2021-12-10 13:53:50.984044,-38
2021-12-10 13:53:50.984052,-38
2021-12-10 13:53:50.984061,-45
2021-12-10 13:53:50.984069,-61
2021-12-10 13:53:50.984077,-59
2021-12-10 13:53:50.984086,-45
2021-12-10 13:53:50.984094,-35
2021-12-10 13:53:50.984103,-38
2021-12-10 13:53:50.984111,-54
2021-12-10 13:53:50.984119,-61
2021-12-10 13:53:50.984127,-50
2021-12-10 13:53:51.299085,-30
2021-12-10 13:53:51.299104,-16
2021-12-10 13:53:51.299113,-23
2021-12-10 13:53:51.299122,-38
2021-12-10 13:53:51.299131,-28
2021-12-10 13:53:51.299139,-4
2021-12-10 13:53:51.299147,7
2021-12-10 13:53:51.299156,11
2021-12-10 13:53:51.299164,0
2021-12-10 13:53:51.299173,-33
2021-12-10 13:53:51.299181,-38
2021-12-10 13:53:51.299189,-2
2021-12-10 13:53:51.299197,14
2021-12-10 13:53:51.299206,7
2021-12-10 13:53:51.299214,-11
2021-12-10 13:53:51.299222,-35
2021-12-10 13:53:51.299231,-30
2021-12-10 13:53:51.299239,-23
2021-12-10 13:53:51.299247,-40
2021-12-10 13:53:51.299255,-42
2021-12-10 13:53:51.299264,-33
2021-12-10 13:53:51.299272,-40
2021-12-10 13:53:51.299280,-38
2021-12-10 13:53:51.299289,-28
2021-12-10 13:53:51.299297,-35
2021-12-10 13:53:51.299305,-35
2021-12-10 13:53:51.299313,-45
2021-12-10 13:53:51.299322,-64
2021-12-10 13:53:51.299330,-47
2021-12-10 13:53:51.299338,-16
2021-12-10 13:53:51.433600,-16
2021-12-10 13:53:51.433621,-21
2021-12-10 13:53:51.433630,-11
2021-12-10 13:53:51.433639,4
2021-12-10 13:53:51.433648,35
2021-12-10 13:53:51.433656,42
2021-12-10 13:53:51.433665,23
2021-12-10 13:53:51.433673,16
2021-12-10 13:53:51.433682,-14
2021-12-10 13:53:51.433691,-59
2021-12-10 13:53:51.433699,-47
2021-12-10 13:53:51.433708,-16
2021-12-10 13:53:51.433716,-14
2021-12-10 13:53:51.433724,-28
2021-12-10 13:53:51.433733,-66
2021-12-10 13:53:51.433741,-95
2021-12-10 13:53:51.433750,-116
2021-12-10 13:53:51.433758,-226
2021-12-10 13:53:51.433766,-371
2021-12-10 13:53:51.433775,-276
2021-12-10 13:53:51.433783,243
2021-12-10 13:53:51.433791,1099
2021-12-10 13:53:51.433800,1692
2021-12-10 13:53:51.433808,1211
2021-12-10 13:53:51.433816,28
2021-12-10 13:53:51.433825,-491
2021-12-10 13:53:51.433833,-255
2021-12-10 13:53:51.433841,-183
2021-12-10 13:53:51.433850,-298
2021-12-10 13:53:51.433858,-250
2021-12-10 13:53:51.702969,-185
2021-12-10 13:53:51.702989,-214
2021-12-10 13:53:51.702999,-214
2021-12-10 13:53:51.703008,-171
2021-12-10 13:53:51.703016,-154
2021-12-10 13:53:51.703024,-145
2021-12-10 13:53:51.703033,-121
2021-12-10 13:53:51.703042,-126
2021-12-10 13:53:51.703050,-135
2021-12-10 13:53:51.703059,-104
2021-12-10 13:53:51.703067,-71
2021-12-10 13:53:51.703076,-59
2021-12-10 13:53:51.703084,-42
2021-12-10 13:53:51.703093,-38
2021-12-10 13:53:51.703101,-33
2021-12-10 13:53:51.703110,-11
2021-12-10 13:53:51.703118,11
2021-12-10 13:53:51.703126,26
2021-12-10 13:53:51.703135,35
2021-12-10 13:53:51.703143,28
2021-12-10 13:53:51.703152,7
2021-12-10 13:53:51.703160,-21
2021-12-10 13:53:51.703168,-42
2021-12-10 13:53:51.703177,-38
2021-12-10 13:53:51.703185,-30
2021-12-10 13:53:51.703194,-35
2021-12-10 13:53:51.703202,-30
2021-12-10 13:53:51.703210,-28
2021-12-10 13:53:51.703219,-30
2021-12-10 13:53:51.703227,-23
2021-12-10 13:53:51.927552,-21
2021-12-10 13:53:51.927572,-26
2021-12-10 13:53:51.927582,-21
2021-12-10 13:53:51.927591,-16
2021-12-10 13:53:51.927599,-4
2021-12-10 13:53:51.927608,7
2021-12-10 13:53:51.927617,-4
2021-12-10 13:53:51.927625,-19
2021-12-10 13:53:51.927634,-7
2021-12-10 13:53:51.927642,-2
2021-12-10 13:53:51.927650,-4
2021-12-10 13:53:51.927659,9
2021-12-10 13:53:51.927667,2
2021-12-10 13:53:51.927676,-21
2021-12-10 13:53:51.927684,-16
2021-12-10 13:53:51.927693,-2
2021-12-10 13:53:51.927701,2
2021-12-10 13:53:51.927710,14
2021-12-10 13:53:51.927718,14
2021-12-10 13:53:51.927727,2
2021-12-10 13:53:51.927735,19
2021-12-10 13:53:51.927744,28
2021-12-10 13:53:51.927752,-2
2021-12-10 13:53:51.927761,-42
2021-12-10 13:53:51.927769,-64
2021-12-10 13:53:51.927777,-57
2021-12-10 13:53:51.927786,-40
2021-12-10 13:53:51.927794,-42
2021-12-10 13:53:51.927803,-57
2021-12-10 13:53:51.927811,-61
2021-12-10 13:53:52.108934,-57
2021-12-10 13:53:52.108954,-30
2021-12-10 13:53:52.108963,11
2021-12-10 13:53:52.108972,28
2021-12-10 13:53:52.108980,14
2021-12-10 13:53:52.108988,0
2021-12-10 13:53:52.108997,-16
2021-12-10 13:53:52.109005,-30
2021-12-10 13:53:52.109013,-33
2021-12-10 13:53:52.109021,-35
2021-12-10 13:53:52.109029,-35
2021-12-10 13:53:52.109037,-40
2021-12-10 13:53:52.109045,-64
2021-12-10 13:53:52.109053,-54
2021-12-10 13:53:52.109062,-28
2021-12-10 13:53:52.109070,-50
2021-12-10 13:53:52.109078,-145
2021-12-10 13:53:52.109086,-238
2021-12-10 13:53:52.109094,-47
2021-12-10 13:53:52.109103,605
2021-12-10 13:53:52.109111,1456
2021-12-10 13:53:52.109119,1766
2021-12-10 13:53:52.109127,956
2021-12-10 13:53:52.109135,-169
2021-12-10 13:53:52.109144,-400
2021-12-10 13:53:52.109152,-131
2021-12-10 13:53:52.109160,-174
2021-12-10 13:53:52.109168,-271
2021-12-10 13:53:52.109176,-190
2021-12-10 13:53:52.109184,-159
2021-12-10 13:53:52.378383,-183
2021-12-10 13:53:52.378403,-145
2021-12-10 13:53:52.378412,-102
2021-12-10 13:53:52.378421,-109
2021-12-10 13:53:52.378430,-123
2021-12-10 13:53:52.378438,-121
2021-12-10 13:53:52.378446,-104
2021-12-10 13:53:52.378455,-76
2021-12-10 13:53:52.378463,-50
2021-12-10 13:53:52.378471,-38
2021-12-10 13:53:52.378480,-33
2021-12-10 13:53:52.378488,-35
2021-12-10 13:53:52.378497,-21
2021-12-10 13:53:52.378505,14
2021-12-10 13:53:52.378514,30
2021-12-10 13:53:52.378522,30
2021-12-10 13:53:52.378531,40
2021-12-10 13:53:52.378539,50
2021-12-10 13:53:52.378547,40
2021-12-10 13:53:52.378556,38
2021-12-10 13:53:52.378564,35
2021-12-10 13:53:52.378573,14
2021-12-10 13:53:52.378581,-4
2021-12-10 13:53:52.378590,0
2021-12-10 13:53:52.378598,16
2021-12-10 13:53:52.378607,33
2021-12-10 13:53:52.378615,30
2021-12-10 13:53:52.378624,0
2021-12-10 13:53:52.378632,-57
2021-12-10 13:53:52.378641,-92
2021-12-10 13:53:52.559024,-76
2021-12-10 13:53:52.559046,-45
2021-12-10 13:53:52.559055,-35
2021-12-10 13:53:52.559064,-40
2021-12-10 13:53:52.559072,-54
2021-12-10 13:53:52.559081,-59
2021-12-10 13:53:52.559089,-38
2021-12-10 13:53:52.559097,-19
2021-12-10 13:53:52.559106,-7
2021-12-10 13:53:52.559114,-9
2021-12-10 13:53:52.559122,-38
2021-12-10 13:53:52.559131,-47
2021-12-10 13:53:52.559139,-16
2021-12-10 13:53:52.559148,4
2021-12-10 13:53:52.559156,-4
2021-12-10 13:53:52.559164,-21
2021-12-10 13:53:52.559173,-33
2021-12-10 13:53:52.559181,-19
2021-12-10 13:53:52.559190,7
2021-12-10 13:53:52.559198,16
2021-12-10 13:53:52.559206,11
2021-12-10 13:53:52.559215,4
2021-12-10 13:53:52.559223,7
2021-12-10 13:53:52.559231,14
2021-12-10 13:53:52.559240,26
2021-12-10 13:53:52.559248,45
2021-12-10 13:53:52.559256,54
2021-12-10 13:53:52.559265,40
2021-12-10 13:53:52.559273,50
2021-12-10 13:53:52.559281,78
2021-12-10 13:53:52.917942,66
2021-12-10 13:53:52.917962,45
2021-12-10 13:53:52.917971,45
2021-12-10 13:53:52.917980,-2
2021-12-10 13:53:52.917989,-61
2021-12-10 13:53:52.917997,-54
2021-12-10 13:53:52.918006,-23
2021-12-10 13:53:52.918014,-21
2021-12-10 13:53:52.918023,-30
2021-12-10 13:53:52.918031,-52
2021-12-10 13:53:52.918040,-73
2021-12-10 13:53:52.918048,-61
2021-12-10 13:53:52.918056,-95
2021-12-10 13:53:52.918065,-214
2021-12-10 13:53:52.918073,-200
2021-12-10 13:53:52.918081,221
2021-12-10 13:53:52.918089,1044
2021-12-10 13:53:52.918098,1809
2021-12-10 13:53:52.918106,1628
2021-12-10 13:53:52.918114,445
2021-12-10 13:53:52.918123,-357
2021-12-10 13:53:52.918131,-216
2021-12-10 13:53:52.918139,-52
2021-12-10 13:53:52.918147,-176
2021-12-10 13:53:52.918156,-188
2021-12-10 13:53:52.918164,-123
2021-12-10 13:53:52.918172,-164
2021-12-10 13:53:52.918180,-195
2021-12-10 13:53:52.918188,-157
2021-12-10 13:53:52.918197,-128
2021-12-10 13:53:53.053450,-121
2021-12-10 13:53:53.053466,-116
2021-12-10 13:53:53.053476,-128
2021-12-10 13:53:53.053485,-140
2021-12-10 13:53:53.053493,-135
2021-12-10 13:53:53.053502,-145
2021-12-10 13:53:53.053510,-143
2021-12-10 13:53:53.053519,-102
2021-12-10 13:53:53.053527,-85
2021-12-10 13:53:53.053536,-95
2021-12-10 13:53:53.053544,-71
2021-12-10 13:53:53.053553,-35
2021-12-10 13:53:53.053561,-23
2021-12-10 13:53:53.053569,-16
2021-12-10 13:53:53.053581,-28
2021-12-10 13:53:53.053589,-71
2021-12-10 13:53:53.053598,-85
2021-12-10 13:53:53.053606,-69
2021-12-10 13:53:53.053615,-64
2021-12-10 13:53:53.053623,-73
2021-12-10 13:53:53.053631,-97
2021-12-10 13:53:53.053640,-119
2021-12-10 13:53:53.053648,-109
2021-12-10 13:53:53.053656,-100
2021-12-10 13:53:53.053665,-95
2021-12-10 13:53:53.053673,-81
2021-12-10 13:53:53.053682,-85
2021-12-10 13:53:53.053690,-97
2021-12-10 13:53:53.053698,-71
2021-12-10 13:53:53.053707,-38
2021-12-10 13:53:53.278921,-35
2021-12-10 13:53:53.278940,-45
2021-12-10 13:53:53.278950,-52
2021-12-10 13:53:53.278958,-64
2021-12-10 13:53:53.278967,-69
2021-12-10 13:53:53.278975,-54
2021-12-10 13:53:53.278983,-28
2021-12-10 13:53:53.278992,-28
2021-12-10 13:53:53.279000,-57
2021-12-10 13:53:53.279008,-69
2021-12-10 13:53:53.279017,-59
2021-12-10 13:53:53.279025,-50
2021-12-10 13:53:53.279034,-33
2021-12-10 13:53:53.279042,-33
2021-12-10 13:53:53.279050,-61
2021-12-10 13:53:53.279058,-69
2021-12-10 13:53:53.279067,-33
2021-12-10 13:53:53.279075,-4
2021-12-10 13:53:53.279083,-11
2021-12-10 13:53:53.279091,-21
2021-12-10 13:53:53.279099,-28
2021-12-10 13:53:53.279108,-45
2021-12-10 13:53:53.279116,-38
2021-12-10 13:53:53.279124,-2
2021-12-10 13:53:53.279132,14
2021-12-10 13:53:53.279141,9
2021-12-10 13:53:53.279149,9
2021-12-10 13:53:53.279157,30
2021-12-10 13:53:53.279166,76
2021-12-10 13:53:53.279174,92
2021-12-10 13:53:53.503642,78
2021-12-10 13:53:53.503662,76
2021-12-10 13:53:53.503671,66
2021-12-10 13:53:53.503679,35
2021-12-10 13:53:53.503686,26
2021-12-10 13:53:53.503694,23
2021-12-10 13:53:53.503700,4
2021-12-10 13:53:53.503707,-33
2021-12-10 13:53:53.503714,-61
2021-12-10 13:53:53.503722,-71
2021-12-10 13:53:53.503729,-88
2021-12-10 13:53:53.503735,-154
2021-12-10 13:53:53.503742,-290
2021-12-10 13:53:53.503749,-321
2021-12-10 13:53:53.503756,85
2021-12-10 13:53:53.503764,975
2021-12-10 13:53:53.503771,1828
2021-12-10 13:53:53.503778,1726
2021-12-10 13:53:53.503786,550
2021-12-10 13:53:53.503793,-379
2021-12-10 13:53:53.503801,-298
2021-12-10 13:53:53.503809,-57
2021-12-10 13:53:53.503816,-185
2021-12-10 13:53:53.503823,-233
2021-12-10 13:53:53.503831,-133
2021-12-10 13:53:53.503838,-147
2021-12-10 13:53:53.503846,-185
2021-12-10 13:53:53.503853,-150
2021-12-10 13:53:53.503861,-133
2021-12-10 13:53:53.503869,-138
2021-12-10 13:53:53.728942,-140
2021-12-10 13:53:53.728961,-150
2021-12-10 13:53:53.728971,-138
2021-12-10 13:53:53.728979,-109
2021-12-10 13:53:53.728988,-85
2021-12-10 13:53:53.728996,-64
2021-12-10 13:53:53.729004,-66
2021-12-10 13:53:53.729013,-104
2021-12-10 13:53:53.729021,-126
2021-12-10 13:53:53.729029,-102
2021-12-10 13:53:53.729037,-59
2021-12-10 13:53:53.729046,-42
2021-12-10 13:53:53.729054,-64
2021-12-10 13:53:53.729062,-73
2021-12-10 13:53:53.729070,-64
2021-12-10 13:53:53.729079,-57
2021-12-10 13:53:53.729087,-54
2021-12-10 13:53:53.729095,-54
2021-12-10 13:53:53.729103,-66
2021-12-10 13:53:53.729111,-76
2021-12-10 13:53:53.729120,-83
2021-12-10 13:53:53.729128,-100
2021-12-10 13:53:53.729136,-107
2021-12-10 13:53:53.729144,-95
2021-12-10 13:53:53.729153,-92
2021-12-10 13:53:53.729161,-95
2021-12-10 13:53:53.729169,-90
2021-12-10 13:53:53.729178,-88
2021-12-10 13:53:53.729186,-69
2021-12-10 13:53:53.729194,-47
2021-12-10 13:53:54.042554,-52
2021-12-10 13:53:54.042572,-52
2021-12-10 13:53:54.042582,-35
2021-12-10 13:53:54.042590,-33
2021-12-10 13:53:54.042599,-38
2021-12-10 13:53:54.042608,-38
2021-12-10 13:53:54.042616,-52
2021-12-10 13:53:54.042625,-57
2021-12-10 13:53:54.042633,-30
2021-12-10 13:53:54.042641,-33
2021-12-10 13:53:54.042650,-66
2021-12-10 13:53:54.042658,-85
2021-12-10 13:53:54.042666,-85
2021-12-10 13:53:54.042675,-81
2021-12-10 13:53:54.042683,-76
2021-12-10 13:53:54.042692,-97
2021-12-10 13:53:54.042700,-126
2021-12-10 13:53:54.042708,-123
2021-12-10 13:53:54.042717,-109
2021-12-10 13:53:54.042725,-100
2021-12-10 13:53:54.042733,-81
2021-12-10 13:53:54.042742,-66
2021-12-10 13:53:54.042750,-69
2021-12-10 13:53:54.042758,-71
2021-12-10 13:53:54.042767,-57
2021-12-10 13:53:54.042775,-30
2021-12-10 13:53:54.042783,2
2021-12-10 13:53:54.042792,19
2021-12-10 13:53:54.042800,14
2021-12-10 13:53:54.042809,14
2021-12-10 13:53:54.178920,11
2021-12-10 13:53:54.178939,-2
2021-12-10 13:53:54.178948,-7
2021-12-10 13:53:54.178957,-2
2021-12-10 13:53:54.178966,2
2021-12-10 13:53:54.178974,-11
2021-12-10 13:53:54.178983,-40
2021-12-10 13:53:54.178991,-35
2021-12-10 13:53:54.179000,-11
2021-12-10 13:53:54.179008,-35
2021-12-10 13:53:54.179016,-157
2021-12-10 13:53:54.179025,-252
2021-12-10 13:53:54.179033,-7
2021-12-10 13:53:54.179042,722
2021-12-10 13:53:54.179050,1623
2021-12-10 13:53:54.179059,1826
2021-12-10 13:53:54.179067,853
2021-12-10 13:53:54.179075,-238
2021-12-10 13:53:54.179083,-367
2021-12-10 13:53:54.179092,-100
2021-12-10 13:53:54.179100,-145
2021-12-10 13:53:54.179108,-228
2021-12-10 13:53:54.179116,-157
2021-12-10 13:53:54.179125,-138
2021-12-10 13:53:54.179133,-159
2021-12-10 13:53:54.179141,-123
2021-12-10 13:53:54.179150,-90
2021-12-10 13:53:54.179158,-83
2021-12-10 13:53:54.179166,-71
2021-12-10 13:53:54.179174,-64
2021-12-10 13:53:54.403598,-71
2021-12-10 13:53:54.403617,-71
2021-12-10 13:53:54.403627,-66
2021-12-10 13:53:54.403636,-69
2021-12-10 13:53:54.403645,-85
2021-12-10 13:53:54.403653,-88
2021-12-10 13:53:54.403662,-57
2021-12-10 13:53:54.403670,-28
2021-12-10 13:53:54.403679,-23
2021-12-10 13:53:54.403687,-23
2021-12-10 13:53:54.403695,-35
2021-12-10 13:53:54.403703,-50
2021-12-10 13:53:54.403712,-38
2021-12-10 13:53:54.403720,-42
2021-12-10 13:53:54.403728,-92
2021-12-10 13:53:54.403737,-128
2021-12-10 13:53:54.403745,-121
2021-12-10 13:53:54.403753,-104
2021-12-10 13:53:54.403762,-97
2021-12-10 13:53:54.403770,-95
2021-12-10 13:53:54.403778,-121
2021-12-10 13:53:54.403786,-171
2021-12-10 13:53:54.403795,-178
2021-12-10 13:53:54.403803,-147
2021-12-10 13:53:54.403811,-138
2021-12-10 13:53:54.403820,-126
2021-12-10 13:53:54.403828,-102
2021-12-10 13:53:54.403836,-107
2021-12-10 13:53:54.403844,-121
2021-12-10 13:53:54.403852,-102
2021-12-10 13:53:54.629084,-76
2021-12-10 13:53:54.629105,-59
2021-12-10 13:53:54.629115,-47
2021-12-10 13:53:54.629123,-61
2021-12-10 13:53:54.629132,-90
2021-12-10 13:53:54.629140,-81
2021-12-10 13:53:54.629149,-54
2021-12-10 13:53:54.629157,-47
2021-12-10 13:53:54.629166,-47
2021-12-10 13:53:54.629174,-59
2021-12-10 13:53:54.629183,-76
2021-12-10 13:53:54.629191,-66
2021-12-10 13:53:54.629200,-45
2021-12-10 13:53:54.629208,-30
2021-12-10 13:53:54.629217,-26
2021-12-10 13:53:54.629225,-28
2021-12-10 13:53:54.629233,-45
2021-12-10 13:53:54.629242,-54
2021-12-10 13:53:54.629250,-38
2021-12-10 13:53:54.629258,-9
2021-12-10 13:53:54.629267,-9
2021-12-10 13:53:54.629275,-26
2021-12-10 13:53:54.629284,-21
2021-12-10 13:53:54.629292,23
2021-12-10 13:53:54.629300,76
2021-12-10 13:53:54.629309,90
2021-12-10 13:53:54.629317,61
2021-12-10 13:53:54.629325,33
2021-12-10 13:53:54.629334,28
2021-12-10 13:53:54.629342,33
2021-12-10 13:53:54.898872,38
2021-12-10 13:53:54.898890,52
2021-12-10 13:53:54.898899,42
2021-12-10 13:53:54.898908,11
2021-12-10 13:53:54.898916,19
2021-12-10 13:53:54.898924,38
2021-12-10 13:53:54.898932,-2
2021-12-10 13:53:54.898941,-61
2021-12-10 13:53:54.898949,-145
2021-12-10 13:53:54.898957,-169
2021-12-10 13:53:54.898965,159
2021-12-10 13:53:54.898974,953
2021-12-10 13:53:54.898982,1750
2021-12-10 13:53:54.898990,1642
2021-12-10 13:53:54.898998,517
2021-12-10 13:53:54.899007,-317
2021-12-10 13:53:54.899015,-205
2021-12-10 13:53:54.899023,-9
2021-12-10 13:53:54.899032,-145
2021-12-10 13:53:54.899040,-185
2021-12-10 13:53:54.899048,-107
2021-12-10 13:53:54.899057,-145
2021-12-10 13:53:54.899065,-205
2021-12-10 13:53:54.899073,-169
2021-12-10 13:53:54.899081,-107
2021-12-10 13:53:54.899089,-92
2021-12-10 13:53:54.899098,-121
2021-12-10 13:53:54.899106,-145
2021-12-10 13:53:54.899114,-131
2021-12-10 13:53:54.899122,-85
2021-12-10 13:53:55.123875,-59
2021-12-10 13:53:55.123893,-66
2021-12-10 13:53:55.123902,-78
2021-12-10 13:53:55.123911,-83
2021-12-10 13:53:55.123919,-81
2021-12-10 13:53:55.123927,-54
2021-12-10 13:53:55.123936,-35
2021-12-10 13:53:55.123944,-35
2021-12-10 13:53:55.123953,-35
2021-12-10 13:53:55.123961,-59
2021-12-10 13:53:55.123969,-81
2021-12-10 13:53:55.123978,-64
2021-12-10 13:53:55.123986,-59
2021-12-10 13:53:55.123994,-78
2021-12-10 13:53:55.124002,-109
2021-12-10 13:53:55.124010,-133
2021-12-10 13:53:55.124019,-123
2021-12-10 13:53:55.124027,-90
2021-12-10 13:53:55.124035,-83
2021-12-10 13:53:55.124043,-114
2021-12-10 13:53:55.124051,-140
2021-12-10 13:53:55.124060,-128
2021-12-10 13:53:55.124068,-104
2021-12-10 13:53:55.124076,-92
2021-12-10 13:53:55.124084,-83
2021-12-10 13:53:55.124093,-69
2021-12-10 13:53:55.124101,-64
2021-12-10 13:53:55.124109,-66
2021-12-10 13:53:55.124117,-61
2021-12-10 13:53:55.124126,-47
2021-12-10 13:53:55.348520,-33
2021-12-10 13:53:55.348538,-42
2021-12-10 13:53:55.348548,-57
2021-12-10 13:53:55.348556,-45
2021-12-10 13:53:55.348565,-19
2021-12-10 13:53:55.348574,-9
2021-12-10 13:53:55.348582,0
2021-12-10 13:53:55.348590,-7
2021-12-10 13:53:55.348599,-33
2021-12-10 13:53:55.348607,-30
2021-12-10 13:53:55.348615,-4
2021-12-10 13:53:55.348623,0
2021-12-10 13:53:55.348632,-23
2021-12-10 13:53:55.348640,-45
2021-12-10 13:53:55.348648,-45
2021-12-10 13:53:55.348657,-28
2021-12-10 13:53:55.348665,-21
2021-12-10 13:53:55.348673,-21
2021-12-10 13:53:55.348681,-2
2021-12-10 13:53:55.348690,4
2021-12-10 13:53:55.348698,-2
2021-12-10 13:53:55.348706,11
2021-12-10 13:53:55.348714,45
2021-12-10 13:53:55.348722,47
2021-12-10 13:53:55.348730,33
2021-12-10 13:53:55.348739,33
2021-12-10 13:53:55.348747,23
2021-12-10 13:53:55.348756,2
2021-12-10 13:53:55.348764,2
2021-12-10 13:53:55.348772,14
2021-12-10 13:53:55.574058,-2
2021-12-10 13:53:55.574080,-21
2021-12-10 13:53:55.574089,-23
2021-12-10 13:53:55.574098,-38
2021-12-10 13:53:55.574106,-52
2021-12-10 13:53:55.574114,-40
2021-12-10 13:53:55.574123,-102
2021-12-10 13:53:55.574131,-238
2021-12-10 13:53:55.574139,-71
2021-12-10 13:53:55.574148,603
2021-12-10 13:53:55.574156,1447
2021-12-10 13:53:55.574164,1728
2021-12-10 13:53:55.574172,951
2021-12-10 13:53:55.574181,-116
2021-12-10 13:53:55.574189,-345
2021-12-10 13:53:55.574197,-69
2021-12-10 13:53:55.574206,-100
2021-12-10 13:53:55.574214,-240
2021-12-10 13:53:55.574222,-178
2021-12-10 13:53:55.574233,-128
2021-12-10 13:53:55.574241,-174
2021-12-10 13:53:55.574250,-159
2021-12-10 13:53:55.574258,-90
2021-12-10 13:53:55.574266,-69
2021-12-10 13:53:55.574274,-85
2021-12-10 13:53:55.574283,-83
2021-12-10 13:53:55.574291,-52
2021-12-10 13:53:55.574299,-23
2021-12-10 13:53:55.574307,-14
2021-12-10 13:53:55.574315,-16
2021-12-10 13:53:55.798566,-7
2021-12-10 13:53:55.798585,19
2021-12-10 13:53:55.798595,4
2021-12-10 13:53:55.798604,-33
2021-12-10 13:53:55.798612,-7
2021-12-10 13:53:55.798620,23
2021-12-10 13:53:55.798629,-9
2021-12-10 13:53:55.798637,-14
2021-12-10 13:53:55.798646,21
2021-12-10 13:53:55.798654,4
2021-12-10 13:53:55.798662,-42
2021-12-10 13:53:55.798671,-59
2021-12-10 13:53:55.798679,-61
2021-12-10 13:53:55.798688,-50
2021-12-10 13:53:55.798696,-33
2021-12-10 13:53:55.798704,-54
2021-12-10 13:53:55.798713,-85
2021-12-10 13:53:55.798721,-83
2021-12-10 13:53:55.798729,-71
2021-12-10 13:53:55.798738,-66
2021-12-10 13:53:55.798746,-73
2021-12-10 13:53:55.798754,-71
2021-12-10 13:53:55.798762,-47
2021-12-10 13:53:55.798770,-33
2021-12-10 13:53:55.798779,-30
2021-12-10 13:53:55.798787,-19
2021-12-10 13:53:55.798795,-26
2021-12-10 13:53:55.798803,-61
2021-12-10 13:53:55.798812,-69
2021-12-10 13:53:55.798820,-54
2021-12-10 13:53:56.112617,-50
2021-12-10 13:53:56.112636,-30
2021-12-10 13:53:56.112645,-14
2021-12-10 13:53:56.112654,-14
2021-12-10 13:53:56.112662,-11
2021-12-10 13:53:56.112671,-23
2021-12-10 13:53:56.112679,-54
2021-12-10 13:53:56.112687,-78
2021-12-10 13:53:56.112696,-104
2021-12-10 13:53:56.112704,-126
2021-12-10 13:53:56.112712,-107
2021-12-10 13:53:56.112721,-90
2021-12-10 13:53:56.112729,-92
2021-12-10 13:53:56.112737,-78
2021-12-10 13:53:56.112745,-61
2021-12-10 13:53:56.112754,-66
2021-12-10 13:53:56.112762,-59
2021-12-10 13:53:56.112770,-54
2021-12-10 13:53:56.112778,-66
2021-12-10 13:53:56.112787,-47
2021-12-10 13:53:56.112795,7
2021-12-10 13:53:56.112803,33
2021-12-10 13:53:56.112811,11
2021-12-10 13:53:56.112820,-4
2021-12-10 13:53:56.112828,4
2021-12-10 13:53:56.112836,14
2021-12-10 13:53:56.112845,14
2021-12-10 13:53:56.112853,2
2021-12-10 13:53:56.112861,-26
2021-12-10 13:53:56.112869,-30
2021-12-10 13:53:56.248641,-14
2021-12-10 13:53:56.248662,-33
2021-12-10 13:53:56.248671,-45
2021-12-10 13:53:56.248680,-38
2021-12-10 13:53:56.248688,-121
2021-12-10 13:53:56.248697,-245
2021-12-10 13:53:56.248705,-88
2021-12-10 13:53:56.248714,522
2021-12-10 13:53:56.248722,1354
2021-12-10 13:53:56.248730,1652
2021-12-10 13:53:56.248739,867
2021-12-10 13:53:56.248747,-147
2021-12-10 13:53:56.248756,-317
2021-12-10 13:53:56.248764,-57
2021-12-10 13:53:56.248772,-69
2021-12-10 13:53:56.248780,-185
2021-12-10 13:53:56.248789,-190
2021-12-10 13:53:56.248797,-169
2021-12-10 13:53:56.248805,-143
2021-12-10 13:53:56.248814,-104
2021-12-10 13:53:56.248822,-73
2021-12-10 13:53:56.248830,-85
2021-12-10 13:53:56.248839,-114
2021-12-10 13:53:56.248847,-88
2021-12-10 13:53:56.248855,-30
2021-12-10 13:53:56.248863,-26
2021-12-10 13:53:56.248871,-35
2021-12-10 13:53:56.248880,-33
2021-12-10 13:53:56.248888,-50
2021-12-10 13:53:56.248896,-54
2021-12-10 13:53:56.474100,-40
2021-12-10 13:53:56.474122,-59
2021-12-10 13:53:56.474132,-78
2021-12-10 13:53:56.474140,-61
2021-12-10 13:53:56.474149,-45
2021-12-10 13:53:56.474158,-45
2021-12-10 13:53:56.474166,-52
2021-12-10 13:53:56.474175,-57
2021-12-10 13:53:56.474183,-61
2021-12-10 13:53:56.474191,-97
2021-12-10 13:53:56.474200,-135
2021-12-10 13:53:56.474208,-121
2021-12-10 13:53:56.474216,-100
2021-12-10 13:53:56.474225,-109
2021-12-10 13:53:56.474233,-123
2021-12-10 13:53:56.474241,-159
2021-12-10 13:53:56.474250,-162
2021-12-10 13:53:56.474258,-107
2021-12-10 13:53:56.474266,-88
2021-12-10 13:53:56.474275,-104
2021-12-10 13:53:56.474283,-100
2021-12-10 13:53:56.474291,-83
2021-12-10 13:53:56.474300,-54
2021-12-10 13:53:56.474308,-21
2021-12-10 13:53:56.474316,-26
2021-12-10 13:53:56.474324,-40
2021-12-10 13:53:56.474333,-28
2021-12-10 13:53:56.474341,-11
2021-12-10 13:53:56.474349,-9
2021-12-10 13:53:56.474376,7
2021-12-10 13:53:56.788388,30
2021-12-10 13:53:56.788409,30
2021-12-10 13:53:56.788418,2
2021-12-10 13:53:56.788427,-38
2021-12-10 13:53:56.788436,-40
2021-12-10 13:53:56.788444,-4
2021-12-10 13:53:56.788453,4
2021-12-10 13:53:56.788461,11
2021-12-10 13:53:56.788469,4
2021-12-10 13:53:56.788478,-35
2021-12-10 13:53:56.788486,-33
2021-12-10 13:53:56.788495,9
2021-12-10 13:53:56.788503,26
2021-12-10 13:53:56.788511,33
2021-12-10 13:53:56.788520,38
2021-12-10 13:53:56.788528,28
2021-12-10 13:53:56.788536,59
2021-12-10 13:53:56.788545,119
2021-12-10 13:53:56.788553,123
2021-12-10 13:53:56.788561,104
2021-12-10 13:53:56.788569,109
2021-12-10 13:53:56.788578,88
2021-12-10 13:53:56.788586,57
2021-12-10 13:53:56.788594,71
2021-12-10 13:53:56.788603,90
2021-12-10 13:53:56.788611,88
2021-12-10 13:53:56.788619,83
2021-12-10 13:53:56.788627,76
2021-12-10 13:53:56.788636,78
2021-12-10 13:53:56.788644,92
2021-12-10 13:53:56.968575,61
2021-12-10 13:53:56.968594,-40
2021-12-10 13:53:56.968603,-45
2021-12-10 13:53:56.968612,343
2021-12-10 13:53:56.968620,1139
2021-12-10 13:53:56.968629,1781
2021-12-10 13:53:56.968637,1456
2021-12-10 13:53:56.968645,343
2021-12-10 13:53:56.968653,-298
2021-12-10 13:53:56.968662,-140
2021-12-10 13:53:56.968670,2
2021-12-10 13:53:56.968678,-73
2021-12-10 13:53:56.968687,-81
2021-12-10 13:53:56.968695,-73
2021-12-10 13:53:56.968703,-100
2021-12-10 13:53:56.968712,-71
2021-12-10 13:53:56.968720,-30
2021-12-10 13:53:56.968728,-45
2021-12-10 13:53:56.968737,-64
2021-12-10 13:53:56.968745,-50
2021-12-10 13:53:56.968753,-40
2021-12-10 13:53:56.968761,-40
2021-12-10 13:53:56.968770,-28
2021-12-10 13:53:56.968778,-4
2021-12-10 13:53:56.968786,38
2021-12-10 13:53:56.968794,61
2021-12-10 13:53:56.968803,19
2021-12-10 13:53:56.968811,-30
2021-12-10 13:53:56.968819,-11
2021-12-10 13:53:56.968828,35
2021-12-10 13:53:57.193952,47
2021-12-10 13:53:57.193971,30
2021-12-10 13:53:57.193981,28
2021-12-10 13:53:57.193989,40
2021-12-10 13:53:57.193998,45
2021-12-10 13:53:57.194006,23
2021-12-10 13:53:57.194015,-16
2021-12-10 13:53:57.194023,-54
2021-12-10 13:53:57.194032,-64
2021-12-10 13:53:57.194040,-50
2021-12-10 13:53:57.194048,-59
2021-12-10 13:53:57.194057,-66
2021-12-10 13:53:57.194065,-38
2021-12-10 13:53:57.194073,-26
2021-12-10 13:53:57.194082,-59
2021-12-10 13:53:57.194090,-76
2021-12-10 13:53:57.194098,-45
2021-12-10 13:53:57.194107,-14
2021-12-10 13:53:57.194115,-21
2021-12-10 13:53:57.194123,-30
2021-12-10 13:53:57.194132,-11
2021-12-10 13:53:57.194140,-11
2021-12-10 13:53:57.194148,-11
2021-12-10 13:53:57.194157,23
2021-12-10 13:53:57.194165,42
2021-12-10 13:53:57.194173,40
2021-12-10 13:53:57.194182,35
2021-12-10 13:53:57.194190,26
2021-12-10 13:53:57.194199,33
2021-12-10 13:53:57.194207,50
2021-12-10 13:53:57.418727,50
2021-12-10 13:53:57.418749,52
2021-12-10 13:53:57.418758,64
2021-12-10 13:53:57.418766,61
2021-12-10 13:53:57.418775,57
2021-12-10 13:53:57.418783,78
2021-12-10 13:53:57.418791,73
2021-12-10 13:53:57.418800,30
2021-12-10 13:53:57.418808,9
2021-12-10 13:53:57.418816,2
2021-12-10 13:53:57.418825,2
2021-12-10 13:53:57.418833,26
2021-12-10 13:53:57.418842,42
2021-12-10 13:53:57.418850,38
2021-12-10 13:53:57.418858,38
2021-12-10 13:53:57.418867,50
2021-12-10 13:53:57.418875,66
2021-12-10 13:53:57.418883,85
2021-12-10 13:53:57.418892,59
2021-12-10 13:53:57.418900,11
2021-12-10 13:53:57.418908,2
2021-12-10 13:53:57.418916,19
2021-12-10 13:53:57.418925,11
2021-12-10 13:53:57.418933,-23
2021-12-10 13:53:57.418941,-47
2021-12-10 13:53:57.418950,-33
2021-12-10 13:53:57.418958,0
2021-12-10 13:53:57.418966,-35
2021-12-10 13:53:57.418975,-169
2021-12-10 13:53:57.418983,-188
2021-12-10 13:53:57.644043,181
2021-12-10 13:53:57.644064,906
2021-12-10 13:53:57.644074,1576
2021-12-10 13:53:57.644082,1433
2021-12-10 13:53:57.644091,402
2021-12-10 13:53:57.644100,-293
2021-12-10 13:53:57.644108,-174
2021-12-10 13:53:57.644116,-66
2021-12-10 13:53:57.644125,-193
2021-12-10 13:53:57.644133,-185
2021-12-10 13:53:57.644141,-123
2021-12-10 13:53:57.644150,-154
2021-12-10 13:53:57.644158,-188
2021-12-10 13:53:57.644166,-171
2021-12-10 13:53:57.644174,-133
2021-12-10 13:53:57.644183,-97
2021-12-10 13:53:57.644191,-88
2021-12-10 13:53:57.644199,-112
2021-12-10 13:53:57.644208,-119
2021-12-10 13:53:57.644216,-76
2021-12-10 13:53:57.644224,-38
2021-12-10 13:53:57.644233,-23
2021-12-10 13:53:57.644241,-7
2021-12-10 13:53:57.644249,-7
2021-12-10 13:53:57.644258,-21
2021-12-10 13:53:57.644266,-11
2021-12-10 13:53:57.644274,2
2021-12-10 13:53:57.644283,-4
2021-12-10 13:53:57.644291,-9
2021-12-10 13:53:57.644299,-19
2021-12-10 13:53:57.868949,-23
2021-12-10 13:53:57.868968,-14
2021-12-10 13:53:57.868977,-23
2021-12-10 13:53:57.868986,-52
2021-12-10 13:53:57.868994,-64
2021-12-10 13:53:57.869003,-73
2021-12-10 13:53:57.869011,-81
2021-12-10 13:53:57.869020,-61
2021-12-10 13:53:57.869028,-50
2021-12-10 13:53:57.869037,-71
2021-12-10 13:53:57.869045,-81
2021-12-10 13:53:57.869054,-78
2021-12-10 13:53:57.869062,-100
2021-12-10 13:53:57.869071,-121
2021-12-10 13:53:57.869079,-131
2021-12-10 13:53:57.869087,-119
2021-12-10 13:53:57.869096,-100
2021-12-10 13:53:57.869104,-102
2021-12-10 13:53:57.869113,-97
2021-12-10 13:53:57.869121,-69
2021-12-10 13:53:57.869129,-69
2021-12-10 13:53:57.869138,-81
2021-12-10 13:53:57.869146,-69
2021-12-10 13:53:57.869154,-57
2021-12-10 13:53:57.869162,-47
2021-12-10 13:53:57.869171,-30
2021-12-10 13:53:57.869179,-14
2021-12-10 13:53:57.869187,-23
2021-12-10 13:53:57.869195,-83
2021-12-10 13:53:57.869204,-123
2021-12-10 13:53:58.137556,-76
2021-12-10 13:53:58.137573,-33
2021-12-10 13:53:58.137583,-54
2021-12-10 13:53:58.137591,-76
2021-12-10 13:53:58.137600,-76
2021-12-10 13:53:58.137608,-73
2021-12-10 13:53:58.137617,-61
2021-12-10 13:53:58.137625,-45
2021-12-10 13:53:58.137633,-52
2021-12-10 13:53:58.137642,-64
2021-12-10 13:53:58.137650,-47
2021-12-10 13:53:58.137658,-19
2021-12-10 13:53:58.137667,-9
2021-12-10 13:53:58.137675,-19
2021-12-10 13:53:58.137684,-47
2021-12-10 13:53:58.137692,-90
2021-12-10 13:53:58.137700,-102
2021-12-10 13:53:58.137709,-73
2021-12-10 13:53:58.137717,-57
2021-12-10 13:53:58.137726,-76
2021-12-10 13:53:58.137734,-85
2021-12-10 13:53:58.137742,-71
2021-12-10 13:53:58.137751,-73
2021-12-10 13:53:58.137759,-88
2021-12-10 13:53:58.137767,-133
2021-12-10 13:53:58.137775,-195
2021-12-10 13:53:58.137784,-50
2021-12-10 13:53:58.137792,484
2021-12-10 13:53:58.137801,1227
2021-12-10 13:53:58.137809,1514
2021-12-10 13:53:58.362894,805
2021-12-10 13:53:58.362912,-147
2021-12-10 13:53:58.362922,-307
2021-12-10 13:53:58.362930,-78
2021-12-10 13:53:58.362939,-140
2021-12-10 13:53:58.362947,-231
2021-12-10 13:53:58.362955,-164
2021-12-10 13:53:58.362964,-147
2021-12-10 13:53:58.362972,-174
2021-12-10 13:53:58.362981,-166
2021-12-10 13:53:58.362989,-169
2021-12-10 13:53:58.362998,-162
2021-12-10 13:53:58.363006,-123
2021-12-10 13:53:58.363014,-102
2021-12-10 13:53:58.363023,-95
2021-12-10 13:53:58.363031,-104
2021-12-10 13:53:58.363040,-119
2021-12-10 13:53:58.363048,-114
2021-12-10 13:53:58.363056,-78
2021-12-10 13:53:58.363065,-54
2021-12-10 13:53:58.363073,-59
2021-12-10 13:53:58.363082,-73
2021-12-10 13:53:58.363090,-76
2021-12-10 13:53:58.363098,-71
2021-12-10 13:53:58.363107,-78
2021-12-10 13:53:58.363115,-92
2021-12-10 13:53:58.363124,-100
2021-12-10 13:53:58.363132,-114
2021-12-10 13:53:58.363141,-128
2021-12-10 13:53:58.363149,-121
2021-12-10 13:53:58.589037,-112
2021-12-10 13:53:58.589056,-104
2021-12-10 13:53:58.589066,-102
2021-12-10 13:53:58.589075,-145
2021-12-10 13:53:58.589083,-212
2021-12-10 13:53:58.589094,-224
2021-12-10 13:53:58.589103,-195
2021-12-10 13:53:58.589112,-183
2021-12-10 13:53:58.589120,-195
2021-12-10 13:53:58.589129,-216
2021-12-10 13:53:58.589137,-216
2021-12-10 13:53:58.589145,-190
2021-12-10 13:53:58.589154,-166
2021-12-10 13:53:58.589162,-157
2021-12-10 13:53:58.589170,-169
2021-12-10 13:53:58.589178,-176
2021-12-10 13:53:58.589187,-159
2021-12-10 13:53:58.589195,-138
2021-12-10 13:53:58.589204,-140
2021-12-10 13:53:58.589212,-162
2021-12-10 13:53:58.589220,-169
2021-12-10 13:53:58.589228,-152
2021-12-10 13:53:58.589237,-133
2021-12-10 13:53:58.589245,-119
2021-12-10 13:53:58.589253,-107
2021-12-10 13:53:58.589261,-107
2021-12-10 13:53:58.589270,-112
2021-12-10 13:53:58.589278,-109
2021-12-10 13:53:58.589286,-97
2021-12-10 13:53:58.589294,-83
2021-12-10 13:53:58.858971,-71
2021-12-10 13:53:58.858990,-69
2021-12-10 13:53:58.858999,-69
2021-12-10 13:53:58.859008,-59
2021-12-10 13:53:58.859016,-42
2021-12-10 13:53:58.859025,-16
2021-12-10 13:53:58.859033,21
2021-12-10 13:53:58.859042,30
2021-12-10 13:53:58.859050,-2
2021-12-10 13:53:58.859059,-42
2021-12-10 13:53:58.859067,-50
2021-12-10 13:53:58.859075,-45
2021-12-10 13:53:58.859084,-40
2021-12-10 13:53:58.859092,-52
2021-12-10 13:53:58.859100,-88
2021-12-10 13:53:58.859109,-102
2021-12-10 13:53:58.859117,-73
2021-12-10 13:53:58.859125,-54
2021-12-10 13:53:58.859133,-61
2021-12-10 13:53:58.859142,-107
2021-12-10 13:53:58.859150,-202
2021-12-10 13:53:58.859158,-143
2021-12-10 13:53:58.859166,305
2021-12-10 13:53:58.859175,1025
2021-12-10 13:53:58.859183,1461
2021-12-10 13:53:58.859191,984
2021-12-10 13:53:58.859200,-9
2021-12-10 13:53:58.859208,-364
2021-12-10 13:53:58.859216,-133
2021-12-10 13:53:58.859224,-104
2021-12-10 13:53:59.083983,-202
2021-12-10 13:53:59.084002,-164
2021-12-10 13:53:59.084011,-145
2021-12-10 13:53:59.084020,-174
2021-12-10 13:53:59.084029,-140
2021-12-10 13:53:59.084037,-102
2021-12-10 13:53:59.084045,-109
2021-12-10 13:53:59.084054,-119
2021-12-10 13:53:59.084062,-114
2021-12-10 13:53:59.084070,-102
2021-12-10 13:53:59.084078,-100
2021-12-10 13:53:59.084087,-121
2021-12-10 13:53:59.084095,-128
2021-12-10 13:53:59.084103,-112
2021-12-10 13:53:59.084111,-109
2021-12-10 13:53:59.084120,-107
2021-12-10 13:53:59.084128,-90
2021-12-10 13:53:59.084136,-61
2021-12-10 13:53:59.084145,-47
2021-12-10 13:53:59.084153,-78
2021-12-10 13:53:59.084161,-119
2021-12-10 13:53:59.084169,-133
2021-12-10 13:53:59.084177,-157
2021-12-10 13:53:59.084186,-197
2021-12-10 13:53:59.084194,-205
2021-12-10 13:53:59.084202,-195
2021-12-10 13:53:59.084210,-202
2021-12-10 13:53:59.084219,-202
2021-12-10 13:53:59.084227,-188
2021-12-10 13:53:59.084235,-166
2021-12-10 13:53:59.263630,-162
2021-12-10 13:53:59.263648,-171
2021-12-10 13:53:59.263657,-174
2021-12-10 13:53:59.263666,-164
2021-12-10 13:53:59.263674,-152
2021-12-10 13:53:59.263683,-135
2021-12-10 13:53:59.263691,-131
2021-12-10 13:53:59.263699,-145
2021-12-10 13:53:59.263708,-150
2021-12-10 13:53:59.263716,-138
2021-12-10 13:53:59.263724,-128
2021-12-10 13:53:59.263733,-114
2021-12-10 13:53:59.263741,-109
2021-12-10 13:53:59.263749,-126
2021-12-10 13:53:59.263758,-140
2021-12-10 13:53:59.263766,-128
2021-12-10 13:53:59.263775,-107
2021-12-10 13:53:59.263783,-100
2021-12-10 13:53:59.263792,-116
2021-12-10 13:53:59.263800,-126
2021-12-10 13:53:59.263808,-112
2021-12-10 13:53:59.263817,-102
2021-12-10 13:53:59.263825,-100
2021-12-10 13:53:59.263833,-90
2021-12-10 13:53:59.263841,-85
2021-12-10 13:53:59.263850,-92
2021-12-10 13:53:59.263858,-95
2021-12-10 13:53:59.263867,-69
2021-12-10 13:53:59.263875,-19
2021-12-10 13:53:59.263883,0
2021-12-10 13:53:59.488660,-19
2021-12-10 13:53:59.488680,-26
2021-12-10 13:53:59.488690,-26
2021-12-10 13:53:59.488698,-52
2021-12-10 13:53:59.488707,-57
2021-12-10 13:53:59.488715,-40
2021-12-10 13:53:59.488724,-64
2021-12-10 13:53:59.488732,-90
2021-12-10 13:53:59.488740,-71
2021-12-10 13:53:59.488749,-54
2021-12-10 13:53:59.488757,-57
2021-12-10 13:53:59.488766,-76
2021-12-10 13:53:59.488774,-185
2021-12-10 13:53:59.488783,-267
2021-12-10 13:53:59.488791,-4
2021-12-10 13:53:59.488799,667
2021-12-10 13:53:59.488808,1437
2021-12-10 13:53:59.488816,1571
2021-12-10 13:53:59.488825,650
2021-12-10 13:53:59.488833,-300
2021-12-10 13:53:59.488842,-355
2021-12-10 13:53:59.488850,-145
2021-12-10 13:53:59.488858,-202
2021-12-10 13:53:59.488867,-216
2021-12-10 13:53:59.488875,-150
2021-12-10 13:53:59.488883,-150
2021-12-10 13:53:59.488892,-154
2021-12-10 13:53:59.488900,-162
2021-12-10 13:53:59.488908,-185
2021-12-10 13:53:59.488917,-176
2021-12-10 13:53:59.714021,-154
2021-12-10 13:53:59.714042,-131
2021-12-10 13:53:59.714051,-102
2021-12-10 13:53:59.714060,-85
2021-12-10 13:53:59.714068,-78
2021-12-10 13:53:59.714077,-73
2021-12-10 13:53:59.714085,-76
2021-12-10 13:53:59.714093,-69
2021-12-10 13:53:59.714102,-42
2021-12-10 13:53:59.714110,-21
2021-12-10 13:53:59.714119,-11
2021-12-10 13:53:59.714127,-26
2021-12-10 13:53:59.714135,-45
2021-12-10 13:53:59.714143,-28
2021-12-10 13:53:59.714152,-16
2021-12-10 13:53:59.714160,-30
2021-12-10 13:53:59.714168,-42
2021-12-10 13:53:59.714176,-71
2021-12-10 13:53:59.714185,-102
2021-12-10 13:53:59.714193,-95
2021-12-10 13:53:59.714201,-88
2021-12-10 13:53:59.714210,-107
2021-12-10 13:53:59.714218,-121
2021-12-10 13:53:59.714226,-131
2021-12-10 13:53:59.714234,-128
2021-12-10 13:53:59.714242,-121
2021-12-10 13:53:59.714251,-123
2021-12-10 13:53:59.714259,-121
2021-12-10 13:53:59.714267,-109
2021-12-10 13:53:59.714276,-112
2021-12-10 13:53:59.938968,-112
2021-12-10 13:53:59.938986,-90
2021-12-10 13:53:59.938996,-78
2021-12-10 13:53:59.939005,-88
2021-12-10 13:53:59.939013,-92
2021-12-10 13:53:59.939021,-104
2021-12-10 13:53:59.939030,-104
2021-12-10 13:53:59.939038,-83
2021-12-10 13:53:59.939046,-69
2021-12-10 13:53:59.939055,-69
2021-12-10 13:53:59.939063,-81
2021-12-10 13:53:59.939071,-95
2021-12-10 13:53:59.939080,-92
2021-12-10 13:53:59.939088,-71
2021-12-10 13:53:59.939096,-59
2021-12-10 13:53:59.939104,-54
2021-12-10 13:53:59.939112,-52
2021-12-10 13:53:59.939121,-28
2021-12-10 13:53:59.939129,7
2021-12-10 13:53:59.939137,23
2021-12-10 13:53:59.939146,19
2021-12-10 13:53:59.939154,-9
2021-12-10 13:53:59.939162,-57
2021-12-10 13:53:59.939171,-85
2021-12-10 13:53:59.939179,-81
2021-12-10 13:53:59.939187,-64
2021-12-10 13:53:59.939195,-59
2021-12-10 13:53:59.939204,-54
2021-12-10 13:53:59.939212,-50
2021-12-10 13:53:59.939220,-42
2021-12-10 13:54:00.252852,-73
2021-12-10 13:54:00.252872,-202
2021-12-10 13:54:00.252881,-269
2021-12-10 13:54:00.252890,35
2021-12-10 13:54:00.252899,753
2021-12-10 13:54:00.252907,1573
2021-12-10 13:54:00.252915,1676
2021-12-10 13:54:00.252924,674
2021-12-10 13:54:00.252932,-288
2021-12-10 13:54:00.252940,-329
2021-12-10 13:54:00.252948,-123
2021-12-10 13:54:00.252956,-185
2021-12-10 13:54:00.252965,-219
2021-12-10 13:54:00.252973,-147
2021-12-10 13:54:00.252981,-138
2021-12-10 13:54:00.252989,-159
2021-12-10 13:54:00.252998,-133
2021-12-10 13:54:00.253006,-97
2021-12-10 13:54:00.253014,-81
2021-12-10 13:54:00.253022,-66
2021-12-10 13:54:00.253030,-57
2021-12-10 13:54:00.253039,-57
2021-12-10 13:54:00.253047,-50
2021-12-10 13:54:00.253055,-30
2021-12-10 13:54:00.253063,-14
2021-12-10 13:54:00.253072,0
2021-12-10 13:54:00.253080,21
2021-12-10 13:54:00.253089,26
2021-12-10 13:54:00.253097,35
2021-12-10 13:54:00.253105,66
2021-12-10 13:54:00.433622,88
2021-12-10 13:54:00.433642,97
2021-12-10 13:54:00.433651,90
2021-12-10 13:54:00.433660,52
2021-12-10 13:54:00.433668,26
2021-12-10 13:54:00.433677,38
2021-12-10 13:54:00.433685,45
2021-12-10 13:54:00.433693,35
2021-12-10 13:54:00.433702,16
2021-12-10 13:54:00.433710,-30
2021-12-10 13:54:00.433718,-64
2021-12-10 13:54:00.433727,-59
2021-12-10 13:54:00.433735,-52
2021-12-10 13:54:00.433744,-64
2021-12-10 13:54:00.433752,-97
2021-12-10 13:54:00.433760,-147
2021-12-10 13:54:00.433769,-166
2021-12-10 13:54:00.433777,-150
2021-12-10 13:54:00.433785,-138
2021-12-10 13:54:00.433794,-138
2021-12-10 13:54:00.433802,-135
2021-12-10 13:54:00.433811,-140
2021-12-10 13:54:00.433819,-138
2021-12-10 13:54:00.433827,-112
2021-12-10 13:54:00.433836,-102
2021-12-10 13:54:00.433844,-102
2021-12-10 13:54:00.433852,-100
2021-12-10 13:54:00.433861,-123
2021-12-10 13:54:00.433869,-157
2021-12-10 13:54:00.433877,-154
2021-12-10 13:54:00.703619,-126
2021-12-10 13:54:00.703637,-114
2021-12-10 13:54:00.703647,-116
2021-12-10 13:54:00.703656,-112
2021-12-10 13:54:00.703664,-85
2021-12-10 13:54:00.703673,-73
2021-12-10 13:54:00.703681,-78
2021-12-10 13:54:00.703690,-66
2021-12-10 13:54:00.703698,-97
2021-12-10 13:54:00.703706,-157
2021-12-10 13:54:00.703714,-145
2021-12-10 13:54:00.703723,-104
2021-12-10 13:54:00.703731,-97
2021-12-10 13:54:00.703740,-97
2021-12-10 13:54:00.703748,-114
2021-12-10 13:54:00.703756,-133
2021-12-10 13:54:00.703765,-112
2021-12-10 13:54:00.703773,-116
2021-12-10 13:54:00.703781,-228
2021-12-10 13:54:00.703790,-283
2021-12-10 13:54:00.703798,19
2021-12-10 13:54:00.703807,753
2021-12-10 13:54:00.703815,1578
2021-12-10 13:54:00.703824,1664
2021-12-10 13:54:00.703832,698
2021-12-10 13:54:00.703840,-216
2021-12-10 13:54:00.703848,-252
2021-12-10 13:54:00.703857,-52
2021-12-10 13:54:00.703865,-123
2021-12-10 13:54:00.703874,-171
2021-12-10 13:54:00.883609,-100
2021-12-10 13:54:00.883628,-90
2021-12-10 13:54:00.883638,-104
2021-12-10 13:54:00.883647,-78
2021-12-10 13:54:00.883655,-57
2021-12-10 13:54:00.883664,-45
2021-12-10 13:54:00.883672,-19
2021-12-10 13:54:00.883681,-16
2021-12-10 13:54:00.883692,-30
2021-12-10 13:54:00.883701,-14
2021-12-10 13:54:00.883709,14
2021-12-10 13:54:00.883718,35
2021-12-10 13:54:00.883726,54
2021-12-10 13:54:00.883735,52
2021-12-10 13:54:00.883743,38
2021-12-10 13:54:00.883751,50
2021-12-10 13:54:00.883760,81
2021-12-10 13:54:00.883768,102
2021-12-10 13:54:00.883776,114
2021-12-10 13:54:00.883785,100
2021-12-10 13:54:00.883793,59
2021-12-10 13:54:00.883801,38
2021-12-10 13:54:00.883809,35
2021-12-10 13:54:00.883818,35
2021-12-10 13:54:00.883826,26
2021-12-10 13:54:00.883834,4
2021-12-10 13:54:00.883843,-19
2021-12-10 13:54:00.883851,-26
2021-12-10 13:54:00.883859,-28
2021-12-10 13:54:00.883868,-30
2021-12-10 13:54:01.109002,-35
2021-12-10 13:54:01.109021,-45
2021-12-10 13:54:01.109031,-50
2021-12-10 13:54:01.109039,-71
2021-12-10 13:54:01.109048,-107
2021-12-10 13:54:01.109056,-104
2021-12-10 13:54:01.109065,-83
2021-12-10 13:54:01.109073,-109
2021-12-10 13:54:01.109082,-131
2021-12-10 13:54:01.109090,-128
2021-12-10 13:54:01.109098,-135
2021-12-10 13:54:01.109107,-152
2021-12-10 13:54:01.109115,-166
2021-12-10 13:54:01.109123,-193
2021-12-10 13:54:01.109131,-214
2021-12-10 13:54:01.109139,-207
2021-12-10 13:54:01.109148,-185
2021-12-10 13:54:01.109156,-171
2021-12-10 13:54:01.109164,-164
2021-12-10 13:54:01.109173,-164
2021-12-10 13:54:01.109181,-159
2021-12-10 13:54:01.109189,-145
2021-12-10 13:54:01.109198,-131
2021-12-10 13:54:01.109206,-116
2021-12-10 13:54:01.109214,-90
2021-12-10 13:54:01.109222,-59
2021-12-10 13:54:01.109231,-52
2021-12-10 13:54:01.109239,-69
2021-12-10 13:54:01.109248,-76
2021-12-10 13:54:01.109256,-76
2021-12-10 13:54:01.333566,-78
2021-12-10 13:54:01.333584,-76
2021-12-10 13:54:01.333594,-69
2021-12-10 13:54:01.333602,-69
2021-12-10 13:54:01.333611,-64
2021-12-10 13:54:01.333619,-61
2021-12-10 13:54:01.333627,-76
2021-12-10 13:54:01.333636,-114
2021-12-10 13:54:01.333644,-202
2021-12-10 13:54:01.333652,-267
2021-12-10 13:54:01.333661,-42
2021-12-10 13:54:01.333669,600
2021-12-10 13:54:01.333678,1397
2021-12-10 13:54:01.333686,1626
2021-12-10 13:54:01.333694,813
2021-12-10 13:54:01.333702,-200
2021-12-10 13:54:01.333711,-371
2021-12-10 13:54:01.333719,-121
2021-12-10 13:54:01.333728,-150
2021-12-10 13:54:01.333736,-231
2021-12-10 13:54:01.333744,-162
2021-12-10 13:54:01.333752,-133
2021-12-10 13:54:01.333761,-147
2021-12-10 13:54:01.333769,-112
2021-12-10 13:54:01.333777,-81
2021-12-10 13:54:01.333785,-73
2021-12-10 13:54:01.333794,-57
2021-12-10 13:54:01.333802,-40
2021-12-10 13:54:01.333810,-26
2021-12-10 13:54:01.333819,-11
2021-12-10 13:54:01.602928,9
2021-12-10 13:54:01.602950,35
2021-12-10 13:54:01.602959,57
2021-12-10 13:54:01.602968,73
2021-12-10 13:54:01.602976,95
2021-12-10 13:54:01.602984,100
2021-12-10 13:54:01.602992,92
2021-12-10 13:54:01.603000,109
2021-12-10 13:54:01.603008,143
2021-12-10 13:54:01.603015,128
2021-12-10 13:54:01.603022,69
2021-12-10 13:54:01.603030,23
2021-12-10 13:54:01.603038,16
2021-12-10 13:54:01.603046,4
2021-12-10 13:54:01.603054,-23
2021-12-10 13:54:01.603063,-35
2021-12-10 13:54:01.603071,-42
2021-12-10 13:54:01.603080,-83
2021-12-10 13:54:01.603088,-112
2021-12-10 13:54:01.603096,-100
2021-12-10 13:54:01.603103,-95
2021-12-10 13:54:01.603112,-112
2021-12-10 13:54:01.603120,-107
2021-12-10 13:54:01.603128,-92
2021-12-10 13:54:01.603136,-95
2021-12-10 13:54:01.603144,-90
2021-12-10 13:54:01.603152,-73
2021-12-10 13:54:01.603160,-69
2021-12-10 13:54:01.603168,-61
2021-12-10 13:54:01.603176,-45
2021-12-10 13:54:01.783999,-35
2021-12-10 13:54:01.784018,-21
2021-12-10 13:54:01.784027,-11
2021-12-10 13:54:01.784036,-9
2021-12-10 13:54:01.784045,-16
2021-12-10 13:54:01.784053,-19
2021-12-10 13:54:01.784061,-7
2021-12-10 13:54:01.784070,-4
2021-12-10 13:54:01.784127,-30
2021-12-10 13:54:01.784137,-50
2021-12-10 13:54:01.784146,-69
2021-12-10 13:54:01.784154,-102
2021-12-10 13:54:01.784162,-97
2021-12-10 13:54:01.784171,-66
2021-12-10 13:54:01.784179,-52
2021-12-10 13:54:01.784187,-50
2021-12-10 13:54:01.784196,-73
2021-12-10 13:54:01.784204,-90
2021-12-10 13:54:01.784213,-66
2021-12-10 13:54:01.784221,-57
2021-12-10 13:54:01.784229,-85
2021-12-10 13:54:01.784237,-104
2021-12-10 13:54:01.784246,-107
2021-12-10 13:54:01.784254,-102
2021-12-10 13:54:01.784262,-88
2021-12-10 13:54:01.784270,-64
2021-12-10 13:54:01.784279,-54
2021-12-10 13:54:01.784287,-61
2021-12-10 13:54:01.784295,-97
2021-12-10 13:54:01.784303,-200
2021-12-10 13:54:02.008607,-257
2021-12-10 13:54:02.008627,14
2021-12-10 13:54:02.008637,708
2021-12-10 13:54:02.008645,1554
2021-12-10 13:54:02.008654,1766
2021-12-10 13:54:02.008662,865
2021-12-10 13:54:02.008671,-178
2021-12-10 13:54:02.008679,-319
2021-12-10 13:54:02.008687,-73
2021-12-10 13:54:02.008696,-131
2021-12-10 13:54:02.008704,-240
2021-12-10 13:54:02.008713,-178
2021-12-10 13:54:02.008721,-131
2021-12-10 13:54:02.008729,-138
2021-12-10 13:54:02.008738,-114
2021-12-10 13:54:02.008746,-121
2021-12-10 13:54:02.008754,-164
2021-12-10 13:54:02.008763,-162
2021-12-10 13:54:02.008771,-135
2021-12-10 13:54:02.008779,-121
2021-12-10 13:54:02.008787,-97
2021-12-10 13:54:02.008796,-85
2021-12-10 13:54:02.008804,-81
2021-12-10 13:54:02.008812,-50
2021-12-10 13:54:02.008821,-7
2021-12-10 13:54:02.008829,26
2021-12-10 13:54:02.008837,45
2021-12-10 13:54:02.008845,50
2021-12-10 13:54:02.008854,64
2021-12-10 13:54:02.008862,88
2021-12-10 13:54:02.368055,100
2021-12-10 13:54:02.368074,114
2021-12-10 13:54:02.368084,112
2021-12-10 13:54:02.368092,54
2021-12-10 13:54:02.368101,21
2021-12-10 13:54:02.368109,59
2021-12-10 13:54:02.368118,54
2021-12-10 13:54:02.368127,-19
2021-12-10 13:54:02.368135,-50
2021-12-10 13:54:02.368144,-47
2021-12-10 13:54:02.368152,-69
2021-12-10 13:54:02.368161,-69
2021-12-10 13:54:02.368169,-50
2021-12-10 13:54:02.368178,-47
2021-12-10 13:54:02.368186,-54
2021-12-10 13:54:02.368195,-76
2021-12-10 13:54:02.368203,-83
2021-12-10 13:54:02.368212,-40
2021-12-10 13:54:02.368221,-16
2021-12-10 13:54:02.368229,-71
2021-12-10 13:54:02.368237,-119
2021-12-10 13:54:02.368245,-97
2021-12-10 13:54:02.368254,-64
2021-12-10 13:54:02.368262,-57
2021-12-10 13:54:02.368270,-40
2021-12-10 13:54:02.368279,-9
2021-12-10 13:54:02.368287,-21
2021-12-10 13:54:02.368296,-71
2021-12-10 13:54:02.368304,-69
2021-12-10 13:54:02.368312,-21
2021-12-10 13:54:02.503535,-7
2021-12-10 13:54:02.503551,-7
2021-12-10 13:54:02.503556,-9
2021-12-10 13:54:02.503560,-28
2021-12-10 13:54:02.503565,-38
2021-12-10 13:54:02.503569,-42
2021-12-10 13:54:02.503573,-47
2021-12-10 13:54:02.503578,-35
2021-12-10 13:54:02.503582,-54
2021-12-10 13:54:02.503586,-88
2021-12-10 13:54:02.503591,-61
2021-12-10 13:54:02.503595,-33
2021-12-10 13:54:02.503599,-38
2021-12-10 13:54:02.503603,-35
2021-12-10 13:54:02.503608,-71
2021-12-10 13:54:02.503612,-131
2021-12-10 13:54:02.503616,-116
2021-12-10 13:54:02.503621,-81
