Time,ECG
2021-12-10 13:43:30.549021,-123
2021-12-10 13:43:30.549041,-95
2021-12-10 13:43:30.549051,-73
2021-12-10 13:43:30.549060,-69
2021-12-10 13:43:30.549069,-81
2021-12-10 13:43:30.549078,-71
2021-12-10 13:43:30.549087,-40
2021-12-10 13:43:30.549095,-19
2021-12-10 13:43:30.549104,0
2021-12-10 13:43:30.549113,19
2021-12-10 13:43:30.549121,11
2021-12-10 13:43:30.549130,9
2021-12-10 13:43:30.549138,54
2021-12-10 13:43:30.549147,76
2021-12-10 13:43:30.549155,38
2021-12-10 13:43:30.549164,19
2021-12-10 13:43:30.549172,16
2021-12-10 13:43:30.549180,4
2021-12-10 13:43:30.549188,11
2021-12-10 13:43:30.549197,21
2021-12-10 13:43:30.549205,11
2021-12-10 13:43:30.549213,-19
2021-12-10 13:43:30.549222,-33
2021-12-10 13:43:30.549230,-9
2021-12-10 13:43:30.549238,9
2021-12-10 13:43:30.549247,21
2021-12-10 13:43:30.549255,40
2021-12-10 13:43:30.549264,38
2021-12-10 13:43:30.549272,-9
2021-12-10 13:43:30.549281,-61
2021-12-10 13:43:30.562229,-42
2021-12-10 13:43:30.562249,11
2021-12-10 13:43:30.562258,16
2021-12-10 13:43:30.562267,-21
2021-12-10 13:43:30.562276,-52
2021-12-10 13:43:30.562284,-40
2021-12-10 13:43:30.562293,-2
2021-12-10 13:43:30.562302,21
2021-12-10 13:43:30.562310,45
2021-12-10 13:43:30.562319,19
2021-12-10 13:43:30.562327,-71
2021-12-10 13:43:30.562335,-135
2021-12-10 13:43:30.562344,-176
2021-12-10 13:43:30.562352,-190
2021-12-10 13:43:30.562360,-159
2021-12-10 13:43:30.562369,-154
2021-12-10 13:43:30.562377,-162
2021-12-10 13:43:30.562386,-138
2021-12-10 13:43:30.562395,-121
2021-12-10 13:43:30.562403,-109
2021-12-10 13:43:30.562411,-109
2021-12-10 13:43:30.562420,-123
2021-12-10 13:43:30.562428,-114
2021-12-10 13:43:30.562436,-88
2021-12-10 13:43:30.562445,-78
2021-12-10 13:43:30.562453,-88
2021-12-10 13:43:30.562461,-102
2021-12-10 13:43:30.562470,-102
2021-12-10 13:43:30.562478,-88
2021-12-10 13:43:30.562497,-90
2021-12-10 13:43:30.787213,-100
2021-12-10 13:43:30.787233,-59
2021-12-10 13:43:30.787242,-23
2021-12-10 13:43:30.787251,-90
2021-12-10 13:43:30.787260,-135
2021-12-10 13:43:30.787268,-69
2021-12-10 13:43:30.787277,-23
2021-12-10 13:43:30.787285,-52
2021-12-10 13:43:30.787294,-157
2021-12-10 13:43:30.787302,-269
2021-12-10 13:43:30.787310,-69
2021-12-10 13:43:30.787319,588
2021-12-10 13:43:30.787327,1402
2021-12-10 13:43:30.787339,1723
2021-12-10 13:43:30.787348,965
2021-12-10 13:43:30.787356,-212
2021-12-10 13:43:30.787365,-479
2021-12-10 13:43:30.787373,-100
2021-12-10 13:43:30.787382,-88
2021-12-10 13:43:30.787390,-243
2021-12-10 13:43:30.787398,-164
2021-12-10 13:43:30.787407,-102
2021-12-10 13:43:30.787415,-123
2021-12-10 13:43:30.787424,-85
2021-12-10 13:43:30.787432,-52
2021-12-10 13:43:30.787440,-64
2021-12-10 13:43:30.787449,-66
2021-12-10 13:43:30.787457,-57
2021-12-10 13:43:30.787466,-35
2021-12-10 13:43:30.787475,-11
2021-12-10 13:43:31.056330,2
2021-12-10 13:43:31.056352,21
2021-12-10 13:43:31.056362,33
2021-12-10 13:43:31.056371,40
2021-12-10 13:43:31.056379,64
2021-12-10 13:43:31.056388,88
2021-12-10 13:43:31.056397,100
2021-12-10 13:43:31.056405,100
2021-12-10 13:43:31.056414,78
2021-12-10 13:43:31.056422,42
2021-12-10 13:43:31.056431,30
2021-12-10 13:43:31.056439,21
2021-12-10 13:43:31.056448,-11
2021-12-10 13:43:31.056456,-28
2021-12-10 13:43:31.056465,-40
2021-12-10 13:43:31.056473,-54
2021-12-10 13:43:31.056481,-50
2021-12-10 13:43:31.056492,-69
2021-12-10 13:43:31.056501,-92
2021-12-10 13:43:31.056509,-71
2021-12-10 13:43:31.056518,-59
2021-12-10 13:43:31.056526,-73
2021-12-10 13:43:31.056535,-69
2021-12-10 13:43:31.056543,-59
2021-12-10 13:43:31.056551,-59
2021-12-10 13:43:31.056560,-50
2021-12-10 13:43:31.056568,-42
2021-12-10 13:43:31.056576,-42
2021-12-10 13:43:31.056585,-61
2021-12-10 13:43:31.056593,-83
2021-12-10 13:43:31.281627,-71
2021-12-10 13:43:31.281649,-64
2021-12-10 13:43:31.281659,-85
2021-12-10 13:43:31.281667,-95
2021-12-10 13:43:31.281675,-102
2021-12-10 13:43:31.281683,-109
2021-12-10 13:43:31.281692,-109
2021-12-10 13:43:31.281705,-114
2021-12-10 13:43:31.281713,-112
2021-12-10 13:43:31.281722,-95
2021-12-10 13:43:31.281730,-88
2021-12-10 13:43:31.281739,-88
2021-12-10 13:43:31.281747,-92
2021-12-10 13:43:31.281756,-119
2021-12-10 13:43:31.281764,-138
2021-12-10 13:43:31.281772,-112
2021-12-10 13:43:31.281780,-90
2021-12-10 13:43:31.281788,-78
2021-12-10 13:43:31.281796,-50
2021-12-10 13:43:31.281804,-47
2021-12-10 13:43:31.281812,-64
2021-12-10 13:43:31.281820,-50
2021-12-10 13:43:31.281828,-38
2021-12-10 13:43:31.281837,-42
2021-12-10 13:43:31.281845,-59
2021-12-10 13:43:31.281853,-85
2021-12-10 13:43:31.281862,-95
2021-12-10 13:43:31.281870,-71
2021-12-10 13:43:31.281878,-54
2021-12-10 13:43:31.281887,-78
2021-12-10 13:43:31.506134,-102
2021-12-10 13:43:31.506154,-131
2021-12-10 13:43:31.506164,-231
2021-12-10 13:43:31.506172,-255
2021-12-10 13:43:31.506180,107
2021-12-10 13:43:31.506189,901
2021-12-10 13:43:31.506197,1700
2021-12-10 13:43:31.506206,1661
2021-12-10 13:43:31.506214,555
2021-12-10 13:43:31.506222,-414
2021-12-10 13:43:31.506231,-393
2021-12-10 13:43:31.506239,-112
2021-12-10 13:43:31.506247,-188
2021-12-10 13:43:31.506256,-271
2021-12-10 13:43:31.506264,-185
2021-12-10 13:43:31.506272,-145
2021-12-10 13:43:31.506281,-138
2021-12-10 13:43:31.506289,-121
2021-12-10 13:43:31.506297,-140
2021-12-10 13:43:31.506306,-143
2021-12-10 13:43:31.506314,-109
2021-12-10 13:43:31.506322,-97
2021-12-10 13:43:31.506330,-119
2021-12-10 13:43:31.506339,-128
2021-12-10 13:43:31.506350,-90
2021-12-10 13:43:31.506359,-50
2021-12-10 13:43:31.506367,-54
2021-12-10 13:43:31.506375,-57
2021-12-10 13:43:31.506384,-7
2021-12-10 13:43:31.506392,38
2021-12-10 13:43:31.687242,23
2021-12-10 13:43:31.687264,-4
2021-12-10 13:43:31.687273,-26
2021-12-10 13:43:31.687282,-38
2021-12-10 13:43:31.687290,-30
2021-12-10 13:43:31.687299,-50
2021-12-10 13:43:31.687307,-116
2021-12-10 13:43:31.687316,-135
2021-12-10 13:43:31.687324,-102
2021-12-10 13:43:31.687333,-95
2021-12-10 13:43:31.687341,-88
2021-12-10 13:43:31.687349,-73
2021-12-10 13:43:31.687358,-95
2021-12-10 13:43:31.687366,-126
2021-12-10 13:43:31.687374,-109
2021-12-10 13:43:31.687383,-71
2021-12-10 13:43:31.687391,-81
2021-12-10 13:43:31.687400,-116
2021-12-10 13:43:31.687408,-102
2021-12-10 13:43:31.687416,-50
2021-12-10 13:43:31.687425,-28
2021-12-10 13:43:31.687433,-66
2021-12-10 13:43:31.687443,-85
2021-12-10 13:43:31.687452,-50
2021-12-10 13:43:31.687460,-78
2021-12-10 13:43:31.687469,-128
2021-12-10 13:43:31.687477,-90
2021-12-10 13:43:31.687485,-59
2021-12-10 13:43:31.687494,-88
2021-12-10 13:43:31.687502,-109
2021-12-10 13:43:31.911877,-90
2021-12-10 13:43:31.911895,-78
2021-12-10 13:43:31.911903,-92
2021-12-10 13:43:31.911910,-88
2021-12-10 13:43:31.911916,-97
2021-12-10 13:43:31.911923,-154
2021-12-10 13:43:31.911930,-171
2021-12-10 13:43:31.911936,-119
2021-12-10 13:43:31.911943,-100
2021-12-10 13:43:31.911949,-107
2021-12-10 13:43:31.911956,-81
2021-12-10 13:43:31.911962,-71
2021-12-10 13:43:31.911969,-83
2021-12-10 13:43:31.911977,-59
2021-12-10 13:43:31.911984,-83
2021-12-10 13:43:31.911991,-135
2021-12-10 13:43:31.911999,-88
2021-12-10 13:43:31.912007,-47
2021-12-10 13:43:31.912015,-104
2021-12-10 13:43:31.912023,-116
2021-12-10 13:43:31.912031,-64
2021-12-10 13:43:31.912040,-47
2021-12-10 13:43:31.912048,-61
2021-12-10 13:43:31.912056,-83
2021-12-10 13:43:31.912068,-166
2021-12-10 13:43:31.912077,-197
2021-12-10 13:43:31.912085,133
2021-12-10 13:43:31.912093,877
2021-12-10 13:43:31.912102,1659
2021-12-10 13:43:31.912110,1683
2021-12-10 13:43:32.137243,612
2021-12-10 13:43:32.137263,-379
2021-12-10 13:43:32.137273,-355
2021-12-10 13:43:32.137281,-112
2021-12-10 13:43:32.137290,-264
2021-12-10 13:43:32.137298,-333
2021-12-10 13:43:32.137306,-221
2021-12-10 13:43:32.137315,-212
2021-12-10 13:43:32.137323,-226
2021-12-10 13:43:32.137332,-193
2021-12-10 13:43:32.137340,-181
2021-12-10 13:43:32.137349,-183
2021-12-10 13:43:32.137357,-183
2021-12-10 13:43:32.137365,-147
2021-12-10 13:43:32.137374,-88
2021-12-10 13:43:32.137382,-107
2021-12-10 13:43:32.137391,-150
2021-12-10 13:43:32.137399,-95
2021-12-10 13:43:32.137407,-21
2021-12-10 13:43:32.137415,-7
2021-12-10 13:43:32.137424,4
2021-12-10 13:43:32.137432,26
2021-12-10 13:43:32.137441,30
2021-12-10 13:43:32.137449,35
2021-12-10 13:43:32.137457,40
2021-12-10 13:43:32.137466,21
2021-12-10 13:43:32.137474,-9
2021-12-10 13:43:32.137483,-28
2021-12-10 13:43:32.137491,-21
2021-12-10 13:43:32.137499,-26
2021-12-10 13:43:32.452192,-35
2021-12-10 13:43:32.452213,-19
2021-12-10 13:43:32.452222,-4
2021-12-10 13:43:32.452231,-33
2021-12-10 13:43:32.452240,-66
2021-12-10 13:43:32.452248,-50
2021-12-10 13:43:32.452257,-40
2021-12-10 13:43:32.452265,-76
2021-12-10 13:43:32.452273,-100
2021-12-10 13:43:32.452282,-116
2021-12-10 13:43:32.452290,-138
2021-12-10 13:43:32.452298,-116
2021-12-10 13:43:32.452306,-85
2021-12-10 13:43:32.452315,-85
2021-12-10 13:43:32.452323,-76
2021-12-10 13:43:32.452331,-107
2021-12-10 13:43:32.452340,-174
2021-12-10 13:43:32.452348,-171
2021-12-10 13:43:32.452357,-133
2021-12-10 13:43:32.452365,-116
2021-12-10 13:43:32.452373,-109
2021-12-10 13:43:32.452381,-119
2021-12-10 13:43:32.452389,-123
2021-12-10 13:43:32.452398,-102
2021-12-10 13:43:32.452406,-76
2021-12-10 13:43:32.452414,-54
2021-12-10 13:43:32.452422,-52
2021-12-10 13:43:32.452430,-92
2021-12-10 13:43:32.452439,-121
2021-12-10 13:43:32.452447,-81
2021-12-10 13:43:32.632330,-19
2021-12-10 13:43:32.632353,-19
2021-12-10 13:43:32.632362,-116
2021-12-10 13:43:32.632371,-152
2021-12-10 13:43:32.632380,-64
2021-12-10 13:43:32.632388,-26
2021-12-10 13:43:32.632397,-50
2021-12-10 13:43:32.632405,-30
2021-12-10 13:43:32.632414,-26
2021-12-10 13:43:32.632422,-57
2021-12-10 13:43:32.632433,-59
2021-12-10 13:43:32.632442,-35
2021-12-10 13:43:32.632451,-33
2021-12-10 13:43:32.632459,-57
2021-12-10 13:43:32.632467,-73
2021-12-10 13:43:32.632476,-107
2021-12-10 13:43:32.632484,-131
2021-12-10 13:43:32.632493,-133
2021-12-10 13:43:32.632501,-207
2021-12-10 13:43:32.632509,-188
2021-12-10 13:43:32.632518,226
2021-12-10 13:43:32.632526,1015
2021-12-10 13:43:32.632535,1774
2021-12-10 13:43:32.632543,1623
2021-12-10 13:43:32.632551,405
2021-12-10 13:43:32.632560,-462
2021-12-10 13:43:32.632569,-290
2021-12-10 13:43:32.632577,-61
2021-12-10 13:43:32.632586,-181
2021-12-10 13:43:32.632594,-181
2021-12-10 13:43:32.947275,-73
2021-12-10 13:43:32.947296,-104
2021-12-10 13:43:32.947305,-150
2021-12-10 13:43:32.947314,-102
2021-12-10 13:43:32.947323,-71
2021-12-10 13:43:32.947331,-57
2021-12-10 13:43:32.947340,-28
2021-12-10 13:43:32.947348,-19
2021-12-10 13:43:32.947357,-47
2021-12-10 13:43:32.947365,-64
2021-12-10 13:43:32.947373,-16
2021-12-10 13:43:32.947382,26
2021-12-10 13:43:32.947390,2
2021-12-10 13:43:32.947399,-26
2021-12-10 13:43:32.947407,-28
2021-12-10 13:43:32.947416,-16
2021-12-10 13:43:32.947424,7
2021-12-10 13:43:32.947433,19
2021-12-10 13:43:32.947441,21
2021-12-10 13:43:32.947449,26
2021-12-10 13:43:32.947458,-4
2021-12-10 13:43:32.947467,-30
2021-12-10 13:43:32.947475,-11
2021-12-10 13:43:32.947484,-21
2021-12-10 13:43:32.947492,-61
2021-12-10 13:43:32.947505,-35
2021-12-10 13:43:32.947513,4
2021-12-10 13:43:32.947522,-14
2021-12-10 13:43:32.947530,-33
2021-12-10 13:43:32.947539,-19
2021-12-10 13:43:33.082203,0
2021-12-10 13:43:33.082223,11
2021-12-10 13:43:33.082232,11
2021-12-10 13:43:33.082241,-16
2021-12-10 13:43:33.082250,-50
2021-12-10 13:43:33.082258,-50
2021-12-10 13:43:33.082266,-33
2021-12-10 13:43:33.082274,-69
2021-12-10 13:43:33.082283,-145
2021-12-10 13:43:33.082291,-150
2021-12-10 13:43:33.082299,-100
2021-12-10 13:43:33.082308,-97
2021-12-10 13:43:33.082316,-88
2021-12-10 13:43:33.082324,-50
2021-12-10 13:43:33.082333,-102
2021-12-10 13:43:33.082341,-193
2021-12-10 13:43:33.082349,-140
2021-12-10 13:43:33.082357,-61
2021-12-10 13:43:33.082366,-85
2021-12-10 13:43:33.082374,-114
2021-12-10 13:43:33.082382,-140
2021-12-10 13:43:33.082391,-176
2021-12-10 13:43:33.082399,-138
2021-12-10 13:43:33.082407,-78
2021-12-10 13:43:33.082415,-92
2021-12-10 13:43:33.082424,-131
2021-12-10 13:43:33.082432,-116
2021-12-10 13:43:33.082440,-78
2021-12-10 13:43:33.082449,-104
2021-12-10 13:43:33.082457,-131
2021-12-10 13:43:33.307145,-59
2021-12-10 13:43:33.307164,-11
2021-12-10 13:43:33.307174,-45
2021-12-10 13:43:33.307182,-47
2021-12-10 13:43:33.307191,-11
2021-12-10 13:43:33.307199,-16
2021-12-10 13:43:33.307207,-61
2021-12-10 13:43:33.307215,-109
2021-12-10 13:43:33.307224,-131
2021-12-10 13:43:33.307232,-112
2021-12-10 13:43:33.307240,-76
2021-12-10 13:43:33.307249,-57
2021-12-10 13:43:33.307257,-76
2021-12-10 13:43:33.307265,-107
2021-12-10 13:43:33.307273,-143
2021-12-10 13:43:33.307281,-202
2021-12-10 13:43:33.307293,-107
2021-12-10 13:43:33.307301,433
2021-12-10 13:43:33.307309,1278
2021-12-10 13:43:33.307317,1666
2021-12-10 13:43:33.307326,1008
2021-12-10 13:43:33.307334,-90
2021-12-10 13:43:33.307342,-455
2021-12-10 13:43:33.307351,-164
2021-12-10 13:43:33.307359,-97
2021-12-10 13:43:33.307367,-207
2021-12-10 13:43:33.307376,-133
2021-12-10 13:43:33.307384,-107
2021-12-10 13:43:33.307392,-178
2021-12-10 13:43:33.307400,-123
2021-12-10 13:43:33.575455,-66
2021-12-10 13:43:33.575474,-116
2021-12-10 13:43:33.575484,-102
2021-12-10 13:43:33.575492,-30
2021-12-10 13:43:33.575501,-28
2021-12-10 13:43:33.575510,-69
2021-12-10 13:43:33.575518,-64
2021-12-10 13:43:33.575527,-14
2021-12-10 13:43:33.575535,-11
2021-12-10 13:43:33.575544,-52
2021-12-10 13:43:33.575552,-52
2021-12-10 13:43:33.575561,-16
2021-12-10 13:43:33.575569,-2
2021-12-10 13:43:33.575577,-35
2021-12-10 13:43:33.575586,-78
2021-12-10 13:43:33.575594,-85
2021-12-10 13:43:33.575603,-83
2021-12-10 13:43:33.575611,-90
2021-12-10 13:43:33.575620,-107
2021-12-10 13:43:33.575628,-119
2021-12-10 13:43:33.575636,-109
2021-12-10 13:43:33.575645,-102
2021-12-10 13:43:33.575653,-88
2021-12-10 13:43:33.575662,-76
2021-12-10 13:43:33.575670,-73
2021-12-10 13:43:33.575678,-57
2021-12-10 13:43:33.575687,-45
2021-12-10 13:43:33.575695,-47
2021-12-10 13:43:33.575703,-52
2021-12-10 13:43:33.575712,-100
2021-12-10 13:43:33.756909,-128
2021-12-10 13:43:33.756930,-92
2021-12-10 13:43:33.756940,-88
2021-12-10 13:43:33.756948,-116
2021-12-10 13:43:33.756957,-121
2021-12-10 13:43:33.756965,-131
2021-12-10 13:43:33.756974,-145
2021-12-10 13:43:33.756982,-121
2021-12-10 13:43:33.756991,-95
2021-12-10 13:43:33.756999,-100
2021-12-10 13:43:33.757007,-97
2021-12-10 13:43:33.757016,-138
2021-12-10 13:43:33.757024,-190
2021-12-10 13:43:33.757041,-143
2021-12-10 13:43:33.757050,-97
2021-12-10 13:43:33.757058,-121
2021-12-10 13:43:33.757066,-126
2021-12-10 13:43:33.757075,-112
2021-12-10 13:43:33.757083,-102
2021-12-10 13:43:33.757091,-97
2021-12-10 13:43:33.757099,-90
2021-12-10 13:43:33.757108,-78
2021-12-10 13:43:33.757116,-104
2021-12-10 13:43:33.757124,-150
2021-12-10 13:43:33.757132,-97
2021-12-10 13:43:33.757141,-40
2021-12-10 13:43:33.757149,-100
2021-12-10 13:43:33.757157,-119
2021-12-10 13:43:33.757166,-28
2021-12-10 13:43:33.757174,-2
2021-12-10 13:43:33.982296,-30
2021-12-10 13:43:33.982318,-7
2021-12-10 13:43:33.982327,-4
2021-12-10 13:43:33.982336,-28
2021-12-10 13:43:33.982344,-42
2021-12-10 13:43:33.982353,-95
2021-12-10 13:43:33.982361,-109
2021-12-10 13:43:33.982369,-45
2021-12-10 13:43:33.982378,-35
2021-12-10 13:43:33.982386,-71
2021-12-10 13:43:33.982394,-83
2021-12-10 13:43:33.982403,-102
2021-12-10 13:43:33.982411,-169
2021-12-10 13:43:33.982419,-193
2021-12-10 13:43:33.982427,104
2021-12-10 13:43:33.982435,825
2021-12-10 13:43:33.982444,1568
2021-12-10 13:43:33.982452,1545
2021-12-10 13:43:33.982460,529
2021-12-10 13:43:33.982468,-393
2021-12-10 13:43:33.982477,-412
2021-12-10 13:43:33.982485,-150
2021-12-10 13:43:33.982493,-193
2021-12-10 13:43:33.982501,-286
2021-12-10 13:43:33.982509,-219
2021-12-10 13:43:33.982518,-164
2021-12-10 13:43:33.982526,-176
2021-12-10 13:43:33.982534,-143
2021-12-10 13:43:33.982542,-112
2021-12-10 13:43:33.982551,-150
2021-12-10 13:43:34.207311,-133
2021-12-10 13:43:34.207333,-64
2021-12-10 13:43:34.207343,-66
2021-12-10 13:43:34.207352,-104
2021-12-10 13:43:34.207360,-107
2021-12-10 13:43:34.207369,-59
2021-12-10 13:43:34.207377,-45
2021-12-10 13:43:34.207385,-71
2021-12-10 13:43:34.207394,-50
2021-12-10 13:43:34.207402,-45
2021-12-10 13:43:34.207411,-78
2021-12-10 13:43:34.207419,-47
2021-12-10 13:43:34.207427,-2
2021-12-10 13:43:34.207436,-4
2021-12-10 13:43:34.207444,-21
2021-12-10 13:43:34.207452,-57
2021-12-10 13:43:34.207461,-90
2021-12-10 13:43:34.207472,-69
2021-12-10 13:43:34.207480,-26
2021-12-10 13:43:34.207489,-14
2021-12-10 13:43:34.207497,-47
2021-12-10 13:43:34.207505,-73
2021-12-10 13:43:34.207513,-40
2021-12-10 13:43:34.207522,-38
2021-12-10 13:43:34.207530,-119
2021-12-10 13:43:34.207538,-162
2021-12-10 13:43:34.207546,-143
2021-12-10 13:43:34.207555,-145
2021-12-10 13:43:34.207563,-162
2021-12-10 13:43:34.207572,-159
2021-12-10 13:43:34.522176,-140
2021-12-10 13:43:34.522195,-114
2021-12-10 13:43:34.522204,-131
2021-12-10 13:43:34.522213,-181
2021-12-10 13:43:34.522222,-171
2021-12-10 13:43:34.522230,-123
2021-12-10 13:43:34.522238,-123
2021-12-10 13:43:34.522246,-131
2021-12-10 13:43:34.522255,-138
2021-12-10 13:43:34.522263,-181
2021-12-10 13:43:34.522271,-181
2021-12-10 13:43:34.522280,-133
2021-12-10 13:43:34.522288,-116
2021-12-10 13:43:34.522296,-123
2021-12-10 13:43:34.522305,-112
2021-12-10 13:43:34.522313,-83
2021-12-10 13:43:34.522321,-88
2021-12-10 13:43:34.522330,-138
2021-12-10 13:43:34.522338,-135
2021-12-10 13:43:34.522346,-71
2021-12-10 13:43:34.522354,-69
2021-12-10 13:43:34.522362,-97
2021-12-10 13:43:34.522371,-76
2021-12-10 13:43:34.522379,-40
2021-12-10 13:43:34.522387,-19
2021-12-10 13:43:34.522395,-45
2021-12-10 13:43:34.522404,-121
2021-12-10 13:43:34.522412,-171
2021-12-10 13:43:34.522420,-147
2021-12-10 13:43:34.522428,-102
2021-12-10 13:43:34.702291,-104
2021-12-10 13:43:34.702314,-109
2021-12-10 13:43:34.702323,-90
2021-12-10 13:43:34.702337,-104
2021-12-10 13:43:34.702346,-138
2021-12-10 13:43:34.702354,-104
2021-12-10 13:43:34.702363,-57
2021-12-10 13:43:34.702371,-119
2021-12-10 13:43:34.702379,-298
2021-12-10 13:43:34.702387,-300
2021-12-10 13:43:34.702395,171
2021-12-10 13:43:34.702404,1003
2021-12-10 13:43:34.702412,1740
2021-12-10 13:43:34.702420,1590
2021-12-10 13:43:34.702429,391
2021-12-10 13:43:34.702437,-505
2021-12-10 13:43:34.702445,-348
2021-12-10 13:43:34.702453,-83
2021-12-10 13:43:34.702462,-207
2021-12-10 13:43:34.702470,-276
2021-12-10 13:43:34.702478,-209
2021-12-10 13:43:34.702486,-190
2021-12-10 13:43:34.702495,-171
2021-12-10 13:43:34.702503,-128
2021-12-10 13:43:34.702511,-133
2021-12-10 13:43:34.702520,-147
2021-12-10 13:43:34.702528,-126
2021-12-10 13:43:34.702536,-121
2021-12-10 13:43:34.702545,-152
2021-12-10 13:43:34.702556,-154
2021-12-10 13:43:34.926864,-100
2021-12-10 13:43:34.926884,-54
2021-12-10 13:43:34.926893,-76
2021-12-10 13:43:34.926902,-92
2021-12-10 13:43:34.926911,-61
2021-12-10 13:43:34.926919,-30
2021-12-10 13:43:34.926928,-4
2021-12-10 13:43:34.926936,-2
2021-12-10 13:43:34.926945,-45
2021-12-10 13:43:34.926953,-64
2021-12-10 13:43:34.926962,-38
2021-12-10 13:43:34.926970,-66
2021-12-10 13:43:34.926978,-116
2021-12-10 13:43:34.926987,-114
2021-12-10 13:43:34.926996,-114
2021-12-10 13:43:34.927004,-121
2021-12-10 13:43:34.927013,-109
2021-12-10 13:43:34.927021,-109
2021-12-10 13:43:34.927030,-126
2021-12-10 13:43:34.927038,-128
2021-12-10 13:43:34.927047,-138
2021-12-10 13:43:34.927055,-181
2021-12-10 13:43:34.927063,-197
2021-12-10 13:43:34.927072,-171
2021-12-10 13:43:34.927080,-164
2021-12-10 13:43:34.927089,-162
2021-12-10 13:43:34.927097,-140
2021-12-10 13:43:34.927105,-121
2021-12-10 13:43:34.927114,-107
2021-12-10 13:43:34.927122,-116
2021-12-10 13:43:35.196814,-140
2021-12-10 13:43:35.196833,-166
2021-12-10 13:43:35.196842,-190
2021-12-10 13:43:35.196851,-188
2021-12-10 13:43:35.196859,-159
2021-12-10 13:43:35.196867,-135
2021-12-10 13:43:35.196876,-152
2021-12-10 13:43:35.196884,-174
2021-12-10 13:43:35.196892,-164
2021-12-10 13:43:35.196901,-150
2021-12-10 13:43:35.196909,-143
2021-12-10 13:43:35.196917,-123
2021-12-10 13:43:35.196926,-116
2021-12-10 13:43:35.196934,-154
2021-12-10 13:43:35.196942,-183
2021-12-10 13:43:35.196950,-145
2021-12-10 13:43:35.196958,-112
2021-12-10 13:43:35.196966,-116
2021-12-10 13:43:35.196975,-109
2021-12-10 13:43:35.196983,-85
2021-12-10 13:43:35.196991,-66
2021-12-10 13:43:35.196999,-61
2021-12-10 13:43:35.197008,-45
2021-12-10 13:43:35.197016,-23
2021-12-10 13:43:35.197024,-47
2021-12-10 13:43:35.197032,-83
2021-12-10 13:43:35.197040,-85
2021-12-10 13:43:35.197049,-57
2021-12-10 13:43:35.197057,-30
2021-12-10 13:43:35.197065,-45
2021-12-10 13:43:35.422216,-61
2021-12-10 13:43:35.422235,-42
2021-12-10 13:43:35.422244,-88
2021-12-10 13:43:35.422253,-233
2021-12-10 13:43:35.422261,-278
2021-12-10 13:43:35.422270,30
2021-12-10 13:43:35.422278,782
2021-12-10 13:43:35.422286,1700
2021-12-10 13:43:35.422294,1929
2021-12-10 13:43:35.422303,910
2021-12-10 13:43:35.422311,-290
2021-12-10 13:43:35.422319,-464
2021-12-10 13:43:35.422328,-181
2021-12-10 13:43:35.422336,-209
2021-12-10 13:43:35.422344,-264
2021-12-10 13:43:35.422353,-185
2021-12-10 13:43:35.422361,-166
2021-12-10 13:43:35.422370,-197
2021-12-10 13:43:35.422378,-202
2021-12-10 13:43:35.422387,-188
2021-12-10 13:43:35.422399,-171
2021-12-10 13:43:35.422408,-159
2021-12-10 13:43:35.422416,-152
2021-12-10 13:43:35.422424,-143
2021-12-10 13:43:35.422433,-123
2021-12-10 13:43:35.422441,-90
2021-12-10 13:43:35.422450,-64
2021-12-10 13:43:35.422458,-47
2021-12-10 13:43:35.422466,-26
2021-12-10 13:43:35.422475,-11
2021-12-10 13:43:35.645898,9
2021-12-10 13:43:35.645918,40
2021-12-10 13:43:35.645928,45
2021-12-10 13:43:35.645936,14
2021-12-10 13:43:35.645945,-23
2021-12-10 13:43:35.645953,-45
2021-12-10 13:43:35.645962,-81
2021-12-10 13:43:35.645970,-116
2021-12-10 13:43:35.645979,-121
2021-12-10 13:43:35.645987,-135
2021-12-10 13:43:35.645996,-159
2021-12-10 13:43:35.646004,-183
2021-12-10 13:43:35.646013,-209
2021-12-10 13:43:35.646021,-205
2021-12-10 13:43:35.646030,-190
2021-12-10 13:43:35.646038,-190
2021-12-10 13:43:35.646047,-195
2021-12-10 13:43:35.646055,-228
2021-12-10 13:43:35.646064,-236
2021-12-10 13:43:35.646072,-195
2021-12-10 13:43:35.646080,-176
2021-12-10 13:43:35.646089,-176
2021-12-10 13:43:35.646097,-162
2021-12-10 13:43:35.646105,-150
2021-12-10 13:43:35.646114,-140
2021-12-10 13:43:35.646122,-116
2021-12-10 13:43:35.646130,-100
2021-12-10 13:43:35.646139,-90
2021-12-10 13:43:35.646147,-90
2021-12-10 13:43:35.646156,-119
2021-12-10 13:43:35.916614,-123
2021-12-10 13:43:35.916634,-81
2021-12-10 13:43:35.916643,-59
2021-12-10 13:43:35.916652,-66
2021-12-10 13:43:35.916660,-92
2021-12-10 13:43:35.916669,-123
2021-12-10 13:43:35.916677,-123
2021-12-10 13:43:35.916686,-119
2021-12-10 13:43:35.916694,-121
2021-12-10 13:43:35.916703,-107
2021-12-10 13:43:35.916711,-107
2021-12-10 13:43:35.916719,-128
2021-12-10 13:43:35.916728,-126
2021-12-10 13:43:35.916736,-88
2021-12-10 13:43:35.916745,-54
2021-12-10 13:43:35.916753,-61
2021-12-10 13:43:35.916761,-78
2021-12-10 13:43:35.916770,-64
2021-12-10 13:43:35.916779,-47
2021-12-10 13:43:35.916787,-52
2021-12-10 13:43:35.916795,-59
2021-12-10 13:43:35.916803,-59
2021-12-10 13:43:35.916811,-52
2021-12-10 13:43:35.916819,-47
2021-12-10 13:43:35.916827,-50
2021-12-10 13:43:35.916836,-40
2021-12-10 13:43:35.916844,-28
2021-12-10 13:43:35.916852,-78
2021-12-10 13:43:35.916861,-202
2021-12-10 13:43:35.916869,-216
2021-12-10 13:43:36.052270,143
2021-12-10 13:43:36.052289,934
2021-12-10 13:43:36.052298,1781
2021-12-10 13:43:36.052307,1814
2021-12-10 13:43:36.052316,701
2021-12-10 13:43:36.052324,-357
2021-12-10 13:43:36.052333,-364
2021-12-10 13:43:36.052341,-52
2021-12-10 13:43:36.052350,-143
2021-12-10 13:43:36.052358,-286
2021-12-10 13:43:36.052367,-245
2021-12-10 13:43:36.052375,-221
2021-12-10 13:43:36.052384,-269
2021-12-10 13:43:36.052392,-288
2021-12-10 13:43:36.052401,-252
2021-12-10 13:43:36.052409,-224
2021-12-10 13:43:36.052418,-216
2021-12-10 13:43:36.052426,-178
2021-12-10 13:43:36.052435,-150
2021-12-10 13:43:36.052443,-197
2021-12-10 13:43:36.052452,-207
2021-12-10 13:43:36.052460,-138
2021-12-10 13:43:36.052471,-97
2021-12-10 13:43:36.052479,-78
2021-12-10 13:43:36.052488,-40
2021-12-10 13:43:36.052496,2
2021-12-10 13:43:36.052505,23
2021-12-10 13:43:36.052513,-4
2021-12-10 13:43:36.052521,-30
2021-12-10 13:43:36.052530,7
2021-12-10 13:43:36.322260,30
2021-12-10 13:43:36.322280,4
2021-12-10 13:43:36.322290,-35
2021-12-10 13:43:36.322298,-97
2021-12-10 13:43:36.322307,-133
2021-12-10 13:43:36.322315,-109
2021-12-10 13:43:36.322324,-104
2021-12-10 13:43:36.322332,-119
2021-12-10 13:43:36.322340,-109
2021-12-10 13:43:36.322348,-123
2021-12-10 13:43:36.322357,-171
2021-12-10 13:43:36.322365,-202
2021-12-10 13:43:36.322373,-193
2021-12-10 13:43:36.322381,-171
2021-12-10 13:43:36.322390,-174
2021-12-10 13:43:36.322398,-181
2021-12-10 13:43:36.322406,-164
2021-12-10 13:43:36.322414,-133
2021-12-10 13:43:36.322422,-109
2021-12-10 13:43:36.322430,-109
2021-12-10 13:43:36.322439,-123
2021-12-10 13:43:36.322447,-104
2021-12-10 13:43:36.322455,-95
2021-12-10 13:43:36.322463,-109
2021-12-10 13:43:36.322471,-83
2021-12-10 13:43:36.322480,-78
2021-12-10 13:43:36.322488,-116
2021-12-10 13:43:36.322496,-90
2021-12-10 13:43:36.322504,-47
2021-12-10 13:43:36.322512,-66
2021-12-10 13:43:36.547205,-73
2021-12-10 13:43:36.547225,-28
2021-12-10 13:43:36.547235,-21
2021-12-10 13:43:36.547243,-69
2021-12-10 13:43:36.547252,-78
2021-12-10 13:43:36.547260,-54
2021-12-10 13:43:36.547269,-45
2021-12-10 13:43:36.547277,-11
2021-12-10 13:43:36.547285,-16
2021-12-10 13:43:36.547294,-76
2021-12-10 13:43:36.547302,-52
2021-12-10 13:43:36.547311,21
2021-12-10 13:43:36.547319,2
2021-12-10 13:43:36.547328,-73
2021-12-10 13:43:36.547336,-112
2021-12-10 13:43:36.547344,-109
2021-12-10 13:43:36.547353,-109
2021-12-10 13:43:36.547361,-119
2021-12-10 13:43:36.547370,-112
2021-12-10 13:43:36.547378,-116
2021-12-10 13:43:36.547386,-154
2021-12-10 13:43:36.547395,-162
2021-12-10 13:43:36.547403,-154
2021-12-10 13:43:36.547411,-216
2021-12-10 13:43:36.547420,-255
2021-12-10 13:43:36.547441,-26
2021-12-10 13:43:36.547449,605
2021-12-10 13:43:36.547458,1495
2021-12-10 13:43:36.547466,1890
2021-12-10 13:43:36.547475,1092
2021-12-10 13:43:36.772279,-121
2021-12-10 13:43:36.772299,-453
2021-12-10 13:43:36.772308,-145
2021-12-10 13:43:36.772317,-100
2021-12-10 13:43:36.772326,-228
2021-12-10 13:43:36.772334,-200
2021-12-10 13:43:36.772343,-147
2021-12-10 13:43:36.772352,-162
2021-12-10 13:43:36.772360,-174
2021-12-10 13:43:36.772368,-159
2021-12-10 13:43:36.772377,-133
2021-12-10 13:43:36.772385,-121
2021-12-10 13:43:36.772394,-112
2021-12-10 13:43:36.772403,-116
2021-12-10 13:43:36.772412,-166
2021-12-10 13:43:36.772421,-202
2021-12-10 13:43:36.772429,-157
2021-12-10 13:43:36.772437,-95
2021-12-10 13:43:36.772446,-76
2021-12-10 13:43:36.772454,-76
2021-12-10 13:43:36.772462,-57
2021-12-10 13:43:36.772471,11
2021-12-10 13:43:36.772479,28
2021-12-10 13:43:36.772487,-14
2021-12-10 13:43:36.772496,-2
2021-12-10 13:43:36.772504,4
2021-12-10 13:43:36.772513,-11
2021-12-10 13:43:36.772521,-26
2021-12-10 13:43:36.772529,-52
2021-12-10 13:43:36.772538,-21
2021-12-10 13:43:36.996822,0
2021-12-10 13:43:36.996840,-90
2021-12-10 13:43:36.996849,-174
2021-12-10 13:43:36.996858,-143
2021-12-10 13:43:36.996867,-100
2021-12-10 13:43:36.996878,-97
2021-12-10 13:43:36.996887,-85
2021-12-10 13:43:36.996895,-126
2021-12-10 13:43:36.996903,-193
2021-12-10 13:43:36.996912,-145
2021-12-10 13:43:36.996920,-64
2021-12-10 13:43:36.996929,-121
2021-12-10 13:43:36.996937,-207
2021-12-10 13:43:36.996945,-162
2021-12-10 13:43:36.996954,-100
2021-12-10 13:43:36.996962,-112
2021-12-10 13:43:36.996970,-138
2021-12-10 13:43:36.996979,-162
2021-12-10 13:43:36.996987,-166
2021-12-10 13:43:36.996996,-152
2021-12-10 13:43:36.997004,-150
2021-12-10 13:43:36.997012,-159
2021-12-10 13:43:36.997021,-166
2021-12-10 13:43:36.997029,-193
2021-12-10 13:43:36.997037,-185
2021-12-10 13:43:36.997046,-126
2021-12-10 13:43:36.997054,-107
2021-12-10 13:43:36.997062,-174
2021-12-10 13:43:36.997071,-205
2021-12-10 13:43:36.997079,-143
2021-12-10 13:43:37.222142,-85
2021-12-10 13:43:37.222160,-73
2021-12-10 13:43:37.222169,-109
2021-12-10 13:43:37.222178,-150
2021-12-10 13:43:37.222186,-112
2021-12-10 13:43:37.222195,-52
2021-12-10 13:43:37.222204,-50
2021-12-10 13:43:37.222212,-42
2021-12-10 13:43:37.222220,-19
2021-12-10 13:43:37.222229,-85
2021-12-10 13:43:37.222237,-126
2021-12-10 13:43:37.222245,-52
2021-12-10 13:43:37.222254,-71
2021-12-10 13:43:37.222262,-143
2021-12-10 13:43:37.222271,-95
2021-12-10 13:43:37.222279,-71
2021-12-10 13:43:37.222287,-119
2021-12-10 13:43:37.222295,-88
2021-12-10 13:43:37.222304,-61
2021-12-10 13:43:37.222312,-185
2021-12-10 13:43:37.222321,-283
2021-12-10 13:43:37.222329,-35
2021-12-10 13:43:37.222337,605
2021-12-10 13:43:37.222346,1437
2021-12-10 13:43:37.222354,1855
2021-12-10 13:43:37.222363,1130
2021-12-10 13:43:37.222371,-107
2021-12-10 13:43:37.222379,-453
2021-12-10 13:43:37.222388,-112
2021-12-10 13:43:37.222396,-85
2021-12-10 13:43:37.491163,-238
2021-12-10 13:43:37.491181,-154
2021-12-10 13:43:37.491191,-66
2021-12-10 13:43:37.491200,-121
2021-12-10 13:43:37.491209,-140
2021-12-10 13:43:37.491217,-121
2021-12-10 13:43:37.491226,-133
2021-12-10 13:43:37.491234,-133
2021-12-10 13:43:37.491243,-126
2021-12-10 13:43:37.491251,-114
2021-12-10 13:43:37.491260,-92
2021-12-10 13:43:37.491269,-107
2021-12-10 13:43:37.491277,-104
2021-12-10 13:43:37.491286,-50
2021-12-10 13:43:37.491294,-11
2021-12-10 13:43:37.491303,-14
2021-12-10 13:43:37.491311,-28
2021-12-10 13:43:37.491319,-21
2021-12-10 13:43:37.491328,9
2021-12-10 13:43:37.491336,11
2021-12-10 13:43:37.491345,-21
2021-12-10 13:43:37.491353,-42
2021-12-10 13:43:37.491361,-50
2021-12-10 13:43:37.491370,-52
2021-12-10 13:43:37.491378,-57
2021-12-10 13:43:37.491387,-45
2021-12-10 13:43:37.491395,-45
2021-12-10 13:43:37.491404,-59
2021-12-10 13:43:37.491412,-66
2021-12-10 13:43:37.491420,-116
2021-12-10 13:43:37.716008,-197
2021-12-10 13:43:37.716029,-181
2021-12-10 13:43:37.716039,-121
2021-12-10 13:43:37.716047,-157
2021-12-10 13:43:37.716056,-212
2021-12-10 13:43:37.716064,-185
2021-12-10 13:43:37.716073,-147
2021-12-10 13:43:37.716081,-140
2021-12-10 13:43:37.716089,-135
2021-12-10 13:43:37.716097,-133
2021-12-10 13:43:37.716106,-143
2021-12-10 13:43:37.716114,-147
2021-12-10 13:43:37.716122,-150
2021-12-10 13:43:37.716131,-145
2021-12-10 13:43:37.716139,-147
2021-12-10 13:43:37.716148,-138
2021-12-10 13:43:37.716156,-128
2021-12-10 13:43:37.716164,-138
2021-12-10 13:43:37.716173,-123
2021-12-10 13:43:37.716181,-100
2021-12-10 13:43:37.716189,-95
2021-12-10 13:43:37.716198,-85
2021-12-10 13:43:37.716206,-66
2021-12-10 13:43:37.716214,-40
2021-12-10 13:43:37.716223,-59
2021-12-10 13:43:37.716231,-140
2021-12-10 13:43:37.716239,-135
2021-12-10 13:43:37.716247,-61
2021-12-10 13:43:37.716256,-73
2021-12-10 13:43:37.716264,-90
2021-12-10 13:43:37.941209,-38
2021-12-10 13:43:37.941230,14
2021-12-10 13:43:37.941240,42
2021-12-10 13:43:37.941248,4
2021-12-10 13:43:37.941257,-81
2021-12-10 13:43:37.941266,-50
2021-12-10 13:43:37.941274,30
2021-12-10 13:43:37.941282,-30
2021-12-10 13:43:37.941291,-104
2021-12-10 13:43:37.941299,-61
2021-12-10 13:43:37.941307,-52
2021-12-10 13:43:37.941316,-104
2021-12-10 13:43:37.941324,-69
2021-12-10 13:43:37.941332,-7
2021-12-10 13:43:37.941341,-50
2021-12-10 13:43:37.941349,-100
2021-12-10 13:43:37.941357,-135
2021-12-10 13:43:37.941365,-169
2021-12-10 13:43:37.941374,81
2021-12-10 13:43:37.941382,817
2021-12-10 13:43:37.941391,1666
2021-12-10 13:43:37.941399,1683
2021-12-10 13:43:37.941407,608
2021-12-10 13:43:37.941416,-324
2021-12-10 13:43:37.941424,-309
2021-12-10 13:43:37.941432,-76
2021-12-10 13:43:37.941440,-152
2021-12-10 13:43:37.941448,-207
2021-12-10 13:43:37.941457,-135
2021-12-10 13:43:37.941465,-109
2021-12-10 13:43:38.167141,-114
2021-12-10 13:43:38.167158,-109
2021-12-10 13:43:38.167168,-133
2021-12-10 13:43:38.167176,-159
2021-12-10 13:43:38.167185,-159
2021-12-10 13:43:38.167193,-147
2021-12-10 13:43:38.167202,-135
2021-12-10 13:43:38.167210,-109
2021-12-10 13:43:38.167219,-123
2021-12-10 13:43:38.167227,-152
2021-12-10 13:43:38.167235,-66
2021-12-10 13:43:38.167244,-21
2021-12-10 13:43:38.167252,-85
2021-12-10 13:43:38.167261,-33
2021-12-10 13:43:38.167269,57
2021-12-10 13:43:38.167278,11
2021-12-10 13:43:38.167286,-19
2021-12-10 13:43:38.167295,21
2021-12-10 13:43:38.167303,16
2021-12-10 13:43:38.167312,-40
2021-12-10 13:43:38.167320,-66
2021-12-10 13:43:38.167328,-35
2021-12-10 13:43:38.167337,-54
2021-12-10 13:43:38.167345,-90
2021-12-10 13:43:38.167354,-33
2021-12-10 13:43:38.167362,-16
2021-12-10 13:43:38.167371,-97
2021-12-10 13:43:38.167379,-133
2021-12-10 13:43:38.167388,-119
2021-12-10 13:43:38.167396,-133
2021-12-10 13:43:38.392195,-119
2021-12-10 13:43:38.392214,-81
2021-12-10 13:43:38.392224,-107
2021-12-10 13:43:38.392232,-104
2021-12-10 13:43:38.392241,-69
2021-12-10 13:43:38.392249,-121
2021-12-10 13:43:38.392258,-109
2021-12-10 13:43:38.392267,-9
2021-12-10 13:43:38.392275,-95
2021-12-10 13:43:38.392283,-209
2021-12-10 13:43:38.392292,-109
2021-12-10 13:43:38.392300,-50
2021-12-10 13:43:38.392308,-90
2021-12-10 13:43:38.392317,-64
2021-12-10 13:43:38.392325,-64
2021-12-10 13:43:38.392333,-138
2021-12-10 13:43:38.392342,-154
2021-12-10 13:43:38.392350,-100
2021-12-10 13:43:38.392359,-85
2021-12-10 13:43:38.392367,-85
2021-12-10 13:43:38.392376,-97
2021-12-10 13:43:38.392384,-126
2021-12-10 13:43:38.392392,-64
2021-12-10 13:43:38.392401,35
2021-12-10 13:43:38.392409,-7
2021-12-10 13:43:38.392417,-112
2021-12-10 13:43:38.392426,-83
2021-12-10 13:43:38.392434,23
2021-12-10 13:43:38.392442,35
2021-12-10 13:43:38.392451,-33
2021-12-10 13:43:38.616878,-69
2021-12-10 13:43:38.616897,-66
2021-12-10 13:43:38.616907,-76
2021-12-10 13:43:38.616916,-90
2021-12-10 13:43:38.616924,-64
2021-12-10 13:43:38.616932,-38
2021-12-10 13:43:38.616941,-42
2021-12-10 13:43:38.616949,-42
2021-12-10 13:43:38.616958,-85
2021-12-10 13:43:38.616966,-145
2021-12-10 13:43:38.616975,-286
2021-12-10 13:43:38.616983,-388
2021-12-10 13:43:38.616992,-4
2021-12-10 13:43:38.617000,879
2021-12-10 13:43:38.617008,1814
2021-12-10 13:43:38.617016,1967
2021-12-10 13:43:38.617025,801
2021-12-10 13:43:38.617033,-443
2021-12-10 13:43:38.617041,-476
2021-12-10 13:43:38.617050,-178
2021-12-10 13:43:38.617058,-312
2021-12-10 13:43:38.617066,-345
2021-12-10 13:43:38.617075,-226
2021-12-10 13:43:38.617083,-193
2021-12-10 13:43:38.617091,-169
2021-12-10 13:43:38.617100,-157
2021-12-10 13:43:38.617108,-190
2021-12-10 13:43:38.617117,-207
2021-12-10 13:43:38.617125,-183
2021-12-10 13:43:38.617133,-138
2021-12-10 13:43:38.841922,-150
2021-12-10 13:43:38.841943,-178
2021-12-10 13:43:38.841953,-121
2021-12-10 13:43:38.841961,-57
2021-12-10 13:43:38.841970,-71
2021-12-10 13:43:38.841979,-95
2021-12-10 13:43:38.841987,-45
2021-12-10 13:43:38.841996,-19
2021-12-10 13:43:38.842004,-78
2021-12-10 13:43:38.842012,-92
2021-12-10 13:43:38.842021,-64
2021-12-10 13:43:38.842032,-38
2021-12-10 13:43:38.842041,-42
2021-12-10 13:43:38.842049,-112
2021-12-10 13:43:38.842058,-85
2021-12-10 13:43:38.842066,-33
2021-12-10 13:43:38.842075,-157
2021-12-10 13:43:38.842083,-228
2021-12-10 13:43:38.842091,-109
2021-12-10 13:43:38.842100,-52
2021-12-10 13:43:38.842108,-197
2021-12-10 13:43:38.842117,-307
2021-12-10 13:43:38.842125,-224
2021-12-10 13:43:38.842133,-164
2021-12-10 13:43:38.842142,-205
2021-12-10 13:43:38.842150,-188
2021-12-10 13:43:38.842159,-128
2021-12-10 13:43:38.842167,-123
2021-12-10 13:43:38.842176,-135
2021-12-10 13:43:38.842184,-157
2021-12-10 13:43:39.156234,-193
2021-12-10 13:43:39.156253,-150
2021-12-10 13:43:39.156263,-138
2021-12-10 13:43:39.156272,-233
2021-12-10 13:43:39.156281,-240
2021-12-10 13:43:39.156289,-138
2021-12-10 13:43:39.156297,-152
2021-12-10 13:43:39.156306,-236
2021-12-10 13:43:39.156314,-169
2021-12-10 13:43:39.156322,-143
2021-12-10 13:43:39.156331,-255
2021-12-10 13:43:39.156339,-271
2021-12-10 13:43:39.156348,-216
2021-12-10 13:43:39.156356,-188
2021-12-10 13:43:39.156364,-143
2021-12-10 13:43:39.156373,-112
2021-12-10 13:43:39.156381,-209
2021-12-10 13:43:39.156389,-326
2021-12-10 13:43:39.156398,-231
2021-12-10 13:43:39.156406,-131
2021-12-10 13:43:39.156414,-221
2021-12-10 13:43:39.156423,-243
2021-12-10 13:43:39.156431,-162
2021-12-10 13:43:39.156439,-159
2021-12-10 13:43:39.156448,-188
2021-12-10 13:43:39.156456,-169
2021-12-10 13:43:39.156464,-121
2021-12-10 13:43:39.156473,-95
2021-12-10 13:43:39.156481,-128
2021-12-10 13:43:39.156489,-178
2021-12-10 13:43:39.336601,-166
2021-12-10 13:43:39.336619,-83
2021-12-10 13:43:39.336629,-145
2021-12-10 13:43:39.336638,-410
2021-12-10 13:43:39.336646,-419
2021-12-10 13:43:39.336655,135
2021-12-10 13:43:39.336663,1146
2021-12-10 13:43:39.336672,2167
2021-12-10 13:43:39.336680,2084
2021-12-10 13:43:39.336688,569
2021-12-10 13:43:39.336697,-634
2021-12-10 13:43:39.336705,-455
2021-12-10 13:43:39.336714,-109
2021-12-10 13:43:39.336722,-340
2021-12-10 13:43:39.336730,-417
2021-12-10 13:43:39.336739,-205
2021-12-10 13:43:39.336747,-221
2021-12-10 13:43:39.336756,-336
2021-12-10 13:43:39.336764,-269
2021-12-10 13:43:39.336772,-178
2021-12-10 13:43:39.336781,-145
2021-12-10 13:43:39.336789,-147
2021-12-10 13:43:39.336797,-207
2021-12-10 13:43:39.336806,-219
2021-12-10 13:43:39.336814,-162
2021-12-10 13:43:39.336822,-147
2021-12-10 13:43:39.336830,-126
2021-12-10 13:43:39.336839,-57
2021-12-10 13:43:39.336847,-50
2021-12-10 13:43:39.336855,-81
2021-12-10 13:43:39.517206,-33
2021-12-10 13:43:39.517224,14
2021-12-10 13:43:39.517234,2
2021-12-10 13:43:39.517243,-2
2021-12-10 13:43:39.517251,-9
2021-12-10 13:43:39.517260,-35
2021-12-10 13:43:39.517268,-71
2021-12-10 13:43:39.517277,-97
2021-12-10 13:43:39.517285,-100
2021-12-10 13:43:39.517293,-114
2021-12-10 13:43:39.517302,-147
2021-12-10 13:43:39.517310,-178
2021-12-10 13:43:39.517318,-145
2021-12-10 13:43:39.517327,-114
2021-12-10 13:43:39.517335,-164
2021-12-10 13:43:39.517343,-226
2021-12-10 13:43:39.517352,-245
2021-12-10 13:43:39.517360,-216
2021-12-10 13:43:39.517368,-164
2021-12-10 13:43:39.517377,-150
2021-12-10 13:43:39.517385,-150
2021-12-10 13:43:39.517393,-195
2021-12-10 13:43:39.517402,-283
2021-12-10 13:43:39.517410,-228
2021-12-10 13:43:39.517419,-104
2021-12-10 13:43:39.517427,-131
2021-12-10 13:43:39.517435,-214
2021-12-10 13:43:39.517443,-193
2021-12-10 13:43:39.517452,-109
2021-12-10 13:43:39.517460,-109
2021-12-10 13:43:39.830992,-147
2021-12-10 13:43:39.831012,-131
2021-12-10 13:43:39.831021,-123
2021-12-10 13:43:39.831030,-133
2021-12-10 13:43:39.831039,-126
2021-12-10 13:43:39.831047,-126
2021-12-10 13:43:39.831056,-104
2021-12-10 13:43:39.831065,-83
2021-12-10 13:43:39.831073,-83
2021-12-10 13:43:39.831082,-112
2021-12-10 13:43:39.831090,-166
2021-12-10 13:43:39.831099,-126
2021-12-10 13:43:39.831107,-28
2021-12-10 13:43:39.831116,-47
2021-12-10 13:43:39.831124,-73
2021-12-10 13:43:39.831133,-54
2021-12-10 13:43:39.831141,-57
2021-12-10 13:43:39.831150,-61
2021-12-10 13:43:39.831158,-59
2021-12-10 13:43:39.831166,-16
2021-12-10 13:43:39.831175,-7
2021-12-10 13:43:39.831183,-57
2021-12-10 13:43:39.831192,-38
2021-12-10 13:43:39.831200,-2
2021-12-10 13:43:39.831208,-90
2021-12-10 13:43:39.831217,-212
2021-12-10 13:43:39.831225,-54
2021-12-10 13:43:39.831234,643
2021-12-10 13:43:39.831242,1735
2021-12-10 13:43:39.831251,2422
2021-12-10 13:43:40.056276,1716
2021-12-10 13:43:40.056298,133
2021-12-10 13:43:40.056307,-507
2021-12-10 13:43:40.056316,-95
2021-12-10 13:43:40.056324,16
2021-12-10 13:43:40.056332,-171
2021-12-10 13:43:40.056340,-95
2021-12-10 13:43:40.056348,2
2021-12-10 13:43:40.056363,-40
2021-12-10 13:43:40.056371,-76
2021-12-10 13:43:40.056379,-83
2021-12-10 13:43:40.056387,-66
2021-12-10 13:43:40.056395,-30
2021-12-10 13:43:40.056403,-9
2021-12-10 13:43:40.056410,-16
2021-12-10 13:43:40.056417,-9
2021-12-10 13:43:40.056425,11
2021-12-10 13:43:40.056432,2
2021-12-10 13:43:40.056440,9
2021-12-10 13:43:40.056447,78
2021-12-10 13:43:40.056454,107
2021-12-10 13:43:40.056462,64
2021-12-10 13:43:40.056469,47
2021-12-10 13:43:40.056476,102
2021-12-10 13:43:40.056483,154
2021-12-10 13:43:40.056491,152
2021-12-10 13:43:40.056498,114
2021-12-10 13:43:40.056506,45
2021-12-10 13:43:40.056513,-9
2021-12-10 13:43:40.056521,0
2021-12-10 13:43:40.237227,23
2021-12-10 13:43:40.237246,28
2021-12-10 13:43:40.237256,21
2021-12-10 13:43:40.237264,0
2021-12-10 13:43:40.237273,-11
2021-12-10 13:43:40.237281,-2
2021-12-10 13:43:40.237290,14
2021-12-10 13:43:40.237298,0
2021-12-10 13:43:40.237306,-45
2021-12-10 13:43:40.237314,-50
2021-12-10 13:43:40.237323,-28
2021-12-10 13:43:40.237331,-73
2021-12-10 13:43:40.237339,-126
2021-12-10 13:43:40.237348,-95
2021-12-10 13:43:40.237356,-123
2021-12-10 13:43:40.237364,-205
2021-12-10 13:43:40.237373,-159
2021-12-10 13:43:40.237381,-100
2021-12-10 13:43:40.237389,-131
2021-12-10 13:43:40.237398,-126
2021-12-10 13:43:40.237406,-112
2021-12-10 13:43:40.237414,-138
2021-12-10 13:43:40.237422,-121
2021-12-10 13:43:40.237431,-92
2021-12-10 13:43:40.237439,-92
2021-12-10 13:43:40.237447,-92
2021-12-10 13:43:40.237456,-100
2021-12-10 13:43:40.237464,-104
2021-12-10 13:43:40.237472,-107
2021-12-10 13:43:40.237481,-102
2021-12-10 13:43:40.462257,-69
2021-12-10 13:43:40.462277,-42
2021-12-10 13:43:40.462287,-38
2021-12-10 13:43:40.462295,-47
2021-12-10 13:43:40.462304,-52
2021-12-10 13:43:40.462312,-23
2021-12-10 13:43:40.462321,-9
2021-12-10 13:43:40.462329,-59
2021-12-10 13:43:40.462337,-114
2021-12-10 13:43:40.462345,-107
2021-12-10 13:43:40.462354,-69
2021-12-10 13:43:40.462362,-61
2021-12-10 13:43:40.462370,-64
2021-12-10 13:43:40.462379,-59
2021-12-10 13:43:40.462387,-104
2021-12-10 13:43:40.462395,-212
2021-12-10 13:43:40.462404,-348
2021-12-10 13:43:40.462412,-262
2021-12-10 13:43:40.462420,352
2021-12-10 13:43:40.462428,1375
2021-12-10 13:43:40.462437,2076
2021-12-10 13:43:40.462445,1557
2021-12-10 13:43:40.462453,157
2021-12-10 13:43:40.462462,-538
2021-12-10 13:43:40.462470,-238
2021-12-10 13:43:40.462478,-76
2021-12-10 13:43:40.462486,-240
2021-12-10 13:43:40.462495,-228
2021-12-10 13:43:40.462503,-116
2021-12-10 13:43:40.462511,-140
2021-12-10 13:43:40.732369,-188
2021-12-10 13:43:40.732389,-138
2021-12-10 13:43:40.732399,-150
2021-12-10 13:43:40.732408,-216
2021-12-10 13:43:40.732417,-185
2021-12-10 13:43:40.732425,-126
2021-12-10 13:43:40.732433,-123
2021-12-10 13:43:40.732442,-140
2021-12-10 13:43:40.732450,-133
2021-12-10 13:43:40.732458,-121
2021-12-10 13:43:40.732467,-121
2021-12-10 13:43:40.732475,-81
2021-12-10 13:43:40.732483,-64
2021-12-10 13:43:40.732492,-100
2021-12-10 13:43:40.732500,-78
2021-12-10 13:43:40.732508,-50
2021-12-10 13:43:40.732517,-69
2021-12-10 13:43:40.732525,-85
2021-12-10 13:43:40.732533,-121
2021-12-10 13:43:40.732542,-152
2021-12-10 13:43:40.732550,-157
2021-12-10 13:43:40.732558,-166
2021-12-10 13:43:40.732566,-152
2021-12-10 13:43:40.732575,-128
2021-12-10 13:43:40.732583,-116
2021-12-10 13:43:40.732591,-133
2021-12-10 13:43:40.732599,-162
2021-12-10 13:43:40.732608,-157
2021-12-10 13:43:40.732616,-145
2021-12-10 13:43:40.732624,-138
2021-12-10 13:43:40.911874,-119
2021-12-10 13:43:40.911893,-126
2021-12-10 13:43:40.911902,-133
2021-12-10 13:43:40.911911,-138
2021-12-10 13:43:40.911919,-143
2021-12-10 13:43:40.911928,-147
2021-12-10 13:43:40.911936,-169
2021-12-10 13:43:40.911944,-193
2021-12-10 13:43:40.911953,-195
2021-12-10 13:43:40.911961,-205
2021-12-10 13:43:40.911969,-209
2021-12-10 13:43:40.911977,-207
2021-12-10 13:43:40.911985,-219
2021-12-10 13:43:40.911994,-221
2021-12-10 13:43:40.912002,-219
2021-12-10 13:43:40.912010,-221
2021-12-10 13:43:40.912018,-228
2021-12-10 13:43:40.912027,-231
2021-12-10 13:43:40.912035,-228
2021-12-10 13:43:40.912043,-252
2021-12-10 13:43:40.912051,-276
2021-12-10 13:43:40.912060,-262
2021-12-10 13:43:40.912068,-236
2021-12-10 13:43:40.912076,-205
2021-12-10 13:43:40.912084,-195
2021-12-10 13:43:40.912092,-214
2021-12-10 13:43:40.912101,-207
2021-12-10 13:43:40.912109,-195
2021-12-10 13:43:40.912117,-197
2021-12-10 13:43:40.912125,-212
2021-12-10 13:43:41.137242,-226
2021-12-10 13:43:41.137261,-212
2021-12-10 13:43:41.137271,-205
2021-12-10 13:43:41.137279,-212
2021-12-10 13:43:41.137288,-216
2021-12-10 13:43:41.137296,-243
2021-12-10 13:43:41.137305,-278
2021-12-10 13:43:41.137314,-357
2021-12-10 13:43:41.137322,-433
2021-12-10 13:43:41.137331,-202
2021-12-10 13:43:41.137339,500
2021-12-10 13:43:41.137348,1316
2021-12-10 13:43:41.137356,1447
2021-12-10 13:43:41.137364,548
2021-12-10 13:43:41.137373,-436
2021-12-10 13:43:41.137381,-548
2021-12-10 13:43:41.137390,-255
2021-12-10 13:43:41.137398,-276
2021-12-10 13:43:41.137407,-369
2021-12-10 13:43:41.137416,-274
2021-12-10 13:43:41.137424,-236
2021-12-10 13:43:41.137433,-286
2021-12-10 13:43:41.137441,-274
2021-12-10 13:43:41.137456,-257
2021-12-10 13:43:41.137465,-259
2021-12-10 13:43:41.137473,-228
2021-12-10 13:43:41.137482,-193
2021-12-10 13:43:41.137490,-176
2021-12-10 13:43:41.137499,-176
2021-12-10 13:43:41.137507,-162
2021-12-10 13:43:41.361889,-133
2021-12-10 13:43:41.361908,-112
2021-12-10 13:43:41.361918,-92
2021-12-10 13:43:41.361926,-83
2021-12-10 13:43:41.361935,-92
2021-12-10 13:43:41.361943,-97
2021-12-10 13:43:41.361951,-90
2021-12-10 13:43:41.361960,-71
2021-12-10 13:43:41.361968,-76
2021-12-10 13:43:41.361976,-100
2021-12-10 13:43:41.361985,-128
2021-12-10 13:43:41.361993,-188
2021-12-10 13:43:41.362002,-209
2021-12-10 13:43:41.362010,-164
2021-12-10 13:43:41.362018,-150
2021-12-10 13:43:41.362027,-159
2021-12-10 13:43:41.362035,-162
2021-12-10 13:43:41.362043,-166
2021-12-10 13:43:41.362051,-154
2021-12-10 13:43:41.362060,-147
2021-12-10 13:43:41.362068,-152
2021-12-10 13:43:41.362076,-164
2021-12-10 13:43:41.362085,-181
2021-12-10 13:43:41.362093,-183
2021-12-10 13:43:41.362101,-190
2021-12-10 13:43:41.362109,-181
2021-12-10 13:43:41.362118,-159
2021-12-10 13:43:41.362126,-166
2021-12-10 13:43:41.362134,-171
2021-12-10 13:43:41.362143,-150
2021-12-10 13:43:41.587246,-133
2021-12-10 13:43:41.587265,-154
2021-12-10 13:43:41.587274,-197
2021-12-10 13:43:41.587282,-221
2021-12-10 13:43:41.587291,-250
2021-12-10 13:43:41.587299,-267
2021-12-10 13:43:41.587307,-228
2021-12-10 13:43:41.587316,-207
2021-12-10 13:43:41.587324,-224
2021-12-10 13:43:41.587332,-228
2021-12-10 13:43:41.587340,-243
2021-12-10 13:43:41.587348,-245
2021-12-10 13:43:41.587356,-226
2021-12-10 13:43:41.587365,-226
2021-12-10 13:43:41.587373,-247
2021-12-10 13:43:41.587381,-269
2021-12-10 13:43:41.587389,-252
2021-12-10 13:43:41.587398,-221
2021-12-10 13:43:41.587406,-216
2021-12-10 13:43:41.587414,-212
2021-12-10 13:43:41.587422,-224
2021-12-10 13:43:41.587431,-250
2021-12-10 13:43:41.587439,-245
2021-12-10 13:43:41.587447,-221
2021-12-10 13:43:41.587455,-202
2021-12-10 13:43:41.587464,-214
2021-12-10 13:43:41.587472,-240
2021-12-10 13:43:41.587480,-240
2021-12-10 13:43:41.587488,-252
2021-12-10 13:43:41.587497,-321
2021-12-10 13:43:41.945987,-355
2021-12-10 13:43:41.946008,-116
2021-12-10 13:43:41.946018,493
2021-12-10 13:43:41.946027,1163
2021-12-10 13:43:41.946035,1263
2021-12-10 13:43:41.946044,469
2021-12-10 13:43:41.946052,-400
2021-12-10 13:43:41.946061,-464
2021-12-10 13:43:41.946069,-214
2021-12-10 13:43:41.946077,-281
2021-12-10 13:43:41.946086,-352
2021-12-10 13:43:41.946094,-259
2021-12-10 13:43:41.946103,-228
2021-12-10 13:43:41.946111,-240
2021-12-10 13:43:41.946120,-216
2021-12-10 13:43:41.946128,-202
2021-12-10 13:43:41.946136,-195
2021-12-10 13:43:41.946145,-162
2021-12-10 13:43:41.946153,-135
2021-12-10 13:43:41.946162,-128
2021-12-10 13:43:41.946170,-109
2021-12-10 13:43:41.946178,-102
2021-12-10 13:43:41.946187,-100
2021-12-10 13:43:41.946195,-69
2021-12-10 13:43:41.946203,-47
2021-12-10 13:43:41.946211,-26
2021-12-10 13:43:41.946220,0
2021-12-10 13:43:41.946228,-19
2021-12-10 13:43:41.946237,-47
2021-12-10 13:43:41.946245,-35
2021-12-10 13:43:42.082301,-16
2021-12-10 13:43:42.082321,-19
2021-12-10 13:43:42.082330,-45
2021-12-10 13:43:42.082339,-64
2021-12-10 13:43:42.082347,-57
2021-12-10 13:43:42.082356,-57
2021-12-10 13:43:42.082364,-61
2021-12-10 13:43:42.082373,-59
2021-12-10 13:43:42.082381,-81
2021-12-10 13:43:42.082390,-114
2021-12-10 13:43:42.082398,-107
2021-12-10 13:43:42.082407,-78
2021-12-10 13:43:42.082415,-78
2021-12-10 13:43:42.082423,-97
2021-12-10 13:43:42.082432,-121
2021-12-10 13:43:42.082440,-140
2021-12-10 13:43:42.082449,-121
2021-12-10 13:43:42.082457,-102
2021-12-10 13:43:42.082465,-104
2021-12-10 13:43:42.082474,-116
2021-12-10 13:43:42.082482,-152
2021-12-10 13:43:42.082491,-166
2021-12-10 13:43:42.082499,-138
2021-12-10 13:43:42.082507,-126
2021-12-10 13:43:42.082516,-121
2021-12-10 13:43:42.082524,-135
2021-12-10 13:43:42.082533,-169
2021-12-10 13:43:42.082541,-185
2021-12-10 13:43:42.082549,-193
2021-12-10 13:43:42.082558,-202
2021-12-10 13:43:42.307235,-216
2021-12-10 13:43:42.307254,-221
2021-12-10 13:43:42.307263,-216
2021-12-10 13:43:42.307272,-221
2021-12-10 13:43:42.307280,-212
2021-12-10 13:43:42.307289,-181
2021-12-10 13:43:42.307297,-159
2021-12-10 13:43:42.307305,-157
2021-12-10 13:43:42.307314,-185
2021-12-10 13:43:42.307322,-193
2021-12-10 13:43:42.307330,-162
2021-12-10 13:43:42.307339,-171
2021-12-10 13:43:42.307347,-188
2021-12-10 13:43:42.307355,-197
2021-12-10 13:43:42.307364,-221
2021-12-10 13:43:42.307372,-216
2021-12-10 13:43:42.307380,-193
2021-12-10 13:43:42.307388,-176
2021-12-10 13:43:42.307397,-164
2021-12-10 13:43:42.307405,-195
2021-12-10 13:43:42.307413,-281
2021-12-10 13:43:42.307421,-336
2021-12-10 13:43:42.307430,-121
2021-12-10 13:43:42.307438,472
2021-12-10 13:43:42.307447,1206
2021-12-10 13:43:42.307455,1456
2021-12-10 13:43:42.307463,696
2021-12-10 13:43:42.307471,-326
2021-12-10 13:43:42.307480,-476
2021-12-10 13:43:42.307488,-181
2021-12-10 13:43:42.576898,-190
2021-12-10 13:43:42.576917,-262
2021-12-10 13:43:42.576926,-207
2021-12-10 13:43:42.576935,-190
2021-12-10 13:43:42.576944,-193
2021-12-10 13:43:42.576952,-152
2021-12-10 13:43:42.576960,-133
2021-12-10 13:43:42.576969,-159
2021-12-10 13:43:42.576977,-154
2021-12-10 13:43:42.576985,-128
2021-12-10 13:43:42.576994,-119
2021-12-10 13:43:42.577002,-97
2021-12-10 13:43:42.577010,-85
2021-12-10 13:43:42.577018,-100
2021-12-10 13:43:42.577027,-88
2021-12-10 13:43:42.577035,-69
2021-12-10 13:43:42.577044,-47
2021-12-10 13:43:42.577052,-21
2021-12-10 13:43:42.577060,-14
2021-12-10 13:43:42.577068,-16
2021-12-10 13:43:42.577077,-19
2021-12-10 13:43:42.577085,-21
2021-12-10 13:43:42.577093,-23
2021-12-10 13:43:42.577102,-30
2021-12-10 13:43:42.577110,-33
2021-12-10 13:43:42.577118,-59
2021-12-10 13:43:42.577126,-100
2021-12-10 13:43:42.577135,-112
2021-12-10 13:43:42.577143,-100
2021-12-10 13:43:42.577158,-97
2021-12-10 13:43:42.802410,-109
2021-12-10 13:43:42.802442,-116
2021-12-10 13:43:42.802451,-109
2021-12-10 13:43:42.802460,-140
2021-12-10 13:43:42.802469,-166
2021-12-10 13:43:42.802477,-154
2021-12-10 13:43:42.802486,-174
2021-12-10 13:43:42.802494,-188
2021-12-10 13:43:42.802503,-159
2021-12-10 13:43:42.802511,-150
2021-12-10 13:43:42.802520,-154
2021-12-10 13:43:42.802528,-143
2021-12-10 13:43:42.802536,-145
2021-12-10 13:43:42.802545,-152
2021-12-10 13:43:42.802554,-140
2021-12-10 13:43:42.802562,-123
2021-12-10 13:43:42.802570,-123
2021-12-10 13:43:42.802579,-135
2021-12-10 13:43:42.802587,-169
2021-12-10 13:43:42.802595,-195
2021-12-10 13:43:42.802604,-178
2021-12-10 13:43:42.802612,-185
2021-12-10 13:43:42.802620,-200
2021-12-10 13:43:42.802629,-181
2021-12-10 13:43:42.802637,-181
2021-12-10 13:43:42.802645,-164
2021-12-10 13:43:42.802654,-121
2021-12-10 13:43:42.802662,-119
2021-12-10 13:43:42.802670,-126
2021-12-10 13:43:42.802679,-119
2021-12-10 13:43:42.982239,-121
2021-12-10 13:43:42.982258,-121
2021-12-10 13:43:42.982267,-123
2021-12-10 13:43:42.982276,-121
2021-12-10 13:43:42.982285,-112
2021-12-10 13:43:42.982293,-112
2021-12-10 13:43:42.982302,-126
2021-12-10 13:43:42.982310,-126
2021-12-10 13:43:42.982319,-97
2021-12-10 13:43:42.982327,-145
2021-12-10 13:43:42.982336,-281
2021-12-10 13:43:42.982344,-243
2021-12-10 13:43:42.982353,214
2021-12-10 13:43:42.982361,1001
2021-12-10 13:43:42.982370,1599
2021-12-10 13:43:42.982378,1239
2021-12-10 13:43:42.982386,95
2021-12-10 13:43:42.982395,-534
2021-12-10 13:43:42.982403,-319
2021-12-10 13:43:42.982412,-145
2021-12-10 13:43:42.982420,-240
2021-12-10 13:43:42.982429,-247
2021-12-10 13:43:42.982437,-197
2021-12-10 13:43:42.982445,-200
2021-12-10 13:43:42.982454,-185
2021-12-10 13:43:42.982462,-154
2021-12-10 13:43:42.982470,-147
2021-12-10 13:43:42.982479,-140
2021-12-10 13:43:42.982487,-128
2021-12-10 13:43:42.982496,-114
2021-12-10 13:43:43.252212,-97
2021-12-10 13:43:43.252229,-73
2021-12-10 13:43:43.252238,-81
2021-12-10 13:43:43.252247,-109
2021-12-10 13:43:43.252255,-109
2021-12-10 13:43:43.252263,-123
2021-12-10 13:43:43.252272,-131
2021-12-10 13:43:43.252280,-92
2021-12-10 13:43:43.252289,-85
2021-12-10 13:43:43.252297,-116
2021-12-10 13:43:43.252306,-133
2021-12-10 13:43:43.252314,-143
2021-12-10 13:43:43.252322,-138
2021-12-10 13:43:43.252330,-126
2021-12-10 13:43:43.252339,-107
2021-12-10 13:43:43.252354,-83
2021-12-10 13:43:43.252363,-102
2021-12-10 13:43:43.252370,-121
2021-12-10 13:43:43.252379,-104
2021-12-10 13:43:43.252387,-133
2021-12-10 13:43:43.252396,-181
2021-12-10 13:43:43.252404,-166
2021-12-10 13:43:43.252412,-143
2021-12-10 13:43:43.252421,-145
2021-12-10 13:43:43.252429,-138
2021-12-10 13:43:43.252437,-116
2021-12-10 13:43:43.252445,-109
2021-12-10 13:43:43.252453,-116
2021-12-10 13:43:43.252462,-109
2021-12-10 13:43:43.252470,-104
2021-12-10 13:43:43.432246,-92
2021-12-10 13:43:43.432265,-73
2021-12-10 13:43:43.432277,-73
2021-12-10 13:43:43.432286,-90
2021-12-10 13:43:43.432294,-119
2021-12-10 13:43:43.432303,-123
2021-12-10 13:43:43.432311,-95
2021-12-10 13:43:43.432319,-88
2021-12-10 13:43:43.432328,-97
2021-12-10 13:43:43.432336,-114
2021-12-10 13:43:43.432344,-145
2021-12-10 13:43:43.432352,-152
2021-12-10 13:43:43.432361,-157
2021-12-10 13:43:43.432369,-164
2021-12-10 13:43:43.432377,-140
2021-12-10 13:43:43.432386,-133
2021-12-10 13:43:43.432394,-162
2021-12-10 13:43:43.432403,-154
2021-12-10 13:43:43.432411,-114
2021-12-10 13:43:43.432419,-123
2021-12-10 13:43:43.432428,-152
2021-12-10 13:43:43.432436,-147
2021-12-10 13:43:43.432445,-159
2021-12-10 13:43:43.432453,-166
2021-12-10 13:43:43.432461,-140
2021-12-10 13:43:43.432470,-140
2021-12-10 13:43:43.432478,-140
2021-12-10 13:43:43.432486,-138
2021-12-10 13:43:43.432495,-214
2021-12-10 13:43:43.432503,-309
2021-12-10 13:43:43.746964,-176
2021-12-10 13:43:43.746984,360
2021-12-10 13:43:43.746994,1170
2021-12-10 13:43:43.747003,1642
2021-12-10 13:43:43.747011,1082
2021-12-10 13:43:43.747020,-52
2021-12-10 13:43:43.747028,-505
2021-12-10 13:43:43.747036,-259
2021-12-10 13:43:43.747045,-226
2021-12-10 13:43:43.747053,-388
2021-12-10 13:43:43.747062,-352
2021-12-10 13:43:43.747070,-286
2021-12-10 13:43:43.747078,-302
2021-12-10 13:43:43.747087,-286
2021-12-10 13:43:43.747095,-240
2021-12-10 13:43:43.747103,-245
2021-12-10 13:43:43.747112,-247
2021-12-10 13:43:43.747120,-202
2021-12-10 13:43:43.747128,-159
2021-12-10 13:43:43.747137,-150
2021-12-10 13:43:43.747145,-135
2021-12-10 13:43:43.747154,-123
2021-12-10 13:43:43.747162,-102
2021-12-10 13:43:43.747170,-57
2021-12-10 13:43:43.747179,-30
2021-12-10 13:43:43.747187,-21
2021-12-10 13:43:43.747195,-23
2021-12-10 13:43:43.747204,-19
2021-12-10 13:43:43.747212,7
2021-12-10 13:43:43.747220,7
2021-12-10 13:43:44.060991,-14
2021-12-10 13:43:44.061012,-9
2021-12-10 13:43:44.061022,-7
2021-12-10 13:43:44.061030,-28
2021-12-10 13:43:44.061039,-23
2021-12-10 13:43:44.061047,2
2021-12-10 13:43:44.061056,0
2021-12-10 13:43:44.061064,-19
2021-12-10 13:43:44.061072,-38
2021-12-10 13:43:44.061081,-71
2021-12-10 13:43:44.061089,-83
2021-12-10 13:43:44.061097,-61
2021-12-10 13:43:44.061106,-59
2021-12-10 13:43:44.061114,-83
2021-12-10 13:43:44.061123,-107
2021-12-10 13:43:44.061131,-104
2021-12-10 13:43:44.061139,-85
2021-12-10 13:43:44.061148,-88
2021-12-10 13:43:44.061156,-71
2021-12-10 13:43:44.061164,-54
2021-12-10 13:43:44.061173,-83
2021-12-10 13:43:44.061181,-102
2021-12-10 13:43:44.061190,-76
2021-12-10 13:43:44.061198,-59
2021-12-10 13:43:44.061206,-54
2021-12-10 13:43:44.061215,-52
2021-12-10 13:43:44.061223,-59
2021-12-10 13:43:44.061231,-73
2021-12-10 13:43:44.061239,-71
2021-12-10 13:43:44.061248,-45
2021-12-10 13:43:44.152269,-30
2021-12-10 13:43:44.152287,-50
2021-12-10 13:43:44.152297,-90
2021-12-10 13:43:44.152305,-112
2021-12-10 13:43:44.152314,-92
2021-12-10 13:43:44.152322,-61
2021-12-10 13:43:44.152331,-57
2021-12-10 13:43:44.152339,-78
2021-12-10 13:43:44.152351,-102
2021-12-10 13:43:44.152360,-116
2021-12-10 13:43:44.152368,-131
2021-12-10 13:43:44.152376,-133
2021-12-10 13:43:44.152385,-119
2021-12-10 13:43:44.152393,-145
2021-12-10 13:43:44.152401,-183
2021-12-10 13:43:44.152410,-188
2021-12-10 13:43:44.152418,-190
2021-12-10 13:43:44.152426,-197
2021-12-10 13:43:44.152435,-250
2021-12-10 13:43:44.152443,-369
2021-12-10 13:43:44.152452,-298
2021-12-10 13:43:44.152460,185
2021-12-10 13:43:44.152469,956
2021-12-10 13:43:44.152477,1499
2021-12-10 13:43:44.152486,1127
2021-12-10 13:43:44.152494,33
2021-12-10 13:43:44.152502,-560
2021-12-10 13:43:44.152511,-338
2021-12-10 13:43:44.152525,-174
2021-12-10 13:43:44.152534,-283
2021-12-10 13:43:44.377247,-262
2021-12-10 13:43:44.377265,-185
2021-12-10 13:43:44.377275,-207
2021-12-10 13:43:44.377284,-207
2021-12-10 13:43:44.377292,-166
2021-12-10 13:43:44.377301,-147
2021-12-10 13:43:44.377309,-143
2021-12-10 13:43:44.377318,-147
2021-12-10 13:43:44.377326,-143
2021-12-10 13:43:44.377335,-131
2021-12-10 13:43:44.377343,-116
2021-12-10 13:43:44.377351,-97
2021-12-10 13:43:44.377360,-92
2021-12-10 13:43:44.377368,-97
2021-12-10 13:43:44.377377,-69
2021-12-10 13:43:44.377385,-19
2021-12-10 13:43:44.377393,19
2021-12-10 13:43:44.377402,2
2021-12-10 13:43:44.377410,-38
2021-12-10 13:43:44.377418,-40
2021-12-10 13:43:44.377427,-23
2021-12-10 13:43:44.377435,-45
2021-12-10 13:43:44.377443,-66
2021-12-10 13:43:44.377451,-47
2021-12-10 13:43:44.377460,-38
2021-12-10 13:43:44.377468,-45
2021-12-10 13:43:44.377476,-28
2021-12-10 13:43:44.377485,-21
2021-12-10 13:43:44.377493,-33
2021-12-10 13:43:44.377502,-28
2021-12-10 13:43:44.602211,-38
2021-12-10 13:43:44.602229,-42
2021-12-10 13:43:44.602239,-40
2021-12-10 13:43:44.602248,-61
2021-12-10 13:43:44.602256,-64
2021-12-10 13:43:44.602265,-42
2021-12-10 13:43:44.602273,-59
2021-12-10 13:43:44.602281,-95
2021-12-10 13:43:44.602290,-90
2021-12-10 13:43:44.602298,-59
2021-12-10 13:43:44.602306,-45
2021-12-10 13:43:44.602315,-47
2021-12-10 13:43:44.602323,-66
2021-12-10 13:43:44.602332,-85
2021-12-10 13:43:44.602340,-73
2021-12-10 13:43:44.602348,-64
2021-12-10 13:43:44.602357,-66
2021-12-10 13:43:44.602365,-45
2021-12-10 13:43:44.602373,-42
2021-12-10 13:43:44.602382,-95
2021-12-10 13:43:44.602390,-135
2021-12-10 13:43:44.602399,-126
2021-12-10 13:43:44.602407,-119
2021-12-10 13:43:44.602415,-135
2021-12-10 13:43:44.602423,-147
2021-12-10 13:43:44.602432,-143
2021-12-10 13:43:44.602440,-126
2021-12-10 13:43:44.602448,-107
2021-12-10 13:43:44.602457,-109
2021-12-10 13:43:44.602465,-119
2021-12-10 13:43:44.872378,-104
2021-12-10 13:43:44.872399,-107
2021-12-10 13:43:44.872408,-126
2021-12-10 13:43:44.872417,-131
2021-12-10 13:43:44.872425,-126
2021-12-10 13:43:44.872433,-133
2021-12-10 13:43:44.872442,-152
2021-12-10 13:43:44.872450,-143
2021-12-10 13:43:44.872458,-107
2021-12-10 13:43:44.872467,-114
2021-12-10 13:43:44.872475,-193
2021-12-10 13:43:44.872483,-290
2021-12-10 13:43:44.872491,-171
2021-12-10 13:43:44.872500,376
2021-12-10 13:43:44.872508,1146
2021-12-10 13:43:44.872516,1511
2021-12-10 13:43:44.872525,925
2021-12-10 13:43:44.872533,-112
2021-12-10 13:43:44.872541,-450
2021-12-10 13:43:44.872550,-169
2021-12-10 13:43:44.872558,-102
2021-12-10 13:43:44.872566,-219
2021-12-10 13:43:44.872575,-209
2021-12-10 13:43:44.872583,-181
2021-12-10 13:43:44.872591,-183
2021-12-10 13:43:44.872599,-152
2021-12-10 13:43:44.872608,-116
2021-12-10 13:43:44.872616,-109
2021-12-10 13:43:44.872624,-104
2021-12-10 13:43:44.872633,-95
2021-12-10 13:43:45.051902,-81
2021-12-10 13:43:45.051919,-40
2021-12-10 13:43:45.051929,-21
2021-12-10 13:43:45.051938,-30
2021-12-10 13:43:45.051946,-19
2021-12-10 13:43:45.051955,0
2021-12-10 13:43:45.051963,16
2021-12-10 13:43:45.051971,50
2021-12-10 13:43:45.051980,66
2021-12-10 13:43:45.051988,57
2021-12-10 13:43:45.051996,47
2021-12-10 13:43:45.052005,52
2021-12-10 13:43:45.052013,54
2021-12-10 13:43:45.052021,40
2021-12-10 13:43:45.052029,35
2021-12-10 13:43:45.052038,35
2021-12-10 13:43:45.052046,9
2021-12-10 13:43:45.052054,-11
2021-12-10 13:43:45.052063,4
2021-12-10 13:43:45.052071,30
2021-12-10 13:43:45.052080,35
2021-12-10 13:43:45.052088,11
2021-12-10 13:43:45.052096,0
2021-12-10 13:43:45.052104,-2
2021-12-10 13:43:45.052113,-45
2021-12-10 13:43:45.052121,-107
2021-12-10 13:43:45.052129,-126
2021-12-10 13:43:45.052138,-102
2021-12-10 13:43:45.052146,-102
2021-12-10 13:43:45.052154,-112
2021-12-10 13:43:45.277225,-88
2021-12-10 13:43:45.277242,-78
2021-12-10 13:43:45.277252,-88
2021-12-10 13:43:45.277260,-95
2021-12-10 13:43:45.277269,-116
2021-12-10 13:43:45.277278,-121
2021-12-10 13:43:45.277286,-85
2021-12-10 13:43:45.277295,-69
2021-12-10 13:43:45.277303,-73
2021-12-10 13:43:45.277311,-92
2021-12-10 13:43:45.277320,-114
2021-12-10 13:43:45.277328,-102
2021-12-10 13:43:45.277337,-71
2021-12-10 13:43:45.277345,-52
2021-12-10 13:43:45.277354,-73
2021-12-10 13:43:45.277362,-116
2021-12-10 13:43:45.277371,-128
2021-12-10 13:43:45.277379,-123
2021-12-10 13:43:45.277387,-135
2021-12-10 13:43:45.277396,-121
2021-12-10 13:43:45.277404,-69
2021-12-10 13:43:45.277413,-59
2021-12-10 13:43:45.277421,-90
2021-12-10 13:43:45.277430,-73
2021-12-10 13:43:45.277438,-47
2021-12-10 13:43:45.277446,-76
2021-12-10 13:43:45.277455,-107
2021-12-10 13:43:45.277463,-123
2021-12-10 13:43:45.277472,-135
2021-12-10 13:43:45.277480,-119
2021-12-10 13:43:45.547253,-92
2021-12-10 13:43:45.547271,-71
2021-12-10 13:43:45.547280,-78
2021-12-10 13:43:45.547288,-159
2021-12-10 13:43:45.547297,-278
2021-12-10 13:43:45.547305,-255
2021-12-10 13:43:45.547313,119
2021-12-10 13:43:45.547322,848
2021-12-10 13:43:45.547330,1552
2021-12-10 13:43:45.547338,1430
2021-12-10 13:43:45.547346,340
2021-12-10 13:43:45.547355,-462
2021-12-10 13:43:45.547363,-324
2021-12-10 13:43:45.547371,-104
2021-12-10 13:43:45.547379,-193
2021-12-10 13:43:45.547388,-214
2021-12-10 13:43:45.547396,-145
2021-12-10 13:43:45.547404,-135
2021-12-10 13:43:45.547412,-135
2021-12-10 13:43:45.547421,-102
2021-12-10 13:43:45.547429,-92
2021-12-10 13:43:45.547437,-109
2021-12-10 13:43:45.547445,-90
2021-12-10 13:43:45.547454,-59
2021-12-10 13:43:45.547462,-42
2021-12-10 13:43:45.547470,-16
2021-12-10 13:43:45.547479,0
2021-12-10 13:43:45.547487,-4
2021-12-10 13:43:45.547495,-7
2021-12-10 13:43:45.547503,4
2021-12-10 13:43:45.772416,0
2021-12-10 13:43:45.772436,-33
2021-12-10 13:43:45.772446,-35
2021-12-10 13:43:45.772454,-23
2021-12-10 13:43:45.772463,-35
2021-12-10 13:43:45.772471,-23
2021-12-10 13:43:45.772480,-7
2021-12-10 13:43:45.772488,-23
2021-12-10 13:43:45.772497,-52
2021-12-10 13:43:45.772505,-81
2021-12-10 13:43:45.772514,-76
2021-12-10 13:43:45.772522,-50
2021-12-10 13:43:45.772530,-30
2021-12-10 13:43:45.772538,-21
2021-12-10 13:43:45.772547,-57
2021-12-10 13:43:45.772555,-119
2021-12-10 13:43:45.772564,-123
2021-12-10 13:43:45.772572,-95
2021-12-10 13:43:45.772580,-76
2021-12-10 13:43:45.772588,-66
2021-12-10 13:43:45.772597,-88
2021-12-10 13:43:45.772605,-112
2021-12-10 13:43:45.772614,-95
2021-12-10 13:43:45.772622,-64
2021-12-10 13:43:45.772630,-57
2021-12-10 13:43:45.772638,-54
2021-12-10 13:43:45.772647,-57
2021-12-10 13:43:45.772655,-66
2021-12-10 13:43:45.772664,-61
2021-12-10 13:43:45.772672,-47
2021-12-10 13:43:46.041311,-71
2021-12-10 13:43:46.041331,-95
2021-12-10 13:43:46.041340,-92
2021-12-10 13:43:46.041349,-85
2021-12-10 13:43:46.041357,-81
2021-12-10 13:43:46.041366,-88
2021-12-10 13:43:46.041374,-100
2021-12-10 13:43:46.041382,-121
2021-12-10 13:43:46.041391,-174
2021-12-10 13:43:46.041399,-193
2021-12-10 13:43:46.041407,-164
2021-12-10 13:43:46.041415,-145
2021-12-10 13:43:46.041424,-145
2021-12-10 13:43:46.041432,-157
2021-12-10 13:43:46.041440,-154
2021-12-10 13:43:46.041449,-133
2021-12-10 13:43:46.041457,-123
2021-12-10 13:43:46.041465,-114
2021-12-10 13:43:46.041473,-114
2021-12-10 13:43:46.041482,-126
2021-12-10 13:43:46.041490,-138
2021-12-10 13:43:46.041498,-143
2021-12-10 13:43:46.041507,-131
2021-12-10 13:43:46.041520,-112
2021-12-10 13:43:46.041529,-97
2021-12-10 13:43:46.041537,-100
2021-12-10 13:43:46.041545,-114
2021-12-10 13:43:46.041553,-143
2021-12-10 13:43:46.041562,-224
2021-12-10 13:43:46.041570,-255
2021-12-10 13:43:46.222315,40
2021-12-10 13:43:46.222334,720
2021-12-10 13:43:46.222343,1464
2021-12-10 13:43:46.222352,1552
2021-12-10 13:43:46.222361,636
2021-12-10 13:43:46.222369,-314
2021-12-10 13:43:46.222378,-414
2021-12-10 13:43:46.222386,-214
2021-12-10 13:43:46.222394,-269
2021-12-10 13:43:46.222402,-317
2021-12-10 13:43:46.222411,-219
2021-12-10 13:43:46.222419,-181
2021-12-10 13:43:46.222446,-219
2021-12-10 13:43:46.222468,-226
2021-12-10 13:43:46.222478,-214
2021-12-10 13:43:46.222487,-197
2021-12-10 13:43:46.222496,-171
2021-12-10 13:43:46.222504,-145
2021-12-10 13:43:46.222512,-138
2021-12-10 13:43:46.222520,-147
2021-12-10 13:43:46.222529,-133
2021-12-10 13:43:46.222537,-97
2021-12-10 13:43:46.222545,-81
2021-12-10 13:43:46.222553,-54
2021-12-10 13:43:46.222562,-33
2021-12-10 13:43:46.222570,-30
2021-12-10 13:43:46.222578,-11
2021-12-10 13:43:46.222586,-4
2021-12-10 13:43:46.222595,0
2021-12-10 13:43:46.222603,9
2021-12-10 13:43:46.536980,-4
2021-12-10 13:43:46.537000,-21
2021-12-10 13:43:46.537009,-26
2021-12-10 13:43:46.537018,-40
2021-12-10 13:43:46.537026,-69
2021-12-10 13:43:46.537035,-109
2021-12-10 13:43:46.537043,-123
2021-12-10 13:43:46.537051,-121
2021-12-10 13:43:46.537059,-119
2021-12-10 13:43:46.537067,-114
2021-12-10 13:43:46.537076,-112
2021-12-10 13:43:46.537084,-107
2021-12-10 13:43:46.537092,-121
2021-12-10 13:43:46.537100,-140
2021-12-10 13:43:46.537109,-114
2021-12-10 13:43:46.537117,-97
2021-12-10 13:43:46.537125,-102
2021-12-10 13:43:46.537133,-88
2021-12-10 13:43:46.537141,-90
2021-12-10 13:43:46.537150,-88
2021-12-10 13:43:46.537158,-66
2021-12-10 13:43:46.537166,-66
2021-12-10 13:43:46.537174,-61
2021-12-10 13:43:46.537182,-54
2021-12-10 13:43:46.537191,-61
2021-12-10 13:43:46.537199,-73
2021-12-10 13:43:46.537207,-85
2021-12-10 13:43:46.537215,-88
2021-12-10 13:43:46.537224,-102
2021-12-10 13:43:46.537232,-107
2021-12-10 13:43:46.672376,-100
2021-12-10 13:43:46.672396,-102
2021-12-10 13:43:46.672406,-97
2021-12-10 13:43:46.672415,-85
2021-12-10 13:43:46.672423,-83
2021-12-10 13:43:46.672432,-76
2021-12-10 13:43:46.672440,-88
2021-12-10 13:43:46.672449,-100
2021-12-10 13:43:46.672457,-85
2021-12-10 13:43:46.672466,-85
2021-12-10 13:43:46.672474,-66
2021-12-10 13:43:46.672483,-28
2021-12-10 13:43:46.672491,-50
2021-12-10 13:43:46.672500,-92
2021-12-10 13:43:46.672508,-85
2021-12-10 13:43:46.672517,-73
2021-12-10 13:43:46.672526,-102
2021-12-10 13:43:46.672534,-131
2021-12-10 13:43:46.672543,-128
2021-12-10 13:43:46.672551,-112
2021-12-10 13:43:46.672559,-97
2021-12-10 13:43:46.672568,-92
2021-12-10 13:43:46.672576,-97
2021-12-10 13:43:46.672585,-119
2021-12-10 13:43:46.672593,-190
2021-12-10 13:43:46.672601,-267
2021-12-10 13:43:46.672610,-143
2021-12-10 13:43:46.672618,343
2021-12-10 13:43:46.672627,1099
2021-12-10 13:43:46.672635,1573
2021-12-10 13:43:46.941984,1094
2021-12-10 13:43:46.942005,50
2021-12-10 13:43:46.942015,-402
2021-12-10 13:43:46.942023,-181
2021-12-10 13:43:46.942032,-102
2021-12-10 13:43:46.942040,-238
2021-12-10 13:43:46.942049,-209
2021-12-10 13:43:46.942057,-140
2021-12-10 13:43:46.942065,-193
2021-12-10 13:43:46.942073,-224
2021-12-10 13:43:46.942082,-202
2021-12-10 13:43:46.942090,-200
2021-12-10 13:43:46.942098,-185
2021-12-10 13:43:46.942107,-150
2021-12-10 13:43:46.942115,-128
2021-12-10 13:43:46.942124,-126
2021-12-10 13:43:46.942132,-116
2021-12-10 13:43:46.942141,-95
2021-12-10 13:43:46.942149,-73
2021-12-10 13:43:46.942157,-42
2021-12-10 13:43:46.942166,-23
2021-12-10 13:43:46.942174,-21
2021-12-10 13:43:46.942182,-9
2021-12-10 13:43:46.942191,-14
2021-12-10 13:43:46.942199,-23
2021-12-10 13:43:46.942207,-19
2021-12-10 13:43:46.942215,-21
2021-12-10 13:43:46.942224,-33
2021-12-10 13:43:46.942232,-50
2021-12-10 13:43:46.942241,-52
2021-12-10 13:43:47.122277,-35
2021-12-10 13:43:47.122295,-30
2021-12-10 13:43:47.122304,-21
2021-12-10 13:43:47.122313,-26
2021-12-10 13:43:47.122321,-59
2021-12-10 13:43:47.122330,-66
2021-12-10 13:43:47.122338,-45
2021-12-10 13:43:47.122347,-30
2021-12-10 13:43:47.122355,-33
2021-12-10 13:43:47.122364,-47
2021-12-10 13:43:47.122372,-57
2021-12-10 13:43:47.122381,-66
2021-12-10 13:43:47.122389,-57
2021-12-10 13:43:47.122398,-35
2021-12-10 13:43:47.122406,-59
2021-12-10 13:43:47.122414,-100
2021-12-10 13:43:47.122423,-123
2021-12-10 13:43:47.122431,-133
2021-12-10 13:43:47.122440,-152
2021-12-10 13:43:47.122448,-207
2021-12-10 13:43:47.122456,-214
2021-12-10 13:43:47.122465,-183
2021-12-10 13:43:47.122473,-190
2021-12-10 13:43:47.122481,-178
2021-12-10 13:43:47.122490,-147
2021-12-10 13:43:47.122498,-135
2021-12-10 13:43:47.122507,-116
2021-12-10 13:43:47.122515,-123
2021-12-10 13:43:47.122523,-152
2021-12-10 13:43:47.122532,-143
2021-12-10 13:43:47.437285,-107
2021-12-10 13:43:47.437303,-88
2021-12-10 13:43:47.437313,-109
2021-12-10 13:43:47.437321,-145
2021-12-10 13:43:47.437330,-145
2021-12-10 13:43:47.437338,-114
2021-12-10 13:43:47.437347,-90
2021-12-10 13:43:47.437355,-92
2021-12-10 13:43:47.437363,-78
2021-12-10 13:43:47.437371,-69
2021-12-10 13:43:47.437380,-97
2021-12-10 13:43:47.437388,-85
2021-12-10 13:43:47.437396,-59
2021-12-10 13:43:47.437405,-97
2021-12-10 13:43:47.437413,-126
2021-12-10 13:43:47.437421,-126
2021-12-10 13:43:47.437429,-114
2021-12-10 13:43:47.437438,-95
2021-12-10 13:43:47.437446,-83
2021-12-10 13:43:47.437454,-59
2021-12-10 13:43:47.437463,-52
2021-12-10 13:43:47.437471,-85
2021-12-10 13:43:47.437479,-107
2021-12-10 13:43:47.437487,-159
2021-12-10 13:43:47.437496,-195
2021-12-10 13:43:47.437504,47
2021-12-10 13:43:47.437512,679
2021-12-10 13:43:47.437521,1394
2021-12-10 13:43:47.437529,1504
2021-12-10 13:43:47.437537,672
2021-12-10 13:43:47.661402,-216
2021-12-10 13:43:47.661421,-288
2021-12-10 13:43:47.661431,-30
2021-12-10 13:43:47.661440,-69
2021-12-10 13:43:47.661448,-145
2021-12-10 13:43:47.661456,-85
2021-12-10 13:43:47.661465,-71
2021-12-10 13:43:47.661473,-73
2021-12-10 13:43:47.661481,-69
2021-12-10 13:43:47.661490,-95
2021-12-10 13:43:47.661498,-78
2021-12-10 13:43:47.661506,-30
2021-12-10 13:43:47.661515,-21
2021-12-10 13:43:47.661523,-23
2021-12-10 13:43:47.661532,-35
2021-12-10 13:43:47.661540,-57
2021-12-10 13:43:47.661548,-54
2021-12-10 13:43:47.661557,-21
2021-12-10 13:43:47.661565,9
2021-12-10 13:43:47.661573,14
2021-12-10 13:43:47.661581,-2
2021-12-10 13:43:47.661590,-16
2021-12-10 13:43:47.661598,-11
2021-12-10 13:43:47.661606,21
2021-12-10 13:43:47.661614,16
2021-12-10 13:43:47.661623,-54
2021-12-10 13:43:47.661631,-116
2021-12-10 13:43:47.661639,-109
2021-12-10 13:43:47.661647,-81
2021-12-10 13:43:47.661656,-66
2021-12-10 13:43:47.841986,-47
2021-12-10 13:43:47.842005,-26
2021-12-10 13:43:47.842015,-40
2021-12-10 13:43:47.842024,-61
2021-12-10 13:43:47.842032,-66
2021-12-10 13:43:47.842041,-69
2021-12-10 13:43:47.842049,-73
2021-12-10 13:43:47.842058,-112
2021-12-10 13:43:47.842066,-150
2021-12-10 13:43:47.842075,-138
2021-12-10 13:43:47.842084,-109
2021-12-10 13:43:47.842092,-102
2021-12-10 13:43:47.842100,-109
2021-12-10 13:43:47.842109,-116
2021-12-10 13:43:47.842117,-126
2021-12-10 13:43:47.842125,-133
2021-12-10 13:43:47.842134,-138
2021-12-10 13:43:47.842142,-157
2021-12-10 13:43:47.842150,-154
2021-12-10 13:43:47.842159,-138
2021-12-10 13:43:47.842167,-150
2021-12-10 13:43:47.842176,-150
2021-12-10 13:43:47.842184,-116
2021-12-10 13:43:47.842193,-104
2021-12-10 13:43:47.842201,-107
2021-12-10 13:43:47.842209,-102
2021-12-10 13:43:47.842218,-92
2021-12-10 13:43:47.842226,-85
2021-12-10 13:43:47.842234,-76
2021-12-10 13:43:47.842243,-57
2021-12-10 13:43:48.110617,-38
2021-12-10 13:43:48.110637,-38
2021-12-10 13:43:48.110647,-35
2021-12-10 13:43:48.110655,-38
2021-12-10 13:43:48.110664,-40
2021-12-10 13:43:48.110672,-14
2021-12-10 13:43:48.110680,-9
2021-12-10 13:43:48.110689,-40
2021-12-10 13:43:48.110697,-40
2021-12-10 13:43:48.110705,0
2021-12-10 13:43:48.110714,14
2021-12-10 13:43:48.110722,9
2021-12-10 13:43:48.110730,9
2021-12-10 13:43:48.110738,-21
2021-12-10 13:43:48.110747,-54
2021-12-10 13:43:48.110755,-42
2021-12-10 13:43:48.110763,-21
2021-12-10 13:43:48.110795,-9
2021-12-10 13:43:48.110804,-11
2021-12-10 13:43:48.110813,-42
2021-12-10 13:43:48.110821,-52
2021-12-10 13:43:48.110829,-50
2021-12-10 13:43:48.110837,-109
2021-12-10 13:43:48.110846,-183
2021-12-10 13:43:48.110854,-45
2021-12-10 13:43:48.110862,484
2021-12-10 13:43:48.110871,1273
2021-12-10 13:43:48.110879,1716
2021-12-10 13:43:48.110887,1134
2021-12-10 13:43:48.110896,4
2021-12-10 13:43:48.292316,-414
2021-12-10 13:43:48.292335,-169
2021-12-10 13:43:48.292344,-102
2021-12-10 13:43:48.292353,-181
2021-12-10 13:43:48.292361,-128
2021-12-10 13:43:48.292369,-104
2021-12-10 13:43:48.292378,-162
2021-12-10 13:43:48.292386,-166
2021-12-10 13:43:48.292395,-131
2021-12-10 13:43:48.292403,-116
2021-12-10 13:43:48.292411,-97
2021-12-10 13:43:48.292420,-59
2021-12-10 13:43:48.292428,-66
2021-12-10 13:43:48.292436,-88
2021-12-10 13:43:48.292445,-64
2021-12-10 13:43:48.292453,-38
2021-12-10 13:43:48.292461,-23
2021-12-10 13:43:48.292470,4
2021-12-10 13:43:48.292478,19
2021-12-10 13:43:48.292487,14
2021-12-10 13:43:48.292495,7
2021-12-10 13:43:48.292503,0
2021-12-10 13:43:48.292512,9
2021-12-10 13:43:48.292520,16
2021-12-10 13:43:48.292529,4
2021-12-10 13:43:48.292537,-21
2021-12-10 13:43:48.292546,-47
2021-12-10 13:43:48.292554,-64
2021-12-10 13:43:48.292562,-78
2021-12-10 13:43:48.292578,-88
2021-12-10 13:43:48.562350,-78
2021-12-10 13:43:48.562370,-64
2021-12-10 13:43:48.562380,-66
2021-12-10 13:43:48.562388,-83
2021-12-10 13:43:48.562397,-85
2021-12-10 13:43:48.562405,-88
2021-12-10 13:43:48.562413,-116
2021-12-10 13:43:48.562421,-104
2021-12-10 13:43:48.562430,-76
2021-12-10 13:43:48.562438,-83
2021-12-10 13:43:48.562446,-83
2021-12-10 13:43:48.562454,-83
2021-12-10 13:43:48.562463,-97
2021-12-10 13:43:48.562471,-88
2021-12-10 13:43:48.562479,-64
2021-12-10 13:43:48.562488,-59
2021-12-10 13:43:48.562496,-66
2021-12-10 13:43:48.562504,-69
2021-12-10 13:43:48.562512,-71
2021-12-10 13:43:48.562521,-61
2021-12-10 13:43:48.562529,-42
2021-12-10 13:43:48.562537,-45
2021-12-10 13:43:48.562545,-64
2021-12-10 13:43:48.562554,-81
2021-12-10 13:43:48.562562,-85
2021-12-10 13:43:48.562570,-52
2021-12-10 13:43:48.562578,-33
2021-12-10 13:43:48.562586,-52
2021-12-10 13:43:48.562594,-54
2021-12-10 13:43:48.562603,-47
2021-12-10 13:43:48.742070,-47
2021-12-10 13:43:48.742091,-28
2021-12-10 13:43:48.742101,-14
2021-12-10 13:43:48.742110,-16
2021-12-10 13:43:48.742118,-11
2021-12-10 13:43:48.742126,-26
2021-12-10 13:43:48.742135,-54
2021-12-10 13:43:48.742143,-50
2021-12-10 13:43:48.742152,0
2021-12-10 13:43:48.742160,28
2021-12-10 13:43:48.742168,-2
2021-12-10 13:43:48.742177,-45
2021-12-10 13:43:48.742185,-52
2021-12-10 13:43:48.742193,-33
2021-12-10 13:43:48.742202,-33
2021-12-10 13:43:48.742210,-42
2021-12-10 13:43:48.742219,-50
2021-12-10 13:43:48.742227,-64
2021-12-10 13:43:48.742235,-61
2021-12-10 13:43:48.742244,-23
2021-12-10 13:43:48.742252,-14
2021-12-10 13:43:48.742260,-57
2021-12-10 13:43:48.742269,-147
2021-12-10 13:43:48.742277,-228
2021-12-10 13:43:48.742285,-61
2021-12-10 13:43:48.742294,512
2021-12-10 13:43:48.742302,1311
2021-12-10 13:43:48.742310,1678
2021-12-10 13:43:48.742319,984
2021-12-10 13:43:48.742327,-126
2021-12-10 13:43:48.967033,-450
2021-12-10 13:43:48.967055,-169
2021-12-10 13:43:48.967064,-126
2021-12-10 13:43:48.967073,-247
2021-12-10 13:43:48.967081,-224
2021-12-10 13:43:48.967089,-185
2021-12-10 13:43:48.967098,-193
2021-12-10 13:43:48.967106,-154
2021-12-10 13:43:48.967114,-123
2021-12-10 13:43:48.967123,-143
2021-12-10 13:43:48.967131,-174
2021-12-10 13:43:48.967140,-171
2021-12-10 13:43:48.967148,-128
2021-12-10 13:43:48.967156,-92
2021-12-10 13:43:48.967164,-78
2021-12-10 13:43:48.967173,-71
2021-12-10 13:43:48.967181,-61
2021-12-10 13:43:48.967189,-30
2021-12-10 13:43:48.967197,-4
2021-12-10 13:43:48.967206,-26
2021-12-10 13:43:48.967214,-42
2021-12-10 13:43:48.967222,-40
2021-12-10 13:43:48.967231,-57
2021-12-10 13:43:48.967239,-57
2021-12-10 13:43:48.967247,-47
2021-12-10 13:43:48.967256,-57
2021-12-10 13:43:48.967264,-81
2021-12-10 13:43:48.967272,-114
2021-12-10 13:43:48.967280,-133
2021-12-10 13:43:48.967289,-140
2021-12-10 13:43:49.281708,-121
2021-12-10 13:43:49.281727,-76
2021-12-10 13:43:49.281736,-78
2021-12-10 13:43:49.281745,-140
2021-12-10 13:43:49.281753,-176
2021-12-10 13:43:49.281762,-140
2021-12-10 13:43:49.281770,-102
2021-12-10 13:43:49.281778,-97
2021-12-10 13:43:49.281787,-109
2021-12-10 13:43:49.281795,-152
2021-12-10 13:43:49.281804,-183
2021-12-10 13:43:49.281812,-166
2021-12-10 13:43:49.281820,-147
2021-12-10 13:43:49.281829,-157
2021-12-10 13:43:49.281837,-176
2021-12-10 13:43:49.281845,-171
2021-12-10 13:43:49.281853,-135
2021-12-10 13:43:49.281861,-114
2021-12-10 13:43:49.281870,-123
2021-12-10 13:43:49.281878,-116
2021-12-10 13:43:49.281886,-97
2021-12-10 13:43:49.281895,-95
2021-12-10 13:43:49.281903,-100
2021-12-10 13:43:49.281911,-90
2021-12-10 13:43:49.281920,-78
2021-12-10 13:43:49.281928,-71
2021-12-10 13:43:49.281936,-64
2021-12-10 13:43:49.281945,-66
2021-12-10 13:43:49.281953,-76
2021-12-10 13:43:49.281961,-57
2021-12-10 13:43:49.462321,-38
2021-12-10 13:43:49.462339,-71
2021-12-10 13:43:49.462349,-102
2021-12-10 13:43:49.462357,-81
2021-12-10 13:43:49.462366,-42
2021-12-10 13:43:49.462374,-23
2021-12-10 13:43:49.462383,-11
2021-12-10 13:43:49.462391,9
2021-12-10 13:43:49.462399,2
2021-12-10 13:43:49.462407,-11
2021-12-10 13:43:49.462416,23
2021-12-10 13:43:49.462424,38
2021-12-10 13:43:49.462432,23
2021-12-10 13:43:49.462440,30
2021-12-10 13:43:49.462449,0
2021-12-10 13:43:49.462457,-52
2021-12-10 13:43:49.462466,-40
2021-12-10 13:43:49.462474,-2
2021-12-10 13:43:49.462482,2
2021-12-10 13:43:49.462490,0
2021-12-10 13:43:49.462498,-4
2021-12-10 13:43:49.462507,-26
2021-12-10 13:43:49.462515,-28
2021-12-10 13:43:49.462523,-81
2021-12-10 13:43:49.462531,-195
2021-12-10 13:43:49.462539,-64
2021-12-10 13:43:49.462548,495
2021-12-10 13:43:49.462556,1263
2021-12-10 13:43:49.462564,1640
2021-12-10 13:43:49.462572,1022
2021-12-10 13:43:49.687419,-42
2021-12-10 13:43:49.687444,-388
2021-12-10 13:43:49.687454,-162
2021-12-10 13:43:49.687463,-150
2021-12-10 13:43:49.687471,-236
2021-12-10 13:43:49.687479,-147
2021-12-10 13:43:49.687488,-90
2021-12-10 13:43:49.687496,-145
2021-12-10 13:43:49.687504,-169
2021-12-10 13:43:49.687513,-140
2021-12-10 13:43:49.687521,-114
2021-12-10 13:43:49.687530,-88
2021-12-10 13:43:49.687538,-69
2021-12-10 13:43:49.687546,-85
2021-12-10 13:43:49.687555,-123
2021-12-10 13:43:49.687563,-131
2021-12-10 13:43:49.687571,-133
2021-12-10 13:43:49.687579,-176
2021-12-10 13:43:49.687588,-166
2021-12-10 13:43:49.687596,-116
2021-12-10 13:43:49.687604,-131
2021-12-10 13:43:49.687612,-135
2021-12-10 13:43:49.687620,-92
2021-12-10 13:43:49.687629,-73
2021-12-10 13:43:49.687637,-76
2021-12-10 13:43:49.687645,-81
2021-12-10 13:43:49.687654,-97
2021-12-10 13:43:49.687662,-104
2021-12-10 13:43:49.687670,-92
2021-12-10 13:43:49.687678,-73
2021-12-10 13:43:49.957129,-83
2021-12-10 13:43:49.957151,-97
2021-12-10 13:43:49.957161,-95
2021-12-10 13:43:49.957169,-109
2021-12-10 13:43:49.957178,-116
2021-12-10 13:43:49.957187,-88
2021-12-10 13:43:49.957195,-81
2021-12-10 13:43:49.957204,-112
2021-12-10 13:43:49.957212,-123
2021-12-10 13:43:49.957221,-102
2021-12-10 13:43:49.957229,-83
2021-12-10 13:43:49.957238,-73
2021-12-10 13:43:49.957246,-61
2021-12-10 13:43:49.957254,-81
2021-12-10 13:43:49.957263,-102
2021-12-10 13:43:49.957271,-83
2021-12-10 13:43:49.957279,-64
2021-12-10 13:43:49.957288,-52
2021-12-10 13:43:49.957296,-38
2021-12-10 13:43:49.957305,-40
2021-12-10 13:43:49.957313,-35
2021-12-10 13:43:49.957321,-33
2021-12-10 13:43:49.957330,-23
2021-12-10 13:43:49.957338,-2
2021-12-10 13:43:49.957347,0
2021-12-10 13:43:49.957355,-9
2021-12-10 13:43:49.957363,-19
2021-12-10 13:43:49.957372,-14
2021-12-10 13:43:49.957380,11
2021-12-10 13:43:49.957388,23
2021-12-10 13:43:50.180641,19
2021-12-10 13:43:50.180661,21
2021-12-10 13:43:50.180670,19
2021-12-10 13:43:50.180679,19
2021-12-10 13:43:50.180688,14
2021-12-10 13:43:50.180696,2
2021-12-10 13:43:50.180705,-23
2021-12-10 13:43:50.180713,-38
2021-12-10 13:43:50.180722,-16
2021-12-10 13:43:50.180730,-4
2021-12-10 13:43:50.180738,-2
2021-12-10 13:43:50.180747,28
2021-12-10 13:43:50.180755,28
2021-12-10 13:43:50.180763,4
2021-12-10 13:43:50.180772,19
2021-12-10 13:43:50.180780,19
2021-12-10 13:43:50.180788,2
2021-12-10 13:43:50.180797,0
2021-12-10 13:43:50.180805,-19
2021-12-10 13:43:50.180814,-42
2021-12-10 13:43:50.180822,-54
2021-12-10 13:43:50.180830,-57
2021-12-10 13:43:50.180839,-64
2021-12-10 13:43:50.180847,-97
2021-12-10 13:43:50.180855,-147
2021-12-10 13:43:50.180863,-214
2021-12-10 13:43:50.180872,-212
2021-12-10 13:43:50.180880,104
2021-12-10 13:43:50.180888,810
2021-12-10 13:43:50.180897,1492
2021-12-10 13:43:50.362371,1378
2021-12-10 13:43:50.362390,398
2021-12-10 13:43:50.362400,-340
2021-12-10 13:43:50.362408,-271
2021-12-10 13:43:50.362417,-73
2021-12-10 13:43:50.362425,-164
2021-12-10 13:43:50.362433,-238
2021-12-10 13:43:50.362442,-193
2021-12-10 13:43:50.362450,-185
2021-12-10 13:43:50.362458,-200
2021-12-10 13:43:50.362466,-193
2021-12-10 13:43:50.362475,-214
2021-12-10 13:43:50.362483,-238
2021-12-10 13:43:50.362491,-226
2021-12-10 13:43:50.362505,-195
2021-12-10 13:43:50.362513,-181
2021-12-10 13:43:50.362522,-176
2021-12-10 13:43:50.362530,-157
2021-12-10 13:43:50.362538,-135
2021-12-10 13:43:50.362546,-114
2021-12-10 13:43:50.362555,-88
2021-12-10 13:43:50.362563,-78
2021-12-10 13:43:50.362571,-64
2021-12-10 13:43:50.362579,-47
2021-12-10 13:43:50.362588,-45
2021-12-10 13:43:50.362596,-30
2021-12-10 13:43:50.362604,-21
2021-12-10 13:43:50.362612,-30
2021-12-10 13:43:50.362621,-35
2021-12-10 13:43:50.362629,-50
2021-12-10 13:43:50.632345,-52
2021-12-10 13:43:50.632363,-38
2021-12-10 13:43:50.632373,-28
2021-12-10 13:43:50.632381,-21
2021-12-10 13:43:50.632390,-26
2021-12-10 13:43:50.632398,-45
2021-12-10 13:43:50.632407,-47
2021-12-10 13:43:50.632415,-33
2021-12-10 13:43:50.632423,-33
2021-12-10 13:43:50.632432,-71
2021-12-10 13:43:50.632440,-95
2021-12-10 13:43:50.632448,-90
2021-12-10 13:43:50.632457,-85
2021-12-10 13:43:50.632465,-71
2021-12-10 13:43:50.632473,-57
2021-12-10 13:43:50.632481,-59
2021-12-10 13:43:50.632490,-57
2021-12-10 13:43:50.632498,-57
2021-12-10 13:43:50.632506,-47
2021-12-10 13:43:50.632515,-26
2021-12-10 13:43:50.632523,-26
2021-12-10 13:43:50.632531,-30
2021-12-10 13:43:50.632540,-30
2021-12-10 13:43:50.632548,-33
2021-12-10 13:43:50.632559,-16
2021-12-10 13:43:50.632568,-4
2021-12-10 13:43:50.632576,0
2021-12-10 13:43:50.632584,0
2021-12-10 13:43:50.632593,-2
2021-12-10 13:43:50.632601,-16
2021-12-10 13:43:50.811956,-50
2021-12-10 13:43:50.811977,-45
2021-12-10 13:43:50.811987,-19
2021-12-10 13:43:50.811995,-35
2021-12-10 13:43:50.812004,-61
2021-12-10 13:43:50.812013,-64
2021-12-10 13:43:50.812021,-47
2021-12-10 13:43:50.812030,-28
2021-12-10 13:43:50.812038,-26
2021-12-10 13:43:50.812047,-19
2021-12-10 13:43:50.812055,2
2021-12-10 13:43:50.812064,4
2021-12-10 13:43:50.812072,-2
2021-12-10 13:43:50.812081,7
2021-12-10 13:43:50.812089,14
2021-12-10 13:43:50.812098,-23
2021-12-10 13:43:50.812106,-76
2021-12-10 13:43:50.812115,-73
2021-12-10 13:43:50.812124,-64
2021-12-10 13:43:50.812132,-83
2021-12-10 13:43:50.812141,-76
2021-12-10 13:43:50.812149,-76
2021-12-10 13:43:50.812158,-88
2021-12-10 13:43:50.812166,-85
2021-12-10 13:43:50.812174,-123
2021-12-10 13:43:50.812183,-202
2021-12-10 13:43:50.812191,-128
2021-12-10 13:43:50.812200,305
2021-12-10 13:43:50.812208,1015
2021-12-10 13:43:50.812216,1518
2021-12-10 13:43:51.126996,1149
2021-12-10 13:43:51.127016,123
2021-12-10 13:43:51.127025,-395
2021-12-10 13:43:51.127034,-212
2021-12-10 13:43:51.127043,-133
2021-12-10 13:43:51.127051,-224
2021-12-10 13:43:51.127060,-176
2021-12-10 13:43:51.127068,-116
2021-12-10 13:43:51.127076,-147
2021-12-10 13:43:51.127085,-197
2021-12-10 13:43:51.127093,-209
2021-12-10 13:43:51.127101,-190
2021-12-10 13:43:51.127109,-193
2021-12-10 13:43:51.127118,-200
2021-12-10 13:43:51.127126,-200
2021-12-10 13:43:51.127134,-205
2021-12-10 13:43:51.127143,-188
2021-12-10 13:43:51.127151,-154
2021-12-10 13:43:51.127159,-123
2021-12-10 13:43:51.127168,-104
2021-12-10 13:43:51.127176,-97
2021-12-10 13:43:51.127184,-90
2021-12-10 13:43:51.127193,-81
2021-12-10 13:43:51.127201,-57
2021-12-10 13:43:51.127209,-30
2021-12-10 13:43:51.127218,-28
2021-12-10 13:43:51.127226,-35
2021-12-10 13:43:51.127234,-57
2021-12-10 13:43:51.127242,-73
2021-12-10 13:43:51.127251,-59
2021-12-10 13:43:51.307360,-54
2021-12-10 13:43:51.307379,-50
2021-12-10 13:43:51.307389,-40
2021-12-10 13:43:51.307397,-54
2021-12-10 13:43:51.307406,-54
2021-12-10 13:43:51.307414,-66
2021-12-10 13:43:51.307423,-107
2021-12-10 13:43:51.307431,-102
2021-12-10 13:43:51.307440,-100
2021-12-10 13:43:51.307448,-123
2021-12-10 13:43:51.307457,-100
2021-12-10 13:43:51.307465,-47
2021-12-10 13:43:51.307473,-40
2021-12-10 13:43:51.307481,-83
2021-12-10 13:43:51.307490,-145
2021-12-10 13:43:51.307498,-169
2021-12-10 13:43:51.307507,-131
2021-12-10 13:43:51.307515,-73
2021-12-10 13:43:51.307523,-64
2021-12-10 13:43:51.307532,-73
2021-12-10 13:43:51.307540,-92
2021-12-10 13:43:51.307549,-126
2021-12-10 13:43:51.307557,-109
2021-12-10 13:43:51.307565,-78
2021-12-10 13:43:51.307573,-81
2021-12-10 13:43:51.307582,-64
2021-12-10 13:43:51.307590,-64
2021-12-10 13:43:51.307598,-90
2021-12-10 13:43:51.307607,-76
2021-12-10 13:43:51.307615,-52
2021-12-10 13:43:51.531957,-50
2021-12-10 13:43:51.531975,-54
2021-12-10 13:43:51.531984,-66
2021-12-10 13:43:51.531992,-81
2021-12-10 13:43:51.532001,-64
2021-12-10 13:43:51.532009,-28
2021-12-10 13:43:51.532017,-23
2021-12-10 13:43:51.532026,-50
2021-12-10 13:43:51.532034,-71
2021-12-10 13:43:51.532042,-64
2021-12-10 13:43:51.532050,-40
2021-12-10 13:43:51.532059,-38
2021-12-10 13:43:51.532067,-66
2021-12-10 13:43:51.532075,-88
2021-12-10 13:43:51.532083,-121
2021-12-10 13:43:51.532091,-147
2021-12-10 13:43:51.532099,-143
2021-12-10 13:43:51.532108,-143
2021-12-10 13:43:51.532116,-159
2021-12-10 13:43:51.532124,-164
2021-12-10 13:43:51.532132,-164
2021-12-10 13:43:51.532140,-174
2021-12-10 13:43:51.532148,-236
2021-12-10 13:43:51.532157,-290
2021-12-10 13:43:51.532165,-121
2021-12-10 13:43:51.532173,374
2021-12-10 13:43:51.532181,1046
2021-12-10 13:43:51.532189,1311
2021-12-10 13:43:51.532198,665
2021-12-10 13:43:51.532206,-236
2021-12-10 13:43:51.757138,-419
2021-12-10 13:43:51.757159,-197
2021-12-10 13:43:51.757169,-209
2021-12-10 13:43:51.757178,-278
2021-12-10 13:43:51.757186,-216
2021-12-10 13:43:51.757195,-195
2021-12-10 13:43:51.757203,-214
2021-12-10 13:43:51.757212,-212
2021-12-10 13:43:51.757220,-231
2021-12-10 13:43:51.757228,-236
2021-12-10 13:43:51.757237,-226
2021-12-10 13:43:51.757245,-259
2021-12-10 13:43:51.757253,-302
2021-12-10 13:43:51.757261,-317
2021-12-10 13:43:51.757270,-302
2021-12-10 13:43:51.757278,-283
2021-12-10 13:43:51.757287,-264
2021-12-10 13:43:51.757295,-236
2021-12-10 13:43:51.757303,-221
2021-12-10 13:43:51.757311,-228
2021-12-10 13:43:51.757320,-221
2021-12-10 13:43:51.757328,-209
2021-12-10 13:43:51.757336,-190
2021-12-10 13:43:51.757345,-178
2021-12-10 13:43:51.757353,-181
2021-12-10 13:43:51.757361,-190
2021-12-10 13:43:51.757370,-202
2021-12-10 13:43:51.757378,-193
2021-12-10 13:43:51.757386,-157
2021-12-10 13:43:51.757394,-126
2021-12-10 13:43:51.982440,-114
2021-12-10 13:43:51.982461,-116
2021-12-10 13:43:51.982471,-104
2021-12-10 13:43:51.982479,-92
2021-12-10 13:43:51.982488,-100
2021-12-10 13:43:51.982496,-95
2021-12-10 13:43:51.982505,-102
2021-12-10 13:43:51.982513,-121
2021-12-10 13:43:51.982522,-104
2021-12-10 13:43:51.982530,-90
2021-12-10 13:43:51.982538,-81
2021-12-10 13:43:51.982547,-61
2021-12-10 13:43:51.982555,-83
2021-12-10 13:43:51.982563,-97
2021-12-10 13:43:51.982572,-69
2021-12-10 13:43:51.982580,-52
2021-12-10 13:43:51.982588,-42
2021-12-10 13:43:51.982596,-35
2021-12-10 13:43:51.982605,-38
2021-12-10 13:43:51.982613,-45
2021-12-10 13:43:51.982621,-35
2021-12-10 13:43:51.982630,-38
2021-12-10 13:43:51.982638,-50
2021-12-10 13:43:51.982646,-23
2021-12-10 13:43:51.982655,0
2021-12-10 13:43:51.982663,0
2021-12-10 13:43:51.982671,23
2021-12-10 13:43:51.982680,45
2021-12-10 13:43:51.982688,54
2021-12-10 13:43:51.982696,78
2021-12-10 13:43:52.251074,88
2021-12-10 13:43:52.251094,102
2021-12-10 13:43:52.251103,123
2021-12-10 13:43:52.251112,126
2021-12-10 13:43:52.251120,145
2021-12-10 13:43:52.251128,166
2021-12-10 13:43:52.251137,162
2021-12-10 13:43:52.251145,164
2021-12-10 13:43:52.251153,188
2021-12-10 13:43:52.251161,193
2021-12-10 13:43:52.251170,171
2021-12-10 13:43:52.251178,157
2021-12-10 13:43:52.251186,157
2021-12-10 13:43:52.251194,166
2021-12-10 13:43:52.251202,190
2021-12-10 13:43:52.251211,197
2021-12-10 13:43:52.251219,190
2021-12-10 13:43:52.251227,174
2021-12-10 13:43:52.251236,116
2021-12-10 13:43:52.251244,52
2021-12-10 13:43:52.251252,69
2021-12-10 13:43:52.251260,343
2021-12-10 13:43:52.251268,970
2021-12-10 13:43:52.251276,1635
2021-12-10 13:43:52.251285,1633
2021-12-10 13:43:52.251293,755
2021-12-10 13:43:52.251301,-38
2021-12-10 13:43:52.251309,-26
2021-12-10 13:43:52.251317,197
2021-12-10 13:43:52.251325,140
2021-12-10 13:43:52.476840,109
2021-12-10 13:43:52.476869,193
2021-12-10 13:43:52.476879,214
2021-12-10 13:43:52.476887,205
2021-12-10 13:43:52.476896,216
2021-12-10 13:43:52.476904,212
2021-12-10 13:43:52.476913,205
2021-12-10 13:43:52.476921,226
2021-12-10 13:43:52.476929,236
2021-12-10 13:43:52.476938,221
2021-12-10 13:43:52.476946,221
2021-12-10 13:43:52.476955,207
2021-12-10 13:43:52.476963,197
2021-12-10 13:43:52.476971,243
2021-12-10 13:43:52.476979,269
2021-12-10 13:43:52.476988,269
2021-12-10 13:43:52.476996,295
2021-12-10 13:43:52.477004,307
2021-12-10 13:43:52.477013,309
2021-12-10 13:43:52.477021,324
2021-12-10 13:43:52.477029,329
2021-12-10 13:43:52.477038,321
2021-12-10 13:43:52.477046,300
2021-12-10 13:43:52.477054,283
2021-12-10 13:43:52.477062,286
2021-12-10 13:43:52.477070,281
2021-12-10 13:43:52.477078,264
2021-12-10 13:43:52.477087,259
2021-12-10 13:43:52.477095,271
2021-12-10 13:43:52.477103,269
2021-12-10 13:43:52.657150,257
2021-12-10 13:43:52.657173,271
2021-12-10 13:43:52.657182,271
2021-12-10 13:43:52.657191,236
2021-12-10 13:43:52.657199,202
2021-12-10 13:43:52.657208,193
2021-12-10 13:43:52.657216,214
2021-12-10 13:43:52.657224,233
2021-12-10 13:43:52.657232,236
2021-12-10 13:43:52.657241,236
2021-12-10 13:43:52.657249,219
2021-12-10 13:43:52.657258,214
2021-12-10 13:43:52.657266,243
2021-12-10 13:43:52.657274,250
2021-12-10 13:43:52.657283,252
2021-12-10 13:43:52.657291,257
2021-12-10 13:43:52.657299,240
2021-12-10 13:43:52.657308,238
2021-12-10 13:43:52.657316,255
2021-12-10 13:43:52.657325,267
2021-12-10 13:43:52.657333,262
2021-12-10 13:43:52.657341,238
2021-12-10 13:43:52.657349,221
2021-12-10 13:43:52.657358,193
2021-12-10 13:43:52.657366,159
2021-12-10 13:43:52.657375,176
2021-12-10 13:43:52.657383,190
2021-12-10 13:43:52.657391,157
2021-12-10 13:43:52.657399,152
2021-12-10 13:43:52.657408,193
2021-12-10 13:43:52.927121,216
2021-12-10 13:43:52.927142,205
2021-12-10 13:43:52.927152,190
2021-12-10 13:43:52.927161,152
2021-12-10 13:43:52.927169,102
2021-12-10 13:43:52.927178,114
2021-12-10 13:43:52.927186,140
2021-12-10 13:43:52.927195,133
2021-12-10 13:43:52.927203,131
2021-12-10 13:43:52.927211,107
2021-12-10 13:43:52.927220,76
2021-12-10 13:43:52.927228,76
2021-12-10 13:43:52.927236,14
2021-12-10 13:43:52.927245,-59
2021-12-10 13:43:52.927253,138
2021-12-10 13:43:52.927262,734
2021-12-10 13:43:52.927270,1492
2021-12-10 13:43:52.927278,1769
2021-12-10 13:43:52.927287,1025
2021-12-10 13:43:52.927297,-45
2021-12-10 13:43:52.927305,-288
2021-12-10 13:43:52.927314,-11
2021-12-10 13:43:52.927322,-14
2021-12-10 13:43:52.927330,-97
2021-12-10 13:43:52.927339,-28
2021-12-10 13:43:52.927347,-2
2021-12-10 13:43:52.927355,-30
2021-12-10 13:43:52.927364,-26
2021-12-10 13:43:52.927372,-11
2021-12-10 13:43:52.927380,-19
2021-12-10 13:43:53.152472,-38
2021-12-10 13:43:53.152493,-19
2021-12-10 13:43:53.152503,4
2021-12-10 13:43:53.152511,-4
2021-12-10 13:43:53.152520,7
2021-12-10 13:43:53.152528,28
2021-12-10 13:43:53.152537,45
2021-12-10 13:43:53.152545,57
2021-12-10 13:43:53.152553,35
2021-12-10 13:43:53.152562,-9
2021-12-10 13:43:53.152570,-14
2021-12-10 13:43:53.152579,4
2021-12-10 13:43:53.152587,-2
2021-12-10 13:43:53.152595,-23
2021-12-10 13:43:53.152604,-47
2021-12-10 13:43:53.152612,-97
2021-12-10 13:43:53.152620,-107
2021-12-10 13:43:53.152629,-78
2021-12-10 13:43:53.152637,-85
2021-12-10 13:43:53.152645,-100
2021-12-10 13:43:53.152654,-107
2021-12-10 13:43:53.152662,-123
2021-12-10 13:43:53.152670,-112
2021-12-10 13:43:53.152679,-95
2021-12-10 13:43:53.152687,-97
2021-12-10 13:43:53.152695,-100
2021-12-10 13:43:53.152703,-112
2021-12-10 13:43:53.152712,-114
2021-12-10 13:43:53.152720,-133
2021-12-10 13:43:53.152728,-174
2021-12-10 13:43:53.377446,-169
2021-12-10 13:43:53.377465,-154
2021-12-10 13:43:53.377475,-193
2021-12-10 13:43:53.377483,-216
2021-12-10 13:43:53.377492,-188
2021-12-10 13:43:53.377500,-162
2021-12-10 13:43:53.377508,-159
2021-12-10 13:43:53.377517,-157
2021-12-10 13:43:53.377525,-174
2021-12-10 13:43:53.377533,-202
2021-12-10 13:43:53.377542,-183
2021-12-10 13:43:53.377550,-157
2021-12-10 13:43:53.377558,-152
2021-12-10 13:43:53.377566,-152
2021-12-10 13:43:53.377575,-185
2021-12-10 13:43:53.377583,-197
2021-12-10 13:43:53.377591,-159
2021-12-10 13:43:53.377600,-140
2021-12-10 13:43:53.377608,-135
2021-12-10 13:43:53.377616,-131
2021-12-10 13:43:53.377624,-138
2021-12-10 13:43:53.377633,-114
2021-12-10 13:43:53.377641,-88
2021-12-10 13:43:53.377649,-83
2021-12-10 13:43:53.377658,-81
2021-12-10 13:43:53.377666,-97
2021-12-10 13:43:53.377674,-126
2021-12-10 13:43:53.377683,-131
2021-12-10 13:43:53.377691,-109
2021-12-10 13:43:53.377699,-107
2021-12-10 13:43:53.602520,-112
2021-12-10 13:43:53.602539,-85
2021-12-10 13:43:53.602549,-78
2021-12-10 13:43:53.602557,-107
2021-12-10 13:43:53.602566,-152
2021-12-10 13:43:53.602574,-238
2021-12-10 13:43:53.602583,-259
2021-12-10 13:43:53.602591,14
2021-12-10 13:43:53.602599,655
2021-12-10 13:43:53.602608,1385
2021-12-10 13:43:53.602616,1440
2021-12-10 13:43:53.602625,515
2021-12-10 13:43:53.602633,-374
2021-12-10 13:43:53.602642,-422
2021-12-10 13:43:53.602650,-202
2021-12-10 13:43:53.602658,-250
2021-12-10 13:43:53.602667,-288
2021-12-10 13:43:53.602675,-202
2021-12-10 13:43:53.602683,-195
2021-12-10 13:43:53.602692,-233
2021-12-10 13:43:53.602700,-224
2021-12-10 13:43:53.602708,-216
2021-12-10 13:43:53.602716,-209
2021-12-10 13:43:53.602725,-185
2021-12-10 13:43:53.602733,-166
2021-12-10 13:43:53.602741,-164
2021-12-10 13:43:53.602750,-166
2021-12-10 13:43:53.602758,-150
2021-12-10 13:43:53.602766,-128
2021-12-10 13:43:53.602774,-109
2021-12-10 13:43:53.827126,-92
2021-12-10 13:43:53.827157,-85
2021-12-10 13:43:53.827167,-69
2021-12-10 13:43:53.827176,-64
2021-12-10 13:43:53.827184,-114
2021-12-10 13:43:53.827193,-157
2021-12-10 13:43:53.827201,-176
2021-12-10 13:43:53.827209,-197
2021-12-10 13:43:53.827218,-209
2021-12-10 13:43:53.827226,-214
2021-12-10 13:43:53.827234,-219
2021-12-10 13:43:53.827242,-243
2021-12-10 13:43:53.827250,-281
2021-12-10 13:43:53.827259,-309
2021-12-10 13:43:53.827267,-317
2021-12-10 13:43:53.827275,-309
2021-12-10 13:43:53.827283,-302
2021-12-10 13:43:53.827292,-300
2021-12-10 13:43:53.827300,-300
2021-12-10 13:43:53.827308,-300
2021-12-10 13:43:53.827317,-281
2021-12-10 13:43:53.827325,-264
2021-12-10 13:43:53.827333,-269
2021-12-10 13:43:53.827341,-264
2021-12-10 13:43:53.827350,-257
2021-12-10 13:43:53.827358,-257
2021-12-10 13:43:53.827366,-252
2021-12-10 13:43:53.827375,-257
2021-12-10 13:43:53.827383,-240
2021-12-10 13:43:53.827392,-212
2021-12-10 13:43:54.052071,-224
2021-12-10 13:43:54.052091,-240
2021-12-10 13:43:54.052101,-226
2021-12-10 13:43:54.052110,-212
2021-12-10 13:43:54.052118,-205
2021-12-10 13:43:54.052127,-205
2021-12-10 13:43:54.052135,-238
2021-12-10 13:43:54.052144,-269
2021-12-10 13:43:54.052152,-271
2021-12-10 13:43:54.052160,-269
2021-12-10 13:43:54.052169,-259
2021-12-10 13:43:54.052177,-257
2021-12-10 13:43:54.052186,-267
2021-12-10 13:43:54.052194,-240
2021-12-10 13:43:54.052202,-200
2021-12-10 13:43:54.052211,-214
2021-12-10 13:43:54.052219,-219
2021-12-10 13:43:54.052227,-214
2021-12-10 13:43:54.052236,-245
2021-12-10 13:43:54.052244,-255
2021-12-10 13:43:54.052252,-238
2021-12-10 13:43:54.052261,-233
2021-12-10 13:43:54.052269,-219
2021-12-10 13:43:54.052278,-214
2021-12-10 13:43:54.052286,-216
2021-12-10 13:43:54.052294,-205
2021-12-10 13:43:54.052303,-238
2021-12-10 13:43:54.052311,-355
2021-12-10 13:43:54.052319,-340
2021-12-10 13:43:54.052328,73
2021-12-10 13:43:54.321015,851
2021-12-10 13:43:54.321034,1537
2021-12-10 13:43:54.321044,1359
2021-12-10 13:43:54.321053,238
2021-12-10 13:43:54.321061,-562
2021-12-10 13:43:54.321070,-438
2021-12-10 13:43:54.321079,-243
2021-12-10 13:43:54.321087,-326
2021-12-10 13:43:54.321096,-321
2021-12-10 13:43:54.321104,-276
2021-12-10 13:43:54.321113,-348
2021-12-10 13:43:54.321121,-395
2021-12-10 13:43:54.321130,-345
2021-12-10 13:43:54.321138,-305
2021-12-10 13:43:54.321146,-309
2021-12-10 13:43:54.321155,-295
2021-12-10 13:43:54.321163,-276
2021-12-10 13:43:54.321172,-262
2021-12-10 13:43:54.321180,-228
2021-12-10 13:43:54.321189,-214
2021-12-10 13:43:54.321197,-224
2021-12-10 13:43:54.321205,-219
2021-12-10 13:43:54.321214,-205
2021-12-10 13:43:54.321222,-195
2021-12-10 13:43:54.321230,-176
2021-12-10 13:43:54.321239,-164
2021-12-10 13:43:54.321247,-162
2021-12-10 13:43:54.321255,-166
2021-12-10 13:43:54.321264,-176
2021-12-10 13:43:54.321272,-181
2021-12-10 13:43:54.502378,-183
2021-12-10 13:43:54.502397,-181
2021-12-10 13:43:54.502407,-200
2021-12-10 13:43:54.502415,-224
2021-12-10 13:43:54.502424,-243
2021-12-10 13:43:54.502432,-262
2021-12-10 13:43:54.502441,-252
2021-12-10 13:43:54.502449,-243
2021-12-10 13:43:54.502458,-247
2021-12-10 13:43:54.502466,-257
2021-12-10 13:43:54.502475,-295
2021-12-10 13:43:54.502483,-329
2021-12-10 13:43:54.502491,-340
2021-12-10 13:43:54.502500,-360
2021-12-10 13:43:54.502508,-360
2021-12-10 13:43:54.502517,-350
2021-12-10 13:43:54.502525,-362
2021-12-10 13:43:54.502533,-360
2021-12-10 13:43:54.502542,-331
2021-12-10 13:43:54.502550,-298
2021-12-10 13:43:54.502559,-302
2021-12-10 13:43:54.502567,-321
2021-12-10 13:43:54.502575,-317
2021-12-10 13:43:54.502584,-305
2021-12-10 13:43:54.502592,-295
2021-12-10 13:43:54.502600,-283
2021-12-10 13:43:54.502609,-288
2021-12-10 13:43:54.502617,-293
2021-12-10 13:43:54.502625,-293
2021-12-10 13:43:54.502634,-281
2021-12-10 13:43:54.817440,-255
2021-12-10 13:43:54.817461,-236
2021-12-10 13:43:54.817470,-231
2021-12-10 13:43:54.817479,-252
2021-12-10 13:43:54.817488,-269
2021-12-10 13:43:54.817496,-255
2021-12-10 13:43:54.817505,-238
2021-12-10 13:43:54.817513,-231
2021-12-10 13:43:54.817522,-236
2021-12-10 13:43:54.817531,-283
2021-12-10 13:43:54.817539,-307
2021-12-10 13:43:54.817548,-276
2021-12-10 13:43:54.817557,-250
2021-12-10 13:43:54.817565,-267
2021-12-10 13:43:54.817573,-293
2021-12-10 13:43:54.817582,-314
2021-12-10 13:43:54.817591,-362
2021-12-10 13:43:54.817599,-445
2021-12-10 13:43:54.817607,-505
2021-12-10 13:43:54.817616,-319
2021-12-10 13:43:54.817624,319
2021-12-10 13:43:54.817633,1206
2021-12-10 13:43:54.817641,1597
2021-12-10 13:43:54.817650,872
2021-12-10 13:43:54.817658,-302
2021-12-10 13:43:54.817667,-646
2021-12-10 13:43:54.817675,-336
2021-12-10 13:43:54.817684,-307
2021-12-10 13:43:54.817692,-433
2021-12-10 13:43:54.817700,-357
2021-12-10 13:43:54.997036,-293
2021-12-10 13:43:54.997055,-317
2021-12-10 13:43:54.997065,-314
2021-12-10 13:43:54.997073,-298
2021-12-10 13:43:54.997082,-286
2021-12-10 13:43:54.997090,-262
2021-12-10 13:43:54.997098,-226
2021-12-10 13:43:54.997106,-212
2021-12-10 13:43:54.997115,-224
2021-12-10 13:43:54.997123,-240
2021-12-10 13:43:54.997131,-228
2021-12-10 13:43:54.997139,-185
2021-12-10 13:43:54.997148,-154
2021-12-10 13:43:54.997156,-135
2021-12-10 13:43:54.997164,-107
2021-12-10 13:43:54.997173,-114
2021-12-10 13:43:54.997181,-140
2021-12-10 13:43:54.997189,-145
2021-12-10 13:43:54.997197,-150
2021-12-10 13:43:54.997206,-150
2021-12-10 13:43:54.997214,-181
2021-12-10 13:43:54.997222,-228
2021-12-10 13:43:54.997230,-221
2021-12-10 13:43:54.997239,-197
2021-12-10 13:43:54.997247,-193
2021-12-10 13:43:54.997255,-197
2021-12-10 13:43:54.997263,-221
2021-12-10 13:43:54.997271,-247
2021-12-10 13:43:54.997280,-247
2021-12-10 13:43:54.997288,-214
2021-12-10 13:43:55.222438,-190
2021-12-10 13:43:55.222457,-207
2021-12-10 13:43:55.222467,-226
2021-12-10 13:43:55.222476,-226
2021-12-10 13:43:55.222484,-212
2021-12-10 13:43:55.222493,-185
2021-12-10 13:43:55.222501,-185
2021-12-10 13:43:55.222509,-212
2021-12-10 13:43:55.222518,-240
2021-12-10 13:43:55.222526,-264
2021-12-10 13:43:55.222534,-278
2021-12-10 13:43:55.222543,-288
2021-12-10 13:43:55.222551,-271
2021-12-10 13:43:55.222559,-276
2021-12-10 13:43:55.222568,-317
2021-12-10 13:43:55.222576,-314
2021-12-10 13:43:55.222585,-288
2021-12-10 13:43:55.222593,-295
2021-12-10 13:43:55.222601,-307
2021-12-10 13:43:55.222609,-307
2021-12-10 13:43:55.222618,-314
2021-12-10 13:43:55.222626,-343
2021-12-10 13:43:55.222634,-376
2021-12-10 13:43:55.222642,-355
2021-12-10 13:43:55.222651,-286
2021-12-10 13:43:55.222659,-267
2021-12-10 13:43:55.222667,-293
2021-12-10 13:43:55.222676,-283
2021-12-10 13:43:55.222684,-257
2021-12-10 13:43:55.222692,-264
2021-12-10 13:43:55.447022,-276
2021-12-10 13:43:55.447041,-262
2021-12-10 13:43:55.447050,-259
2021-12-10 13:43:55.447059,-262
2021-12-10 13:43:55.447067,-257
2021-12-10 13:43:55.447075,-250
2021-12-10 13:43:55.447084,-231
2021-12-10 13:43:55.447092,-293
2021-12-10 13:43:55.447101,-457
2021-12-10 13:43:55.447109,-429
2021-12-10 13:43:55.447117,52
2021-12-10 13:43:55.447126,894
2021-12-10 13:43:55.447134,1630
2021-12-10 13:43:55.447142,1421
2021-12-10 13:43:55.447151,224
2021-12-10 13:43:55.447160,-617
2021-12-10 13:43:55.447168,-462
2021-12-10 13:43:55.447176,-219
2021-12-10 13:43:55.447185,-321
2021-12-10 13:43:55.447193,-355
2021-12-10 13:43:55.447202,-312
2021-12-10 13:43:55.447210,-326
2021-12-10 13:43:55.447219,-298
2021-12-10 13:43:55.447227,-238
2021-12-10 13:43:55.447235,-233
2021-12-10 13:43:55.447244,-247
2021-12-10 13:43:55.447252,-219
2021-12-10 13:43:55.447261,-193
2021-12-10 13:43:55.447269,-202
2021-12-10 13:43:55.447278,-166
2021-12-10 13:43:55.716848,-112
2021-12-10 13:43:55.716869,-112
2021-12-10 13:43:55.716879,-114
2021-12-10 13:43:55.716888,-92
2021-12-10 13:43:55.716895,-73
2021-12-10 13:43:55.716903,-38
2021-12-10 13:43:55.716911,-42
2021-12-10 13:43:55.716919,-78
2021-12-10 13:43:55.716927,-50
2021-12-10 13:43:55.716935,-16
2021-12-10 13:43:55.716942,-50
2021-12-10 13:43:55.716950,-78
2021-12-10 13:43:55.716958,-90
2021-12-10 13:43:55.716966,-131
2021-12-10 13:43:55.716974,-162
2021-12-10 13:43:55.716983,-128
2021-12-10 13:43:55.716991,-104
2021-12-10 13:43:55.716999,-133
2021-12-10 13:43:55.717007,-138
2021-12-10 13:43:55.717015,-112
2021-12-10 13:43:55.717024,-116
2021-12-10 13:43:55.717032,-145
2021-12-10 13:43:55.717040,-162
2021-12-10 13:43:55.717048,-154
2021-12-10 13:43:55.717056,-150
2021-12-10 13:43:55.717064,-150
2021-12-10 13:43:55.717073,-145
2021-12-10 13:43:55.717081,-157
2021-12-10 13:43:55.717089,-181
2021-12-10 13:43:55.717097,-188
2021-12-10 13:43:55.897151,-171
2021-12-10 13:43:55.897172,-174
2021-12-10 13:43:55.897182,-171
2021-12-10 13:43:55.897190,-145
2021-12-10 13:43:55.897199,-162
2021-12-10 13:43:55.897210,-207
2021-12-10 13:43:55.897218,-219
2021-12-10 13:43:55.897227,-226
2021-12-10 13:43:55.897235,-224
2021-12-10 13:43:55.897244,-197
2021-12-10 13:43:55.897252,-200
2021-12-10 13:43:55.897260,-233
2021-12-10 13:43:55.897269,-250
2021-12-10 13:43:55.897277,-224
2021-12-10 13:43:55.897285,-185
2021-12-10 13:43:55.897294,-178
2021-12-10 13:43:55.897302,-166
2021-12-10 13:43:55.897310,-171
2021-12-10 13:43:55.897318,-197
2021-12-10 13:43:55.897327,-164
2021-12-10 13:43:55.897335,-150
2021-12-10 13:43:55.897343,-190
2021-12-10 13:43:55.897351,-166
2021-12-10 13:43:55.897360,-126
2021-12-10 13:43:55.897368,-164
2021-12-10 13:43:55.897376,-183
2021-12-10 13:43:55.897384,-150
2021-12-10 13:43:55.897393,-157
2021-12-10 13:43:55.897401,-243
2021-12-10 13:43:55.897409,-352
2021-12-10 13:43:56.167590,-257
2021-12-10 13:43:56.167612,295
2021-12-10 13:43:56.167621,1204
2021-12-10 13:43:56.167630,1769
2021-12-10 13:43:56.167638,1235
2021-12-10 13:43:56.167647,9
2021-12-10 13:43:56.167655,-565
2021-12-10 13:43:56.167663,-278
2021-12-10 13:43:56.167672,-131
2021-12-10 13:43:56.167680,-283
2021-12-10 13:43:56.167688,-290
2021-12-10 13:43:56.167696,-236
2021-12-10 13:43:56.167705,-228
2021-12-10 13:43:56.167713,-188
2021-12-10 13:43:56.167721,-171
2021-12-10 13:43:56.167729,-181
2021-12-10 13:43:56.167738,-169
2021-12-10 13:43:56.167746,-145
2021-12-10 13:43:56.167754,-135
2021-12-10 13:43:56.167762,-133
2021-12-10 13:43:56.167771,-90
2021-12-10 13:43:56.167779,-50
2021-12-10 13:43:56.167787,-64
2021-12-10 13:43:56.167796,-59
2021-12-10 13:43:56.167804,-11
2021-12-10 13:43:56.167812,2
2021-12-10 13:43:56.167820,-21
2021-12-10 13:43:56.167828,-38
2021-12-10 13:43:56.167846,-14
2021-12-10 13:43:56.167855,0
2021-12-10 13:43:56.436170,-30
2021-12-10 13:43:56.436191,-33
2021-12-10 13:43:56.436200,-9
2021-12-10 13:43:56.436217,-28
2021-12-10 13:43:56.436226,-73
2021-12-10 13:43:56.436234,-88
2021-12-10 13:43:56.436243,-83
2021-12-10 13:43:56.436251,-83
2021-12-10 13:43:56.436259,-88
2021-12-10 13:43:56.436268,-114
2021-12-10 13:43:56.436276,-154
2021-12-10 13:43:56.436285,-157
2021-12-10 13:43:56.436293,-133
2021-12-10 13:43:56.436301,-116
2021-12-10 13:43:56.436310,-104
2021-12-10 13:43:56.436318,-121
2021-12-10 13:43:56.436326,-150
2021-12-10 13:43:56.436334,-145
2021-12-10 13:43:56.436343,-128
2021-12-10 13:43:56.436351,-114
2021-12-10 13:43:56.436359,-92
2021-12-10 13:43:56.436368,-102
2021-12-10 13:43:56.436376,-131
2021-12-10 13:43:56.436384,-112
2021-12-10 13:43:56.436392,-73
2021-12-10 13:43:56.436401,-78
2021-12-10 13:43:56.436409,-97
2021-12-10 13:43:56.436417,-102
2021-12-10 13:43:56.436426,-123
2021-12-10 13:43:56.436434,-133
2021-12-10 13:43:56.572051,-140
2021-12-10 13:43:56.572070,-150
2021-12-10 13:43:56.572080,-140
2021-12-10 13:43:56.572088,-174
2021-12-10 13:43:56.572097,-224
2021-12-10 13:43:56.572105,-200
2021-12-10 13:43:56.572113,-164
2021-12-10 13:43:56.572122,-138
2021-12-10 13:43:56.572130,-109
2021-12-10 13:43:56.572139,-133
2021-12-10 13:43:56.572147,-154
2021-12-10 13:43:56.572155,-133
2021-12-10 13:43:56.572164,-128
2021-12-10 13:43:56.572172,-145
2021-12-10 13:43:56.572180,-145
2021-12-10 13:43:56.572188,-152
2021-12-10 13:43:56.572197,-166
2021-12-10 13:43:56.572205,-140
2021-12-10 13:43:56.572214,-109
2021-12-10 13:43:56.572222,-107
2021-12-10 13:43:56.572230,-135
2021-12-10 13:43:56.572239,-257
2021-12-10 13:43:56.572247,-312
2021-12-10 13:43:56.572256,40
2021-12-10 13:43:56.572264,789
2021-12-10 13:43:56.572272,1537
2021-12-10 13:43:56.572281,1537
2021-12-10 13:43:56.572294,522
2021-12-10 13:43:56.572303,-371
2021-12-10 13:43:56.572312,-343
2021-12-10 13:43:56.842055,-119
2021-12-10 13:43:56.842074,-202
2021-12-10 13:43:56.842083,-255
2021-12-10 13:43:56.842092,-200
2021-12-10 13:43:56.842101,-209
2021-12-10 13:43:56.842109,-205
2021-12-10 13:43:56.842117,-145
2021-12-10 13:43:56.842126,-135
2021-12-10 13:43:56.842134,-150
2021-12-10 13:43:56.842143,-152
2021-12-10 13:43:56.842151,-181
2021-12-10 13:43:56.842159,-181
2021-12-10 13:43:56.842167,-133
2021-12-10 13:43:56.842176,-107
2021-12-10 13:43:56.842184,-116
2021-12-10 13:43:56.842192,-109
2021-12-10 13:43:56.842201,-61
2021-12-10 13:43:56.842209,-40
2021-12-10 13:43:56.842217,-38
2021-12-10 13:43:56.842226,2
2021-12-10 13:43:56.842234,9
2021-12-10 13:43:56.842242,-23
2021-12-10 13:43:56.842250,-14
2021-12-10 13:43:56.842259,4
2021-12-10 13:43:56.842267,0
2021-12-10 13:43:56.842275,0
2021-12-10 13:43:56.842284,0
2021-12-10 13:43:56.842292,-21
2021-12-10 13:43:56.842300,-14
2021-12-10 13:43:56.842309,21
2021-12-10 13:43:57.067439,14
2021-12-10 13:43:57.067458,-14
2021-12-10 13:43:57.067468,-28
2021-12-10 13:43:57.067477,-61
2021-12-10 13:43:57.067485,-66
2021-12-10 13:43:57.067493,-35
2021-12-10 13:43:57.067502,-26
2021-12-10 13:43:57.067510,-35
2021-12-10 13:43:57.067518,-61
2021-12-10 13:43:57.067527,-83
2021-12-10 13:43:57.067535,-64
2021-12-10 13:43:57.067543,-33
2021-12-10 13:43:57.067551,-16
2021-12-10 13:43:57.067560,-40
2021-12-10 13:43:57.067568,-71
2021-12-10 13:43:57.067576,-59
2021-12-10 13:43:57.067584,-54
2021-12-10 13:43:57.067592,-50
2021-12-10 13:43:57.067601,-14
2021-12-10 13:43:57.067609,-14
2021-12-10 13:43:57.067617,-64
2021-12-10 13:43:57.067625,-100
2021-12-10 13:43:57.067634,-81
2021-12-10 13:43:57.067642,-59
2021-12-10 13:43:57.067650,-69
2021-12-10 13:43:57.067658,-50
2021-12-10 13:43:57.067666,-52
2021-12-10 13:43:57.067674,-85
2021-12-10 13:43:57.067683,-64
2021-12-10 13:43:57.067691,-33
2021-12-10 13:43:57.337403,-33
2021-12-10 13:43:57.337421,-21
2021-12-10 13:43:57.337431,-9
2021-12-10 13:43:57.337439,-33
2021-12-10 13:43:57.337448,-69
2021-12-10 13:43:57.337456,-66
2021-12-10 13:43:57.337465,-64
2021-12-10 13:43:57.337473,-114
2021-12-10 13:43:57.337481,-126
2021-12-10 13:43:57.337490,-95
2021-12-10 13:43:57.337498,-95
2021-12-10 13:43:57.337507,-88
2021-12-10 13:43:57.337515,-76
2021-12-10 13:43:57.337524,-109
2021-12-10 13:43:57.337532,-190
2021-12-10 13:43:57.337540,-290
2021-12-10 13:43:57.337549,-238
2021-12-10 13:43:57.337557,190
2021-12-10 13:43:57.337566,932
2021-12-10 13:43:57.337574,1428
2021-12-10 13:43:57.337583,989
2021-12-10 13:43:57.337591,-33
2021-12-10 13:43:57.337600,-479
2021-12-10 13:43:57.337608,-233
2021-12-10 13:43:57.337617,-104
2021-12-10 13:43:57.337625,-214
2021-12-10 13:43:57.337633,-197
2021-12-10 13:43:57.337642,-123
2021-12-10 13:43:57.337650,-143
2021-12-10 13:43:57.337659,-133
2021-12-10 13:43:57.517438,-81
2021-12-10 13:43:57.517457,-85
2021-12-10 13:43:57.517466,-88
2021-12-10 13:43:57.517475,-50
2021-12-10 13:43:57.517483,-21
2021-12-10 13:43:57.517492,-26
2021-12-10 13:43:57.517500,-40
2021-12-10 13:43:57.517508,-30
2021-12-10 13:43:57.517517,-7
2021-12-10 13:43:57.517525,7
2021-12-10 13:43:57.517534,28
2021-12-10 13:43:57.517542,59
2021-12-10 13:43:57.517550,71
2021-12-10 13:43:57.517559,40
2021-12-10 13:43:57.517567,33
2021-12-10 13:43:57.517576,64
2021-12-10 13:43:57.517584,61
2021-12-10 13:43:57.517592,45
2021-12-10 13:43:57.517600,33
2021-12-10 13:43:57.517609,0
2021-12-10 13:43:57.517617,-7
2021-12-10 13:43:57.517625,0
2021-12-10 13:43:57.517634,2
2021-12-10 13:43:57.517642,14
2021-12-10 13:43:57.517650,7
2021-12-10 13:43:57.517659,-7
2021-12-10 13:43:57.517667,-16
2021-12-10 13:43:57.517675,-11
2021-12-10 13:43:57.517683,2
2021-12-10 13:43:57.517692,-9
2021-12-10 13:43:57.742076,-28
2021-12-10 13:43:57.742096,-19
2021-12-10 13:43:57.742105,-7
2021-12-10 13:43:57.742114,0
2021-12-10 13:43:57.742123,4
2021-12-10 13:43:57.742131,-7
2021-12-10 13:43:57.742140,-35
2021-12-10 13:43:57.742148,-57
2021-12-10 13:43:57.742157,-64
2021-12-10 13:43:57.742165,-85
2021-12-10 13:43:57.742174,-78
2021-12-10 13:43:57.742182,-64
2021-12-10 13:43:57.742191,-126
2021-12-10 13:43:57.742199,-150
2021-12-10 13:43:57.742207,-107
2021-12-10 13:43:57.742216,-140
2021-12-10 13:43:57.742224,-162
2021-12-10 13:43:57.742232,-121
2021-12-10 13:43:57.742241,-135
2021-12-10 13:43:57.742249,-152
2021-12-10 13:43:57.742257,-131
2021-12-10 13:43:57.742266,-150
2021-12-10 13:43:57.742274,-195
2021-12-10 13:43:57.742282,-174
2021-12-10 13:43:57.742291,-126
2021-12-10 13:43:57.742299,-135
2021-12-10 13:43:57.742308,-150
2021-12-10 13:43:57.742316,-121
2021-12-10 13:43:57.742324,-119
2021-12-10 13:43:57.742333,-145
2021-12-10 13:43:57.967537,-159
2021-12-10 13:43:57.967556,-143
2021-12-10 13:43:57.967566,-133
2021-12-10 13:43:57.967574,-154
2021-12-10 13:43:57.967583,-145
2021-12-10 13:43:57.967595,-143
2021-12-10 13:43:57.967604,-197
2021-12-10 13:43:57.967612,-262
2021-12-10 13:43:57.967620,-319
2021-12-10 13:43:57.967629,-174
2021-12-10 13:43:57.967637,350
2021-12-10 13:43:57.967646,1068
2021-12-10 13:43:57.967654,1475
2021-12-10 13:43:57.967662,913
2021-12-10 13:43:57.967671,-202
2021-12-10 13:43:57.967679,-593
2021-12-10 13:43:57.967688,-305
2021-12-10 13:43:57.967696,-226
2021-12-10 13:43:57.967704,-321
2021-12-10 13:43:57.967713,-278
2021-12-10 13:43:57.967721,-202
2021-12-10 13:43:57.967729,-212
2021-12-10 13:43:57.967737,-231
2021-12-10 13:43:57.967746,-216
2021-12-10 13:43:57.967754,-188
2021-12-10 13:43:57.967762,-150
2021-12-10 13:43:57.967770,-145
2021-12-10 13:43:57.967779,-157
2021-12-10 13:43:57.967787,-135
2021-12-10 13:43:57.967795,-112
2021-12-10 13:43:58.192421,-92
2021-12-10 13:43:58.192440,-69
2021-12-10 13:43:58.192449,-54
2021-12-10 13:43:58.192458,-47
2021-12-10 13:43:58.192466,-61
2021-12-10 13:43:58.192475,-97
2021-12-10 13:43:58.192483,-88
2021-12-10 13:43:58.192492,-45
2021-12-10 13:43:58.192500,-30
2021-12-10 13:43:58.192509,-71
2021-12-10 13:43:58.192517,-116
2021-12-10 13:43:58.192526,-131
2021-12-10 13:43:58.192534,-162
2021-12-10 13:43:58.192542,-190
2021-12-10 13:43:58.192551,-178
2021-12-10 13:43:58.192559,-169
2021-12-10 13:43:58.192567,-176
2021-12-10 13:43:58.192576,-176
2021-12-10 13:43:58.192584,-159
2021-12-10 13:43:58.192592,-162
2021-12-10 13:43:58.192601,-188
2021-12-10 13:43:58.192609,-181
2021-12-10 13:43:58.192617,-166
2021-12-10 13:43:58.192626,-162
2021-12-10 13:43:58.192634,-143
2021-12-10 13:43:58.192643,-133
2021-12-10 13:43:58.192651,-128
2021-12-10 13:43:58.192659,-135
2021-12-10 13:43:58.192668,-174
2021-12-10 13:43:58.192676,-188
2021-12-10 13:43:58.461087,-164
2021-12-10 13:43:58.461106,-150
2021-12-10 13:43:58.461115,-159
2021-12-10 13:43:58.461123,-205
2021-12-10 13:43:58.461132,-240
2021-12-10 13:43:58.461140,-245
2021-12-10 13:43:58.461149,-245
2021-12-10 13:43:58.461157,-233
2021-12-10 13:43:58.461165,-226
2021-12-10 13:43:58.461173,-255
2021-12-10 13:43:58.461182,-271
2021-12-10 13:43:58.461190,-245
2021-12-10 13:43:58.461199,-226
2021-12-10 13:43:58.461207,-228
2021-12-10 13:43:58.461216,-221
2021-12-10 13:43:58.461224,-233
2021-12-10 13:43:58.461232,-233
2021-12-10 13:43:58.461241,-185
2021-12-10 13:43:58.461249,-164
2021-12-10 13:43:58.461257,-169
2021-12-10 13:43:58.461265,-164
2021-12-10 13:43:58.461274,-183
2021-12-10 13:43:58.461282,-190
2021-12-10 13:43:58.461290,-162
2021-12-10 13:43:58.461299,-147
2021-12-10 13:43:58.461307,-133
2021-12-10 13:43:58.461315,-126
2021-12-10 13:43:58.461324,-138
2021-12-10 13:43:58.461332,-123
2021-12-10 13:43:58.461340,-140
2021-12-10 13:43:58.687501,-243
2021-12-10 13:43:58.687521,-214
2021-12-10 13:43:58.687531,214
2021-12-10 13:43:58.687540,982
2021-12-10 13:43:58.687549,1647
2021-12-10 13:43:58.687557,1461
2021-12-10 13:43:58.687565,352
2021-12-10 13:43:58.687574,-414
2021-12-10 13:43:58.687582,-269
2021-12-10 13:43:58.687591,-100
2021-12-10 13:43:58.687599,-207
2021-12-10 13:43:58.687608,-176
2021-12-10 13:43:58.687616,-92
2021-12-10 13:43:58.687624,-109
2021-12-10 13:43:58.687633,-107
2021-12-10 13:43:58.687641,-83
2021-12-10 13:43:58.687650,-88
2021-12-10 13:43:58.687658,-81
2021-12-10 13:43:58.687667,-26
2021-12-10 13:43:58.687675,16
2021-12-10 13:43:58.687684,9
2021-12-10 13:43:58.687692,16
2021-12-10 13:43:58.687700,57
2021-12-10 13:43:58.687709,97
2021-12-10 13:43:58.687717,128
2021-12-10 13:43:58.687726,157
2021-12-10 13:43:58.687734,181
2021-12-10 13:43:58.687743,183
2021-12-10 13:43:58.687751,190
2021-12-10 13:43:58.687759,240
2021-12-10 13:43:58.912172,264
2021-12-10 13:43:58.912193,247
2021-12-10 13:43:58.912202,233
2021-12-10 13:43:58.912211,178
2021-12-10 13:43:58.912220,123
2021-12-10 13:43:58.912228,143
2021-12-10 13:43:58.912237,185
2021-12-10 13:43:58.912245,193
2021-12-10 13:43:58.912253,164
2021-12-10 13:43:58.912262,143
2021-12-10 13:43:58.912270,169
2021-12-10 13:43:58.912278,197
2021-12-10 13:43:58.912287,202
2021-12-10 13:43:58.912295,188
2021-12-10 13:43:58.912304,181
2021-12-10 13:43:58.912312,193
2021-12-10 13:43:58.912320,207
2021-12-10 13:43:58.912329,228
2021-12-10 13:43:58.912337,226
2021-12-10 13:43:58.912345,219
2021-12-10 13:43:58.912353,228
2021-12-10 13:43:58.912362,233
2021-12-10 13:43:58.912370,247
2021-12-10 13:43:58.912378,262
2021-12-10 13:43:58.912386,252
2021-12-10 13:43:58.912394,245
2021-12-10 13:43:58.912403,233
2021-12-10 13:43:58.912411,226
2021-12-10 13:43:58.912419,252
2021-12-10 13:43:58.912427,276
2021-12-10 13:43:59.181536,288
2021-12-10 13:43:59.181557,300
2021-12-10 13:43:59.181566,298
2021-12-10 13:43:59.181575,300
2021-12-10 13:43:59.181583,314
2021-12-10 13:43:59.181592,338
2021-12-10 13:43:59.181600,355
2021-12-10 13:43:59.181608,340
2021-12-10 13:43:59.181664,340
2021-12-10 13:43:59.181673,369
2021-12-10 13:43:59.181682,388
2021-12-10 13:43:59.181691,395
2021-12-10 13:43:59.181699,393
2021-12-10 13:43:59.181707,367
2021-12-10 13:43:59.181716,329
2021-12-10 13:43:59.181724,333
2021-12-10 13:43:59.181732,369
2021-12-10 13:43:59.181741,379
2021-12-10 13:43:59.181749,391
2021-12-10 13:43:59.181758,402
2021-12-10 13:43:59.181766,371
2021-12-10 13:43:59.181774,321
2021-12-10 13:43:59.181783,236
2021-12-10 13:43:59.181791,209
2021-12-10 13:43:59.181799,488
2021-12-10 13:43:59.181808,1144
2021-12-10 13:43:59.181816,1898
2021-12-10 13:43:59.181824,2029
2021-12-10 13:43:59.181833,1144
2021-12-10 13:43:59.181841,176
2021-12-10 13:43:59.362621,76
2021-12-10 13:43:59.362643,340
2021-12-10 13:43:59.362652,324
2021-12-10 13:43:59.362661,269
2021-12-10 13:43:59.362669,355
2021-12-10 13:43:59.362678,379
2021-12-10 13:43:59.362686,343
2021-12-10 13:43:59.362695,340
2021-12-10 13:43:59.362703,345
2021-12-10 13:43:59.362711,314
2021-12-10 13:43:59.362720,281
2021-12-10 13:43:59.362728,305
2021-12-10 13:43:59.362736,331
2021-12-10 13:43:59.362744,298
2021-12-10 13:43:59.362753,293
2021-12-10 13:43:59.362761,336
2021-12-10 13:43:59.362769,352
2021-12-10 13:43:59.362777,367
2021-12-10 13:43:59.362786,386
2021-12-10 13:43:59.362794,391
2021-12-10 13:43:59.362802,405
2021-12-10 13:43:59.362811,407
2021-12-10 13:43:59.362821,393
2021-12-10 13:43:59.362829,379
2021-12-10 13:43:59.362838,343
2021-12-10 13:43:59.362846,305
2021-12-10 13:43:59.362854,295
2021-12-10 13:43:59.362862,300
2021-12-10 13:43:59.362870,317
2021-12-10 13:43:59.362879,329
2021-12-10 13:43:59.632533,324
2021-12-10 13:43:59.632554,314
2021-12-10 13:43:59.632563,314
2021-12-10 13:43:59.632572,312
2021-12-10 13:43:59.632580,298
2021-12-10 13:43:59.632589,290
2021-12-10 13:43:59.632597,276
2021-12-10 13:43:59.632605,255
