Time,ECG
2021-12-10 14:03:36.055238,-71
2021-12-10 14:03:36.055259,-47
2021-12-10 14:03:36.055269,-54
2021-12-10 14:03:36.055278,-83
2021-12-10 14:03:36.055287,-71
2021-12-10 14:03:36.055296,-42
2021-12-10 14:03:36.055305,-38
2021-12-10 14:03:36.055313,-33
2021-12-10 14:03:36.055322,-30
2021-12-10 14:03:36.055331,-66
2021-12-10 14:03:36.055339,-83
2021-12-10 14:03:36.055348,-35
2021-12-10 14:03:36.055357,-2
2021-12-10 14:03:36.055365,-26
2021-12-10 14:03:36.055374,-42
2021-12-10 14:03:36.055382,-52
2021-12-10 14:03:36.055391,-64
2021-12-10 14:03:36.055399,-54
2021-12-10 14:03:36.055408,-57
2021-12-10 14:03:36.055417,-76
2021-12-10 14:03:36.055425,-73
2021-12-10 14:03:36.055434,-42
2021-12-10 14:03:36.055442,-11
2021-12-10 14:03:36.055450,-7
2021-12-10 14:03:36.055459,-9
2021-12-10 14:03:36.055467,-4
2021-12-10 14:03:36.055476,-42
2021-12-10 14:03:36.055485,-97
2021-12-10 14:03:36.055494,-100
2021-12-10 14:03:36.055502,-78
2021-12-10 14:03:36.169525,-64
2021-12-10 14:03:36.169545,-47
2021-12-10 14:03:36.169555,-26
2021-12-10 14:03:36.169564,-19
2021-12-10 14:03:36.169573,-45
2021-12-10 14:03:36.169581,-92
2021-12-10 14:03:36.169591,-128
2021-12-10 14:03:36.169600,-28
2021-12-10 14:03:36.169608,381
2021-12-10 14:03:36.169617,1072
2021-12-10 14:03:36.169625,1554
2021-12-10 14:03:36.169634,1132
2021-12-10 14:03:36.169642,97
2021-12-10 14:03:36.169651,-367
2021-12-10 14:03:36.169659,-171
2021-12-10 14:03:36.169668,-109
2021-12-10 14:03:36.169676,-200
2021-12-10 14:03:36.169686,-166
2021-12-10 14:03:36.169695,-145
2021-12-10 14:03:36.169703,-178
2021-12-10 14:03:36.169712,-164
2021-12-10 14:03:36.169720,-135
2021-12-10 14:03:36.169729,-133
2021-12-10 14:03:36.169737,-116
2021-12-10 14:03:36.169746,-88
2021-12-10 14:03:36.169754,-81
2021-12-10 14:03:36.169762,-81
2021-12-10 14:03:36.169771,-69
2021-12-10 14:03:36.169779,-47
2021-12-10 14:03:36.169789,-28
2021-12-10 14:03:36.305563,-9
2021-12-10 14:03:36.305585,4
2021-12-10 14:03:36.305594,11
2021-12-10 14:03:36.305603,19
2021-12-10 14:03:36.305611,33
2021-12-10 14:03:36.305620,45
2021-12-10 14:03:36.305629,35
2021-12-10 14:03:36.305637,-7
2021-12-10 14:03:36.305646,-45
2021-12-10 14:03:36.305655,-61
2021-12-10 14:03:36.305664,-78
2021-12-10 14:03:36.305672,-85
2021-12-10 14:03:36.305680,-88
2021-12-10 14:03:36.305692,-109
2021-12-10 14:03:36.305700,-121
2021-12-10 14:03:36.305708,-114
2021-12-10 14:03:36.305716,-107
2021-12-10 14:03:36.305724,-102
2021-12-10 14:03:36.305732,-100
2021-12-10 14:03:36.305740,-104
2021-12-10 14:03:36.305747,-104
2021-12-10 14:03:36.305755,-104
2021-12-10 14:03:36.305764,-116
2021-12-10 14:03:36.305771,-116
2021-12-10 14:03:36.305780,-109
2021-12-10 14:03:36.305788,-114
2021-12-10 14:03:36.305796,-104
2021-12-10 14:03:36.305805,-85
2021-12-10 14:03:36.305813,-71
2021-12-10 14:03:36.305824,-64
2021-12-10 14:03:36.530511,-61
2021-12-10 14:03:36.530534,-59
2021-12-10 14:03:36.530543,-42
2021-12-10 14:03:36.530552,-28
2021-12-10 14:03:36.530561,-21
2021-12-10 14:03:36.530569,-11
2021-12-10 14:03:36.530578,-19
2021-12-10 14:03:36.530586,-38
2021-12-10 14:03:36.530594,-33
2021-12-10 14:03:36.530603,-21
2021-12-10 14:03:36.530611,-21
2021-12-10 14:03:36.530620,-21
2021-12-10 14:03:36.530628,-26
2021-12-10 14:03:36.530636,-30
2021-12-10 14:03:36.530645,2
2021-12-10 14:03:36.530653,42
2021-12-10 14:03:36.530661,47
2021-12-10 14:03:36.530673,14
2021-12-10 14:03:36.530682,-21
2021-12-10 14:03:36.530690,-40
2021-12-10 14:03:36.530699,-45
2021-12-10 14:03:36.530707,-42
2021-12-10 14:03:36.530715,-33
2021-12-10 14:03:36.530724,-28
2021-12-10 14:03:36.530732,-42
2021-12-10 14:03:36.530740,-47
2021-12-10 14:03:36.530749,-30
2021-12-10 14:03:36.530757,-23
2021-12-10 14:03:36.530765,-69
2021-12-10 14:03:36.530774,-162
2021-12-10 14:03:36.935135,-121
2021-12-10 14:03:36.935157,290
2021-12-10 14:03:36.935167,1046
2021-12-10 14:03:36.935175,1685
2021-12-10 14:03:36.935184,1444
2021-12-10 14:03:36.935192,352
2021-12-10 14:03:36.935200,-338
2021-12-10 14:03:36.935214,-174
2021-12-10 14:03:36.935222,-11
2021-12-10 14:03:36.935231,-128
2021-12-10 14:03:36.935239,-150
2021-12-10 14:03:36.935248,-116
2021-12-10 14:03:36.935256,-150
2021-12-10 14:03:36.935264,-143
2021-12-10 14:03:36.935273,-97
2021-12-10 14:03:36.935281,-71
2021-12-10 14:03:36.935289,-50
2021-12-10 14:03:36.935298,-38
2021-12-10 14:03:36.935306,-38
2021-12-10 14:03:36.935314,-19
2021-12-10 14:03:36.935323,4
2021-12-10 14:03:36.935331,11
2021-12-10 14:03:36.935340,19
2021-12-10 14:03:36.935348,30
2021-12-10 14:03:36.935357,45
2021-12-10 14:03:36.935365,61
2021-12-10 14:03:36.935374,59
2021-12-10 14:03:36.935382,45
2021-12-10 14:03:36.935391,52
2021-12-10 14:03:36.935400,52
2021-12-10 14:03:37.114792,28
2021-12-10 14:03:37.114816,7
2021-12-10 14:03:37.114826,-14
2021-12-10 14:03:37.114834,-52
2021-12-10 14:03:37.114843,-83
2021-12-10 14:03:37.114851,-102
2021-12-10 14:03:37.114860,-114
2021-12-10 14:03:37.114868,-104
2021-12-10 14:03:37.114877,-100
2021-12-10 14:03:37.114886,-114
2021-12-10 14:03:37.114894,-123
2021-12-10 14:03:37.114902,-123
2021-12-10 14:03:37.114911,-116
2021-12-10 14:03:37.114920,-107
2021-12-10 14:03:37.114928,-95
2021-12-10 14:03:37.114937,-85
2021-12-10 14:03:37.114946,-90
2021-12-10 14:03:37.114954,-95
2021-12-10 14:03:37.114963,-78
2021-12-10 14:03:37.114971,-45
2021-12-10 14:03:37.114980,-21
2021-12-10 14:03:37.114989,-21
2021-12-10 14:03:37.114997,-50
2021-12-10 14:03:37.115006,-85
2021-12-10 14:03:37.115020,-88
2021-12-10 14:03:37.115029,-61
2021-12-10 14:03:37.115038,-52
2021-12-10 14:03:37.115046,-66
2021-12-10 14:03:37.115055,-76
2021-12-10 14:03:37.115063,-73
2021-12-10 14:03:37.205514,-57
2021-12-10 14:03:37.205535,-47
2021-12-10 14:03:37.205545,-50
2021-12-10 14:03:37.205554,-57
2021-12-10 14:03:37.205562,-64
2021-12-10 14:03:37.205571,-66
2021-12-10 14:03:37.205579,-28
2021-12-10 14:03:37.205588,19
2021-12-10 14:03:37.205596,19
2021-12-10 14:03:37.205604,4
2021-12-10 14:03:37.205613,7
2021-12-10 14:03:37.205622,4
2021-12-10 14:03:37.205630,7
2021-12-10 14:03:37.205639,33
2021-12-10 14:03:37.205647,45
2021-12-10 14:03:37.205655,19
2021-12-10 14:03:37.205664,-14
2021-12-10 14:03:37.205672,-16
2021-12-10 14:03:37.205681,-14
2021-12-10 14:03:37.205689,-40
2021-12-10 14:03:37.205697,-119
2021-12-10 14:03:37.205706,-207
2021-12-10 14:03:37.205716,-30
2021-12-10 14:03:37.205724,598
2021-12-10 14:03:37.205733,1435
2021-12-10 14:03:37.205741,1766
2021-12-10 14:03:37.205749,1020
2021-12-10 14:03:37.205758,-50
2021-12-10 14:03:37.205766,-293
2021-12-10 14:03:37.205774,-38
2021-12-10 14:03:37.475489,-54
2021-12-10 14:03:37.475512,-152
2021-12-10 14:03:37.475522,-92
2021-12-10 14:03:37.475531,-92
2021-12-10 14:03:37.475539,-145
2021-12-10 14:03:37.475547,-119
2021-12-10 14:03:37.475556,-92
2021-12-10 14:03:37.475564,-95
2021-12-10 14:03:37.475573,-81
2021-12-10 14:03:37.475581,-90
2021-12-10 14:03:37.475589,-104
2021-12-10 14:03:37.475598,-76
2021-12-10 14:03:37.475606,-40
2021-12-10 14:03:37.475615,-23
2021-12-10 14:03:37.475623,-9
2021-12-10 14:03:37.475631,-11
2021-12-10 14:03:37.475640,0
2021-12-10 14:03:37.475648,45
2021-12-10 14:03:37.475657,69
2021-12-10 14:03:37.475665,66
2021-12-10 14:03:37.475674,66
2021-12-10 14:03:37.475682,54
2021-12-10 14:03:37.475691,35
2021-12-10 14:03:37.475699,33
2021-12-10 14:03:37.475714,28
2021-12-10 14:03:37.475722,14
2021-12-10 14:03:37.475731,-2
2021-12-10 14:03:37.475739,-33
2021-12-10 14:03:37.475748,-81
2021-12-10 14:03:37.475756,-109
2021-12-10 14:03:37.745551,-100
2021-12-10 14:03:37.745574,-104
2021-12-10 14:03:37.745583,-140
2021-12-10 14:03:37.745592,-164
2021-12-10 14:03:37.745601,-154
2021-12-10 14:03:37.745609,-131
2021-12-10 14:03:37.745617,-114
2021-12-10 14:03:37.745626,-100
2021-12-10 14:03:37.745634,-109
2021-12-10 14:03:37.745643,-133
2021-12-10 14:03:37.745652,-131
2021-12-10 14:03:37.745660,-107
2021-12-10 14:03:37.745669,-97
2021-12-10 14:03:37.745677,-92
2021-12-10 14:03:37.745686,-100
2021-12-10 14:03:37.745694,-112
2021-12-10 14:03:37.745703,-100
2021-12-10 14:03:37.745711,-76
2021-12-10 14:03:37.745720,-66
2021-12-10 14:03:37.745728,-73
2021-12-10 14:03:37.745737,-73
2021-12-10 14:03:37.745745,-59
2021-12-10 14:03:37.745753,-38
2021-12-10 14:03:37.745762,-16
2021-12-10 14:03:37.745770,0
2021-12-10 14:03:37.745779,9
2021-12-10 14:03:37.745787,19
2021-12-10 14:03:37.745796,38
2021-12-10 14:03:37.745804,54
2021-12-10 14:03:37.745813,57
2021-12-10 14:03:37.925077,64
2021-12-10 14:03:37.925100,54
2021-12-10 14:03:37.925110,21
2021-12-10 14:03:37.925119,0
2021-12-10 14:03:37.925128,-7
2021-12-10 14:03:37.925136,-11
2021-12-10 14:03:37.925145,-2
2021-12-10 14:03:37.925153,9
2021-12-10 14:03:37.925161,-7
2021-12-10 14:03:37.925170,-28
2021-12-10 14:03:37.925178,-64
2021-12-10 14:03:37.925187,-143
2021-12-10 14:03:37.925195,-78
2021-12-10 14:03:37.925203,360
2021-12-10 14:03:37.925212,1099
2021-12-10 14:03:37.925220,1664
2021-12-10 14:03:37.925229,1316
2021-12-10 14:03:37.925237,228
2021-12-10 14:03:37.925245,-329
2021-12-10 14:03:37.925254,-126
2021-12-10 14:03:37.925262,-38
2021-12-10 14:03:37.925271,-147
2021-12-10 14:03:37.925279,-109
2021-12-10 14:03:37.925287,-52
2021-12-10 14:03:37.925296,-78
2021-12-10 14:03:37.925304,-78
2021-12-10 14:03:37.925312,-52
2021-12-10 14:03:37.925321,-38
2021-12-10 14:03:37.925329,-14
2021-12-10 14:03:37.925338,4
2021-12-10 14:03:38.150613,14
2021-12-10 14:03:38.150636,30
2021-12-10 14:03:38.150646,33
2021-12-10 14:03:38.150655,7
2021-12-10 14:03:38.150663,-7
2021-12-10 14:03:38.150672,9
2021-12-10 14:03:38.150680,4
2021-12-10 14:03:38.150689,-35
2021-12-10 14:03:38.150698,-42
2021-12-10 14:03:38.150706,-14
2021-12-10 14:03:38.150719,2
2021-12-10 14:03:38.150727,4
2021-12-10 14:03:38.150736,0
2021-12-10 14:03:38.150744,-28
2021-12-10 14:03:38.150753,-61
2021-12-10 14:03:38.150761,-64
2021-12-10 14:03:38.150770,-59
2021-12-10 14:03:38.150778,-61
2021-12-10 14:03:38.150786,-54
2021-12-10 14:03:38.150795,-42
2021-12-10 14:03:38.150804,-66
2021-12-10 14:03:38.150812,-90
2021-12-10 14:03:38.150820,-50
2021-12-10 14:03:38.150829,-9
2021-12-10 14:03:38.150837,-81
2021-12-10 14:03:38.150845,-174
2021-12-10 14:03:38.150854,-164
2021-12-10 14:03:38.150862,-119
2021-12-10 14:03:38.150870,-114
2021-12-10 14:03:38.150878,-116
2021-12-10 14:03:38.420518,-107
2021-12-10 14:03:38.420539,-107
2021-12-10 14:03:38.420549,-114
2021-12-10 14:03:38.420558,-114
2021-12-10 14:03:38.420567,-107
2021-12-10 14:03:38.420575,-97
2021-12-10 14:03:38.420584,-109
2021-12-10 14:03:38.420592,-135
2021-12-10 14:03:38.420601,-152
2021-12-10 14:03:38.420609,-169
2021-12-10 14:03:38.420618,-162
2021-12-10 14:03:38.420626,-140
2021-12-10 14:03:38.420634,-145
2021-12-10 14:03:38.420643,-152
2021-12-10 14:03:38.420651,-131
2021-12-10 14:03:38.420660,-104
2021-12-10 14:03:38.420668,-78
2021-12-10 14:03:38.420676,-66
2021-12-10 14:03:38.420685,-71
2021-12-10 14:03:38.420693,-97
2021-12-10 14:03:38.420702,-126
2021-12-10 14:03:38.420710,-100
2021-12-10 14:03:38.420719,-42
2021-12-10 14:03:38.420727,-47
2021-12-10 14:03:38.420736,-83
2021-12-10 14:03:38.420747,-66
2021-12-10 14:03:38.420756,-57
2021-12-10 14:03:38.420764,-78
2021-12-10 14:03:38.420772,-69
2021-12-10 14:03:38.420781,-104
2021-12-10 14:03:38.689882,-200
2021-12-10 14:03:38.689904,-112
2021-12-10 14:03:38.689914,333
2021-12-10 14:03:38.689922,1034
2021-12-10 14:03:38.689931,1549
2021-12-10 14:03:38.689940,1170
2021-12-10 14:03:38.689948,116
2021-12-10 14:03:38.689957,-352
2021-12-10 14:03:38.689965,-123
2021-12-10 14:03:38.689974,-95
2021-12-10 14:03:38.689982,-247
2021-12-10 14:03:38.689990,-197
2021-12-10 14:03:38.689999,-128
2021-12-10 14:03:38.690007,-171
2021-12-10 14:03:38.690015,-181
2021-12-10 14:03:38.690024,-140
2021-12-10 14:03:38.690032,-138
2021-12-10 14:03:38.690040,-138
2021-12-10 14:03:38.690049,-114
2021-12-10 14:03:38.690057,-95
2021-12-10 14:03:38.690065,-85
2021-12-10 14:03:38.690073,-69
2021-12-10 14:03:38.690082,-45
2021-12-10 14:03:38.690090,-30
2021-12-10 14:03:38.690099,-21
2021-12-10 14:03:38.690107,0
2021-12-10 14:03:38.690115,21
2021-12-10 14:03:38.690124,26
2021-12-10 14:03:38.690132,38
2021-12-10 14:03:38.690140,52
2021-12-10 14:03:38.825107,57
2021-12-10 14:03:38.825130,54
2021-12-10 14:03:38.825139,30
2021-12-10 14:03:38.825148,7
2021-12-10 14:03:38.825157,14
2021-12-10 14:03:38.825165,4
2021-12-10 14:03:38.825174,-26
2021-12-10 14:03:38.825182,-19
2021-12-10 14:03:38.825190,-11
2021-12-10 14:03:38.825199,-23
2021-12-10 14:03:38.825207,-35
2021-12-10 14:03:38.825215,-73
2021-12-10 14:03:38.825224,-102
2021-12-10 14:03:38.825232,-85
2021-12-10 14:03:38.825240,-83
2021-12-10 14:03:38.825249,-109
2021-12-10 14:03:38.825262,-100
2021-12-10 14:03:38.825271,-83
2021-12-10 14:03:38.825280,-81
2021-12-10 14:03:38.825288,-64
2021-12-10 14:03:38.825296,-42
2021-12-10 14:03:38.825305,-47
2021-12-10 14:03:38.825313,-81
2021-12-10 14:03:38.825322,-112
2021-12-10 14:03:38.825330,-109
2021-12-10 14:03:38.825338,-100
2021-12-10 14:03:38.825347,-97
2021-12-10 14:03:38.825355,-95
2021-12-10 14:03:38.825364,-104
2021-12-10 14:03:38.825372,-107
2021-12-10 14:03:39.094108,-81
2021-12-10 14:03:39.094130,-64
2021-12-10 14:03:39.094139,-69
2021-12-10 14:03:39.094148,-66
2021-12-10 14:03:39.094156,-73
2021-12-10 14:03:39.094164,-73
2021-12-10 14:03:39.094172,-26
2021-12-10 14:03:39.094179,11
2021-12-10 14:03:39.094187,-9
2021-12-10 14:03:39.094195,-30
2021-12-10 14:03:39.094202,-59
2021-12-10 14:03:39.094210,-100
2021-12-10 14:03:39.094217,-88
2021-12-10 14:03:39.094226,-42
2021-12-10 14:03:39.094234,-64
2021-12-10 14:03:39.094242,-140
2021-12-10 14:03:39.094250,-159
2021-12-10 14:03:39.094258,-114
2021-12-10 14:03:39.094266,-95
2021-12-10 14:03:39.094274,-109
2021-12-10 14:03:39.094282,-154
2021-12-10 14:03:39.094290,-185
2021-12-10 14:03:39.094298,23
2021-12-10 14:03:39.094306,593
2021-12-10 14:03:39.094314,1254
2021-12-10 14:03:39.094322,1337
2021-12-10 14:03:39.094330,553
2021-12-10 14:03:39.094338,-226
2021-12-10 14:03:39.094345,-228
2021-12-10 14:03:39.094353,-4
2021-12-10 14:03:39.319993,-47
2021-12-10 14:03:39.320013,-83
2021-12-10 14:03:39.320023,-28
2021-12-10 14:03:39.320032,-50
2021-12-10 14:03:39.320041,-95
2021-12-10 14:03:39.320049,-66
2021-12-10 14:03:39.320057,-23
2021-12-10 14:03:39.320066,-9
2021-12-10 14:03:39.320075,0
2021-12-10 14:03:39.320083,-7
2021-12-10 14:03:39.320091,-23
2021-12-10 14:03:39.320100,-9
2021-12-10 14:03:39.320108,23
2021-12-10 14:03:39.320120,40
2021-12-10 14:03:39.320129,42
2021-12-10 14:03:39.320137,47
2021-12-10 14:03:39.320145,52
2021-12-10 14:03:39.320154,57
2021-12-10 14:03:39.320162,73
2021-12-10 14:03:39.320170,88
2021-12-10 14:03:39.320179,78
2021-12-10 14:03:39.320187,59
2021-12-10 14:03:39.320195,54
2021-12-10 14:03:39.320204,61
2021-12-10 14:03:39.320212,69
2021-12-10 14:03:39.320220,66
2021-12-10 14:03:39.320229,54
2021-12-10 14:03:39.320237,40
2021-12-10 14:03:39.320245,28
2021-12-10 14:03:39.320253,26
2021-12-10 14:03:39.545464,23
2021-12-10 14:03:39.545487,26
2021-12-10 14:03:39.545497,14
2021-12-10 14:03:39.545506,-19
2021-12-10 14:03:39.545514,-21
2021-12-10 14:03:39.545523,4
2021-12-10 14:03:39.545531,7
2021-12-10 14:03:39.545540,4
2021-12-10 14:03:39.545548,2
2021-12-10 14:03:39.545556,-21
2021-12-10 14:03:39.545565,-23
2021-12-10 14:03:39.545573,-9
2021-12-10 14:03:39.545582,-9
2021-12-10 14:03:39.545590,-7
2021-12-10 14:03:39.545599,-16
2021-12-10 14:03:39.545607,-54
2021-12-10 14:03:39.545616,-57
2021-12-10 14:03:39.545624,-26
2021-12-10 14:03:39.545632,-35
2021-12-10 14:03:39.545641,-76
2021-12-10 14:03:39.545649,-114
2021-12-10 14:03:39.545658,-157
2021-12-10 14:03:39.545666,-159
2021-12-10 14:03:39.545674,-123
2021-12-10 14:03:39.545683,-107
2021-12-10 14:03:39.545691,-109
2021-12-10 14:03:39.545699,-97
2021-12-10 14:03:39.545708,-97
2021-12-10 14:03:39.545716,-114
2021-12-10 14:03:39.545725,-112
2021-12-10 14:03:39.770061,-97
2021-12-10 14:03:39.770083,-107
2021-12-10 14:03:39.770092,-121
2021-12-10 14:03:39.770101,-114
2021-12-10 14:03:39.770109,-100
2021-12-10 14:03:39.770117,-88
2021-12-10 14:03:39.770125,-76
2021-12-10 14:03:39.770134,-81
2021-12-10 14:03:39.770142,-112
2021-12-10 14:03:39.770150,-164
2021-12-10 14:03:39.770159,-245
2021-12-10 14:03:39.770167,-243
2021-12-10 14:03:39.770175,97
2021-12-10 14:03:39.770184,834
2021-12-10 14:03:39.770192,1578
2021-12-10 14:03:39.770200,1521
2021-12-10 14:03:39.770209,486
2021-12-10 14:03:39.770220,-340
2021-12-10 14:03:39.770228,-274
2021-12-10 14:03:39.770236,-71
2021-12-10 14:03:39.770245,-169
2021-12-10 14:03:39.770253,-226
2021-12-10 14:03:39.770262,-154
2021-12-10 14:03:39.770270,-131
2021-12-10 14:03:39.770279,-133
2021-12-10 14:03:39.770287,-109
2021-12-10 14:03:39.770296,-104
2021-12-10 14:03:39.770304,-107
2021-12-10 14:03:39.770312,-81
2021-12-10 14:03:39.770321,-47
2021-12-10 14:03:39.995516,-33
2021-12-10 14:03:39.995538,-23
2021-12-10 14:03:39.995548,-14
2021-12-10 14:03:39.995557,0
2021-12-10 14:03:39.995566,26
2021-12-10 14:03:39.995574,54
2021-12-10 14:03:39.995583,69
2021-12-10 14:03:39.995591,59
2021-12-10 14:03:39.995600,38
2021-12-10 14:03:39.995608,35
2021-12-10 14:03:39.995616,42
2021-12-10 14:03:39.995625,35
2021-12-10 14:03:39.995633,21
2021-12-10 14:03:39.995642,-4
2021-12-10 14:03:39.995650,-38
2021-12-10 14:03:39.995658,-45
2021-12-10 14:03:39.995667,-35
2021-12-10 14:03:39.995675,-38
2021-12-10 14:03:39.995684,-42
2021-12-10 14:03:39.995692,-47
2021-12-10 14:03:39.995701,-54
2021-12-10 14:03:39.995709,-66
2021-12-10 14:03:39.995718,-88
2021-12-10 14:03:39.995726,-112
2021-12-10 14:03:39.995734,-107
2021-12-10 14:03:39.995743,-116
2021-12-10 14:03:39.995751,-157
2021-12-10 14:03:39.995759,-159
2021-12-10 14:03:39.995768,-126
2021-12-10 14:03:39.995776,-109
2021-12-10 14:03:40.220460,-109
2021-12-10 14:03:40.220481,-107
2021-12-10 14:03:40.220491,-102
2021-12-10 14:03:40.220499,-97
2021-12-10 14:03:40.220508,-83
2021-12-10 14:03:40.220516,-66
2021-12-10 14:03:40.220525,-81
2021-12-10 14:03:40.220533,-104
2021-12-10 14:03:40.220542,-104
2021-12-10 14:03:40.220550,-92
2021-12-10 14:03:40.220558,-81
2021-12-10 14:03:40.220567,-66
2021-12-10 14:03:40.220575,-88
2021-12-10 14:03:40.220584,-114
2021-12-10 14:03:40.220592,-100
2021-12-10 14:03:40.220600,-73
2021-12-10 14:03:40.220609,-71
2021-12-10 14:03:40.220617,-76
2021-12-10 14:03:40.220625,-78
2021-12-10 14:03:40.220633,-81
2021-12-10 14:03:40.220642,-95
2021-12-10 14:03:40.220650,-109
2021-12-10 14:03:40.220658,-104
2021-12-10 14:03:40.220666,-95
2021-12-10 14:03:40.220674,-102
2021-12-10 14:03:40.220683,-121
2021-12-10 14:03:40.220691,-123
2021-12-10 14:03:40.220699,-107
2021-12-10 14:03:40.220707,-121
2021-12-10 14:03:40.220719,-224
2021-12-10 14:03:40.490539,-267
2021-12-10 14:03:40.490562,35
2021-12-10 14:03:40.490571,748
2021-12-10 14:03:40.490580,1523
2021-12-10 14:03:40.490589,1580
2021-12-10 14:03:40.490597,619
2021-12-10 14:03:40.490605,-298
2021-12-10 14:03:40.490614,-312
2021-12-10 14:03:40.490623,-66
2021-12-10 14:03:40.490631,-147
2021-12-10 14:03:40.490640,-219
2021-12-10 14:03:40.490648,-150
2021-12-10 14:03:40.490657,-157
2021-12-10 14:03:40.490665,-185
2021-12-10 14:03:40.490673,-147
2021-12-10 14:03:40.490682,-107
2021-12-10 14:03:40.490690,-92
2021-12-10 14:03:40.490698,-83
2021-12-10 14:03:40.490707,-69
2021-12-10 14:03:40.490715,-38
2021-12-10 14:03:40.490724,-9
2021-12-10 14:03:40.490732,-4
2021-12-10 14:03:40.490741,7
2021-12-10 14:03:40.490749,33
2021-12-10 14:03:40.490757,54
2021-12-10 14:03:40.490766,71
2021-12-10 14:03:40.490774,78
2021-12-10 14:03:40.490782,76
2021-12-10 14:03:40.490791,69
2021-12-10 14:03:40.490799,54
2021-12-10 14:03:40.715101,21
2021-12-10 14:03:40.715124,-42
2021-12-10 14:03:40.715134,-73
2021-12-10 14:03:40.715143,-30
2021-12-10 14:03:40.715151,-2
2021-12-10 14:03:40.715160,-38
2021-12-10 14:03:40.715168,-50
2021-12-10 14:03:40.715177,-35
2021-12-10 14:03:40.715185,-38
2021-12-10 14:03:40.715194,-54
2021-12-10 14:03:40.715202,-66
2021-12-10 14:03:40.715211,-76
2021-12-10 14:03:40.715219,-71
2021-12-10 14:03:40.715227,-64
2021-12-10 14:03:40.715236,-73
2021-12-10 14:03:40.715244,-73
2021-12-10 14:03:40.715253,-69
2021-12-10 14:03:40.715261,-85
2021-12-10 14:03:40.715269,-81
2021-12-10 14:03:40.715278,-57
2021-12-10 14:03:40.715286,-50
2021-12-10 14:03:40.715294,-59
2021-12-10 14:03:40.715303,-71
2021-12-10 14:03:40.715311,-71
2021-12-10 14:03:40.715319,-52
2021-12-10 14:03:40.715328,-33
2021-12-10 14:03:40.715340,-21
2021-12-10 14:03:40.715348,-19
2021-12-10 14:03:40.715355,-21
2021-12-10 14:03:40.715362,-30
2021-12-10 14:03:40.895503,-35
2021-12-10 14:03:40.895527,-16
2021-12-10 14:03:40.895536,-7
2021-12-10 14:03:40.895545,-42
2021-12-10 14:03:40.895554,-73
2021-12-10 14:03:40.895562,-64
2021-12-10 14:03:40.895570,-61
2021-12-10 14:03:40.895579,-64
2021-12-10 14:03:40.895587,-40
2021-12-10 14:03:40.895596,-40
2021-12-10 14:03:40.895604,-73
2021-12-10 14:03:40.895612,-95
2021-12-10 14:03:40.895621,-97
2021-12-10 14:03:40.895629,-97
2021-12-10 14:03:40.895637,-102
2021-12-10 14:03:40.895646,-116
2021-12-10 14:03:40.895654,-133
2021-12-10 14:03:40.895662,-123
2021-12-10 14:03:40.895671,-100
2021-12-10 14:03:40.895679,-85
2021-12-10 14:03:40.895692,-92
2021-12-10 14:03:40.895701,-178
2021-12-10 14:03:40.895709,-288
2021-12-10 14:03:40.895718,-119
2021-12-10 14:03:40.895726,486
2021-12-10 14:03:40.895734,1309
2021-12-10 14:03:40.895743,1690
2021-12-10 14:03:40.895751,1018
2021-12-10 14:03:40.895759,-76
2021-12-10 14:03:40.895768,-371
2021-12-10 14:03:41.208659,-83
2021-12-10 14:03:41.208673,-88
2021-12-10 14:03:41.208678,-243
2021-12-10 14:03:41.208683,-202
2021-12-10 14:03:41.208687,-169
2021-12-10 14:03:41.208691,-202
2021-12-10 14:03:41.208696,-190
2021-12-10 14:03:41.208700,-178
2021-12-10 14:03:41.208704,-188
2021-12-10 14:03:41.208708,-200
2021-12-10 14:03:41.208713,-197
2021-12-10 14:03:41.208717,-154
2021-12-10 14:03:41.208721,-119
2021-12-10 14:03:41.208725,-109
2021-12-10 14:03:41.208730,-83
2021-12-10 14:03:41.208734,-57
2021-12-10 14:03:41.208738,-38
2021-12-10 14:03:41.208743,-4
2021-12-10 14:03:41.208747,33
2021-12-10 14:03:41.208751,52
2021-12-10 14:03:41.208755,59
2021-12-10 14:03:41.208760,45
2021-12-10 14:03:41.208764,16
2021-12-10 14:03:41.208768,-4
2021-12-10 14:03:41.208773,16
2021-12-10 14:03:41.208777,57
2021-12-10 14:03:41.208782,50
2021-12-10 14:03:41.208786,11
2021-12-10 14:03:41.208790,19
2021-12-10 14:03:41.208794,38
2021-12-10 14:03:41.390508,40
2021-12-10 14:03:41.390531,50
2021-12-10 14:03:41.390541,45
2021-12-10 14:03:41.390549,-30
2021-12-10 14:03:41.390558,-112
2021-12-10 14:03:41.390566,-71
2021-12-10 14:03:41.390575,-11
2021-12-10 14:03:41.390583,-26
2021-12-10 14:03:41.390592,-42
2021-12-10 14:03:41.390600,-52
2021-12-10 14:03:41.390609,-73
2021-12-10 14:03:41.390617,-61
2021-12-10 14:03:41.390625,-23
2021-12-10 14:03:41.390634,-4
2021-12-10 14:03:41.390642,-23
2021-12-10 14:03:41.390651,-61
2021-12-10 14:03:41.390659,-76
2021-12-10 14:03:41.390668,-45
2021-12-10 14:03:41.390676,-11
2021-12-10 14:03:41.390684,-11
2021-12-10 14:03:41.390693,-33
2021-12-10 14:03:41.390701,-78
2021-12-10 14:03:41.390709,-119
2021-12-10 14:03:41.390718,-102
2021-12-10 14:03:41.390726,-90
2021-12-10 14:03:41.390734,-112
2021-12-10 14:03:41.390743,-121
2021-12-10 14:03:41.390751,-109
2021-12-10 14:03:41.390759,-66
2021-12-10 14:03:41.390768,-21
2021-12-10 14:03:41.660498,-23
2021-12-10 14:03:41.660520,-16
2021-12-10 14:03:41.660531,9
2021-12-10 14:03:41.660540,-7
2021-12-10 14:03:41.660550,-26
2021-12-10 14:03:41.660559,-14
2021-12-10 14:03:41.660568,-14
2021-12-10 14:03:41.660577,-23
2021-12-10 14:03:41.660586,-47
2021-12-10 14:03:41.660595,-78
2021-12-10 14:03:41.660604,-71
2021-12-10 14:03:41.660613,-50
2021-12-10 14:03:41.660622,-59
2021-12-10 14:03:41.660631,-109
2021-12-10 14:03:41.660640,-154
2021-12-10 14:03:41.660648,-154
2021-12-10 14:03:41.660657,-128
2021-12-10 14:03:41.660666,-138
2021-12-10 14:03:41.660675,-214
2021-12-10 14:03:41.660684,-274
2021-12-10 14:03:41.660693,-109
2021-12-10 14:03:41.660702,438
2021-12-10 14:03:41.660714,1239
2021-12-10 14:03:41.660723,1676
2021-12-10 14:03:41.660732,1084
2021-12-10 14:03:41.660741,14
2021-12-10 14:03:41.660750,-348
2021-12-10 14:03:41.660759,-131
2021-12-10 14:03:41.660767,-97
2021-12-10 14:03:41.660776,-162
2021-12-10 14:03:41.929535,-109
2021-12-10 14:03:41.929559,-90
2021-12-10 14:03:41.929568,-119
2021-12-10 14:03:41.929577,-97
2021-12-10 14:03:41.929586,-40
2021-12-10 14:03:41.929594,-11
2021-12-10 14:03:41.929603,-30
2021-12-10 14:03:41.929611,-57
2021-12-10 14:03:41.929620,-59
2021-12-10 14:03:41.929628,-57
2021-12-10 14:03:41.929636,-26
2021-12-10 14:03:41.929645,-2
2021-12-10 14:03:41.929653,-4
2021-12-10 14:03:41.929662,14
2021-12-10 14:03:41.929670,38
2021-12-10 14:03:41.929678,45
2021-12-10 14:03:41.929687,61
2021-12-10 14:03:41.929695,81
2021-12-10 14:03:41.929704,78
2021-12-10 14:03:41.929712,59
2021-12-10 14:03:41.929720,45
2021-12-10 14:03:41.929729,35
2021-12-10 14:03:41.929737,28
2021-12-10 14:03:41.929746,7
2021-12-10 14:03:41.929754,-19
2021-12-10 14:03:41.929763,-19
2021-12-10 14:03:41.929771,-11
2021-12-10 14:03:41.929779,-7
2021-12-10 14:03:41.929788,-11
2021-12-10 14:03:41.929796,-33
2021-12-10 14:03:42.065412,-38
2021-12-10 14:03:42.065433,-9
2021-12-10 14:03:42.065443,-7
2021-12-10 14:03:42.065451,-50
2021-12-10 14:03:42.065460,-45
2021-12-10 14:03:42.065469,-11
2021-12-10 14:03:42.065477,-33
2021-12-10 14:03:42.065485,-61
2021-12-10 14:03:42.065494,-40
2021-12-10 14:03:42.065502,-33
2021-12-10 14:03:42.065510,-59
2021-12-10 14:03:42.065519,-54
2021-12-10 14:03:42.065527,-61
2021-12-10 14:03:42.065536,-102
2021-12-10 14:03:42.065544,-112
2021-12-10 14:03:42.065552,-92
2021-12-10 14:03:42.065561,-97
2021-12-10 14:03:42.065569,-112
2021-12-10 14:03:42.065578,-140
2021-12-10 14:03:42.065586,-171
2021-12-10 14:03:42.065594,-159
2021-12-10 14:03:42.065602,-126
2021-12-10 14:03:42.065611,-121
2021-12-10 14:03:42.065619,-138
2021-12-10 14:03:42.065627,-140
2021-12-10 14:03:42.065636,-121
2021-12-10 14:03:42.065644,-109
2021-12-10 14:03:42.065652,-107
2021-12-10 14:03:42.065660,-90
2021-12-10 14:03:42.065669,-69
2021-12-10 14:03:42.290536,-78
2021-12-10 14:03:42.290559,-83
2021-12-10 14:03:42.290568,-59
2021-12-10 14:03:42.290577,-47
2021-12-10 14:03:42.290586,-54
2021-12-10 14:03:42.290594,-47
2021-12-10 14:03:42.290602,-47
2021-12-10 14:03:42.290611,-38
2021-12-10 14:03:42.290619,-2
2021-12-10 14:03:42.290627,2
2021-12-10 14:03:42.290635,-11
2021-12-10 14:03:42.290644,-28
2021-12-10 14:03:42.290652,-71
2021-12-10 14:03:42.290660,-92
2021-12-10 14:03:42.290668,-73
2021-12-10 14:03:42.290677,-85
2021-12-10 14:03:42.290685,-102
2021-12-10 14:03:42.290693,-83
2021-12-10 14:03:42.290702,-71
2021-12-10 14:03:42.290710,-66
2021-12-10 14:03:42.290718,-54
2021-12-10 14:03:42.290727,-97
2021-12-10 14:03:42.290735,-190
2021-12-10 14:03:42.290743,-143
2021-12-10 14:03:42.290751,264
2021-12-10 14:03:42.290759,1006
2021-12-10 14:03:42.290768,1635
2021-12-10 14:03:42.290776,1385
2021-12-10 14:03:42.290784,326
2021-12-10 14:03:42.290792,-302
2021-12-10 14:03:42.515501,-131
2021-12-10 14:03:42.515524,0
2021-12-10 14:03:42.515534,-112
2021-12-10 14:03:42.515542,-112
2021-12-10 14:03:42.515551,-66
2021-12-10 14:03:42.515562,-102
2021-12-10 14:03:42.515571,-119
2021-12-10 14:03:42.515580,-81
2021-12-10 14:03:42.515588,-64
2021-12-10 14:03:42.515596,-64
2021-12-10 14:03:42.515605,-54
2021-12-10 14:03:42.515613,-54
2021-12-10 14:03:42.515622,-54
2021-12-10 14:03:42.515630,-57
2021-12-10 14:03:42.515639,-73
2021-12-10 14:03:42.515647,-81
2021-12-10 14:03:42.515656,-66
2021-12-10 14:03:42.515664,-57
2021-12-10 14:03:42.515672,-47
2021-12-10 14:03:42.515681,-33
2021-12-10 14:03:42.515689,-21
2021-12-10 14:03:42.515697,-14
2021-12-10 14:03:42.515706,-16
2021-12-10 14:03:42.515714,-28
2021-12-10 14:03:42.515722,-61
2021-12-10 14:03:42.515731,-88
2021-12-10 14:03:42.515739,-76
2021-12-10 14:03:42.515747,-66
2021-12-10 14:03:42.515755,-78
2021-12-10 14:03:42.515764,-69
2021-12-10 14:03:42.740160,-50
2021-12-10 14:03:42.740180,-47
2021-12-10 14:03:42.740190,-45
2021-12-10 14:03:42.740198,-61
2021-12-10 14:03:42.740207,-107
2021-12-10 14:03:42.740216,-133
2021-12-10 14:03:42.740224,-121
2021-12-10 14:03:42.740233,-104
2021-12-10 14:03:42.740241,-100
2021-12-10 14:03:42.740249,-104
2021-12-10 14:03:42.740258,-123
2021-12-10 14:03:42.740267,-135
2021-12-10 14:03:42.740275,-116
2021-12-10 14:03:42.740283,-95
2021-12-10 14:03:42.740292,-104
2021-12-10 14:03:42.740300,-128
2021-12-10 14:03:42.740309,-143
2021-12-10 14:03:42.740317,-135
2021-12-10 14:03:42.740326,-116
2021-12-10 14:03:42.740334,-107
2021-12-10 14:03:42.740343,-102
2021-12-10 14:03:42.740351,-97
2021-12-10 14:03:42.740359,-95
2021-12-10 14:03:42.740368,-88
2021-12-10 14:03:42.740376,-71
2021-12-10 14:03:42.740385,-59
2021-12-10 14:03:42.740393,-59
2021-12-10 14:03:42.740401,-64
2021-12-10 14:03:42.740409,-64
2021-12-10 14:03:42.740418,-50
2021-12-10 14:03:42.965516,-28
2021-12-10 14:03:42.965538,-19
2021-12-10 14:03:42.965549,-19
2021-12-10 14:03:42.965557,-35
2021-12-10 14:03:42.965566,-52
2021-12-10 14:03:42.965575,-45
2021-12-10 14:03:42.965583,-23
2021-12-10 14:03:42.965592,-9
2021-12-10 14:03:42.965600,-9
2021-12-10 14:03:42.965609,-26
2021-12-10 14:03:42.965617,-42
2021-12-10 14:03:42.965626,-9
2021-12-10 14:03:42.965634,35
2021-12-10 14:03:42.965643,30
2021-12-10 14:03:42.965651,26
2021-12-10 14:03:42.965660,30
2021-12-10 14:03:42.965668,0
2021-12-10 14:03:42.965677,-33
2021-12-10 14:03:42.965685,-33
2021-12-10 14:03:42.965694,-21
2021-12-10 14:03:42.965702,-21
2021-12-10 14:03:42.965710,-30
2021-12-10 14:03:42.965719,-28
2021-12-10 14:03:42.965727,-9
2021-12-10 14:03:42.965735,-7
2021-12-10 14:03:42.965744,-59
2021-12-10 14:03:42.965752,-135
2021-12-10 14:03:42.965760,-38
2021-12-10 14:03:42.965769,429
2021-12-10 14:03:42.965777,1163
2021-12-10 14:03:43.279663,1592
2021-12-10 14:03:43.279682,1056
2021-12-10 14:03:43.279692,2
2021-12-10 14:03:43.279701,-391
2021-12-10 14:03:43.279710,-169
2021-12-10 14:03:43.279718,-114
2021-12-10 14:03:43.279727,-202
2021-12-10 14:03:43.279735,-157
2021-12-10 14:03:43.279744,-131
2021-12-10 14:03:43.279752,-178
2021-12-10 14:03:43.279760,-174
2021-12-10 14:03:43.279769,-126
2021-12-10 14:03:43.279777,-109
2021-12-10 14:03:43.279785,-95
2021-12-10 14:03:43.279794,-81
2021-12-10 14:03:43.279802,-81
2021-12-10 14:03:43.279810,-69
2021-12-10 14:03:43.279819,-35
2021-12-10 14:03:43.279827,-19
2021-12-10 14:03:43.279835,-21
2021-12-10 14:03:43.279843,-28
2021-12-10 14:03:43.279852,-28
2021-12-10 14:03:43.279860,-14
2021-12-10 14:03:43.279868,-9
2021-12-10 14:03:43.279877,-14
2021-12-10 14:03:43.279885,-19
2021-12-10 14:03:43.279893,-47
2021-12-10 14:03:43.279902,-83
2021-12-10 14:03:43.279910,-88
2021-12-10 14:03:43.279918,-83
2021-12-10 14:03:43.460621,-85
2021-12-10 14:03:43.460648,-81
2021-12-10 14:03:43.460658,-83
2021-12-10 14:03:43.460667,-95
2021-12-10 14:03:43.460675,-85
2021-12-10 14:03:43.460684,-61
2021-12-10 14:03:43.460692,-52
2021-12-10 14:03:43.460701,-57
2021-12-10 14:03:43.460709,-83
2021-12-10 14:03:43.460718,-104
2021-12-10 14:03:43.460726,-85
2021-12-10 14:03:43.460735,-59
2021-12-10 14:03:43.460743,-57
2021-12-10 14:03:43.460751,-59
2021-12-10 14:03:43.460760,-73
2021-12-10 14:03:43.460768,-85
2021-12-10 14:03:43.460777,-69
2021-12-10 14:03:43.460785,-50
2021-12-10 14:03:43.460794,-45
2021-12-10 14:03:43.460802,-45
2021-12-10 14:03:43.460811,-61
2021-12-10 14:03:43.460819,-90
2021-12-10 14:03:43.460827,-95
2021-12-10 14:03:43.460835,-71
2021-12-10 14:03:43.460844,-54
2021-12-10 14:03:43.460852,-57
2021-12-10 14:03:43.460861,-61
2021-12-10 14:03:43.460869,-57
2021-12-10 14:03:43.460878,-40
2021-12-10 14:03:43.460886,-28
2021-12-10 14:03:43.685611,-19
2021-12-10 14:03:43.685633,-16
2021-12-10 14:03:43.685643,-19
2021-12-10 14:03:43.685652,-19
2021-12-10 14:03:43.685660,-9
2021-12-10 14:03:43.685669,2
2021-12-10 14:03:43.685677,-11
2021-12-10 14:03:43.685685,-61
2021-12-10 14:03:43.685694,-97
2021-12-10 14:03:43.685702,-76
2021-12-10 14:03:43.685711,-52
2021-12-10 14:03:43.685719,-47
2021-12-10 14:03:43.685727,-38
2021-12-10 14:03:43.685736,-40
2021-12-10 14:03:43.685744,-42
2021-12-10 14:03:43.685752,-11
2021-12-10 14:03:43.685761,7
2021-12-10 14:03:43.685769,0
2021-12-10 14:03:43.685778,7
2021-12-10 14:03:43.685786,2
2021-12-10 14:03:43.685794,-21
2021-12-10 14:03:43.685803,-28
2021-12-10 14:03:43.685811,-38
2021-12-10 14:03:43.685819,-61
2021-12-10 14:03:43.685828,-78
2021-12-10 14:03:43.685836,-71
2021-12-10 14:03:43.685845,-64
2021-12-10 14:03:43.685853,-69
2021-12-10 14:03:43.685862,-102
2021-12-10 14:03:43.685870,-176
2021-12-10 14:03:43.955109,-154
2021-12-10 14:03:43.955130,202
2021-12-10 14:03:43.955140,908
2021-12-10 14:03:43.955148,1549
2021-12-10 14:03:43.955157,1380
2021-12-10 14:03:43.955165,379
2021-12-10 14:03:43.955174,-300
2021-12-10 14:03:43.955182,-188
2021-12-10 14:03:43.955191,-50
2021-12-10 14:03:43.955199,-147
2021-12-10 14:03:43.955208,-147
2021-12-10 14:03:43.955216,-81
2021-12-10 14:03:43.955225,-121
2021-12-10 14:03:43.955233,-164
2021-12-10 14:03:43.955241,-135
2021-12-10 14:03:43.955250,-123
2021-12-10 14:03:43.955258,-131
2021-12-10 14:03:43.955267,-107
2021-12-10 14:03:43.955275,-92
2021-12-10 14:03:43.955284,-97
2021-12-10 14:03:43.955292,-85
2021-12-10 14:03:43.955300,-69
2021-12-10 14:03:43.955308,-50
2021-12-10 14:03:43.955317,-21
2021-12-10 14:03:43.955325,7
2021-12-10 14:03:43.955333,9
2021-12-10 14:03:43.955342,-4
2021-12-10 14:03:43.955350,0
2021-12-10 14:03:43.955358,14
2021-12-10 14:03:43.955366,14
2021-12-10 14:03:44.180639,4
2021-12-10 14:03:44.180661,-7
2021-12-10 14:03:44.180671,-21
2021-12-10 14:03:44.180680,-35
2021-12-10 14:03:44.180689,-40
2021-12-10 14:03:44.180698,-50
2021-12-10 14:03:44.180706,-64
2021-12-10 14:03:44.180715,-57
2021-12-10 14:03:44.180724,-35
2021-12-10 14:03:44.180732,-35
2021-12-10 14:03:44.180741,-38
2021-12-10 14:03:44.180750,-26
2021-12-10 14:03:44.180758,-42
2021-12-10 14:03:44.180767,-69
2021-12-10 14:03:44.180776,-61
2021-12-10 14:03:44.180784,-47
2021-12-10 14:03:44.180793,-45
2021-12-10 14:03:44.180801,-47
2021-12-10 14:03:44.180810,-59
2021-12-10 14:03:44.180818,-52
2021-12-10 14:03:44.180826,-30
2021-12-10 14:03:44.180835,-26
2021-12-10 14:03:44.180843,-21
2021-12-10 14:03:44.180852,-11
2021-12-10 14:03:44.180860,-9
2021-12-10 14:03:44.180868,-2
2021-12-10 14:03:44.180877,7
2021-12-10 14:03:44.180885,-7
2021-12-10 14:03:44.180894,-26
2021-12-10 14:03:44.180902,-21
2021-12-10 14:03:44.360542,-9
2021-12-10 14:03:44.360565,0
2021-12-10 14:03:44.360575,4
2021-12-10 14:03:44.360584,4
2021-12-10 14:03:44.360592,2
2021-12-10 14:03:44.360601,-2
2021-12-10 14:03:44.360610,-7
2021-12-10 14:03:44.360618,4
2021-12-10 14:03:44.360627,21
2021-12-10 14:03:44.360635,21
2021-12-10 14:03:44.360644,14
2021-12-10 14:03:44.360655,-4
2021-12-10 14:03:44.360664,-16
2021-12-10 14:03:44.360672,7
2021-12-10 14:03:44.360681,33
2021-12-10 14:03:44.360689,33
2021-12-10 14:03:44.360698,14
2021-12-10 14:03:44.360706,-7
2021-12-10 14:03:44.360714,-21
2021-12-10 14:03:44.360723,-28
2021-12-10 14:03:44.360731,-28
2021-12-10 14:03:44.360739,-35
2021-12-10 14:03:44.360748,-45
2021-12-10 14:03:44.360756,-40
2021-12-10 14:03:44.360765,-28
2021-12-10 14:03:44.360773,-23
2021-12-10 14:03:44.360781,-19
2021-12-10 14:03:44.360790,-26
2021-12-10 14:03:44.360798,-81
2021-12-10 14:03:44.360806,-171
2021-12-10 14:03:44.585188,-66
2021-12-10 14:03:44.585211,460
2021-12-10 14:03:44.585221,1251
2021-12-10 14:03:44.585230,1702
2021-12-10 14:03:44.585238,1137
2021-12-10 14:03:44.585247,7
2021-12-10 14:03:44.585255,-405
2021-12-10 14:03:44.585264,-152
2021-12-10 14:03:44.585272,-123
2021-12-10 14:03:44.585280,-233
2021-12-10 14:03:44.585289,-188
2021-12-10 14:03:44.585297,-164
2021-12-10 14:03:44.585306,-176
2021-12-10 14:03:44.585314,-135
2021-12-10 14:03:44.585322,-112
2021-12-10 14:03:44.585331,-128
2021-12-10 14:03:44.585339,-126
2021-12-10 14:03:44.585347,-131
2021-12-10 14:03:44.585356,-157
2021-12-10 14:03:44.585364,-138
2021-12-10 14:03:44.585372,-107
2021-12-10 14:03:44.585381,-107
2021-12-10 14:03:44.585389,-92
2021-12-10 14:03:44.585397,-61
2021-12-10 14:03:44.585406,-38
2021-12-10 14:03:44.585414,-21
2021-12-10 14:03:44.585423,-9
2021-12-10 14:03:44.585431,-7
2021-12-10 14:03:44.585439,-7
2021-12-10 14:03:44.585448,-9
2021-12-10 14:03:44.855187,-14
2021-12-10 14:03:44.855210,-30
2021-12-10 14:03:44.855220,-64
2021-12-10 14:03:44.855229,-100
2021-12-10 14:03:44.855237,-126
2021-12-10 14:03:44.855246,-121
2021-12-10 14:03:44.855254,-95
2021-12-10 14:03:44.855263,-88
2021-12-10 14:03:44.855272,-92
2021-12-10 14:03:44.855280,-109
2021-12-10 14:03:44.855288,-131
2021-12-10 14:03:44.855297,-116
2021-12-10 14:03:44.855305,-81
2021-12-10 14:03:44.855314,-69
2021-12-10 14:03:44.855322,-66
2021-12-10 14:03:44.855331,-66
2021-12-10 14:03:44.855339,-66
2021-12-10 14:03:44.855347,-52
2021-12-10 14:03:44.855356,-28
2021-12-10 14:03:44.855364,-14
2021-12-10 14:03:44.855373,-4
2021-12-10 14:03:44.855381,-11
2021-12-10 14:03:44.855390,-19
2021-12-10 14:03:44.855398,-14
2021-12-10 14:03:44.855407,2
2021-12-10 14:03:44.855415,21
2021-12-10 14:03:44.855424,26
2021-12-10 14:03:44.855432,9
2021-12-10 14:03:44.855440,9
2021-12-10 14:03:44.855449,30
2021-12-10 14:03:45.080381,38
2021-12-10 14:03:45.080401,40
2021-12-10 14:03:45.080410,42
2021-12-10 14:03:45.080419,26
2021-12-10 14:03:45.080428,11
2021-12-10 14:03:45.080436,21
2021-12-10 14:03:45.080445,30
2021-12-10 14:03:45.080453,30
2021-12-10 14:03:45.080461,23
2021-12-10 14:03:45.080470,2
2021-12-10 14:03:45.080478,-9
2021-12-10 14:03:45.080487,4
2021-12-10 14:03:45.080496,23
2021-12-10 14:03:45.080504,35
2021-12-10 14:03:45.080513,16
2021-12-10 14:03:45.080521,-11
2021-12-10 14:03:45.080529,-14
2021-12-10 14:03:45.080538,-14
2021-12-10 14:03:45.080546,-26
2021-12-10 14:03:45.080554,-21
2021-12-10 14:03:45.080563,-21
2021-12-10 14:03:45.080571,-45
2021-12-10 14:03:45.080580,-61
2021-12-10 14:03:45.080588,-76
2021-12-10 14:03:45.080596,-83
2021-12-10 14:03:45.080605,-92
2021-12-10 14:03:45.080613,-166
2021-12-10 14:03:45.080622,-255
2021-12-10 14:03:45.080630,-81
2021-12-10 14:03:45.080639,522
2021-12-10 14:03:45.394142,1349
2021-12-10 14:03:45.394163,1743
2021-12-10 14:03:45.394172,1049
2021-12-10 14:03:45.394181,-92
2021-12-10 14:03:45.394190,-417
2021-12-10 14:03:45.394198,-169
2021-12-10 14:03:45.394207,-183
2021-12-10 14:03:45.394215,-286
2021-12-10 14:03:45.394224,-247
2021-12-10 14:03:45.394232,-247
2021-12-10 14:03:45.394240,-257
2021-12-10 14:03:45.394249,-207
2021-12-10 14:03:45.394257,-183
2021-12-10 14:03:45.394265,-185
2021-12-10 14:03:45.394274,-188
2021-12-10 14:03:45.394282,-193
2021-12-10 14:03:45.394291,-169
2021-12-10 14:03:45.394299,-133
2021-12-10 14:03:45.394307,-112
2021-12-10 14:03:45.394316,-95
2021-12-10 14:03:45.394324,-88
2021-12-10 14:03:45.394332,-73
2021-12-10 14:03:45.394341,-45
2021-12-10 14:03:45.394349,-14
2021-12-10 14:03:45.394358,2
2021-12-10 14:03:45.394366,4
2021-12-10 14:03:45.394374,0
2021-12-10 14:03:45.394383,-9
2021-12-10 14:03:45.394391,-14
2021-12-10 14:03:45.394400,-16
2021-12-10 14:03:45.530570,-19
2021-12-10 14:03:45.530593,-35
2021-12-10 14:03:45.530603,-52
2021-12-10 14:03:45.530611,-52
2021-12-10 14:03:45.530620,-50
2021-12-10 14:03:45.530628,-45
2021-12-10 14:03:45.530637,-35
2021-12-10 14:03:45.530645,-40
2021-12-10 14:03:45.530656,-61
2021-12-10 14:03:45.530665,-69
2021-12-10 14:03:45.530673,-54
2021-12-10 14:03:45.530682,-40
2021-12-10 14:03:45.530690,-33
2021-12-10 14:03:45.530698,-42
2021-12-10 14:03:45.530707,-61
2021-12-10 14:03:45.530715,-50
2021-12-10 14:03:45.530723,-30
2021-12-10 14:03:45.530732,-26
2021-12-10 14:03:45.530740,-21
2021-12-10 14:03:45.530748,-30
2021-12-10 14:03:45.530757,-52
2021-12-10 14:03:45.530765,-50
2021-12-10 14:03:45.530773,-33
2021-12-10 14:03:45.530782,-21
2021-12-10 14:03:45.530790,-16
2021-12-10 14:03:45.530799,-19
2021-12-10 14:03:45.530807,-21
2021-12-10 14:03:45.530815,-23
2021-12-10 14:03:45.530824,-50
2021-12-10 14:03:45.530832,-78
2021-12-10 14:03:45.800179,-73
2021-12-10 14:03:45.800202,-61
2021-12-10 14:03:45.800211,-66
2021-12-10 14:03:45.800220,-59
2021-12-10 14:03:45.800229,-45
2021-12-10 14:03:45.800237,-40
2021-12-10 14:03:45.800246,-47
2021-12-10 14:03:45.800254,-61
2021-12-10 14:03:45.800263,-54
2021-12-10 14:03:45.800271,-33
2021-12-10 14:03:45.800280,-33
2021-12-10 14:03:45.800288,-45
2021-12-10 14:03:45.800296,-47
2021-12-10 14:03:45.800305,-66
2021-12-10 14:03:45.800313,-95
2021-12-10 14:03:45.800321,-107
2021-12-10 14:03:45.800330,-107
2021-12-10 14:03:45.800338,-100
2021-12-10 14:03:45.800346,-97
2021-12-10 14:03:45.800354,-97
2021-12-10 14:03:45.800363,-90
2021-12-10 14:03:45.800371,-83
2021-12-10 14:03:45.800380,-107
2021-12-10 14:03:45.800388,-193
2021-12-10 14:03:45.800396,-224
2021-12-10 14:03:45.800405,71
2021-12-10 14:03:45.800413,789
2021-12-10 14:03:45.800422,1585
2021-12-10 14:03:45.800430,1678
2021-12-10 14:03:45.800439,729
2021-12-10 14:03:45.980543,-216
2021-12-10 14:03:45.980565,-262
2021-12-10 14:03:45.980575,-33
2021-12-10 14:03:45.980584,-109
2021-12-10 14:03:45.980592,-174
2021-12-10 14:03:45.980601,-123
2021-12-10 14:03:45.980609,-159
2021-12-10 14:03:45.980617,-207
2021-12-10 14:03:45.980626,-183
2021-12-10 14:03:45.980634,-169
2021-12-10 14:03:45.980642,-166
2021-12-10 14:03:45.980651,-150
2021-12-10 14:03:45.980659,-147
2021-12-10 14:03:45.980667,-145
2021-12-10 14:03:45.980676,-119
2021-12-10 14:03:45.980684,-95
2021-12-10 14:03:45.980692,-78
2021-12-10 14:03:45.980701,-69
2021-12-10 14:03:45.980709,-76
2021-12-10 14:03:45.980717,-64
2021-12-10 14:03:45.980725,-38
2021-12-10 14:03:45.980734,-26
2021-12-10 14:03:45.980742,-16
2021-12-10 14:03:45.980750,-4
2021-12-10 14:03:45.980759,-11
2021-12-10 14:03:45.980767,-23
2021-12-10 14:03:45.980775,-26
2021-12-10 14:03:45.980783,-35
2021-12-10 14:03:45.980792,-42
2021-12-10 14:03:45.980800,-50
2021-12-10 14:03:46.250517,-61
2021-12-10 14:03:46.250538,-54
2021-12-10 14:03:46.250548,-47
2021-12-10 14:03:46.250557,-64
2021-12-10 14:03:46.250565,-102
2021-12-10 14:03:46.250574,-152
2021-12-10 14:03:46.250582,-169
2021-12-10 14:03:46.250590,-135
2021-12-10 14:03:46.250599,-116
2021-12-10 14:03:46.250607,-121
2021-12-10 14:03:46.250616,-116
2021-12-10 14:03:46.250624,-119
2021-12-10 14:03:46.250632,-126
2021-12-10 14:03:46.250641,-114
2021-12-10 14:03:46.250649,-119
2021-12-10 14:03:46.250657,-131
2021-12-10 14:03:46.250666,-116
2021-12-10 14:03:46.250674,-100
2021-12-10 14:03:46.250683,-97
2021-12-10 14:03:46.250691,-83
2021-12-10 14:03:46.250699,-69
2021-12-10 14:03:46.250707,-69
2021-12-10 14:03:46.250716,-66
2021-12-10 14:03:46.250724,-59
2021-12-10 14:03:46.250732,-52
2021-12-10 14:03:46.250741,-35
2021-12-10 14:03:46.250749,-28
2021-12-10 14:03:46.250758,-33
2021-12-10 14:03:46.250766,-33
2021-12-10 14:03:46.250774,-23
2021-12-10 14:03:46.475571,-14
2021-12-10 14:03:46.475593,0
2021-12-10 14:03:46.475603,7
2021-12-10 14:03:46.475612,2
2021-12-10 14:03:46.475621,-4
2021-12-10 14:03:46.475630,-11
2021-12-10 14:03:46.475638,16
2021-12-10 14:03:46.475647,47
2021-12-10 14:03:46.475655,40
2021-12-10 14:03:46.475664,30
2021-12-10 14:03:46.475672,30
2021-12-10 14:03:46.475681,16
2021-12-10 14:03:46.475689,11
2021-12-10 14:03:46.475698,23
2021-12-10 14:03:46.475707,28
2021-12-10 14:03:46.475715,14
2021-12-10 14:03:46.475724,-11
2021-12-10 14:03:46.475732,-30
2021-12-10 14:03:46.475740,-30
2021-12-10 14:03:46.475749,-69
2021-12-10 14:03:46.475757,-178
2021-12-10 14:03:46.475766,-200
2021-12-10 14:03:46.475774,116
2021-12-10 14:03:46.475783,832
2021-12-10 14:03:46.475791,1611
2021-12-10 14:03:46.475799,1671
2021-12-10 14:03:46.475808,698
2021-12-10 14:03:46.475816,-226
2021-12-10 14:03:46.475825,-250
2021-12-10 14:03:46.475833,-21
2021-12-10 14:03:46.655175,-95
2021-12-10 14:03:46.655199,-157
2021-12-10 14:03:46.655208,-90
2021-12-10 14:03:46.655217,-104
2021-12-10 14:03:46.655225,-154
2021-12-10 14:03:46.655234,-126
2021-12-10 14:03:46.655242,-85
2021-12-10 14:03:46.655251,-78
2021-12-10 14:03:46.655259,-73
2021-12-10 14:03:46.655268,-76
2021-12-10 14:03:46.655276,-102
2021-12-10 14:03:46.655285,-128
2021-12-10 14:03:46.655293,-121
2021-12-10 14:03:46.655301,-92
2021-12-10 14:03:46.655310,-78
2021-12-10 14:03:46.655318,-90
2021-12-10 14:03:46.655327,-97
2021-12-10 14:03:46.655335,-83
2021-12-10 14:03:46.655344,-76
2021-12-10 14:03:46.655352,-78
2021-12-10 14:03:46.655360,-69
2021-12-10 14:03:46.655369,-73
2021-12-10 14:03:46.655377,-88
2021-12-10 14:03:46.655394,-85
2021-12-10 14:03:46.655403,-83
2021-12-10 14:03:46.655412,-90
2021-12-10 14:03:46.655420,-92
2021-12-10 14:03:46.655429,-104
2021-12-10 14:03:46.655437,-114
2021-12-10 14:03:46.655446,-104
2021-12-10 14:03:46.925194,-97
2021-12-10 14:03:46.925217,-97
2021-12-10 14:03:46.925226,-107
2021-12-10 14:03:46.925235,-135
2021-12-10 14:03:46.925244,-147
2021-12-10 14:03:46.925253,-116
2021-12-10 14:03:46.925261,-90
2021-12-10 14:03:46.925270,-85
2021-12-10 14:03:46.925279,-88
2021-12-10 14:03:46.925287,-104
2021-12-10 14:03:46.925296,-114
2021-12-10 14:03:46.925304,-88
2021-12-10 14:03:46.925313,-64
2021-12-10 14:03:46.925321,-57
2021-12-10 14:03:46.925330,-54
2021-12-10 14:03:46.925338,-57
2021-12-10 14:03:46.925346,-52
2021-12-10 14:03:46.925355,-33
2021-12-10 14:03:46.925364,-16
2021-12-10 14:03:46.925372,-21
2021-12-10 14:03:46.925381,-47
2021-12-10 14:03:46.925389,-69
2021-12-10 14:03:46.925398,-52
2021-12-10 14:03:46.925406,-28
2021-12-10 14:03:46.925414,-26
2021-12-10 14:03:46.925423,-19
2021-12-10 14:03:46.925431,-16
2021-12-10 14:03:46.925440,-26
2021-12-10 14:03:46.925448,-21
2021-12-10 14:03:46.925456,-2
2021-12-10 14:03:47.150228,9
2021-12-10 14:03:47.150248,16
2021-12-10 14:03:47.150258,16
2021-12-10 14:03:47.150267,7
2021-12-10 14:03:47.150275,21
2021-12-10 14:03:47.150284,59
2021-12-10 14:03:47.150292,83
2021-12-10 14:03:47.150301,73
2021-12-10 14:03:47.150309,50
2021-12-10 14:03:47.150318,21
2021-12-10 14:03:47.150326,4
2021-12-10 14:03:47.150335,9
2021-12-10 14:03:47.150343,16
2021-12-10 14:03:47.150352,14
2021-12-10 14:03:47.150361,-9
2021-12-10 14:03:47.150369,-57
2021-12-10 14:03:47.150378,-81
2021-12-10 14:03:47.150387,-61
2021-12-10 14:03:47.150395,-59
2021-12-10 14:03:47.150404,-133
2021-12-10 14:03:47.150412,-233
2021-12-10 14:03:47.150421,-112
2021-12-10 14:03:47.150429,395
2021-12-10 14:03:47.150438,1180
2021-12-10 14:03:47.150446,1666
2021-12-10 14:03:47.150455,1134
2021-12-10 14:03:47.150463,23
2021-12-10 14:03:47.150472,-398
2021-12-10 14:03:47.150480,-135
2021-12-10 14:03:47.150488,-76
2021-12-10 14:03:47.419804,-205
2021-12-10 14:03:47.419826,-171
2021-12-10 14:03:47.419835,-128
2021-12-10 14:03:47.419844,-164
2021-12-10 14:03:47.419853,-143
2021-12-10 14:03:47.419861,-97
2021-12-10 14:03:47.419869,-92
2021-12-10 14:03:47.419878,-102
2021-12-10 14:03:47.419886,-107
2021-12-10 14:03:47.419895,-102
2021-12-10 14:03:47.419903,-76
2021-12-10 14:03:47.419911,-54
2021-12-10 14:03:47.419920,-57
2021-12-10 14:03:47.419928,-73
2021-12-10 14:03:47.419936,-90
2021-12-10 14:03:47.419945,-90
2021-12-10 14:03:47.419953,-69
2021-12-10 14:03:47.419961,-40
2021-12-10 14:03:47.419969,-26
2021-12-10 14:03:47.419978,-28
2021-12-10 14:03:47.419986,-35
2021-12-10 14:03:47.419994,-40
2021-12-10 14:03:47.420003,-40
2021-12-10 14:03:47.420011,-50
2021-12-10 14:03:47.420019,-78
2021-12-10 14:03:47.420028,-109
2021-12-10 14:03:47.420036,-112
2021-12-10 14:03:47.420044,-109
2021-12-10 14:03:47.420052,-109
2021-12-10 14:03:47.420061,-104
2021-12-10 14:03:47.645566,-97
2021-12-10 14:03:47.645589,-102
2021-12-10 14:03:47.645598,-107
2021-12-10 14:03:47.645607,-102
2021-12-10 14:03:47.645616,-92
2021-12-10 14:03:47.645624,-76
2021-12-10 14:03:47.645633,-71
2021-12-10 14:03:47.645641,-81
2021-12-10 14:03:47.645649,-83
2021-12-10 14:03:47.645657,-69
2021-12-10 14:03:47.645666,-59
2021-12-10 14:03:47.645674,-50
2021-12-10 14:03:47.645683,-52
2021-12-10 14:03:47.645691,-73
2021-12-10 14:03:47.645699,-76
2021-12-10 14:03:47.645708,-57
2021-12-10 14:03:47.645716,-45
2021-12-10 14:03:47.645724,-38
2021-12-10 14:03:47.645732,-40
2021-12-10 14:03:47.645741,-54
2021-12-10 14:03:47.645749,-71
2021-12-10 14:03:47.645757,-97
2021-12-10 14:03:47.645766,-104
2021-12-10 14:03:47.645774,-83
2021-12-10 14:03:47.645782,-73
2021-12-10 14:03:47.645790,-88
2021-12-10 14:03:47.645799,-100
2021-12-10 14:03:47.645807,-104
2021-12-10 14:03:47.645815,-90
2021-12-10 14:03:47.645824,-69
2021-12-10 14:03:47.825222,-69
2021-12-10 14:03:47.825245,-64
2021-12-10 14:03:47.825254,-52
2021-12-10 14:03:47.825263,-50
2021-12-10 14:03:47.825271,-42
2021-12-10 14:03:47.825280,-30
2021-12-10 14:03:47.825290,-35
2021-12-10 14:03:47.825298,-26
2021-12-10 14:03:47.825307,2
2021-12-10 14:03:47.825315,2
2021-12-10 14:03:47.825323,-2
2021-12-10 14:03:47.825332,2
2021-12-10 14:03:47.825340,-21
2021-12-10 14:03:47.825348,-38
2021-12-10 14:03:47.825357,-28
2021-12-10 14:03:47.825365,-26
2021-12-10 14:03:47.825373,-23
2021-12-10 14:03:47.825382,-19
2021-12-10 14:03:47.825390,-33
2021-12-10 14:03:47.825398,-40
2021-12-10 14:03:47.825406,-45
2021-12-10 14:03:47.825415,-133
2021-12-10 14:03:47.825423,-212
2021-12-10 14:03:47.825431,-2
2021-12-10 14:03:47.825440,605
2021-12-10 14:03:47.825448,1385
2021-12-10 14:03:47.825456,1661
2021-12-10 14:03:47.825465,894
2021-12-10 14:03:47.825473,-138
2021-12-10 14:03:47.825481,-338
2021-12-10 14:03:48.094868,-78
2021-12-10 14:03:48.094890,-97
2021-12-10 14:03:48.094900,-193
2021-12-10 14:03:48.094908,-138
2021-12-10 14:03:48.094917,-114
2021-12-10 14:03:48.094926,-154
2021-12-10 14:03:48.094934,-157
2021-12-10 14:03:48.094942,-123
2021-12-10 14:03:48.094951,-107
2021-12-10 14:03:48.094959,-97
2021-12-10 14:03:48.094968,-81
2021-12-10 14:03:48.094976,-88
2021-12-10 14:03:48.094985,-112
2021-12-10 14:03:48.094993,-97
2021-12-10 14:03:48.095001,-76
2021-12-10 14:03:48.095010,-85
2021-12-10 14:03:48.095018,-78
2021-12-10 14:03:48.095027,-57
2021-12-10 14:03:48.095035,-45
2021-12-10 14:03:48.095044,-28
2021-12-10 14:03:48.095052,-11
2021-12-10 14:03:48.095060,-14
2021-12-10 14:03:48.095069,-21
2021-12-10 14:03:48.095077,-26
2021-12-10 14:03:48.095085,-38
2021-12-10 14:03:48.095094,-54
2021-12-10 14:03:48.095102,-95
2021-12-10 14:03:48.095110,-123
2021-12-10 14:03:48.095119,-114
2021-12-10 14:03:48.095134,-107
2021-12-10 14:03:48.320193,-133
2021-12-10 14:03:48.320214,-145
2021-12-10 14:03:48.320224,-133
2021-12-10 14:03:48.320233,-135
2021-12-10 14:03:48.320241,-143
2021-12-10 14:03:48.320250,-147
2021-12-10 14:03:48.320258,-138
2021-12-10 14:03:48.320267,-112
2021-12-10 14:03:48.320275,-92
2021-12-10 14:03:48.320284,-90
2021-12-10 14:03:48.320292,-102
2021-12-10 14:03:48.320300,-116
2021-12-10 14:03:48.320309,-104
2021-12-10 14:03:48.320317,-73
2021-12-10 14:03:48.320326,-66
2021-12-10 14:03:48.320334,-69
2021-12-10 14:03:48.320343,-69
2021-12-10 14:03:48.320351,-71
2021-12-10 14:03:48.320359,-59
2021-12-10 14:03:48.320368,-40
2021-12-10 14:03:48.320376,-28
2021-12-10 14:03:48.320384,-28
2021-12-10 14:03:48.320393,-26
2021-12-10 14:03:48.320401,-21
2021-12-10 14:03:48.320409,-7
2021-12-10 14:03:48.320418,7
2021-12-10 14:03:48.320426,11
2021-12-10 14:03:48.320434,11
2021-12-10 14:03:48.320443,9
2021-12-10 14:03:48.320451,14
2021-12-10 14:03:48.545580,30
2021-12-10 14:03:48.545602,38
2021-12-10 14:03:48.545612,21
2021-12-10 14:03:48.545621,-7
2021-12-10 14:03:48.545629,-30
2021-12-10 14:03:48.545637,-33
2021-12-10 14:03:48.545646,-9
2021-12-10 14:03:48.545654,33
2021-12-10 14:03:48.545662,57
2021-12-10 14:03:48.545671,33
2021-12-10 14:03:48.545679,11
2021-12-10 14:03:48.545687,16
2021-12-10 14:03:48.545696,16
2021-12-10 14:03:48.545704,9
2021-12-10 14:03:48.545712,11
2021-12-10 14:03:48.545721,7
2021-12-10 14:03:48.545729,-14
2021-12-10 14:03:48.545737,-11
2021-12-10 14:03:48.545746,9
2021-12-10 14:03:48.545754,9
2021-12-10 14:03:48.545762,-23
2021-12-10 14:03:48.545770,-102
2021-12-10 14:03:48.545779,-200
2021-12-10 14:03:48.545787,-85
2021-12-10 14:03:48.545796,429
2021-12-10 14:03:48.545804,1216
2021-12-10 14:03:48.545812,1719
2021-12-10 14:03:48.545820,1232
2021-12-10 14:03:48.545829,126
2021-12-10 14:03:48.545837,-324
2021-12-10 14:03:48.770212,-78
2021-12-10 14:03:48.770234,-33
2021-12-10 14:03:48.770244,-181
2021-12-10 14:03:48.770253,-178
2021-12-10 14:03:48.770261,-140
2021-12-10 14:03:48.770270,-166
2021-12-10 14:03:48.770278,-152
2021-12-10 14:03:48.770287,-104
2021-12-10 14:03:48.770295,-104
2021-12-10 14:03:48.770303,-140
2021-12-10 14:03:48.770312,-152
2021-12-10 14:03:48.770320,-128
2021-12-10 14:03:48.770329,-114
2021-12-10 14:03:48.770337,-121
2021-12-10 14:03:48.770345,-116
2021-12-10 14:03:48.770353,-121
2021-12-10 14:03:48.770362,-121
2021-12-10 14:03:48.770370,-90
2021-12-10 14:03:48.770378,-59
2021-12-10 14:03:48.770387,-45
2021-12-10 14:03:48.770395,-40
2021-12-10 14:03:48.770403,-52
2021-12-10 14:03:48.770412,-57
2021-12-10 14:03:48.770420,-47
2021-12-10 14:03:48.770428,-47
2021-12-10 14:03:48.770436,-57
2021-12-10 14:03:48.770445,-71
2021-12-10 14:03:48.770453,-88
2021-12-10 14:03:48.770461,-83
2021-12-10 14:03:48.770470,-59
2021-12-10 14:03:49.040233,-50
2021-12-10 14:03:49.040255,-50
2021-12-10 14:03:49.040265,-54
2021-12-10 14:03:49.040274,-69
2021-12-10 14:03:49.040282,-64
2021-12-10 14:03:49.040291,-47
2021-12-10 14:03:49.040299,-52
2021-12-10 14:03:49.040308,-69
2021-12-10 14:03:49.040316,-78
2021-12-10 14:03:49.040324,-92
2021-12-10 14:03:49.040333,-83
2021-12-10 14:03:49.040342,-59
2021-12-10 14:03:49.040350,-47
2021-12-10 14:03:49.040358,-42
2021-12-10 14:03:49.040367,-57
2021-12-10 14:03:49.040375,-78
2021-12-10 14:03:49.040384,-64
2021-12-10 14:03:49.040392,-35
2021-12-10 14:03:49.040401,-30
2021-12-10 14:03:49.040409,-30
2021-12-10 14:03:49.040418,-33
2021-12-10 14:03:49.040426,-40
2021-12-10 14:03:49.040435,-30
2021-12-10 14:03:49.040443,-11
2021-12-10 14:03:49.040452,-4
2021-12-10 14:03:49.040460,0
2021-12-10 14:03:49.040468,-4
2021-12-10 14:03:49.040477,-9
2021-12-10 14:03:49.040485,0
2021-12-10 14:03:49.040493,16
2021-12-10 14:03:49.220707,23
2021-12-10 14:03:49.220731,23
2021-12-10 14:03:49.220740,21
2021-12-10 14:03:49.220749,16
2021-12-10 14:03:49.220758,26
2021-12-10 14:03:49.220770,47
2021-12-10 14:03:49.220779,78
2021-12-10 14:03:49.220787,78
2021-12-10 14:03:49.220797,16
2021-12-10 14:03:49.220805,-19
2021-12-10 14:03:49.220814,-2
2021-12-10 14:03:49.220822,-4
2021-12-10 14:03:49.220831,-26
2021-12-10 14:03:49.220840,-35
2021-12-10 14:03:49.220848,-54
2021-12-10 14:03:49.220856,-64
2021-12-10 14:03:49.220865,-61
2021-12-10 14:03:49.220874,-64
2021-12-10 14:03:49.220882,-64
2021-12-10 14:03:49.220890,-83
2021-12-10 14:03:49.220899,-164
2021-12-10 14:03:49.220907,-259
2021-12-10 14:03:49.220915,-152
2021-12-10 14:03:49.220924,345
2021-12-10 14:03:49.220932,1142
2021-12-10 14:03:49.220941,1700
2021-12-10 14:03:49.220949,1270
2021-12-10 14:03:49.220958,147
2021-12-10 14:03:49.220966,-374
2021-12-10 14:03:49.220975,-138
2021-12-10 14:03:49.533838,-42
2021-12-10 14:03:49.533860,-176
2021-12-10 14:03:49.533870,-162
2021-12-10 14:03:49.533878,-104
2021-12-10 14:03:49.533887,-121
2021-12-10 14:03:49.533895,-109
2021-12-10 14:03:49.533903,-95
2021-12-10 14:03:49.533912,-131
2021-12-10 14:03:49.533920,-150
2021-12-10 14:03:49.533929,-135
2021-12-10 14:03:49.533937,-147
2021-12-10 14:03:49.533945,-157
2021-12-10 14:03:49.533954,-143
2021-12-10 14:03:49.533962,-143
2021-12-10 14:03:49.533970,-143
2021-12-10 14:03:49.533979,-116
2021-12-10 14:03:49.533987,-88
2021-12-10 14:03:49.533995,-71
2021-12-10 14:03:49.534004,-54
2021-12-10 14:03:49.534012,-45
2021-12-10 14:03:49.534021,-42
2021-12-10 14:03:49.534029,-40
2021-12-10 14:03:49.534037,-33
2021-12-10 14:03:49.534045,-30
2021-12-10 14:03:49.534054,-42
2021-12-10 14:03:49.534062,-61
2021-12-10 14:03:49.534070,-64
2021-12-10 14:03:49.534079,-61
2021-12-10 14:03:49.534087,-61
2021-12-10 14:03:49.534096,-57
2021-12-10 14:03:49.670223,-59
2021-12-10 14:03:49.670246,-66
2021-12-10 14:03:49.670255,-61
2021-12-10 14:03:49.670264,-59
2021-12-10 14:03:49.670273,-54
2021-12-10 14:03:49.670281,-47
2021-12-10 14:03:49.670290,-54
2021-12-10 14:03:49.670298,-69
2021-12-10 14:03:49.670307,-59
2021-12-10 14:03:49.670315,-45
2021-12-10 14:03:49.670324,-40
2021-12-10 14:03:49.670332,-26
2021-12-10 14:03:49.670341,-28
2021-12-10 14:03:49.670349,-66
2021-12-10 14:03:49.670358,-100
2021-12-10 14:03:49.670366,-95
2021-12-10 14:03:49.670375,-78
2021-12-10 14:03:49.670383,-83
2021-12-10 14:03:49.670391,-97
2021-12-10 14:03:49.670400,-97
2021-12-10 14:03:49.670408,-81
2021-12-10 14:03:49.670417,-73
2021-12-10 14:03:49.670425,-64
2021-12-10 14:03:49.670433,-47
2021-12-10 14:03:49.670442,-50
2021-12-10 14:03:49.670450,-47
2021-12-10 14:03:49.670458,-26
2021-12-10 14:03:49.670467,-16
2021-12-10 14:03:49.670482,-14
2021-12-10 14:03:49.670490,-7
2021-12-10 14:03:49.895540,-4
2021-12-10 14:03:49.895561,4
2021-12-10 14:03:49.895570,14
2021-12-10 14:03:49.895579,16
2021-12-10 14:03:49.895588,28
2021-12-10 14:03:49.895596,47
2021-12-10 14:03:49.895605,47
2021-12-10 14:03:49.895613,33
2021-12-10 14:03:49.895622,38
2021-12-10 14:03:49.895630,42
2021-12-10 14:03:49.895639,16
2021-12-10 14:03:49.895647,-16
2021-12-10 14:03:49.895655,-30
2021-12-10 14:03:49.895664,-40
2021-12-10 14:03:49.895672,-66
2021-12-10 14:03:49.895681,-88
2021-12-10 14:03:49.895689,-76
2021-12-10 14:03:49.895698,-69
2021-12-10 14:03:49.895706,-76
2021-12-10 14:03:49.895714,-107
2021-12-10 14:03:49.895723,-185
2021-12-10 14:03:49.895731,-133
2021-12-10 14:03:49.895740,307
2021-12-10 14:03:49.895748,1080
2021-12-10 14:03:49.895757,1669
2021-12-10 14:03:49.895765,1347
2021-12-10 14:03:49.895773,274
2021-12-10 14:03:49.895782,-307
2021-12-10 14:03:49.895790,-112
2021-12-10 14:03:49.895798,-2
2021-12-10 14:03:50.120490,-126
2021-12-10 14:03:50.120512,-112
2021-12-10 14:03:50.120522,-54
2021-12-10 14:03:50.120531,-104
2021-12-10 14:03:50.120539,-150
2021-12-10 14:03:50.120548,-147
2021-12-10 14:03:50.120556,-145
2021-12-10 14:03:50.120565,-133
2021-12-10 14:03:50.120573,-109
2021-12-10 14:03:50.120582,-100
2021-12-10 14:03:50.120590,-112
2021-12-10 14:03:50.120598,-119
2021-12-10 14:03:50.120607,-102
2021-12-10 14:03:50.120615,-71
2021-12-10 14:03:50.120624,-52
2021-12-10 14:03:50.120632,-40
2021-12-10 14:03:50.120640,-30
2021-12-10 14:03:50.120649,-28
2021-12-10 14:03:50.120657,-35
2021-12-10 14:03:50.120665,-57
2021-12-10 14:03:50.120673,-88
2021-12-10 14:03:50.120681,-100
2021-12-10 14:03:50.120690,-97
2021-12-10 14:03:50.120698,-102
2021-12-10 14:03:50.120706,-107
2021-12-10 14:03:50.120714,-102
2021-12-10 14:03:50.120723,-97
2021-12-10 14:03:50.120731,-97
2021-12-10 14:03:50.120739,-100
2021-12-10 14:03:50.120747,-92
2021-12-10 14:03:50.345606,-76
2021-12-10 14:03:50.345629,-64
2021-12-10 14:03:50.345638,-57
2021-12-10 14:03:50.345647,-69
2021-12-10 14:03:50.345656,-97
2021-12-10 14:03:50.345664,-102
2021-12-10 14:03:50.345673,-69
2021-12-10 14:03:50.345681,-42
2021-12-10 14:03:50.345689,-42
2021-12-10 14:03:50.345698,-54
2021-12-10 14:03:50.345706,-71
2021-12-10 14:03:50.345715,-69
2021-12-10 14:03:50.345723,-42
2021-12-10 14:03:50.345731,-35
2021-12-10 14:03:50.345740,-38
2021-12-10 14:03:50.345748,-33
2021-12-10 14:03:50.345757,-33
2021-12-10 14:03:50.345765,-30
2021-12-10 14:03:50.345773,-26
2021-12-10 14:03:50.345782,-33
2021-12-10 14:03:50.345790,-35
2021-12-10 14:03:50.345799,-30
2021-12-10 14:03:50.345807,-28
2021-12-10 14:03:50.345815,-16
2021-12-10 14:03:50.345824,0
2021-12-10 14:03:50.345832,14
2021-12-10 14:03:50.345841,21
2021-12-10 14:03:50.345849,21
2021-12-10 14:03:50.345857,16
2021-12-10 14:03:50.345866,21
2021-12-10 14:03:50.615474,38
2021-12-10 14:03:50.615493,71
2021-12-10 14:03:50.615502,97
2021-12-10 14:03:50.615511,66
2021-12-10 14:03:50.615519,19
2021-12-10 14:03:50.615528,28
2021-12-10 14:03:50.615536,38
2021-12-10 14:03:50.615545,19
2021-12-10 14:03:50.615553,9
2021-12-10 14:03:50.615562,-14
2021-12-10 14:03:50.615570,-30
2021-12-10 14:03:50.615579,-16
2021-12-10 14:03:50.615587,-19
2021-12-10 14:03:50.615596,-33
2021-12-10 14:03:50.615604,-33
2021-12-10 14:03:50.615613,-81
2021-12-10 14:03:50.615621,-195
2021-12-10 14:03:50.615630,-171
2021-12-10 14:03:50.615638,214
2021-12-10 14:03:50.615647,929
2021-12-10 14:03:50.615655,1549
2021-12-10 14:03:50.615664,1335
2021-12-10 14:03:50.615672,317
2021-12-10 14:03:50.615681,-319
2021-12-10 14:03:50.615689,-183
2021-12-10 14:03:50.615698,-78
2021-12-10 14:03:50.615706,-207
2021-12-10 14:03:50.615715,-214
2021-12-10 14:03:50.615723,-140
2021-12-10 14:03:50.615732,-131
2021-12-10 14:03:50.840217,-123
2021-12-10 14:03:50.840240,-90
2021-12-10 14:03:50.840249,-90
2021-12-10 14:03:50.840258,-114
2021-12-10 14:03:50.840267,-109
2021-12-10 14:03:50.840275,-90
2021-12-10 14:03:50.840284,-90
2021-12-10 14:03:50.840292,-83
2021-12-10 14:03:50.840301,-81
2021-12-10 14:03:50.840309,-95
2021-12-10 14:03:50.840318,-81
2021-12-10 14:03:50.840326,-45
2021-12-10 14:03:50.840335,-26
2021-12-10 14:03:50.840343,-14
2021-12-10 14:03:50.840351,-23
2021-12-10 14:03:50.840360,-47
2021-12-10 14:03:50.840368,-45
2021-12-10 14:03:50.840377,-30
2021-12-10 14:03:50.840385,-35
2021-12-10 14:03:50.840394,-50
2021-12-10 14:03:50.840402,-64
2021-12-10 14:03:50.840410,-78
2021-12-10 14:03:50.840418,-83
2021-12-10 14:03:50.840427,-92
2021-12-10 14:03:50.840435,-97
2021-12-10 14:03:50.840443,-88
2021-12-10 14:03:50.840452,-95
2021-12-10 14:03:50.840460,-109
2021-12-10 14:03:50.840468,-95
2021-12-10 14:03:50.840477,-73
2021-12-10 14:03:51.065634,-64
2021-12-10 14:03:51.065657,-61
2021-12-10 14:03:51.065667,-61
2021-12-10 14:03:51.065675,-61
2021-12-10 14:03:51.065684,-50
2021-12-10 14:03:51.065692,-33
2021-12-10 14:03:51.065701,-21
2021-12-10 14:03:51.065709,-28
2021-12-10 14:03:51.065717,-54
2021-12-10 14:03:51.065726,-61
2021-12-10 14:03:51.065734,-38
2021-12-10 14:03:51.065743,-23
2021-12-10 14:03:51.065751,-21
2021-12-10 14:03:51.065759,-33
2021-12-10 14:03:51.065768,-57
2021-12-10 14:03:51.065776,-54
2021-12-10 14:03:51.065785,-30
2021-12-10 14:03:51.065793,-19
2021-12-10 14:03:51.065801,-16
2021-12-10 14:03:51.065810,-14
2021-12-10 14:03:51.065818,-19
2021-12-10 14:03:51.065826,-16
2021-12-10 14:03:51.065835,0
2021-12-10 14:03:51.065843,9
2021-12-10 14:03:51.065852,7
2021-12-10 14:03:51.065860,21
2021-12-10 14:03:51.065869,33
2021-12-10 14:03:51.065877,28
2021-12-10 14:03:51.065885,33
2021-12-10 14:03:51.065894,33
2021-12-10 14:03:51.290609,-4
2021-12-10 14:03:51.290631,-54
2021-12-10 14:03:51.290640,-64
2021-12-10 14:03:51.290649,-52
2021-12-10 14:03:51.290658,-40
2021-12-10 14:03:51.290667,-26
2021-12-10 14:03:51.290675,-26
2021-12-10 14:03:51.290684,-52
2021-12-10 14:03:51.290692,-78
2021-12-10 14:03:51.290701,-123
2021-12-10 14:03:51.290709,-188
2021-12-10 14:03:51.290718,-50
2021-12-10 14:03:51.290726,476
2021-12-10 14:03:51.290735,1201
2021-12-10 14:03:51.290744,1511
2021-12-10 14:03:51.290752,865
2021-12-10 14:03:51.290761,-116
2021-12-10 14:03:51.290770,-348
2021-12-10 14:03:51.290778,-95
2021-12-10 14:03:51.290787,-102
2021-12-10 14:03:51.290795,-193
2021-12-10 14:03:51.290804,-135
2021-12-10 14:03:51.290812,-107
2021-12-10 14:03:51.290821,-123
2021-12-10 14:03:51.290830,-102
2021-12-10 14:03:51.290838,-83
2021-12-10 14:03:51.290847,-92
2021-12-10 14:03:51.290855,-97
2021-12-10 14:03:51.290864,-88
2021-12-10 14:03:51.290872,-64
2021-12-10 14:03:51.604289,-47
2021-12-10 14:03:51.604312,-35
2021-12-10 14:03:51.604321,-14
2021-12-10 14:03:51.604330,2
2021-12-10 14:03:51.604339,4
2021-12-10 14:03:51.604347,2
2021-12-10 14:03:51.604355,-16
2021-12-10 14:03:51.604363,-45
2021-12-10 14:03:51.604372,-52
2021-12-10 14:03:51.604380,-45
2021-12-10 14:03:51.604388,-45
2021-12-10 14:03:51.604397,-57
2021-12-10 14:03:51.604405,-88
2021-12-10 14:03:51.604413,-116
2021-12-10 14:03:51.604422,-114
2021-12-10 14:03:51.604430,-107
2021-12-10 14:03:51.604438,-109
2021-12-10 14:03:51.604447,-102
2021-12-10 14:03:51.604455,-104
2021-12-10 14:03:51.604463,-116
2021-12-10 14:03:51.604471,-119
2021-12-10 14:03:51.604480,-114
2021-12-10 14:03:51.604488,-109
2021-12-10 14:03:51.604499,-100
2021-12-10 14:03:51.604507,-92
2021-12-10 14:03:51.604516,-83
2021-12-10 14:03:51.604524,-73
2021-12-10 14:03:51.604532,-69
2021-12-10 14:03:51.604541,-64
2021-12-10 14:03:51.604549,-73
2021-12-10 14:03:51.740252,-90
2021-12-10 14:03:51.740275,-76
2021-12-10 14:03:51.740285,-61
2021-12-10 14:03:51.740294,-95
2021-12-10 14:03:51.740302,-114
2021-12-10 14:03:51.740311,-59
2021-12-10 14:03:51.740319,-33
2021-12-10 14:03:51.740327,-76
2021-12-10 14:03:51.740336,-78
2021-12-10 14:03:51.740344,-50
2021-12-10 14:03:51.740353,-52
2021-12-10 14:03:51.740361,-71
2021-12-10 14:03:51.740370,-76
2021-12-10 14:03:51.740378,-64
2021-12-10 14:03:51.740387,-47
2021-12-10 14:03:51.740395,-40
2021-12-10 14:03:51.740403,-30
2021-12-10 14:03:51.740412,-14
2021-12-10 14:03:51.740420,-11
2021-12-10 14:03:51.740428,-11
2021-12-10 14:03:51.740437,-2
2021-12-10 14:03:51.740445,-9
2021-12-10 14:03:51.740453,-28
2021-12-10 14:03:51.740462,-38
2021-12-10 14:03:51.740470,-35
2021-12-10 14:03:51.740479,-21
2021-12-10 14:03:51.740487,-14
2021-12-10 14:03:51.740495,-14
2021-12-10 14:03:51.740504,-9
2021-12-10 14:03:51.740512,-7
2021-12-10 14:03:51.965608,-30
2021-12-10 14:03:51.965630,-112
2021-12-10 14:03:51.965639,-195
2021-12-10 14:03:51.965648,-33
2021-12-10 14:03:51.965657,522
2021-12-10 14:03:51.965665,1270
2021-12-10 14:03:51.965673,1609
2021-12-10 14:03:51.965681,970
2021-12-10 14:03:51.965690,-54
2021-12-10 14:03:51.965698,-333
2021-12-10 14:03:51.965706,-90
2021-12-10 14:03:51.965715,-97
2021-12-10 14:03:51.965723,-185
2021-12-10 14:03:51.965731,-114
2021-12-10 14:03:51.965740,-92
2021-12-10 14:03:51.965748,-138
2021-12-10 14:03:51.965756,-126
2021-12-10 14:03:51.965765,-100
2021-12-10 14:03:51.965773,-92
2021-12-10 14:03:51.965781,-73
2021-12-10 14:03:51.965790,-54
2021-12-10 14:03:51.965798,-47
2021-12-10 14:03:51.965806,-35
2021-12-10 14:03:51.965814,-19
2021-12-10 14:03:51.965823,2
2021-12-10 14:03:51.965831,23
2021-12-10 14:03:51.965839,42
2021-12-10 14:03:51.965848,52
2021-12-10 14:03:51.965856,54
2021-12-10 14:03:51.965864,66
2021-12-10 14:03:52.234738,88
2021-12-10 14:03:52.234762,97
2021-12-10 14:03:52.234771,76
2021-12-10 14:03:52.234780,30
2021-12-10 14:03:52.234789,-23
2021-12-10 14:03:52.234797,-64
2021-12-10 14:03:52.234806,-76
2021-12-10 14:03:52.234814,-78
2021-12-10 14:03:52.234823,-92
2021-12-10 14:03:52.234831,-112
2021-12-10 14:03:52.234840,-140
2021-12-10 14:03:52.234848,-178
2021-12-10 14:03:52.234856,-212
2021-12-10 14:03:52.234865,-207
2021-12-10 14:03:52.234873,-188
2021-12-10 14:03:52.234882,-188
2021-12-10 14:03:52.234890,-190
2021-12-10 14:03:52.234899,-174
2021-12-10 14:03:52.234907,-147
2021-12-10 14:03:52.234916,-135
2021-12-10 14:03:52.234924,-128
2021-12-10 14:03:52.234932,-131
2021-12-10 14:03:52.234942,-128
2021-12-10 14:03:52.234950,-109
2021-12-10 14:03:52.234959,-90
2021-12-10 14:03:52.234967,-81
2021-12-10 14:03:52.234975,-71
2021-12-10 14:03:52.234984,-73
2021-12-10 14:03:52.234992,-83
2021-12-10 14:03:52.235001,-69
2021-12-10 14:03:52.460628,-52
2021-12-10 14:03:52.460652,-42
2021-12-10 14:03:52.460662,-38
2021-12-10 14:03:52.460671,-52
2021-12-10 14:03:52.460679,-78
2021-12-10 14:03:52.460688,-83
2021-12-10 14:03:52.460697,-69
2021-12-10 14:03:52.460705,-35
2021-12-10 14:03:52.460714,-9
2021-12-10 14:03:52.460722,-52
2021-12-10 14:03:52.460731,-97
2021-12-10 14:03:52.460739,-64
2021-12-10 14:03:52.460748,-38
2021-12-10 14:03:52.460756,-59
2021-12-10 14:03:52.460764,-64
2021-12-10 14:03:52.460773,-64
2021-12-10 14:03:52.460781,-73
2021-12-10 14:03:52.460790,-57
2021-12-10 14:03:52.460798,-33
2021-12-10 14:03:52.460807,-28
2021-12-10 14:03:52.460816,-35
2021-12-10 14:03:52.460824,-90
2021-12-10 14:03:52.460832,-181
2021-12-10 14:03:52.460841,-90
2021-12-10 14:03:52.460850,391
2021-12-10 14:03:52.460858,1168
2021-12-10 14:03:52.460867,1716
2021-12-10 14:03:52.460875,1294
2021-12-10 14:03:52.460884,181
2021-12-10 14:03:52.460893,-324
2021-12-10 14:03:52.685619,-88
2021-12-10 14:03:52.685642,-2
2021-12-10 14:03:52.685652,-121
2021-12-10 14:03:52.685661,-102
2021-12-10 14:03:52.685669,-47
2021-12-10 14:03:52.685678,-59
2021-12-10 14:03:52.685686,-57
2021-12-10 14:03:52.685694,-47
2021-12-10 14:03:52.685703,-73
2021-12-10 14:03:52.685711,-92
2021-12-10 14:03:52.685719,-71
2021-12-10 14:03:52.685728,-42
2021-12-10 14:03:52.685736,-23
2021-12-10 14:03:52.685745,-11
2021-12-10 14:03:52.685753,-30
2021-12-10 14:03:52.685761,-61
2021-12-10 14:03:52.685770,-52
2021-12-10 14:03:52.685778,-47
2021-12-10 14:03:52.685787,-64
2021-12-10 14:03:52.685795,-40
2021-12-10 14:03:52.685804,-23
2021-12-10 14:03:52.685812,-38
2021-12-10 14:03:52.685820,-33
2021-12-10 14:03:52.685829,-21
2021-12-10 14:03:52.685837,-33
2021-12-10 14:03:52.685845,-47
2021-12-10 14:03:52.685854,-64
2021-12-10 14:03:52.685862,-78
2021-12-10 14:03:52.685871,-73
2021-12-10 14:03:52.685879,-59
2021-12-10 14:03:52.910116,-64
2021-12-10 14:03:52.910136,-71
2021-12-10 14:03:52.910145,-83
2021-12-10 14:03:52.910154,-100
2021-12-10 14:03:52.910163,-107
2021-12-10 14:03:52.910171,-102
2021-12-10 14:03:52.910180,-102
2021-12-10 14:03:52.910188,-126
2021-12-10 14:03:52.910197,-164
2021-12-10 14:03:52.910205,-190
2021-12-10 14:03:52.910214,-185
2021-12-10 14:03:52.910222,-162
2021-12-10 14:03:52.910231,-150
2021-12-10 14:03:52.910239,-154
2021-12-10 14:03:52.910248,-174
2021-12-10 14:03:52.910256,-176
2021-12-10 14:03:52.910264,-157
2021-12-10 14:03:52.910273,-138
2021-12-10 14:03:52.910281,-126
2021-12-10 14:03:52.910293,-119
2021-12-10 14:03:52.910303,-126
2021-12-10 14:03:52.910311,-131
2021-12-10 14:03:52.910319,-112
2021-12-10 14:03:52.910327,-88
2021-12-10 14:03:52.910336,-81
2021-12-10 14:03:52.910344,-81
2021-12-10 14:03:52.910352,-81
2021-12-10 14:03:52.910361,-71
2021-12-10 14:03:52.910369,-47
2021-12-10 14:03:52.910378,-2
2021-12-10 14:03:53.269594,16
2021-12-10 14:03:53.269617,-2
2021-12-10 14:03:53.269626,-11
2021-12-10 14:03:53.269635,-11
2021-12-10 14:03:53.269643,-21
2021-12-10 14:03:53.269652,-26
2021-12-10 14:03:53.269660,-26
2021-12-10 14:03:53.269668,-47
2021-12-10 14:03:53.269677,-64
2021-12-10 14:03:53.269686,-52
2021-12-10 14:03:53.269694,-45
2021-12-10 14:03:53.269703,-64
2021-12-10 14:03:53.269711,-104
2021-12-10 14:03:53.269720,-202
2021-12-10 14:03:53.269728,-274
2021-12-10 14:03:53.269737,-35
2021-12-10 14:03:53.269746,631
2021-12-10 14:03:53.269754,1444
2021-12-10 14:03:53.269763,1659
2021-12-10 14:03:53.269771,805
2021-12-10 14:03:53.269779,-193
2021-12-10 14:03:53.269788,-314
2021-12-10 14:03:53.269796,-66
2021-12-10 14:03:53.269805,-133
2021-12-10 14:03:53.269813,-240
2021-12-10 14:03:53.269822,-174
2021-12-10 14:03:53.269830,-140
2021-12-10 14:03:53.269838,-164
2021-12-10 14:03:53.269847,-138
2021-12-10 14:03:53.269855,-97
2021-12-10 14:03:53.360256,-90
2021-12-10 14:03:53.360280,-83
2021-12-10 14:03:53.360289,-59
2021-12-10 14:03:53.360298,-45
2021-12-10 14:03:53.360307,-28
2021-12-10 14:03:53.360315,-4
2021-12-10 14:03:53.360324,16
2021-12-10 14:03:53.360332,30
2021-12-10 14:03:53.360340,47
2021-12-10 14:03:53.360349,61
2021-12-10 14:03:53.360357,83
2021-12-10 14:03:53.360366,114
2021-12-10 14:03:53.360374,114
2021-12-10 14:03:53.360383,83
2021-12-10 14:03:53.360391,57
2021-12-10 14:03:53.360400,50
2021-12-10 14:03:53.360408,45
2021-12-10 14:03:53.360416,26
2021-12-10 14:03:53.360425,-9
2021-12-10 14:03:53.360433,-35
2021-12-10 14:03:53.360442,-35
2021-12-10 14:03:53.360450,-42
2021-12-10 14:03:53.360459,-57
2021-12-10 14:03:53.360467,-69
2021-12-10 14:03:53.360475,-92
2021-12-10 14:03:53.360484,-107
2021-12-10 14:03:53.360492,-95
2021-12-10 14:03:53.360501,-90
2021-12-10 14:03:53.360509,-88
2021-12-10 14:03:53.360517,-78
2021-12-10 14:03:53.719299,-78
2021-12-10 14:03:53.719323,-73
2021-12-10 14:03:53.719332,-61
2021-12-10 14:03:53.719341,-73
2021-12-10 14:03:53.719350,-85
2021-12-10 14:03:53.719358,-92
2021-12-10 14:03:53.719367,-123
2021-12-10 14:03:53.719375,-133
2021-12-10 14:03:53.719384,-107
2021-12-10 14:03:53.719392,-102
2021-12-10 14:03:53.719400,-107
2021-12-10 14:03:53.719409,-112
2021-12-10 14:03:53.719417,-131
2021-12-10 14:03:53.719426,-128
2021-12-10 14:03:53.719434,-114
2021-12-10 14:03:53.719443,-131
2021-12-10 14:03:53.719451,-152
2021-12-10 14:03:53.719462,-138
2021-12-10 14:03:53.719471,-123
2021-12-10 14:03:53.719479,-119
2021-12-10 14:03:53.719488,-109
2021-12-10 14:03:53.719496,-100
2021-12-10 14:03:53.719504,-88
2021-12-10 14:03:53.719513,-61
2021-12-10 14:03:53.719521,-30
2021-12-10 14:03:53.719530,-21
2021-12-10 14:03:53.719538,-28
2021-12-10 14:03:53.719546,-28
2021-12-10 14:03:53.719555,-59
2021-12-10 14:03:53.719563,-114
2021-12-10 14:03:53.900127,-126
2021-12-10 14:03:53.900149,-92
2021-12-10 14:03:53.900159,-83
2021-12-10 14:03:53.900168,-90
2021-12-10 14:03:53.900176,-85
2021-12-10 14:03:53.900184,-83
2021-12-10 14:03:53.900193,-85
2021-12-10 14:03:53.900201,-107
2021-12-10 14:03:53.900210,-202
2021-12-10 14:03:53.900218,-214
2021-12-10 14:03:53.900227,140
2021-12-10 14:03:53.900235,882
2021-12-10 14:03:53.900244,1599
2021-12-10 14:03:53.900252,1523
2021-12-10 14:03:53.900261,500
2021-12-10 14:03:53.900269,-302
2021-12-10 14:03:53.900277,-233
2021-12-10 14:03:53.900286,-42
2021-12-10 14:03:53.900294,-154
2021-12-10 14:03:53.900303,-185
2021-12-10 14:03:53.900311,-102
2021-12-10 14:03:53.900320,-114
2021-12-10 14:03:53.900328,-147
2021-12-10 14:03:53.900337,-131
2021-12-10 14:03:53.900345,-109
2021-12-10 14:03:53.900354,-90
2021-12-10 14:03:53.900362,-69
2021-12-10 14:03:53.900370,-57
2021-12-10 14:03:53.900379,-52
2021-12-10 14:03:53.900387,-33
2021-12-10 14:03:54.169988,-4
2021-12-10 14:03:54.170009,21
2021-12-10 14:03:54.170018,40
2021-12-10 14:03:54.170027,50
2021-12-10 14:03:54.170036,45
2021-12-10 14:03:54.170044,40
2021-12-10 14:03:54.170053,69
2021-12-10 14:03:54.170061,95
2021-12-10 14:03:54.170070,90
2021-12-10 14:03:54.170078,64
2021-12-10 14:03:54.170087,30
2021-12-10 14:03:54.170095,9
2021-12-10 14:03:54.170103,9
2021-12-10 14:03:54.170112,7
2021-12-10 14:03:54.170120,-11
2021-12-10 14:03:54.170130,-35
2021-12-10 14:03:54.170138,-61
2021-12-10 14:03:54.170147,-71
2021-12-10 14:03:54.170155,-71
2021-12-10 14:03:54.170163,-90
2021-12-10 14:03:54.170172,-112
2021-12-10 14:03:54.170180,-121
2021-12-10 14:03:54.170188,-126
2021-12-10 14:03:54.170197,-116
2021-12-10 14:03:54.170205,-88
2021-12-10 14:03:54.170214,-71
2021-12-10 14:03:54.170222,-66
2021-12-10 14:03:54.170230,-66
2021-12-10 14:03:54.170239,-76
2021-12-10 14:03:54.170247,-85
2021-12-10 14:03:54.305642,-81
2021-12-10 14:03:54.305666,-81
2021-12-10 14:03:54.305675,-97
2021-12-10 14:03:54.305684,-119
2021-12-10 14:03:54.305692,-140
2021-12-10 14:03:54.305701,-147
2021-12-10 14:03:54.305709,-128
2021-12-10 14:03:54.305718,-112
2021-12-10 14:03:54.305726,-112
2021-12-10 14:03:54.305735,-123
2021-12-10 14:03:54.305743,-126
2021-12-10 14:03:54.305751,-109
2021-12-10 14:03:54.305760,-90
2021-12-10 14:03:54.305768,-81
2021-12-10 14:03:54.305777,-85
2021-12-10 14:03:54.305785,-109
2021-12-10 14:03:54.305794,-123
2021-12-10 14:03:54.305802,-104
2021-12-10 14:03:54.305810,-85
2021-12-10 14:03:54.305819,-78
2021-12-10 14:03:54.305827,-69
2021-12-10 14:03:54.305836,-64
2021-12-10 14:03:54.305844,-52
2021-12-10 14:03:54.305852,-28
2021-12-10 14:03:54.305861,-21
2021-12-10 14:03:54.305869,-19
2021-12-10 14:03:54.305877,-28
2021-12-10 14:03:54.305886,-64
2021-12-10 14:03:54.305894,-71
2021-12-10 14:03:54.305902,-45
2021-12-10 14:03:54.530688,-33
2021-12-10 14:03:54.530710,-30
2021-12-10 14:03:54.530720,-28
2021-12-10 14:03:54.530729,-40
2021-12-10 14:03:54.530738,-38
2021-12-10 14:03:54.530747,-40
2021-12-10 14:03:54.530755,-119
2021-12-10 14:03:54.530764,-174
2021-12-10 14:03:54.530773,76
2021-12-10 14:03:54.530781,732
2021-12-10 14:03:54.530790,1521
2021-12-10 14:03:54.530798,1692
2021-12-10 14:03:54.530807,822
2021-12-10 14:03:54.530815,-133
2021-12-10 14:03:54.530824,-245
2021-12-10 14:03:54.530833,-28
2021-12-10 14:03:54.530841,-85
2021-12-10 14:03:54.530850,-152
2021-12-10 14:03:54.530858,-83
2021-12-10 14:03:54.530867,-61
2021-12-10 14:03:54.530875,-95
2021-12-10 14:03:54.530883,-90
2021-12-10 14:03:54.530892,-64
2021-12-10 14:03:54.530900,-61
2021-12-10 14:03:54.530909,-64
2021-12-10 14:03:54.530918,-42
2021-12-10 14:03:54.530926,-28
2021-12-10 14:03:54.530934,-28
2021-12-10 14:03:54.530943,-7
2021-12-10 14:03:54.530951,23
2021-12-10 14:03:54.755292,45
2021-12-10 14:03:54.755315,57
2021-12-10 14:03:54.755325,54
2021-12-10 14:03:54.755334,47
2021-12-10 14:03:54.755343,57
2021-12-10 14:03:54.755351,81
2021-12-10 14:03:54.755360,92
2021-12-10 14:03:54.755369,83
2021-12-10 14:03:54.755377,50
2021-12-10 14:03:54.755386,9
2021-12-10 14:03:54.755394,-21
2021-12-10 14:03:54.755403,-54
2021-12-10 14:03:54.755411,-69
2021-12-10 14:03:54.755420,-78
2021-12-10 14:03:54.755428,-116
2021-12-10 14:03:54.755437,-138
2021-12-10 14:03:54.755445,-119
2021-12-10 14:03:54.755454,-102
2021-12-10 14:03:54.755462,-102
2021-12-10 14:03:54.755470,-102
2021-12-10 14:03:54.755478,-102
2021-12-10 14:03:54.755487,-97
2021-12-10 14:03:54.755495,-92
2021-12-10 14:03:54.755504,-95
2021-12-10 14:03:54.755512,-92
2021-12-10 14:03:54.755521,-102
2021-12-10 14:03:54.755529,-131
2021-12-10 14:03:54.755537,-135
2021-12-10 14:03:54.755546,-114
2021-12-10 14:03:54.755554,-102
2021-12-10 14:03:54.980233,-97
2021-12-10 14:03:54.980256,-95
2021-12-10 14:03:54.980266,-102
2021-12-10 14:03:54.980274,-100
2021-12-10 14:03:54.980283,-88
2021-12-10 14:03:54.980291,-78
2021-12-10 14:03:54.980300,-76
2021-12-10 14:03:54.980308,-92
2021-12-10 14:03:54.980316,-112
2021-12-10 14:03:54.980325,-104
2021-12-10 14:03:54.980333,-78
2021-12-10 14:03:54.980341,-64
2021-12-10 14:03:54.980349,-61
2021-12-10 14:03:54.980358,-78
2021-12-10 14:03:54.980366,-90
2021-12-10 14:03:54.980374,-76
2021-12-10 14:03:54.980382,-64
2021-12-10 14:03:54.980391,-54
2021-12-10 14:03:54.980399,-42
2021-12-10 14:03:54.980407,-38
2021-12-10 14:03:54.980415,-33
2021-12-10 14:03:54.980424,-23
2021-12-10 14:03:54.980432,-4
2021-12-10 14:03:54.980440,33
2021-12-10 14:03:54.980449,50
2021-12-10 14:03:54.980457,30
2021-12-10 14:03:54.980465,23
2021-12-10 14:03:54.980474,7
2021-12-10 14:03:54.980482,-33
2021-12-10 14:03:54.980491,-38
2021-12-10 14:03:55.205733,-21
2021-12-10 14:03:55.205756,-28
2021-12-10 14:03:55.205765,-38
2021-12-10 14:03:55.205775,-30
2021-12-10 14:03:55.205784,-23
2021-12-10 14:03:55.205793,-21
2021-12-10 14:03:55.205801,-61
2021-12-10 14:03:55.205810,-178
2021-12-10 14:03:55.205818,-245
2021-12-10 14:03:55.205827,-26
2021-12-10 14:03:55.205835,596
2021-12-10 14:03:55.205844,1385
2021-12-10 14:03:55.205852,1616
2021-12-10 14:03:55.205861,820
2021-12-10 14:03:55.205869,-150
2021-12-10 14:03:55.205878,-319
2021-12-10 14:03:55.205886,-109
2021-12-10 14:03:55.205894,-147
2021-12-10 14:03:55.205903,-224
2021-12-10 14:03:55.205911,-164
2021-12-10 14:03:55.205920,-135
2021-12-10 14:03:55.205928,-150
2021-12-10 14:03:55.205937,-123
2021-12-10 14:03:55.205945,-95
2021-12-10 14:03:55.205953,-104
2021-12-10 14:03:55.205962,-109
2021-12-10 14:03:55.205971,-85
2021-12-10 14:03:55.205979,-71
2021-12-10 14:03:55.205987,-64
2021-12-10 14:03:55.205996,-50
2021-12-10 14:03:55.430701,-45
2021-12-10 14:03:55.430724,-33
2021-12-10 14:03:55.430733,-7
2021-12-10 14:03:55.430742,9
2021-12-10 14:03:55.430751,28
2021-12-10 14:03:55.430759,40
2021-12-10 14:03:55.430768,30
2021-12-10 14:03:55.430776,33
2021-12-10 14:03:55.430785,47
2021-12-10 14:03:55.430793,42
2021-12-10 14:03:55.430802,35
2021-12-10 14:03:55.430810,19
2021-12-10 14:03:55.430819,-14
2021-12-10 14:03:55.430827,-23
2021-12-10 14:03:55.430835,-21
2021-12-10 14:03:55.430844,-50
2021-12-10 14:03:55.430852,-76
2021-12-10 14:03:55.430860,-90
2021-12-10 14:03:55.430869,-112
2021-12-10 14:03:55.430877,-119
2021-12-10 14:03:55.430885,-112
2021-12-10 14:03:55.430893,-114
2021-12-10 14:03:55.430902,-107
2021-12-10 14:03:55.430910,-95
2021-12-10 14:03:55.430918,-92
2021-12-10 14:03:55.430926,-78
2021-12-10 14:03:55.430935,-69
2021-12-10 14:03:55.430943,-71
2021-12-10 14:03:55.430952,-69
2021-12-10 14:03:55.430960,-61
2021-12-10 14:03:55.744313,-54
2021-12-10 14:03:55.744336,-52
2021-12-10 14:03:55.744346,-66
2021-12-10 14:03:55.744355,-76
2021-12-10 14:03:55.744363,-71
2021-12-10 14:03:55.744372,-83
2021-12-10 14:03:55.744380,-97
2021-12-10 14:03:55.744389,-78
2021-12-10 14:03:55.744397,-59
2021-12-10 14:03:55.744406,-61
2021-12-10 14:03:55.744414,-64
2021-12-10 14:03:55.744423,-73
2021-12-10 14:03:55.744431,-78
2021-12-10 14:03:55.744439,-59
2021-12-10 14:03:55.744448,-45
2021-12-10 14:03:55.744456,-45
2021-12-10 14:03:55.744464,-40
2021-12-10 14:03:55.744473,-40
2021-12-10 14:03:55.744481,-30
2021-12-10 14:03:55.744489,-14
2021-12-10 14:03:55.744498,-26
2021-12-10 14:03:55.744506,-61
2021-12-10 14:03:55.744515,-64
2021-12-10 14:03:55.744523,-23
2021-12-10 14:03:55.744531,9
2021-12-10 14:03:55.744540,11
2021-12-10 14:03:55.744548,11
2021-12-10 14:03:55.744557,14
2021-12-10 14:03:55.744565,-2
2021-12-10 14:03:55.744573,-21
2021-12-10 14:03:55.880661,-11
2021-12-10 14:03:55.880684,4
2021-12-10 14:03:55.880694,7
2021-12-10 14:03:55.880703,-11
2021-12-10 14:03:55.880711,-42
2021-12-10 14:03:55.880720,-45
2021-12-10 14:03:55.880728,-30
2021-12-10 14:03:55.880737,-69
2021-12-10 14:03:55.880745,-169
2021-12-10 14:03:55.880753,-126
2021-12-10 14:03:55.880761,290
2021-12-10 14:03:55.880769,1058
2021-12-10 14:03:55.880778,1707
2021-12-10 14:03:55.880786,1421
2021-12-10 14:03:55.880797,302
2021-12-10 14:03:55.880806,-345
2021-12-10 14:03:55.880814,-190
2021-12-10 14:03:55.880823,-85
2021-12-10 14:03:55.880831,-178
2021-12-10 14:03:55.880839,-145
2021-12-10 14:03:55.880847,-90
2021-12-10 14:03:55.880856,-116
2021-12-10 14:03:55.880864,-112
2021-12-10 14:03:55.880872,-71
2021-12-10 14:03:55.880881,-57
2021-12-10 14:03:55.880889,-40
2021-12-10 14:03:55.880897,-14
2021-12-10 14:03:55.880905,-14
2021-12-10 14:03:55.880913,-16
2021-12-10 14:03:55.880921,9
2021-12-10 14:03:56.105784,42
2021-12-10 14:03:56.105805,59
2021-12-10 14:03:56.105815,73
2021-12-10 14:03:56.105823,66
2021-12-10 14:03:56.105832,42
2021-12-10 14:03:56.105840,35
2021-12-10 14:03:56.105848,28
2021-12-10 14:03:56.105857,7
2021-12-10 14:03:56.105865,-16
2021-12-10 14:03:56.105873,-50
2021-12-10 14:03:56.105881,-83
2021-12-10 14:03:56.105890,-90
2021-12-10 14:03:56.105898,-83
2021-12-10 14:03:56.105906,-85
2021-12-10 14:03:56.105915,-92
2021-12-10 14:03:56.105923,-107
2021-12-10 14:03:56.105931,-116
2021-12-10 14:03:56.105940,-109
2021-12-10 14:03:56.105948,-102
2021-12-10 14:03:56.105956,-102
2021-12-10 14:03:56.105965,-104
2021-12-10 14:03:56.105973,-114
2021-12-10 14:03:56.105981,-121
2021-12-10 14:03:56.105990,-107
2021-12-10 14:03:56.105998,-78
2021-12-10 14:03:56.106006,-73
2021-12-10 14:03:56.106014,-97
2021-12-10 14:03:56.106023,-112
2021-12-10 14:03:56.106031,-97
2021-12-10 14:03:56.106039,-78
2021-12-10 14:03:56.375866,-66
2021-12-10 14:03:56.375888,-52
2021-12-10 14:03:56.375898,-47
2021-12-10 14:03:56.375907,-76
2021-12-10 14:03:56.375916,-88
2021-12-10 14:03:56.375924,-61
2021-12-10 14:03:56.375933,-45
2021-12-10 14:03:56.375941,-52
2021-12-10 14:03:56.375950,-81
2021-12-10 14:03:56.375959,-116
2021-12-10 14:03:56.375967,-107
2021-12-10 14:03:56.375975,-76
2021-12-10 14:03:56.375984,-64
2021-12-10 14:03:56.375992,-57
2021-12-10 14:03:56.376001,-54
2021-12-10 14:03:56.376010,-61
2021-12-10 14:03:56.376018,-54
2021-12-10 14:03:56.376027,-30
2021-12-10 14:03:56.376035,-19
2021-12-10 14:03:56.376044,-14
2021-12-10 14:03:56.376052,-14
2021-12-10 14:03:56.376061,-4
2021-12-10 14:03:56.376069,28
2021-12-10 14:03:56.376078,50
2021-12-10 14:03:56.376086,54
2021-12-10 14:03:56.376095,64
2021-12-10 14:03:56.376103,47
2021-12-10 14:03:56.376112,14
2021-12-10 14:03:56.376120,16
2021-12-10 14:03:56.376129,40
2021-12-10 14:03:56.600705,45
2021-12-10 14:03:56.600727,45
2021-12-10 14:03:56.600737,42
2021-12-10 14:03:56.600746,33
2021-12-10 14:03:56.600754,33
2021-12-10 14:03:56.600763,2
2021-12-10 14:03:56.600771,-116
2021-12-10 14:03:56.600779,-157
2021-12-10 14:03:56.600788,174
2021-12-10 14:03:56.600796,901
2021-12-10 14:03:56.600805,1630
2021-12-10 14:03:56.600813,1576
2021-12-10 14:03:56.600821,541
2021-12-10 14:03:56.600830,-309
2021-12-10 14:03:56.600838,-276
2021-12-10 14:03:56.600846,-95
2021-12-10 14:03:56.600855,-174
2021-12-10 14:03:56.600863,-188
2021-12-10 14:03:56.600872,-119
2021-12-10 14:03:56.600880,-121
2021-12-10 14:03:56.600888,-131
2021-12-10 14:03:56.600897,-102
2021-12-10 14:03:56.600905,-81
2021-12-10 14:03:56.600913,-61
2021-12-10 14:03:56.600921,-38
2021-12-10 14:03:56.600930,-28
2021-12-10 14:03:56.600938,-40
2021-12-10 14:03:56.600946,-45
2021-12-10 14:03:56.600955,-30
2021-12-10 14:03:56.600963,-26
2021-12-10 14:03:56.825150,-16
2021-12-10 14:03:56.825169,-9
2021-12-10 14:03:56.825179,-30
2021-12-10 14:03:56.825188,-40
2021-12-10 14:03:56.825196,-7
2021-12-10 14:03:56.825205,16
2021-12-10 14:03:56.825213,11
2021-12-10 14:03:56.825221,-4
2021-12-10 14:03:56.825230,-33
2021-12-10 14:03:56.825238,-50
2021-12-10 14:03:56.825247,-50
2021-12-10 14:03:56.825255,-61
2021-12-10 14:03:56.825264,-100
2021-12-10 14:03:56.825272,-140
2021-12-10 14:03:56.825280,-159
2021-12-10 14:03:56.825289,-162
2021-12-10 14:03:56.825297,-159
2021-12-10 14:03:56.825305,-157
2021-12-10 14:03:56.825314,-152
2021-12-10 14:03:56.825322,-145
2021-12-10 14:03:56.825330,-140
2021-12-10 14:03:56.825339,-133
2021-12-10 14:03:56.825347,-114
2021-12-10 14:03:56.825356,-92
2021-12-10 14:03:56.825364,-81
2021-12-10 14:03:56.825372,-76
2021-12-10 14:03:56.825381,-71
2021-12-10 14:03:56.825389,-59
2021-12-10 14:03:56.825397,-42
2021-12-10 14:03:56.825406,-30
2021-12-10 14:03:57.050673,-26
2021-12-10 14:03:57.050694,-21
2021-12-10 14:03:57.050704,-19
2021-12-10 14:03:57.050713,-14
2021-12-10 14:03:57.050722,-7
2021-12-10 14:03:57.050730,2
2021-12-10 14:03:57.050739,-2
2021-12-10 14:03:57.050747,-28
2021-12-10 14:03:57.050756,-35
2021-12-10 14:03:57.050764,-21
2021-12-10 14:03:57.050773,-11
2021-12-10 14:03:57.050781,-2
2021-12-10 14:03:57.050789,-7
2021-12-10 14:03:57.050798,-38
2021-12-10 14:03:57.050806,-57
2021-12-10 14:03:57.050815,-57
2021-12-10 14:03:57.050823,-45
2021-12-10 14:03:57.050832,-35
2021-12-10 14:03:57.050840,-38
2021-12-10 14:03:57.050848,-35
2021-12-10 14:03:57.050857,-26
2021-12-10 14:03:57.050865,-11
2021-12-10 14:03:57.050874,19
2021-12-10 14:03:57.050882,42
2021-12-10 14:03:57.050891,33
2021-12-10 14:03:57.050899,30
2021-12-10 14:03:57.050907,40
2021-12-10 14:03:57.050916,21
2021-12-10 14:03:57.050924,0
2021-12-10 14:03:57.050933,0
2021-12-10 14:03:57.275288,0
2021-12-10 14:03:57.275309,-9
2021-12-10 14:03:57.275319,-9
2021-12-10 14:03:57.275327,-4
2021-12-10 14:03:57.275336,-4
2021-12-10 14:03:57.275345,-21
2021-12-10 14:03:57.275353,-121
2021-12-10 14:03:57.275361,-259
2021-12-10 14:03:57.275370,-157
2021-12-10 14:03:57.275378,398
2021-12-10 14:03:57.275387,1249
2021-12-10 14:03:57.275395,1769
2021-12-10 14:03:57.275404,1213
2021-12-10 14:03:57.275412,35
2021-12-10 14:03:57.275421,-431
2021-12-10 14:03:57.275429,-197
2021-12-10 14:03:57.275438,-152
2021-12-10 14:03:57.275446,-271
2021-12-10 14:03:57.275455,-233
2021-12-10 14:03:57.275463,-183
2021-12-10 14:03:57.275472,-207
2021-12-10 14:03:57.275480,-214
2021-12-10 14:03:57.275489,-190
2021-12-10 14:03:57.275497,-183
2021-12-10 14:03:57.275506,-195
2021-12-10 14:03:57.275514,-185
2021-12-10 14:03:57.275523,-171
2021-12-10 14:03:57.275531,-169
2021-12-10 14:03:57.275540,-143
2021-12-10 14:03:57.275548,-109
2021-12-10 14:03:57.545062,-97
2021-12-10 14:03:57.545085,-83
2021-12-10 14:03:57.545094,-61
2021-12-10 14:03:57.545103,-50
2021-12-10 14:03:57.545112,-35
2021-12-10 14:03:57.545120,-33
2021-12-10 14:03:57.545128,-40
2021-12-10 14:03:57.545137,-26
2021-12-10 14:03:57.545145,-16
2021-12-10 14:03:57.545153,-26
2021-12-10 14:03:57.545161,-42
2021-12-10 14:03:57.545170,-76
2021-12-10 14:03:57.545178,-100
2021-12-10 14:03:57.545187,-88
2021-12-10 14:03:57.545195,-88
2021-12-10 14:03:57.545203,-112
2021-12-10 14:03:57.545211,-114
2021-12-10 14:03:57.545220,-112
2021-12-10 14:03:57.545228,-131
2021-12-10 14:03:57.545236,-133
2021-12-10 14:03:57.545245,-114
2021-12-10 14:03:57.545253,-112
2021-12-10 14:03:57.545261,-109
2021-12-10 14:03:57.545269,-95
2021-12-10 14:03:57.545278,-76
2021-12-10 14:03:57.545286,-47
2021-12-10 14:03:57.545294,-21
2021-12-10 14:03:57.545302,-7
2021-12-10 14:03:57.545311,-2
2021-12-10 14:03:57.545319,0
2021-12-10 14:03:57.768979,9
2021-12-10 14:03:57.769002,28
2021-12-10 14:03:57.769011,33
2021-12-10 14:03:57.769020,26
2021-12-10 14:03:57.769028,16
2021-12-10 14:03:57.769037,11
2021-12-10 14:03:57.769045,23
2021-12-10 14:03:57.769054,38
2021-12-10 14:03:57.769062,40
2021-12-10 14:03:57.769070,33
2021-12-10 14:03:57.769079,19
2021-12-10 14:03:57.769087,-2
2021-12-10 14:03:57.769096,-23
2021-12-10 14:03:57.769104,-40
2021-12-10 14:03:57.769112,-42
2021-12-10 14:03:57.769121,-38
2021-12-10 14:03:57.769129,-38
2021-12-10 14:03:57.769138,-30
2021-12-10 14:03:57.769146,-11
2021-12-10 14:03:57.769154,-4
2021-12-10 14:03:57.769163,-23
2021-12-10 14:03:57.769171,-42
2021-12-10 14:03:57.769179,-45
2021-12-10 14:03:57.769187,-35
2021-12-10 14:03:57.769196,-19
2021-12-10 14:03:57.769204,16
2021-12-10 14:03:57.769212,47
2021-12-10 14:03:57.769221,35
2021-12-10 14:03:57.769229,14
2021-12-10 14:03:57.769237,4
2021-12-10 14:03:57.950666,-7
2021-12-10 14:03:57.950689,-14
2021-12-10 14:03:57.950699,-9
2021-12-10 14:03:57.950708,-33
2021-12-10 14:03:57.950716,-66
2021-12-10 14:03:57.950725,-59
2021-12-10 14:03:57.950733,-35
2021-12-10 14:03:57.950742,-23
2021-12-10 14:03:57.950750,-26
2021-12-10 14:03:57.950759,-92
2021-12-10 14:03:57.950767,-226
2021-12-10 14:03:57.950776,-200
2021-12-10 14:03:57.950784,219
2021-12-10 14:03:57.950793,1003
2021-12-10 14:03:57.950801,1735
2021-12-10 14:03:57.950810,1597
2021-12-10 14:03:57.950818,493
2021-12-10 14:03:57.950826,-305
2021-12-10 14:03:57.950835,-197
2021-12-10 14:03:57.950843,-28
2021-12-10 14:03:57.950852,-159
2021-12-10 14:03:57.950860,-205
2021-12-10 14:03:57.950869,-162
2021-12-10 14:03:57.950877,-190
2021-12-10 14:03:57.950885,-188
2021-12-10 14:03:57.950894,-145
2021-12-10 14:03:57.950902,-138
2021-12-10 14:03:57.950910,-147
2021-12-10 14:03:57.950919,-131
2021-12-10 14:03:57.950927,-102
2021-12-10 14:03:58.220767,-81
2021-12-10 14:03:58.220788,-64
2021-12-10 14:03:58.220798,-54
2021-12-10 14:03:58.220807,-71
2021-12-10 14:03:58.220816,-71
2021-12-10 14:03:58.220824,-30
2021-12-10 14:03:58.220833,4
2021-12-10 14:03:58.220842,19
2021-12-10 14:03:58.220850,26
2021-12-10 14:03:58.220858,14
2021-12-10 14:03:58.220867,9
2021-12-10 14:03:58.220875,28
2021-12-10 14:03:58.220883,35
2021-12-10 14:03:58.220892,28
2021-12-10 14:03:58.220900,14
2021-12-10 14:03:58.220908,-9
2021-12-10 14:03:58.220917,-23
2021-12-10 14:03:58.220925,-21
2021-12-10 14:03:58.220935,-42
2021-12-10 14:03:58.220944,-90
2021-12-10 14:03:58.220952,-119
2021-12-10 14:03:58.220960,-123
2021-12-10 14:03:58.220969,-121
2021-12-10 14:03:58.220977,-114
2021-12-10 14:03:58.220986,-116
2021-12-10 14:03:58.220994,-119
2021-12-10 14:03:58.221003,-116
2021-12-10 14:03:58.221011,-114
2021-12-10 14:03:58.221019,-104
2021-12-10 14:03:58.221028,-83
2021-12-10 14:03:58.445578,-69
2021-12-10 14:03:58.445597,-59
2021-12-10 14:03:58.445607,-59
2021-12-10 14:03:58.445616,-66
2021-12-10 14:03:58.445624,-54
2021-12-10 14:03:58.445633,-30
2021-12-10 14:03:58.445641,-21
2021-12-10 14:03:58.445650,-23
2021-12-10 14:03:58.445658,-42
2021-12-10 14:03:58.445666,-64
2021-12-10 14:03:58.445675,-50
2021-12-10 14:03:58.445683,-26
2021-12-10 14:03:58.445691,-21
2021-12-10 14:03:58.445700,-26
2021-12-10 14:03:58.445708,-45
2021-12-10 14:03:58.445716,-59
2021-12-10 14:03:58.445725,-40
2021-12-10 14:03:58.445733,-21
2021-12-10 14:03:58.445741,-14
2021-12-10 14:03:58.445752,-7
2021-12-10 14:03:58.445761,-11
2021-12-10 14:03:58.445769,-19
2021-12-10 14:03:58.445778,-7
2021-12-10 14:03:58.445786,11
2021-12-10 14:03:58.445794,19
2021-12-10 14:03:58.445803,23
2021-12-10 14:03:58.445811,11
2021-12-10 14:03:58.445819,-7
2021-12-10 14:03:58.445828,2
2021-12-10 14:03:58.445836,21
2021-12-10 14:03:58.670405,7
2021-12-10 14:03:58.670428,-14
2021-12-10 14:03:58.670438,-9
2021-12-10 14:03:58.670447,11
2021-12-10 14:03:58.670455,40
2021-12-10 14:03:58.670464,45
2021-12-10 14:03:58.670472,35
2021-12-10 14:03:58.670481,21
2021-12-10 14:03:58.670489,-16
2021-12-10 14:03:58.670498,-42
2021-12-10 14:03:58.670506,-28
2021-12-10 14:03:58.670515,-11
2021-12-10 14:03:58.670523,-16
2021-12-10 14:03:58.670532,-33
2021-12-10 14:03:58.670540,-52
2021-12-10 14:03:58.670548,-47
2021-12-10 14:03:58.670557,-33
2021-12-10 14:03:58.670565,-64
2021-12-10 14:03:58.670574,-162
2021-12-10 14:03:58.670582,-162
2021-12-10 14:03:58.670591,178
2021-12-10 14:03:58.670599,906
2021-12-10 14:03:58.670607,1654
2021-12-10 14:03:58.670616,1609
2021-12-10 14:03:58.670624,541
2021-12-10 14:03:58.670632,-369
2021-12-10 14:03:58.670641,-345
2021-12-10 14:03:58.670649,-133
2021-12-10 14:03:58.670657,-250
2021-12-10 14:03:58.670666,-319
2021-12-10 14:03:58.895686,-240
2021-12-10 14:03:58.895709,-240
2021-12-10 14:03:58.895718,-262
2021-12-10 14:03:58.895727,-216
2021-12-10 14:03:58.895735,-181
2021-12-10 14:03:58.895744,-176
2021-12-10 14:03:58.895752,-171
2021-12-10 14:03:58.895761,-171
2021-12-10 14:03:58.895769,-159
2021-12-10 14:03:58.895778,-133
2021-12-10 14:03:58.895786,-107
2021-12-10 14:03:58.895795,-85
2021-12-10 14:03:58.895803,-76
2021-12-10 14:03:58.895811,-73
2021-12-10 14:03:58.895820,-54
2021-12-10 14:03:58.895828,-23
2021-12-10 14:03:58.895836,-2
2021-12-10 14:03:58.895845,14
2021-12-10 14:03:58.895853,21
2021-12-10 14:03:58.895862,21
2021-12-10 14:03:58.895870,28
2021-12-10 14:03:58.895879,23
2021-12-10 14:03:58.895887,9
2021-12-10 14:03:58.895896,4
2021-12-10 14:03:58.895904,-7
2021-12-10 14:03:58.895912,-23
2021-12-10 14:03:58.895921,-19
2021-12-10 14:03:58.895929,-16
2021-12-10 14:03:58.895937,-26
2021-12-10 14:03:58.895946,-23
2021-12-10 14:03:59.210412,-33
2021-12-10 14:03:59.210434,-52
2021-12-10 14:03:59.210443,-47
2021-12-10 14:03:59.210452,-35
2021-12-10 14:03:59.210461,-28
2021-12-10 14:03:59.210469,-21
2021-12-10 14:03:59.210478,-38
2021-12-10 14:03:59.210486,-47
2021-12-10 14:03:59.210495,-33
2021-12-10 14:03:59.210503,-21
2021-12-10 14:03:59.210512,-21
2021-12-10 14:03:59.210520,-23
2021-12-10 14:03:59.210528,-40
2021-12-10 14:03:59.210536,-45
2021-12-10 14:03:59.210545,-28
2021-12-10 14:03:59.210553,-16
2021-12-10 14:03:59.210562,-11
2021-12-10 14:03:59.210570,-2
2021-12-10 14:03:59.210578,-4
2021-12-10 14:03:59.210586,-4
2021-12-10 14:03:59.210595,2
2021-12-10 14:03:59.210603,7
2021-12-10 14:03:59.210612,9
2021-12-10 14:03:59.210622,14
2021-12-10 14:03:59.210630,14
2021-12-10 14:03:59.210638,21
2021-12-10 14:03:59.210647,30
2021-12-10 14:03:59.210655,33
2021-12-10 14:03:59.210663,42
2021-12-10 14:03:59.210672,42
2021-12-10 14:03:59.390684,2
2021-12-10 14:03:59.390705,-42
2021-12-10 14:03:59.390715,-57
2021-12-10 14:03:59.390724,-66
2021-12-10 14:03:59.390732,-71
2021-12-10 14:03:59.390740,-66
2021-12-10 14:03:59.390749,-66
2021-12-10 14:03:59.390757,-59
2021-12-10 14:03:59.390765,-50
2021-12-10 14:03:59.390774,-47
2021-12-10 14:03:59.390782,-28
2021-12-10 14:03:59.390790,-4
2021-12-10 14:03:59.390799,-7
2021-12-10 14:03:59.390807,-9
2021-12-10 14:03:59.390815,4
2021-12-10 14:03:59.390823,-2
2021-12-10 14:03:59.390832,-33
2021-12-10 14:03:59.390840,-59
2021-12-10 14:03:59.390848,-69
2021-12-10 14:03:59.390857,-54
2021-12-10 14:03:59.390865,-42
2021-12-10 14:03:59.390873,-59
2021-12-10 14:03:59.390881,-83
2021-12-10 14:03:59.390890,-114
2021-12-10 14:03:59.390898,-178
2021-12-10 14:03:59.390907,-264
2021-12-10 14:03:59.390915,-243
2021-12-10 14:03:59.390923,109
2021-12-10 14:03:59.390932,836
2021-12-10 14:03:59.390940,1559
2021-12-10 14:03:59.570262,1495
2021-12-10 14:03:59.570284,495
2021-12-10 14:03:59.570293,-309
2021-12-10 14:03:59.570303,-269
2021-12-10 14:03:59.570311,-95
2021-12-10 14:03:59.570320,-209
2021-12-10 14:03:59.570328,-250
2021-12-10 14:03:59.570337,-164
2021-12-10 14:03:59.570345,-154
2021-12-10 14:03:59.570354,-174
2021-12-10 14:03:59.570362,-166
2021-12-10 14:03:59.570371,-171
2021-12-10 14:03:59.570379,-154
2021-12-10 14:03:59.570388,-114
2021-12-10 14:03:59.570396,-92
2021-12-10 14:03:59.570405,-95
2021-12-10 14:03:59.570413,-100
2021-12-10 14:03:59.570421,-90
2021-12-10 14:03:59.570430,-57
2021-12-10 14:03:59.570439,-23
2021-12-10 14:03:59.570447,-14
2021-12-10 14:03:59.570456,-9
2021-12-10 14:03:59.570464,7
2021-12-10 14:03:59.570473,30
2021-12-10 14:03:59.570481,54
2021-12-10 14:03:59.570490,69
2021-12-10 14:03:59.570499,66
2021-12-10 14:03:59.570507,54
2021-12-10 14:03:59.570516,38
2021-12-10 14:03:59.570524,33
2021-12-10 14:03:59.884064,33
2021-12-10 14:03:59.884086,26
2021-12-10 14:03:59.884096,16
2021-12-10 14:03:59.884105,-2
2021-12-10 14:03:59.884114,-38
2021-12-10 14:03:59.884122,-81
2021-12-10 14:03:59.884131,-116
2021-12-10 14:03:59.884139,-133
2021-12-10 14:03:59.884147,-131
2021-12-10 14:03:59.884155,-145
2021-12-10 14:03:59.884164,-171
2021-12-10 14:03:59.884172,-150
2021-12-10 14:03:59.884180,-109
2021-12-10 14:03:59.884189,-104
2021-12-10 14:03:59.884197,-104
2021-12-10 14:03:59.884205,-97
2021-12-10 14:03:59.884214,-97
2021-12-10 14:03:59.884222,-83
2021-12-10 14:03:59.884230,-52
2021-12-10 14:03:59.884239,-35
2021-12-10 14:03:59.884247,-42
2021-12-10 14:03:59.884255,-57
2021-12-10 14:03:59.884263,-64
2021-12-10 14:03:59.884272,-61
2021-12-10 14:03:59.884280,-47
2021-12-10 14:03:59.884288,-23
2021-12-10 14:03:59.884296,-9
2021-12-10 14:03:59.884304,-19
2021-12-10 14:03:59.884313,-45
2021-12-10 14:03:59.884321,-57
2021-12-10 14:04:00.065682,-47
2021-12-10 14:04:00.065704,-28
2021-12-10 14:04:00.065713,-28
2021-12-10 14:04:00.065722,-45
2021-12-10 14:04:00.065730,-40
2021-12-10 14:04:00.065739,-14
2021-12-10 14:04:00.065747,2
2021-12-10 14:04:00.065755,-2
2021-12-10 14:04:00.065764,-16
2021-12-10 14:04:00.065772,-38
2021-12-10 14:04:00.065781,-28
2021-12-10 14:04:00.065789,14
2021-12-10 14:04:00.065798,33
2021-12-10 14:04:00.065806,38
2021-12-10 14:04:00.065814,30
2021-12-10 14:04:00.065823,-14
2021-12-10 14:04:00.065831,-45
2021-12-10 14:04:00.065839,-30
2021-12-10 14:04:00.065848,-23
2021-12-10 14:04:00.065856,-45
2021-12-10 14:04:00.065864,-61
2021-12-10 14:04:00.065873,-73
2021-12-10 14:04:00.065881,-88
2021-12-10 14:04:00.065889,-85
2021-12-10 14:04:00.065897,-119
2021-12-10 14:04:00.065906,-228
2021-12-10 14:04:00.065914,-216
2021-12-10 14:04:00.065922,200
2021-12-10 14:04:00.065931,1025
2021-12-10 14:04:00.065939,1766
2021-12-10 14:04:00.290683,1568
2021-12-10 14:04:00.290705,424
2021-12-10 14:04:00.290715,-343
2021-12-10 14:04:00.290723,-214
2021-12-10 14:04:00.290732,-50
2021-12-10 14:04:00.290740,-147
2021-12-10 14:04:00.290749,-143
2021-12-10 14:04:00.290757,-81
2021-12-10 14:04:00.290766,-126
2021-12-10 14:04:00.290774,-162
2021-12-10 14:04:00.290782,-135
2021-12-10 14:04:00.290791,-140
2021-12-10 14:04:00.290799,-147
2021-12-10 14:04:00.290807,-116
2021-12-10 14:04:00.290816,-119
2021-12-10 14:04:00.290824,-140
2021-12-10 14:04:00.290832,-114
2021-12-10 14:04:00.290841,-71
2021-12-10 14:04:00.290849,-50
2021-12-10 14:04:00.290857,-38
2021-12-10 14:04:00.290865,-28
2021-12-10 14:04:00.290874,-14
2021-12-10 14:04:00.290882,11
2021-12-10 14:04:00.290890,33
2021-12-10 14:04:00.290898,50
2021-12-10 14:04:00.290907,52
2021-12-10 14:04:00.290915,35
2021-12-10 14:04:00.290923,19
2021-12-10 14:04:00.290932,14
2021-12-10 14:04:00.290940,7
2021-12-10 14:04:00.560134,-4
2021-12-10 14:04:00.560160,-11
2021-12-10 14:04:00.560170,-19
2021-12-10 14:04:00.560178,-23
2021-12-10 14:04:00.560187,-19
2021-12-10 14:04:00.560196,-16
2021-12-10 14:04:00.560204,-16
2021-12-10 14:04:00.560213,-28
2021-12-10 14:04:00.560221,-54
2021-12-10 14:04:00.560230,-59
2021-12-10 14:04:00.560238,-40
2021-12-10 14:04:00.560247,-30
2021-12-10 14:04:00.560255,-40
2021-12-10 14:04:00.560264,-71
2021-12-10 14:04:00.560302,-90
2021-12-10 14:04:00.560311,-76
2021-12-10 14:04:00.560319,-57
2021-12-10 14:04:00.560328,-42
2021-12-10 14:04:00.560336,-33
2021-12-10 14:04:00.560345,-30
2021-12-10 14:04:00.560353,-35
2021-12-10 14:04:00.560361,-28
2021-12-10 14:04:00.560370,-11
2021-12-10 14:04:00.560378,-2
2021-12-10 14:04:00.560387,2
2021-12-10 14:04:00.560395,-2
2021-12-10 14:04:00.560404,-4
2021-12-10 14:04:00.560412,2
2021-12-10 14:04:00.560421,7
2021-12-10 14:04:00.560429,4
2021-12-10 14:04:00.740275,-9
2021-12-10 14:04:00.740295,-21
2021-12-10 14:04:00.740304,-16
2021-12-10 14:04:00.740313,-16
2021-12-10 14:04:00.740322,-14
2021-12-10 14:04:00.740330,-2
2021-12-10 14:04:00.740338,-7
2021-12-10 14:04:00.740347,-28
2021-12-10 14:04:00.740355,-11
2021-12-10 14:04:00.740363,16
2021-12-10 14:04:00.740372,14
2021-12-10 14:04:00.740380,14
2021-12-10 14:04:00.740389,4
2021-12-10 14:04:00.740397,-42
2021-12-10 14:04:00.740405,-76
2021-12-10 14:04:00.740413,-83
2021-12-10 14:04:00.740422,-104
2021-12-10 14:04:00.740430,-133
2021-12-10 14:04:00.740439,-143
2021-12-10 14:04:00.740447,-145
2021-12-10 14:04:00.740455,-157
2021-12-10 14:04:00.740463,-183
2021-12-10 14:04:00.740472,-274
2021-12-10 14:04:00.740480,-367
2021-12-10 14:04:00.740489,-174
2021-12-10 14:04:00.740497,488
2021-12-10 14:04:00.740506,1387
2021-12-10 14:04:00.740514,1776
2021-12-10 14:04:00.740522,1022
2021-12-10 14:04:00.740531,-135
2021-12-10 14:04:00.965725,-455
2021-12-10 14:04:00.965748,-178
2021-12-10 14:04:00.965758,-166
2021-12-10 14:04:00.965767,-286
2021-12-10 14:04:00.965775,-224
2021-12-10 14:04:00.965784,-185
2021-12-10 14:04:00.965792,-236
2021-12-10 14:04:00.965800,-228
2021-12-10 14:04:00.965809,-181
2021-12-10 14:04:00.965817,-174
2021-12-10 14:04:00.965825,-164
2021-12-10 14:04:00.965834,-138
2021-12-10 14:04:00.965842,-138
2021-12-10 14:04:00.965851,-131
2021-12-10 14:04:00.965859,-100
2021-12-10 14:04:00.965867,-78
2021-12-10 14:04:00.965876,-76
2021-12-10 14:04:00.965884,-76
2021-12-10 14:04:00.965892,-64
2021-12-10 14:04:00.965901,-28
2021-12-10 14:04:00.965909,-2
2021-12-10 14:04:00.965917,9
2021-12-10 14:04:00.965926,23
2021-12-10 14:04:00.965934,28
2021-12-10 14:04:00.965942,21
2021-12-10 14:04:00.965951,16
2021-12-10 14:04:00.965959,16
2021-12-10 14:04:00.965967,7
2021-12-10 14:04:00.965976,-11
2021-12-10 14:04:00.965984,-23
2021-12-10 14:04:01.235768,-30
2021-12-10 14:04:01.235790,-33
2021-12-10 14:04:01.235800,-40
2021-12-10 14:04:01.235809,-54
2021-12-10 14:04:01.235817,-57
2021-12-10 14:04:01.235826,-66
2021-12-10 14:04:01.235834,-85
2021-12-10 14:04:01.235842,-73
2021-12-10 14:04:01.235851,-50
2021-12-10 14:04:01.235859,-47
2021-12-10 14:04:01.235867,-47
2021-12-10 14:04:01.235876,-50
2021-12-10 14:04:01.235884,-59
2021-12-10 14:04:01.235893,-50
2021-12-10 14:04:01.235901,-30
2021-12-10 14:04:01.235909,-30
2021-12-10 14:04:01.235918,-33
2021-12-10 14:04:01.235926,-30
2021-12-10 14:04:01.235934,-33
2021-12-10 14:04:01.235943,-42
2021-12-10 14:04:01.235951,-45
2021-12-10 14:04:01.235960,-35
2021-12-10 14:04:01.235968,-42
2021-12-10 14:04:01.235976,-71
2021-12-10 14:04:01.235984,-76
2021-12-10 14:04:01.235993,-54
2021-12-10 14:04:01.236001,-47
2021-12-10 14:04:01.236009,-50
2021-12-10 14:04:01.236018,-45
2021-12-10 14:04:01.236026,-42
2021-12-10 14:04:01.460708,-35
2021-12-10 14:04:01.460730,-19
2021-12-10 14:04:01.460740,-4
2021-12-10 14:04:01.460749,7
2021-12-10 14:04:01.460758,-11
2021-12-10 14:04:01.460770,-45
2021-12-10 14:04:01.460779,-42
2021-12-10 14:04:01.460787,-30
2021-12-10 14:04:01.460795,-42
2021-12-10 14:04:01.460804,-54
2021-12-10 14:04:01.460812,-59
2021-12-10 14:04:01.460821,-64
2021-12-10 14:04:01.460829,-59
2021-12-10 14:04:01.460837,-45
2021-12-10 14:04:01.460845,-40
2021-12-10 14:04:01.460853,-52
2021-12-10 14:04:01.460862,-131
2021-12-10 14:04:01.460870,-264
2021-12-10 14:04:01.460878,-190
2021-12-10 14:04:01.460887,321
2021-12-10 14:04:01.460895,1175
2021-12-10 14:04:01.460904,1826
2021-12-10 14:04:01.460912,1442
2021-12-10 14:04:01.460920,226
2021-12-10 14:04:01.460929,-433
2021-12-10 14:04:01.460937,-240
2021-12-10 14:04:01.460945,-133
2021-12-10 14:04:01.460954,-276
2021-12-10 14:04:01.460962,-271
2021-12-10 14:04:01.460970,-207
2021-12-10 14:04:01.640358,-216
2021-12-10 14:04:01.640381,-205
2021-12-10 14:04:01.640391,-169
2021-12-10 14:04:01.640399,-176
2021-12-10 14:04:01.640408,-197
2021-12-10 14:04:01.640416,-183
2021-12-10 14:04:01.640425,-147
2021-12-10 14:04:01.640433,-121
2021-12-10 14:04:01.640442,-102
2021-12-10 14:04:01.640450,-92
2021-12-10 14:04:01.640459,-88
2021-12-10 14:04:01.640467,-64
2021-12-10 14:04:01.640476,-28
2021-12-10 14:04:01.640484,-2
2021-12-10 14:04:01.640493,16
2021-12-10 14:04:01.640501,11
2021-12-10 14:04:01.640510,-7
2021-12-10 14:04:01.640518,-2
2021-12-10 14:04:01.640527,11
2021-12-10 14:04:01.640535,7
2021-12-10 14:04:01.640543,-9
2021-12-10 14:04:01.640552,-30
2021-12-10 14:04:01.640560,-59
2021-12-10 14:04:01.640569,-83
2021-12-10 14:04:01.640577,-88
2021-12-10 14:04:01.640585,-81
2021-12-10 14:04:01.640594,-83
2021-12-10 14:04:01.640602,-104
2021-12-10 14:04:01.640611,-133
2021-12-10 14:04:01.640619,-150
2021-12-10 14:04:01.953992,-131
2021-12-10 14:04:01.954015,-104
2021-12-10 14:04:01.954024,-107
2021-12-10 14:04:01.954033,-131
2021-12-10 14:04:01.954042,-138
2021-12-10 14:04:01.954050,-109
2021-12-10 14:04:01.954059,-83
2021-12-10 14:04:01.954067,-78
2021-12-10 14:04:01.954076,-78
2021-12-10 14:04:01.954084,-97
2021-12-10 14:04:01.954093,-104
2021-12-10 14:04:01.954101,-78
2021-12-10 14:04:01.954110,-57
2021-12-10 14:04:01.954118,-52
2021-12-10 14:04:01.954126,-50
2021-12-10 14:04:01.954135,-59
2021-12-10 14:04:01.954143,-57
2021-12-10 14:04:01.954151,-33
2021-12-10 14:04:01.954160,-19
2021-12-10 14:04:01.954168,-14
2021-12-10 14:04:01.954176,-11
2021-12-10 14:04:01.954185,-16
2021-12-10 14:04:01.954193,-11
2021-12-10 14:04:01.954201,4
2021-12-10 14:04:01.954210,7
2021-12-10 14:04:01.954218,-7
2021-12-10 14:04:01.954226,-11
2021-12-10 14:04:01.954235,11
2021-12-10 14:04:01.954243,38
2021-12-10 14:04:01.954251,42
2021-12-10 14:04:02.135613,45
2021-12-10 14:04:02.135634,47
2021-12-10 14:04:02.135643,23
2021-12-10 14:04:02.135652,-2
2021-12-10 14:04:02.135661,4
2021-12-10 14:04:02.135670,19
2021-12-10 14:04:02.135678,23
2021-12-10 14:04:02.135687,26
2021-12-10 14:04:02.135695,9
2021-12-10 14:04:02.135703,-19
2021-12-10 14:04:02.135712,-45
2021-12-10 14:04:02.135720,-150
2021-12-10 14:04:02.135729,-243
2021-12-10 14:04:02.135737,9
2021-12-10 14:04:02.135746,715
2021-12-10 14:04:02.135754,1568
2021-12-10 14:04:02.135763,1833
2021-12-10 14:04:02.135771,975
2021-12-10 14:04:02.135780,-135
2021-12-10 14:04:02.135788,-333
2021-12-10 14:04:02.135797,-52
2021-12-10 14:04:02.135805,-97
2021-12-10 14:04:02.135813,-209
2021-12-10 14:04:02.135822,-128
2021-12-10 14:04:02.135830,-90
2021-12-10 14:04:02.135839,-123
2021-12-10 14:04:02.135847,-109
2021-12-10 14:04:02.135855,-102
2021-12-10 14:04:02.135864,-107
2021-12-10 14:04:02.135872,-78
2021-12-10 14:04:02.360272,-54
2021-12-10 14:04:02.360294,-69
2021-12-10 14:04:02.360304,-83
2021-12-10 14:04:02.360313,-95
2021-12-10 14:04:02.360321,-121
2021-12-10 14:04:02.360329,-121
2021-12-10 14:04:02.360338,-83
2021-12-10 14:04:02.360346,-71
2021-12-10 14:04:02.360355,-90
2021-12-10 14:04:02.360363,-81
2021-12-10 14:04:02.360371,-50
2021-12-10 14:04:02.360380,-35
2021-12-10 14:04:02.360388,-33
2021-12-10 14:04:02.360396,-45
2021-12-10 14:04:02.360405,-73
2021-12-10 14:04:02.360413,-95
2021-12-10 14:04:02.360422,-90
2021-12-10 14:04:02.360430,-85
2021-12-10 14:04:02.360438,-95
2021-12-10 14:04:02.360447,-112
2021-12-10 14:04:02.360455,-126
2021-12-10 14:04:02.360463,-131
2021-12-10 14:04:02.360471,-128
2021-12-10 14:04:02.360480,-119
2021-12-10 14:04:02.360488,-109
2021-12-10 14:04:02.360496,-109
2021-12-10 14:04:02.360505,-109
2021-12-10 14:04:02.360513,-95
2021-12-10 14:04:02.360522,-81
2021-12-10 14:04:02.360530,-83
2021-12-10 14:04:02.585753,-90
2021-12-10 14:04:02.585776,-83
2021-12-10 14:04:02.585785,-83
2021-12-10 14:04:02.585794,-85
2021-12-10 14:04:02.585803,-69
2021-12-10 14:04:02.585811,-50
2021-12-10 14:04:02.585820,-52
2021-12-10 14:04:02.585828,-69
2021-12-10 14:04:02.585837,-76
2021-12-10 14:04:02.585845,-64
2021-12-10 14:04:02.585854,-50
2021-12-10 14:04:02.585862,-38
2021-12-10 14:04:02.585871,-42
2021-12-10 14:04:02.585879,-64
2021-12-10 14:04:02.585887,-69
2021-12-10 14:04:02.585896,-50
2021-12-10 14:04:02.585904,-35
2021-12-10 14:04:02.585913,-26
2021-12-10 14:04:02.585921,-23
2021-12-10 14:04:02.585929,-21
2021-12-10 14:04:02.585938,-14
2021-12-10 14:04:02.585946,4
2021-12-10 14:04:02.585954,40
2021-12-10 14:04:02.585963,64
2021-12-10 14:04:02.585971,50
2021-12-10 14:04:02.585979,42
2021-12-10 14:04:02.585987,38
2021-12-10 14:04:02.585995,19
2021-12-10 14:04:02.586004,16
2021-12-10 14:04:02.586012,30
2021-12-10 14:04:02.810229,33
2021-12-10 14:04:02.810249,14
2021-12-10 14:04:02.810258,2
2021-12-10 14:04:02.810267,14
2021-12-10 14:04:02.810276,21
2021-12-10 14:04:02.810284,-30
2021-12-10 14:04:02.810292,-169
2021-12-10 14:04:02.810301,-200
2021-12-10 14:04:02.810309,188
2021-12-10 14:04:02.810318,989
2021-12-10 14:04:02.810326,1738
2021-12-10 14:04:02.810335,1633
2021-12-10 14:04:02.810343,524
2021-12-10 14:04:02.810351,-352
2021-12-10 14:04:02.810360,-264
2021-12-10 14:04:02.810368,-40
2021-12-10 14:04:02.810376,-157
2021-12-10 14:04:02.810385,-205
2021-12-10 14:04:02.810393,-143
2021-12-10 14:04:02.810401,-154
2021-12-10 14:04:02.810410,-159
2021-12-10 14:04:02.810418,-123
2021-12-10 14:04:02.810426,-107
2021-12-10 14:04:02.810435,-97
2021-12-10 14:04:02.810443,-83
2021-12-10 14:04:02.810451,-64
2021-12-10 14:04:02.810460,-50
2021-12-10 14:04:02.810468,-35
2021-12-10 14:04:02.810476,-11
2021-12-10 14:04:02.810484,9
2021-12-10 14:04:03.125067,21
2021-12-10 14:04:03.125090,40
2021-12-10 14:04:03.125099,57
2021-12-10 14:04:03.125108,50
2021-12-10 14:04:03.125116,45
2021-12-10 14:04:03.125125,45
2021-12-10 14:04:03.125133,28
2021-12-10 14:04:03.125142,21
2021-12-10 14:04:03.125150,9
2021-12-10 14:04:03.125159,-26
2021-12-10 14:04:03.125167,-52
2021-12-10 14:04:03.125176,-88
2021-12-10 14:04:03.125184,-128
2021-12-10 14:04:03.125192,-128
2021-12-10 14:04:03.125201,-119
2021-12-10 14:04:03.125209,-128
2021-12-10 14:04:03.125218,-135
2021-12-10 14:04:03.125226,-138
2021-12-10 14:04:03.125235,-138
2021-12-10 14:04:03.125244,-128
2021-12-10 14:04:03.125252,-119
2021-12-10 14:04:03.125290,-114
2021-12-10 14:04:03.125298,-104
2021-12-10 14:04:03.125306,-97
2021-12-10 14:04:03.125314,-85
2021-12-10 14:04:03.125322,-69
2021-12-10 14:04:03.125330,-64
2021-12-10 14:04:03.125338,-66
2021-12-10 14:04:03.125346,-59
2021-12-10 14:04:03.125353,-54
2021-12-10 14:04:03.305932,-47
2021-12-10 14:04:03.305954,-33
2021-12-10 14:04:03.305964,-26
2021-12-10 14:04:03.305973,-30
2021-12-10 14:04:03.305982,-28
2021-12-10 14:04:03.305990,-30
2021-12-10 14:04:03.305999,-42
2021-12-10 14:04:03.306007,-30
2021-12-10 14:04:03.306016,-14
2021-12-10 14:04:03.306024,-19
2021-12-10 14:04:03.306033,-26
2021-12-10 14:04:03.306041,-40
2021-12-10 14:04:03.306049,-38
2021-12-10 14:04:03.306058,-16
2021-12-10 14:04:03.306066,-7
2021-12-10 14:04:03.306075,-33
2021-12-10 14:04:03.306083,-88
2021-12-10 14:04:03.306092,-116
2021-12-10 14:04:03.306100,-92
2021-12-10 14:04:03.306109,-66
2021-12-10 14:04:03.306117,-52
2021-12-10 14:04:03.306126,-23
2021-12-10 14:04:03.306134,-21
2021-12-10 14:04:03.306142,-38
2021-12-10 14:04:03.306151,-26
2021-12-10 14:04:03.306159,-19
2021-12-10 14:04:03.306167,-38
2021-12-10 14:04:03.306176,-47
2021-12-10 14:04:03.306184,-47
2021-12-10 14:04:03.306192,-47
2021-12-10 14:04:03.530752,-30
2021-12-10 14:04:03.530775,-16
2021-12-10 14:04:03.530785,-14
2021-12-10 14:04:03.530794,-33
2021-12-10 14:04:03.530802,-116
2021-12-10 14:04:03.530811,-238
2021-12-10 14:04:03.530819,-169
2021-12-10 14:04:03.530828,300
2021-12-10 14:04:03.530836,1111
2021-12-10 14:04:03.530845,1747
2021-12-10 14:04:03.530854,1385
2021-12-10 14:04:03.530862,224
2021-12-10 14:04:03.530871,-379
2021-12-10 14:04:03.530880,-152
2021-12-10 14:04:03.530888,-33
2021-12-10 14:04:03.530897,-190
2021-12-10 14:04:03.530905,-209
2021-12-10 14:04:03.530914,-152
2021-12-10 14:04:03.530922,-176
2021-12-10 14:04:03.530931,-178
2021-12-10 14:04:03.530939,-138
2021-12-10 14:04:03.530947,-135
2021-12-10 14:04:03.530956,-138
2021-12-10 14:04:03.530964,-112
2021-12-10 14:04:03.530973,-85
2021-12-10 14:04:03.530981,-64
2021-12-10 14:04:03.530989,-40
2021-12-10 14:04:03.530998,-30
2021-12-10 14:04:03.531006,-26
2021-12-10 14:04:03.531014,0
2021-12-10 14:04:03.755286,30
2021-12-10 14:04:03.755307,50
2021-12-10 14:04:03.755316,57
2021-12-10 14:04:03.755325,38
2021-12-10 14:04:03.755334,19
2021-12-10 14:04:03.755342,30
2021-12-10 14:04:03.755351,45
2021-12-10 14:04:03.755359,28
2021-12-10 14:04:03.755368,-4
2021-12-10 14:04:03.755377,-47
2021-12-10 14:04:03.755385,-83
2021-12-10 14:04:03.755394,-95
2021-12-10 14:04:03.755402,-88
2021-12-10 14:04:03.755410,-81
2021-12-10 14:04:03.755419,-100
2021-12-10 14:04:03.755427,-135
2021-12-10 14:04:03.755436,-145
2021-12-10 14:04:03.755444,-123
2021-12-10 14:04:03.755453,-112
2021-12-10 14:04:03.755461,-102
2021-12-10 14:04:03.755470,-102
2021-12-10 14:04:03.755478,-133
2021-12-10 14:04:03.755487,-154
2021-12-10 14:04:03.755495,-123
2021-12-10 14:04:03.755503,-97
2021-12-10 14:04:03.755512,-95
2021-12-10 14:04:03.755520,-95
2021-12-10 14:04:03.755529,-95
2021-12-10 14:04:03.755537,-90
2021-12-10 14:04:03.755546,-73
2021-12-10 14:04:04.069065,-59
2021-12-10 14:04:04.069087,-50
2021-12-10 14:04:04.069096,-52
2021-12-10 14:04:04.069105,-61
2021-12-10 14:04:04.069113,-52
2021-12-10 14:04:04.069121,-28
2021-12-10 14:04:04.069129,-21
2021-12-10 14:04:04.069138,-19
2021-12-10 14:04:04.069146,-28
2021-12-10 14:04:04.069154,-57
2021-12-10 14:04:04.069162,-57
2021-12-10 14:04:04.069171,-50
2021-12-10 14:04:04.069179,-61
2021-12-10 14:04:04.069187,-64
2021-12-10 14:04:04.069195,-69
2021-12-10 14:04:04.069204,-92
2021-12-10 14:04:04.069212,-83
2021-12-10 14:04:04.069220,-52
2021-12-10 14:04:04.069229,-42
2021-12-10 14:04:04.069237,-42
2021-12-10 14:04:04.069245,-40
2021-12-10 14:04:04.069253,-40
2021-12-10 14:04:04.069262,-28
2021-12-10 14:04:04.069270,-14
2021-12-10 14:04:04.069278,-2
2021-12-10 14:04:04.069286,14
2021-12-10 14:04:04.069295,38
2021-12-10 14:04:04.069303,42
2021-12-10 14:04:04.069311,38
2021-12-10 14:04:04.069320,47
2021-12-10 14:04:04.250274,50
2021-12-10 14:04:04.250296,26
2021-12-10 14:04:04.250306,7
2021-12-10 14:04:04.250314,4
2021-12-10 14:04:04.250323,14
2021-12-10 14:04:04.250332,26
2021-12-10 14:04:04.250340,35
2021-12-10 14:04:04.250349,26
2021-12-10 14:04:04.250357,-7
2021-12-10 14:04:04.250365,-52
2021-12-10 14:04:04.250373,-135
2021-12-10 14:04:04.250382,-143
2021-12-10 14:04:04.250390,202
2021-12-10 14:04:04.250398,960
2021-12-10 14:04:04.250407,1704
2021-12-10 14:04:04.250415,1611
2021-12-10 14:04:04.250423,546
2021-12-10 14:04:04.250431,-278
2021-12-10 14:04:04.250440,-197
2021-12-10 14:04:04.250448,-21
2021-12-10 14:04:04.250457,-166
2021-12-10 14:04:04.250465,-212
2021-12-10 14:04:04.250473,-123
2021-12-10 14:04:04.250481,-126
2021-12-10 14:04:04.250490,-145
2021-12-10 14:04:04.250498,-114
2021-12-10 14:04:04.250507,-114
2021-12-10 14:04:04.250515,-147
2021-12-10 14:04:04.250523,-162
2021-12-10 14:04:04.250531,-138
2021-12-10 14:04:04.430741,-116
2021-12-10 14:04:04.430763,-114
2021-12-10 14:04:04.430772,-102
2021-12-10 14:04:04.430781,-83
2021-12-10 14:04:04.430790,-64
2021-12-10 14:04:04.430799,-54
2021-12-10 14:04:04.430807,-59
2021-12-10 14:04:04.430816,-66
2021-12-10 14:04:04.430824,-76
2021-12-10 14:04:04.430833,-83
2021-12-10 14:04:04.430841,-71
2021-12-10 14:04:04.430850,-64
2021-12-10 14:04:04.430858,-85
2021-12-10 14:04:04.430867,-126
2021-12-10 14:04:04.430876,-147
2021-12-10 14:04:04.430884,-164
2021-12-10 14:04:04.430892,-183
2021-12-10 14:04:04.430901,-169
2021-12-10 14:04:04.430909,-152
2021-12-10 14:04:04.430918,-157
2021-12-10 14:04:04.430926,-157
2021-12-10 14:04:04.430935,-147
2021-12-10 14:04:04.430943,-138
2021-12-10 14:04:04.430951,-123
2021-12-10 14:04:04.430960,-109
2021-12-10 14:04:04.430968,-109
2021-12-10 14:04:04.430977,-102
2021-12-10 14:04:04.430985,-88
2021-12-10 14:04:04.430994,-73
2021-12-10 14:04:04.431002,-59
2021-12-10 14:04:04.655292,-54
2021-12-10 14:04:04.655314,-54
2021-12-10 14:04:04.655323,-47
2021-12-10 14:04:04.655332,-42
2021-12-10 14:04:04.655340,-35
2021-12-10 14:04:04.655349,-21
2021-12-10 14:04:04.655357,-33
2021-12-10 14:04:04.655365,-54
2021-12-10 14:04:04.655431,-50
2021-12-10 14:04:04.655441,-35
2021-12-10 14:04:04.655450,-30
2021-12-10 14:04:04.655458,-21
2021-12-10 14:04:04.655467,-28
2021-12-10 14:04:04.655475,-40
2021-12-10 14:04:04.655483,-35
2021-12-10 14:04:04.655491,-28
2021-12-10 14:04:04.655500,-28
2021-12-10 14:04:04.655508,-40
2021-12-10 14:04:04.655516,-57
2021-12-10 14:04:04.655525,-50
2021-12-10 14:04:04.655533,-28
2021-12-10 14:04:04.655541,-26
2021-12-10 14:04:04.655550,-16
2021-12-10 14:04:04.655558,2
2021-12-10 14:04:04.655566,9
2021-12-10 14:04:04.655575,14
2021-12-10 14:04:04.655583,26
2021-12-10 14:04:04.655591,35
2021-12-10 14:04:04.655599,42
2021-12-10 14:04:04.655608,42
2021-12-10 14:04:04.951625,52
2021-12-10 14:04:04.951647,88
2021-12-10 14:04:04.951657,104
2021-12-10 14:04:04.951666,57
2021-12-10 14:04:04.951674,21
2021-12-10 14:04:04.951683,16
2021-12-10 14:04:04.951691,-11
2021-12-10 14:04:04.951700,-28
2021-12-10 14:04:04.951708,-9
2021-12-10 14:04:04.951717,-16
2021-12-10 14:04:04.951725,-42
2021-12-10 14:04:04.951734,-54
2021-12-10 14:04:04.951742,-59
2021-12-10 14:04:04.951830,-54
2021-12-10 14:04:04.951844,-69
2021-12-10 14:04:04.951852,-166
2021-12-10 14:04:04.951859,-216
2021-12-10 14:04:04.951884,54
2021-12-10 14:04:04.951890,724
2021-12-10 14:04:04.951894,1492
2021-12-10 14:04:04.951899,1602
2021-12-10 14:04:04.951903,691
2021-12-10 14:04:04.951907,-228
2021-12-10 14:04:04.951911,-274
2021-12-10 14:04:04.951916,-47
2021-12-10 14:04:04.951922,-104
2021-12-10 14:04:04.951929,-159
2021-12-10 14:04:04.951937,-95
2021-12-10 14:04:04.951945,-88
2021-12-10 14:04:04.951953,-112
2021-12-10 14:04:05.150021,-100
2021-12-10 14:04:05.150042,-85
2021-12-10 14:04:05.150052,-92
2021-12-10 14:04:05.150061,-102
2021-12-10 14:04:05.150069,-88
2021-12-10 14:04:05.150078,-69
2021-12-10 14:04:05.150087,-57
2021-12-10 14:04:05.150095,-38
2021-12-10 14:04:05.150104,-16
2021-12-10 14:04:05.150112,-9
2021-12-10 14:04:05.150121,-11
2021-12-10 14:04:05.150129,-19
2021-12-10 14:04:05.150138,-9
2021-12-10 14:04:05.150146,16
2021-12-10 14:04:05.150155,26
2021-12-10 14:04:05.150163,11
2021-12-10 14:04:05.150172,-9
2021-12-10 14:04:05.150180,-35
2021-12-10 14:04:05.150189,-45
2021-12-10 14:04:05.150197,-42
2021-12-10 14:04:05.150206,-52
2021-12-10 14:04:05.150214,-81
2021-12-10 14:04:05.150223,-97
2021-12-10 14:04:05.150231,-85
2021-12-10 14:04:05.150240,-61
2021-12-10 14:04:05.150248,-47
2021-12-10 14:04:05.150257,-42
2021-12-10 14:04:05.150265,-40
2021-12-10 14:04:05.150274,-45
2021-12-10 14:04:05.150282,-40
2021-12-10 14:04:05.330779,-23
2021-12-10 14:04:05.330801,-7
2021-12-10 14:04:05.330811,0
2021-12-10 14:04:05.330820,-4
2021-12-10 14:04:05.330829,-19
2021-12-10 14:04:05.330837,-23
2021-12-10 14:04:05.330846,-2
2021-12-10 14:04:05.330854,11
2021-12-10 14:04:05.330863,-14
2021-12-10 14:04:05.330871,-69
2021-12-10 14:04:05.330879,-92
2021-12-10 14:04:05.330888,-81
2021-12-10 14:04:05.330896,-59
2021-12-10 14:04:05.330904,-50
2021-12-10 14:04:05.330912,-45
2021-12-10 14:04:05.330921,-47
2021-12-10 14:04:05.330929,-54
2021-12-10 14:04:05.330937,-45
2021-12-10 14:04:05.330946,-23
2021-12-10 14:04:05.330954,-11
2021-12-10 14:04:05.330962,-7
2021-12-10 14:04:05.330971,-7
2021-12-10 14:04:05.330979,-11
2021-12-10 14:04:05.330987,-19
