Time,ECG
2021-12-10 14:08:37.387362,-205
2021-12-10 14:08:37.387381,-338
2021-12-10 14:08:37.387390,-255
2021-12-10 14:08:37.387399,503
2021-12-10 14:08:37.387408,1764
2021-12-10 14:08:37.387417,2546
2021-12-10 14:08:37.387425,1847
2021-12-10 14:08:37.387434,207
2021-12-10 14:08:37.387442,-627
2021-12-10 14:08:37.387451,-362
2021-12-10 14:08:37.387459,-185
2021-12-10 14:08:37.387468,-274
2021-12-10 14:08:37.387476,-243
2021-12-10 14:08:37.387485,-238
2021-12-10 14:08:37.387493,-221
2021-12-10 14:08:37.387502,-185
2021-12-10 14:08:37.387510,-290
2021-12-10 14:08:37.387519,-281
2021-12-10 14:08:37.387528,-104
2021-12-10 14:08:37.387536,-121
2021-12-10 14:08:37.387544,-190
2021-12-10 14:08:37.387553,-76
2021-12-10 14:08:37.387561,-14
2021-12-10 14:08:37.387569,-69
2021-12-10 14:08:37.387578,-47
2021-12-10 14:08:37.387586,33
2021-12-10 14:08:37.387595,57
2021-12-10 14:08:37.387604,40
2021-12-10 14:08:37.387612,78
2021-12-10 14:08:37.387621,138
2021-12-10 14:08:37.403594,133
2021-12-10 14:08:37.403612,128
2021-12-10 14:08:37.403622,128
2021-12-10 14:08:37.403631,90
2021-12-10 14:08:37.403639,66
2021-12-10 14:08:37.403648,42
2021-12-10 14:08:37.403657,14
2021-12-10 14:08:37.403666,21
2021-12-10 14:08:37.403674,7
2021-12-10 14:08:37.403683,-21
2021-12-10 14:08:37.403691,-4
2021-12-10 14:08:37.403700,-42
2021-12-10 14:08:37.403708,-121
2021-12-10 14:08:37.403716,-100
2021-12-10 14:08:37.403725,-78
2021-12-10 14:08:37.403733,-128
2021-12-10 14:08:37.403742,-128
2021-12-10 14:08:37.403751,-90
2021-12-10 14:08:37.403760,-109
2021-12-10 14:08:37.403768,-119
2021-12-10 14:08:37.403777,-90
2021-12-10 14:08:37.403785,-97
2021-12-10 14:08:37.403793,-131
2021-12-10 14:08:37.403802,-123
2021-12-10 14:08:37.403810,-90
2021-12-10 14:08:37.403819,-76
2021-12-10 14:08:37.403827,-92
2021-12-10 14:08:37.403835,-112
2021-12-10 14:08:37.403844,-109
2021-12-10 14:08:37.403854,-83
2021-12-10 14:08:37.673276,-64
2021-12-10 14:08:37.673297,-78
2021-12-10 14:08:37.673306,-88
2021-12-10 14:08:37.673315,-71
2021-12-10 14:08:37.673323,-54
2021-12-10 14:08:37.673332,-69
2021-12-10 14:08:37.673340,-97
2021-12-10 14:08:37.673348,-133
2021-12-10 14:08:37.673357,-171
2021-12-10 14:08:37.673365,-195
2021-12-10 14:08:37.673373,-185
2021-12-10 14:08:37.673382,-152
2021-12-10 14:08:37.673390,-135
2021-12-10 14:08:37.673402,-143
2021-12-10 14:08:37.673411,-157
2021-12-10 14:08:37.673419,-159
2021-12-10 14:08:37.673427,-123
2021-12-10 14:08:37.673436,-92
2021-12-10 14:08:37.673444,-85
2021-12-10 14:08:37.673453,-50
2021-12-10 14:08:37.673461,-42
2021-12-10 14:08:37.673469,-102
2021-12-10 14:08:37.673478,-123
2021-12-10 14:08:37.673486,-102
2021-12-10 14:08:37.673494,-92
2021-12-10 14:08:37.673503,-83
2021-12-10 14:08:37.673511,-76
2021-12-10 14:08:37.673519,-83
2021-12-10 14:08:37.673528,-85
2021-12-10 14:08:37.673538,-147
2021-12-10 14:08:37.942020,-281
2021-12-10 14:08:37.942041,-193
2021-12-10 14:08:37.942050,441
2021-12-10 14:08:37.942059,1578
2021-12-10 14:08:37.942068,2541
2021-12-10 14:08:37.942077,2162
2021-12-10 14:08:37.942085,517
2021-12-10 14:08:37.942094,-488
2021-12-10 14:08:37.942102,-233
2021-12-10 14:08:37.942111,-59
2021-12-10 14:08:37.942120,-262
2021-12-10 14:08:37.942128,-231
2021-12-10 14:08:37.942137,-131
2021-12-10 14:08:37.942146,-188
2021-12-10 14:08:37.942154,-212
2021-12-10 14:08:37.942163,-157
2021-12-10 14:08:37.942171,-128
2021-12-10 14:08:37.942182,-123
2021-12-10 14:08:37.942190,-100
2021-12-10 14:08:37.942199,-69
2021-12-10 14:08:37.942207,-71
2021-12-10 14:08:37.942215,-66
2021-12-10 14:08:37.942224,-21
2021-12-10 14:08:37.942232,0
2021-12-10 14:08:37.942241,-7
2021-12-10 14:08:37.942249,4
2021-12-10 14:08:37.942258,4
2021-12-10 14:08:37.942266,0
2021-12-10 14:08:37.942275,33
2021-12-10 14:08:37.942283,57
2021-12-10 14:08:38.123671,33
2021-12-10 14:08:38.123693,2
2021-12-10 14:08:38.123702,-16
2021-12-10 14:08:38.123711,-23
2021-12-10 14:08:38.123720,-19
2021-12-10 14:08:38.123728,-30
2021-12-10 14:08:38.123737,-57
2021-12-10 14:08:38.123749,-81
2021-12-10 14:08:38.123758,-107
2021-12-10 14:08:38.123766,-150
2021-12-10 14:08:38.123774,-185
2021-12-10 14:08:38.123783,-166
2021-12-10 14:08:38.123791,-140
2021-12-10 14:08:38.123800,-195
2021-12-10 14:08:38.123808,-224
2021-12-10 14:08:38.123816,-152
2021-12-10 14:08:38.123825,-100
2021-12-10 14:08:38.123833,-119
2021-12-10 14:08:38.123842,-135
2021-12-10 14:08:38.123850,-121
2021-12-10 14:08:38.123858,-126
2021-12-10 14:08:38.123867,-162
2021-12-10 14:08:38.123875,-166
2021-12-10 14:08:38.123884,-128
2021-12-10 14:08:38.123892,-88
2021-12-10 14:08:38.123901,-88
2021-12-10 14:08:38.123909,-133
2021-12-10 14:08:38.123917,-135
2021-12-10 14:08:38.123926,-102
2021-12-10 14:08:38.123935,-123
2021-12-10 14:08:38.303655,-159
2021-12-10 14:08:38.303675,-150
2021-12-10 14:08:38.303685,-147
2021-12-10 14:08:38.303694,-128
2021-12-10 14:08:38.303702,-61
2021-12-10 14:08:38.303711,-52
2021-12-10 14:08:38.303719,-114
2021-12-10 14:08:38.303728,-104
2021-12-10 14:08:38.303736,-19
2021-12-10 14:08:38.303745,-47
2021-12-10 14:08:38.303753,-145
2021-12-10 14:08:38.303761,-119
2021-12-10 14:08:38.303770,-54
2021-12-10 14:08:38.303778,-78
2021-12-10 14:08:38.303786,-97
2021-12-10 14:08:38.303795,-73
2021-12-10 14:08:38.303803,-33
2021-12-10 14:08:38.303812,0
2021-12-10 14:08:38.303820,-42
2021-12-10 14:08:38.303829,-83
2021-12-10 14:08:38.303837,-14
2021-12-10 14:08:38.303845,52
2021-12-10 14:08:38.303854,28
2021-12-10 14:08:38.303862,-35
2021-12-10 14:08:38.303875,-61
2021-12-10 14:08:38.303884,-47
2021-12-10 14:08:38.303893,-54
2021-12-10 14:08:38.303901,-35
2021-12-10 14:08:38.303909,19
2021-12-10 14:08:38.303918,-4
2021-12-10 14:08:38.528206,-50
2021-12-10 14:08:38.528225,-76
2021-12-10 14:08:38.528235,-212
2021-12-10 14:08:38.528244,-231
2021-12-10 14:08:38.528252,376
2021-12-10 14:08:38.528261,1554
2021-12-10 14:08:38.528269,2506
2021-12-10 14:08:38.528278,2191
2021-12-10 14:08:38.528286,648
2021-12-10 14:08:38.528295,-448
2021-12-10 14:08:38.528303,-281
2021-12-10 14:08:38.528311,-28
2021-12-10 14:08:38.528320,-226
2021-12-10 14:08:38.528328,-259
2021-12-10 14:08:38.528337,-128
2021-12-10 14:08:38.528345,-128
2021-12-10 14:08:38.528354,-169
2021-12-10 14:08:38.528362,-185
2021-12-10 14:08:38.528371,-183
2021-12-10 14:08:38.528379,-116
2021-12-10 14:08:38.528388,-83
2021-12-10 14:08:38.528396,-100
2021-12-10 14:08:38.528406,-50
2021-12-10 14:08:38.528415,14
2021-12-10 14:08:38.528423,4
2021-12-10 14:08:38.528431,-2
2021-12-10 14:08:38.528440,69
2021-12-10 14:08:38.528448,138
2021-12-10 14:08:38.528457,128
2021-12-10 14:08:38.528465,112
2021-12-10 14:08:38.797626,152
2021-12-10 14:08:38.797647,185
2021-12-10 14:08:38.797657,133
2021-12-10 14:08:38.797665,69
2021-12-10 14:08:38.797674,92
2021-12-10 14:08:38.797682,116
2021-12-10 14:08:38.797691,40
2021-12-10 14:08:38.797699,-45
2021-12-10 14:08:38.797707,-30
2021-12-10 14:08:38.797716,7
2021-12-10 14:08:38.797724,-16
2021-12-10 14:08:38.797732,-57
2021-12-10 14:08:38.797740,-64
2021-12-10 14:08:38.797749,-52
2021-12-10 14:08:38.797757,-66
2021-12-10 14:08:38.797765,-92
2021-12-10 14:08:38.797774,-85
2021-12-10 14:08:38.797782,-57
2021-12-10 14:08:38.797791,-64
2021-12-10 14:08:38.797799,-83
2021-12-10 14:08:38.797808,-45
2021-12-10 14:08:38.797816,2
2021-12-10 14:08:38.797824,0
2021-12-10 14:08:38.797832,-7
2021-12-10 14:08:38.797844,4
2021-12-10 14:08:38.797852,4
2021-12-10 14:08:38.797860,11
2021-12-10 14:08:38.797869,26
2021-12-10 14:08:38.797877,28
2021-12-10 14:08:38.797885,40
2021-12-10 14:08:38.978244,57
2021-12-10 14:08:38.978264,66
2021-12-10 14:08:38.978273,66
2021-12-10 14:08:38.978281,54
2021-12-10 14:08:38.978290,35
2021-12-10 14:08:38.978298,30
2021-12-10 14:08:38.978307,21
2021-12-10 14:08:38.978315,-11
2021-12-10 14:08:38.978324,-9
2021-12-10 14:08:38.978332,21
2021-12-10 14:08:38.978341,2
2021-12-10 14:08:38.978349,-9
2021-12-10 14:08:38.978357,14
2021-12-10 14:08:38.978366,38
2021-12-10 14:08:38.978374,54
2021-12-10 14:08:38.978383,59
2021-12-10 14:08:38.978391,30
2021-12-10 14:08:38.978399,16
2021-12-10 14:08:38.978408,40
2021-12-10 14:08:38.978416,59
2021-12-10 14:08:38.978425,78
2021-12-10 14:08:38.978433,95
2021-12-10 14:08:38.978442,85
2021-12-10 14:08:38.978450,97
2021-12-10 14:08:38.978458,128
2021-12-10 14:08:38.978467,104
2021-12-10 14:08:38.978475,52
2021-12-10 14:08:38.978483,45
2021-12-10 14:08:38.978491,76
2021-12-10 14:08:38.978500,104
2021-12-10 14:08:39.248544,112
2021-12-10 14:08:39.248562,109
2021-12-10 14:08:39.248571,107
2021-12-10 14:08:39.248580,40
2021-12-10 14:08:39.248588,-121
2021-12-10 14:08:39.248597,-135
2021-12-10 14:08:39.248605,281
2021-12-10 14:08:39.248614,1149
2021-12-10 14:08:39.248622,2191
2021-12-10 14:08:39.248631,2405
2021-12-10 14:08:39.248639,1103
2021-12-10 14:08:39.248647,-267
2021-12-10 14:08:39.248656,-329
2021-12-10 14:08:39.248664,4
2021-12-10 14:08:39.248672,-109
2021-12-10 14:08:39.248680,-202
2021-12-10 14:08:39.248688,-100
2021-12-10 14:08:39.248697,-78
2021-12-10 14:08:39.248705,-92
2021-12-10 14:08:39.248713,-54
2021-12-10 14:08:39.248721,-40
2021-12-10 14:08:39.248730,-40
2021-12-10 14:08:39.248738,-35
2021-12-10 14:08:39.248746,-66
2021-12-10 14:08:39.248754,-66
2021-12-10 14:08:39.248763,2
2021-12-10 14:08:39.248771,30
2021-12-10 14:08:39.248779,7
2021-12-10 14:08:39.248788,35
2021-12-10 14:08:39.248796,73
2021-12-10 14:08:39.473284,52
2021-12-10 14:08:39.473305,66
2021-12-10 14:08:39.473315,97
2021-12-10 14:08:39.473323,50
2021-12-10 14:08:39.473332,28
2021-12-10 14:08:39.473340,78
2021-12-10 14:08:39.473349,83
2021-12-10 14:08:39.473357,19
2021-12-10 14:08:39.473366,-59
2021-12-10 14:08:39.473374,-59
2021-12-10 14:08:39.473385,-4
2021-12-10 14:08:39.473394,-47
2021-12-10 14:08:39.473403,-112
2021-12-10 14:08:39.473411,-71
2021-12-10 14:08:39.473419,-88
2021-12-10 14:08:39.473428,-171
2021-12-10 14:08:39.473436,-126
2021-12-10 14:08:39.473445,-38
2021-12-10 14:08:39.473453,-57
2021-12-10 14:08:39.473462,-102
2021-12-10 14:08:39.473470,-121
2021-12-10 14:08:39.473479,-121
2021-12-10 14:08:39.473487,-95
2021-12-10 14:08:39.473495,-78
2021-12-10 14:08:39.473504,-69
2021-12-10 14:08:39.473512,-54
2021-12-10 14:08:39.473520,-64
2021-12-10 14:08:39.473529,-78
2021-12-10 14:08:39.473537,-61
2021-12-10 14:08:39.473545,-42
2021-12-10 14:08:39.743236,-40
2021-12-10 14:08:39.743256,-33
2021-12-10 14:08:39.743266,-28
2021-12-10 14:08:39.743275,-45
2021-12-10 14:08:39.743283,-50
2021-12-10 14:08:39.743292,-23
2021-12-10 14:08:39.743300,11
2021-12-10 14:08:39.743309,7
2021-12-10 14:08:39.743317,-42
2021-12-10 14:08:39.743326,-54
2021-12-10 14:08:39.743334,-16
2021-12-10 14:08:39.743343,-7
2021-12-10 14:08:39.743351,-9
2021-12-10 14:08:39.743360,0
2021-12-10 14:08:39.743368,-23
2021-12-10 14:08:39.743376,-23
2021-12-10 14:08:39.743385,23
2021-12-10 14:08:39.743393,14
2021-12-10 14:08:39.743401,-28
2021-12-10 14:08:39.743410,0
2021-12-10 14:08:39.743418,26
2021-12-10 14:08:39.743426,45
2021-12-10 14:08:39.743434,88
2021-12-10 14:08:39.743443,76
2021-12-10 14:08:39.743451,40
2021-12-10 14:08:39.743462,33
2021-12-10 14:08:39.743470,0
2021-12-10 14:08:39.743479,-19
2021-12-10 14:08:39.743487,-2
2021-12-10 14:08:39.743495,-21
2021-12-10 14:08:39.967246,-16
2021-12-10 14:08:39.967265,21
2021-12-10 14:08:39.967275,-26
2021-12-10 14:08:39.967284,-81
2021-12-10 14:08:39.967292,-83
2021-12-10 14:08:39.967301,-157
2021-12-10 14:08:39.967309,-178
2021-12-10 14:08:39.967318,195
2021-12-10 14:08:39.967326,1051
2021-12-10 14:08:39.967335,1995
2021-12-10 14:08:39.967343,2074
2021-12-10 14:08:39.967352,863
2021-12-10 14:08:39.967360,-302
2021-12-10 14:08:39.967369,-293
2021-12-10 14:08:39.967377,-4
2021-12-10 14:08:39.967386,-169
2021-12-10 14:08:39.967394,-238
2021-12-10 14:08:39.967403,-95
2021-12-10 14:08:39.967412,-143
2021-12-10 14:08:39.967420,-252
2021-12-10 14:08:39.967429,-214
2021-12-10 14:08:39.967437,-200
2021-12-10 14:08:39.967445,-233
2021-12-10 14:08:39.967454,-202
2021-12-10 14:08:39.967462,-181
2021-12-10 14:08:39.967471,-188
2021-12-10 14:08:39.967479,-176
2021-12-10 14:08:39.967488,-176
2021-12-10 14:08:39.967496,-159
2021-12-10 14:08:39.967505,-109
2021-12-10 14:08:40.148235,-76
2021-12-10 14:08:40.148255,-50
2021-12-10 14:08:40.148265,-23
2021-12-10 14:08:40.148274,-40
2021-12-10 14:08:40.148282,-64
2021-12-10 14:08:40.148291,-33
2021-12-10 14:08:40.148299,-14
2021-12-10 14:08:40.148308,-54
2021-12-10 14:08:40.148316,-116
2021-12-10 14:08:40.148325,-152
2021-12-10 14:08:40.148333,-131
2021-12-10 14:08:40.148342,-92
2021-12-10 14:08:40.148350,-97
2021-12-10 14:08:40.148359,-126
2021-12-10 14:08:40.148367,-138
2021-12-10 14:08:40.148375,-135
2021-12-10 14:08:40.148388,-131
2021-12-10 14:08:40.148396,-107
2021-12-10 14:08:40.148405,-100
2021-12-10 14:08:40.148413,-112
2021-12-10 14:08:40.148422,-95
2021-12-10 14:08:40.148430,-83
2021-12-10 14:08:40.148438,-64
2021-12-10 14:08:40.148447,-45
2021-12-10 14:08:40.148455,-71
2021-12-10 14:08:40.148463,-57
2021-12-10 14:08:40.148472,-26
2021-12-10 14:08:40.148480,-42
2021-12-10 14:08:40.148488,-28
2021-12-10 14:08:40.148497,-33
2021-12-10 14:08:40.373183,-112
2021-12-10 14:08:40.373201,-102
2021-12-10 14:08:40.373211,-19
2021-12-10 14:08:40.373219,-50
2021-12-10 14:08:40.373228,-102
2021-12-10 14:08:40.373236,-61
2021-12-10 14:08:40.373245,-52
2021-12-10 14:08:40.373253,-81
2021-12-10 14:08:40.373261,-73
2021-12-10 14:08:40.373270,-85
2021-12-10 14:08:40.373278,-85
2021-12-10 14:08:40.373286,-71
2021-12-10 14:08:40.373295,-81
2021-12-10 14:08:40.373303,-64
2021-12-10 14:08:40.373311,-38
2021-12-10 14:08:40.373320,-47
2021-12-10 14:08:40.373328,-54
2021-12-10 14:08:40.373337,-38
2021-12-10 14:08:40.373345,-28
2021-12-10 14:08:40.373353,-23
2021-12-10 14:08:40.373362,-16
2021-12-10 14:08:40.373370,9
2021-12-10 14:08:40.373379,42
2021-12-10 14:08:40.373387,19
2021-12-10 14:08:40.373395,-40
2021-12-10 14:08:40.373403,-54
2021-12-10 14:08:40.373412,-52
2021-12-10 14:08:40.373420,-71
2021-12-10 14:08:40.373428,-76
2021-12-10 14:08:40.373437,-85
2021-12-10 14:08:40.598644,-100
2021-12-10 14:08:40.598664,-95
2021-12-10 14:08:40.598674,-104
2021-12-10 14:08:40.598682,-121
2021-12-10 14:08:40.598691,-152
2021-12-10 14:08:40.598699,-276
2021-12-10 14:08:40.598708,-312
2021-12-10 14:08:40.598716,90
2021-12-10 14:08:40.598725,958
2021-12-10 14:08:40.598733,1881
2021-12-10 14:08:40.598742,1962
2021-12-10 14:08:40.598750,779
2021-12-10 14:08:40.598759,-398
2021-12-10 14:08:40.598772,-405
2021-12-10 14:08:40.598780,-69
2021-12-10 14:08:40.598789,-221
2021-12-10 14:08:40.598797,-352
2021-12-10 14:08:40.598806,-226
2021-12-10 14:08:40.598814,-200
2021-12-10 14:08:40.598823,-264
2021-12-10 14:08:40.598831,-226
2021-12-10 14:08:40.598839,-176
2021-12-10 14:08:40.598848,-226
2021-12-10 14:08:40.598856,-245
2021-12-10 14:08:40.598864,-169
2021-12-10 14:08:40.598873,-131
2021-12-10 14:08:40.598881,-116
2021-12-10 14:08:40.598889,-71
2021-12-10 14:08:40.598898,-59
2021-12-10 14:08:40.598906,-73
2021-12-10 14:08:40.868592,-38
2021-12-10 14:08:40.868610,21
2021-12-10 14:08:40.868620,38
2021-12-10 14:08:40.868629,33
2021-12-10 14:08:40.868638,-23
2021-12-10 14:08:40.868646,-126
2021-12-10 14:08:40.868655,-109
2021-12-10 14:08:40.868663,-33
2021-12-10 14:08:40.868672,-42
2021-12-10 14:08:40.868680,-83
2021-12-10 14:08:40.868689,-97
2021-12-10 14:08:40.868697,-104
2021-12-10 14:08:40.868706,-116
2021-12-10 14:08:40.868714,-107
2021-12-10 14:08:40.868723,-95
2021-12-10 14:08:40.868731,-104
2021-12-10 14:08:40.868739,-114
2021-12-10 14:08:40.868748,-119
2021-12-10 14:08:40.868756,-109
2021-12-10 14:08:40.868765,-83
2021-12-10 14:08:40.868773,-97
2021-12-10 14:08:40.868782,-121
2021-12-10 14:08:40.868790,-92
2021-12-10 14:08:40.868798,-50
2021-12-10 14:08:40.868807,-38
2021-12-10 14:08:40.868815,-52
2021-12-10 14:08:40.868823,-52
2021-12-10 14:08:40.868832,-28
2021-12-10 14:08:40.868840,-42
2021-12-10 14:08:40.868848,-104
2021-12-10 14:08:41.048646,-109
2021-12-10 14:08:41.048665,-66
2021-12-10 14:08:41.048675,-57
2021-12-10 14:08:41.048684,-64
2021-12-10 14:08:41.048692,-90
2021-12-10 14:08:41.048700,-162
2021-12-10 14:08:41.048709,-162
2021-12-10 14:08:41.048717,-88
2021-12-10 14:08:41.048726,-81
2021-12-10 14:08:41.048734,-112
2021-12-10 14:08:41.048742,-104
2021-12-10 14:08:41.048751,-83
2021-12-10 14:08:41.048759,-69
2021-12-10 14:08:41.048767,-54
2021-12-10 14:08:41.048776,-50
2021-12-10 14:08:41.048784,-61
2021-12-10 14:08:41.048792,-64
2021-12-10 14:08:41.048804,-50
2021-12-10 14:08:41.048812,-50
2021-12-10 14:08:41.048820,-45
2021-12-10 14:08:41.048829,-16
2021-12-10 14:08:41.048837,-11
2021-12-10 14:08:41.048845,-19
2021-12-10 14:08:41.048854,-14
2021-12-10 14:08:41.048862,-30
2021-12-10 14:08:41.048870,-50
2021-12-10 14:08:41.048878,-47
2021-12-10 14:08:41.048887,-59
2021-12-10 14:08:41.048895,-69
2021-12-10 14:08:41.048903,-52
2021-12-10 14:08:41.408206,-54
2021-12-10 14:08:41.408225,-57
2021-12-10 14:08:41.408234,-71
2021-12-10 14:08:41.408243,-193
2021-12-10 14:08:41.408252,-314
2021-12-10 14:08:41.408260,-133
2021-12-10 14:08:41.408269,455
2021-12-10 14:08:41.408277,1297
2021-12-10 14:08:41.408285,1838
2021-12-10 14:08:41.408294,1282
2021-12-10 14:08:41.408302,45
2021-12-10 14:08:41.408311,-455
2021-12-10 14:08:41.408320,-181
2021-12-10 14:08:41.408328,-95
2021-12-10 14:08:41.408337,-231
2021-12-10 14:08:41.408345,-231
2021-12-10 14:08:41.408353,-236
2021-12-10 14:08:41.408362,-309
2021-12-10 14:08:41.408370,-274
2021-12-10 14:08:41.408379,-200
2021-12-10 14:08:41.408387,-202
2021-12-10 14:08:41.408395,-197
2021-12-10 14:08:41.408404,-166
2021-12-10 14:08:41.408412,-140
2021-12-10 14:08:41.408420,-100
2021-12-10 14:08:41.408428,-59
2021-12-10 14:08:41.408437,-71
2021-12-10 14:08:41.408445,-116
2021-12-10 14:08:41.408453,-90
2021-12-10 14:08:41.408462,-33
2021-12-10 14:08:41.588717,-30
2021-12-10 14:08:41.588737,0
2021-12-10 14:08:41.588747,59
2021-12-10 14:08:41.588756,16
2021-12-10 14:08:41.588764,-45
2021-12-10 14:08:41.588773,-42
2021-12-10 14:08:41.588781,-52
2021-12-10 14:08:41.588790,-92
2021-12-10 14:08:41.588798,-126
2021-12-10 14:08:41.588807,-140
2021-12-10 14:08:41.588815,-114
2021-12-10 14:08:41.588823,-90
2021-12-10 14:08:41.588832,-102
2021-12-10 14:08:41.588840,-104
2021-12-10 14:08:41.588848,-107
2021-12-10 14:08:41.588857,-109
2021-12-10 14:08:41.588865,-76
2021-12-10 14:08:41.588873,-61
2021-12-10 14:08:41.588882,-85
2021-12-10 14:08:41.588890,-88
2021-12-10 14:08:41.588898,-85
2021-12-10 14:08:41.588907,-97
2021-12-10 14:08:41.588915,-104
2021-12-10 14:08:41.588923,-90
2021-12-10 14:08:41.588932,-35
2021-12-10 14:08:41.588940,-7
2021-12-10 14:08:41.588948,-61
2021-12-10 14:08:41.588956,-100
2021-12-10 14:08:41.588965,-69
2021-12-10 14:08:41.588976,-45
2021-12-10 14:08:41.858232,-38
2021-12-10 14:08:41.858251,-16
2021-12-10 14:08:41.858261,-30
2021-12-10 14:08:41.858270,-71
2021-12-10 14:08:41.858278,-45
2021-12-10 14:08:41.858286,4
2021-12-10 14:08:41.858295,0
2021-12-10 14:08:41.858303,-33
2021-12-10 14:08:41.858311,-42
2021-12-10 14:08:41.858320,-23
2021-12-10 14:08:41.858328,-14
2021-12-10 14:08:41.858336,-21
2021-12-10 14:08:41.858345,-54
2021-12-10 14:08:41.858353,-85
2021-12-10 14:08:41.858361,-59
2021-12-10 14:08:41.858370,0
2021-12-10 14:08:41.858378,11
2021-12-10 14:08:41.858386,-4
2021-12-10 14:08:41.858395,7
2021-12-10 14:08:41.858403,28
2021-12-10 14:08:41.858411,7
2021-12-10 14:08:41.858420,-30
2021-12-10 14:08:41.858428,-38
2021-12-10 14:08:41.858436,-11
2021-12-10 14:08:41.858445,-4
2021-12-10 14:08:41.858453,-42
2021-12-10 14:08:41.858461,-61
2021-12-10 14:08:41.858470,-66
2021-12-10 14:08:41.858478,-92
2021-12-10 14:08:41.858486,-88
2021-12-10 14:08:42.082312,-138
2021-12-10 14:08:42.082332,-205
2021-12-10 14:08:42.082342,140
2021-12-10 14:08:42.082350,1003
2021-12-10 14:08:42.082359,1869
2021-12-10 14:08:42.082368,1929
2021-12-10 14:08:42.082376,817
2021-12-10 14:08:42.082384,-345
2021-12-10 14:08:42.082393,-388
2021-12-10 14:08:42.082401,-28
2021-12-10 14:08:42.082410,-140
2021-12-10 14:08:42.082418,-295
2021-12-10 14:08:42.082427,-212
2021-12-10 14:08:42.082435,-169
2021-12-10 14:08:42.082443,-176
2021-12-10 14:08:42.082452,-181
2021-12-10 14:08:42.082460,-226
2021-12-10 14:08:42.082468,-216
2021-12-10 14:08:42.082477,-174
2021-12-10 14:08:42.082485,-200
2021-12-10 14:08:42.082494,-209
2021-12-10 14:08:42.082502,-166
2021-12-10 14:08:42.082510,-123
2021-12-10 14:08:42.082518,-83
2021-12-10 14:08:42.082527,-100
2021-12-10 14:08:42.082535,-128
2021-12-10 14:08:42.082544,-83
2021-12-10 14:08:42.082552,-38
2021-12-10 14:08:42.082560,-50
2021-12-10 14:08:42.082569,-40
2021-12-10 14:08:42.353612,4
2021-12-10 14:08:42.353631,-14
2021-12-10 14:08:42.353640,-54
2021-12-10 14:08:42.353649,-47
2021-12-10 14:08:42.353657,-47
2021-12-10 14:08:42.353665,-66
2021-12-10 14:08:42.353674,-83
2021-12-10 14:08:42.353682,-107
2021-12-10 14:08:42.353690,-100
2021-12-10 14:08:42.353698,-71
2021-12-10 14:08:42.353706,-78
2021-12-10 14:08:42.353715,-109
2021-12-10 14:08:42.353723,-112
2021-12-10 14:08:42.353731,-104
2021-12-10 14:08:42.353739,-121
2021-12-10 14:08:42.353748,-119
2021-12-10 14:08:42.353756,-95
2021-12-10 14:08:42.353764,-112
2021-12-10 14:08:42.353772,-121
2021-12-10 14:08:42.353780,-95
2021-12-10 14:08:42.353793,-112
2021-12-10 14:08:42.353801,-152
2021-12-10 14:08:42.353810,-121
2021-12-10 14:08:42.353818,-69
2021-12-10 14:08:42.353826,-64
2021-12-10 14:08:42.353834,-50
2021-12-10 14:08:42.353842,-19
2021-12-10 14:08:42.353850,-69
2021-12-10 14:08:42.353858,-114
2021-12-10 14:08:42.353867,-59
2021-12-10 14:08:42.443289,-26
2021-12-10 14:08:42.443309,-28
2021-12-10 14:08:42.443318,-33
2021-12-10 14:08:42.443327,-59
2021-12-10 14:08:42.443336,-40
2021-12-10 14:08:42.443344,16
2021-12-10 14:08:42.443353,0
2021-12-10 14:08:42.443361,-57
2021-12-10 14:08:42.443370,-16
2021-12-10 14:08:42.443378,45
2021-12-10 14:08:42.443386,23
2021-12-10 14:08:42.443395,14
2021-12-10 14:08:42.443403,35
2021-12-10 14:08:42.443411,19
2021-12-10 14:08:42.443420,7
2021-12-10 14:08:42.443428,28
2021-12-10 14:08:42.443437,38
2021-12-10 14:08:42.443445,-35
2021-12-10 14:08:42.443454,-143
2021-12-10 14:08:42.443462,-133
2021-12-10 14:08:42.443470,-47
2021-12-10 14:08:42.443478,-21
2021-12-10 14:08:42.443487,-69
2021-12-10 14:08:42.443495,-145
2021-12-10 14:08:42.443503,-245
2021-12-10 14:08:42.443512,-319
2021-12-10 14:08:42.443520,-95
2021-12-10 14:08:42.443529,598
2021-12-10 14:08:42.443537,1526
2021-12-10 14:08:42.443546,2024
2021-12-10 14:08:42.668295,1359
2021-12-10 14:08:42.668316,26
2021-12-10 14:08:42.668326,-503
2021-12-10 14:08:42.668335,-200
2021-12-10 14:08:42.668343,-138
2021-12-10 14:08:42.668352,-312
2021-12-10 14:08:42.668360,-267
2021-12-10 14:08:42.668368,-188
2021-12-10 14:08:42.668377,-205
2021-12-10 14:08:42.668385,-193
2021-12-10 14:08:42.668393,-190
2021-12-10 14:08:42.668402,-209
2021-12-10 14:08:42.668410,-171
2021-12-10 14:08:42.668418,-109
2021-12-10 14:08:42.668427,-83
2021-12-10 14:08:42.668435,-73
2021-12-10 14:08:42.668443,-76
2021-12-10 14:08:42.668451,-57
2021-12-10 14:08:42.668460,-19
2021-12-10 14:08:42.668468,-21
2021-12-10 14:08:42.668476,-42
2021-12-10 14:08:42.668484,-50
2021-12-10 14:08:42.668492,-38
2021-12-10 14:08:42.668501,-45
2021-12-10 14:08:42.668509,-66
2021-12-10 14:08:42.668517,-4
2021-12-10 14:08:42.668525,26
2021-12-10 14:08:42.668534,-92
2021-12-10 14:08:42.668542,-169
2021-12-10 14:08:42.668550,-126
2021-12-10 14:08:42.893731,-123
2021-12-10 14:08:42.893750,-174
2021-12-10 14:08:42.893759,-166
2021-12-10 14:08:42.893768,-145
2021-12-10 14:08:42.893777,-176
2021-12-10 14:08:42.893785,-181
2021-12-10 14:08:42.893793,-123
2021-12-10 14:08:42.893802,-121
2021-12-10 14:08:42.893810,-164
2021-12-10 14:08:42.893818,-133
2021-12-10 14:08:42.893827,-76
2021-12-10 14:08:42.893835,-73
2021-12-10 14:08:42.893843,-102
2021-12-10 14:08:42.893852,-78
2021-12-10 14:08:42.893860,-40
2021-12-10 14:08:42.893869,-90
2021-12-10 14:08:42.893877,-138
2021-12-10 14:08:42.893885,-97
2021-12-10 14:08:42.893894,-66
2021-12-10 14:08:42.893902,-45
2021-12-10 14:08:42.893910,19
2021-12-10 14:08:42.893919,-38
2021-12-10 14:08:42.893931,-193
2021-12-10 14:08:42.893940,-171
2021-12-10 14:08:42.893948,-81
2021-12-10 14:08:42.893956,-104
2021-12-10 14:08:42.893965,-126
2021-12-10 14:08:42.893973,-140
2021-12-10 14:08:42.893981,-123
2021-12-10 14:08:42.893989,-57
2021-12-10 14:08:43.207991,-45
2021-12-10 14:08:43.208010,-38
2021-12-10 14:08:43.208020,-47
2021-12-10 14:08:43.208029,-95
2021-12-10 14:08:43.208037,-23
2021-12-10 14:08:43.208046,33
2021-12-10 14:08:43.208055,-11
2021-12-10 14:08:43.208063,57
2021-12-10 14:08:43.208072,107
2021-12-10 14:08:43.208080,-23
2021-12-10 14:08:43.208088,-92
2021-12-10 14:08:43.208097,-50
2021-12-10 14:08:43.208105,-73
2021-12-10 14:08:43.208114,-85
2021-12-10 14:08:43.208122,11
2021-12-10 14:08:43.208131,11
2021-12-10 14:08:43.208139,-40
2021-12-10 14:08:43.208147,16
2021-12-10 14:08:43.208156,-92
2021-12-10 14:08:43.208164,-247
2021-12-10 14:08:43.208172,126
2021-12-10 14:08:43.208181,1044
2021-12-10 14:08:43.208189,1974
2021-12-10 14:08:43.208197,2129
2021-12-10 14:08:43.208206,1046
2021-12-10 14:08:43.208214,-197
2021-12-10 14:08:43.208222,-331
2021-12-10 14:08:43.208231,23
2021-12-10 14:08:43.208239,-50
2021-12-10 14:08:43.208247,-183
2021-12-10 14:08:43.388194,-61
2021-12-10 14:08:43.388211,-23
2021-12-10 14:08:43.388221,-119
2021-12-10 14:08:43.388229,-133
2021-12-10 14:08:43.388238,-69
2021-12-10 14:08:43.388246,-38
2021-12-10 14:08:43.388254,-42
2021-12-10 14:08:43.388263,-28
2021-12-10 14:08:43.388271,-71
2021-12-10 14:08:43.388280,-109
2021-12-10 14:08:43.388288,-47
2021-12-10 14:08:43.388296,-28
2021-12-10 14:08:43.388305,-45
2021-12-10 14:08:43.388313,2
2021-12-10 14:08:43.388321,47
2021-12-10 14:08:43.388330,42
2021-12-10 14:08:43.388338,59
2021-12-10 14:08:43.388346,64
2021-12-10 14:08:43.388355,23
2021-12-10 14:08:43.388363,64
2021-12-10 14:08:43.388371,61
2021-12-10 14:08:43.388379,-88
2021-12-10 14:08:43.388388,-107
2021-12-10 14:08:43.388396,-59
2021-12-10 14:08:43.388404,-145
2021-12-10 14:08:43.388413,-145
2021-12-10 14:08:43.388421,-57
2021-12-10 14:08:43.388429,-121
2021-12-10 14:08:43.388438,-228
2021-12-10 14:08:43.388446,-202
2021-12-10 14:08:43.613296,-138
2021-12-10 14:08:43.613316,-121
2021-12-10 14:08:43.613325,-150
2021-12-10 14:08:43.613334,-183
2021-12-10 14:08:43.613343,-150
2021-12-10 14:08:43.613351,-119
2021-12-10 14:08:43.613360,-147
2021-12-10 14:08:43.613369,-157
2021-12-10 14:08:43.613377,-154
2021-12-10 14:08:43.613386,-138
2021-12-10 14:08:43.613394,-88
2021-12-10 14:08:43.613403,-81
2021-12-10 14:08:43.613411,-123
2021-12-10 14:08:43.613420,-116
2021-12-10 14:08:43.613428,-97
2021-12-10 14:08:43.613437,-97
2021-12-10 14:08:43.613445,-85
2021-12-10 14:08:43.613454,-71
2021-12-10 14:08:43.613462,-47
2021-12-10 14:08:43.613471,-30
2021-12-10 14:08:43.613479,-52
2021-12-10 14:08:43.613487,-81
2021-12-10 14:08:43.613496,-78
2021-12-10 14:08:43.613504,-47
2021-12-10 14:08:43.613513,-21
2021-12-10 14:08:43.613521,11
2021-12-10 14:08:43.613530,38
2021-12-10 14:08:43.613538,4
2021-12-10 14:08:43.613547,-11
2021-12-10 14:08:43.613555,28
2021-12-10 14:08:43.838628,2
2021-12-10 14:08:43.838647,-47
2021-12-10 14:08:43.838657,-16
2021-12-10 14:08:43.838666,-11
2021-12-10 14:08:43.838674,-35
2021-12-10 14:08:43.838686,-14
2021-12-10 14:08:43.838694,-9
2021-12-10 14:08:43.838702,-52
2021-12-10 14:08:43.838710,-59
2021-12-10 14:08:43.838718,-61
2021-12-10 14:08:43.838727,-150
2021-12-10 14:08:43.838735,-164
2021-12-10 14:08:43.838743,226
2021-12-10 14:08:43.838752,1063
2021-12-10 14:08:43.838760,1931
2021-12-10 14:08:43.838768,1929
2021-12-10 14:08:43.838777,710
2021-12-10 14:08:43.838785,-324
2021-12-10 14:08:43.838793,-238
2021-12-10 14:08:43.838802,7
2021-12-10 14:08:43.838810,-131
2021-12-10 14:08:43.838818,-176
2021-12-10 14:08:43.838827,-92
2021-12-10 14:08:43.838835,-100
2021-12-10 14:08:43.838843,-73
2021-12-10 14:08:43.838851,-4
2021-12-10 14:08:43.838859,-42
2021-12-10 14:08:43.838868,-66
2021-12-10 14:08:43.838876,7
2021-12-10 14:08:43.838884,-23
2021-12-10 14:08:44.106959,-107
2021-12-10 14:08:44.106979,-40
2021-12-10 14:08:44.106988,30
2021-12-10 14:08:44.106997,-21
2021-12-10 14:08:44.107006,-38
2021-12-10 14:08:44.107014,9
2021-12-10 14:08:44.107023,-9
2021-12-10 14:08:44.107031,-45
2021-12-10 14:08:44.107039,-45
2021-12-10 14:08:44.107048,-38
2021-12-10 14:08:44.107056,-4
2021-12-10 14:08:44.107064,-16
2021-12-10 14:08:44.107073,-71
2021-12-10 14:08:44.107081,-64
2021-12-10 14:08:44.107090,-40
2021-12-10 14:08:44.107098,-42
2021-12-10 14:08:44.107107,-45
2021-12-10 14:08:44.107115,-52
2021-12-10 14:08:44.107123,-57
2021-12-10 14:08:44.107132,-57
2021-12-10 14:08:44.107140,-66
2021-12-10 14:08:44.107148,-109
2021-12-10 14:08:44.107157,-143
2021-12-10 14:08:44.107165,-97
2021-12-10 14:08:44.107173,-76
2021-12-10 14:08:44.107182,-135
2021-12-10 14:08:44.107190,-116
2021-12-10 14:08:44.107198,-54
2021-12-10 14:08:44.107207,-97
2021-12-10 14:08:44.107215,-112
2021-12-10 14:08:44.333598,-59
2021-12-10 14:08:44.333616,-88
2021-12-10 14:08:44.333626,-152
2021-12-10 14:08:44.333635,-138
2021-12-10 14:08:44.333644,-78
2021-12-10 14:08:44.333652,-102
2021-12-10 14:08:44.333661,-166
2021-12-10 14:08:44.333669,-131
2021-12-10 14:08:44.333678,-95
2021-12-10 14:08:44.333686,-121
2021-12-10 14:08:44.333694,-112
2021-12-10 14:08:44.333703,-85
2021-12-10 14:08:44.333711,-126
2021-12-10 14:08:44.333719,-152
2021-12-10 14:08:44.333728,-114
2021-12-10 14:08:44.333736,-100
2021-12-10 14:08:44.333744,-59
2021-12-10 14:08:44.333753,-19
2021-12-10 14:08:44.333761,-42
2021-12-10 14:08:44.333769,-19
2021-12-10 14:08:44.333778,0
2021-12-10 14:08:44.333786,-90
2021-12-10 14:08:44.333794,-147
2021-12-10 14:08:44.333803,-83
2021-12-10 14:08:44.333811,-2
2021-12-10 14:08:44.333820,-2
2021-12-10 14:08:44.333828,-59
2021-12-10 14:08:44.333836,-59
2021-12-10 14:08:44.333845,-35
2021-12-10 14:08:44.333853,-104
2021-12-10 14:08:44.513297,-212
2021-12-10 14:08:44.513317,-152
2021-12-10 14:08:44.513327,348
2021-12-10 14:08:44.513335,1309
2021-12-10 14:08:44.513344,2126
2021-12-10 14:08:44.513352,1828
2021-12-10 14:08:44.513360,455
2021-12-10 14:08:44.513369,-460
2021-12-10 14:08:44.513377,-271
2021-12-10 14:08:44.513386,-71
2021-12-10 14:08:44.513394,-264
2021-12-10 14:08:44.513403,-314
2021-12-10 14:08:44.513411,-238
2021-12-10 14:08:44.513419,-228
2021-12-10 14:08:44.513428,-174
2021-12-10 14:08:44.513436,-143
2021-12-10 14:08:44.513445,-190
2021-12-10 14:08:44.513453,-183
2021-12-10 14:08:44.513462,-119
2021-12-10 14:08:44.513470,-102
2021-12-10 14:08:44.513478,-121
2021-12-10 14:08:44.513487,-66
2021-12-10 14:08:44.513495,-7
2021-12-10 14:08:44.513504,-30
2021-12-10 14:08:44.513512,-28
2021-12-10 14:08:44.513521,35
2021-12-10 14:08:44.513529,54
2021-12-10 14:08:44.513538,19
2021-12-10 14:08:44.513546,9
2021-12-10 14:08:44.513555,47
2021-12-10 14:08:44.738700,61
2021-12-10 14:08:44.738726,33
2021-12-10 14:08:44.738736,4
2021-12-10 14:08:44.738745,-11
2021-12-10 14:08:44.738753,-40
2021-12-10 14:08:44.738762,-52
2021-12-10 14:08:44.738770,-81
2021-12-10 14:08:44.738778,-147
2021-12-10 14:08:44.738787,-157
2021-12-10 14:08:44.738795,-138
2021-12-10 14:08:44.738803,-135
2021-12-10 14:08:44.738812,-126
2021-12-10 14:08:44.738820,-126
2021-12-10 14:08:44.738828,-104
2021-12-10 14:08:44.738837,-83
2021-12-10 14:08:44.738845,-143
2021-12-10 14:08:44.738853,-152
2021-12-10 14:08:44.738861,-71
2021-12-10 14:08:44.738869,-81
2021-12-10 14:08:44.738878,-138
2021-12-10 14:08:44.738886,-143
2021-12-10 14:08:44.738894,-133
2021-12-10 14:08:44.738903,-116
2021-12-10 14:08:44.738911,-107
2021-12-10 14:08:44.738919,-121
2021-12-10 14:08:44.738928,-119
2021-12-10 14:08:44.738936,-104
2021-12-10 14:08:44.738944,-114
2021-12-10 14:08:44.738953,-114
2021-12-10 14:08:44.738961,-83
2021-12-10 14:08:45.008642,-81
2021-12-10 14:08:45.008661,-90
2021-12-10 14:08:45.008671,-83
2021-12-10 14:08:45.008680,-76
2021-12-10 14:08:45.008688,-71
2021-12-10 14:08:45.008697,-66
2021-12-10 14:08:45.008705,-64
2021-12-10 14:08:45.008713,-69
2021-12-10 14:08:45.008721,-95
2021-12-10 14:08:45.008730,-112
2021-12-10 14:08:45.008738,-138
2021-12-10 14:08:45.008746,-169
2021-12-10 14:08:45.008755,-143
2021-12-10 14:08:45.008763,-123
2021-12-10 14:08:45.008772,-112
2021-12-10 14:08:45.008780,-121
2021-12-10 14:08:45.008788,-197
2021-12-10 14:08:45.008797,-238
2021-12-10 14:08:45.008805,-269
2021-12-10 14:08:45.008813,-190
2021-12-10 14:08:45.008822,393
2021-12-10 14:08:45.008830,1487
2021-12-10 14:08:45.008838,2255
2021-12-10 14:08:45.008847,1630
2021-12-10 14:08:45.008855,104
2021-12-10 14:08:45.008863,-507
2021-12-10 14:08:45.008872,-140
2021-12-10 14:08:45.008880,-100
2021-12-10 14:08:45.008889,-295
2021-12-10 14:08:45.008897,-178
2021-12-10 14:08:45.233287,-83
2021-12-10 14:08:45.233306,-162
2021-12-10 14:08:45.233316,-162
2021-12-10 14:08:45.233325,-107
2021-12-10 14:08:45.233333,-100
2021-12-10 14:08:45.233342,-50
2021-12-10 14:08:45.233350,-2
2021-12-10 14:08:45.233359,-33
2021-12-10 14:08:45.233367,-54
2021-12-10 14:08:45.233376,-45
2021-12-10 14:08:45.233384,-26
2021-12-10 14:08:45.233392,2
2021-12-10 14:08:45.233401,9
2021-12-10 14:08:45.233409,21
2021-12-10 14:08:45.233418,38
2021-12-10 14:08:45.233426,16
2021-12-10 14:08:45.233434,19
2021-12-10 14:08:45.233443,59
2021-12-10 14:08:45.233451,61
2021-12-10 14:08:45.233459,40
2021-12-10 14:08:45.233468,16
2021-12-10 14:08:45.233476,-2
2021-12-10 14:08:45.233484,-7
2021-12-10 14:08:45.233493,-11
2021-12-10 14:08:45.233501,-21
2021-12-10 14:08:45.233510,-40
2021-12-10 14:08:45.233518,-66
2021-12-10 14:08:45.233526,-83
2021-12-10 14:08:45.233535,-85
2021-12-10 14:08:45.233543,-69
2021-12-10 14:08:45.593672,-47
2021-12-10 14:08:45.593692,-52
2021-12-10 14:08:45.593702,-64
2021-12-10 14:08:45.593711,-61
2021-12-10 14:08:45.593719,-38
2021-12-10 14:08:45.593728,-23
2021-12-10 14:08:45.593736,-38
2021-12-10 14:08:45.593745,-52
2021-12-10 14:08:45.593753,-52
2021-12-10 14:08:45.593762,-54
2021-12-10 14:08:45.593770,-59
2021-12-10 14:08:45.593779,-52
2021-12-10 14:08:45.593787,-59
2021-12-10 14:08:45.593796,-90
2021-12-10 14:08:45.593804,-121
2021-12-10 14:08:45.593813,-131
2021-12-10 14:08:45.593821,-119
2021-12-10 14:08:45.593830,-112
2021-12-10 14:08:45.593838,-119
2021-12-10 14:08:45.593847,-119
2021-12-10 14:08:45.593855,-112
2021-12-10 14:08:45.593863,-135
2021-12-10 14:08:45.593872,-166
2021-12-10 14:08:45.593880,-131
2021-12-10 14:08:45.593889,-119
2021-12-10 14:08:45.593897,-174
2021-12-10 14:08:45.593906,-185
2021-12-10 14:08:45.593914,-154
2021-12-10 14:08:45.593923,-150
2021-12-10 14:08:45.593931,-140
2021-12-10 14:08:45.683631,-114
2021-12-10 14:08:45.683650,-109
2021-12-10 14:08:45.683660,-119
2021-12-10 14:08:45.683669,-164
2021-12-10 14:08:45.683677,-290
2021-12-10 14:08:45.683686,-319
2021-12-10 14:08:45.683694,52
2021-12-10 14:08:45.683703,887
2021-12-10 14:08:45.683711,1828
2021-12-10 14:08:45.683719,1945
2021-12-10 14:08:45.683728,786
2021-12-10 14:08:45.683741,-336
2021-12-10 14:08:45.683749,-345
2021-12-10 14:08:45.683758,-57
2021-12-10 14:08:45.683766,-174
2021-12-10 14:08:45.683774,-255
2021-12-10 14:08:45.683783,-154
2021-12-10 14:08:45.683791,-133
2021-12-10 14:08:45.683799,-159
2021-12-10 14:08:45.683807,-131
2021-12-10 14:08:45.683816,-104
2021-12-10 14:08:45.683824,-90
2021-12-10 14:08:45.683832,-66
2021-12-10 14:08:45.683841,-45
2021-12-10 14:08:45.683849,-52
2021-12-10 14:08:45.683857,-83
2021-12-10 14:08:45.683865,-78
2021-12-10 14:08:45.683874,-30
2021-12-10 14:08:45.683882,-21
2021-12-10 14:08:45.683890,-33
2021-12-10 14:08:45.908684,-19
2021-12-10 14:08:45.908703,4
2021-12-10 14:08:45.908713,33
2021-12-10 14:08:45.908722,69
2021-12-10 14:08:45.908730,90
2021-12-10 14:08:45.908739,78
2021-12-10 14:08:45.908747,35
2021-12-10 14:08:45.908756,-4
2021-12-10 14:08:45.908764,-16
2021-12-10 14:08:45.908773,-26
2021-12-10 14:08:45.908781,-35
2021-12-10 14:08:45.908790,-42
2021-12-10 14:08:45.908798,-66
2021-12-10 14:08:45.908807,-90
2021-12-10 14:08:45.908815,-100
2021-12-10 14:08:45.908823,-116
2021-12-10 14:08:45.908832,-138
2021-12-10 14:08:45.908840,-147
2021-12-10 14:08:45.908849,-154
2021-12-10 14:08:45.908857,-157
2021-12-10 14:08:45.908865,-150
2021-12-10 14:08:45.908874,-138
2021-12-10 14:08:45.908882,-131
2021-12-10 14:08:45.908891,-126
2021-12-10 14:08:45.908899,-119
2021-12-10 14:08:45.908907,-112
2021-12-10 14:08:45.908916,-131
2021-12-10 14:08:45.908924,-166
2021-12-10 14:08:45.908933,-154
2021-12-10 14:08:45.908941,-128
2021-12-10 14:08:46.177389,-135
2021-12-10 14:08:46.177410,-131
2021-12-10 14:08:46.177420,-114
2021-12-10 14:08:46.177429,-114
2021-12-10 14:08:46.177437,-112
2021-12-10 14:08:46.177446,-109
2021-12-10 14:08:46.177454,-97
2021-12-10 14:08:46.177463,-73
2021-12-10 14:08:46.177471,-66
2021-12-10 14:08:46.177479,-83
2021-12-10 14:08:46.177488,-116
2021-12-10 14:08:46.177496,-157
2021-12-10 14:08:46.177505,-178
2021-12-10 14:08:46.177513,-174
2021-12-10 14:08:46.177522,-169
2021-12-10 14:08:46.177530,-157
2021-12-10 14:08:46.177538,-116
2021-12-10 14:08:46.177547,-100
2021-12-10 14:08:46.177555,-126
2021-12-10 14:08:46.177564,-200
2021-12-10 14:08:46.177572,-326
2021-12-10 14:08:46.177581,-269
2021-12-10 14:08:46.177589,240
2021-12-10 14:08:46.177597,1113
2021-12-10 14:08:46.177606,1821
2021-12-10 14:08:46.177614,1523
2021-12-10 14:08:46.177622,264
2021-12-10 14:08:46.177631,-505
2021-12-10 14:08:46.177639,-276
2021-12-10 14:08:46.177647,-78
2021-12-10 14:08:46.358306,-205
2021-12-10 14:08:46.358326,-226
2021-12-10 14:08:46.358335,-202
2021-12-10 14:08:46.358344,-228
2021-12-10 14:08:46.358352,-190
2021-12-10 14:08:46.358361,-157
2021-12-10 14:08:46.358369,-181
2021-12-10 14:08:46.358378,-169
2021-12-10 14:08:46.358386,-109
2021-12-10 14:08:46.358394,-95
2021-12-10 14:08:46.358403,-109
2021-12-10 14:08:46.358411,-88
2021-12-10 14:08:46.358419,-45
2021-12-10 14:08:46.358428,-14
2021-12-10 14:08:46.358436,-2
2021-12-10 14:08:46.358445,9
2021-12-10 14:08:46.358453,23
2021-12-10 14:08:46.358461,38
2021-12-10 14:08:46.358470,47
2021-12-10 14:08:46.358478,33
2021-12-10 14:08:46.358486,2
2021-12-10 14:08:46.358495,-2
2021-12-10 14:08:46.358503,0
2021-12-10 14:08:46.358512,-9
2021-12-10 14:08:46.358520,-14
2021-12-10 14:08:46.358528,-7
2021-12-10 14:08:46.358537,-4
2021-12-10 14:08:46.358545,-16
2021-12-10 14:08:46.358554,-28
2021-12-10 14:08:46.358562,-30
2021-12-10 14:08:46.583464,-33
2021-12-10 14:08:46.583488,-47
2021-12-10 14:08:46.583498,-83
2021-12-10 14:08:46.583507,-128
2021-12-10 14:08:46.583515,-143
2021-12-10 14:08:46.583524,-128
2021-12-10 14:08:46.583532,-109
2021-12-10 14:08:46.583541,-92
2021-12-10 14:08:46.583549,-83
2021-12-10 14:08:46.583558,-92
2021-12-10 14:08:46.583566,-109
2021-12-10 14:08:46.583575,-100
2021-12-10 14:08:46.583583,-88
2021-12-10 14:08:46.583591,-100
2021-12-10 14:08:46.583600,-119
2021-12-10 14:08:46.583608,-135
2021-12-10 14:08:46.583617,-123
2021-12-10 14:08:46.583625,-78
2021-12-10 14:08:46.583633,-59
2021-12-10 14:08:46.583642,-59
2021-12-10 14:08:46.583650,-42
2021-12-10 14:08:46.583659,-40
2021-12-10 14:08:46.583667,-50
2021-12-10 14:08:46.583675,-35
2021-12-10 14:08:46.583684,-28
2021-12-10 14:08:46.583692,-42
2021-12-10 14:08:46.583701,-54
2021-12-10 14:08:46.583709,-47
2021-12-10 14:08:46.583718,-21
2021-12-10 14:08:46.583726,-9
2021-12-10 14:08:46.853674,-9
2021-12-10 14:08:46.853693,-2
2021-12-10 14:08:46.853703,-19
2021-12-10 14:08:46.853712,-69
2021-12-10 14:08:46.853720,-102
2021-12-10 14:08:46.853729,-128
2021-12-10 14:08:46.853737,-219
2021-12-10 14:08:46.853746,-276
2021-12-10 14:08:46.853757,-28
2021-12-10 14:08:46.853766,667
2021-12-10 14:08:46.853774,1583
2021-12-10 14:08:46.853782,1900
2021-12-10 14:08:46.853791,987
2021-12-10 14:08:46.853799,-197
2021-12-10 14:08:46.853808,-405
2021-12-10 14:08:46.853816,-121
2021-12-10 14:08:46.853825,-157
2021-12-10 14:08:46.853833,-245
2021-12-10 14:08:46.853842,-166
2021-12-10 14:08:46.853850,-138
2021-12-10 14:08:46.853858,-174
2021-12-10 14:08:46.853867,-159
2021-12-10 14:08:46.853875,-131
2021-12-10 14:08:46.853883,-123
2021-12-10 14:08:46.853892,-123
2021-12-10 14:08:46.853900,-112
2021-12-10 14:08:46.853908,-97
2021-12-10 14:08:46.853917,-95
2021-12-10 14:08:46.853925,-78
2021-12-10 14:08:46.853933,-45
2021-12-10 14:08:47.123071,-21
2021-12-10 14:08:47.123090,-2
2021-12-10 14:08:47.123100,11
2021-12-10 14:08:47.123109,19
2021-12-10 14:08:47.123117,42
2021-12-10 14:08:47.123125,71
2021-12-10 14:08:47.123134,76
2021-12-10 14:08:47.123142,35
2021-12-10 14:08:47.123150,-33
2021-12-10 14:08:47.123159,-66
2021-12-10 14:08:47.123167,-52
2021-12-10 14:08:47.123175,-42
2021-12-10 14:08:47.123184,-54
2021-12-10 14:08:47.123192,-61
2021-12-10 14:08:47.123200,-88
2021-12-10 14:08:47.123209,-119
2021-12-10 14:08:47.123217,-114
2021-12-10 14:08:47.123225,-95
2021-12-10 14:08:47.123233,-90
2021-12-10 14:08:47.123242,-88
2021-12-10 14:08:47.123250,-92
2021-12-10 14:08:47.123258,-95
2021-12-10 14:08:47.123267,-71
2021-12-10 14:08:47.123275,-52
2021-12-10 14:08:47.123283,-47
2021-12-10 14:08:47.123291,-42
2021-12-10 14:08:47.123300,-57
2021-12-10 14:08:47.123308,-83
2021-12-10 14:08:47.123316,-73
2021-12-10 14:08:47.123324,-30
2021-12-10 14:08:47.348628,-9
2021-12-10 14:08:47.348647,-7
2021-12-10 14:08:47.348656,-11
2021-12-10 14:08:47.348665,-28
2021-12-10 14:08:47.348674,-28
2021-12-10 14:08:47.348682,-16
2021-12-10 14:08:47.348691,-7
2021-12-10 14:08:47.348699,-11
2021-12-10 14:08:47.348707,-47
2021-12-10 14:08:47.348716,-64
2021-12-10 14:08:47.348724,-23
2021-12-10 14:08:47.348733,19
2021-12-10 14:08:47.348742,14
2021-12-10 14:08:47.348750,-11
2021-12-10 14:08:47.348758,-33
2021-12-10 14:08:47.348766,-54
2021-12-10 14:08:47.348775,-59
2021-12-10 14:08:47.348783,-45
2021-12-10 14:08:47.348791,-40
2021-12-10 14:08:47.348800,-54
2021-12-10 14:08:47.348808,-57
2021-12-10 14:08:47.348816,-42
2021-12-10 14:08:47.348825,-33
2021-12-10 14:08:47.348833,-42
2021-12-10 14:08:47.348841,-131
2021-12-10 14:08:47.348850,-267
2021-12-10 14:08:47.348858,-164
2021-12-10 14:08:47.348866,405
2021-12-10 14:08:47.348875,1304
2021-12-10 14:08:47.348883,1869
2021-12-10 14:08:47.528367,1311
2021-12-10 14:08:47.528387,54
2021-12-10 14:08:47.528397,-481
2021-12-10 14:08:47.528406,-197
2021-12-10 14:08:47.528414,-102
2021-12-10 14:08:47.528423,-255
2021-12-10 14:08:47.528431,-233
2021-12-10 14:08:47.528440,-190
2021-12-10 14:08:47.528448,-236
2021-12-10 14:08:47.528457,-228
2021-12-10 14:08:47.528465,-176
2021-12-10 14:08:47.528473,-152
2021-12-10 14:08:47.528482,-135
2021-12-10 14:08:47.528490,-138
2021-12-10 14:08:47.528498,-152
2021-12-10 14:08:47.528507,-128
2021-12-10 14:08:47.528515,-88
2021-12-10 14:08:47.528523,-81
2021-12-10 14:08:47.528532,-78
2021-12-10 14:08:47.528540,-61
2021-12-10 14:08:47.528549,-38
2021-12-10 14:08:47.528557,-14
2021-12-10 14:08:47.528565,14
2021-12-10 14:08:47.528574,35
2021-12-10 14:08:47.528582,40
2021-12-10 14:08:47.528590,35
2021-12-10 14:08:47.528598,30
2021-12-10 14:08:47.528607,23
2021-12-10 14:08:47.528615,16
2021-12-10 14:08:47.528623,16
2021-12-10 14:08:47.753301,-2
2021-12-10 14:08:47.753320,-28
2021-12-10 14:08:47.753330,-38
2021-12-10 14:08:47.753339,-50
2021-12-10 14:08:47.753347,-61
2021-12-10 14:08:47.753356,-64
2021-12-10 14:08:47.753365,-88
2021-12-10 14:08:47.753373,-104
2021-12-10 14:08:47.753381,-95
2021-12-10 14:08:47.753390,-92
2021-12-10 14:08:47.753398,-88
2021-12-10 14:08:47.753407,-78
2021-12-10 14:08:47.753415,-90
2021-12-10 14:08:47.753424,-102
2021-12-10 14:08:47.753432,-83
2021-12-10 14:08:47.753440,-66
2021-12-10 14:08:47.753449,-61
2021-12-10 14:08:47.753457,-54
2021-12-10 14:08:47.753465,-54
2021-12-10 14:08:47.753474,-54
2021-12-10 14:08:47.753482,-40
2021-12-10 14:08:47.753490,-26
2021-12-10 14:08:47.753499,-19
2021-12-10 14:08:47.753507,-28
2021-12-10 14:08:47.753516,-45
2021-12-10 14:08:47.753524,-38
2021-12-10 14:08:47.753532,-26
2021-12-10 14:08:47.753541,-35
2021-12-10 14:08:47.753549,-30
2021-12-10 14:08:47.753557,-14
2021-12-10 14:08:48.023709,2
2021-12-10 14:08:48.023729,26
2021-12-10 14:08:48.023739,7
2021-12-10 14:08:48.023748,-28
2021-12-10 14:08:48.023757,-26
2021-12-10 14:08:48.023765,-45
2021-12-10 14:08:48.023774,-88
2021-12-10 14:08:48.023783,-83
2021-12-10 14:08:48.023791,-64
2021-12-10 14:08:48.023800,-92
2021-12-10 14:08:48.023809,-109
2021-12-10 14:08:48.023817,-81
2021-12-10 14:08:48.023826,-64
2021-12-10 14:08:48.023834,-88
2021-12-10 14:08:48.023843,-176
2021-12-10 14:08:48.023852,-312
2021-12-10 14:08:48.023860,-228
2021-12-10 14:08:48.023869,298
2021-12-10 14:08:48.023877,1151
2021-12-10 14:08:48.023886,1757
2021-12-10 14:08:48.023894,1304
2021-12-10 14:08:48.023903,78
2021-12-10 14:08:48.023911,-517
2021-12-10 14:08:48.023922,-290
2021-12-10 14:08:48.023931,-207
2021-12-10 14:08:48.023940,-336
2021-12-10 14:08:48.023948,-286
2021-12-10 14:08:48.023957,-214
2021-12-10 14:08:48.023965,-240
2021-12-10 14:08:48.023974,-214
2021-12-10 14:08:48.247364,-150
2021-12-10 14:08:48.247383,-133
2021-12-10 14:08:48.247393,-123
2021-12-10 14:08:48.247402,-100
2021-12-10 14:08:48.247410,-104
2021-12-10 14:08:48.247419,-104
2021-12-10 14:08:48.247427,-69
2021-12-10 14:08:48.247436,-42
2021-12-10 14:08:48.247444,-38
2021-12-10 14:08:48.247452,-19
2021-12-10 14:08:48.247461,-4
2021-12-10 14:08:48.247469,-9
2021-12-10 14:08:48.247478,4
2021-12-10 14:08:48.247486,38
2021-12-10 14:08:48.247494,42
2021-12-10 14:08:48.247503,21
2021-12-10 14:08:48.247511,-4
2021-12-10 14:08:48.247519,-21
2021-12-10 14:08:48.247528,-21
2021-12-10 14:08:48.247536,-16
2021-12-10 14:08:48.247545,-19
2021-12-10 14:08:48.247553,-26
2021-12-10 14:08:48.247562,-33
2021-12-10 14:08:48.247570,-30
2021-12-10 14:08:48.247579,-26
2021-12-10 14:08:48.247587,-19
2021-12-10 14:08:48.247596,-11
2021-12-10 14:08:48.247604,-23
2021-12-10 14:08:48.247612,-30
2021-12-10 14:08:48.247621,-19
2021-12-10 14:08:48.428249,-2
2021-12-10 14:08:48.428268,9
2021-12-10 14:08:48.428277,14
2021-12-10 14:08:48.428286,2
2021-12-10 14:08:48.428294,-21
2021-12-10 14:08:48.428303,-23
2021-12-10 14:08:48.428311,-19
2021-12-10 14:08:48.428320,-30
2021-12-10 14:08:48.428328,-30
2021-12-10 14:08:48.428336,-30
2021-12-10 14:08:48.428345,-54
2021-12-10 14:08:48.428353,-69
2021-12-10 14:08:48.428361,-66
2021-12-10 14:08:48.428370,-66
2021-12-10 14:08:48.428378,-66
2021-12-10 14:08:48.428386,-78
2021-12-10 14:08:48.428395,-85
2021-12-10 14:08:48.428403,-66
2021-12-10 14:08:48.428411,-35
2021-12-10 14:08:48.428420,-21
2021-12-10 14:08:48.428428,-11
2021-12-10 14:08:48.428436,4
2021-12-10 14:08:48.428445,26
2021-12-10 14:08:48.428453,14
2021-12-10 14:08:48.428461,-28
2021-12-10 14:08:48.428470,-47
2021-12-10 14:08:48.428478,-50
2021-12-10 14:08:48.428486,-71
2021-12-10 14:08:48.428495,-73
2021-12-10 14:08:48.428503,-45
2021-12-10 14:08:48.743386,-33
2021-12-10 14:08:48.743406,-45
2021-12-10 14:08:48.743416,-64
2021-12-10 14:08:48.743425,-97
2021-12-10 14:08:48.743433,-171
2021-12-10 14:08:48.743442,-288
2021-12-10 14:08:48.743450,-312
2021-12-10 14:08:48.743459,28
2021-12-10 14:08:48.743467,810
2021-12-10 14:08:48.743476,1650
2021-12-10 14:08:48.743484,1707
2021-12-10 14:08:48.743492,643
2021-12-10 14:08:48.743501,-388
2021-12-10 14:08:48.743509,-429
2021-12-10 14:08:48.743518,-181
2021-12-10 14:08:48.743526,-264
2021-12-10 14:08:48.743534,-319
2021-12-10 14:08:48.743542,-238
2021-12-10 14:08:48.743551,-238
2021-12-10 14:08:48.743559,-247
2021-12-10 14:08:48.743567,-209
2021-12-10 14:08:48.743575,-202
2021-12-10 14:08:48.743584,-190
2021-12-10 14:08:48.743592,-150
2021-12-10 14:08:48.743600,-121
2021-12-10 14:08:48.743608,-100
2021-12-10 14:08:48.743617,-81
2021-12-10 14:08:48.743625,-73
2021-12-10 14:08:48.743633,-47
2021-12-10 14:08:48.743642,-11
2021-12-10 14:08:48.923847,9
2021-12-10 14:08:48.923870,30
2021-12-10 14:08:48.923879,50
2021-12-10 14:08:48.923888,45
2021-12-10 14:08:48.923896,50
2021-12-10 14:08:48.923905,66
2021-12-10 14:08:48.923913,61
2021-12-10 14:08:48.923921,50
2021-12-10 14:08:48.923930,28
2021-12-10 14:08:48.923938,-7
2021-12-10 14:08:48.923947,-35
2021-12-10 14:08:48.923955,-52
2021-12-10 14:08:48.923963,-50
2021-12-10 14:08:48.923972,-42
2021-12-10 14:08:48.923980,-71
2021-12-10 14:08:48.923988,-114
2021-12-10 14:08:48.923997,-119
2021-12-10 14:08:48.924005,-104
2021-12-10 14:08:48.924013,-95
2021-12-10 14:08:48.924022,-90
2021-12-10 14:08:48.924030,-92
2021-12-10 14:08:48.924038,-92
2021-12-10 14:08:48.924046,-81
2021-12-10 14:08:48.924055,-59
2021-12-10 14:08:48.924063,-30
2021-12-10 14:08:48.924071,-21
2021-12-10 14:08:48.924079,-45
2021-12-10 14:08:48.924088,-66
2021-12-10 14:08:48.924096,-73
2021-12-10 14:08:48.924104,-90
2021-12-10 14:08:49.192790,-123
2021-12-10 14:08:49.192811,-150
2021-12-10 14:08:49.192821,-159
2021-12-10 14:08:49.192830,-150
2021-12-10 14:08:49.192839,-138
2021-12-10 14:08:49.192847,-138
2021-12-10 14:08:49.192856,-135
2021-12-10 14:08:49.192864,-140
2021-12-10 14:08:49.192872,-159
2021-12-10 14:08:49.192881,-157
2021-12-10 14:08:49.192889,-133
2021-12-10 14:08:49.192898,-109
2021-12-10 14:08:49.192906,-90
2021-12-10 14:08:49.192914,-100
2021-12-10 14:08:49.192923,-128
2021-12-10 14:08:49.192931,-126
2021-12-10 14:08:49.192939,-116
2021-12-10 14:08:49.192948,-131
2021-12-10 14:08:49.192956,-147
2021-12-10 14:08:49.192965,-159
2021-12-10 14:08:49.192973,-171
2021-12-10 14:08:49.192982,-183
2021-12-10 14:08:49.192990,-174
2021-12-10 14:08:49.192999,-152
2021-12-10 14:08:49.193007,-150
2021-12-10 14:08:49.193015,-197
2021-12-10 14:08:49.193023,-319
2021-12-10 14:08:49.193032,-343
2021-12-10 14:08:49.193040,54
2021-12-10 14:08:49.193049,927
2021-12-10 14:08:49.373281,1836
2021-12-10 14:08:49.373299,1850
2021-12-10 14:08:49.373308,689
2021-12-10 14:08:49.373317,-357
2021-12-10 14:08:49.373325,-348
2021-12-10 14:08:49.373334,-73
2021-12-10 14:08:49.373342,-183
2021-12-10 14:08:49.373351,-278
2021-12-10 14:08:49.373359,-193
2021-12-10 14:08:49.373367,-171
2021-12-10 14:08:49.373376,-185
2021-12-10 14:08:49.373384,-140
2021-12-10 14:08:49.373392,-121
2021-12-10 14:08:49.373401,-145
2021-12-10 14:08:49.373409,-150
2021-12-10 14:08:49.373418,-133
2021-12-10 14:08:49.373426,-107
2021-12-10 14:08:49.373434,-76
2021-12-10 14:08:49.373442,-61
2021-12-10 14:08:49.373450,-52
2021-12-10 14:08:49.373459,-26
2021-12-10 14:08:49.373467,0
2021-12-10 14:08:49.373475,21
2021-12-10 14:08:49.373483,47
2021-12-10 14:08:49.373492,69
2021-12-10 14:08:49.373500,73
2021-12-10 14:08:49.373509,76
2021-12-10 14:08:49.373517,71
2021-12-10 14:08:49.373525,64
2021-12-10 14:08:49.373536,61
2021-12-10 14:08:49.598774,42
2021-12-10 14:08:49.598795,16
2021-12-10 14:08:49.598805,23
2021-12-10 14:08:49.598814,26
2021-12-10 14:08:49.598823,-7
2021-12-10 14:08:49.598831,-61
2021-12-10 14:08:49.598840,-100
2021-12-10 14:08:49.598848,-107
2021-12-10 14:08:49.598857,-92
2021-12-10 14:08:49.598865,-88
2021-12-10 14:08:49.598874,-78
2021-12-10 14:08:49.598882,-57
2021-12-10 14:08:49.598891,-61
2021-12-10 14:08:49.598899,-83
2021-12-10 14:08:49.598908,-85
2021-12-10 14:08:49.598916,-88
2021-12-10 14:08:49.598924,-109
2021-12-10 14:08:49.598932,-133
2021-12-10 14:08:49.598941,-138
2021-12-10 14:08:49.598949,-123
2021-12-10 14:08:49.598958,-112
2021-12-10 14:08:49.598966,-109
2021-12-10 14:08:49.598974,-100
2021-12-10 14:08:49.598983,-88
2021-12-10 14:08:49.598991,-88
2021-12-10 14:08:49.598999,-81
2021-12-10 14:08:49.599008,-69
2021-12-10 14:08:49.599016,-64
2021-12-10 14:08:49.599025,-57
2021-12-10 14:08:49.599033,-52
2021-12-10 14:08:49.868688,-52
2021-12-10 14:08:49.868708,-45
2021-12-10 14:08:49.868717,-30
2021-12-10 14:08:49.868726,-38
2021-12-10 14:08:49.868734,-40
2021-12-10 14:08:49.868743,-30
2021-12-10 14:08:49.868751,-57
2021-12-10 14:08:49.868759,-81
2021-12-10 14:08:49.868768,-71
2021-12-10 14:08:49.868776,-83
2021-12-10 14:08:49.868785,-109
2021-12-10 14:08:49.868793,-116
2021-12-10 14:08:49.868802,-123
2021-12-10 14:08:49.868810,-121
2021-12-10 14:08:49.868819,-107
2021-12-10 14:08:49.868827,-100
2021-12-10 14:08:49.868835,-90
2021-12-10 14:08:49.868844,-104
2021-12-10 14:08:49.868852,-200
2021-12-10 14:08:49.868861,-331
2021-12-10 14:08:49.868869,-205
2021-12-10 14:08:49.868877,414
2021-12-10 14:08:49.868886,1385
2021-12-10 14:08:49.868894,2007
2021-12-10 14:08:49.868902,1444
2021-12-10 14:08:49.868911,145
2021-12-10 14:08:49.868919,-429
2021-12-10 14:08:49.868927,-145
2021-12-10 14:08:49.868936,-42
2021-12-10 14:08:49.868944,-219
2021-12-10 14:08:50.048689,-195
2021-12-10 14:08:50.048708,-107
2021-12-10 14:08:50.048718,-123
2021-12-10 14:08:50.048727,-116
2021-12-10 14:08:50.048735,-92
2021-12-10 14:08:50.048744,-102
2021-12-10 14:08:50.048752,-78
2021-12-10 14:08:50.048761,-33
2021-12-10 14:08:50.048769,-26
2021-12-10 14:08:50.048777,-23
2021-12-10 14:08:50.048786,-26
2021-12-10 14:08:50.048794,-38
2021-12-10 14:08:50.048803,-16
2021-12-10 14:08:50.048811,16
2021-12-10 14:08:50.048820,21
2021-12-10 14:08:50.048828,45
2021-12-10 14:08:50.048836,71
2021-12-10 14:08:50.048845,59
2021-12-10 14:08:50.048853,66
2021-12-10 14:08:50.048862,88
2021-12-10 14:08:50.048870,66
2021-12-10 14:08:50.048878,21
2021-12-10 14:08:50.048887,0
2021-12-10 14:08:50.048895,-4
2021-12-10 14:08:50.048903,-7
2021-12-10 14:08:50.048912,-7
2021-12-10 14:08:50.048920,-11
2021-12-10 14:08:50.048928,-28
2021-12-10 14:08:50.048937,-45
2021-12-10 14:08:50.048945,-52
2021-12-10 14:08:50.316976,-59
2021-12-10 14:08:50.316996,-66
2021-12-10 14:08:50.317006,-64
2021-12-10 14:08:50.317015,-76
2021-12-10 14:08:50.317023,-102
2021-12-10 14:08:50.317032,-104
2021-12-10 14:08:50.317040,-85
2021-12-10 14:08:50.317048,-71
2021-12-10 14:08:50.317057,-69
2021-12-10 14:08:50.317065,-78
2021-12-10 14:08:50.317073,-97
2021-12-10 14:08:50.317082,-97
2021-12-10 14:08:50.317090,-76
2021-12-10 14:08:50.317098,-61
2021-12-10 14:08:50.317107,-59
2021-12-10 14:08:50.317115,-61
2021-12-10 14:08:50.317123,-69
2021-12-10 14:08:50.317132,-59
2021-12-10 14:08:50.317140,-42
2021-12-10 14:08:50.317148,-42
2021-12-10 14:08:50.317156,-59
2021-12-10 14:08:50.317165,-69
2021-12-10 14:08:50.317173,-78
2021-12-10 14:08:50.317181,-102
2021-12-10 14:08:50.317189,-109
2021-12-10 14:08:50.317197,-85
2021-12-10 14:08:50.317205,-81
2021-12-10 14:08:50.317214,-100
2021-12-10 14:08:50.317222,-92
2021-12-10 14:08:50.317230,-52
2021-12-10 14:08:50.543437,-21
2021-12-10 14:08:50.543458,-26
2021-12-10 14:08:50.543468,-45
2021-12-10 14:08:50.543477,-92
2021-12-10 14:08:50.543485,-147
2021-12-10 14:08:50.543494,-143
2021-12-10 14:08:50.543503,-116
2021-12-10 14:08:50.543511,-119
2021-12-10 14:08:50.543520,-121
2021-12-10 14:08:50.543528,-138
2021-12-10 14:08:50.543537,-150
2021-12-10 14:08:50.543545,-133
2021-12-10 14:08:50.543554,-154
2021-12-10 14:08:50.543562,-262
2021-12-10 14:08:50.543571,-288
2021-12-10 14:08:50.543579,57
2021-12-10 14:08:50.543588,827
2021-12-10 14:08:50.543596,1645
2021-12-10 14:08:50.543605,1673
2021-12-10 14:08:50.543613,615
2021-12-10 14:08:50.543622,-381
2021-12-10 14:08:50.543630,-381
2021-12-10 14:08:50.543639,-100
2021-12-10 14:08:50.543647,-181
2021-12-10 14:08:50.543656,-269
2021-12-10 14:08:50.543664,-200
2021-12-10 14:08:50.543673,-195
2021-12-10 14:08:50.543681,-226
2021-12-10 14:08:50.543690,-190
2021-12-10 14:08:50.543698,-150
2021-12-10 14:08:50.768825,-135
2021-12-10 14:08:50.768843,-112
2021-12-10 14:08:50.768853,-92
2021-12-10 14:08:50.768861,-92
2021-12-10 14:08:50.768870,-73
2021-12-10 14:08:50.768879,-35
2021-12-10 14:08:50.768887,-11
2021-12-10 14:08:50.768896,9
2021-12-10 14:08:50.768904,14
2021-12-10 14:08:50.768913,0
2021-12-10 14:08:50.768922,16
2021-12-10 14:08:50.768930,52
2021-12-10 14:08:50.768939,69
2021-12-10 14:08:50.768947,64
2021-12-10 14:08:50.768956,38
2021-12-10 14:08:50.768964,2
2021-12-10 14:08:50.768973,-4
2021-12-10 14:08:50.768981,-4
2021-12-10 14:08:50.768990,-23
2021-12-10 14:08:50.768998,-45
2021-12-10 14:08:50.769006,-54
2021-12-10 14:08:50.769015,-59
2021-12-10 14:08:50.769023,-57
2021-12-10 14:08:50.769031,-35
2021-12-10 14:08:50.769040,-2
2021-12-10 14:08:50.769048,16
2021-12-10 14:08:50.769057,7
2021-12-10 14:08:50.769065,-14
2021-12-10 14:08:50.769073,-35
2021-12-10 14:08:50.769082,-47
2021-12-10 14:08:50.993671,-35
2021-12-10 14:08:50.993689,-21
2021-12-10 14:08:50.993698,-21
2021-12-10 14:08:50.993707,-21
2021-12-10 14:08:50.993716,-9
2021-12-10 14:08:50.993724,28
2021-12-10 14:08:50.993733,50
2021-12-10 14:08:50.993741,23
2021-12-10 14:08:50.993750,-26
2021-12-10 14:08:50.993758,-45
2021-12-10 14:08:50.993767,-35
2021-12-10 14:08:50.993775,-42
2021-12-10 14:08:50.993784,-61
2021-12-10 14:08:50.993792,-69
2021-12-10 14:08:50.993801,-90
2021-12-10 14:08:50.993809,-102
2021-12-10 14:08:50.993818,-88
2021-12-10 14:08:50.993826,-78
2021-12-10 14:08:50.993835,-78
2021-12-10 14:08:50.993843,-76
2021-12-10 14:08:50.993852,-76
2021-12-10 14:08:50.993860,-88
2021-12-10 14:08:50.993869,-114
2021-12-10 14:08:50.993877,-133
2021-12-10 14:08:50.993885,-119
2021-12-10 14:08:50.993894,-90
2021-12-10 14:08:50.993902,-73
2021-12-10 14:08:50.993911,-71
2021-12-10 14:08:50.993927,-81
2021-12-10 14:08:50.993936,-92
2021-12-10 14:08:51.218703,-109
2021-12-10 14:08:51.218722,-128
2021-12-10 14:08:51.218732,-131
2021-12-10 14:08:51.218741,-121
2021-12-10 14:08:51.218749,-114
2021-12-10 14:08:51.218758,-109
2021-12-10 14:08:51.218766,-107
2021-12-10 14:08:51.218775,-119
2021-12-10 14:08:51.218783,-140
2021-12-10 14:08:51.218792,-205
2021-12-10 14:08:51.218800,-286
2021-12-10 14:08:51.218809,-121
2021-12-10 14:08:51.218817,476
2021-12-10 14:08:51.218826,1320
2021-12-10 14:08:51.218834,1728
2021-12-10 14:08:51.218842,1044
2021-12-10 14:08:51.218851,-107
2021-12-10 14:08:51.218859,-431
2021-12-10 14:08:51.218868,-116
2021-12-10 14:08:51.218876,-100
2021-12-10 14:08:51.218885,-262
2021-12-10 14:08:51.218893,-226
2021-12-10 14:08:51.218902,-181
2021-12-10 14:08:51.218910,-212
2021-12-10 14:08:51.218918,-202
2021-12-10 14:08:51.218927,-150
2021-12-10 14:08:51.218935,-140
2021-12-10 14:08:51.218944,-176
2021-12-10 14:08:51.218952,-159
2021-12-10 14:08:51.218961,-83
2021-12-10 14:08:51.443289,-45
2021-12-10 14:08:51.443307,-54
2021-12-10 14:08:51.443316,-30
2021-12-10 14:08:51.443325,-4
2021-12-10 14:08:51.443334,-28
2021-12-10 14:08:51.443342,-50
2021-12-10 14:08:51.443351,-42
2021-12-10 14:08:51.443359,-23
2021-12-10 14:08:51.443367,-16
2021-12-10 14:08:51.443376,-61
2021-12-10 14:08:51.443384,-119
2021-12-10 14:08:51.443392,-107
2021-12-10 14:08:51.443401,-100
2021-12-10 14:08:51.443409,-154
2021-12-10 14:08:51.443418,-178
2021-12-10 14:08:51.443426,-140
2021-12-10 14:08:51.443434,-112
2021-12-10 14:08:51.443443,-107
2021-12-10 14:08:51.443451,-100
2021-12-10 14:08:51.443459,-78
2021-12-10 14:08:51.443468,-59
2021-12-10 14:08:51.443476,-83
2021-12-10 14:08:51.443484,-114
2021-12-10 14:08:51.443492,-88
2021-12-10 14:08:51.443501,-45
2021-12-10 14:08:51.443509,-54
2021-12-10 14:08:51.443517,-81
2021-12-10 14:08:51.443526,-59
2021-12-10 14:08:51.443534,-52
2021-12-10 14:08:51.443542,-121
2021-12-10 14:08:51.757752,-159
2021-12-10 14:08:51.757772,-121
2021-12-10 14:08:51.757782,-126
2021-12-10 14:08:51.757791,-174
2021-12-10 14:08:51.757799,-145
2021-12-10 14:08:51.757807,-85
2021-12-10 14:08:51.757816,-102
2021-12-10 14:08:51.757824,-140
2021-12-10 14:08:51.757833,-152
2021-12-10 14:08:51.757841,-183
2021-12-10 14:08:51.757850,-195
2021-12-10 14:08:51.757858,-174
2021-12-10 14:08:51.757867,-145
2021-12-10 14:08:51.757875,-121
2021-12-10 14:08:51.757883,-119
2021-12-10 14:08:51.757892,-107
2021-12-10 14:08:51.757900,-81
2021-12-10 14:08:51.757909,-78
2021-12-10 14:08:51.757917,-88
2021-12-10 14:08:51.757926,-64
2021-12-10 14:08:51.757934,-21
2021-12-10 14:08:51.757942,-4
2021-12-10 14:08:51.757950,30
2021-12-10 14:08:51.757959,83
2021-12-10 14:08:51.757967,33
2021-12-10 14:08:51.757975,-28
2021-12-10 14:08:51.757984,26
2021-12-10 14:08:51.757992,52
2021-12-10 14:08:51.758000,2
2021-12-10 14:08:51.758009,-4
2021-12-10 14:08:51.983724,33
2021-12-10 14:08:51.983744,69
2021-12-10 14:08:51.983754,71
2021-12-10 14:08:51.983763,-2
2021-12-10 14:08:51.983771,-112
2021-12-10 14:08:51.983780,-64
2021-12-10 14:08:51.983789,317
2021-12-10 14:08:51.983798,1015
2021-12-10 14:08:51.983806,1628
2021-12-10 14:08:51.983815,1392
2021-12-10 14:08:51.983823,340
2021-12-10 14:08:51.983832,-295
2021-12-10 14:08:51.983841,-100
2021-12-10 14:08:51.983850,69
2021-12-10 14:08:51.983858,-71
2021-12-10 14:08:51.983867,-119
2021-12-10 14:08:51.983875,-35
2021-12-10 14:08:51.983884,-21
2021-12-10 14:08:51.983892,-30
2021-12-10 14:08:51.983901,35
2021-12-10 14:08:51.983909,66
2021-12-10 14:08:51.983918,0
2021-12-10 14:08:51.983926,-14
2021-12-10 14:08:51.983935,54
2021-12-10 14:08:51.983943,66
2021-12-10 14:08:51.983951,47
2021-12-10 14:08:51.983960,85
2021-12-10 14:08:51.983968,128
2021-12-10 14:08:51.983977,143
2021-12-10 14:08:51.983985,140
2021-12-10 14:08:52.163741,114
2021-12-10 14:08:52.163760,112
2021-12-10 14:08:52.163769,140
2021-12-10 14:08:52.163778,119
2021-12-10 14:08:52.163786,52
2021-12-10 14:08:52.163794,42
2021-12-10 14:08:52.163803,57
2021-12-10 14:08:52.163811,26
2021-12-10 14:08:52.163820,-16
2021-12-10 14:08:52.163828,-26
2021-12-10 14:08:52.163837,-14
2021-12-10 14:08:52.163845,-14
2021-12-10 14:08:52.163854,-21
2021-12-10 14:08:52.163862,2
2021-12-10 14:08:52.163871,23
2021-12-10 14:08:52.163879,2
2021-12-10 14:08:52.163887,-28
2021-12-10 14:08:52.163896,-14
2021-12-10 14:08:52.163904,-4
2021-12-10 14:08:52.163912,-47
2021-12-10 14:08:52.163921,-59
2021-12-10 14:08:52.163929,-52
2021-12-10 14:08:52.163937,-102
2021-12-10 14:08:52.163946,-114
2021-12-10 14:08:52.163954,-57
2021-12-10 14:08:52.163962,-52
2021-12-10 14:08:52.163971,-85
2021-12-10 14:08:52.163979,-78
2021-12-10 14:08:52.163987,-71
2021-12-10 14:08:52.163996,-83
2021-12-10 14:08:52.432382,-81
2021-12-10 14:08:52.432402,-69
2021-12-10 14:08:52.432411,-45
2021-12-10 14:08:52.432420,-59
2021-12-10 14:08:52.432428,-100
2021-12-10 14:08:52.432437,-97
2021-12-10 14:08:52.432445,-76
2021-12-10 14:08:52.432453,-52
2021-12-10 14:08:52.432461,-38
2021-12-10 14:08:52.432470,-59
2021-12-10 14:08:52.432478,-90
2021-12-10 14:08:52.432486,-76
2021-12-10 14:08:52.432494,-2
2021-12-10 14:08:52.432503,78
2021-12-10 14:08:52.432511,42
2021-12-10 14:08:52.432520,-38
2021-12-10 14:08:52.432528,-21
2021-12-10 14:08:52.432536,-4
2021-12-10 14:08:52.432544,-45
2021-12-10 14:08:52.432553,-26
2021-12-10 14:08:52.432561,16
2021-12-10 14:08:52.432569,2
2021-12-10 14:08:52.432578,-4
2021-12-10 14:08:52.432586,19
2021-12-10 14:08:52.432594,-11
2021-12-10 14:08:52.432602,-69
2021-12-10 14:08:52.432611,-107
2021-12-10 14:08:52.432619,-152
2021-12-10 14:08:52.432627,-35
2021-12-10 14:08:52.432636,472
2021-12-10 14:08:52.658403,1270
2021-12-10 14:08:52.658423,1838
2021-12-10 14:08:52.658433,1409
2021-12-10 14:08:52.658442,255
2021-12-10 14:08:52.658450,-267
2021-12-10 14:08:52.658459,-19
2021-12-10 14:08:52.658467,78
2021-12-10 14:08:52.658476,-19
2021-12-10 14:08:52.658485,-28
2021-12-10 14:08:52.658493,-50
2021-12-10 14:08:52.658502,-102
2021-12-10 14:08:52.658510,-97
2021-12-10 14:08:52.658519,-69
2021-12-10 14:08:52.658527,-64
2021-12-10 14:08:52.658536,-59
2021-12-10 14:08:52.658544,-21
2021-12-10 14:08:52.658552,-19
2021-12-10 14:08:52.658561,-50
2021-12-10 14:08:52.658569,-2
2021-12-10 14:08:52.658578,47
2021-12-10 14:08:52.658586,-11
2021-12-10 14:08:52.658595,-38
2021-12-10 14:08:52.658603,33
2021-12-10 14:08:52.658611,78
2021-12-10 14:08:52.658620,76
2021-12-10 14:08:52.658628,88
2021-12-10 14:08:52.658637,95
2021-12-10 14:08:52.658645,66
2021-12-10 14:08:52.658653,47
2021-12-10 14:08:52.658662,83
2021-12-10 14:08:52.838744,95
2021-12-10 14:08:52.838764,30
2021-12-10 14:08:52.838774,-21
2021-12-10 14:08:52.838783,9
2021-12-10 14:08:52.838791,57
2021-12-10 14:08:52.838799,59
2021-12-10 14:08:52.838808,66
2021-12-10 14:08:52.838816,102
2021-12-10 14:08:52.838824,66
2021-12-10 14:08:52.838832,-14
2021-12-10 14:08:52.838841,-19
2021-12-10 14:08:52.838849,38
2021-12-10 14:08:52.838857,59
2021-12-10 14:08:52.838866,9
2021-12-10 14:08:52.838874,-83
2021-12-10 14:08:52.838882,-119
2021-12-10 14:08:52.838891,-52
2021-12-10 14:08:52.838899,2
2021-12-10 14:08:52.838907,-9
2021-12-10 14:08:52.838916,-45
2021-12-10 14:08:52.838924,-64
2021-12-10 14:08:52.838932,-61
2021-12-10 14:08:52.838940,-57
2021-12-10 14:08:52.838956,-50
2021-12-10 14:08:52.838965,-40
2021-12-10 14:08:52.838973,-33
2021-12-10 14:08:52.838982,-38
2021-12-10 14:08:52.838990,-38
2021-12-10 14:08:52.838998,4
2021-12-10 14:08:52.839007,19
2021-12-10 14:08:53.063379,9
2021-12-10 14:08:53.063399,59
2021-12-10 14:08:53.063409,109
2021-12-10 14:08:53.063418,138
2021-12-10 14:08:53.063426,154
2021-12-10 14:08:53.063435,97
2021-12-10 14:08:53.063443,42
2021-12-10 14:08:53.063452,50
2021-12-10 14:08:53.063460,38
2021-12-10 14:08:53.063469,21
2021-12-10 14:08:53.063477,38
2021-12-10 14:08:53.063486,57
2021-12-10 14:08:53.063494,64
2021-12-10 14:08:53.063503,45
2021-12-10 14:08:53.063511,14
2021-12-10 14:08:53.063520,4
2021-12-10 14:08:53.063528,-45
2021-12-10 14:08:53.063537,-174
2021-12-10 14:08:53.063545,-250
2021-12-10 14:08:53.063553,-52
2021-12-10 14:08:53.063562,510
2021-12-10 14:08:53.063570,1256
2021-12-10 14:08:53.063579,1619
2021-12-10 14:08:53.063587,987
2021-12-10 14:08:53.063595,-42
2021-12-10 14:08:53.063604,-300
2021-12-10 14:08:53.063612,-45
2021-12-10 14:08:53.063620,-52
2021-12-10 14:08:53.063629,-143
2021-12-10 14:08:53.063637,-88
2021-12-10 14:08:53.288733,-95
2021-12-10 14:08:53.288752,-119
2021-12-10 14:08:53.288761,-42
2021-12-10 14:08:53.288770,11
2021-12-10 14:08:53.288779,-16
2021-12-10 14:08:53.288787,-23
2021-12-10 14:08:53.288796,-4
2021-12-10 14:08:53.288804,-11
2021-12-10 14:08:53.288812,-9
2021-12-10 14:08:53.288821,28
2021-12-10 14:08:53.288829,47
2021-12-10 14:08:53.288838,47
2021-12-10 14:08:53.288846,33
2021-12-10 14:08:53.288854,7
2021-12-10 14:08:53.288862,21
2021-12-10 14:08:53.288871,59
2021-12-10 14:08:53.288879,76
2021-12-10 14:08:53.288887,47
2021-12-10 14:08:53.288896,-2
2021-12-10 14:08:53.288904,-4
2021-12-10 14:08:53.288912,19
2021-12-10 14:08:53.288920,7
2021-12-10 14:08:53.288929,-9
2021-12-10 14:08:53.288937,4
2021-12-10 14:08:53.288945,30
2021-12-10 14:08:53.288953,26
2021-12-10 14:08:53.288962,-14
2021-12-10 14:08:53.288970,-28
2021-12-10 14:08:53.288978,-2
2021-12-10 14:08:53.288987,4
2021-12-10 14:08:53.513407,-11
2021-12-10 14:08:53.513427,0
2021-12-10 14:08:53.513437,9
2021-12-10 14:08:53.513445,-11
2021-12-10 14:08:53.513454,-14
2021-12-10 14:08:53.513463,-26
2021-12-10 14:08:53.513471,-66
2021-12-10 14:08:53.513479,-69
2021-12-10 14:08:53.513488,-50
2021-12-10 14:08:53.513496,-61
2021-12-10 14:08:53.513505,-54
2021-12-10 14:08:53.513513,-50
2021-12-10 14:08:53.513522,-73
2021-12-10 14:08:53.513530,-73
2021-12-10 14:08:53.513539,-54
2021-12-10 14:08:53.513547,-57
2021-12-10 14:08:53.513556,-59
2021-12-10 14:08:53.513564,-52
2021-12-10 14:08:53.513572,-54
2021-12-10 14:08:53.513581,-69
2021-12-10 14:08:53.513589,-76
2021-12-10 14:08:53.513597,-85
2021-12-10 14:08:53.513605,-114
2021-12-10 14:08:53.513614,-114
2021-12-10 14:08:53.513622,-64
2021-12-10 14:08:53.513631,-38
2021-12-10 14:08:53.513639,-42
2021-12-10 14:08:53.513647,-45
2021-12-10 14:08:53.513656,-52
2021-12-10 14:08:53.513664,-64
2021-12-10 14:08:53.738732,-59
2021-12-10 14:08:53.738752,-45
2021-12-10 14:08:53.738761,-28
2021-12-10 14:08:53.738770,-19
2021-12-10 14:08:53.738779,-23
2021-12-10 14:08:53.738787,-50
2021-12-10 14:08:53.738795,-83
2021-12-10 14:08:53.738804,-150
2021-12-10 14:08:53.738812,-200
2021-12-10 14:08:53.738821,28
2021-12-10 14:08:53.738829,691
2021-12-10 14:08:53.738838,1537
2021-12-10 14:08:53.738846,1816
2021-12-10 14:08:53.738855,968
2021-12-10 14:08:53.738863,-126
2021-12-10 14:08:53.738872,-305
2021-12-10 14:08:53.738880,-45
2021-12-10 14:08:53.738888,-95
2021-12-10 14:08:53.738897,-159
2021-12-10 14:08:53.738905,-59
2021-12-10 14:08:53.738913,-35
2021-12-10 14:08:53.738922,-88
2021-12-10 14:08:53.738930,-97
2021-12-10 14:08:53.738939,-71
2021-12-10 14:08:53.738947,-52
2021-12-10 14:08:53.738955,-30
2021-12-10 14:08:53.738963,-9
2021-12-10 14:08:53.738972,2
2021-12-10 14:08:53.738980,9
2021-12-10 14:08:53.738989,21
2021-12-10 14:08:53.963724,42
2021-12-10 14:08:53.963744,69
2021-12-10 14:08:53.963754,76
2021-12-10 14:08:53.963762,71
2021-12-10 14:08:53.963771,66
2021-12-10 14:08:53.963779,64
2021-12-10 14:08:53.963788,66
2021-12-10 14:08:53.963796,33
2021-12-10 14:08:53.963804,-11
2021-12-10 14:08:53.963813,-23
2021-12-10 14:08:53.963821,-47
2021-12-10 14:08:53.963830,-78
2021-12-10 14:08:53.963838,-76
2021-12-10 14:08:53.963847,-69
2021-12-10 14:08:53.963855,-69
2021-12-10 14:08:53.963864,-66
2021-12-10 14:08:53.963872,-76
2021-12-10 14:08:53.963881,-81
2021-12-10 14:08:53.963889,-59
2021-12-10 14:08:53.963897,-28
2021-12-10 14:08:53.963906,-26
2021-12-10 14:08:53.963914,-69
2021-12-10 14:08:53.963923,-102
2021-12-10 14:08:53.963931,-88
2021-12-10 14:08:53.963939,-71
2021-12-10 14:08:53.963947,-54
2021-12-10 14:08:53.963956,-40
2021-12-10 14:08:53.963964,-71
2021-12-10 14:08:53.963973,-128
2021-12-10 14:08:53.963981,-152
2021-12-10 14:08:54.233480,-140
2021-12-10 14:08:54.233502,-128
2021-12-10 14:08:54.233512,-143
2021-12-10 14:08:54.233521,-178
2021-12-10 14:08:54.233530,-195
2021-12-10 14:08:54.233538,-185
2021-12-10 14:08:54.233547,-166
2021-12-10 14:08:54.233555,-145
2021-12-10 14:08:54.233564,-150
2021-12-10 14:08:54.233572,-188
2021-12-10 14:08:54.233581,-212
2021-12-10 14:08:54.233589,-190
2021-12-10 14:08:54.233598,-157
2021-12-10 14:08:54.233606,-121
2021-12-10 14:08:54.233614,-97
2021-12-10 14:08:54.233623,-112
2021-12-10 14:08:54.233631,-114
2021-12-10 14:08:54.233639,-88
2021-12-10 14:08:54.233648,-92
2021-12-10 14:08:54.233656,-116
2021-12-10 14:08:54.233664,-116
2021-12-10 14:08:54.233673,-116
2021-12-10 14:08:54.233681,-119
2021-12-10 14:08:54.233689,-100
2021-12-10 14:08:54.233698,-83
2021-12-10 14:08:54.233706,-90
2021-12-10 14:08:54.233714,-138
2021-12-10 14:08:54.233723,-250
2021-12-10 14:08:54.233731,-324
2021-12-10 14:08:54.233739,-88
2021-12-10 14:08:54.502547,600
2021-12-10 14:08:54.502569,1495
2021-12-10 14:08:54.502578,1828
2021-12-10 14:08:54.502587,1008
2021-12-10 14:08:54.502596,-119
2021-12-10 14:08:54.502605,-352
2021-12-10 14:08:54.502614,-69
2021-12-10 14:08:54.502622,-81
2021-12-10 14:08:54.502631,-209
2021-12-10 14:08:54.502639,-181
2021-12-10 14:08:54.502648,-145
2021-12-10 14:08:54.502656,-147
2021-12-10 14:08:54.502664,-128
2021-12-10 14:08:54.502673,-126
2021-12-10 14:08:54.502682,-154
2021-12-10 14:08:54.502690,-123
2021-12-10 14:08:54.502699,-52
2021-12-10 14:08:54.502707,-52
2021-12-10 14:08:54.502716,-81
2021-12-10 14:08:54.502724,-45
2021-12-10 14:08:54.502733,-7
2021-12-10 14:08:54.502742,-19
2021-12-10 14:08:54.502750,0
2021-12-10 14:08:54.502759,52
2021-12-10 14:08:54.502767,78
2021-12-10 14:08:54.502776,88
2021-12-10 14:08:54.502784,88
2021-12-10 14:08:54.502793,64
2021-12-10 14:08:54.502802,42
2021-12-10 14:08:54.502810,47
2021-12-10 14:08:54.683855,47
2021-12-10 14:08:54.683877,30
2021-12-10 14:08:54.683886,7
2021-12-10 14:08:54.683895,-38
2021-12-10 14:08:54.683904,-95
2021-12-10 14:08:54.683912,-133
2021-12-10 14:08:54.683920,-133
2021-12-10 14:08:54.683929,-143
2021-12-10 14:08:54.683937,-185
2021-12-10 14:08:54.683946,-207
2021-12-10 14:08:54.683954,-185
2021-12-10 14:08:54.683962,-169
2021-12-10 14:08:54.683971,-166
2021-12-10 14:08:54.683979,-174
2021-12-10 14:08:54.683988,-195
2021-12-10 14:08:54.683996,-202
2021-12-10 14:08:54.684005,-176
2021-12-10 14:08:54.684013,-152
2021-12-10 14:08:54.684022,-145
2021-12-10 14:08:54.684030,-138
2021-12-10 14:08:54.684038,-135
2021-12-10 14:08:54.684046,-138
2021-12-10 14:08:54.684055,-131
2021-12-10 14:08:54.684063,-123
2021-12-10 14:08:54.684071,-123
2021-12-10 14:08:54.684080,-131
2021-12-10 14:08:54.684088,-159
2021-12-10 14:08:54.684097,-174
2021-12-10 14:08:54.684105,-152
2021-12-10 14:08:54.684114,-152
2021-12-10 14:08:54.908767,-171
2021-12-10 14:08:54.908787,-164
2021-12-10 14:08:54.908796,-143
2021-12-10 14:08:54.908805,-116
2021-12-10 14:08:54.908813,-92
2021-12-10 14:08:54.908822,-85
2021-12-10 14:08:54.908830,-90
2021-12-10 14:08:54.908839,-114
2021-12-10 14:08:54.908847,-150
2021-12-10 14:08:54.908855,-150
2021-12-10 14:08:54.908863,-131
2021-12-10 14:08:54.908872,-121
2021-12-10 14:08:54.908880,-112
2021-12-10 14:08:54.908888,-121
2021-12-10 14:08:54.908897,-135
2021-12-10 14:08:54.908905,-131
2021-12-10 14:08:54.908914,-157
2021-12-10 14:08:54.908930,-255
2021-12-10 14:08:54.908939,-250
2021-12-10 14:08:54.908947,128
2021-12-10 14:08:54.908956,913
2021-12-10 14:08:54.908964,1697
2021-12-10 14:08:54.908972,1621
2021-12-10 14:08:54.908981,529
2021-12-10 14:08:54.908989,-326
2021-12-10 14:08:54.908997,-257
2021-12-10 14:08:54.909005,-57
2021-12-10 14:08:54.909013,-157
2021-12-10 14:08:54.909022,-185
2021-12-10 14:08:54.909030,-102
2021-12-10 14:08:55.133836,-97
2021-12-10 14:08:55.133858,-121
2021-12-10 14:08:55.133868,-112
2021-12-10 14:08:55.133877,-100
2021-12-10 14:08:55.133886,-81
2021-12-10 14:08:55.133894,-57
2021-12-10 14:08:55.133903,-54
2021-12-10 14:08:55.133911,-61
2021-12-10 14:08:55.133920,-50
2021-12-10 14:08:55.133928,-50
2021-12-10 14:08:55.133937,-66
2021-12-10 14:08:55.133945,-45
2021-12-10 14:08:55.133953,-23
2021-12-10 14:08:55.133962,-28
2021-12-10 14:08:55.133970,-11
2021-12-10 14:08:55.133978,11
2021-12-10 14:08:55.133987,16
2021-12-10 14:08:55.133995,26
2021-12-10 14:08:55.134004,33
2021-12-10 14:08:55.134012,30
2021-12-10 14:08:55.134020,16
2021-12-10 14:08:55.134028,-2
2021-12-10 14:08:55.134037,-7
2021-12-10 14:08:55.134045,-7
2021-12-10 14:08:55.134053,-21
2021-12-10 14:08:55.134061,-33
2021-12-10 14:08:55.134070,-38
2021-12-10 14:08:55.134078,-50
2021-12-10 14:08:55.134086,-71
2021-12-10 14:08:55.134095,-78
2021-12-10 14:08:55.448385,-81
2021-12-10 14:08:55.448406,-81
2021-12-10 14:08:55.448415,-69
2021-12-10 14:08:55.448424,-64
2021-12-10 14:08:55.448433,-81
2021-12-10 14:08:55.448442,-104
2021-12-10 14:08:55.448450,-126
2021-12-10 14:08:55.448459,-123
2021-12-10 14:08:55.448467,-109
2021-12-10 14:08:55.448476,-102
2021-12-10 14:08:55.448484,-90
2021-12-10 14:08:55.448493,-92
2021-12-10 14:08:55.448501,-112
2021-12-10 14:08:55.448510,-107
2021-12-10 14:08:55.448518,-97
2021-12-10 14:08:55.448526,-112
2021-12-10 14:08:55.448535,-104
2021-12-10 14:08:55.448543,-90
2021-12-10 14:08:55.448551,-107
2021-12-10 14:08:55.448560,-119
2021-12-10 14:08:55.448568,-116
2021-12-10 14:08:55.448577,-131
2021-12-10 14:08:55.448585,-119
2021-12-10 14:08:55.448593,-78
2021-12-10 14:08:55.448601,-71
2021-12-10 14:08:55.448610,-76
2021-12-10 14:08:55.448618,-61
2021-12-10 14:08:55.448627,-73
2021-12-10 14:08:55.448635,-95
2021-12-10 14:08:55.448643,-90
2021-12-10 14:08:55.583828,-88
2021-12-10 14:08:55.583849,-100
2021-12-10 14:08:55.583859,-92
2021-12-10 14:08:55.583868,-85
2021-12-10 14:08:55.583876,-81
2021-12-10 14:08:55.583885,-88
2021-12-10 14:08:55.583893,-150
2021-12-10 14:08:55.583901,-262
2021-12-10 14:08:55.583910,-226
2021-12-10 14:08:55.583918,202
2021-12-10 14:08:55.583927,1013
2021-12-10 14:08:55.583935,1738
2021-12-10 14:08:55.583944,1552
2021-12-10 14:08:55.583952,441
2021-12-10 14:08:55.583960,-364
2021-12-10 14:08:55.583969,-312
2021-12-10 14:08:55.583977,-164
2021-12-10 14:08:55.583986,-271
2021-12-10 14:08:55.583994,-290
2021-12-10 14:08:55.584002,-212
2021-12-10 14:08:55.584011,-205
2021-12-10 14:08:55.584019,-214
2021-12-10 14:08:55.584027,-190
2021-12-10 14:08:55.584035,-174
2021-12-10 14:08:55.584044,-166
2021-12-10 14:08:55.584052,-145
2021-12-10 14:08:55.584060,-116
2021-12-10 14:08:55.584068,-107
2021-12-10 14:08:55.584077,-104
2021-12-10 14:08:55.584085,-81
2021-12-10 14:08:55.898129,-40
2021-12-10 14:08:55.898148,-16
2021-12-10 14:08:55.898157,0
2021-12-10 14:08:55.898166,14
2021-12-10 14:08:55.898175,16
2021-12-10 14:08:55.898183,19
2021-12-10 14:08:55.898191,35
2021-12-10 14:08:55.898200,28
2021-12-10 14:08:55.898208,2
2021-12-10 14:08:55.898216,-14
2021-12-10 14:08:55.898224,-35
2021-12-10 14:08:55.898233,-50
2021-12-10 14:08:55.898241,-45
2021-12-10 14:08:55.898249,-54
2021-12-10 14:08:55.898258,-64
2021-12-10 14:08:55.898266,-61
2021-12-10 14:08:55.898274,-76
2021-12-10 14:08:55.898283,-92
2021-12-10 14:08:55.898291,-78
2021-12-10 14:08:55.898299,-69
2021-12-10 14:08:55.898307,-78
2021-12-10 14:08:55.898315,-95
2021-12-10 14:08:55.898324,-95
2021-12-10 14:08:55.898332,-83
2021-12-10 14:08:55.898340,-66
2021-12-10 14:08:55.898349,-54
2021-12-10 14:08:55.898357,-57
2021-12-10 14:08:55.898365,-61
2021-12-10 14:08:55.898373,-59
2021-12-10 14:08:55.898381,-50
2021-12-10 14:08:56.035464,-33
2021-12-10 14:08:56.035483,-23
2021-12-10 14:08:56.035493,-23
2021-12-10 14:08:56.035501,-40
2021-12-10 14:08:56.035509,-61
2021-12-10 14:08:56.035518,-52
2021-12-10 14:08:56.035526,-28
2021-12-10 14:08:56.035535,-28
2021-12-10 14:08:56.035543,-38
2021-12-10 14:08:56.035551,-45
2021-12-10 14:08:56.035560,-57
2021-12-10 14:08:56.035568,-71
2021-12-10 14:08:56.035577,-69
2021-12-10 14:08:56.035585,-73
2021-12-10 14:08:56.035593,-69
2021-12-10 14:08:56.035602,-61
2021-12-10 14:08:56.035610,-83
2021-12-10 14:08:56.035619,-73
2021-12-10 14:08:56.035627,-45
2021-12-10 14:08:56.035636,-90
2021-12-10 14:08:56.035644,-176
2021-12-10 14:08:56.035652,-202
2021-12-10 14:08:56.035661,-178
2021-12-10 14:08:56.035669,-154
2021-12-10 14:08:56.035678,-147
2021-12-10 14:08:56.035686,-133
2021-12-10 14:08:56.035695,-119
2021-12-10 14:08:56.035703,-138
2021-12-10 14:08:56.035711,-219
2021-12-10 14:08:56.035720,-326
2021-12-10 14:08:56.348948,-224
2021-12-10 14:08:56.348970,312
2021-12-10 14:08:56.348980,1180
2021-12-10 14:08:56.348989,1805
2021-12-10 14:08:56.348997,1385
2021-12-10 14:08:56.349006,188
2021-12-10 14:08:56.349014,-422
2021-12-10 14:08:56.349023,-202
2021-12-10 14:08:56.349031,-107
2021-12-10 14:08:56.349040,-262
2021-12-10 14:08:56.349048,-240
2021-12-10 14:08:56.349057,-162
2021-12-10 14:08:56.349065,-197
2021-12-10 14:08:56.349074,-207
2021-12-10 14:08:56.349082,-166
2021-12-10 14:08:56.349091,-159
2021-12-10 14:08:56.349099,-147
2021-12-10 14:08:56.349108,-114
2021-12-10 14:08:56.349116,-92
2021-12-10 14:08:56.349125,-69
2021-12-10 14:08:56.349133,-52
2021-12-10 14:08:56.349142,-52
2021-12-10 14:08:56.349150,-33
2021-12-10 14:08:56.349159,2
2021-12-10 14:08:56.349167,28
2021-12-10 14:08:56.349176,52
2021-12-10 14:08:56.349184,57
2021-12-10 14:08:56.349192,26
2021-12-10 14:08:56.349201,21
2021-12-10 14:08:56.349209,57
2021-12-10 14:08:56.572168,76
2021-12-10 14:08:56.572189,54
2021-12-10 14:08:56.572199,35
2021-12-10 14:08:56.572208,38
2021-12-10 14:08:56.572216,35
2021-12-10 14:08:56.572225,42
2021-12-10 14:08:56.572233,52
2021-12-10 14:08:56.572241,19
2021-12-10 14:08:56.572249,-33
2021-12-10 14:08:56.572258,-54
2021-12-10 14:08:56.572266,-47
2021-12-10 14:08:56.572274,-47
2021-12-10 14:08:56.572283,-61
2021-12-10 14:08:56.572291,-64
2021-12-10 14:08:56.572299,-76
2021-12-10 14:08:56.572308,-102
2021-12-10 14:08:56.572316,-97
2021-12-10 14:08:56.572324,-64
2021-12-10 14:08:56.572333,-40
2021-12-10 14:08:56.572341,-50
2021-12-10 14:08:56.572349,-71
2021-12-10 14:08:56.572358,-69
2021-12-10 14:08:56.572366,-59
2021-12-10 14:08:56.572374,-66
2021-12-10 14:08:56.572382,-61
2021-12-10 14:08:56.572391,-61
2021-12-10 14:08:56.572399,-88
2021-12-10 14:08:56.572407,-88
2021-12-10 14:08:56.572415,-57
2021-12-10 14:08:56.572423,-64
2021-12-10 14:08:56.753384,-81
2021-12-10 14:08:56.753403,-73
2021-12-10 14:08:56.753413,-81
2021-12-10 14:08:56.753422,-109
2021-12-10 14:08:56.753430,-114
2021-12-10 14:08:56.753439,-92
2021-12-10 14:08:56.753447,-83
2021-12-10 14:08:56.753456,-104
2021-12-10 14:08:56.753464,-126
2021-12-10 14:08:56.753473,-123
2021-12-10 14:08:56.753481,-109
2021-12-10 14:08:56.753490,-107
2021-12-10 14:08:56.753498,-133
2021-12-10 14:08:56.753507,-171
2021-12-10 14:08:56.753515,-183
2021-12-10 14:08:56.753524,-174
2021-12-10 14:08:56.753532,-200
2021-12-10 14:08:56.753541,-212
2021-12-10 14:08:56.753549,-162
2021-12-10 14:08:56.753557,-133
2021-12-10 14:08:56.753566,-178
2021-12-10 14:08:56.753574,-264
2021-12-10 14:08:56.753583,-293
2021-12-10 14:08:56.753591,-26
2021-12-10 14:08:56.753600,677
2021-12-10 14:08:56.753608,1561
2021-12-10 14:08:56.753616,1845
2021-12-10 14:08:56.753625,975
2021-12-10 14:08:56.753633,-154
2021-12-10 14:08:56.753642,-357
2021-12-10 14:08:56.978766,-69
2021-12-10 14:08:56.978785,-97
2021-12-10 14:08:56.978795,-209
2021-12-10 14:08:56.978803,-140
2021-12-10 14:08:56.978812,-104
2021-12-10 14:08:56.978820,-135
2021-12-10 14:08:56.978829,-133
2021-12-10 14:08:56.978837,-119
2021-12-10 14:08:56.978846,-112
2021-12-10 14:08:56.978854,-88
2021-12-10 14:08:56.978863,-71
2021-12-10 14:08:56.978871,-57
2021-12-10 14:08:56.978880,-54
2021-12-10 14:08:56.978888,-64
2021-12-10 14:08:56.978897,-47
2021-12-10 14:08:56.978905,-9
2021-12-10 14:08:56.978914,19
2021-12-10 14:08:56.978922,30
2021-12-10 14:08:56.978930,28
2021-12-10 14:08:56.978939,38
2021-12-10 14:08:56.978947,61
2021-12-10 14:08:56.978955,64
2021-12-10 14:08:56.978964,57
2021-12-10 14:08:56.978972,57
2021-12-10 14:08:56.978981,42
2021-12-10 14:08:56.978989,23
2021-12-10 14:08:56.978997,19
2021-12-10 14:08:56.979006,14
2021-12-10 14:08:56.979014,7
2021-12-10 14:08:56.979023,9
2021-12-10 14:08:57.248860,-4
2021-12-10 14:08:57.248879,-57
2021-12-10 14:08:57.248889,-100
2021-12-10 14:08:57.248898,-97
2021-12-10 14:08:57.248907,-97
2021-12-10 14:08:57.248915,-126
2021-12-10 14:08:57.248923,-138
2021-12-10 14:08:57.248932,-119
2021-12-10 14:08:57.248940,-104
2021-12-10 14:08:57.248949,-104
2021-12-10 14:08:57.248958,-97
2021-12-10 14:08:57.248966,-92
2021-12-10 14:08:57.248974,-112
2021-12-10 14:08:57.248983,-112
2021-12-10 14:08:57.248999,-83
2021-12-10 14:08:57.249008,-69
2021-12-10 14:08:57.249017,-66
2021-12-10 14:08:57.249025,-73
2021-12-10 14:08:57.249034,-85
2021-12-10 14:08:57.249042,-81
2021-12-10 14:08:57.249051,-81
2021-12-10 14:08:57.249059,-107
2021-12-10 14:08:57.249068,-123
2021-12-10 14:08:57.249076,-126
2021-12-10 14:08:57.249084,-138
2021-12-10 14:08:57.249092,-138
2021-12-10 14:08:57.249101,-119
2021-12-10 14:08:57.249109,-116
2021-12-10 14:08:57.249117,-131
2021-12-10 14:08:57.249126,-133
2021-12-10 14:08:57.428386,-119
2021-12-10 14:08:57.428407,-102
2021-12-10 14:08:57.428417,-90
2021-12-10 14:08:57.428425,-73
2021-12-10 14:08:57.428433,-52
2021-12-10 14:08:57.428441,-61
2021-12-10 14:08:57.428449,-76
2021-12-10 14:08:57.428457,-57
2021-12-10 14:08:57.428465,-57
2021-12-10 14:08:57.428472,-85
2021-12-10 14:08:57.428480,-92
2021-12-10 14:08:57.428488,-102
2021-12-10 14:08:57.428497,-114
2021-12-10 14:08:57.428505,-102
2021-12-10 14:08:57.428513,-90
2021-12-10 14:08:57.428521,-88
2021-12-10 14:08:57.428530,-102
2021-12-10 14:08:57.428538,-188
2021-12-10 14:08:57.428546,-295
2021-12-10 14:08:57.428554,-162
2021-12-10 14:08:57.428563,388
2021-12-10 14:08:57.428571,1251
2021-12-10 14:08:57.428579,1845
2021-12-10 14:08:57.428587,1351
2021-12-10 14:08:57.428595,140
2021-12-10 14:08:57.428604,-410
2021-12-10 14:08:57.428612,-174
2021-12-10 14:08:57.428620,-90
2021-12-10 14:08:57.428628,-233
2021-12-10 14:08:57.428636,-214
2021-12-10 14:08:57.653809,-143
2021-12-10 14:08:57.653829,-152
2021-12-10 14:08:57.653839,-147
2021-12-10 14:08:57.653848,-121
2021-12-10 14:08:57.653856,-133
2021-12-10 14:08:57.653865,-143
2021-12-10 14:08:57.653874,-135
2021-12-10 14:08:57.653882,-140
2021-12-10 14:08:57.653891,-140
2021-12-10 14:08:57.653899,-119
2021-12-10 14:08:57.653907,-116
2021-12-10 14:08:57.653916,-114
2021-12-10 14:08:57.653924,-78
2021-12-10 14:08:57.653933,-42
2021-12-10 14:08:57.653941,-26
2021-12-10 14:08:57.653950,-16
2021-12-10 14:08:57.653958,-4
2021-12-10 14:08:57.653967,11
2021-12-10 14:08:57.653975,23
2021-12-10 14:08:57.653983,33
2021-12-10 14:08:57.653992,30
2021-12-10 14:08:57.654000,-7
2021-12-10 14:08:57.654009,-50
2021-12-10 14:08:57.654017,-59
2021-12-10 14:08:57.654025,-69
2021-12-10 14:08:57.654034,-90
2021-12-10 14:08:57.654042,-95
2021-12-10 14:08:57.654051,-100
2021-12-10 14:08:57.654059,-116
2021-12-10 14:08:57.654068,-116
2021-12-10 14:08:57.878701,-100
2021-12-10 14:08:57.878719,-95
2021-12-10 14:08:57.878728,-92
2021-12-10 14:08:57.878737,-107
2021-12-10 14:08:57.878746,-126
2021-12-10 14:08:57.878754,-114
2021-12-10 14:08:57.878763,-88
2021-12-10 14:08:57.878771,-78
2021-12-10 14:08:57.878779,-73
2021-12-10 14:08:57.878788,-83
2021-12-10 14:08:57.878796,-107
2021-12-10 14:08:57.878805,-114
2021-12-10 14:08:57.878813,-107
2021-12-10 14:08:57.878822,-109
2021-12-10 14:08:57.878830,-123
2021-12-10 14:08:57.878839,-145
2021-12-10 14:08:57.878847,-147
2021-12-10 14:08:57.878855,-123
2021-12-10 14:08:57.878863,-112
2021-12-10 14:08:57.878872,-109
2021-12-10 14:08:57.878880,-104
2021-12-10 14:08:57.878888,-109
2021-12-10 14:08:57.878896,-114
2021-12-10 14:08:57.878905,-90
2021-12-10 14:08:57.878913,-69
2021-12-10 14:08:57.878921,-69
2021-12-10 14:08:57.878929,-83
2021-12-10 14:08:57.878938,-102
2021-12-10 14:08:57.878946,-97
2021-12-10 14:08:57.878954,-73
2021-12-10 14:08:58.148444,-59
2021-12-10 14:08:58.148464,-50
2021-12-10 14:08:58.148474,-38
2021-12-10 14:08:58.148483,-38
2021-12-10 14:08:58.148491,-40
2021-12-10 14:08:58.148500,-26
2021-12-10 14:08:58.148508,-14
2021-12-10 14:08:58.148517,-16
2021-12-10 14:08:58.148525,-42
2021-12-10 14:08:58.148533,-71
2021-12-10 14:08:58.148542,-71
2021-12-10 14:08:58.148550,-54
2021-12-10 14:08:58.148559,-71
2021-12-10 14:08:58.148567,-100
2021-12-10 14:08:58.148575,-97
2021-12-10 14:08:58.148583,-95
2021-12-10 14:08:58.148592,-135
2021-12-10 14:08:58.148600,-228
2021-12-10 14:08:58.148608,-212
2021-12-10 14:08:58.148616,185
2021-12-10 14:08:58.148625,977
2021-12-10 14:08:58.148633,1735
2021-12-10 14:08:58.148641,1659
2021-12-10 14:08:58.148649,596
2021-12-10 14:08:58.148658,-269
2021-12-10 14:08:58.148666,-209
2021-12-10 14:08:58.148674,-7
2021-12-10 14:08:58.148682,-147
2021-12-10 14:08:58.148690,-221
2021-12-10 14:08:58.148698,-143
2021-12-10 14:08:58.373505,-131
2021-12-10 14:08:58.373526,-138
2021-12-10 14:08:58.373536,-114
2021-12-10 14:08:58.373545,-109
2021-12-10 14:08:58.373554,-97
2021-12-10 14:08:58.373562,-64
2021-12-10 14:08:58.373571,-40
2021-12-10 14:08:58.373579,-35
2021-12-10 14:08:58.373588,-42
2021-12-10 14:08:58.373596,-50
2021-12-10 14:08:58.373605,-28
2021-12-10 14:08:58.373613,-9
2021-12-10 14:08:58.373622,0
2021-12-10 14:08:58.373630,11
2021-12-10 14:08:58.373639,0
2021-12-10 14:08:58.373647,-11
2021-12-10 14:08:58.373655,9
2021-12-10 14:08:58.373664,30
2021-12-10 14:08:58.373672,23
2021-12-10 14:08:58.373680,14
2021-12-10 14:08:58.373689,0
2021-12-10 14:08:58.373698,-21
2021-12-10 14:08:58.373706,-28
2021-12-10 14:08:58.373714,-23
2021-12-10 14:08:58.373723,-21
2021-12-10 14:08:58.373731,-33
2021-12-10 14:08:58.373739,-50
2021-12-10 14:08:58.373748,-59
2021-12-10 14:08:58.373756,-54
2021-12-10 14:08:58.373765,-50
2021-12-10 14:08:58.642162,-69
2021-12-10 14:08:58.642182,-102
2021-12-10 14:08:58.642192,-119
2021-12-10 14:08:58.642201,-116
2021-12-10 14:08:58.642210,-121
2021-12-10 14:08:58.642219,-123
2021-12-10 14:08:58.642227,-116
2021-12-10 14:08:58.642236,-128
2021-12-10 14:08:58.642244,-159
2021-12-10 14:08:58.642253,-152
2021-12-10 14:08:58.642261,-128
2021-12-10 14:08:58.642270,-119
2021-12-10 14:08:58.642278,-119
2021-12-10 14:08:58.642287,-131
2021-12-10 14:08:58.642295,-145
2021-12-10 14:08:58.642304,-138
2021-12-10 14:08:58.642312,-121
2021-12-10 14:08:58.642321,-135
2021-12-10 14:08:58.642329,-166
2021-12-10 14:08:58.642337,-169
2021-12-10 14:08:58.642346,-152
2021-12-10 14:08:58.642354,-145
2021-12-10 14:08:58.642362,-133
2021-12-10 14:08:58.642371,-109
2021-12-10 14:08:58.642379,-97
2021-12-10 14:08:58.642388,-97
2021-12-10 14:08:58.642396,-92
2021-12-10 14:08:58.642404,-83
2021-12-10 14:08:58.642413,-64
2021-12-10 14:08:58.642421,-47
2021-12-10 14:08:58.823794,-45
2021-12-10 14:08:58.823813,-52
2021-12-10 14:08:58.823823,-61
2021-12-10 14:08:58.823831,-59
2021-12-10 14:08:58.823840,-26
2021-12-10 14:08:58.823848,19
2021-12-10 14:08:58.823856,9
2021-12-10 14:08:58.823865,-23
2021-12-10 14:08:58.823873,-21
2021-12-10 14:08:58.823882,-19
2021-12-10 14:08:58.823890,-28
2021-12-10 14:08:58.823899,-16
2021-12-10 14:08:58.823907,-16
2021-12-10 14:08:58.823916,-40
2021-12-10 14:08:58.823924,-38
2021-12-10 14:08:58.823933,-19
2021-12-10 14:08:58.823941,-9
2021-12-10 14:08:58.823949,-7
2021-12-10 14:08:58.823958,-69
2021-12-10 14:08:58.823966,-171
2021-12-10 14:08:58.823974,-59
2021-12-10 14:08:58.823983,467
2021-12-10 14:08:58.823991,1294
2021-12-10 14:08:58.823999,1857
2021-12-10 14:08:58.824008,1397
2021-12-10 14:08:58.824016,247
2021-12-10 14:08:58.824024,-276
2021-12-10 14:08:58.824032,-40
2021-12-10 14:08:58.824041,42
2021-12-10 14:08:58.824049,-97
2021-12-10 14:08:59.093911,-88
2021-12-10 14:08:59.093931,-47
2021-12-10 14:08:59.093941,-90
2021-12-10 14:08:59.093950,-90
2021-12-10 14:08:59.093958,-71
2021-12-10 14:08:59.093966,-92
2021-12-10 14:08:59.093975,-107
2021-12-10 14:08:59.093983,-90
2021-12-10 14:08:59.093991,-66
2021-12-10 14:08:59.094000,-52
2021-12-10 14:08:59.094008,-35
2021-12-10 14:08:59.094016,-23
2021-12-10 14:08:59.094025,-35
2021-12-10 14:08:59.094033,-26
2021-12-10 14:08:59.094041,7
2021-12-10 14:08:59.094050,23
2021-12-10 14:08:59.094058,38
2021-12-10 14:08:59.094066,54
2021-12-10 14:08:59.094075,54
2021-12-10 14:08:59.094083,52
2021-12-10 14:08:59.094091,47
2021-12-10 14:08:59.094100,16
2021-12-10 14:08:59.094108,-28
2021-12-10 14:08:59.094116,-81
2021-12-10 14:08:59.094124,-131
2021-12-10 14:08:59.094133,-135
2021-12-10 14:08:59.094141,-116
2021-12-10 14:08:59.094150,-126
2021-12-10 14:08:59.094158,-131
2021-12-10 14:08:59.094166,-123
2021-12-10 14:08:59.318454,-126
2021-12-10 14:08:59.318473,-121
2021-12-10 14:08:59.318483,-112
2021-12-10 14:08:59.318491,-112
2021-12-10 14:08:59.318500,-107
2021-12-10 14:08:59.318508,-90
2021-12-10 14:08:59.318517,-95
2021-12-10 14:08:59.318525,-107
2021-12-10 14:08:59.318534,-95
2021-12-10 14:08:59.318542,-83
2021-12-10 14:08:59.318550,-88
2021-12-10 14:08:59.318559,-102
2021-12-10 14:08:59.318567,-104
2021-12-10 14:08:59.318576,-85
2021-12-10 14:08:59.318584,-73
2021-12-10 14:08:59.318592,-76
2021-12-10 14:08:59.318601,-76
2021-12-10 14:08:59.318609,-85
2021-12-10 14:08:59.318618,-88
2021-12-10 14:08:59.318626,-66
2021-12-10 14:08:59.318634,-52
2021-12-10 14:08:59.318643,-52
2021-12-10 14:08:59.318651,-50
2021-12-10 14:08:59.318659,-45
2021-12-10 14:08:59.318668,-35
2021-12-10 14:08:59.318676,-19
2021-12-10 14:08:59.318684,-9
2021-12-10 14:08:59.318693,-9
2021-12-10 14:08:59.318701,-9
2021-12-10 14:08:59.318709,-7
2021-12-10 14:08:59.543648,7
2021-12-10 14:08:59.543678,28
2021-12-10 14:08:59.543690,35
2021-12-10 14:08:59.543699,30
2021-12-10 14:08:59.543707,30
2021-12-10 14:08:59.543716,33
2021-12-10 14:08:59.543724,42
2021-12-10 14:08:59.543732,64
2021-12-10 14:08:59.543745,81
2021-12-10 14:08:59.543757,64
2021-12-10 14:08:59.543765,26
2021-12-10 14:08:59.543774,14
2021-12-10 14:08:59.543782,16
2021-12-10 14:08:59.543791,9
2021-12-10 14:08:59.543799,4
2021-12-10 14:08:59.543808,-2
2021-12-10 14:08:59.543816,-21
2021-12-10 14:08:59.543824,-30
2021-12-10 14:08:59.543833,-14
2021-12-10 14:08:59.543841,4
2021-12-10 14:08:59.543850,2
2021-12-10 14:08:59.543858,-42
2021-12-10 14:08:59.543866,-154
2021-12-10 14:08:59.543875,-174
2021-12-10 14:08:59.543883,176
2021-12-10 14:08:59.543891,908
2021-12-10 14:08:59.543900,1616
2021-12-10 14:08:59.543908,1545
2021-12-10 14:08:59.543916,531
2021-12-10 14:08:59.543925,-300
2021-12-10 14:08:59.768830,-250
2021-12-10 14:08:59.768850,-38
2021-12-10 14:08:59.768860,-140
2021-12-10 14:08:59.768869,-212
2021-12-10 14:08:59.768878,-164
2021-12-10 14:08:59.768886,-162
2021-12-10 14:08:59.768895,-162
2021-12-10 14:08:59.768903,-126
2021-12-10 14:08:59.768912,-107
2021-12-10 14:08:59.768920,-102
2021-12-10 14:08:59.768929,-95
2021-12-10 14:08:59.768937,-88
2021-12-10 14:08:59.768946,-78
2021-12-10 14:08:59.768954,-69
2021-12-10 14:08:59.768963,-66
2021-12-10 14:08:59.768971,-81
2021-12-10 14:08:59.768980,-100
2021-12-10 14:08:59.768988,-83
2021-12-10 14:08:59.768997,-47
2021-12-10 14:08:59.769012,-28
2021-12-10 14:08:59.769021,-23
2021-12-10 14:08:59.769029,-26
2021-12-10 14:08:59.769038,-30
2021-12-10 14:08:59.769046,-23
2021-12-10 14:08:59.769054,-23
2021-12-10 14:08:59.769063,-30
2021-12-10 14:08:59.769071,-42
2021-12-10 14:08:59.769079,-66
2021-12-10 14:08:59.769088,-73
2021-12-10 14:08:59.769096,-52
2021-12-10 14:09:00.038888,-35
2021-12-10 14:09:00.038909,-35
2021-12-10 14:09:00.038919,-40
2021-12-10 14:09:00.038927,-59
2021-12-10 14:09:00.038936,-69
2021-12-10 14:09:00.038945,-47
2021-12-10 14:09:00.038953,-35
2021-12-10 14:09:00.038962,-30
2021-12-10 14:09:00.038970,-35
2021-12-10 14:09:00.038979,-61
2021-12-10 14:09:00.038987,-73
2021-12-10 14:09:00.038996,-47
2021-12-10 14:09:00.039005,-45
2021-12-10 14:09:00.039013,-66
2021-12-10 14:09:00.039022,-78
2021-12-10 14:09:00.039030,-88
2021-12-10 14:09:00.039039,-95
2021-12-10 14:09:00.039047,-76
2021-12-10 14:09:00.039056,-61
2021-12-10 14:09:00.039064,-61
2021-12-10 14:09:00.039073,-61
2021-12-10 14:09:00.039081,-66
2021-12-10 14:09:00.039089,-61
2021-12-10 14:09:00.039098,-38
2021-12-10 14:09:00.039106,-16
2021-12-10 14:09:00.039115,-9
2021-12-10 14:09:00.039123,-14
2021-12-10 14:09:00.039132,-19
2021-12-10 14:09:00.039140,-9
2021-12-10 14:09:00.039149,11
2021-12-10 14:09:00.218820,23
2021-12-10 14:09:00.218838,28
2021-12-10 14:09:00.218848,28
2021-12-10 14:09:00.218857,21
2021-12-10 14:09:00.218865,16
2021-12-10 14:09:00.218874,-2
2021-12-10 14:09:00.218883,-21
2021-12-10 14:09:00.218891,-2
2021-12-10 14:09:00.218900,14
2021-12-10 14:09:00.218909,0
2021-12-10 14:09:00.218917,0
2021-12-10 14:09:00.218926,19
2021-12-10 14:09:00.218935,19
2021-12-10 14:09:00.218943,4
2021-12-10 14:09:00.218952,-19
2021-12-10 14:09:00.218960,-52
2021-12-10 14:09:00.218969,-71
2021-12-10 14:09:00.218977,-54
2021-12-10 14:09:00.218986,-40
2021-12-10 14:09:00.218994,-47
2021-12-10 14:09:00.219003,-71
2021-12-10 14:09:00.219011,-104
2021-12-10 14:09:00.219020,-169
2021-12-10 14:09:00.219028,-212
2021-12-10 14:09:00.219037,11
2021-12-10 14:09:00.219045,636
2021-12-10 14:09:00.219054,1392
2021-12-10 14:09:00.219062,1583
2021-12-10 14:09:00.219070,782
2021-12-10 14:09:00.219079,-162
2021-12-10 14:09:00.443411,-276
2021-12-10 14:09:00.443430,-35
2021-12-10 14:09:00.443439,-88
2021-12-10 14:09:00.443448,-171
2021-12-10 14:09:00.443457,-102
2021-12-10 14:09:00.443465,-90
2021-12-10 14:09:00.443474,-128
2021-12-10 14:09:00.443482,-133
2021-12-10 14:09:00.443490,-150
2021-12-10 14:09:00.443499,-169
2021-12-10 14:09:00.443507,-145
2021-12-10 14:09:00.443516,-119
2021-12-10 14:09:00.443524,-114
2021-12-10 14:09:00.443532,-116
2021-12-10 14:09:00.443541,-121
2021-12-10 14:09:00.443549,-112
2021-12-10 14:09:00.443557,-97
2021-12-10 14:09:00.443565,-95
2021-12-10 14:09:00.443574,-81
2021-12-10 14:09:00.443582,-64
2021-12-10 14:09:00.443590,-59
2021-12-10 14:09:00.443599,-52
2021-12-10 14:09:00.443607,-38
2021-12-10 14:09:00.443616,-38
2021-12-10 14:09:00.443624,-47
2021-12-10 14:09:00.443633,-66
2021-12-10 14:09:00.443641,-81
2021-12-10 14:09:00.443649,-81
2021-12-10 14:09:00.443658,-73
2021-12-10 14:09:00.443666,-64
2021-12-10 14:09:00.757172,-54
2021-12-10 14:09:00.757193,-47
2021-12-10 14:09:00.757203,-47
2021-12-10 14:09:00.757212,-52
2021-12-10 14:09:00.757221,-45
2021-12-10 14:09:00.757229,-30
2021-12-10 14:09:00.757238,-35
2021-12-10 14:09:00.757246,-64
2021-12-10 14:09:00.757255,-69
2021-12-10 14:09:00.757263,-52
2021-12-10 14:09:00.757272,-50
2021-12-10 14:09:00.757280,-76
2021-12-10 14:09:00.757289,-114
2021-12-10 14:09:00.757297,-128
2021-12-10 14:09:00.757306,-114
2021-12-10 14:09:00.757314,-102
2021-12-10 14:09:00.757323,-92
2021-12-10 14:09:00.757331,-78
2021-12-10 14:09:00.757339,-81
2021-12-10 14:09:00.757348,-97
2021-12-10 14:09:00.757356,-102
2021-12-10 14:09:00.757365,-83
2021-12-10 14:09:00.757373,-61
2021-12-10 14:09:00.757381,-40
2021-12-10 14:09:00.757390,-35
2021-12-10 14:09:00.757398,-38
2021-12-10 14:09:00.757406,-26
2021-12-10 14:09:00.757415,-16
2021-12-10 14:09:00.757423,-9
2021-12-10 14:09:00.757431,2
2021-12-10 14:09:00.893739,0
2021-12-10 14:09:00.893757,-2
2021-12-10 14:09:00.893767,9
2021-12-10 14:09:00.893776,14
2021-12-10 14:09:00.893785,19
2021-12-10 14:09:00.893793,45
2021-12-10 14:09:00.893802,52
2021-12-10 14:09:00.893811,35
2021-12-10 14:09:00.893819,42
2021-12-10 14:09:00.893827,45
2021-12-10 14:09:00.893836,26
2021-12-10 14:09:00.893844,4
2021-12-10 14:09:00.893853,-19
2021-12-10 14:09:00.893861,-23
2021-12-10 14:09:00.893870,-11
2021-12-10 14:09:00.893878,-11
2021-12-10 14:09:00.893887,-14
2021-12-10 14:09:00.893895,-16
2021-12-10 14:09:00.893904,-50
2021-12-10 14:09:00.893912,-126
2021-12-10 14:09:00.893921,-224
2021-12-10 14:09:00.893929,-133
2021-12-10 14:09:00.893938,379
2021-12-10 14:09:00.893946,1194
2021-12-10 14:09:00.893954,1690
2021-12-10 14:09:00.893963,1173
2021-12-10 14:09:00.893971,69
2021-12-10 14:09:00.893980,-364
2021-12-10 14:09:00.893988,-119
2021-12-10 14:09:00.893996,-69
2021-12-10 14:09:01.118895,-178
2021-12-10 14:09:01.118913,-133
2021-12-10 14:09:01.118923,-104
2021-12-10 14:09:01.118932,-150
2021-12-10 14:09:01.118941,-147
2021-12-10 14:09:01.118949,-147
2021-12-10 14:09:01.118958,-176
2021-12-10 14:09:01.118966,-157
2021-12-10 14:09:01.118975,-121
2021-12-10 14:09:01.118983,-114
2021-12-10 14:09:01.118992,-107
2021-12-10 14:09:01.119000,-97
2021-12-10 14:09:01.119008,-97
2021-12-10 14:09:01.119017,-71
2021-12-10 14:09:01.119025,-42
2021-12-10 14:09:01.119034,-33
2021-12-10 14:09:01.119042,-23
2021-12-10 14:09:01.119051,-26
2021-12-10 14:09:01.119059,-52
2021-12-10 14:09:01.119068,-47
2021-12-10 14:09:01.119076,-26
2021-12-10 14:09:01.119084,-38
2021-12-10 14:09:01.119093,-64
2021-12-10 14:09:01.119101,-90
2021-12-10 14:09:01.119110,-100
2021-12-10 14:09:01.119118,-90
2021-12-10 14:09:01.119127,-81
2021-12-10 14:09:01.119135,-83
2021-12-10 14:09:01.119144,-81
2021-12-10 14:09:01.119152,-69
2021-12-10 14:09:01.388821,-59
2021-12-10 14:09:01.388840,-50
2021-12-10 14:09:01.388850,-42
2021-12-10 14:09:01.388859,-45
2021-12-10 14:09:01.388867,-61
2021-12-10 14:09:01.388876,-73
2021-12-10 14:09:01.388884,-66
2021-12-10 14:09:01.388893,-45
2021-12-10 14:09:01.388901,-40
2021-12-10 14:09:01.388910,-47
2021-12-10 14:09:01.388918,-57
2021-12-10 14:09:01.388927,-66
2021-12-10 14:09:01.388935,-54
2021-12-10 14:09:01.388944,-28
2021-12-10 14:09:01.388952,-21
2021-12-10 14:09:01.388961,-30
2021-12-10 14:09:01.388969,-33
2021-12-10 14:09:01.388977,-26
2021-12-10 14:09:01.388986,-16
2021-12-10 14:09:01.388994,-4
2021-12-10 14:09:01.389002,2
2021-12-10 14:09:01.389011,4
2021-12-10 14:09:01.389020,0
2021-12-10 14:09:01.389028,0
2021-12-10 14:09:01.389036,2
2021-12-10 14:09:01.389045,-9
2021-12-10 14:09:01.389053,-14
2021-12-10 14:09:01.389062,-7
2021-12-10 14:09:01.389070,-11
2021-12-10 14:09:01.389078,-4
2021-12-10 14:09:01.568906,35
2021-12-10 14:09:01.568926,66
2021-12-10 14:09:01.568936,64
2021-12-10 14:09:01.568945,42
2021-12-10 14:09:01.568953,28
2021-12-10 14:09:01.568961,14
2021-12-10 14:09:01.568970,11
2021-12-10 14:09:01.568978,19
2021-12-10 14:09:01.568987,21
2021-12-10 14:09:01.568995,2
2021-12-10 14:09:01.569004,-33
2021-12-10 14:09:01.569012,-52
2021-12-10 14:09:01.569021,-47
2021-12-10 14:09:01.569029,-45
2021-12-10 14:09:01.569038,-119
2021-12-10 14:09:01.569046,-236
2021-12-10 14:09:01.569054,-123
2021-12-10 14:09:01.569062,445
2021-12-10 14:09:01.569071,1294
2021-12-10 14:09:01.569079,1776
2021-12-10 14:09:01.569087,1194
2021-12-10 14:09:01.569096,33
2021-12-10 14:09:01.569104,-407
2021-12-10 14:09:01.569113,-178
2021-12-10 14:09:01.569121,-138
2021-12-10 14:09:01.569129,-233
2021-12-10 14:09:01.569138,-195
2021-12-10 14:09:01.569146,-174
2021-12-10 14:09:01.569155,-195
2021-12-10 14:09:01.569163,-159
2021-12-10 14:09:01.838434,-123
2021-12-10 14:09:01.838452,-126
2021-12-10 14:09:01.838462,-135
2021-12-10 14:09:01.838471,-152
2021-12-10 14:09:01.838480,-169
2021-12-10 14:09:01.838488,-145
2021-12-10 14:09:01.838497,-107
2021-12-10 14:09:01.838505,-85
2021-12-10 14:09:01.838514,-78
2021-12-10 14:09:01.838522,-85
2021-12-10 14:09:01.838531,-81
2021-12-10 14:09:01.838539,-50
2021-12-10 14:09:01.838547,-26
2021-12-10 14:09:01.838556,-11
2021-12-10 14:09:01.838564,-4
2021-12-10 14:09:01.838572,-19
2021-12-10 14:09:01.838581,-33
2021-12-10 14:09:01.838589,-30
2021-12-10 14:09:01.838597,-35
2021-12-10 14:09:01.838606,-42
2021-12-10 14:09:01.838614,-50
2021-12-10 14:09:01.838622,-61
2021-12-10 14:09:01.838631,-57
2021-12-10 14:09:01.838640,-40
2021-12-10 14:09:01.838648,-33
2021-12-10 14:09:01.838656,-28
2021-12-10 14:09:01.838665,-33
2021-12-10 14:09:01.838673,-52
2021-12-10 14:09:01.838682,-54
2021-12-10 14:09:01.838690,-50
2021-12-10 14:09:02.108959,-52
2021-12-10 14:09:02.108980,-45
2021-12-10 14:09:02.108990,-40
2021-12-10 14:09:02.108999,-45
2021-12-10 14:09:02.109008,-33
2021-12-10 14:09:02.109016,-16
2021-12-10 14:09:02.109025,-7
2021-12-10 14:09:02.109033,-2
2021-12-10 14:09:02.109042,-19
2021-12-10 14:09:02.109050,-47
2021-12-10 14:09:02.109059,-33
2021-12-10 14:09:02.109067,-2
2021-12-10 14:09:02.109075,0
2021-12-10 14:09:02.109084,-9
2021-12-10 14:09:02.109092,-26
2021-12-10 14:09:02.109100,-45
2021-12-10 14:09:02.109109,-33
2021-12-10 14:09:02.109117,-9
2021-12-10 14:09:02.109125,-2
2021-12-10 14:09:02.109134,2
2021-12-10 14:09:02.109142,4
2021-12-10 14:09:02.109151,2
2021-12-10 14:09:02.109159,11
2021-12-10 14:09:02.109167,26
2021-12-10 14:09:02.109176,38
2021-12-10 14:09:02.109184,54
2021-12-10 14:09:02.109193,73
2021-12-10 14:09:02.109201,78
2021-12-10 14:09:02.109209,59
2021-12-10 14:09:02.109218,23
2021-12-10 14:09:02.333213,-9
2021-12-10 14:09:02.333232,-35
2021-12-10 14:09:02.333242,-61
2021-12-10 14:09:02.333251,-71
2021-12-10 14:09:02.333259,-57
2021-12-10 14:09:02.333268,-38
2021-12-10 14:09:02.333276,-28
2021-12-10 14:09:02.333285,-38
2021-12-10 14:09:02.333293,-66
2021-12-10 14:09:02.333302,-112
2021-12-10 14:09:02.333310,-197
2021-12-10 14:09:02.333319,-176
2021-12-10 14:09:02.333327,200
2021-12-10 14:09:02.333336,932
2021-12-10 14:09:02.333344,1614
2021-12-10 14:09:02.333353,1495
2021-12-10 14:09:02.333361,464
2021-12-10 14:09:02.333369,-317
2021-12-10 14:09:02.333378,-224
2021-12-10 14:09:02.333386,-40
2021-12-10 14:09:02.333395,-169
2021-12-10 14:09:02.333403,-193
2021-12-10 14:09:02.333411,-88
2021-12-10 14:09:02.333420,-95
2021-12-10 14:09:02.333428,-126
2021-12-10 14:09:02.333436,-97
2021-12-10 14:09:02.333445,-88
2021-12-10 14:09:02.333453,-90
2021-12-10 14:09:02.333462,-61
2021-12-10 14:09:02.333470,-28
2021-12-10 14:09:02.513575,2
2021-12-10 14:09:02.513594,26
2021-12-10 14:09:02.513603,28
2021-12-10 14:09:02.513612,21
2021-12-10 14:09:02.513620,28
2021-12-10 14:09:02.513629,40
2021-12-10 14:09:02.513637,35
2021-12-10 14:09:02.513645,38
2021-12-10 14:09:02.513654,64
2021-12-10 14:09:02.513662,71
2021-12-10 14:09:02.513670,69
2021-12-10 14:09:02.513679,81
2021-12-10 14:09:02.513687,61
2021-12-10 14:09:02.513696,11
2021-12-10 14:09:02.513704,-9
2021-12-10 14:09:02.513712,-11
2021-12-10 14:09:02.513721,-16
2021-12-10 14:09:02.513729,-7
2021-12-10 14:09:02.513738,-14
2021-12-10 14:09:02.513746,-45
2021-12-10 14:09:02.513754,-47
2021-12-10 14:09:02.513762,-33
2021-12-10 14:09:02.513771,-33
2021-12-10 14:09:02.513779,-30
2021-12-10 14:09:02.513787,-26
2021-12-10 14:09:02.513796,-26
2021-12-10 14:09:02.513804,-16
2021-12-10 14:09:02.513813,-4
2021-12-10 14:09:02.513821,4
2021-12-10 14:09:02.513829,7
2021-12-10 14:09:02.872114,2
2021-12-10 14:09:02.872133,2
2021-12-10 14:09:02.872142,14
2021-12-10 14:09:02.872151,19
2021-12-10 14:09:02.872160,-16
2021-12-10 14:09:02.872175,-71
2021-12-10 14:09:02.872184,-102
2021-12-10 14:09:02.872193,-109
2021-12-10 14:09:02.872201,-116
2021-12-10 14:09:02.872210,-128
2021-12-10 14:09:02.872218,-128
2021-12-10 14:09:02.872227,-119
2021-12-10 14:09:02.872235,-128
2021-12-10 14:09:02.872244,-138
2021-12-10 14:09:02.872252,-123
2021-12-10 14:09:02.872261,-102
2021-12-10 14:09:02.872269,-85
2021-12-10 14:09:02.872278,-76
2021-12-10 14:09:02.872286,-69
2021-12-10 14:09:02.872294,-50
2021-12-10 14:09:02.872303,-16
2021-12-10 14:09:02.872311,9
2021-12-10 14:09:02.872320,9
2021-12-10 14:09:02.872328,2
2021-12-10 14:09:02.872336,2
2021-12-10 14:09:02.872344,-2
2021-12-10 14:09:02.872353,-11
2021-12-10 14:09:02.872361,-14
2021-12-10 14:09:02.872370,0
2021-12-10 14:09:02.872378,0
2021-12-10 14:09:03.008848,-28
2021-12-10 14:09:03.008867,4
2021-12-10 14:09:03.008877,61
2021-12-10 14:09:03.008886,11
2021-12-10 14:09:03.008895,-128
2021-12-10 14:09:03.008903,-209
2021-12-10 14:09:03.008912,-23
2021-12-10 14:09:03.008920,493
2021-12-10 14:09:03.008929,1189
2021-12-10 14:09:03.008937,1511
2021-12-10 14:09:03.008945,867
2021-12-10 14:09:03.008954,-121
2021-12-10 14:09:03.008962,-336
2021-12-10 14:09:03.008971,-71
2021-12-10 14:09:03.008979,-76
2021-12-10 14:09:03.008987,-164
2021-12-10 14:09:03.008996,-119
2021-12-10 14:09:03.009004,-116
2021-12-10 14:09:03.009012,-138
2021-12-10 14:09:03.009021,-92
2021-12-10 14:09:03.009029,-69
2021-12-10 14:09:03.009038,-78
2021-12-10 14:09:03.009046,-73
2021-12-10 14:09:03.009055,-71
2021-12-10 14:09:03.009063,-71
2021-12-10 14:09:03.009071,-50
2021-12-10 14:09:03.009079,-21
2021-12-10 14:09:03.009088,0
2021-12-10 14:09:03.009096,19
2021-12-10 14:09:03.009105,33
2021-12-10 14:09:03.188463,28
2021-12-10 14:09:03.188483,35
2021-12-10 14:09:03.188492,78
2021-12-10 14:09:03.188501,90
2021-12-10 14:09:03.188510,45
2021-12-10 14:09:03.188519,9
2021-12-10 14:09:03.188527,45
2021-12-10 14:09:03.188536,81
2021-12-10 14:09:03.188544,19
2021-12-10 14:09:03.188552,-66
2021-12-10 14:09:03.188561,-97
2021-12-10 14:09:03.188570,-121
2021-12-10 14:09:03.188578,-119
2021-12-10 14:09:03.188587,-92
2021-12-10 14:09:03.188595,-97
2021-12-10 14:09:03.188603,-119
2021-12-10 14:09:03.188612,-123
2021-12-10 14:09:03.188620,-123
2021-12-10 14:09:03.188628,-112
2021-12-10 14:09:03.188637,-107
2021-12-10 14:09:03.188645,-119
2021-12-10 14:09:03.188654,-133
2021-12-10 14:09:03.188662,-133
2021-12-10 14:09:03.188670,-102
2021-12-10 14:09:03.188679,-64
2021-12-10 14:09:03.188687,-57
2021-12-10 14:09:03.188695,-57
2021-12-10 14:09:03.188703,-52
2021-12-10 14:09:03.188711,-50
2021-12-10 14:09:03.188720,-38
2021-12-10 14:09:03.413465,-26
2021-12-10 14:09:03.413485,-19
2021-12-10 14:09:03.413494,-4
2021-12-10 14:09:03.413503,-11
2021-12-10 14:09:03.413512,-47
2021-12-10 14:09:03.413520,-54
2021-12-10 14:09:03.413528,-23
2021-12-10 14:09:03.413537,-9
2021-12-10 14:09:03.413545,-11
2021-12-10 14:09:03.413553,-14
2021-12-10 14:09:03.413562,-30
2021-12-10 14:09:03.413570,-50
2021-12-10 14:09:03.413578,-40
2021-12-10 14:09:03.413587,-4
2021-12-10 14:09:03.413595,26
2021-12-10 14:09:03.413603,21
2021-12-10 14:09:03.413612,0
2021-12-10 14:09:03.413620,-2
2021-12-10 14:09:03.413628,0
2021-12-10 14:09:03.413636,9
2021-12-10 14:09:03.413645,16
2021-12-10 14:09:03.413653,4
2021-12-10 14:09:03.413661,-9
2021-12-10 14:09:03.413669,7
2021-12-10 14:09:03.413678,30
2021-12-10 14:09:03.413686,35
2021-12-10 14:09:03.413694,40
2021-12-10 14:09:03.413702,-11
2021-12-10 14:09:03.413710,-104
2021-12-10 14:09:03.413718,-16
2021-12-10 14:09:03.728525,422
2021-12-10 14:09:03.728545,1111
2021-12-10 14:09:03.728555,1564
2021-12-10 14:09:03.728563,1123
2021-12-10 14:09:03.728572,121
2021-12-10 14:09:03.728580,-278
2021-12-10 14:09:03.728589,-54
2021-12-10 14:09:03.728597,9
2021-12-10 14:09:03.728606,-88
2021-12-10 14:09:03.728614,-81
2021-12-10 14:09:03.728622,-50
2021-12-10 14:09:03.728631,-50
2021-12-10 14:09:03.728639,-42
2021-12-10 14:09:03.728647,-30
2021-12-10 14:09:03.728655,-38
2021-12-10 14:09:03.728664,-50
2021-12-10 14:09:03.728672,-76
2021-12-10 14:09:03.728680,-107
2021-12-10 14:09:03.728689,-92
2021-12-10 14:09:03.728697,-54
2021-12-10 14:09:03.728705,-45
2021-12-10 14:09:03.728714,-47
2021-12-10 14:09:03.728722,-33
2021-12-10 14:09:03.728730,-7
2021-12-10 14:09:03.728739,11
2021-12-10 14:09:03.728747,23
2021-12-10 14:09:03.728755,28
2021-12-10 14:09:03.728764,14
2021-12-10 14:09:03.728772,7
2021-12-10 14:09:03.728780,9
2021-12-10 14:09:03.908841,-2
2021-12-10 14:09:03.908859,-23
2021-12-10 14:09:03.908869,-40
2021-12-10 14:09:03.908878,-40
2021-12-10 14:09:03.908886,-30
2021-12-10 14:09:03.908895,-28
2021-12-10 14:09:03.908903,-40
2021-12-10 14:09:03.908912,-57
2021-12-10 14:09:03.908920,-90
2021-12-10 14:09:03.908929,-140
2021-12-10 14:09:03.908937,-150
2021-12-10 14:09:03.908945,-128
2021-12-10 14:09:03.908954,-123
2021-12-10 14:09:03.908962,-121
2021-12-10 14:09:03.908970,-121
2021-12-10 14:09:03.908979,-145
2021-12-10 14:09:03.908987,-164
2021-12-10 14:09:03.908995,-143
2021-12-10 14:09:03.909004,-121
2021-12-10 14:09:03.909012,-135
2021-12-10 14:09:03.909020,-164
2021-12-10 14:09:03.909029,-176
2021-12-10 14:09:03.909037,-162
2021-12-10 14:09:03.909046,-143
2021-12-10 14:09:03.909054,-138
2021-12-10 14:09:03.909062,-135
2021-12-10 14:09:03.909071,-140
2021-12-10 14:09:03.909079,-143
2021-12-10 14:09:03.909088,-126
2021-12-10 14:09:03.909096,-100
2021-12-10 14:09:04.133894,-90
2021-12-10 14:09:04.133915,-92
2021-12-10 14:09:04.133925,-95
2021-12-10 14:09:04.133934,-92
2021-12-10 14:09:04.133943,-66
2021-12-10 14:09:04.133951,-45
2021-12-10 14:09:04.133960,-26
2021-12-10 14:09:04.133968,-14
2021-12-10 14:09:04.133976,-47
2021-12-10 14:09:04.133985,-78
2021-12-10 14:09:04.133993,-73
2021-12-10 14:09:04.134002,-66
2021-12-10 14:09:04.134010,-61
2021-12-10 14:09:04.134018,-73
2021-12-10 14:09:04.134027,-97
2021-12-10 14:09:04.134035,-90
2021-12-10 14:09:04.134043,-73
2021-12-10 14:09:04.134052,-88
2021-12-10 14:09:04.134060,-107
2021-12-10 14:09:04.134068,-152
2021-12-10 14:09:04.134077,-257
2021-12-10 14:09:04.134085,-228
2021-12-10 14:09:04.134094,183
2021-12-10 14:09:04.134102,946
2021-12-10 14:09:04.134110,1566
2021-12-10 14:09:04.134119,1263
2021-12-10 14:09:04.134127,178
2021-12-10 14:09:04.134135,-422
2021-12-10 14:09:04.134144,-233
2021-12-10 14:09:04.134152,-116
2021-12-10 14:09:04.358513,-233
2021-12-10 14:09:04.358533,-214
2021-12-10 14:09:04.358542,-133
2021-12-10 14:09:04.358551,-145
2021-12-10 14:09:04.358559,-147
2021-12-10 14:09:04.358568,-104
2021-12-10 14:09:04.358576,-104
2021-12-10 14:09:04.358585,-128
2021-12-10 14:09:04.358593,-121
2021-12-10 14:09:04.358602,-95
2021-12-10 14:09:04.358610,-69
2021-12-10 14:09:04.358618,-33
2021-12-10 14:09:04.358627,-23
2021-12-10 14:09:04.358635,-42
2021-12-10 14:09:04.358643,-40
2021-12-10 14:09:04.358652,-16
2021-12-10 14:09:04.358660,16
2021-12-10 14:09:04.358668,64
2021-12-10 14:09:04.358677,95
2021-12-10 14:09:04.358685,71
2021-12-10 14:09:04.358693,45
2021-12-10 14:09:04.358702,54
2021-12-10 14:09:04.358710,61
2021-12-10 14:09:04.358718,57
2021-12-10 14:09:04.358727,47
2021-12-10 14:09:04.358735,21
2021-12-10 14:09:04.358743,19
2021-12-10 14:09:04.358752,35
2021-12-10 14:09:04.358760,26
2021-12-10 14:09:04.358769,16
2021-12-10 14:09:04.627947,19
2021-12-10 14:09:04.627968,19
2021-12-10 14:09:04.627977,21
2021-12-10 14:09:04.627986,19
2021-12-10 14:09:04.627995,7
2021-12-10 14:09:04.628003,2
2021-12-10 14:09:04.628012,-9
2021-12-10 14:09:04.628020,-21
2021-12-10 14:09:04.628028,-11
2021-12-10 14:09:04.628037,-14
2021-12-10 14:09:04.628045,-7
2021-12-10 14:09:04.628053,26
2021-12-10 14:09:04.628062,9
2021-12-10 14:09:04.628070,-16
2021-12-10 14:09:04.628079,-2
2021-12-10 14:09:04.628087,0
2021-12-10 14:09:04.628096,-9
2021-12-10 14:09:04.628104,2
2021-12-10 14:09:04.628112,9
2021-12-10 14:09:04.628121,14
2021-12-10 14:09:04.628129,21
2021-12-10 14:09:04.628137,4
2021-12-10 14:09:04.628146,-11
2021-12-10 14:09:04.628154,0
2021-12-10 14:09:04.628162,7
2021-12-10 14:09:04.628171,28
2021-12-10 14:09:04.628179,61
2021-12-10 14:09:04.628187,38
2021-12-10 14:09:04.628196,-7
2021-12-10 14:09:04.628204,-14
2021-12-10 14:09:04.897506,-21
2021-12-10 14:09:04.897526,-30
2021-12-10 14:09:04.897535,-21
2021-12-10 14:09:04.897544,-16
2021-12-10 14:09:04.897552,-26
2021-12-10 14:09:04.897561,-30
2021-12-10 14:09:04.897569,-33
2021-12-10 14:09:04.897578,-33
2021-12-10 14:09:04.897586,-47
2021-12-10 14:09:04.897595,-131
2021-12-10 14:09:04.897603,-216
2021-12-10 14:09:04.897612,-30
2021-12-10 14:09:04.897620,598
2021-12-10 14:09:04.897628,1459
2021-12-10 14:09:04.897637,1821
2021-12-10 14:09:04.897645,1049
2021-12-10 14:09:04.897653,-64
2021-12-10 14:09:04.897662,-331
2021-12-10 14:09:04.897670,-90
2021-12-10 14:09:04.897678,-85
2021-12-10 14:09:04.897687,-152
2021-12-10 14:09:04.897695,-107
2021-12-10 14:09:04.897703,-92
2021-12-10 14:09:04.897712,-88
2021-12-10 14:09:04.897720,-33
2021-12-10 14:09:04.897729,-14
2021-12-10 14:09:04.897737,-54
2021-12-10 14:09:04.897745,-64
2021-12-10 14:09:04.897753,-35
2021-12-10 14:09:04.897762,-38
2021-12-10 14:09:05.078870,-45
2021-12-10 14:09:05.078889,4
2021-12-10 14:09:05.078898,40
2021-12-10 14:09:05.078907,35
2021-12-10 14:09:05.078916,33
2021-12-10 14:09:05.078924,28
2021-12-10 14:09:05.078932,42
2021-12-10 14:09:05.078941,76
2021-12-10 14:09:05.078949,71
2021-12-10 14:09:05.078958,40
2021-12-10 14:09:05.078966,33
2021-12-10 14:09:05.078974,35
2021-12-10 14:09:05.078983,28
2021-12-10 14:09:05.078991,28
2021-12-10 14:09:05.078999,28
2021-12-10 14:09:05.079007,11
2021-12-10 14:09:05.079016,-35
2021-12-10 14:09:05.079024,-64
2021-12-10 14:09:05.079032,-26
2021-12-10 14:09:05.079040,16
2021-12-10 14:09:05.079049,-4
2021-12-10 14:09:05.079057,-35
2021-12-10 14:09:05.079065,-35
2021-12-10 14:09:05.079074,-28
2021-12-10 14:09:05.079082,-14
2021-12-10 14:09:05.079090,0
2021-12-10 14:09:05.079099,-26
2021-12-10 14:09:05.079107,-69
2021-12-10 14:09:05.079115,-69
2021-12-10 14:09:05.079124,-61
2021-12-10 14:09:05.258506,-57
2021-12-10 14:09:05.258524,-54
2021-12-10 14:09:05.258534,-73
2021-12-10 14:09:05.258543,-97
2021-12-10 14:09:05.258552,-123
2021-12-10 14:09:05.258560,-128
2021-12-10 14:09:05.258569,-102
2021-12-10 14:09:05.258577,-88
2021-12-10 14:09:05.258585,-90
2021-12-10 14:09:05.258594,-100
2021-12-10 14:09:05.258602,-123
2021-12-10 14:09:05.258610,-126
2021-12-10 14:09:05.258619,-97
2021-12-10 14:09:05.258627,-69
2021-12-10 14:09:05.258635,-42
2021-12-10 14:09:05.258644,-35
2021-12-10 14:09:05.258652,-69
2021-12-10 14:09:05.258660,-76
2021-12-10 14:09:05.258668,-57
2021-12-10 14:09:05.258677,-64
2021-12-10 14:09:05.258685,-81
2021-12-10 14:09:05.258693,-85
2021-12-10 14:09:05.258702,-90
2021-12-10 14:09:05.258710,-76
2021-12-10 14:09:05.258718,-52
2021-12-10 14:09:05.258726,-38
2021-12-10 14:09:05.258734,-33
2021-12-10 14:09:05.258743,-73
2021-12-10 14:09:05.258751,-178
2021-12-10 14:09:05.258759,-214
2021-12-10 14:09:05.573617,38
2021-12-10 14:09:05.573638,648
2021-12-10 14:09:05.573648,1349
2021-12-10 14:09:05.573656,1428
2021-12-10 14:09:05.573665,565
2021-12-10 14:09:05.573674,-255
2021-12-10 14:09:05.573682,-250
2021-12-10 14:09:05.573690,-35
2021-12-10 14:09:05.573699,-104
2021-12-10 14:09:05.573707,-174
2021-12-10 14:09:05.573716,-123
2021-12-10 14:09:05.573724,-102
2021-12-10 14:09:05.573733,-100
2021-12-10 14:09:05.573741,-66
2021-12-10 14:09:05.573750,-47
2021-12-10 14:09:05.573758,-59
2021-12-10 14:09:05.573766,-50
2021-12-10 14:09:05.573775,-14
2021-12-10 14:09:05.573783,9
2021-12-10 14:09:05.573792,21
2021-12-10 14:09:05.573800,33
2021-12-10 14:09:05.573809,33
2021-12-10 14:09:05.573817,45
2021-12-10 14:09:05.573825,73
2021-12-10 14:09:05.573834,95
2021-12-10 14:09:05.573842,112
2021-12-10 14:09:05.573851,119
2021-12-10 14:09:05.573859,114
2021-12-10 14:09:05.573868,114
2021-12-10 14:09:05.573876,107
2021-12-10 14:09:05.753453,83
2021-12-10 14:09:05.753472,69
2021-12-10 14:09:05.753482,61
2021-12-10 14:09:05.753491,33
2021-12-10 14:09:05.753500,9
2021-12-10 14:09:05.753508,9
2021-12-10 14:09:05.753517,14
2021-12-10 14:09:05.753525,11
2021-12-10 14:09:05.753533,-4
2021-12-10 14:09:05.753542,-47
2021-12-10 14:09:05.753550,-81
2021-12-10 14:09:05.753558,-64
2021-12-10 14:09:05.753567,-42
2021-12-10 14:09:05.753575,-47
2021-12-10 14:09:05.753584,-66
2021-12-10 14:09:05.753592,-88
2021-12-10 14:09:05.753600,-83
2021-12-10 14:09:05.753608,-59
2021-12-10 14:09:05.753617,-47
2021-12-10 14:09:05.753625,-45
2021-12-10 14:09:05.753633,-61
2021-12-10 14:09:05.753642,-81
2021-12-10 14:09:05.753650,-66
2021-12-10 14:09:05.753658,-50
2021-12-10 14:09:05.753667,-64
2021-12-10 14:09:05.753675,-76
2021-12-10 14:09:05.753683,-83
2021-12-10 14:09:05.753692,-107
2021-12-10 14:09:05.753700,-104
2021-12-10 14:09:05.753708,-78
2021-12-10 14:09:05.978846,-71
2021-12-10 14:09:05.978865,-81
2021-12-10 14:09:05.978875,-88
2021-12-10 14:09:05.978883,-71
2021-12-10 14:09:05.978892,-45
2021-12-10 14:09:05.978900,-40
2021-12-10 14:09:05.978909,-42
2021-12-10 14:09:05.978917,-64
2021-12-10 14:09:05.978971,-109
2021-12-10 14:09:05.978980,-123
2021-12-10 14:09:05.978989,-100
2021-12-10 14:09:05.978997,-83
2021-12-10 14:09:05.979006,-78
2021-12-10 14:09:05.979014,-81
2021-12-10 14:09:05.979022,-104
2021-12-10 14:09:05.979031,-116
2021-12-10 14:09:05.979039,-138
2021-12-10 14:09:05.979048,-224
2021-12-10 14:09:05.979056,-212
2021-12-10 14:09:05.979064,162
2021-12-10 14:09:05.979073,896
2021-12-10 14:09:05.979081,1583
2021-12-10 14:09:05.979089,1459
2021-12-10 14:09:05.979098,441
2021-12-10 14:09:05.979106,-295
2021-12-10 14:09:05.979115,-202
2021-12-10 14:09:05.979123,-52
2021-12-10 14:09:05.979131,-147
2021-12-10 14:09:05.979140,-140
2021-12-10 14:09:05.979148,-54
2021-12-10 14:09:06.203878,-69
2021-12-10 14:09:06.203897,-88
2021-12-10 14:09:06.203906,-52
2021-12-10 14:09:06.203915,-54
2021-12-10 14:09:06.203923,-71
2021-12-10 14:09:06.203932,-45
2021-12-10 14:09:06.203940,-26
2021-12-10 14:09:06.203948,-40
2021-12-10 14:09:06.203957,-50
2021-12-10 14:09:06.203965,-40
2021-12-10 14:09:06.203974,-14
2021-12-10 14:09:06.203982,35
2021-12-10 14:09:06.203991,54
2021-12-10 14:09:06.203999,26
2021-12-10 14:09:06.204007,2
2021-12-10 14:09:06.204016,-9
2021-12-10 14:09:06.204024,2
2021-12-10 14:09:06.204032,30
2021-12-10 14:09:06.204041,19
2021-12-10 14:09:06.204049,-21
2021-12-10 14:09:06.204057,-38
2021-12-10 14:09:06.204066,-40
2021-12-10 14:09:06.204074,-35
2021-12-10 14:09:06.204083,-21
2021-12-10 14:09:06.204091,-14
2021-12-10 14:09:06.204099,-33
2021-12-10 14:09:06.204108,-52
2021-12-10 14:09:06.204116,-54
2021-12-10 14:09:06.204124,-64
2021-12-10 14:09:06.204133,-76
2021-12-10 14:09:06.428523,-69
2021-12-10 14:09:06.428543,-52
2021-12-10 14:09:06.428552,-38
2021-12-10 14:09:06.428561,-21
2021-12-10 14:09:06.428569,-14
2021-12-10 14:09:06.428578,-35
2021-12-10 14:09:06.428586,-85
2021-12-10 14:09:06.428594,-114
2021-12-10 14:09:06.428602,-109
2021-12-10 14:09:06.428611,-109
2021-12-10 14:09:06.428619,-102
2021-12-10 14:09:06.428628,-83
2021-12-10 14:09:06.428636,-85
2021-12-10 14:09:06.428644,-102
2021-12-10 14:09:06.428653,-97
2021-12-10 14:09:06.428661,-92
2021-12-10 14:09:06.428670,-97
2021-12-10 14:09:06.428678,-92
2021-12-10 14:09:06.428686,-100
2021-12-10 14:09:06.428695,-121
2021-12-10 14:09:06.428703,-114
2021-12-10 14:09:06.428712,-97
2021-12-10 14:09:06.428720,-85
2021-12-10 14:09:06.428728,-64
2021-12-10 14:09:06.428737,-66
2021-12-10 14:09:06.428745,-69
2021-12-10 14:09:06.428753,-61
2021-12-10 14:09:06.428761,-78
2021-12-10 14:09:06.428770,-97
2021-12-10 14:09:06.428778,-88
2021-12-10 14:09:06.698242,-81
2021-12-10 14:09:06.698260,-83
2021-12-10 14:09:06.698270,-73
2021-12-10 14:09:06.698279,-73
2021-12-10 14:09:06.698287,-78
2021-12-10 14:09:06.698296,-102
2021-12-10 14:09:06.698304,-209
2021-12-10 14:09:06.698312,-309
2021-12-10 14:09:06.698321,-116
2021-12-10 14:09:06.698329,526
2021-12-10 14:09:06.698338,1409
2021-12-10 14:09:06.698346,1776
2021-12-10 14:09:06.698354,965
2021-12-10 14:09:06.698363,-188
2021-12-10 14:09:06.698371,-433
2021-12-10 14:09:06.698379,-159
2021-12-10 14:09:06.698388,-169
