Time,ECG
2021-12-23 17:52:33.890920,346
2021-12-23 17:52:33.890935,268
2021-12-23 17:52:33.890941,185
2021-12-23 17:52:33.890945,99
2021-12-23 17:52:33.890950,9
2021-12-23 17:52:33.890968,-68
2021-12-23 17:52:33.890973,-130
2021-12-23 17:52:33.890977,-168
2021-12-23 17:52:33.890981,-194
2021-12-23 17:52:33.890985,-213
2021-12-23 17:52:33.890989,-216
2021-12-23 17:52:33.890994,-220
2021-12-23 17:52:33.890998,-223
2021-12-23 17:52:33.891002,-211
2021-12-23 17:52:33.891006,-201
2021-12-23 17:52:33.891010,-194
2021-12-23 17:52:33.891014,-178
2021-12-23 17:52:33.891019,-168
2021-12-23 17:52:33.891023,-171
2021-12-23 17:52:33.891027,-166
2021-12-23 17:52:33.891031,-152
2021-12-23 17:52:33.891035,-140
2021-12-23 17:52:33.891039,-137
2021-12-23 17:52:33.891043,-133
2021-12-23 17:52:33.891048,-125
2021-12-23 17:52:33.891052,-114
2021-12-23 17:52:33.891056,-109
2021-12-23 17:52:33.891060,-116
2021-12-23 17:52:33.891065,-114
2021-12-23 17:52:33.891069,-102
2021-12-23 17:52:33.994163,-99
2021-12-23 17:52:33.994198,-97
2021-12-23 17:52:33.994206,-87
2021-12-23 17:52:33.994213,-87
2021-12-23 17:52:33.994219,-90
2021-12-23 17:52:33.994226,-87
2021-12-23 17:52:33.994233,-80
2021-12-23 17:52:33.994240,-71
2021-12-23 17:52:33.994246,-71
2021-12-23 17:52:33.994252,-71
2021-12-23 17:52:33.994259,-66
2021-12-23 17:52:33.994265,-64
2021-12-23 17:52:33.994271,-59
2021-12-23 17:52:33.994277,-49
2021-12-23 17:52:33.994284,-52
2021-12-23 17:52:33.994290,-52
2021-12-23 17:52:33.994296,-45
2021-12-23 17:52:33.994303,-38
2021-12-23 17:52:33.994310,-28
2021-12-23 17:52:33.994316,-16
2021-12-23 17:52:33.994322,-16
2021-12-23 17:52:33.994329,-26
2021-12-23 17:52:33.994335,-21
2021-12-23 17:52:33.994341,-21
2021-12-23 17:52:33.994348,-26
2021-12-23 17:52:33.994354,-21
2021-12-23 17:52:33.994360,-4
2021-12-23 17:52:33.994367,16
2021-12-23 17:52:33.994373,33
2021-12-23 17:52:33.994382,40
2021-12-23 17:52:34.263140,47
2021-12-23 17:52:34.263171,49
2021-12-23 17:52:34.263183,33
2021-12-23 17:52:34.263193,2
2021-12-23 17:52:34.263203,-16
2021-12-23 17:52:34.263212,-14
2021-12-23 17:52:34.263222,-9
2021-12-23 17:52:34.263231,-11
2021-12-23 17:52:34.263241,-7
2021-12-23 17:52:34.263250,-9
2021-12-23 17:52:34.263260,-16
2021-12-23 17:52:34.263270,-14
2021-12-23 17:52:34.263279,-26
2021-12-23 17:52:34.263294,9
2021-12-23 17:52:34.263304,327
2021-12-23 17:52:34.263314,1071
2021-12-23 17:52:34.263323,1946
2021-12-23 17:52:34.263333,2262
2021-12-23 17:52:34.263343,1354
2021-12-23 17:52:34.263352,-194
2021-12-23 17:52:34.263362,-586
2021-12-23 17:52:34.263372,35
2021-12-23 17:52:34.263381,68
2021-12-23 17:52:34.263391,-213
2021-12-23 17:52:34.263401,-95
2021-12-23 17:52:34.263410,-16
2021-12-23 17:52:34.263420,-109
2021-12-23 17:52:34.263429,-83
2021-12-23 17:52:34.263439,-11
2021-12-23 17:52:34.263451,-23
2021-12-23 17:52:34.489504,-14
2021-12-23 17:52:34.489526,28
2021-12-23 17:52:34.489534,40
2021-12-23 17:52:34.489541,47
2021-12-23 17:52:34.489547,78
2021-12-23 17:52:34.489553,111
2021-12-23 17:52:34.489560,137
2021-12-23 17:52:34.489566,166
2021-12-23 17:52:34.489573,197
2021-12-23 17:52:34.489579,230
2021-12-23 17:52:34.489585,268
2021-12-23 17:52:34.489592,311
2021-12-23 17:52:34.489598,351
2021-12-23 17:52:34.489604,392
2021-12-23 17:52:34.489611,420
2021-12-23 17:52:34.489617,427
2021-12-23 17:52:34.489624,439
2021-12-23 17:52:34.489633,449
2021-12-23 17:52:34.489640,418
2021-12-23 17:52:34.489646,339
2021-12-23 17:52:34.489652,240
2021-12-23 17:52:34.489659,140
2021-12-23 17:52:34.489665,45
2021-12-23 17:52:34.489672,-42
2021-12-23 17:52:34.489709,-116
2021-12-23 17:52:34.489733,-171
2021-12-23 17:52:34.489744,-211
2021-12-23 17:52:34.489755,-237
2021-12-23 17:52:34.489766,-249
2021-12-23 17:52:34.489808,-249
2021-12-23 17:52:34.803169,-249
2021-12-23 17:52:34.803193,-244
2021-12-23 17:52:34.803203,-232
2021-12-23 17:52:34.803211,-228
2021-12-23 17:52:34.803219,-225
2021-12-23 17:52:34.803227,-206
2021-12-23 17:52:34.803234,-190
2021-12-23 17:52:34.803247,-185
2021-12-23 17:52:34.803255,-178
2021-12-23 17:52:34.803263,-163
2021-12-23 17:52:34.803271,-152
2021-12-23 17:52:34.803279,-144
2021-12-23 17:52:34.803287,-140
2021-12-23 17:52:34.803294,-140
2021-12-23 17:52:34.803302,-142
2021-12-23 17:52:34.803310,-135
2021-12-23 17:52:34.803318,-125
2021-12-23 17:52:34.803326,-123
2021-12-23 17:52:34.803333,-116
2021-12-23 17:52:34.803341,-111
2021-12-23 17:52:34.803348,-111
2021-12-23 17:52:34.803356,-114
2021-12-23 17:52:34.803363,-114
2021-12-23 17:52:34.803371,-99
2021-12-23 17:52:34.803379,-90
2021-12-23 17:52:34.803387,-92
2021-12-23 17:52:34.803395,-92
2021-12-23 17:52:34.803403,-85
2021-12-23 17:52:34.803412,-78
2021-12-23 17:52:34.803421,-76
2021-12-23 17:52:35.028260,-73
2021-12-23 17:52:35.028285,-71
2021-12-23 17:52:35.028295,-71
2021-12-23 17:52:35.028305,-73
2021-12-23 17:52:35.028314,-68
2021-12-23 17:52:35.028323,-59
2021-12-23 17:52:35.028331,-54
2021-12-23 17:52:35.028341,-59
2021-12-23 17:52:35.028349,-61
2021-12-23 17:52:35.028358,-49
2021-12-23 17:52:35.028367,-21
2021-12-23 17:52:35.028375,4
2021-12-23 17:52:35.028385,11
2021-12-23 17:52:35.028393,19
2021-12-23 17:52:35.028402,16
2021-12-23 17:52:35.028411,-7
2021-12-23 17:52:35.028420,-30
2021-12-23 17:52:35.028429,-35
2021-12-23 17:52:35.028437,-30
2021-12-23 17:52:35.028446,-33
2021-12-23 17:52:35.028455,-28
2021-12-23 17:52:35.028464,-21
2021-12-23 17:52:35.028473,-14
2021-12-23 17:52:35.028482,-16
2021-12-23 17:52:35.028495,-23
2021-12-23 17:52:35.028505,-40
2021-12-23 17:52:35.028514,9
2021-12-23 17:52:35.028523,351
2021-12-23 17:52:35.028532,1164
2021-12-23 17:52:35.028540,2107
2021-12-23 17:52:35.253562,2409
2021-12-23 17:52:35.253576,1378
2021-12-23 17:52:35.253581,-297
2021-12-23 17:52:35.253586,-670
2021-12-23 17:52:35.253590,33
2021-12-23 17:52:35.253595,73
2021-12-23 17:52:35.253599,-216
2021-12-23 17:52:35.253603,-78
2021-12-23 17:52:35.253608,-2
2021-12-23 17:52:35.253612,-102
2021-12-23 17:52:35.253617,-66
2021-12-23 17:52:35.253621,4
2021-12-23 17:52:35.253626,-9
2021-12-23 17:52:35.253630,-7
2021-12-23 17:52:35.253635,40
2021-12-23 17:52:35.253639,64
2021-12-23 17:52:35.253644,76
2021-12-23 17:52:35.253648,106
2021-12-23 17:52:35.253653,135
2021-12-23 17:52:35.253657,154
2021-12-23 17:52:35.253661,187
2021-12-23 17:52:35.253666,232
2021-12-23 17:52:35.253671,270
2021-12-23 17:52:35.253676,313
2021-12-23 17:52:35.253680,358
2021-12-23 17:52:35.253684,396
2021-12-23 17:52:35.253689,432
2021-12-23 17:52:35.253693,463
2021-12-23 17:52:35.253697,482
2021-12-23 17:52:35.253702,487
2021-12-23 17:52:35.433629,470
2021-12-23 17:52:35.433647,418
2021-12-23 17:52:35.433653,327
2021-12-23 17:52:35.433659,213
2021-12-23 17:52:35.433664,99
2021-12-23 17:52:35.433669,9
2021-12-23 17:52:35.433674,-78
2021-12-23 17:52:35.433679,-159
2021-12-23 17:52:35.433684,-209
2021-12-23 17:52:35.433689,-235
2021-12-23 17:52:35.433694,-256
2021-12-23 17:52:35.433699,-266
2021-12-23 17:52:35.433704,-266
2021-12-23 17:52:35.433710,-261
2021-12-23 17:52:35.433715,-251
2021-12-23 17:52:35.433720,-240
2021-12-23 17:52:35.433725,-232
2021-12-23 17:52:35.433730,-223
2021-12-23 17:52:35.433735,-201
2021-12-23 17:52:35.433740,-182
2021-12-23 17:52:35.433745,-178
2021-12-23 17:52:35.433750,-168
2021-12-23 17:52:35.433755,-149
2021-12-23 17:52:35.433760,-140
2021-12-23 17:52:35.433769,-137
2021-12-23 17:52:35.433774,-128
2021-12-23 17:52:35.433779,-116
2021-12-23 17:52:35.433784,-116
2021-12-23 17:52:35.433789,-106
2021-12-23 17:52:35.433794,-95
2021-12-23 17:52:35.659697,-97
2021-12-23 17:52:35.659728,-102
2021-12-23 17:52:35.659740,-97
2021-12-23 17:52:35.659751,-92
2021-12-23 17:52:35.659761,-95
2021-12-23 17:52:35.659770,-97
2021-12-23 17:52:35.659910,-95
2021-12-23 17:52:35.660023,-92
2021-12-23 17:52:35.660135,-87
2021-12-23 17:52:35.660174,-83
2021-12-23 17:52:35.660198,-76
2021-12-23 17:52:35.660231,-73
2021-12-23 17:52:35.660243,-71
2021-12-23 17:52:35.660254,-68
2021-12-23 17:52:35.660287,-61
2021-12-23 17:52:35.660302,-54
2021-12-23 17:52:35.660308,-54
2021-12-23 17:52:35.660315,-57
2021-12-23 17:52:35.660321,-52
2021-12-23 17:52:35.660327,-45
2021-12-23 17:52:35.660334,-35
2021-12-23 17:52:35.660340,-28
2021-12-23 17:52:35.660346,-26
2021-12-23 17:52:35.660352,-28
2021-12-23 17:52:35.660384,-28
2021-12-23 17:52:35.660391,-21
2021-12-23 17:52:35.660397,-14
2021-12-23 17:52:35.660403,-19
2021-12-23 17:52:35.660410,-19
2021-12-23 17:52:35.660416,-4
2021-12-23 17:52:35.839138,14
2021-12-23 17:52:35.839161,33
2021-12-23 17:52:35.839169,45
2021-12-23 17:52:35.839175,49
2021-12-23 17:52:35.839182,38
2021-12-23 17:52:35.839188,9
2021-12-23 17:52:35.839195,-9
2021-12-23 17:52:35.839201,-14
2021-12-23 17:52:35.839207,-7
2021-12-23 17:52:35.839214,-4
2021-12-23 17:52:35.839220,-9
2021-12-23 17:52:35.839226,-7
2021-12-23 17:52:35.839233,0
2021-12-23 17:52:35.839239,-7
2021-12-23 17:52:35.839246,-35
2021-12-23 17:52:35.839252,-54
2021-12-23 17:52:35.839258,90
2021-12-23 17:52:35.839265,641
2021-12-23 17:52:35.839271,1551
2021-12-23 17:52:35.839278,2278
2021-12-23 17:52:35.839284,2084
2021-12-23 17:52:35.839290,691
2021-12-23 17:52:35.839300,-570
2021-12-23 17:52:35.839307,-339
2021-12-23 17:52:35.839313,168
2021-12-23 17:52:35.839319,-78
2021-12-23 17:52:35.839326,-213
2021-12-23 17:52:35.839332,-42
2021-12-23 17:52:35.839339,-59
2021-12-23 17:52:35.839345,-116
2021-12-23 17:52:36.066505,-47
2021-12-23 17:52:36.066527,-14
2021-12-23 17:52:36.066536,-33
2021-12-23 17:52:36.066542,-4
2021-12-23 17:52:36.066549,28
2021-12-23 17:52:36.066555,40
2021-12-23 17:52:36.066561,59
2021-12-23 17:52:36.066568,90
2021-12-23 17:52:36.066574,121
2021-12-23 17:52:36.066580,152
2021-12-23 17:52:36.066591,182
2021-12-23 17:52:36.066598,218
2021-12-23 17:52:36.066606,266
2021-12-23 17:52:36.066613,318
2021-12-23 17:52:36.066620,363
2021-12-23 17:52:36.066626,406
2021-12-23 17:52:36.066633,446
2021-12-23 17:52:36.066639,475
2021-12-23 17:52:36.066645,494
2021-12-23 17:52:36.066652,496
2021-12-23 17:52:36.066658,475
2021-12-23 17:52:36.066664,415
2021-12-23 17:52:36.066671,323
2021-12-23 17:52:36.066677,218
2021-12-23 17:52:36.066683,114
2021-12-23 17:52:36.066690,11
2021-12-23 17:52:36.066696,-71
2021-12-23 17:52:36.066702,-133
2021-12-23 17:52:36.066708,-178
2021-12-23 17:52:36.066715,-206
2021-12-23 17:52:36.422846,-213
2021-12-23 17:52:36.422869,-216
2021-12-23 17:52:36.422876,-218
2021-12-23 17:52:36.422883,-211
2021-12-23 17:52:36.422890,-204
2021-12-23 17:52:36.422896,-194
2021-12-23 17:52:36.422902,-173
2021-12-23 17:52:36.422909,-159
2021-12-23 17:52:36.422916,-161
2021-12-23 17:52:36.422922,-159
2021-12-23 17:52:36.422928,-147
2021-12-23 17:52:36.422935,-130
2021-12-23 17:52:36.422941,-116
2021-12-23 17:52:36.422947,-114
2021-12-23 17:52:36.422954,-109
2021-12-23 17:52:36.422960,-97
2021-12-23 17:52:36.422966,-87
2021-12-23 17:52:36.422972,-80
2021-12-23 17:52:36.422978,-85
2021-12-23 17:52:36.422985,-92
2021-12-23 17:52:36.422991,-92
2021-12-23 17:52:36.422997,-90
2021-12-23 17:52:36.423003,-90
2021-12-23 17:52:36.423010,-83
2021-12-23 17:52:36.423016,-73
2021-12-23 17:52:36.423025,-73
2021-12-23 17:52:36.423032,-78
2021-12-23 17:52:36.423038,-73
2021-12-23 17:52:36.423044,-68
2021-12-23 17:52:36.423050,-68
2021-12-23 17:52:36.559475,-61
2021-12-23 17:52:36.559505,-54
2021-12-23 17:52:36.559517,-54
2021-12-23 17:52:36.559527,-54
2021-12-23 17:52:36.559536,-52
2021-12-23 17:52:36.559546,-42
2021-12-23 17:52:36.559556,-35
2021-12-23 17:52:36.559565,-30
2021-12-23 17:52:36.559575,-28
2021-12-23 17:52:36.559585,-28
2021-12-23 17:52:36.559594,-30
2021-12-23 17:52:36.559604,-23
2021-12-23 17:52:36.559614,-14
2021-12-23 17:52:36.559623,-16
2021-12-23 17:52:36.559633,-19
2021-12-23 17:52:36.559643,-16
2021-12-23 17:52:36.559652,-19
2021-12-23 17:52:36.559662,-14
2021-12-23 17:52:36.559672,-4
2021-12-23 17:52:36.559681,-7
2021-12-23 17:52:36.559691,-14
2021-12-23 17:52:36.559701,-9
2021-12-23 17:52:36.559710,-2
2021-12-23 17:52:36.559720,7
2021-12-23 17:52:36.559730,11
2021-12-23 17:52:36.559743,14
2021-12-23 17:52:36.559762,9
2021-12-23 17:52:36.559778,2
2021-12-23 17:52:36.559795,11
2021-12-23 17:52:36.559812,33
2021-12-23 17:52:36.784132,47
2021-12-23 17:52:36.784154,54
2021-12-23 17:52:36.784161,64
2021-12-23 17:52:36.784168,66
2021-12-23 17:52:36.784174,49
2021-12-23 17:52:36.784180,26
2021-12-23 17:52:36.784187,9
2021-12-23 17:52:36.784193,-2
2021-12-23 17:52:36.784200,-2
2021-12-23 17:52:36.784206,4
2021-12-23 17:52:36.784212,11
2021-12-23 17:52:36.784219,14
2021-12-23 17:52:36.784225,7
2021-12-23 17:52:36.784232,2
2021-12-23 17:52:36.784238,-19
2021-12-23 17:52:36.784244,-42
2021-12-23 17:52:36.784254,130
2021-12-23 17:52:36.784261,753
2021-12-23 17:52:36.784267,1699
2021-12-23 17:52:36.784274,2369
2021-12-23 17:52:36.784280,2029
2021-12-23 17:52:36.784287,527
2021-12-23 17:52:36.784293,-605
2021-12-23 17:52:36.784299,-242
2021-12-23 17:52:36.784305,173
2021-12-23 17:52:36.784312,-130
2021-12-23 17:52:36.784318,-197
2021-12-23 17:52:36.784324,-28
2021-12-23 17:52:36.784331,-73
2021-12-23 17:52:36.784337,-111
2021-12-23 17:52:37.009514,-40
2021-12-23 17:52:37.009546,-28
2021-12-23 17:52:37.009558,-30
2021-12-23 17:52:37.009568,7
2021-12-23 17:52:37.009578,28
2021-12-23 17:52:37.009588,42
2021-12-23 17:52:37.009598,80
2021-12-23 17:52:37.009608,111
2021-12-23 17:52:37.009618,125
2021-12-23 17:52:37.009628,156
2021-12-23 17:52:37.009637,204
2021-12-23 17:52:37.009647,244
2021-12-23 17:52:37.009657,282
2021-12-23 17:52:37.009667,318
2021-12-23 17:52:37.009676,351
2021-12-23 17:52:37.009686,394
2021-12-23 17:52:37.009696,444
2021-12-23 17:52:37.009705,484
2021-12-23 17:52:37.009715,499
2021-12-23 17:52:37.009725,499
2021-12-23 17:52:37.009734,484
2021-12-23 17:52:37.009744,432
2021-12-23 17:52:37.009754,349
2021-12-23 17:52:37.009764,247
2021-12-23 17:52:37.009774,130
2021-12-23 17:52:37.009864,23
2021-12-23 17:52:37.009905,-59
2021-12-23 17:52:37.009922,-135
2021-12-23 17:52:37.009932,-194
2021-12-23 17:52:37.009942,-223
2021-12-23 17:52:37.278555,-235
2021-12-23 17:52:37.278578,-242
2021-12-23 17:52:37.278587,-240
2021-12-23 17:52:37.278593,-242
2021-12-23 17:52:37.278600,-244
2021-12-23 17:52:37.278606,-228
2021-12-23 17:52:37.278612,-211
2021-12-23 17:52:37.278618,-209
2021-12-23 17:52:37.278625,-199
2021-12-23 17:52:37.278631,-178
2021-12-23 17:52:37.278637,-161
2021-12-23 17:52:37.278643,-163
2021-12-23 17:52:37.278650,-159
2021-12-23 17:52:37.278661,-142
2021-12-23 17:52:37.278668,-128
2021-12-23 17:52:37.278674,-125
2021-12-23 17:52:37.278680,-123
2021-12-23 17:52:37.278687,-111
2021-12-23 17:52:37.278693,-109
2021-12-23 17:52:37.278699,-106
2021-12-23 17:52:37.278705,-97
2021-12-23 17:52:37.278712,-87
2021-12-23 17:52:37.278718,-90
2021-12-23 17:52:37.278724,-92
2021-12-23 17:52:37.278730,-90
2021-12-23 17:52:37.278737,-95
2021-12-23 17:52:37.278743,-97
2021-12-23 17:52:37.278749,-87
2021-12-23 17:52:37.278756,-80
2021-12-23 17:52:37.278762,-83
2021-12-23 17:52:37.459555,-85
2021-12-23 17:52:37.459581,-76
2021-12-23 17:52:37.459589,-64
2021-12-23 17:52:37.459596,-64
2021-12-23 17:52:37.459602,-61
2021-12-23 17:52:37.459608,-54
2021-12-23 17:52:37.459614,-54
2021-12-23 17:52:37.459621,-52
2021-12-23 17:52:37.459627,-42
2021-12-23 17:52:37.459633,-40
2021-12-23 17:52:37.459639,-42
2021-12-23 17:52:37.459645,-40
2021-12-23 17:52:37.459652,-35
2021-12-23 17:52:37.459658,-28
2021-12-23 17:52:37.459664,-28
2021-12-23 17:52:37.459670,-35
2021-12-23 17:52:37.459676,-38
2021-12-23 17:52:37.459683,-28
2021-12-23 17:52:37.459700,-23
2021-12-23 17:52:37.459707,-23
2021-12-23 17:52:37.459714,-23
2021-12-23 17:52:37.459720,-21
2021-12-23 17:52:37.459726,-16
2021-12-23 17:52:37.459733,-19
2021-12-23 17:52:37.459739,-23
2021-12-23 17:52:37.459745,-7
2021-12-23 17:52:37.459752,11
2021-12-23 17:52:37.459758,19
2021-12-23 17:52:37.459764,33
2021-12-23 17:52:37.459770,52
2021-12-23 17:52:37.729493,61
2021-12-23 17:52:37.729523,42
2021-12-23 17:52:37.729535,14
2021-12-23 17:52:37.729545,4
2021-12-23 17:52:37.729555,4
2021-12-23 17:52:37.729565,4
2021-12-23 17:52:37.729574,2
2021-12-23 17:52:37.729584,0
2021-12-23 17:52:37.729594,9
2021-12-23 17:52:37.729603,16
2021-12-23 17:52:37.729613,0
2021-12-23 17:52:37.729623,-35
2021-12-23 17:52:37.729633,21
2021-12-23 17:52:37.729642,406
2021-12-23 17:52:37.729652,1238
2021-12-23 17:52:37.729662,2155
2021-12-23 17:52:37.729672,2435
2021-12-23 17:52:37.729686,1435
2021-12-23 17:52:37.729712,-199
2021-12-23 17:52:37.729722,-594
2021-12-23 17:52:37.729732,68
2021-12-23 17:52:37.729742,97
2021-12-23 17:52:37.729752,-194
2021-12-23 17:52:37.729762,-66
2021-12-23 17:52:37.729771,4
2021-12-23 17:52:37.729781,-87
2021-12-23 17:52:37.729895,-45
2021-12-23 17:52:37.729968,16
2021-12-23 17:52:37.729985,-4
2021-12-23 17:52:37.730008,11
2021-12-23 17:52:37.908941,54
2021-12-23 17:52:37.908961,64
2021-12-23 17:52:37.908969,83
2021-12-23 17:52:37.908976,118
2021-12-23 17:52:37.908982,142
2021-12-23 17:52:37.908989,168
2021-12-23 17:52:37.908995,206
2021-12-23 17:52:37.909001,244
2021-12-23 17:52:37.909007,275
2021-12-23 17:52:37.909014,318
2021-12-23 17:52:37.909020,365
2021-12-23 17:52:37.909026,408
2021-12-23 17:52:37.909032,456
2021-12-23 17:52:37.909039,491
2021-12-23 17:52:37.909045,508
2021-12-23 17:52:37.909051,513
2021-12-23 17:52:37.909058,510
2021-12-23 17:52:37.909064,475
2021-12-23 17:52:37.909070,387
2021-12-23 17:52:37.909077,273
2021-12-23 17:52:37.909083,168
2021-12-23 17:52:37.909089,68
2021-12-23 17:52:37.909096,-30
2021-12-23 17:52:37.909102,-104
2021-12-23 17:52:37.909109,-156
2021-12-23 17:52:37.909115,-197
2021-12-23 17:52:37.909121,-218
2021-12-23 17:52:37.909128,-223
2021-12-23 17:52:37.909134,-232
2021-12-23 17:52:37.909140,-240
2021-12-23 17:52:38.179472,-218
2021-12-23 17:52:38.179503,-201
2021-12-23 17:52:38.179515,-204
2021-12-23 17:52:38.179525,-204
2021-12-23 17:52:38.179535,-190
2021-12-23 17:52:38.179545,-173
2021-12-23 17:52:38.179554,-159
2021-12-23 17:52:38.179564,-144
2021-12-23 17:52:38.179574,-142
2021-12-23 17:52:38.179583,-147
2021-12-23 17:52:38.179593,-137
2021-12-23 17:52:38.179603,-121
2021-12-23 17:52:38.179613,-116
2021-12-23 17:52:38.179623,-111
2021-12-23 17:52:38.179633,-102
2021-12-23 17:52:38.179642,-102
2021-12-23 17:52:38.179652,-97
2021-12-23 17:52:38.179662,-87
2021-12-23 17:52:38.179671,-95
2021-12-23 17:52:38.179681,-104
2021-12-23 17:52:38.179706,-102
2021-12-23 17:52:38.179717,-97
2021-12-23 17:52:38.179726,-95
2021-12-23 17:52:38.179736,-90
2021-12-23 17:52:38.179746,-90
2021-12-23 17:52:38.179755,-90
2021-12-23 17:52:38.179765,-85
2021-12-23 17:52:38.179774,-78
2021-12-23 17:52:38.179784,-78
2021-12-23 17:52:38.179883,-80
2021-12-23 17:52:38.447536,-76
2021-12-23 17:52:38.447557,-68
2021-12-23 17:52:38.447563,-68
2021-12-23 17:52:38.447569,-73
2021-12-23 17:52:38.447574,-80
2021-12-23 17:52:38.447579,-73
2021-12-23 17:52:38.447584,-59
2021-12-23 17:52:38.447589,-59
2021-12-23 17:52:38.447594,-68
2021-12-23 17:52:38.447600,-73
2021-12-23 17:52:38.447605,-68
2021-12-23 17:52:38.447610,-66
2021-12-23 17:52:38.447615,-61
2021-12-23 17:52:38.447620,-52
2021-12-23 17:52:38.447625,-49
2021-12-23 17:52:38.447630,-47
2021-12-23 17:52:38.447635,-40
2021-12-23 17:52:38.447640,-35
2021-12-23 17:52:38.447645,-26
2021-12-23 17:52:38.447650,-14
2021-12-23 17:52:38.447655,-14
2021-12-23 17:52:38.447660,-14
2021-12-23 17:52:38.447665,-4
2021-12-23 17:52:38.447670,0
2021-12-23 17:52:38.447675,-7
2021-12-23 17:52:38.447680,-2
2021-12-23 17:52:38.447685,9
2021-12-23 17:52:38.447691,2
2021-12-23 17:52:38.447696,0
2021-12-23 17:52:38.447701,4
2021-12-23 17:52:38.674452,9
2021-12-23 17:52:38.674484,21
2021-12-23 17:52:38.674496,40
2021-12-23 17:52:38.674506,57
2021-12-23 17:52:38.674516,66
2021-12-23 17:52:38.674525,73
2021-12-23 17:52:38.674535,59
2021-12-23 17:52:38.674545,23
2021-12-23 17:52:38.674554,9
2021-12-23 17:52:38.674564,14
2021-12-23 17:52:38.674574,16
2021-12-23 17:52:38.674583,21
2021-12-23 17:52:38.674593,28
2021-12-23 17:52:38.674603,23
2021-12-23 17:52:38.674612,23
2021-12-23 17:52:38.674622,19
2021-12-23 17:52:38.674632,-9
2021-12-23 17:52:38.674641,-14
2021-12-23 17:52:38.674651,211
2021-12-23 17:52:38.674661,888
2021-12-23 17:52:38.674670,1851
2021-12-23 17:52:38.674680,2452
2021-12-23 17:52:38.674690,1939
2021-12-23 17:52:38.674715,344
2021-12-23 17:52:38.674725,-636
2021-12-23 17:52:38.674735,-149
2021-12-23 17:52:38.674745,185
2021-12-23 17:52:38.674755,-137
2021-12-23 17:52:38.674764,-142
2021-12-23 17:52:38.674774,19
2021-12-23 17:52:38.899498,-52
2021-12-23 17:52:38.899529,-76
2021-12-23 17:52:38.899541,2
2021-12-23 17:52:38.899552,11
2021-12-23 17:52:38.899561,9
2021-12-23 17:52:38.899571,52
2021-12-23 17:52:38.899581,71
2021-12-23 17:52:38.899590,85
2021-12-23 17:52:38.899600,116
2021-12-23 17:52:38.899610,142
2021-12-23 17:52:38.899619,166
2021-12-23 17:52:38.899629,199
2021-12-23 17:52:38.899639,235
2021-12-23 17:52:38.899649,270
2021-12-23 17:52:38.899658,311
2021-12-23 17:52:38.899668,349
2021-12-23 17:52:38.899678,382
2021-12-23 17:52:38.899687,430
2021-12-23 17:52:38.899765,477
2021-12-23 17:52:38.899822,501
2021-12-23 17:52:38.899907,510
2021-12-23 17:52:38.899929,513
2021-12-23 17:52:38.899946,487
2021-12-23 17:52:38.899970,430
2021-12-23 17:52:38.899998,342
2021-12-23 17:52:38.900005,228
2021-12-23 17:52:38.900011,109
2021-12-23 17:52:38.900017,11
2021-12-23 17:52:38.900023,-66
2021-12-23 17:52:38.900030,-128
2021-12-23 17:52:39.123766,-175
2021-12-23 17:52:39.123788,-213
2021-12-23 17:52:39.123796,-230
2021-12-23 17:52:39.123803,-225
2021-12-23 17:52:39.123809,-228
2021-12-23 17:52:39.123816,-235
2021-12-23 17:52:39.123822,-228
2021-12-23 17:52:39.123828,-209
2021-12-23 17:52:39.123835,-201
2021-12-23 17:52:39.123841,-201
2021-12-23 17:52:39.123848,-194
2021-12-23 17:52:39.123854,-175
2021-12-23 17:52:39.123861,-159
2021-12-23 17:52:39.123867,-147
2021-12-23 17:52:39.123874,-144
2021-12-23 17:52:39.123880,-142
2021-12-23 17:52:39.123886,-135
2021-12-23 17:52:39.123893,-130
2021-12-23 17:52:39.123899,-133
2021-12-23 17:52:39.123905,-123
2021-12-23 17:52:39.123912,-111
2021-12-23 17:52:39.123918,-111
2021-12-23 17:52:39.123924,-114
2021-12-23 17:52:39.123931,-111
2021-12-23 17:52:39.123937,-106
2021-12-23 17:52:39.123943,-104
2021-12-23 17:52:39.123950,-104
2021-12-23 17:52:39.123956,-104
2021-12-23 17:52:39.123962,-97
2021-12-23 17:52:39.123969,-92
2021-12-23 17:52:39.304466,-90
2021-12-23 17:52:39.304497,-85
2021-12-23 17:52:39.304509,-80
2021-12-23 17:52:39.304519,-73
2021-12-23 17:52:39.304529,-73
2021-12-23 17:52:39.304539,-78
2021-12-23 17:52:39.304549,-73
2021-12-23 17:52:39.304559,-64
2021-12-23 17:52:39.304568,-59
2021-12-23 17:52:39.304578,-54
2021-12-23 17:52:39.304588,-54
2021-12-23 17:52:39.304598,-57
2021-12-23 17:52:39.304608,-52
2021-12-23 17:52:39.304618,-40
2021-12-23 17:52:39.304627,-38
2021-12-23 17:52:39.304637,-38
2021-12-23 17:52:39.304647,-38
2021-12-23 17:52:39.304656,-28
2021-12-23 17:52:39.304666,-21
2021-12-23 17:52:39.304676,-19
2021-12-23 17:52:39.304685,-21
2021-12-23 17:52:39.304695,-23
2021-12-23 17:52:39.304720,-26
2021-12-23 17:52:39.304730,-19
2021-12-23 17:52:39.304740,-9
2021-12-23 17:52:39.304750,-9
2021-12-23 17:52:39.304759,-2
2021-12-23 17:52:39.304769,7
2021-12-23 17:52:39.304779,4
2021-12-23 17:52:39.304789,2
2021-12-23 17:52:39.618732,7
2021-12-23 17:52:39.618756,14
2021-12-23 17:52:39.618764,16
2021-12-23 17:52:39.618771,19
2021-12-23 17:52:39.618777,21
2021-12-23 17:52:39.618784,19
2021-12-23 17:52:39.618790,14
2021-12-23 17:52:39.618796,23
2021-12-23 17:52:39.618803,26
2021-12-23 17:52:39.618809,14
2021-12-23 17:52:39.618816,14
2021-12-23 17:52:39.618822,30
2021-12-23 17:52:39.618828,45
2021-12-23 17:52:39.618834,57
2021-12-23 17:52:39.618841,71
2021-12-23 17:52:39.618847,68
2021-12-23 17:52:39.618854,42
2021-12-23 17:52:39.618860,16
2021-12-23 17:52:39.618866,16
2021-12-23 17:52:39.618873,30
2021-12-23 17:52:39.618879,42
2021-12-23 17:52:39.618885,42
2021-12-23 17:52:39.618895,35
2021-12-23 17:52:39.618901,38
2021-12-23 17:52:39.618908,45
2021-12-23 17:52:39.618914,16
2021-12-23 17:52:39.618921,7
2021-12-23 17:52:39.618927,228
2021-12-23 17:52:39.618934,881
2021-12-23 17:52:39.618941,1784
2021-12-23 17:52:39.753641,2333
2021-12-23 17:52:39.753656,1848
2021-12-23 17:52:39.753662,354
2021-12-23 17:52:39.753667,-565
2021-12-23 17:52:39.753671,-109
2021-12-23 17:52:39.753676,206
2021-12-23 17:52:39.753680,-104
2021-12-23 17:52:39.753684,-116
2021-12-23 17:52:39.753689,33
2021-12-23 17:52:39.753693,-30
2021-12-23 17:52:39.753698,-61
2021-12-23 17:52:39.753702,-2
2021-12-23 17:52:39.753706,7
2021-12-23 17:52:39.753711,9
2021-12-23 17:52:39.753715,38
2021-12-23 17:52:39.753720,59
2021-12-23 17:52:39.753724,73
2021-12-23 17:52:39.753728,87
2021-12-23 17:52:39.753733,114
2021-12-23 17:52:39.753737,147
2021-12-23 17:52:39.753742,178
2021-12-23 17:52:39.753746,206
2021-12-23 17:52:39.753750,235
2021-12-23 17:52:39.753755,278
2021-12-23 17:52:39.753759,325
2021-12-23 17:52:39.753764,368
2021-12-23 17:52:39.753768,406
2021-12-23 17:52:39.753772,441
2021-12-23 17:52:39.753777,465
2021-12-23 17:52:39.753781,480
2021-12-23 17:52:40.114887,480
2021-12-23 17:52:40.114904,463
2021-12-23 17:52:40.114909,422
2021-12-23 17:52:40.114914,342
2021-12-23 17:52:40.114919,228
2021-12-23 17:52:40.114923,116
2021-12-23 17:52:40.114927,23
2021-12-23 17:52:40.114932,-57
2021-12-23 17:52:40.114936,-133
2021-12-23 17:52:40.114940,-185
2021-12-23 17:52:40.114945,-213
2021-12-23 17:52:40.114949,-228
2021-12-23 17:52:40.114953,-237
2021-12-23 17:52:40.114977,-240
2021-12-23 17:52:40.115012,-237
2021-12-23 17:52:40.115024,-232
2021-12-23 17:52:40.115030,-223
2021-12-23 17:52:40.115034,-209
2021-12-23 17:52:40.115039,-201
2021-12-23 17:52:40.115043,-190
2021-12-23 17:52:40.115047,-175
2021-12-23 17:52:40.115052,-173
2021-12-23 17:52:40.115056,-161
2021-12-23 17:52:40.115060,-140
2021-12-23 17:52:40.115065,-128
2021-12-23 17:52:40.115069,-125
2021-12-23 17:52:40.115073,-116
2021-12-23 17:52:40.115101,-114
2021-12-23 17:52:40.115110,-118
2021-12-23 17:52:40.115115,-109
2021-12-23 17:52:40.293639,-92
2021-12-23 17:52:40.293654,-95
2021-12-23 17:52:40.293660,-102
2021-12-23 17:52:40.293665,-97
2021-12-23 17:52:40.293670,-90
2021-12-23 17:52:40.293675,-85
2021-12-23 17:52:40.293680,-85
2021-12-23 17:52:40.293685,-85
2021-12-23 17:52:40.293690,-76
2021-12-23 17:52:40.293695,-71
2021-12-23 17:52:40.293700,-80
2021-12-23 17:52:40.293705,-83
2021-12-23 17:52:40.293710,-68
2021-12-23 17:52:40.293714,-57
2021-12-23 17:52:40.293719,-61
2021-12-23 17:52:40.293724,-66
2021-12-23 17:52:40.293729,-54
2021-12-23 17:52:40.293734,-40
2021-12-23 17:52:40.293739,-38
2021-12-23 17:52:40.293744,-38
2021-12-23 17:52:40.293749,-38
2021-12-23 17:52:40.293753,-40
2021-12-23 17:52:40.293758,-35
2021-12-23 17:52:40.293763,-28
2021-12-23 17:52:40.293768,-21
2021-12-23 17:52:40.293773,-19
2021-12-23 17:52:40.293778,-19
2021-12-23 17:52:40.293782,-21
2021-12-23 17:52:40.293787,-16
2021-12-23 17:52:40.293792,-9
2021-12-23 17:52:40.517674,-7
2021-12-23 17:52:40.517696,-7
2021-12-23 17:52:40.517702,-7
2021-12-23 17:52:40.517708,-16
2021-12-23 17:52:40.517713,-11
2021-12-23 17:52:40.517726,7
2021-12-23 17:52:40.517732,14
2021-12-23 17:52:40.517737,9
2021-12-23 17:52:40.517742,2
2021-12-23 17:52:40.517748,4
2021-12-23 17:52:40.517753,21
2021-12-23 17:52:40.517758,23
2021-12-23 17:52:40.517764,16
2021-12-23 17:52:40.517769,16
2021-12-23 17:52:40.517774,16
2021-12-23 17:52:40.517780,11
2021-12-23 17:52:40.517785,14
2021-12-23 17:52:40.517790,19
2021-12-23 17:52:40.517795,23
2021-12-23 17:52:40.517800,28
2021-12-23 17:52:40.517806,35
2021-12-23 17:52:40.517811,40
2021-12-23 17:52:40.517816,42
2021-12-23 17:52:40.517821,26
2021-12-23 17:52:40.517826,11
2021-12-23 17:52:40.517831,14
2021-12-23 17:52:40.517836,23
2021-12-23 17:52:40.517841,28
2021-12-23 17:52:40.517847,23
2021-12-23 17:52:40.517852,28
2021-12-23 17:52:40.743424,26
2021-12-23 17:52:40.743444,-2
2021-12-23 17:52:40.743452,40
2021-12-23 17:52:40.743458,387
2021-12-23 17:52:40.743465,1159
2021-12-23 17:52:40.743471,2026
2021-12-23 17:52:40.743478,2283
2021-12-23 17:52:40.743484,1325
2021-12-23 17:52:40.743490,-182
2021-12-23 17:52:40.743497,-513
2021-12-23 17:52:40.743503,97
2021-12-23 17:52:40.743509,102
2021-12-23 17:52:40.743516,-178
2021-12-23 17:52:40.743522,-61
2021-12-23 17:52:40.743528,4
2021-12-23 17:52:40.743535,-78
2021-12-23 17:52:40.743541,-42
2021-12-23 17:52:40.743547,9
2021-12-23 17:52:40.743554,-11
2021-12-23 17:52:40.743560,2
2021-12-23 17:52:40.743567,45
2021-12-23 17:52:40.743573,54
2021-12-23 17:52:40.743579,73
2021-12-23 17:52:40.743586,111
2021-12-23 17:52:40.743592,135
2021-12-23 17:52:40.743598,152
2021-12-23 17:52:40.743605,185
2021-12-23 17:52:40.743611,218
2021-12-23 17:52:40.743617,249
2021-12-23 17:52:40.743623,294
2021-12-23 17:52:40.924189,337
2021-12-23 17:52:40.924212,373
2021-12-23 17:52:40.924219,408
2021-12-23 17:52:40.924226,441
2021-12-23 17:52:40.924233,458
2021-12-23 17:52:40.924239,468
2021-12-23 17:52:40.924246,465
2021-12-23 17:52:40.924252,430
2021-12-23 17:52:40.924258,361
2021-12-23 17:52:40.924265,270
2021-12-23 17:52:40.924271,175
2021-12-23 17:52:40.924277,71
2021-12-23 17:52:40.924284,-23
2021-12-23 17:52:40.924290,-95
2021-12-23 17:52:40.924297,-156
2021-12-23 17:52:40.924303,-204
2021-12-23 17:52:40.924310,-223
2021-12-23 17:52:40.924316,-232
2021-12-23 17:52:40.924322,-249
2021-12-23 17:52:40.924329,-251
2021-12-23 17:52:40.924335,-232
2021-12-23 17:52:40.924342,-220
2021-12-23 17:52:40.924348,-218
2021-12-23 17:52:40.924355,-204
2021-12-23 17:52:40.924361,-190
2021-12-23 17:52:40.924368,-180
2021-12-23 17:52:40.924374,-168
2021-12-23 17:52:40.924380,-156
2021-12-23 17:52:40.924387,-144
2021-12-23 17:52:40.924393,-130
2021-12-23 17:52:41.149496,-123
2021-12-23 17:52:41.149527,-121
2021-12-23 17:52:41.149539,-116
2021-12-23 17:52:41.149550,-106
2021-12-23 17:52:41.149559,-109
2021-12-23 17:52:41.149569,-114
2021-12-23 17:52:41.149579,-106
2021-12-23 17:52:41.149588,-97
2021-12-23 17:52:41.149598,-102
2021-12-23 17:52:41.149608,-102
2021-12-23 17:52:41.149618,-92
2021-12-23 17:52:41.149627,-95
2021-12-23 17:52:41.149637,-102
2021-12-23 17:52:41.149647,-95
2021-12-23 17:52:41.149656,-83
2021-12-23 17:52:41.149666,-83
2021-12-23 17:52:41.149676,-80
2021-12-23 17:52:41.149686,-68
2021-12-23 17:52:41.149695,-66
2021-12-23 17:52:41.149705,-64
2021-12-23 17:52:41.149764,-57
2021-12-23 17:52:41.149784,-57
2021-12-23 17:52:41.149799,-57
2021-12-23 17:52:41.149816,-57
2021-12-23 17:52:41.149901,-49
2021-12-23 17:52:41.149957,-35
2021-12-23 17:52:41.149973,-33
2021-12-23 17:52:41.149998,-35
2021-12-23 17:52:41.150004,-42
2021-12-23 17:52:41.150011,-40
2021-12-23 17:52:41.374459,-33
2021-12-23 17:52:41.374497,-19
2021-12-23 17:52:41.374509,-9
2021-12-23 17:52:41.374519,-19
2021-12-23 17:52:41.374529,-33
2021-12-23 17:52:41.374539,-26
2021-12-23 17:52:41.374549,-7
2021-12-23 17:52:41.374558,-4
2021-12-23 17:52:41.374568,-4
2021-12-23 17:52:41.374578,-2
2021-12-23 17:52:41.374587,2
2021-12-23 17:52:41.374597,4
2021-12-23 17:52:41.374607,7
2021-12-23 17:52:41.374617,9
2021-12-23 17:52:41.374626,2
2021-12-23 17:52:41.374636,-2
2021-12-23 17:52:41.374646,9
2021-12-23 17:52:41.374655,19
2021-12-23 17:52:41.374665,14
2021-12-23 17:52:41.374675,14
2021-12-23 17:52:41.374684,19
2021-12-23 17:52:41.374710,11
2021-12-23 17:52:41.374720,9
2021-12-23 17:52:41.374730,19
2021-12-23 17:52:41.374740,30
2021-12-23 17:52:41.374749,38
2021-12-23 17:52:41.374759,30
2021-12-23 17:52:41.374769,35
2021-12-23 17:52:41.374842,59
2021-12-23 17:52:41.374876,49
2021-12-23 17:52:41.644146,14
2021-12-23 17:52:41.644168,11
2021-12-23 17:52:41.644176,33
2021-12-23 17:52:41.644183,33
2021-12-23 17:52:41.644189,23
2021-12-23 17:52:41.644195,28
2021-12-23 17:52:41.644202,28
2021-12-23 17:52:41.644208,2
2021-12-23 17:52:41.644214,30
2021-12-23 17:52:41.644221,377
2021-12-23 17:52:41.644227,1173
2021-12-23 17:52:41.644233,2053
2021-12-23 17:52:41.644240,2286
2021-12-23 17:52:41.644246,1268
2021-12-23 17:52:41.644252,-266
2021-12-23 17:52:41.644258,-551
2021-12-23 17:52:41.644265,80
2021-12-23 17:52:41.644271,73
2021-12-23 17:52:41.644277,-182
2021-12-23 17:52:41.644284,-54
2021-12-23 17:52:41.644290,0
2021-12-23 17:52:41.644296,-90
2021-12-23 17:52:41.644302,-52
2021-12-23 17:52:41.644309,2
2021-12-23 17:52:41.644315,-9
2021-12-23 17:52:41.644321,7
2021-12-23 17:52:41.644327,47
2021-12-23 17:52:41.644334,64
2021-12-23 17:52:41.644340,83
2021-12-23 17:52:41.644346,116
2021-12-23 17:52:41.869496,133
2021-12-23 17:52:41.869527,154
2021-12-23 17:52:41.869539,190
2021-12-23 17:52:41.869550,216
2021-12-23 17:52:41.869560,247
2021-12-23 17:52:41.869570,289
2021-12-23 17:52:41.869579,327
2021-12-23 17:52:41.869589,365
2021-12-23 17:52:41.869599,406
2021-12-23 17:52:41.869609,437
2021-12-23 17:52:41.869619,458
2021-12-23 17:52:41.869628,470
2021-12-23 17:52:41.869638,470
2021-12-23 17:52:41.869648,449
2021-12-23 17:52:41.869658,394
2021-12-23 17:52:41.869667,301
2021-12-23 17:52:41.869677,194
2021-12-23 17:52:41.869687,95
2021-12-23 17:52:41.869697,2
2021-12-23 17:52:41.869707,-80
2021-12-23 17:52:41.869736,-149
2021-12-23 17:52:41.869746,-197
2021-12-23 17:52:41.869756,-228
2021-12-23 17:52:41.869766,-249
2021-12-23 17:52:41.869776,-254
2021-12-23 17:52:41.869786,-247
2021-12-23 17:52:41.869795,-240
2021-12-23 17:52:41.869805,-235
2021-12-23 17:52:41.869886,-220
2021-12-23 17:52:41.869986,-206
2021-12-23 17:52:42.094482,-199
2021-12-23 17:52:42.094513,-182
2021-12-23 17:52:42.094525,-161
2021-12-23 17:52:42.094535,-156
2021-12-23 17:52:42.094545,-152
2021-12-23 17:52:42.094554,-140
2021-12-23 17:52:42.094564,-130
2021-12-23 17:52:42.094573,-128
2021-12-23 17:52:42.094583,-125
2021-12-23 17:52:42.094593,-123
2021-12-23 17:52:42.094602,-118
2021-12-23 17:52:42.094612,-104
2021-12-23 17:52:42.094622,-97
2021-12-23 17:52:42.094631,-109
2021-12-23 17:52:42.094641,-111
2021-12-23 17:52:42.094651,-104
2021-12-23 17:52:42.094660,-99
2021-12-23 17:52:42.094670,-97
2021-12-23 17:52:42.094680,-90
2021-12-23 17:52:42.094689,-85
2021-12-23 17:52:42.094699,-85
2021-12-23 17:52:42.094708,-83
2021-12-23 17:52:42.094734,-76
2021-12-23 17:52:42.094744,-71
2021-12-23 17:52:42.094754,-68
2021-12-23 17:52:42.094764,-66
2021-12-23 17:52:42.094774,-59
2021-12-23 17:52:42.094783,-54
2021-12-23 17:52:42.094793,-52
2021-12-23 17:52:42.094802,-49
2021-12-23 17:52:42.319379,-40
2021-12-23 17:52:42.319406,-33
2021-12-23 17:52:42.319413,-28
2021-12-23 17:52:42.319419,-28
2021-12-23 17:52:42.319425,-21
2021-12-23 17:52:42.319430,-14
2021-12-23 17:52:42.319435,-19
2021-12-23 17:52:42.319440,-21
2021-12-23 17:52:42.319445,-23
2021-12-23 17:52:42.319450,-26
2021-12-23 17:52:42.319455,-14
2021-12-23 17:52:42.319464,-4
2021-12-23 17:52:42.319470,-7
2021-12-23 17:52:42.319475,-4
2021-12-23 17:52:42.319480,2
2021-12-23 17:52:42.319485,4
2021-12-23 17:52:42.319490,2
2021-12-23 17:52:42.319495,7
2021-12-23 17:52:42.319500,14
2021-12-23 17:52:42.319505,11
2021-12-23 17:52:42.319510,4
2021-12-23 17:52:42.319515,16
2021-12-23 17:52:42.319520,28
2021-12-23 17:52:42.319525,30
2021-12-23 17:52:42.319530,30
2021-12-23 17:52:42.319535,28
2021-12-23 17:52:42.319540,26
2021-12-23 17:52:42.319545,21
2021-12-23 17:52:42.319550,23
2021-12-23 17:52:42.319555,26
2021-12-23 17:52:42.588006,30
2021-12-23 17:52:42.588028,40
2021-12-23 17:52:42.588036,45
2021-12-23 17:52:42.588042,42
2021-12-23 17:52:42.588049,57
2021-12-23 17:52:42.588055,66
2021-12-23 17:52:42.588062,35
2021-12-23 17:52:42.588068,11
2021-12-23 17:52:42.588074,30
2021-12-23 17:52:42.588081,42
2021-12-23 17:52:42.588087,40
2021-12-23 17:52:42.588093,45
2021-12-23 17:52:42.588100,40
2021-12-23 17:52:42.588106,14
2021-12-23 17:52:42.588113,2
2021-12-23 17:52:42.588119,175
2021-12-23 17:52:42.588125,774
2021-12-23 17:52:42.588131,1708
2021-12-23 17:52:42.588138,2352
2021-12-23 17:52:42.588144,1960
2021-12-23 17:52:42.588150,470
2021-12-23 17:52:42.588157,-584
2021-12-23 17:52:42.588163,-194
2021-12-23 17:52:42.588170,197
2021-12-23 17:52:42.588176,-87
2021-12-23 17:52:42.588182,-137
2021-12-23 17:52:42.588189,14
2021-12-23 17:52:42.588195,-30
2021-12-23 17:52:42.588201,-61
2021-12-23 17:52:42.588207,-2
2021-12-23 17:52:42.769172,7
2021-12-23 17:52:42.769195,7
2021-12-23 17:52:42.769202,45
2021-12-23 17:52:42.769209,68
2021-12-23 17:52:42.769215,83
2021-12-23 17:52:42.769222,102
2021-12-23 17:52:42.769228,121
2021-12-23 17:52:42.769234,147
2021-12-23 17:52:42.769240,173
2021-12-23 17:52:42.769246,199
2021-12-23 17:52:42.769253,230
2021-12-23 17:52:42.769259,263
2021-12-23 17:52:42.769265,297
2021-12-23 17:52:42.769271,339
2021-12-23 17:52:42.769278,387
2021-12-23 17:52:42.769284,422
2021-12-23 17:52:42.769290,446
2021-12-23 17:52:42.769296,470
2021-12-23 17:52:42.769302,480
2021-12-23 17:52:42.769309,461
2021-12-23 17:52:42.769315,413
2021-12-23 17:52:42.769321,344
2021-12-23 17:52:42.769327,256
2021-12-23 17:52:42.769333,144
2021-12-23 17:52:42.769339,38
2021-12-23 17:52:42.769346,-42
2021-12-23 17:52:42.769352,-114
2021-12-23 17:52:42.769358,-178
2021-12-23 17:52:42.769364,-209
2021-12-23 17:52:42.769370,-220
2021-12-23 17:52:43.039031,-235
2021-12-23 17:52:43.039051,-247
2021-12-23 17:52:43.039057,-242
2021-12-23 17:52:43.039062,-225
2021-12-23 17:52:43.039066,-220
2021-12-23 17:52:43.039071,-218
2021-12-23 17:52:43.039076,-204
2021-12-23 17:52:43.039081,-185
2021-12-23 17:52:43.039086,-178
2021-12-23 17:52:43.039090,-180
2021-12-23 17:52:43.039094,-171
2021-12-23 17:52:43.039099,-152
2021-12-23 17:52:43.039103,-142
2021-12-23 17:52:43.039108,-137
2021-12-23 17:52:43.039113,-133
2021-12-23 17:52:43.039117,-123
2021-12-23 17:52:43.039121,-116
2021-12-23 17:52:43.039126,-111
2021-12-23 17:52:43.039130,-109
2021-12-23 17:52:43.039135,-109
2021-12-23 17:52:43.039139,-104
2021-12-23 17:52:43.039144,-95
2021-12-23 17:52:43.039148,-97
2021-12-23 17:52:43.039152,-104
2021-12-23 17:52:43.039157,-95
2021-12-23 17:52:43.039161,-80
2021-12-23 17:52:43.039166,-80
2021-12-23 17:52:43.039170,-85
2021-12-23 17:52:43.039174,-83
2021-12-23 17:52:43.039179,-73
2021-12-23 17:52:43.218723,-68
2021-12-23 17:52:43.218742,-68
2021-12-23 17:52:43.218748,-66
2021-12-23 17:52:43.218754,-54
2021-12-23 17:52:43.218759,-54
2021-12-23 17:52:43.218764,-54
2021-12-23 17:52:43.218769,-47
2021-12-23 17:52:43.218774,-49
2021-12-23 17:52:43.218780,-45
2021-12-23 17:52:43.218785,-28
2021-12-23 17:52:43.218790,-23
2021-12-23 17:52:43.218795,-21
2021-12-23 17:52:43.218800,-14
2021-12-23 17:52:43.218805,-14
2021-12-23 17:52:43.218810,-14
2021-12-23 17:52:43.218815,-9
2021-12-23 17:52:43.218820,-14
2021-12-23 17:52:43.218825,-16
2021-12-23 17:52:43.218831,-9
2021-12-23 17:52:43.218836,-4
2021-12-23 17:52:43.218841,2
2021-12-23 17:52:43.218846,2
2021-12-23 17:52:43.218851,4
2021-12-23 17:52:43.218856,14
2021-12-23 17:52:43.218861,19
2021-12-23 17:52:43.218866,21
2021-12-23 17:52:43.218871,28
2021-12-23 17:52:43.218876,23
2021-12-23 17:52:43.218881,16
2021-12-23 17:52:43.218886,23
2021-12-23 17:52:43.488889,30
2021-12-23 17:52:43.488920,30
2021-12-23 17:52:43.488931,33
2021-12-23 17:52:43.488942,38
2021-12-23 17:52:43.488952,28
2021-12-23 17:52:43.488961,23
2021-12-23 17:52:43.488971,28
2021-12-23 17:52:43.488981,26
2021-12-23 17:52:43.488995,28
2021-12-23 17:52:43.489005,33
2021-12-23 17:52:43.489014,30
2021-12-23 17:52:43.489024,42
2021-12-23 17:52:43.489034,52
2021-12-23 17:52:43.489044,33
2021-12-23 17:52:43.489053,19
2021-12-23 17:52:43.489063,21
2021-12-23 17:52:43.489073,26
2021-12-23 17:52:43.489082,28
2021-12-23 17:52:43.489092,30
2021-12-23 17:52:43.489102,38
2021-12-23 17:52:43.489111,33
2021-12-23 17:52:43.489121,0
2021-12-23 17:52:43.489131,38
2021-12-23 17:52:43.489141,392
2021-12-23 17:52:43.489151,1190
2021-12-23 17:52:43.489161,2076
2021-12-23 17:52:43.489170,2333
2021-12-23 17:52:43.489180,1359
2021-12-23 17:52:43.489190,-178
2021-12-23 17:52:43.489199,-520
2021-12-23 17:52:43.803988,99
2021-12-23 17:52:43.804011,104
2021-12-23 17:52:43.804019,-180
2021-12-23 17:52:43.804025,-66
2021-12-23 17:52:43.804032,4
2021-12-23 17:52:43.804038,-80
2021-12-23 17:52:43.804044,-52
2021-12-23 17:52:43.804051,2
2021-12-23 17:52:43.804057,-14
2021-12-23 17:52:43.804063,-7
2021-12-23 17:52:43.804070,47
2021-12-23 17:52:43.804076,71
2021-12-23 17:52:43.804082,68
2021-12-23 17:52:43.804088,95
2021-12-23 17:52:43.804095,133
2021-12-23 17:52:43.804101,152
2021-12-23 17:52:43.804107,180
2021-12-23 17:52:43.804114,220
2021-12-23 17:52:43.804120,244
2021-12-23 17:52:43.804126,263
2021-12-23 17:52:43.804133,304
2021-12-23 17:52:43.804139,351
2021-12-23 17:52:43.804145,389
2021-12-23 17:52:43.804152,430
2021-12-23 17:52:43.804158,458
2021-12-23 17:52:43.804164,463
2021-12-23 17:52:43.804170,461
2021-12-23 17:52:43.804177,444
2021-12-23 17:52:43.804183,382
2021-12-23 17:52:43.804189,289
2021-12-23 17:52:43.939528,197
2021-12-23 17:52:43.939559,95
2021-12-23 17:52:43.939571,0
2021-12-23 17:52:43.939582,-73
2021-12-23 17:52:43.939592,-135
2021-12-23 17:52:43.939602,-178
2021-12-23 17:52:43.939611,-201
2021-12-23 17:52:43.939621,-225
2021-12-23 17:52:43.939630,-235
2021-12-23 17:52:43.939640,-225
2021-12-23 17:52:43.939650,-228
2021-12-23 17:52:43.939660,-228
2021-12-23 17:52:43.939669,-216
2021-12-23 17:52:43.939679,-206
2021-12-23 17:52:43.939688,-206
2021-12-23 17:52:43.939698,-190
2021-12-23 17:52:43.939707,-161
2021-12-23 17:52:43.939717,-142
2021-12-23 17:52:43.939726,-140
2021-12-23 17:52:43.939736,-137
2021-12-23 17:52:43.939745,-135
2021-12-23 17:52:43.939755,-125
2021-12-23 17:52:43.939765,-114
2021-12-23 17:52:43.939774,-111
2021-12-23 17:52:43.939783,-109
2021-12-23 17:52:43.939793,-99
2021-12-23 17:52:43.939803,-99
2021-12-23 17:52:43.939812,-102
2021-12-23 17:52:43.939822,-92
2021-12-23 17:52:43.939832,-83
2021-12-23 17:52:44.164670,-78
2021-12-23 17:52:44.164701,-73
2021-12-23 17:52:44.164713,-76
2021-12-23 17:52:44.164723,-85
2021-12-23 17:52:44.164733,-80
2021-12-23 17:52:44.164743,-64
2021-12-23 17:52:44.164752,-61
2021-12-23 17:52:44.164762,-71
2021-12-23 17:52:44.164772,-73
2021-12-23 17:52:44.164781,-66
2021-12-23 17:52:44.164791,-52
2021-12-23 17:52:44.164801,-40
2021-12-23 17:52:44.164810,-40
2021-12-23 17:52:44.164820,-42
2021-12-23 17:52:44.164830,-40
2021-12-23 17:52:44.164839,-35
2021-12-23 17:52:44.164849,-35
2021-12-23 17:52:44.164859,-38
2021-12-23 17:52:44.164868,-33
2021-12-23 17:52:44.164878,-21
2021-12-23 17:52:44.164888,-14
2021-12-23 17:52:44.164898,-14
2021-12-23 17:52:44.164907,-14
2021-12-23 17:52:44.164917,-7
2021-12-23 17:52:44.164926,-2
2021-12-23 17:52:44.164936,-2
2021-12-23 17:52:44.164946,-4
2021-12-23 17:52:44.164955,-2
2021-12-23 17:52:44.164965,2
2021-12-23 17:52:44.164975,9
2021-12-23 17:52:44.389033,16
2021-12-23 17:52:44.389056,23
2021-12-23 17:52:44.389064,19
2021-12-23 17:52:44.389071,14
2021-12-23 17:52:44.389077,16
2021-12-23 17:52:44.389083,28
2021-12-23 17:52:44.389090,30
2021-12-23 17:52:44.389096,23
2021-12-23 17:52:44.389103,26
2021-12-23 17:52:44.389109,28
2021-12-23 17:52:44.389115,30
2021-12-23 17:52:44.389121,40
2021-12-23 17:52:44.389128,33
2021-12-23 17:52:44.389134,23
2021-12-23 17:52:44.389140,35
2021-12-23 17:52:44.389147,30
2021-12-23 17:52:44.389153,19
2021-12-23 17:52:44.389159,33
2021-12-23 17:52:44.389166,52
2021-12-23 17:52:44.389172,49
2021-12-23 17:52:44.389179,45
2021-12-23 17:52:44.389185,40
2021-12-23 17:52:44.389191,26
2021-12-23 17:52:44.389197,23
2021-12-23 17:52:44.389204,30
2021-12-23 17:52:44.389210,30
2021-12-23 17:52:44.389216,40
2021-12-23 17:52:44.389223,38
2021-12-23 17:52:44.389229,16
2021-12-23 17:52:44.389236,-7
2021-12-23 17:52:44.792989,40
2021-12-23 17:52:44.793017,389
2021-12-23 17:52:44.793029,1159
2021-12-23 17:52:44.793040,1977
2021-12-23 17:52:44.793050,2160
2021-12-23 17:52:44.793061,1219
2021-12-23 17:52:44.793071,-168
2021-12-23 17:52:44.793082,-453
2021-12-23 17:52:44.793093,92
2021-12-23 17:52:44.793104,85
2021-12-23 17:52:44.793115,-163
2021-12-23 17:52:44.793125,-68
2021-12-23 17:52:44.793136,-11
2021-12-23 17:52:44.793146,-76
2021-12-23 17:52:44.793157,-47
2021-12-23 17:52:44.793168,4
2021-12-23 17:52:44.793179,2
2021-12-23 17:52:44.793190,4
2021-12-23 17:52:44.793201,30
2021-12-23 17:52:44.793209,54
2021-12-23 17:52:44.793216,71
2021-12-23 17:52:44.793222,90
2021-12-23 17:52:44.793228,118
2021-12-23 17:52:44.793240,147
2021-12-23 17:52:44.793247,168
2021-12-23 17:52:44.793253,187
2021-12-23 17:52:44.793259,213
2021-12-23 17:52:44.793265,247
2021-12-23 17:52:44.793272,287
2021-12-23 17:52:44.793278,332
2021-12-23 17:52:44.883909,368
2021-12-23 17:52:44.883931,389
2021-12-23 17:52:44.883939,411
2021-12-23 17:52:44.883946,434
2021-12-23 17:52:44.883952,437
2021-12-23 17:52:44.883959,401
2021-12-23 17:52:44.883965,351
2021-12-23 17:52:44.883972,294
2021-12-23 17:52:44.883978,197
2021-12-23 17:52:44.883985,92
2021-12-23 17:52:44.883991,9
2021-12-23 17:52:44.883997,-66
2021-12-23 17:52:44.884004,-135
2021-12-23 17:52:44.884010,-168
2021-12-23 17:52:44.884016,-182
2021-12-23 17:52:44.884023,-209
2021-12-23 17:52:44.884029,-216
2021-12-23 17:52:44.884036,-204
2021-12-23 17:52:44.884042,-211
2021-12-23 17:52:44.884048,-209
2021-12-23 17:52:44.884055,-190
2021-12-23 17:52:44.884061,-182
2021-12-23 17:52:44.884067,-180
2021-12-23 17:52:44.884074,-168
2021-12-23 17:52:44.884080,-152
2021-12-23 17:52:44.884086,-149
2021-12-23 17:52:44.884093,-142
2021-12-23 17:52:44.884099,-116
2021-12-23 17:52:44.884105,-109
2021-12-23 17:52:44.884112,-111
2021-12-23 17:52:45.064523,-95
2021-12-23 17:52:45.064554,-85
2021-12-23 17:52:45.064567,-95
2021-12-23 17:52:45.064577,-99
2021-12-23 17:52:45.064587,-90
2021-12-23 17:52:45.064597,-87
2021-12-23 17:52:45.064606,-85
2021-12-23 17:52:45.064636,-66
2021-12-23 17:52:45.064654,-66
2021-12-23 17:52:45.064669,-85
2021-12-23 17:52:45.064679,-80
2021-12-23 17:52:45.064689,-71
2021-12-23 17:52:45.064699,-73
2021-12-23 17:52:45.064709,-73
2021-12-23 17:52:45.064719,-71
2021-12-23 17:52:45.064728,-61
2021-12-23 17:52:45.064738,-52
2021-12-23 17:52:45.064748,-49
2021-12-23 17:52:45.064758,-52
2021-12-23 17:52:45.064767,-47
2021-12-23 17:52:45.064777,-33
2021-12-23 17:52:45.064787,-33
2021-12-23 17:52:45.064796,-42
2021-12-23 17:52:45.064806,-33
2021-12-23 17:52:45.064816,-21
2021-12-23 17:52:45.064825,-19
2021-12-23 17:52:45.064835,-19
2021-12-23 17:52:45.064845,-19
2021-12-23 17:52:45.064855,-9
2021-12-23 17:52:45.064865,7
2021-12-23 17:52:45.334524,9
2021-12-23 17:52:45.334545,-2
2021-12-23 17:52:45.334554,-11
2021-12-23 17:52:45.334561,-4
2021-12-23 17:52:45.334567,-7
2021-12-23 17:52:45.334573,-11
2021-12-23 17:52:45.334580,11
2021-12-23 17:52:45.334586,33
2021-12-23 17:52:45.334592,14
2021-12-23 17:52:45.334599,2
2021-12-23 17:52:45.334605,16
2021-12-23 17:52:45.334611,21
2021-12-23 17:52:45.334618,19
2021-12-23 17:52:45.334624,21
2021-12-23 17:52:45.334630,19
2021-12-23 17:52:45.334636,11
2021-12-23 17:52:45.334643,28
2021-12-23 17:52:45.334649,42
2021-12-23 17:52:45.334655,33
2021-12-23 17:52:45.334662,35
2021-12-23 17:52:45.334668,42
2021-12-23 17:52:45.334674,42
2021-12-23 17:52:45.334681,49
2021-12-23 17:52:45.334687,52
2021-12-23 17:52:45.334693,57
2021-12-23 17:52:45.334700,68
2021-12-23 17:52:45.334706,68
2021-12-23 17:52:45.334712,42
2021-12-23 17:52:45.334718,21
2021-12-23 17:52:45.334725,28
2021-12-23 17:52:45.559477,35
2021-12-23 17:52:45.559507,38
2021-12-23 17:52:45.559520,42
2021-12-23 17:52:45.559530,45
2021-12-23 17:52:45.559540,28
2021-12-23 17:52:45.559550,-11
2021-12-23 17:52:45.559560,73
2021-12-23 17:52:45.559570,494
2021-12-23 17:52:45.559579,1259
2021-12-23 17:52:45.559589,1981
2021-12-23 17:52:45.559599,1969
2021-12-23 17:52:45.559608,855
2021-12-23 17:52:45.559618,-354
2021-12-23 17:52:45.559628,-342
2021-12-23 17:52:45.559638,147
2021-12-23 17:52:45.559647,23
2021-12-23 17:52:45.559657,-137
2021-12-23 17:52:45.559667,-2
2021-12-23 17:52:45.559676,11
2021-12-23 17:52:45.559686,-54
2021-12-23 17:52:45.559696,-23
2021-12-23 17:52:45.559706,0
2021-12-23 17:52:45.559716,-4
2021-12-23 17:52:45.559725,26
2021-12-23 17:52:45.559735,66
2021-12-23 17:52:45.559745,73
2021-12-23 17:52:45.559754,76
2021-12-23 17:52:45.559764,95
2021-12-23 17:52:45.559774,116
2021-12-23 17:52:45.559783,137
2021-12-23 17:52:45.829564,175
2021-12-23 17:52:45.829585,209
2021-12-23 17:52:45.829593,228
2021-12-23 17:52:45.829599,251
2021-12-23 17:52:45.829606,294
2021-12-23 17:52:45.829612,332
2021-12-23 17:52:45.829619,349
2021-12-23 17:52:45.829625,358
2021-12-23 17:52:45.829631,375
2021-12-23 17:52:45.829638,389
2021-12-23 17:52:45.829644,389
2021-12-23 17:52:45.829650,363
2021-12-23 17:52:45.829657,320
2021-12-23 17:52:45.829663,263
2021-12-23 17:52:45.829669,163
2021-12-23 17:52:45.829676,59
2021-12-23 17:52:45.829682,-4
2021-12-23 17:52:45.829688,-52
2021-12-23 17:52:45.829695,-104
2021-12-23 17:52:45.829701,-144
2021-12-23 17:52:45.829707,-166
2021-12-23 17:52:45.829714,-182
2021-12-23 17:52:45.829720,-190
2021-12-23 17:52:45.829727,-182
2021-12-23 17:52:45.829733,-180
2021-12-23 17:52:45.829740,-175
2021-12-23 17:52:45.829746,-159
2021-12-23 17:52:45.829752,-144
2021-12-23 17:52:45.829759,-140
2021-12-23 17:52:45.829765,-133
2021-12-23 17:52:46.009523,-125
2021-12-23 17:52:46.009554,-109
2021-12-23 17:52:46.009566,-95
2021-12-23 17:52:46.009577,-97
2021-12-23 17:52:46.009587,-99
2021-12-23 17:52:46.009596,-97
2021-12-23 17:52:46.009606,-90
2021-12-23 17:52:46.009616,-85
2021-12-23 17:52:46.009626,-87
2021-12-23 17:52:46.009635,-85
2021-12-23 17:52:46.009645,-85
2021-12-23 17:52:46.009655,-90
2021-12-23 17:52:46.009665,-78
2021-12-23 17:52:46.009675,-71
2021-12-23 17:52:46.009684,-83
2021-12-23 17:52:46.009694,-78
2021-12-23 17:52:46.009704,-66
2021-12-23 17:52:46.009714,-80
2021-12-23 17:52:46.009724,-85
2021-12-23 17:52:46.009733,-68
2021-12-23 17:52:46.009743,-64
2021-12-23 17:52:46.009753,-64
2021-12-23 17:52:46.009763,-57
2021-12-23 17:52:46.009772,-54
2021-12-23 17:52:46.009782,-59
2021-12-23 17:52:46.009792,-52
2021-12-23 17:52:46.009802,-38
2021-12-23 17:52:46.009812,-28
2021-12-23 17:52:46.009821,-28
2021-12-23 17:52:46.009836,-40
2021-12-23 17:52:46.279673,-42
2021-12-23 17:52:46.279704,-26
2021-12-23 17:52:46.279716,-23
2021-12-23 17:52:46.279726,-33
2021-12-23 17:52:46.279736,-19
2021-12-23 17:52:46.279746,-9
2021-12-23 17:52:46.279756,-9
2021-12-23 17:52:46.279765,-14
2021-12-23 17:52:46.279775,-23
2021-12-23 17:52:46.279785,-30
2021-12-23 17:52:46.279794,-26
2021-12-23 17:52:46.279804,-19
2021-12-23 17:52:46.279814,-21
2021-12-23 17:52:46.279824,-33
2021-12-23 17:52:46.279834,-28
2021-12-23 17:52:46.279843,-14
2021-12-23 17:52:46.279853,-14
2021-12-23 17:52:46.279862,-16
2021-12-23 17:52:46.279872,-7
2021-12-23 17:52:46.279882,2
2021-12-23 17:52:46.279892,9
2021-12-23 17:52:46.279901,9
2021-12-23 17:52:46.279911,-2
2021-12-23 17:52:46.279921,0
2021-12-23 17:52:46.279931,16
2021-12-23 17:52:46.279940,14
2021-12-23 17:52:46.279950,11
2021-12-23 17:52:46.279960,23
2021-12-23 17:52:46.279969,38
2021-12-23 17:52:46.279979,52
2021-12-23 17:52:46.459356,33
2021-12-23 17:52:46.459384,2
2021-12-23 17:52:46.459392,14
2021-12-23 17:52:46.459398,38
2021-12-23 17:52:46.459405,33
2021-12-23 17:52:46.459411,21
2021-12-23 17:52:46.459417,35
2021-12-23 17:52:46.459423,59
2021-12-23 17:52:46.459429,33
2021-12-23 17:52:46.459435,14
2021-12-23 17:52:46.459442,209
2021-12-23 17:52:46.459448,817
2021-12-23 17:52:46.459454,1699
2021-12-23 17:52:46.459460,2236
2021-12-23 17:52:46.459466,1687
2021-12-23 17:52:46.459472,180
2021-12-23 17:52:46.459479,-615
2021-12-23 17:52:46.459485,-97
2021-12-23 17:52:46.459491,173
2021-12-23 17:52:46.459497,-130
2021-12-23 17:52:46.459504,-128
2021-12-23 17:52:46.459510,2
2021-12-23 17:52:46.459516,-59
2021-12-23 17:52:46.459522,-71
2021-12-23 17:52:46.459528,-2
2021-12-23 17:52:46.459534,14
2021-12-23 17:52:46.459541,23
2021-12-23 17:52:46.459547,42
2021-12-23 17:52:46.459553,45
2021-12-23 17:52:46.459559,61
2021-12-23 17:52:46.773206,95
2021-12-23 17:52:46.773237,123
2021-12-23 17:52:46.773249,154
2021-12-23 17:52:46.773259,171
2021-12-23 17:52:46.773269,185
2021-12-23 17:52:46.773279,225
2021-12-23 17:52:46.773288,273
2021-12-23 17:52:46.773298,318
2021-12-23 17:52:46.773308,344
2021-12-23 17:52:46.773318,361
2021-12-23 17:52:46.773327,403
2021-12-23 17:52:46.773337,449
2021-12-23 17:52:46.773347,461
2021-12-23 17:52:46.773356,453
2021-12-23 17:52:46.773366,437
2021-12-23 17:52:46.773376,401
2021-12-23 17:52:46.773386,325
2021-12-23 17:52:46.773396,213
2021-12-23 17:52:46.773405,114
2021-12-23 17:52:46.773415,40
2021-12-23 17:52:46.773425,-45
2021-12-23 17:52:46.773435,-130
2021-12-23 17:52:46.773444,-178
2021-12-23 17:52:46.773454,-204
2021-12-23 17:52:46.773464,-237
2021-12-23 17:52:46.773474,-244
2021-12-23 17:52:46.773483,-232
2021-12-23 17:52:46.773493,-228
2021-12-23 17:52:46.773503,-223
2021-12-23 17:52:46.773513,-213
2021-12-23 17:52:46.909534,-211
2021-12-23 17:52:46.909564,-194
2021-12-23 17:52:46.909576,-168
2021-12-23 17:52:46.909587,-163
2021-12-23 17:52:46.909597,-175
2021-12-23 17:52:46.909606,-163
2021-12-23 17:52:46.909616,-123
2021-12-23 17:52:46.909626,-99
2021-12-23 17:52:46.909635,-118
2021-12-23 17:52:46.909645,-135
2021-12-23 17:52:46.909654,-109
2021-12-23 17:52:46.909664,-83
2021-12-23 17:52:46.909673,-92
2021-12-23 17:52:46.909683,-104
2021-12-23 17:52:46.909692,-87
2021-12-23 17:52:46.909702,-92
2021-12-23 17:52:46.909712,-125
2021-12-23 17:52:46.909721,-114
2021-12-23 17:52:46.909731,-90
2021-12-23 17:52:46.909740,-109
2021-12-23 17:52:46.909750,-106
2021-12-23 17:52:46.909759,-78
2021-12-23 17:52:46.909769,-80
2021-12-23 17:52:46.909779,-87
2021-12-23 17:52:46.909789,-78
2021-12-23 17:52:46.909798,-76
2021-12-23 17:52:46.909808,-80
2021-12-23 17:52:46.909817,-73
2021-12-23 17:52:46.909827,-57
2021-12-23 17:52:46.909837,-54
2021-12-23 17:52:47.134577,-71
2021-12-23 17:52:47.134607,-71
2021-12-23 17:52:47.134619,-45
2021-12-23 17:52:47.134629,-45
2021-12-23 17:52:47.134639,-54
2021-12-23 17:52:47.134649,-38
2021-12-23 17:52:47.134659,-28
2021-12-23 17:52:47.134668,-35
2021-12-23 17:52:47.134678,-38
2021-12-23 17:52:47.134688,-33
2021-12-23 17:52:47.134698,-28
2021-12-23 17:52:47.134707,-23
2021-12-23 17:52:47.134717,-16
2021-12-23 17:52:47.134727,-16
2021-12-23 17:52:47.134737,-11
2021-12-23 17:52:47.134747,-4
2021-12-23 17:52:47.134756,-2
2021-12-23 17:52:47.134766,-4
2021-12-23 17:52:47.134776,-14
2021-12-23 17:52:47.134786,-14
2021-12-23 17:52:47.134795,4
2021-12-23 17:52:47.134805,11
2021-12-23 17:52:47.134815,4
2021-12-23 17:52:47.134825,9
2021-12-23 17:52:47.134835,26
2021-12-23 17:52:47.134844,30
2021-12-23 17:52:47.134854,19
2021-12-23 17:52:47.134864,9
2021-12-23 17:52:47.134874,26
2021-12-23 17:52:47.134884,42
2021-12-23 17:52:47.449150,35
2021-12-23 17:52:47.449172,42
2021-12-23 17:52:47.449180,52
2021-12-23 17:52:47.449187,23
2021-12-23 17:52:47.449194,14
2021-12-23 17:52:47.449200,47
2021-12-23 17:52:47.449206,52
2021-12-23 17:52:47.449213,30
2021-12-23 17:52:47.449219,30
2021-12-23 17:52:47.449225,30
2021-12-23 17:52:47.449232,14
2021-12-23 17:52:47.449238,73
2021-12-23 17:52:47.449245,458
2021-12-23 17:52:47.449251,1302
2021-12-23 17:52:47.449258,2195
2021-12-23 17:52:47.449264,2331
2021-12-23 17:52:47.449270,1123
2021-12-23 17:52:47.449277,-422
2021-12-23 17:52:47.449283,-515
2021-12-23 17:52:47.449289,144
2021-12-23 17:52:47.449296,38
2021-12-23 17:52:47.449302,-201
2021-12-23 17:52:47.449309,-35
2021-12-23 17:52:47.449315,9
2021-12-23 17:52:47.449321,-80
2021-12-23 17:52:47.449327,-49
2021-12-23 17:52:47.449334,-7
2021-12-23 17:52:47.449340,4
2021-12-23 17:52:47.449347,35
2021-12-23 17:52:47.449353,59
2021-12-23 17:52:47.629486,68
2021-12-23 17:52:47.629507,83
2021-12-23 17:52:47.629515,114
2021-12-23 17:52:47.629521,147
2021-12-23 17:52:47.629528,173
2021-12-23 17:52:47.629534,194
2021-12-23 17:52:47.629540,230
2021-12-23 17:52:47.629547,285
2021-12-23 17:52:47.629553,318
2021-12-23 17:52:47.629559,346
2021-12-23 17:52:47.629565,392
2021-12-23 17:52:47.629571,430
2021-12-23 17:52:47.629578,458
2021-12-23 17:52:47.629584,487
2021-12-23 17:52:47.629590,494
2021-12-23 17:52:47.629596,472
2021-12-23 17:52:47.629602,439
2021-12-23 17:52:47.629609,394
2021-12-23 17:52:47.629615,306
2021-12-23 17:52:47.629621,180
2021-12-23 17:52:47.629627,66
2021-12-23 17:52:47.629633,-26
2021-12-23 17:52:47.629640,-109
2021-12-23 17:52:47.629646,-166
2021-12-23 17:52:47.629652,-204
2021-12-23 17:52:47.629658,-235
2021-12-23 17:52:47.629665,-251
2021-12-23 17:52:47.629671,-256
2021-12-23 17:52:47.629681,-256
2021-12-23 17:52:47.629687,-240
2021-12-23 17:52:47.854104,-225
2021-12-23 17:52:47.854121,-228
2021-12-23 17:52:47.854127,-218
2021-12-23 17:52:47.854133,-197
2021-12-23 17:52:47.854138,-187
2021-12-23 17:52:47.854143,-171
2021-12-23 17:52:47.854148,-142
2021-12-23 17:52:47.854153,-144
2021-12-23 17:52:47.854158,-159
2021-12-23 17:52:47.854163,-140
2021-12-23 17:52:47.854168,-114
2021-12-23 17:52:47.854174,-109
2021-12-23 17:52:47.854179,-106
2021-12-23 17:52:47.854184,-106
2021-12-23 17:52:47.854189,-111
2021-12-23 17:52:47.854194,-109
2021-12-23 17:52:47.854199,-97
2021-12-23 17:52:47.854204,-95
2021-12-23 17:52:47.854209,-106
2021-12-23 17:52:47.854214,-102
2021-12-23 17:52:47.854219,-80
2021-12-23 17:52:47.854224,-66
2021-12-23 17:52:47.854229,-71
2021-12-23 17:52:47.854234,-80
2021-12-23 17:52:47.854240,-80
2021-12-23 17:52:47.854245,-85
2021-12-23 17:52:47.854250,-85
2021-12-23 17:52:47.854255,-76
2021-12-23 17:52:47.854260,-71
2021-12-23 17:52:47.854265,-76
2021-12-23 17:52:48.123720,-76
2021-12-23 17:52:48.123751,-54
2021-12-23 17:52:48.123763,-45
2021-12-23 17:52:48.123773,-57
2021-12-23 17:52:48.123783,-59
2021-12-23 17:52:48.123792,-49
2021-12-23 17:52:48.123802,-42
2021-12-23 17:52:48.123812,-30
2021-12-23 17:52:48.123822,-16
2021-12-23 17:52:48.123831,-26
2021-12-23 17:52:48.123841,-42
2021-12-23 17:52:48.123850,-30
2021-12-23 17:52:48.123860,-14
2021-12-23 17:52:48.123870,-14
2021-12-23 17:52:48.123879,-23
2021-12-23 17:52:48.123889,-23
2021-12-23 17:52:48.123899,-2
2021-12-23 17:52:48.123908,14
2021-12-23 17:52:48.123918,9
2021-12-23 17:52:48.123928,7
2021-12-23 17:52:48.123937,11
2021-12-23 17:52:48.123947,9
2021-12-23 17:52:48.123956,4
2021-12-23 17:52:48.123966,7
2021-12-23 17:52:48.123976,23
2021-12-23 17:52:48.123985,33
2021-12-23 17:52:48.123995,19
2021-12-23 17:52:48.124004,19
2021-12-23 17:52:48.124014,54
2021-12-23 17:52:48.124024,80
2021-12-23 17:52:48.304721,87
2021-12-23 17:52:48.304752,90
2021-12-23 17:52:48.304764,61
2021-12-23 17:52:48.304774,26
2021-12-23 17:52:48.304784,30
2021-12-23 17:52:48.304793,30
2021-12-23 17:52:48.304803,21
2021-12-23 17:52:48.304813,30
2021-12-23 17:52:48.304822,28
2021-12-23 17:52:48.304832,16
2021-12-23 17:52:48.304842,21
2021-12-23 17:52:48.304852,21
2021-12-23 17:52:48.304861,-26
2021-12-23 17:52:48.304871,11
2021-12-23 17:52:48.304881,396
2021-12-23 17:52:48.304891,1204
2021-12-23 17:52:48.304900,2091
2021-12-23 17:52:48.304910,2357
2021-12-23 17:52:48.304919,1359
2021-12-23 17:52:48.304929,-230
2021-12-23 17:52:48.304939,-582
2021-12-23 17:52:48.304948,71
2021-12-23 17:52:48.304958,90
2021-12-23 17:52:48.304967,-197
2021-12-23 17:52:48.304977,-61
2021-12-23 17:52:48.304987,33
2021-12-23 17:52:48.304996,-59
2021-12-23 17:52:48.305006,-49
2021-12-23 17:52:48.305016,4
2021-12-23 17:52:48.305025,-14
2021-12-23 17:52:48.619725,-11
2021-12-23 17:52:48.619746,35
2021-12-23 17:52:48.619754,57
2021-12-23 17:52:48.619760,59
2021-12-23 17:52:48.619767,92
2021-12-23 17:52:48.619773,130
2021-12-23 17:52:48.619779,152
2021-12-23 17:52:48.619785,182
2021-12-23 17:52:48.619792,218
2021-12-23 17:52:48.619798,251
2021-12-23 17:52:48.619804,292
2021-12-23 17:52:48.619811,335
2021-12-23 17:52:48.619817,370
2021-12-23 17:52:48.619824,415
2021-12-23 17:52:48.619830,461
2021-12-23 17:52:48.619836,484
2021-12-23 17:52:48.619842,510
2021-12-23 17:52:48.619849,525
2021-12-23 17:52:48.619855,484
2021-12-23 17:52:48.619861,403
2021-12-23 17:52:48.619868,313
2021-12-23 17:52:48.619874,194
2021-12-23 17:52:48.619880,73
2021-12-23 17:52:48.619887,-11
2021-12-23 17:52:48.619893,-83
2021-12-23 17:52:48.619899,-159
2021-12-23 17:52:48.619906,-199
2021-12-23 17:52:48.619912,-209
2021-12-23 17:52:48.619918,-232
2021-12-23 17:52:48.619925,-259
2021-12-23 17:52:48.843081,-249
2021-12-23 17:52:48.843105,-237
2021-12-23 17:52:48.843112,-244
2021-12-23 17:52:48.843119,-242
2021-12-23 17:52:48.843125,-216
2021-12-23 17:52:48.843132,-199
2021-12-23 17:52:48.843138,-211
2021-12-23 17:52:48.843145,-206
2021-12-23 17:52:48.843151,-168
2021-12-23 17:52:48.843157,-147
2021-12-23 17:52:48.843164,-147
2021-12-23 17:52:48.843170,-140
2021-12-23 17:52:48.843177,-125
2021-12-23 17:52:48.843183,-116
2021-12-23 17:52:48.843189,-109
2021-12-23 17:52:48.843196,-102
2021-12-23 17:52:48.843202,-99
2021-12-23 17:52:48.843209,-97
2021-12-23 17:52:48.843215,-95
2021-12-23 17:52:48.843221,-97
2021-12-23 17:52:48.843228,-83
2021-12-23 17:52:48.843234,-71
2021-12-23 17:52:48.843240,-78
2021-12-23 17:52:48.843247,-80
2021-12-23 17:52:48.843285,-76
2021-12-23 17:52:48.843291,-76
2021-12-23 17:52:48.843297,-73
2021-12-23 17:52:48.843304,-71
2021-12-23 17:52:48.843310,-66
2021-12-23 17:52:48.843317,-73
2021-12-23 17:52:49.068683,-76
2021-12-23 17:52:49.068705,-49
2021-12-23 17:52:49.068713,-35
2021-12-23 17:52:49.068720,-57
2021-12-23 17:52:49.068726,-66
2021-12-23 17:52:49.068732,-54
2021-12-23 17:52:49.068739,-47
2021-12-23 17:52:49.068745,-38
2021-12-23 17:52:49.068751,-30
2021-12-23 17:52:49.068758,-38
2021-12-23 17:52:49.068764,-47
2021-12-23 17:52:49.068770,-40
2021-12-23 17:52:49.068776,-33
2021-12-23 17:52:49.068783,-30
2021-12-23 17:52:49.068789,-26
2021-12-23 17:52:49.068796,-28
2021-12-23 17:52:49.068802,-21
2021-12-23 17:52:49.068808,-26
2021-12-23 17:52:49.068814,-35
2021-12-23 17:52:49.068821,2
2021-12-23 17:52:49.068827,26
2021-12-23 17:52:49.068834,0
2021-12-23 17:52:49.068840,-4
2021-12-23 17:52:49.068846,9
2021-12-23 17:52:49.068852,9
2021-12-23 17:52:49.068859,9
2021-12-23 17:52:49.068865,9
2021-12-23 17:52:49.068871,9
2021-12-23 17:52:49.068878,19
2021-12-23 17:52:49.068884,28
2021-12-23 17:52:49.294643,33
2021-12-23 17:52:49.294674,23
2021-12-23 17:52:49.294686,23
2021-12-23 17:52:49.294696,61
2021-12-23 17:52:49.294706,78
2021-12-23 17:52:49.294716,61
2021-12-23 17:52:49.294725,76
2021-12-23 17:52:49.294735,85
2021-12-23 17:52:49.294744,45
2021-12-23 17:52:49.294754,14
2021-12-23 17:52:49.294763,23
2021-12-23 17:52:49.294773,38
2021-12-23 17:52:49.294782,38
2021-12-23 17:52:49.294792,33
2021-12-23 17:52:49.294801,33
2021-12-23 17:52:49.294811,28
2021-12-23 17:52:49.294820,21
2021-12-23 17:52:49.294830,19
2021-12-23 17:52:49.294839,9
2021-12-23 17:52:49.294849,21
2021-12-23 17:52:49.294859,278
2021-12-23 17:52:49.294868,981
2021-12-23 17:52:49.294878,1884
2021-12-23 17:52:49.294888,2316
2021-12-23 17:52:49.294897,1627
2021-12-23 17:52:49.294907,109
2021-12-23 17:52:49.294916,-577
2021-12-23 17:52:49.294926,-42
2021-12-23 17:52:49.294936,152
2021-12-23 17:52:49.294945,-140
2021-12-23 17:52:49.518971,-87
2021-12-23 17:52:49.518991,30
2021-12-23 17:52:49.518999,-47
2021-12-23 17:52:49.519006,-54
2021-12-23 17:52:49.519013,2
2021-12-23 17:52:49.519019,-11
2021-12-23 17:52:49.519025,-11
2021-12-23 17:52:49.519032,45
2021-12-23 17:52:49.519038,68
2021-12-23 17:52:49.519044,59
2021-12-23 17:52:49.519050,83
2021-12-23 17:52:49.519057,123
2021-12-23 17:52:49.519063,152
2021-12-23 17:52:49.519069,171
2021-12-23 17:52:49.519076,190
2021-12-23 17:52:49.519082,237
2021-12-23 17:52:49.519088,287
2021-12-23 17:52:49.519094,320
2021-12-23 17:52:49.519101,370
2021-12-23 17:52:49.519107,427
2021-12-23 17:52:49.519113,453
2021-12-23 17:52:49.519120,472
2021-12-23 17:52:49.519126,499
2021-12-23 17:52:49.519136,506
2021-12-23 17:52:49.519142,477
2021-12-23 17:52:49.519149,422
2021-12-23 17:52:49.519155,337
2021-12-23 17:52:49.519161,225
2021-12-23 17:52:49.519168,109
2021-12-23 17:52:49.519174,16
2021-12-23 17:52:49.743611,-49
2021-12-23 17:52:49.743633,-133
2021-12-23 17:52:49.743641,-201
2021-12-23 17:52:49.743648,-220
2021-12-23 17:52:49.743654,-228
2021-12-23 17:52:49.743660,-249
2021-12-23 17:52:49.743667,-256
2021-12-23 17:52:49.743673,-237
2021-12-23 17:52:49.743679,-228
2021-12-23 17:52:49.743685,-232
2021-12-23 17:52:49.743692,-218
2021-12-23 17:52:49.743698,-201
2021-12-23 17:52:49.743705,-206
2021-12-23 17:52:49.743711,-199
2021-12-23 17:52:49.743717,-185
2021-12-23 17:52:49.743723,-180
2021-12-23 17:52:49.743730,-161
2021-12-23 17:52:49.743736,-133
2021-12-23 17:52:49.743742,-123
2021-12-23 17:52:49.743748,-125
2021-12-23 17:52:49.743755,-128
2021-12-23 17:52:49.743761,-118
2021-12-23 17:52:49.743767,-109
2021-12-23 17:52:49.743773,-114
2021-12-23 17:52:49.743780,-111
2021-12-23 17:52:49.743786,-97
2021-12-23 17:52:49.743792,-90
2021-12-23 17:52:49.743798,-90
2021-12-23 17:52:49.743805,-76
2021-12-23 17:52:49.743811,-68
2021-12-23 17:52:50.013963,-76
2021-12-23 17:52:50.013985,-83
2021-12-23 17:52:50.013993,-78
2021-12-23 17:52:50.014000,-85
2021-12-23 17:52:50.014006,-90
2021-12-23 17:52:50.014012,-66
2021-12-23 17:52:50.014019,-45
2021-12-23 17:52:50.014025,-57
2021-12-23 17:52:50.014031,-71
2021-12-23 17:52:50.014038,-57
2021-12-23 17:52:50.014050,-42
2021-12-23 17:52:50.014056,-47
2021-12-23 17:52:50.014077,-57
2021-12-23 17:52:50.014082,-61
2021-12-23 17:52:50.014087,-59
2021-12-23 17:52:50.014092,-45
2021-12-23 17:52:50.014097,-28
2021-12-23 17:52:50.014102,-21
2021-12-23 17:52:50.014107,-26
2021-12-23 17:52:50.014112,-30
2021-12-23 17:52:50.014117,-30
2021-12-23 17:52:50.014122,-23
2021-12-23 17:52:50.014127,-19
2021-12-23 17:52:50.014132,-21
2021-12-23 17:52:50.014137,-28
2021-12-23 17:52:50.014142,-19
2021-12-23 17:52:50.014147,-7
2021-12-23 17:52:50.014152,-9
2021-12-23 17:52:50.014158,-2
2021-12-23 17:52:50.014163,14
2021-12-23 17:52:50.149915,7
2021-12-23 17:52:50.149946,0
2021-12-23 17:52:50.149958,16
2021-12-23 17:52:50.149969,26
2021-12-23 17:52:50.149979,21
2021-12-23 17:52:50.149988,21
2021-12-23 17:52:50.149998,19
2021-12-23 17:52:50.150008,7
2021-12-23 17:52:50.150017,7
2021-12-23 17:52:50.150027,11
2021-12-23 17:52:50.150037,11
2021-12-23 17:52:50.150046,26
2021-12-23 17:52:50.150056,42
2021-12-23 17:52:50.150066,45
2021-12-23 17:52:50.150075,45
2021-12-23 17:52:50.150085,47
2021-12-23 17:52:50.150094,28
2021-12-23 17:52:50.150104,9
2021-12-23 17:52:50.150114,19
2021-12-23 17:52:50.150123,33
2021-12-23 17:52:50.150133,38
2021-12-23 17:52:50.150143,42
2021-12-23 17:52:50.150152,35
2021-12-23 17:52:50.150162,7
2021-12-23 17:52:50.150172,-11
2021-12-23 17:52:50.150181,116
2021-12-23 17:52:50.150191,624
2021-12-23 17:52:50.150201,1530
2021-12-23 17:52:50.150210,2328
2021-12-23 17:52:50.150220,2205
2021-12-23 17:52:50.374099,803
2021-12-23 17:52:50.374118,-532
2021-12-23 17:52:50.374126,-354
2021-12-23 17:52:50.374133,185
2021-12-23 17:52:50.374139,-33
2021-12-23 17:52:50.374145,-180
2021-12-23 17:52:50.374152,-14
2021-12-23 17:52:50.374158,-21
2021-12-23 17:52:50.374164,-83
2021-12-23 17:52:50.374171,-28
2021-12-23 17:52:50.374177,-4
2021-12-23 17:52:50.374183,-21
2021-12-23 17:52:50.374190,14
2021-12-23 17:52:50.374196,54
2021-12-23 17:52:50.374202,52
2021-12-23 17:52:50.374209,68
2021-12-23 17:52:50.374215,111
2021-12-23 17:52:50.374221,135
2021-12-23 17:52:50.374229,149
2021-12-23 17:52:50.374240,194
2021-12-23 17:52:50.374252,251
2021-12-23 17:52:50.374259,282
2021-12-23 17:52:50.374266,308
2021-12-23 17:52:50.374272,358
2021-12-23 17:52:50.374279,411
2021-12-23 17:52:50.374285,451
2021-12-23 17:52:50.374291,484
2021-12-23 17:52:50.374298,513
2021-12-23 17:52:50.374304,522
2021-12-23 17:52:50.374310,510
2021-12-23 17:52:50.644011,475
2021-12-23 17:52:50.644043,403
2021-12-23 17:52:50.644055,297
2021-12-23 17:52:50.644065,173
2021-12-23 17:52:50.644075,59
2021-12-23 17:52:50.644084,-35
2021-12-23 17:52:50.644094,-121
2021-12-23 17:52:50.644104,-187
2021-12-23 17:52:50.644114,-220
2021-12-23 17:52:50.644123,-242
2021-12-23 17:52:50.644133,-270
2021-12-23 17:52:50.644143,-285
2021-12-23 17:52:50.644153,-275
2021-12-23 17:52:50.644162,-254
2021-12-23 17:52:50.644172,-244
2021-12-23 17:52:50.644182,-247
2021-12-23 17:52:50.644191,-242
2021-12-23 17:52:50.644201,-223
2021-12-23 17:52:50.644211,-206
2021-12-23 17:52:50.644220,-199
2021-12-23 17:52:50.644230,-197
2021-12-23 17:52:50.644240,-182
2021-12-23 17:52:50.644249,-159
2021-12-23 17:52:50.644259,-147
2021-12-23 17:52:50.644269,-142
2021-12-23 17:52:50.644278,-130
2021-12-23 17:52:50.644288,-121
2021-12-23 17:52:50.644298,-114
2021-12-23 17:52:50.644308,-106
2021-12-23 17:52:50.644317,-97
2021-12-23 17:52:50.913142,-104
2021-12-23 17:52:50.913164,-116
2021-12-23 17:52:50.913172,-111
2021-12-23 17:52:50.913195,-109
2021-12-23 17:52:50.913206,-109
2021-12-23 17:52:50.913215,-99
2021-12-23 17:52:50.913225,-97
2021-12-23 17:52:50.913235,-95
2021-12-23 17:52:50.913244,-83
2021-12-23 17:52:50.913254,-83
2021-12-23 17:52:50.913264,-92
2021-12-23 17:52:50.913273,-90
2021-12-23 17:52:50.913283,-80
2021-12-23 17:52:50.913293,-80
2021-12-23 17:52:50.913302,-87
2021-12-23 17:52:50.913312,-80
2021-12-23 17:52:50.913322,-64
2021-12-23 17:52:50.913350,-61
2021-12-23 17:52:50.913359,-78
2021-12-23 17:52:50.913369,-76
2021-12-23 17:52:50.913379,-49
2021-12-23 17:52:50.913389,-45
2021-12-23 17:52:50.913398,-61
2021-12-23 17:52:50.913408,-59
2021-12-23 17:52:50.913417,-49
2021-12-23 17:52:50.913427,-45
2021-12-23 17:52:50.913436,-30
2021-12-23 17:52:50.913446,-26
2021-12-23 17:52:50.913456,-33
2021-12-23 17:52:50.913465,-28
2021-12-23 17:52:51.094573,-23
2021-12-23 17:52:51.094605,-35
2021-12-23 17:52:51.094617,-33
2021-12-23 17:52:51.094627,-21
2021-12-23 17:52:51.094637,-26
2021-12-23 17:52:51.094646,-16
2021-12-23 17:52:51.094656,-2
2021-12-23 17:52:51.094666,-11
2021-12-23 17:52:51.094676,-16
2021-12-23 17:52:51.094685,-14
2021-12-23 17:52:51.094695,-16
2021-12-23 17:52:51.094705,-7
2021-12-23 17:52:51.094714,4
2021-12-23 17:52:51.094724,-4
2021-12-23 17:52:51.094734,-2
2021-12-23 17:52:51.094744,14
2021-12-23 17:52:51.094754,21
2021-12-23 17:52:51.094764,30
2021-12-23 17:52:51.094773,42
2021-12-23 17:52:51.094783,21
2021-12-23 17:52:51.094793,-7
2021-12-23 17:52:51.094803,7
2021-12-23 17:52:51.094812,26
2021-12-23 17:52:51.094822,7
2021-12-23 17:52:51.094832,2
2021-12-23 17:52:51.094841,33
2021-12-23 17:52:51.094851,42
2021-12-23 17:52:51.094861,0
2021-12-23 17:52:51.094870,-11
2021-12-23 17:52:51.094880,249
2021-12-23 17:52:51.319781,969
2021-12-23 17:52:51.319812,1924
2021-12-23 17:52:51.319824,2459
2021-12-23 17:52:51.319834,1817
2021-12-23 17:52:51.319843,182
2021-12-23 17:52:51.319853,-653
2021-12-23 17:52:51.319863,-80
2021-12-23 17:52:51.319873,194
2021-12-23 17:52:51.319882,-140
2021-12-23 17:52:51.319892,-123
2021-12-23 17:52:51.319901,21
2021-12-23 17:52:51.319911,-57
2021-12-23 17:52:51.319921,-76
2021-12-23 17:52:51.319930,4
2021-12-23 17:52:51.319940,21
2021-12-23 17:52:51.319950,16
2021-12-23 17:52:51.319959,35
2021-12-23 17:52:51.319969,49
2021-12-23 17:52:51.319979,71
2021-12-23 17:52:51.319988,106
2021-12-23 17:52:51.319998,128
2021-12-23 17:52:51.320007,147
2021-12-23 17:52:51.320017,182
2021-12-23 17:52:51.320027,220
2021-12-23 17:52:51.320036,256
2021-12-23 17:52:51.320046,299
2021-12-23 17:52:51.320055,342
2021-12-23 17:52:51.320065,384
2021-12-23 17:52:51.320074,432
2021-12-23 17:52:51.320084,477
2021-12-23 17:52:51.544011,501
2021-12-23 17:52:51.544031,518
2021-12-23 17:52:51.544039,527
2021-12-23 17:52:51.544046,503
2021-12-23 17:52:51.544052,446
2021-12-23 17:52:51.544059,358
2021-12-23 17:52:51.544065,242
2021-12-23 17:52:51.544071,118
2021-12-23 17:52:51.544078,7
2021-12-23 17:52:51.544084,-83
2021-12-23 17:52:51.544091,-154
2021-12-23 17:52:51.544097,-204
2021-12-23 17:52:51.544103,-237
2021-12-23 17:52:51.544110,-259
2021-12-23 17:52:51.544116,-266
2021-12-23 17:52:51.544122,-261
2021-12-23 17:52:51.544129,-256
2021-12-23 17:52:51.544139,-254
2021-12-23 17:52:51.544146,-244
2021-12-23 17:52:51.544152,-230
2021-12-23 17:52:51.544159,-220
2021-12-23 17:52:51.544165,-216
2021-12-23 17:52:51.544172,-197
2021-12-23 17:52:51.544178,-175
2021-12-23 17:52:51.544184,-178
2021-12-23 17:52:51.544191,-178
2021-12-23 17:52:51.544197,-152
2021-12-23 17:52:51.544203,-133
2021-12-23 17:52:51.544210,-130
2021-12-23 17:52:51.544216,-123
2021-12-23 17:52:51.904008,-114
2021-12-23 17:52:51.904028,-104
2021-12-23 17:52:51.904036,-97
2021-12-23 17:52:51.904043,-90
2021-12-23 17:52:51.904049,-85
2021-12-23 17:52:51.904056,-85
2021-12-23 17:52:51.904062,-83
2021-12-23 17:52:51.904068,-83
2021-12-23 17:52:51.904075,-83
2021-12-23 17:52:51.904081,-80
2021-12-23 17:52:51.904087,-78
2021-12-23 17:52:51.904094,-71
2021-12-23 17:52:51.904100,-64
2021-12-23 17:52:51.904106,-73
2021-12-23 17:52:51.904112,-78
2021-12-23 17:52:51.904119,-68
2021-12-23 17:52:51.904125,-61
2021-12-23 17:52:51.904131,-57
2021-12-23 17:52:51.904137,-52
2021-12-23 17:52:51.904144,-45
2021-12-23 17:52:51.904150,-35
2021-12-23 17:52:51.904156,-30
2021-12-23 17:52:51.904163,-28
2021-12-23 17:52:51.904169,-21
2021-12-23 17:52:51.904175,-11
2021-12-23 17:52:51.904181,-7
2021-12-23 17:52:51.904188,-14
2021-12-23 17:52:51.904194,-11
2021-12-23 17:52:51.904200,-7
2021-12-23 17:52:51.904206,0
2021-12-23 17:52:51.994569,4
2021-12-23 17:52:51.994600,7
2021-12-23 17:52:51.994612,7
2021-12-23 17:52:51.994622,9
2021-12-23 17:52:51.994632,19
2021-12-23 17:52:51.994641,23
2021-12-23 17:52:51.994651,19
2021-12-23 17:52:51.994661,14
2021-12-23 17:52:51.994670,16
2021-12-23 17:52:51.994680,16
2021-12-23 17:52:51.994690,26
2021-12-23 17:52:51.994699,30
2021-12-23 17:52:51.994709,26
2021-12-23 17:52:51.994719,23
2021-12-23 17:52:51.994728,23
2021-12-23 17:52:51.994738,23
2021-12-23 17:52:51.994748,21
2021-12-23 17:52:51.994758,21
2021-12-23 17:52:51.994767,21
2021-12-23 17:52:51.994777,33
2021-12-23 17:52:51.994787,42
2021-12-23 17:52:51.994796,35
2021-12-23 17:52:51.994806,38
2021-12-23 17:52:51.994816,52
2021-12-23 17:52:51.994825,35
2021-12-23 17:52:51.994835,16
2021-12-23 17:52:51.994845,23
2021-12-23 17:52:51.994855,33
2021-12-23 17:52:51.994864,33
2021-12-23 17:52:51.994874,35
2021-12-23 17:52:52.219558,35
2021-12-23 17:52:52.219579,28
2021-12-23 17:52:52.219587,4
2021-12-23 17:52:52.219594,49
2021-12-23 17:52:52.219600,422
2021-12-23 17:52:52.219606,1257
2021-12-23 17:52:52.219613,2152
2021-12-23 17:52:52.219619,2359
2021-12-23 17:52:52.219625,1321
2021-12-23 17:52:52.219632,-204
2021-12-23 17:52:52.219638,-499
2021-12-23 17:52:52.219645,102
2021-12-23 17:52:52.219651,73
2021-12-23 17:52:52.219657,-190
2021-12-23 17:52:52.219664,-57
2021-12-23 17:52:52.219670,2
2021-12-23 17:52:52.219677,-87
2021-12-23 17:52:52.219683,-54
2021-12-23 17:52:52.219690,4
2021-12-23 17:52:52.219696,-9
2021-12-23 17:52:52.219702,4
2021-12-23 17:52:52.219709,47
2021-12-23 17:52:52.219716,57
2021-12-23 17:52:52.219723,64
2021-12-23 17:52:52.219729,104
2021-12-23 17:52:52.219736,140
2021-12-23 17:52:52.219742,159
2021-12-23 17:52:52.219749,187
2021-12-23 17:52:52.219756,230
2021-12-23 17:52:52.219762,263
2021-12-23 17:52:52.444588,297
2021-12-23 17:52:52.444618,342
2021-12-23 17:52:52.444630,384
2021-12-23 17:52:52.444640,425
2021-12-23 17:52:52.444649,453
2021-12-23 17:52:52.444659,477
2021-12-23 17:52:52.444669,494
2021-12-23 17:52:52.444678,496
2021-12-23 17:52:52.444688,468
2021-12-23 17:52:52.444698,411
2021-12-23 17:52:52.444707,318
2021-12-23 17:52:52.444717,204
2021-12-23 17:52:52.444727,92
2021-12-23 17:52:52.444736,-7
2021-12-23 17:52:52.444746,-90
2021-12-23 17:52:52.444755,-154
2021-12-23 17:52:52.444765,-204
2021-12-23 17:52:52.444775,-235
2021-12-23 17:52:52.444784,-256
2021-12-23 17:52:52.444794,-261
2021-12-23 17:52:52.444804,-254
2021-12-23 17:52:52.444813,-249
2021-12-23 17:52:52.444823,-242
2021-12-23 17:52:52.444832,-223
2021-12-23 17:52:52.444842,-213
2021-12-23 17:52:52.444852,-206
2021-12-23 17:52:52.444861,-187
2021-12-23 17:52:52.444871,-171
2021-12-23 17:52:52.444880,-163
2021-12-23 17:52:52.444890,-154
2021-12-23 17:52:52.669605,-142
2021-12-23 17:52:52.669626,-130
2021-12-23 17:52:52.669662,-128
2021-12-23 17:52:52.669685,-128
2021-12-23 17:52:52.669693,-116
2021-12-23 17:52:52.669700,-104
2021-12-23 17:52:52.669706,-106
2021-12-23 17:52:52.669712,-109
2021-12-23 17:52:52.669720,-95
2021-12-23 17:52:52.669748,-92
2021-12-23 17:52:52.669759,-99
2021-12-23 17:52:52.669766,-90
2021-12-23 17:52:52.669773,-80
2021-12-23 17:52:52.669779,-78
2021-12-23 17:52:52.669785,-78
2021-12-23 17:52:52.669791,-76
2021-12-23 17:52:52.669798,-73
2021-12-23 17:52:52.669804,-66
2021-12-23 17:52:52.669810,-66
2021-12-23 17:52:52.669817,-66
2021-12-23 17:52:52.669823,-57
2021-12-23 17:52:52.669829,-49
2021-12-23 17:52:52.669836,-49
2021-12-23 17:52:52.669842,-45
2021-12-23 17:52:52.669848,-42
2021-12-23 17:52:52.669854,-40
2021-12-23 17:52:52.669861,-40
2021-12-23 17:52:52.669867,-45
2021-12-23 17:52:52.669873,-33
2021-12-23 17:52:52.669880,-19
2021-12-23 17:52:52.983458,-23
2021-12-23 17:52:52.983489,-23
2021-12-23 17:52:52.983501,-14
2021-12-23 17:52:52.983511,-16
2021-12-23 17:52:52.983521,-23
2021-12-23 17:52:52.983530,-16
2021-12-23 17:52:52.983540,-4
2021-12-23 17:52:52.983550,-2
2021-12-23 17:52:52.983560,-2
2021-12-23 17:52:52.983570,0
2021-12-23 17:52:52.983580,4
2021-12-23 17:52:52.983589,7
2021-12-23 17:52:52.983599,4
2021-12-23 17:52:52.983609,14
2021-12-23 17:52:52.983619,21
2021-12-23 17:52:52.983628,19
2021-12-23 17:52:52.983638,19
2021-12-23 17:52:52.983648,28
2021-12-23 17:52:52.983658,30
2021-12-23 17:52:52.983668,28
2021-12-23 17:52:52.983677,26
2021-12-23 17:52:52.983687,28
2021-12-23 17:52:52.983697,33
2021-12-23 17:52:52.983707,33
2021-12-23 17:52:52.983716,33
2021-12-23 17:52:52.983726,40
2021-12-23 17:52:52.983736,47
2021-12-23 17:52:52.983746,47
2021-12-23 17:52:52.983755,40
2021-12-23 17:52:52.983765,26
2021-12-23 17:52:53.209600,21
2021-12-23 17:52:53.209630,28
2021-12-23 17:52:53.209642,38
2021-12-23 17:52:53.209652,40
2021-12-23 17:52:53.209662,45
2021-12-23 17:52:53.209672,38
2021-12-23 17:52:53.209682,14
2021-12-23 17:52:53.209691,2
2021-12-23 17:52:53.209701,161
2021-12-23 17:52:53.209711,734
2021-12-23 17:52:53.209720,1651
2021-12-23 17:52:53.209730,2321
2021-12-23 17:52:53.209740,1991
2021-12-23 17:52:53.209750,544
2021-12-23 17:52:53.209759,-551
2021-12-23 17:52:53.209769,-228
2021-12-23 17:52:53.209779,178
2021-12-23 17:52:53.209789,-90
2021-12-23 17:52:53.209798,-159
2021-12-23 17:52:53.209808,-4
2021-12-23 17:52:53.209818,-49
2021-12-23 17:52:53.209827,-92
2021-12-23 17:52:53.209837,-28
2021-12-23 17:52:53.209847,-4
2021-12-23 17:52:53.209856,-9
2021-12-23 17:52:53.209866,16
2021-12-23 17:52:53.209876,35
2021-12-23 17:52:53.209886,52
2021-12-23 17:52:53.209895,90
2021-12-23 17:52:53.209905,118
2021-12-23 17:52:53.389800,135
2021-12-23 17:52:53.389830,166
2021-12-23 17:52:53.389842,204
2021-12-23 17:52:53.389852,240
2021-12-23 17:52:53.389862,280
2021-12-23 17:52:53.389872,323
2021-12-23 17:52:53.389882,365
2021-12-23 17:52:53.389891,408
2021-12-23 17:52:53.389901,449
2021-12-23 17:52:53.389911,475
2021-12-23 17:52:53.389920,494
2021-12-23 17:52:53.389930,506
2021-12-23 17:52:53.389939,494
2021-12-23 17:52:53.389949,451
2021-12-23 17:52:53.389959,377
2021-12-23 17:52:53.389968,278
2021-12-23 17:52:53.389978,163
2021-12-23 17:52:53.389987,57
2021-12-23 17:52:53.389997,-33
2021-12-23 17:52:53.390007,-111
2021-12-23 17:52:53.390016,-175
2021-12-23 17:52:53.390026,-213
2021-12-23 17:52:53.390036,-230
2021-12-23 17:52:53.390045,-237
2021-12-23 17:52:53.390055,-240
2021-12-23 17:52:53.390065,-237
2021-12-23 17:52:53.390074,-237
2021-12-23 17:52:53.390084,-230
2021-12-23 17:52:53.390094,-223
2021-12-23 17:52:53.390103,-213
2021-12-23 17:52:53.659128,-204
2021-12-23 17:52:53.659149,-194
2021-12-23 17:52:53.659155,-182
2021-12-23 17:52:53.659161,-168
2021-12-23 17:52:53.659166,-159
2021-12-23 17:52:53.659171,-147
2021-12-23 17:52:53.659176,-135
2021-12-23 17:52:53.659181,-128
2021-12-23 17:52:53.659186,-125
2021-12-23 17:52:53.659191,-121
2021-12-23 17:52:53.659196,-111
2021-12-23 17:52:53.659201,-109
2021-12-23 17:52:53.659206,-116
2021-12-23 17:52:53.659211,-114
2021-12-23 17:52:53.659216,-102
2021-12-23 17:52:53.659221,-97
2021-12-23 17:52:53.659226,-92
2021-12-23 17:52:53.659231,-87
2021-12-23 17:52:53.659236,-92
2021-12-23 17:52:53.659241,-95
2021-12-23 17:52:53.659246,-87
2021-12-23 17:52:53.659251,-80
2021-12-23 17:52:53.659256,-76
2021-12-23 17:52:53.659261,-73
2021-12-23 17:52:53.659266,-68
2021-12-23 17:52:53.659271,-59
2021-12-23 17:52:53.659276,-52
2021-12-23 17:52:53.659281,-54
2021-12-23 17:52:53.659286,-49
2021-12-23 17:52:53.659291,-35
2021-12-23 17:52:53.929608,-42
2021-12-23 17:52:53.929630,-47
2021-12-23 17:52:53.929638,-35
2021-12-23 17:52:53.929662,-30
2021-12-23 17:52:53.929672,-28
2021-12-23 17:52:53.929681,-19
2021-12-23 17:52:53.929691,-19
2021-12-23 17:52:53.929701,-26
2021-12-23 17:52:53.929711,-23
2021-12-23 17:52:53.929720,-11
2021-12-23 17:52:53.929730,-4
2021-12-23 17:52:53.929740,-4
2021-12-23 17:52:53.929750,-9
2021-12-23 17:52:53.929760,0
2021-12-23 17:52:53.929775,14
2021-12-23 17:52:53.929785,11
2021-12-23 17:52:53.929795,7
2021-12-23 17:52:53.929805,9
2021-12-23 17:52:53.929815,11
2021-12-23 17:52:53.929824,16
2021-12-23 17:52:53.929834,19
2021-12-23 17:52:53.929844,19
2021-12-23 17:52:53.929854,19
2021-12-23 17:52:53.929864,21
2021-12-23 17:52:53.929874,16
2021-12-23 17:52:53.929884,14
2021-12-23 17:52:53.929893,26
2021-12-23 17:52:53.929903,30
2021-12-23 17:52:53.929913,28
2021-12-23 17:52:53.929923,38
2021-12-23 17:52:54.154356,47
2021-12-23 17:52:54.154380,64
2021-12-23 17:52:54.154388,68
2021-12-23 17:52:54.154394,35
2021-12-23 17:52:54.154401,11
2021-12-23 17:52:54.154407,28
2021-12-23 17:52:54.154414,30
2021-12-23 17:52:54.154420,21
2021-12-23 17:52:54.154427,30
2021-12-23 17:52:54.154433,38
2021-12-23 17:52:54.154439,33
2021-12-23 17:52:54.154446,7
2021-12-23 17:52:54.154452,11
2021-12-23 17:52:54.154459,244
2021-12-23 17:52:54.154465,926
2021-12-23 17:52:54.154471,1870
2021-12-23 17:52:54.154478,2409
2021-12-23 17:52:54.154484,1791
2021-12-23 17:52:54.154491,199
2021-12-23 17:52:54.154497,-617
2021-12-23 17:52:54.154503,-85
2021-12-23 17:52:54.154510,166
2021-12-23 17:52:54.154516,-147
2021-12-23 17:52:54.154523,-121
2021-12-23 17:52:54.154529,4
2021-12-23 17:52:54.154536,-76
2021-12-23 17:52:54.154542,-85
2021-12-23 17:52:54.154548,-11
2021-12-23 17:52:54.154555,-9
2021-12-23 17:52:54.154561,-9
2021-12-23 17:52:54.289612,30
2021-12-23 17:52:54.289642,52
2021-12-23 17:52:54.289654,66
2021-12-23 17:52:54.289664,102
2021-12-23 17:52:54.289674,125
2021-12-23 17:52:54.289684,137
2021-12-23 17:52:54.289693,171
2021-12-23 17:52:54.289703,211
2021-12-23 17:52:54.289713,240
2021-12-23 17:52:54.289722,275
2021-12-23 17:52:54.289732,325
2021-12-23 17:52:54.289742,365
2021-12-23 17:52:54.289752,401
2021-12-23 17:52:54.289761,441
2021-12-23 17:52:54.289771,470
2021-12-23 17:52:54.289780,496
2021-12-23 17:52:54.289790,508
2021-12-23 17:52:54.289799,487
2021-12-23 17:52:54.289809,439
2021-12-23 17:52:54.289818,368
2021-12-23 17:52:54.289828,261
2021-12-23 17:52:54.289838,142
2021-12-23 17:52:54.289847,42
2021-12-23 17:52:54.289857,-47
2021-12-23 17:52:54.289867,-128
2021-12-23 17:52:54.289876,-182
2021-12-23 17:52:54.289886,-216
2021-12-23 17:52:54.289895,-240
2021-12-23 17:52:54.289905,-251
2021-12-23 17:52:54.289914,-256
2021-12-23 17:52:54.514618,-249
2021-12-23 17:52:54.514649,-232
2021-12-23 17:52:54.514661,-230
2021-12-23 17:52:54.514671,-230
2021-12-23 17:52:54.514681,-216
2021-12-23 17:52:54.514691,-201
2021-12-23 17:52:54.514700,-185
2021-12-23 17:52:54.514710,-168
2021-12-23 17:52:54.514719,-166
2021-12-23 17:52:54.514729,-166
2021-12-23 17:52:54.514739,-161
2021-12-23 17:52:54.514748,-149
2021-12-23 17:52:54.514758,-133
2021-12-23 17:52:54.514768,-125
2021-12-23 17:52:54.514777,-123
2021-12-23 17:52:54.514787,-121
2021-12-23 17:52:54.514796,-116
2021-12-23 17:52:54.514806,-109
2021-12-23 17:52:54.514816,-106
2021-12-23 17:52:54.514825,-106
2021-12-23 17:52:54.514835,-106
2021-12-23 17:52:54.514845,-102
2021-12-23 17:52:54.514854,-99
2021-12-23 17:52:54.514864,-97
2021-12-23 17:52:54.514873,-92
2021-12-23 17:52:54.514883,-87
2021-12-23 17:52:54.514893,-83
2021-12-23 17:52:54.514903,-73
2021-12-23 17:52:54.514912,-71
2021-12-23 17:52:54.514922,-80
2021-12-23 17:52:54.784649,-80
2021-12-23 17:52:54.784680,-61
2021-12-23 17:52:54.784692,-54
2021-12-23 17:52:54.784702,-64
2021-12-23 17:52:54.784712,-61
2021-12-23 17:52:54.784722,-42
2021-12-23 17:52:54.784731,-38
2021-12-23 17:52:54.784741,-40
2021-12-23 17:52:54.784751,-30
2021-12-23 17:52:54.784761,-33
2021-12-23 17:52:54.784770,-45
2021-12-23 17:52:54.784780,-38
2021-12-23 17:52:54.784790,-16
2021-12-23 17:52:54.784800,-14
2021-12-23 17:52:54.784809,-19
2021-12-23 17:52:54.784819,-9
2021-12-23 17:52:54.784829,-2
2021-12-23 17:52:54.784838,-7
2021-12-23 17:52:54.784848,0
2021-12-23 17:52:54.784858,11
2021-12-23 17:52:54.784868,16
2021-12-23 17:52:54.784878,11
2021-12-23 17:52:54.784887,2
2021-12-23 17:52:54.784897,4
2021-12-23 17:52:54.784907,21
2021-12-23 17:52:54.784917,30
2021-12-23 17:52:54.784927,21
2021-12-23 17:52:54.784936,16
2021-12-23 17:52:54.784946,28
2021-12-23 17:52:54.784956,30
2021-12-23 17:52:55.053334,26
2021-12-23 17:52:55.053366,28
2021-12-23 17:52:55.053378,28
2021-12-23 17:52:55.053388,26
2021-12-23 17:52:55.053398,40
2021-12-23 17:52:55.053408,49
2021-12-23 17:52:55.053417,57
2021-12-23 17:52:55.053427,61
2021-12-23 17:52:55.053437,47
2021-12-23 17:52:55.053447,26
2021-12-23 17:52:55.053456,33
2021-12-23 17:52:55.053466,45
2021-12-23 17:52:55.053476,40
2021-12-23 17:52:55.053486,38
2021-12-23 17:52:55.053496,40
2021-12-23 17:52:55.053506,28
2021-12-23 17:52:55.053516,0
2021-12-23 17:52:55.053526,-4
2021-12-23 17:52:55.053536,171
2021-12-23 17:52:55.053546,765
2021-12-23 17:52:55.053556,1718
2021-12-23 17:52:55.053566,2433
2021-12-23 17:52:55.053575,2103
2021-12-23 17:52:55.053585,558
2021-12-23 17:52:55.053595,-615
2021-12-23 17:52:55.053605,-249
2021-12-23 17:52:55.053615,187
2021-12-23 17:52:55.053625,-106
2021-12-23 17:52:55.053635,-178
2021-12-23 17:52:55.053645,-9
2021-12-23 17:52:55.234624,-49
2021-12-23 17:52:55.234654,-85
2021-12-23 17:52:55.234665,-19
2021-12-23 17:52:55.234676,-9
2021-12-23 17:52:55.234686,-16
2021-12-23 17:52:55.234695,16
2021-12-23 17:52:55.234705,45
2021-12-23 17:52:55.234715,59
2021-12-23 17:52:55.234725,78
2021-12-23 17:52:55.234734,106
2021-12-23 17:52:55.234744,135
2021-12-23 17:52:55.234754,159
2021-12-23 17:52:55.234763,187
2021-12-23 17:52:55.234773,228
2021-12-23 17:52:55.234783,266
2021-12-23 17:52:55.234792,301
2021-12-23 17:52:55.234802,346
2021-12-23 17:52:55.234812,396
2021-12-23 17:52:55.234821,439
2021-12-23 17:52:55.234831,465
2021-12-23 17:52:55.234840,477
2021-12-23 17:52:55.234850,487
2021-12-23 17:52:55.234860,484
2021-12-23 17:52:55.234869,451
2021-12-23 17:52:55.234879,382
2021-12-23 17:52:55.234888,280
2021-12-23 17:52:55.234898,173
2021-12-23 17:52:55.234908,76
2021-12-23 17:52:55.234917,-19
2021-12-23 17:52:55.234927,-99
2021-12-23 17:52:55.503282,-152
2021-12-23 17:52:55.503298,-187
2021-12-23 17:52:55.503304,-220
2021-12-23 17:52:55.503310,-232
2021-12-23 17:52:55.503315,-230
2021-12-23 17:52:55.503320,-230
2021-12-23 17:52:55.503325,-223
2021-12-23 17:52:55.503330,-216
2021-12-23 17:52:55.503335,-206
2021-12-23 17:52:55.503340,-194
2021-12-23 17:52:55.503345,-175
2021-12-23 17:52:55.503350,-166
2021-12-23 17:52:55.503355,-163
2021-12-23 17:52:55.503361,-159
2021-12-23 17:52:55.503366,-140
2021-12-23 17:52:55.503373,-123
2021-12-23 17:52:55.503378,-121
2021-12-23 17:52:55.503383,-118
2021-12-23 17:52:55.503388,-104
2021-12-23 17:52:55.503394,-97
2021-12-23 17:52:55.503399,-102
2021-12-23 17:52:55.503404,-104
2021-12-23 17:52:55.503409,-99
2021-12-23 17:52:55.503414,-85
2021-12-23 17:52:55.503419,-80
2021-12-23 17:52:55.503424,-90
2021-12-23 17:52:55.503429,-92
2021-12-23 17:52:55.503434,-87
2021-12-23 17:52:55.503439,-87
2021-12-23 17:52:55.503444,-85
2021-12-23 17:52:55.728736,-80
2021-12-23 17:52:55.728758,-80
2021-12-23 17:52:55.728765,-76
2021-12-23 17:52:55.728772,-71
2021-12-23 17:52:55.728778,-64
2021-12-23 17:52:55.728784,-61
2021-12-23 17:52:55.728791,-61
2021-12-23 17:52:55.728797,-57
2021-12-23 17:52:55.728803,-52
2021-12-23 17:52:55.728809,-42
2021-12-23 17:52:55.728816,-33
2021-12-23 17:52:55.728822,-40
2021-12-23 17:52:55.728828,-49
2021-12-23 17:52:55.728835,-38
2021-12-23 17:52:55.728841,-19
2021-12-23 17:52:55.728847,-21
2021-12-23 17:52:55.728853,-28
2021-12-23 17:52:55.728860,-21
2021-12-23 17:52:55.728866,-14
2021-12-23 17:52:55.728872,-14
2021-12-23 17:52:55.728878,-11
2021-12-23 17:52:55.728885,-9
2021-12-23 17:52:55.728891,2
2021-12-23 17:52:55.728897,9
2021-12-23 17:52:55.728904,4
2021-12-23 17:52:55.728910,7
2021-12-23 17:52:55.728916,14
2021-12-23 17:52:55.728922,9
2021-12-23 17:52:55.728929,2
2021-12-23 17:52:55.728935,9
2021-12-23 17:52:55.954032,14
2021-12-23 17:52:55.954054,16
2021-12-23 17:52:55.954061,21
2021-12-23 17:52:55.954068,26
2021-12-23 17:52:55.954074,26
2021-12-23 17:52:55.954081,26
2021-12-23 17:52:55.954087,28
2021-12-23 17:52:55.954094,26
2021-12-23 17:52:55.954100,14
2021-12-23 17:52:55.954106,11
2021-12-23 17:52:55.954113,23
2021-12-23 17:52:55.954119,35
2021-12-23 17:52:55.954126,35
2021-12-23 17:52:55.954132,42
2021-12-23 17:52:55.954138,59
2021-12-23 17:52:55.954144,49
2021-12-23 17:52:55.954151,23
2021-12-23 17:52:55.954157,23
2021-12-23 17:52:55.954163,38
2021-12-23 17:52:55.954170,40
2021-12-23 17:52:55.954176,40
2021-12-23 17:52:55.954183,49
2021-12-23 17:52:55.954189,45
2021-12-23 17:52:55.954195,26
2021-12-23 17:52:55.954202,0
2021-12-23 17:52:55.954208,59
2021-12-23 17:52:55.954214,449
2021-12-23 17:52:55.954221,1276
2021-12-23 17:52:55.954227,2126
2021-12-23 17:52:55.954233,2288
2021-12-23 17:52:56.178883,1240
2021-12-23 17:52:56.178903,-230
2021-12-23 17:52:56.178911,-463
2021-12-23 17:52:56.178917,123
2021-12-23 17:52:56.178924,52
2021-12-23 17:52:56.178930,-211
2021-12-23 17:52:56.178936,-68
2021-12-23 17:52:56.178943,-14
2021-12-23 17:52:56.178949,-97
2021-12-23 17:52:56.178955,-54
2021-12-23 17:52:56.178962,-11
2021-12-23 17:52:56.178968,-28
2021-12-23 17:52:56.178974,0
2021-12-23 17:52:56.178981,30
2021-12-23 17:52:56.178987,33
2021-12-23 17:52:56.178993,54
2021-12-23 17:52:56.179000,92
2021-12-23 17:52:56.179006,118
2021-12-23 17:52:56.179012,142
2021-12-23 17:52:56.179019,175
2021-12-23 17:52:56.179025,209
2021-12-23 17:52:56.179031,242
2021-12-23 17:52:56.179038,278
2021-12-23 17:52:56.179044,323
2021-12-23 17:52:56.179050,361
2021-12-23 17:52:56.179057,389
2021-12-23 17:52:56.179063,430
2021-12-23 17:52:56.179069,470
2021-12-23 17:52:56.179075,480
2021-12-23 17:52:56.179082,475
2021-12-23 17:52:56.359627,461
2021-12-23 17:52:56.359658,415
2021-12-23 17:52:56.359670,332
2021-12-23 17:52:56.359680,225
2021-12-23 17:52:56.359690,109
2021-12-23 17:52:56.359699,7
2021-12-23 17:52:56.359709,-71
2021-12-23 17:52:56.359719,-128
2021-12-23 17:52:56.359728,-173
2021-12-23 17:52:56.359738,-206
2021-12-23 17:52:56.359747,-228
2021-12-23 17:52:56.359757,-232
2021-12-23 17:52:56.359767,-228
2021-12-23 17:52:56.359776,-216
2021-12-23 17:52:56.359786,-204
2021-12-23 17:52:56.359795,-206
2021-12-23 17:52:56.359805,-204
2021-12-23 17:52:56.359815,-185
2021-12-23 17:52:56.359824,-168
2021-12-23 17:52:56.359839,-159
2021-12-23 17:52:56.359849,-154
2021-12-23 17:52:56.359858,-144
2021-12-23 17:52:56.359868,-133
2021-12-23 17:52:56.359877,-118
2021-12-23 17:52:56.359887,-106
2021-12-23 17:52:56.359896,-104
2021-12-23 17:52:56.359906,-99
2021-12-23 17:52:56.359915,-95
2021-12-23 17:52:56.359925,-92
2021-12-23 17:52:56.359934,-85
2021-12-23 17:52:56.629464,-80
2021-12-23 17:52:56.629485,-85
2021-12-23 17:52:56.629493,-90
2021-12-23 17:52:56.629500,-92
2021-12-23 17:52:56.629506,-90
2021-12-23 17:52:56.629513,-90
2021-12-23 17:52:56.629521,-92
2021-12-23 17:52:56.629527,-87
2021-12-23 17:52:56.629534,-87
2021-12-23 17:52:56.629540,-92
2021-12-23 17:52:56.629546,-87
2021-12-23 17:52:56.629553,-76
2021-12-23 17:52:56.629560,-68
2021-12-23 17:52:56.629567,-68
2021-12-23 17:52:56.629573,-64
2021-12-23 17:52:56.629580,-61
2021-12-23 17:52:56.629586,-57
2021-12-23 17:52:56.629593,-47
2021-12-23 17:52:56.629599,-35
2021-12-23 17:52:56.629606,-35
2021-12-23 17:52:56.629612,-42
2021-12-23 17:52:56.629619,-38
2021-12-23 17:52:56.629625,-28
2021-12-23 17:52:56.629632,-21
2021-12-23 17:52:56.629638,-16
2021-12-23 17:52:56.629644,-16
2021-12-23 17:52:56.629651,-11
2021-12-23 17:52:56.629657,-9
2021-12-23 17:52:56.629664,-7
2021-12-23 17:52:56.629670,-2
2021-12-23 17:52:56.899347,2
2021-12-23 17:52:56.899370,7
2021-12-23 17:52:56.899378,7
2021-12-23 17:52:56.899385,4
2021-12-23 17:52:56.899391,11
2021-12-23 17:52:56.899398,23
2021-12-23 17:52:56.899404,19
2021-12-23 17:52:56.899410,11
2021-12-23 17:52:56.899416,14
2021-12-23 17:52:56.899423,23
2021-12-23 17:52:56.899429,21
2021-12-23 17:52:56.899435,14
2021-12-23 17:52:56.899442,21
2021-12-23 17:52:56.899448,30
2021-12-23 17:52:56.899454,14
2021-12-23 17:52:56.899461,4
2021-12-23 17:52:56.899467,14
2021-12-23 17:52:56.899473,21
2021-12-23 17:52:56.899480,33
2021-12-23 17:52:56.899486,45
2021-12-23 17:52:56.899492,52
2021-12-23 17:52:56.899499,59
2021-12-23 17:52:56.899505,49
2021-12-23 17:52:56.899511,28
2021-12-23 17:52:56.899518,21
2021-12-23 17:52:56.899524,33
2021-12-23 17:52:56.899530,38
2021-12-23 17:52:56.899537,33
2021-12-23 17:52:56.899543,38
2021-12-23 17:52:56.899550,47
2021-12-23 17:52:57.123374,38
2021-12-23 17:52:57.123396,2
2021-12-23 17:52:57.123404,21
2021-12-23 17:52:57.123411,306
2021-12-23 17:52:57.123417,1021
2021-12-23 17:52:57.123423,1908
2021-12-23 17:52:57.123430,2300
2021-12-23 17:52:57.123436,1561
2021-12-23 17:52:57.123442,54
2021-12-23 17:52:57.123449,-548
2021-12-23 17:52:57.123455,-2
2021-12-23 17:52:57.123461,137
2021-12-23 17:52:57.123468,-166
2021-12-23 17:52:57.123474,-114
2021-12-23 17:52:57.123480,-9
2021-12-23 17:52:57.123487,-85
2021-12-23 17:52:57.123493,-78
2021-12-23 17:52:57.123499,-14
2021-12-23 17:52:57.123505,-11
2021-12-23 17:52:57.123511,-9
2021-12-23 17:52:57.123518,21
2021-12-23 17:52:57.123524,35
2021-12-23 17:52:57.123530,47
2021-12-23 17:52:57.123536,80
2021-12-23 17:52:57.123543,104
2021-12-23 17:52:57.123549,121
2021-12-23 17:52:57.123555,147
2021-12-23 17:52:57.123561,180
2021-12-23 17:52:57.123568,211
2021-12-23 17:52:57.123574,247
2021-12-23 17:52:57.394669,292
2021-12-23 17:52:57.394700,335
2021-12-23 17:52:57.394712,370
2021-12-23 17:52:57.394722,408
2021-12-23 17:52:57.394731,437
2021-12-23 17:52:57.394741,451
2021-12-23 17:52:57.394751,456
2021-12-23 17:52:57.394760,444
2021-12-23 17:52:57.394770,401
2021-12-23 17:52:57.394779,330
2021-12-23 17:52:57.394789,237
2021-12-23 17:52:57.394799,135
2021-12-23 17:52:57.394809,40
2021-12-23 17:52:57.394818,-47
2021-12-23 17:52:57.394828,-118
2021-12-23 17:52:57.394838,-168
2021-12-23 17:52:57.394847,-206
2021-12-23 17:52:57.394857,-228
2021-12-23 17:52:57.394866,-235
2021-12-23 17:52:57.394875,-235
2021-12-23 17:52:57.394885,-230
2021-12-23 17:52:57.394894,-225
2021-12-23 17:52:57.394904,-213
2021-12-23 17:52:57.394914,-197
2021-12-23 17:52:57.394923,-182
2021-12-23 17:52:57.394933,-175
2021-12-23 17:52:57.394942,-163
2021-12-23 17:52:57.394951,-152
2021-12-23 17:52:57.394961,-144
2021-12-23 17:52:57.394970,-137
2021-12-23 17:52:57.529107,-123
2021-12-23 17:52:57.529128,-111
2021-12-23 17:52:57.529137,-104
2021-12-23 17:52:57.529146,-104
2021-12-23 17:52:57.529157,-97
2021-12-23 17:52:57.529221,-90
2021-12-23 17:52:57.529240,-92
2021-12-23 17:52:57.529252,-95
2021-12-23 17:52:57.529263,-87
2021-12-23 17:52:57.529274,-83
2021-12-23 17:52:57.529285,-90
2021-12-23 17:52:57.529297,-85
2021-12-23 17:52:57.529308,-78
2021-12-23 17:52:57.529318,-78
2021-12-23 17:52:57.529330,-80
2021-12-23 17:52:57.529341,-83
2021-12-23 17:52:57.529375,-80
2021-12-23 17:52:57.529388,-78
2021-12-23 17:52:57.529399,-76
2021-12-23 17:52:57.529409,-68
2021-12-23 17:52:57.529416,-64
2021-12-23 17:52:57.529422,-64
2021-12-23 17:52:57.529429,-59
2021-12-23 17:52:57.529435,-52
2021-12-23 17:52:57.529441,-54
2021-12-23 17:52:57.529447,-49
2021-12-23 17:52:57.529453,-40
2021-12-23 17:52:57.529459,-42
2021-12-23 17:52:57.529466,-45
2021-12-23 17:52:57.529472,-28
2021-12-23 17:52:57.754660,-19
2021-12-23 17:52:57.754691,-21
2021-12-23 17:52:57.754702,-19
2021-12-23 17:52:57.754712,-11
2021-12-23 17:52:57.754722,-9
2021-12-23 17:52:57.754731,-14
2021-12-23 17:52:57.754741,-9
2021-12-23 17:52:57.754751,0
2021-12-23 17:52:57.754760,-2
2021-12-23 17:52:57.754770,-9
2021-12-23 17:52:57.754779,-2
2021-12-23 17:52:57.754789,4
2021-12-23 17:52:57.754799,2
2021-12-23 17:52:57.754809,11
2021-12-23 17:52:57.754818,19
2021-12-23 17:52:57.754828,16
2021-12-23 17:52:57.754837,11
2021-12-23 17:52:57.754847,14
2021-12-23 17:52:57.754856,26
2021-12-23 17:52:57.754866,30
2021-12-23 17:52:57.754875,11
2021-12-23 17:52:57.754885,4
2021-12-23 17:52:57.754894,19
2021-12-23 17:52:57.754904,26
2021-12-23 17:52:57.754913,26
2021-12-23 17:52:57.754923,30
2021-12-23 17:52:57.754932,42
2021-12-23 17:52:57.754942,54
2021-12-23 17:52:57.754951,59
2021-12-23 17:52:57.754961,42
2021-12-23 17:52:57.979628,23
2021-12-23 17:52:57.979659,28
2021-12-23 17:52:57.979670,38
2021-12-23 17:52:57.979680,38
2021-12-23 17:52:57.979690,42
2021-12-23 17:52:57.979699,45
2021-12-23 17:52:57.979709,30
2021-12-23 17:52:57.979719,11
2021-12-23 17:52:57.979728,40
2021-12-23 17:52:57.979738,306
2021-12-23 17:52:57.979747,1017
2021-12-23 17:52:57.979757,1941
2021-12-23 17:52:57.979766,2362
2021-12-23 17:52:57.979776,1546
2021-12-23 17:52:57.979786,-61
2021-12-23 17:52:57.979795,-627
2021-12-23 17:52:57.979805,4
2021-12-23 17:52:57.979815,147
2021-12-23 17:52:57.979824,-163
2021-12-23 17:52:57.979834,-92
2021-12-23 17:52:57.979844,4
2021-12-23 17:52:57.979853,-78
2021-12-23 17:52:57.979863,-64
2021-12-23 17:52:57.979872,-4
2021-12-23 17:52:57.979882,-16
2021-12-23 17:52:57.979891,-7
2021-12-23 17:52:57.979901,35
2021-12-23 17:52:57.979911,54
2021-12-23 17:52:57.979920,73
2021-12-23 17:52:57.979930,106
2021-12-23 17:52:58.204695,123
2021-12-23 17:52:58.204726,137
2021-12-23 17:52:58.204738,173
2021-12-23 17:52:58.204748,201
2021-12-23 17:52:58.204758,220
2021-12-23 17:52:58.204768,266
2021-12-23 17:52:58.204778,320
2021-12-23 17:52:58.204787,356
2021-12-23 17:52:58.204797,384
2021-12-23 17:52:58.204807,427
2021-12-23 17:52:58.204817,468
2021-12-23 17:52:58.204826,482
2021-12-23 17:52:58.204836,491
2021-12-23 17:52:58.204846,484
2021-12-23 17:52:58.204856,437
2021-12-23 17:52:58.204865,361
2021-12-23 17:52:58.204875,261
2021-12-23 17:52:58.204885,152
2021-12-23 17:52:58.204895,52
2021-12-23 17:52:58.204904,-40
2021-12-23 17:52:58.204914,-125
2021-12-23 17:52:58.204924,-194
2021-12-23 17:52:58.204934,-230
2021-12-23 17:52:58.204943,-237
2021-12-23 17:52:58.204953,-240
2021-12-23 17:52:58.204963,-256
2021-12-23 17:52:58.204973,-259
2021-12-23 17:52:58.204983,-237
2021-12-23 17:52:58.204992,-225
2021-12-23 17:52:58.205002,-220
2021-12-23 17:52:58.474876,-204
2021-12-23 17:52:58.474907,-190
2021-12-23 17:52:58.474919,-182
2021-12-23 17:52:58.474929,-173
2021-12-23 17:52:58.474939,-163
2021-12-23 17:52:58.474948,-152
2021-12-23 17:52:58.474958,-140
2021-12-23 17:52:58.474967,-128
2021-12-23 17:52:58.474977,-125
2021-12-23 17:52:58.474987,-125
2021-12-23 17:52:58.474996,-123
2021-12-23 17:52:58.475006,-116
2021-12-23 17:52:58.475016,-111
2021-12-23 17:52:58.475026,-111
2021-12-23 17:52:58.475035,-109
2021-12-23 17:52:58.475045,-106
2021-12-23 17:52:58.475055,-102
2021-12-23 17:52:58.475064,-99
2021-12-23 17:52:58.475074,-104
2021-12-23 17:52:58.475084,-99
2021-12-23 17:52:58.475094,-83
2021-12-23 17:52:58.475103,-83
2021-12-23 17:52:58.475113,-90
2021-12-23 17:52:58.475123,-80
2021-12-23 17:52:58.475133,-68
2021-12-23 17:52:58.475142,-76
2021-12-23 17:52:58.475152,-85
2021-12-23 17:52:58.475162,-80
2021-12-23 17:52:58.475171,-66
2021-12-23 17:52:58.475181,-64
2021-12-23 17:52:58.699334,-64
2021-12-23 17:52:58.699357,-57
2021-12-23 17:52:58.699364,-45
2021-12-23 17:52:58.699371,-45
2021-12-23 17:52:58.699377,-49
2021-12-23 17:52:58.699383,-49
2021-12-23 17:52:58.699390,-38
2021-12-23 17:52:58.699396,-28
2021-12-23 17:52:58.699402,-23
2021-12-23 17:52:58.699408,-21
2021-12-23 17:52:58.699415,-21
2021-12-23 17:52:58.699421,-26
2021-12-23 17:52:58.699427,-19
2021-12-23 17:52:58.699433,-9
2021-12-23 17:52:58.699440,-9
2021-12-23 17:52:58.699446,-11
2021-12-23 17:52:58.699452,-11
2021-12-23 17:52:58.699458,-4
2021-12-23 17:52:58.699465,4
2021-12-23 17:52:58.699471,9
2021-12-23 17:52:58.699477,9
2021-12-23 17:52:58.699484,9
2021-12-23 17:52:58.699490,11
2021-12-23 17:52:58.699496,14
2021-12-23 17:52:58.699502,14
2021-12-23 17:52:58.699509,7
2021-12-23 17:52:58.699515,11
2021-12-23 17:52:58.699521,19
2021-12-23 17:52:58.699527,19
2021-12-23 17:52:58.699533,21
2021-12-23 17:52:58.924665,40
2021-12-23 17:52:58.924695,52
2021-12-23 17:52:58.924707,33
2021-12-23 17:52:58.924717,16
2021-12-23 17:52:58.924727,23
2021-12-23 17:52:58.924737,33
2021-12-23 17:52:58.924747,38
2021-12-23 17:52:58.924756,42
2021-12-23 17:52:58.924766,38
2021-12-23 17:52:58.924776,21
2021-12-23 17:52:58.924786,7
2021-12-23 17:52:58.924795,76
2021-12-23 17:52:58.924805,472
2021-12-23 17:52:58.924815,1316
2021-12-23 17:52:58.924825,2205
2021-12-23 17:52:58.924835,2378
2021-12-23 17:52:58.924844,1228
2021-12-23 17:52:58.924854,-375
2021-12-23 17:52:58.924864,-572
2021-12-23 17:52:58.924874,111
2021-12-23 17:52:58.924883,59
2021-12-23 17:52:58.924893,-199
2021-12-23 17:52:58.924903,-45
2021-12-23 17:52:58.924913,11
2021-12-23 17:52:58.924922,-73
2021-12-23 17:52:58.924932,-38
2021-12-23 17:52:58.924942,2
2021-12-23 17:52:58.924951,-16
2021-12-23 17:52:58.924961,11
2021-12-23 17:52:58.924971,61
2021-12-23 17:52:59.193408,76
2021-12-23 17:52:59.193438,85
2021-12-23 17:52:59.193450,109
2021-12-23 17:52:59.193460,135
2021-12-23 17:52:59.193470,166
2021-12-23 17:52:59.193480,197
2021-12-23 17:52:59.193490,216
2021-12-23 17:52:59.193500,249
2021-12-23 17:52:59.193510,297
2021-12-23 17:52:59.193520,327
2021-12-23 17:52:59.193530,361
2021-12-23 17:52:59.193540,415
2021-12-23 17:52:59.193549,461
2021-12-23 17:52:59.193559,484
2021-12-23 17:52:59.193569,496
2021-12-23 17:52:59.193579,496
2021-12-23 17:52:59.193589,472
2021-12-23 17:52:59.193599,418
2021-12-23 17:52:59.193608,325
2021-12-23 17:52:59.193618,211
2021-12-23 17:52:59.193628,104
2021-12-23 17:52:59.193638,9
2021-12-23 17:52:59.193648,-80
2021-12-23 17:52:59.193658,-154
2021-12-23 17:52:59.193667,-204
2021-12-23 17:52:59.193677,-230
2021-12-23 17:52:59.193687,-247
2021-12-23 17:52:59.193697,-251
2021-12-23 17:52:59.193707,-254
2021-12-23 17:52:59.193716,-251
2021-12-23 17:52:59.374866,-240
2021-12-23 17:52:59.374897,-225
2021-12-23 17:52:59.374908,-213
2021-12-23 17:52:59.374919,-204
2021-12-23 17:52:59.374928,-187
2021-12-23 17:52:59.374943,-168
2021-12-23 17:52:59.374953,-161
2021-12-23 17:52:59.374963,-156
2021-12-23 17:52:59.374972,-142
2021-12-23 17:52:59.374982,-130
2021-12-23 17:52:59.374992,-123
2021-12-23 17:52:59.375001,-118
2021-12-23 17:52:59.375011,-121
2021-12-23 17:52:59.375021,-118
2021-12-23 17:52:59.375030,-99
2021-12-23 17:52:59.375040,-92
2021-12-23 17:52:59.375050,-99
2021-12-23 17:52:59.375059,-99
2021-12-23 17:52:59.375069,-97
2021-12-23 17:52:59.375078,-95
2021-12-23 17:52:59.375088,-92
2021-12-23 17:52:59.375098,-83
2021-12-23 17:52:59.375107,-83
2021-12-23 17:52:59.375117,-83
2021-12-23 17:52:59.375126,-73
2021-12-23 17:52:59.375136,-66
2021-12-23 17:52:59.375146,-68
2021-12-23 17:52:59.375155,-66
2021-12-23 17:52:59.375165,-61
2021-12-23 17:52:59.375174,-61
2021-12-23 17:52:59.599330,-57
2021-12-23 17:52:59.599353,-45
2021-12-23 17:52:59.599360,-42
2021-12-23 17:52:59.599367,-47
2021-12-23 17:52:59.599373,-45
2021-12-23 17:52:59.599379,-35
2021-12-23 17:52:59.599386,-38
2021-12-23 17:52:59.599392,-42
2021-12-23 17:52:59.599398,-38
2021-12-23 17:52:59.599405,-28
2021-12-23 17:52:59.599411,-21
2021-12-23 17:52:59.599418,-30
2021-12-23 17:52:59.599424,-38
2021-12-23 17:52:59.599430,-28
2021-12-23 17:52:59.599437,-14
2021-12-23 17:52:59.599443,-11
2021-12-23 17:52:59.599449,-14
2021-12-23 17:52:59.599456,-11
2021-12-23 17:52:59.599462,-4
2021-12-23 17:52:59.599468,-2
2021-12-23 17:52:59.599475,-2
2021-12-23 17:52:59.599481,4
2021-12-23 17:52:59.599488,11
2021-12-23 17:52:59.599495,16
2021-12-23 17:52:59.599502,19
2021-12-23 17:52:59.599508,11
2021-12-23 17:52:59.599514,7
2021-12-23 17:52:59.599521,16
2021-12-23 17:52:59.599527,23
2021-12-23 17:52:59.599533,21
2021-12-23 17:52:59.824031,26
2021-12-23 17:52:59.824052,33
2021-12-23 17:52:59.824059,35
2021-12-23 17:52:59.824066,47
2021-12-23 17:52:59.824072,40
2021-12-23 17:52:59.824079,11
2021-12-23 17:52:59.824085,7
2021-12-23 17:52:59.824092,19
2021-12-23 17:52:59.824098,26
2021-12-23 17:52:59.824104,28
2021-12-23 17:52:59.824111,28
2021-12-23 17:52:59.824117,23
2021-12-23 17:52:59.824124,2
2021-12-23 17:52:59.824130,16
2021-12-23 17:52:59.824136,289
2021-12-23 17:52:59.824143,1038
2021-12-23 17:52:59.824149,2007
2021-12-23 17:52:59.824156,2468
2021-12-23 17:52:59.824162,1701
2021-12-23 17:52:59.824168,54
2021-12-23 17:52:59.824175,-639
2021-12-23 17:52:59.824182,-26
2021-12-23 17:52:59.824188,159
2021-12-23 17:52:59.824195,-173
2021-12-23 17:52:59.824201,-109
2021-12-23 17:52:59.824208,16
2021-12-23 17:52:59.824214,-68
2021-12-23 17:52:59.824221,-71
2021-12-23 17:52:59.824227,-7
2021-12-23 17:52:59.824234,-9
2021-12-23 17:53:00.049404,0
2021-12-23 17:53:00.049427,40
2021-12-23 17:53:00.049435,57
2021-12-23 17:53:00.049441,66
2021-12-23 17:53:00.049448,95
2021-12-23 17:53:00.049454,125
2021-12-23 17:53:00.049461,154
2021-12-23 17:53:00.049467,178
2021-12-23 17:53:00.049474,204
2021-12-23 17:53:00.049480,240
2021-12-23 17:53:00.049487,285
2021-12-23 17:53:00.049493,332
2021-12-23 17:53:00.049499,377
2021-12-23 17:53:00.049506,415
2021-12-23 17:53:00.049512,449
2021-12-23 17:53:00.049518,480
2021-12-23 17:53:00.049525,494
2021-12-23 17:53:00.049531,499
2021-12-23 17:53:00.049537,487
2021-12-23 17:53:00.049544,437
2021-12-23 17:53:00.049550,351
2021-12-23 17:53:00.049556,237
2021-12-23 17:53:00.049563,121
2021-12-23 17:53:00.049569,21
2021-12-23 17:53:00.049575,-64
2021-12-23 17:53:00.049582,-137
2021-12-23 17:53:00.049588,-192
2021-12-23 17:53:00.049594,-230
2021-12-23 17:53:00.049601,-249
2021-12-23 17:53:00.049607,-254
2021-12-23 17:53:00.319819,-251
2021-12-23 17:53:00.319851,-244
2021-12-23 17:53:00.319863,-244
2021-12-23 17:53:00.319873,-242
2021-12-23 17:53:00.319883,-228
2021-12-23 17:53:00.319892,-213
2021-12-23 17:53:00.319902,-206
2021-12-23 17:53:00.319912,-194
2021-12-23 17:53:00.319921,-180
2021-12-23 17:53:00.319931,-175
2021-12-23 17:53:00.319941,-163
2021-12-23 17:53:00.319951,-142
2021-12-23 17:53:00.319960,-137
2021-12-23 17:53:00.319970,-140
2021-12-23 17:53:00.319980,-128
2021-12-23 17:53:00.319989,-116
2021-12-23 17:53:00.319999,-111
2021-12-23 17:53:00.320009,-106
2021-12-23 17:53:00.320018,-97
2021-12-23 17:53:00.320028,-90
2021-12-23 17:53:00.320038,-95
2021-12-23 17:53:00.320047,-95
2021-12-23 17:53:00.320057,-87
2021-12-23 17:53:00.320067,-80
2021-12-23 17:53:00.320076,-78
2021-12-23 17:53:00.320086,-80
2021-12-23 17:53:00.320096,-78
2021-12-23 17:53:00.320105,-76
2021-12-23 17:53:00.320115,-68
2021-12-23 17:53:00.320125,-57
2021-12-23 17:53:00.589794,-59
2021-12-23 17:53:00.589825,-61
2021-12-23 17:53:00.589837,-49
2021-12-23 17:53:00.589848,-42
2021-12-23 17:53:00.589858,-38
2021-12-23 17:53:00.589867,-33
2021-12-23 17:53:00.589877,-35
2021-12-23 17:53:00.589887,-38
2021-12-23 17:53:00.589897,-38
2021-12-23 17:53:00.589907,-35
2021-12-23 17:53:00.589917,-33
2021-12-23 17:53:00.589927,-26
2021-12-23 17:53:00.589936,-14
2021-12-23 17:53:00.589966,-9
2021-12-23 17:53:00.589975,-16
2021-12-23 17:53:00.589985,-16
2021-12-23 17:53:00.589995,-7
2021-12-23 17:53:00.590004,-4
2021-12-23 17:53:00.590014,-2
2021-12-23 17:53:00.590024,-2
2021-12-23 17:53:00.590034,-9
2021-12-23 17:53:00.590043,-7
2021-12-23 17:53:00.590053,4
2021-12-23 17:53:00.590063,9
2021-12-23 17:53:00.590072,9
2021-12-23 17:53:00.590082,14
2021-12-23 17:53:00.590092,19
2021-12-23 17:53:00.590101,16
2021-12-23 17:53:00.590111,9
2021-12-23 17:53:00.590120,11
2021-12-23 17:53:00.769543,19
2021-12-23 17:53:00.769574,16
2021-12-23 17:53:00.769586,21
2021-12-23 17:53:00.769596,38
2021-12-23 17:53:00.769606,52
2021-12-23 17:53:00.769616,57
2021-12-23 17:53:00.769625,61
2021-12-23 17:53:00.769635,45
2021-12-23 17:53:00.769645,21
2021-12-23 17:53:00.769654,19
2021-12-23 17:53:00.769664,23
2021-12-23 17:53:00.769674,30
2021-12-23 17:53:00.769683,38
2021-12-23 17:53:00.769693,40
2021-12-23 17:53:00.769703,23
2021-12-23 17:53:00.769712,-7
2021-12-23 17:53:00.769722,16
2021-12-23 17:53:00.769732,306
2021-12-23 17:53:00.769741,1045
2021-12-23 17:53:00.769751,1977
2021-12-23 17:53:00.769761,2404
2021-12-23 17:53:00.769771,1691
2021-12-23 17:53:00.769780,133
2021-12-23 17:53:00.769790,-582
2021-12-23 17:53:00.769800,-28
2021-12-23 17:53:00.769810,168
2021-12-23 17:53:00.769820,-156
2021-12-23 17:53:00.769829,-109
2021-12-23 17:53:00.769839,19
2021-12-23 17:53:00.769849,-59
2021-12-23 17:53:01.083758,-66
2021-12-23 17:53:01.083778,-4
2021-12-23 17:53:01.083786,-11
2021-12-23 17:53:01.083793,-7
2021-12-23 17:53:01.083799,35
2021-12-23 17:53:01.083806,54
2021-12-23 17:53:01.083812,61
2021-12-23 17:53:01.083819,85
2021-12-23 17:53:01.083825,116
2021-12-23 17:53:01.083831,142
2021-12-23 17:53:01.083838,171
2021-12-23 17:53:01.083844,206
2021-12-23 17:53:01.083851,237
2021-12-23 17:53:01.083857,268
2021-12-23 17:53:01.083864,313
2021-12-23 17:53:01.083870,370
2021-12-23 17:53:01.083876,418
2021-12-23 17:53:01.083884,461
2021-12-23 17:53:01.083890,491
2021-12-23 17:53:01.083896,510
2021-12-23 17:53:01.083903,518
2021-12-23 17:53:01.083909,499
2021-12-23 17:53:01.083915,444
2021-12-23 17:53:01.083922,361
2021-12-23 17:53:01.083928,247
2021-12-23 17:53:01.083935,118
2021-12-23 17:53:01.083941,7
2021-12-23 17:53:01.083947,-80
2021-12-23 17:53:01.083954,-152
2021-12-23 17:53:01.083960,-213
2021-12-23 17:53:01.308588,-251
2021-12-23 17:53:01.308619,-261
2021-12-23 17:53:01.308632,-261
2021-12-23 17:53:01.308642,-273
2021-12-23 17:53:01.308652,-273
2021-12-23 17:53:01.308662,-254
2021-12-23 17:53:01.308672,-247
2021-12-23 17:53:01.308681,-249
2021-12-23 17:53:01.308691,-235
2021-12-23 17:53:01.308701,-216
2021-12-23 17:53:01.308711,-201
2021-12-23 17:53:01.308721,-187
2021-12-23 17:53:01.308731,-180
2021-12-23 17:53:01.308741,-168
2021-12-23 17:53:01.308750,-159
2021-12-23 17:53:01.308760,-152
2021-12-23 17:53:01.308770,-142
2021-12-23 17:53:01.308780,-133
2021-12-23 17:53:01.308789,-133
2021-12-23 17:53:01.308799,-125
2021-12-23 17:53:01.308809,-116
2021-12-23 17:53:01.308819,-114
2021-12-23 17:53:01.308828,-109
2021-12-23 17:53:01.308838,-102
2021-12-23 17:53:01.308848,-92
2021-12-23 17:53:01.308857,-92
2021-12-23 17:53:01.308867,-95
2021-12-23 17:53:01.308877,-87
2021-12-23 17:53:01.308887,-80
2021-12-23 17:53:01.308896,-83
2021-12-23 17:53:01.444641,-85
2021-12-23 17:53:01.444672,-76
2021-12-23 17:53:01.444684,-68
2021-12-23 17:53:01.444694,-68
2021-12-23 17:53:01.444704,-68
2021-12-23 17:53:01.444714,-68
2021-12-23 17:53:01.444723,-61
2021-12-23 17:53:01.444733,-52
2021-12-23 17:53:01.444743,-49
2021-12-23 17:53:01.444752,-45
2021-12-23 17:53:01.444762,-38
2021-12-23 17:53:01.444772,-30
2021-12-23 17:53:01.444782,-28
2021-12-23 17:53:01.444791,-23
2021-12-23 17:53:01.444801,-19
2021-12-23 17:53:01.444811,-26
2021-12-23 17:53:01.444821,-30
2021-12-23 17:53:01.444830,-23
2021-12-23 17:53:01.444840,-19
2021-12-23 17:53:01.444850,-16
2021-12-23 17:53:01.444859,-14
2021-12-23 17:53:01.444869,-7
2021-12-23 17:53:01.444879,-4
2021-12-23 17:53:01.444888,-4
2021-12-23 17:53:01.444898,-2
2021-12-23 17:53:01.444908,7
2021-12-23 17:53:01.444918,11
2021-12-23 17:53:01.444927,9
2021-12-23 17:53:01.444937,9
2021-12-23 17:53:01.444947,11
2021-12-23 17:53:01.669696,4
2021-12-23 17:53:01.669726,-2
2021-12-23 17:53:01.669738,0
2021-12-23 17:53:01.669748,9
2021-12-23 17:53:01.669758,19
2021-12-23 17:53:01.669768,21
2021-12-23 17:53:01.669778,23
2021-12-23 17:53:01.669787,40
2021-12-23 17:53:01.669797,49
2021-12-23 17:53:01.669807,33
2021-12-23 17:53:01.669817,9
2021-12-23 17:53:01.669827,9
2021-12-23 17:53:01.669837,16
2021-12-23 17:53:01.669846,21
2021-12-23 17:53:01.669856,23
2021-12-23 17:53:01.669866,33
2021-12-23 17:53:01.669876,33
2021-12-23 17:53:01.669886,-2
2021-12-23 17:53:01.669895,-21
2021-12-23 17:53:01.669905,173
2021-12-23 17:53:01.669915,807
2021-12-23 17:53:01.669925,1746
2021-12-23 17:53:01.669935,2371
2021-12-23 17:53:01.669944,1965
2021-12-23 17:53:01.669954,491
2021-12-23 17:53:01.669964,-551
2021-12-23 17:53:01.669974,-180
2021-12-23 17:53:01.669984,197
2021-12-23 17:53:01.669994,-97
2021-12-23 17:53:01.670004,-149
2021-12-23 17:53:01.894626,9
2021-12-23 17:53:01.894658,-38
2021-12-23 17:53:01.894669,-76
2021-12-23 17:53:01.894680,-11
2021-12-23 17:53:01.894690,-2
2021-12-23 17:53:01.894699,-9
2021-12-23 17:53:01.894709,19
2021-12-23 17:53:01.894719,42
2021-12-23 17:53:01.894729,57
2021-12-23 17:53:01.894738,78
2021-12-23 17:53:01.894748,99
2021-12-23 17:53:01.894758,121
2021-12-23 17:53:01.894767,152
2021-12-23 17:53:01.894777,185
2021-12-23 17:53:01.894787,228
2021-12-23 17:53:01.894797,268
2021-12-23 17:53:01.894806,304
2021-12-23 17:53:01.894816,346
2021-12-23 17:53:01.894826,399
2021-12-23 17:53:01.894835,446
2021-12-23 17:53:01.894845,475
2021-12-23 17:53:01.894855,494
2021-12-23 17:53:01.894865,506
2021-12-23 17:53:01.894875,499
2021-12-23 17:53:01.894884,451
2021-12-23 17:53:01.894894,377
2021-12-23 17:53:01.894903,282
2021-12-23 17:53:01.894913,166
2021-12-23 17:53:01.894923,54
2021-12-23 17:53:01.894933,-33
2021-12-23 17:53:02.164470,-114
2021-12-23 17:53:02.164496,-173
2021-12-23 17:53:02.164504,-209
2021-12-23 17:53:02.164511,-237
2021-12-23 17:53:02.164517,-254
2021-12-23 17:53:02.164523,-256
2021-12-23 17:53:02.164530,-251
2021-12-23 17:53:02.164536,-247
2021-12-23 17:53:02.164542,-240
2021-12-23 17:53:02.164549,-235
2021-12-23 17:53:02.164555,-228
2021-12-23 17:53:02.164561,-204
2021-12-23 17:53:02.164568,-185
2021-12-23 17:53:02.164574,-182
2021-12-23 17:53:02.164580,-180
2021-12-23 17:53:02.164587,-166
2021-12-23 17:53:02.164593,-149
2021-12-23 17:53:02.164599,-142
2021-12-23 17:53:02.164606,-140
2021-12-23 17:53:02.164612,-135
2021-12-23 17:53:02.164618,-128
2021-12-23 17:53:02.164625,-121
2021-12-23 17:53:02.164631,-118
2021-12-23 17:53:02.164637,-114
2021-12-23 17:53:02.164644,-99
2021-12-23 17:53:02.164650,-92
2021-12-23 17:53:02.164656,-97
2021-12-23 17:53:02.164662,-97
2021-12-23 17:53:02.164669,-92
2021-12-23 17:53:02.164675,-95
2021-12-23 17:53:02.434680,-102
2021-12-23 17:53:02.434711,-92
2021-12-23 17:53:02.434723,-87
2021-12-23 17:53:02.434733,-83
2021-12-23 17:53:02.434743,-80
2021-12-23 17:53:02.434753,-87
2021-12-23 17:53:02.434762,-80
2021-12-23 17:53:02.434772,-59
2021-12-23 17:53:02.434782,-64
2021-12-23 17:53:02.434791,-71
2021-12-23 17:53:02.434801,-59
2021-12-23 17:53:02.434811,-59
2021-12-23 17:53:02.434821,-68
2021-12-23 17:53:02.434831,-59
2021-12-23 17:53:02.434840,-42
2021-12-23 17:53:02.434850,-42
2021-12-23 17:53:02.434860,-49
2021-12-23 17:53:02.434870,-47
2021-12-23 17:53:02.434879,-35
2021-12-23 17:53:02.434889,-26
2021-12-23 17:53:02.434899,-26
2021-12-23 17:53:02.434909,-30
2021-12-23 17:53:02.434919,-21
2021-12-23 17:53:02.434928,-14
2021-12-23 17:53:02.434938,-21
2021-12-23 17:53:02.434948,-23
2021-12-23 17:53:02.434957,-14
2021-12-23 17:53:02.434967,-9
2021-12-23 17:53:02.434977,-4
2021-12-23 17:53:02.434986,0
2021-12-23 17:53:02.614681,2
2021-12-23 17:53:02.614702,9
2021-12-23 17:53:02.614715,9
2021-12-23 17:53:02.614802,-4
2021-12-23 17:53:02.614827,-2
2021-12-23 17:53:02.614840,16
2021-12-23 17:53:02.614847,26
2021-12-23 17:53:02.614853,26
2021-12-23 17:53:02.614923,28
2021-12-23 17:53:02.614930,35
2021-12-23 17:53:02.614937,38
2021-12-23 17:53:02.614943,28
2021-12-23 17:53:02.614950,16
2021-12-23 17:53:02.614956,11
2021-12-23 17:53:02.614963,9
2021-12-23 17:53:02.614969,9
2021-12-23 17:53:02.614975,21
2021-12-23 17:53:02.614982,28
2021-12-23 17:53:02.614988,11
2021-12-23 17:53:02.614995,-16
2021-12-23 17:53:02.615001,78
2021-12-23 17:53:02.615008,565
2021-12-23 17:53:02.615014,1482
2021-12-23 17:53:02.615021,2338
2021-12-23 17:53:02.615027,2290
2021-12-23 17:53:02.615033,874
2021-12-23 17:53:02.615040,-591
2021-12-23 17:53:02.615046,-453
2021-12-23 17:53:02.615053,171
2021-12-23 17:53:02.615059,-23
2021-12-23 17:53:02.839400,-194
2021-12-23 17:53:02.839432,-11
2021-12-23 17:53:02.839443,-19
2021-12-23 17:53:02.839454,-97
2021-12-23 17:53:02.839463,-28
2021-12-23 17:53:02.839473,14
2021-12-23 17:53:02.839483,-4
2021-12-23 17:53:02.839493,9
2021-12-23 17:53:02.839503,38
2021-12-23 17:53:02.839512,54
2021-12-23 17:53:02.839522,85
2021-12-23 17:53:02.839532,121
2021-12-23 17:53:02.839541,135
2021-12-23 17:53:02.839551,156
2021-12-23 17:53:02.839561,199
2021-12-23 17:53:02.839570,242
2021-12-23 17:53:02.839580,270
2021-12-23 17:53:02.839589,311
2021-12-23 17:53:02.839599,361
2021-12-23 17:53:02.839609,408
2021-12-23 17:53:02.839618,456
2021-12-23 17:53:02.839628,494
2021-12-23 17:53:02.839638,522
2021-12-23 17:53:02.839647,544
2021-12-23 17:53:02.839657,546
2021-12-23 17:53:02.839667,506
2021-12-23 17:53:02.839676,425
2021-12-23 17:53:02.839686,325
2021-12-23 17:53:02.839696,206
2021-12-23 17:53:02.839706,80
2021-12-23 17:53:03.064648,-23
2021-12-23 17:53:03.064680,-109
2021-12-23 17:53:03.064692,-171
2021-12-23 17:53:03.064702,-211
2021-12-23 17:53:03.064712,-244
2021-12-23 17:53:03.064722,-259
2021-12-23 17:53:03.064732,-261
2021-12-23 17:53:03.064741,-261
2021-12-23 17:53:03.064751,-259
2021-12-23 17:53:03.064761,-251
2021-12-23 17:53:03.064770,-240
2021-12-23 17:53:03.064780,-225
2021-12-23 17:53:03.064790,-216
2021-12-23 17:53:03.064799,-211
2021-12-23 17:53:03.064809,-204
2021-12-23 17:53:03.064819,-190
2021-12-23 17:53:03.064828,-163
2021-12-23 17:53:03.064838,-147
2021-12-23 17:53:03.064848,-154
2021-12-23 17:53:03.064858,-159
2021-12-23 17:53:03.064867,-142
2021-12-23 17:53:03.064877,-128
2021-12-23 17:53:03.064887,-128
2021-12-23 17:53:03.064896,-123
2021-12-23 17:53:03.064906,-111
2021-12-23 17:53:03.064916,-104
2021-12-23 17:53:03.064926,-104
2021-12-23 17:53:03.064935,-104
2021-12-23 17:53:03.064945,-99
2021-12-23 17:53:03.064954,-92
2021-12-23 17:53:03.333333,-90
2021-12-23 17:53:03.333356,-95
2021-12-23 17:53:03.333364,-92
2021-12-23 17:53:03.333371,-85
2021-12-23 17:53:03.333378,-80
2021-12-23 17:53:03.333384,-78
2021-12-23 17:53:03.333390,-78
2021-12-23 17:53:03.333397,-76
2021-12-23 17:53:03.333403,-68
2021-12-23 17:53:03.333410,-57
2021-12-23 17:53:03.333416,-47
2021-12-23 17:53:03.333422,-49
2021-12-23 17:53:03.333429,-54
2021-12-23 17:53:03.333435,-47
2021-12-23 17:53:03.333441,-40
2021-12-23 17:53:03.333448,-38
2021-12-23 17:53:03.333454,-33
2021-12-23 17:53:03.333460,-23
2021-12-23 17:53:03.333467,-23
2021-12-23 17:53:03.333473,-21
2021-12-23 17:53:03.333479,-14
2021-12-23 17:53:03.333486,-4
2021-12-23 17:53:03.333492,0
2021-12-23 17:53:03.333499,4
2021-12-23 17:53:03.333505,4
2021-12-23 17:53:03.333511,4
2021-12-23 17:53:03.333518,14
2021-12-23 17:53:03.333524,23
2021-12-23 17:53:03.333531,19
2021-12-23 17:53:03.333537,11
2021-12-23 17:53:03.559630,19
2021-12-23 17:53:03.559661,26
2021-12-23 17:53:03.559674,23
2021-12-23 17:53:03.559684,14
2021-12-23 17:53:03.559694,9
2021-12-23 17:53:03.559704,16
2021-12-23 17:53:03.559713,21
2021-12-23 17:53:03.559723,21
2021-12-23 17:53:03.559733,30
2021-12-23 17:53:03.559743,35
2021-12-23 17:53:03.559752,38
2021-12-23 17:53:03.559762,49
2021-12-23 17:53:03.559772,40
