Time,ECG
2021-12-23 17:27:26.694835,4336
2021-12-23 17:27:26.694861,4484
2021-12-23 17:27:26.694873,4966
2021-12-23 17:27:26.694883,4721
2021-12-23 17:27:26.694893,4536
2021-12-23 17:27:26.694903,4633
2021-12-23 17:27:26.694913,4569
2021-12-23 17:27:26.919362,4469
2021-12-23 17:27:26.919387,4481
2021-12-23 17:27:26.919397,4457
2021-12-23 17:27:26.919406,4393
2021-12-23 17:27:26.919413,4379
2021-12-23 17:27:26.919421,4360
2021-12-23 17:27:26.919429,4301
2021-12-23 17:27:26.919436,4270
2021-12-23 17:27:26.919444,4258
2021-12-23 17:27:26.919452,4232
2021-12-23 17:27:26.919460,4225
2021-12-23 17:27:26.919468,4213
2021-12-23 17:27:26.919517,4182
2021-12-23 17:27:26.919526,4168
2021-12-23 17:27:26.919533,4144
2021-12-23 17:27:26.919540,4118
2021-12-23 17:27:26.919546,4103
2021-12-23 17:27:26.919553,4065
2021-12-23 17:27:26.919559,4013
2021-12-23 17:27:26.919566,3970
2021-12-23 17:27:26.919573,3913
2021-12-23 17:27:26.919579,3816
2021-12-23 17:27:26.919586,3692
2021-12-23 17:27:26.919592,3543
2021-12-23 17:27:26.919598,3398
2021-12-23 17:27:26.919605,3298
2021-12-23 17:27:26.919611,3210
2021-12-23 17:27:26.919617,3053
2021-12-23 17:27:26.919623,2777
2021-12-23 17:27:26.919631,2464
2021-12-23 17:27:27.188428,2290
2021-12-23 17:27:27.188450,2231
2021-12-23 17:27:27.188458,2162
2021-12-23 17:27:27.188464,2100
2021-12-23 17:27:27.188471,2072
2021-12-23 17:27:27.188488,2029
2021-12-23 17:27:27.188494,1996
2021-12-23 17:27:27.188501,1986
2021-12-23 17:27:27.188507,1972
2021-12-23 17:27:27.188513,1943
2021-12-23 17:27:27.188524,1915
2021-12-23 17:27:27.188531,1893
2021-12-23 17:27:27.188537,1874
2021-12-23 17:27:27.188543,1855
2021-12-23 17:27:27.188550,1839
2021-12-23 17:27:27.188556,1815
2021-12-23 17:27:27.188562,1777
2021-12-23 17:27:27.188568,1746
2021-12-23 17:27:27.188574,1739
2021-12-23 17:27:27.188580,1737
2021-12-23 17:27:27.188587,1737
2021-12-23 17:27:27.188593,1753
2021-12-23 17:27:27.188601,1803
2021-12-23 17:27:27.188607,1860
2021-12-23 17:27:27.188613,1917
2021-12-23 17:27:27.188619,1969
2021-12-23 17:27:27.188626,1998
2021-12-23 17:27:27.188632,2010
2021-12-23 17:27:27.188638,2034
2021-12-23 17:27:27.188644,2069
2021-12-23 17:27:27.414675,2091
2021-12-23 17:27:27.414706,2088
2021-12-23 17:27:27.414718,2086
2021-12-23 17:27:27.414728,2062
2021-12-23 17:27:27.414737,2026
2021-12-23 17:27:27.414747,2012
2021-12-23 17:27:27.414762,2012
2021-12-23 17:27:27.414772,1998
2021-12-23 17:27:27.414782,1988
2021-12-23 17:27:27.414792,1979
2021-12-23 17:27:27.414801,1931
2021-12-23 17:27:27.414811,1886
2021-12-23 17:27:27.414821,1872
2021-12-23 17:27:27.414830,1853
2021-12-23 17:27:27.414840,1834
2021-12-23 17:27:27.414849,1825
2021-12-23 17:27:27.414859,1813
2021-12-23 17:27:27.414868,1801
2021-12-23 17:27:27.414878,1794
2021-12-23 17:27:27.414888,1779
2021-12-23 17:27:27.414897,1760
2021-12-23 17:27:27.414907,1741
2021-12-23 17:27:27.414918,1722
2021-12-23 17:27:27.414927,1710
2021-12-23 17:27:27.414937,1713
2021-12-23 17:27:27.414960,1713
2021-12-23 17:27:27.414970,1703
2021-12-23 17:27:27.414980,1670
2021-12-23 17:27:27.414990,1611
2021-12-23 17:27:27.414999,1568
2021-12-23 17:27:27.639700,1554
2021-12-23 17:27:27.639731,1537
2021-12-23 17:27:27.639743,1518
2021-12-23 17:27:27.639753,1489
2021-12-23 17:27:27.639763,1461
2021-12-23 17:27:27.639772,1442
2021-12-23 17:27:27.639782,1413
2021-12-23 17:27:27.639792,1373
2021-12-23 17:27:27.639801,1421
2021-12-23 17:27:27.639810,1765
2021-12-23 17:27:27.639823,2523
2021-12-23 17:27:27.639833,3345
2021-12-23 17:27:27.639843,3483
2021-12-23 17:27:27.639852,2383
2021-12-23 17:27:27.639862,891
2021-12-23 17:27:27.639871,681
2021-12-23 17:27:27.639881,1278
2021-12-23 17:27:27.639890,1233
2021-12-23 17:27:27.639900,995
2021-12-23 17:27:27.639909,1112
2021-12-23 17:27:27.639919,1133
2021-12-23 17:27:27.639928,1036
2021-12-23 17:27:27.639938,1064
2021-12-23 17:27:27.639947,1104
2021-12-23 17:27:27.639957,1081
2021-12-23 17:27:27.639966,1088
2021-12-23 17:27:27.639976,1107
2021-12-23 17:27:27.639985,1095
2021-12-23 17:27:27.639994,1095
2021-12-23 17:27:27.640004,1114
2021-12-23 17:27:27.864732,1114
2021-12-23 17:27:27.864762,1116
2021-12-23 17:27:27.864774,1145
2021-12-23 17:27:27.864784,1166
2021-12-23 17:27:27.864794,1178
2021-12-23 17:27:27.864804,1204
2021-12-23 17:27:27.864813,1230
2021-12-23 17:27:27.864823,1242
2021-12-23 17:27:27.864833,1238
2021-12-23 17:27:27.864842,1226
2021-12-23 17:27:27.864852,1209
2021-12-23 17:27:27.864861,1185
2021-12-23 17:27:27.864871,1140
2021-12-23 17:27:27.864881,1069
2021-12-23 17:27:27.864890,969
2021-12-23 17:27:27.864995,869
2021-12-23 17:27:27.865022,784
2021-12-23 17:27:27.865035,712
2021-12-23 17:27:27.865045,648
2021-12-23 17:27:27.865055,594
2021-12-23 17:27:27.865065,551
2021-12-23 17:27:27.865075,513
2021-12-23 17:27:27.865087,484
2021-12-23 17:27:27.865097,475
2021-12-23 17:27:27.865107,472
2021-12-23 17:27:27.865117,468
2021-12-23 17:27:27.865127,468
2021-12-23 17:27:27.865136,468
2021-12-23 17:27:27.865146,465
2021-12-23 17:27:27.865156,465
2021-12-23 17:27:28.133661,470
2021-12-23 17:27:28.133691,472
2021-12-23 17:27:28.133703,472
2021-12-23 17:27:28.133713,472
2021-12-23 17:27:28.133723,468
2021-12-23 17:27:28.133733,456
2021-12-23 17:27:28.133742,446
2021-12-23 17:27:28.133752,446
2021-12-23 17:27:28.133762,441
2021-12-23 17:27:28.133772,430
2021-12-23 17:27:28.133781,415
2021-12-23 17:27:28.133791,411
2021-12-23 17:27:28.133801,408
2021-12-23 17:27:28.133811,394
2021-12-23 17:27:28.133820,382
2021-12-23 17:27:28.133830,377
2021-12-23 17:27:28.133840,368
2021-12-23 17:27:28.133857,361
2021-12-23 17:27:28.133866,349
2021-12-23 17:27:28.133876,346
2021-12-23 17:27:28.133886,354
2021-12-23 17:27:28.133895,346
2021-12-23 17:27:28.133905,335
2021-12-23 17:27:28.133915,332
2021-12-23 17:27:28.133924,323
2021-12-23 17:27:28.133934,304
2021-12-23 17:27:28.133944,285
2021-12-23 17:27:28.133954,263
2021-12-23 17:27:28.133963,251
2021-12-23 17:27:28.133973,244
2021-12-23 17:27:28.314820,235
2021-12-23 17:27:28.314851,225
2021-12-23 17:27:28.314863,225
2021-12-23 17:27:28.314873,232
2021-12-23 17:27:28.314883,240
2021-12-23 17:27:28.314906,237
2021-12-23 17:27:28.314917,211
2021-12-23 17:27:28.314927,149
2021-12-23 17:27:28.314937,99
2021-12-23 17:27:28.314947,76
2021-12-23 17:27:28.314957,49
2021-12-23 17:27:28.314967,26
2021-12-23 17:27:28.314976,35
2021-12-23 17:27:28.314986,97
2021-12-23 17:27:28.314996,114
2021-12-23 17:27:28.315009,42
2021-12-23 17:27:28.315019,-33
2021-12-23 17:27:28.315029,-128
2021-12-23 17:27:28.315039,-206
2021-12-23 17:27:28.315048,-173
2021-12-23 17:27:28.315058,-135
2021-12-23 17:27:28.315068,-213
2021-12-23 17:27:28.315078,-285
2021-12-23 17:27:28.315088,-232
2021-12-23 17:27:28.315098,-182
2021-12-23 17:27:28.315107,-218
2021-12-23 17:27:28.315117,-247
2021-12-23 17:27:28.315127,-249
2021-12-23 17:27:28.315137,-275
2021-12-23 17:27:28.315147,-325
2021-12-23 17:27:28.584353,-368
2021-12-23 17:27:28.584376,-380
2021-12-23 17:27:28.584384,-384
2021-12-23 17:27:28.584390,-406
2021-12-23 17:27:28.584397,-432
2021-12-23 17:27:28.584403,-384
2021-12-23 17:27:28.584409,-33
2021-12-23 17:27:28.584416,746
2021-12-23 17:27:28.584422,1575
2021-12-23 17:27:28.584429,1744
2021-12-23 17:27:28.584435,734
2021-12-23 17:27:28.584441,-686
2021-12-23 17:27:28.584448,-895
2021-12-23 17:27:28.584454,-294
2021-12-23 17:27:28.584460,-313
2021-12-23 17:27:28.584467,-541
2021-12-23 17:27:28.584473,-408
2021-12-23 17:27:28.584484,-346
2021-12-23 17:27:28.584490,-413
2021-12-23 17:27:28.584497,-361
2021-12-23 17:27:28.584503,-301
2021-12-23 17:27:28.584509,-306
2021-12-23 17:27:28.584515,-280
2021-12-23 17:27:28.584522,-230
2021-12-23 17:27:28.584528,-204
2021-12-23 17:27:28.584535,-178
2021-12-23 17:27:28.584541,-142
2021-12-23 17:27:28.584547,-114
2021-12-23 17:27:28.584553,-85
2021-12-23 17:27:28.584560,-45
2021-12-23 17:27:28.809330,-2
2021-12-23 17:27:28.809352,33
2021-12-23 17:27:28.809359,73
2021-12-23 17:27:28.809366,109
2021-12-23 17:27:28.809372,137
2021-12-23 17:27:28.809379,156
2021-12-23 17:27:28.809385,166
2021-12-23 17:27:28.809391,175
2021-12-23 17:27:28.809397,166
2021-12-23 17:27:28.809404,133
2021-12-23 17:27:28.809410,83
2021-12-23 17:27:28.809416,9
2021-12-23 17:27:28.809423,-73
2021-12-23 17:27:28.809429,-144
2021-12-23 17:27:28.809436,-204
2021-12-23 17:27:28.809442,-261
2021-12-23 17:27:28.809448,-313
2021-12-23 17:27:28.809455,-339
2021-12-23 17:27:28.809461,-354
2021-12-23 17:27:28.809467,-361
2021-12-23 17:27:28.809474,-363
2021-12-23 17:27:28.809480,-358
2021-12-23 17:27:28.809486,-349
2021-12-23 17:27:28.809495,-337
2021-12-23 17:27:28.809501,-327
2021-12-23 17:27:28.809507,-323
2021-12-23 17:27:28.809513,-308
2021-12-23 17:27:28.809520,-289
2021-12-23 17:27:28.809526,-275
2021-12-23 17:27:28.809532,-259
2021-12-23 17:27:28.989066,-213
2021-12-23 17:27:28.989088,-111
2021-12-23 17:27:28.989096,11
2021-12-23 17:27:28.989103,83
2021-12-23 17:27:28.989109,125
2021-12-23 17:27:28.989116,161
2021-12-23 17:27:28.989122,201
2021-12-23 17:27:28.989129,251
2021-12-23 17:27:28.989135,308
2021-12-23 17:27:28.989142,382
2021-12-23 17:27:28.989148,430
2021-12-23 17:27:28.989155,439
2021-12-23 17:27:28.989161,453
2021-12-23 17:27:28.989168,472
2021-12-23 17:27:28.989174,489
2021-12-23 17:27:28.989181,487
2021-12-23 17:27:28.989188,461
2021-12-23 17:27:28.989194,418
2021-12-23 17:27:28.989200,325
2021-12-23 17:27:28.989207,218
2021-12-23 17:27:28.989213,178
2021-12-23 17:27:28.989220,149
2021-12-23 17:27:28.989226,102
2021-12-23 17:27:28.989233,106
2021-12-23 17:27:28.989239,135
2021-12-23 17:27:28.989246,123
2021-12-23 17:27:28.989252,114
2021-12-23 17:27:28.989259,111
2021-12-23 17:27:28.989265,73
2021-12-23 17:27:28.989272,33
2021-12-23 17:27:29.303391,40
2021-12-23 17:27:29.303422,49
2021-12-23 17:27:29.303434,21
2021-12-23 17:27:29.303448,7
2021-12-23 17:27:29.303458,33
2021-12-23 17:27:29.303468,59
2021-12-23 17:27:29.303477,66
2021-12-23 17:27:29.303487,76
2021-12-23 17:27:29.303497,87
2021-12-23 17:27:29.303506,80
2021-12-23 17:27:29.303516,68
2021-12-23 17:27:29.303538,73
2021-12-23 17:27:29.303549,76
2021-12-23 17:27:29.303559,71
2021-12-23 17:27:29.303569,66
2021-12-23 17:27:29.303578,61
2021-12-23 17:27:29.303588,47
2021-12-23 17:27:29.303598,30
2021-12-23 17:27:29.303607,30
2021-12-23 17:27:29.303617,47
2021-12-23 17:27:29.303627,66
2021-12-23 17:27:29.303637,78
2021-12-23 17:27:29.303646,90
2021-12-23 17:27:29.303656,106
2021-12-23 17:27:29.303666,109
2021-12-23 17:27:29.303675,76
2021-12-23 17:27:29.303685,38
2021-12-23 17:27:29.303695,23
2021-12-23 17:27:29.303704,33
2021-12-23 17:27:29.303714,40
2021-12-23 17:27:29.484718,45
2021-12-23 17:27:29.484749,52
2021-12-23 17:27:29.484761,59
2021-12-23 17:27:29.484771,42
2021-12-23 17:27:29.484781,2
2021-12-23 17:27:29.484804,35
2021-12-23 17:27:29.484815,356
2021-12-23 17:27:29.484825,1088
2021-12-23 17:27:29.484835,1915
2021-12-23 17:27:29.484845,2148
2021-12-23 17:27:29.484855,1219
2021-12-23 17:27:29.484865,-213
2021-12-23 17:27:29.484875,-529
2021-12-23 17:27:29.484885,52
2021-12-23 17:27:29.484895,73
2021-12-23 17:27:29.484905,-187
2021-12-23 17:27:29.484914,-78
2021-12-23 17:27:29.484924,-4
2021-12-23 17:27:29.484941,-78
2021-12-23 17:27:29.484951,-47
2021-12-23 17:27:29.484961,7
2021-12-23 17:27:29.484971,2
2021-12-23 17:27:29.484981,26
2021-12-23 17:27:29.484990,73
2021-12-23 17:27:29.485000,95
2021-12-23 17:27:29.485010,114
2021-12-23 17:27:29.485019,142
2021-12-23 17:27:29.485029,166
2021-12-23 17:27:29.485039,192
2021-12-23 17:27:29.485048,230
2021-12-23 17:27:29.754726,270
2021-12-23 17:27:29.754757,320
2021-12-23 17:27:29.754768,361
2021-12-23 17:27:29.754778,382
2021-12-23 17:27:29.754788,408
2021-12-23 17:27:29.754798,437
2021-12-23 17:27:29.754808,441
2021-12-23 17:27:29.754818,430
2021-12-23 17:27:29.754827,403
2021-12-23 17:27:29.754837,365
2021-12-23 17:27:29.754847,299
2021-12-23 17:27:29.754857,220
2021-12-23 17:27:29.754867,156
2021-12-23 17:27:29.754876,102
2021-12-23 17:27:29.754886,33
2021-12-23 17:27:29.754896,-35
2021-12-23 17:27:29.754906,-83
2021-12-23 17:27:29.754915,-111
2021-12-23 17:27:29.754925,-135
2021-12-23 17:27:29.754935,-147
2021-12-23 17:27:29.754945,-149
2021-12-23 17:27:29.754954,-166
2021-12-23 17:27:29.754964,-178
2021-12-23 17:27:29.754974,-154
2021-12-23 17:27:29.754984,-135
2021-12-23 17:27:29.755007,-135
2021-12-23 17:27:29.755017,-121
2021-12-23 17:27:29.755027,-95
2021-12-23 17:27:29.755037,-95
2021-12-23 17:27:29.755047,-92
2021-12-23 17:27:29.934664,-76
2021-12-23 17:27:29.934684,-68
2021-12-23 17:27:29.934692,-73
2021-12-23 17:27:29.934699,-66
2021-12-23 17:27:29.934705,-61
2021-12-23 17:27:29.934712,-59
2021-12-23 17:27:29.934718,-59
2021-12-23 17:27:29.934725,-71
2021-12-23 17:27:29.934731,-87
2021-12-23 17:27:29.934764,-90
2021-12-23 17:27:29.934778,-90
2021-12-23 17:27:29.934785,-87
2021-12-23 17:27:29.934791,-90
2021-12-23 17:27:29.934798,-99
2021-12-23 17:27:29.934804,-99
2021-12-23 17:27:29.934811,-92
2021-12-23 17:27:29.934817,-97
2021-12-23 17:27:29.934823,-92
2021-12-23 17:27:29.934830,-85
2021-12-23 17:27:29.934836,-95
2021-12-23 17:27:29.934842,-104
2021-12-23 17:27:29.934849,-104
2021-12-23 17:27:29.934855,-97
2021-12-23 17:27:29.934861,-85
2021-12-23 17:27:29.934868,-83
2021-12-23 17:27:29.934874,-87
2021-12-23 17:27:29.934880,-92
2021-12-23 17:27:29.934886,-92
2021-12-23 17:27:29.934893,-90
2021-12-23 17:27:29.934899,-83
2021-12-23 17:27:30.248393,-78
2021-12-23 17:27:30.248424,-64
2021-12-23 17:27:30.248436,-47
2021-12-23 17:27:30.248446,-49
2021-12-23 17:27:30.248455,-59
2021-12-23 17:27:30.248465,-54
2021-12-23 17:27:30.248475,-57
2021-12-23 17:27:30.248484,-64
2021-12-23 17:27:30.248494,-66
2021-12-23 17:27:30.248504,-83
2021-12-23 17:27:30.248513,-83
2021-12-23 17:27:30.248523,-68
2021-12-23 17:27:30.248533,-83
2021-12-23 17:27:30.248542,-104
2021-12-23 17:27:30.248552,-97
2021-12-23 17:27:30.248562,-83
2021-12-23 17:27:30.248571,-87
2021-12-23 17:27:30.248594,-87
2021-12-23 17:27:30.248605,-76
2021-12-23 17:27:30.248615,-80
2021-12-23 17:27:30.248624,-85
2021-12-23 17:27:30.248634,-66
2021-12-23 17:27:30.248651,-76
2021-12-23 17:27:30.248661,-109
2021-12-23 17:27:30.248671,-123
2021-12-23 17:27:30.248681,-142
2021-12-23 17:27:30.248690,-168
2021-12-23 17:27:30.248700,-171
2021-12-23 17:27:30.248710,-161
2021-12-23 17:27:30.248719,-166
2021-12-23 17:27:30.384893,-192
2021-12-23 17:27:30.384925,-230
2021-12-23 17:27:30.384937,-197
2021-12-23 17:27:30.384948,133
2021-12-23 17:27:30.384957,902
2021-12-23 17:27:30.384967,1734
2021-12-23 17:27:30.384985,1908
2021-12-23 17:27:30.384995,879
2021-12-23 17:27:30.385005,-589
2021-12-23 17:27:30.385014,-841
2021-12-23 17:27:30.385024,-261
2021-12-23 17:27:30.385034,-251
2021-12-23 17:27:30.385044,-415
2021-12-23 17:27:30.385054,-259
2021-12-23 17:27:30.385063,-194
2021-12-23 17:27:30.385073,-273
2021-12-23 17:27:30.385083,-273
2021-12-23 17:27:30.385092,-209
2021-12-23 17:27:30.385102,-206
2021-12-23 17:27:30.385112,-244
2021-12-23 17:27:30.385122,-182
2021-12-23 17:27:30.385131,-97
2021-12-23 17:27:30.385141,-116
2021-12-23 17:27:30.385151,-114
2021-12-23 17:27:30.385160,-26
2021-12-23 17:27:30.385170,19
2021-12-23 17:27:30.385180,14
2021-12-23 17:27:30.385190,38
2021-12-23 17:27:30.385199,92
2021-12-23 17:27:30.385209,144
2021-12-23 17:27:30.699728,178
2021-12-23 17:27:30.699759,185
2021-12-23 17:27:30.699771,197
2021-12-23 17:27:30.699781,230
2021-12-23 17:27:30.699791,228
2021-12-23 17:27:30.699801,201
2021-12-23 17:27:30.699810,180
2021-12-23 17:27:30.699820,133
2021-12-23 17:27:30.699830,66
2021-12-23 17:27:30.699839,16
2021-12-23 17:27:30.699849,-40
2021-12-23 17:27:30.699859,-106
2021-12-23 17:27:30.699868,-149
2021-12-23 17:27:30.699878,-175
2021-12-23 17:27:30.699887,-209
2021-12-23 17:27:30.699897,-240
2021-12-23 17:27:30.699906,-249
2021-12-23 17:27:30.699916,-254
2021-12-23 17:27:30.699925,-256
2021-12-23 17:27:30.699935,-244
2021-12-23 17:27:30.699944,-235
2021-12-23 17:27:30.699954,-225
2021-12-23 17:27:30.699963,-206
2021-12-23 17:27:30.699973,-192
2021-12-23 17:27:30.699982,-192
2021-12-23 17:27:30.699992,-190
2021-12-23 17:27:30.700001,-194
2021-12-23 17:27:30.700011,-204
2021-12-23 17:27:30.700020,-192
2021-12-23 17:27:30.700030,-161
2021-12-23 17:27:30.834425,-154
2021-12-23 17:27:30.834448,-171
2021-12-23 17:27:30.834456,-166
2021-12-23 17:27:30.834463,-161
2021-12-23 17:27:30.834469,-185
2021-12-23 17:27:30.834475,-190
2021-12-23 17:27:30.834482,-163
2021-12-23 17:27:30.834488,-159
2021-12-23 17:27:30.834494,-175
2021-12-23 17:27:30.834501,-171
2021-12-23 17:27:30.834513,-156
2021-12-23 17:27:30.834520,-159
2021-12-23 17:27:30.834526,-163
2021-12-23 17:27:30.834533,-152
2021-12-23 17:27:30.834539,-137
2021-12-23 17:27:30.834545,-137
2021-12-23 17:27:30.834552,-156
2021-12-23 17:27:30.834558,-171
2021-12-23 17:27:30.834564,-147
2021-12-23 17:27:30.834571,-116
2021-12-23 17:27:30.834577,-123
2021-12-23 17:27:30.834583,-130
2021-12-23 17:27:30.834589,-116
2021-12-23 17:27:30.834596,-104
2021-12-23 17:27:30.834602,-99
2021-12-23 17:27:30.834609,-97
2021-12-23 17:27:30.834615,-92
2021-12-23 17:27:30.834621,-87
2021-12-23 17:27:30.834627,-87
2021-12-23 17:27:30.834634,-83
2021-12-23 17:27:31.149917,-73
2021-12-23 17:27:31.149947,-66
2021-12-23 17:27:31.149958,-64
2021-12-23 17:27:31.149968,-64
2021-12-23 17:27:31.149978,-64
2021-12-23 17:27:31.149988,-59
2021-12-23 17:27:31.149998,-52
2021-12-23 17:27:31.150007,-52
2021-12-23 17:27:31.150017,-54
2021-12-23 17:27:31.150027,-47
2021-12-23 17:27:31.150037,-33
2021-12-23 17:27:31.150046,-9
2021-12-23 17:27:31.150056,9
2021-12-23 17:27:31.150066,14
2021-12-23 17:27:31.150076,11
2021-12-23 17:27:31.150086,-2
2021-12-23 17:27:31.150095,-28
2021-12-23 17:27:31.150105,-47
2021-12-23 17:27:31.150115,-47
2021-12-23 17:27:31.150124,-45
2021-12-23 17:27:31.150134,-52
2021-12-23 17:27:31.150144,-61
2021-12-23 17:27:31.150154,-57
2021-12-23 17:27:31.150176,-49
2021-12-23 17:27:31.150187,-57
2021-12-23 17:27:31.150197,-52
2021-12-23 17:27:31.150207,104
2021-12-23 17:27:31.150217,598
2021-12-23 17:27:31.150227,1344
2021-12-23 17:27:31.150236,1853
2021-12-23 17:27:31.373449,1461
2021-12-23 17:27:31.373479,199
2021-12-23 17:27:31.373492,-577
2021-12-23 17:27:31.373502,-220
2021-12-23 17:27:31.373512,54
2021-12-23 17:27:31.373521,-161
2021-12-23 17:27:31.373531,-178
2021-12-23 17:27:31.373540,-71
2021-12-23 17:27:31.373550,-130
2021-12-23 17:27:31.373560,-154
2021-12-23 17:27:31.373569,-95
2021-12-23 17:27:31.373579,-85
2021-12-23 17:27:31.373589,-87
2021-12-23 17:27:31.373598,-57
2021-12-23 17:27:31.373608,-35
2021-12-23 17:27:31.373631,-23
2021-12-23 17:27:31.373641,11
2021-12-23 17:27:31.373651,45
2021-12-23 17:27:31.373661,76
2021-12-23 17:27:31.373671,128
2021-12-23 17:27:31.373681,147
2021-12-23 17:27:31.373690,130
2021-12-23 17:27:31.373705,142
2021-12-23 17:27:31.373715,185
2021-12-23 17:27:31.373725,206
2021-12-23 17:27:31.373735,204
2021-12-23 17:27:31.373744,213
2021-12-23 17:27:31.373754,228
2021-12-23 17:27:31.373764,225
2021-12-23 17:27:31.373774,209
2021-12-23 17:27:31.554781,173
2021-12-23 17:27:31.554811,114
2021-12-23 17:27:31.554823,33
2021-12-23 17:27:31.554834,-49
2021-12-23 17:27:31.554843,-109
2021-12-23 17:27:31.554853,-149
2021-12-23 17:27:31.554863,-194
2021-12-23 17:27:31.554872,-244
2021-12-23 17:27:31.554882,-275
2021-12-23 17:27:31.554892,-294
2021-12-23 17:27:31.554901,-306
2021-12-23 17:27:31.554911,-299
2021-12-23 17:27:31.554921,-289
2021-12-23 17:27:31.554930,-297
2021-12-23 17:27:31.554940,-299
2021-12-23 17:27:31.554949,-285
2021-12-23 17:27:31.554959,-266
2021-12-23 17:27:31.554969,-249
2021-12-23 17:27:31.554978,-247
2021-12-23 17:27:31.554988,-240
2021-12-23 17:27:31.554998,-223
2021-12-23 17:27:31.555007,-218
2021-12-23 17:27:31.555017,-225
2021-12-23 17:27:31.555026,-223
2021-12-23 17:27:31.555036,-209
2021-12-23 17:27:31.555045,-218
2021-12-23 17:27:31.555055,-244
2021-12-23 17:27:31.555065,-242
2021-12-23 17:27:31.555074,-218
2021-12-23 17:27:31.555084,-216
2021-12-23 17:27:31.779764,-223
2021-12-23 17:27:31.779795,-223
2021-12-23 17:27:31.779806,-218
2021-12-23 17:27:31.779816,-220
2021-12-23 17:27:31.779826,-218
2021-12-23 17:27:31.779849,-199
2021-12-23 17:27:31.779859,-201
2021-12-23 17:27:31.779869,-218
2021-12-23 17:27:31.779878,-201
2021-12-23 17:27:31.779888,-173
2021-12-23 17:27:31.779898,-173
2021-12-23 17:27:31.779907,-185
2021-12-23 17:27:31.779917,-182
2021-12-23 17:27:31.779927,-173
2021-12-23 17:27:31.779936,-182
2021-12-23 17:27:31.779946,-192
2021-12-23 17:27:31.779955,-185
2021-12-23 17:27:31.779965,-171
2021-12-23 17:27:31.779974,-166
2021-12-23 17:27:31.779984,-163
2021-12-23 17:27:31.779994,-156
2021-12-23 17:27:31.780003,-152
2021-12-23 17:27:31.780013,-152
2021-12-23 17:27:31.780022,-156
2021-12-23 17:27:31.780032,-156
2021-12-23 17:27:31.780042,-144
2021-12-23 17:27:31.780051,-116
2021-12-23 17:27:31.780061,-90
2021-12-23 17:27:31.780070,-80
2021-12-23 17:27:31.780080,-73
2021-12-23 17:27:32.004773,-73
2021-12-23 17:27:32.004804,-90
2021-12-23 17:27:32.004815,-102
2021-12-23 17:27:32.004825,-99
2021-12-23 17:27:32.004835,-85
2021-12-23 17:27:32.004845,-66
2021-12-23 17:27:32.004854,-59
2021-12-23 17:27:32.004864,-90
2021-12-23 17:27:32.004874,-121
2021-12-23 17:27:32.004883,-111
2021-12-23 17:27:32.004893,-71
2021-12-23 17:27:32.004903,92
2021-12-23 17:27:32.004913,546
2021-12-23 17:27:32.004927,1290
2021-12-23 17:27:32.004937,1958
2021-12-23 17:27:32.004947,1794
2021-12-23 17:27:32.004957,489
2021-12-23 17:27:32.004967,-613
2021-12-23 17:27:32.004977,-363
2021-12-23 17:27:32.004986,85
2021-12-23 17:27:32.004996,-125
2021-12-23 17:27:32.005006,-225
2021-12-23 17:27:32.005015,-61
2021-12-23 17:27:32.005025,-61
2021-12-23 17:27:32.005035,-111
2021-12-23 17:27:32.005045,-54
2021-12-23 17:27:32.005054,-14
2021-12-23 17:27:32.005064,-16
2021-12-23 17:27:32.005074,9
2021-12-23 17:27:32.005096,68
2021-12-23 17:27:32.229789,130
2021-12-23 17:27:32.229811,144
2021-12-23 17:27:32.229819,116
2021-12-23 17:27:32.229825,140
2021-12-23 17:27:32.229832,206
2021-12-23 17:27:32.229838,230
2021-12-23 17:27:32.229844,235
2021-12-23 17:27:32.229851,268
2021-12-23 17:27:32.229857,304
2021-12-23 17:27:32.229863,325
2021-12-23 17:27:32.229870,346
2021-12-23 17:27:32.229876,351
2021-12-23 17:27:32.229882,344
2021-12-23 17:27:32.229889,337
2021-12-23 17:27:32.229895,337
2021-12-23 17:27:32.229901,325
2021-12-23 17:27:32.229907,278
2021-12-23 17:27:32.229914,216
2021-12-23 17:27:32.229920,156
2021-12-23 17:27:32.229926,95
2021-12-23 17:27:32.229933,38
2021-12-23 17:27:32.229939,-11
2021-12-23 17:27:32.229945,-54
2021-12-23 17:27:32.229952,-78
2021-12-23 17:27:32.229958,-92
2021-12-23 17:27:32.229964,-102
2021-12-23 17:27:32.229971,-87
2021-12-23 17:27:32.229977,-80
2021-12-23 17:27:32.229983,-99
2021-12-23 17:27:32.229989,-97
2021-12-23 17:27:32.454890,-66
2021-12-23 17:27:32.454922,-47
2021-12-23 17:27:32.454933,-42
2021-12-23 17:27:32.454976,-45
2021-12-23 17:27:32.454986,-47
2021-12-23 17:27:32.454995,-42
2021-12-23 17:27:32.455005,-28
2021-12-23 17:27:32.455014,-9
2021-12-23 17:27:32.455024,0
2021-12-23 17:27:32.455034,2
2021-12-23 17:27:32.455044,0
2021-12-23 17:27:32.455053,-2
2021-12-23 17:27:32.455063,-4
2021-12-23 17:27:32.455072,-7
2021-12-23 17:27:32.455082,-4
2021-12-23 17:27:32.455092,4
2021-12-23 17:27:32.455101,11
2021-12-23 17:27:32.455111,14
2021-12-23 17:27:32.455120,19
2021-12-23 17:27:32.455130,16
2021-12-23 17:27:32.455139,2
2021-12-23 17:27:32.455149,-14
2021-12-23 17:27:32.455158,-26
2021-12-23 17:27:32.455168,-21
2021-12-23 17:27:32.455177,-9
2021-12-23 17:27:32.455187,2
2021-12-23 17:27:32.455196,4
2021-12-23 17:27:32.455206,9
2021-12-23 17:27:32.455216,19
2021-12-23 17:27:32.455225,19
2021-12-23 17:27:32.679245,19
2021-12-23 17:27:32.679267,28
2021-12-23 17:27:32.679273,33
2021-12-23 17:27:32.679279,23
2021-12-23 17:27:32.679284,26
2021-12-23 17:27:32.679289,40
2021-12-23 17:27:32.679294,59
2021-12-23 17:27:32.679299,76
2021-12-23 17:27:32.679304,90
2021-12-23 17:27:32.679309,95
2021-12-23 17:27:32.679314,78
2021-12-23 17:27:32.679319,47
2021-12-23 17:27:32.679324,26
2021-12-23 17:27:32.679329,16
2021-12-23 17:27:32.679334,16
2021-12-23 17:27:32.679343,16
2021-12-23 17:27:32.679348,2
2021-12-23 17:27:32.679353,0
2021-12-23 17:27:32.679359,11
2021-12-23 17:27:32.679364,9
2021-12-23 17:27:32.679369,14
2021-12-23 17:27:32.679374,182
2021-12-23 17:27:32.679379,765
2021-12-23 17:27:32.679384,1653
2021-12-23 17:27:32.679389,2181
2021-12-23 17:27:32.679394,1604
2021-12-23 17:27:32.679399,133
2021-12-23 17:27:32.679404,-655
2021-12-23 17:27:32.679410,-182
2021-12-23 17:27:32.679415,140
2021-12-23 17:27:32.949752,-90
2021-12-23 17:27:32.949792,-99
2021-12-23 17:27:32.949804,14
2021-12-23 17:27:32.949815,-40
2021-12-23 17:27:32.949825,-57
2021-12-23 17:27:32.949835,0
2021-12-23 17:27:32.949844,7
2021-12-23 17:27:32.949854,2
2021-12-23 17:27:32.949864,21
2021-12-23 17:27:32.949873,33
2021-12-23 17:27:32.949883,40
2021-12-23 17:27:32.949892,66
2021-12-23 17:27:32.949902,95
2021-12-23 17:27:32.949911,118
2021-12-23 17:27:32.949921,152
2021-12-23 17:27:32.949930,187
2021-12-23 17:27:32.949940,228
2021-12-23 17:27:32.949949,266
2021-12-23 17:27:32.949959,294
2021-12-23 17:27:32.949969,323
2021-12-23 17:27:32.949978,363
2021-12-23 17:27:32.949988,380
2021-12-23 17:27:32.949997,370
2021-12-23 17:27:32.950007,365
2021-12-23 17:27:32.950016,358
2021-12-23 17:27:32.950026,318
2021-12-23 17:27:32.950036,247
2021-12-23 17:27:32.950045,173
2021-12-23 17:27:32.950056,109
2021-12-23 17:27:32.950065,45
2021-12-23 17:27:33.174759,-19
2021-12-23 17:27:33.174789,-76
2021-12-23 17:27:33.174801,-125
2021-12-23 17:27:33.174811,-166
2021-12-23 17:27:33.174820,-182
2021-12-23 17:27:33.174830,-173
2021-12-23 17:27:33.174840,-156
2021-12-23 17:27:33.174849,-166
2021-12-23 17:27:33.174859,-185
2021-12-23 17:27:33.174869,-192
2021-12-23 17:27:33.174879,-194
2021-12-23 17:27:33.174888,-194
2021-12-23 17:27:33.174898,-178
2021-12-23 17:27:33.174908,-159
2021-12-23 17:27:33.174917,-159
2021-12-23 17:27:33.174927,-156
2021-12-23 17:27:33.174937,-142
2021-12-23 17:27:33.174946,-128
2021-12-23 17:27:33.174956,-116
2021-12-23 17:27:33.174966,-111
2021-12-23 17:27:33.174975,-121
2021-12-23 17:27:33.174985,-116
2021-12-23 17:27:33.174995,-102
2021-12-23 17:27:33.175004,-109
2021-12-23 17:27:33.175014,-116
2021-12-23 17:27:33.175034,-111
2021-12-23 17:27:33.175044,-121
2021-12-23 17:27:33.175054,-137
2021-12-23 17:27:33.175064,-125
2021-12-23 17:27:33.175073,-114
2021-12-23 17:27:33.488418,-118
2021-12-23 17:27:33.488440,-125
2021-12-23 17:27:33.488448,-152
2021-12-23 17:27:33.488454,-180
2021-12-23 17:27:33.488461,-168
2021-12-23 17:27:33.488467,-154
2021-12-23 17:27:33.488473,-166
2021-12-23 17:27:33.488480,-178
2021-12-23 17:27:33.488486,-182
2021-12-23 17:27:33.488492,-163
2021-12-23 17:27:33.488499,-140
2021-12-23 17:27:33.488505,-152
2021-12-23 17:27:33.488511,-168
2021-12-23 17:27:33.488518,-154
2021-12-23 17:27:33.488524,-142
2021-12-23 17:27:33.488530,-149
2021-12-23 17:27:33.488536,-140
2021-12-23 17:27:33.488543,-111
2021-12-23 17:27:33.488549,-80
2021-12-23 17:27:33.488555,-68
2021-12-23 17:27:33.488562,-59
2021-12-23 17:27:33.488568,-33
2021-12-23 17:27:33.488575,-30
2021-12-23 17:27:33.488581,-57
2021-12-23 17:27:33.488587,-68
2021-12-23 17:27:33.488593,-52
2021-12-23 17:27:33.488600,-28
2021-12-23 17:27:33.488606,-14
2021-12-23 17:27:33.488616,-4
2021-12-23 17:27:33.488622,21
2021-12-23 17:27:33.624751,45
2021-12-23 17:27:33.624781,52
2021-12-23 17:27:33.624793,66
2021-12-23 17:27:33.624803,185
2021-12-23 17:27:33.624813,615
2021-12-23 17:27:33.624822,1421
2021-12-23 17:27:33.624832,2157
2021-12-23 17:27:33.624842,2029
2021-12-23 17:27:33.624851,705
2021-12-23 17:27:33.624861,-487
2021-12-23 17:27:33.624871,-244
2021-12-23 17:27:33.624881,275
2021-12-23 17:27:33.624890,85
2021-12-23 17:27:33.624900,-30
2021-12-23 17:27:33.624910,104
2021-12-23 17:27:33.624933,71
2021-12-23 17:27:33.624944,16
2021-12-23 17:27:33.624954,68
2021-12-23 17:27:33.624964,71
2021-12-23 17:27:33.624973,35
2021-12-23 17:27:33.624983,54
2021-12-23 17:27:33.624993,80
2021-12-23 17:27:33.625003,90
2021-12-23 17:27:33.625012,102
2021-12-23 17:27:33.625022,102
2021-12-23 17:27:33.625032,111
2021-12-23 17:27:33.625042,154
2021-12-23 17:27:33.625052,190
2021-12-23 17:27:33.625061,209
2021-12-23 17:27:33.625071,240
2021-12-23 17:27:33.894401,285
2021-12-23 17:27:33.894424,318
2021-12-23 17:27:33.894431,337
2021-12-23 17:27:33.894438,358
2021-12-23 17:27:33.894444,380
2021-12-23 17:27:33.894451,384
2021-12-23 17:27:33.894457,380
2021-12-23 17:27:33.894464,354
2021-12-23 17:27:33.894470,299
2021-12-23 17:27:33.894476,230
2021-12-23 17:27:33.894483,166
2021-12-23 17:27:33.894489,106
2021-12-23 17:27:33.894495,54
2021-12-23 17:27:33.894502,30
2021-12-23 17:27:33.894508,11
2021-12-23 17:27:33.894514,-19
2021-12-23 17:27:33.894520,-30
2021-12-23 17:27:33.894527,-23
2021-12-23 17:27:33.894533,-16
2021-12-23 17:27:33.894539,2
2021-12-23 17:27:33.894546,4
2021-12-23 17:27:33.894552,-2
2021-12-23 17:27:33.894558,7
2021-12-23 17:27:33.894565,19
2021-12-23 17:27:33.894571,30
2021-12-23 17:27:33.894577,38
2021-12-23 17:27:33.894583,38
2021-12-23 17:27:33.894590,49
2021-12-23 17:27:33.894596,68
2021-12-23 17:27:33.894602,87
2021-12-23 17:27:34.074731,111
2021-12-23 17:27:34.074762,137
2021-12-23 17:27:34.074774,147
2021-12-23 17:27:34.074784,137
2021-12-23 17:27:34.074794,121
2021-12-23 17:27:34.074805,114
2021-12-23 17:27:34.074815,121
2021-12-23 17:27:34.074824,123
2021-12-23 17:27:34.074834,125
2021-12-23 17:27:34.074844,135
2021-12-23 17:27:34.074854,156
2021-12-23 17:27:34.074863,178
2021-12-23 17:27:34.074873,194
2021-12-23 17:27:34.074883,211
2021-12-23 17:27:34.074893,228
2021-12-23 17:27:34.074903,235
2021-12-23 17:27:34.074913,232
2021-12-23 17:27:34.074923,232
2021-12-23 17:27:34.074933,240
2021-12-23 17:27:34.074942,242
2021-12-23 17:27:34.074952,237
2021-12-23 17:27:34.074962,223
2021-12-23 17:27:34.074972,213
2021-12-23 17:27:34.074982,220
2021-12-23 17:27:34.075009,218
2021-12-23 17:27:34.075019,213
2021-12-23 17:27:34.075029,204
2021-12-23 17:27:34.075039,187
2021-12-23 17:27:34.075049,192
2021-12-23 17:27:34.075059,213
2021-12-23 17:27:34.389082,223
2021-12-23 17:27:34.389103,223
2021-12-23 17:27:34.389111,201
2021-12-23 17:27:34.389118,178
2021-12-23 17:27:34.389124,156
2021-12-23 17:27:34.389130,147
2021-12-23 17:27:34.389137,152
2021-12-23 17:27:34.389143,156
2021-12-23 17:27:34.389149,159
2021-12-23 17:27:34.389156,163
2021-12-23 17:27:34.389162,154
2021-12-23 17:27:34.389168,135
2021-12-23 17:27:34.389175,168
2021-12-23 17:27:34.389181,382
2021-12-23 17:27:34.389187,969
2021-12-23 17:27:34.389194,1822
2021-12-23 17:27:34.389200,2307
2021-12-23 17:27:34.389206,1646
2021-12-23 17:27:34.389213,111
2021-12-23 17:27:34.389219,-586
2021-12-23 17:27:34.389226,-52
2021-12-23 17:27:34.389232,187
2021-12-23 17:27:34.389238,-64
2021-12-23 17:27:34.389245,-19
2021-12-23 17:27:34.389254,114
2021-12-23 17:27:34.389261,66
2021-12-23 17:27:34.389267,73
2021-12-23 17:27:34.389273,147
2021-12-23 17:27:34.389280,159
2021-12-23 17:27:34.389286,161
2021-12-23 17:27:34.569680,199
2021-12-23 17:27:34.569726,235
2021-12-23 17:27:34.569738,242
2021-12-23 17:27:34.569748,240
2021-12-23 17:27:34.569758,263
2021-12-23 17:27:34.569767,297
2021-12-23 17:27:34.569777,327
2021-12-23 17:27:34.569787,365
2021-12-23 17:27:34.569797,384
2021-12-23 17:27:34.569806,382
2021-12-23 17:27:34.569816,411
2021-12-23 17:27:34.569826,453
2021-12-23 17:27:34.569836,475
2021-12-23 17:27:34.569845,487
2021-12-23 17:27:34.569855,491
2021-12-23 17:27:34.569865,480
2021-12-23 17:27:34.569875,456
2021-12-23 17:27:34.569884,415
2021-12-23 17:27:34.569894,351
2021-12-23 17:27:34.569904,278
2021-12-23 17:27:34.569914,216
2021-12-23 17:27:34.569923,154
2021-12-23 17:27:34.569933,90
2021-12-23 17:27:34.569943,42
2021-12-23 17:27:34.569953,16
2021-12-23 17:27:34.569962,14
2021-12-23 17:27:34.569972,21
2021-12-23 17:27:34.569982,16
2021-12-23 17:27:34.569992,2
2021-12-23 17:27:34.570001,-2
2021-12-23 17:27:34.884703,7
2021-12-23 17:27:34.884733,23
2021-12-23 17:27:34.884745,40
2021-12-23 17:27:34.884755,49
2021-12-23 17:27:34.884765,59
2021-12-23 17:27:34.884774,49
2021-12-23 17:27:34.884784,35
2021-12-23 17:27:34.884794,57
2021-12-23 17:27:34.884803,85
2021-12-23 17:27:34.884813,59
2021-12-23 17:27:34.884823,21
2021-12-23 17:27:34.884832,26
2021-12-23 17:27:34.884842,47
2021-12-23 17:27:34.884852,52
2021-12-23 17:27:34.884861,38
2021-12-23 17:27:34.884871,16
2021-12-23 17:27:34.884881,-4
2021-12-23 17:27:34.884891,-26
2021-12-23 17:27:34.884900,-45
2021-12-23 17:27:34.884910,-49
2021-12-23 17:27:34.884920,-40
2021-12-23 17:27:34.884930,-33
2021-12-23 17:27:34.884939,-19
2021-12-23 17:27:34.884949,-2
2021-12-23 17:27:34.884959,-14
2021-12-23 17:27:34.884968,-28
2021-12-23 17:27:34.884978,-26
2021-12-23 17:27:34.884988,-26
2021-12-23 17:27:34.884997,-30
2021-12-23 17:27:34.885007,-30
2021-12-23 17:27:35.064183,-28
2021-12-23 17:27:35.064204,-42
2021-12-23 17:27:35.064212,-68
2021-12-23 17:27:35.064219,-73
2021-12-23 17:27:35.064225,-59
2021-12-23 17:27:35.064231,-59
2021-12-23 17:27:35.064237,-64
2021-12-23 17:27:35.064244,-52
2021-12-23 17:27:35.064250,-21
2021-12-23 17:27:35.064256,4
2021-12-23 17:27:35.064263,11
2021-12-23 17:27:35.064269,26
2021-12-23 17:27:35.064276,23
2021-12-23 17:27:35.064282,-9
2021-12-23 17:27:35.064289,-49
2021-12-23 17:27:35.064295,-80
2021-12-23 17:27:35.064301,-95
2021-12-23 17:27:35.064308,-80
2021-12-23 17:27:35.064314,-59
2021-12-23 17:27:35.064320,-64
2021-12-23 17:27:35.064327,-87
2021-12-23 17:27:35.064342,-104
2021-12-23 17:27:35.064350,-95
2021-12-23 17:27:35.064356,68
2021-12-23 17:27:35.064363,632
2021-12-23 17:27:35.064369,1525
2021-12-23 17:27:35.064375,2131
2021-12-23 17:27:35.064382,1653
2021-12-23 17:27:35.064388,109
2021-12-23 17:27:35.064395,-860
2021-12-23 17:27:35.244759,-394
2021-12-23 17:27:35.244790,11
2021-12-23 17:27:35.244801,-223
2021-12-23 17:27:35.244811,-242
2021-12-23 17:27:35.244821,-102
2021-12-23 17:27:35.244844,-147
2021-12-23 17:27:35.244854,-159
2021-12-23 17:27:35.244864,-76
2021-12-23 17:27:35.244874,-61
2021-12-23 17:27:35.244883,-78
2021-12-23 17:27:35.244893,-54
2021-12-23 17:27:35.244903,-30
2021-12-23 17:27:35.244912,-21
2021-12-23 17:27:35.244922,-4
2021-12-23 17:27:35.244931,23
2021-12-23 17:27:35.244941,97
2021-12-23 17:27:35.244950,240
2021-12-23 17:27:35.244960,332
2021-12-23 17:27:35.244970,299
2021-12-23 17:27:35.244979,275
2021-12-23 17:27:35.244989,313
2021-12-23 17:27:35.244999,368
2021-12-23 17:27:35.245008,427
2021-12-23 17:27:35.245018,377
2021-12-23 17:27:35.245027,256
2021-12-23 17:27:35.245037,342
2021-12-23 17:27:35.245047,529
2021-12-23 17:27:35.245056,472
2021-12-23 17:27:35.245066,318
2021-12-23 17:27:35.245076,285
2021-12-23 17:27:35.513487,242
2021-12-23 17:27:35.513518,144
2021-12-23 17:27:35.513530,80
2021-12-23 17:27:35.513540,38
2021-12-23 17:27:35.513555,-23
2021-12-23 17:27:35.513565,-66
2021-12-23 17:27:35.513574,-78
2021-12-23 17:27:35.513584,-80
2021-12-23 17:27:35.513594,-68
2021-12-23 17:27:35.513603,-54
2021-12-23 17:27:35.513613,-73
2021-12-23 17:27:35.513623,-106
2021-12-23 17:27:35.513632,-106
2021-12-23 17:27:35.513642,-85
2021-12-23 17:27:35.513652,-73
2021-12-23 17:27:35.513661,-57
2021-12-23 17:27:35.513671,-33
2021-12-23 17:27:35.513681,-14
2021-12-23 17:27:35.513691,-14
2021-12-23 17:27:35.513700,-23
2021-12-23 17:27:35.513710,-30
2021-12-23 17:27:35.513720,-35
2021-12-23 17:27:35.513729,-49
2021-12-23 17:27:35.513739,-68
2021-12-23 17:27:35.513749,-83
2021-12-23 17:27:35.513787,-90
2021-12-23 17:27:35.513798,-106
2021-12-23 17:27:35.513808,-154
2021-12-23 17:27:35.513818,-225
2021-12-23 17:27:35.513828,-261
2021-12-23 17:27:35.694430,-247
2021-12-23 17:27:35.694451,-235
2021-12-23 17:27:35.694458,-240
2021-12-23 17:27:35.694464,-211
2021-12-23 17:27:35.694469,-76
2021-12-23 17:27:35.694474,-64
2021-12-23 17:27:35.694479,-244
2021-12-23 17:27:35.694484,-237
2021-12-23 17:27:35.694490,-182
2021-12-23 17:27:35.694495,-263
2021-12-23 17:27:35.694500,-225
2021-12-23 17:27:35.694505,-161
2021-12-23 17:27:35.694510,-235
2021-12-23 17:27:35.694515,-266
2021-12-23 17:27:35.694520,-197
2021-12-23 17:27:35.694525,-144
2021-12-23 17:27:35.694531,-140
2021-12-23 17:27:35.694536,-187
2021-12-23 17:27:35.694541,-235
2021-12-23 17:27:35.694546,-197
2021-12-23 17:27:35.694551,-171
2021-12-23 17:27:35.694556,-204
2021-12-23 17:27:35.694561,-180
2021-12-23 17:27:35.694566,-140
2021-12-23 17:27:35.694571,-152
2021-12-23 17:27:35.694576,-154
2021-12-23 17:27:35.694581,-97
2021-12-23 17:27:35.694587,211
2021-12-23 17:27:35.694592,995
2021-12-23 17:27:35.694597,1924
2021-12-23 17:27:35.919669,2233
2021-12-23 17:27:35.919699,1276
2021-12-23 17:27:35.919711,-280
2021-12-23 17:27:35.919722,-665
2021-12-23 17:27:35.919732,-118
2021-12-23 17:27:35.919741,-123
2021-12-23 17:27:35.919751,-327
2021-12-23 17:27:35.919761,-175
2021-12-23 17:27:35.919770,-130
2021-12-23 17:27:35.919780,-213
2021-12-23 17:27:35.919790,-166
2021-12-23 17:27:35.919800,-118
2021-12-23 17:27:35.919809,-133
2021-12-23 17:27:35.919819,-114
2021-12-23 17:27:35.919829,-71
2021-12-23 17:27:35.919838,-45
2021-12-23 17:27:35.919848,-30
2021-12-23 17:27:35.919858,4
2021-12-23 17:27:35.919868,80
2021-12-23 17:27:35.919877,149
2021-12-23 17:27:35.919887,154
2021-12-23 17:27:35.919896,121
2021-12-23 17:27:35.919906,130
2021-12-23 17:27:35.919916,182
2021-12-23 17:27:35.919925,223
2021-12-23 17:27:35.919935,220
2021-12-23 17:27:35.919945,218
2021-12-23 17:27:35.919955,225
2021-12-23 17:27:35.919964,182
2021-12-23 17:27:35.919974,133
2021-12-23 17:27:36.144834,106
2021-12-23 17:27:36.144865,42
2021-12-23 17:27:36.144877,-40
2021-12-23 17:27:36.144887,-71
2021-12-23 17:27:36.144897,-109
2021-12-23 17:27:36.144906,-199
2021-12-23 17:27:36.144916,-254
2021-12-23 17:27:36.144926,-230
2021-12-23 17:27:36.144935,-204
2021-12-23 17:27:36.144945,-254
2021-12-23 17:27:36.144955,-304
2021-12-23 17:27:36.144965,-292
2021-12-23 17:27:36.144974,-235
2021-12-23 17:27:36.144984,-173
2021-12-23 17:27:36.144994,-156
2021-12-23 17:27:36.145003,-173
2021-12-23 17:27:36.145013,-178
2021-12-23 17:27:36.145023,-159
2021-12-23 17:27:36.145032,-166
2021-12-23 17:27:36.145042,-182
2021-12-23 17:27:36.145051,-166
2021-12-23 17:27:36.145061,-187
2021-12-23 17:27:36.145071,-204
2021-12-23 17:27:36.145080,-137
2021-12-23 17:27:36.145090,-80
2021-12-23 17:27:36.145100,-80
2021-12-23 17:27:36.145109,-85
2021-12-23 17:27:36.145119,-73
2021-12-23 17:27:36.145129,-42
2021-12-23 17:27:36.145138,-21
2021-12-23 17:27:36.414611,-21
2021-12-23 17:27:36.414641,-14
2021-12-23 17:27:36.414653,-19
2021-12-23 17:27:36.414663,-52
2021-12-23 17:27:36.414672,-57
2021-12-23 17:27:36.414682,-42
2021-12-23 17:27:36.414692,-47
2021-12-23 17:27:36.414701,-52
2021-12-23 17:27:36.414711,-49
2021-12-23 17:27:36.414720,-57
2021-12-23 17:27:36.414730,-76
2021-12-23 17:27:36.414740,-73
2021-12-23 17:27:36.414749,-54
2021-12-23 17:27:36.414759,-61
2021-12-23 17:27:36.414768,-76
2021-12-23 17:27:36.414778,-73
2021-12-23 17:27:36.414787,-40
2021-12-23 17:27:36.414797,7
2021-12-23 17:27:36.414807,14
2021-12-23 17:27:36.414816,-4
2021-12-23 17:27:36.414826,7
2021-12-23 17:27:36.414836,14
2021-12-23 17:27:36.414845,-14
2021-12-23 17:27:36.414855,-19
2021-12-23 17:27:36.414864,26
2021-12-23 17:27:36.414874,45
2021-12-23 17:27:36.414884,40
2021-12-23 17:27:36.414893,92
2021-12-23 17:27:36.414903,133
2021-12-23 17:27:36.414912,83
2021-12-23 17:27:36.639661,16
2021-12-23 17:27:36.639696,16
2021-12-23 17:27:36.639708,140
2021-12-23 17:27:36.639718,546
2021-12-23 17:27:36.639727,1240
2021-12-23 17:27:36.639737,1772
2021-12-23 17:27:36.639746,1480
2021-12-23 17:27:36.639756,292
2021-12-23 17:27:36.639766,-546
2021-12-23 17:27:36.639775,-259
2021-12-23 17:27:36.639785,66
2021-12-23 17:27:36.639795,-111
2021-12-23 17:27:36.639804,-140
2021-12-23 17:27:36.639814,-38
2021-12-23 17:27:36.639824,-83
2021-12-23 17:27:36.639833,-109
2021-12-23 17:27:36.639843,-21
2021-12-23 17:27:36.639852,49
2021-12-23 17:27:36.639862,54
2021-12-23 17:27:36.639872,61
2021-12-23 17:27:36.639881,87
2021-12-23 17:27:36.639891,106
2021-12-23 17:27:36.639901,95
2021-12-23 17:27:36.639910,97
2021-12-23 17:27:36.639920,147
2021-12-23 17:27:36.639930,209
2021-12-23 17:27:36.639939,249
2021-12-23 17:27:36.639949,268
2021-12-23 17:27:36.639959,287
2021-12-23 17:27:36.639968,308
2021-12-23 17:27:36.864704,311
2021-12-23 17:27:36.864734,327
2021-12-23 17:27:36.864745,368
2021-12-23 17:27:36.864755,354
2021-12-23 17:27:36.864765,311
2021-12-23 17:27:36.864775,301
2021-12-23 17:27:36.864784,289
2021-12-23 17:27:36.864794,240
2021-12-23 17:27:36.864803,166
2021-12-23 17:27:36.864812,116
2021-12-23 17:27:36.864822,76
2021-12-23 17:27:36.864832,-7
2021-12-23 17:27:36.864841,-52
2021-12-23 17:27:36.864851,-45
2021-12-23 17:27:36.864861,-76
2021-12-23 17:27:36.864870,-106
2021-12-23 17:27:36.864880,-87
2021-12-23 17:27:36.864889,-85
2021-12-23 17:27:36.864899,-106
2021-12-23 17:27:36.864908,-118
2021-12-23 17:27:36.864918,-123
2021-12-23 17:27:36.864927,-133
2021-12-23 17:27:36.864937,-156
2021-12-23 17:27:36.864946,-168
2021-12-23 17:27:36.864956,-142
2021-12-23 17:27:36.864965,-116
2021-12-23 17:27:36.864975,-114
2021-12-23 17:27:36.864984,-95
2021-12-23 17:27:36.864994,-66
2021-12-23 17:27:36.865003,-76
2021-12-23 17:27:37.089502,-99
2021-12-23 17:27:37.089524,-90
2021-12-23 17:27:37.089532,-71
2021-12-23 17:27:37.089539,-64
2021-12-23 17:27:37.089545,-66
2021-12-23 17:27:37.089551,-76
2021-12-23 17:27:37.089558,-83
2021-12-23 17:27:37.089564,-90
2021-12-23 17:27:37.089571,-104
2021-12-23 17:27:37.089577,-114
2021-12-23 17:27:37.089583,-102
2021-12-23 17:27:37.089589,-80
2021-12-23 17:27:37.089596,-90
2021-12-23 17:27:37.089602,-109
2021-12-23 17:27:37.089608,-111
2021-12-23 17:27:37.089615,-104
2021-12-23 17:27:37.089621,-92
2021-12-23 17:27:37.089627,-71
2021-12-23 17:27:37.089634,-68
2021-12-23 17:27:37.089640,-83
2021-12-23 17:27:37.089646,-83
2021-12-23 17:27:37.089652,-71
2021-12-23 17:27:37.089659,-49
2021-12-23 17:27:37.089665,-19
2021-12-23 17:27:37.089671,-19
2021-12-23 17:27:37.089678,-68
2021-12-23 17:27:37.089684,-114
2021-12-23 17:27:37.089690,-123
2021-12-23 17:27:37.089696,-130
2021-12-23 17:27:37.089703,-125
2021-12-23 17:27:37.314843,-76
2021-12-23 17:27:37.314873,-38
2021-12-23 17:27:37.314885,-61
2021-12-23 17:27:37.314895,-83
2021-12-23 17:27:37.314905,-66
2021-12-23 17:27:37.314914,-9
2021-12-23 17:27:37.314924,225
2021-12-23 17:27:37.314934,848
2021-12-23 17:27:37.314944,1677
2021-12-23 17:27:37.314953,2069
2021-12-23 17:27:37.314963,1359
2021-12-23 17:27:37.314973,-106
2021-12-23 17:27:37.314983,-698
2021-12-23 17:27:37.314992,-173
2021-12-23 17:27:37.315002,19
2021-12-23 17:27:37.315012,-197
2021-12-23 17:27:37.315021,-95
2021-12-23 17:27:37.315031,61
2021-12-23 17:27:37.315041,-23
2021-12-23 17:27:37.315050,-59
2021-12-23 17:27:37.315060,68
2021-12-23 17:27:37.315070,144
2021-12-23 17:27:37.315079,102
2021-12-23 17:27:37.315089,92
2021-12-23 17:27:37.315099,140
2021-12-23 17:27:37.315108,152
2021-12-23 17:27:37.315118,154
2021-12-23 17:27:37.315128,185
2021-12-23 17:27:37.315137,211
2021-12-23 17:27:37.315147,228
2021-12-23 17:27:37.628475,256
2021-12-23 17:27:37.628505,289
2021-12-23 17:27:37.628517,325
2021-12-23 17:27:37.628527,384
2021-12-23 17:27:37.628537,451
2021-12-23 17:27:37.628561,472
2021-12-23 17:27:37.628572,477
2021-12-23 17:27:37.628581,499
2021-12-23 17:27:37.628591,491
2021-12-23 17:27:37.628601,451
2021-12-23 17:27:37.628611,399
2021-12-23 17:27:37.628620,320
2021-12-23 17:27:37.628630,240
2021-12-23 17:27:37.628640,171
2021-12-23 17:27:37.628650,104
2021-12-23 17:27:37.628659,49
2021-12-23 17:27:37.628669,4
2021-12-23 17:27:37.628679,-35
2021-12-23 17:27:37.628689,-54
2021-12-23 17:27:37.628698,-59
2021-12-23 17:27:37.628708,-71
2021-12-23 17:27:37.628718,-76
2021-12-23 17:27:37.628727,-73
2021-12-23 17:27:37.628737,-76
2021-12-23 17:27:37.628747,-76
2021-12-23 17:27:37.628756,-59
2021-12-23 17:27:37.628766,-49
2021-12-23 17:27:37.628776,-49
2021-12-23 17:27:37.628786,-49
2021-12-23 17:27:37.628795,-59
2021-12-23 17:27:37.764643,-57
2021-12-23 17:27:37.764674,-45
2021-12-23 17:27:37.764685,-35
2021-12-23 17:27:37.764695,-38
2021-12-23 17:27:37.764705,-45
2021-12-23 17:27:37.764715,-59
2021-12-23 17:27:37.764725,-78
2021-12-23 17:27:37.764734,-87
2021-12-23 17:27:37.764744,-80
2021-12-23 17:27:37.764754,-68
2021-12-23 17:27:37.764764,-66
2021-12-23 17:27:37.764773,-73
2021-12-23 17:27:37.764783,-73
2021-12-23 17:27:37.764793,-57
2021-12-23 17:27:37.764803,-42
2021-12-23 17:27:37.764812,-45
2021-12-23 17:27:37.764861,-57
2021-12-23 17:27:37.764872,-57
2021-12-23 17:27:37.764882,-40
2021-12-23 17:27:37.764891,-19
2021-12-23 17:27:37.764901,-2
2021-12-23 17:27:37.764911,11
2021-12-23 17:27:37.764921,14
2021-12-23 17:27:37.764931,-7
2021-12-23 17:27:37.764941,-38
2021-12-23 17:27:37.764957,-66
2021-12-23 17:27:37.764967,-85
2021-12-23 17:27:37.764977,-87
2021-12-23 17:27:37.764987,-80
2021-12-23 17:27:37.764997,-80
2021-12-23 17:27:37.989226,-99
2021-12-23 17:27:37.989247,-121
2021-12-23 17:27:37.989255,-125
2021-12-23 17:27:37.989262,-121
2021-12-23 17:27:37.989268,-26
2021-12-23 17:27:37.989275,413
2021-12-23 17:27:37.989281,1290
2021-12-23 17:27:37.989287,2150
2021-12-23 17:27:37.989294,2131
2021-12-23 17:27:37.989300,736
2021-12-23 17:27:37.989306,-758
2021-12-23 17:27:37.989313,-674
2021-12-23 17:27:37.989319,-28
2021-12-23 17:27:37.989325,-168
2021-12-23 17:27:37.989332,-327
2021-12-23 17:27:37.989338,-152
2021-12-23 17:27:37.989344,-154
2021-12-23 17:27:37.989351,-220
2021-12-23 17:27:37.989357,-140
2021-12-23 17:27:37.989363,-99
2021-12-23 17:27:37.989370,-125
2021-12-23 17:27:37.989376,-109
2021-12-23 17:27:37.989382,-85
2021-12-23 17:27:37.989388,-87
2021-12-23 17:27:37.989395,-59
2021-12-23 17:27:37.989401,-9
2021-12-23 17:27:37.989420,4
2021-12-23 17:27:37.989426,4
2021-12-23 17:27:37.989433,38
2021-12-23 17:27:37.989439,76
2021-12-23 17:27:38.260067,97
2021-12-23 17:27:38.260097,128
2021-12-23 17:27:38.260108,159
2021-12-23 17:27:38.260119,163
2021-12-23 17:27:38.260129,171
2021-12-23 17:27:38.260138,192
2021-12-23 17:27:38.260148,182
2021-12-23 17:27:38.260158,147
2021-12-23 17:27:38.260168,106
2021-12-23 17:27:38.260178,30
2021-12-23 17:27:38.260188,-68
2021-12-23 17:27:38.260197,-142
2021-12-23 17:27:38.260207,-211
2021-12-23 17:27:38.260217,-289
2021-12-23 17:27:38.260227,-342
2021-12-23 17:27:38.260237,-368
2021-12-23 17:27:38.260247,-396
2021-12-23 17:27:38.260256,-425
2021-12-23 17:27:38.260266,-437
2021-12-23 17:27:38.260276,-444
2021-12-23 17:27:38.260286,-458
2021-12-23 17:27:38.260295,-461
2021-12-23 17:27:38.260305,-446
2021-12-23 17:27:38.260315,-449
2021-12-23 17:27:38.260325,-446
2021-12-23 17:27:38.260334,-427
2021-12-23 17:27:38.260344,-430
2021-12-23 17:27:38.260354,-453
2021-12-23 17:27:38.260363,-434
2021-12-23 17:27:38.260373,-403
2021-12-23 17:27:38.484625,-420
2021-12-23 17:27:38.484656,-444
2021-12-23 17:27:38.484668,-422
2021-12-23 17:27:38.484678,-401
2021-12-23 17:27:38.484688,-425
2021-12-23 17:27:38.484697,-439
2021-12-23 17:27:38.484707,-427
2021-12-23 17:27:38.484716,-439
2021-12-23 17:27:38.484726,-437
2021-12-23 17:27:38.484735,-403
2021-12-23 17:27:38.484745,-399
2021-12-23 17:27:38.484754,-413
2021-12-23 17:27:38.484764,-392
2021-12-23 17:27:38.484773,-375
2021-12-23 17:27:38.484783,-389
2021-12-23 17:27:38.484792,-368
2021-12-23 17:27:38.484802,-325
2021-12-23 17:27:38.484811,-323
2021-12-23 17:27:38.484821,-308
2021-12-23 17:27:38.484830,-270
2021-12-23 17:27:38.484840,-254
2021-12-23 17:27:38.484849,-282
2021-12-23 17:27:38.484859,-316
2021-12-23 17:27:38.484868,-325
2021-12-23 17:27:38.484878,-323
2021-12-23 17:27:38.484888,-335
2021-12-23 17:27:38.484897,-335
2021-12-23 17:27:38.484907,-301
2021-12-23 17:27:38.484916,-299
2021-12-23 17:27:38.484926,-349
2021-12-23 17:27:38.709277,-389
2021-12-23 17:27:38.709320,-387
2021-12-23 17:27:38.709329,-292
2021-12-23 17:27:38.709335,111
2021-12-23 17:27:38.709342,938
2021-12-23 17:27:38.709352,1775
2021-12-23 17:27:38.709363,1791
2021-12-23 17:27:38.709375,461
2021-12-23 17:27:38.709386,-1036
2021-12-23 17:27:38.709438,-1007
2021-12-23 17:27:38.709454,-356
2021-12-23 17:27:38.709466,-458
2021-12-23 17:27:38.709475,-629
2021-12-23 17:27:38.709481,-472
2021-12-23 17:27:38.709488,-470
2021-12-23 17:27:38.709494,-532
2021-12-23 17:27:38.709500,-451
2021-12-23 17:27:38.709506,-396
2021-12-23 17:27:38.709513,-403
2021-12-23 17:27:38.709519,-373
2021-12-23 17:27:38.709525,-335
2021-12-23 17:27:38.709531,-320
2021-12-23 17:27:38.709538,-297
2021-12-23 17:27:38.709544,-261
2021-12-23 17:27:38.709550,-216
2021-12-23 17:27:38.709557,-173
2021-12-23 17:27:38.709563,-144
2021-12-23 17:27:38.709569,-128
2021-12-23 17:27:38.709575,-95
2021-12-23 17:27:38.709582,-42
2021-12-23 17:27:38.934754,-4
2021-12-23 17:27:38.934784,14
2021-12-23 17:27:38.934796,19
2021-12-23 17:27:38.934806,9
2021-12-23 17:27:38.934816,-2
2021-12-23 17:27:38.934826,-26
2021-12-23 17:27:38.934835,-68
2021-12-23 17:27:38.934845,-130
2021-12-23 17:27:38.934855,-201
2021-12-23 17:27:38.934864,-278
2021-12-23 17:27:38.934874,-346
2021-12-23 17:27:38.934883,-411
2021-12-23 17:27:38.934893,-468
2021-12-23 17:27:38.934903,-515
2021-12-23 17:27:38.934913,-544
2021-12-23 17:27:38.934935,-565
2021-12-23 17:27:38.934946,-584
2021-12-23 17:27:38.934956,-596
2021-12-23 17:27:38.934966,-605
2021-12-23 17:27:38.934975,-610
2021-12-23 17:27:38.934985,-591
2021-12-23 17:27:38.934995,-546
2021-12-23 17:27:38.935004,-537
2021-12-23 17:27:38.935014,-556
2021-12-23 17:27:38.935024,-541
2021-12-23 17:27:38.935038,-508
2021-12-23 17:27:38.935049,-491
2021-12-23 17:27:38.935058,-480
2021-12-23 17:27:38.935068,-465
2021-12-23 17:27:38.935078,-453
2021-12-23 17:27:39.159494,-449
2021-12-23 17:27:39.159516,-441
2021-12-23 17:27:39.159523,-427
2021-12-23 17:27:39.159530,-418
2021-12-23 17:27:39.159536,-425
2021-12-23 17:27:39.159543,-430
2021-12-23 17:27:39.159549,-432
2021-12-23 17:27:39.159556,-441
2021-12-23 17:27:39.159562,-449
2021-12-23 17:27:39.159568,-451
2021-12-23 17:27:39.159575,-444
2021-12-23 17:27:39.159581,-430
2021-12-23 17:27:39.159587,-406
2021-12-23 17:27:39.159594,-377
2021-12-23 17:27:39.159600,-363
2021-12-23 17:27:39.159606,-358
2021-12-23 17:27:39.159613,-349
2021-12-23 17:27:39.159619,-339
2021-12-23 17:27:39.159625,-311
2021-12-23 17:27:39.159632,-263
2021-12-23 17:27:39.159638,-242
2021-12-23 17:27:39.159644,-256
2021-12-23 17:27:39.159685,-256
2021-12-23 17:27:39.159692,-247
2021-12-23 17:27:39.159698,-256
2021-12-23 17:27:39.159704,-268
2021-12-23 17:27:39.159711,-278
2021-12-23 17:27:39.159717,-259
2021-12-23 17:27:39.159723,-33
2021-12-23 17:27:39.159730,596
2021-12-23 17:27:39.384633,1506
2021-12-23 17:27:39.384664,2114
2021-12-23 17:27:39.384676,1620
2021-12-23 17:27:39.384686,78
2021-12-23 17:27:39.384696,-798
2021-12-23 17:27:39.384706,-320
2021-12-23 17:27:39.384716,-49
2021-12-23 17:27:39.384726,-342
2021-12-23 17:27:39.384735,-327
2021-12-23 17:27:39.384745,-182
2021-12-23 17:27:39.384755,-237
2021-12-23 17:27:39.384765,-244
2021-12-23 17:27:39.384775,-166
2021-12-23 17:27:39.384785,-154
2021-12-23 17:27:39.384795,-163
2021-12-23 17:27:39.384818,-149
2021-12-23 17:27:39.384828,-144
2021-12-23 17:27:39.384838,-109
2021-12-23 17:27:39.384848,-45
2021-12-23 17:27:39.384858,-9
2021-12-23 17:27:39.384868,26
2021-12-23 17:27:39.384878,73
2021-12-23 17:27:39.384888,104
2021-12-23 17:27:39.384897,135
2021-12-23 17:27:39.384907,173
2021-12-23 17:27:39.384917,197
2021-12-23 17:27:39.384927,218
2021-12-23 17:27:39.384937,232
2021-12-23 17:27:39.384947,230
2021-12-23 17:27:39.384956,230
2021-12-23 17:27:39.652468,230
2021-12-23 17:27:39.652488,218
2021-12-23 17:27:39.652496,163
2021-12-23 17:27:39.652503,49
2021-12-23 17:27:39.652509,-61
2021-12-23 17:27:39.652516,-128
2021-12-23 17:27:39.652522,-201
2021-12-23 17:27:39.652528,-273
2021-12-23 17:27:39.652535,-311
2021-12-23 17:27:39.652541,-351
2021-12-23 17:27:39.652547,-396
2021-12-23 17:27:39.652554,-432
2021-12-23 17:27:39.652560,-451
2021-12-23 17:27:39.652566,-456
2021-12-23 17:27:39.652572,-465
2021-12-23 17:27:39.652579,-480
2021-12-23 17:27:39.652585,-480
2021-12-23 17:27:39.652591,-463
2021-12-23 17:27:39.652597,-441
2021-12-23 17:27:39.652604,-430
2021-12-23 17:27:39.652610,-413
2021-12-23 17:27:39.652616,-384
2021-12-23 17:27:39.652623,-358
2021-12-23 17:27:39.652629,-342
2021-12-23 17:27:39.652635,-320
2021-12-23 17:27:39.652641,-308
2021-12-23 17:27:39.652648,-304
2021-12-23 17:27:39.652654,-294
2021-12-23 17:27:39.652660,-280
2021-12-23 17:27:39.652666,-268
2021-12-23 17:27:39.834554,-256
2021-12-23 17:27:39.834586,-244
2021-12-23 17:27:39.834598,-228
2021-12-23 17:27:39.834608,-225
2021-12-23 17:27:39.834618,-237
2021-12-23 17:27:39.834641,-237
2021-12-23 17:27:39.834651,-216
2021-12-23 17:27:39.834661,-201
2021-12-23 17:27:39.834670,-187
2021-12-23 17:27:39.834680,-173
2021-12-23 17:27:39.834690,-168
2021-12-23 17:27:39.834699,-185
2021-12-23 17:27:39.834709,-232
2021-12-23 17:27:39.834719,-273
2021-12-23 17:27:39.834728,-285
2021-12-23 17:27:39.834738,-285
2021-12-23 17:27:39.834748,-285
2021-12-23 17:27:39.834757,-282
2021-12-23 17:27:39.834767,-275
2021-12-23 17:27:39.834777,-268
2021-12-23 17:27:39.834787,-266
2021-12-23 17:27:39.834800,-287
2021-12-23 17:27:39.834811,-263
2021-12-23 17:27:39.834821,49
2021-12-23 17:27:39.834830,853
2021-12-23 17:27:39.834840,1832
2021-12-23 17:27:39.834850,2214
2021-12-23 17:27:39.834860,1233
2021-12-23 17:27:39.834869,-520
2021-12-23 17:27:39.834879,-1007
2021-12-23 17:27:40.104659,-261
2021-12-23 17:27:40.104690,-104
2021-12-23 17:27:40.104702,-363
2021-12-23 17:27:40.104713,-228
2021-12-23 17:27:40.104723,-116
2021-12-23 17:27:40.104732,-192
2021-12-23 17:27:40.104742,-161
2021-12-23 17:27:40.104752,-85
2021-12-23 17:27:40.104761,-73
2021-12-23 17:27:40.104771,-61
2021-12-23 17:27:40.104781,-33
2021-12-23 17:27:40.104790,-7
2021-12-23 17:27:40.104800,21
2021-12-23 17:27:40.104810,45
2021-12-23 17:27:40.104819,78
2021-12-23 17:27:40.104829,118
2021-12-23 17:27:40.104839,156
2021-12-23 17:27:40.104849,199
2021-12-23 17:27:40.104858,240
2021-12-23 17:27:40.104868,266
2021-12-23 17:27:40.104878,287
2021-12-23 17:27:40.104887,306
2021-12-23 17:27:40.104897,318
2021-12-23 17:27:40.104907,327
2021-12-23 17:27:40.104916,311
2021-12-23 17:27:40.104926,270
2021-12-23 17:27:40.104936,201
2021-12-23 17:27:40.104946,99
2021-12-23 17:27:40.104955,-9
2021-12-23 17:27:40.104965,-99
2021-12-23 17:27:40.374448,-180
2021-12-23 17:27:40.374470,-240
2021-12-23 17:27:40.374478,-268
2021-12-23 17:27:40.374485,-278
2021-12-23 17:27:40.374491,-285
2021-12-23 17:27:40.374498,-278
2021-12-23 17:27:40.374504,-251
2021-12-23 17:27:40.374510,-213
2021-12-23 17:27:40.374517,-180
2021-12-23 17:27:40.374523,-178
2021-12-23 17:27:40.374529,-194
2021-12-23 17:27:40.374535,-194
2021-12-23 17:27:40.374541,-190
2021-12-23 17:27:40.374548,-192
2021-12-23 17:27:40.374554,-201
2021-12-23 17:27:40.374560,-228
2021-12-23 17:27:40.374566,-251
2021-12-23 17:27:40.374573,-247
2021-12-23 17:27:40.374579,-232
2021-12-23 17:27:40.374585,-249
2021-12-23 17:27:40.374591,-285
2021-12-23 17:27:40.374598,-270
2021-12-23 17:27:40.374604,-232
2021-12-23 17:27:40.374610,-225
2021-12-23 17:27:40.374616,-213
2021-12-23 17:27:40.374623,-209
2021-12-23 17:27:40.374629,-216
2021-12-23 17:27:40.374635,-199
2021-12-23 17:27:40.374642,-175
2021-12-23 17:27:40.374648,-173
2021-12-23 17:27:40.554590,-180
2021-12-23 17:27:40.554620,-178
2021-12-23 17:27:40.554632,-168
2021-12-23 17:27:40.554642,-152
2021-12-23 17:27:40.554652,-135
2021-12-23 17:27:40.554662,-114
2021-12-23 17:27:40.554671,-76
2021-12-23 17:27:40.554681,-64
2021-12-23 17:27:40.554690,-90
2021-12-23 17:27:40.554700,-99
2021-12-23 17:27:40.554709,-83
2021-12-23 17:27:40.554719,-61
2021-12-23 17:27:40.554729,-42
2021-12-23 17:27:40.554738,-35
2021-12-23 17:27:40.554748,-33
2021-12-23 17:27:40.554757,-26
2021-12-23 17:27:40.554767,-28
2021-12-23 17:27:40.554776,-49
2021-12-23 17:27:40.554786,-11
2021-12-23 17:27:40.554796,278
2021-12-23 17:27:40.554805,1017
2021-12-23 17:27:40.554815,2010
2021-12-23 17:27:40.554824,2535
2021-12-23 17:27:40.554834,1760
2021-12-23 17:27:40.554844,4
2021-12-23 17:27:40.554853,-750
2021-12-23 17:27:40.554863,-147
2021-12-23 17:27:40.554872,30
2021-12-23 17:27:40.554882,-285
2021-12-23 17:27:40.554891,-201
2021-12-23 17:27:40.779645,-87
2021-12-23 17:27:40.779676,-192
2021-12-23 17:27:40.779687,-187
2021-12-23 17:27:40.779697,-125
2021-12-23 17:27:40.779707,-147
2021-12-23 17:27:40.779717,-149
2021-12-23 17:27:40.779726,-130
2021-12-23 17:27:40.779736,-144
2021-12-23 17:27:40.779745,-140
2021-12-23 17:27:40.779755,-97
2021-12-23 17:27:40.779765,-64
2021-12-23 17:27:40.779774,-45
2021-12-23 17:27:40.779784,-9
2021-12-23 17:27:40.779793,40
2021-12-23 17:27:40.779803,78
2021-12-23 17:27:40.779813,104
2021-12-23 17:27:40.779822,137
2021-12-23 17:27:40.779832,182
2021-12-23 17:27:40.779841,206
2021-12-23 17:27:40.779851,204
2021-12-23 17:27:40.779860,201
2021-12-23 17:27:40.779892,182
2021-12-23 17:27:40.779902,128
2021-12-23 17:27:40.779912,45
2021-12-23 17:27:40.779922,-42
2021-12-23 17:27:40.779932,-104
2021-12-23 17:27:40.779942,-147
2021-12-23 17:27:40.779952,-192
2021-12-23 17:27:40.779961,-218
2021-12-23 17:27:40.779971,-225
2021-12-23 17:27:41.004529,-237
2021-12-23 17:27:41.004560,-242
2021-12-23 17:27:41.004572,-237
2021-12-23 17:27:41.004582,-228
2021-12-23 17:27:41.004592,-225
2021-12-23 17:27:41.004602,-235
2021-12-23 17:27:41.004612,-242
2021-12-23 17:27:41.004622,-240
2021-12-23 17:27:41.004632,-232
2021-12-23 17:27:41.004641,-228
2021-12-23 17:27:41.004651,-240
2021-12-23 17:27:41.004661,-270
2021-12-23 17:27:41.004671,-289
2021-12-23 17:27:41.004681,-270
2021-12-23 17:27:41.004691,-240
2021-12-23 17:27:41.004701,-218
2021-12-23 17:27:41.004710,-211
2021-12-23 17:27:41.004720,-201
2021-12-23 17:27:41.004730,-185
2021-12-23 17:27:41.004740,-182
2021-12-23 17:27:41.004749,-187
2021-12-23 17:27:41.004759,-161
2021-12-23 17:27:41.004769,-135
2021-12-23 17:27:41.004778,-140
2021-12-23 17:27:41.004788,-140
2021-12-23 17:27:41.004798,-123
2021-12-23 17:27:41.004808,-118
2021-12-23 17:27:41.004818,-128
2021-12-23 17:27:41.004827,-128
2021-12-23 17:27:41.004837,-125
2021-12-23 17:27:41.229546,-128
2021-12-23 17:27:41.229577,-128
2021-12-23 17:27:41.229589,-133
2021-12-23 17:27:41.229599,-142
2021-12-23 17:27:41.229609,-128
2021-12-23 17:27:41.229619,-102
2021-12-23 17:27:41.229628,-90
2021-12-23 17:27:41.229638,-61
2021-12-23 17:27:41.229648,-42
2021-12-23 17:27:41.229658,-92
2021-12-23 17:27:41.229668,-147
2021-12-23 17:27:41.229678,-152
2021-12-23 17:27:41.229687,-154
2021-12-23 17:27:41.229697,-175
2021-12-23 17:27:41.229707,-166
2021-12-23 17:27:41.229717,-118
2021-12-23 17:27:41.229726,-80
2021-12-23 17:27:41.229736,-80
2021-12-23 17:27:41.229746,-85
2021-12-23 17:27:41.229756,-87
2021-12-23 17:27:41.229766,-66
2021-12-23 17:27:41.229775,185
2021-12-23 17:27:41.229785,888
2021-12-23 17:27:41.229795,1846
2021-12-23 17:27:41.229805,2328
2021-12-23 17:27:41.229828,1527
2021-12-23 17:27:41.229838,-147
2021-12-23 17:27:41.229848,-781
2021-12-23 17:27:41.229858,-152
2021-12-23 17:27:41.229868,7
2021-12-23 17:27:41.498923,-313
2021-12-23 17:27:41.498954,-247
2021-12-23 17:27:41.498966,-142
2021-12-23 17:27:41.498976,-247
2021-12-23 17:27:41.498985,-247
2021-12-23 17:27:41.498995,-171
2021-12-23 17:27:41.499005,-171
2021-12-23 17:27:41.499014,-163
2021-12-23 17:27:41.499024,-125
2021-12-23 17:27:41.499034,-102
2021-12-23 17:27:41.499044,-87
2021-12-23 17:27:41.499053,-66
2021-12-23 17:27:41.499063,-42
2021-12-23 17:27:41.499073,-14
2021-12-23 17:27:41.499082,21
2021-12-23 17:27:41.499092,54
2021-12-23 17:27:41.499102,85
2021-12-23 17:27:41.499111,121
2021-12-23 17:27:41.499121,161
2021-12-23 17:27:41.499131,201
2021-12-23 17:27:41.499140,232
2021-12-23 17:27:41.499150,242
2021-12-23 17:27:41.499160,225
2021-12-23 17:27:41.499169,178
2021-12-23 17:27:41.499179,111
2021-12-23 17:27:41.499189,66
2021-12-23 17:27:41.499199,9
2021-12-23 17:27:41.499208,-92
2021-12-23 17:27:41.499218,-171
2021-12-23 17:27:41.499228,-211
2021-12-23 17:27:41.723086,-270
2021-12-23 17:27:41.723107,-316
2021-12-23 17:27:41.723114,-318
2021-12-23 17:27:41.723121,-323
2021-12-23 17:27:41.723127,-335
2021-12-23 17:27:41.723133,-325
2021-12-23 17:27:41.723140,-308
2021-12-23 17:27:41.723146,-311
2021-12-23 17:27:41.723152,-316
2021-12-23 17:27:41.723159,-308
2021-12-23 17:27:41.723165,-304
2021-12-23 17:27:41.723171,-323
2021-12-23 17:27:41.723177,-332
2021-12-23 17:27:41.723184,-318
2021-12-23 17:27:41.723190,-327
2021-12-23 17:27:41.723206,-344
2021-12-23 17:27:41.723213,-318
2021-12-23 17:27:41.723262,-280
2021-12-23 17:27:41.723277,-266
2021-12-23 17:27:41.723284,-247
2021-12-23 17:27:41.723291,-218
2021-12-23 17:27:41.723298,-180
2021-12-23 17:27:41.723304,-140
2021-12-23 17:27:41.723310,-130
2021-12-23 17:27:41.723316,-140
2021-12-23 17:27:41.723323,-123
2021-12-23 17:27:41.723329,-97
2021-12-23 17:27:41.723335,-102
2021-12-23 17:27:41.723341,-116
2021-12-23 17:27:41.723347,-142
2021-12-23 17:27:41.949707,-209
2021-12-23 17:27:41.949738,-256
2021-12-23 17:27:41.949750,-280
2021-12-23 17:27:41.949760,-311
2021-12-23 17:27:41.949770,-323
2021-12-23 17:27:41.949780,-301
2021-12-23 17:27:41.949790,-273
2021-12-23 17:27:41.949799,-230
2021-12-23 17:27:41.949809,-178
2021-12-23 17:27:41.949819,-137
2021-12-23 17:27:41.949829,-104
2021-12-23 17:27:41.949839,-85
2021-12-23 17:27:41.949848,-83
2021-12-23 17:27:41.949858,-83
2021-12-23 17:27:41.949868,-92
2021-12-23 17:27:41.949878,-85
2021-12-23 17:27:41.949888,-52
2021-12-23 17:27:41.949898,-40
2021-12-23 17:27:41.949908,-66
2021-12-23 17:27:41.949918,-97
2021-12-23 17:27:41.949927,-102
2021-12-23 17:27:41.949937,-104
2021-12-23 17:27:41.949947,-114
2021-12-23 17:27:41.949957,-128
2021-12-23 17:27:41.949966,-149
2021-12-23 17:27:41.949976,-161
2021-12-23 17:27:41.949986,-180
2021-12-23 17:27:41.949996,-228
2021-12-23 17:27:41.950006,-256
2021-12-23 17:27:41.950016,-149
2021-12-23 17:27:42.174633,316
2021-12-23 17:27:42.174664,1195
2021-12-23 17:27:42.174675,1996
2021-12-23 17:27:42.174686,1905
2021-12-23 17:27:42.174696,501
2021-12-23 17:27:42.174706,-922
2021-12-23 17:27:42.174716,-805
2021-12-23 17:27:42.174726,-240
2021-12-23 17:27:42.174735,-437
2021-12-23 17:27:42.174745,-603
2021-12-23 17:27:42.174755,-441
2021-12-23 17:27:42.174765,-439
2021-12-23 17:27:42.174775,-503
2021-12-23 17:27:42.174785,-465
2021-12-23 17:27:42.174794,-453
2021-12-23 17:27:42.174804,-451
2021-12-23 17:27:42.174814,-401
2021-12-23 17:27:42.174824,-370
2021-12-23 17:27:42.174834,-361
2021-12-23 17:27:42.174843,-320
2021-12-23 17:27:42.174853,-282
2021-12-23 17:27:42.174863,-244
2021-12-23 17:27:42.174873,-163
2021-12-23 17:27:42.174883,-76
2021-12-23 17:27:42.174892,-35
2021-12-23 17:27:42.174902,-9
2021-12-23 17:27:42.174912,30
2021-12-23 17:27:42.174922,61
2021-12-23 17:27:42.174932,68
2021-12-23 17:27:42.174941,76
2021-12-23 17:27:42.399763,87
2021-12-23 17:27:42.399794,76
2021-12-23 17:27:42.399806,42
2021-12-23 17:27:42.399816,14
2021-12-23 17:27:42.399826,-30
2021-12-23 17:27:42.399836,-106
2021-12-23 17:27:42.399845,-192
2021-12-23 17:27:42.399855,-270
2021-12-23 17:27:42.399865,-344
2021-12-23 17:27:42.399875,-394
2021-12-23 17:27:42.399884,-425
2021-12-23 17:27:42.399894,-465
2021-12-23 17:27:42.399904,-499
2021-12-23 17:27:42.399914,-508
2021-12-23 17:27:42.399923,-501
2021-12-23 17:27:42.399933,-482
2021-12-23 17:27:42.399943,-453
2021-12-23 17:27:42.399953,-432
2021-12-23 17:27:42.399962,-425
2021-12-23 17:27:42.399972,-415
2021-12-23 17:27:42.399982,-408
2021-12-23 17:27:42.399992,-403
2021-12-23 17:27:42.400001,-392
2021-12-23 17:27:42.400011,-375
2021-12-23 17:27:42.400021,-365
2021-12-23 17:27:42.400030,-358
2021-12-23 17:27:42.400040,-349
2021-12-23 17:27:42.400050,-344
2021-12-23 17:27:42.400060,-339
2021-12-23 17:27:42.400069,-332
2021-12-23 17:27:42.624605,-327
2021-12-23 17:27:42.624636,-320
2021-12-23 17:27:42.624658,-308
2021-12-23 17:27:42.624668,-289
2021-12-23 17:27:42.624678,-278
2021-12-23 17:27:42.624687,-270
2021-12-23 17:27:42.624697,-263
2021-12-23 17:27:42.624707,-251
2021-12-23 17:27:42.624717,-240
2021-12-23 17:27:42.624726,-225
2021-12-23 17:27:42.624736,-204
2021-12-23 17:27:42.624746,-187
2021-12-23 17:27:42.624755,-182
2021-12-23 17:27:42.624765,-180
2021-12-23 17:27:42.624775,-187
2021-12-23 17:27:42.624785,-197
2021-12-23 17:27:42.624799,-197
2021-12-23 17:27:42.624809,-187
2021-12-23 17:27:42.624819,-173
2021-12-23 17:27:42.624829,-159
2021-12-23 17:27:42.624838,-125
2021-12-23 17:27:42.624848,-87
2021-12-23 17:27:42.624858,-97
2021-12-23 17:27:42.624868,-137
2021-12-23 17:27:42.624877,-156
2021-12-23 17:27:42.624887,-152
2021-12-23 17:27:42.624897,-173
2021-12-23 17:27:42.624907,-218
2021-12-23 17:27:42.624917,-232
2021-12-23 17:27:42.624927,-218
2021-12-23 17:27:42.849600,-216
2021-12-23 17:27:42.849622,-206
2021-12-23 17:27:42.849630,-199
2021-12-23 17:27:42.849636,-135
2021-12-23 17:27:42.849643,275
2021-12-23 17:27:42.849649,1152
2021-12-23 17:27:42.849656,2036
2021-12-23 17:27:42.849662,2150
2021-12-23 17:27:42.849668,945
2021-12-23 17:27:42.849675,-601
2021-12-23 17:27:42.849681,-717
2021-12-23 17:27:42.849687,-61
2021-12-23 17:27:42.849694,-118
2021-12-23 17:27:42.849700,-304
2021-12-23 17:27:42.849706,-144
2021-12-23 17:27:42.849719,-121
2021-12-23 17:27:42.849726,-190
2021-12-23 17:27:42.849732,-142
2021-12-23 17:27:42.849739,-97
2021-12-23 17:27:42.849745,-90
2021-12-23 17:27:42.849751,-52
2021-12-23 17:27:42.849758,2
2021-12-23 17:27:42.849764,64
2021-12-23 17:27:42.849770,97
2021-12-23 17:27:42.849777,73
2021-12-23 17:27:42.849783,80
2021-12-23 17:27:42.849789,121
2021-12-23 17:27:42.849796,133
2021-12-23 17:27:42.849802,137
2021-12-23 17:27:42.849808,159
2021-12-23 17:27:43.074585,192
2021-12-23 17:27:43.074616,237
2021-12-23 17:27:43.074628,275
2021-12-23 17:27:43.074638,282
2021-12-23 17:27:43.074648,270
2021-12-23 17:27:43.074658,254
2021-12-23 17:27:43.074667,223
2021-12-23 17:27:43.074677,182
2021-12-23 17:27:43.074686,125
2021-12-23 17:27:43.074696,45
2021-12-23 17:27:43.074706,-30
2021-12-23 17:27:43.074715,-87
2021-12-23 17:27:43.074725,-133
2021-12-23 17:27:43.074734,-175
2021-12-23 17:27:43.074744,-218
2021-12-23 17:27:43.074753,-247
2021-12-23 17:27:43.074763,-244
2021-12-23 17:27:43.074772,-232
2021-12-23 17:27:43.074782,-230
2021-12-23 17:27:43.074791,-230
2021-12-23 17:27:43.074801,-225
2021-12-23 17:27:43.074810,-213
2021-12-23 17:27:43.074819,-192
2021-12-23 17:27:43.074829,-168
2021-12-23 17:27:43.074838,-142
2021-12-23 17:27:43.074848,-128
2021-12-23 17:27:43.074857,-125
2021-12-23 17:27:43.074867,-114
2021-12-23 17:27:43.074876,-92
2021-12-23 17:27:43.074886,-76
2021-12-23 17:27:43.299558,-59
2021-12-23 17:27:43.299587,-45
2021-12-23 17:27:43.299599,-47
2021-12-23 17:27:43.299609,-28
2021-12-23 17:27:43.299618,19
2021-12-23 17:27:43.299641,30
2021-12-23 17:27:43.299652,2
2021-12-23 17:27:43.299662,-30
2021-12-23 17:27:43.299671,-76
2021-12-23 17:27:43.299681,-133
2021-12-23 17:27:43.299691,-180
2021-12-23 17:27:43.299701,-190
2021-12-23 17:27:43.299710,-185
2021-12-23 17:27:43.299720,-161
2021-12-23 17:27:43.299730,-121
2021-12-23 17:27:43.299739,-121
2021-12-23 17:27:43.299749,-147
2021-12-23 17:27:43.299759,-144
2021-12-23 17:27:43.299768,-142
2021-12-23 17:27:43.299778,-147
2021-12-23 17:27:43.299788,-133
2021-12-23 17:27:43.299798,-121
2021-12-23 17:27:43.299807,-123
2021-12-23 17:27:43.299817,-111
2021-12-23 17:27:43.299827,-90
2021-12-23 17:27:43.299836,-71
2021-12-23 17:27:43.299846,-42
2021-12-23 17:27:43.299856,-14
2021-12-23 17:27:43.299865,-4
2021-12-23 17:27:43.299875,-11
2021-12-23 17:27:43.569648,4
2021-12-23 17:27:43.569678,52
2021-12-23 17:27:43.569690,92
2021-12-23 17:27:43.569700,111
2021-12-23 17:27:43.569710,128
2021-12-23 17:27:43.569720,133
2021-12-23 17:27:43.569729,154
2021-12-23 17:27:43.569739,168
2021-12-23 17:27:43.569749,121
2021-12-23 17:27:43.569759,78
2021-12-23 17:27:43.569768,118
2021-12-23 17:27:43.569778,218
2021-12-23 17:27:43.569788,325
2021-12-23 17:27:43.569798,411
2021-12-23 17:27:43.569808,446
2021-12-23 17:27:43.569817,408
2021-12-23 17:27:43.569827,358
2021-12-23 17:27:43.569837,361
2021-12-23 17:27:43.569847,430
2021-12-23 17:27:43.569856,800
2021-12-23 17:27:43.569866,1672
2021-12-23 17:27:43.569876,2452
2021-12-23 17:27:43.569886,2200
2021-12-23 17:27:43.569895,701
2021-12-23 17:27:43.569905,-596
2021-12-23 17:27:43.569929,-384
2021-12-23 17:27:43.569940,54
2021-12-23 17:27:43.569949,-228
2021-12-23 17:27:43.569959,-325
2021-12-23 17:27:43.569969,-159
2021-12-23 17:27:43.838237,-218
2021-12-23 17:27:43.838267,-273
2021-12-23 17:27:43.838279,-204
2021-12-23 17:27:43.838289,-206
2021-12-23 17:27:43.838299,-223
2021-12-23 17:27:43.838309,-180
2021-12-23 17:27:43.838318,-166
2021-12-23 17:27:43.838328,-168
2021-12-23 17:27:43.838338,-128
2021-12-23 17:27:43.838347,-85
2021-12-23 17:27:43.838357,-71
2021-12-23 17:27:43.838367,-49
2021-12-23 17:27:43.838376,4
2021-12-23 17:27:43.838386,57
2021-12-23 17:27:43.838396,92
2021-12-23 17:27:43.838419,121
2021-12-23 17:27:43.838429,154
2021-12-23 17:27:43.838439,201
2021-12-23 17:27:43.838449,268
2021-12-23 17:27:43.838459,325
2021-12-23 17:27:43.838469,358
2021-12-23 17:27:43.838478,351
2021-12-23 17:27:43.838488,292
2021-12-23 17:27:43.838498,220
2021-12-23 17:27:43.838508,190
2021-12-23 17:27:43.838517,163
2021-12-23 17:27:43.838527,90
2021-12-23 17:27:43.838537,2
2021-12-23 17:27:43.838547,-68
2021-12-23 17:27:43.838556,-106
2021-12-23 17:27:44.064560,-111
2021-12-23 17:27:44.064591,-99
2021-12-23 17:27:44.064603,-99
2021-12-23 17:27:44.064613,-125
2021-12-23 17:27:44.064623,-152
2021-12-23 17:27:44.064633,-142
2021-12-23 17:27:44.064642,-121
2021-12-23 17:27:44.064652,-116
2021-12-23 17:27:44.064662,-106
2021-12-23 17:27:44.064672,-92
2021-12-23 17:27:44.064681,-99
2021-12-23 17:27:44.064691,-121
2021-12-23 17:27:44.064701,-118
2021-12-23 17:27:44.064711,-99
2021-12-23 17:27:44.064721,-87
2021-12-23 17:27:44.064730,-90
2021-12-23 17:27:44.064740,-102
2021-12-23 17:27:44.064750,-90
2021-12-23 17:27:44.064760,-40
2021-12-23 17:27:44.064769,-35
2021-12-23 17:27:44.064779,-76
2021-12-23 17:27:44.064789,-66
2021-12-23 17:27:44.064799,-7
2021-12-23 17:27:44.064808,26
2021-12-23 17:27:44.064818,33
2021-12-23 17:27:44.064828,35
2021-12-23 17:27:44.064838,21
2021-12-23 17:27:44.064848,19
2021-12-23 17:27:44.064858,49
2021-12-23 17:27:44.064867,54
2021-12-23 17:27:44.289518,30
2021-12-23 17:27:44.289548,47
2021-12-23 17:27:44.289560,57
2021-12-23 17:27:44.289570,19
2021-12-23 17:27:44.289580,-14
2021-12-23 17:27:44.289589,-16
2021-12-23 17:27:44.289599,-16
2021-12-23 17:27:44.289608,-19
2021-12-23 17:27:44.289618,-2
2021-12-23 17:27:44.289628,38
2021-12-23 17:27:44.289637,66
2021-12-23 17:27:44.289647,61
2021-12-23 17:27:44.289656,45
2021-12-23 17:27:44.289666,49
2021-12-23 17:27:44.289675,66
2021-12-23 17:27:44.289685,64
2021-12-23 17:27:44.289694,78
2021-12-23 17:27:44.289704,125
2021-12-23 17:27:44.289713,123
2021-12-23 17:27:44.289723,71
2021-12-23 17:27:44.289732,52
2021-12-23 17:27:44.289742,59
2021-12-23 17:27:44.289752,57
2021-12-23 17:27:44.289761,61
2021-12-23 17:27:44.289771,76
2021-12-23 17:27:44.289780,87
2021-12-23 17:27:44.289790,95
2021-12-23 17:27:44.289799,78
2021-12-23 17:27:44.289809,61
2021-12-23 17:27:44.289818,197
2021-12-23 17:27:44.469552,724
2021-12-23 17:27:44.469583,1644
2021-12-23 17:27:44.469595,2416
2021-12-23 17:27:44.469605,2174
2021-12-23 17:27:44.469615,610
2021-12-23 17:27:44.469625,-731
2021-12-23 17:27:44.469635,-453
2021-12-23 17:27:44.469644,66
2021-12-23 17:27:44.469654,-178
2021-12-23 17:27:44.469664,-297
2021-12-23 17:27:44.469673,-178
2021-12-23 17:27:44.469683,-270
2021-12-23 17:27:44.469693,-337
2021-12-23 17:27:44.469702,-235
2021-12-23 17:27:44.469712,-197
2021-12-23 17:27:44.469722,-266
2021-12-23 17:27:44.469731,-282
2021-12-23 17:27:44.469741,-251
2021-12-23 17:27:44.469751,-247
2021-12-23 17:27:44.469760,-232
2021-12-23 17:27:44.469770,-190
2021-12-23 17:27:44.469779,-149
2021-12-23 17:27:44.469789,-109
2021-12-23 17:27:44.469799,-71
2021-12-23 17:27:44.469809,-33
2021-12-23 17:27:44.469818,11
2021-12-23 17:27:44.469828,57
2021-12-23 17:27:44.469838,85
2021-12-23 17:27:44.469847,109
2021-12-23 17:27:44.469857,125
2021-12-23 17:27:44.694625,128
2021-12-23 17:27:44.694655,128
2021-12-23 17:27:44.694667,121
2021-12-23 17:27:44.694677,87
2021-12-23 17:27:44.694687,16
2021-12-23 17:27:44.694697,-80
2021-12-23 17:27:44.694706,-185
2021-12-23 17:27:44.694716,-280
2021-12-23 17:27:44.694726,-351
2021-12-23 17:27:44.694735,-411
2021-12-23 17:27:44.694759,-458
2021-12-23 17:27:44.694770,-480
2021-12-23 17:27:44.694780,-484
2021-12-23 17:27:44.694790,-477
2021-12-23 17:27:44.694800,-451
2021-12-23 17:27:44.694810,-432
2021-12-23 17:27:44.694819,-418
2021-12-23 17:27:44.694829,-406
2021-12-23 17:27:44.694839,-411
2021-12-23 17:27:44.694849,-408
2021-12-23 17:27:44.694859,-399
2021-12-23 17:27:44.694869,-394
2021-12-23 17:27:44.694879,-363
2021-12-23 17:27:44.694889,-313
2021-12-23 17:27:44.694899,-304
2021-12-23 17:27:44.694914,-320
2021-12-23 17:27:44.694924,-325
2021-12-23 17:27:44.694934,-325
2021-12-23 17:27:44.694944,-337
2021-12-23 17:27:44.694954,-342
2021-12-23 17:27:44.919600,-344
2021-12-23 17:27:44.919631,-349
2021-12-23 17:27:44.919643,-346
2021-12-23 17:27:44.919653,-337
2021-12-23 17:27:44.919663,-342
2021-12-23 17:27:44.919672,-358
2021-12-23 17:27:44.919682,-356
2021-12-23 17:27:44.919691,-349
2021-12-23 17:27:44.919701,-363
2021-12-23 17:27:44.919710,-382
2021-12-23 17:27:44.919720,-380
2021-12-23 17:27:44.919729,-375
2021-12-23 17:27:44.919739,-373
2021-12-23 17:27:44.919748,-368
2021-12-23 17:27:44.919758,-368
2021-12-23 17:27:44.919767,-370
2021-12-23 17:27:44.919777,-368
2021-12-23 17:27:44.919786,-358
2021-12-23 17:27:44.919796,-351
2021-12-23 17:27:44.919805,-339
2021-12-23 17:27:44.919815,-332
2021-12-23 17:27:44.919824,-325
2021-12-23 17:27:44.919834,-313
2021-12-23 17:27:44.919843,-306
2021-12-23 17:27:44.919853,-294
2021-12-23 17:27:44.919862,-278
2021-12-23 17:27:44.919872,-273
2021-12-23 17:27:44.919881,-280
2021-12-23 17:27:44.919891,-285
2021-12-23 17:27:44.919900,-270
2021-12-23 17:27:45.144586,-247
2021-12-23 17:27:45.144617,-218
2021-12-23 17:27:45.144629,-199
2021-12-23 17:27:45.144639,-190
2021-12-23 17:27:45.144649,-180
2021-12-23 17:27:45.144658,-185
2021-12-23 17:27:45.144668,-209
2021-12-23 17:27:45.144678,-228
2021-12-23 17:27:45.144688,-228
2021-12-23 17:27:45.144697,-216
2021-12-23 17:27:45.144707,-213
2021-12-23 17:27:45.144717,-213
2021-12-23 17:27:45.144726,-211
2021-12-23 17:27:45.144736,-211
2021-12-23 17:27:45.144746,-225
2021-12-23 17:27:45.144756,-254
2021-12-23 17:27:45.144765,-171
2021-12-23 17:27:45.144775,273
2021-12-23 17:27:45.144785,1140
2021-12-23 17:27:45.144795,1998
2021-12-23 17:27:45.144805,2081
2021-12-23 17:27:45.144814,860
2021-12-23 17:27:45.144824,-636
2021-12-23 17:27:45.144834,-703
2021-12-23 17:27:45.144843,-87
2021-12-23 17:27:45.144853,-194
2021-12-23 17:27:45.144863,-399
2021-12-23 17:27:45.144873,-235
2021-12-23 17:27:45.144883,-199
2021-12-23 17:27:45.144892,-259
2021-12-23 17:27:45.414578,-197
2021-12-23 17:27:45.414609,-154
2021-12-23 17:27:45.414621,-166
2021-12-23 17:27:45.414631,-149
2021-12-23 17:27:45.414641,-128
2021-12-23 17:27:45.414650,-109
2021-12-23 17:27:45.414660,-68
2021-12-23 17:27:45.414669,-35
2021-12-23 17:27:45.414679,-19
2021-12-23 17:27:45.414689,9
2021-12-23 17:27:45.414698,38
2021-12-23 17:27:45.414708,52
2021-12-23 17:27:45.414718,78
2021-12-23 17:27:45.414727,121
2021-12-23 17:27:45.414737,152
2021-12-23 17:27:45.414746,166
2021-12-23 17:27:45.414756,182
2021-12-23 17:27:45.414765,199
2021-12-23 17:27:45.414775,197
2021-12-23 17:27:45.414785,175
2021-12-23 17:27:45.414794,147
2021-12-23 17:27:45.414804,97
2021-12-23 17:27:45.414814,19
2021-12-23 17:27:45.414823,-61
2021-12-23 17:27:45.414833,-130
2021-12-23 17:27:45.414843,-194
2021-12-23 17:27:45.414852,-251
2021-12-23 17:27:45.414862,-294
2021-12-23 17:27:45.414872,-320
2021-12-23 17:27:45.414881,-337
2021-12-23 17:27:45.639517,-344
2021-12-23 17:27:45.639547,-337
2021-12-23 17:27:45.639559,-330
2021-12-23 17:27:45.639569,-325
2021-12-23 17:27:45.639579,-308
2021-12-23 17:27:45.639603,-287
2021-12-23 17:27:45.639613,-275
2021-12-23 17:27:45.639623,-268
2021-12-23 17:27:45.639633,-259
2021-12-23 17:27:45.639643,-259
2021-12-23 17:27:45.639652,-249
2021-12-23 17:27:45.639662,-232
2021-12-23 17:27:45.639672,-225
2021-12-23 17:27:45.639682,-228
2021-12-23 17:27:45.639692,-232
2021-12-23 17:27:45.639701,-237
2021-12-23 17:27:45.639711,-237
2021-12-23 17:27:45.639721,-235
2021-12-23 17:27:45.639731,-228
2021-12-23 17:27:45.639740,-228
2021-12-23 17:27:45.639750,-235
2021-12-23 17:27:45.639760,-230
2021-12-23 17:27:45.639769,-218
2021-12-23 17:27:45.639779,-211
2021-12-23 17:27:45.639789,-209
2021-12-23 17:27:45.639798,-201
2021-12-23 17:27:45.639808,-197
2021-12-23 17:27:45.639822,-192
2021-12-23 17:27:45.639833,-185
2021-12-23 17:27:45.639843,-173
2021-12-23 17:27:45.908177,-163
2021-12-23 17:27:45.908208,-159
2021-12-23 17:27:45.908220,-156
2021-12-23 17:27:45.908230,-156
2021-12-23 17:27:45.908239,-149
2021-12-23 17:27:45.908249,-140
2021-12-23 17:27:45.908259,-130
2021-12-23 17:27:45.908269,-128
2021-12-23 17:27:45.908278,-133
2021-12-23 17:27:45.908288,-130
2021-12-23 17:27:45.908298,-118
2021-12-23 17:27:45.908307,-106
2021-12-23 17:27:45.908317,-104
2021-12-23 17:27:45.908327,-104
2021-12-23 17:27:45.908336,-104
2021-12-23 17:27:45.908346,-106
2021-12-23 17:27:45.908356,-99
2021-12-23 17:27:45.908365,-90
2021-12-23 17:27:45.908375,-87
2021-12-23 17:27:45.908384,-92
2021-12-23 17:27:45.908394,-104
2021-12-23 17:27:45.908404,-118
2021-12-23 17:27:45.908414,-114
2021-12-23 17:27:45.908423,-99
2021-12-23 17:27:45.908433,-87
2021-12-23 17:27:45.908456,-76
2021-12-23 17:27:45.908467,-59
2021-12-23 17:27:45.908477,-45
2021-12-23 17:27:45.908486,-54
2021-12-23 17:27:45.908496,-80
2021-12-23 17:27:46.089502,-97
2021-12-23 17:27:46.089533,-92
2021-12-23 17:27:46.089545,-83
2021-12-23 17:27:46.089555,-68
2021-12-23 17:27:46.089565,-59
2021-12-23 17:27:46.089575,-57
2021-12-23 17:27:46.089585,-64
2021-12-23 17:27:46.089595,-95
2021-12-23 17:27:46.089604,-123
2021-12-23 17:27:46.089614,11
2021-12-23 17:27:46.089624,558
2021-12-23 17:27:46.089633,1489
2021-12-23 17:27:46.089643,2274
2021-12-23 17:27:46.089653,2114
2021-12-23 17:27:46.089662,670
2021-12-23 17:27:46.089672,-698
2021-12-23 17:27:46.089682,-518
2021-12-23 17:27:46.089692,35
2021-12-23 17:27:46.089701,-168
2021-12-23 17:27:46.089711,-304
2021-12-23 17:27:46.089721,-137
2021-12-23 17:27:46.089730,-159
2021-12-23 17:27:46.089740,-218
2021-12-23 17:27:46.089750,-144
2021-12-23 17:27:46.089759,-118
2021-12-23 17:27:46.089769,-133
2021-12-23 17:27:46.089779,-99
2021-12-23 17:27:46.089788,-66
2021-12-23 17:27:46.089798,-57
2021-12-23 17:27:46.089808,-30
2021-12-23 17:27:46.314487,2
2021-12-23 17:27:46.314518,26
2021-12-23 17:27:46.314530,57
2021-12-23 17:27:46.314541,90
2021-12-23 17:27:46.314550,123
2021-12-23 17:27:46.314560,161
2021-12-23 17:27:46.314570,194
2021-12-23 17:27:46.314580,223
2021-12-23 17:27:46.314589,254
2021-12-23 17:27:46.314599,278
2021-12-23 17:27:46.314609,285
2021-12-23 17:27:46.314619,282
2021-12-23 17:27:46.314628,263
2021-12-23 17:27:46.314638,225
2021-12-23 17:27:46.314648,171
2021-12-23 17:27:46.314657,102
2021-12-23 17:27:46.314667,19
2021-12-23 17:27:46.314677,-49
2021-12-23 17:27:46.314687,-104
2021-12-23 17:27:46.314696,-152
2021-12-23 17:27:46.314706,-187
2021-12-23 17:27:46.314716,-218
2021-12-23 17:27:46.314725,-247
2021-12-23 17:27:46.314735,-251
2021-12-23 17:27:46.314745,-244
2021-12-23 17:27:46.314754,-244
2021-12-23 17:27:46.314764,-244
2021-12-23 17:27:46.314774,-240
2021-12-23 17:27:46.314783,-230
2021-12-23 17:27:46.314793,-216
2021-12-23 17:27:46.539539,-199
2021-12-23 17:27:46.539569,-182
2021-12-23 17:27:46.539580,-166
2021-12-23 17:27:46.539590,-154
2021-12-23 17:27:46.539609,-147
2021-12-23 17:27:46.539619,-147
2021-12-23 17:27:46.539629,-154
2021-12-23 17:27:46.539639,-149
2021-12-23 17:27:46.539648,-135
2021-12-23 17:27:46.539658,-130
2021-12-23 17:27:46.539668,-135
2021-12-23 17:27:46.539678,-133
2021-12-23 17:27:46.539687,-128
2021-12-23 17:27:46.539697,-125
2021-12-23 17:27:46.539707,-114
2021-12-23 17:27:46.539716,-102
2021-12-23 17:27:46.539726,-111
2021-12-23 17:27:46.539736,-130
2021-12-23 17:27:46.539746,-133
2021-12-23 17:27:46.539755,-123
2021-12-23 17:27:46.539765,-121
2021-12-23 17:27:46.539775,-123
2021-12-23 17:27:46.539784,-121
2021-12-23 17:27:46.539794,-123
2021-12-23 17:27:46.539804,-128
2021-12-23 17:27:46.539814,-130
2021-12-23 17:27:46.539823,-125
2021-12-23 17:27:46.539833,-128
2021-12-23 17:27:46.539843,-130
2021-12-23 17:27:46.539852,-125
2021-12-23 17:27:46.764393,-118
2021-12-23 17:27:46.764423,-116
2021-12-23 17:27:46.764436,-109
2021-12-23 17:27:46.764446,-104
2021-12-23 17:27:46.764456,-109
2021-12-23 17:27:46.764479,-118
2021-12-23 17:27:46.764490,-114
2021-12-23 17:27:46.764499,-104
2021-12-23 17:27:46.764509,-99
2021-12-23 17:27:46.764519,-99
2021-12-23 17:27:46.764528,-99
2021-12-23 17:27:46.764538,-99
2021-12-23 17:27:46.764548,-97
2021-12-23 17:27:46.764558,-90
2021-12-23 17:27:46.764567,-85
2021-12-23 17:27:46.764577,-85
2021-12-23 17:27:46.764587,-95
2021-12-23 17:27:46.764597,-97
2021-12-23 17:27:46.764606,-92
2021-12-23 17:27:46.764616,-80
2021-12-23 17:27:46.764626,-73
2021-12-23 17:27:46.764636,-64
2021-12-23 17:27:46.764645,-45
2021-12-23 17:27:46.764655,-40
2021-12-23 17:27:46.764665,-66
2021-12-23 17:27:46.764675,-90
2021-12-23 17:27:46.764684,-99
2021-12-23 17:27:46.764694,-104
2021-12-23 17:27:46.764704,-106
2021-12-23 17:27:46.764713,-99
2021-12-23 17:27:46.988572,-90
2021-12-23 17:27:46.988589,-85
2021-12-23 17:27:46.988595,-102
2021-12-23 17:27:46.988601,-147
2021-12-23 17:27:46.988606,-102
2021-12-23 17:27:46.988611,273
2021-12-23 17:27:46.988616,1071
2021-12-23 17:27:46.988624,1934
2021-12-23 17:27:46.988629,2167
2021-12-23 17:27:46.988634,1166
2021-12-23 17:27:46.988640,-375
2021-12-23 17:27:46.988645,-705
2021-12-23 17:27:46.988650,-87
2021-12-23 17:27:46.988655,-68
2021-12-23 17:27:46.988660,-318
2021-12-23 17:27:46.988665,-194
2021-12-23 17:27:46.988671,-128
2021-12-23 17:27:46.988676,-206
2021-12-23 17:27:46.988681,-168
2021-12-23 17:27:46.988686,-109
2021-12-23 17:27:46.988691,-116
2021-12-23 17:27:46.988696,-102
2021-12-23 17:27:46.988701,-66
2021-12-23 17:27:46.988706,-47
2021-12-23 17:27:46.988711,-23
2021-12-23 17:27:46.988724,19
2021-12-23 17:27:46.988730,52
2021-12-23 17:27:46.988735,73
2021-12-23 17:27:46.988740,97
2021-12-23 17:27:46.988745,128
2021-12-23 17:27:47.304479,166
2021-12-23 17:27:47.304501,201
2021-12-23 17:27:47.304509,232
2021-12-23 17:27:47.304515,256
2021-12-23 17:27:47.304521,268
2021-12-23 17:27:47.304527,285
2021-12-23 17:27:47.304534,294
2021-12-23 17:27:47.304540,285
2021-12-23 17:27:47.304546,259
2021-12-23 17:27:47.304552,206
2021-12-23 17:27:47.304558,135
2021-12-23 17:27:47.304564,61
2021-12-23 17:27:47.304570,-7
2021-12-23 17:27:47.304577,-71
2021-12-23 17:27:47.304583,-125
2021-12-23 17:27:47.304589,-178
2021-12-23 17:27:47.304595,-209
2021-12-23 17:27:47.304601,-220
2021-12-23 17:27:47.304607,-230
2021-12-23 17:27:47.304613,-235
2021-12-23 17:27:47.304619,-225
2021-12-23 17:27:47.304626,-216
2021-12-23 17:27:47.304632,-211
2021-12-23 17:27:47.304638,-201
2021-12-23 17:27:47.304644,-187
2021-12-23 17:27:47.304650,-175
2021-12-23 17:27:47.304656,-168
2021-12-23 17:27:47.304662,-166
2021-12-23 17:27:47.304669,-161
2021-12-23 17:27:47.304675,-156
2021-12-23 17:27:47.484379,-154
2021-12-23 17:27:47.484400,-156
2021-12-23 17:27:47.484407,-154
2021-12-23 17:27:47.484414,-154
2021-12-23 17:27:47.484420,-152
2021-12-23 17:27:47.484427,-149
2021-12-23 17:27:47.484433,-149
2021-12-23 17:27:47.484439,-156
2021-12-23 17:27:47.484446,-173
2021-12-23 17:27:47.484452,-185
2021-12-23 17:27:47.484459,-178
2021-12-23 17:27:47.484465,-175
2021-12-23 17:27:47.484471,-178
2021-12-23 17:27:47.484478,-175
2021-12-23 17:27:47.484484,-178
2021-12-23 17:27:47.484500,-182
2021-12-23 17:27:47.484507,-178
2021-12-23 17:27:47.484513,-173
2021-12-23 17:27:47.484520,-163
2021-12-23 17:27:47.484526,-156
2021-12-23 17:27:47.484532,-163
2021-12-23 17:27:47.484539,-166
2021-12-23 17:27:47.484545,-156
2021-12-23 17:27:47.484552,-147
2021-12-23 17:27:47.484558,-147
2021-12-23 17:27:47.484564,-144
2021-12-23 17:27:47.484571,-140
2021-12-23 17:27:47.484577,-137
2021-12-23 17:27:47.484583,-135
2021-12-23 17:27:47.484590,-128
2021-12-23 17:27:47.754500,-123
2021-12-23 17:27:47.754521,-118
2021-12-23 17:27:47.754529,-118
2021-12-23 17:27:47.754535,-125
2021-12-23 17:27:47.754542,-133
2021-12-23 17:27:47.754548,-128
2021-12-23 17:27:47.754554,-121
2021-12-23 17:27:47.754560,-123
2021-12-23 17:27:47.754567,-135
2021-12-23 17:27:47.754573,-135
2021-12-23 17:27:47.754580,-123
2021-12-23 17:27:47.754586,-118
2021-12-23 17:27:47.754592,-121
2021-12-23 17:27:47.754598,-128
2021-12-23 17:27:47.754605,-142
2021-12-23 17:27:47.754611,-142
2021-12-23 17:27:47.754617,-123
2021-12-23 17:27:47.754623,-99
2021-12-23 17:27:47.754630,-85
2021-12-23 17:27:47.754636,-76
2021-12-23 17:27:47.754642,-59
2021-12-23 17:27:47.754649,-54
2021-12-23 17:27:47.754655,-83
2021-12-23 17:27:47.754661,-106
2021-12-23 17:27:47.754667,-102
2021-12-23 17:27:47.754674,-90
2021-12-23 17:27:47.754680,-90
2021-12-23 17:27:47.754686,-92
2021-12-23 17:27:47.754693,-92
2021-12-23 17:27:47.754699,-87
2021-12-23 17:27:48.022911,-99
2021-12-23 17:27:48.022933,-123
2021-12-23 17:27:48.022941,-9
2021-12-23 17:27:48.022947,518
2021-12-23 17:27:48.022954,1437
2021-12-23 17:27:48.022960,2217
2021-12-23 17:27:48.022967,2105
2021-12-23 17:27:48.022973,710
2021-12-23 17:27:48.022980,-696
2021-12-23 17:27:48.022986,-563
2021-12-23 17:27:48.022992,4
2021-12-23 17:27:48.022999,-185
2021-12-23 17:27:48.023005,-318
2021-12-23 17:27:48.023011,-149
2021-12-23 17:27:48.023018,-173
2021-12-23 17:27:48.023024,-232
2021-12-23 17:27:48.023030,-163
2021-12-23 17:27:48.023037,-130
2021-12-23 17:27:48.023043,-142
2021-12-23 17:27:48.023049,-106
2021-12-23 17:27:48.023055,-76
2021-12-23 17:27:48.023062,-66
2021-12-23 17:27:48.023068,-42
2021-12-23 17:27:48.023074,-4
2021-12-23 17:27:48.023080,21
2021-12-23 17:27:48.023087,52
2021-12-23 17:27:48.023093,87
2021-12-23 17:27:48.023100,121
2021-12-23 17:27:48.023106,161
2021-12-23 17:27:48.023112,204
2021-12-23 17:27:48.159533,235
2021-12-23 17:27:48.159564,261
2021-12-23 17:27:48.159575,287
2021-12-23 17:27:48.159585,299
2021-12-23 17:27:48.159595,292
2021-12-23 17:27:48.159605,282
2021-12-23 17:27:48.159614,254
2021-12-23 17:27:48.159624,192
2021-12-23 17:27:48.159633,116
2021-12-23 17:27:48.159643,40
2021-12-23 17:27:48.159653,-38
2021-12-23 17:27:48.159662,-104
2021-12-23 17:27:48.159672,-161
2021-12-23 17:27:48.159681,-211
2021-12-23 17:27:48.159691,-242
2021-12-23 17:27:48.159701,-259
2021-12-23 17:27:48.159710,-270
2021-12-23 17:27:48.159720,-268
2021-12-23 17:27:48.159729,-256
2021-12-23 17:27:48.159739,-240
2021-12-23 17:27:48.159749,-211
2021-12-23 17:27:48.159758,-175
2021-12-23 17:27:48.159768,-144
2021-12-23 17:27:48.159777,-125
2021-12-23 17:27:48.159787,-97
2021-12-23 17:27:48.159797,-14
2021-12-23 17:27:48.159807,87
2021-12-23 17:27:48.159816,104
2021-12-23 17:27:48.159826,73
2021-12-23 17:27:48.159835,97
2021-12-23 17:27:48.429405,142
2021-12-23 17:27:48.429436,206
2021-12-23 17:27:48.429448,287
2021-12-23 17:27:48.429458,287
2021-12-23 17:27:48.429467,199
2021-12-23 17:27:48.429477,78
2021-12-23 17:27:48.429487,-49
2021-12-23 17:27:48.429496,-106
2021-12-23 17:27:48.429506,-99
2021-12-23 17:27:48.429516,-118
2021-12-23 17:27:48.429525,-135
2021-12-23 17:27:48.429535,-121
2021-12-23 17:27:48.429545,-128
2021-12-23 17:27:48.429554,-149
2021-12-23 17:27:48.429564,-142
2021-12-23 17:27:48.429574,-128
2021-12-23 17:27:48.429583,-140
2021-12-23 17:27:48.429593,-154
2021-12-23 17:27:48.429603,-152
2021-12-23 17:27:48.429612,-154
2021-12-23 17:27:48.429622,-163
2021-12-23 17:27:48.429631,-163
2021-12-23 17:27:48.429641,-147
2021-12-23 17:27:48.429651,-133
2021-12-23 17:27:48.429660,-140
2021-12-23 17:27:48.429670,-144
2021-12-23 17:27:48.429680,-133
2021-12-23 17:27:48.429689,-116
2021-12-23 17:27:48.429699,-111
2021-12-23 17:27:48.429708,-123
2021-12-23 17:27:48.609418,-140
2021-12-23 17:27:48.609449,-156
2021-12-23 17:27:48.609461,-168
2021-12-23 17:27:48.609471,-163
2021-12-23 17:27:48.609481,-159
2021-12-23 17:27:48.609490,-166
2021-12-23 17:27:48.609500,-171
2021-12-23 17:27:48.609510,-161
2021-12-23 17:27:48.609519,-147
2021-12-23 17:27:48.609529,-133
2021-12-23 17:27:48.609539,-118
2021-12-23 17:27:48.609548,-106
2021-12-23 17:27:48.609558,-85
2021-12-23 17:27:48.609568,-68
2021-12-23 17:27:48.609577,-85
2021-12-23 17:27:48.609600,-121
2021-12-23 17:27:48.609612,-135
2021-12-23 17:27:48.609622,-133
2021-12-23 17:27:48.609631,-123
2021-12-23 17:27:48.609641,-114
2021-12-23 17:27:48.609651,-106
2021-12-23 17:27:48.609660,-106
2021-12-23 17:27:48.609670,-116
2021-12-23 17:27:48.609680,-142
2021-12-23 17:27:48.609690,-109
2021-12-23 17:27:48.609699,197
2021-12-23 17:27:48.609709,933
2021-12-23 17:27:48.609719,1825
2021-12-23 17:27:48.609729,2228
2021-12-23 17:27:48.609739,1497
2021-12-23 17:27:48.833914,-64
2021-12-23 17:27:48.833944,-739
2021-12-23 17:27:48.833959,-171
2021-12-23 17:27:48.833972,16
2021-12-23 17:27:48.833985,-282
2021-12-23 17:27:48.833996,-220
2021-12-23 17:27:48.834008,-95
2021-12-23 17:27:48.834020,-168
2021-12-23 17:27:48.834032,-166
2021-12-23 17:27:48.834043,-102
2021-12-23 17:27:48.834055,-102
2021-12-23 17:27:48.834067,-97
2021-12-23 17:27:48.834079,-59
2021-12-23 17:27:48.834091,-40
2021-12-23 17:27:48.834102,-21
2021-12-23 17:27:48.834114,9
2021-12-23 17:27:48.834126,30
2021-12-23 17:27:48.834137,57
2021-12-23 17:27:48.834149,97
2021-12-23 17:27:48.834160,135
2021-12-23 17:27:48.834172,168
2021-12-23 17:27:48.834183,206
2021-12-23 17:27:48.834195,247
2021-12-23 17:27:48.834206,280
2021-12-23 17:27:48.834218,304
2021-12-23 17:27:48.834230,313
2021-12-23 17:27:48.834238,308
2021-12-23 17:27:48.834244,294
2021-12-23 17:27:48.834251,268
2021-12-23 17:27:48.834257,228
2021-12-23 17:27:49.104108,166
2021-12-23 17:27:49.104130,90
2021-12-23 17:27:49.104138,11
2021-12-23 17:27:49.104145,-68
2021-12-23 17:27:49.104152,-135
2021-12-23 17:27:49.104158,-175
2021-12-23 17:27:49.104165,-211
2021-12-23 17:27:49.104171,-237
2021-12-23 17:27:49.104178,-259
2021-12-23 17:27:49.104184,-275
2021-12-23 17:27:49.104191,-275
2021-12-23 17:27:49.104197,-261
2021-12-23 17:27:49.104203,-251
2021-12-23 17:27:49.104210,-244
2021-12-23 17:27:49.104216,-235
2021-12-23 17:27:49.104223,-228
2021-12-23 17:27:49.104229,-218
2021-12-23 17:27:49.104235,-199
2021-12-23 17:27:49.104242,-178
2021-12-23 17:27:49.104248,-168
2021-12-23 17:27:49.104255,-173
2021-12-23 17:27:49.104261,-180
2021-12-23 17:27:49.104267,-173
2021-12-23 17:27:49.104274,-161
2021-12-23 17:27:49.104280,-161
2021-12-23 17:27:49.104287,-168
2021-12-23 17:27:49.104293,-171
2021-12-23 17:27:49.104299,-173
2021-12-23 17:27:49.104306,-168
2021-12-23 17:27:49.104312,-161
2021-12-23 17:27:49.329125,-168
2021-12-23 17:27:49.329148,-173
2021-12-23 17:27:49.329155,-171
2021-12-23 17:27:49.329162,-175
2021-12-23 17:27:49.329168,-178
2021-12-23 17:27:49.329174,-171
2021-12-23 17:27:49.329181,-161
2021-12-23 17:27:49.329187,-159
2021-12-23 17:27:49.329193,-166
2021-12-23 17:27:49.329199,-168
2021-12-23 17:27:49.329206,-163
2021-12-23 17:27:49.329212,-154
2021-12-23 17:27:49.329218,-149
2021-12-23 17:27:49.329224,-147
2021-12-23 17:27:49.329231,-144
2021-12-23 17:27:49.329237,-144
2021-12-23 17:27:49.329243,-144
2021-12-23 17:27:49.329249,-144
2021-12-23 17:27:49.329256,-140
2021-12-23 17:27:49.329262,-133
2021-12-23 17:27:49.329268,-128
2021-12-23 17:27:49.329275,-125
2021-12-23 17:27:49.329281,-118
2021-12-23 17:27:49.329287,-109
2021-12-23 17:27:49.329293,-99
2021-12-23 17:27:49.329310,-90
2021-12-23 17:27:49.329317,-87
2021-12-23 17:27:49.329323,-78
2021-12-23 17:27:49.329330,-57
2021-12-23 17:27:49.329336,-38
2021-12-23 17:27:49.554532,-9
2021-12-23 17:27:49.554562,-2
2021-12-23 17:27:49.554574,-7
2021-12-23 17:27:49.554585,23
2021-12-23 17:27:49.554595,57
2021-12-23 17:27:49.554604,42
2021-12-23 17:27:49.554614,9
2021-12-23 17:27:49.554624,-16
2021-12-23 17:27:49.554633,-49
2021-12-23 17:27:49.554643,-73
2021-12-23 17:27:49.554653,-73
2021-12-23 17:27:49.554662,-61
2021-12-23 17:27:49.554723,-61
2021-12-23 17:27:49.554734,-71
2021-12-23 17:27:49.554744,-73
2021-12-23 17:27:49.554754,-76
2021-12-23 17:27:49.554763,-90
2021-12-23 17:27:49.554773,-21
2021-12-23 17:27:49.554783,389
2021-12-23 17:27:49.554793,1190
2021-12-23 17:27:49.554803,1953
2021-12-23 17:27:49.554818,2007
2021-12-23 17:27:49.554829,883
2021-12-23 17:27:49.554839,-503
2021-12-23 17:27:49.554848,-589
2021-12-23 17:27:49.554858,-11
2021-12-23 17:27:49.554868,-92
2021-12-23 17:27:49.554878,-287
2021-12-23 17:27:49.554888,-144
2021-12-23 17:27:49.554897,-116
2021-12-23 17:27:49.824402,-187
2021-12-23 17:27:49.824433,-140
2021-12-23 17:27:49.824445,-97
2021-12-23 17:27:49.824455,-104
2021-12-23 17:27:49.824464,-83
2021-12-23 17:27:49.824474,-49
2021-12-23 17:27:49.824484,-33
2021-12-23 17:27:49.824493,-14
2021-12-23 17:27:49.824503,19
2021-12-23 17:27:49.824512,52
2021-12-23 17:27:49.824522,78
2021-12-23 17:27:49.824531,104
2021-12-23 17:27:49.824541,133
2021-12-23 17:27:49.824550,159
2021-12-23 17:27:49.824560,185
2021-12-23 17:27:49.824583,218
2021-12-23 17:27:49.824593,249
2021-12-23 17:27:49.824603,270
2021-12-23 17:27:49.824613,282
2021-12-23 17:27:49.824622,282
2021-12-23 17:27:49.824632,263
2021-12-23 17:27:49.824641,228
2021-12-23 17:27:49.824651,178
2021-12-23 17:27:49.824661,116
2021-12-23 17:27:49.824670,42
2021-12-23 17:27:49.824680,-35
2021-12-23 17:27:49.824689,-97
2021-12-23 17:27:49.824699,-147
2021-12-23 17:27:49.824709,-194
2021-12-23 17:27:49.824718,-230
2021-12-23 17:27:50.048079,-249
2021-12-23 17:27:50.048110,-263
2021-12-23 17:27:50.048123,-280
2021-12-23 17:27:50.048133,-287
2021-12-23 17:27:50.048143,-275
2021-12-23 17:27:50.048153,-263
2021-12-23 17:27:50.048162,-268
2021-12-23 17:27:50.048172,-261
2021-12-23 17:27:50.048182,-247
2021-12-23 17:27:50.048192,-235
2021-12-23 17:27:50.048201,-220
2021-12-23 17:27:50.048211,-213
2021-12-23 17:27:50.048221,-218
2021-12-23 17:27:50.048231,-218
2021-12-23 17:27:50.048240,-220
2021-12-23 17:27:50.048250,-225
2021-12-23 17:27:50.048260,-218
2021-12-23 17:27:50.048270,-206
2021-12-23 17:27:50.048280,-213
2021-12-23 17:27:50.048289,-220
2021-12-23 17:27:50.048299,-216
2021-12-23 17:27:50.048309,-209
2021-12-23 17:27:50.048319,-213
2021-12-23 17:27:50.048328,-220
2021-12-23 17:27:50.048338,-225
2021-12-23 17:27:50.048348,-225
2021-12-23 17:27:50.048358,-230
2021-12-23 17:27:50.048367,-230
2021-12-23 17:27:50.048377,-220
2021-12-23 17:27:50.048387,-218
2021-12-23 17:27:50.229422,-216
2021-12-23 17:27:50.229452,-204
2021-12-23 17:27:50.229464,-201
2021-12-23 17:27:50.229474,-206
2021-12-23 17:27:50.229484,-201
2021-12-23 17:27:50.229494,-197
2021-12-23 17:27:50.229503,-201
2021-12-23 17:27:50.229513,-197
2021-12-23 17:27:50.229523,-182
2021-12-23 17:27:50.229532,-178
2021-12-23 17:27:50.229542,-182
2021-12-23 17:27:50.229552,-190
2021-12-23 17:27:50.229561,-185
2021-12-23 17:27:50.229571,-173
2021-12-23 17:27:50.229581,-163
2021-12-23 17:27:50.229590,-163
2021-12-23 17:27:50.229600,-166
2021-12-23 17:27:50.229610,-156
2021-12-23 17:27:50.229619,-149
2021-12-23 17:27:50.229629,-154
2021-12-23 17:27:50.229638,-154
2021-12-23 17:27:50.229648,-142
2021-12-23 17:27:50.229658,-130
2021-12-23 17:27:50.229667,-118
2021-12-23 17:27:50.229677,-99
2021-12-23 17:27:50.229687,-83
2021-12-23 17:27:50.229696,-71
2021-12-23 17:27:50.229706,-87
2021-12-23 17:27:50.229716,-121
2021-12-23 17:27:50.229725,-130
2021-12-23 17:27:50.499496,-128
2021-12-23 17:27:50.499519,-123
2021-12-23 17:27:50.499527,-118
2021-12-23 17:27:50.499533,-116
2021-12-23 17:27:50.499540,-121
2021-12-23 17:27:50.499546,-128
2021-12-23 17:27:50.499552,-149
2021-12-23 17:27:50.499559,-116
2021-12-23 17:27:50.499565,206
2021-12-23 17:27:50.499572,998
2021-12-23 17:27:50.499610,1943
2021-12-23 17:27:50.499616,2316
2021-12-23 17:27:50.499623,1404
2021-12-23 17:27:50.499629,-297
2021-12-23 17:27:50.499635,-848
2021-12-23 17:27:50.499642,-182
2021-12-23 17:27:50.499648,-64
2021-12-23 17:27:50.499654,-354
2021-12-23 17:27:50.499660,-237
2021-12-23 17:27:50.499667,-130
2021-12-23 17:27:50.499673,-220
2021-12-23 17:27:50.499679,-204
2021-12-23 17:27:50.499686,-133
2021-12-23 17:27:50.499692,-133
2021-12-23 17:27:50.499698,-118
2021-12-23 17:27:50.499705,-76
2021-12-23 17:27:50.499711,-61
2021-12-23 17:27:50.499721,-52
2021-12-23 17:27:50.499728,-14
2021-12-23 17:27:50.499734,21
2021-12-23 17:27:50.679443,47
2021-12-23 17:27:50.679470,80
2021-12-23 17:27:50.679478,121
2021-12-23 17:27:50.679484,154
2021-12-23 17:27:50.679491,187
2021-12-23 17:27:50.679497,228
2021-12-23 17:27:50.679503,266
2021-12-23 17:27:50.679509,289
2021-12-23 17:27:50.679516,301
2021-12-23 17:27:50.679522,304
2021-12-23 17:27:50.679528,294
2021-12-23 17:27:50.679534,270
2021-12-23 17:27:50.679540,225
2021-12-23 17:27:50.679547,161
2021-12-23 17:27:50.679553,78
2021-12-23 17:27:50.679559,-14
2021-12-23 17:27:50.679566,-90
2021-12-23 17:27:50.679572,-144
2021-12-23 17:27:50.679578,-192
2021-12-23 17:27:50.679585,-228
2021-12-23 17:27:50.679591,-251
2021-12-23 17:27:50.679713,-263
2021-12-23 17:27:50.679732,-268
2021-12-23 17:27:50.679740,-268
2021-12-23 17:27:50.679746,-261
2021-12-23 17:27:50.679753,-249
2021-12-23 17:27:50.679759,-240
2021-12-23 17:27:50.679765,-232
2021-12-23 17:27:50.679772,-223
2021-12-23 17:27:50.679778,-211
2021-12-23 17:27:50.949435,-199
2021-12-23 17:27:50.949466,-187
2021-12-23 17:27:50.949477,-182
2021-12-23 17:27:50.949487,-187
2021-12-23 17:27:50.949497,-185
2021-12-23 17:27:50.949507,-173
2021-12-23 17:27:50.949516,-161
2021-12-23 17:27:50.949526,-156
2021-12-23 17:27:50.949536,-156
2021-12-23 17:27:50.949546,-163
2021-12-23 17:27:50.949555,-168
2021-12-23 17:27:50.949565,-156
2021-12-23 17:27:50.949575,-147
2021-12-23 17:27:50.949585,-144
2021-12-23 17:27:50.949594,-144
2021-12-23 17:27:50.949604,-142
2021-12-23 17:27:50.949614,-137
2021-12-23 17:27:50.949624,-135
2021-12-23 17:27:50.949633,-140
2021-12-23 17:27:50.949643,-140
2021-12-23 17:27:50.949653,-137
2021-12-23 17:27:50.949662,-140
2021-12-23 17:27:50.949672,-137
2021-12-23 17:27:50.949682,-125
2021-12-23 17:27:50.949691,-118
2021-12-23 17:27:50.949701,-114
2021-12-23 17:27:50.949711,-111
2021-12-23 17:27:50.949720,-109
2021-12-23 17:27:50.949730,-104
2021-12-23 17:27:50.949739,-92
2021-12-23 17:27:51.174436,-83
2021-12-23 17:27:51.174466,-85
2021-12-23 17:27:51.174478,-85
2021-12-23 17:27:51.174488,-80
2021-12-23 17:27:51.174498,-76
2021-12-23 17:27:51.174508,-66
2021-12-23 17:27:51.174518,-59
2021-12-23 17:27:51.174527,-64
2021-12-23 17:27:51.174537,-76
2021-12-23 17:27:51.174547,-71
2021-12-23 17:27:51.174557,-49
2021-12-23 17:27:51.174566,-26
2021-12-23 17:27:51.174576,-4
2021-12-23 17:27:51.174586,14
2021-12-23 17:27:51.174596,23
2021-12-23 17:27:51.174606,7
2021-12-23 17:27:51.174616,-21
2021-12-23 17:27:51.174626,-35
2021-12-23 17:27:51.174635,-26
2021-12-23 17:27:51.174645,-19
2021-12-23 17:27:51.174655,-21
2021-12-23 17:27:51.174665,-19
2021-12-23 17:27:51.174674,-9
2021-12-23 17:27:51.174684,-11
2021-12-23 17:27:51.174694,-38
2021-12-23 17:27:51.174704,-45
2021-12-23 17:27:51.174713,147
2021-12-23 17:27:51.174723,750
2021-12-23 17:27:51.174733,1644
2021-12-23 17:27:51.174743,2250
2021-12-23 17:27:51.399589,1851
2021-12-23 17:27:51.399619,387
2021-12-23 17:27:51.399631,-634
2021-12-23 17:27:51.399641,-261
2021-12-23 17:27:51.399650,118
2021-12-23 17:27:51.399674,-137
2021-12-23 17:27:51.399684,-175
2021-12-23 17:27:51.399694,-33
2021-12-23 17:27:51.399703,-87
2021-12-23 17:27:51.399713,-114
2021-12-23 17:27:51.399723,-38
2021-12-23 17:27:51.399732,-23
2021-12-23 17:27:51.399742,-35
2021-12-23 17:27:51.399752,-4
2021-12-23 17:27:51.399761,23
2021-12-23 17:27:51.399771,38
2021-12-23 17:27:51.399781,57
2021-12-23 17:27:51.399790,87
2021-12-23 17:27:51.399800,116
2021-12-23 17:27:51.399810,140
2021-12-23 17:27:51.399819,168
2021-12-23 17:27:51.399829,204
2021-12-23 17:27:51.399839,232
2021-12-23 17:27:51.399848,261
2021-12-23 17:27:51.399858,294
2021-12-23 17:27:51.399868,320
2021-12-23 17:27:51.399877,335
2021-12-23 17:27:51.399887,337
2021-12-23 17:27:51.399907,330
2021-12-23 17:27:51.399917,311
2021-12-23 17:27:51.669366,275
2021-12-23 17:27:51.669388,216
2021-12-23 17:27:51.669396,140
2021-12-23 17:27:51.669403,59
2021-12-23 17:27:51.669409,-11
2021-12-23 17:27:51.669416,-71
2021-12-23 17:27:51.669422,-125
2021-12-23 17:27:51.669428,-168
2021-12-23 17:27:51.669435,-197
2021-12-23 17:27:51.669441,-213
2021-12-23 17:27:51.669448,-220
2021-12-23 17:27:51.669454,-216
2021-12-23 17:27:51.669460,-216
2021-12-23 17:27:51.669467,-211
2021-12-23 17:27:51.669473,-199
2021-12-23 17:27:51.669479,-187
2021-12-23 17:27:51.669486,-178
2021-12-23 17:27:51.669492,-166
2021-12-23 17:27:51.669499,-154
2021-12-23 17:27:51.669505,-142
2021-12-23 17:27:51.669511,-130
2021-12-23 17:27:51.669518,-123
2021-12-23 17:27:51.669524,-121
2021-12-23 17:27:51.669530,-116
2021-12-23 17:27:51.669537,-111
2021-12-23 17:27:51.669549,-116
2021-12-23 17:27:51.669556,-121
2021-12-23 17:27:51.669562,-121
2021-12-23 17:27:51.669568,-114
2021-12-23 17:27:51.669575,-116
2021-12-23 17:27:51.849377,-121
2021-12-23 17:27:51.849407,-114
2021-12-23 17:27:51.849419,-109
2021-12-23 17:27:51.849429,-111
2021-12-23 17:27:51.849438,-109
2021-12-23 17:27:51.849448,-97
2021-12-23 17:27:51.849458,-97
2021-12-23 17:27:51.849467,-104
2021-12-23 17:27:51.849477,-102
2021-12-23 17:27:51.849487,-90
2021-12-23 17:27:51.849496,-87
2021-12-23 17:27:51.849506,-90
2021-12-23 17:27:51.849515,-92
2021-12-23 17:27:51.849525,-90
2021-12-23 17:27:51.849535,-83
2021-12-23 17:27:51.849544,-80
2021-12-23 17:27:51.849554,-83
2021-12-23 17:27:51.849564,-90
2021-12-23 17:27:51.849589,-95
2021-12-23 17:27:51.849600,-95
2021-12-23 17:27:51.849609,-92
2021-12-23 17:27:51.849619,-92
2021-12-23 17:27:51.849629,-90
2021-12-23 17:27:51.849638,-85
2021-12-23 17:27:51.849648,-85
2021-12-23 17:27:51.849657,-83
2021-12-23 17:27:51.849667,-76
2021-12-23 17:27:51.849676,-71
2021-12-23 17:27:51.849686,-85
2021-12-23 17:27:51.849695,-102
2021-12-23 17:27:52.163074,-102
2021-12-23 17:27:52.163104,-87
2021-12-23 17:27:52.163116,-66
2021-12-23 17:27:52.163126,-42
2021-12-23 17:27:52.163136,-28
2021-12-23 17:27:52.163146,-23
2021-12-23 17:27:52.163156,-30
2021-12-23 17:27:52.163166,-54
2021-12-23 17:27:52.163175,-80
2021-12-23 17:27:52.163185,-92
2021-12-23 17:27:52.163194,-87
2021-12-23 17:27:52.163204,-87
2021-12-23 17:27:52.163214,-87
2021-12-23 17:27:52.163223,-78
2021-12-23 17:27:52.163233,-71
2021-12-23 17:27:52.163243,-85
2021-12-23 17:27:52.163252,-104
2021-12-23 17:27:52.163262,-16
2021-12-23 17:27:52.163272,401
2021-12-23 17:27:52.163281,1190
2021-12-23 17:27:52.163291,1943
2021-12-23 17:27:52.163301,1986
2021-12-23 17:27:52.163310,891
2021-12-23 17:27:52.163320,-439
2021-12-23 17:27:52.163330,-522
2021-12-23 17:27:52.163340,26
2021-12-23 17:27:52.163349,-49
2021-12-23 17:27:52.163359,-240
2021-12-23 17:27:52.163369,-106
2021-12-23 17:27:52.163378,-73
2021-12-23 17:27:52.344360,-128
2021-12-23 17:27:52.344390,-78
2021-12-23 17:27:52.344401,-35
2021-12-23 17:27:52.344411,-42
2021-12-23 17:27:52.344421,-16
2021-12-23 17:27:52.344430,38
2021-12-23 17:27:52.344440,83
2021-12-23 17:27:52.344450,99
2021-12-23 17:27:52.344459,97
2021-12-23 17:27:52.344469,109
2021-12-23 17:27:52.344478,140
2021-12-23 17:27:52.344488,166
2021-12-23 17:27:52.344497,194
2021-12-23 17:27:52.344507,223
2021-12-23 17:27:52.344516,249
2021-12-23 17:27:52.344526,275
2021-12-23 17:27:52.344536,294
2021-12-23 17:27:52.344545,306
2021-12-23 17:27:52.344555,323
2021-12-23 17:27:52.344565,335
2021-12-23 17:27:52.344574,327
2021-12-23 17:27:52.344584,306
2021-12-23 17:27:52.344593,275
2021-12-23 17:27:52.344603,220
2021-12-23 17:27:52.344613,147
2021-12-23 17:27:52.344622,64
2021-12-23 17:27:52.344632,-9
2021-12-23 17:27:52.344641,-73
2021-12-23 17:27:52.344667,-123
2021-12-23 17:27:52.344677,-156
2021-12-23 17:27:52.524451,-171
2021-12-23 17:27:52.524472,-163
2021-12-23 17:27:52.524480,-156
2021-12-23 17:27:52.524486,-156
2021-12-23 17:27:52.524492,-147
2021-12-23 17:27:52.524499,-111
2021-12-23 17:27:52.524505,-73
2021-12-23 17:27:52.524511,-61
2021-12-23 17:27:52.524517,-66
2021-12-23 17:27:52.524533,-66
2021-12-23 17:27:52.524540,-80
2021-12-23 17:27:52.524546,-97
2021-12-23 17:27:52.524552,-95
2021-12-23 17:27:52.524559,-87
2021-12-23 17:27:52.524565,-83
2021-12-23 17:27:52.524571,-76
2021-12-23 17:27:52.524578,-87
2021-12-23 17:27:52.524584,-99
2021-12-23 17:27:52.524590,-76
2021-12-23 17:27:52.524597,-19
2021-12-23 17:27:52.524603,9
2021-12-23 17:27:52.524609,-16
2021-12-23 17:27:52.524616,-59
2021-12-23 17:27:52.524622,-85
2021-12-23 17:27:52.524628,-114
2021-12-23 17:27:52.524634,-142
2021-12-23 17:27:52.524641,-156
2021-12-23 17:27:52.524647,-156
2021-12-23 17:27:52.524653,-156
2021-12-23 17:27:52.524659,-154
2021-12-23 17:27:52.794397,-147
2021-12-23 17:27:52.794428,-142
2021-12-23 17:27:52.794440,-144
2021-12-23 17:27:52.794450,-147
2021-12-23 17:27:52.794459,-137
2021-12-23 17:27:52.794469,-114
2021-12-23 17:27:52.794479,-97
2021-12-23 17:27:52.794488,-85
2021-12-23 17:27:52.794498,-71
2021-12-23 17:27:52.794507,-80
2021-12-23 17:27:52.794517,-111
2021-12-23 17:27:52.794527,-135
2021-12-23 17:27:52.794536,-137
2021-12-23 17:27:52.794546,-137
2021-12-23 17:27:52.794555,-142
2021-12-23 17:27:52.794565,-152
2021-12-23 17:27:52.794574,-152
2021-12-23 17:27:52.794584,-144
2021-12-23 17:27:52.794594,-142
2021-12-23 17:27:52.794603,-137
2021-12-23 17:27:52.794613,-135
2021-12-23 17:27:52.794622,-142
2021-12-23 17:27:52.794632,-142
2021-12-23 17:27:52.794641,-142
2021-12-23 17:27:52.794651,-137
2021-12-23 17:27:52.794660,-121
2021-12-23 17:27:52.794670,-97
2021-12-23 17:27:52.794680,-87
2021-12-23 17:27:52.794689,-76
2021-12-23 17:27:52.794699,-57
2021-12-23 17:27:53.018955,-61
2021-12-23 17:27:53.018975,-95
2021-12-23 17:27:53.018982,-121
2021-12-23 17:27:53.018987,-123
2021-12-23 17:27:53.018992,-111
2021-12-23 17:27:53.018997,-97
2021-12-23 17:27:53.019002,-90
2021-12-23 17:27:53.019007,-85
2021-12-23 17:27:53.019012,-95
2021-12-23 17:27:53.019017,-130
2021-12-23 17:27:53.019022,-123
2021-12-23 17:27:53.019027,95
2021-12-23 17:27:53.019032,705
2021-12-23 17:27:53.019037,1599
2021-12-23 17:27:53.019042,2205
2021-12-23 17:27:53.019047,1765
2021-12-23 17:27:53.019052,266
2021-12-23 17:27:53.019057,-717
2021-12-23 17:27:53.019062,-294
2021-12-23 17:27:53.019067,76
2021-12-23 17:27:53.019072,-213
2021-12-23 17:27:53.019077,-263
2021-12-23 17:27:53.019082,-116
2021-12-23 17:27:53.019087,-168
2021-12-23 17:27:53.019092,-204
2021-12-23 17:27:53.019097,-140
2021-12-23 17:27:53.019102,-130
2021-12-23 17:27:53.019106,-133
2021-12-23 17:27:53.019111,-87
2021-12-23 17:27:53.019116,-52
2021-12-23 17:27:53.244362,-33
2021-12-23 17:27:53.244392,0
2021-12-23 17:27:53.244404,45
2021-12-23 17:27:53.244415,71
2021-12-23 17:27:53.244424,87
2021-12-23 17:27:53.244434,109
2021-12-23 17:27:53.244444,133
2021-12-23 17:27:53.244453,163
2021-12-23 17:27:53.244463,190
2021-12-23 17:27:53.244472,213
2021-12-23 17:27:53.244482,244
2021-12-23 17:27:53.244492,270
2021-12-23 17:27:53.244501,280
2021-12-23 17:27:53.244511,268
2021-12-23 17:27:53.244521,244
2021-12-23 17:27:53.244544,213
2021-12-23 17:27:53.244554,159
2021-12-23 17:27:53.244564,78
2021-12-23 17:27:53.244573,-2
2021-12-23 17:27:53.244583,-71
2021-12-23 17:27:53.244593,-137
2021-12-23 17:27:53.244603,-201
2021-12-23 17:27:53.244612,-244
2021-12-23 17:27:53.244622,-268
2021-12-23 17:27:53.244632,-280
2021-12-23 17:27:53.244642,-285
2021-12-23 17:27:53.244652,-289
2021-12-23 17:27:53.244662,-287
2021-12-23 17:27:53.244671,-278
2021-12-23 17:27:53.244681,-266
2021-12-23 17:27:53.469404,-261
2021-12-23 17:27:53.469435,-249
2021-12-23 17:27:53.469446,-237
2021-12-23 17:27:53.469456,-230
2021-12-23 17:27:53.469466,-213
2021-12-23 17:27:53.469476,-197
2021-12-23 17:27:53.469485,-201
2021-12-23 17:27:53.469495,-213
2021-12-23 17:27:53.469505,-204
2021-12-23 17:27:53.469514,-192
2021-12-23 17:27:53.469524,-192
2021-12-23 17:27:53.469533,-201
2021-12-23 17:27:53.469543,-204
2021-12-23 17:27:53.469552,-209
2021-12-23 17:27:53.469562,-209
2021-12-23 17:27:53.469571,-209
2021-12-23 17:27:53.469593,-213
2021-12-23 17:27:53.469604,-216
2021-12-23 17:27:53.469614,-211
2021-12-23 17:27:53.469624,-206
2021-12-23 17:27:53.469634,-204
2021-12-23 17:27:53.469644,-204
2021-12-23 17:27:53.469653,-201
2021-12-23 17:27:53.469663,-192
2021-12-23 17:27:53.469673,-185
2021-12-23 17:27:53.469682,-180
2021-12-23 17:27:53.469692,-175
2021-12-23 17:27:53.469702,-168
2021-12-23 17:27:53.469712,-159
2021-12-23 17:27:53.469722,-152
2021-12-23 17:27:53.694588,-152
2021-12-23 17:27:53.694618,-154
2021-12-23 17:27:53.694630,-152
2021-12-23 17:27:53.694640,-152
2021-12-23 17:27:53.694650,-152
2021-12-23 17:27:53.694673,-152
2021-12-23 17:27:53.694683,-156
2021-12-23 17:27:53.694693,-156
2021-12-23 17:27:53.694703,-149
2021-12-23 17:27:53.694713,-144
2021-12-23 17:27:53.694722,-147
2021-12-23 17:27:53.694732,-154
2021-12-23 17:27:53.694742,-159
2021-12-23 17:27:53.694752,-149
2021-12-23 17:27:53.694761,-130
2021-12-23 17:27:53.694771,-109
2021-12-23 17:27:53.694781,-87
2021-12-23 17:27:53.694790,-64
2021-12-23 17:27:53.694800,-61
2021-12-23 17:27:53.694810,-92
2021-12-23 17:27:53.694820,-114
2021-12-23 17:27:53.694829,-114
2021-12-23 17:27:53.694839,-109
2021-12-23 17:27:53.694849,-106
2021-12-23 17:27:53.694858,-102
2021-12-23 17:27:53.694868,-95
2021-12-23 17:27:53.694878,-95
2021-12-23 17:27:53.694888,-102
2021-12-23 17:27:53.694897,-118
2021-12-23 17:27:53.694907,-52
2021-12-23 17:27:53.919420,325
2021-12-23 17:27:53.919450,1131
2021-12-23 17:27:53.919462,1988
2021-12-23 17:27:53.919472,2179
2021-12-23 17:27:53.919481,1138
2021-12-23 17:27:53.919491,-380
2021-12-23 17:27:53.919501,-658
2021-12-23 17:27:53.919510,-35
2021-12-23 17:27:53.919520,-33
2021-12-23 17:27:53.919530,-278
2021-12-23 17:27:53.919539,-147
2021-12-23 17:27:53.919549,-90
2021-12-23 17:27:53.919559,-171
2021-12-23 17:27:53.919568,-125
2021-12-23 17:27:53.919578,-64
2021-12-23 17:27:53.919588,-78
2021-12-23 17:27:53.919597,-64
2021-12-23 17:27:53.919607,-28
2021-12-23 17:27:53.919616,-11
2021-12-23 17:27:53.919626,9
2021-12-23 17:27:53.919636,42
2021-12-23 17:27:53.919645,61
2021-12-23 17:27:53.919655,80
2021-12-23 17:27:53.919665,118
2021-12-23 17:27:53.919674,159
2021-12-23 17:27:53.919698,201
2021-12-23 17:27:53.919708,240
2021-12-23 17:27:53.919718,273
2021-12-23 17:27:53.919728,299
2021-12-23 17:27:53.919738,323
2021-12-23 17:27:54.188166,337
2021-12-23 17:27:54.188187,337
2021-12-23 17:27:54.188221,318
2021-12-23 17:27:54.188234,282
2021-12-23 17:27:54.188245,225
2021-12-23 17:27:54.188255,147
2021-12-23 17:27:54.188265,68
2021-12-23 17:27:54.188275,-2
2021-12-23 17:27:54.188288,-68
2021-12-23 17:27:54.188295,-125
2021-12-23 17:27:54.188301,-173
2021-12-23 17:27:54.188307,-201
2021-12-23 17:27:54.188314,-211
2021-12-23 17:27:54.188320,-220
2021-12-23 17:27:54.188327,-228
2021-12-23 17:27:54.188333,-223
2021-12-23 17:27:54.188339,-223
2021-12-23 17:27:54.188346,-218
2021-12-23 17:27:54.188352,-209
2021-12-23 17:27:54.188359,-194
2021-12-23 17:27:54.188365,-180
2021-12-23 17:27:54.188371,-171
2021-12-23 17:27:54.188378,-166
2021-12-23 17:27:54.188384,-154
2021-12-23 17:27:54.188390,-142
2021-12-23 17:27:54.188397,-135
2021-12-23 17:27:54.188403,-137
2021-12-23 17:27:54.188410,-144
2021-12-23 17:27:54.188416,-144
2021-12-23 17:27:54.188423,-137
2021-12-23 17:27:54.414355,-137
2021-12-23 17:27:54.414387,-142
2021-12-23 17:27:54.414398,-142
2021-12-23 17:27:54.414408,-142
2021-12-23 17:27:54.414418,-149
2021-12-23 17:27:54.414428,-149
2021-12-23 17:27:54.414437,-144
2021-12-23 17:27:54.414447,-142
2021-12-23 17:27:54.414457,-142
2021-12-23 17:27:54.414466,-144
2021-12-23 17:27:54.414476,-144
2021-12-23 17:27:54.414486,-130
2021-12-23 17:27:54.414495,-116
2021-12-23 17:27:54.414505,-109
2021-12-23 17:27:54.414515,-102
2021-12-23 17:27:54.414525,-97
2021-12-23 17:27:54.414534,-97
2021-12-23 17:27:54.414544,-87
2021-12-23 17:27:54.414554,-78
2021-12-23 17:27:54.414563,-78
2021-12-23 17:27:54.414573,-78
2021-12-23 17:27:54.414582,-80
2021-12-23 17:27:54.414606,-85
2021-12-23 17:27:54.414616,-83
2021-12-23 17:27:54.414626,-78
2021-12-23 17:27:54.414636,-80
2021-12-23 17:27:54.414646,-85
2021-12-23 17:27:54.414656,-92
2021-12-23 17:27:54.414665,-97
2021-12-23 17:27:54.414675,-95
2021-12-23 17:27:54.639031,-95
2021-12-23 17:27:54.639053,-87
2021-12-23 17:27:54.639061,-83
2021-12-23 17:27:54.639067,-87
2021-12-23 17:27:54.639074,-92
2021-12-23 17:27:54.639080,-92
2021-12-23 17:27:54.639086,-85
2021-12-23 17:27:54.639093,-71
2021-12-23 17:27:54.639099,-57
2021-12-23 17:27:54.639105,-47
2021-12-23 17:27:54.639112,-33
2021-12-23 17:27:54.639118,-11
2021-12-23 17:27:54.639124,-28
2021-12-23 17:27:54.639130,-64
2021-12-23 17:27:54.639137,-78
2021-12-23 17:27:54.639143,-80
2021-12-23 17:27:54.639149,-78
2021-12-23 17:27:54.639155,-68
2021-12-23 17:27:54.639162,-64
2021-12-23 17:27:54.639168,-61
2021-12-23 17:27:54.639174,-61
2021-12-23 17:27:54.639181,-87
2021-12-23 17:27:54.639187,-92
2021-12-23 17:27:54.639193,111
2021-12-23 17:27:54.639200,712
2021-12-23 17:27:54.639206,1570
2021-12-23 17:27:54.639212,2124
2021-12-23 17:27:54.639219,1687
2021-12-23 17:27:54.639225,256
2021-12-23 17:27:54.639231,-677
2021-12-23 17:27:54.864327,-273
2021-12-23 17:27:54.864358,78
2021-12-23 17:27:54.864370,-185
2021-12-23 17:27:54.864380,-216
2021-12-23 17:27:54.864390,-71
2021-12-23 17:27:54.864400,-118
2021-12-23 17:27:54.864409,-140
2021-12-23 17:27:54.864419,-73
2021-12-23 17:27:54.864428,-64
2021-12-23 17:27:54.864438,-73
2021-12-23 17:27:54.864447,-40
2021-12-23 17:27:54.864457,-9
2021-12-23 17:27:54.864466,4
2021-12-23 17:27:54.864476,30
2021-12-23 17:27:54.864485,52
2021-12-23 17:27:54.864495,76
2021-12-23 17:27:54.864504,109
2021-12-23 17:27:54.864514,142
2021-12-23 17:27:54.864523,178
2021-12-23 17:27:54.864533,213
2021-12-23 17:27:54.864542,242
2021-12-23 17:27:54.864552,268
2021-12-23 17:27:54.864562,299
2021-12-23 17:27:54.864571,318
2021-12-23 17:27:54.864581,327
2021-12-23 17:27:54.864590,323
2021-12-23 17:27:54.864600,299
2021-12-23 17:27:54.864609,261
2021-12-23 17:27:54.864619,206
2021-12-23 17:27:54.864628,137
2021-12-23 17:27:55.089264,64
2021-12-23 17:27:55.089294,-4
2021-12-23 17:27:55.089306,-76
2021-12-23 17:27:55.089316,-142
2021-12-23 17:27:55.089326,-182
2021-12-23 17:27:55.089336,-201
2021-12-23 17:27:55.089346,-220
2021-12-23 17:27:55.089355,-235
2021-12-23 17:27:55.089365,-240
2021-12-23 17:27:55.089375,-232
2021-12-23 17:27:55.089385,-220
2021-12-23 17:27:55.089395,-209
2021-12-23 17:27:55.089404,-199
2021-12-23 17:27:55.089414,-194
2021-12-23 17:27:55.089424,-182
2021-12-23 17:27:55.089434,-171
2021-12-23 17:27:55.089444,-163
2021-12-23 17:27:55.089454,-154
2021-12-23 17:27:55.089464,-147
2021-12-23 17:27:55.089474,-149
2021-12-23 17:27:55.089484,-152
2021-12-23 17:27:55.089493,-149
2021-12-23 17:27:55.089503,-147
2021-12-23 17:27:55.089513,-144
2021-12-23 17:27:55.089523,-142
2021-12-23 17:27:55.089547,-144
2021-12-23 17:27:55.089558,-144
2021-12-23 17:27:55.089568,-142
2021-12-23 17:27:55.089577,-140
2021-12-23 17:27:55.089587,-137
2021-12-23 17:27:55.314448,-135
2021-12-23 17:27:55.314479,-135
2021-12-23 17:27:55.314491,-135
2021-12-23 17:27:55.314501,-133
2021-12-23 17:27:55.314511,-130
2021-12-23 17:27:55.314520,-133
2021-12-23 17:27:55.314530,-140
2021-12-23 17:27:55.314540,-142
2021-12-23 17:27:55.314550,-137
2021-12-23 17:27:55.314560,-135
2021-12-23 17:27:55.314569,-137
2021-12-23 17:27:55.314579,-137
2021-12-23 17:27:55.314589,-135
2021-12-23 17:27:55.314599,-137
2021-12-23 17:27:55.314609,-137
2021-12-23 17:27:55.314619,-137
2021-12-23 17:27:55.314629,-133
2021-12-23 17:27:55.314638,-125
2021-12-23 17:27:55.314648,-123
2021-12-23 17:27:55.314658,-125
2021-12-23 17:27:55.314668,-125
2021-12-23 17:27:55.314677,-123
2021-12-23 17:27:55.314687,-118
2021-12-23 17:27:55.314697,-111
2021-12-23 17:27:55.314707,-111
2021-12-23 17:27:55.314716,-111
2021-12-23 17:27:55.314726,-104
2021-12-23 17:27:55.314736,-99
2021-12-23 17:27:55.314759,-102
2021-12-23 17:27:55.314770,-104
2021-12-23 17:27:55.539331,-109
2021-12-23 17:27:55.539362,-102
2021-12-23 17:27:55.539374,-85
2021-12-23 17:27:55.539384,-73
2021-12-23 17:27:55.539394,-61
2021-12-23 17:27:55.539404,-35
2021-12-23 17:27:55.539414,-26
2021-12-23 17:27:55.539423,-66
2021-12-23 17:27:55.539433,-114
2021-12-23 17:27:55.539443,-121
2021-12-23 17:27:55.539452,-109
2021-12-23 17:27:55.539462,-106
2021-12-23 17:27:55.539472,-109
2021-12-23 17:27:55.539481,-102
2021-12-23 17:27:55.539491,-99
2021-12-23 17:27:55.539516,-106
2021-12-23 17:27:55.539527,-123
2021-12-23 17:27:55.539536,-111
2021-12-23 17:27:55.539546,118
2021-12-23 17:27:55.539556,774
2021-12-23 17:27:55.539566,1661
2021-12-23 17:27:55.539576,2162
2021-12-23 17:27:55.539586,1596
2021-12-23 17:27:55.539595,90
2021-12-23 17:27:55.539605,-736
2021-12-23 17:27:55.539615,-247
2021-12-23 17:27:55.539625,35
2021-12-23 17:27:55.539635,-247
2021-12-23 17:27:55.539644,-232
2021-12-23 17:27:55.539654,-95
2021-12-23 17:27:55.808283,-156
2021-12-23 17:27:55.808314,-163
2021-12-23 17:27:55.808319,-97
2021-12-23 17:27:55.808324,-95
2021-12-23 17:27:55.808329,-95
2021-12-23 17:27:55.808333,-61
2021-12-23 17:27:55.808337,-38
2021-12-23 17:27:55.808342,-19
2021-12-23 17:27:55.808346,7
2021-12-23 17:27:55.808351,23
2021-12-23 17:27:55.808355,42
2021-12-23 17:27:55.808359,78
2021-12-23 17:27:55.808364,111
2021-12-23 17:27:55.808368,144
2021-12-23 17:27:55.808373,182
2021-12-23 17:27:55.808377,220
2021-12-23 17:27:55.808381,247
2021-12-23 17:27:55.808386,268
2021-12-23 17:27:55.808390,289
2021-12-23 17:27:55.808395,297
2021-12-23 17:27:55.808399,282
2021-12-23 17:27:55.808403,266
2021-12-23 17:27:55.808408,230
2021-12-23 17:27:55.808412,168
2021-12-23 17:27:55.808417,99
2021-12-23 17:27:55.808421,28
2021-12-23 17:27:55.808425,-49
2021-12-23 17:27:55.808430,-116
2021-12-23 17:27:55.808434,-171
2021-12-23 17:27:55.808439,-211
2021-12-23 17:27:55.988907,-232
2021-12-23 17:27:55.988927,-251
2021-12-23 17:27:55.988935,-263
2021-12-23 17:27:55.988941,-263
2021-12-23 17:27:55.988948,-270
2021-12-23 17:27:55.988954,-270
2021-12-23 17:27:55.988960,-254
2021-12-23 17:27:55.988967,-244
2021-12-23 17:27:55.988973,-240
2021-12-23 17:27:55.988979,-218
2021-12-23 17:27:55.988985,-201
2021-12-23 17:27:55.988991,-206
2021-12-23 17:27:55.988998,-204
2021-12-23 17:27:55.989004,-192
2021-12-23 17:27:55.989010,-201
2021-12-23 17:27:55.989016,-216
2021-12-23 17:27:55.989023,-216
2021-12-23 17:27:55.989029,-211
2021-12-23 17:27:55.989035,-206
2021-12-23 17:27:55.989041,-201
2021-12-23 17:27:55.989047,-194
2021-12-23 17:27:55.989054,-194
2021-12-23 17:27:55.989060,-197
2021-12-23 17:27:55.989066,-190
2021-12-23 17:27:55.989072,-182
2021-12-23 17:27:55.989079,-180
2021-12-23 17:27:55.989085,-180
2021-12-23 17:27:55.989091,-175
2021-12-23 17:27:55.989097,-168
2021-12-23 17:27:55.989103,-161
2021-12-23 17:27:56.392730,-159
2021-12-23 17:27:56.392751,-156
2021-12-23 17:27:56.392759,-154
2021-12-23 17:27:56.392766,-161
2021-12-23 17:27:56.392773,-166
