Time,ECG
2021-12-23 17:47:31.907779,-33
2021-12-23 17:47:31.907796,-4
2021-12-23 17:47:31.907802,38
2021-12-23 17:47:31.907807,59
2021-12-23 17:47:31.907812,42
2021-12-23 17:47:31.907818,33
2021-12-23 17:47:31.907823,35
2021-12-23 17:47:31.907828,9
2021-12-23 17:47:31.907833,-19
2021-12-23 17:47:31.907839,-9
2021-12-23 17:47:31.907844,-7
2021-12-23 17:47:31.907849,-30
2021-12-23 17:47:31.907855,-19
2021-12-23 17:47:31.907860,19
2021-12-23 17:47:31.907865,11
2021-12-23 17:47:31.907870,-30
2021-12-23 17:47:31.907875,-23
2021-12-23 17:47:31.907881,206
2021-12-23 17:47:31.907886,869
2021-12-23 17:47:31.907891,1808
2021-12-23 17:47:31.907896,2404
2021-12-23 17:47:31.907901,1884
2021-12-23 17:47:31.907906,289
2021-12-23 17:47:31.907911,-651
2021-12-23 17:47:31.907917,-156
2021-12-23 17:47:31.907922,163
2021-12-23 17:47:31.907928,-135
2021-12-23 17:47:31.907933,-130
2021-12-23 17:47:31.907938,11
2021-12-23 17:47:31.907943,-61
2021-12-23 17:47:32.133046,-85
2021-12-23 17:47:32.133066,-23
2021-12-23 17:47:32.133073,-14
2021-12-23 17:47:32.133080,-2
2021-12-23 17:47:32.133087,33
2021-12-23 17:47:32.133093,52
2021-12-23 17:47:32.133101,80
2021-12-23 17:47:32.133107,111
2021-12-23 17:47:32.133114,118
2021-12-23 17:47:32.133120,133
2021-12-23 17:47:32.133127,175
2021-12-23 17:47:32.133133,216
2021-12-23 17:47:32.133139,237
2021-12-23 17:47:32.133146,256
2021-12-23 17:47:32.133152,297
2021-12-23 17:47:32.133159,356
2021-12-23 17:47:32.133165,394
2021-12-23 17:47:32.133172,422
2021-12-23 17:47:32.133179,453
2021-12-23 17:47:32.133185,468
2021-12-23 17:47:32.133195,465
2021-12-23 17:47:32.133201,441
2021-12-23 17:47:32.133208,401
2021-12-23 17:47:32.133214,337
2021-12-23 17:47:32.133220,232
2021-12-23 17:47:32.133227,133
2021-12-23 17:47:32.133234,59
2021-12-23 17:47:32.133242,-16
2021-12-23 17:47:32.133248,-83
2021-12-23 17:47:32.133256,-125
2021-12-23 17:47:32.358545,-166
2021-12-23 17:47:32.358575,-187
2021-12-23 17:47:32.358587,-180
2021-12-23 17:47:32.358597,-180
2021-12-23 17:47:32.358606,-187
2021-12-23 17:47:32.358616,-190
2021-12-23 17:47:32.358625,-175
2021-12-23 17:47:32.358635,-154
2021-12-23 17:47:32.358644,-156
2021-12-23 17:47:32.358654,-144
2021-12-23 17:47:32.358663,-121
2021-12-23 17:47:32.358673,-118
2021-12-23 17:47:32.358683,-121
2021-12-23 17:47:32.358698,-106
2021-12-23 17:47:32.358708,-99
2021-12-23 17:47:32.358717,-114
2021-12-23 17:47:32.358727,-118
2021-12-23 17:47:32.358737,-111
2021-12-23 17:47:32.358746,-97
2021-12-23 17:47:32.358756,-87
2021-12-23 17:47:32.358765,-97
2021-12-23 17:47:32.358775,-95
2021-12-23 17:47:32.358784,-78
2021-12-23 17:47:32.358794,-87
2021-12-23 17:47:32.358803,-97
2021-12-23 17:47:32.358813,-73
2021-12-23 17:47:32.358823,-66
2021-12-23 17:47:32.358832,-97
2021-12-23 17:47:32.358842,-95
2021-12-23 17:47:32.358853,-66
2021-12-23 17:47:32.628507,-73
2021-12-23 17:47:32.628539,-73
2021-12-23 17:47:32.628547,-47
2021-12-23 17:47:32.628554,-47
2021-12-23 17:47:32.628560,-61
2021-12-23 17:47:32.628567,-73
2021-12-23 17:47:32.628573,-71
2021-12-23 17:47:32.628580,-47
2021-12-23 17:47:32.628586,-40
2021-12-23 17:47:32.628593,-49
2021-12-23 17:47:32.628599,-42
2021-12-23 17:47:32.628605,-47
2021-12-23 17:47:32.628612,-54
2021-12-23 17:47:32.628618,-47
2021-12-23 17:47:32.628624,-47
2021-12-23 17:47:32.628631,-26
2021-12-23 17:47:32.628637,11
2021-12-23 17:47:32.628646,21
2021-12-23 17:47:32.628652,35
2021-12-23 17:47:32.628659,52
2021-12-23 17:47:32.628665,28
2021-12-23 17:47:32.628672,-2
2021-12-23 17:47:32.628678,-11
2021-12-23 17:47:32.628685,-14
2021-12-23 17:47:32.628691,-9
2021-12-23 17:47:32.628697,2
2021-12-23 17:47:32.628704,4
2021-12-23 17:47:32.628710,-9
2021-12-23 17:47:32.628717,-4
2021-12-23 17:47:32.628723,-2
2021-12-23 17:47:32.943443,-23
2021-12-23 17:47:32.943472,57
2021-12-23 17:47:32.943489,499
2021-12-23 17:47:32.943502,1328
2021-12-23 17:47:32.943512,2100
2021-12-23 17:47:32.943521,2138
2021-12-23 17:47:32.943530,1021
2021-12-23 17:47:32.943558,-325
2021-12-23 17:47:32.943572,-413
2021-12-23 17:47:32.943583,114
2021-12-23 17:47:32.943599,11
2021-12-23 17:47:32.943620,-182
2021-12-23 17:47:32.943661,-52
2021-12-23 17:47:32.943710,-19
2021-12-23 17:47:32.943752,-76
2021-12-23 17:47:32.943780,-47
2021-12-23 17:47:32.943804,-16
2021-12-23 17:47:32.943821,-16
2021-12-23 17:47:32.943836,7
2021-12-23 17:47:32.943849,38
2021-12-23 17:47:32.943860,59
2021-12-23 17:47:32.943877,80
2021-12-23 17:47:32.943893,97
2021-12-23 17:47:32.943908,106
2021-12-23 17:47:32.943925,137
2021-12-23 17:47:32.943945,168
2021-12-23 17:47:32.943965,182
2021-12-23 17:47:32.943993,228
2021-12-23 17:47:32.944020,289
2021-12-23 17:47:32.944060,325
2021-12-23 17:47:33.078791,346
2021-12-23 17:47:33.078823,375
2021-12-23 17:47:33.078834,403
2021-12-23 17:47:33.078844,430
2021-12-23 17:47:33.078854,434
2021-12-23 17:47:33.078864,415
2021-12-23 17:47:33.078874,396
2021-12-23 17:47:33.078883,370
2021-12-23 17:47:33.078893,287
2021-12-23 17:47:33.078903,168
2021-12-23 17:47:33.078913,92
2021-12-23 17:47:33.078922,33
2021-12-23 17:47:33.078932,-47
2021-12-23 17:47:33.078942,-97
2021-12-23 17:47:33.078951,-121
2021-12-23 17:47:33.078961,-159
2021-12-23 17:47:33.078971,-187
2021-12-23 17:47:33.078980,-173
2021-12-23 17:47:33.078990,-156
2021-12-23 17:47:33.079000,-168
2021-12-23 17:47:33.079009,-173
2021-12-23 17:47:33.079019,-166
2021-12-23 17:47:33.079029,-154
2021-12-23 17:47:33.079038,-116
2021-12-23 17:47:33.079053,-104
2021-12-23 17:47:33.079063,-111
2021-12-23 17:47:33.079072,-85
2021-12-23 17:47:33.079082,-71
2021-12-23 17:47:33.079092,-99
2021-12-23 17:47:33.079102,-118
2021-12-23 17:47:33.391425,-104
2021-12-23 17:47:33.391445,-83
2021-12-23 17:47:33.391453,-78
2021-12-23 17:47:33.391459,-87
2021-12-23 17:47:33.391466,-97
2021-12-23 17:47:33.391473,-97
2021-12-23 17:47:33.391479,-73
2021-12-23 17:47:33.391486,-54
2021-12-23 17:47:33.391492,-68
2021-12-23 17:47:33.391499,-85
2021-12-23 17:47:33.391505,-83
2021-12-23 17:47:33.391511,-87
2021-12-23 17:47:33.391518,-85
2021-12-23 17:47:33.391524,-66
2021-12-23 17:47:33.391531,-61
2021-12-23 17:47:33.391537,-71
2021-12-23 17:47:33.391544,-71
2021-12-23 17:47:33.391550,-66
2021-12-23 17:47:33.391557,-61
2021-12-23 17:47:33.391563,-49
2021-12-23 17:47:33.391570,-49
2021-12-23 17:47:33.391576,-52
2021-12-23 17:47:33.391584,-49
2021-12-23 17:47:33.391591,-40
2021-12-23 17:47:33.391597,-38
2021-12-23 17:47:33.391604,-45
2021-12-23 17:47:33.391610,-45
2021-12-23 17:47:33.391617,-40
2021-12-23 17:47:33.391623,-40
2021-12-23 17:47:33.391630,-28
2021-12-23 17:47:33.528523,-4
2021-12-23 17:47:33.528554,14
2021-12-23 17:47:33.528566,23
2021-12-23 17:47:33.528576,7
2021-12-23 17:47:33.528586,-21
2021-12-23 17:47:33.528596,-23
2021-12-23 17:47:33.528606,-21
2021-12-23 17:47:33.528616,-38
2021-12-23 17:47:33.528625,-30
2021-12-23 17:47:33.528635,-28
2021-12-23 17:47:33.528645,-40
2021-12-23 17:47:33.528654,-28
2021-12-23 17:47:33.528664,-19
2021-12-23 17:47:33.528674,-45
2021-12-23 17:47:33.528683,-57
2021-12-23 17:47:33.528693,76
2021-12-23 17:47:33.528703,527
2021-12-23 17:47:33.528713,1342
2021-12-23 17:47:33.528722,2126
2021-12-23 17:47:33.528732,2095
2021-12-23 17:47:33.528742,812
2021-12-23 17:47:33.528752,-510
2021-12-23 17:47:33.528761,-401
2021-12-23 17:47:33.528771,123
2021-12-23 17:47:33.528787,-66
2021-12-23 17:47:33.528797,-213
2021-12-23 17:47:33.528807,-61
2021-12-23 17:47:33.528816,-73
2021-12-23 17:47:33.528826,-123
2021-12-23 17:47:33.528836,-52
2021-12-23 17:47:33.798517,-28
2021-12-23 17:47:33.798539,-42
2021-12-23 17:47:33.798547,-4
2021-12-23 17:47:33.798553,40
2021-12-23 17:47:33.798560,49
2021-12-23 17:47:33.798566,47
2021-12-23 17:47:33.798573,68
2021-12-23 17:47:33.798579,106
2021-12-23 17:47:33.798585,125
2021-12-23 17:47:33.798591,137
2021-12-23 17:47:33.798598,171
2021-12-23 17:47:33.798604,223
2021-12-23 17:47:33.798610,266
2021-12-23 17:47:33.798617,278
2021-12-23 17:47:33.798623,301
2021-12-23 17:47:33.798629,354
2021-12-23 17:47:33.798635,399
2021-12-23 17:47:33.798642,413
2021-12-23 17:47:33.798648,408
2021-12-23 17:47:33.798654,394
2021-12-23 17:47:33.798661,373
2021-12-23 17:47:33.798667,330
2021-12-23 17:47:33.798673,256
2021-12-23 17:47:33.798679,161
2021-12-23 17:47:33.798686,64
2021-12-23 17:47:33.798692,-4
2021-12-23 17:47:33.798698,-64
2021-12-23 17:47:33.798704,-130
2021-12-23 17:47:33.798711,-168
2021-12-23 17:47:33.798717,-182
2021-12-23 17:47:34.023120,-199
2021-12-23 17:47:34.023143,-204
2021-12-23 17:47:34.023151,-199
2021-12-23 17:47:34.023157,-201
2021-12-23 17:47:34.023164,-206
2021-12-23 17:47:34.023171,-199
2021-12-23 17:47:34.023177,-180
2021-12-23 17:47:34.023183,-147
2021-12-23 17:47:34.023190,-130
2021-12-23 17:47:34.023196,-144
2021-12-23 17:47:34.023202,-147
2021-12-23 17:47:34.023209,-133
2021-12-23 17:47:34.023215,-123
2021-12-23 17:47:34.023222,-123
2021-12-23 17:47:34.023228,-130
2021-12-23 17:47:34.023235,-137
2021-12-23 17:47:34.023241,-121
2021-12-23 17:47:34.023247,-92
2021-12-23 17:47:34.023254,-104
2021-12-23 17:47:34.023260,-130
2021-12-23 17:47:34.023267,-109
2021-12-23 17:47:34.023273,-80
2021-12-23 17:47:34.023280,-104
2021-12-23 17:47:34.023286,-116
2021-12-23 17:47:34.023292,-90
2021-12-23 17:47:34.023299,-92
2021-12-23 17:47:34.023306,-95
2021-12-23 17:47:34.023312,-66
2021-12-23 17:47:34.023318,-61
2021-12-23 17:47:34.023325,-66
2021-12-23 17:47:34.248554,-66
2021-12-23 17:47:34.248584,-66
2021-12-23 17:47:34.248596,-57
2021-12-23 17:47:34.248606,-52
2021-12-23 17:47:34.248616,-66
2021-12-23 17:47:34.248626,-66
2021-12-23 17:47:34.248635,-52
2021-12-23 17:47:34.248645,-40
2021-12-23 17:47:34.248655,-21
2021-12-23 17:47:34.248664,-4
2021-12-23 17:47:34.248681,14
2021-12-23 17:47:34.248691,9
2021-12-23 17:47:34.248701,-23
2021-12-23 17:47:34.248711,-38
2021-12-23 17:47:34.248721,-40
2021-12-23 17:47:34.248731,-47
2021-12-23 17:47:34.248741,-49
2021-12-23 17:47:34.248750,-40
2021-12-23 17:47:34.248760,-21
2021-12-23 17:47:34.248770,-21
2021-12-23 17:47:34.248780,-33
2021-12-23 17:47:34.248806,-35
2021-12-23 17:47:34.248816,-42
2021-12-23 17:47:34.248826,40
2021-12-23 17:47:34.248836,463
2021-12-23 17:47:34.248846,1321
2021-12-23 17:47:34.248855,2176
2021-12-23 17:47:34.248865,2214
2021-12-23 17:47:34.248875,933
2021-12-23 17:47:34.248885,-518
2021-12-23 17:47:34.472940,-487
2021-12-23 17:47:34.472971,106
2021-12-23 17:47:34.472983,-45
2021-12-23 17:47:34.472993,-220
2021-12-23 17:47:34.473003,-68
2021-12-23 17:47:34.473013,-64
2021-12-23 17:47:34.473023,-130
2021-12-23 17:47:34.473033,-71
2021-12-23 17:47:34.473042,-30
2021-12-23 17:47:34.473052,-54
2021-12-23 17:47:34.473062,-35
2021-12-23 17:47:34.473072,11
2021-12-23 17:47:34.473082,19
2021-12-23 17:47:34.473091,30
2021-12-23 17:47:34.473101,73
2021-12-23 17:47:34.473111,95
2021-12-23 17:47:34.473120,118
2021-12-23 17:47:34.473130,166
2021-12-23 17:47:34.473140,182
2021-12-23 17:47:34.473150,201
2021-12-23 17:47:34.473159,263
2021-12-23 17:47:34.473169,304
2021-12-23 17:47:34.473179,320
2021-12-23 17:47:34.473189,349
2021-12-23 17:47:34.473199,380
2021-12-23 17:47:34.473214,394
2021-12-23 17:47:34.473224,408
2021-12-23 17:47:34.473233,403
2021-12-23 17:47:34.473243,361
2021-12-23 17:47:34.473253,299
2021-12-23 17:47:34.653566,223
2021-12-23 17:47:34.653588,137
2021-12-23 17:47:34.653595,59
2021-12-23 17:47:34.653602,-21
2021-12-23 17:47:34.653608,-90
2021-12-23 17:47:34.653615,-133
2021-12-23 17:47:34.653621,-175
2021-12-23 17:47:34.653627,-199
2021-12-23 17:47:34.653633,-187
2021-12-23 17:47:34.653639,-180
2021-12-23 17:47:34.653646,-192
2021-12-23 17:47:34.653652,-190
2021-12-23 17:47:34.653658,-175
2021-12-23 17:47:34.653665,-168
2021-12-23 17:47:34.653671,-156
2021-12-23 17:47:34.653677,-152
2021-12-23 17:47:34.653683,-147
2021-12-23 17:47:34.653690,-121
2021-12-23 17:47:34.653696,-95
2021-12-23 17:47:34.653702,-106
2021-12-23 17:47:34.653708,-118
2021-12-23 17:47:34.653715,-99
2021-12-23 17:47:34.653721,-83
2021-12-23 17:47:34.653727,-90
2021-12-23 17:47:34.653734,-97
2021-12-23 17:47:34.653740,-78
2021-12-23 17:47:34.653746,-66
2021-12-23 17:47:34.653752,-83
2021-12-23 17:47:34.653759,-87
2021-12-23 17:47:34.653765,-61
2021-12-23 17:47:34.923068,-57
2021-12-23 17:47:34.923089,-68
2021-12-23 17:47:34.923097,-61
2021-12-23 17:47:34.923104,-42
2021-12-23 17:47:34.923110,-38
2021-12-23 17:47:34.923116,-52
2021-12-23 17:47:34.923123,-73
2021-12-23 17:47:34.923129,-61
2021-12-23 17:47:34.923135,-30
2021-12-23 17:47:34.923142,-23
2021-12-23 17:47:34.923148,-33
2021-12-23 17:47:34.923154,-30
2021-12-23 17:47:34.923161,-28
2021-12-23 17:47:34.923167,-28
2021-12-23 17:47:34.923174,-30
2021-12-23 17:47:34.923180,-40
2021-12-23 17:47:34.923190,-45
2021-12-23 17:47:34.923196,-30
2021-12-23 17:47:34.923203,-19
2021-12-23 17:47:34.923209,-11
2021-12-23 17:47:34.923215,14
2021-12-23 17:47:34.923222,38
2021-12-23 17:47:34.923228,42
2021-12-23 17:47:34.923234,49
2021-12-23 17:47:34.923241,42
2021-12-23 17:47:34.923247,11
2021-12-23 17:47:34.923254,-7
2021-12-23 17:47:34.923260,4
2021-12-23 17:47:34.923266,14
2021-12-23 17:47:34.923273,9
2021-12-23 17:47:35.148688,9
2021-12-23 17:47:35.148719,16
2021-12-23 17:47:35.148731,19
2021-12-23 17:47:35.148741,7
2021-12-23 17:47:35.148751,-21
2021-12-23 17:47:35.148760,0
2021-12-23 17:47:35.148770,320
2021-12-23 17:47:35.148780,1100
2021-12-23 17:47:35.148789,1993
2021-12-23 17:47:35.148799,2293
2021-12-23 17:47:35.148808,1418
2021-12-23 17:47:35.148818,-66
2021-12-23 17:47:35.148828,-494
2021-12-23 17:47:35.148838,45
2021-12-23 17:47:35.148847,64
2021-12-23 17:47:35.148857,-213
2021-12-23 17:47:35.148866,-111
2021-12-23 17:47:35.148876,-21
2021-12-23 17:47:35.148886,-97
2021-12-23 17:47:35.148895,-83
2021-12-23 17:47:35.148905,-28
2021-12-23 17:47:35.148914,-28
2021-12-23 17:47:35.148924,-19
2021-12-23 17:47:35.148934,2
2021-12-23 17:47:35.148943,21
2021-12-23 17:47:35.148953,52
2021-12-23 17:47:35.148962,78
2021-12-23 17:47:35.148972,87
2021-12-23 17:47:35.148982,109
2021-12-23 17:47:35.148991,149
2021-12-23 17:47:35.417334,175
2021-12-23 17:47:35.417356,201
2021-12-23 17:47:35.417364,244
2021-12-23 17:47:35.417371,280
2021-12-23 17:47:35.417377,316
2021-12-23 17:47:35.417384,344
2021-12-23 17:47:35.417390,356
2021-12-23 17:47:35.417397,382
2021-12-23 17:47:35.417403,415
2021-12-23 17:47:35.417410,401
2021-12-23 17:47:35.417416,368
2021-12-23 17:47:35.417422,342
2021-12-23 17:47:35.417429,270
2021-12-23 17:47:35.417440,159
2021-12-23 17:47:35.417447,66
2021-12-23 17:47:35.417453,-11
2021-12-23 17:47:35.417460,-76
2021-12-23 17:47:35.417467,-104
2021-12-23 17:47:35.417473,-135
2021-12-23 17:47:35.417479,-182
2021-12-23 17:47:35.417486,-197
2021-12-23 17:47:35.417492,-199
2021-12-23 17:47:35.417499,-206
2021-12-23 17:47:35.417505,-185
2021-12-23 17:47:35.417511,-166
2021-12-23 17:47:35.417518,-175
2021-12-23 17:47:35.417524,-163
2021-12-23 17:47:35.417530,-144
2021-12-23 17:47:35.417537,-135
2021-12-23 17:47:35.417543,-109
2021-12-23 17:47:35.598564,-87
2021-12-23 17:47:35.598594,-99
2021-12-23 17:47:35.598606,-109
2021-12-23 17:47:35.598616,-95
2021-12-23 17:47:35.598626,-87
2021-12-23 17:47:35.598636,-90
2021-12-23 17:47:35.598646,-90
2021-12-23 17:47:35.598656,-78
2021-12-23 17:47:35.598665,-78
2021-12-23 17:47:35.598675,-92
2021-12-23 17:47:35.598685,-85
2021-12-23 17:47:35.598695,-59
2021-12-23 17:47:35.598704,-54
2021-12-23 17:47:35.598714,-64
2021-12-23 17:47:35.598724,-66
2021-12-23 17:47:35.598733,-73
2021-12-23 17:47:35.598743,-71
2021-12-23 17:47:35.598753,-54
2021-12-23 17:47:35.598762,-45
2021-12-23 17:47:35.598772,-47
2021-12-23 17:47:35.598782,-49
2021-12-23 17:47:35.598791,-47
2021-12-23 17:47:35.598801,-40
2021-12-23 17:47:35.598811,-33
2021-12-23 17:47:35.598820,-28
2021-12-23 17:47:35.598830,-33
2021-12-23 17:47:35.598840,-38
2021-12-23 17:47:35.598849,-30
2021-12-23 17:47:35.598859,-19
2021-12-23 17:47:35.598869,-11
2021-12-23 17:47:35.868585,-14
2021-12-23 17:47:35.868615,-16
2021-12-23 17:47:35.868627,-11
2021-12-23 17:47:35.868637,-2
2021-12-23 17:47:35.868647,19
2021-12-23 17:47:35.868656,45
2021-12-23 17:47:35.868666,47
2021-12-23 17:47:35.868676,42
2021-12-23 17:47:35.868685,45
2021-12-23 17:47:35.868695,38
2021-12-23 17:47:35.868705,26
2021-12-23 17:47:35.868714,23
2021-12-23 17:47:35.868724,14
2021-12-23 17:47:35.868733,-7
2021-12-23 17:47:35.868743,-4
2021-12-23 17:47:35.868753,26
2021-12-23 17:47:35.868762,23
2021-12-23 17:47:35.868777,-9
2021-12-23 17:47:35.868787,-21
2021-12-23 17:47:35.868797,-19
2021-12-23 17:47:35.868806,97
2021-12-23 17:47:35.868816,584
2021-12-23 17:47:35.868826,1447
2021-12-23 17:47:35.868836,2160
2021-12-23 17:47:35.868845,2010
2021-12-23 17:47:35.868855,731
2021-12-23 17:47:35.868865,-463
2021-12-23 17:47:35.868875,-316
2021-12-23 17:47:35.868884,133
2021-12-23 17:47:35.868894,-80
2021-12-23 17:47:36.092923,-206
2021-12-23 17:47:36.092954,-52
2021-12-23 17:47:36.092966,-59
2021-12-23 17:47:36.092976,-109
2021-12-23 17:47:36.092986,-54
2021-12-23 17:47:36.092996,-28
2021-12-23 17:47:36.093006,-35
2021-12-23 17:47:36.093015,-7
2021-12-23 17:47:36.093025,9
2021-12-23 17:47:36.093035,9
2021-12-23 17:47:36.093045,42
2021-12-23 17:47:36.093054,80
2021-12-23 17:47:36.093064,95
2021-12-23 17:47:36.093074,111
2021-12-23 17:47:36.093083,144
2021-12-23 17:47:36.093093,187
2021-12-23 17:47:36.093103,235
2021-12-23 17:47:36.093113,263
2021-12-23 17:47:36.093122,285
2021-12-23 17:47:36.093132,318
2021-12-23 17:47:36.093141,346
2021-12-23 17:47:36.093151,363
2021-12-23 17:47:36.093161,384
2021-12-23 17:47:36.093170,392
2021-12-23 17:47:36.093180,375
2021-12-23 17:47:36.093189,346
2021-12-23 17:47:36.093199,299
2021-12-23 17:47:36.093209,218
2021-12-23 17:47:36.093219,135
2021-12-23 17:47:36.093228,68
2021-12-23 17:47:36.273564,-9
2021-12-23 17:47:36.273594,-92
2021-12-23 17:47:36.273606,-144
2021-12-23 17:47:36.273616,-166
2021-12-23 17:47:36.273626,-175
2021-12-23 17:47:36.273635,-187
2021-12-23 17:47:36.273645,-197
2021-12-23 17:47:36.273654,-190
2021-12-23 17:47:36.273664,-180
2021-12-23 17:47:36.273674,-171
2021-12-23 17:47:36.273683,-156
2021-12-23 17:47:36.273693,-149
2021-12-23 17:47:36.273703,-147
2021-12-23 17:47:36.273712,-144
2021-12-23 17:47:36.273722,-133
2021-12-23 17:47:36.273732,-109
2021-12-23 17:47:36.273742,-104
2021-12-23 17:47:36.273751,-114
2021-12-23 17:47:36.273761,-109
2021-12-23 17:47:36.273771,-97
2021-12-23 17:47:36.273780,-92
2021-12-23 17:47:36.273790,-104
2021-12-23 17:47:36.273800,-104
2021-12-23 17:47:36.273809,-76
2021-12-23 17:47:36.273819,-61
2021-12-23 17:47:36.273829,-71
2021-12-23 17:47:36.273838,-80
2021-12-23 17:47:36.273848,-80
2021-12-23 17:47:36.273857,-90
2021-12-23 17:47:36.273872,-90
2021-12-23 17:47:36.587609,-85
2021-12-23 17:47:36.587641,-92
2021-12-23 17:47:36.587650,-85
2021-12-23 17:47:36.587657,-59
2021-12-23 17:47:36.587663,-61
2021-12-23 17:47:36.587670,-73
2021-12-23 17:47:36.587676,-68
2021-12-23 17:47:36.587682,-73
2021-12-23 17:47:36.587688,-68
2021-12-23 17:47:36.587695,-49
2021-12-23 17:47:36.587701,-49
2021-12-23 17:47:36.587707,-61
2021-12-23 17:47:36.587713,-49
2021-12-23 17:47:36.587720,-33
2021-12-23 17:47:36.587726,-33
2021-12-23 17:47:36.587732,-35
2021-12-23 17:47:36.587738,-30
2021-12-23 17:47:36.587745,-38
2021-12-23 17:47:36.587751,-35
2021-12-23 17:47:36.587757,-14
2021-12-23 17:47:36.587763,2
2021-12-23 17:47:36.587770,7
2021-12-23 17:47:36.587776,19
2021-12-23 17:47:36.587782,45
2021-12-23 17:47:36.587788,47
2021-12-23 17:47:36.587795,9
2021-12-23 17:47:36.587801,-4
2021-12-23 17:47:36.587807,2
2021-12-23 17:47:36.587813,-7
2021-12-23 17:47:36.587820,-19
2021-12-23 17:47:36.768591,-14
2021-12-23 17:47:36.768620,-11
2021-12-23 17:47:36.768632,-11
2021-12-23 17:47:36.768642,-16
2021-12-23 17:47:36.768652,-42
2021-12-23 17:47:36.768662,-45
2021-12-23 17:47:36.768671,142
2021-12-23 17:47:36.768681,731
2021-12-23 17:47:36.768691,1634
2021-12-23 17:47:36.768701,2283
2021-12-23 17:47:36.768711,1872
2021-12-23 17:47:36.768720,344
2021-12-23 17:47:36.768730,-627
2021-12-23 17:47:36.768740,-185
2021-12-23 17:47:36.768750,137
2021-12-23 17:47:36.768759,-166
2021-12-23 17:47:36.768769,-187
2021-12-23 17:47:36.768779,-35
2021-12-23 17:47:36.768789,-78
2021-12-23 17:47:36.768798,-106
2021-12-23 17:47:36.768808,-42
2021-12-23 17:47:36.768818,-19
2021-12-23 17:47:36.768828,-23
2021-12-23 17:47:36.768837,-9
2021-12-23 17:47:36.768847,11
2021-12-23 17:47:36.768857,40
2021-12-23 17:47:36.768867,61
2021-12-23 17:47:36.768876,80
2021-12-23 17:47:36.768886,106
2021-12-23 17:47:36.768896,130
2021-12-23 17:47:37.127873,154
2021-12-23 17:47:37.127894,192
2021-12-23 17:47:37.127902,228
2021-12-23 17:47:37.127909,254
2021-12-23 17:47:37.127916,299
2021-12-23 17:47:37.127922,342
2021-12-23 17:47:37.127928,351
2021-12-23 17:47:37.127935,370
2021-12-23 17:47:37.127941,392
2021-12-23 17:47:37.127947,380
2021-12-23 17:47:37.127954,358
2021-12-23 17:47:37.127960,330
2021-12-23 17:47:37.127966,270
2021-12-23 17:47:37.127972,197
2021-12-23 17:47:37.127979,99
2021-12-23 17:47:37.127985,-7
2021-12-23 17:47:37.127992,-78
2021-12-23 17:47:37.127998,-140
2021-12-23 17:47:37.128004,-185
2021-12-23 17:47:37.128011,-187
2021-12-23 17:47:37.128021,-197
2021-12-23 17:47:37.128027,-220
2021-12-23 17:47:37.128033,-220
2021-12-23 17:47:37.128040,-213
2021-12-23 17:47:37.128046,-213
2021-12-23 17:47:37.128053,-201
2021-12-23 17:47:37.128059,-185
2021-12-23 17:47:37.128065,-178
2021-12-23 17:47:37.128072,-161
2021-12-23 17:47:37.128078,-137
2021-12-23 17:47:37.218010,-140
2021-12-23 17:47:37.218032,-154
2021-12-23 17:47:37.218039,-137
2021-12-23 17:47:37.218046,-111
2021-12-23 17:47:37.218052,-114
2021-12-23 17:47:37.218059,-116
2021-12-23 17:47:37.218065,-111
2021-12-23 17:47:37.218071,-109
2021-12-23 17:47:37.218077,-99
2021-12-23 17:47:37.218084,-97
2021-12-23 17:47:37.218090,-97
2021-12-23 17:47:37.218096,-97
2021-12-23 17:47:37.218103,-97
2021-12-23 17:47:37.218109,-104
2021-12-23 17:47:37.218115,-116
2021-12-23 17:47:37.218122,-97
2021-12-23 17:47:37.218128,-61
2021-12-23 17:47:37.218134,-52
2021-12-23 17:47:37.218141,-61
2021-12-23 17:47:37.218147,-71
2021-12-23 17:47:37.218153,-68
2021-12-23 17:47:37.218159,-52
2021-12-23 17:47:37.218166,-54
2021-12-23 17:47:37.218172,-59
2021-12-23 17:47:37.218178,-45
2021-12-23 17:47:37.218185,-52
2021-12-23 17:47:37.218191,-76
2021-12-23 17:47:37.218197,-47
2021-12-23 17:47:37.218203,4
2021-12-23 17:47:37.218210,16
2021-12-23 17:47:37.531800,16
2021-12-23 17:47:37.531823,33
2021-12-23 17:47:37.531830,33
2021-12-23 17:47:37.531837,4
2021-12-23 17:47:37.531843,-16
2021-12-23 17:47:37.531850,-26
2021-12-23 17:47:37.531856,-28
2021-12-23 17:47:37.531862,-21
2021-12-23 17:47:37.531869,-16
2021-12-23 17:47:37.531875,-21
2021-12-23 17:47:37.531881,-19
2021-12-23 17:47:37.531888,-9
2021-12-23 17:47:37.531894,-38
2021-12-23 17:47:37.531901,-59
2021-12-23 17:47:37.531907,95
2021-12-23 17:47:37.531913,624
2021-12-23 17:47:37.531920,1527
2021-12-23 17:47:37.531926,2307
2021-12-23 17:47:37.531932,2079
2021-12-23 17:47:37.531939,548
2021-12-23 17:47:37.531945,-686
2021-12-23 17:47:37.531951,-327
2021-12-23 17:47:37.531958,168
2021-12-23 17:47:37.531964,-104
2021-12-23 17:47:37.531970,-192
2021-12-23 17:47:37.531977,-16
2021-12-23 17:47:37.531983,-54
2021-12-23 17:47:37.531989,-114
2021-12-23 17:47:37.531995,-45
2021-12-23 17:47:37.532002,-4
2021-12-23 17:47:37.758448,-7
2021-12-23 17:47:37.758479,23
2021-12-23 17:47:37.758491,52
2021-12-23 17:47:37.758502,59
2021-12-23 17:47:37.758512,80
2021-12-23 17:47:37.758522,111
2021-12-23 17:47:37.758531,128
2021-12-23 17:47:37.758541,152
2021-12-23 17:47:37.758551,180
2021-12-23 17:47:37.758560,209
2021-12-23 17:47:37.758570,247
2021-12-23 17:47:37.758580,282
2021-12-23 17:47:37.758590,313
2021-12-23 17:47:37.758600,365
2021-12-23 17:47:37.758610,403
2021-12-23 17:47:37.758619,399
2021-12-23 17:47:37.758629,403
2021-12-23 17:47:37.758639,418
2021-12-23 17:47:37.758649,387
2021-12-23 17:47:37.758658,330
2021-12-23 17:47:37.758668,266
2021-12-23 17:47:37.758678,171
2021-12-23 17:47:37.758693,68
2021-12-23 17:47:37.758703,-4
2021-12-23 17:47:37.758713,-64
2021-12-23 17:47:37.758723,-125
2021-12-23 17:47:37.758733,-171
2021-12-23 17:47:37.758743,-185
2021-12-23 17:47:37.758752,-194
2021-12-23 17:47:37.758762,-213
2021-12-23 17:47:37.938317,-206
2021-12-23 17:47:37.938335,-187
2021-12-23 17:47:37.938341,-190
2021-12-23 17:47:37.938346,-192
2021-12-23 17:47:37.938351,-175
2021-12-23 17:47:37.938356,-149
2021-12-23 17:47:37.938361,-125
2021-12-23 17:47:37.938366,-118
2021-12-23 17:47:37.938371,-125
2021-12-23 17:47:37.938376,-121
2021-12-23 17:47:37.938381,-111
2021-12-23 17:47:37.938385,-104
2021-12-23 17:47:37.938390,-90
2021-12-23 17:47:37.938395,-85
2021-12-23 17:47:37.938400,-87
2021-12-23 17:47:37.938405,-80
2021-12-23 17:47:37.938410,-85
2021-12-23 17:47:37.938415,-97
2021-12-23 17:47:37.938419,-102
2021-12-23 17:47:37.938424,-90
2021-12-23 17:47:37.938429,-78
2021-12-23 17:47:37.938434,-80
2021-12-23 17:47:37.938439,-78
2021-12-23 17:47:37.938444,-68
2021-12-23 17:47:37.938448,-68
2021-12-23 17:47:37.938453,-64
2021-12-23 17:47:37.938458,-64
2021-12-23 17:47:37.938463,-64
2021-12-23 17:47:37.938468,-57
2021-12-23 17:47:37.938473,-47
2021-12-23 17:47:38.118373,-38
2021-12-23 17:47:38.118395,-30
2021-12-23 17:47:38.118403,-35
2021-12-23 17:47:38.118409,-33
2021-12-23 17:47:38.118415,-21
2021-12-23 17:47:38.118422,-33
2021-12-23 17:47:38.118428,-42
2021-12-23 17:47:38.118434,-11
2021-12-23 17:47:38.118440,7
2021-12-23 17:47:38.118447,-9
2021-12-23 17:47:38.118453,-16
2021-12-23 17:47:38.118459,-7
2021-12-23 17:47:38.118466,0
2021-12-23 17:47:38.118472,11
2021-12-23 17:47:38.118478,23
2021-12-23 17:47:38.118485,16
2021-12-23 17:47:38.118491,47
2021-12-23 17:47:38.118497,90
2021-12-23 17:47:38.118503,59
2021-12-23 17:47:38.118510,9
2021-12-23 17:47:38.118516,9
2021-12-23 17:47:38.118522,14
2021-12-23 17:47:38.118528,-7
2021-12-23 17:47:38.118547,-7
2021-12-23 17:47:38.118553,14
2021-12-23 17:47:38.118560,19
2021-12-23 17:47:38.118566,14
2021-12-23 17:47:38.118572,-4
2021-12-23 17:47:38.118579,-23
2021-12-23 17:47:38.118585,90
2021-12-23 17:47:38.342933,589
2021-12-23 17:47:38.342955,1470
2021-12-23 17:47:38.342962,2228
2021-12-23 17:47:38.342969,2133
2021-12-23 17:47:38.342975,845
2021-12-23 17:47:38.342982,-420
2021-12-23 17:47:38.342988,-289
2021-12-23 17:47:38.342995,178
2021-12-23 17:47:38.343001,-52
2021-12-23 17:47:38.343008,-187
2021-12-23 17:47:38.343014,-33
2021-12-23 17:47:38.343020,-57
2021-12-23 17:47:38.343027,-106
2021-12-23 17:47:38.343033,-40
2021-12-23 17:47:38.343039,-23
2021-12-23 17:47:38.343046,-40
2021-12-23 17:47:38.343052,-4
2021-12-23 17:47:38.343058,26
2021-12-23 17:47:38.343064,26
2021-12-23 17:47:38.343071,38
2021-12-23 17:47:38.343077,73
2021-12-23 17:47:38.343083,109
2021-12-23 17:47:38.343090,128
2021-12-23 17:47:38.343096,149
2021-12-23 17:47:38.343102,190
2021-12-23 17:47:38.343109,232
2021-12-23 17:47:38.343115,273
2021-12-23 17:47:38.343121,299
2021-12-23 17:47:38.343128,325
2021-12-23 17:47:38.343134,361
2021-12-23 17:47:38.613398,399
2021-12-23 17:47:38.613429,420
2021-12-23 17:47:38.613441,413
2021-12-23 17:47:38.613451,396
2021-12-23 17:47:38.613461,363
2021-12-23 17:47:38.613475,289
2021-12-23 17:47:38.613485,197
2021-12-23 17:47:38.613495,116
2021-12-23 17:47:38.613505,38
2021-12-23 17:47:38.613515,-45
2021-12-23 17:47:38.613525,-118
2021-12-23 17:47:38.613535,-163
2021-12-23 17:47:38.613545,-182
2021-12-23 17:47:38.613555,-190
2021-12-23 17:47:38.613565,-194
2021-12-23 17:47:38.613575,-206
2021-12-23 17:47:38.613584,-211
2021-12-23 17:47:38.613594,-197
2021-12-23 17:47:38.613604,-178
2021-12-23 17:47:38.613614,-163
2021-12-23 17:47:38.613624,-147
2021-12-23 17:47:38.613634,-137
2021-12-23 17:47:38.613643,-137
2021-12-23 17:47:38.613653,-133
2021-12-23 17:47:38.613663,-128
2021-12-23 17:47:38.613673,-118
2021-12-23 17:47:38.613682,-90
2021-12-23 17:47:38.613692,-73
2021-12-23 17:47:38.613702,-85
2021-12-23 17:47:38.613712,-97
2021-12-23 17:47:38.928832,-106
2021-12-23 17:47:38.928852,-102
2021-12-23 17:47:38.928860,-73
2021-12-23 17:47:38.928866,-54
2021-12-23 17:47:38.928873,-59
2021-12-23 17:47:38.928879,-71
2021-12-23 17:47:38.928885,-80
2021-12-23 17:47:38.928892,-68
2021-12-23 17:47:38.928898,-54
2021-12-23 17:47:38.928905,-66
2021-12-23 17:47:38.928911,-76
2021-12-23 17:47:38.928917,-66
2021-12-23 17:47:38.928924,-57
2021-12-23 17:47:38.928930,-42
2021-12-23 17:47:38.928937,-45
2021-12-23 17:47:38.928943,-83
2021-12-23 17:47:38.928950,-83
2021-12-23 17:47:38.928956,-33
2021-12-23 17:47:38.928962,-21
2021-12-23 17:47:38.928969,-45
2021-12-23 17:47:38.928975,-54
2021-12-23 17:47:38.928982,-49
2021-12-23 17:47:38.928988,-23
2021-12-23 17:47:38.928995,-11
2021-12-23 17:47:38.929001,-23
2021-12-23 17:47:38.929007,-28
2021-12-23 17:47:38.929014,-9
2021-12-23 17:47:38.929020,-4
2021-12-23 17:47:38.929026,-21
2021-12-23 17:47:38.929033,-21
2021-12-23 17:47:39.108522,-4
2021-12-23 17:47:39.108552,-11
2021-12-23 17:47:39.108564,-7
2021-12-23 17:47:39.108574,2
2021-12-23 17:47:39.108585,-7
2021-12-23 17:47:39.108595,11
2021-12-23 17:47:39.108604,59
2021-12-23 17:47:39.108614,76
2021-12-23 17:47:39.108624,42
2021-12-23 17:47:39.108634,26
2021-12-23 17:47:39.108644,23
2021-12-23 17:47:39.108654,2
2021-12-23 17:47:39.108664,-7
2021-12-23 17:47:39.108674,9
2021-12-23 17:47:39.108684,16
2021-12-23 17:47:39.108694,14
2021-12-23 17:47:39.108704,23
2021-12-23 17:47:39.108714,28
2021-12-23 17:47:39.108724,0
2021-12-23 17:47:39.108734,-28
2021-12-23 17:47:39.108744,109
2021-12-23 17:47:39.108754,651
2021-12-23 17:47:39.108763,1535
2021-12-23 17:47:39.108773,2224
2021-12-23 17:47:39.108783,2024
2021-12-23 17:47:39.108793,689
2021-12-23 17:47:39.108803,-484
2021-12-23 17:47:39.108813,-261
2021-12-23 17:47:39.108823,173
2021-12-23 17:47:39.108833,-85
2021-12-23 17:47:39.288053,-192
2021-12-23 17:47:39.288075,-21
2021-12-23 17:47:39.288082,-49
2021-12-23 17:47:39.288089,-116
2021-12-23 17:47:39.288095,-49
2021-12-23 17:47:39.288101,-16
2021-12-23 17:47:39.288108,-28
2021-12-23 17:47:39.288114,-7
2021-12-23 17:47:39.288120,16
2021-12-23 17:47:39.288127,33
2021-12-23 17:47:39.288133,71
2021-12-23 17:47:39.288139,104
2021-12-23 17:47:39.288145,114
2021-12-23 17:47:39.288152,125
2021-12-23 17:47:39.288158,163
2021-12-23 17:47:39.288164,201
2021-12-23 17:47:39.288170,228
2021-12-23 17:47:39.288176,268
2021-12-23 17:47:39.288182,311
2021-12-23 17:47:39.288189,335
2021-12-23 17:47:39.288195,365
2021-12-23 17:47:39.288201,403
2021-12-23 17:47:39.288207,425
2021-12-23 17:47:39.288214,420
2021-12-23 17:47:39.288220,399
2021-12-23 17:47:39.288226,363
2021-12-23 17:47:39.288232,311
2021-12-23 17:47:39.288238,220
2021-12-23 17:47:39.288244,118
2021-12-23 17:47:39.288251,38
2021-12-23 17:47:39.557364,-42
2021-12-23 17:47:39.557393,-102
2021-12-23 17:47:39.557401,-133
2021-12-23 17:47:39.557407,-182
2021-12-23 17:47:39.557414,-223
2021-12-23 17:47:39.557420,-220
2021-12-23 17:47:39.557426,-213
2021-12-23 17:47:39.557433,-218
2021-12-23 17:47:39.557439,-218
2021-12-23 17:47:39.557445,-211
2021-12-23 17:47:39.557452,-199
2021-12-23 17:47:39.557458,-185
2021-12-23 17:47:39.557465,-163
2021-12-23 17:47:39.557471,-161
2021-12-23 17:47:39.557477,-173
2021-12-23 17:47:39.557484,-156
2021-12-23 17:47:39.557490,-121
2021-12-23 17:47:39.557496,-125
2021-12-23 17:47:39.557503,-133
2021-12-23 17:47:39.557509,-109
2021-12-23 17:47:39.557515,-104
2021-12-23 17:47:39.557522,-116
2021-12-23 17:47:39.557528,-102
2021-12-23 17:47:39.557534,-92
2021-12-23 17:47:39.557540,-95
2021-12-23 17:47:39.557547,-87
2021-12-23 17:47:39.557553,-87
2021-12-23 17:47:39.557559,-106
2021-12-23 17:47:39.557566,-99
2021-12-23 17:47:39.557572,-78
2021-12-23 17:47:39.738214,-80
2021-12-23 17:47:39.738244,-83
2021-12-23 17:47:39.738255,-71
2021-12-23 17:47:39.738265,-68
2021-12-23 17:47:39.738275,-73
2021-12-23 17:47:39.738285,-68
2021-12-23 17:47:39.738295,-66
2021-12-23 17:47:39.738305,-57
2021-12-23 17:47:39.738314,-33
2021-12-23 17:47:39.738324,-38
2021-12-23 17:47:39.738334,-52
2021-12-23 17:47:39.738344,-47
2021-12-23 17:47:39.738353,-40
2021-12-23 17:47:39.738363,-42
2021-12-23 17:47:39.738373,-38
2021-12-23 17:47:39.738383,-28
2021-12-23 17:47:39.738392,-33
2021-12-23 17:47:39.738402,-49
2021-12-23 17:47:39.738412,-52
2021-12-23 17:47:39.738422,-35
2021-12-23 17:47:39.738431,-19
2021-12-23 17:47:39.738441,11
2021-12-23 17:47:39.738451,33
2021-12-23 17:47:39.738461,35
2021-12-23 17:47:39.738471,38
2021-12-23 17:47:39.738480,23
2021-12-23 17:47:39.738490,-16
2021-12-23 17:47:39.738500,-33
2021-12-23 17:47:39.738510,-21
2021-12-23 17:47:39.738519,-16
2021-12-23 17:47:39.963376,-28
2021-12-23 17:47:39.963406,-28
2021-12-23 17:47:39.963418,4
2021-12-23 17:47:39.963429,33
2021-12-23 17:47:39.963439,-7
2021-12-23 17:47:39.963449,-42
2021-12-23 17:47:39.963458,57
2021-12-23 17:47:39.963468,472
2021-12-23 17:47:39.963478,1299
2021-12-23 17:47:39.963488,2155
2021-12-23 17:47:39.963497,2233
2021-12-23 17:47:39.963507,990
2021-12-23 17:47:39.963517,-480
2021-12-23 17:47:39.963527,-491
2021-12-23 17:47:39.963537,116
2021-12-23 17:47:39.963546,-35
2021-12-23 17:47:39.963556,-240
2021-12-23 17:47:39.963566,-66
2021-12-23 17:47:39.963576,-49
2021-12-23 17:47:39.963586,-133
2021-12-23 17:47:39.963595,-73
2021-12-23 17:47:39.963605,-26
2021-12-23 17:47:39.963615,-52
2021-12-23 17:47:39.963625,-28
2021-12-23 17:47:39.963635,33
2021-12-23 17:47:39.963645,49
2021-12-23 17:47:39.963655,47
2021-12-23 17:47:39.963664,78
2021-12-23 17:47:39.963674,116
2021-12-23 17:47:39.963684,133
2021-12-23 17:47:40.188380,152
2021-12-23 17:47:40.188411,197
2021-12-23 17:47:40.188423,244
2021-12-23 17:47:40.188432,270
2021-12-23 17:47:40.188442,297
2021-12-23 17:47:40.188452,354
2021-12-23 17:47:40.188461,401
2021-12-23 17:47:40.188471,415
2021-12-23 17:47:40.188480,427
2021-12-23 17:47:40.188490,432
2021-12-23 17:47:40.188499,413
2021-12-23 17:47:40.188509,370
2021-12-23 17:47:40.188518,304
2021-12-23 17:47:40.188528,211
2021-12-23 17:47:40.188537,116
2021-12-23 17:47:40.188547,35
2021-12-23 17:47:40.188556,-35
2021-12-23 17:47:40.188566,-92
2021-12-23 17:47:40.188575,-128
2021-12-23 17:47:40.188585,-161
2021-12-23 17:47:40.188595,-187
2021-12-23 17:47:40.188604,-182
2021-12-23 17:47:40.188613,-180
2021-12-23 17:47:40.188623,-192
2021-12-23 17:47:40.188632,-185
2021-12-23 17:47:40.188642,-171
2021-12-23 17:47:40.188651,-163
2021-12-23 17:47:40.188661,-154
2021-12-23 17:47:40.188670,-137
2021-12-23 17:47:40.188680,-118
2021-12-23 17:47:40.458382,-104
2021-12-23 17:47:40.458413,-92
2021-12-23 17:47:40.458425,-85
2021-12-23 17:47:40.458435,-92
2021-12-23 17:47:40.458444,-102
2021-12-23 17:47:40.458454,-92
2021-12-23 17:47:40.458464,-85
2021-12-23 17:47:40.458473,-90
2021-12-23 17:47:40.458483,-83
2021-12-23 17:47:40.458492,-76
2021-12-23 17:47:40.458502,-68
2021-12-23 17:47:40.458517,-54
2021-12-23 17:47:40.458526,-59
2021-12-23 17:47:40.458536,-73
2021-12-23 17:47:40.458546,-73
2021-12-23 17:47:40.458555,-78
2021-12-23 17:47:40.458565,-78
2021-12-23 17:47:40.458575,-73
2021-12-23 17:47:40.458584,-68
2021-12-23 17:47:40.458594,-57
2021-12-23 17:47:40.458604,-45
2021-12-23 17:47:40.458613,-54
2021-12-23 17:47:40.458623,-57
2021-12-23 17:47:40.458633,-40
2021-12-23 17:47:40.458643,-35
2021-12-23 17:47:40.458652,-28
2021-12-23 17:47:40.458662,-11
2021-12-23 17:47:40.458672,-11
2021-12-23 17:47:40.458681,-14
2021-12-23 17:47:40.458691,-16
2021-12-23 17:47:40.773473,-16
2021-12-23 17:47:40.773504,0
2021-12-23 17:47:40.773515,0
2021-12-23 17:47:40.773526,-19
2021-12-23 17:47:40.773535,-14
2021-12-23 17:47:40.773545,-2
2021-12-23 17:47:40.773555,-7
2021-12-23 17:47:40.773564,-4
2021-12-23 17:47:40.773574,9
2021-12-23 17:47:40.773584,4
2021-12-23 17:47:40.773593,-9
2021-12-23 17:47:40.773603,9
2021-12-23 17:47:40.773613,26
2021-12-23 17:47:40.773622,11
2021-12-23 17:47:40.773632,9
2021-12-23 17:47:40.773642,4
2021-12-23 17:47:40.773651,-7
2021-12-23 17:47:40.773661,11
2021-12-23 17:47:40.773671,40
2021-12-23 17:47:40.773681,54
2021-12-23 17:47:40.773690,57
2021-12-23 17:47:40.773700,71
2021-12-23 17:47:40.773710,73
2021-12-23 17:47:40.773719,45
2021-12-23 17:47:40.773729,19
2021-12-23 17:47:40.773739,23
2021-12-23 17:47:40.773748,26
2021-12-23 17:47:40.773758,9
2021-12-23 17:47:40.773768,9
2021-12-23 17:47:40.773777,19
2021-12-23 17:47:40.952795,14
2021-12-23 17:47:40.952816,16
2021-12-23 17:47:40.952824,9
2021-12-23 17:47:40.952830,-28
2021-12-23 17:47:40.952837,80
2021-12-23 17:47:40.952843,617
2021-12-23 17:47:40.952849,1516
2021-12-23 17:47:40.952856,2226
2021-12-23 17:47:40.952862,2050
2021-12-23 17:47:40.952868,741
2021-12-23 17:47:40.952875,-434
2021-12-23 17:47:40.952881,-254
2021-12-23 17:47:40.952887,159
2021-12-23 17:47:40.952894,-85
2021-12-23 17:47:40.952900,-192
2021-12-23 17:47:40.952907,-40
2021-12-23 17:47:40.952913,-66
2021-12-23 17:47:40.952919,-116
2021-12-23 17:47:40.952925,-49
2021-12-23 17:47:40.952932,-14
2021-12-23 17:47:40.952938,-21
2021-12-23 17:47:40.952944,-4
2021-12-23 17:47:40.952951,19
2021-12-23 17:47:40.952957,35
2021-12-23 17:47:40.952963,54
2021-12-23 17:47:40.952970,83
2021-12-23 17:47:40.952976,114
2021-12-23 17:47:40.952982,137
2021-12-23 17:47:40.952988,159
2021-12-23 17:47:40.952995,199
2021-12-23 17:47:41.133379,249
2021-12-23 17:47:41.133410,278
2021-12-23 17:47:41.133422,304
2021-12-23 17:47:41.133432,349
2021-12-23 17:47:41.133442,389
2021-12-23 17:47:41.133452,411
2021-12-23 17:47:41.133462,415
2021-12-23 17:47:41.133471,415
2021-12-23 17:47:41.133481,420
2021-12-23 17:47:41.133491,396
2021-12-23 17:47:41.133501,308
2021-12-23 17:47:41.133511,218
2021-12-23 17:47:41.133520,154
2021-12-23 17:47:41.133530,61
2021-12-23 17:47:41.133540,-45
2021-12-23 17:47:41.133550,-102
2021-12-23 17:47:41.133560,-130
2021-12-23 17:47:41.133569,-168
2021-12-23 17:47:41.133579,-194
2021-12-23 17:47:41.133589,-209
2021-12-23 17:47:41.133599,-209
2021-12-23 17:47:41.133608,-192
2021-12-23 17:47:41.133618,-182
2021-12-23 17:47:41.133628,-185
2021-12-23 17:47:41.133638,-173
2021-12-23 17:47:41.133647,-152
2021-12-23 17:47:41.133657,-152
2021-12-23 17:47:41.133667,-154
2021-12-23 17:47:41.133677,-135
2021-12-23 17:47:41.133687,-118
2021-12-23 17:47:41.358393,-121
2021-12-23 17:47:41.358424,-114
2021-12-23 17:47:41.358436,-106
2021-12-23 17:47:41.358447,-106
2021-12-23 17:47:41.358457,-90
2021-12-23 17:47:41.358467,-78
2021-12-23 17:47:41.358477,-90
2021-12-23 17:47:41.358487,-99
2021-12-23 17:47:41.358497,-97
2021-12-23 17:47:41.358506,-92
2021-12-23 17:47:41.358516,-90
2021-12-23 17:47:41.358526,-95
2021-12-23 17:47:41.358536,-104
2021-12-23 17:47:41.358546,-104
2021-12-23 17:47:41.358556,-99
2021-12-23 17:47:41.358566,-90
2021-12-23 17:47:41.358576,-76
2021-12-23 17:47:41.358586,-83
2021-12-23 17:47:41.358595,-97
2021-12-23 17:47:41.358605,-80
2021-12-23 17:47:41.358615,-59
2021-12-23 17:47:41.358625,-64
2021-12-23 17:47:41.358635,-71
2021-12-23 17:47:41.358645,-59
2021-12-23 17:47:41.358654,-49
2021-12-23 17:47:41.358664,-52
2021-12-23 17:47:41.358674,-52
2021-12-23 17:47:41.358684,-49
2021-12-23 17:47:41.358694,-45
2021-12-23 17:47:41.358704,-47
2021-12-23 17:47:41.672040,-52
2021-12-23 17:47:41.672070,-45
2021-12-23 17:47:41.672082,-42
2021-12-23 17:47:41.672092,-54
2021-12-23 17:47:41.672102,-49
2021-12-23 17:47:41.672111,-26
2021-12-23 17:47:41.672121,-23
2021-12-23 17:47:41.672131,-33
2021-12-23 17:47:41.672145,-28
2021-12-23 17:47:41.672155,-28
2021-12-23 17:47:41.672164,-38
2021-12-23 17:47:41.672174,-38
2021-12-23 17:47:41.672184,-28
2021-12-23 17:47:41.672193,-26
2021-12-23 17:47:41.672203,-33
2021-12-23 17:47:41.672212,-38
2021-12-23 17:47:41.672222,-42
2021-12-23 17:47:41.672232,-45
2021-12-23 17:47:41.672241,-33
2021-12-23 17:47:41.672251,4
2021-12-23 17:47:41.672261,49
2021-12-23 17:47:41.672271,49
2021-12-23 17:47:41.672280,40
2021-12-23 17:47:41.672290,42
2021-12-23 17:47:41.672300,26
2021-12-23 17:47:41.672310,-4
2021-12-23 17:47:41.672319,-7
2021-12-23 17:47:41.672329,2
2021-12-23 17:47:41.672338,4
2021-12-23 17:47:41.672348,0
2021-12-23 17:47:41.808261,0
2021-12-23 17:47:41.808292,-2
2021-12-23 17:47:41.808304,9
2021-12-23 17:47:41.808314,9
2021-12-23 17:47:41.808324,-19
2021-12-23 17:47:41.808334,57
2021-12-23 17:47:41.808344,510
2021-12-23 17:47:41.808354,1390
2021-12-23 17:47:41.808363,2231
2021-12-23 17:47:41.808373,2231
2021-12-23 17:47:41.808383,910
2021-12-23 17:47:41.808392,-496
2021-12-23 17:47:41.808402,-399
2021-12-23 17:47:41.808412,161
2021-12-23 17:47:41.808421,-35
2021-12-23 17:47:41.808431,-209
2021-12-23 17:47:41.808441,-49
2021-12-23 17:47:41.808450,-47
2021-12-23 17:47:41.808460,-106
2021-12-23 17:47:41.808469,-47
2021-12-23 17:47:41.808479,-9
2021-12-23 17:47:41.808489,-23
2021-12-23 17:47:41.808498,-7
2021-12-23 17:47:41.808508,19
2021-12-23 17:47:41.808518,45
2021-12-23 17:47:41.808527,78
2021-12-23 17:47:41.808537,99
2021-12-23 17:47:41.808546,116
2021-12-23 17:47:41.808556,147
2021-12-23 17:47:41.808566,199
2021-12-23 17:47:42.033062,235
2021-12-23 17:47:42.033100,251
2021-12-23 17:47:42.033112,285
2021-12-23 17:47:42.033122,327
2021-12-23 17:47:42.033132,356
2021-12-23 17:47:42.033142,392
2021-12-23 17:47:42.033152,425
2021-12-23 17:47:42.033161,432
2021-12-23 17:47:42.033171,437
2021-12-23 17:47:42.033181,446
2021-12-23 17:47:42.033191,415
2021-12-23 17:47:42.033201,337
2021-12-23 17:47:42.033210,249
2021-12-23 17:47:42.033220,156
2021-12-23 17:47:42.033230,64
2021-12-23 17:47:42.033240,-11
2021-12-23 17:47:42.033249,-78
2021-12-23 17:47:42.033259,-144
2021-12-23 17:47:42.033270,-182
2021-12-23 17:47:42.033287,-199
2021-12-23 17:47:42.033304,-216
2021-12-23 17:47:42.033322,-225
2021-12-23 17:47:42.033340,-213
2021-12-23 17:47:42.033358,-197
2021-12-23 17:47:42.033378,-190
2021-12-23 17:47:42.033405,-185
2021-12-23 17:47:42.033415,-180
2021-12-23 17:47:42.033425,-175
2021-12-23 17:47:42.033435,-152
2021-12-23 17:47:42.033445,-128
2021-12-23 17:47:42.303383,-128
2021-12-23 17:47:42.303413,-130
2021-12-23 17:47:42.303425,-118
2021-12-23 17:47:42.303436,-106
2021-12-23 17:47:42.303445,-104
2021-12-23 17:47:42.303455,-106
2021-12-23 17:47:42.303465,-95
2021-12-23 17:47:42.303474,-83
2021-12-23 17:47:42.303484,-95
2021-12-23 17:47:42.303493,-104
2021-12-23 17:47:42.303503,-95
2021-12-23 17:47:42.303512,-73
2021-12-23 17:47:42.303522,-66
2021-12-23 17:47:42.303532,-83
2021-12-23 17:47:42.303541,-83
2021-12-23 17:47:42.303551,-57
2021-12-23 17:47:42.303560,-49
2021-12-23 17:47:42.303570,-64
2021-12-23 17:47:42.303579,-66
2021-12-23 17:47:42.303589,-59
2021-12-23 17:47:42.303599,-66
2021-12-23 17:47:42.303608,-78
2021-12-23 17:47:42.303618,-76
2021-12-23 17:47:42.303627,-54
2021-12-23 17:47:42.303637,-40
2021-12-23 17:47:42.303646,-49
2021-12-23 17:47:42.303656,-54
2021-12-23 17:47:42.303665,-40
2021-12-23 17:47:42.303675,-28
2021-12-23 17:47:42.303684,-30
2021-12-23 17:47:42.528257,-30
2021-12-23 17:47:42.528287,-21
2021-12-23 17:47:42.528300,-19
2021-12-23 17:47:42.528310,-19
2021-12-23 17:47:42.528320,-19
2021-12-23 17:47:42.528329,-14
2021-12-23 17:47:42.528339,-9
2021-12-23 17:47:42.528348,-14
2021-12-23 17:47:42.528358,-23
2021-12-23 17:47:42.528367,-28
2021-12-23 17:47:42.528377,-19
2021-12-23 17:47:42.528386,-2
2021-12-23 17:47:42.528396,2
2021-12-23 17:47:42.528405,2
2021-12-23 17:47:42.528415,0
2021-12-23 17:47:42.528424,-4
2021-12-23 17:47:42.528434,-4
2021-12-23 17:47:42.528443,0
2021-12-23 17:47:42.528453,7
2021-12-23 17:47:42.528462,26
2021-12-23 17:47:42.528472,54
2021-12-23 17:47:42.528481,71
2021-12-23 17:47:42.528491,68
2021-12-23 17:47:42.528500,57
2021-12-23 17:47:42.528510,35
2021-12-23 17:47:42.528519,16
2021-12-23 17:47:42.528529,14
2021-12-23 17:47:42.528538,19
2021-12-23 17:47:42.528548,21
2021-12-23 17:47:42.528557,33
2021-12-23 17:47:42.798272,47
2021-12-23 17:47:42.798303,45
2021-12-23 17:47:42.798315,19
2021-12-23 17:47:42.798325,-14
2021-12-23 17:47:42.798335,52
2021-12-23 17:47:42.798345,461
2021-12-23 17:47:42.798354,1285
2021-12-23 17:47:42.798364,2136
2021-12-23 17:47:42.798374,2364
2021-12-23 17:47:42.798383,1402
2021-12-23 17:47:42.798393,-104
2021-12-23 17:47:42.798403,-432
2021-12-23 17:47:42.798412,130
2021-12-23 17:47:42.798422,68
2021-12-23 17:47:42.798432,-209
2021-12-23 17:47:42.798442,-76
2021-12-23 17:47:42.798451,-11
2021-12-23 17:47:42.798461,-92
2021-12-23 17:47:42.798470,-64
2021-12-23 17:47:42.798480,-11
2021-12-23 17:47:42.798490,-16
2021-12-23 17:47:42.798499,-4
2021-12-23 17:47:42.798509,33
2021-12-23 17:47:42.798531,59
2021-12-23 17:47:42.798541,83
2021-12-23 17:47:42.798551,104
2021-12-23 17:47:42.798561,125
2021-12-23 17:47:42.798571,149
2021-12-23 17:47:42.798580,173
2021-12-23 17:47:42.798590,211
2021-12-23 17:47:42.978431,256
2021-12-23 17:47:42.978463,294
2021-12-23 17:47:42.978475,337
2021-12-23 17:47:42.978485,373
2021-12-23 17:47:42.978496,396
2021-12-23 17:47:42.978505,430
2021-12-23 17:47:42.978515,461
2021-12-23 17:47:42.978525,475
2021-12-23 17:47:42.978535,470
2021-12-23 17:47:42.978545,441
2021-12-23 17:47:42.978554,373
2021-12-23 17:47:42.978564,280
2021-12-23 17:47:42.978574,190
2021-12-23 17:47:42.978584,90
2021-12-23 17:47:42.978594,-2
2021-12-23 17:47:42.978604,-64
2021-12-23 17:47:42.978613,-106
2021-12-23 17:47:42.978623,-154
2021-12-23 17:47:42.978633,-194
2021-12-23 17:47:42.978643,-213
2021-12-23 17:47:42.978653,-213
2021-12-23 17:47:42.978663,-209
2021-12-23 17:47:42.978673,-206
2021-12-23 17:47:42.978682,-194
2021-12-23 17:47:42.978692,-175
2021-12-23 17:47:42.978702,-171
2021-12-23 17:47:42.978712,-185
2021-12-23 17:47:42.978722,-178
2021-12-23 17:47:42.978731,-147
2021-12-23 17:47:42.978741,-123
2021-12-23 17:47:43.203323,-125
2021-12-23 17:47:43.203344,-123
2021-12-23 17:47:43.203352,-118
2021-12-23 17:47:43.203358,-111
2021-12-23 17:47:43.203365,-87
2021-12-23 17:47:43.203371,-73
2021-12-23 17:47:43.203378,-99
2021-12-23 17:47:43.203384,-109
2021-12-23 17:47:43.203391,-87
2021-12-23 17:47:43.203397,-76
2021-12-23 17:47:43.203403,-80
2021-12-23 17:47:43.203410,-83
2021-12-23 17:47:43.203416,-80
2021-12-23 17:47:43.203423,-83
2021-12-23 17:47:43.203429,-87
2021-12-23 17:47:43.203436,-85
2021-12-23 17:47:43.203442,-78
2021-12-23 17:47:43.203448,-66
2021-12-23 17:47:43.203455,-59
2021-12-23 17:47:43.203461,-66
2021-12-23 17:47:43.203467,-68
2021-12-23 17:47:43.203474,-52
2021-12-23 17:47:43.203480,-52
2021-12-23 17:47:43.203486,-66
2021-12-23 17:47:43.203493,-49
2021-12-23 17:47:43.203499,-26
2021-12-23 17:47:43.203505,-33
2021-12-23 17:47:43.203512,-40
2021-12-23 17:47:43.203518,-28
2021-12-23 17:47:43.203524,-26
2021-12-23 17:47:43.472616,-23
2021-12-23 17:47:43.472640,-11
2021-12-23 17:47:43.472648,-11
2021-12-23 17:47:43.472670,-14
2021-12-23 17:47:43.472680,-16
2021-12-23 17:47:43.472690,-16
2021-12-23 17:47:43.472700,2
2021-12-23 17:47:43.472709,9
2021-12-23 17:47:43.472719,2
2021-12-23 17:47:43.472728,7
2021-12-23 17:47:43.472738,21
2021-12-23 17:47:43.472747,23
2021-12-23 17:47:43.472757,11
2021-12-23 17:47:43.472766,4
2021-12-23 17:47:43.472776,16
2021-12-23 17:47:43.472785,26
2021-12-23 17:47:43.472795,21
2021-12-23 17:47:43.472804,19
2021-12-23 17:47:43.472814,23
2021-12-23 17:47:43.472823,33
2021-12-23 17:47:43.472833,47
2021-12-23 17:47:43.472842,66
2021-12-23 17:47:43.472852,73
2021-12-23 17:47:43.472861,78
2021-12-23 17:47:43.472871,85
2021-12-23 17:47:43.472880,64
2021-12-23 17:47:43.472922,28
2021-12-23 17:47:43.472932,16
2021-12-23 17:47:43.472942,28
2021-12-23 17:47:43.472952,33
2021-12-23 17:47:43.697064,26
2021-12-23 17:47:43.697088,38
2021-12-23 17:47:43.697096,57
2021-12-23 17:47:43.697103,54
2021-12-23 17:47:43.697109,19
2021-12-23 17:47:43.697116,-2
2021-12-23 17:47:43.697122,175
2021-12-23 17:47:43.697128,779
2021-12-23 17:47:43.697135,1663
2021-12-23 17:47:43.697141,2257
2021-12-23 17:47:43.697147,1908
2021-12-23 17:47:43.697153,541
2021-12-23 17:47:43.697159,-439
2021-12-23 17:47:43.697166,-118
2021-12-23 17:47:43.697172,192
2021-12-23 17:47:43.697178,-90
2021-12-23 17:47:43.697184,-137
2021-12-23 17:47:43.697191,2
2021-12-23 17:47:43.697197,-33
2021-12-23 17:47:43.697203,-54
2021-12-23 17:47:43.697209,-2
2021-12-23 17:47:43.697215,7
2021-12-23 17:47:43.697222,4
2021-12-23 17:47:43.697228,35
2021-12-23 17:47:43.697234,61
2021-12-23 17:47:43.697240,73
2021-12-23 17:47:43.697246,95
2021-12-23 17:47:43.697252,123
2021-12-23 17:47:43.697259,147
2021-12-23 17:47:43.697265,166
2021-12-23 17:47:43.878153,194
2021-12-23 17:47:43.878174,235
2021-12-23 17:47:43.878181,273
2021-12-23 17:47:43.878188,297
2021-12-23 17:47:43.878194,325
2021-12-23 17:47:43.878200,363
2021-12-23 17:47:43.878207,408
2021-12-23 17:47:43.878213,437
2021-12-23 17:47:43.878219,446
2021-12-23 17:47:43.878225,441
2021-12-23 17:47:43.878231,427
2021-12-23 17:47:43.878238,399
2021-12-23 17:47:43.878244,332
2021-12-23 17:47:43.878250,240
2021-12-23 17:47:43.878256,152
2021-12-23 17:47:43.878263,68
2021-12-23 17:47:43.878269,-11
2021-12-23 17:47:43.878323,-73
2021-12-23 17:47:43.878333,-125
2021-12-23 17:47:43.878339,-163
2021-12-23 17:47:43.878345,-178
2021-12-23 17:47:43.878355,-178
2021-12-23 17:47:43.878367,-180
2021-12-23 17:47:43.878374,-180
2021-12-23 17:47:43.878381,-171
2021-12-23 17:47:43.878387,-163
2021-12-23 17:47:43.878393,-173
2021-12-23 17:47:43.878400,-180
2021-12-23 17:47:43.878406,-168
2021-12-23 17:47:43.878412,-144
2021-12-23 17:47:44.148212,-142
2021-12-23 17:47:44.148242,-152
2021-12-23 17:47:44.148254,-147
2021-12-23 17:47:44.148265,-137
2021-12-23 17:47:44.148274,-125
2021-12-23 17:47:44.148284,-114
2021-12-23 17:47:44.148294,-114
2021-12-23 17:47:44.148303,-121
2021-12-23 17:47:44.148313,-114
2021-12-23 17:47:44.148322,-99
2021-12-23 17:47:44.148332,-99
2021-12-23 17:47:44.148341,-102
2021-12-23 17:47:44.148351,-99
2021-12-23 17:47:44.148361,-92
2021-12-23 17:47:44.148370,-87
2021-12-23 17:47:44.148380,-92
2021-12-23 17:47:44.148390,-87
2021-12-23 17:47:44.148399,-83
2021-12-23 17:47:44.148409,-83
2021-12-23 17:47:44.148418,-78
2021-12-23 17:47:44.148428,-66
2021-12-23 17:47:44.148437,-66
2021-12-23 17:47:44.148447,-57
2021-12-23 17:47:44.148456,-45
2021-12-23 17:47:44.148466,-47
2021-12-23 17:47:44.148475,-47
2021-12-23 17:47:44.148485,-45
2021-12-23 17:47:44.148494,-35
2021-12-23 17:47:44.148504,-23
2021-12-23 17:47:44.148524,-19
2021-12-23 17:47:44.373223,-21
2021-12-23 17:47:44.373253,-16
2021-12-23 17:47:44.373265,-14
2021-12-23 17:47:44.373275,-19
2021-12-23 17:47:44.373285,-14
2021-12-23 17:47:44.373295,-4
2021-12-23 17:47:44.373305,-4
2021-12-23 17:47:44.373314,0
2021-12-23 17:47:44.373324,7
2021-12-23 17:47:44.373334,2
2021-12-23 17:47:44.373344,4
2021-12-23 17:47:44.373353,11
2021-12-23 17:47:44.373363,11
2021-12-23 17:47:44.373373,11
2021-12-23 17:47:44.373383,19
2021-12-23 17:47:44.373393,14
2021-12-23 17:47:44.373402,9
2021-12-23 17:47:44.373412,9
2021-12-23 17:47:44.373422,11
2021-12-23 17:47:44.373431,23
2021-12-23 17:47:44.373441,42
2021-12-23 17:47:44.373451,61
2021-12-23 17:47:44.373460,68
2021-12-23 17:47:44.373470,76
2021-12-23 17:47:44.373480,90
2021-12-23 17:47:44.373490,87
2021-12-23 17:47:44.373499,49
2021-12-23 17:47:44.373509,26
2021-12-23 17:47:44.373519,30
2021-12-23 17:47:44.373528,33
2021-12-23 17:47:44.598204,26
2021-12-23 17:47:44.598235,26
2021-12-23 17:47:44.598247,26
2021-12-23 17:47:44.598257,26
2021-12-23 17:47:44.598267,14
2021-12-23 17:47:44.598277,-11
2021-12-23 17:47:44.598286,19
2021-12-23 17:47:44.598296,325
2021-12-23 17:47:44.598306,1057
2021-12-23 17:47:44.598316,1929
2021-12-23 17:47:44.598325,2231
2021-12-23 17:47:44.598335,1309
2021-12-23 17:47:44.598345,-175
2021-12-23 17:47:44.598355,-494
2021-12-23 17:47:44.598365,87
2021-12-23 17:47:44.598374,71
2021-12-23 17:47:44.598384,-192
2021-12-23 17:47:44.598394,-73
2021-12-23 17:47:44.598404,-7
2021-12-23 17:47:44.598413,-85
2021-12-23 17:47:44.598423,-57
2021-12-23 17:47:44.598433,-7
2021-12-23 17:47:44.598443,-11
2021-12-23 17:47:44.598452,2
2021-12-23 17:47:44.598462,38
2021-12-23 17:47:44.598472,57
2021-12-23 17:47:44.598482,76
2021-12-23 17:47:44.598491,99
2021-12-23 17:47:44.598501,118
2021-12-23 17:47:44.598511,137
2021-12-23 17:47:44.867576,168
2021-12-23 17:47:44.867598,209
2021-12-23 17:47:44.867606,240
2021-12-23 17:47:44.867613,266
2021-12-23 17:47:44.867619,306
2021-12-23 17:47:44.867626,346
2021-12-23 17:47:44.867632,368
2021-12-23 17:47:44.867639,380
2021-12-23 17:47:44.867645,408
2021-12-23 17:47:44.867652,430
2021-12-23 17:47:44.867659,415
2021-12-23 17:47:44.867665,394
2021-12-23 17:47:44.867672,356
2021-12-23 17:47:44.867678,282
2021-12-23 17:47:44.867685,185
2021-12-23 17:47:44.867691,90
2021-12-23 17:47:44.867699,2
2021-12-23 17:47:44.867711,-64
2021-12-23 17:47:44.867760,-116
2021-12-23 17:47:44.867784,-159
2021-12-23 17:47:44.867798,-192
2021-12-23 17:47:44.867810,-209
2021-12-23 17:47:44.867821,-211
2021-12-23 17:47:44.867833,-211
2021-12-23 17:47:44.867844,-211
2021-12-23 17:47:44.867855,-211
2021-12-23 17:47:44.867867,-211
2021-12-23 17:47:44.867878,-206
2021-12-23 17:47:44.867890,-185
2021-12-23 17:47:44.867902,-159
2021-12-23 17:47:45.048263,-152
2021-12-23 17:47:45.048293,-154
2021-12-23 17:47:45.048305,-149
2021-12-23 17:47:45.048316,-144
2021-12-23 17:47:45.048326,-142
2021-12-23 17:47:45.048336,-130
2021-12-23 17:47:45.048346,-121
2021-12-23 17:47:45.048356,-130
2021-12-23 17:47:45.048366,-135
2021-12-23 17:47:45.048376,-125
2021-12-23 17:47:45.048386,-121
2021-12-23 17:47:45.048396,-123
2021-12-23 17:47:45.048425,-123
2021-12-23 17:47:45.048435,-128
2021-12-23 17:47:45.048445,-125
2021-12-23 17:47:45.048455,-111
2021-12-23 17:47:45.048465,-106
2021-12-23 17:47:45.048475,-109
2021-12-23 17:47:45.048485,-111
2021-12-23 17:47:45.048495,-104
2021-12-23 17:47:45.048505,-97
2021-12-23 17:47:45.048515,-95
2021-12-23 17:47:45.048524,-85
2021-12-23 17:47:45.048534,-78
2021-12-23 17:47:45.048544,-80
2021-12-23 17:47:45.048554,-76
2021-12-23 17:47:45.048564,-68
2021-12-23 17:47:45.048574,-59
2021-12-23 17:47:45.048584,-52
2021-12-23 17:47:45.048594,-52
2021-12-23 17:47:45.273253,-57
2021-12-23 17:47:45.273284,-47
2021-12-23 17:47:45.273296,-38
2021-12-23 17:47:45.273305,-33
2021-12-23 17:47:45.273315,-23
2021-12-23 17:47:45.273325,-21
2021-12-23 17:47:45.273335,-33
2021-12-23 17:47:45.273345,-30
2021-12-23 17:47:45.273355,-21
2021-12-23 17:47:45.273364,-23
2021-12-23 17:47:45.273374,-28
2021-12-23 17:47:45.273384,-33
2021-12-23 17:47:45.273394,-30
2021-12-23 17:47:45.273403,-14
2021-12-23 17:47:45.273413,14
2021-12-23 17:47:45.273423,35
2021-12-23 17:47:45.273433,47
2021-12-23 17:47:45.273443,52
2021-12-23 17:47:45.273452,38
2021-12-23 17:47:45.273462,11
2021-12-23 17:47:45.273472,-7
2021-12-23 17:47:45.273482,-7
2021-12-23 17:47:45.273492,2
2021-12-23 17:47:45.273501,11
2021-12-23 17:47:45.273511,14
2021-12-23 17:47:45.273521,19
2021-12-23 17:47:45.273531,14
2021-12-23 17:47:45.273541,0
2021-12-23 17:47:45.273551,-4
2021-12-23 17:47:45.273560,99
2021-12-23 17:47:45.587650,520
2021-12-23 17:47:45.587681,1337
2021-12-23 17:47:45.587694,2181
2021-12-23 17:47:45.587704,2226
2021-12-23 17:47:45.587714,922
2021-12-23 17:47:45.587724,-515
2021-12-23 17:47:45.587734,-430
2021-12-23 17:47:45.587744,166
2021-12-23 17:47:45.587754,-9
2021-12-23 17:47:45.587764,-185
2021-12-23 17:47:45.587774,-16
2021-12-23 17:47:45.587783,-23
2021-12-23 17:47:45.587793,-104
2021-12-23 17:47:45.587803,-47
2021-12-23 17:47:45.587813,-2
2021-12-23 17:47:45.587823,-2
2021-12-23 17:47:45.587833,21
2021-12-23 17:47:45.587842,52
2021-12-23 17:47:45.587852,68
2021-12-23 17:47:45.587862,85
2021-12-23 17:47:45.587872,109
2021-12-23 17:47:45.587881,137
2021-12-23 17:47:45.587891,166
2021-12-23 17:47:45.587901,197
2021-12-23 17:47:45.587911,225
2021-12-23 17:47:45.587920,256
2021-12-23 17:47:45.587930,294
2021-12-23 17:47:45.587940,339
2021-12-23 17:47:45.587950,377
2021-12-23 17:47:45.587959,406
2021-12-23 17:47:45.767438,430
2021-12-23 17:47:45.767468,453
2021-12-23 17:47:45.767480,458
2021-12-23 17:47:45.767490,430
2021-12-23 17:47:45.767500,389
2021-12-23 17:47:45.767509,335
2021-12-23 17:47:45.767519,256
2021-12-23 17:47:45.767529,163
2021-12-23 17:47:45.767539,73
2021-12-23 17:47:45.767549,-9
2021-12-23 17:47:45.767558,-76
2021-12-23 17:47:45.767568,-125
2021-12-23 17:47:45.767578,-156
2021-12-23 17:47:45.767588,-175
2021-12-23 17:47:45.767597,-192
2021-12-23 17:47:45.767607,-204
2021-12-23 17:47:45.767617,-206
2021-12-23 17:47:45.767626,-194
2021-12-23 17:47:45.767636,-180
2021-12-23 17:47:45.767646,-171
2021-12-23 17:47:45.767656,-166
2021-12-23 17:47:45.767665,-154
2021-12-23 17:47:45.767675,-137
2021-12-23 17:47:45.767685,-121
2021-12-23 17:47:45.767694,-111
2021-12-23 17:47:45.767704,-111
2021-12-23 17:47:45.767714,-114
2021-12-23 17:47:45.767724,-109
2021-12-23 17:47:45.767744,-104
2021-12-23 17:47:45.767754,-106
2021-12-23 17:47:45.993243,-104
2021-12-23 17:47:45.993273,-95
2021-12-23 17:47:45.993285,-95
2021-12-23 17:47:45.993295,-97
2021-12-23 17:47:45.993305,-99
2021-12-23 17:47:45.993315,-97
2021-12-23 17:47:45.993324,-92
2021-12-23 17:47:45.993334,-85
2021-12-23 17:47:45.993344,-80
2021-12-23 17:47:45.993354,-78
2021-12-23 17:47:45.993363,-83
2021-12-23 17:47:45.993373,-83
2021-12-23 17:47:45.993383,-76
2021-12-23 17:47:45.993392,-64
2021-12-23 17:47:45.993402,-57
2021-12-23 17:47:45.993412,-59
2021-12-23 17:47:45.993421,-66
2021-12-23 17:47:45.993431,-68
2021-12-23 17:47:45.993440,-66
2021-12-23 17:47:45.993450,-59
2021-12-23 17:47:45.993460,-47
2021-12-23 17:47:45.993469,-47
2021-12-23 17:47:45.993479,-49
2021-12-23 17:47:45.993488,-38
2021-12-23 17:47:45.993498,-28
2021-12-23 17:47:45.993508,-26
2021-12-23 17:47:45.993517,-28
2021-12-23 17:47:45.993543,-26
2021-12-23 17:47:45.993553,-19
2021-12-23 17:47:45.993563,-11
2021-12-23 17:47:46.218215,-2
2021-12-23 17:47:46.218236,-4
2021-12-23 17:47:46.218244,-11
2021-12-23 17:47:46.218251,0
2021-12-23 17:47:46.218257,19
2021-12-23 17:47:46.218264,14
2021-12-23 17:47:46.218271,2
2021-12-23 17:47:46.218277,7
2021-12-23 17:47:46.218283,16
2021-12-23 17:47:46.218290,28
2021-12-23 17:47:46.218296,57
2021-12-23 17:47:46.218302,76
2021-12-23 17:47:46.218309,78
2021-12-23 17:47:46.218315,71
2021-12-23 17:47:46.218322,49
2021-12-23 17:47:46.218328,26
2021-12-23 17:47:46.218335,14
2021-12-23 17:47:46.218341,16
2021-12-23 17:47:46.218348,28
2021-12-23 17:47:46.218354,30
2021-12-23 17:47:46.218361,28
2021-12-23 17:47:46.218367,26
2021-12-23 17:47:46.218374,26
2021-12-23 17:47:46.218381,4
2021-12-23 17:47:46.218388,-14
2021-12-23 17:47:46.218394,161
2021-12-23 17:47:46.218401,753
2021-12-23 17:47:46.218409,1646
2021-12-23 17:47:46.218416,2269
2021-12-23 17:47:46.218423,1886
2021-12-23 17:47:46.443230,463
2021-12-23 17:47:46.443261,-491
2021-12-23 17:47:46.443273,-128
2021-12-23 17:47:46.443283,175
2021-12-23 17:47:46.443293,-99
2021-12-23 17:47:46.443303,-123
2021-12-23 17:47:46.443313,14
2021-12-23 17:47:46.443323,-54
2021-12-23 17:47:46.443332,-85
2021-12-23 17:47:46.443342,-9
2021-12-23 17:47:46.443352,4
2021-12-23 17:47:46.443362,-4
2021-12-23 17:47:46.443371,28
2021-12-23 17:47:46.443381,59
2021-12-23 17:47:46.443391,68
2021-12-23 17:47:46.443401,87
2021-12-23 17:47:46.443410,118
2021-12-23 17:47:46.443420,144
2021-12-23 17:47:46.443430,171
2021-12-23 17:47:46.443439,201
2021-12-23 17:47:46.443449,235
2021-12-23 17:47:46.443459,256
2021-12-23 17:47:46.443469,292
2021-12-23 17:47:46.443478,342
2021-12-23 17:47:46.443488,365
2021-12-23 17:47:46.443498,384
2021-12-23 17:47:46.443508,413
2021-12-23 17:47:46.443517,439
2021-12-23 17:47:46.443527,441
2021-12-23 17:47:46.443537,422
2021-12-23 17:47:46.668214,384
2021-12-23 17:47:46.668245,327
2021-12-23 17:47:46.668257,240
2021-12-23 17:47:46.668268,135
2021-12-23 17:47:46.668278,47
2021-12-23 17:47:46.668288,-19
2021-12-23 17:47:46.668298,-85
2021-12-23 17:47:46.668308,-135
2021-12-23 17:47:46.668318,-163
2021-12-23 17:47:46.668328,-187
2021-12-23 17:47:46.668338,-201
2021-12-23 17:47:46.668348,-194
2021-12-23 17:47:46.668358,-182
2021-12-23 17:47:46.668368,-187
2021-12-23 17:47:46.668378,-190
2021-12-23 17:47:46.668388,-175
2021-12-23 17:47:46.668398,-161
2021-12-23 17:47:46.668408,-152
2021-12-23 17:47:46.668417,-140
2021-12-23 17:47:46.668427,-125
2021-12-23 17:47:46.668437,-116
2021-12-23 17:47:46.668447,-114
2021-12-23 17:47:46.668457,-109
2021-12-23 17:47:46.668467,-104
2021-12-23 17:47:46.668477,-104
2021-12-23 17:47:46.668486,-106
2021-12-23 17:47:46.668496,-104
2021-12-23 17:47:46.668506,-99
2021-12-23 17:47:46.668516,-97
2021-12-23 17:47:46.668526,-99
2021-12-23 17:47:46.937450,-99
2021-12-23 17:47:46.937481,-87
2021-12-23 17:47:46.937492,-83
2021-12-23 17:47:46.937502,-90
2021-12-23 17:47:46.937512,-85
2021-12-23 17:47:46.937522,-76
2021-12-23 17:47:46.937532,-85
2021-12-23 17:47:46.937542,-90
2021-12-23 17:47:46.937552,-73
2021-12-23 17:47:46.937562,-64
2021-12-23 17:47:46.937572,-68
2021-12-23 17:47:46.937582,-73
2021-12-23 17:47:46.937592,-71
2021-12-23 17:47:46.937602,-59
2021-12-23 17:47:46.937612,-54
2021-12-23 17:47:46.937623,-57
2021-12-23 17:47:46.937633,-49
2021-12-23 17:47:46.937642,-42
2021-12-23 17:47:46.937652,-38
2021-12-23 17:47:46.937662,-35
2021-12-23 17:47:46.937672,-42
2021-12-23 17:47:46.937682,-33
2021-12-23 17:47:46.937692,-16
2021-12-23 17:47:46.937702,-14
2021-12-23 17:47:46.937712,-11
2021-12-23 17:47:46.937722,-11
2021-12-23 17:47:46.937732,-23
2021-12-23 17:47:46.937742,-16
2021-12-23 17:47:46.937752,0
2021-12-23 17:47:46.937762,-4
2021-12-23 17:47:47.118188,-19
2021-12-23 17:47:47.118209,-11
2021-12-23 17:47:47.118217,4
2021-12-23 17:47:47.118224,11
2021-12-23 17:47:47.118230,0
2021-12-23 17:47:47.118237,-16
2021-12-23 17:47:47.118243,-9
2021-12-23 17:47:47.118249,14
2021-12-23 17:47:47.118255,19
2021-12-23 17:47:47.118262,9
2021-12-23 17:47:47.118268,11
2021-12-23 17:47:47.118274,38
2021-12-23 17:47:47.118281,57
2021-12-23 17:47:47.118287,57
2021-12-23 17:47:47.118293,68
2021-12-23 17:47:47.118300,78
2021-12-23 17:47:47.118306,57
2021-12-23 17:47:47.118312,23
2021-12-23 17:47:47.118318,16
2021-12-23 17:47:47.118325,23
2021-12-23 17:47:47.118331,26
2021-12-23 17:47:47.118337,30
2021-12-23 17:47:47.118343,42
2021-12-23 17:47:47.118349,40
2021-12-23 17:47:47.118356,26
2021-12-23 17:47:47.118362,7
2021-12-23 17:47:47.118368,-14
2021-12-23 17:47:47.118375,114
2021-12-23 17:47:47.118381,648
2021-12-23 17:47:47.118387,1537
2021-12-23 17:47:47.343042,2207
2021-12-23 17:47:47.343064,1943
2021-12-23 17:47:47.343072,617
2021-12-23 17:47:47.343079,-434
2021-12-23 17:47:47.343085,-185
2021-12-23 17:47:47.343091,182
2021-12-23 17:47:47.343098,-68
2021-12-23 17:47:47.343104,-149
2021-12-23 17:47:47.343110,-7
2021-12-23 17:47:47.343117,-49
2021-12-23 17:47:47.343123,-95
2021-12-23 17:47:47.343129,-28
2021-12-23 17:47:47.343136,-4
2021-12-23 17:47:47.343142,-4
2021-12-23 17:47:47.343148,30
2021-12-23 17:47:47.343155,54
2021-12-23 17:47:47.343161,57
2021-12-23 17:47:47.343167,83
2021-12-23 17:47:47.343173,114
2021-12-23 17:47:47.343180,135
2021-12-23 17:47:47.343186,152
2021-12-23 17:47:47.343192,173
2021-12-23 17:47:47.343199,211
2021-12-23 17:47:47.343205,249
2021-12-23 17:47:47.343212,285
2021-12-23 17:47:47.343218,327
2021-12-23 17:47:47.343224,358
2021-12-23 17:47:47.343230,387
2021-12-23 17:47:47.343237,420
2021-12-23 17:47:47.343243,434
2021-12-23 17:47:47.612685,432
2021-12-23 17:47:47.612716,430
2021-12-23 17:47:47.612729,403
2021-12-23 17:47:47.612739,342
2021-12-23 17:47:47.612749,256
2021-12-23 17:47:47.612759,154
2021-12-23 17:47:47.612769,54
2021-12-23 17:47:47.612778,-26
2021-12-23 17:47:47.612788,-90
2021-12-23 17:47:47.612798,-144
2021-12-23 17:47:47.612808,-180
2021-12-23 17:47:47.612818,-201
2021-12-23 17:47:47.612827,-211
2021-12-23 17:47:47.612837,-211
2021-12-23 17:47:47.612847,-209
2021-12-23 17:47:47.612856,-220
2021-12-23 17:47:47.612866,-216
2021-12-23 17:47:47.612876,-197
2021-12-23 17:47:47.612885,-185
2021-12-23 17:47:47.612895,-180
2021-12-23 17:47:47.612905,-178
2021-12-23 17:47:47.612915,-166
2021-12-23 17:47:47.612924,-137
2021-12-23 17:47:47.612940,-118
2021-12-23 17:47:47.612950,-111
2021-12-23 17:47:47.612960,-111
2021-12-23 17:47:47.612970,-123
2021-12-23 17:47:47.612979,-144
2021-12-23 17:47:47.612989,-142
2021-12-23 17:47:47.612999,-109
2021-12-23 17:47:47.881067,-92
2021-12-23 17:47:47.881087,-102
2021-12-23 17:47:47.881095,-104
2021-12-23 17:47:47.881102,-99
2021-12-23 17:47:47.881109,-109
2021-12-23 17:47:47.881115,-114
2021-12-23 17:47:47.881122,-104
2021-12-23 17:47:47.881128,-102
2021-12-23 17:47:47.881135,-104
2021-12-23 17:47:47.881141,-102
2021-12-23 17:47:47.881148,-104
2021-12-23 17:47:47.881154,-97
2021-12-23 17:47:47.881160,-80
2021-12-23 17:47:47.881167,-68
2021-12-23 17:47:47.881173,-64
2021-12-23 17:47:47.881179,-66
2021-12-23 17:47:47.881186,-71
2021-12-23 17:47:47.881192,-71
2021-12-23 17:47:47.881198,-64
2021-12-23 17:47:47.881205,-59
2021-12-23 17:47:47.881211,-57
2021-12-23 17:47:47.881217,-49
2021-12-23 17:47:47.881224,-38
2021-12-23 17:47:47.881230,-28
2021-12-23 17:47:47.881237,-19
2021-12-23 17:47:47.881243,-19
2021-12-23 17:47:47.881249,-23
2021-12-23 17:47:47.881256,-21
2021-12-23 17:47:47.881262,-14
2021-12-23 17:47:47.881268,-11
2021-12-23 17:47:48.063148,-9
2021-12-23 17:47:48.063179,-2
2021-12-23 17:47:48.063191,-2
2021-12-23 17:47:48.063201,-14
2021-12-23 17:47:48.063211,-4
2021-12-23 17:47:48.063220,26
2021-12-23 17:47:48.063230,40
2021-12-23 17:47:48.063240,47
2021-12-23 17:47:48.063249,54
2021-12-23 17:47:48.063259,38
2021-12-23 17:47:48.063269,9
2021-12-23 17:47:48.063278,0
2021-12-23 17:47:48.063288,-7
2021-12-23 17:47:48.063298,-2
2021-12-23 17:47:48.063307,4
2021-12-23 17:47:48.063317,-2
2021-12-23 17:47:48.063327,-7
2021-12-23 17:47:48.063336,2
2021-12-23 17:47:48.063346,2
2021-12-23 17:47:48.063356,-19
2021-12-23 17:47:48.063365,9
2021-12-23 17:47:48.063375,294
2021-12-23 17:47:48.063384,1012
2021-12-23 17:47:48.063394,1936
2021-12-23 17:47:48.063403,2354
2021-12-23 17:47:48.063413,1482
2021-12-23 17:47:48.063423,-159
2021-12-23 17:47:48.063432,-636
2021-12-23 17:47:48.063442,30
2021-12-23 17:47:48.063452,121
2021-12-23 17:47:48.333144,-175
2021-12-23 17:47:48.333175,-73
2021-12-23 17:47:48.333187,21
2021-12-23 17:47:48.333198,-66
2021-12-23 17:47:48.333208,-54
2021-12-23 17:47:48.333218,0
2021-12-23 17:47:48.333228,-9
2021-12-23 17:47:48.333238,9
2021-12-23 17:47:48.333247,49
2021-12-23 17:47:48.333257,64
2021-12-23 17:47:48.333267,78
2021-12-23 17:47:48.333277,111
2021-12-23 17:47:48.333287,137
2021-12-23 17:47:48.333297,159
2021-12-23 17:47:48.333307,187
2021-12-23 17:47:48.333316,220
2021-12-23 17:47:48.333326,249
2021-12-23 17:47:48.333336,282
2021-12-23 17:47:48.333346,327
2021-12-23 17:47:48.333355,363
2021-12-23 17:47:48.333381,387
2021-12-23 17:47:48.333391,420
2021-12-23 17:47:48.333401,458
2021-12-23 17:47:48.333411,468
2021-12-23 17:47:48.333425,451
2021-12-23 17:47:48.333443,430
2021-12-23 17:47:48.333459,380
2021-12-23 17:47:48.333476,287
2021-12-23 17:47:48.333493,192
2021-12-23 17:47:48.333511,118
2021-12-23 17:47:48.558253,33
2021-12-23 17:47:48.558285,-52
2021-12-23 17:47:48.558296,-99
2021-12-23 17:47:48.558306,-130
2021-12-23 17:47:48.558316,-166
2021-12-23 17:47:48.558326,-190
2021-12-23 17:47:48.558335,-190
2021-12-23 17:47:48.558345,-185
2021-12-23 17:47:48.558355,-182
2021-12-23 17:47:48.558364,-178
2021-12-23 17:47:48.558374,-163
2021-12-23 17:47:48.558384,-152
2021-12-23 17:47:48.558393,-144
2021-12-23 17:47:48.558403,-128
2021-12-23 17:47:48.558413,-114
2021-12-23 17:47:48.558422,-114
2021-12-23 17:47:48.558432,-114
2021-12-23 17:47:48.558441,-106
2021-12-23 17:47:48.558451,-99
2021-12-23 17:47:48.558461,-99
2021-12-23 17:47:48.558470,-95
2021-12-23 17:47:48.558480,-80
2021-12-23 17:47:48.558490,-80
2021-12-23 17:47:48.558500,-80
2021-12-23 17:47:48.558509,-78
2021-12-23 17:47:48.558519,-87
2021-12-23 17:47:48.558529,-85
2021-12-23 17:47:48.558539,-71
2021-12-23 17:47:48.558548,-71
2021-12-23 17:47:48.558558,-83
2021-12-23 17:47:48.783281,-83
2021-12-23 17:47:48.783313,-61
2021-12-23 17:47:48.783325,-54
2021-12-23 17:47:48.783335,-73
2021-12-23 17:47:48.783344,-76
2021-12-23 17:47:48.783354,-54
2021-12-23 17:47:48.783364,-45
2021-12-23 17:47:48.783373,-54
2021-12-23 17:47:48.783383,-54
2021-12-23 17:47:48.783392,-47
2021-12-23 17:47:48.783402,-52
2021-12-23 17:47:48.783412,-45
2021-12-23 17:47:48.783421,-33
2021-12-23 17:47:48.783431,-38
2021-12-23 17:47:48.783440,-40
2021-12-23 17:47:48.783450,-33
2021-12-23 17:47:48.783460,-21
2021-12-23 17:47:48.783469,-21
2021-12-23 17:47:48.783479,-30
2021-12-23 17:47:48.783488,-21
2021-12-23 17:47:48.783498,-4
2021-12-23 17:47:48.783508,-16
2021-12-23 17:47:48.783517,-28
2021-12-23 17:47:48.783527,-14
2021-12-23 17:47:48.783536,-4
2021-12-23 17:47:48.783546,0
2021-12-23 17:47:48.783555,4
2021-12-23 17:47:48.783565,2
2021-12-23 17:47:48.783575,0
2021-12-23 17:47:48.783584,11
2021-12-23 17:47:49.008093,42
2021-12-23 17:47:49.008124,64
2021-12-23 17:47:49.008136,71
2021-12-23 17:47:49.008146,80
2021-12-23 17:47:49.008156,78
2021-12-23 17:47:49.008166,49
2021-12-23 17:47:49.008175,21
2021-12-23 17:47:49.008185,19
2021-12-23 17:47:49.008195,28
2021-12-23 17:47:49.008205,28
2021-12-23 17:47:49.008214,28
2021-12-23 17:47:49.008224,28
2021-12-23 17:47:49.008234,21
2021-12-23 17:47:49.008244,26
2021-12-23 17:47:49.008254,11
2021-12-23 17:47:49.008263,-4
2021-12-23 17:47:49.008273,197
2021-12-23 17:47:49.008283,829
2021-12-23 17:47:49.008293,1687
2021-12-23 17:47:49.008303,2212
2021-12-23 17:47:49.008312,1758
2021-12-23 17:47:49.008322,363
2021-12-23 17:47:49.008332,-477
2021-12-23 17:47:49.008342,-90
2021-12-23 17:47:49.008352,149
2021-12-23 17:47:49.008362,-128
2021-12-23 17:47:49.008371,-133
2021-12-23 17:47:49.008381,-9
2021-12-23 17:47:49.008391,-57
2021-12-23 17:47:49.008401,-66
2021-12-23 17:47:49.188068,-7
2021-12-23 17:47:49.188099,2
2021-12-23 17:47:49.188111,7
2021-12-23 17:47:49.188121,35
2021-12-23 17:47:49.188131,49
2021-12-23 17:47:49.188141,64
2021-12-23 17:47:49.188150,87
2021-12-23 17:47:49.188160,109
2021-12-23 17:47:49.188170,130
2021-12-23 17:47:49.188179,156
2021-12-23 17:47:49.188189,187
2021-12-23 17:47:49.188199,225
2021-12-23 17:47:49.188208,263
2021-12-23 17:47:49.188218,297
2021-12-23 17:47:49.188228,337
2021-12-23 17:47:49.188237,375
2021-12-23 17:47:49.188247,399
2021-12-23 17:47:49.188257,413
2021-12-23 17:47:49.188266,427
2021-12-23 17:47:49.188276,439
2021-12-23 17:47:49.188286,430
2021-12-23 17:47:49.188295,387
2021-12-23 17:47:49.188305,318
2021-12-23 17:47:49.188315,218
2021-12-23 17:47:49.188324,123
2021-12-23 17:47:49.188334,59
2021-12-23 17:47:49.188343,-9
2021-12-23 17:47:49.188353,-83
2021-12-23 17:47:49.188363,-125
2021-12-23 17:47:49.188373,-149
2021-12-23 17:47:49.457492,-168
2021-12-23 17:47:49.457522,-180
2021-12-23 17:47:49.457534,-173
2021-12-23 17:47:49.457544,-161
2021-12-23 17:47:49.457554,-166
2021-12-23 17:47:49.457564,-178
2021-12-23 17:47:49.457574,-166
2021-12-23 17:47:49.457583,-149
2021-12-23 17:47:49.457593,-142
2021-12-23 17:47:49.457603,-125
2021-12-23 17:47:49.457613,-114
2021-12-23 17:47:49.457623,-116
2021-12-23 17:47:49.457632,-104
2021-12-23 17:47:49.457642,-85
2021-12-23 17:47:49.457652,-87
2021-12-23 17:47:49.457662,-92
2021-12-23 17:47:49.457671,-87
2021-12-23 17:47:49.457681,-90
2021-12-23 17:47:49.457691,-85
2021-12-23 17:47:49.457701,-68
2021-12-23 17:47:49.457711,-68
2021-12-23 17:47:49.457720,-87
2021-12-23 17:47:49.457730,-85
2021-12-23 17:47:49.457740,-76
2021-12-23 17:47:49.457749,-73
2021-12-23 17:47:49.457759,-64
2021-12-23 17:47:49.457769,-59
2021-12-23 17:47:49.457779,-66
2021-12-23 17:47:49.457788,-66
2021-12-23 17:47:49.457798,-68
2021-12-23 17:47:49.683126,-83
2021-12-23 17:47:49.683156,-66
2021-12-23 17:47:49.683168,-42
2021-12-23 17:47:49.683179,-59
2021-12-23 17:47:49.683189,-71
2021-12-23 17:47:49.683198,-49
2021-12-23 17:47:49.683208,-38
2021-12-23 17:47:49.683218,-42
2021-12-23 17:47:49.683227,-38
2021-12-23 17:47:49.683237,-38
2021-12-23 17:47:49.683247,-45
2021-12-23 17:47:49.683257,-30
2021-12-23 17:47:49.683267,-19
2021-12-23 17:47:49.683276,-26
2021-12-23 17:47:49.683286,-23
2021-12-23 17:47:49.683296,-11
2021-12-23 17:47:49.683306,-11
2021-12-23 17:47:49.683321,-11
2021-12-23 17:47:49.683331,-4
2021-12-23 17:47:49.683341,-7
2021-12-23 17:47:49.683351,-16
2021-12-23 17:47:49.683360,-9
2021-12-23 17:47:49.683370,2
2021-12-23 17:47:49.683380,2
2021-12-23 17:47:49.683390,4
2021-12-23 17:47:49.683400,21
2021-12-23 17:47:49.683410,52
2021-12-23 17:47:49.683419,59
2021-12-23 17:47:49.683429,57
2021-12-23 17:47:49.683439,71
2021-12-23 17:47:49.951693,76
2021-12-23 17:47:49.951723,42
2021-12-23 17:47:49.951734,9
2021-12-23 17:47:49.951744,19
2021-12-23 17:47:49.951754,40
2021-12-23 17:47:49.951764,40
2021-12-23 17:47:49.951773,30
2021-12-23 17:47:49.951783,30
2021-12-23 17:47:49.951792,33
2021-12-23 17:47:49.951802,23
2021-12-23 17:47:49.951811,0
2021-12-23 17:47:49.951821,2
2021-12-23 17:47:49.951831,240
2021-12-23 17:47:49.951840,907
2021-12-23 17:47:49.951850,1801
2021-12-23 17:47:49.951859,2276
2021-12-23 17:47:49.951869,1618
2021-12-23 17:47:49.951878,128
2021-12-23 17:47:49.951888,-503
2021-12-23 17:47:49.951897,-4
2021-12-23 17:47:49.951907,114
2021-12-23 17:47:49.951917,-175
2021-12-23 17:47:49.951926,-99
2021-12-23 17:47:49.951936,4
2021-12-23 17:47:49.951946,-90
2021-12-23 17:47:49.951955,-92
2021-12-23 17:47:49.951965,-19
2021-12-23 17:47:49.951974,-14
2021-12-23 17:47:49.951984,-7
2021-12-23 17:47:49.952009,30
2021-12-23 17:47:50.133012,47
2021-12-23 17:47:50.133034,54
2021-12-23 17:47:50.133041,83
2021-12-23 17:47:50.133048,118
2021-12-23 17:47:50.133054,152
2021-12-23 17:47:50.133061,173
2021-12-23 17:47:50.133067,192
2021-12-23 17:47:50.133073,220
2021-12-23 17:47:50.133079,254
2021-12-23 17:47:50.133085,285
2021-12-23 17:47:50.133092,323
2021-12-23 17:47:50.133098,375
2021-12-23 17:47:50.133104,422
2021-12-23 17:47:50.133110,441
2021-12-23 17:47:50.133116,446
2021-12-23 17:47:50.133123,446
2021-12-23 17:47:50.133129,430
2021-12-23 17:47:50.133135,382
2021-12-23 17:47:50.133141,306
2021-12-23 17:47:50.133147,211
2021-12-23 17:47:50.133154,109
2021-12-23 17:47:50.133160,14
2021-12-23 17:47:50.133166,-73
2021-12-23 17:47:50.133172,-130
2021-12-23 17:47:50.133179,-159
2021-12-23 17:47:50.133185,-182
2021-12-23 17:47:50.133191,-218
2021-12-23 17:47:50.133197,-232
2021-12-23 17:47:50.133203,-223
2021-12-23 17:47:50.133210,-211
2021-12-23 17:47:50.358113,-211
2021-12-23 17:47:50.358143,-206
2021-12-23 17:47:50.358155,-192
2021-12-23 17:47:50.358165,-182
2021-12-23 17:47:50.358175,-178
2021-12-23 17:47:50.358185,-171
2021-12-23 17:47:50.358194,-166
2021-12-23 17:47:50.358204,-152
2021-12-23 17:47:50.358214,-125
2021-12-23 17:47:50.358224,-123
2021-12-23 17:47:50.358234,-121
2021-12-23 17:47:50.358243,-97
2021-12-23 17:47:50.358253,-92
2021-12-23 17:47:50.358263,-109
2021-12-23 17:47:50.358273,-111
2021-12-23 17:47:50.358283,-102
2021-12-23 17:47:50.358293,-102
2021-12-23 17:47:50.358302,-97
2021-12-23 17:47:50.358312,-92
2021-12-23 17:47:50.358322,-95
2021-12-23 17:47:50.358332,-95
2021-12-23 17:47:50.358342,-97
2021-12-23 17:47:50.358351,-102
2021-12-23 17:47:50.358361,-104
2021-12-23 17:47:50.358371,-90
2021-12-23 17:47:50.358381,-83
2021-12-23 17:47:50.358391,-87
2021-12-23 17:47:50.358400,-80
2021-12-23 17:47:50.358410,-61
2021-12-23 17:47:50.358420,-49
2021-12-23 17:47:50.583126,-47
2021-12-23 17:47:50.583158,-54
2021-12-23 17:47:50.583169,-61
2021-12-23 17:47:50.583179,-61
2021-12-23 17:47:50.583189,-59
2021-12-23 17:47:50.583199,-57
2021-12-23 17:47:50.583209,-45
2021-12-23 17:47:50.583218,-33
2021-12-23 17:47:50.583228,-30
2021-12-23 17:47:50.583238,-30
2021-12-23 17:47:50.583247,-26
2021-12-23 17:47:50.583257,-26
2021-12-23 17:47:50.583267,-38
2021-12-23 17:47:50.583276,-49
2021-12-23 17:47:50.583286,-42
2021-12-23 17:47:50.583296,-26
2021-12-23 17:47:50.583305,-14
2021-12-23 17:47:50.583315,14
2021-12-23 17:47:50.583325,38
2021-12-23 17:47:50.583334,45
2021-12-23 17:47:50.583344,47
2021-12-23 17:47:50.583354,42
2021-12-23 17:47:50.583363,14
2021-12-23 17:47:50.583373,-4
2021-12-23 17:47:50.583383,2
2021-12-23 17:47:50.583392,7
2021-12-23 17:47:50.583402,2
2021-12-23 17:47:50.583412,11
2021-12-23 17:47:50.583421,26
2021-12-23 17:47:50.583431,23
2021-12-23 17:47:50.808161,7
2021-12-23 17:47:50.808182,-7
2021-12-23 17:47:50.808190,73
2021-12-23 17:47:50.808196,480
2021-12-23 17:47:50.808203,1318
2021-12-23 17:47:50.808209,2200
2021-12-23 17:47:50.808216,2286
2021-12-23 17:47:50.808222,1014
2021-12-23 17:47:50.808228,-439
2021-12-23 17:47:50.808235,-415
2021-12-23 17:47:50.808241,171
2021-12-23 17:47:50.808248,4
2021-12-23 17:47:50.808254,-185
2021-12-23 17:47:50.808260,-23
2021-12-23 17:47:50.808266,-16
2021-12-23 17:47:50.808273,-80
2021-12-23 17:47:50.808280,-14
2021-12-23 17:47:50.808286,14
2021-12-23 17:47:50.808292,-7
2021-12-23 17:47:50.808299,26
2021-12-23 17:47:50.808305,66
2021-12-23 17:47:50.808312,76
2021-12-23 17:47:50.808318,95
2021-12-23 17:47:50.808324,125
2021-12-23 17:47:50.808331,154
2021-12-23 17:47:50.808337,185
2021-12-23 17:47:50.808344,216
2021-12-23 17:47:50.808350,242
2021-12-23 17:47:50.808356,266
2021-12-23 17:47:50.808363,304
2021-12-23 17:47:51.032664,363
2021-12-23 17:47:51.032686,415
2021-12-23 17:47:51.032692,444
2021-12-23 17:47:51.032698,463
2021-12-23 17:47:51.032703,480
2021-12-23 17:47:51.032708,484
2021-12-23 17:47:51.032714,470
2021-12-23 17:47:51.032719,425
2021-12-23 17:47:51.032724,354
2021-12-23 17:47:51.032729,263
2021-12-23 17:47:51.032734,163
2021-12-23 17:47:51.032739,68
2021-12-23 17:47:51.032744,-14
2021-12-23 17:47:51.032749,-80
2021-12-23 17:47:51.032754,-133
2021-12-23 17:47:51.032759,-171
2021-12-23 17:47:51.032764,-204
2021-12-23 17:47:51.032769,-216
2021-12-23 17:47:51.032774,-197
2021-12-23 17:47:51.032779,-187
2021-12-23 17:47:51.032784,-194
2021-12-23 17:47:51.032789,-180
2021-12-23 17:47:51.032794,-161
2021-12-23 17:47:51.032799,-168
2021-12-23 17:47:51.032804,-173
2021-12-23 17:47:51.032809,-149
2021-12-23 17:47:51.032814,-118
2021-12-23 17:47:51.032819,-111
2021-12-23 17:47:51.032824,-116
2021-12-23 17:47:51.032829,-114
2021-12-23 17:47:51.258161,-102
2021-12-23 17:47:51.258192,-83
2021-12-23 17:47:51.258205,-78
2021-12-23 17:47:51.258215,-90
2021-12-23 17:47:51.258224,-90
2021-12-23 17:47:51.258234,-71
2021-12-23 17:47:51.258244,-54
2021-12-23 17:47:51.258253,-54
2021-12-23 17:47:51.258263,-57
2021-12-23 17:47:51.258272,-64
2021-12-23 17:47:51.258282,-73
2021-12-23 17:47:51.258291,-66
2021-12-23 17:47:51.258301,-64
2021-12-23 17:47:51.258311,-76
2021-12-23 17:47:51.258321,-64
2021-12-23 17:47:51.258330,-40
2021-12-23 17:47:51.258340,-47
2021-12-23 17:47:51.258350,-59
2021-12-23 17:47:51.258359,-47
2021-12-23 17:47:51.258369,-40
2021-12-23 17:47:51.258378,-49
2021-12-23 17:47:51.258388,-47
2021-12-23 17:47:51.258397,-33
2021-12-23 17:47:51.258407,-28
2021-12-23 17:47:51.258417,-28
2021-12-23 17:47:51.258426,-26
2021-12-23 17:47:51.258436,-23
2021-12-23 17:47:51.258445,-23
2021-12-23 17:47:51.258455,-23
2021-12-23 17:47:51.258465,-16
2021-12-23 17:47:51.528104,7
2021-12-23 17:47:51.528135,14
2021-12-23 17:47:51.528148,-9
2021-12-23 17:47:51.528159,-14
2021-12-23 17:47:51.528169,11
2021-12-23 17:47:51.528178,23
2021-12-23 17:47:51.528188,11
2021-12-23 17:47:51.528198,16
2021-12-23 17:47:51.528207,28
2021-12-23 17:47:51.528217,21
2021-12-23 17:47:51.528226,11
2021-12-23 17:47:51.528236,19
2021-12-23 17:47:51.528246,16
2021-12-23 17:47:51.528255,16
2021-12-23 17:47:51.528265,54
2021-12-23 17:47:51.528275,97
2021-12-23 17:47:51.528284,90
2021-12-23 17:47:51.528294,87
2021-12-23 17:47:51.528304,97
2021-12-23 17:47:51.528313,71
2021-12-23 17:47:51.528323,45
2021-12-23 17:47:51.528333,45
2021-12-23 17:47:51.528342,23
2021-12-23 17:47:51.528352,9
2021-12-23 17:47:51.528361,30
2021-12-23 17:47:51.528371,57
2021-12-23 17:47:51.528381,49
2021-12-23 17:47:51.528390,28
2021-12-23 17:47:51.528400,26
2021-12-23 17:47:51.528410,9
2021-12-23 17:47:51.842580,66
2021-12-23 17:47:51.842611,477
2021-12-23 17:47:51.842623,1306
2021-12-23 17:47:51.842633,2105
2021-12-23 17:47:51.842643,2205
2021-12-23 17:47:51.842652,1154
2021-12-23 17:47:51.842662,-216
2021-12-23 17:47:51.842672,-380
2021-12-23 17:47:51.842682,125
2021-12-23 17:47:51.842691,23
2021-12-23 17:47:51.842701,-180
2021-12-23 17:47:51.842710,-52
2021-12-23 17:47:51.842720,-28
2021-12-23 17:47:51.842730,-97
2021-12-23 17:47:51.842739,-59
2021-12-23 17:47:51.842749,-26
2021-12-23 17:47:51.842758,-30
2021-12-23 17:47:51.842768,-7
2021-12-23 17:47:51.842778,19
2021-12-23 17:47:51.842787,45
2021-12-23 17:47:51.842797,73
2021-12-23 17:47:51.842807,80
2021-12-23 17:47:51.842816,104
2021-12-23 17:47:51.842826,159
2021-12-23 17:47:51.842836,187
2021-12-23 17:47:51.842845,201
2021-12-23 17:47:51.842855,242
2021-12-23 17:47:51.842864,289
2021-12-23 17:47:51.842874,325
2021-12-23 17:47:51.842883,358
2021-12-23 17:47:52.067392,399
2021-12-23 17:47:52.067413,446
2021-12-23 17:47:52.067421,472
2021-12-23 17:47:52.067428,456
2021-12-23 17:47:52.067434,439
2021-12-23 17:47:52.067440,418
2021-12-23 17:47:52.067447,365
2021-12-23 17:47:52.067453,275
2021-12-23 17:47:52.067459,168
2021-12-23 17:47:52.067465,68
2021-12-23 17:47:52.067472,-4
2021-12-23 17:47:52.067478,-66
2021-12-23 17:47:52.067485,-125
2021-12-23 17:47:52.067491,-159
2021-12-23 17:47:52.067503,-180
2021-12-23 17:47:52.067510,-204
2021-12-23 17:47:52.067516,-218
2021-12-23 17:47:52.067522,-201
2021-12-23 17:47:52.067529,-182
2021-12-23 17:47:52.067535,-192
2021-12-23 17:47:52.067541,-190
2021-12-23 17:47:52.067547,-175
2021-12-23 17:47:52.067554,-166
2021-12-23 17:47:52.067560,-161
2021-12-23 17:47:52.067566,-149
2021-12-23 17:47:52.067573,-137
2021-12-23 17:47:52.067579,-137
2021-12-23 17:47:52.067586,-140
2021-12-23 17:47:52.067592,-133
2021-12-23 17:47:52.067598,-121
2021-12-23 17:47:52.203336,-116
2021-12-23 17:47:52.203367,-106
2021-12-23 17:47:52.203379,-102
2021-12-23 17:47:52.203390,-111
2021-12-23 17:47:52.203400,-102
2021-12-23 17:47:52.203409,-80
2021-12-23 17:47:52.203419,-73
2021-12-23 17:47:52.203429,-78
2021-12-23 17:47:52.203439,-80
2021-12-23 17:47:52.203449,-95
2021-12-23 17:47:52.203459,-99
2021-12-23 17:47:52.203468,-78
2021-12-23 17:47:52.203478,-73
2021-12-23 17:47:52.203488,-87
2021-12-23 17:47:52.203498,-83
2021-12-23 17:47:52.203507,-76
2021-12-23 17:47:52.203517,-78
2021-12-23 17:47:52.203527,-73
2021-12-23 17:47:52.203537,-76
2021-12-23 17:47:52.203546,-85
2021-12-23 17:47:52.203556,-78
2021-12-23 17:47:52.203566,-61
2021-12-23 17:47:52.203576,-49
2021-12-23 17:47:52.203586,-47
2021-12-23 17:47:52.203595,-54
2021-12-23 17:47:52.203605,-52
2021-12-23 17:47:52.203615,-38
2021-12-23 17:47:52.203625,-42
2021-12-23 17:47:52.203635,-52
2021-12-23 17:47:52.203644,-33
2021-12-23 17:47:52.562657,-30
2021-12-23 17:47:52.562688,-47
2021-12-23 17:47:52.562700,-35
2021-12-23 17:47:52.562710,-11
2021-12-23 17:47:52.562719,-11
2021-12-23 17:47:52.562729,-14
2021-12-23 17:47:52.562738,-7
2021-12-23 17:47:52.562748,-4
2021-12-23 17:47:52.562757,-11
2021-12-23 17:47:52.562767,-19
2021-12-23 17:47:52.562776,-16
2021-12-23 17:47:52.562786,0
2021-12-23 17:47:52.562796,-4
2021-12-23 17:47:52.562805,-14
2021-12-23 17:47:52.562815,-4
2021-12-23 17:47:52.562825,2
2021-12-23 17:47:52.562834,2
2021-12-23 17:47:52.562844,7
2021-12-23 17:47:52.562853,4
2021-12-23 17:47:52.562863,-2
2021-12-23 17:47:52.562872,7
2021-12-23 17:47:52.562882,42
2021-12-23 17:47:52.562891,73
2021-12-23 17:47:52.562901,73
2021-12-23 17:47:52.562910,66
2021-12-23 17:47:52.562920,61
2021-12-23 17:47:52.562929,47
2021-12-23 17:47:52.562939,28
2021-12-23 17:47:52.562948,16
2021-12-23 17:47:52.562958,21
2021-12-23 17:47:52.653556,26
2021-12-23 17:47:52.653586,30
2021-12-23 17:47:52.653600,26
2021-12-23 17:47:52.653612,19
2021-12-23 17:47:52.653624,16
2021-12-23 17:47:52.653636,-9
2021-12-23 17:47:52.653649,-35
2021-12-23 17:47:52.653661,118
2021-12-23 17:47:52.653674,686
2021-12-23 17:47:52.653686,1587
2021-12-23 17:47:52.653699,2269
2021-12-23 17:47:52.653711,1988
2021-12-23 17:47:52.653723,579
2021-12-23 17:47:52.653736,-496
2021-12-23 17:47:52.653748,-197
2021-12-23 17:47:52.653761,156
2021-12-23 17:47:52.653773,-106
2021-12-23 17:47:52.653786,-168
2021-12-23 17:47:52.653798,-38
2021-12-23 17:47:52.653810,-83
2021-12-23 17:47:52.653821,-106
2021-12-23 17:47:52.653831,-42
2021-12-23 17:47:52.653841,-23
2021-12-23 17:47:52.653852,-23
2021-12-23 17:47:52.653863,2
2021-12-23 17:47:52.653875,14
2021-12-23 17:47:52.653887,28
2021-12-23 17:47:52.653899,64
2021-12-23 17:47:52.653922,95
2021-12-23 17:47:52.653932,106
2021-12-23 17:47:52.878167,133
2021-12-23 17:47:52.878197,180
2021-12-23 17:47:52.878210,218
2021-12-23 17:47:52.878220,242
2021-12-23 17:47:52.878230,285
2021-12-23 17:47:52.878240,332
2021-12-23 17:47:52.878249,365
2021-12-23 17:47:52.878259,399
2021-12-23 17:47:52.878269,434
2021-12-23 17:47:52.878278,451
2021-12-23 17:47:52.878288,451
2021-12-23 17:47:52.878297,437
2021-12-23 17:47:52.878307,406
2021-12-23 17:47:52.878317,337
2021-12-23 17:47:52.878327,237
2021-12-23 17:47:52.878336,135
2021-12-23 17:47:52.878346,45
2021-12-23 17:47:52.878356,-35
2021-12-23 17:47:52.878365,-109
2021-12-23 17:47:52.878375,-168
2021-12-23 17:47:52.878385,-201
2021-12-23 17:47:52.878394,-220
2021-12-23 17:47:52.878404,-242
2021-12-23 17:47:52.878413,-244
2021-12-23 17:47:52.878423,-237
2021-12-23 17:47:52.878433,-230
2021-12-23 17:47:52.878442,-206
2021-12-23 17:47:52.878452,-199
2021-12-23 17:47:52.878462,-206
2021-12-23 17:47:52.878471,-192
2021-12-23 17:47:53.147574,-168
2021-12-23 17:47:53.147600,-159
2021-12-23 17:47:53.147607,-163
2021-12-23 17:47:53.147614,-163
2021-12-23 17:47:53.147620,-152
2021-12-23 17:47:53.147627,-133
2021-12-23 17:47:53.147633,-130
2021-12-23 17:47:53.147639,-137
2021-12-23 17:47:53.147645,-135
2021-12-23 17:47:53.147652,-137
2021-12-23 17:47:53.147658,-140
2021-12-23 17:47:53.147664,-130
2021-12-23 17:47:53.147670,-118
2021-12-23 17:47:53.147677,-116
2021-12-23 17:47:53.147683,-123
2021-12-23 17:47:53.147689,-130
2021-12-23 17:47:53.147696,-125
2021-12-23 17:47:53.147702,-114
2021-12-23 17:47:53.147708,-97
2021-12-23 17:47:53.147714,-90
2021-12-23 17:47:53.147721,-99
2021-12-23 17:47:53.147727,-104
2021-12-23 17:47:53.147733,-95
2021-12-23 17:47:53.147739,-78
2021-12-23 17:47:53.147746,-78
2021-12-23 17:47:53.147752,-83
2021-12-23 17:47:53.147758,-78
2021-12-23 17:47:53.147764,-76
2021-12-23 17:47:53.147770,-66
2021-12-23 17:47:53.147777,-52
2021-12-23 17:47:53.418204,-47
2021-12-23 17:47:53.418224,-52
2021-12-23 17:47:53.418232,-42
2021-12-23 17:47:53.418239,-35
2021-12-23 17:47:53.418245,-42
2021-12-23 17:47:53.418252,-42
2021-12-23 17:47:53.418258,-28
2021-12-23 17:47:53.418264,-19
2021-12-23 17:47:53.418271,-23
2021-12-23 17:47:53.418277,-26
2021-12-23 17:47:53.418284,-21
2021-12-23 17:47:53.418290,-21
2021-12-23 17:47:53.418297,-16
2021-12-23 17:47:53.418303,-9
2021-12-23 17:47:53.418309,-2
2021-12-23 17:47:53.418316,9
2021-12-23 17:47:53.418322,14
2021-12-23 17:47:53.418329,4
2021-12-23 17:47:53.418336,0
2021-12-23 17:47:53.418342,0
2021-12-23 17:47:53.418349,-4
2021-12-23 17:47:53.418356,-2
2021-12-23 17:47:53.418362,19
2021-12-23 17:47:53.418369,54
2021-12-23 17:47:53.418376,68
2021-12-23 17:47:53.418382,73
2021-12-23 17:47:53.418390,73
2021-12-23 17:47:53.418396,49
2021-12-23 17:47:53.418403,19
2021-12-23 17:47:53.418411,16
2021-12-23 17:47:53.643173,33
2021-12-23 17:47:53.643203,47
2021-12-23 17:47:53.643215,42
2021-12-23 17:47:53.643225,33
2021-12-23 17:47:53.643235,42
2021-12-23 17:47:53.643244,52
2021-12-23 17:47:53.643254,42
2021-12-23 17:47:53.643263,4
2021-12-23 17:47:53.643273,14
2021-12-23 17:47:53.643283,285
2021-12-23 17:47:53.643292,1021
2021-12-23 17:47:53.643302,1984
2021-12-23 17:47:53.643311,2438
2021-12-23 17:47:53.643321,1611
2021-12-23 17:47:53.643331,-7
2021-12-23 17:47:53.643341,-556
2021-12-23 17:47:53.643350,35
2021-12-23 17:47:53.643360,123
2021-12-23 17:47:53.643369,-166
2021-12-23 17:47:53.643379,-73
2021-12-23 17:47:53.643388,-4
2021-12-23 17:47:53.643398,-104
2021-12-23 17:47:53.643407,-66
2021-12-23 17:47:53.643417,11
2021-12-23 17:47:53.643426,0
2021-12-23 17:47:53.643436,4
2021-12-23 17:47:53.643446,38
2021-12-23 17:47:53.643455,54
2021-12-23 17:47:53.643465,78
2021-12-23 17:47:53.643474,104
2021-12-23 17:47:53.867595,125
2021-12-23 17:47:53.867625,154
2021-12-23 17:47:53.867637,182
2021-12-23 17:47:53.867648,211
2021-12-23 17:47:53.867657,249
2021-12-23 17:47:53.867667,294
2021-12-23 17:47:53.867677,339
2021-12-23 17:47:53.867686,375
2021-12-23 17:47:53.867696,408
2021-12-23 17:47:53.867706,439
2021-12-23 17:47:53.867715,461
2021-12-23 17:47:53.867725,477
2021-12-23 17:47:53.867735,477
2021-12-23 17:47:53.867744,446
2021-12-23 17:47:53.867754,384
2021-12-23 17:47:53.867763,292
2021-12-23 17:47:53.867773,192
2021-12-23 17:47:53.867783,104
2021-12-23 17:47:53.867792,23
2021-12-23 17:47:53.867802,-59
2021-12-23 17:47:53.867812,-121
2021-12-23 17:47:53.867821,-159
2021-12-23 17:47:53.867831,-187
2021-12-23 17:47:53.867841,-199
2021-12-23 17:47:53.867850,-192
2021-12-23 17:47:53.867860,-201
2021-12-23 17:47:53.867870,-218
2021-12-23 17:47:53.867879,-194
2021-12-23 17:47:53.867889,-163
2021-12-23 17:47:53.867899,-163
2021-12-23 17:47:54.091247,-166
2021-12-23 17:47:54.091281,-152
2021-12-23 17:47:54.091289,-144
2021-12-23 17:47:54.091296,-149
2021-12-23 17:47:54.091302,-137
2021-12-23 17:47:54.091309,-109
2021-12-23 17:47:54.091315,-95
2021-12-23 17:47:54.091321,-106
2021-12-23 17:47:54.091328,-111
2021-12-23 17:47:54.091334,-102
2021-12-23 17:47:54.091340,-95
2021-12-23 17:47:54.091346,-87
2021-12-23 17:47:54.091353,-78
2021-12-23 17:47:54.091359,-78
2021-12-23 17:47:54.091365,-78
2021-12-23 17:47:54.091372,-78
2021-12-23 17:47:54.091378,-76
2021-12-23 17:47:54.091384,-73
2021-12-23 17:47:54.091391,-73
2021-12-23 17:47:54.091397,-76
2021-12-23 17:47:54.091403,-76
2021-12-23 17:47:54.091410,-76
2021-12-23 17:47:54.091416,-76
2021-12-23 17:47:54.091422,-71
2021-12-23 17:47:54.091428,-73
2021-12-23 17:47:54.091435,-76
2021-12-23 17:47:54.091442,-64
2021-12-23 17:47:54.091448,-52
2021-12-23 17:47:54.091454,-49
2021-12-23 17:47:54.091461,-47
2021-12-23 17:47:54.361990,-47
2021-12-23 17:47:54.362009,-42
2021-12-23 17:47:54.362017,-30
2021-12-23 17:47:54.362024,-28
2021-12-23 17:47:54.362030,-30
2021-12-23 17:47:54.362036,-26
2021-12-23 17:47:54.362042,-21
2021-12-23 17:47:54.362048,-23
2021-12-23 17:47:54.362055,-21
2021-12-23 17:47:54.362061,-4
2021-12-23 17:47:54.362067,9
2021-12-23 17:47:54.362073,9
2021-12-23 17:47:54.362080,0
2021-12-23 17:47:54.362086,0
2021-12-23 17:47:54.362092,2
2021-12-23 17:47:54.362098,7
2021-12-23 17:47:54.362105,16
2021-12-23 17:47:54.362111,23
2021-12-23 17:47:54.362117,14
2021-12-23 17:47:54.362123,14
2021-12-23 17:47:54.362130,28
2021-12-23 17:47:54.362136,33
2021-12-23 17:47:54.362142,26
2021-12-23 17:47:54.362148,26
2021-12-23 17:47:54.362155,26
2021-12-23 17:47:54.362161,19
2021-12-23 17:47:54.362167,11
2021-12-23 17:47:54.362173,21
2021-12-23 17:47:54.362179,47
2021-12-23 17:47:54.362186,47
2021-12-23 17:47:54.498319,40
2021-12-23 17:47:54.498350,61
2021-12-23 17:47:54.498362,66
2021-12-23 17:47:54.498372,33
2021-12-23 17:47:54.498382,30
2021-12-23 17:47:54.498391,49
2021-12-23 17:47:54.498401,49
2021-12-23 17:47:54.498410,47
2021-12-23 17:47:54.498420,52
2021-12-23 17:47:54.498429,42
2021-12-23 17:47:54.498439,11
2021-12-23 17:47:54.498448,2
2021-12-23 17:47:54.498457,166
2021-12-23 17:47:54.498467,734
2021-12-23 17:47:54.498476,1632
2021-12-23 17:47:54.498486,2290
2021-12-23 17:47:54.498495,1996
2021-12-23 17:47:54.498505,632
2021-12-23 17:47:54.498514,-425
2021-12-23 17:47:54.498530,-159
2021-12-23 17:47:54.498539,187
2021-12-23 17:47:54.498549,-80
2021-12-23 17:47:54.498559,-144
2021-12-23 17:47:54.498568,-2
2021-12-23 17:47:54.498578,-42
2021-12-23 17:47:54.498588,-73
2021-12-23 17:47:54.498597,-19
2021-12-23 17:47:54.498607,-19
2021-12-23 17:47:54.498617,-21
2021-12-23 17:47:54.498626,21
2021-12-23 17:47:54.722580,38
2021-12-23 17:47:54.722601,33
2021-12-23 17:47:54.722608,61
2021-12-23 17:47:54.722613,109
2021-12-23 17:47:54.722618,135
2021-12-23 17:47:54.722623,144
2021-12-23 17:47:54.722628,161
2021-12-23 17:47:54.722633,194
2021-12-23 17:47:54.722638,232
2021-12-23 17:47:54.722643,273
2021-12-23 17:47:54.722648,323
2021-12-23 17:47:54.722653,361
2021-12-23 17:47:54.722658,373
2021-12-23 17:47:54.722664,394
2021-12-23 17:47:54.722669,432
2021-12-23 17:47:54.722674,456
2021-12-23 17:47:54.722679,446
2021-12-23 17:47:54.722684,399
2021-12-23 17:47:54.722689,311
2021-12-23 17:47:54.722694,220
2021-12-23 17:47:54.722700,128
2021-12-23 17:47:54.722705,19
2021-12-23 17:47:54.722710,-64
2021-12-23 17:47:54.722715,-125
2021-12-23 17:47:54.722720,-180
2021-12-23 17:47:54.722725,-204
2021-12-23 17:47:54.722730,-211
2021-12-23 17:47:54.722735,-232
2021-12-23 17:47:54.722740,-244
2021-12-23 17:47:54.722745,-225
2021-12-23 17:47:54.948242,-216
2021-12-23 17:47:54.948272,-235
2021-12-23 17:47:54.948284,-230
2021-12-23 17:47:54.948294,-204
2021-12-23 17:47:54.948304,-197
2021-12-23 17:47:54.948314,-192
2021-12-23 17:47:54.948323,-175
2021-12-23 17:47:54.948333,-166
2021-12-23 17:47:54.948343,-163
2021-12-23 17:47:54.948352,-147
2021-12-23 17:47:54.948362,-128
2021-12-23 17:47:54.948372,-128
2021-12-23 17:47:54.948382,-123
2021-12-23 17:47:54.948392,-114
2021-12-23 17:47:54.948401,-109
2021-12-23 17:47:54.948411,-104
2021-12-23 17:47:54.948421,-97
2021-12-23 17:47:54.948431,-90
2021-12-23 17:47:54.948440,-85
2021-12-23 17:47:54.948450,-76
2021-12-23 17:47:54.948459,-78
2021-12-23 17:47:54.948469,-87
2021-12-23 17:47:54.948479,-78
2021-12-23 17:47:54.948489,-61
2021-12-23 17:47:54.948498,-59
2021-12-23 17:47:54.948508,-54
2021-12-23 17:47:54.948518,-42
2021-12-23 17:47:54.948527,-40
2021-12-23 17:47:54.948537,-45
2021-12-23 17:47:54.948547,-38
2021-12-23 17:47:55.218215,-30
2021-12-23 17:47:55.218237,-30
2021-12-23 17:47:55.218244,-30
2021-12-23 17:47:55.218251,-38
2021-12-23 17:47:55.218258,-42
2021-12-23 17:47:55.218264,-35
2021-12-23 17:47:55.218271,-26
2021-12-23 17:47:55.218277,-19
2021-12-23 17:47:55.218283,-16
2021-12-23 17:47:55.218290,-19
2021-12-23 17:47:55.218296,-14
2021-12-23 17:47:55.218302,-11
2021-12-23 17:47:55.218309,-7
2021-12-23 17:47:55.218315,0
2021-12-23 17:47:55.218322,16
2021-12-23 17:47:55.218328,19
2021-12-23 17:47:55.218335,2
2021-12-23 17:47:55.218341,2
2021-12-23 17:47:55.218347,23
2021-12-23 17:47:55.218354,28
2021-12-23 17:47:55.218360,28
2021-12-23 17:47:55.218367,28
2021-12-23 17:47:55.218373,26
2021-12-23 17:47:55.218380,26
2021-12-23 17:47:55.218386,26
2021-12-23 17:47:55.218393,33
2021-12-23 17:47:55.218400,40
2021-12-23 17:47:55.218406,30
2021-12-23 17:47:55.218413,28
2021-12-23 17:47:55.218419,42
2021-12-23 17:47:55.488259,54
2021-12-23 17:47:55.488280,66
2021-12-23 17:47:55.488288,66
2021-12-23 17:47:55.488295,66
2021-12-23 17:47:55.488301,68
2021-12-23 17:47:55.488308,38
2021-12-23 17:47:55.488314,28
2021-12-23 17:47:55.488320,54
2021-12-23 17:47:55.488326,57
2021-12-23 17:47:55.488333,45
2021-12-23 17:47:55.488339,49
2021-12-23 17:47:55.488345,52
2021-12-23 17:47:55.488352,45
2021-12-23 17:47:55.488358,19
2021-12-23 17:47:55.488364,35
2021-12-23 17:47:55.488371,342
2021-12-23 17:47:55.488377,1100
2021-12-23 17:47:55.488384,1955
2021-12-23 17:47:55.488390,2219
2021-12-23 17:47:55.488396,1371
2021-12-23 17:47:55.488403,-23
2021-12-23 17:47:55.488409,-427
2021-12-23 17:47:55.488415,87
2021-12-23 17:47:55.488422,128
2021-12-23 17:47:55.488428,-133
2021-12-23 17:47:55.488435,-64
2021-12-23 17:47:55.488441,0
2021-12-23 17:47:55.488447,-57
2021-12-23 17:47:55.488454,-28
2021-12-23 17:47:55.488460,4
2021-12-23 17:47:55.757641,-11
2021-12-23 17:47:55.757662,7
2021-12-23 17:47:55.757670,40
2021-12-23 17:47:55.757677,49
2021-12-23 17:47:55.757683,68
2021-12-23 17:47:55.757689,99
2021-12-23 17:47:55.757695,121
2021-12-23 17:47:55.757702,137
2021-12-23 17:47:55.757708,156
2021-12-23 17:47:55.757714,175
2021-12-23 17:47:55.757721,206
2021-12-23 17:47:55.757727,249
2021-12-23 17:47:55.757733,292
2021-12-23 17:47:55.757740,323
2021-12-23 17:47:55.757746,356
2021-12-23 17:47:55.757752,394
2021-12-23 17:47:55.757758,425
2021-12-23 17:47:55.757765,437
2021-12-23 17:47:55.757771,422
2021-12-23 17:47:55.757777,399
2021-12-23 17:47:55.757784,339
2021-12-23 17:47:55.757790,247
2021-12-23 17:47:55.757796,168
2021-12-23 17:47:55.757803,92
2021-12-23 17:47:55.757809,2
2021-12-23 17:47:55.757815,-68
2021-12-23 17:47:55.757822,-116
2021-12-23 17:47:55.757828,-156
2021-12-23 17:47:55.757834,-182
2021-12-23 17:47:55.757841,-190
2021-12-23 17:47:55.937719,-201
2021-12-23 17:47:55.937741,-206
2021-12-23 17:47:55.937749,-197
2021-12-23 17:47:55.937756,-192
2021-12-23 17:47:55.937762,-178
2021-12-23 17:47:55.937769,-161
2021-12-23 17:47:55.937775,-159
2021-12-23 17:47:55.937781,-159
2021-12-23 17:47:55.937787,-152
2021-12-23 17:47:55.937794,-140
2021-12-23 17:47:55.937808,-125
2021-12-23 17:47:55.937815,-106
2021-12-23 17:47:55.937821,-106
2021-12-23 17:47:55.937828,-116
2021-12-23 17:47:55.937834,-102
2021-12-23 17:47:55.937840,-85
2021-12-23 17:47:55.937850,-83
2021-12-23 17:47:55.937857,-85
2021-12-23 17:47:55.937863,-83
2021-12-23 17:47:55.937869,-78
2021-12-23 17:47:55.937876,-76
2021-12-23 17:47:55.937882,-71
2021-12-23 17:47:55.937888,-71
2021-12-23 17:47:55.937894,-64
2021-12-23 17:47:55.937901,-59
2021-12-23 17:47:55.937907,-68
2021-12-23 17:47:55.937913,-68
2021-12-23 17:47:55.937919,-52
2021-12-23 17:47:55.937925,-47
2021-12-23 17:47:55.937932,-54
2021-12-23 17:47:56.207218,-61
2021-12-23 17:47:56.207241,-57
2021-12-23 17:47:56.207248,-38
2021-12-23 17:47:56.207255,-21
2021-12-23 17:47:56.207262,-23
2021-12-23 17:47:56.207268,-28
2021-12-23 17:47:56.207274,-19
2021-12-23 17:47:56.207311,-14
2021-12-23 17:47:56.207318,-21
2021-12-23 17:47:56.207324,-23
2021-12-23 17:47:56.207330,-19
2021-12-23 17:47:56.207337,-11
2021-12-23 17:47:56.207343,-11
2021-12-23 17:47:56.207349,-16
2021-12-23 17:47:56.207355,-9
2021-12-23 17:47:56.207362,0
2021-12-23 17:47:56.207368,-2
2021-12-23 17:47:56.207374,0
2021-12-23 17:47:56.207381,4
2021-12-23 17:47:56.207387,4
2021-12-23 17:47:56.207394,2
2021-12-23 17:47:56.207400,4
2021-12-23 17:47:56.207406,11
2021-12-23 17:47:56.207412,21
2021-12-23 17:47:56.207419,28
2021-12-23 17:47:56.207425,23
2021-12-23 17:47:56.207431,21
2021-12-23 17:47:56.207438,28
2021-12-23 17:47:56.207444,26
2021-12-23 17:47:56.207450,23
2021-12-23 17:47:56.343250,21
2021-12-23 17:47:56.343280,28
2021-12-23 17:47:56.343291,40
2021-12-23 17:47:56.343302,45
2021-12-23 17:47:56.343312,45
2021-12-23 17:47:56.343322,59
2021-12-23 17:47:56.343332,66
2021-12-23 17:47:56.343341,38
2021-12-23 17:47:56.343351,23
2021-12-23 17:47:56.343361,45
2021-12-23 17:47:56.343371,52
2021-12-23 17:47:56.343381,38
2021-12-23 17:47:56.343390,40
2021-12-23 17:47:56.343400,52
2021-12-23 17:47:56.343410,45
2021-12-23 17:47:56.343420,9
2021-12-23 17:47:56.343430,38
2021-12-23 17:47:56.343440,351
2021-12-23 17:47:56.343449,1071
2021-12-23 17:47:56.343459,1891
2021-12-23 17:47:56.343469,2152
2021-12-23 17:47:56.343479,1295
2021-12-23 17:47:56.343489,-71
2021-12-23 17:47:56.343499,-396
2021-12-23 17:47:56.343509,111
2021-12-23 17:47:56.343519,95
2021-12-23 17:47:56.343529,-152
2021-12-23 17:47:56.343538,-52
2021-12-23 17:47:56.343548,4
2021-12-23 17:47:56.343558,-71
2021-12-23 17:47:56.568375,-38
2021-12-23 17:47:56.568407,14
2021-12-23 17:47:56.568419,-4
2021-12-23 17:47:56.568429,0
2021-12-23 17:47:56.568439,30
2021-12-23 17:47:56.568449,45
2021-12-23 17:47:56.568459,59
2021-12-23 17:47:56.568468,83
2021-12-23 17:47:56.568478,102
2021-12-23 17:47:56.568488,128
2021-12-23 17:47:56.568498,154
2021-12-23 17:47:56.568507,185
2021-12-23 17:47:56.568517,218
2021-12-23 17:47:56.568527,247
2021-12-23 17:47:56.568536,273
2021-12-23 17:47:56.568546,311
2021-12-23 17:47:56.568556,354
2021-12-23 17:47:56.568565,382
2021-12-23 17:47:56.568575,403
2021-12-23 17:47:56.568585,415
2021-12-23 17:47:56.568594,408
2021-12-23 17:47:56.568604,382
2021-12-23 17:47:56.568614,337
2021-12-23 17:47:56.568623,268
2021-12-23 17:47:56.568633,182
2021-12-23 17:47:56.568643,87
2021-12-23 17:47:56.568653,0
2021-12-23 17:47:56.568663,-71
2021-12-23 17:47:56.568672,-123
2021-12-23 17:47:56.568682,-168
2021-12-23 17:47:56.793367,-199
2021-12-23 17:47:56.793397,-211
2021-12-23 17:47:56.793410,-218
2021-12-23 17:47:56.793420,-225
2021-12-23 17:47:56.793430,-220
2021-12-23 17:47:56.793440,-213
2021-12-23 17:47:56.793449,-204
2021-12-23 17:47:56.793459,-192
2021-12-23 17:47:56.793469,-178
2021-12-23 17:47:56.793478,-175
2021-12-23 17:47:56.793488,-180
2021-12-23 17:47:56.793497,-168
2021-12-23 17:47:56.793507,-149
2021-12-23 17:47:56.793516,-144
2021-12-23 17:47:56.793526,-140
2021-12-23 17:47:56.793535,-128
2021-12-23 17:47:56.793545,-123
2021-12-23 17:47:56.793555,-116
2021-12-23 17:47:56.793564,-111
2021-12-23 17:47:56.793574,-111
2021-12-23 17:47:56.793583,-109
2021-12-23 17:47:56.793593,-99
2021-12-23 17:47:56.793602,-95
2021-12-23 17:47:56.793612,-95
2021-12-23 17:47:56.793622,-92
2021-12-23 17:47:56.793631,-90
2021-12-23 17:47:56.793641,-85
2021-12-23 17:47:56.793650,-87
2021-12-23 17:47:56.793660,-80
2021-12-23 17:47:56.793669,-68
2021-12-23 17:47:57.062794,-71
2021-12-23 17:47:57.062817,-71
2021-12-23 17:47:57.062824,-59
2021-12-23 17:47:57.062831,-59
2021-12-23 17:47:57.062837,-66
2021-12-23 17:47:57.062844,-59
2021-12-23 17:47:57.062850,-52
2021-12-23 17:47:57.062856,-54
2021-12-23 17:47:57.062863,-49
2021-12-23 17:47:57.062869,-47
2021-12-23 17:47:57.062876,-54
2021-12-23 17:47:57.062882,-42
2021-12-23 17:47:57.062888,-26
2021-12-23 17:47:57.062895,-28
2021-12-23 17:47:57.062901,-33
2021-12-23 17:47:57.062908,-33
2021-12-23 17:47:57.062914,-26
2021-12-23 17:47:57.062920,-14
2021-12-23 17:47:57.062927,-16
2021-12-23 17:47:57.062933,-21
2021-12-23 17:47:57.062939,-19
2021-12-23 17:47:57.062946,-14
2021-12-23 17:47:57.062952,-11
2021-12-23 17:47:57.062958,-7
2021-12-23 17:47:57.062965,-9
2021-12-23 17:47:57.062971,-16
2021-12-23 17:47:57.062978,-7
2021-12-23 17:47:57.062984,-2
2021-12-23 17:47:57.062990,-7
2021-12-23 17:47:57.062997,0
2021-12-23 17:47:57.333322,4
2021-12-23 17:47:57.333380,2
2021-12-23 17:47:57.333390,0
2021-12-23 17:47:57.333397,-4
2021-12-23 17:47:57.333404,0
2021-12-23 17:47:57.333410,16
2021-12-23 17:47:57.333417,19
2021-12-23 17:47:57.333423,21
2021-12-23 17:47:57.333429,30
2021-12-23 17:47:57.333435,23
2021-12-23 17:47:57.333442,4
2021-12-23 17:47:57.333448,4
2021-12-23 17:47:57.333454,19
2021-12-23 17:47:57.333460,26
2021-12-23 17:47:57.333467,26
2021-12-23 17:47:57.333473,21
2021-12-23 17:47:57.333479,2
2021-12-23 17:47:57.333486,-11
2021-12-23 17:47:57.333492,111
2021-12-23 17:47:57.333498,608
2021-12-23 17:47:57.333504,1485
2021-12-23 17:47:57.333511,2259
2021-12-23 17:47:57.333517,2103
2021-12-23 17:47:57.333523,684
2021-12-23 17:47:57.333529,-548
2021-12-23 17:47:57.333536,-285
2021-12-23 17:47:57.333542,182
2021-12-23 17:47:57.333548,-71
2021-12-23 17:47:57.333555,-168
2021-12-23 17:47:57.333561,0
2021-12-23 17:47:57.558192,-40
2021-12-23 17:47:57.558223,-90
2021-12-23 17:47:57.558235,-14
2021-12-23 17:47:57.558245,2
2021-12-23 17:47:57.558256,-11
2021-12-23 17:47:57.558270,21
2021-12-23 17:47:57.558280,49
2021-12-23 17:47:57.558290,64
2021-12-23 17:47:57.558300,90
2021-12-23 17:47:57.558309,106
2021-12-23 17:47:57.558319,118
2021-12-23 17:47:57.558329,152
2021-12-23 17:47:57.558339,185
2021-12-23 17:47:57.558348,209
2021-12-23 17:47:57.558358,244
2021-12-23 17:47:57.558368,285
2021-12-23 17:47:57.558377,320
2021-12-23 17:47:57.558387,361
2021-12-23 17:47:57.558397,396
2021-12-23 17:47:57.558407,420
2021-12-23 17:47:57.558416,430
2021-12-23 17:47:57.558426,432
2021-12-23 17:47:57.558436,427
2021-12-23 17:47:57.558445,392
2021-12-23 17:47:57.558455,325
2021-12-23 17:47:57.558465,247
2021-12-23 17:47:57.558475,152
2021-12-23 17:47:57.558484,57
2021-12-23 17:47:57.558494,-21
2021-12-23 17:47:57.558504,-90
2021-12-23 17:47:57.782696,-156
2021-12-23 17:47:57.782727,-201
2021-12-23 17:47:57.782738,-216
2021-12-23 17:47:57.782748,-225
2021-12-23 17:47:57.782758,-232
2021-12-23 17:47:57.782768,-225
2021-12-23 17:47:57.782777,-220
2021-12-23 17:47:57.782787,-220
2021-12-23 17:47:57.782796,-206
2021-12-23 17:47:57.782806,-190
2021-12-23 17:47:57.782816,-178
2021-12-23 17:47:57.782825,-171
2021-12-23 17:47:57.782835,-156
2021-12-23 17:47:57.782844,-144
2021-12-23 17:47:57.782854,-137
2021-12-23 17:47:57.782864,-128
2021-12-23 17:47:57.782873,-116
2021-12-23 17:47:57.782883,-111
2021-12-23 17:47:57.782892,-109
2021-12-23 17:47:57.782902,-106
2021-12-23 17:47:57.782911,-99
2021-12-23 17:47:57.782921,-90
2021-12-23 17:47:57.782930,-87
2021-12-23 17:47:57.782940,-87
2021-12-23 17:47:57.782950,-87
2021-12-23 17:47:57.782959,-85
2021-12-23 17:47:57.782969,-83
2021-12-23 17:47:57.782979,-80
2021-12-23 17:47:57.782988,-76
2021-12-23 17:47:57.782998,-66
2021-12-23 17:47:57.963115,-61
2021-12-23 17:47:57.963137,-64
2021-12-23 17:47:57.963145,-61
2021-12-23 17:47:57.963163,-49
2021-12-23 17:47:57.963170,-42
2021-12-23 17:47:57.963176,-38
2021-12-23 17:47:57.963182,-38
2021-12-23 17:47:57.963189,-47
2021-12-23 17:47:57.963195,-54
2021-12-23 17:47:57.963201,-40
2021-12-23 17:47:57.963208,-23
2021-12-23 17:47:57.963214,-16
2021-12-23 17:47:57.963220,-11
2021-12-23 17:47:57.963226,-7
2021-12-23 17:47:57.963233,-11
2021-12-23 17:47:57.963239,-14
2021-12-23 17:47:57.963245,-7
2021-12-23 17:47:57.963252,2
2021-12-23 17:47:57.963258,0
2021-12-23 17:47:57.963265,-2
2021-12-23 17:47:57.963271,0
2021-12-23 17:47:57.963277,7
2021-12-23 17:47:57.963284,11
2021-12-23 17:47:57.963290,16
2021-12-23 17:47:57.963296,19
2021-12-23 17:47:57.963303,19
2021-12-23 17:47:57.963309,16
2021-12-23 17:47:57.963315,26
2021-12-23 17:47:57.963322,38
2021-12-23 17:47:57.963328,33
2021-12-23 17:47:58.231449,28
2021-12-23 17:47:58.231478,30
2021-12-23 17:47:58.231490,28
2021-12-23 17:47:58.231500,26
2021-12-23 17:47:58.231510,30
2021-12-23 17:47:58.231520,33
2021-12-23 17:47:58.231530,30
2021-12-23 17:47:58.231540,42
2021-12-23 17:47:58.231549,57
2021-12-23 17:47:58.231559,54
2021-12-23 17:47:58.231569,45
2021-12-23 17:47:58.231579,30
2021-12-23 17:47:58.231589,23
2021-12-23 17:47:58.231599,35
2021-12-23 17:47:58.231609,42
2021-12-23 17:47:58.231619,38
2021-12-23 17:47:58.231629,40
2021-12-23 17:47:58.231639,40
2021-12-23 17:47:58.231648,30
2021-12-23 17:47:58.231658,4
2021-12-23 17:47:58.231668,23
2021-12-23 17:47:58.231678,316
2021-12-23 17:47:58.231688,1062
2021-12-23 17:47:58.231698,1960
2021-12-23 17:47:58.231708,2312
2021-12-23 17:47:58.231718,1508
2021-12-23 17:47:58.231728,42
2021-12-23 17:47:58.231738,-453
2021-12-23 17:47:58.231748,54
2021-12-23 17:47:58.231758,104
2021-12-23 17:47:58.502758,-168
2021-12-23 17:47:58.502814,-71
2021-12-23 17:47:58.502822,11
2021-12-23 17:47:58.502829,-76
2021-12-23 17:47:58.502835,-59
2021-12-23 17:47:58.502842,-4
2021-12-23 17:47:58.502848,-16
2021-12-23 17:47:58.502855,2
2021-12-23 17:47:58.502861,45
2021-12-23 17:47:58.502867,52
2021-12-23 17:47:58.502874,54
2021-12-23 17:47:58.502880,80
2021-12-23 17:47:58.502887,111
2021-12-23 17:47:58.502893,137
2021-12-23 17:47:58.502899,163
2021-12-23 17:47:58.502906,194
2021-12-23 17:47:58.502912,228
2021-12-23 17:47:58.502919,259
2021-12-23 17:47:58.502925,294
2021-12-23 17:47:58.502931,335
2021-12-23 17:47:58.502938,382
2021-12-23 17:47:58.502944,422
2021-12-23 17:47:58.502951,439
2021-12-23 17:47:58.502957,449
2021-12-23 17:47:58.502963,449
2021-12-23 17:47:58.502970,437
2021-12-23 17:47:58.502976,396
2021-12-23 17:47:58.502983,320
2021-12-23 17:47:58.502989,223
2021-12-23 17:47:58.502995,133
2021-12-23 17:47:58.638112,42
2021-12-23 17:47:58.638142,-42
2021-12-23 17:47:58.638154,-102
2021-12-23 17:47:58.638165,-144
2021-12-23 17:47:58.638175,-187
2021-12-23 17:47:58.638184,-213
2021-12-23 17:47:58.638194,-204
2021-12-23 17:47:58.638204,-192
2021-12-23 17:47:58.638214,-201
2021-12-23 17:47:58.638223,-204
2021-12-23 17:47:58.638233,-192
2021-12-23 17:47:58.638243,-180
2021-12-23 17:47:58.638253,-166
2021-12-23 17:47:58.638262,-159
2021-12-23 17:47:58.638272,-161
2021-12-23 17:47:58.638282,-152
2021-12-23 17:47:58.638292,-137
2021-12-23 17:47:58.638302,-128
2021-12-23 17:47:58.638311,-118
2021-12-23 17:47:58.638321,-106
2021-12-23 17:47:58.638331,-102
2021-12-23 17:47:58.638341,-104
2021-12-23 17:47:58.638351,-102
2021-12-23 17:47:58.638361,-95
2021-12-23 17:47:58.638371,-87
2021-12-23 17:47:58.638380,-78
2021-12-23 17:47:58.638390,-71
2021-12-23 17:47:58.638400,-73
2021-12-23 17:47:58.638410,-73
2021-12-23 17:47:58.638419,-61
2021-12-23 17:47:58.908015,-61
2021-12-23 17:47:58.908037,-71
2021-12-23 17:47:58.908045,-73
2021-12-23 17:47:58.908051,-64
2021-12-23 17:47:58.908058,-59
2021-12-23 17:47:58.908064,-66
2021-12-23 17:47:58.908070,-71
2021-12-23 17:47:58.908077,-57
2021-12-23 17:47:58.908083,-38
2021-12-23 17:47:58.908090,-40
2021-12-23 17:47:58.908096,-49
2021-12-23 17:47:58.908102,-45
2021-12-23 17:47:58.908109,-33
2021-12-23 17:47:58.908115,-28
2021-12-23 17:47:58.908121,-26
2021-12-23 17:47:58.908128,-21
2021-12-23 17:47:58.908134,-21
2021-12-23 17:47:58.908140,-19
2021-12-23 17:47:58.908147,-4
2021-12-23 17:47:58.908153,4
2021-12-23 17:47:58.908160,-4
2021-12-23 17:47:58.908166,-11
2021-12-23 17:47:58.908172,2
2021-12-23 17:47:58.908179,11
2021-12-23 17:47:58.908185,7
2021-12-23 17:47:58.908191,7
2021-12-23 17:47:58.908197,11
2021-12-23 17:47:58.908204,9
2021-12-23 17:47:58.908210,19
2021-12-23 17:47:58.908216,35
2021-12-23 17:47:59.133119,38
2021-12-23 17:47:59.133141,33
2021-12-23 17:47:59.133149,19
2021-12-23 17:47:59.133155,11
2021-12-23 17:47:59.133162,33
2021-12-23 17:47:59.133168,73
2021-12-23 17:47:59.133174,85
2021-12-23 17:47:59.133180,83
2021-12-23 17:47:59.133187,83
2021-12-23 17:47:59.133193,59
2021-12-23 17:47:59.133199,26
2021-12-23 17:47:59.133206,19
2021-12-23 17:47:59.133212,21
2021-12-23 17:47:59.133218,26
2021-12-23 17:47:59.133225,30
2021-12-23 17:47:59.133231,23
2021-12-23 17:47:59.133237,14
2021-12-23 17:47:59.133244,16
2021-12-23 17:47:59.133250,9
2021-12-23 17:47:59.133257,-16
2021-12-23 17:47:59.133263,78
2021-12-23 17:47:59.133269,546
2021-12-23 17:47:59.133276,1399
2021-12-23 17:47:59.133282,2157
2021-12-23 17:47:59.133288,2098
2021-12-23 17:47:59.133294,857
2021-12-23 17:47:59.133301,-408
2021-12-23 17:47:59.133307,-323
2021-12-23 17:47:59.133313,159
2021-12-23 17:47:59.133320,-28
2021-12-23 17:47:59.402688,-171
2021-12-23 17:47:59.402719,-23
2021-12-23 17:47:59.402730,-45
2021-12-23 17:47:59.402741,-97
2021-12-23 17:47:59.402750,-21
2021-12-23 17:47:59.402760,7
2021-12-23 17:47:59.402770,-16
2021-12-23 17:47:59.402780,-2
2021-12-23 17:47:59.402790,28
2021-12-23 17:47:59.402800,42
2021-12-23 17:47:59.402810,71
2021-12-23 17:47:59.402820,99
2021-12-23 17:47:59.402829,116
2021-12-23 17:47:59.402840,137
2021-12-23 17:47:59.402849,163
2021-12-23 17:47:59.402859,190
2021-12-23 17:47:59.402869,230
2021-12-23 17:47:59.402879,280
2021-12-23 17:47:59.402889,323
2021-12-23 17:47:59.402898,358
2021-12-23 17:47:59.402908,394
2021-12-23 17:47:59.402918,422
2021-12-23 17:47:59.402928,439
2021-12-23 17:47:59.402937,453
2021-12-23 17:47:59.402947,456
2021-12-23 17:47:59.402957,420
2021-12-23 17:47:59.402966,346
2021-12-23 17:47:59.402976,261
2021-12-23 17:47:59.402986,171
2021-12-23 17:47:59.402996,83
2021-12-23 17:47:59.583303,0
2021-12-23 17:47:59.583335,-80
2021-12-23 17:47:59.583347,-137
2021-12-23 17:47:59.583357,-168
2021-12-23 17:47:59.583367,-185
2021-12-23 17:47:59.583376,-209
2021-12-23 17:47:59.583386,-235
2021-12-23 17:47:59.583396,-235
2021-12-23 17:47:59.583406,-220
2021-12-23 17:47:59.583415,-216
2021-12-23 17:47:59.583425,-206
2021-12-23 17:47:59.583435,-201
2021-12-23 17:47:59.583445,-204
2021-12-23 17:47:59.583455,-187
2021-12-23 17:47:59.583465,-173
2021-12-23 17:47:59.583475,-166
2021-12-23 17:47:59.583484,-147
2021-12-23 17:47:59.583494,-135
2021-12-23 17:47:59.583504,-142
2021-12-23 17:47:59.583514,-140
2021-12-23 17:47:59.583524,-125
2021-12-23 17:47:59.583534,-118
2021-12-23 17:47:59.583544,-118
2021-12-23 17:47:59.583553,-111
2021-12-23 17:47:59.583563,-106
2021-12-23 17:47:59.583573,-99
2021-12-23 17:47:59.583583,-92
2021-12-23 17:47:59.583592,-104
2021-12-23 17:47:59.583602,-102
2021-12-23 17:47:59.583612,-80
2021-12-23 17:47:59.897045,-80
2021-12-23 17:47:59.897066,-87
2021-12-23 17:47:59.897074,-76
2021-12-23 17:47:59.897080,-64
2021-12-23 17:47:59.897087,-64
2021-12-23 17:47:59.897093,-66
2021-12-23 17:47:59.897099,-57
2021-12-23 17:47:59.897106,-54
2021-12-23 17:47:59.897112,-57
2021-12-23 17:47:59.897118,-49
2021-12-23 17:47:59.897125,-47
2021-12-23 17:47:59.897131,-54
2021-12-23 17:47:59.897137,-54
2021-12-23 17:47:59.897143,-30
2021-12-23 17:47:59.897150,-16
2021-12-23 17:47:59.897156,-33
2021-12-23 17:47:59.897162,-38
2021-12-23 17:47:59.897168,-14
2021-12-23 17:47:59.897175,-7
2021-12-23 17:47:59.897181,-26
2021-12-23 17:47:59.897187,-21
2021-12-23 17:47:59.897193,-4
2021-12-23 17:47:59.897200,-2
2021-12-23 17:47:59.897206,-9
2021-12-23 17:47:59.897212,-7
2021-12-23 17:47:59.897219,9
2021-12-23 17:47:59.897225,38
2021-12-23 17:47:59.897231,54
2021-12-23 17:47:59.897238,64
2021-12-23 17:47:59.897244,76
2021-12-23 17:48:00.032631,61
2021-12-23 17:48:00.032654,16
2021-12-23 17:48:00.032661,7
2021-12-23 17:48:00.032668,23
2021-12-23 17:48:00.032675,21
2021-12-23 17:48:00.032681,16
2021-12-23 17:48:00.032688,33
2021-12-23 17:48:00.032694,35
2021-12-23 17:48:00.032700,19
2021-12-23 17:48:00.032707,4
2021-12-23 17:48:00.032713,-9
2021-12-23 17:48:00.032720,68
2021-12-23 17:48:00.032726,489
2021-12-23 17:48:00.032732,1311
2021-12-23 17:48:00.032739,2095
2021-12-23 17:48:00.032745,2126
2021-12-23 17:48:00.032752,986
2021-12-23 17:48:00.032758,-313
2021-12-23 17:48:00.032765,-339
2021-12-23 17:48:00.032771,154
2021-12-23 17:48:00.032777,-2
2021-12-23 17:48:00.032784,-178
2021-12-23 17:48:00.032790,-26
2021-12-23 17:48:00.032796,-14
2021-12-23 17:48:00.032803,-85
2021-12-23 17:48:00.032809,-30
2021-12-23 17:48:00.032816,4
2021-12-23 17:48:00.032822,-16
2021-12-23 17:48:00.032828,-4
2021-12-23 17:48:00.032835,28
2021-12-23 17:48:00.346831,54
2021-12-23 17:48:00.346863,78
2021-12-23 17:48:00.346874,95
2021-12-23 17:48:00.346885,116
2021-12-23 17:48:00.346895,152
2021-12-23 17:48:00.346904,178
2021-12-23 17:48:00.346914,197
2021-12-23 17:48:00.346924,237
2021-12-23 17:48:00.346934,289
2021-12-23 17:48:00.346944,325
2021-12-23 17:48:00.346954,356
2021-12-23 17:48:00.346964,389
2021-12-23 17:48:00.346974,425
2021-12-23 17:48:00.346983,453
2021-12-23 17:48:00.346993,449
2021-12-23 17:48:00.347003,427
2021-12-23 17:48:00.347013,394
2021-12-23 17:48:00.347023,327
2021-12-23 17:48:00.347033,242
2021-12-23 17:48:00.347042,156
2021-12-23 17:48:00.347052,66
2021-12-23 17:48:00.347072,-14
2021-12-23 17:48:00.347082,-85
2021-12-23 17:48:00.347092,-137
2021-12-23 17:48:00.347101,-161
2021-12-23 17:48:00.347129,-171
2021-12-23 17:48:00.347136,-194
2021-12-23 17:48:00.347142,-209
2021-12-23 17:48:00.347149,-197
2021-12-23 17:48:00.347155,-180
2021-12-23 17:48:00.527398,-175
2021-12-23 17:48:00.527420,-168
2021-12-23 17:48:00.527428,-154
2021-12-23 17:48:00.527435,-147
2021-12-23 17:48:00.527441,-156
2021-12-23 17:48:00.527466,-152
2021-12-23 17:48:00.527476,-135
2021-12-23 17:48:00.527485,-128
2021-12-23 17:48:00.527495,-116
2021-12-23 17:48:00.527505,-111
2021-12-23 17:48:00.527514,-121
2021-12-23 17:48:00.527524,-121
2021-12-23 17:48:00.527534,-109
2021-12-23 17:48:00.527544,-99
2021-12-23 17:48:00.527553,-90
2021-12-23 17:48:00.527563,-87
2021-12-23 17:48:00.527572,-83
2021-12-23 17:48:00.527582,-80
2021-12-23 17:48:00.527592,-95
2021-12-23 17:48:00.527601,-90
2021-12-23 17:48:00.527611,-66
2021-12-23 17:48:00.527620,-76
2021-12-23 17:48:00.527630,-85
2021-12-23 17:48:00.527640,-61
2021-12-23 17:48:00.527649,-40
2021-12-23 17:48:00.527659,-49
2021-12-23 17:48:00.527669,-64
2021-12-23 17:48:00.527678,-61
2021-12-23 17:48:00.527688,-54
2021-12-23 17:48:00.527697,-49
2021-12-23 17:48:00.753005,-38
2021-12-23 17:48:00.753027,-28
2021-12-23 17:48:00.753035,-30
2021-12-23 17:48:00.753042,-35
2021-12-23 17:48:00.753048,-40
2021-12-23 17:48:00.753055,-49
2021-12-23 17:48:00.753061,-49
2021-12-23 17:48:00.753067,-40
2021-12-23 17:48:00.753131,-28
2021-12-23 17:48:00.753138,-26
2021-12-23 17:48:00.753145,-28
2021-12-23 17:48:00.753151,-28
2021-12-23 17:48:00.753157,-30
2021-12-23 17:48:00.753164,-26
2021-12-23 17:48:00.753170,-9
2021-12-23 17:48:00.753176,9
2021-12-23 17:48:00.753183,30
2021-12-23 17:48:00.753189,47
2021-12-23 17:48:00.753196,40
2021-12-23 17:48:00.753202,16
2021-12-23 17:48:00.753208,11
2021-12-23 17:48:00.753215,4
2021-12-23 17:48:00.753221,-14
2021-12-23 17:48:00.753227,-11
2021-12-23 17:48:00.753233,-4
2021-12-23 17:48:00.753240,-9
2021-12-23 17:48:00.753246,-2
2021-12-23 17:48:00.753252,4
2021-12-23 17:48:00.753259,0
2021-12-23 17:48:00.753265,-21
2021-12-23 17:48:01.067411,-14
2021-12-23 17:48:01.067433,218
2021-12-23 17:48:01.067440,869
2021-12-23 17:48:01.067447,1710
2021-12-23 17:48:01.067454,2152
2021-12-23 17:48:01.067460,1568
2021-12-23 17:48:01.067467,161
2021-12-23 17:48:01.067473,-518
2021-12-23 17:48:01.067480,-54
2021-12-23 17:48:01.067486,121
2021-12-23 17:48:01.067492,-156
2021-12-23 17:48:01.067499,-111
2021-12-23 17:48:01.067505,11
2021-12-23 17:48:01.067511,-52
2021-12-23 17:48:01.067518,-68
2021-12-23 17:48:01.067524,-16
2021-12-23 17:48:01.067530,-19
2021-12-23 17:48:01.067537,-26
2021-12-23 17:48:01.067543,9
2021-12-23 17:48:01.067549,40
2021-12-23 17:48:01.067556,64
2021-12-23 17:48:01.067562,97
2021-12-23 17:48:01.067568,118
2021-12-23 17:48:01.067574,137
2021-12-23 17:48:01.067581,163
2021-12-23 17:48:01.067587,180
2021-12-23 17:48:01.067593,206
2021-12-23 17:48:01.067600,240
2021-12-23 17:48:01.067606,280
2021-12-23 17:48:01.067612,335
2021-12-23 17:48:01.203019,373
2021-12-23 17:48:01.203041,387
2021-12-23 17:48:01.203049,406
2021-12-23 17:48:01.203056,430
2021-12-23 17:48:01.203062,427
2021-12-23 17:48:01.203068,408
2021-12-23 17:48:01.203075,368
2021-12-23 17:48:01.203081,289
2021-12-23 17:48:01.203087,187
2021-12-23 17:48:01.203094,99
2021-12-23 17:48:01.203100,21
2021-12-23 17:48:01.203106,-49
2021-12-23 17:48:01.203113,-92
2021-12-23 17:48:01.203119,-125
2021-12-23 17:48:01.203125,-166
2021-12-23 17:48:01.203132,-197
2021-12-23 17:48:01.203138,-194
2021-12-23 17:48:01.203144,-182
2021-12-23 17:48:01.203151,-185
2021-12-23 17:48:01.203157,-192
2021-12-23 17:48:01.203163,-185
2021-12-23 17:48:01.203169,-171
2021-12-23 17:48:01.203176,-163
2021-12-23 17:48:01.203182,-163
2021-12-23 17:48:01.203188,-149
2021-12-23 17:48:01.203194,-130
2021-12-23 17:48:01.203201,-125
2021-12-23 17:48:01.203207,-116
2021-12-23 17:48:01.203213,-104
2021-12-23 17:48:01.203220,-99
2021-12-23 17:48:01.428131,-90
2021-12-23 17:48:01.428162,-80
2021-12-23 17:48:01.428174,-80
2021-12-23 17:48:01.428184,-76
2021-12-23 17:48:01.428194,-66
2021-12-23 17:48:01.428204,-59
2021-12-23 17:48:01.428214,-57
2021-12-23 17:48:01.428224,-68
2021-12-23 17:48:01.428234,-85
2021-12-23 17:48:01.428244,-85
2021-12-23 17:48:01.428253,-78
2021-12-23 17:48:01.428263,-71
2021-12-23 17:48:01.428273,-64
2021-12-23 17:48:01.428283,-66
2021-12-23 17:48:01.428293,-71
2021-12-23 17:48:01.428302,-68
2021-12-23 17:48:01.428312,-59
2021-12-23 17:48:01.428322,-52
2021-12-23 17:48:01.428332,-52
2021-12-23 17:48:01.428342,-52
2021-12-23 17:48:01.428351,-49
2021-12-23 17:48:01.428361,-42
2021-12-23 17:48:01.428371,-33
2021-12-23 17:48:01.428381,-28
2021-12-23 17:48:01.428391,-28
2021-12-23 17:48:01.428400,-28
2021-12-23 17:48:01.428410,-28
2021-12-23 17:48:01.428420,-19
2021-12-23 17:48:01.428430,-14
2021-12-23 17:48:01.428440,-14
2021-12-23 17:48:01.698243,-7
2021-12-23 17:48:01.698275,-4
2021-12-23 17:48:01.698287,-7
2021-12-23 17:48:01.698297,-2
2021-12-23 17:48:01.698307,4
2021-12-23 17:48:01.698316,7
2021-12-23 17:48:01.698326,-7
2021-12-23 17:48:01.698336,-9
