Time,ECG
2021-12-23 17:57:35.331797,171
2021-12-23 17:57:35.331815,209
2021-12-23 17:57:35.331823,232
2021-12-23 17:57:35.331828,266
2021-12-23 17:57:35.331833,332
2021-12-23 17:57:35.331838,368
2021-12-23 17:57:35.331842,375
2021-12-23 17:57:35.331846,401
2021-12-23 17:57:35.331851,427
2021-12-23 17:57:35.331856,422
2021-12-23 17:57:35.331860,415
2021-12-23 17:57:35.331865,411
2021-12-23 17:57:35.331869,365
2021-12-23 17:57:35.331874,287
2021-12-23 17:57:35.331878,209
2021-12-23 17:57:35.331883,125
2021-12-23 17:57:35.331887,38
2021-12-23 17:57:35.331892,-38
2021-12-23 17:57:35.331896,-95
2021-12-23 17:57:35.331901,-133
2021-12-23 17:57:35.331919,-163
2021-12-23 17:57:35.331923,-192
2021-12-23 17:57:35.331927,-204
2021-12-23 17:57:35.331931,-204
2021-12-23 17:57:35.331935,-180
2021-12-23 17:57:35.331939,-147
2021-12-23 17:57:35.331944,-144
2021-12-23 17:57:35.331948,-156
2021-12-23 17:57:35.331952,-142
2021-12-23 17:57:35.331956,-123
2021-12-23 17:57:35.401142,-133
2021-12-23 17:57:35.401164,-130
2021-12-23 17:57:35.401172,-116
2021-12-23 17:57:35.401179,-114
2021-12-23 17:57:35.401186,-118
2021-12-23 17:57:35.401192,-123
2021-12-23 17:57:35.401200,-123
2021-12-23 17:57:35.401206,-116
2021-12-23 17:57:35.401212,-114
2021-12-23 17:57:35.401219,-118
2021-12-23 17:57:35.401225,-106
2021-12-23 17:57:35.401232,-102
2021-12-23 17:57:35.401238,-118
2021-12-23 17:57:35.401245,-111
2021-12-23 17:57:35.401251,-92
2021-12-23 17:57:35.401257,-106
2021-12-23 17:57:35.401264,-128
2021-12-23 17:57:35.401271,-111
2021-12-23 17:57:35.401278,-85
2021-12-23 17:57:35.401284,-68
2021-12-23 17:57:35.401291,-64
2021-12-23 17:57:35.401298,-68
2021-12-23 17:57:35.401304,-87
2021-12-23 17:57:35.401310,-106
2021-12-23 17:57:35.401317,-97
2021-12-23 17:57:35.401323,-66
2021-12-23 17:57:35.401329,-68
2021-12-23 17:57:35.401336,-64
2021-12-23 17:57:35.401342,-16
2021-12-23 17:57:35.401351,9
2021-12-23 17:57:35.626119,-2
2021-12-23 17:57:35.626139,-21
2021-12-23 17:57:35.626146,-38
2021-12-23 17:57:35.626153,-59
2021-12-23 17:57:35.626160,-80
2021-12-23 17:57:35.626166,-71
2021-12-23 17:57:35.626172,-38
2021-12-23 17:57:35.626179,-35
2021-12-23 17:57:35.626185,-49
2021-12-23 17:57:35.626192,-45
2021-12-23 17:57:35.626198,-49
2021-12-23 17:57:35.626204,-73
2021-12-23 17:57:35.626211,-16
2021-12-23 17:57:35.626221,361
2021-12-23 17:57:35.626228,1169
2021-12-23 17:57:35.626234,2034
2021-12-23 17:57:35.626240,2283
2021-12-23 17:57:35.626247,1316
2021-12-23 17:57:35.626253,-244
2021-12-23 17:57:35.626260,-596
2021-12-23 17:57:35.626266,45
2021-12-23 17:57:35.626272,42
2021-12-23 17:57:35.626279,-256
2021-12-23 17:57:35.626285,-95
2021-12-23 17:57:35.626292,30
2021-12-23 17:57:35.626298,-64
2021-12-23 17:57:35.626304,-73
2021-12-23 17:57:35.626311,-9
2021-12-23 17:57:35.626317,2
2021-12-23 17:57:35.626325,11
2021-12-23 17:57:35.986173,40
2021-12-23 17:57:35.986203,61
2021-12-23 17:57:35.986216,71
2021-12-23 17:57:35.986226,92
2021-12-23 17:57:35.986236,137
2021-12-23 17:57:35.986246,161
2021-12-23 17:57:35.986255,175
2021-12-23 17:57:35.986265,228
2021-12-23 17:57:35.986275,270
2021-12-23 17:57:35.986285,278
2021-12-23 17:57:35.986295,301
2021-12-23 17:57:35.986305,342
2021-12-23 17:57:35.986315,356
2021-12-23 17:57:35.986324,363
2021-12-23 17:57:35.986334,396
2021-12-23 17:57:35.986344,396
2021-12-23 17:57:35.986353,346
2021-12-23 17:57:35.986367,304
2021-12-23 17:57:35.986377,256
2021-12-23 17:57:35.986387,171
2021-12-23 17:57:35.986397,73
2021-12-23 17:57:35.986406,-7
2021-12-23 17:57:35.986416,-57
2021-12-23 17:57:35.986426,-71
2021-12-23 17:57:35.986436,-104
2021-12-23 17:57:35.986445,-161
2021-12-23 17:57:35.986455,-175
2021-12-23 17:57:35.986465,-161
2021-12-23 17:57:35.986475,-166
2021-12-23 17:57:35.986484,-171
2021-12-23 17:57:36.121423,-156
2021-12-23 17:57:36.121446,-140
2021-12-23 17:57:36.121454,-125
2021-12-23 17:57:36.121460,-123
2021-12-23 17:57:36.121467,-128
2021-12-23 17:57:36.121473,-109
2021-12-23 17:57:36.121479,-99
2021-12-23 17:57:36.121492,-111
2021-12-23 17:57:36.121498,-102
2021-12-23 17:57:36.121505,-97
2021-12-23 17:57:36.121511,-114
2021-12-23 17:57:36.121517,-111
2021-12-23 17:57:36.121523,-87
2021-12-23 17:57:36.121530,-83
2021-12-23 17:57:36.121536,-97
2021-12-23 17:57:36.121542,-102
2021-12-23 17:57:36.121549,-87
2021-12-23 17:57:36.121555,-78
2021-12-23 17:57:36.121561,-87
2021-12-23 17:57:36.121567,-85
2021-12-23 17:57:36.121574,-76
2021-12-23 17:57:36.121580,-90
2021-12-23 17:57:36.121586,-102
2021-12-23 17:57:36.121592,-92
2021-12-23 17:57:36.121599,-85
2021-12-23 17:57:36.121605,-95
2021-12-23 17:57:36.121611,-85
2021-12-23 17:57:36.121617,-76
2021-12-23 17:57:36.121623,-90
2021-12-23 17:57:36.121630,-78
2021-12-23 17:57:36.346781,-49
2021-12-23 17:57:36.346811,-52
2021-12-23 17:57:36.346823,-59
2021-12-23 17:57:36.346832,-38
2021-12-23 17:57:36.346842,-14
2021-12-23 17:57:36.346852,-14
2021-12-23 17:57:36.346861,-16
2021-12-23 17:57:36.346871,-45
2021-12-23 17:57:36.346880,-92
2021-12-23 17:57:36.346890,-97
2021-12-23 17:57:36.346900,-61
2021-12-23 17:57:36.346909,-47
2021-12-23 17:57:36.346919,-59
2021-12-23 17:57:36.346929,-64
2021-12-23 17:57:36.346939,-64
2021-12-23 17:57:36.346948,-83
2021-12-23 17:57:36.346958,-42
2021-12-23 17:57:36.346968,287
2021-12-23 17:57:36.346978,1052
2021-12-23 17:57:36.346987,1946
2021-12-23 17:57:36.346997,2276
2021-12-23 17:57:36.347007,1380
2021-12-23 17:57:36.347016,-199
2021-12-23 17:57:36.347026,-632
2021-12-23 17:57:36.347042,7
2021-12-23 17:57:36.347052,71
2021-12-23 17:57:36.347062,-213
2021-12-23 17:57:36.347071,-90
2021-12-23 17:57:36.347081,-9
2021-12-23 17:57:36.347091,-116
2021-12-23 17:57:36.571970,-90
2021-12-23 17:57:36.572001,-2
2021-12-23 17:57:36.572012,4
2021-12-23 17:57:36.572022,2
2021-12-23 17:57:36.572032,23
2021-12-23 17:57:36.572042,52
2021-12-23 17:57:36.572052,87
2021-12-23 17:57:36.572061,109
2021-12-23 17:57:36.572071,109
2021-12-23 17:57:36.572081,128
2021-12-23 17:57:36.572090,192
2021-12-23 17:57:36.572100,242
2021-12-23 17:57:36.572110,242
2021-12-23 17:57:36.572120,247
2021-12-23 17:57:36.572130,294
2021-12-23 17:57:36.572139,342
2021-12-23 17:57:36.572149,349
2021-12-23 17:57:36.572159,342
2021-12-23 17:57:36.572168,349
2021-12-23 17:57:36.572178,351
2021-12-23 17:57:36.572188,337
2021-12-23 17:57:36.572197,313
2021-12-23 17:57:36.572210,256
2021-12-23 17:57:36.572220,166
2021-12-23 17:57:36.572229,87
2021-12-23 17:57:36.572239,4
2021-12-23 17:57:36.572249,-83
2021-12-23 17:57:36.572259,-130
2021-12-23 17:57:36.572268,-156
2021-12-23 17:57:36.572278,-204
2021-12-23 17:57:36.841199,-237
2021-12-23 17:57:36.841230,-206
2021-12-23 17:57:36.841242,-197
2021-12-23 17:57:36.841252,-235
2021-12-23 17:57:36.841262,-235
2021-12-23 17:57:36.841272,-201
2021-12-23 17:57:36.841281,-194
2021-12-23 17:57:36.841291,-199
2021-12-23 17:57:36.841301,-168
2021-12-23 17:57:36.841311,-154
2021-12-23 17:57:36.841321,-185
2021-12-23 17:57:36.841331,-175
2021-12-23 17:57:36.841340,-135
2021-12-23 17:57:36.841350,-152
2021-12-23 17:57:36.841360,-175
2021-12-23 17:57:36.841370,-144
2021-12-23 17:57:36.841380,-135
2021-12-23 17:57:36.841390,-161
2021-12-23 17:57:36.841399,-154
2021-12-23 17:57:36.841409,-140
2021-12-23 17:57:36.841419,-147
2021-12-23 17:57:36.841428,-125
2021-12-23 17:57:36.841438,-87
2021-12-23 17:57:36.841448,-95
2021-12-23 17:57:36.841463,-121
2021-12-23 17:57:36.841473,-118
2021-12-23 17:57:36.841483,-114
2021-12-23 17:57:36.841492,-116
2021-12-23 17:57:36.841502,-99
2021-12-23 17:57:36.841512,-85
2021-12-23 17:57:37.111351,-57
2021-12-23 17:57:37.111382,-14
2021-12-23 17:57:37.111394,0
2021-12-23 17:57:37.111404,-9
2021-12-23 17:57:37.111413,-38
2021-12-23 17:57:37.111423,-78
2021-12-23 17:57:37.111433,-90
2021-12-23 17:57:37.111443,-76
2021-12-23 17:57:37.111452,-68
2021-12-23 17:57:37.111462,-54
2021-12-23 17:57:37.111472,-28
2021-12-23 17:57:37.111482,-42
2021-12-23 17:57:37.111491,-68
2021-12-23 17:57:37.111501,-71
2021-12-23 17:57:37.111511,-14
2021-12-23 17:57:37.111520,332
2021-12-23 17:57:37.111530,1159
2021-12-23 17:57:37.111540,2076
2021-12-23 17:57:37.111550,2340
2021-12-23 17:57:37.111559,1306
2021-12-23 17:57:37.111569,-377
2021-12-23 17:57:37.111579,-748
2021-12-23 17:57:37.111589,4
2021-12-23 17:57:37.111599,76
2021-12-23 17:57:37.111608,-230
2021-12-23 17:57:37.111618,-99
2021-12-23 17:57:37.111628,-7
2021-12-23 17:57:37.111637,-99
2021-12-23 17:57:37.111647,-61
2021-12-23 17:57:37.111657,7
2021-12-23 17:57:37.290393,-4
2021-12-23 17:57:37.290424,2
2021-12-23 17:57:37.290436,45
2021-12-23 17:57:37.290446,68
2021-12-23 17:57:37.290455,95
2021-12-23 17:57:37.290465,128
2021-12-23 17:57:37.290475,152
2021-12-23 17:57:37.290484,187
2021-12-23 17:57:37.290494,228
2021-12-23 17:57:37.290504,247
2021-12-23 17:57:37.290513,261
2021-12-23 17:57:37.290523,292
2021-12-23 17:57:37.290533,339
2021-12-23 17:57:37.290543,384
2021-12-23 17:57:37.290552,392
2021-12-23 17:57:37.290562,365
2021-12-23 17:57:37.290572,356
2021-12-23 17:57:37.290581,356
2021-12-23 17:57:37.290592,318
2021-12-23 17:57:37.290601,261
2021-12-23 17:57:37.290611,211
2021-12-23 17:57:37.290621,142
2021-12-23 17:57:37.290630,49
2021-12-23 17:57:37.290640,-28
2021-12-23 17:57:37.290650,-80
2021-12-23 17:57:37.290659,-125
2021-12-23 17:57:37.290669,-161
2021-12-23 17:57:37.290679,-187
2021-12-23 17:57:37.290689,-206
2021-12-23 17:57:37.290698,-199
2021-12-23 17:57:37.471807,-168
2021-12-23 17:57:37.471838,-159
2021-12-23 17:57:37.471849,-168
2021-12-23 17:57:37.471860,-154
2021-12-23 17:57:37.471870,-142
2021-12-23 17:57:37.471880,-163
2021-12-23 17:57:37.471889,-163
2021-12-23 17:57:37.471899,-106
2021-12-23 17:57:37.471909,-71
2021-12-23 17:57:37.471919,-102
2021-12-23 17:57:37.471949,-121
2021-12-23 17:57:37.471959,-114
2021-12-23 17:57:37.471969,-111
2021-12-23 17:57:37.471979,-109
2021-12-23 17:57:37.471988,-106
2021-12-23 17:57:37.471998,-116
2021-12-23 17:57:37.472008,-114
2021-12-23 17:57:37.472018,-85
2021-12-23 17:57:37.472028,-83
2021-12-23 17:57:37.472037,-109
2021-12-23 17:57:37.472047,-118
2021-12-23 17:57:37.472057,-118
2021-12-23 17:57:37.472067,-104
2021-12-23 17:57:37.472077,-87
2021-12-23 17:57:37.472086,-111
2021-12-23 17:57:37.472096,-116
2021-12-23 17:57:37.472106,-78
2021-12-23 17:57:37.472116,-73
2021-12-23 17:57:37.472125,-83
2021-12-23 17:57:37.472135,-52
2021-12-23 17:57:37.786101,-33
2021-12-23 17:57:37.786123,-9
2021-12-23 17:57:37.786131,14
2021-12-23 17:57:37.786138,-38
2021-12-23 17:57:37.786144,-99
2021-12-23 17:57:37.786150,-87
2021-12-23 17:57:37.786157,-49
2021-12-23 17:57:37.786163,-47
2021-12-23 17:57:37.786169,-59
2021-12-23 17:57:37.786175,-49
2021-12-23 17:57:37.786182,-35
2021-12-23 17:57:37.786188,-52
2021-12-23 17:57:37.786194,-87
2021-12-23 17:57:37.786200,-71
2021-12-23 17:57:37.786206,201
2021-12-23 17:57:37.786213,924
2021-12-23 17:57:37.786219,1839
2021-12-23 17:57:37.786225,2286
2021-12-23 17:57:37.786231,1599
2021-12-23 17:57:37.786238,9
2021-12-23 17:57:37.786244,-715
2021-12-23 17:57:37.786250,-125
2021-12-23 17:57:37.786256,90
2021-12-23 17:57:37.786263,-225
2021-12-23 17:57:37.786269,-161
2021-12-23 17:57:37.786279,-21
2021-12-23 17:57:37.786285,-104
2021-12-23 17:57:37.786291,-104
2021-12-23 17:57:37.786297,-21
2021-12-23 17:57:37.786304,-21
2021-12-23 17:57:37.966911,-30
2021-12-23 17:57:37.966942,7
2021-12-23 17:57:37.966954,47
2021-12-23 17:57:37.966963,66
2021-12-23 17:57:37.966973,80
2021-12-23 17:57:37.966983,106
2021-12-23 17:57:37.966992,140
2021-12-23 17:57:37.967002,171
2021-12-23 17:57:37.967011,201
2021-12-23 17:57:37.967021,225
2021-12-23 17:57:37.967031,256
2021-12-23 17:57:37.967041,285
2021-12-23 17:57:37.967050,306
2021-12-23 17:57:37.967060,327
2021-12-23 17:57:37.967070,346
2021-12-23 17:57:37.967080,335
2021-12-23 17:57:37.967089,320
2021-12-23 17:57:37.967099,306
2021-12-23 17:57:37.967109,273
2021-12-23 17:57:37.967118,228
2021-12-23 17:57:37.967128,166
2021-12-23 17:57:37.967138,85
2021-12-23 17:57:37.967148,14
2021-12-23 17:57:37.967158,-47
2021-12-23 17:57:37.967167,-90
2021-12-23 17:57:37.967177,-118
2021-12-23 17:57:37.967187,-166
2021-12-23 17:57:37.967197,-197
2021-12-23 17:57:37.967207,-171
2021-12-23 17:57:37.967216,-142
2021-12-23 17:57:38.191720,-154
2021-12-23 17:57:38.191751,-152
2021-12-23 17:57:38.191763,-123
2021-12-23 17:57:38.191773,-104
2021-12-23 17:57:38.191783,-95
2021-12-23 17:57:38.191793,-95
2021-12-23 17:57:38.191803,-102
2021-12-23 17:57:38.191813,-104
2021-12-23 17:57:38.191822,-97
2021-12-23 17:57:38.191832,-85
2021-12-23 17:57:38.191842,-80
2021-12-23 17:57:38.191851,-92
2021-12-23 17:57:38.191861,-80
2021-12-23 17:57:38.191871,-59
2021-12-23 17:57:38.191880,-80
2021-12-23 17:57:38.191890,-109
2021-12-23 17:57:38.191905,-99
2021-12-23 17:57:38.191915,-85
2021-12-23 17:57:38.191925,-90
2021-12-23 17:57:38.191935,-102
2021-12-23 17:57:38.191944,-125
2021-12-23 17:57:38.191954,-116
2021-12-23 17:57:38.191963,-80
2021-12-23 17:57:38.191973,-87
2021-12-23 17:57:38.191983,-109
2021-12-23 17:57:38.191992,-80
2021-12-23 17:57:38.192002,-57
2021-12-23 17:57:38.192012,-71
2021-12-23 17:57:38.192021,-61
2021-12-23 17:57:38.192031,-33
2021-12-23 17:57:38.416722,-59
2021-12-23 17:57:38.416753,-102
2021-12-23 17:57:38.416765,-106
2021-12-23 17:57:38.416775,-99
2021-12-23 17:57:38.416785,-90
2021-12-23 17:57:38.416795,-71
2021-12-23 17:57:38.416805,-68
2021-12-23 17:57:38.416815,-83
2021-12-23 17:57:38.416824,-78
2021-12-23 17:57:38.416834,-90
2021-12-23 17:57:38.416844,-97
2021-12-23 17:57:38.416854,97
2021-12-23 17:57:38.416864,739
2021-12-23 17:57:38.416873,1699
2021-12-23 17:57:38.416883,2359
2021-12-23 17:57:38.416893,1841
2021-12-23 17:57:38.416903,137
2021-12-23 17:57:38.416913,-845
2021-12-23 17:57:38.416923,-247
2021-12-23 17:57:38.416933,133
2021-12-23 17:57:38.416942,-192
2021-12-23 17:57:38.416952,-185
2021-12-23 17:57:38.416962,-16
2021-12-23 17:57:38.416972,-83
2021-12-23 17:57:38.416982,-99
2021-12-23 17:57:38.416992,-16
2021-12-23 17:57:38.417001,-9
2021-12-23 17:57:38.417011,-14
2021-12-23 17:57:38.417021,33
2021-12-23 17:57:38.417030,64
2021-12-23 17:57:38.641875,76
2021-12-23 17:57:38.641906,111
2021-12-23 17:57:38.641918,152
2021-12-23 17:57:38.641928,175
2021-12-23 17:57:38.641938,204
2021-12-23 17:57:38.641948,244
2021-12-23 17:57:38.641957,282
2021-12-23 17:57:38.641967,311
2021-12-23 17:57:38.641977,339
2021-12-23 17:57:38.641986,365
2021-12-23 17:57:38.641996,389
2021-12-23 17:57:38.642006,406
2021-12-23 17:57:38.642015,403
2021-12-23 17:57:38.642030,396
2021-12-23 17:57:38.642040,380
2021-12-23 17:57:38.642050,339
2021-12-23 17:57:38.642060,275
2021-12-23 17:57:38.642070,190
2021-12-23 17:57:38.642079,104
2021-12-23 17:57:38.642089,26
2021-12-23 17:57:38.642099,-42
2021-12-23 17:57:38.642109,-102
2021-12-23 17:57:38.642118,-144
2021-12-23 17:57:38.642128,-171
2021-12-23 17:57:38.642138,-185
2021-12-23 17:57:38.642147,-190
2021-12-23 17:57:38.642157,-187
2021-12-23 17:57:38.642167,-180
2021-12-23 17:57:38.642177,-163
2021-12-23 17:57:38.642187,-149
2021-12-23 17:57:38.866656,-137
2021-12-23 17:57:38.866686,-125
2021-12-23 17:57:38.866698,-123
2021-12-23 17:57:38.866708,-130
2021-12-23 17:57:38.866718,-125
2021-12-23 17:57:38.866728,-118
2021-12-23 17:57:38.866737,-114
2021-12-23 17:57:38.866747,-106
2021-12-23 17:57:38.866757,-106
2021-12-23 17:57:38.866766,-114
2021-12-23 17:57:38.866776,-111
2021-12-23 17:57:38.866785,-104
2021-12-23 17:57:38.866795,-106
2021-12-23 17:57:38.866805,-106
2021-12-23 17:57:38.866814,-104
2021-12-23 17:57:38.866824,-111
2021-12-23 17:57:38.866833,-111
2021-12-23 17:57:38.866843,-95
2021-12-23 17:57:38.866853,-78
2021-12-23 17:57:38.866862,-64
2021-12-23 17:57:38.866872,-52
2021-12-23 17:57:38.866881,-30
2021-12-23 17:57:38.866891,-14
2021-12-23 17:57:38.866901,-42
2021-12-23 17:57:38.866910,-83
2021-12-23 17:57:38.866920,-87
2021-12-23 17:57:38.866929,-78
2021-12-23 17:57:38.866939,-76
2021-12-23 17:57:38.866948,-80
2021-12-23 17:57:38.866958,-80
2021-12-23 17:57:39.136824,-71
2021-12-23 17:57:39.136854,-66
2021-12-23 17:57:39.136866,-80
2021-12-23 17:57:39.136876,-97
2021-12-23 17:57:39.136885,-30
2021-12-23 17:57:39.136895,377
2021-12-23 17:57:39.136905,1292
2021-12-23 17:57:39.136915,2283
2021-12-23 17:57:39.136925,2447
2021-12-23 17:57:39.136934,1059
2021-12-23 17:57:39.136944,-736
2021-12-23 17:57:39.136954,-788
2021-12-23 17:57:39.136964,28
2021-12-23 17:57:39.136974,-59
2021-12-23 17:57:39.136984,-292
2021-12-23 17:57:39.136994,-87
2021-12-23 17:57:39.137003,-49
2021-12-23 17:57:39.137021,-140
2021-12-23 17:57:39.137031,-76
2021-12-23 17:57:39.137041,-19
2021-12-23 17:57:39.137051,-33
2021-12-23 17:57:39.137061,-7
2021-12-23 17:57:39.137071,40
2021-12-23 17:57:39.137080,66
2021-12-23 17:57:39.137090,87
2021-12-23 17:57:39.137100,123
2021-12-23 17:57:39.137110,163
2021-12-23 17:57:39.137120,192
2021-12-23 17:57:39.137129,223
2021-12-23 17:57:39.137139,261
2021-12-23 17:57:39.360313,306
2021-12-23 17:57:39.360343,344
2021-12-23 17:57:39.360355,368
2021-12-23 17:57:39.360365,382
2021-12-23 17:57:39.360375,406
2021-12-23 17:57:39.360385,422
2021-12-23 17:57:39.360394,415
2021-12-23 17:57:39.360404,389
2021-12-23 17:57:39.360414,344
2021-12-23 17:57:39.360423,268
2021-12-23 17:57:39.360433,168
2021-12-23 17:57:39.360443,68
2021-12-23 17:57:39.360453,-14
2021-12-23 17:57:39.360463,-83
2021-12-23 17:57:39.360472,-140
2021-12-23 17:57:39.360482,-190
2021-12-23 17:57:39.360492,-228
2021-12-23 17:57:39.360501,-247
2021-12-23 17:57:39.360511,-249
2021-12-23 17:57:39.360521,-244
2021-12-23 17:57:39.360531,-240
2021-12-23 17:57:39.360540,-230
2021-12-23 17:57:39.360550,-211
2021-12-23 17:57:39.360560,-192
2021-12-23 17:57:39.360569,-175
2021-12-23 17:57:39.360579,-156
2021-12-23 17:57:39.360589,-140
2021-12-23 17:57:39.360599,-130
2021-12-23 17:57:39.360609,-121
2021-12-23 17:57:39.360619,-109
2021-12-23 17:57:39.631358,-95
2021-12-23 17:57:39.631387,-87
2021-12-23 17:57:39.631399,-92
2021-12-23 17:57:39.631409,-97
2021-12-23 17:57:39.631419,-95
2021-12-23 17:57:39.631428,-95
2021-12-23 17:57:39.631438,-102
2021-12-23 17:57:39.631448,-104
2021-12-23 17:57:39.631457,-99
2021-12-23 17:57:39.631467,-99
2021-12-23 17:57:39.631477,-92
2021-12-23 17:57:39.631487,-71
2021-12-23 17:57:39.631497,-49
2021-12-23 17:57:39.631507,-30
2021-12-23 17:57:39.631516,-38
2021-12-23 17:57:39.631526,-73
2021-12-23 17:57:39.631536,-97
2021-12-23 17:57:39.631546,-92
2021-12-23 17:57:39.631555,-83
2021-12-23 17:57:39.631565,-78
2021-12-23 17:57:39.631575,-78
2021-12-23 17:57:39.631584,-71
2021-12-23 17:57:39.631594,-64
2021-12-23 17:57:39.631604,-61
2021-12-23 17:57:39.631613,-80
2021-12-23 17:57:39.631623,-87
2021-12-23 17:57:39.631633,118
2021-12-23 17:57:39.631643,826
2021-12-23 17:57:39.631653,1912
2021-12-23 17:57:39.631666,2663
2021-12-23 17:57:39.811806,2114
2021-12-23 17:57:39.811836,223
2021-12-23 17:57:39.811848,-936
2021-12-23 17:57:39.811859,-311
2021-12-23 17:57:39.811869,123
2021-12-23 17:57:39.811879,-235
2021-12-23 17:57:39.811889,-223
2021-12-23 17:57:39.811898,-30
2021-12-23 17:57:39.811908,-116
2021-12-23 17:57:39.811918,-147
2021-12-23 17:57:39.811928,-52
2021-12-23 17:57:39.811938,-38
2021-12-23 17:57:39.811947,-45
2021-12-23 17:57:39.811957,0
2021-12-23 17:57:39.811967,28
2021-12-23 17:57:39.811977,38
2021-12-23 17:57:39.811986,76
2021-12-23 17:57:39.811996,121
2021-12-23 17:57:39.812006,154
2021-12-23 17:57:39.812016,190
2021-12-23 17:57:39.812025,228
2021-12-23 17:57:39.812035,266
2021-12-23 17:57:39.812045,308
2021-12-23 17:57:39.812055,351
2021-12-23 17:57:39.812064,387
2021-12-23 17:57:39.812074,418
2021-12-23 17:57:39.812084,434
2021-12-23 17:57:39.812093,432
2021-12-23 17:57:39.812103,418
2021-12-23 17:57:39.812113,394
2021-12-23 17:57:40.036516,335
2021-12-23 17:57:40.036539,240
2021-12-23 17:57:40.036546,133
2021-12-23 17:57:40.036553,40
2021-12-23 17:57:40.036560,-40
2021-12-23 17:57:40.036566,-106
2021-12-23 17:57:40.036573,-156
2021-12-23 17:57:40.036579,-194
2021-12-23 17:57:40.036585,-220
2021-12-23 17:57:40.036592,-232
2021-12-23 17:57:40.036598,-240
2021-12-23 17:57:40.036604,-240
2021-12-23 17:57:40.036611,-230
2021-12-23 17:57:40.036617,-220
2021-12-23 17:57:40.036623,-213
2021-12-23 17:57:40.036630,-199
2021-12-23 17:57:40.036636,-175
2021-12-23 17:57:40.036642,-156
2021-12-23 17:57:40.036649,-140
2021-12-23 17:57:40.036655,-128
2021-12-23 17:57:40.036662,-116
2021-12-23 17:57:40.036668,-104
2021-12-23 17:57:40.036674,-95
2021-12-23 17:57:40.036681,-87
2021-12-23 17:57:40.036687,-85
2021-12-23 17:57:40.036693,-85
2021-12-23 17:57:40.036700,-83
2021-12-23 17:57:40.036706,-80
2021-12-23 17:57:40.036712,-87
2021-12-23 17:57:40.036719,-92
2021-12-23 17:57:40.261568,-90
2021-12-23 17:57:40.261589,-83
2021-12-23 17:57:40.261596,-68
2021-12-23 17:57:40.261603,-49
2021-12-23 17:57:40.261609,-30
2021-12-23 17:57:40.261616,-14
2021-12-23 17:57:40.261622,-19
2021-12-23 17:57:40.261628,-57
2021-12-23 17:57:40.261635,-83
2021-12-23 17:57:40.261641,-80
2021-12-23 17:57:40.261647,-76
2021-12-23 17:57:40.261654,-73
2021-12-23 17:57:40.261660,-71
2021-12-23 17:57:40.261666,-73
2021-12-23 17:57:40.261672,-76
2021-12-23 17:57:40.261679,-73
2021-12-23 17:57:40.261685,-92
2021-12-23 17:57:40.261691,-111
2021-12-23 17:57:40.261698,45
2021-12-23 17:57:40.261704,677
2021-12-23 17:57:40.261718,1744
2021-12-23 17:57:40.261725,2599
2021-12-23 17:57:40.261769,2333
2021-12-23 17:57:40.261782,617
2021-12-23 17:57:40.261793,-822
2021-12-23 17:57:40.261805,-451
2021-12-23 17:57:40.261814,128
2021-12-23 17:57:40.261821,-182
2021-12-23 17:57:40.261827,-280
2021-12-23 17:57:40.261834,-64
2021-12-23 17:57:40.486635,-102
2021-12-23 17:57:40.486666,-159
2021-12-23 17:57:40.486678,-71
2021-12-23 17:57:40.486688,-47
2021-12-23 17:57:40.486698,-59
2021-12-23 17:57:40.486708,-21
2021-12-23 17:57:40.486718,9
2021-12-23 17:57:40.486728,21
2021-12-23 17:57:40.486737,52
2021-12-23 17:57:40.486747,90
2021-12-23 17:57:40.486757,118
2021-12-23 17:57:40.486767,156
2021-12-23 17:57:40.486776,197
2021-12-23 17:57:40.486786,237
2021-12-23 17:57:40.486796,275
2021-12-23 17:57:40.486806,316
2021-12-23 17:57:40.486816,358
2021-12-23 17:57:40.486826,392
2021-12-23 17:57:40.486836,411
2021-12-23 17:57:40.486845,420
2021-12-23 17:57:40.486855,418
2021-12-23 17:57:40.486865,389
2021-12-23 17:57:40.486875,335
2021-12-23 17:57:40.486884,249
2021-12-23 17:57:40.486894,140
2021-12-23 17:57:40.486904,38
2021-12-23 17:57:40.486914,-45
2021-12-23 17:57:40.486924,-116
2021-12-23 17:57:40.486934,-171
2021-12-23 17:57:40.486944,-204
2021-12-23 17:57:40.711648,-225
2021-12-23 17:57:40.711679,-237
2021-12-23 17:57:40.711691,-242
2021-12-23 17:57:40.711701,-244
2021-12-23 17:57:40.711711,-235
2021-12-23 17:57:40.711720,-225
2021-12-23 17:57:40.711730,-218
2021-12-23 17:57:40.711740,-204
2021-12-23 17:57:40.711749,-187
2021-12-23 17:57:40.711759,-175
2021-12-23 17:57:40.711769,-156
2021-12-23 17:57:40.711779,-144
2021-12-23 17:57:40.711789,-135
2021-12-23 17:57:40.711799,-125
2021-12-23 17:57:40.711809,-111
2021-12-23 17:57:40.711818,-106
2021-12-23 17:57:40.711828,-109
2021-12-23 17:57:40.711838,-106
2021-12-23 17:57:40.711847,-102
2021-12-23 17:57:40.711857,-99
2021-12-23 17:57:40.711867,-102
2021-12-23 17:57:40.711877,-97
2021-12-23 17:57:40.711886,-97
2021-12-23 17:57:40.711896,-109
2021-12-23 17:57:40.711906,-111
2021-12-23 17:57:40.711916,-99
2021-12-23 17:57:40.711925,-87
2021-12-23 17:57:40.711935,-76
2021-12-23 17:57:40.711945,-59
2021-12-23 17:57:40.711954,-42
2021-12-23 17:57:40.936787,-35
2021-12-23 17:57:40.936818,-52
2021-12-23 17:57:40.936830,-80
2021-12-23 17:57:40.936841,-87
2021-12-23 17:57:40.936851,-80
2021-12-23 17:57:40.936861,-80
2021-12-23 17:57:40.936870,-76
2021-12-23 17:57:40.936880,-66
2021-12-23 17:57:40.936890,-57
2021-12-23 17:57:40.936900,-54
2021-12-23 17:57:40.936910,-71
2021-12-23 17:57:40.936919,-111
2021-12-23 17:57:40.936929,-64
2021-12-23 17:57:40.936939,349
2021-12-23 17:57:40.936949,1280
2021-12-23 17:57:40.936958,2321
2021-12-23 17:57:40.936968,2625
2021-12-23 17:57:40.936978,1442
2021-12-23 17:57:40.936988,-392
2021-12-23 17:57:40.936998,-741
2021-12-23 17:57:40.937007,16
2021-12-23 17:57:40.937017,0
2021-12-23 17:57:40.937032,-316
2021-12-23 17:57:40.937042,-149
2021-12-23 17:57:40.937052,-64
2021-12-23 17:57:40.937062,-159
2021-12-23 17:57:40.937071,-114
2021-12-23 17:57:40.937081,-47
2021-12-23 17:57:40.937091,-59
2021-12-23 17:57:40.937100,-40
2021-12-23 17:57:41.206639,4
2021-12-23 17:57:41.206669,23
2021-12-23 17:57:41.206681,47
2021-12-23 17:57:41.206691,83
2021-12-23 17:57:41.206701,104
2021-12-23 17:57:41.206711,133
2021-12-23 17:57:41.206720,178
2021-12-23 17:57:41.206730,220
2021-12-23 17:57:41.206739,266
2021-12-23 17:57:41.206749,308
2021-12-23 17:57:41.206758,342
2021-12-23 17:57:41.206768,373
2021-12-23 17:57:41.206777,399
2021-12-23 17:57:41.206787,418
2021-12-23 17:57:41.206796,427
2021-12-23 17:57:41.206806,411
2021-12-23 17:57:41.206815,363
2021-12-23 17:57:41.206825,289
2021-12-23 17:57:41.206835,192
2021-12-23 17:57:41.206844,85
2021-12-23 17:57:41.206854,-7
2021-12-23 17:57:41.206863,-83
2021-12-23 17:57:41.206873,-147
2021-12-23 17:57:41.206882,-197
2021-12-23 17:57:41.206892,-223
2021-12-23 17:57:41.206902,-237
2021-12-23 17:57:41.206911,-244
2021-12-23 17:57:41.206921,-251
2021-12-23 17:57:41.206930,-244
2021-12-23 17:57:41.206940,-228
2021-12-23 17:57:41.475311,-223
2021-12-23 17:57:41.475342,-223
2021-12-23 17:57:41.475354,-211
2021-12-23 17:57:41.475365,-197
2021-12-23 17:57:41.475375,-187
2021-12-23 17:57:41.475384,-175
2021-12-23 17:57:41.475394,-154
2021-12-23 17:57:41.475404,-140
2021-12-23 17:57:41.475413,-137
2021-12-23 17:57:41.475423,-135
2021-12-23 17:57:41.475433,-125
2021-12-23 17:57:41.475443,-121
2021-12-23 17:57:41.475452,-118
2021-12-23 17:57:41.475462,-111
2021-12-23 17:57:41.475472,-106
2021-12-23 17:57:41.475482,-111
2021-12-23 17:57:41.475492,-118
2021-12-23 17:57:41.475503,-114
2021-12-23 17:57:41.475513,-109
2021-12-23 17:57:41.475523,-109
2021-12-23 17:57:41.475532,-102
2021-12-23 17:57:41.475542,-99
2021-12-23 17:57:41.475552,-114
2021-12-23 17:57:41.475561,-114
2021-12-23 17:57:41.475571,-97
2021-12-23 17:57:41.475581,-78
2021-12-23 17:57:41.475591,-64
2021-12-23 17:57:41.475600,-49
2021-12-23 17:57:41.475610,-33
2021-12-23 17:57:41.475620,-21
2021-12-23 17:57:41.656744,-38
2021-12-23 17:57:41.656774,-66
2021-12-23 17:57:41.656787,-71
2021-12-23 17:57:41.656797,-64
2021-12-23 17:57:41.656807,-64
2021-12-23 17:57:41.656817,-64
2021-12-23 17:57:41.656826,-57
2021-12-23 17:57:41.656836,-45
2021-12-23 17:57:41.656846,-47
2021-12-23 17:57:41.656855,-64
2021-12-23 17:57:41.656865,-97
2021-12-23 17:57:41.656875,-66
2021-12-23 17:57:41.656885,299
2021-12-23 17:57:41.656894,1207
2021-12-23 17:57:41.656904,2271
2021-12-23 17:57:41.656914,2663
2021-12-23 17:57:41.656923,1604
2021-12-23 17:57:41.656933,-278
2021-12-23 17:57:41.656943,-793
2021-12-23 17:57:41.656952,-26
2021-12-23 17:57:41.656962,40
2021-12-23 17:57:41.656972,-306
2021-12-23 17:57:41.656982,-152
2021-12-23 17:57:41.656991,-35
2021-12-23 17:57:41.657001,-144
2021-12-23 17:57:41.657011,-118
2021-12-23 17:57:41.657020,-38
2021-12-23 17:57:41.657030,-47
2021-12-23 17:57:41.657040,-38
2021-12-23 17:57:41.657050,9
2021-12-23 17:57:41.881636,33
2021-12-23 17:57:41.881668,49
2021-12-23 17:57:41.881679,83
2021-12-23 17:57:41.881689,111
2021-12-23 17:57:41.881699,142
2021-12-23 17:57:41.881714,185
2021-12-23 17:57:41.881724,228
2021-12-23 17:57:41.881734,256
2021-12-23 17:57:41.881743,289
2021-12-23 17:57:41.881753,330
2021-12-23 17:57:41.881763,375
2021-12-23 17:57:41.881773,403
2021-12-23 17:57:41.881783,418
2021-12-23 17:57:41.881792,422
2021-12-23 17:57:41.881802,411
2021-12-23 17:57:41.881812,375
2021-12-23 17:57:41.881821,311
2021-12-23 17:57:41.881831,216
2021-12-23 17:57:41.881841,111
2021-12-23 17:57:41.881850,16
2021-12-23 17:57:41.881860,-64
2021-12-23 17:57:41.881870,-133
2021-12-23 17:57:41.881880,-187
2021-12-23 17:57:41.881889,-220
2021-12-23 17:57:41.881899,-232
2021-12-23 17:57:41.881909,-237
2021-12-23 17:57:41.881918,-249
2021-12-23 17:57:41.881928,-249
2021-12-23 17:57:41.881938,-235
2021-12-23 17:57:41.881947,-223
2021-12-23 17:57:42.152068,-213
2021-12-23 17:57:42.152099,-199
2021-12-23 17:57:42.152111,-182
2021-12-23 17:57:42.152121,-166
2021-12-23 17:57:42.152131,-147
2021-12-23 17:57:42.152141,-133
2021-12-23 17:57:42.152151,-125
2021-12-23 17:57:42.152160,-116
2021-12-23 17:57:42.152170,-111
2021-12-23 17:57:42.152180,-102
2021-12-23 17:57:42.152190,-92
2021-12-23 17:57:42.152200,-87
2021-12-23 17:57:42.152209,-90
2021-12-23 17:57:42.152219,-95
2021-12-23 17:57:42.152229,-97
2021-12-23 17:57:42.152238,-95
2021-12-23 17:57:42.152248,-95
2021-12-23 17:57:42.152258,-92
2021-12-23 17:57:42.152267,-92
2021-12-23 17:57:42.152277,-90
2021-12-23 17:57:42.152286,-83
2021-12-23 17:57:42.152296,-83
2021-12-23 17:57:42.152306,-85
2021-12-23 17:57:42.152315,-73
2021-12-23 17:57:42.152325,-66
2021-12-23 17:57:42.152335,-66
2021-12-23 17:57:42.152344,-59
2021-12-23 17:57:42.152354,-54
2021-12-23 17:57:42.152363,-57
2021-12-23 17:57:42.152373,-52
2021-12-23 17:57:42.331620,-47
2021-12-23 17:57:42.331655,-52
2021-12-23 17:57:42.331663,-61
2021-12-23 17:57:42.331670,-52
2021-12-23 17:57:42.331676,-33
2021-12-23 17:57:42.331683,-9
2021-12-23 17:57:42.331689,7
2021-12-23 17:57:42.331695,11
2021-12-23 17:57:42.331702,21
2021-12-23 17:57:42.331708,21
2021-12-23 17:57:42.331714,-2
2021-12-23 17:57:42.331721,-26
2021-12-23 17:57:42.331727,-33
2021-12-23 17:57:42.331733,-33
2021-12-23 17:57:42.331740,-26
2021-12-23 17:57:42.331746,-21
2021-12-23 17:57:42.331752,-19
2021-12-23 17:57:42.331759,-16
2021-12-23 17:57:42.331765,-26
2021-12-23 17:57:42.331772,-57
2021-12-23 17:57:42.331778,-57
2021-12-23 17:57:42.331784,209
2021-12-23 17:57:42.331791,1000
2021-12-23 17:57:42.331797,2069
2021-12-23 17:57:42.331803,2682
2021-12-23 17:57:42.331810,2060
2021-12-23 17:57:42.331816,282
2021-12-23 17:57:42.331822,-743
2021-12-23 17:57:42.331829,-161
2021-12-23 17:57:42.331835,149
2021-12-23 17:57:42.601065,-237
2021-12-23 17:57:42.601095,-206
2021-12-23 17:57:42.601108,-35
2021-12-23 17:57:42.601118,-128
2021-12-23 17:57:42.601128,-142
2021-12-23 17:57:42.601138,-52
2021-12-23 17:57:42.601148,-52
2021-12-23 17:57:42.601157,-57
2021-12-23 17:57:42.601167,-9
2021-12-23 17:57:42.601177,21
2021-12-23 17:57:42.601187,38
2021-12-23 17:57:42.601197,66
2021-12-23 17:57:42.601206,95
2021-12-23 17:57:42.601216,125
2021-12-23 17:57:42.601226,161
2021-12-23 17:57:42.601235,209
2021-12-23 17:57:42.601245,254
2021-12-23 17:57:42.601255,292
2021-12-23 17:57:42.601265,330
2021-12-23 17:57:42.601275,370
2021-12-23 17:57:42.601284,406
2021-12-23 17:57:42.601294,430
2021-12-23 17:57:42.601304,437
2021-12-23 17:57:42.601313,434
2021-12-23 17:57:42.601323,418
2021-12-23 17:57:42.601332,380
2021-12-23 17:57:42.601342,308
2021-12-23 17:57:42.601352,211
2021-12-23 17:57:42.601362,109
2021-12-23 17:57:42.601371,19
2021-12-23 17:57:42.826994,-52
2021-12-23 17:57:42.827038,-111
2021-12-23 17:57:42.827051,-161
2021-12-23 17:57:42.827061,-194
2021-12-23 17:57:42.827071,-211
2021-12-23 17:57:42.827081,-213
2021-12-23 17:57:42.827091,-216
2021-12-23 17:57:42.827100,-209
2021-12-23 17:57:42.827116,-194
2021-12-23 17:57:42.827127,-182
2021-12-23 17:57:42.827165,-180
2021-12-23 17:57:42.827171,-175
2021-12-23 17:57:42.827177,-163
2021-12-23 17:57:42.827184,-144
2021-12-23 17:57:42.827190,-133
2021-12-23 17:57:42.827196,-130
2021-12-23 17:57:42.827202,-121
2021-12-23 17:57:42.827209,-111
2021-12-23 17:57:42.827215,-106
2021-12-23 17:57:42.827221,-109
2021-12-23 17:57:42.827228,-106
2021-12-23 17:57:42.827234,-102
2021-12-23 17:57:42.827240,-99
2021-12-23 17:57:42.827246,-97
2021-12-23 17:57:42.827253,-95
2021-12-23 17:57:42.827259,-90
2021-12-23 17:57:42.827265,-87
2021-12-23 17:57:42.827272,-87
2021-12-23 17:57:42.827278,-85
2021-12-23 17:57:42.827284,-83
2021-12-23 17:57:43.006591,-78
2021-12-23 17:57:43.006613,-73
2021-12-23 17:57:43.006620,-71
2021-12-23 17:57:43.006627,-73
2021-12-23 17:57:43.006633,-78
2021-12-23 17:57:43.006640,-76
2021-12-23 17:57:43.006646,-76
2021-12-23 17:57:43.006652,-71
2021-12-23 17:57:43.006658,-61
2021-12-23 17:57:43.006665,-57
2021-12-23 17:57:43.006671,-61
2021-12-23 17:57:43.006678,-61
2021-12-23 17:57:43.006684,-54
2021-12-23 17:57:43.006690,-47
2021-12-23 17:57:43.006697,-45
2021-12-23 17:57:43.006703,-47
2021-12-23 17:57:43.006709,-45
2021-12-23 17:57:43.006716,-35
2021-12-23 17:57:43.006722,-33
2021-12-23 17:57:43.006728,-38
2021-12-23 17:57:43.006734,-33
2021-12-23 17:57:43.006741,-23
2021-12-23 17:57:43.006747,-9
2021-12-23 17:57:43.006753,11
2021-12-23 17:57:43.006760,23
2021-12-23 17:57:43.006766,35
2021-12-23 17:57:43.006772,40
2021-12-23 17:57:43.006779,19
2021-12-23 17:57:43.006785,-14
2021-12-23 17:57:43.006791,-23
2021-12-23 17:57:43.321612,-7
2021-12-23 17:57:43.321643,-2
2021-12-23 17:57:43.321654,-4
2021-12-23 17:57:43.321665,-2
2021-12-23 17:57:43.321674,-2
2021-12-23 17:57:43.321684,-9
2021-12-23 17:57:43.321694,-38
2021-12-23 17:57:43.321704,-68
2021-12-23 17:57:43.321714,85
2021-12-23 17:57:43.321724,698
2021-12-23 17:57:43.321733,1710
2021-12-23 17:57:43.321743,2528
2021-12-23 17:57:43.321753,2373
2021-12-23 17:57:43.321774,855
2021-12-23 17:57:43.321784,-620
2021-12-23 17:57:43.321794,-411
2021-12-23 17:57:43.321804,173
2021-12-23 17:57:43.321855,-99
2021-12-23 17:57:43.321889,-244
2021-12-23 17:57:43.321901,-40
2021-12-23 17:57:43.321912,-61
2021-12-23 17:57:43.321922,-125
2021-12-23 17:57:43.321932,-40
2021-12-23 17:57:43.321942,-7
2021-12-23 17:57:43.321952,-28
2021-12-23 17:57:43.321962,2
2021-12-23 17:57:43.321972,40
2021-12-23 17:57:43.321982,49
2021-12-23 17:57:43.321992,78
2021-12-23 17:57:43.322002,116
2021-12-23 17:57:43.545436,144
2021-12-23 17:57:43.545466,178
2021-12-23 17:57:43.545479,216
2021-12-23 17:57:43.545489,247
2021-12-23 17:57:43.545499,287
2021-12-23 17:57:43.545509,332
2021-12-23 17:57:43.545519,368
2021-12-23 17:57:43.545529,401
2021-12-23 17:57:43.545538,420
2021-12-23 17:57:43.545548,427
2021-12-23 17:57:43.545558,434
2021-12-23 17:57:43.545567,425
2021-12-23 17:57:43.545577,392
2021-12-23 17:57:43.545587,339
2021-12-23 17:57:43.545597,256
2021-12-23 17:57:43.545607,156
2021-12-23 17:57:43.545616,66
2021-12-23 17:57:43.545626,-9
2021-12-23 17:57:43.545636,-76
2021-12-23 17:57:43.545646,-125
2021-12-23 17:57:43.545655,-163
2021-12-23 17:57:43.545665,-192
2021-12-23 17:57:43.545675,-209
2021-12-23 17:57:43.545684,-211
2021-12-23 17:57:43.545694,-209
2021-12-23 17:57:43.545704,-197
2021-12-23 17:57:43.545713,-185
2021-12-23 17:57:43.545723,-175
2021-12-23 17:57:43.545733,-171
2021-12-23 17:57:43.545742,-156
2021-12-23 17:57:43.771628,-140
2021-12-23 17:57:43.771659,-130
2021-12-23 17:57:43.771671,-128
2021-12-23 17:57:43.771681,-121
2021-12-23 17:57:43.771690,-109
2021-12-23 17:57:43.771700,-99
2021-12-23 17:57:43.771709,-97
2021-12-23 17:57:43.771719,-99
2021-12-23 17:57:43.771728,-97
2021-12-23 17:57:43.771738,-90
2021-12-23 17:57:43.771747,-90
2021-12-23 17:57:43.771768,-95
2021-12-23 17:57:43.771778,-95
2021-12-23 17:57:43.771788,-97
2021-12-23 17:57:43.771797,-106
2021-12-23 17:57:43.771807,-109
2021-12-23 17:57:43.771816,-102
2021-12-23 17:57:43.771826,-95
2021-12-23 17:57:43.771835,-95
2021-12-23 17:57:43.771845,-99
2021-12-23 17:57:43.771854,-97
2021-12-23 17:57:43.771864,-85
2021-12-23 17:57:43.771874,-80
2021-12-23 17:57:43.771883,-78
2021-12-23 17:57:43.771893,-73
2021-12-23 17:57:43.771902,-71
2021-12-23 17:57:43.771912,-71
2021-12-23 17:57:43.771921,-64
2021-12-23 17:57:43.771931,-54
2021-12-23 17:57:43.771940,-45
2021-12-23 17:57:43.951781,-47
2021-12-23 17:57:43.951812,-54
2021-12-23 17:57:43.951824,-52
2021-12-23 17:57:43.951834,-42
2021-12-23 17:57:43.951844,-38
2021-12-23 17:57:43.951854,-33
2021-12-23 17:57:43.951863,-28
2021-12-23 17:57:43.951873,-23
2021-12-23 17:57:43.951883,-21
2021-12-23 17:57:43.951892,-19
2021-12-23 17:57:43.951902,-16
2021-12-23 17:57:43.951912,-16
2021-12-23 17:57:43.951921,-16
2021-12-23 17:57:43.951931,-2
2021-12-23 17:57:43.951941,21
2021-12-23 17:57:43.951950,35
2021-12-23 17:57:43.951960,40
2021-12-23 17:57:43.951970,61
2021-12-23 17:57:43.951979,64
2021-12-23 17:57:43.951989,26
2021-12-23 17:57:43.951999,-2
2021-12-23 17:57:43.952009,0
2021-12-23 17:57:43.952018,7
2021-12-23 17:57:43.952028,11
2021-12-23 17:57:43.952038,16
2021-12-23 17:57:43.952047,16
2021-12-23 17:57:43.952057,16
2021-12-23 17:57:43.952067,7
2021-12-23 17:57:43.952076,-30
2021-12-23 17:57:43.952086,0
2021-12-23 17:57:44.220894,375
2021-12-23 17:57:44.220915,1238
2021-12-23 17:57:44.220923,2209
2021-12-23 17:57:44.220929,2554
2021-12-23 17:57:44.220935,1594
2021-12-23 17:57:44.220942,-118
2021-12-23 17:57:44.220948,-636
2021-12-23 17:57:44.220955,30
2021-12-23 17:57:44.220961,97
2021-12-23 17:57:44.220967,-228
2021-12-23 17:57:44.220974,-106
2021-12-23 17:57:44.220980,-2
2021-12-23 17:57:44.220986,-99
2021-12-23 17:57:44.220993,-73
2021-12-23 17:57:44.220999,-7
2021-12-23 17:57:44.221005,-21
2021-12-23 17:57:44.221011,-7
2021-12-23 17:57:44.221018,40
2021-12-23 17:57:44.221024,52
2021-12-23 17:57:44.221030,66
2021-12-23 17:57:44.221037,102
2021-12-23 17:57:44.221043,135
2021-12-23 17:57:44.221049,163
2021-12-23 17:57:44.221055,194
2021-12-23 17:57:44.221062,225
2021-12-23 17:57:44.221068,261
2021-12-23 17:57:44.221074,304
2021-12-23 17:57:44.221081,342
2021-12-23 17:57:44.221087,370
2021-12-23 17:57:44.221093,389
2021-12-23 17:57:44.446623,408
2021-12-23 17:57:44.446644,422
2021-12-23 17:57:44.446652,420
2021-12-23 17:57:44.446659,399
2021-12-23 17:57:44.446665,361
2021-12-23 17:57:44.446671,294
2021-12-23 17:57:44.446678,201
2021-12-23 17:57:44.446684,102
2021-12-23 17:57:44.446691,16
2021-12-23 17:57:44.446697,-52
2021-12-23 17:57:44.446703,-111
2021-12-23 17:57:44.446710,-166
2021-12-23 17:57:44.446716,-206
2021-12-23 17:57:44.446723,-223
2021-12-23 17:57:44.446729,-225
2021-12-23 17:57:44.446735,-230
2021-12-23 17:57:44.446742,-232
2021-12-23 17:57:44.446748,-228
2021-12-23 17:57:44.446754,-218
2021-12-23 17:57:44.446761,-204
2021-12-23 17:57:44.446768,-192
2021-12-23 17:57:44.446774,-182
2021-12-23 17:57:44.446780,-175
2021-12-23 17:57:44.446787,-168
2021-12-23 17:57:44.446793,-156
2021-12-23 17:57:44.446799,-140
2021-12-23 17:57:44.446806,-133
2021-12-23 17:57:44.446812,-133
2021-12-23 17:57:44.446819,-128
2021-12-23 17:57:44.446825,-123
2021-12-23 17:57:44.626520,-123
2021-12-23 17:57:44.626551,-118
2021-12-23 17:57:44.626563,-123
2021-12-23 17:57:44.626574,-125
2021-12-23 17:57:44.626584,-111
2021-12-23 17:57:44.626593,-106
2021-12-23 17:57:44.626603,-114
2021-12-23 17:57:44.626613,-116
2021-12-23 17:57:44.626622,-114
2021-12-23 17:57:44.626632,-99
2021-12-23 17:57:44.626642,-87
2021-12-23 17:57:44.626651,-95
2021-12-23 17:57:44.626661,-102
2021-12-23 17:57:44.626670,-95
2021-12-23 17:57:44.626680,-83
2021-12-23 17:57:44.626690,-76
2021-12-23 17:57:44.626699,-78
2021-12-23 17:57:44.626709,-80
2021-12-23 17:57:44.626718,-73
2021-12-23 17:57:44.626728,-73
2021-12-23 17:57:44.626738,-73
2021-12-23 17:57:44.626747,-66
2021-12-23 17:57:44.626757,-66
2021-12-23 17:57:44.626766,-71
2021-12-23 17:57:44.626776,-61
2021-12-23 17:57:44.626785,-42
2021-12-23 17:57:44.626795,-38
2021-12-23 17:57:44.626804,-42
2021-12-23 17:57:44.626814,-40
2021-12-23 17:57:44.626823,-38
2021-12-23 17:57:44.851691,-38
2021-12-23 17:57:44.851722,-21
2021-12-23 17:57:44.851734,2
2021-12-23 17:57:44.851744,7
2021-12-23 17:57:44.851754,2
2021-12-23 17:57:44.851764,28
2021-12-23 17:57:44.851773,45
2021-12-23 17:57:44.851783,11
2021-12-23 17:57:44.851802,-23
2021-12-23 17:57:44.851812,-26
2021-12-23 17:57:44.851822,-19
2021-12-23 17:57:44.851831,-21
2021-12-23 17:57:44.851841,-23
2021-12-23 17:57:44.851851,-23
2021-12-23 17:57:44.851860,-23
2021-12-23 17:57:44.851870,-38
2021-12-23 17:57:44.851879,-59
2021-12-23 17:57:44.851889,-14
2021-12-23 17:57:44.851899,344
2021-12-23 17:57:44.851908,1204
2021-12-23 17:57:44.851918,2231
2021-12-23 17:57:44.851928,2594
2021-12-23 17:57:44.851938,1456
2021-12-23 17:57:44.851948,-411
2021-12-23 17:57:44.851957,-781
2021-12-23 17:57:44.851967,14
2021-12-23 17:57:44.851976,38
2021-12-23 17:57:44.851986,-266
2021-12-23 17:57:44.851996,-99
2021-12-23 17:57:44.852005,-19
2021-12-23 17:57:45.121527,-128
2021-12-23 17:57:45.121557,-87
2021-12-23 17:57:45.121578,-16
2021-12-23 17:57:45.121590,-35
2021-12-23 17:57:45.121600,-26
2021-12-23 17:57:45.121609,21
2021-12-23 17:57:45.121619,45
2021-12-23 17:57:45.121683,64
2021-12-23 17:57:45.121706,95
2021-12-23 17:57:45.121717,121
2021-12-23 17:57:45.121728,144
2021-12-23 17:57:45.121738,187
2021-12-23 17:57:45.121747,228
2021-12-23 17:57:45.121757,254
2021-12-23 17:57:45.121767,292
2021-12-23 17:57:45.121777,337
2021-12-23 17:57:45.121787,370
2021-12-23 17:57:45.121797,392
2021-12-23 17:57:45.121807,403
2021-12-23 17:57:45.121817,411
2021-12-23 17:57:45.121827,411
2021-12-23 17:57:45.121837,389
2021-12-23 17:57:45.121847,339
2021-12-23 17:57:45.121857,268
2021-12-23 17:57:45.121867,185
2021-12-23 17:57:45.121877,90
2021-12-23 17:57:45.121887,2
2021-12-23 17:57:45.121896,-68
2021-12-23 17:57:45.121906,-133
2021-12-23 17:57:45.121916,-185
2021-12-23 17:57:45.346564,-211
2021-12-23 17:57:45.346594,-223
2021-12-23 17:57:45.346606,-240
2021-12-23 17:57:45.346616,-237
2021-12-23 17:57:45.346626,-223
2021-12-23 17:57:45.346636,-216
2021-12-23 17:57:45.346646,-204
2021-12-23 17:57:45.346656,-182
2021-12-23 17:57:45.346665,-168
2021-12-23 17:57:45.346675,-159
2021-12-23 17:57:45.346685,-147
2021-12-23 17:57:45.346695,-135
2021-12-23 17:57:45.346705,-125
2021-12-23 17:57:45.346715,-121
2021-12-23 17:57:45.346725,-118
2021-12-23 17:57:45.346734,-114
2021-12-23 17:57:45.346744,-114
2021-12-23 17:57:45.346754,-118
2021-12-23 17:57:45.346764,-125
2021-12-23 17:57:45.346773,-133
2021-12-23 17:57:45.346783,-128
2021-12-23 17:57:45.346793,-118
2021-12-23 17:57:45.346803,-114
2021-12-23 17:57:45.346812,-111
2021-12-23 17:57:45.346822,-111
2021-12-23 17:57:45.346832,-111
2021-12-23 17:57:45.346842,-106
2021-12-23 17:57:45.346851,-102
2021-12-23 17:57:45.346861,-99
2021-12-23 17:57:45.346871,-99
2021-12-23 17:57:45.615385,-95
2021-12-23 17:57:45.615416,-87
2021-12-23 17:57:45.615428,-80
2021-12-23 17:57:45.615438,-73
2021-12-23 17:57:45.615448,-66
2021-12-23 17:57:45.615458,-66
2021-12-23 17:57:45.615467,-71
2021-12-23 17:57:45.615477,-73
2021-12-23 17:57:45.615487,-64
2021-12-23 17:57:45.615497,-42
2021-12-23 17:57:45.615506,-23
2021-12-23 17:57:45.615516,-11
2021-12-23 17:57:45.615526,2
2021-12-23 17:57:45.615536,16
2021-12-23 17:57:45.615546,0
2021-12-23 17:57:45.615555,-33
2021-12-23 17:57:45.615565,-45
2021-12-23 17:57:45.615575,-35
2021-12-23 17:57:45.615584,-28
2021-12-23 17:57:45.615594,-23
2021-12-23 17:57:45.615604,-19
2021-12-23 17:57:45.615613,-14
2021-12-23 17:57:45.615623,-19
2021-12-23 17:57:45.615632,-40
2021-12-23 17:57:45.615642,-57
2021-12-23 17:57:45.615652,95
2021-12-23 17:57:45.615661,701
2021-12-23 17:57:45.615671,1727
2021-12-23 17:57:45.615680,2587
2021-12-23 17:57:45.615690,2392
2021-12-23 17:57:45.796604,717
2021-12-23 17:57:45.796634,-791
2021-12-23 17:57:45.796646,-458
2021-12-23 17:57:45.796656,166
2021-12-23 17:57:45.796666,-130
2021-12-23 17:57:45.796675,-249
2021-12-23 17:57:45.796685,-33
2021-12-23 17:57:45.796695,-76
2021-12-23 17:57:45.796704,-142
2021-12-23 17:57:45.796713,-49
2021-12-23 17:57:45.796723,-16
2021-12-23 17:57:45.796733,-30
2021-12-23 17:57:45.796742,7
2021-12-23 17:57:45.796752,45
2021-12-23 17:57:45.796762,59
2021-12-23 17:57:45.796771,87
2021-12-23 17:57:45.796781,123
2021-12-23 17:57:45.796790,152
2021-12-23 17:57:45.796800,185
2021-12-23 17:57:45.796810,230
2021-12-23 17:57:45.796819,275
2021-12-23 17:57:45.796829,316
2021-12-23 17:57:45.796838,354
2021-12-23 17:57:45.796848,389
2021-12-23 17:57:45.796858,422
2021-12-23 17:57:45.796867,446
2021-12-23 17:57:45.796877,458
2021-12-23 17:57:45.796886,458
2021-12-23 17:57:45.796896,444
2021-12-23 17:57:45.796906,399
2021-12-23 17:57:46.021226,323
2021-12-23 17:57:46.021249,228
2021-12-23 17:57:46.021257,125
2021-12-23 17:57:46.021264,30
2021-12-23 17:57:46.021270,-49
2021-12-23 17:57:46.021276,-114
2021-12-23 17:57:46.021283,-166
2021-12-23 17:57:46.021289,-199
2021-12-23 17:57:46.021295,-220
2021-12-23 17:57:46.021301,-235
2021-12-23 17:57:46.021307,-240
2021-12-23 17:57:46.021314,-230
2021-12-23 17:57:46.021320,-220
2021-12-23 17:57:46.021326,-213
2021-12-23 17:57:46.021332,-201
2021-12-23 17:57:46.021338,-182
2021-12-23 17:57:46.021345,-161
2021-12-23 17:57:46.021351,-142
2021-12-23 17:57:46.021357,-128
2021-12-23 17:57:46.021363,-118
2021-12-23 17:57:46.021369,-114
2021-12-23 17:57:46.021376,-114
2021-12-23 17:57:46.021382,-97
2021-12-23 17:57:46.021396,-76
2021-12-23 17:57:46.021402,-85
2021-12-23 17:57:46.021409,-95
2021-12-23 17:57:46.021415,-83
2021-12-23 17:57:46.021421,-76
2021-12-23 17:57:46.021428,-95
2021-12-23 17:57:46.021434,-104
2021-12-23 17:57:46.290689,-87
2021-12-23 17:57:46.290712,-78
2021-12-23 17:57:46.290720,-83
2021-12-23 17:57:46.290726,-83
2021-12-23 17:57:46.290733,-80
2021-12-23 17:57:46.290739,-85
2021-12-23 17:57:46.290745,-97
2021-12-23 17:57:46.290751,-99
2021-12-23 17:57:46.290758,-83
2021-12-23 17:57:46.290764,-71
2021-12-23 17:57:46.290770,-83
2021-12-23 17:57:46.290776,-90
2021-12-23 17:57:46.290782,-57
2021-12-23 17:57:46.290789,-35
2021-12-23 17:57:46.290795,-45
2021-12-23 17:57:46.290801,-45
2021-12-23 17:57:46.290808,-35
2021-12-23 17:57:46.290814,-38
2021-12-23 17:57:46.290820,-45
2021-12-23 17:57:46.290826,-45
2021-12-23 17:57:46.290833,-35
2021-12-23 17:57:46.290839,-16
2021-12-23 17:57:46.290845,0
2021-12-23 17:57:46.290852,14
2021-12-23 17:57:46.290858,28
2021-12-23 17:57:46.290864,42
2021-12-23 17:57:46.290870,59
2021-12-23 17:57:46.290877,59
2021-12-23 17:57:46.290883,28
2021-12-23 17:57:46.290889,-2
2021-12-23 17:57:46.516527,-14
2021-12-23 17:57:46.516549,-7
2021-12-23 17:57:46.516557,0
2021-12-23 17:57:46.516563,2
2021-12-23 17:57:46.516570,2
2021-12-23 17:57:46.516576,-4
2021-12-23 17:57:46.516582,-21
2021-12-23 17:57:46.516589,-42
2021-12-23 17:57:46.516595,47
2021-12-23 17:57:46.516601,527
2021-12-23 17:57:46.516608,1473
2021-12-23 17:57:46.516615,2397
2021-12-23 17:57:46.516623,2492
2021-12-23 17:57:46.516629,1169
2021-12-23 17:57:46.516635,-506
2021-12-23 17:57:46.516641,-596
2021-12-23 17:57:46.516647,106
2021-12-23 17:57:46.516654,-21
2021-12-23 17:57:46.516660,-266
2021-12-23 17:57:46.516666,-73
2021-12-23 17:57:46.516672,-23
2021-12-23 17:57:46.516679,-111
2021-12-23 17:57:46.516685,-64
2021-12-23 17:57:46.516691,-14
2021-12-23 17:57:46.516697,-21
2021-12-23 17:57:46.516703,4
2021-12-23 17:57:46.516709,38
2021-12-23 17:57:46.516716,47
2021-12-23 17:57:46.516722,71
2021-12-23 17:57:46.516728,118
2021-12-23 17:57:46.696752,156
2021-12-23 17:57:46.696783,180
2021-12-23 17:57:46.696795,209
2021-12-23 17:57:46.696805,244
2021-12-23 17:57:46.696815,289
2021-12-23 17:57:46.696825,344
2021-12-23 17:57:46.696835,377
2021-12-23 17:57:46.696844,408
2021-12-23 17:57:46.696854,437
2021-12-23 17:57:46.696863,444
2021-12-23 17:57:46.696873,437
2021-12-23 17:57:46.696883,427
2021-12-23 17:57:46.696892,408
2021-12-23 17:57:46.696902,358
2021-12-23 17:57:46.696911,273
2021-12-23 17:57:46.696921,168
2021-12-23 17:57:46.696930,68
2021-12-23 17:57:46.696940,-9
2021-12-23 17:57:46.696949,-68
2021-12-23 17:57:46.696959,-123
2021-12-23 17:57:46.696968,-166
2021-12-23 17:57:46.696978,-190
2021-12-23 17:57:46.696987,-206
2021-12-23 17:57:46.696997,-220
2021-12-23 17:57:46.697006,-209
2021-12-23 17:57:46.697015,-187
2021-12-23 17:57:46.697025,-187
2021-12-23 17:57:46.697034,-185
2021-12-23 17:57:46.697044,-166
2021-12-23 17:57:46.697053,-152
2021-12-23 17:57:47.011385,-149
2021-12-23 17:57:47.011418,-130
2021-12-23 17:57:47.011430,-102
2021-12-23 17:57:47.011440,-104
2021-12-23 17:57:47.011450,-116
2021-12-23 17:57:47.011459,-102
2021-12-23 17:57:47.011469,-97
2021-12-23 17:57:47.011479,-109
2021-12-23 17:57:47.011489,-109
2021-12-23 17:57:47.011499,-104
2021-12-23 17:57:47.011508,-102
2021-12-23 17:57:47.011518,-95
2021-12-23 17:57:47.011528,-95
2021-12-23 17:57:47.011538,-99
2021-12-23 17:57:47.011547,-104
2021-12-23 17:57:47.011557,-97
2021-12-23 17:57:47.011567,-83
2021-12-23 17:57:47.011576,-73
2021-12-23 17:57:47.011586,-73
2021-12-23 17:57:47.011596,-73
2021-12-23 17:57:47.011606,-68
2021-12-23 17:57:47.011615,-61
2021-12-23 17:57:47.011625,-59
2021-12-23 17:57:47.011635,-59
2021-12-23 17:57:47.011644,-54
2021-12-23 17:57:47.011654,-59
2021-12-23 17:57:47.011664,-59
2021-12-23 17:57:47.011674,-40
2021-12-23 17:57:47.011683,-23
2021-12-23 17:57:47.011693,-30
2021-12-23 17:57:47.191745,-28
2021-12-23 17:57:47.191776,-11
2021-12-23 17:57:47.191788,-21
2021-12-23 17:57:47.191799,-35
2021-12-23 17:57:47.191808,-21
2021-12-23 17:57:47.191818,-4
2021-12-23 17:57:47.191827,-4
2021-12-23 17:57:47.191837,-7
2021-12-23 17:57:47.191846,-14
2021-12-23 17:57:47.191856,-30
2021-12-23 17:57:47.191866,-26
2021-12-23 17:57:47.191875,-2
2021-12-23 17:57:47.191885,21
2021-12-23 17:57:47.191894,42
2021-12-23 17:57:47.191904,52
2021-12-23 17:57:47.191913,61
2021-12-23 17:57:47.191923,57
2021-12-23 17:57:47.191932,16
2021-12-23 17:57:47.191942,-23
2021-12-23 17:57:47.191951,-14
2021-12-23 17:57:47.191961,-9
2021-12-23 17:57:47.191971,-35
2021-12-23 17:57:47.191981,-26
2021-12-23 17:57:47.191990,21
2021-12-23 17:57:47.192000,21
2021-12-23 17:57:47.192010,-21
2021-12-23 17:57:47.192019,-47
2021-12-23 17:57:47.192029,-9
2021-12-23 17:57:47.192038,263
2021-12-23 17:57:47.192048,1007
2021-12-23 17:57:47.461582,2000
2021-12-23 17:57:47.461612,2447
2021-12-23 17:57:47.461624,1556
2021-12-23 17:57:47.461635,-161
2021-12-23 17:57:47.461644,-741
2021-12-23 17:57:47.461654,-57
2021-12-23 17:57:47.461664,83
2021-12-23 17:57:47.461673,-225
2021-12-23 17:57:47.461683,-123
2021-12-23 17:57:47.461693,-35
2021-12-23 17:57:47.461702,-147
2021-12-23 17:57:47.461711,-118
2021-12-23 17:57:47.461721,-35
2021-12-23 17:57:47.461730,-49
2021-12-23 17:57:47.461740,-57
2021-12-23 17:57:47.461750,-9
2021-12-23 17:57:47.461759,42
2021-12-23 17:57:47.461769,66
2021-12-23 17:57:47.461778,68
2021-12-23 17:57:47.461788,87
2021-12-23 17:57:47.461798,128
2021-12-23 17:57:47.461807,173
2021-12-23 17:57:47.461816,220
2021-12-23 17:57:47.461826,270
2021-12-23 17:57:47.461836,304
2021-12-23 17:57:47.461845,337
2021-12-23 17:57:47.461855,377
2021-12-23 17:57:47.461864,396
2021-12-23 17:57:47.461874,413
2021-12-23 17:57:47.461888,441
2021-12-23 17:57:47.685420,449
2021-12-23 17:57:47.685451,411
2021-12-23 17:57:47.685463,368
2021-12-23 17:57:47.685473,325
2021-12-23 17:57:47.685483,225
2021-12-23 17:57:47.685493,123
2021-12-23 17:57:47.685503,83
2021-12-23 17:57:47.685512,16
2021-12-23 17:57:47.685522,-106
2021-12-23 17:57:47.685532,-182
2021-12-23 17:57:47.685542,-194
2021-12-23 17:57:47.685552,-201
2021-12-23 17:57:47.685562,-218
2021-12-23 17:57:47.685572,-220
2021-12-23 17:57:47.685581,-213
2021-12-23 17:57:47.685591,-204
2021-12-23 17:57:47.685601,-187
2021-12-23 17:57:47.685610,-178
2021-12-23 17:57:47.685620,-187
2021-12-23 17:57:47.685630,-190
2021-12-23 17:57:47.685640,-182
2021-12-23 17:57:47.685649,-154
2021-12-23 17:57:47.685659,-111
2021-12-23 17:57:47.685669,-102
2021-12-23 17:57:47.685679,-130
2021-12-23 17:57:47.685688,-128
2021-12-23 17:57:47.685698,-97
2021-12-23 17:57:47.685708,-95
2021-12-23 17:57:47.685717,-111
2021-12-23 17:57:47.685727,-109
2021-12-23 17:57:47.955999,-106
2021-12-23 17:57:47.956030,-102
2021-12-23 17:57:47.956042,-83
2021-12-23 17:57:47.956052,-87
2021-12-23 17:57:47.956062,-111
2021-12-23 17:57:47.956071,-95
2021-12-23 17:57:47.956081,-76
2021-12-23 17:57:47.956090,-85
2021-12-23 17:57:47.956100,-99
2021-12-23 17:57:47.956110,-102
2021-12-23 17:57:47.956119,-78
2021-12-23 17:57:47.956129,-49
2021-12-23 17:57:47.956139,-52
2021-12-23 17:57:47.956148,-73
2021-12-23 17:57:47.956158,-76
2021-12-23 17:57:47.956168,-64
2021-12-23 17:57:47.956177,-78
2021-12-23 17:57:47.956187,-102
2021-12-23 17:57:47.956197,-73
2021-12-23 17:57:47.956206,-45
2021-12-23 17:57:47.956216,-73
2021-12-23 17:57:47.956226,-78
2021-12-23 17:57:47.956235,-26
2021-12-23 17:57:47.956245,2
2021-12-23 17:57:47.956255,-4
2021-12-23 17:57:47.956265,14
2021-12-23 17:57:47.956274,26
2021-12-23 17:57:47.956284,-21
2021-12-23 17:57:47.956294,-47
2021-12-23 17:57:47.956303,-35
2021-12-23 17:57:48.136758,-47
2021-12-23 17:57:48.136780,-57
2021-12-23 17:57:48.136788,-40
2021-12-23 17:57:48.136814,-19
2021-12-23 17:57:48.136823,-14
2021-12-23 17:57:48.136833,-42
2021-12-23 17:57:48.136842,-54
2021-12-23 17:57:48.136852,-42
2021-12-23 17:57:48.136861,97
2021-12-23 17:57:48.136871,686
2021-12-23 17:57:48.136881,1680
2021-12-23 17:57:48.136890,2438
2021-12-23 17:57:48.136900,2110
2021-12-23 17:57:48.136909,465
2021-12-23 17:57:48.136919,-800
2021-12-23 17:57:48.136929,-373
2021-12-23 17:57:48.136938,161
2021-12-23 17:57:48.136948,-142
2021-12-23 17:57:48.136957,-235
2021-12-23 17:57:48.136967,-42
2021-12-23 17:57:48.136976,-85
2021-12-23 17:57:48.136986,-142
2021-12-23 17:57:48.136995,-49
2021-12-23 17:57:48.137005,-7
2021-12-23 17:57:48.137014,-9
2021-12-23 17:57:48.137023,19
2021-12-23 17:57:48.137033,38
2021-12-23 17:57:48.137042,42
2021-12-23 17:57:48.137052,68
2021-12-23 17:57:48.137062,111
2021-12-23 17:57:48.316506,154
2021-12-23 17:57:48.316528,190
2021-12-23 17:57:48.316535,232
2021-12-23 17:57:48.316542,278
2021-12-23 17:57:48.316548,311
2021-12-23 17:57:48.316555,356
2021-12-23 17:57:48.316561,396
2021-12-23 17:57:48.316567,399
2021-12-23 17:57:48.316574,430
2021-12-23 17:57:48.316580,501
2021-12-23 17:57:48.316586,499
2021-12-23 17:57:48.316592,418
2021-12-23 17:57:48.316599,384
2021-12-23 17:57:48.316605,370
2021-12-23 17:57:48.316611,242
2021-12-23 17:57:48.316618,78
2021-12-23 17:57:48.316624,14
2021-12-23 17:57:48.316630,-35
2021-12-23 17:57:48.316636,-135
2021-12-23 17:57:48.316643,-194
2021-12-23 17:57:48.316649,-225
2021-12-23 17:57:48.316657,-261
2021-12-23 17:57:48.316663,-273
2021-12-23 17:57:48.316669,-256
2021-12-23 17:57:48.316676,-251
2021-12-23 17:57:48.316682,-244
2021-12-23 17:57:48.316688,-216
2021-12-23 17:57:48.316695,-213
2021-12-23 17:57:48.316701,-218
2021-12-23 17:57:48.316707,-185
2021-12-23 17:57:48.541193,-152
2021-12-23 17:57:48.541217,-154
2021-12-23 17:57:48.541225,-152
2021-12-23 17:57:48.541232,-135
2021-12-23 17:57:48.541238,-142
2021-12-23 17:57:48.541244,-144
2021-12-23 17:57:48.541251,-111
2021-12-23 17:57:48.541257,-85
2021-12-23 17:57:48.541263,-87
2021-12-23 17:57:48.541269,-97
2021-12-23 17:57:48.541276,-104
2021-12-23 17:57:48.541282,-128
2021-12-23 17:57:48.541288,-137
2021-12-23 17:57:48.541294,-116
2021-12-23 17:57:48.541301,-83
2021-12-23 17:57:48.541307,-68
2021-12-23 17:57:48.541313,-102
2021-12-23 17:57:48.541319,-123
2021-12-23 17:57:48.541326,-95
2021-12-23 17:57:48.541332,-87
2021-12-23 17:57:48.541338,-90
2021-12-23 17:57:48.541344,-64
2021-12-23 17:57:48.541351,-42
2021-12-23 17:57:48.541357,-54
2021-12-23 17:57:48.541363,-78
2021-12-23 17:57:48.541369,-71
2021-12-23 17:57:48.541375,-52
2021-12-23 17:57:48.541382,-61
2021-12-23 17:57:48.541388,-61
2021-12-23 17:57:48.541394,-16
2021-12-23 17:57:48.811803,-2
2021-12-23 17:57:48.811833,-52
2021-12-23 17:57:48.811845,-57
2021-12-23 17:57:48.811855,-9
2021-12-23 17:57:48.811865,-7
2021-12-23 17:57:48.811875,-23
2021-12-23 17:57:48.811884,-14
2021-12-23 17:57:48.811894,-11
2021-12-23 17:57:48.811904,-14
2021-12-23 17:57:48.811913,11
2021-12-23 17:57:48.811923,45
2021-12-23 17:57:48.811934,33
2021-12-23 17:57:48.811943,9
2021-12-23 17:57:48.811953,19
2021-12-23 17:57:48.811963,16
2021-12-23 17:57:48.811972,4
2021-12-23 17:57:48.811982,19
2021-12-23 17:57:48.811992,14
2021-12-23 17:57:48.812001,-38
2021-12-23 17:57:48.812011,-49
2021-12-23 17:57:48.812021,21
2021-12-23 17:57:48.812031,45
2021-12-23 17:57:48.812040,-16
2021-12-23 17:57:48.812050,-54
2021-12-23 17:57:48.812060,26
2021-12-23 17:57:48.812070,354
2021-12-23 17:57:48.812079,1102
2021-12-23 17:57:48.812089,2100
2021-12-23 17:57:48.812099,2635
2021-12-23 17:57:48.812109,1786
2021-12-23 17:57:49.081787,-104
2021-12-23 17:57:49.081819,-826
2021-12-23 17:57:49.081831,-59
2021-12-23 17:57:49.081841,149
2021-12-23 17:57:49.081850,-220
2021-12-23 17:57:49.081860,-142
2021-12-23 17:57:49.081870,-26
2021-12-23 17:57:49.081880,-118
2021-12-23 17:57:49.081889,-97
2021-12-23 17:57:49.081899,-26
2021-12-23 17:57:49.081909,-49
2021-12-23 17:57:49.081919,-52
2021-12-23 17:57:49.081928,26
2021-12-23 17:57:49.081938,71
2021-12-23 17:57:49.081948,54
2021-12-23 17:57:49.081958,61
2021-12-23 17:57:49.081967,125
2021-12-23 17:57:49.081977,182
2021-12-23 17:57:49.081987,185
2021-12-23 17:57:49.081997,209
2021-12-23 17:57:49.082007,278
2021-12-23 17:57:49.082017,301
2021-12-23 17:57:49.082026,316
2021-12-23 17:57:49.082036,389
2021-12-23 17:57:49.082046,453
2021-12-23 17:57:49.082055,453
2021-12-23 17:57:49.082065,434
2021-12-23 17:57:49.082075,434
2021-12-23 17:57:49.082090,434
2021-12-23 17:57:49.082100,401
2021-12-23 17:57:49.261562,320
2021-12-23 17:57:49.261592,213
2021-12-23 17:57:49.261604,97
2021-12-23 17:57:49.261614,7
2021-12-23 17:57:49.261623,-49
2021-12-23 17:57:49.261633,-123
2021-12-23 17:57:49.261643,-206
2021-12-23 17:57:49.261653,-218
2021-12-23 17:57:49.261662,-192
2021-12-23 17:57:49.261672,-230
2021-12-23 17:57:49.261682,-270
2021-12-23 17:57:49.261691,-228
2021-12-23 17:57:49.261701,-197
2021-12-23 17:57:49.261711,-232
2021-12-23 17:57:49.261720,-225
2021-12-23 17:57:49.261730,-152
2021-12-23 17:57:49.261740,-137
2021-12-23 17:57:49.261749,-173
2021-12-23 17:57:49.261759,-152
2021-12-23 17:57:49.261769,-111
2021-12-23 17:57:49.261778,-109
2021-12-23 17:57:49.261788,-111
2021-12-23 17:57:49.261797,-111
2021-12-23 17:57:49.261807,-106
2021-12-23 17:57:49.261817,-92
2021-12-23 17:57:49.261826,-76
2021-12-23 17:57:49.261836,-78
2021-12-23 17:57:49.261845,-111
2021-12-23 17:57:49.261855,-114
2021-12-23 17:57:49.261864,-78
2021-12-23 17:57:49.486581,-73
2021-12-23 17:57:49.486611,-90
2021-12-23 17:57:49.486622,-90
2021-12-23 17:57:49.486633,-104
2021-12-23 17:57:49.486643,-118
2021-12-23 17:57:49.486652,-92
2021-12-23 17:57:49.486662,-64
2021-12-23 17:57:49.486671,-73
2021-12-23 17:57:49.486681,-102
2021-12-23 17:57:49.486691,-95
2021-12-23 17:57:49.486700,-49
2021-12-23 17:57:49.486710,-33
2021-12-23 17:57:49.486719,-71
2021-12-23 17:57:49.486729,-76
2021-12-23 17:57:49.486739,-38
2021-12-23 17:57:49.486748,-49
2021-12-23 17:57:49.486758,-87
2021-12-23 17:57:49.486767,-59
2021-12-23 17:57:49.486777,-11
2021-12-23 17:57:49.486787,-14
2021-12-23 17:57:49.486796,-47
2021-12-23 17:57:49.486806,-52
2021-12-23 17:57:49.486815,-23
2021-12-23 17:57:49.486825,11
2021-12-23 17:57:49.486834,23
2021-12-23 17:57:49.486844,21
2021-12-23 17:57:49.486854,26
2021-12-23 17:57:49.486863,35
2021-12-23 17:57:49.486873,4
2021-12-23 17:57:49.486882,-45
2021-12-23 17:57:49.755260,-52
2021-12-23 17:57:49.755291,-19
2021-12-23 17:57:49.755303,11
2021-12-23 17:57:49.755313,4
2021-12-23 17:57:49.755323,-21
2021-12-23 17:57:49.755333,-16
2021-12-23 17:57:49.755342,-21
2021-12-23 17:57:49.755352,-76
2021-12-23 17:57:49.755362,35
2021-12-23 17:57:49.755372,605
2021-12-23 17:57:49.755382,1570
2021-12-23 17:57:49.755391,2404
2021-12-23 17:57:49.755401,2359
2021-12-23 17:57:49.755411,971
2021-12-23 17:57:49.755421,-560
2021-12-23 17:57:49.755431,-506
2021-12-23 17:57:49.755440,130
2021-12-23 17:57:49.755450,-57
2021-12-23 17:57:49.755460,-249
2021-12-23 17:57:49.755470,-73
2021-12-23 17:57:49.755480,-85
2021-12-23 17:57:49.755489,-142
2021-12-23 17:57:49.755499,-40
2021-12-23 17:57:49.755509,-14
2021-12-23 17:57:49.755519,-45
2021-12-23 17:57:49.755528,19
2021-12-23 17:57:49.755538,64
2021-12-23 17:57:49.755548,52
2021-12-23 17:57:49.755558,85
2021-12-23 17:57:49.755568,133
2021-12-23 17:57:49.936745,147
2021-12-23 17:57:49.936767,152
2021-12-23 17:57:49.936775,182
2021-12-23 17:57:49.936782,251
2021-12-23 17:57:49.936808,304
2021-12-23 17:57:49.936818,320
2021-12-23 17:57:49.936828,358
2021-12-23 17:57:49.936837,420
2021-12-23 17:57:49.936847,456
2021-12-23 17:57:49.936857,456
2021-12-23 17:57:49.936866,465
2021-12-23 17:57:49.936876,468
2021-12-23 17:57:49.936886,403
2021-12-23 17:57:49.936896,330
2021-12-23 17:57:49.936906,261
2021-12-23 17:57:49.936916,135
2021-12-23 17:57:49.936925,14
2021-12-23 17:57:49.936935,-47
2021-12-23 17:57:49.936945,-106
2021-12-23 17:57:49.936955,-178
2021-12-23 17:57:49.936964,-218
2021-12-23 17:57:49.936974,-232
2021-12-23 17:57:49.936984,-242
2021-12-23 17:57:49.936993,-249
2021-12-23 17:57:49.937003,-247
2021-12-23 17:57:49.937013,-232
2021-12-23 17:57:49.937023,-216
2021-12-23 17:57:49.937032,-201
2021-12-23 17:57:49.937042,-204
2021-12-23 17:57:49.937052,-206
2021-12-23 17:57:50.161589,-173
2021-12-23 17:57:50.161621,-128
2021-12-23 17:57:50.161633,-125
2021-12-23 17:57:50.161643,-133
2021-12-23 17:57:50.161653,-114
2021-12-23 17:57:50.161662,-106
2021-12-23 17:57:50.161672,-121
2021-12-23 17:57:50.161682,-116
2021-12-23 17:57:50.161691,-109
2021-12-23 17:57:50.161701,-123
2021-12-23 17:57:50.161711,-137
2021-12-23 17:57:50.161721,-123
2021-12-23 17:57:50.161731,-80
2021-12-23 17:57:50.161740,-71
2021-12-23 17:57:50.161750,-90
2021-12-23 17:57:50.161760,-90
2021-12-23 17:57:50.161770,-85
2021-12-23 17:57:50.161779,-90
2021-12-23 17:57:50.161789,-87
2021-12-23 17:57:50.161799,-85
2021-12-23 17:57:50.161808,-87
2021-12-23 17:57:50.161818,-80
2021-12-23 17:57:50.161828,-64
2021-12-23 17:57:50.161838,-61
2021-12-23 17:57:50.161847,-71
2021-12-23 17:57:50.161857,-66
2021-12-23 17:57:50.161867,-49
2021-12-23 17:57:50.161876,-40
2021-12-23 17:57:50.161886,-52
2021-12-23 17:57:50.161896,-61
2021-12-23 17:57:50.386581,-52
2021-12-23 17:57:50.386611,-35
2021-12-23 17:57:50.386623,-33
2021-12-23 17:57:50.386634,-38
2021-12-23 17:57:50.386644,-26
2021-12-23 17:57:50.386654,-9
2021-12-23 17:57:50.386663,-30
2021-12-23 17:57:50.386673,-57
2021-12-23 17:57:50.386683,-40
2021-12-23 17:57:50.386693,-11
2021-12-23 17:57:50.386702,-19
2021-12-23 17:57:50.386712,-33
2021-12-23 17:57:50.386722,-11
2021-12-23 17:57:50.386731,7
2021-12-23 17:57:50.386741,-2
2021-12-23 17:57:50.386751,4
2021-12-23 17:57:50.386761,26
2021-12-23 17:57:50.386770,33
2021-12-23 17:57:50.386780,11
2021-12-23 17:57:50.386790,-21
2021-12-23 17:57:50.386800,-28
2021-12-23 17:57:50.386810,-9
2021-12-23 17:57:50.386820,-11
2021-12-23 17:57:50.386830,-16
2021-12-23 17:57:50.386839,0
2021-12-23 17:57:50.386849,2
2021-12-23 17:57:50.386859,-7
2021-12-23 17:57:50.386868,-30
2021-12-23 17:57:50.386878,4
2021-12-23 17:57:50.386888,356
2021-12-23 17:57:50.746558,1185
2021-12-23 17:57:50.746588,2157
2021-12-23 17:57:50.746600,2535
2021-12-23 17:57:50.746610,1582
2021-12-23 17:57:50.746620,-149
2021-12-23 17:57:50.746630,-655
2021-12-23 17:57:50.746640,28
2021-12-23 17:57:50.746649,78
2021-12-23 17:57:50.746659,-259
2021-12-23 17:57:50.746669,-130
2021-12-23 17:57:50.746678,-11
2021-12-23 17:57:50.746688,-85
2021-12-23 17:57:50.746697,-61
2021-12-23 17:57:50.746707,-11
2021-12-23 17:57:50.746717,-28
2021-12-23 17:57:50.746727,-9
2021-12-23 17:57:50.746736,30
2021-12-23 17:57:50.746746,45
2021-12-23 17:57:50.746755,64
2021-12-23 17:57:50.746765,102
2021-12-23 17:57:50.746775,142
2021-12-23 17:57:50.746784,187
2021-12-23 17:57:50.746794,220
2021-12-23 17:57:50.746804,242
2021-12-23 17:57:50.746813,278
2021-12-23 17:57:50.746823,318
2021-12-23 17:57:50.746833,361
2021-12-23 17:57:50.746842,411
2021-12-23 17:57:50.746852,444
2021-12-23 17:57:50.746862,458
2021-12-23 17:57:50.881566,461
2021-12-23 17:57:50.881597,441
2021-12-23 17:57:50.881609,413
2021-12-23 17:57:50.881619,387
2021-12-23 17:57:50.881629,327
2021-12-23 17:57:50.881639,230
2021-12-23 17:57:50.881649,133
2021-12-23 17:57:50.881659,49
2021-12-23 17:57:50.881668,-33
2021-12-23 17:57:50.881678,-111
2021-12-23 17:57:50.881688,-149
2021-12-23 17:57:50.881698,-171
2021-12-23 17:57:50.881708,-204
2021-12-23 17:57:50.881718,-199
2021-12-23 17:57:50.881728,-187
2021-12-23 17:57:50.881738,-211
2021-12-23 17:57:50.881747,-220
2021-12-23 17:57:50.881757,-197
2021-12-23 17:57:50.881767,-173
2021-12-23 17:57:50.881777,-152
2021-12-23 17:57:50.881788,-147
2021-12-23 17:57:50.881804,-161
2021-12-23 17:57:50.881820,-152
2021-12-23 17:57:50.881849,-118
2021-12-23 17:57:50.881868,-99
2021-12-23 17:57:50.881884,-106
2021-12-23 17:57:50.881902,-121
2021-12-23 17:57:50.881919,-109
2021-12-23 17:57:50.881936,-78
2021-12-23 17:57:50.881954,-76
2021-12-23 17:57:51.196540,-92
2021-12-23 17:57:51.196570,-102
2021-12-23 17:57:51.196582,-97
2021-12-23 17:57:51.196592,-76
2021-12-23 17:57:51.196602,-66
2021-12-23 17:57:51.196611,-76
2021-12-23 17:57:51.196620,-83
2021-12-23 17:57:51.196630,-80
2021-12-23 17:57:51.196639,-83
2021-12-23 17:57:51.196649,-83
2021-12-23 17:57:51.196658,-80
2021-12-23 17:57:51.196668,-78
2021-12-23 17:57:51.196678,-78
2021-12-23 17:57:51.196687,-87
2021-12-23 17:57:51.196696,-99
2021-12-23 17:57:51.196706,-90
2021-12-23 17:57:51.196715,-64
2021-12-23 17:57:51.196724,-54
2021-12-23 17:57:51.196734,-49
2021-12-23 17:57:51.196744,-38
2021-12-23 17:57:51.196753,-42
2021-12-23 17:57:51.196763,-57
2021-12-23 17:57:51.196772,-52
2021-12-23 17:57:51.196781,-40
2021-12-23 17:57:51.196791,-35
2021-12-23 17:57:51.196800,-30
2021-12-23 17:57:51.196810,-26
2021-12-23 17:57:51.196819,-23
2021-12-23 17:57:51.196828,-2
2021-12-23 17:57:51.196838,4
2021-12-23 17:57:51.331449,-4
2021-12-23 17:57:51.331470,-4
2021-12-23 17:57:51.331478,2
2021-12-23 17:57:51.331485,4
2021-12-23 17:57:51.331491,11
2021-12-23 17:57:51.331497,33
2021-12-23 17:57:51.331504,52
2021-12-23 17:57:51.331510,64
2021-12-23 17:57:51.331516,66
2021-12-23 17:57:51.331522,33
2021-12-23 17:57:51.331529,4
2021-12-23 17:57:51.331535,7
2021-12-23 17:57:51.331541,7
2021-12-23 17:57:51.331547,0
2021-12-23 17:57:51.331554,-7
2021-12-23 17:57:51.331560,2
2021-12-23 17:57:51.331566,9
2021-12-23 17:57:51.331572,-7
2021-12-23 17:57:51.331579,-35
2021-12-23 17:57:51.331585,-28
2021-12-23 17:57:51.331603,197
2021-12-23 17:57:51.331610,891
2021-12-23 17:57:51.331616,1879
2021-12-23 17:57:51.331622,2449
2021-12-23 17:57:51.331629,1758
2021-12-23 17:57:51.331635,19
2021-12-23 17:57:51.331641,-819
2021-12-23 17:57:51.331648,-197
2021-12-23 17:57:51.331654,95
2021-12-23 17:57:51.331660,-206
2021-12-23 17:57:51.556576,-163
2021-12-23 17:57:51.556606,-38
2021-12-23 17:57:51.556618,-111
2021-12-23 17:57:51.556628,-102
2021-12-23 17:57:51.556638,-38
2021-12-23 17:57:51.556648,-57
2021-12-23 17:57:51.556658,-52
2021-12-23 17:57:51.556667,7
2021-12-23 17:57:51.556677,28
2021-12-23 17:57:51.556687,33
2021-12-23 17:57:51.556696,85
2021-12-23 17:57:51.556706,123
2021-12-23 17:57:51.556715,128
2021-12-23 17:57:51.556725,168
2021-12-23 17:57:51.556734,240
2021-12-23 17:57:51.556744,270
2021-12-23 17:57:51.556753,282
2021-12-23 17:57:51.556763,320
2021-12-23 17:57:51.556772,358
2021-12-23 17:57:51.556782,380
2021-12-23 17:57:51.556791,401
2021-12-23 17:57:51.556801,418
2021-12-23 17:57:51.556810,418
2021-12-23 17:57:51.556820,401
2021-12-23 17:57:51.556829,368
2021-12-23 17:57:51.556839,313
2021-12-23 17:57:51.556849,244
2021-12-23 17:57:51.556858,156
2021-12-23 17:57:51.556868,64
2021-12-23 17:57:51.556877,-16
2021-12-23 17:57:51.825192,-80
2021-12-23 17:57:51.825222,-133
2021-12-23 17:57:51.825234,-171
2021-12-23 17:57:51.825244,-199
2021-12-23 17:57:51.825254,-211
2021-12-23 17:57:51.825264,-218
2021-12-23 17:57:51.825274,-225
2021-12-23 17:57:51.825283,-223
2021-12-23 17:57:51.825293,-213
2021-12-23 17:57:51.825303,-187
2021-12-23 17:57:51.825312,-163
2021-12-23 17:57:51.825322,-166
2021-12-23 17:57:51.825332,-168
2021-12-23 17:57:51.825341,-156
2021-12-23 17:57:51.825351,-144
2021-12-23 17:57:51.825361,-142
2021-12-23 17:57:51.825370,-142
2021-12-23 17:57:51.825380,-137
2021-12-23 17:57:51.825390,-130
2021-12-23 17:57:51.825399,-128
2021-12-23 17:57:51.825409,-125
2021-12-23 17:57:51.825419,-123
2021-12-23 17:57:51.825429,-123
2021-12-23 17:57:51.825438,-125
2021-12-23 17:57:51.825448,-128
2021-12-23 17:57:51.825458,-130
2021-12-23 17:57:51.825467,-133
2021-12-23 17:57:51.825477,-125
2021-12-23 17:57:51.825487,-121
2021-12-23 17:57:51.825496,-114
2021-12-23 17:57:52.006680,-102
2021-12-23 17:57:52.006712,-106
2021-12-23 17:57:52.006724,-118
2021-12-23 17:57:52.006734,-121
2021-12-23 17:57:52.006744,-121
2021-12-23 17:57:52.006753,-125
2021-12-23 17:57:52.006763,-125
2021-12-23 17:57:52.006773,-116
2021-12-23 17:57:52.006782,-111
2021-12-23 17:57:52.006792,-116
2021-12-23 17:57:52.006802,-125
2021-12-23 17:57:52.006811,-123
2021-12-23 17:57:52.006821,-111
2021-12-23 17:57:52.006830,-109
2021-12-23 17:57:52.006840,-111
2021-12-23 17:57:52.006850,-104
2021-12-23 17:57:52.006859,-97
2021-12-23 17:57:52.006869,-85
2021-12-23 17:57:52.006878,-61
2021-12-23 17:57:52.006888,-45
2021-12-23 17:57:52.006898,-33
2021-12-23 17:57:52.006907,-30
2021-12-23 17:57:52.006917,-49
2021-12-23 17:57:52.006926,-78
2021-12-23 17:57:52.006936,-95
2021-12-23 17:57:52.006946,-97
2021-12-23 17:57:52.006955,-99
2021-12-23 17:57:52.006965,-97
2021-12-23 17:57:52.006974,-76
2021-12-23 17:57:52.006984,-52
2021-12-23 17:57:52.231563,-45
2021-12-23 17:57:52.231584,-59
2021-12-23 17:57:52.231592,-73
2021-12-23 17:57:52.231599,102
2021-12-23 17:57:52.231605,743
2021-12-23 17:57:52.231611,1748
2021-12-23 17:57:52.231617,2464
2021-12-23 17:57:52.231624,1967
2021-12-23 17:57:52.231630,173
2021-12-23 17:57:52.231636,-943
2021-12-23 17:57:52.231642,-342
2021-12-23 17:57:52.231649,99
2021-12-23 17:57:52.231655,-235
2021-12-23 17:57:52.231661,-230
2021-12-23 17:57:52.231668,-38
2021-12-23 17:57:52.231674,-111
2021-12-23 17:57:52.231680,-140
2021-12-23 17:57:52.231686,-47
2021-12-23 17:57:52.231692,-38
2021-12-23 17:57:52.231699,-45
2021-12-23 17:57:52.231705,7
2021-12-23 17:57:52.231711,40
2021-12-23 17:57:52.231717,49
2021-12-23 17:57:52.231724,83
2021-12-23 17:57:52.231730,123
2021-12-23 17:57:52.231736,156
2021-12-23 17:57:52.231743,187
2021-12-23 17:57:52.231749,225
2021-12-23 17:57:52.231755,266
2021-12-23 17:57:52.231761,304
2021-12-23 17:57:52.681379,351
2021-12-23 17:57:52.681410,401
2021-12-23 17:57:52.681422,427
2021-12-23 17:57:52.681433,446
2021-12-23 17:57:52.681442,461
2021-12-23 17:57:52.681452,458
2021-12-23 17:57:52.681462,441
2021-12-23 17:57:52.681471,406
2021-12-23 17:57:52.681481,335
2021-12-23 17:57:52.681490,230
2021-12-23 17:57:52.681500,116
2021-12-23 17:57:52.681510,23
2021-12-23 17:57:52.681519,-49
2021-12-23 17:57:52.681529,-123
2021-12-23 17:57:52.681538,-190
2021-12-23 17:57:52.681548,-228
2021-12-23 17:57:52.681558,-240
2021-12-23 17:57:52.681567,-251
2021-12-23 17:57:52.681577,-261
2021-12-23 17:57:52.681586,-242
2021-12-23 17:57:52.681596,-228
2021-12-23 17:57:52.681605,-230
2021-12-23 17:57:52.681615,-218
2021-12-23 17:57:52.681624,-199
2021-12-23 17:57:52.681634,-185
2021-12-23 17:57:52.681643,-180
2021-12-23 17:57:52.681653,-171
2021-12-23 17:57:52.681662,-156
2021-12-23 17:57:52.681672,-144
2021-12-23 17:57:52.681681,-133
2021-12-23 17:57:52.771410,-121
2021-12-23 17:57:52.771441,-114
2021-12-23 17:57:52.771453,-114
2021-12-23 17:57:52.771463,-121
2021-12-23 17:57:52.771472,-121
2021-12-23 17:57:52.771482,-111
2021-12-23 17:57:52.771492,-104
2021-12-23 17:57:52.771502,-106
2021-12-23 17:57:52.771511,-109
2021-12-23 17:57:52.771521,-106
2021-12-23 17:57:52.771531,-97
2021-12-23 17:57:52.771541,-85
2021-12-23 17:57:52.771550,-76
2021-12-23 17:57:52.771560,-68
2021-12-23 17:57:52.771570,-68
2021-12-23 17:57:52.771580,-76
2021-12-23 17:57:52.771589,-78
2021-12-23 17:57:52.771599,-73
2021-12-23 17:57:52.771609,-61
2021-12-23 17:57:52.771619,-40
2021-12-23 17:57:52.771628,-16
2021-12-23 17:57:52.771638,-4
2021-12-23 17:57:52.771648,7
2021-12-23 17:57:52.771658,7
2021-12-23 17:57:52.771668,-11
2021-12-23 17:57:52.771677,-28
2021-12-23 17:57:52.771687,-45
2021-12-23 17:57:52.771697,-42
2021-12-23 17:57:52.771707,-21
2021-12-23 17:57:52.771716,-7
2021-12-23 17:57:52.951742,-2
2021-12-23 17:57:52.951773,4
2021-12-23 17:57:52.951785,-7
2021-12-23 17:57:52.951795,-30
2021-12-23 17:57:52.951805,14
2021-12-23 17:57:52.951815,335
2021-12-23 17:57:52.951824,1133
2021-12-23 17:57:52.951834,2131
2021-12-23 17:57:52.951844,2552
2021-12-23 17:57:52.951853,1549
2021-12-23 17:57:52.951863,-289
2021-12-23 17:57:52.951872,-774
2021-12-23 17:57:52.951882,4
2021-12-23 17:57:52.951892,85
2021-12-23 17:57:52.951901,-240
2021-12-23 17:57:52.951911,-97
2021-12-23 17:57:52.951920,9
2021-12-23 17:57:52.951936,-83
2021-12-23 17:57:52.951946,-42
2021-12-23 17:57:52.951955,21
2021-12-23 17:57:52.951965,0
2021-12-23 17:57:52.951975,19
2021-12-23 17:57:52.951985,66
2021-12-23 17:57:52.951995,78
2021-12-23 17:57:52.952005,97
2021-12-23 17:57:52.952014,140
2021-12-23 17:57:52.952024,173
2021-12-23 17:57:52.952034,199
2021-12-23 17:57:52.952043,235
2021-12-23 17:57:52.952053,270
2021-12-23 17:57:53.176457,306
2021-12-23 17:57:53.176487,354
2021-12-23 17:57:53.176499,399
2021-12-23 17:57:53.176509,434
2021-12-23 17:57:53.176519,461
2021-12-23 17:57:53.176529,482
2021-12-23 17:57:53.176539,487
2021-12-23 17:57:53.176548,468
2021-12-23 17:57:53.176558,425
2021-12-23 17:57:53.176568,361
2021-12-23 17:57:53.176578,268
2021-12-23 17:57:53.176588,161
2021-12-23 17:57:53.176597,54
2021-12-23 17:57:53.176607,-38
2021-12-23 17:57:53.176617,-109
2021-12-23 17:57:53.176627,-161
2021-12-23 17:57:53.176637,-199
2021-12-23 17:57:53.176647,-223
2021-12-23 17:57:53.176656,-232
2021-12-23 17:57:53.176666,-240
2021-12-23 17:57:53.176676,-237
2021-12-23 17:57:53.176686,-220
2021-12-23 17:57:53.176695,-206
2021-12-23 17:57:53.176705,-197
2021-12-23 17:57:53.176715,-180
2021-12-23 17:57:53.176725,-159
2021-12-23 17:57:53.176734,-144
2021-12-23 17:57:53.176744,-130
2021-12-23 17:57:53.176754,-114
2021-12-23 17:57:53.176764,-104
2021-12-23 17:57:53.491372,-104
2021-12-23 17:57:53.491392,-102
2021-12-23 17:57:53.491400,-92
2021-12-23 17:57:53.491406,-87
2021-12-23 17:57:53.491413,-80
2021-12-23 17:57:53.491419,-73
2021-12-23 17:57:53.491425,-78
2021-12-23 17:57:53.491432,-83
2021-12-23 17:57:53.491438,-80
2021-12-23 17:57:53.491444,-73
2021-12-23 17:57:53.491451,-68
2021-12-23 17:57:53.491457,-68
2021-12-23 17:57:53.491463,-71
2021-12-23 17:57:53.491470,-68
2021-12-23 17:57:53.491476,-61
2021-12-23 17:57:53.491482,-54
2021-12-23 17:57:53.491489,-59
2021-12-23 17:57:53.491495,-66
2021-12-23 17:57:53.491501,-61
2021-12-23 17:57:53.491507,-49
2021-12-23 17:57:53.491514,-28
2021-12-23 17:57:53.491520,-9
2021-12-23 17:57:53.491526,7
2021-12-23 17:57:53.491533,19
2021-12-23 17:57:53.491539,14
2021-12-23 17:57:53.491545,-9
2021-12-23 17:57:53.491552,-23
2021-12-23 17:57:53.491558,-26
2021-12-23 17:57:53.491564,-21
2021-12-23 17:57:53.491570,-11
2021-12-23 17:57:53.626498,-7
2021-12-23 17:57:53.626529,-7
2021-12-23 17:57:53.626541,-9
2021-12-23 17:57:53.626551,-21
2021-12-23 17:57:53.626561,-49
2021-12-23 17:57:53.626571,-2
2021-12-23 17:57:53.626581,408
2021-12-23 17:57:53.626591,1333
2021-12-23 17:57:53.626600,2343
2021-12-23 17:57:53.626610,2606
2021-12-23 17:57:53.626620,1402
2021-12-23 17:57:53.626630,-392
2021-12-23 17:57:53.626640,-679
2021-12-23 17:57:53.626650,66
2021-12-23 17:57:53.626660,30
2021-12-23 17:57:53.626670,-259
2021-12-23 17:57:53.626679,-87
2021-12-23 17:57:53.626689,-23
2021-12-23 17:57:53.626699,-123
2021-12-23 17:57:53.626709,-68
2021-12-23 17:57:53.626719,-4
2021-12-23 17:57:53.626729,-21
2021-12-23 17:57:53.626739,0
2021-12-23 17:57:53.626748,40
2021-12-23 17:57:53.626758,54
2021-12-23 17:57:53.626768,78
2021-12-23 17:57:53.626778,118
2021-12-23 17:57:53.626788,144
2021-12-23 17:57:53.626798,173
2021-12-23 17:57:53.626808,211
2021-12-23 17:57:53.940337,254
2021-12-23 17:57:53.940368,299
2021-12-23 17:57:53.940380,346
2021-12-23 17:57:53.940390,392
2021-12-23 17:57:53.940400,425
2021-12-23 17:57:53.940410,446
2021-12-23 17:57:53.940419,463
2021-12-23 17:57:53.940429,472
2021-12-23 17:57:53.940439,463
2021-12-23 17:57:53.940449,420
2021-12-23 17:57:53.940459,346
2021-12-23 17:57:53.940469,247
2021-12-23 17:57:53.940478,137
2021-12-23 17:57:53.940488,35
2021-12-23 17:57:53.940498,-49
2021-12-23 17:57:53.940508,-123
2021-12-23 17:57:53.940518,-175
2021-12-23 17:57:53.940527,-206
2021-12-23 17:57:53.940537,-223
2021-12-23 17:57:53.940547,-230
2021-12-23 17:57:53.940557,-235
2021-12-23 17:57:53.940566,-232
2021-12-23 17:57:53.940576,-228
2021-12-23 17:57:53.940586,-216
2021-12-23 17:57:53.940595,-206
2021-12-23 17:57:53.940605,-199
2021-12-23 17:57:53.940615,-185
2021-12-23 17:57:53.940625,-166
2021-12-23 17:57:53.940635,-152
2021-12-23 17:57:53.940644,-142
2021-12-23 17:57:54.121011,-128
2021-12-23 17:57:54.121035,-114
2021-12-23 17:57:54.121043,-106
2021-12-23 17:57:54.121050,-106
2021-12-23 17:57:54.121056,-102
2021-12-23 17:57:54.121062,-97
2021-12-23 17:57:54.121069,-97
2021-12-23 17:57:54.121075,-95
2021-12-23 17:57:54.121081,-97
2021-12-23 17:57:54.121087,-102
2021-12-23 17:57:54.121094,-99
2021-12-23 17:57:54.121100,-95
2021-12-23 17:57:54.121106,-90
2021-12-23 17:57:54.121112,-87
2021-12-23 17:57:54.121119,-85
2021-12-23 17:57:54.121125,-85
2021-12-23 17:57:54.121131,-80
2021-12-23 17:57:54.121137,-73
2021-12-23 17:57:54.121143,-71
2021-12-23 17:57:54.121150,-76
2021-12-23 17:57:54.121156,-78
2021-12-23 17:57:54.121162,-64
2021-12-23 17:57:54.121169,-42
2021-12-23 17:57:54.121175,-19
2021-12-23 17:57:54.121181,-7
2021-12-23 17:57:54.121187,4
2021-12-23 17:57:54.121193,11
2021-12-23 17:57:54.121200,-2
2021-12-23 17:57:54.121206,-28
2021-12-23 17:57:54.121212,-38
2021-12-23 17:57:54.346549,-30
2021-12-23 17:57:54.346583,-26
2021-12-23 17:57:54.346596,-26
2021-12-23 17:57:54.346606,-26
2021-12-23 17:57:54.346630,-21
2021-12-23 17:57:54.346637,-19
2021-12-23 17:57:54.346643,-38
2021-12-23 17:57:54.346649,-73
2021-12-23 17:57:54.346656,14
2021-12-23 17:57:54.346662,515
2021-12-23 17:57:54.346669,1497
2021-12-23 17:57:54.346675,2442
2021-12-23 17:57:54.346681,2495
2021-12-23 17:57:54.346688,1093
2021-12-23 17:57:54.346694,-551
2021-12-23 17:57:54.346701,-560
2021-12-23 17:57:54.346707,111
2021-12-23 17:57:54.346713,-64
2021-12-23 17:57:54.346720,-278
2021-12-23 17:57:54.346726,-80
2021-12-23 17:57:54.346732,-64
2021-12-23 17:57:54.346739,-147
2021-12-23 17:57:54.346745,-78
2021-12-23 17:57:54.346751,-26
2021-12-23 17:57:54.346758,-40
2021-12-23 17:57:54.346764,-14
2021-12-23 17:57:54.346770,21
2021-12-23 17:57:54.346777,35
2021-12-23 17:57:54.346783,64
2021-12-23 17:57:54.346790,104
2021-12-23 17:57:54.571554,130
2021-12-23 17:57:54.571584,159
2021-12-23 17:57:54.571596,204
2021-12-23 17:57:54.571606,247
2021-12-23 17:57:54.571616,289
2021-12-23 17:57:54.571626,337
2021-12-23 17:57:54.571636,384
2021-12-23 17:57:54.571646,422
2021-12-23 17:57:54.571656,446
2021-12-23 17:57:54.571666,458
2021-12-23 17:57:54.571676,458
2021-12-23 17:57:54.571686,441
2021-12-23 17:57:54.571696,406
2021-12-23 17:57:54.571706,337
2021-12-23 17:57:54.571716,228
2021-12-23 17:57:54.571726,109
2021-12-23 17:57:54.571736,9
2021-12-23 17:57:54.571746,-73
2021-12-23 17:57:54.571756,-144
2021-12-23 17:57:54.571766,-199
2021-12-23 17:57:54.571776,-235
2021-12-23 17:57:54.571786,-254
2021-12-23 17:57:54.571795,-259
2021-12-23 17:57:54.571805,-259
2021-12-23 17:57:54.571815,-254
2021-12-23 17:57:54.571825,-247
2021-12-23 17:57:54.571835,-235
2021-12-23 17:57:54.571845,-223
2021-12-23 17:57:54.571855,-209
2021-12-23 17:57:54.571865,-194
2021-12-23 17:57:54.796732,-178
2021-12-23 17:57:54.796755,-163
2021-12-23 17:57:54.796762,-156
2021-12-23 17:57:54.796787,-147
2021-12-23 17:57:54.796797,-135
2021-12-23 17:57:54.796807,-125
2021-12-23 17:57:54.796817,-121
2021-12-23 17:57:54.796827,-118
2021-12-23 17:57:54.796836,-116
2021-12-23 17:57:54.796846,-116
2021-12-23 17:57:54.796856,-111
2021-12-23 17:57:54.796866,-109
2021-12-23 17:57:54.796876,-109
2021-12-23 17:57:54.796886,-111
2021-12-23 17:57:54.796896,-114
2021-12-23 17:57:54.796906,-111
2021-12-23 17:57:54.796916,-104
2021-12-23 17:57:54.796925,-95
2021-12-23 17:57:54.796935,-90
2021-12-23 17:57:54.796945,-87
2021-12-23 17:57:54.796955,-85
2021-12-23 17:57:54.796965,-80
2021-12-23 17:57:54.796975,-73
2021-12-23 17:57:54.796985,-66
2021-12-23 17:57:54.796995,-61
2021-12-23 17:57:54.797005,-57
2021-12-23 17:57:54.797014,-54
2021-12-23 17:57:54.797024,-52
2021-12-23 17:57:54.797034,-42
2021-12-23 17:57:54.797044,-30
2021-12-23 17:57:55.020873,-30
2021-12-23 17:57:55.020894,-35
2021-12-23 17:57:55.020902,-40
2021-12-23 17:57:55.020909,-38
2021-12-23 17:57:55.020915,-26
2021-12-23 17:57:55.020921,-11
2021-12-23 17:57:55.020928,4
2021-12-23 17:57:55.020934,19
2021-12-23 17:57:55.020941,30
2021-12-23 17:57:55.020947,33
2021-12-23 17:57:55.020954,14
2021-12-23 17:57:55.020960,-4
2021-12-23 17:57:55.020966,-16
2021-12-23 17:57:55.020973,-23
2021-12-23 17:57:55.020979,-23
2021-12-23 17:57:55.020986,-19
2021-12-23 17:57:55.020992,-11
2021-12-23 17:57:55.020998,-7
2021-12-23 17:57:55.021005,-11
2021-12-23 17:57:55.021011,-42
2021-12-23 17:57:55.021018,-66
2021-12-23 17:57:55.021024,106
2021-12-23 17:57:55.021030,760
2021-12-23 17:57:55.021037,1808
2021-12-23 17:57:55.021043,2604
2021-12-23 17:57:55.021049,2352
2021-12-23 17:57:55.021056,769
2021-12-23 17:57:55.021062,-620
2021-12-23 17:57:55.021069,-335
2021-12-23 17:57:55.021075,185
2021-12-23 17:57:55.246483,-130
2021-12-23 17:57:55.246514,-240
2021-12-23 17:57:55.246526,-35
2021-12-23 17:57:55.246536,-73
2021-12-23 17:57:55.246546,-133
2021-12-23 17:57:55.246555,-52
2021-12-23 17:57:55.246565,-28
2021-12-23 17:57:55.246575,-42
2021-12-23 17:57:55.246584,-4
2021-12-23 17:57:55.246594,28
2021-12-23 17:57:55.246603,40
2021-12-23 17:57:55.246613,71
2021-12-23 17:57:55.246623,104
2021-12-23 17:57:55.246632,133
2021-12-23 17:57:55.246647,168
2021-12-23 17:57:55.246657,211
2021-12-23 17:57:55.246666,247
2021-12-23 17:57:55.246676,287
2021-12-23 17:57:55.246686,330
2021-12-23 17:57:55.246695,370
2021-12-23 17:57:55.246705,406
2021-12-23 17:57:55.246715,437
2021-12-23 17:57:55.246725,453
2021-12-23 17:57:55.246734,453
2021-12-23 17:57:55.246744,439
2021-12-23 17:57:55.246754,406
2021-12-23 17:57:55.246763,346
2021-12-23 17:57:55.246773,256
2021-12-23 17:57:55.246783,149
2021-12-23 17:57:55.246792,57
2021-12-23 17:57:55.471247,-21
2021-12-23 17:57:55.471269,-87
2021-12-23 17:57:55.471277,-137
2021-12-23 17:57:55.471288,-171
2021-12-23 17:57:55.471300,-190
2021-12-23 17:57:55.471307,-206
2021-12-23 17:57:55.471313,-216
2021-12-23 17:57:55.471320,-211
2021-12-23 17:57:55.471326,-197
2021-12-23 17:57:55.471332,-190
2021-12-23 17:57:55.471339,-190
2021-12-23 17:57:55.471345,-192
2021-12-23 17:57:55.471352,-185
2021-12-23 17:57:55.471359,-168
2021-12-23 17:57:55.471365,-159
2021-12-23 17:57:55.471372,-156
2021-12-23 17:57:55.471378,-144
2021-12-23 17:57:55.471384,-133
2021-12-23 17:57:55.471391,-137
2021-12-23 17:57:55.471397,-137
2021-12-23 17:57:55.471404,-128
2021-12-23 17:57:55.471410,-123
2021-12-23 17:57:55.471416,-125
2021-12-23 17:57:55.471423,-123
2021-12-23 17:57:55.471429,-118
2021-12-23 17:57:55.471435,-116
2021-12-23 17:57:55.471442,-114
2021-12-23 17:57:55.471448,-114
2021-12-23 17:57:55.471455,-114
2021-12-23 17:57:55.471461,-109
2021-12-23 17:57:55.830641,-106
2021-12-23 17:57:55.830662,-99
2021-12-23 17:57:55.830670,-99
2021-12-23 17:57:55.830677,-99
2021-12-23 17:57:55.830684,-95
2021-12-23 17:57:55.830690,-90
2021-12-23 17:57:55.830697,-87
2021-12-23 17:57:55.830703,-80
2021-12-23 17:57:55.830709,-71
2021-12-23 17:57:55.830715,-66
2021-12-23 17:57:55.830722,-64
2021-12-23 17:57:55.830728,-64
2021-12-23 17:57:55.830735,-57
2021-12-23 17:57:55.830741,-45
2021-12-23 17:57:55.830747,-40
2021-12-23 17:57:55.830754,-35
2021-12-23 17:57:55.830762,-28
2021-12-23 17:57:55.830768,-21
2021-12-23 17:57:55.830775,-14
2021-12-23 17:57:55.830781,-11
2021-12-23 17:57:55.830787,-14
2021-12-23 17:57:55.830793,-11
2021-12-23 17:57:55.830799,-2
2021-12-23 17:57:55.830806,4
2021-12-23 17:57:55.830812,7
2021-12-23 17:57:55.830818,2
2021-12-23 17:57:55.830824,-4
2021-12-23 17:57:55.830831,-2
2021-12-23 17:57:55.830837,16
2021-12-23 17:57:55.830843,40
2021-12-23 17:57:56.010000,57
2021-12-23 17:57:56.010021,68
2021-12-23 17:57:56.010029,78
2021-12-23 17:57:56.010036,68
2021-12-23 17:57:56.010042,35
2021-12-23 17:57:56.010048,14
2021-12-23 17:57:56.010055,16
2021-12-23 17:57:56.010061,23
2021-12-23 17:57:56.010067,21
2021-12-23 17:57:56.010074,26
2021-12-23 17:57:56.010080,28
2021-12-23 17:57:56.010086,26
2021-12-23 17:57:56.010093,16
2021-12-23 17:57:56.010099,-19
2021-12-23 17:57:56.010106,-11
2021-12-23 17:57:56.010112,316
2021-12-23 17:57:56.010118,1150
2021-12-23 17:57:56.010124,2155
2021-12-23 17:57:56.010131,2632
2021-12-23 17:57:56.010137,1839
2021-12-23 17:57:56.010143,80
2021-12-23 17:57:56.010150,-662
2021-12-23 17:57:56.010156,-26
2021-12-23 17:57:56.010163,128
2021-12-23 17:57:56.010169,-230
2021-12-23 17:57:56.010175,-140
2021-12-23 17:57:56.010182,-9
2021-12-23 17:57:56.010188,-106
2021-12-23 17:57:56.010194,-97
2021-12-23 17:57:56.010201,-21
2021-12-23 17:57:56.191341,-26
2021-12-23 17:57:56.191365,-21
2021-12-23 17:57:56.191373,21
2021-12-23 17:57:56.191379,42
2021-12-23 17:57:56.191386,59
2021-12-23 17:57:56.191392,92
2021-12-23 17:57:56.191399,125
2021-12-23 17:57:56.191405,154
2021-12-23 17:57:56.191411,190
2021-12-23 17:57:56.191418,223
2021-12-23 17:57:56.191424,256
2021-12-23 17:57:56.191430,301
2021-12-23 17:57:56.191437,342
2021-12-23 17:57:56.191443,380
2021-12-23 17:57:56.191450,408
2021-12-23 17:57:56.191456,427
2021-12-23 17:57:56.191462,434
2021-12-23 17:57:56.191469,437
2021-12-23 17:57:56.191475,422
2021-12-23 17:57:56.191482,382
2021-12-23 17:57:56.191488,316
2021-12-23 17:57:56.191495,223
2021-12-23 17:57:56.191501,125
2021-12-23 17:57:56.191507,35
2021-12-23 17:57:56.191514,-47
2021-12-23 17:57:56.191520,-116
2021-12-23 17:57:56.191527,-163
2021-12-23 17:57:56.191533,-199
2021-12-23 17:57:56.191539,-218
2021-12-23 17:57:56.191546,-223
2021-12-23 17:57:56.461946,-223
2021-12-23 17:57:56.461991,-220
2021-12-23 17:57:56.462005,-213
2021-12-23 17:57:56.462018,-204
2021-12-23 17:57:56.462030,-194
2021-12-23 17:57:56.462043,-180
2021-12-23 17:57:56.462055,-163
2021-12-23 17:57:56.462069,-152
2021-12-23 17:57:56.462081,-147
2021-12-23 17:57:56.462092,-142
2021-12-23 17:57:56.462105,-135
2021-12-23 17:57:56.462117,-128
2021-12-23 17:57:56.462129,-118
2021-12-23 17:57:56.462141,-114
2021-12-23 17:57:56.462153,-116
2021-12-23 17:57:56.462164,-114
2021-12-23 17:57:56.462176,-109
2021-12-23 17:57:56.462187,-106
2021-12-23 17:57:56.462199,-104
2021-12-23 17:57:56.462210,-99
2021-12-23 17:57:56.462221,-99
2021-12-23 17:57:56.462232,-104
2021-12-23 17:57:56.462243,-106
2021-12-23 17:57:56.462253,-104
2021-12-23 17:57:56.462264,-95
2021-12-23 17:57:56.462275,-90
2021-12-23 17:57:56.462285,-87
2021-12-23 17:57:56.462296,-85
2021-12-23 17:57:56.462307,-78
2021-12-23 17:57:56.462318,-73
2021-12-23 17:57:56.731532,-68
2021-12-23 17:57:56.731562,-64
2021-12-23 17:57:56.731573,-59
2021-12-23 17:57:56.731583,-54
2021-12-23 17:57:56.731593,-47
2021-12-23 17:57:56.731603,-40
2021-12-23 17:57:56.731613,-38
2021-12-23 17:57:56.731623,-35
2021-12-23 17:57:56.731632,-35
2021-12-23 17:57:56.731642,-35
2021-12-23 17:57:56.731652,-28
2021-12-23 17:57:56.731662,-19
2021-12-23 17:57:56.731671,-16
2021-12-23 17:57:56.731681,-14
2021-12-23 17:57:56.731690,-11
2021-12-23 17:57:56.731700,-7
2021-12-23 17:57:56.731710,-2
2021-12-23 17:57:56.731719,2
2021-12-23 17:57:56.731729,9
2021-12-23 17:57:56.731739,9
2021-12-23 17:57:56.731749,7
2021-12-23 17:57:56.731758,11
2021-12-23 17:57:56.731768,16
2021-12-23 17:57:56.731777,19
2021-12-23 17:57:56.731787,16
2021-12-23 17:57:56.731797,9
2021-12-23 17:57:56.731807,14
2021-12-23 17:57:56.731816,30
2021-12-23 17:57:56.731826,49
2021-12-23 17:57:56.731836,61
2021-12-23 17:57:56.910925,68
2021-12-23 17:57:56.910956,76
2021-12-23 17:57:56.910968,66
2021-12-23 17:57:56.910978,35
2021-12-23 17:57:56.910988,14
2021-12-23 17:57:56.910997,14
2021-12-23 17:57:56.911007,21
2021-12-23 17:57:56.911017,21
2021-12-23 17:57:56.911026,23
2021-12-23 17:57:56.911036,28
2021-12-23 17:57:56.911045,28
2021-12-23 17:57:56.911055,14
2021-12-23 17:57:56.911065,-23
2021-12-23 17:57:56.911075,26
2021-12-23 17:57:56.911085,441
2021-12-23 17:57:56.911094,1328
2021-12-23 17:57:56.911104,2257
2021-12-23 17:57:56.911113,2476
2021-12-23 17:57:56.911123,1344
2021-12-23 17:57:56.911133,-304
2021-12-23 17:57:56.911142,-565
2021-12-23 17:57:56.911152,102
2021-12-23 17:57:56.911162,45
2021-12-23 17:57:56.911171,-230
2021-12-23 17:57:56.911181,-78
2021-12-23 17:57:56.911190,-21
2021-12-23 17:57:56.911200,-114
2021-12-23 17:57:56.911210,-73
2021-12-23 17:57:56.911220,-23
2021-12-23 17:57:56.911229,-35
2021-12-23 17:57:57.091626,-14
2021-12-23 17:57:57.091658,21
2021-12-23 17:57:57.091670,38
2021-12-23 17:57:57.091680,57
2021-12-23 17:57:57.091690,87
2021-12-23 17:57:57.091700,118
2021-12-23 17:57:57.091710,149
2021-12-23 17:57:57.091720,185
2021-12-23 17:57:57.091730,218
2021-12-23 17:57:57.091739,251
2021-12-23 17:57:57.091749,289
2021-12-23 17:57:57.091759,330
2021-12-23 17:57:57.091769,361
2021-12-23 17:57:57.091779,384
2021-12-23 17:57:57.091788,401
2021-12-23 17:57:57.091798,411
2021-12-23 17:57:57.091808,411
2021-12-23 17:57:57.091818,394
2021-12-23 17:57:57.091827,356
2021-12-23 17:57:57.091837,292
2021-12-23 17:57:57.091847,209
2021-12-23 17:57:57.091857,118
2021-12-23 17:57:57.091866,35
2021-12-23 17:57:57.091876,-33
2021-12-23 17:57:57.091886,-92
2021-12-23 17:57:57.091896,-137
2021-12-23 17:57:57.091906,-173
2021-12-23 17:57:57.091915,-194
2021-12-23 17:57:57.091925,-204
2021-12-23 17:57:57.091935,-206
2021-12-23 17:57:57.361591,-204
2021-12-23 17:57:57.361622,-192
2021-12-23 17:57:57.361634,-180
2021-12-23 17:57:57.361644,-171
2021-12-23 17:57:57.361654,-159
2021-12-23 17:57:57.361664,-149
2021-12-23 17:57:57.361673,-144
2021-12-23 17:57:57.361683,-137
2021-12-23 17:57:57.361692,-125
2021-12-23 17:57:57.361702,-118
2021-12-23 17:57:57.361712,-111
2021-12-23 17:57:57.361721,-111
2021-12-23 17:57:57.361731,-116
2021-12-23 17:57:57.361741,-109
2021-12-23 17:57:57.361750,-102
2021-12-23 17:57:57.361760,-99
2021-12-23 17:57:57.361770,-97
2021-12-23 17:57:57.361779,-97
2021-12-23 17:57:57.361789,-97
2021-12-23 17:57:57.361798,-95
2021-12-23 17:57:57.361808,-90
2021-12-23 17:57:57.361817,-90
2021-12-23 17:57:57.361827,-87
2021-12-23 17:57:57.361837,-85
2021-12-23 17:57:57.361846,-80
2021-12-23 17:57:57.361856,-73
2021-12-23 17:57:57.361865,-71
2021-12-23 17:57:57.361875,-66
2021-12-23 17:57:57.361885,-59
2021-12-23 17:57:57.361894,-54
2021-12-23 17:57:57.541553,-57
2021-12-23 17:57:57.541582,-57
2021-12-23 17:57:57.541594,-57
2021-12-23 17:57:57.541604,-59
2021-12-23 17:57:57.541614,-64
2021-12-23 17:57:57.541624,-64
2021-12-23 17:57:57.541634,-57
2021-12-23 17:57:57.541644,-49
2021-12-23 17:57:57.541653,-45
2021-12-23 17:57:57.541663,-45
2021-12-23 17:57:57.541673,-47
2021-12-23 17:57:57.541682,-47
2021-12-23 17:57:57.541692,-40
2021-12-23 17:57:57.541702,-33
2021-12-23 17:57:57.541712,-28
2021-12-23 17:57:57.541722,-26
2021-12-23 17:57:57.541731,-23
2021-12-23 17:57:57.541741,-33
2021-12-23 17:57:57.541751,-40
2021-12-23 17:57:57.541760,-26
2021-12-23 17:57:57.541770,0
2021-12-23 17:57:57.541780,19
2021-12-23 17:57:57.541790,23
2021-12-23 17:57:57.541800,33
2021-12-23 17:57:57.541809,40
2021-12-23 17:57:57.541819,21
2021-12-23 17:57:57.541829,-11
2021-12-23 17:57:57.541838,-21
2021-12-23 17:57:57.541848,-14
2021-12-23 17:57:57.541858,-14
2021-12-23 17:57:57.856584,-11
2021-12-23 17:57:57.856607,-4
2021-12-23 17:57:57.856615,-9
2021-12-23 17:57:57.856621,-19
2021-12-23 17:57:57.856628,-28
2021-12-23 17:57:57.856634,-40
2021-12-23 17:57:57.856640,92
2021-12-23 17:57:57.856647,662
2021-12-23 17:57:57.856653,1663
2021-12-23 17:57:57.856659,2499
2021-12-23 17:57:57.856666,2247
2021-12-23 17:57:57.856672,556
2021-12-23 17:57:57.856678,-817
2021-12-23 17:57:57.856685,-392
2021-12-23 17:57:57.856691,166
2021-12-23 17:57:57.856697,-149
2021-12-23 17:57:57.856704,-230
2021-12-23 17:57:57.856710,-21
2021-12-23 17:57:57.856716,-66
2021-12-23 17:57:57.856726,-118
2021-12-23 17:57:57.856733,-33
2021-12-23 17:57:57.856739,-9
2021-12-23 17:57:57.856745,-21
2021-12-23 17:57:57.856752,16
2021-12-23 17:57:57.856758,49
2021-12-23 17:57:57.856764,64
2021-12-23 17:57:57.856771,95
2021-12-23 17:57:57.856777,133
2021-12-23 17:57:57.856783,163
2021-12-23 17:57:57.856790,197
2021-12-23 17:57:58.125194,230
2021-12-23 17:57:58.125224,266
2021-12-23 17:57:58.125236,304
2021-12-23 17:57:58.125247,335
2021-12-23 17:57:58.125257,368
2021-12-23 17:57:58.125267,401
2021-12-23 17:57:58.125277,427
2021-12-23 17:57:58.125287,439
2021-12-23 17:57:58.125297,441
2021-12-23 17:57:58.125307,425
2021-12-23 17:57:58.125316,387
2021-12-23 17:57:58.125327,335
2021-12-23 17:57:58.125337,256
2021-12-23 17:57:58.125347,163
2021-12-23 17:57:58.125356,68
2021-12-23 17:57:58.125366,-19
2021-12-23 17:57:58.125376,-90
2021-12-23 17:57:58.125386,-140
2021-12-23 17:57:58.125396,-180
2021-12-23 17:57:58.125406,-201
2021-12-23 17:57:58.125416,-213
2021-12-23 17:57:58.125425,-225
2021-12-23 17:57:58.125435,-228
2021-12-23 17:57:58.125445,-216
2021-12-23 17:57:58.125455,-194
2021-12-23 17:57:58.125464,-180
2021-12-23 17:57:58.125474,-173
2021-12-23 17:57:58.125484,-159
2021-12-23 17:57:58.125494,-140
2021-12-23 17:57:58.125503,-128
2021-12-23 17:57:58.261729,-123
2021-12-23 17:57:58.261839,-111
2021-12-23 17:57:58.261871,-104
2021-12-23 17:57:58.261884,-99
2021-12-23 17:57:58.261894,-99
2021-12-23 17:57:58.261903,-102
2021-12-23 17:57:58.261913,-99
2021-12-23 17:57:58.261923,-90
2021-12-23 17:57:58.261932,-95
2021-12-23 17:57:58.261942,-104
2021-12-23 17:57:58.261952,-104
2021-12-23 17:57:58.261962,-99
2021-12-23 17:57:58.261971,-102
2021-12-23 17:57:58.261981,-97
2021-12-23 17:57:58.261991,-90
2021-12-23 17:57:58.262000,-87
2021-12-23 17:57:58.262010,-87
2021-12-23 17:57:58.262019,-83
2021-12-23 17:57:58.262029,-78
2021-12-23 17:57:58.262039,-73
2021-12-23 17:57:58.262048,-73
2021-12-23 17:57:58.262058,-71
2021-12-23 17:57:58.262068,-61
2021-12-23 17:57:58.262077,-54
2021-12-23 17:57:58.262087,-52
2021-12-23 17:57:58.262097,-52
2021-12-23 17:57:58.262106,-52
2021-12-23 17:57:58.262116,-61
2021-12-23 17:57:58.262126,-66
2021-12-23 17:57:58.262135,-59
2021-12-23 17:57:58.530932,-40
2021-12-23 17:57:58.530962,-16
2021-12-23 17:57:58.530974,-2
2021-12-23 17:57:58.530984,11
2021-12-23 17:57:58.530994,26
2021-12-23 17:57:58.531004,9
2021-12-23 17:57:58.531014,-23
2021-12-23 17:57:58.531023,-38
2021-12-23 17:57:58.531033,-38
2021-12-23 17:57:58.531043,-35
2021-12-23 17:57:58.531053,-28
2021-12-23 17:57:58.531062,-19
2021-12-23 17:57:58.531072,-11
2021-12-23 17:57:58.531082,-19
2021-12-23 17:57:58.531092,-47
2021-12-23 17:57:58.531102,-80
2021-12-23 17:57:58.531111,7
2021-12-23 17:57:58.531121,491
2021-12-23 17:57:58.531131,1454
2021-12-23 17:57:58.531141,2409
2021-12-23 17:57:58.531150,2478
2021-12-23 17:57:58.531160,1036
2021-12-23 17:57:58.531170,-643
2021-12-23 17:57:58.531179,-598
2021-12-23 17:57:58.531189,121
2021-12-23 17:57:58.531199,-54
2021-12-23 17:57:58.531209,-266
2021-12-23 17:57:58.531219,-57
2021-12-23 17:57:58.531228,-40
2021-12-23 17:57:58.531238,-125
2021-12-23 17:57:58.711733,-52
2021-12-23 17:57:58.711763,-2
2021-12-23 17:57:58.711775,-16
2021-12-23 17:57:58.711785,9
2021-12-23 17:57:58.711795,49
2021-12-23 17:57:58.711805,66
2021-12-23 17:57:58.711815,95
2021-12-23 17:57:58.711824,133
2021-12-23 17:57:58.711834,159
2021-12-23 17:57:58.711843,192
2021-12-23 17:57:58.711853,232
2021-12-23 17:57:58.711863,275
2021-12-23 17:57:58.711873,316
2021-12-23 17:57:58.711882,354
2021-12-23 17:57:58.711892,392
2021-12-23 17:57:58.711902,425
2021-12-23 17:57:58.711911,451
2021-12-23 17:57:58.711921,470
2021-12-23 17:57:58.711930,480
2021-12-23 17:57:58.711940,463
2021-12-23 17:57:58.711950,422
2021-12-23 17:57:58.711960,358
2021-12-23 17:57:58.711969,263
2021-12-23 17:57:58.711979,159
2021-12-23 17:57:58.711989,64
2021-12-23 17:57:58.711998,-19
2021-12-23 17:57:58.712008,-87
2021-12-23 17:57:58.712018,-144
2021-12-23 17:57:58.712027,-180
2021-12-23 17:57:58.712037,-199
2021-12-23 17:57:58.936720,-213
2021-12-23 17:57:58.936741,-220
2021-12-23 17:57:58.936749,-216
2021-12-23 17:57:58.936756,-209
2021-12-23 17:57:58.936762,-197
2021-12-23 17:57:58.936768,-182
2021-12-23 17:57:58.936775,-173
2021-12-23 17:57:58.936781,-163
2021-12-23 17:57:58.936787,-147
2021-12-23 17:57:58.936794,-130
2021-12-23 17:57:58.936800,-121
2021-12-23 17:57:58.936807,-114
2021-12-23 17:57:58.936813,-109
2021-12-23 17:57:58.936819,-104
2021-12-23 17:57:58.936826,-97
2021-12-23 17:57:58.936832,-92
2021-12-23 17:57:58.936838,-95
2021-12-23 17:57:58.936845,-97
2021-12-23 17:57:58.936851,-97
2021-12-23 17:57:58.936857,-97
2021-12-23 17:57:58.936864,-99
2021-12-23 17:57:58.936870,-104
2021-12-23 17:57:58.936877,-104
2021-12-23 17:57:58.936883,-102
2021-12-23 17:57:58.936889,-97
2021-12-23 17:57:58.936895,-95
2021-12-23 17:57:58.936902,-87
2021-12-23 17:57:58.936908,-83
2021-12-23 17:57:58.936915,-78
2021-12-23 17:57:58.936921,-76
2021-12-23 17:57:59.161801,-71
2021-12-23 17:57:59.161831,-66
2021-12-23 17:57:59.161843,-61
2021-12-23 17:57:59.161853,-59
2021-12-23 17:57:59.161863,-54
2021-12-23 17:57:59.161872,-49
2021-12-23 17:57:59.161882,-49
2021-12-23 17:57:59.161891,-45
2021-12-23 17:57:59.161901,-42
2021-12-23 17:57:59.161911,-40
2021-12-23 17:57:59.161920,-35
2021-12-23 17:57:59.161930,-38
2021-12-23 17:57:59.161940,-45
2021-12-23 17:57:59.161950,-38
2021-12-23 17:57:59.161959,-28
2021-12-23 17:57:59.161969,-33
2021-12-23 17:57:59.161979,-42
2021-12-23 17:57:59.161988,-38
2021-12-23 17:57:59.161998,-19
2021-12-23 17:57:59.162008,2
2021-12-23 17:57:59.162017,16
2021-12-23 17:57:59.162027,23
2021-12-23 17:57:59.162037,35
2021-12-23 17:57:59.162046,35
2021-12-23 17:57:59.162056,11
2021-12-23 17:57:59.162065,-9
2021-12-23 17:57:59.162075,-11
2021-12-23 17:57:59.162085,-7
2021-12-23 17:57:59.162095,-2
2021-12-23 17:57:59.162104,-2
2021-12-23 17:57:59.386644,2
2021-12-23 17:57:59.386674,9
2021-12-23 17:57:59.386686,7
2021-12-23 17:57:59.386697,-28
2021-12-23 17:57:59.386707,-30
2021-12-23 17:57:59.386716,228
2021-12-23 17:57:59.386726,969
2021-12-23 17:57:59.386736,1984
2021-12-23 17:57:59.386745,2585
2021-12-23 17:57:59.386755,1936
2021-12-23 17:57:59.386764,173
2021-12-23 17:57:59.386774,-746
2021-12-23 17:57:59.386784,-130
2021-12-23 17:57:59.386793,154
2021-12-23 17:57:59.386803,-201
2021-12-23 17:57:59.386812,-161
2021-12-23 17:57:59.386822,-2
2021-12-23 17:57:59.386831,-85
2021-12-23 17:57:59.386841,-95
2021-12-23 17:57:59.386850,-11
2021-12-23 17:57:59.386860,-9
2021-12-23 17:57:59.386870,-11
2021-12-23 17:57:59.386879,26
2021-12-23 17:57:59.386889,52
2021-12-23 17:57:59.386898,71
2021-12-23 17:57:59.386908,106
2021-12-23 17:57:59.386917,137
2021-12-23 17:57:59.386927,156
2021-12-23 17:57:59.386936,185
2021-12-23 17:57:59.386946,228
2021-12-23 17:57:59.611895,273
2021-12-23 17:57:59.611919,318
2021-12-23 17:57:59.611926,361
2021-12-23 17:57:59.611933,396
2021-12-23 17:57:59.611940,422
2021-12-23 17:57:59.611946,444
2021-12-23 17:57:59.611953,463
2021-12-23 17:57:59.611959,470
2021-12-23 17:57:59.611966,451
2021-12-23 17:57:59.611972,406
2021-12-23 17:57:59.611978,330
2021-12-23 17:57:59.611985,237
2021-12-23 17:57:59.611991,137
2021-12-23 17:57:59.611998,45
2021-12-23 17:57:59.612004,-35
2021-12-23 17:57:59.612011,-99
2021-12-23 17:57:59.612017,-154
2021-12-23 17:57:59.612024,-190
2021-12-23 17:57:59.612030,-209
2021-12-23 17:57:59.612037,-216
2021-12-23 17:57:59.612043,-216
2021-12-23 17:57:59.612050,-213
2021-12-23 17:57:59.612056,-209
2021-12-23 17:57:59.612062,-201
2021-12-23 17:57:59.612069,-192
2021-12-23 17:57:59.612075,-173
2021-12-23 17:57:59.612082,-159
2021-12-23 17:57:59.612088,-152
2021-12-23 17:57:59.612095,-144
2021-12-23 17:57:59.612101,-130
2021-12-23 17:57:59.880854,-116
2021-12-23 17:57:59.880870,-109
2021-12-23 17:57:59.880875,-102
2021-12-23 17:57:59.880880,-99
2021-12-23 17:57:59.880884,-99
2021-12-23 17:57:59.880889,-95
2021-12-23 17:57:59.880893,-92
2021-12-23 17:57:59.880898,-87
2021-12-23 17:57:59.880902,-87
2021-12-23 17:57:59.880906,-90
2021-12-23 17:57:59.880911,-92
2021-12-23 17:57:59.880915,-92
2021-12-23 17:57:59.880920,-87
2021-12-23 17:57:59.880924,-87
2021-12-23 17:57:59.880928,-95
2021-12-23 17:57:59.880933,-97
2021-12-23 17:57:59.880937,-87
2021-12-23 17:57:59.880942,-76
2021-12-23 17:57:59.880946,-76
2021-12-23 17:57:59.880950,-83
2021-12-23 17:57:59.880955,-83
2021-12-23 17:57:59.880959,-76
2021-12-23 17:57:59.880964,-73
2021-12-23 17:57:59.880968,-71
2021-12-23 17:57:59.880973,-64
2021-12-23 17:57:59.880977,-64
2021-12-23 17:57:59.880981,-66
2021-12-23 17:57:59.880986,-61
2021-12-23 17:57:59.880990,-57
2021-12-23 17:57:59.880994,-52
2021-12-23 17:58:00.150853,-49
2021-12-23 17:58:00.150884,-47
2021-12-23 17:58:00.150896,-52
2021-12-23 17:58:00.150907,-57
2021-12-23 17:58:00.150917,-52
2021-12-23 17:58:00.150927,-47
2021-12-23 17:58:00.150937,-45
2021-12-23 17:58:00.150947,-42
2021-12-23 17:58:00.150957,-42
2021-12-23 17:58:00.150967,-45
2021-12-23 17:58:00.150977,-38
2021-12-23 17:58:00.150986,-30
2021-12-23 17:58:00.150996,-30
2021-12-23 17:58:00.151006,-35
2021-12-23 17:58:00.151016,-38
2021-12-23 17:58:00.151026,-26
2021-12-23 17:58:00.151036,-4
2021-12-23 17:58:00.151046,14
2021-12-23 17:58:00.151056,26
2021-12-23 17:58:00.151066,40
2021-12-23 17:58:00.151076,47
2021-12-23 17:58:00.151086,26
2021-12-23 17:58:00.151096,0
2021-12-23 17:58:00.151106,-4
2021-12-23 17:58:00.151116,2
2021-12-23 17:58:00.151126,2
2021-12-23 17:58:00.151136,2
2021-12-23 17:58:00.151146,4
2021-12-23 17:58:00.151156,11
2021-12-23 17:58:00.151166,7
2021-12-23 17:58:00.376408,-16
2021-12-23 17:58:00.376430,-40
2021-12-23 17:58:00.376438,109
2021-12-23 17:58:00.376445,710
2021-12-23 17:58:00.376452,1706
2021-12-23 17:58:00.376458,2514
2021-12-23 17:58:00.376465,2354
2021-12-23 17:58:00.376471,855
2021-12-23 17:58:00.376477,-591
2021-12-23 17:58:00.376484,-392
2021-12-23 17:58:00.376490,180
2021-12-23 17:58:00.376497,-83
2021-12-23 17:58:00.376503,-228
2021-12-23 17:58:00.376510,-30
2021-12-23 17:58:00.376516,-54
2021-12-23 17:58:00.376522,-121
2021-12-23 17:58:00.376528,-45
2021-12-23 17:58:00.376535,-9
2021-12-23 17:58:00.376541,-19
2021-12-23 17:58:00.376547,14
2021-12-23 17:58:00.376553,40
2021-12-23 17:58:00.376560,49
2021-12-23 17:58:00.376566,80
2021-12-23 17:58:00.376572,118
2021-12-23 17:58:00.376579,152
2021-12-23 17:58:00.376585,182
2021-12-23 17:58:00.376591,213
2021-12-23 17:58:00.376597,254
2021-12-23 17:58:00.376604,297
2021-12-23 17:58:00.376610,337
2021-12-23 17:58:00.556650,373
2021-12-23 17:58:00.556681,403
2021-12-23 17:58:00.556693,434
2021-12-23 17:58:00.556704,456
2021-12-23 17:58:00.556714,461
2021-12-23 17:58:00.556723,453
2021-12-23 17:58:00.556733,425
2021-12-23 17:58:00.556743,368
2021-12-23 17:58:00.556752,285
2021-12-23 17:58:00.556762,187
2021-12-23 17:58:00.556772,85
2021-12-23 17:58:00.556781,2
2021-12-23 17:58:00.556791,-66
2021-12-23 17:58:00.556801,-130
2021-12-23 17:58:00.556811,-173
2021-12-23 17:58:00.556821,-199
2021-12-23 17:58:00.556830,-216
2021-12-23 17:58:00.556840,-223
2021-12-23 17:58:00.556849,-220
2021-12-23 17:58:00.556859,-218
2021-12-23 17:58:00.556869,-209
2021-12-23 17:58:00.556878,-194
2021-12-23 17:58:00.556888,-178
2021-12-23 17:58:00.556897,-166
2021-12-23 17:58:00.556907,-156
2021-12-23 17:58:00.556917,-149
2021-12-23 17:58:00.556926,-137
2021-12-23 17:58:00.556936,-125
2021-12-23 17:58:00.556946,-118
2021-12-23 17:58:00.556955,-109
2021-12-23 17:58:00.871749,-104
2021-12-23 17:58:00.871771,-99
2021-12-23 17:58:00.871779,-97
2021-12-23 17:58:00.871786,-90
2021-12-23 17:58:00.871811,-90
2021-12-23 17:58:00.871826,-90
2021-12-23 17:58:00.871836,-90
2021-12-23 17:58:00.871846,-90
2021-12-23 17:58:00.871856,-90
2021-12-23 17:58:00.871866,-90
2021-12-23 17:58:00.871876,-90
2021-12-23 17:58:00.871885,-90
2021-12-23 17:58:00.871895,-90
2021-12-23 17:58:00.871905,-90
2021-12-23 17:58:00.871915,-87
2021-12-23 17:58:00.871925,-85
2021-12-23 17:58:00.871935,-80
2021-12-23 17:58:00.871944,-73
2021-12-23 17:58:00.871954,-68
2021-12-23 17:58:00.871964,-66
2021-12-23 17:58:00.871974,-59
2021-12-23 17:58:00.871983,-54
2021-12-23 17:58:00.871993,-47
2021-12-23 17:58:00.872003,-42
2021-12-23 17:58:00.872013,-42
2021-12-23 17:58:00.872023,-38
2021-12-23 17:58:00.872033,-30
2021-12-23 17:58:00.872042,-26
2021-12-23 17:58:00.872052,-23
2021-12-23 17:58:00.872062,-19
2021-12-23 17:58:01.096161,-19
2021-12-23 17:58:01.096192,-19
2021-12-23 17:58:01.096204,-21
2021-12-23 17:58:01.096214,-21
2021-12-23 17:58:01.096224,-23
2021-12-23 17:58:01.096234,-19
2021-12-23 17:58:01.096243,-14
2021-12-23 17:58:01.096253,-9
2021-12-23 17:58:01.096263,-11
2021-12-23 17:58:01.096273,-9
2021-12-23 17:58:01.096283,-4
2021-12-23 17:58:01.096293,0
2021-12-23 17:58:01.096302,-7
2021-12-23 17:58:01.096312,-21
2021-12-23 17:58:01.096322,-23
2021-12-23 17:58:01.096332,-2
2021-12-23 17:58:01.096342,19
2021-12-23 17:58:01.096352,28
2021-12-23 17:58:01.096362,33
2021-12-23 17:58:01.096371,49
2021-12-23 17:58:01.096381,54
2021-12-23 17:58:01.096391,26
2021-12-23 17:58:01.096401,-2
2021-12-23 17:58:01.096411,-4
2021-12-23 17:58:01.096421,-2
2021-12-23 17:58:01.096431,2
2021-12-23 17:58:01.096441,7
2021-12-23 17:58:01.096450,14
2021-12-23 17:58:01.096460,16
2021-12-23 17:58:01.096470,4
2021-12-23 17:58:01.231233,-30
2021-12-23 17:58:01.231254,-33
2021-12-23 17:58:01.231262,223
2021-12-23 17:58:01.231269,960
2021-12-23 17:58:01.231275,1962
2021-12-23 17:58:01.231281,2566
2021-12-23 17:58:01.231288,2003
2021-12-23 17:58:01.231294,332
2021-12-23 17:58:01.231300,-658
2021-12-23 17:58:01.231306,-147
2021-12-23 17:58:01.231313,159
2021-12-23 17:58:01.231319,-187
2021-12-23 17:58:01.231325,-178
2021-12-23 17:58:01.231332,-19
2021-12-23 17:58:01.231338,-92
2021-12-23 17:58:01.231344,-106
2021-12-23 17:58:01.231351,-30
2021-12-23 17:58:01.231357,-28
2021-12-23 17:58:01.231363,-26
2021-12-23 17:58:01.231369,19
2021-12-23 17:58:01.231376,42
2021-12-23 17:58:01.231382,54
2021-12-23 17:58:01.231388,85
2021-12-23 17:58:01.231395,121
2021-12-23 17:58:01.231401,147
2021-12-23 17:58:01.231407,175
2021-12-23 17:58:01.231413,218
2021-12-23 17:58:01.231420,263
2021-12-23 17:58:01.231426,301
2021-12-23 17:58:01.231432,342
2021-12-23 17:58:01.591055,384
2021-12-23 17:58:01.591086,418
2021-12-23 17:58:01.591098,441
2021-12-23 17:58:01.591109,456
2021-12-23 17:58:01.591119,456
2021-12-23 17:58:01.591129,441
2021-12-23 17:58:01.591138,406
2021-12-23 17:58:01.591148,342
2021-12-23 17:58:01.591158,251
2021-12-23 17:58:01.591168,154
2021-12-23 17:58:01.591178,64
2021-12-23 17:58:01.591188,-19
2021-12-23 17:58:01.591198,-90
2021-12-23 17:58:01.591208,-144
2021-12-23 17:58:01.591218,-178
2021-12-23 17:58:01.591227,-201
2021-12-23 17:58:01.591237,-220
2021-12-23 17:58:01.591247,-228
2021-12-23 17:58:01.591257,-230
2021-12-23 17:58:01.591267,-225
2021-12-23 17:58:01.591276,-209
2021-12-23 17:58:01.591286,-197
2021-12-23 17:58:01.591296,-192
2021-12-23 17:58:01.591306,-175
2021-12-23 17:58:01.591315,-156
2021-12-23 17:58:01.591325,-147
2021-12-23 17:58:01.591335,-140
2021-12-23 17:58:01.591345,-133
2021-12-23 17:58:01.591355,-125
2021-12-23 17:58:01.591364,-116
2021-12-23 17:58:01.726669,-106
2021-12-23 17:58:01.726700,-99
2021-12-23 17:58:01.726712,-104
2021-12-23 17:58:01.726722,-104
2021-12-23 17:58:01.726732,-102
2021-12-23 17:58:01.726742,-99
2021-12-23 17:58:01.726752,-95
2021-12-23 17:58:01.726762,-92
2021-12-23 17:58:01.726772,-97
2021-12-23 17:58:01.726782,-99
2021-12-23 17:58:01.726791,-92
2021-12-23 17:58:01.726801,-90
2021-12-23 17:58:01.726811,-87
2021-12-23 17:58:01.726821,-83
2021-12-23 17:58:01.726887,-80
2021-12-23 17:58:01.726929,-83
2021-12-23 17:58:01.726943,-80
2021-12-23 17:58:01.726954,-73
2021-12-23 17:58:01.726964,-68
2021-12-23 17:58:01.726973,-64
2021-12-23 17:58:01.726983,-61
2021-12-23 17:58:01.726993,-57
2021-12-23 17:58:01.727003,-54
2021-12-23 17:58:01.727013,-52
2021-12-23 17:58:01.727022,-47
2021-12-23 17:58:01.727032,-45
2021-12-23 17:58:01.727042,-47
2021-12-23 17:58:01.727052,-54
2021-12-23 17:58:01.727061,-49
2021-12-23 17:58:01.727071,-38
2021-12-23 17:58:01.996755,-33
2021-12-23 17:58:01.996787,-30
2021-12-23 17:58:01.996831,-28
2021-12-23 17:58:01.996841,-28
2021-12-23 17:58:01.996851,-23
2021-12-23 17:58:01.996861,-14
2021-12-23 17:58:01.996870,-11
2021-12-23 17:58:01.996880,-9
2021-12-23 17:58:01.996889,-9
2021-12-23 17:58:01.996899,-11
2021-12-23 17:58:01.996909,-9
2021-12-23 17:58:01.996918,-7
2021-12-23 17:58:01.996928,-4
2021-12-23 17:58:01.996937,0
2021-12-23 17:58:01.996947,2
2021-12-23 17:58:01.996957,-9
2021-12-23 17:58:01.996966,-16
2021-12-23 17:58:01.996975,-4
2021-12-23 17:58:01.996985,11
2021-12-23 17:58:01.996995,26
2021-12-23 17:58:01.997004,42
2021-12-23 17:58:01.997014,49
2021-12-23 17:58:01.997023,61
2021-12-23 17:58:01.997033,64
2021-12-23 17:58:01.997042,35
2021-12-23 17:58:01.997052,2
2021-12-23 17:58:01.997061,-4
2021-12-23 17:58:01.997071,0
2021-12-23 17:58:01.997080,4
2021-12-23 17:58:01.997090,11
2021-12-23 17:58:02.219713,16
2021-12-23 17:58:02.219737,21
2021-12-23 17:58:02.219745,16
2021-12-23 17:58:02.219752,-16
2021-12-23 17:58:02.219759,-19
2021-12-23 17:58:02.219765,235
2021-12-23 17:58:02.219772,962
2021-12-23 17:58:02.219778,1929
2021-12-23 17:58:02.219785,2483
2021-12-23 17:58:02.219792,1901
2021-12-23 17:58:02.219798,287
2021-12-23 17:58:02.219805,-627
2021-12-23 17:58:02.219811,-121
2021-12-23 17:58:02.219818,166
2021-12-23 17:58:02.219824,-161
2021-12-23 17:58:02.219831,-152
2021-12-23 17:58:02.219837,0
2021-12-23 17:58:02.219844,-66
2021-12-23 17:58:02.219850,-80
2021-12-23 17:58:02.219856,-9
2021-12-23 17:58:02.219863,-7
2021-12-23 17:58:02.219869,-7
2021-12-23 17:58:02.219876,33
2021-12-23 17:58:02.219882,57
2021-12-23 17:58:02.219889,73
2021-12-23 17:58:02.219895,106
2021-12-23 17:58:02.219902,137
2021-12-23 17:58:02.219908,163
2021-12-23 17:58:02.219915,194
2021-12-23 17:58:02.219921,230
2021-12-23 17:58:02.401658,266
2021-12-23 17:58:02.401690,304
2021-12-23 17:58:02.401702,342
2021-12-23 17:58:02.401712,380
2021-12-23 17:58:02.401722,408
2021-12-23 17:58:02.401732,430
2021-12-23 17:58:02.401742,446
2021-12-23 17:58:02.401752,453
2021-12-23 17:58:02.401762,439
2021-12-23 17:58:02.401772,408
2021-12-23 17:58:02.401782,361
2021-12-23 17:58:02.401792,285
2021-12-23 17:58:02.401802,190
2021-12-23 17:58:02.401812,92
2021-12-23 17:58:02.401822,4
2021-12-23 17:58:02.401832,-68
2021-12-23 17:58:02.401842,-125
2021-12-23 17:58:02.401851,-161
2021-12-23 17:58:02.401861,-187
2021-12-23 17:58:02.401871,-206
2021-12-23 17:58:02.401881,-216
2021-12-23 17:58:02.401891,-211
2021-12-23 17:58:02.401900,-204
2021-12-23 17:58:02.401910,-194
2021-12-23 17:58:02.401920,-185
2021-12-23 17:58:02.401930,-175
2021-12-23 17:58:02.401940,-163
2021-12-23 17:58:02.401949,-149
2021-12-23 17:58:02.401959,-137
2021-12-23 17:58:02.401969,-135
2021-12-23 17:58:02.626631,-135
2021-12-23 17:58:02.626663,-128
2021-12-23 17:58:02.626675,-121
2021-12-23 17:58:02.626686,-116
2021-12-23 17:58:02.626696,-114
2021-12-23 17:58:02.626706,-106
2021-12-23 17:58:02.626716,-106
2021-12-23 17:58:02.626726,-114
2021-12-23 17:58:02.626736,-116
2021-12-23 17:58:02.626746,-114
2021-12-23 17:58:02.626756,-106
2021-12-23 17:58:02.626766,-104
2021-12-23 17:58:02.626776,-106
2021-12-23 17:58:02.626786,-104
2021-12-23 17:58:02.626796,-97
2021-12-23 17:58:02.626806,-92
2021-12-23 17:58:02.626816,-95
2021-12-23 17:58:02.626826,-99
2021-12-23 17:58:02.626836,-92
2021-12-23 17:58:02.626846,-85
2021-12-23 17:58:02.626856,-92
2021-12-23 17:58:02.626866,-92
2021-12-23 17:58:02.626876,-76
2021-12-23 17:58:02.626886,-73
2021-12-23 17:58:02.626896,-73
2021-12-23 17:58:02.626906,-66
2021-12-23 17:58:02.626916,-54
2021-12-23 17:58:02.626926,-54
2021-12-23 17:58:02.626936,-54
2021-12-23 17:58:02.626946,-49
2021-12-23 17:58:02.941064,-42
2021-12-23 17:58:02.941095,-42
2021-12-23 17:58:02.941107,-40
2021-12-23 17:58:02.941117,-28
2021-12-23 17:58:02.941127,-23
2021-12-23 17:58:02.941137,-23
2021-12-23 17:58:02.941147,-23
2021-12-23 17:58:02.941157,-19
2021-12-23 17:58:02.941167,-11
2021-12-23 17:58:02.941177,-7
2021-12-23 17:58:02.941187,-4
2021-12-23 17:58:02.941197,-7
2021-12-23 17:58:02.941207,-16
2021-12-23 17:58:02.941217,-7
2021-12-23 17:58:02.941227,16
2021-12-23 17:58:02.941237,38
2021-12-23 17:58:02.941247,52
2021-12-23 17:58:02.941257,61
2021-12-23 17:58:02.941266,71
2021-12-23 17:58:02.941276,57
2021-12-23 17:58:02.941286,21
2021-12-23 17:58:02.941296,2
2021-12-23 17:58:02.941306,2
2021-12-23 17:58:02.941316,9
2021-12-23 17:58:02.941326,16
2021-12-23 17:58:02.941336,19
2021-12-23 17:58:02.941346,28
2021-12-23 17:58:02.941356,30
2021-12-23 17:58:02.941366,19
2021-12-23 17:58:02.941376,-14
2021-12-23 17:58:03.076784,45
2021-12-23 17:58:03.076817,451
2021-12-23 17:58:03.076829,1314
2021-12-23 17:58:03.076839,2226
2021-12-23 17:58:03.076849,2435
2021-12-23 17:58:03.076859,1297
2021-12-23 17:58:03.076869,-339
2021-12-23 17:58:03.076878,-579
2021-12-23 17:58:03.076888,99
2021-12-23 17:58:03.076898,54
2021-12-23 17:58:03.076907,-209
2021-12-23 17:58:03.076917,-59
2021-12-23 17:58:03.076927,-2
2021-12-23 17:58:03.076936,-87
2021-12-23 17:58:03.076946,-42
2021-12-23 17:58:03.076956,14
2021-12-23 17:58:03.076965,2
2021-12-23 17:58:03.076975,14
2021-12-23 17:58:03.076985,52
2021-12-23 17:58:03.076994,73
2021-12-23 17:58:03.077004,92
2021-12-23 17:58:03.077013,123
2021-12-23 17:58:03.077023,144
2021-12-23 17:58:03.077033,166
2021-12-23 17:58:03.077042,204
2021-12-23 17:58:03.077052,247
2021-12-23 17:58:03.077062,285
2021-12-23 17:58:03.077071,325
2021-12-23 17:58:03.077081,361
2021-12-23 17:58:03.077091,392
2021-12-23 17:58:03.346023,418
2021-12-23 17:58:03.346044,439
2021-12-23 17:58:03.346052,444
2021-12-23 17:58:03.346058,434
2021-12-23 17:58:03.346065,411
2021-12-23 17:58:03.346071,365
2021-12-23 17:58:03.346077,299
2021-12-23 17:58:03.346084,211
2021-12-23 17:58:03.346090,116
2021-12-23 17:58:03.346097,28
2021-12-23 17:58:03.346103,-47
2021-12-23 17:58:03.346109,-106
2021-12-23 17:58:03.346116,-152
2021-12-23 17:58:03.346122,-187
2021-12-23 17:58:03.346128,-204
2021-12-23 17:58:03.346135,-204
2021-12-23 17:58:03.346141,-206
2021-12-23 17:58:03.346147,-206
2021-12-23 17:58:03.346154,-194
2021-12-23 17:58:03.346160,-185
2021-12-23 17:58:03.346166,-173
2021-12-23 17:58:03.346173,-159
2021-12-23 17:58:03.346179,-154
2021-12-23 17:58:03.346185,-149
2021-12-23 17:58:03.346192,-140
2021-12-23 17:58:03.346198,-130
2021-12-23 17:58:03.346204,-125
2021-12-23 17:58:03.346211,-123
2021-12-23 17:58:03.346217,-121
2021-12-23 17:58:03.346223,-111
2021-12-23 17:58:03.571643,-106
2021-12-23 17:58:03.571673,-106
2021-12-23 17:58:03.571686,-104
2021-12-23 17:58:03.571697,-106
2021-12-23 17:58:03.571707,-111
2021-12-23 17:58:03.571717,-106
2021-12-23 17:58:03.571727,-102
2021-12-23 17:58:03.571737,-99
2021-12-23 17:58:03.571747,-95
2021-12-23 17:58:03.571757,-95
2021-12-23 17:58:03.571766,-99
2021-12-23 17:58:03.571776,-97
2021-12-23 17:58:03.571786,-90
2021-12-23 17:58:03.571796,-87
2021-12-23 17:58:03.571806,-83
2021-12-23 17:58:03.571816,-80
2021-12-23 17:58:03.571826,-76
2021-12-23 17:58:03.571836,-73
2021-12-23 17:58:03.571846,-66
2021-12-23 17:58:03.571856,-59
2021-12-23 17:58:03.571866,-57
2021-12-23 17:58:03.571876,-54
2021-12-23 17:58:03.571886,-49
2021-12-23 17:58:03.571896,-42
2021-12-23 17:58:03.571905,-35
2021-12-23 17:58:03.571915,-30
2021-12-23 17:58:03.571925,-30
2021-12-23 17:58:03.571935,-28
2021-12-23 17:58:03.571945,-23
2021-12-23 17:58:03.571955,-19
2021-12-23 17:58:03.796708,-14
2021-12-23 17:58:03.796739,-7
2021-12-23 17:58:03.796752,-4
2021-12-23 17:58:03.796762,-2
2021-12-23 17:58:03.796772,0
2021-12-23 17:58:03.796782,4
2021-12-23 17:58:03.796792,4
2021-12-23 17:58:03.796802,4
2021-12-23 17:58:03.796812,14
2021-12-23 17:58:03.796821,28
2021-12-23 17:58:03.796831,47
2021-12-23 17:58:03.796841,57
2021-12-23 17:58:03.796851,66
2021-12-23 17:58:03.796861,76
2021-12-23 17:58:03.796871,59
2021-12-23 17:58:03.796880,19
2021-12-23 17:58:03.796890,4
2021-12-23 17:58:03.796900,11
2021-12-23 17:58:03.796910,16
2021-12-23 17:58:03.796920,16
2021-12-23 17:58:03.796929,23
2021-12-23 17:58:03.796939,26
2021-12-23 17:58:03.796949,21
2021-12-23 17:58:03.796958,7
2021-12-23 17:58:03.796968,-11
2021-12-23 17:58:03.796978,118
2021-12-23 17:58:03.796988,662
2021-12-23 17:58:03.796997,1596
2021-12-23 17:58:03.797007,2364
2021-12-23 17:58:03.797017,2162
2021-12-23 17:58:04.021081,708
2021-12-23 17:58:04.021103,-579
2021-12-23 17:58:04.021111,-339
2021-12-23 17:58:04.021117,171
2021-12-23 17:58:04.021124,-66
2021-12-23 17:58:04.021130,-185
2021-12-23 17:58:04.021137,-11
2021-12-23 17:58:04.021143,-35
2021-12-23 17:58:04.021205,-95
2021-12-23 17:58:04.021212,-26
2021-12-23 17:58:04.021219,7
2021-12-23 17:58:04.021225,0
2021-12-23 17:58:04.021232,26
2021-12-23 17:58:04.021238,52
2021-12-23 17:58:04.021245,68
2021-12-23 17:58:04.021251,92
2021-12-23 17:58:04.021258,118
2021-12-23 17:58:04.021264,142
2021-12-23 17:58:04.021270,180
2021-12-23 17:58:04.021277,216
2021-12-23 17:58:04.021283,244
2021-12-23 17:58:04.021290,280
2021-12-23 17:58:04.021296,323
2021-12-23 17:58:04.021302,368
2021-12-23 17:58:04.021309,403
2021-12-23 17:58:04.021315,432
2021-12-23 17:58:04.021322,449
2021-12-23 17:58:04.021328,453
2021-12-23 17:58:04.021335,446
2021-12-23 17:58:04.021341,418
2021-12-23 17:58:04.290260,361
2021-12-23 17:58:04.290292,280
2021-12-23 17:58:04.290304,190
2021-12-23 17:58:04.290315,95
2021-12-23 17:58:04.290325,14
2021-12-23 17:58:04.290335,-52
2021-12-23 17:58:04.290344,-109
2021-12-23 17:58:04.290354,-161
2021-12-23 17:58:04.290364,-194
2021-12-23 17:58:04.290374,-209
2021-12-23 17:58:04.290384,-211
2021-12-23 17:58:04.290394,-216
2021-12-23 17:58:04.290403,-216
2021-12-23 17:58:04.290413,-209
2021-12-23 17:58:04.290423,-197
2021-12-23 17:58:04.290433,-185
2021-12-23 17:58:04.290443,-168
2021-12-23 17:58:04.290453,-156
2021-12-23 17:58:04.290463,-147
2021-12-23 17:58:04.290473,-140
2021-12-23 17:58:04.290483,-140
2021-12-23 17:58:04.290492,-135
2021-12-23 17:58:04.290502,-123
2021-12-23 17:58:04.290512,-114
2021-12-23 17:58:04.290522,-116
2021-12-23 17:58:04.290532,-121
2021-12-23 17:58:04.290542,-118
2021-12-23 17:58:04.290552,-114
2021-12-23 17:58:04.290561,-109
2021-12-23 17:58:04.290571,-102
2021-12-23 17:58:04.471767,-99
2021-12-23 17:58:04.471791,-102
2021-12-23 17:58:04.471799,-104
2021-12-23 17:58:04.471805,-102
2021-12-23 17:58:04.471812,-95
2021-12-23 17:58:04.471818,-90
2021-12-23 17:58:04.471825,-97
2021-12-23 17:58:04.471831,-97
2021-12-23 17:58:04.471838,-85
2021-12-23 17:58:04.471844,-80
2021-12-23 17:58:04.471851,-80
2021-12-23 17:58:04.471857,-73
2021-12-23 17:58:04.471863,-71
2021-12-23 17:58:04.471870,-73
2021-12-23 17:58:04.471876,-71
2021-12-23 17:58:04.471883,-59
2021-12-23 17:58:04.471889,-54
2021-12-23 17:58:04.471896,-57
2021-12-23 17:58:04.471902,-52
2021-12-23 17:58:04.471909,-42
2021-12-23 17:58:04.471915,-40
2021-12-23 17:58:04.471921,-45
2021-12-23 17:58:04.471928,-45
2021-12-23 17:58:04.471934,-38
2021-12-23 17:58:04.471941,-35
2021-12-23 17:58:04.471947,-40
2021-12-23 17:58:04.471953,-40
2021-12-23 17:58:04.471960,-26
2021-12-23 17:58:04.471966,-4
2021-12-23 17:58:04.471972,19
2021-12-23 17:58:04.741799,23
2021-12-23 17:58:04.741831,30
2021-12-23 17:58:04.741843,45
2021-12-23 17:58:04.741853,28
2021-12-23 17:58:04.741863,-7
2021-12-23 17:58:04.741873,-21
2021-12-23 17:58:04.741883,-21
2021-12-23 17:58:04.741892,-19
2021-12-23 17:58:04.741902,-9
2021-12-23 17:58:04.741912,0
2021-12-23 17:58:04.741922,2
2021-12-23 17:58:04.741931,-2
2021-12-23 17:58:04.741941,-16
2021-12-23 17:58:04.741951,-26
2021-12-23 17:58:04.741961,68
