Time,ECG
2021-12-23 18:07:38.267632,-361
2021-12-23 18:07:38.267663,1036
2021-12-23 18:07:38.267675,843
2021-12-23 18:07:38.267686,228
2021-12-23 18:07:38.267696,1592
2021-12-23 18:07:38.267706,425
2021-12-23 18:07:38.267717,-3155
2021-12-23 18:07:38.267727,-1337
2021-12-23 18:07:38.267736,1680
2021-12-23 18:07:38.267747,-1494
2021-12-23 18:07:38.267757,-2331
2021-12-23 18:07:38.267767,917
2021-12-23 18:07:38.267777,-76
2021-12-23 18:07:38.267787,-472
2021-12-23 18:07:38.267797,1489
2021-12-23 18:07:38.267807,924
2021-12-23 18:07:38.267816,914
2021-12-23 18:07:38.267827,-259
2021-12-23 18:07:38.267837,-2632
2021-12-23 18:07:38.267846,273
2021-12-23 18:07:38.267856,2250
2021-12-23 18:07:38.267866,185
2021-12-23 18:07:38.267875,962
2021-12-23 18:07:38.267885,1316
2021-12-23 18:07:38.267895,-130
2021-12-23 18:07:38.267905,1152
2021-12-23 18:07:38.267918,1485
2021-12-23 18:07:38.267928,299
2021-12-23 18:07:38.267937,1238
2021-12-23 18:07:38.267947,1088
2021-12-23 18:07:38.447696,147
2021-12-23 18:07:38.447725,1409
2021-12-23 18:07:38.447735,1150
2021-12-23 18:07:38.447742,-28
2021-12-23 18:07:38.447749,620
2021-12-23 18:07:38.447755,-1532
2021-12-23 18:07:38.447763,-2559
2021-12-23 18:07:38.447769,1912
2021-12-23 18:07:38.447776,2122
2021-12-23 18:07:38.447783,-660
2021-12-23 18:07:38.447789,-408
2021-12-23 18:07:38.447795,-2528
2021-12-23 18:07:38.447802,-3020
2021-12-23 18:07:38.447808,1375
2021-12-23 18:07:38.447814,1349
2021-12-23 18:07:38.447821,-845
2021-12-23 18:07:38.447827,-603
2021-12-23 18:07:38.447834,-2228
2021-12-23 18:07:38.447841,-1425
2021-12-23 18:07:38.447847,2212
2021-12-23 18:07:38.447853,1064
2021-12-23 18:07:38.447860,-634
2021-12-23 18:07:38.447866,643
2021-12-23 18:07:38.447873,456
2021-12-23 18:07:38.447879,518
2021-12-23 18:07:38.447885,1775
2021-12-23 18:07:38.447892,815
2021-12-23 18:07:38.447898,-49
2021-12-23 18:07:38.447905,703
2021-12-23 18:07:38.447914,544
2021-12-23 18:07:38.672650,551
2021-12-23 18:07:38.672672,-2960
2021-12-23 18:07:38.672680,-7658
2021-12-23 18:07:38.672687,-3419
2021-12-23 18:07:38.672694,-1886
2021-12-23 18:07:38.672700,-5641
2021-12-23 18:07:38.672707,-468
2021-12-23 18:07:38.672713,3217
2021-12-23 18:07:38.672719,-948
2021-12-23 18:07:38.672726,-1684
2021-12-23 18:07:38.672732,-1466
2021-12-23 18:07:38.672739,-2497
2021-12-23 18:07:38.672745,484
2021-12-23 18:07:38.672756,247
2021-12-23 18:07:38.672762,-3231
2021-12-23 18:07:38.672769,-772
2021-12-23 18:07:38.672775,1449
2021-12-23 18:07:38.672782,76
2021-12-23 18:07:38.672788,1181
2021-12-23 18:07:38.672795,2286
2021-12-23 18:07:38.672801,513
2021-12-23 18:07:38.672808,-263
2021-12-23 18:07:38.672814,622
2021-12-23 18:07:38.672820,1230
2021-12-23 18:07:38.672827,1844
2021-12-23 18:07:38.672833,1805
2021-12-23 18:07:38.672840,672
2021-12-23 18:07:38.672846,-23
2021-12-23 18:07:38.672852,441
2021-12-23 18:07:38.672860,1487
2021-12-23 18:07:38.897545,891
2021-12-23 18:07:38.897568,-1090
2021-12-23 18:07:38.897576,-1055
2021-12-23 18:07:38.897602,-1663
2021-12-23 18:07:38.897612,-3184
2021-12-23 18:07:38.897622,-135
2021-12-23 18:07:38.897632,2844
2021-12-23 18:07:38.897642,1228
2021-12-23 18:07:38.897651,-537
2021-12-23 18:07:38.897661,-2195
2021-12-23 18:07:38.897671,-2625
2021-12-23 18:07:38.897681,1038
2021-12-23 18:07:38.897690,2965
2021-12-23 18:07:38.897700,1116
2021-12-23 18:07:38.897710,-57
2021-12-23 18:07:38.897719,-1188
2021-12-23 18:07:38.897729,-1211
2021-12-23 18:07:38.897743,1732
2021-12-23 18:07:38.897752,2754
2021-12-23 18:07:38.897762,1192
2021-12-23 18:07:38.897772,225
2021-12-23 18:07:38.897782,-1827
2021-12-23 18:07:38.897792,-2362
2021-12-23 18:07:38.897801,537
2021-12-23 18:07:38.897811,-83
2021-12-23 18:07:38.897821,-1967
2021-12-23 18:07:38.897830,-482
2021-12-23 18:07:38.897840,-582
2021-12-23 18:07:38.897850,-482
2021-12-23 18:07:38.897860,1653
2021-12-23 18:07:39.255714,1665
2021-12-23 18:07:39.255732,660
2021-12-23 18:07:39.255740,-1314
2021-12-23 18:07:39.255747,-4149
2021-12-23 18:07:39.255754,-1577
2021-12-23 18:07:39.255760,3060
2021-12-23 18:07:39.255767,427
2021-12-23 18:07:39.255778,-5061
2021-12-23 18:07:39.255785,-5189
2021-12-23 18:07:39.255791,-2072
2021-12-23 18:07:39.255798,527
2021-12-23 18:07:39.255804,2212
2021-12-23 18:07:39.255811,2038
2021-12-23 18:07:39.255817,1273
2021-12-23 18:07:39.255824,-4
2021-12-23 18:07:39.255830,-895
2021-12-23 18:07:39.255837,1285
2021-12-23 18:07:39.255843,850
2021-12-23 18:07:39.255850,-1463
2021-12-23 18:07:39.255856,1083
2021-12-23 18:07:39.255863,1361
2021-12-23 18:07:39.255870,-1050
2021-12-23 18:07:39.255876,1580
2021-12-23 18:07:39.255883,3419
2021-12-23 18:07:39.255889,1680
2021-12-23 18:07:39.255896,1280
2021-12-23 18:07:39.255902,415
2021-12-23 18:07:39.255909,-351
2021-12-23 18:07:39.255915,2034
2021-12-23 18:07:39.255922,3051
2021-12-23 18:07:39.437278,1687
2021-12-23 18:07:39.437322,1323
2021-12-23 18:07:39.437336,7
2021-12-23 18:07:39.437348,-608
2021-12-23 18:07:39.437361,2243
2021-12-23 18:07:39.437373,3055
2021-12-23 18:07:39.437386,1489
2021-12-23 18:07:39.437397,586
2021-12-23 18:07:39.437411,-2673
2021-12-23 18:07:39.437423,-2849
2021-12-23 18:07:39.437434,2865
2021-12-23 18:07:39.437447,3519
2021-12-23 18:07:39.437460,798
2021-12-23 18:07:39.437472,30
2021-12-23 18:07:39.437484,-3108
2021-12-23 18:07:39.437496,-2616
2021-12-23 18:07:39.437509,3141
2021-12-23 18:07:39.437521,3322
2021-12-23 18:07:39.437536,525
2021-12-23 18:07:39.437549,-297
2021-12-23 18:07:39.437652,-1451
2021-12-23 18:07:39.437663,90
2021-12-23 18:07:39.437671,1810
2021-12-23 18:07:39.437677,-387
2021-12-23 18:07:39.437694,-418
2021-12-23 18:07:39.437702,1095
2021-12-23 18:07:39.437709,-781
2021-12-23 18:07:39.437715,-567
2021-12-23 18:07:39.437722,2354
2021-12-23 18:07:39.437729,2048
2021-12-23 18:07:39.617707,831
2021-12-23 18:07:39.617729,358
2021-12-23 18:07:39.617737,-933
2021-12-23 18:07:39.617744,59
2021-12-23 18:07:39.617750,2340
2021-12-23 18:07:39.617756,2007
2021-12-23 18:07:39.617763,762
2021-12-23 18:07:39.617769,-1870
2021-12-23 18:07:39.617775,-3604
2021-12-23 18:07:39.617782,468
2021-12-23 18:07:39.617788,3322
2021-12-23 18:07:39.617794,1454
2021-12-23 18:07:39.617800,380
2021-12-23 18:07:39.617807,-3429
2021-12-23 18:07:39.617813,-7045
2021-12-23 18:07:39.617819,-1454
2021-12-23 18:07:39.617826,1739
2021-12-23 18:07:39.617832,-1661
2021-12-23 18:07:39.617838,-1242
2021-12-23 18:07:39.617844,-1844
2021-12-23 18:07:39.617850,-3790
2021-12-23 18:07:39.617857,-1758
2021-12-23 18:07:39.617865,-624
2021-12-23 18:07:39.617871,225
2021-12-23 18:07:39.617878,1254
2021-12-23 18:07:39.617884,-363
2021-12-23 18:07:39.617891,-777
2021-12-23 18:07:39.617897,1074
2021-12-23 18:07:39.617903,1936
2021-12-23 18:07:39.617910,1601
2021-12-23 18:07:39.976789,800
2021-12-23 18:07:39.976819,76
2021-12-23 18:07:39.976832,209
2021-12-23 18:07:39.976842,917
2021-12-23 18:07:39.976852,1920
2021-12-23 18:07:39.976862,1977
2021-12-23 18:07:39.976871,-905
2021-12-23 18:07:39.976881,-3013
2021-12-23 18:07:39.976891,-182
2021-12-23 18:07:39.976901,2281
2021-12-23 18:07:39.976911,1718
2021-12-23 18:07:39.976920,1375
2021-12-23 18:07:39.976930,-684
2021-12-23 18:07:39.976940,-2528
2021-12-23 18:07:39.976950,380
2021-12-23 18:07:39.976959,2352
2021-12-23 18:07:39.976969,1520
2021-12-23 18:07:39.976979,1651
2021-12-23 18:07:39.976989,967
2021-12-23 18:07:39.976998,204
2021-12-23 18:07:39.977008,1107
2021-12-23 18:07:39.977018,1449
2021-12-23 18:07:39.977027,1596
2021-12-23 18:07:39.977037,26
2021-12-23 18:07:39.977051,-2556
2021-12-23 18:07:39.977061,-106
2021-12-23 18:07:39.977071,2480
2021-12-23 18:07:39.977081,974
2021-12-23 18:07:39.977091,1375
2021-12-23 18:07:39.977101,2221
2021-12-23 18:07:40.067656,560
2021-12-23 18:07:40.067687,548
2021-12-23 18:07:40.067700,1444
2021-12-23 18:07:40.067710,962
2021-12-23 18:07:40.067720,1380
2021-12-23 18:07:40.067730,1036
2021-12-23 18:07:40.067740,-684
2021-12-23 18:07:40.067750,408
2021-12-23 18:07:40.067760,1901
2021-12-23 18:07:40.067770,1007
2021-12-23 18:07:40.067780,1444
2021-12-23 18:07:40.067789,1252
2021-12-23 18:07:40.067800,-679
2021-12-23 18:07:40.067809,689
2021-12-23 18:07:40.067819,1950
2021-12-23 18:07:40.067829,693
2021-12-23 18:07:40.067839,1542
2021-12-23 18:07:40.067849,2466
2021-12-23 18:07:40.067859,-1104
2021-12-23 18:07:40.067869,-4488
2021-12-23 18:07:40.067879,-1247
2021-12-23 18:07:40.067889,2628
2021-12-23 18:07:40.067898,1473
2021-12-23 18:07:40.067908,-1739
2021-12-23 18:07:40.067918,-2338
2021-12-23 18:07:40.067928,-396
2021-12-23 18:07:40.067938,-1074
2021-12-23 18:07:40.067948,-617
2021-12-23 18:07:40.067957,2257
2021-12-23 18:07:40.067968,646
2021-12-23 18:07:40.292639,-905
2021-12-23 18:07:40.292669,1908
2021-12-23 18:07:40.292677,1577
2021-12-23 18:07:40.292684,-392
2021-12-23 18:07:40.292691,819
2021-12-23 18:07:40.292698,-1254
2021-12-23 18:07:40.292704,-2564
2021-12-23 18:07:40.292711,2228
2021-12-23 18:07:40.292718,2485
2021-12-23 18:07:40.292724,-270
2021-12-23 18:07:40.292731,439
2021-12-23 18:07:40.292737,-1173
2021-12-23 18:07:40.292744,-1485
2021-12-23 18:07:40.292751,2473
2021-12-23 18:07:40.292757,1998
2021-12-23 18:07:40.292764,-156
2021-12-23 18:07:40.292771,1109
2021-12-23 18:07:40.292777,1026
2021-12-23 18:07:40.292784,696
2021-12-23 18:07:40.292790,2067
2021-12-23 18:07:40.292797,1387
2021-12-23 18:07:40.292803,370
2021-12-23 18:07:40.292810,1112
2021-12-23 18:07:40.292816,895
2021-12-23 18:07:40.292823,1112
2021-12-23 18:07:40.292829,2103
2021-12-23 18:07:40.292836,762
2021-12-23 18:07:40.292842,-1653
2021-12-23 18:07:40.292849,-2266
2021-12-23 18:07:40.292855,-142
2021-12-23 18:07:40.517680,2321
2021-12-23 18:07:40.517712,1874
2021-12-23 18:07:40.517723,211
2021-12-23 18:07:40.517734,178
2021-12-23 18:07:40.517744,-1102
2021-12-23 18:07:40.517754,-2381
2021-12-23 18:07:40.517764,1214
2021-12-23 18:07:40.517774,3084
2021-12-23 18:07:40.517783,335
2021-12-23 18:07:40.517793,-446
2021-12-23 18:07:40.517809,-995
2021-12-23 18:07:40.517819,-1699
2021-12-23 18:07:40.517829,1573
2021-12-23 18:07:40.517839,2939
2021-12-23 18:07:40.517849,232
2021-12-23 18:07:40.517859,-187
2021-12-23 18:07:40.517869,788
2021-12-23 18:07:40.517879,786
2021-12-23 18:07:40.517889,1715
2021-12-23 18:07:40.517899,2065
2021-12-23 18:07:40.517909,624
2021-12-23 18:07:40.517919,4
2021-12-23 18:07:40.517929,508
2021-12-23 18:07:40.517939,9
2021-12-23 18:07:40.517948,-3072
2021-12-23 18:07:40.517958,-3267
2021-12-23 18:07:40.517968,1394
2021-12-23 18:07:40.517978,1354
2021-12-23 18:07:40.517988,-1055
2021-12-23 18:07:40.517998,-411
2021-12-23 18:07:40.786958,-596
2021-12-23 18:07:40.786990,218
2021-12-23 18:07:40.787002,1195
2021-12-23 18:07:40.787012,-1893
2021-12-23 18:07:40.787022,-3329
2021-12-23 18:07:40.787032,822
2021-12-23 18:07:40.787042,3169
2021-12-23 18:07:40.787052,1261
2021-12-23 18:07:40.787062,11
2021-12-23 18:07:40.787072,-1606
2021-12-23 18:07:40.787082,-2504
2021-12-23 18:07:40.787092,1152
2021-12-23 18:07:40.787101,3198
2021-12-23 18:07:40.787111,1143
2021-12-23 18:07:40.787121,47
2021-12-23 18:07:40.787131,-617
2021-12-23 18:07:40.787141,-337
2021-12-23 18:07:40.787151,2019
2021-12-23 18:07:40.787161,2433
2021-12-23 18:07:40.787171,1209
2021-12-23 18:07:40.787181,458
2021-12-23 18:07:40.787191,-527
2021-12-23 18:07:40.787201,356
2021-12-23 18:07:40.787210,2338
2021-12-23 18:07:40.787220,2067
2021-12-23 18:07:40.787237,1221
2021-12-23 18:07:40.787247,441
2021-12-23 18:07:40.787257,-584
2021-12-23 18:07:40.787267,667
2021-12-23 18:07:40.787277,2421
2021-12-23 18:07:41.012619,1789
2021-12-23 18:07:41.012651,-567
2021-12-23 18:07:41.012663,-4182
2021-12-23 18:07:41.012673,-5175
2021-12-23 18:07:41.012683,-365
2021-12-23 18:07:41.012693,3300
2021-12-23 18:07:41.012703,1611
2021-12-23 18:07:41.012713,-275
2021-12-23 18:07:41.012723,-3286
2021-12-23 18:07:41.012733,-5608
2021-12-23 18:07:41.012743,-513
2021-12-23 18:07:41.012753,3333
2021-12-23 18:07:41.012763,841
2021-12-23 18:07:41.012773,171
2021-12-23 18:07:41.012783,-641
2021-12-23 18:07:41.012793,-2533
2021-12-23 18:07:41.012803,563
2021-12-23 18:07:41.012812,2948
2021-12-23 18:07:41.012822,1173
2021-12-23 18:07:41.012832,677
2021-12-23 18:07:41.012842,-194
2021-12-23 18:07:41.012852,-1249
2021-12-23 18:07:41.012862,1287
2021-12-23 18:07:41.012871,2694
2021-12-23 18:07:41.012881,1240
2021-12-23 18:07:41.012891,912
2021-12-23 18:07:41.012900,-38
2021-12-23 18:07:41.012910,-872
2021-12-23 18:07:41.012920,439
2021-12-23 18:07:41.012930,-1758
2021-12-23 18:07:41.281295,-6261
2021-12-23 18:07:41.281327,-5313
2021-12-23 18:07:41.281339,-2435
2021-12-23 18:07:41.281349,-3098
2021-12-23 18:07:41.281359,-2754
2021-12-23 18:07:41.281368,349
2021-12-23 18:07:41.281378,1680
2021-12-23 18:07:41.281388,-548
2021-12-23 18:07:41.281398,-4474
2021-12-23 18:07:41.281407,-3386
2021-12-23 18:07:41.281417,2345
2021-12-23 18:07:41.281426,2647
2021-12-23 18:07:41.281436,251
2021-12-23 18:07:41.281446,-313
2021-12-23 18:07:41.281456,-3105
2021-12-23 18:07:41.281465,-2535
2021-12-23 18:07:41.281481,2744
2021-12-23 18:07:41.281491,2877
2021-12-23 18:07:41.281501,522
2021-12-23 18:07:41.281510,710
2021-12-23 18:07:41.281520,-375
2021-12-23 18:07:41.281530,-299
2021-12-23 18:07:41.281539,2390
2021-12-23 18:07:41.281549,2459
2021-12-23 18:07:41.281559,1230
2021-12-23 18:07:41.281568,834
2021-12-23 18:07:41.281578,-330
2021-12-23 18:07:41.281588,373
2021-12-23 18:07:41.281597,2492
2021-12-23 18:07:41.281607,2243
2021-12-23 18:07:41.507797,1394
2021-12-23 18:07:41.507819,748
2021-12-23 18:07:41.507828,-487
2021-12-23 18:07:41.507834,418
2021-12-23 18:07:41.507841,2409
2021-12-23 18:07:41.507847,750
2021-12-23 18:07:41.507853,-2224
2021-12-23 18:07:41.507860,-2929
2021-12-23 18:07:41.507866,-2247
2021-12-23 18:07:41.507873,603
2021-12-23 18:07:41.507879,2851
2021-12-23 18:07:41.507886,1884
2021-12-23 18:07:41.507892,608
2021-12-23 18:07:41.507898,-1808
2021-12-23 18:07:41.507905,-3006
2021-12-23 18:07:41.507911,1135
2021-12-23 18:07:41.507917,3383
2021-12-23 18:07:41.507924,1456
2021-12-23 18:07:41.507930,1040
2021-12-23 18:07:41.507936,769
2021-12-23 18:07:41.507943,-125
2021-12-23 18:07:41.507950,1005
2021-12-23 18:07:41.507956,2430
2021-12-23 18:07:41.507962,2091
2021-12-23 18:07:41.507969,981
2021-12-23 18:07:41.507975,147
2021-12-23 18:07:41.507982,297
2021-12-23 18:07:41.507988,1268
2021-12-23 18:07:41.507995,2112
2021-12-23 18:07:41.508001,2022
2021-12-23 18:07:41.687786,922
2021-12-23 18:07:41.687809,121
2021-12-23 18:07:41.687818,308
2021-12-23 18:07:41.687825,1021
2021-12-23 18:07:41.687831,867
2021-12-23 18:07:41.687838,-2782
2021-12-23 18:07:41.687844,-3436
2021-12-23 18:07:41.687851,841
2021-12-23 18:07:41.687857,-724
2021-12-23 18:07:41.687864,-2005
2021-12-23 18:07:41.687870,2642
2021-12-23 18:07:41.687877,2730
2021-12-23 18:07:41.687883,-2278
2021-12-23 18:07:41.687893,-3108
2021-12-23 18:07:41.687899,948
2021-12-23 18:07:41.687906,2026
2021-12-23 18:07:41.687912,1140
2021-12-23 18:07:41.687919,1456
2021-12-23 18:07:41.687925,-1102
2021-12-23 18:07:41.687932,-2490
2021-12-23 18:07:41.687938,983
2021-12-23 18:07:41.687944,2105
2021-12-23 18:07:41.687951,1176
2021-12-23 18:07:41.687957,1539
2021-12-23 18:07:41.687963,653
2021-12-23 18:07:41.687970,185
2021-12-23 18:07:41.687976,1185
2021-12-23 18:07:41.687983,1325
2021-12-23 18:07:41.687989,1575
2021-12-23 18:07:41.687996,1642
2021-12-23 18:07:41.957575,439
2021-12-23 18:07:41.957597,529
2021-12-23 18:07:41.957605,1178
2021-12-23 18:07:41.957631,746
2021-12-23 18:07:41.957641,1516
2021-12-23 18:07:41.957651,629
2021-12-23 18:07:41.957661,-2754
2021-12-23 18:07:41.957671,-1104
2021-12-23 18:07:41.957681,2205
2021-12-23 18:07:41.957690,-368
2021-12-23 18:07:41.957700,-2354
2021-12-23 18:07:41.957710,-1316
2021-12-23 18:07:41.957720,-1625
2021-12-23 18:07:41.957730,-187
2021-12-23 18:07:41.957740,1756
2021-12-23 18:07:41.957750,950
2021-12-23 18:07:41.957759,1157
2021-12-23 18:07:41.957769,1211
2021-12-23 18:07:41.957779,78
2021-12-23 18:07:41.957789,1116
2021-12-23 18:07:41.957798,1546
2021-12-23 18:07:41.957808,541
2021-12-23 18:07:41.957818,1416
2021-12-23 18:07:41.957827,1299
2021-12-23 18:07:41.957837,-92
2021-12-23 18:07:41.957847,974
2021-12-23 18:07:41.957856,1416
2021-12-23 18:07:41.957866,453
2021-12-23 18:07:41.957876,1347
2021-12-23 18:07:41.957885,1138
2021-12-23 18:07:42.137645,213
2021-12-23 18:07:42.137674,1577
2021-12-23 18:07:42.137689,1247
2021-12-23 18:07:42.137701,102
2021-12-23 18:07:42.137713,708
2021-12-23 18:07:42.137724,-1661
2021-12-23 18:07:42.137735,-2464
2021-12-23 18:07:42.137746,2072
2021-12-23 18:07:42.137757,2122
2021-12-23 18:07:42.137769,-910
2021-12-23 18:07:42.137781,-2511
2021-12-23 18:07:42.137793,-4441
2021-12-23 18:07:42.137805,-2338
2021-12-23 18:07:42.137818,1404
2021-12-23 18:07:42.137831,1050
2021-12-23 18:07:42.137843,121
2021-12-23 18:07:42.137855,-14
2021-12-23 18:07:42.137873,-1905
2021-12-23 18:07:42.137885,-800
2021-12-23 18:07:42.137926,2742
2021-12-23 18:07:42.137952,1330
2021-12-23 18:07:42.137967,-285
2021-12-23 18:07:42.137979,1097
2021-12-23 18:07:42.137991,705
2021-12-23 18:07:42.138003,831
2021-12-23 18:07:42.138014,2133
2021-12-23 18:07:42.138026,1007
2021-12-23 18:07:42.138038,240
2021-12-23 18:07:42.138050,924
2021-12-23 18:07:42.138062,722
2021-12-23 18:07:42.362551,1285
2021-12-23 18:07:42.362573,1984
2021-12-23 18:07:42.362581,658
2021-12-23 18:07:42.362587,-220
2021-12-23 18:07:42.362594,-1299
2021-12-23 18:07:42.362601,-2250
2021-12-23 18:07:42.362607,1064
2021-12-23 18:07:42.362613,2963
2021-12-23 18:07:42.362620,263
2021-12-23 18:07:42.362626,-608
2021-12-23 18:07:42.362633,-1088
2021-12-23 18:07:42.362639,-1798
2021-12-23 18:07:42.362646,1487
2021-12-23 18:07:42.362652,1601
2021-12-23 18:07:42.362659,-3274
2021-12-23 18:07:42.362665,-2414
2021-12-23 18:07:42.362672,1516
2021-12-23 18:07:42.362678,1107
2021-12-23 18:07:42.362685,998
2021-12-23 18:07:42.362691,2076
2021-12-23 18:07:42.362697,860
2021-12-23 18:07:42.362704,-256
2021-12-23 18:07:42.362710,403
2021-12-23 18:07:42.362717,1366
2021-12-23 18:07:42.362724,1594
2021-12-23 18:07:42.362731,-97
2021-12-23 18:07:42.362738,-2024
2021-12-23 18:07:42.362744,-1031
2021-12-23 18:07:42.362751,463
2021-12-23 18:07:42.362757,679
2021-12-23 18:07:42.587577,1247
2021-12-23 18:07:42.587600,1335
2021-12-23 18:07:42.587608,-57
2021-12-23 18:07:42.587615,-2490
2021-12-23 18:07:42.587621,-3219
2021-12-23 18:07:42.587627,249
2021-12-23 18:07:42.587634,2692
2021-12-23 18:07:42.587640,1052
2021-12-23 18:07:42.587647,-320
2021-12-23 18:07:42.587653,-2050
2021-12-23 18:07:42.587659,-2891
2021-12-23 18:07:42.587665,941
2021-12-23 18:07:42.587672,2927
2021-12-23 18:07:42.587678,876
2021-12-23 18:07:42.587684,135
2021-12-23 18:07:42.587691,-779
2021-12-23 18:07:42.587697,-6268
2021-12-23 18:07:42.587703,-8167
2021-12-23 18:07:42.587709,-753
2021-12-23 18:07:42.587716,1133
2021-12-23 18:07:42.587722,-3241
2021-12-23 18:07:42.587728,-2162
2021-12-23 18:07:42.587734,722
2021-12-23 18:07:42.587741,1066
2021-12-23 18:07:42.587747,941
2021-12-23 18:07:42.587753,998
2021-12-23 18:07:42.587759,-135
2021-12-23 18:07:42.587765,-1273
2021-12-23 18:07:42.587772,316
2021-12-23 18:07:42.587781,2162
2021-12-23 18:07:42.857656,1520
2021-12-23 18:07:42.857680,857
2021-12-23 18:07:42.857688,-993
2021-12-23 18:07:42.857695,-4113
2021-12-23 18:07:42.857701,-1373
2021-12-23 18:07:42.857708,3307
2021-12-23 18:07:42.857714,2007
2021-12-23 18:07:42.857721,399
2021-12-23 18:07:42.857727,-919
2021-12-23 18:07:42.857733,-3524
2021-12-23 18:07:42.857740,-451
2021-12-23 18:07:42.857746,3514
2021-12-23 18:07:42.857753,1865
2021-12-23 18:07:42.857759,643
2021-12-23 18:07:42.857766,152
2021-12-23 18:07:42.857772,-907
2021-12-23 18:07:42.857779,1214
2021-12-23 18:07:42.857785,1855
2021-12-23 18:07:42.857791,-1378
2021-12-23 18:07:42.857798,-941
2021-12-23 18:07:42.857804,955
2021-12-23 18:07:42.857811,-263
2021-12-23 18:07:42.857817,1019
2021-12-23 18:07:42.857823,3003
2021-12-23 18:07:42.857830,1791
2021-12-23 18:07:42.857836,1069
2021-12-23 18:07:42.857842,87
2021-12-23 18:07:42.857849,-539
2021-12-23 18:07:42.857855,1943
2021-12-23 18:07:42.857862,2799
2021-12-23 18:07:43.127731,843
2021-12-23 18:07:43.127762,-1055
2021-12-23 18:07:43.127774,-2651
2021-12-23 18:07:43.127784,-1131
2021-12-23 18:07:43.127794,1867
2021-12-23 18:07:43.127804,1468
2021-12-23 18:07:43.127813,715
2021-12-23 18:07:43.127823,249
2021-12-23 18:07:43.127833,-3597
2021-12-23 18:07:43.127843,-3557
2021-12-23 18:07:43.127852,2559
2021-12-23 18:07:43.127862,3141
2021-12-23 18:07:43.127872,275
2021-12-23 18:07:43.127882,-220
2021-12-23 18:07:43.127891,-2818
2021-12-23 18:07:43.127901,-2428
2021-12-23 18:07:43.127911,2796
2021-12-23 18:07:43.127921,2894
2021-12-23 18:07:43.127930,572
2021-12-23 18:07:43.127940,629
2021-12-23 18:07:43.127950,-1718
2021-12-23 18:07:43.127959,-2827
2021-12-23 18:07:43.127969,-2245
2021-12-23 18:07:43.127979,-5130
2021-12-23 18:07:43.127988,-4327
2021-12-23 18:07:43.127998,-862
2021-12-23 18:07:43.128008,-1798
2021-12-23 18:07:43.128017,-1135
2021-12-23 18:07:43.128027,1813
2021-12-23 18:07:43.128037,1573
2021-12-23 18:07:43.351702,472
2021-12-23 18:07:43.351733,116
2021-12-23 18:07:43.351745,-964
2021-12-23 18:07:43.351756,-194
2021-12-23 18:07:43.351766,2048
2021-12-23 18:07:43.351776,1912
2021-12-23 18:07:43.351785,769
2021-12-23 18:07:43.351795,-453
2021-12-23 18:07:43.351805,-1549
2021-12-23 18:07:43.351815,482
2021-12-23 18:07:43.351825,2628
2021-12-23 18:07:43.351834,1763
2021-12-23 18:07:43.351844,848
2021-12-23 18:07:43.351854,-263
2021-12-23 18:07:43.351864,-1100
2021-12-23 18:07:43.351874,952
2021-12-23 18:07:43.351883,2585
2021-12-23 18:07:43.351893,1827
2021-12-23 18:07:43.351903,377
2021-12-23 18:07:43.351912,-2119
2021-12-23 18:07:43.351927,-2209
2021-12-23 18:07:43.351937,620
2021-12-23 18:07:43.351947,-61
2021-12-23 18:07:43.351956,-810
2021-12-23 18:07:43.351966,1596
2021-12-23 18:07:43.351976,986
2021-12-23 18:07:43.351986,-584
2021-12-23 18:07:43.351996,1181
2021-12-23 18:07:43.352005,2640
2021-12-23 18:07:43.352015,1901
2021-12-23 18:07:43.532617,933
2021-12-23 18:07:43.532639,456
2021-12-23 18:07:43.532647,434
2021-12-23 18:07:43.532654,1112
2021-12-23 18:07:43.532678,2081
2021-12-23 18:07:43.532688,2069
2021-12-23 18:07:43.532698,-760
2021-12-23 18:07:43.532707,-2925
2021-12-23 18:07:43.532717,26
2021-12-23 18:07:43.532727,2430
2021-12-23 18:07:43.532737,1670
2021-12-23 18:07:43.532747,1437
2021-12-23 18:07:43.532757,-767
2021-12-23 18:07:43.532767,-2678
2021-12-23 18:07:43.532776,396
2021-12-23 18:07:43.532786,2300
2021-12-23 18:07:43.532796,1492
2021-12-23 18:07:43.532806,1373
2021-12-23 18:07:43.532816,-506
2021-12-23 18:07:43.532825,-1556
2021-12-23 18:07:43.532835,1000
2021-12-23 18:07:43.532845,1936
2021-12-23 18:07:43.532855,1385
2021-12-23 18:07:43.532864,1230
2021-12-23 18:07:43.532874,-639
2021-12-23 18:07:43.532884,-784
2021-12-23 18:07:43.532894,1478
2021-12-23 18:07:43.532903,1487
2021-12-23 18:07:43.532913,280
2021-12-23 18:07:43.532923,-3105
2021-12-23 18:07:43.757768,-4873
2021-12-23 18:07:43.757799,929
2021-12-23 18:07:43.757811,2977
2021-12-23 18:07:43.757822,-304
2021-12-23 18:07:43.757832,1347
2021-12-23 18:07:43.757842,1390
2021-12-23 18:07:43.757852,-2913
2021-12-23 18:07:43.757869,-1143
2021-12-23 18:07:43.757879,2687
2021-12-23 18:07:43.757889,1245
2021-12-23 18:07:43.757899,886
2021-12-23 18:07:43.757909,465
2021-12-23 18:07:43.757935,-2312
2021-12-23 18:07:43.757941,-263
2021-12-23 18:07:43.757950,2421
2021-12-23 18:07:43.757957,800
2021-12-23 18:07:43.757963,931
2021-12-23 18:07:43.757970,337
2021-12-23 18:07:43.757976,-2186
2021-12-23 18:07:43.757983,78
2021-12-23 18:07:43.757989,1874
2021-12-23 18:07:43.757995,23
2021-12-23 18:07:43.758002,812
2021-12-23 18:07:43.758008,1287
2021-12-23 18:07:43.758014,-54
2021-12-23 18:07:43.758021,344
2021-12-23 18:07:43.758027,-1330
2021-12-23 18:07:43.758033,-2110
2021-12-23 18:07:43.758040,1756
2021-12-23 18:07:43.758046,1661
2021-12-23 18:07:44.027632,-472
2021-12-23 18:07:44.027664,1492
2021-12-23 18:07:44.027676,1480
2021-12-23 18:07:44.027686,-90
2021-12-23 18:07:44.027696,596
2021-12-23 18:07:44.027706,-1423
2021-12-23 18:07:44.027716,-2345
2021-12-23 18:07:44.027726,1853
2021-12-23 18:07:44.027735,662
2021-12-23 18:07:44.027745,-2834
2021-12-23 18:07:44.027755,-1162
2021-12-23 18:07:44.027765,-2937
2021-12-23 18:07:44.027774,-3730
2021-12-23 18:07:44.027784,1658
2021-12-23 18:07:44.027794,1230
2021-12-23 18:07:44.027803,-1863
2021-12-23 18:07:44.027813,213
2021-12-23 18:07:44.027823,684
2021-12-23 18:07:44.027833,-9
2021-12-23 18:07:44.027843,1392
2021-12-23 18:07:44.027852,850
2021-12-23 18:07:44.027862,-68
2021-12-23 18:07:44.027878,681
2021-12-23 18:07:44.027888,546
2021-12-23 18:07:44.027897,924
2021-12-23 18:07:44.027907,1844
2021-12-23 18:07:44.027917,850
2021-12-23 18:07:44.027938,-225
2021-12-23 18:07:44.027948,-510
2021-12-23 18:07:44.027958,-256
2021-12-23 18:07:44.207680,1575
2021-12-23 18:07:44.207711,2212
2021-12-23 18:07:44.207724,382
2021-12-23 18:07:44.207734,-14
2021-12-23 18:07:44.207744,-1297
2021-12-23 18:07:44.207754,-3792
2021-12-23 18:07:44.207764,35
2021-12-23 18:07:44.207774,3688
2021-12-23 18:07:44.207783,594
2021-12-23 18:07:44.207793,-883
2021-12-23 18:07:44.207803,-1119
2021-12-23 18:07:44.207813,-1803
2021-12-23 18:07:44.207823,1649
2021-12-23 18:07:44.207833,3112
2021-12-23 18:07:44.207842,270
2021-12-23 18:07:44.207852,-689
2021-12-23 18:07:44.207862,-1347
2021-12-23 18:07:44.207872,-1133
2021-12-23 18:07:44.207881,2257
2021-12-23 18:07:44.207891,2806
2021-12-23 18:07:44.207901,273
2021-12-23 18:07:44.207911,-45
2021-12-23 18:07:44.207920,807
2021-12-23 18:07:44.207930,1266
2021-12-23 18:07:44.207940,2053
2021-12-23 18:07:44.207949,2088
2021-12-23 18:07:44.207959,815
2021-12-23 18:07:44.207969,61
2021-12-23 18:07:44.207979,617
2021-12-23 18:07:44.207988,983
2021-12-23 18:07:44.432631,-515
2021-12-23 18:07:44.432662,-964
2021-12-23 18:07:44.432674,838
2021-12-23 18:07:44.432685,-1126
2021-12-23 18:07:44.432695,-3402
2021-12-23 18:07:44.432705,767
2021-12-23 18:07:44.432715,3569
2021-12-23 18:07:44.432725,1325
2021-12-23 18:07:44.432735,-2
2021-12-23 18:07:44.432745,-1501
2021-12-23 18:07:44.432754,-2238
2021-12-23 18:07:44.432764,1411
2021-12-23 18:07:44.432774,3217
2021-12-23 18:07:44.432784,1297
2021-12-23 18:07:44.432794,261
2021-12-23 18:07:44.432804,-159
2021-12-23 18:07:44.432814,413
2021-12-23 18:07:44.432823,2141
2021-12-23 18:07:44.432833,2338
2021-12-23 18:07:44.432843,1430
2021-12-23 18:07:44.432853,525
2021-12-23 18:07:44.432863,-335
2021-12-23 18:07:44.432872,689
2021-12-23 18:07:44.432882,2438
2021-12-23 18:07:44.432892,2098
2021-12-23 18:07:44.432902,1297
2021-12-23 18:07:44.432911,506
2021-12-23 18:07:44.432921,-632
2021-12-23 18:07:44.432931,722
2021-12-23 18:07:44.432941,2609
2021-12-23 18:07:44.747024,1879
2021-12-23 18:07:44.747056,570
2021-12-23 18:07:44.747068,-3360
2021-12-23 18:07:44.747078,-6596
2021-12-23 18:07:44.747088,-812
2021-12-23 18:07:44.747097,4217
2021-12-23 18:07:44.747107,1508
2021-12-23 18:07:44.747117,411
2021-12-23 18:07:44.747126,-510
2021-12-23 18:07:44.747136,-4769
2021-12-23 18:07:44.747146,-5603
2021-12-23 18:07:44.747156,-1333
2021-12-23 18:07:44.747165,2701
2021-12-23 18:07:44.747175,1988
2021-12-23 18:07:44.747185,-1038
2021-12-23 18:07:44.747194,-1005
2021-12-23 18:07:44.747204,1870
2021-12-23 18:07:44.747214,2668
2021-12-23 18:07:44.747223,1428
2021-12-23 18:07:44.747233,1411
2021-12-23 18:07:44.747243,194
2021-12-23 18:07:44.747253,-862
2021-12-23 18:07:44.747262,1765
2021-12-23 18:07:44.747272,2868
2021-12-23 18:07:44.747281,1394
2021-12-23 18:07:44.747291,1233
2021-12-23 18:07:44.747301,35
2021-12-23 18:07:44.747311,-710
2021-12-23 18:07:44.747320,1903
2021-12-23 18:07:44.747330,2749
2021-12-23 18:07:44.927695,1366
2021-12-23 18:07:44.927717,1028
2021-12-23 18:07:44.927725,-449
2021-12-23 18:07:44.927731,-1518
2021-12-23 18:07:44.927738,-615
2021-12-23 18:07:44.927748,-109
2021-12-23 18:07:44.927754,1373
2021-12-23 18:07:44.927761,1451
2021-12-23 18:07:44.927767,-1969
2021-12-23 18:07:44.927774,-1634
2021-12-23 18:07:44.927781,2692
2021-12-23 18:07:44.927787,2666
2021-12-23 18:07:44.927794,779
2021-12-23 18:07:44.927800,-64
2021-12-23 18:07:44.927807,-3362
2021-12-23 18:07:44.927813,-2509
2021-12-23 18:07:44.927819,3015
2021-12-23 18:07:44.927826,2815
2021-12-23 18:07:44.927832,499
2021-12-23 18:07:44.927839,406
2021-12-23 18:07:44.927845,-1223
2021-12-23 18:07:44.927851,-636
2021-12-23 18:07:44.927858,2492
2021-12-23 18:07:44.927864,2335
2021-12-23 18:07:44.927870,812
2021-12-23 18:07:44.927877,111
2021-12-23 18:07:44.927883,-855
2021-12-23 18:07:44.927890,216
2021-12-23 18:07:44.927896,2350
2021-12-23 18:07:44.927903,2005
2021-12-23 18:07:45.152768,1090
2021-12-23 18:07:45.152794,537
2021-12-23 18:07:45.152802,-736
2021-12-23 18:07:45.152809,121
2021-12-23 18:07:45.152815,2274
2021-12-23 18:07:45.152822,1428
2021-12-23 18:07:45.152828,-1884
2021-12-23 18:07:45.152835,-4845
2021-12-23 18:07:45.152842,-3440
2021-12-23 18:07:45.152853,1380
2021-12-23 18:07:45.152865,2552
2021-12-23 18:07:45.152876,1066
2021-12-23 18:07:45.152883,608
2021-12-23 18:07:45.152890,-1860
2021-12-23 18:07:45.152896,-3131
2021-12-23 18:07:45.152903,-114
2021-12-23 18:07:45.152909,-1874
2021-12-23 18:07:45.152915,-4058
2021-12-23 18:07:45.152922,1214
2021-12-23 18:07:45.152928,1955
2021-12-23 18:07:45.152935,-1630
2021-12-23 18:07:45.152941,475
2021-12-23 18:07:45.152947,2953
2021-12-23 18:07:45.152953,1611
2021-12-23 18:07:45.152960,582
2021-12-23 18:07:45.152966,434
2021-12-23 18:07:45.152972,123
2021-12-23 18:07:45.152979,867
2021-12-23 18:07:45.152985,2000
2021-12-23 18:07:45.152992,1901
2021-12-23 18:07:45.420628,755
2021-12-23 18:07:45.420649,-52
2021-12-23 18:07:45.420657,166
2021-12-23 18:07:45.420664,793
2021-12-23 18:07:45.420670,1710
2021-12-23 18:07:45.420677,1855
2021-12-23 18:07:45.420683,-1169
2021-12-23 18:07:45.420690,-3823
2021-12-23 18:07:45.420696,-2713
2021-12-23 18:07:45.420703,-841
2021-12-23 18:07:45.420709,1440
2021-12-23 18:07:45.420715,2045
2021-12-23 18:07:45.420722,-1589
2021-12-23 18:07:45.420728,-2970
2021-12-23 18:07:45.420735,579
2021-12-23 18:07:45.420741,1946
2021-12-23 18:07:45.420748,1093
2021-12-23 18:07:45.420754,1473
2021-12-23 18:07:45.420761,670
2021-12-23 18:07:45.420767,-137
2021-12-23 18:07:45.420774,829
2021-12-23 18:07:45.420780,1195
2021-12-23 18:07:45.420786,1449
2021-12-23 18:07:45.420793,1656
2021-12-23 18:07:45.420799,365
2021-12-23 18:07:45.420806,232
2021-12-23 18:07:45.420812,1190
2021-12-23 18:07:45.420818,957
2021-12-23 18:07:45.420825,1428
2021-12-23 18:07:45.420831,1584
2021-12-23 18:07:45.602709,156
2021-12-23 18:07:45.602740,427
2021-12-23 18:07:45.602752,1071
2021-12-23 18:07:45.602762,541
2021-12-23 18:07:45.602772,1399
2021-12-23 18:07:45.602782,351
2021-12-23 18:07:45.602792,-2984
2021-12-23 18:07:45.602802,-1169
2021-12-23 18:07:45.602812,2138
2021-12-23 18:07:45.602822,494
2021-12-23 18:07:45.602832,-1758
2021-12-23 18:07:45.602841,-3124
2021-12-23 18:07:45.602851,-3172
2021-12-23 18:07:45.602861,220
2021-12-23 18:07:45.602871,1779
2021-12-23 18:07:45.602881,235
2021-12-23 18:07:45.602891,1074
2021-12-23 18:07:45.602901,1397
2021-12-23 18:07:45.602911,-133
2021-12-23 18:07:45.602920,1026
2021-12-23 18:07:45.602930,1501
2021-12-23 18:07:45.602940,-66
2021-12-23 18:07:45.602950,-2559
2021-12-23 18:07:45.602960,-4952
2021-12-23 18:07:45.602970,-998
2021-12-23 18:07:45.602979,3293
2021-12-23 18:07:45.602989,698
2021-12-23 18:07:45.602999,-365
2021-12-23 18:07:45.603009,1969
2021-12-23 18:07:45.603019,1055
2021-12-23 18:07:45.872006,-142
2021-12-23 18:07:45.872046,1675
2021-12-23 18:07:45.872059,1323
2021-12-23 18:07:45.872069,-42
2021-12-23 18:07:45.872079,617
2021-12-23 18:07:45.872089,-1592
2021-12-23 18:07:45.872099,-2473
2021-12-23 18:07:45.872109,2095
2021-12-23 18:07:45.872119,2136
2021-12-23 18:07:45.872129,-518
2021-12-23 18:07:45.872139,247
2021-12-23 18:07:45.872149,-1741
2021-12-23 18:07:45.872159,-3935
2021-12-23 18:07:45.872169,-753
2021-12-23 18:07:45.872178,1356
2021-12-23 18:07:45.872193,316
2021-12-23 18:07:45.872213,451
2021-12-23 18:07:45.872231,620
2021-12-23 18:07:45.872247,895
2021-12-23 18:07:45.872264,1848
2021-12-23 18:07:45.872281,1043
2021-12-23 18:07:45.872298,344
2021-12-23 18:07:45.872315,931
2021-12-23 18:07:45.872330,677
2021-12-23 18:07:45.872348,1059
2021-12-23 18:07:45.872358,1984
2021-12-23 18:07:45.872368,848
2021-12-23 18:07:45.872378,142
2021-12-23 18:07:45.872387,891
2021-12-23 18:07:45.872397,674
2021-12-23 18:07:46.142581,1190
2021-12-23 18:07:46.142603,1984
2021-12-23 18:07:46.142611,199
2021-12-23 18:07:46.142618,-2262
2021-12-23 18:07:46.142644,-4248
2021-12-23 18:07:46.142654,-3557
2021-12-23 18:07:46.142664,1036
2021-12-23 18:07:46.142674,2228
2021-12-23 18:07:46.142684,-506
2021-12-23 18:07:46.142694,-905
2021-12-23 18:07:46.142704,-1687
2021-12-23 18:07:46.142714,-2316
2021-12-23 18:07:46.142724,1311
2021-12-23 18:07:46.142733,2209
2021-12-23 18:07:46.142743,-2499
2021-12-23 18:07:46.142753,-3859
2021-12-23 18:07:46.142763,-316
2021-12-23 18:07:46.142773,1126
2021-12-23 18:07:46.142783,1088
2021-12-23 18:07:46.142792,1665
2021-12-23 18:07:46.142802,715
2021-12-23 18:07:46.142812,-361
2021-12-23 18:07:46.142822,2
2021-12-23 18:07:46.142831,556
2021-12-23 18:07:46.142841,-185
2021-12-23 18:07:46.142851,-926
2021-12-23 18:07:46.142861,-1185
2021-12-23 18:07:46.142870,-2345
2021-12-23 18:07:46.142880,-4189
2021-12-23 18:07:46.142890,-4522
2021-12-23 18:07:46.277602,-482
2021-12-23 18:07:46.277624,2179
2021-12-23 18:07:46.277632,-584
2021-12-23 18:07:46.277656,-3540
2021-12-23 18:07:46.277666,-3193
2021-12-23 18:07:46.277676,332
2021-12-23 18:07:46.277686,2307
2021-12-23 18:07:46.277696,988
2021-12-23 18:07:46.277705,-149
2021-12-23 18:07:46.277715,-280
2021-12-23 18:07:46.277725,520
2021-12-23 18:07:46.277735,1706
2021-12-23 18:07:46.277744,1841
2021-12-23 18:07:46.277754,1314
2021-12-23 18:07:46.277764,646
2021-12-23 18:07:46.277773,375
2021-12-23 18:07:46.277783,-418
2021-12-23 18:07:46.277793,-1071
2021-12-23 18:07:46.277802,1261
2021-12-23 18:07:46.277812,2523
2021-12-23 18:07:46.277822,-294
2021-12-23 18:07:46.277831,-3338
2021-12-23 18:07:46.277841,-1675
2021-12-23 18:07:46.277851,2716
2021-12-23 18:07:46.277860,2623
2021-12-23 18:07:46.277870,784
2021-12-23 18:07:46.277880,439
2021-12-23 18:07:46.277889,-477
2021-12-23 18:07:46.277899,560
2021-12-23 18:07:46.277909,2583
2021-12-23 18:07:46.547656,2110
2021-12-23 18:07:46.547688,1254
2021-12-23 18:07:46.547700,-805
2021-12-23 18:07:46.547711,-3794
2021-12-23 18:07:46.547721,-1002
2021-12-23 18:07:46.547731,3540
2021-12-23 18:07:46.547741,2288
2021-12-23 18:07:46.547751,565
2021-12-23 18:07:46.547761,-931
2021-12-23 18:07:46.547771,-3512
2021-12-23 18:07:46.547781,-294
2021-12-23 18:07:46.547791,3766
2021-12-23 18:07:46.547801,1912
2021-12-23 18:07:46.547811,686
2021-12-23 18:07:46.547821,403
2021-12-23 18:07:46.547831,-769
2021-12-23 18:07:46.547841,1295
2021-12-23 18:07:46.547850,2706
2021-12-23 18:07:46.547860,-477
2021-12-23 18:07:46.547870,-1960
2021-12-23 18:07:46.547880,-223
2021-12-23 18:07:46.547890,375
2021-12-23 18:07:46.547900,1337
2021-12-23 18:07:46.547910,2454
2021-12-23 18:07:46.547920,1882
2021-12-23 18:07:46.547930,1200
2021-12-23 18:07:46.547940,-278
2021-12-23 18:07:46.547949,-710
2021-12-23 18:07:46.547959,1958
2021-12-23 18:07:46.547969,2808
2021-12-23 18:07:46.772664,1385
2021-12-23 18:07:46.772696,1169
2021-12-23 18:07:46.772708,16
2021-12-23 18:07:46.772719,-1834
2021-12-23 18:07:46.772728,-3077
2021-12-23 18:07:46.772738,-2259
2021-12-23 18:07:46.772748,2088
2021-12-23 18:07:46.772758,1699
2021-12-23 18:07:46.772767,-4355
2021-12-23 18:07:46.772777,-3115
2021-12-23 18:07:46.772787,3459
2021-12-23 18:07:46.772805,2970
2021-12-23 18:07:46.772815,396
2021-12-23 18:07:46.772825,178
2021-12-23 18:07:46.772835,-2858
2021-12-23 18:07:46.772844,-2283
2021-12-23 18:07:46.772854,3025
2021-12-23 18:07:46.772864,2972
2021-12-23 18:07:46.772874,708
2021-12-23 18:07:46.772884,1511
2021-12-23 18:07:46.772893,-503
2021-12-23 18:07:46.772903,-2754
2021-12-23 18:07:46.772913,1266
2021-12-23 18:07:46.772923,3552
2021-12-23 18:07:46.772932,1133
2021-12-23 18:07:46.772942,73
2021-12-23 18:07:46.772952,-273
2021-12-23 18:07:46.772961,403
2021-12-23 18:07:46.772971,2288
2021-12-23 18:07:46.772980,2169
2021-12-23 18:07:46.997507,1299
2021-12-23 18:07:46.997528,584
2021-12-23 18:07:46.997536,-693
2021-12-23 18:07:46.997543,261
2021-12-23 18:07:46.997549,2352
2021-12-23 18:07:46.997556,2079
2021-12-23 18:07:46.997562,793
2021-12-23 18:07:46.997568,-1896
2021-12-23 18:07:46.997575,-3478
2021-12-23 18:07:46.997581,529
2021-12-23 18:07:46.997587,3222
2021-12-23 18:07:46.997594,1406
2021-12-23 18:07:46.997600,244
2021-12-23 18:07:46.997606,-1725
2021-12-23 18:07:46.997613,-3063
2021-12-23 18:07:46.997619,437
2021-12-23 18:07:46.997626,2806
2021-12-23 18:07:46.997632,1404
2021-12-23 18:07:46.997638,722
2021-12-23 18:07:46.997645,275
2021-12-23 18:07:46.997651,-389
2021-12-23 18:07:46.997657,617
2021-12-23 18:07:46.997664,192
2021-12-23 18:07:46.997670,-1456
2021-12-23 18:07:46.997676,154
2021-12-23 18:07:46.997683,1112
2021-12-23 18:07:46.997689,-228
2021-12-23 18:07:46.997695,544
2021-12-23 18:07:46.997702,2190
2021-12-23 18:07:46.997708,1903
2021-12-23 18:07:47.222380,570
2021-12-23 18:07:47.222403,30
2021-12-23 18:07:47.222411,311
2021-12-23 18:07:47.222418,774
2021-12-23 18:07:47.222424,1734
2021-12-23 18:07:47.222430,1817
2021-12-23 18:07:47.222437,-1173
2021-12-23 18:07:47.222443,-3215
2021-12-23 18:07:47.222450,-256
2021-12-23 18:07:47.222456,800
2021-12-23 18:07:47.222463,-3737
2021-12-23 18:07:47.222469,-3918
2021-12-23 18:07:47.222476,-232
2021-12-23 18:07:47.222482,-1390
2021-12-23 18:07:47.222488,-1071
2021-12-23 18:07:47.222495,1898
2021-12-23 18:07:47.222501,1851
2021-12-23 18:07:47.222507,1088
2021-12-23 18:07:47.222514,375
2021-12-23 18:07:47.222520,92
2021-12-23 18:07:47.222527,869
2021-12-23 18:07:47.222533,1074
2021-12-23 18:07:47.222539,1554
2021-12-23 18:07:47.222546,1960
2021-12-23 18:07:47.222552,-156
2021-12-23 18:07:47.222558,-1722
2021-12-23 18:07:47.222565,142
2021-12-23 18:07:47.222571,1696
2021-12-23 18:07:47.222578,1584
2021-12-23 18:07:47.222584,1133
2021-12-23 18:07:47.536355,361
2021-12-23 18:07:47.536386,601
2021-12-23 18:07:47.536399,969
2021-12-23 18:07:47.536409,646
2021-12-23 18:07:47.536419,1480
2021-12-23 18:07:47.536428,330
2021-12-23 18:07:47.536438,-3015
2021-12-23 18:07:47.536448,-1138
2021-12-23 18:07:47.536458,2250
2021-12-23 18:07:47.536467,905
2021-12-23 18:07:47.536477,696
2021-12-23 18:07:47.536487,159
2021-12-23 18:07:47.536497,-2742
2021-12-23 18:07:47.536506,-420
2021-12-23 18:07:47.536516,2309
2021-12-23 18:07:47.536526,513
2021-12-23 18:07:47.536535,855
2021-12-23 18:07:47.536545,1349
2021-12-23 18:07:47.536555,-83
2021-12-23 18:07:47.536564,974
2021-12-23 18:07:47.536574,1532
2021-12-23 18:07:47.536584,480
2021-12-23 18:07:47.536593,1276
2021-12-23 18:07:47.536603,1135
2021-12-23 18:07:47.536613,92
2021-12-23 18:07:47.536622,1169
2021-12-23 18:07:47.536632,-403
2021-12-23 18:07:47.536642,-2937
2021-12-23 18:07:47.536651,320
2021-12-23 18:07:47.536661,2045
2021-12-23 18:07:47.672334,-85
2021-12-23 18:07:47.672358,960
2021-12-23 18:07:47.672366,1257
2021-12-23 18:07:47.672373,-235
2021-12-23 18:07:47.672380,741
2021-12-23 18:07:47.672387,42
2021-12-23 18:07:47.672393,-762
2021-12-23 18:07:47.672400,1775
2021-12-23 18:07:47.672406,1511
2021-12-23 18:07:47.672413,-87
2021-12-23 18:07:47.672419,144
2021-12-23 18:07:47.672426,-1972
2021-12-23 18:07:47.672432,-1718
2021-12-23 18:07:47.672439,2364
2021-12-23 18:07:47.672445,1556
2021-12-23 18:07:47.672451,-1169
2021-12-23 18:07:47.672458,-4574
2021-12-23 18:07:47.672464,-8027
2021-12-23 18:07:47.672471,-1492
2021-12-23 18:07:47.672477,4557
2021-12-23 18:07:47.672484,270
2021-12-23 18:07:47.672490,-1112
2021-12-23 18:07:47.672497,1699
2021-12-23 18:07:47.672503,667
2021-12-23 18:07:47.672509,427
2021-12-23 18:07:47.672516,2243
2021-12-23 18:07:47.672522,1019
2021-12-23 18:07:47.672528,16
2021-12-23 18:07:47.672535,199
2021-12-23 18:07:47.672541,-1009
2021-12-23 18:07:47.897721,377
2021-12-23 18:07:47.897743,2480
2021-12-23 18:07:47.897751,584
2021-12-23 18:07:47.897775,-746
2021-12-23 18:07:47.897786,-1523
2021-12-23 18:07:47.897795,-2449
2021-12-23 18:07:47.897805,1062
2021-12-23 18:07:47.897815,3039
2021-12-23 18:07:47.897830,263
2021-12-23 18:07:47.897840,-660
2021-12-23 18:07:47.897850,-1249
2021-12-23 18:07:47.897860,-1805
2021-12-23 18:07:47.897870,1596
2021-12-23 18:07:47.897880,2870
2021-12-23 18:07:47.897890,90
2021-12-23 18:07:47.897900,-275
2021-12-23 18:07:47.897910,736
2021-12-23 18:07:47.897920,788
2021-12-23 18:07:47.897929,1696
2021-12-23 18:07:47.897940,1958
2021-12-23 18:07:47.897949,477
2021-12-23 18:07:47.897959,-171
2021-12-23 18:07:47.897969,420
2021-12-23 18:07:47.897979,1249
2021-12-23 18:07:47.897989,1751
2021-12-23 18:07:47.897998,1181
2021-12-23 18:07:47.898008,95
2021-12-23 18:07:47.898018,-370
2021-12-23 18:07:47.898028,275
2021-12-23 18:07:47.898038,1356
2021-12-23 18:07:48.167828,171
2021-12-23 18:07:48.167851,-1872
2021-12-23 18:07:48.167858,-829
2021-12-23 18:07:48.167865,-1138
2021-12-23 18:07:48.167872,-3041
2021-12-23 18:07:48.167878,118
2021-12-23 18:07:48.167884,3191
2021-12-23 18:07:48.167891,1335
2021-12-23 18:07:48.167897,-330
2021-12-23 18:07:48.167903,-1815
2021-12-23 18:07:48.167910,-2509
2021-12-23 18:07:48.167916,1116
2021-12-23 18:07:48.167923,3034
2021-12-23 18:07:48.167929,990
2021-12-23 18:07:48.167935,-16
2021-12-23 18:07:48.167942,-441
2021-12-23 18:07:48.167948,33
2021-12-23 18:07:48.167954,1967
2021-12-23 18:07:48.167961,2110
2021-12-23 18:07:48.167967,1128
2021-12-23 18:07:48.167973,299
2021-12-23 18:07:48.167980,-3112
2021-12-23 18:07:48.167986,-4324
2021-12-23 18:07:48.167992,1057
2021-12-23 18:07:48.167999,3467
2021-12-23 18:07:48.168005,758
2021-12-23 18:07:48.168011,-396
2021-12-23 18:07:48.168018,-330
2021-12-23 18:07:48.168024,634
2021-12-23 18:07:48.168030,2114
2021-12-23 18:07:48.392659,1915
2021-12-23 18:07:48.392689,1050
2021-12-23 18:07:48.392698,-1031
2021-12-23 18:07:48.392704,-2796
2021-12-23 18:07:48.392730,382
2021-12-23 18:07:48.392740,3120
2021-12-23 18:07:48.392750,1430
2021-12-23 18:07:48.392760,758
2021-12-23 18:07:48.392770,-1078
2021-12-23 18:07:48.392780,-4270
2021-12-23 18:07:48.392790,-622
2021-12-23 18:07:48.392799,3638
2021-12-23 18:07:48.392809,1580
2021-12-23 18:07:48.392819,339
2021-12-23 18:07:48.392828,-1316
2021-12-23 18:07:48.392838,-3775
2021-12-23 18:07:48.392848,237
2021-12-23 18:07:48.392858,3564
2021-12-23 18:07:48.392868,1287
2021-12-23 18:07:48.392877,532
2021-12-23 18:07:48.392887,54
2021-12-23 18:07:48.392897,-1031
2021-12-23 18:07:48.392907,1290
2021-12-23 18:07:48.392916,2739
2021-12-23 18:07:48.392926,1297
2021-12-23 18:07:48.392936,872
2021-12-23 18:07:48.392946,-156
2021-12-23 18:07:48.392955,-900
2021-12-23 18:07:48.392965,1656
2021-12-23 18:07:48.392975,2587
2021-12-23 18:07:48.617741,1107
2021-12-23 18:07:48.617764,848
2021-12-23 18:07:48.617772,-563
2021-12-23 18:07:48.617779,-1185
2021-12-23 18:07:48.617785,297
2021-12-23 18:07:48.617792,-777
2021-12-23 18:07:48.617798,-389
2021-12-23 18:07:48.617805,941
2021-12-23 18:07:48.617811,-3412
2021-12-23 18:07:48.617818,-3828
2021-12-23 18:07:48.617825,2744
2021-12-23 18:07:48.617832,3165
2021-12-23 18:07:48.617838,128
2021-12-23 18:07:48.617845,-375
2021-12-23 18:07:48.617853,-2991
2021-12-23 18:07:48.617860,-2492
2021-12-23 18:07:48.617867,2687
2021-12-23 18:07:48.617874,2758
2021-12-23 18:07:48.617881,396
2021-12-23 18:07:48.617888,525
2021-12-23 18:07:48.617895,-617
2021-12-23 18:07:48.617902,-475
2021-12-23 18:07:48.617909,2195
2021-12-23 18:07:48.617916,2188
2021-12-23 18:07:48.617923,974
2021-12-23 18:07:48.617930,515
2021-12-23 18:07:48.617937,-1012
2021-12-23 18:07:48.617944,-3652
2021-12-23 18:07:48.617950,-3851
2021-12-23 18:07:48.617957,914
2021-12-23 18:07:48.842704,3022
2021-12-23 18:07:48.842735,-344
2021-12-23 18:07:48.842748,-1530
2021-12-23 18:07:48.842758,817
2021-12-23 18:07:48.842768,2171
2021-12-23 18:07:48.842777,1537
2021-12-23 18:07:48.842787,-672
2021-12-23 18:07:48.842796,-5106
2021-12-23 18:07:48.842806,-5078
2021-12-23 18:07:48.842816,1409
2021-12-23 18:07:48.842825,3274
2021-12-23 18:07:48.842835,655
2021-12-23 18:07:48.842845,387
2021-12-23 18:07:48.842854,-1478
2021-12-23 18:07:48.842864,-3115
2021-12-23 18:07:48.842874,819
2021-12-23 18:07:48.842883,3079
2021-12-23 18:07:48.842893,1200
2021-12-23 18:07:48.842902,674
2021-12-23 18:07:48.842912,323
2021-12-23 18:07:48.842921,-401
2021-12-23 18:07:48.842931,793
2021-12-23 18:07:48.842941,2129
2021-12-23 18:07:48.842950,1810
2021-12-23 18:07:48.842960,769
2021-12-23 18:07:48.842970,47
2021-12-23 18:07:48.842979,142
2021-12-23 18:07:48.842989,924
2021-12-23 18:07:48.842998,1834
2021-12-23 18:07:48.843008,1825
2021-12-23 18:07:49.067722,674
2021-12-23 18:07:49.067753,-76
2021-12-23 18:07:49.067765,87
2021-12-23 18:07:49.067776,691
2021-12-23 18:07:49.067786,1580
2021-12-23 18:07:49.067796,1335
2021-12-23 18:07:49.067805,-1558
2021-12-23 18:07:49.067815,-3331
2021-12-23 18:07:49.067825,-1708
2021-12-23 18:07:49.067835,-1359
2021-12-23 18:07:49.067845,-384
2021-12-23 18:07:49.067855,2012
2021-12-23 18:07:49.067865,-998
2021-12-23 18:07:49.067875,-3588
2021-12-23 18:07:49.067884,294
2021-12-23 18:07:49.067894,1974
2021-12-23 18:07:49.067904,869
2021-12-23 18:07:49.067914,1383
2021-12-23 18:07:49.067924,594
2021-12-23 18:07:49.067934,-190
2021-12-23 18:07:49.067944,767
2021-12-23 18:07:49.067954,1083
2021-12-23 18:07:49.067964,1440
2021-12-23 18:07:49.067983,1544
2021-12-23 18:07:49.067993,294
2021-12-23 18:07:49.068003,251
2021-12-23 18:07:49.068013,1066
2021-12-23 18:07:49.068023,910
2021-12-23 18:07:49.068033,1371
2021-12-23 18:07:49.068043,1468
2021-12-23 18:07:49.292822,123
2021-12-23 18:07:49.292843,335
2021-12-23 18:07:49.292851,463
2021-12-23 18:07:49.292858,-3716
2021-12-23 18:07:49.292864,-4567
2021-12-23 18:07:49.292871,-83
2021-12-23 18:07:49.292877,-1273
2021-12-23 18:07:49.292884,-2152
2021-12-23 18:07:49.292890,1684
2021-12-23 18:07:49.292896,1508
2021-12-23 18:07:49.292902,-739
2021-12-23 18:07:49.292909,-3393
2021-12-23 18:07:49.292915,-4208
2021-12-23 18:07:49.292922,594
2021-12-23 18:07:49.292928,2333
2021-12-23 18:07:49.292934,-54
2021-12-23 18:07:49.292941,1078
2021-12-23 18:07:49.292947,1518
2021-12-23 18:07:49.292953,-223
2021-12-23 18:07:49.292960,976
2021-12-23 18:07:49.292966,1625
2021-12-23 18:07:49.292972,384
2021-12-23 18:07:49.292979,1276
2021-12-23 18:07:49.292985,1304
2021-12-23 18:07:49.292991,104
2021-12-23 18:07:49.292997,1368
2021-12-23 18:07:49.293004,1516
2021-12-23 18:07:49.293010,323
2021-12-23 18:07:49.293016,1318
2021-12-23 18:07:49.293023,1093
2021-12-23 18:07:49.561411,171
2021-12-23 18:07:49.561443,1542
2021-12-23 18:07:49.561455,1055
2021-12-23 18:07:49.561465,-1347
2021-12-23 18:07:49.561475,-2198
2021-12-23 18:07:49.561517,-3148
2021-12-23 18:07:49.561527,-2160
2021-12-23 18:07:49.561537,1546
2021-12-23 18:07:49.561547,1083
2021-12-23 18:07:49.561557,-786
2021-12-23 18:07:49.561566,-190
2021-12-23 18:07:49.561576,-2045
2021-12-23 18:07:49.561586,-3162
2021-12-23 18:07:49.561596,-1076
2021-12-23 18:07:49.561605,-451
2021-12-23 18:07:49.561615,156
2021-12-23 18:07:49.561625,1012
2021-12-23 18:07:49.561635,-47
2021-12-23 18:07:49.561644,482
2021-12-23 18:07:49.561654,2015
2021-12-23 18:07:49.561664,577
2021-12-23 18:07:49.561673,-228
2021-12-23 18:07:49.561683,1204
2021-12-23 18:07:49.561693,910
2021-12-23 18:07:49.561702,-553
2021-12-23 18:07:49.561712,-917
2021-12-23 18:07:49.561722,-924
2021-12-23 18:07:49.561732,-2003
2021-12-23 18:07:49.561742,-2238
2021-12-23 18:07:49.561751,-304
2021-12-23 18:07:49.742685,1040
2021-12-23 18:07:49.742707,643
2021-12-23 18:07:49.742715,-323
2021-12-23 18:07:49.742722,-731
2021-12-23 18:07:49.742728,-2167
2021-12-23 18:07:49.742734,-2968
2021-12-23 18:07:49.742741,786
2021-12-23 18:07:49.742747,2091
2021-12-23 18:07:49.742753,-4315
2021-12-23 18:07:49.742760,-7086
2021-12-23 18:07:49.742766,-2390
2021-12-23 18:07:49.742772,-358
2021-12-23 18:07:49.742779,605
2021-12-23 18:07:49.742785,2138
2021-12-23 18:07:49.742791,-544
2021-12-23 18:07:49.742798,-3429
2021-12-23 18:07:49.742804,-1504
2021-12-23 18:07:49.742810,1886
2021-12-23 18:07:49.742817,2190
2021-12-23 18:07:49.742823,1223
2021-12-23 18:07:49.742830,883
2021-12-23 18:07:49.742836,263
2021-12-23 18:07:49.742842,140
2021-12-23 18:07:49.742849,1347
2021-12-23 18:07:49.742855,2269
2021-12-23 18:07:49.742861,1836
2021-12-23 18:07:49.742867,803
2021-12-23 18:07:49.742874,128
2021-12-23 18:07:49.742880,560
2021-12-23 18:07:49.742887,1701
2021-12-23 18:07:50.012693,2231
2021-12-23 18:07:50.012724,1746
2021-12-23 18:07:50.012736,548
2021-12-23 18:07:50.012746,-1832
2021-12-23 18:07:50.012757,-2687
2021-12-23 18:07:50.012767,955
2021-12-23 18:07:50.012777,3269
2021-12-23 18:07:50.012786,1444
2021-12-23 18:07:50.012796,168
2021-12-23 18:07:50.012806,-1570
2021-12-23 18:07:50.012816,-2328
2021-12-23 18:07:50.012826,1532
2021-12-23 18:07:50.012836,3274
2021-12-23 18:07:50.012845,1211
2021-12-23 18:07:50.012855,218
2021-12-23 18:07:50.012865,-522
2021-12-23 18:07:50.012875,-1007
2021-12-23 18:07:50.012885,-758
2021-12-23 18:07:50.012895,337
2021-12-23 18:07:50.012905,2114
2021-12-23 18:07:50.012914,967
2021-12-23 18:07:50.012924,-1033
2021-12-23 18:07:50.012934,796
2021-12-23 18:07:50.012944,2794
2021-12-23 18:07:50.012954,1988
2021-12-23 18:07:50.012963,1292
2021-12-23 18:07:50.012973,-178
2021-12-23 18:07:50.012983,-2732
2021-12-23 18:07:50.012993,-791
2021-12-23 18:07:50.013003,2706
2021-12-23 18:07:50.237463,1703
2021-12-23 18:07:50.237491,437
2021-12-23 18:07:50.237504,-434
2021-12-23 18:07:50.237515,-2309
2021-12-23 18:07:50.237525,-118
2021-12-23 18:07:50.237531,2851
2021-12-23 18:07:50.237538,1646
2021-12-23 18:07:50.237544,722
2021-12-23 18:07:50.237551,-1214
2021-12-23 18:07:50.237557,-4039
2021-12-23 18:07:50.237563,-422
2021-12-23 18:07:50.237570,3552
2021-12-23 18:07:50.237576,1618
2021-12-23 18:07:50.237582,-1915
2021-12-23 18:07:50.237589,-7223
2021-12-23 18:07:50.237595,-6981
2021-12-23 18:07:50.237602,1977
2021-12-23 18:07:50.237608,2927
2021-12-23 18:07:50.237614,-3528
2021-12-23 18:07:50.237621,-3942
2021-12-23 18:07:50.237627,-2984
2021-12-23 18:07:50.237633,-2929
2021-12-23 18:07:50.237640,774
2021-12-23 18:07:50.237646,2309
2021-12-23 18:07:50.237652,506
2021-12-23 18:07:50.237659,508
2021-12-23 18:07:50.237665,-420
2021-12-23 18:07:50.237671,-1249
2021-12-23 18:07:50.237677,1511
2021-12-23 18:07:50.237684,2476
2021-12-23 18:07:50.462667,1071
2021-12-23 18:07:50.462689,834
2021-12-23 18:07:50.462697,-627
2021-12-23 18:07:50.462704,-1050
2021-12-23 18:07:50.462710,1969
2021-12-23 18:07:50.462717,2692
2021-12-23 18:07:50.462723,1209
2021-12-23 18:07:50.462730,123
2021-12-23 18:07:50.462736,-3172
2021-12-23 18:07:50.462743,-2965
2021-12-23 18:07:50.462749,2796
2021-12-23 18:07:50.462756,3345
2021-12-23 18:07:50.462762,615
2021-12-23 18:07:50.462768,-4
2021-12-23 18:07:50.462775,-2587
2021-12-23 18:07:50.462781,-1955
2021-12-23 18:07:50.462788,3091
2021-12-23 18:07:50.462795,2996
2021-12-23 18:07:50.462801,812
2021-12-23 18:07:50.462807,948
2021-12-23 18:07:50.462814,-1228
2021-12-23 18:07:50.462820,-2960
2021-12-23 18:07:50.462827,287
2021-12-23 18:07:50.462833,3174
2021-12-23 18:07:50.462840,1967
2021-12-23 18:07:50.462846,206
2021-12-23 18:07:50.462853,-254
2021-12-23 18:07:50.462859,791
2021-12-23 18:07:50.462865,2390
2021-12-23 18:07:50.462877,2312
2021-12-23 18:07:50.687752,1546
2021-12-23 18:07:50.687774,739
2021-12-23 18:07:50.687782,-465
2021-12-23 18:07:50.687789,449
2021-12-23 18:07:50.687796,2573
2021-12-23 18:07:50.687802,2302
2021-12-23 18:07:50.687808,933
2021-12-23 18:07:50.687815,-1594
2021-12-23 18:07:50.687821,-3179
2021-12-23 18:07:50.687828,724
2021-12-23 18:07:50.687834,3424
2021-12-23 18:07:50.687841,1580
2021-12-23 18:07:50.687847,484
2021-12-23 18:07:50.687854,-1532
2021-12-23 18:07:50.687860,-2656
2021-12-23 18:07:50.687867,1190
2021-12-23 18:07:50.687873,3186
2021-12-23 18:07:50.687880,1508
2021-12-23 18:07:50.687886,1356
2021-12-23 18:07:50.687892,-1143
2021-12-23 18:07:50.687899,-5149
2021-12-23 18:07:50.687905,-1131
2021-12-23 18:07:50.687912,3246
2021-12-23 18:07:50.687918,-867
2021-12-23 18:07:50.687924,-2454
2021-12-23 18:07:50.687931,1112
2021-12-23 18:07:50.687937,1040
2021-12-23 18:07:50.687944,199
2021-12-23 18:07:50.687950,2195
2021-12-23 18:07:50.687957,2490
2021-12-23 18:07:50.912790,741
2021-12-23 18:07:50.912812,137
2021-12-23 18:07:50.912820,624
2021-12-23 18:07:50.912827,1081
2021-12-23 18:07:50.912834,1870
2021-12-23 18:07:50.912840,2048
2021-12-23 18:07:50.912847,-931
2021-12-23 18:07:50.912853,-3098
2021-12-23 18:07:50.912860,109
2021-12-23 18:07:50.912866,2366
2021-12-23 18:07:50.912872,1508
2021-12-23 18:07:50.912879,1342
2021-12-23 18:07:50.912885,-902
2021-12-23 18:07:50.912891,-2647
2021-12-23 18:07:50.912898,496
2021-12-23 18:07:50.912904,2183
2021-12-23 18:07:50.912910,1342
2021-12-23 18:07:50.912917,1506
2021-12-23 18:07:50.912923,722
2021-12-23 18:07:50.912929,66
2021-12-23 18:07:50.912936,969
2021-12-23 18:07:50.912942,1316
2021-12-23 18:07:50.912948,1615
2021-12-23 18:07:50.912955,2164
2021-12-23 18:07:50.912961,1050
2021-12-23 18:07:50.912967,-1556
2021-12-23 18:07:50.912974,-1805
2021-12-23 18:07:50.912980,1264
2021-12-23 18:07:50.912986,2580
2021-12-23 18:07:50.912993,976
2021-12-23 18:07:51.137842,47
2021-12-23 18:07:51.137873,1000
2021-12-23 18:07:51.137885,1133
2021-12-23 18:07:51.137895,468
2021-12-23 18:07:51.137905,1644
2021-12-23 18:07:51.137915,444
2021-12-23 18:07:51.137925,-2994
2021-12-23 18:07:51.137935,-855
2021-12-23 18:07:51.137945,2331
2021-12-23 18:07:51.137954,917
2021-12-23 18:07:51.137964,805
2021-12-23 18:07:51.137974,161
2021-12-23 18:07:51.137984,-2587
2021-12-23 18:07:51.137994,-256
2021-12-23 18:07:51.138003,2338
2021-12-23 18:07:51.138013,553
2021-12-23 18:07:51.138023,857
2021-12-23 18:07:51.138032,1413
2021-12-23 18:07:51.138042,-61
2021-12-23 18:07:51.138052,282
2021-12-23 18:07:51.138061,-584
2021-12-23 18:07:51.138071,-1527
2021-12-23 18:07:51.138081,1147
2021-12-23 18:07:51.138091,1017
2021-12-23 18:07:51.138101,-2297
2021-12-23 18:07:51.138110,-4308
2021-12-23 18:07:51.138120,-4213
2021-12-23 18:07:51.138129,-1953
2021-12-23 18:07:51.138139,-394
2021-12-23 18:07:51.138149,-14
2021-12-23 18:07:51.407737,622
2021-12-23 18:07:51.407792,1268
2021-12-23 18:07:51.407802,463
2021-12-23 18:07:51.407809,-137
2021-12-23 18:07:51.407816,515
2021-12-23 18:07:51.407822,-1841
2021-12-23 18:07:51.407829,-2373
2021-12-23 18:07:51.407835,2162
2021-12-23 18:07:51.407841,2069
2021-12-23 18:07:51.407848,-491
2021-12-23 18:07:51.407854,-560
2021-12-23 18:07:51.407860,-3376
2021-12-23 18:07:51.407866,-3146
2021-12-23 18:07:51.407873,603
2021-12-23 18:07:51.407879,-1366
2021-12-23 18:07:51.407885,-1936
2021-12-23 18:07:51.407892,981
2021-12-23 18:07:51.407898,-128
2021-12-23 18:07:51.407905,-396
2021-12-23 18:07:51.407911,1642
2021-12-23 18:07:51.407917,539
2021-12-23 18:07:51.407924,-494
2021-12-23 18:07:51.407930,556
2021-12-23 18:07:51.407936,399
2021-12-23 18:07:51.407943,739
2021-12-23 18:07:51.407951,1758
2021-12-23 18:07:51.407957,748
2021-12-23 18:07:51.407964,197
2021-12-23 18:07:51.407970,1047
2021-12-23 18:07:51.407976,-824
2021-12-23 18:07:51.631298,-1639
2021-12-23 18:07:51.631334,1825
2021-12-23 18:07:51.631346,1594
2021-12-23 18:07:51.631356,-667
2021-12-23 18:07:51.631366,800
2021-12-23 18:07:51.631376,1658
2021-12-23 18:07:51.631386,1416
2021-12-23 18:07:51.631396,1753
2021-12-23 18:07:51.631406,960
2021-12-23 18:07:51.631416,-197
2021-12-23 18:07:51.631426,-1889
2021-12-23 18:07:51.631436,-2478
2021-12-23 18:07:51.631446,-216
2021-12-23 18:07:51.631456,506
2021-12-23 18:07:51.631466,-218
2021-12-23 18:07:51.631475,-769
2021-12-23 18:07:51.631485,-2504
2021-12-23 18:07:51.631495,-1675
2021-12-23 18:07:51.631505,2150
2021-12-23 18:07:51.631515,2240
2021-12-23 18:07:51.631524,-270
2021-12-23 18:07:51.631534,-370
2021-12-23 18:07:51.631544,430
2021-12-23 18:07:51.631554,945
2021-12-23 18:07:51.631564,1851
2021-12-23 18:07:51.631573,1815
2021-12-23 18:07:51.631583,544
2021-12-23 18:07:51.631593,45
2021-12-23 18:07:51.631602,831
2021-12-23 18:07:51.631618,1661
2021-12-23 18:07:51.857633,-943
2021-12-23 18:07:51.857655,-5988
2021-12-23 18:07:51.857663,-5054
2021-12-23 18:07:51.857669,-2699
2021-12-23 18:07:51.857676,-4289
2021-12-23 18:07:51.857682,-2209
2021-12-23 18:07:51.857688,491
2021-12-23 18:07:51.857695,61
2021-12-23 18:07:51.857701,-427
2021-12-23 18:07:51.857708,-2906
2021-12-23 18:07:51.857714,-3659
2021-12-23 18:07:51.857721,945
2021-12-23 18:07:51.857727,2842
2021-12-23 18:07:51.857733,634
2021-12-23 18:07:51.857740,-137
2021-12-23 18:07:51.857746,-294
2021-12-23 18:07:51.857753,225
2021-12-23 18:07:51.857759,1924
2021-12-23 18:07:51.857765,2174
2021-12-23 18:07:51.857772,1287
2021-12-23 18:07:51.857778,365
2021-12-23 18:07:51.857784,-655
2021-12-23 18:07:51.857791,456
2021-12-23 18:07:51.857797,2552
2021-12-23 18:07:51.857803,2181
2021-12-23 18:07:51.857810,1297
2021-12-23 18:07:51.857816,556
2021-12-23 18:07:51.857822,-608
2021-12-23 18:07:51.857829,862
2021-12-23 18:07:51.857835,2813
2021-12-23 18:07:52.082605,2062
2021-12-23 18:07:52.082627,1411
2021-12-23 18:07:52.082635,510
2021-12-23 18:07:52.082642,-1813
2021-12-23 18:07:52.082649,-888
2021-12-23 18:07:52.082655,2385
2021-12-23 18:07:52.082661,2309
2021-12-23 18:07:52.082668,1064
2021-12-23 18:07:52.082674,-1088
2021-12-23 18:07:52.082680,-3597
2021-12-23 18:07:52.082687,-38
2021-12-23 18:07:52.082693,3880
2021-12-23 18:07:52.082699,1996
2021-12-23 18:07:52.082706,715
2021-12-23 18:07:52.082712,-1128
2021-12-23 18:07:52.082718,-3695
2021-12-23 18:07:52.082725,-734
2021-12-23 18:07:52.082731,1314
2021-12-23 18:07:52.082737,251
2021-12-23 18:07:52.082744,1107
2021-12-23 18:07:52.082750,-71
2021-12-23 18:07:52.082757,-1482
2021-12-23 18:07:52.082763,1556
2021-12-23 18:07:52.082769,2808
2021-12-23 18:07:52.082775,1166
2021-12-23 18:07:52.082782,1050
2021-12-23 18:07:52.082788,11
2021-12-23 18:07:52.082795,-674
2021-12-23 18:07:52.082805,1846
2021-12-23 18:07:52.082812,2704
2021-12-23 18:07:52.352453,1375
2021-12-23 18:07:52.352473,1007
2021-12-23 18:07:52.352479,-434
2021-12-23 18:07:52.352484,-888
2021-12-23 18:07:52.352490,1542
2021-12-23 18:07:52.352495,240
2021-12-23 18:07:52.352500,-3821
2021-12-23 18:07:52.352505,-7033
2021-12-23 18:07:52.352510,-8939
2021-12-23 18:07:52.352515,-3802
2021-12-23 18:07:52.352520,1340
2021-12-23 18:07:52.352526,-441
2021-12-23 18:07:52.352531,-90
2021-12-23 18:07:52.352536,199
2021-12-23 18:07:52.352541,-4134
2021-12-23 18:07:52.352546,-2749
2021-12-23 18:07:52.352551,2979
2021-12-23 18:07:52.352556,2321
2021-12-23 18:07:52.352561,259
2021-12-23 18:07:52.352566,667
2021-12-23 18:07:52.352571,-620
2021-12-23 18:07:52.352576,-344
2021-12-23 18:07:52.352581,2352
2021-12-23 18:07:52.352586,2397
2021-12-23 18:07:52.352591,1188
2021-12-23 18:07:52.352596,712
2021-12-23 18:07:52.352601,-354
2021-12-23 18:07:52.352606,351
2021-12-23 18:07:52.352611,2528
2021-12-23 18:07:52.352616,2340
2021-12-23 18:07:52.621896,1371
2021-12-23 18:07:52.621918,724
2021-12-23 18:07:52.621926,-553
2021-12-23 18:07:52.621933,427
2021-12-23 18:07:52.621939,2637
2021-12-23 18:07:52.621946,2309
2021-12-23 18:07:52.621952,1157
2021-12-23 18:07:52.621959,-529
2021-12-23 18:07:52.621965,-1746
2021-12-23 18:07:52.621971,843
2021-12-23 18:07:52.621978,3025
2021-12-23 18:07:52.621984,1972
2021-12-23 18:07:52.621991,603
2021-12-23 18:07:52.621997,-1870
2021-12-23 18:07:52.622003,-2656
2021-12-23 18:07:52.622010,1368
2021-12-23 18:07:52.622016,3303
2021-12-23 18:07:52.622023,1565
2021-12-23 18:07:52.622029,278
2021-12-23 18:07:52.622035,-1782
2021-12-23 18:07:52.622042,-1991
2021-12-23 18:07:52.622048,1653
2021-12-23 18:07:52.622054,2996
2021-12-23 18:07:52.622061,1549
2021-12-23 18:07:52.622067,1043
2021-12-23 18:07:52.622073,503
2021-12-23 18:07:52.622080,261
2021-12-23 18:07:52.622086,1371
2021-12-23 18:07:52.622092,2274
2021-12-23 18:07:52.622098,2076
2021-12-23 18:07:52.847892,1036
2021-12-23 18:07:52.847914,-327
2021-12-23 18:07:52.847923,-1435
2021-12-23 18:07:52.847929,-772
2021-12-23 18:07:52.847936,1732
2021-12-23 18:07:52.847942,1903
2021-12-23 18:07:52.847949,-1908
2021-12-23 18:07:52.847955,-3604
2021-12-23 18:07:52.847962,-579
2021-12-23 18:07:52.847968,-575
2021-12-23 18:07:52.847974,-1834
2021-12-23 18:07:52.847981,960
2021-12-23 18:07:52.847987,-1299
2021-12-23 18:07:52.847994,-4890
2021-12-23 18:07:52.848000,90
2021-12-23 18:07:52.848006,2989
2021-12-23 18:07:52.848013,879
2021-12-23 18:07:52.848019,848
2021-12-23 18:07:52.848026,-905
2021-12-23 18:07:52.848032,-2364
2021-12-23 18:07:52.848038,964
2021-12-23 18:07:52.848045,2148
2021-12-23 18:07:52.848051,294
2021-12-23 18:07:52.848057,-1033
2021-12-23 18:07:52.848064,-2050
2021-12-23 18:07:52.848070,-1948
2021-12-23 18:07:52.848077,-1544
2021-12-23 18:07:52.848083,-418
2021-12-23 18:07:52.848089,1449
2021-12-23 18:07:52.848096,796
2021-12-23 18:07:52.982552,-860
2021-12-23 18:07:52.982583,161
2021-12-23 18:07:52.982595,900
2021-12-23 18:07:52.982605,197
2021-12-23 18:07:52.982615,1207
2021-12-23 18:07:52.982625,175
2021-12-23 18:07:52.982635,-3191
2021-12-23 18:07:52.982644,-1088
2021-12-23 18:07:52.982654,2255
2021-12-23 18:07:52.982664,824
2021-12-23 18:07:52.982674,480
2021-12-23 18:07:52.982684,247
2021-12-23 18:07:52.982694,-1126
2021-12-23 18:07:52.982703,1178
2021-12-23 18:07:52.982713,2069
2021-12-23 18:07:52.982723,76
2021-12-23 18:07:52.982733,1152
2021-12-23 18:07:52.982742,1950
2021-12-23 18:07:52.982752,708
2021-12-23 18:07:52.982762,1416
2021-12-23 18:07:52.982771,1558
2021-12-23 18:07:52.982781,667
2021-12-23 18:07:52.982791,1416
2021-12-23 18:07:52.982800,-575
2021-12-23 18:07:52.982810,-2395
2021-12-23 18:07:52.982820,1535
2021-12-23 18:07:52.982829,2566
2021-12-23 18:07:52.982839,121
2021-12-23 18:07:52.982848,1295
2021-12-23 18:07:52.982858,1554
2021-12-23 18:07:53.207734,287
2021-12-23 18:07:53.207756,1725
2021-12-23 18:07:53.207764,1684
2021-12-23 18:07:53.207771,311
2021-12-23 18:07:53.207777,636
2021-12-23 18:07:53.207784,-2865
2021-12-23 18:07:53.207790,-4769
2021-12-23 18:07:53.207796,1280
2021-12-23 18:07:53.207803,2535
2021-12-23 18:07:53.207809,-798
2021-12-23 18:07:53.207816,-287
2021-12-23 18:07:53.207822,-1375
2021-12-23 18:07:53.207829,-1782
2021-12-23 18:07:53.207835,-95
2021-12-23 18:07:53.207841,-1722
2021-12-23 18:07:53.207848,-781
2021-12-23 18:07:53.207854,1936
2021-12-23 18:07:53.207861,-922
2021-12-23 18:07:53.207867,-4771
2021-12-23 18:07:53.207873,-2423
2021-12-23 18:07:53.207880,2193
2021-12-23 18:07:53.207886,1606
2021-12-23 18:07:53.207893,-64
2021-12-23 18:07:53.207899,907
2021-12-23 18:07:53.207906,1936
2021-12-23 18:07:53.207912,1832
2021-12-23 18:07:53.207919,-444
2021-12-23 18:07:53.207925,-1684
2021-12-23 18:07:53.207931,-586
2021-12-23 18:07:53.207938,-1542
2021-12-23 18:07:53.432899,-1081
2021-12-23 18:07:53.432921,1625
2021-12-23 18:07:53.432929,270
2021-12-23 18:07:53.432936,-1535
2021-12-23 18:07:53.432942,-1901
2021-12-23 18:07:53.432949,-2243
2021-12-23 18:07:53.432955,936
2021-12-23 18:07:53.432962,2661
2021-12-23 18:07:53.432968,180
2021-12-23 18:07:53.432974,-710
2021-12-23 18:07:53.432981,-1399
2021-12-23 18:07:53.432987,-1644
2021-12-23 18:07:53.432993,1805
2021-12-23 18:07:53.433000,2827
2021-12-23 18:07:53.433006,-278
2021-12-23 18:07:53.433013,-2566
2021-12-23 18:07:53.433019,-2274
2021-12-23 18:07:53.433026,843
2021-12-23 18:07:53.433032,2925
2021-12-23 18:07:53.433038,1758
2021-12-23 18:07:53.433045,582
2021-12-23 18:07:53.433051,584
2021-12-23 18:07:53.433057,746
2021-12-23 18:07:53.433064,1480
2021-12-23 18:07:53.433070,2414
2021-12-23 18:07:53.433076,2024
2021-12-23 18:07:53.433083,850
2021-12-23 18:07:53.433089,192
2021-12-23 18:07:53.433095,689
2021-12-23 18:07:53.433102,1960
2021-12-23 18:07:53.701376,2385
2021-12-23 18:07:53.701407,1829
2021-12-23 18:07:53.701419,765
2021-12-23 18:07:53.701430,-1791
2021-12-23 18:07:53.701440,-2592
2021-12-23 18:07:53.701450,1245
2021-12-23 18:07:53.701459,3398
2021-12-23 18:07:53.701469,1575
2021-12-23 18:07:53.701479,218
2021-12-23 18:07:53.701489,-1623
2021-12-23 18:07:53.701499,-2167
2021-12-23 18:07:53.701509,1737
2021-12-23 18:07:53.701519,3445
2021-12-23 18:07:53.701529,1323
2021-12-23 18:07:53.701538,399
2021-12-23 18:07:53.701548,26
2021-12-23 18:07:53.701558,242
2021-12-23 18:07:53.701568,228
2021-12-23 18:07:53.701578,-693
2021-12-23 18:07:53.701588,1093
2021-12-23 18:07:53.701598,1670
2021-12-23 18:07:53.701608,-803
2021-12-23 18:07:53.701617,427
2021-12-23 18:07:53.701627,563
2021-12-23 18:07:53.701637,-3742
2021-12-23 18:07:53.701647,-1611
2021-12-23 18:07:53.701656,2571
2021-12-23 18:07:53.701666,-68
2021-12-23 18:07:53.701676,-125
2021-12-23 18:07:53.701686,3196
2021-12-23 18:07:53.927647,2523
2021-12-23 18:07:53.927678,1074
2021-12-23 18:07:53.927691,-629
2021-12-23 18:07:53.927701,-3390
2021-12-23 18:07:53.927711,-696
2021-12-23 18:07:53.927721,3730
2021-12-23 18:07:53.927730,2381
2021-12-23 18:07:53.927740,722
2021-12-23 18:07:53.927750,-857
2021-12-23 18:07:53.927759,-3602
2021-12-23 18:07:53.927769,-149
2021-12-23 18:07:53.927779,3985
2021-12-23 18:07:53.927788,1962
2021-12-23 18:07:53.927798,798
2021-12-23 18:07:53.927808,515
2021-12-23 18:07:53.927817,-620
2021-12-23 18:07:53.927827,1513
2021-12-23 18:07:53.927836,3058
2021-12-23 18:07:53.927846,1506
2021-12-23 18:07:53.927856,-772
2021-12-23 18:07:53.927865,-3108
2021-12-23 18:07:53.927875,-1247
2021-12-23 18:07:53.927884,2891
2021-12-23 18:07:53.927900,2594
2021-12-23 18:07:53.927910,1147
2021-12-23 18:07:53.927920,1344
2021-12-23 18:07:53.927930,-204
2021-12-23 18:07:53.927940,-689
2021-12-23 18:07:53.927949,2238
2021-12-23 18:07:53.927959,2870
2021-12-23 18:07:54.152789,1352
2021-12-23 18:07:54.152822,1200
2021-12-23 18:07:54.152835,-289
2021-12-23 18:07:54.152846,-876
2021-12-23 18:07:54.152856,2200
2021-12-23 18:07:54.152866,2851
2021-12-23 18:07:54.152876,1259
2021-12-23 18:07:54.152885,206
2021-12-23 18:07:54.152896,-3179
2021-12-23 18:07:54.152906,-2842
2021-12-23 18:07:54.152916,2875
2021-12-23 18:07:54.152926,3198
2021-12-23 18:07:54.152936,603
2021-12-23 18:07:54.152945,-149
2021-12-23 18:07:54.152955,-2815
2021-12-23 18:07:54.152965,-1946
2021-12-23 18:07:54.152975,2968
2021-12-23 18:07:54.152984,2825
2021-12-23 18:07:54.152994,686
2021-12-23 18:07:54.153004,741
2021-12-23 18:07:54.153013,-662
2021-12-23 18:07:54.153023,-2247
2021-12-23 18:07:54.153033,-853
2021-12-23 18:07:54.153043,1751
2021-12-23 18:07:54.153052,2174
2021-12-23 18:07:54.153062,337
2021-12-23 18:07:54.153072,-895
2021-12-23 18:07:54.153081,605
2021-12-23 18:07:54.153091,384
2021-12-23 18:07:54.153101,-3783
2021-12-23 18:07:54.377449,-2464
2021-12-23 18:07:54.377472,2095
2021-12-23 18:07:54.377479,11
2021-12-23 18:07:54.377486,-936
2021-12-23 18:07:54.377493,2583
2021-12-23 18:07:54.377499,2628
2021-12-23 18:07:54.377506,401
2021-12-23 18:07:54.377512,-2005
2021-12-23 18:07:54.377519,-3077
2021-12-23 18:07:54.377525,632
2021-12-23 18:07:54.377531,3191
2021-12-23 18:07:54.377538,1530
2021-12-23 18:07:54.377544,275
2021-12-23 18:07:54.377550,-1703
2021-12-23 18:07:54.377557,-2656
2021-12-23 18:07:54.377563,1090
2021-12-23 18:07:54.377570,3077
2021-12-23 18:07:54.377576,1359
2021-12-23 18:07:54.377582,819
2021-12-23 18:07:54.377588,406
2021-12-23 18:07:54.377595,-270
2021-12-23 18:07:54.377601,905
2021-12-23 18:07:54.377608,2022
2021-12-23 18:07:54.377614,-47
2021-12-23 18:07:54.377620,-2402
2021-12-23 18:07:54.377627,-613
2021-12-23 18:07:54.377633,1306
2021-12-23 18:07:54.377640,748
2021-12-23 18:07:54.377646,1461
2021-12-23 18:07:54.377652,2295
2021-12-23 18:07:54.602794,798
2021-12-23 18:07:54.602825,-187
2021-12-23 18:07:54.602837,437
2021-12-23 18:07:54.602848,971
2021-12-23 18:07:54.602857,1710
2021-12-23 18:07:54.602867,1791
2021-12-23 18:07:54.602877,-1228
2021-12-23 18:07:54.602887,-3291
2021-12-23 18:07:54.602897,-68
2021-12-23 18:07:54.602907,2212
2021-12-23 18:07:54.602917,1306
2021-12-23 18:07:54.602927,1109
2021-12-23 18:07:54.602937,-998
2021-12-23 18:07:54.602947,-2737
2021-12-23 18:07:54.602956,399
2021-12-23 18:07:54.602966,2024
2021-12-23 18:07:54.602976,1119
2021-12-23 18:07:54.602986,1413
2021-12-23 18:07:54.602996,567
2021-12-23 18:07:54.603006,-68
2021-12-23 18:07:54.603016,891
2021-12-23 18:07:54.603025,1071
2021-12-23 18:07:54.603035,1473
2021-12-23 18:07:54.603045,1589
2021-12-23 18:07:54.603055,80
2021-12-23 18:07:54.603065,-1580
2021-12-23 18:07:54.603074,-2136
2021-12-23 18:07:54.603084,76
2021-12-23 18:07:54.603094,2468
2021-12-23 18:07:54.603104,1240
2021-12-23 18:07:54.827810,-301
2021-12-23 18:07:54.827832,788
2021-12-23 18:07:54.827840,1147
2021-12-23 18:07:54.827847,-451
2021-12-23 18:07:54.827853,-3143
2021-12-23 18:07:54.827860,-5311
2021-12-23 18:07:54.827866,-3070
2021-12-23 18:07:54.827873,831
2021-12-23 18:07:54.827879,1259
2021-12-23 18:07:54.827886,377
2021-12-23 18:07:54.827892,1466
2021-12-23 18:07:54.827899,-61
2021-12-23 18:07:54.827905,-3017
2021-12-23 18:07:54.827912,73
2021-12-23 18:07:54.827918,2390
2021-12-23 18:07:54.827924,332
2021-12-23 18:07:54.827931,1031
2021-12-23 18:07:54.827937,1858
2021-12-23 18:07:54.827944,591
2021-12-23 18:07:54.827950,1071
2021-12-23 18:07:54.827957,123
2021-12-23 18:07:54.827963,-1886
2021-12-23 18:07:54.827970,211
2021-12-23 18:07:54.827976,1076
2021-12-23 18:07:54.827982,-667
2021-12-23 18:07:54.827989,712
2021-12-23 18:07:54.827995,1185
2021-12-23 18:07:54.828002,-1886
2021-12-23 18:07:54.828008,-2487
2021-12-23 18:07:54.828014,-133
2021-12-23 18:07:55.097206,995
2021-12-23 18:07:55.097235,1123
2021-12-23 18:07:55.097248,422
2021-12-23 18:07:55.097259,61
2021-12-23 18:07:55.097266,399
2021-12-23 18:07:55.097272,-2430
2021-12-23 18:07:55.097279,-2749
2021-12-23 18:07:55.097285,2176
2021-12-23 18:07:55.097292,1979
2021-12-23 18:07:55.097298,-570
2021-12-23 18:07:55.097305,-194
2021-12-23 18:07:55.097311,-3350
2021-12-23 18:07:55.097318,-4139
2021-12-23 18:07:55.097324,708
2021-12-23 18:07:55.097331,-717
2021-12-23 18:07:55.097337,-3167
2021-12-23 18:07:55.097344,273
2021-12-23 18:07:55.097350,468
2021-12-23 18:07:55.097357,-658
2021-12-23 18:07:55.097363,1240
2021-12-23 18:07:55.097369,748
2021-12-23 18:07:55.097376,-501
2021-12-23 18:07:55.097382,342
2021-12-23 18:07:55.097389,278
2021-12-23 18:07:55.097395,693
2021-12-23 18:07:55.097401,1687
2021-12-23 18:07:55.097408,553
2021-12-23 18:07:55.097414,128
2021-12-23 18:07:55.097421,1608
2021-12-23 18:07:55.097427,278
2021-12-23 18:07:55.277345,-1988
2021-12-23 18:07:55.277368,263
2021-12-23 18:07:55.277376,1727
2021-12-23 18:07:55.277383,-408
2021-12-23 18:07:55.277389,-2297
2021-12-23 18:07:55.277396,-1948
2021-12-23 18:07:55.277402,1511
2021-12-23 18:07:55.277409,2713
2021-12-23 18:07:55.277415,133
2021-12-23 18:07:55.277422,-3293
2021-12-23 18:07:55.277429,-6178
2021-12-23 18:07:55.277435,-2388
2021-12-23 18:07:55.277442,3747
2021-12-23 18:07:55.277448,2343
2021-12-23 18:07:55.277455,-560
2021-12-23 18:07:55.277461,301
2021-12-23 18:07:55.277468,225
2021-12-23 18:07:55.277474,175
2021-12-23 18:07:55.277480,2278
2021-12-23 18:07:55.277487,2347
2021-12-23 18:07:55.277494,477
2021-12-23 18:07:55.277500,16
2021-12-23 18:07:55.277507,541
2021-12-23 18:07:55.277513,1409
2021-12-23 18:07:55.277519,2183
2021-12-23 18:07:55.277526,1908
2021-12-23 18:07:55.277532,829
2021-12-23 18:07:55.277539,16
2021-12-23 18:07:55.277545,529
2021-12-23 18:07:55.277552,1789
2021-12-23 18:07:55.592779,2093
2021-12-23 18:07:55.592811,19
2021-12-23 18:07:55.592823,-2763
2021-12-23 18:07:55.592834,-3160
2021-12-23 18:07:55.592844,-1672
2021-12-23 18:07:55.592854,1033
2021-12-23 18:07:55.592864,2701
2021-12-23 18:07:55.592874,1627
2021-12-23 18:07:55.592884,220
2021-12-23 18:07:55.592894,-1853
2021-12-23 18:07:55.592903,-2238
2021-12-23 18:07:55.592913,1734
2021-12-23 18:07:55.592923,3198
2021-12-23 18:07:55.592933,1107
2021-12-23 18:07:55.592943,323
2021-12-23 18:07:55.592953,-206
2021-12-23 18:07:55.592963,363
2021-12-23 18:07:55.592973,2300
2021-12-23 18:07:55.592983,2302
2021-12-23 18:07:55.592992,1385
2021-12-23 18:07:55.593002,529
2021-12-23 18:07:55.593012,-494
2021-12-23 18:07:55.593022,705
2021-12-23 18:07:55.593032,2514
2021-12-23 18:07:55.593042,2076
2021-12-23 18:07:55.593051,1321
2021-12-23 18:07:55.593061,461
2021-12-23 18:07:55.593071,-634
2021-12-23 18:07:55.593081,788
2021-12-23 18:07:55.593091,2625
2021-12-23 18:07:55.816416,1905
2021-12-23 18:07:55.816447,1162
2021-12-23 18:07:55.816459,807
2021-12-23 18:07:55.816470,-1021
2021-12-23 18:07:55.816479,-2402
2021-12-23 18:07:55.816489,-1487
2021-12-23 18:07:55.816499,484
2021-12-23 18:07:55.816508,1318
2021-12-23 18:07:55.816518,-2095
2021-12-23 18:07:55.816528,-5021
2021-12-23 18:07:55.816537,-363
2021-12-23 18:07:55.816547,3338
2021-12-23 18:07:55.816557,1074
2021-12-23 18:07:55.816566,420
2021-12-23 18:07:55.816576,750
2021-12-23 18:07:55.816586,-3110
2021-12-23 18:07:55.816595,-4859
2021-12-23 18:07:55.816605,734
2021-12-23 18:07:55.816615,3507
2021-12-23 18:07:55.816624,289
2021-12-23 18:07:55.816634,-3072
2021-12-23 18:07:55.816644,-3231
2021-12-23 18:07:55.816653,1383
2021-12-23 18:07:55.816663,3248
2021-12-23 18:07:55.816672,922
2021-12-23 18:07:55.816682,-235
2021-12-23 18:07:55.816692,-2594
2021-12-23 18:07:55.816701,-3013
2021-12-23 18:07:55.816711,-66
2021-12-23 18:07:55.816721,-240
2021-12-23 18:07:56.087852,-285
2021-12-23 18:07:56.087883,872
2021-12-23 18:07:56.087895,-1497
2021-12-23 18:07:56.087905,-1948
2021-12-23 18:07:56.087915,1582
2021-12-23 18:07:56.087925,548
2021-12-23 18:07:56.087935,-2775
2021-12-23 18:07:56.087944,-1805
2021-12-23 18:07:56.087954,-2559
2021-12-23 18:07:56.087964,-3029
2021-12-23 18:07:56.087974,1891
2021-12-23 18:07:56.087984,3070
2021-12-23 18:07:56.087994,477
2021-12-23 18:07:56.088003,-760
2021-12-23 18:07:56.088013,-3483
2021-12-23 18:07:56.088023,-2594
2021-12-23 18:07:56.088033,2568
2021-12-23 18:07:56.088048,2689
2021-12-23 18:07:56.088058,665
2021-12-23 18:07:56.088068,793
2021-12-23 18:07:56.088078,-342
2021-12-23 18:07:56.088088,-14
2021-12-23 18:07:56.088097,2452
2021-12-23 18:07:56.088107,2357
2021-12-23 18:07:56.088117,1309
2021-12-23 18:07:56.088126,627
2021-12-23 18:07:56.088136,-677
2021-12-23 18:07:56.088146,339
2021-12-23 18:07:56.088155,2545
2021-12-23 18:07:56.088165,2247
2021-12-23 18:07:56.222458,1311
2021-12-23 18:07:56.222481,629
2021-12-23 18:07:56.222489,-489
2021-12-23 18:07:56.222496,453
2021-12-23 18:07:56.222502,2499
2021-12-23 18:07:56.222508,2217
2021-12-23 18:07:56.222515,1447
2021-12-23 18:07:56.222521,444
2021-12-23 18:07:56.222527,-2105
2021-12-23 18:07:56.222534,-924
2021-12-23 18:07:56.222540,2960
2021-12-23 18:07:56.222547,2478
2021-12-23 18:07:56.222553,-26
2021-12-23 18:07:56.222559,-2255
2021-12-23 18:07:56.222566,-2613
2021-12-23 18:07:56.222572,1192
2021-12-23 18:07:56.222578,2982
2021-12-23 18:07:56.222585,1428
2021-12-23 18:07:56.222591,579
2021-12-23 18:07:56.222597,-605
2021-12-23 18:07:56.222604,-874
2021-12-23 18:07:56.222610,-1066
2021-12-23 18:07:56.222616,-3457
2021-12-23 18:07:56.222623,-1549
2021-12-23 18:07:56.222629,1440
2021-12-23 18:07:56.222635,-2022
2021-12-23 18:07:56.222642,-2343
2021-12-23 18:07:56.222648,2316
2021-12-23 18:07:56.222654,2716
2021-12-23 18:07:56.222660,1059
2021-12-23 18:07:56.492805,914
2021-12-23 18:07:56.492837,368
2021-12-23 18:07:56.492849,147
2021-12-23 18:07:56.492859,1114
2021-12-23 18:07:56.492868,2060
2021-12-23 18:07:56.492878,1851
2021-12-23 18:07:56.492888,-1038
2021-12-23 18:07:56.492897,-2951
2021-12-23 18:07:56.492907,161
2021-12-23 18:07:56.492916,936
2021-12-23 18:07:56.492926,-1753
2021-12-23 18:07:56.492936,-327
2021-12-23 18:07:56.492945,-49
2021-12-23 18:07:56.492955,-2388
2021-12-23 18:07:56.492964,66
2021-12-23 18:07:56.492974,2369
2021-12-23 18:07:56.492984,1532
2021-12-23 18:07:56.492993,1394
2021-12-23 18:07:56.493003,767
2021-12-23 18:07:56.493012,299
2021-12-23 18:07:56.493022,1028
2021-12-23 18:07:56.493031,1290
2021-12-23 18:07:56.493041,1715
2021-12-23 18:07:56.493050,1770
2021-12-23 18:07:56.493060,522
2021-12-23 18:07:56.493069,541
2021-12-23 18:07:56.493079,1373
2021-12-23 18:07:56.493088,1109
2021-12-23 18:07:56.493098,1589
2021-12-23 18:07:56.493107,1722
2021-12-23 18:07:56.672800,299
2021-12-23 18:07:56.672824,627
2021-12-23 18:07:56.672832,1245
2021-12-23 18:07:56.672839,546
2021-12-23 18:07:56.672845,1525
2021-12-23 18:07:56.672851,356
2021-12-23 18:07:56.672858,-3141
2021-12-23 18:07:56.672864,-791
2021-12-23 18:07:56.672871,2466
2021-12-23 18:07:56.672877,855
2021-12-23 18:07:56.672884,895
2021-12-23 18:07:56.672890,1240
2021-12-23 18:07:56.672897,-1273
2021-12-23 18:07:56.672903,-548
2021-12-23 18:07:56.672909,1870
2021-12-23 18:07:56.672916,1095
2021-12-23 18:07:56.672922,800
2021-12-23 18:07:56.672929,-501
2021-12-23 18:07:56.672935,-2547
2021-12-23 18:07:56.672942,648
2021-12-23 18:07:56.672948,2333
2021-12-23 18:07:56.672954,66
2021-12-23 18:07:56.672961,990
2021-12-23 18:07:56.672967,1356
2021-12-23 18:07:56.672974,-90
2021-12-23 18:07:56.672980,1340
2021-12-23 18:07:56.672987,1582
2021-12-23 18:07:56.672993,-1891
2021-12-23 18:07:56.673000,-4552
2021-12-23 18:07:56.673006,-2499
2021-12-23 18:07:56.897715,1794
2021-12-23 18:07:56.897737,1095
2021-12-23 18:07:56.897746,-2761
2021-12-23 18:07:56.897752,-1440
2021-12-23 18:07:56.897759,1047
2021-12-23 18:07:56.897765,-2483
2021-12-23 18:07:56.897772,-3029
2021-12-23 18:07:56.897778,2207
2021-12-23 18:07:56.897784,1732
2021-12-23 18:07:56.897791,-931
2021-12-23 18:07:56.897797,-99
2021-12-23 18:07:56.897804,-1715
2021-12-23 18:07:56.897810,-1639
2021-12-23 18:07:56.897816,1107
2021-12-23 18:07:56.897823,-1729
2021-12-23 18:07:56.897829,-2535
2021-12-23 18:07:56.897835,1729
2021-12-23 18:07:56.897842,1040
2021-12-23 18:07:56.897848,-68
2021-12-23 18:07:56.897854,2117
2021-12-23 18:07:56.897861,1297
2021-12-23 18:07:56.897867,-64
2021-12-23 18:07:56.897873,-266
2021-12-23 18:07:56.897880,-1575
2021-12-23 18:07:56.897886,-622
2021-12-23 18:07:56.897892,-320
2021-12-23 18:07:56.897898,-2554
2021-12-23 18:07:56.897905,-1038
2021-12-23 18:07:56.897911,862
2021-12-23 18:07:56.897917,-365
2021-12-23 18:07:57.167844,384
2021-12-23 18:07:57.167866,1703
2021-12-23 18:07:57.167874,64
2021-12-23 18:07:57.167880,-1012
2021-12-23 18:07:57.167887,-1891
2021-12-23 18:07:57.167893,-2575
2021-12-23 18:07:57.167900,1033
2021-12-23 18:07:57.167906,2739
2021-12-23 18:07:57.167913,-161
2021-12-23 18:07:57.167919,-955
2021-12-23 18:07:57.167925,-1459
2021-12-23 18:07:57.167932,-1758
2021-12-23 18:07:57.167938,1760
2021-12-23 18:07:57.167945,2689
2021-12-23 18:07:57.167951,-154
2021-12-23 18:07:57.167957,-1000
2021-12-23 18:07:57.167964,-779
2021-12-23 18:07:57.167970,168
2021-12-23 18:07:57.167977,2174
2021-12-23 18:07:57.167983,2112
2021-12-23 18:07:57.167990,472
2021-12-23 18:07:57.167996,-64
2021-12-23 18:07:57.168002,422
2021-12-23 18:07:57.168009,1330
2021-12-23 18:07:57.168015,2122
2021-12-23 18:07:57.168021,1867
2021-12-23 18:07:57.168028,724
2021-12-23 18:07:57.168034,-38
2021-12-23 18:07:57.168040,437
2021-12-23 18:07:57.168047,1691
2021-12-23 18:07:57.347336,2245
2021-12-23 18:07:57.347359,1634
2021-12-23 18:07:57.347367,636
2021-12-23 18:07:57.347374,-1468
2021-12-23 18:07:57.347381,-3787
2021-12-23 18:07:57.347387,-1200
2021-12-23 18:07:57.347394,3265
2021-12-23 18:07:57.347400,2247
2021-12-23 18:07:57.347406,-439
2021-12-23 18:07:57.347413,-2169
2021-12-23 18:07:57.347419,-2271
2021-12-23 18:07:57.347425,1537
2021-12-23 18:07:57.347432,3153
2021-12-23 18:07:57.347438,1209
2021-12-23 18:07:57.347445,-83
2021-12-23 18:07:57.347451,-2252
2021-12-23 18:07:57.347457,-2148
2021-12-23 18:07:57.347464,1164
2021-12-23 18:07:57.347470,52
2021-12-23 18:07:57.347477,-1257
2021-12-23 18:07:57.347483,900
2021-12-23 18:07:57.347490,30
2021-12-23 18:07:57.347496,-192
2021-12-23 18:07:57.347502,2599
2021-12-23 18:07:57.347509,2545
2021-12-23 18:07:57.347515,1126
2021-12-23 18:07:57.347521,541
2021-12-23 18:07:57.347528,-308
2021-12-23 18:07:57.347534,907
2021-12-23 18:07:57.347540,2687
2021-12-23 18:07:57.662470,2005
2021-12-23 18:07:57.662492,1309
2021-12-23 18:07:57.662499,-893
2021-12-23 18:07:57.662504,-3980
2021-12-23 18:07:57.662510,-677
2021-12-23 18:07:57.662515,3680
2021-12-23 18:07:57.662520,2034
2021-12-23 18:07:57.662525,601
2021-12-23 18:07:57.662530,-993
2021-12-23 18:07:57.662535,-3562
2021-12-23 18:07:57.662540,-23
2021-12-23 18:07:57.662545,3735
2021-12-23 18:07:57.662550,1744
2021-12-23 18:07:57.662556,651
2021-12-23 18:07:57.662561,228
2021-12-23 18:07:57.662566,-910
2021-12-23 18:07:57.662571,1333
2021-12-23 18:07:57.662576,2977
2021-12-23 18:07:57.662581,1511
2021-12-23 18:07:57.662586,534
2021-12-23 18:07:57.662591,-1204
2021-12-23 18:07:57.662596,-1409
2021-12-23 18:07:57.662601,2143
2021-12-23 18:07:57.662606,2825
2021-12-23 18:07:57.662611,1097
2021-12-23 18:07:57.662616,1242
2021-12-23 18:07:57.662621,14
2021-12-23 18:07:57.662626,-753
2021-12-23 18:07:57.662631,1931
2021-12-23 18:07:57.662636,2682
2021-12-23 18:07:57.886440,1268
2021-12-23 18:07:57.886472,922
2021-12-23 18:07:57.886484,-551
2021-12-23 18:07:57.886495,-931
2021-12-23 18:07:57.886505,1986
2021-12-23 18:07:57.886515,2640
2021-12-23 18:07:57.886525,1119
2021-12-23 18:07:57.886535,1380
2021-12-23 18:07:57.886545,-259
2021-12-23 18:07:57.886554,-4859
2021-12-23 18:07:57.886564,-3227
2021-12-23 18:07:57.886574,3139
2021-12-23 18:07:57.886584,2754
2021-12-23 18:07:57.886594,-1839
2021-12-23 18:07:57.886604,-3982
2021-12-23 18:07:57.886614,-1361
2021-12-23 18:07:57.886623,2799
2021-12-23 18:07:57.886644,2221
2021-12-23 18:07:57.886655,701
2021-12-23 18:07:57.886665,-639
2021-12-23 18:07:57.886674,-3483
2021-12-23 18:07:57.886684,-2098
2021-12-23 18:07:57.886694,223
2021-12-23 18:07:57.886704,-228
2021-12-23 18:07:57.886714,1242
2021-12-23 18:07:57.886724,1181
2021-12-23 18:07:57.886734,-1361
2021-12-23 18:07:57.886744,38
2021-12-23 18:07:57.886754,2701
2021-12-23 18:07:57.886764,1917
2021-12-23 18:07:58.067831,945
2021-12-23 18:07:58.067864,605
2021-12-23 18:07:58.067877,-672
2021-12-23 18:07:58.067887,192
2021-12-23 18:07:58.067898,2338
2021-12-23 18:07:58.067907,1777
2021-12-23 18:07:58.067917,144
2021-12-23 18:07:58.067927,-2224
2021-12-23 18:07:58.067937,-3227
2021-12-23 18:07:58.067947,746
2021-12-23 18:07:58.067957,3020
2021-12-23 18:07:58.067967,1273
2021-12-23 18:07:58.067977,140
2021-12-23 18:07:58.067987,-2186
2021-12-23 18:07:58.067997,-3032
2021-12-23 18:07:58.068007,1057
2021-12-23 18:07:58.068017,2929
2021-12-23 18:07:58.068027,1207
2021-12-23 18:07:58.068037,689
2021-12-23 18:07:58.068047,375
2021-12-23 18:07:58.068057,-242
2021-12-23 18:07:58.068067,758
2021-12-23 18:07:58.068076,2098
2021-12-23 18:07:58.068086,933
2021-12-23 18:07:58.068096,-2007
2021-12-23 18:07:58.068106,-1948
2021-12-23 18:07:58.068116,945
2021-12-23 18:07:58.068125,1482
2021-12-23 18:07:58.068135,1097
2021-12-23 18:07:58.068145,1841
2021-12-23 18:07:58.292805,879
2021-12-23 18:07:58.292828,-527
2021-12-23 18:07:58.292836,149
2021-12-23 18:07:58.292846,1043
2021-12-23 18:07:58.292853,1561
2021-12-23 18:07:58.292859,1637
2021-12-23 18:07:58.292865,-1342
2021-12-23 18:07:58.292872,-3350
2021-12-23 18:07:58.292878,-7
2021-12-23 18:07:58.292884,2079
2021-12-23 18:07:58.292891,1197
2021-12-23 18:07:58.292897,1021
2021-12-23 18:07:58.292903,-1273
2021-12-23 18:07:58.292910,-3690
2021-12-23 18:07:58.292919,-4246
2021-12-23 18:07:58.292926,-3592
2021-12-23 18:07:58.292932,1273
2021-12-23 18:07:58.292938,3046
2021-12-23 18:07:58.292945,-617
2021-12-23 18:07:58.292951,-461
2021-12-23 18:07:58.292958,1592
2021-12-23 18:07:58.292964,898
2021-12-23 18:07:58.292970,1135
2021-12-23 18:07:58.292977,1853
2021-12-23 18:07:58.292983,318
2021-12-23 18:07:58.292989,-572
2021-12-23 18:07:58.292995,-1437
2021-12-23 18:07:58.293002,-1480
2021-12-23 18:07:58.293008,1901
2021-12-23 18:07:58.293014,2195
2021-12-23 18:07:58.517840,-515
2021-12-23 18:07:58.517862,534
2021-12-23 18:07:58.517870,1497
2021-12-23 18:07:58.517877,380
2021-12-23 18:07:58.517883,1342
2021-12-23 18:07:58.517889,278
2021-12-23 18:07:58.517896,-3165
2021-12-23 18:07:58.517902,-860
2021-12-23 18:07:58.517908,2385
2021-12-23 18:07:58.517915,779
2021-12-23 18:07:58.517921,677
2021-12-23 18:07:58.517927,85
2021-12-23 18:07:58.517934,-2642
2021-12-23 18:07:58.517940,-109
2021-12-23 18:07:58.517947,2345
2021-12-23 18:07:58.517953,339
2021-12-23 18:07:58.517959,855
2021-12-23 18:07:58.517966,1397
2021-12-23 18:07:58.517972,-121
2021-12-23 18:07:58.517979,1052
2021-12-23 18:07:58.517985,1511
2021-12-23 18:07:58.517991,285
2021-12-23 18:07:58.517998,1280
2021-12-23 18:07:58.518004,1135
2021-12-23 18:07:58.518010,76
2021-12-23 18:07:58.518017,1416
2021-12-23 18:07:58.518023,1356
2021-12-23 18:07:58.518030,-480
2021-12-23 18:07:58.518036,-1608
2021-12-23 18:07:58.518042,-1734
2021-12-23 18:07:58.742418,586
2021-12-23 18:07:58.742442,2240
2021-12-23 18:07:58.742450,461
2021-12-23 18:07:58.742457,-106
2021-12-23 18:07:58.742463,705
2021-12-23 18:07:58.742470,-2026
2021-12-23 18:07:58.742476,-2324
2021-12-23 18:07:58.742483,2364
2021-12-23 18:07:58.742489,1867
2021-12-23 18:07:58.742496,-629
2021-12-23 18:07:58.742502,87
2021-12-23 18:07:58.742508,-1680
2021-12-23 18:07:58.742515,-1413
2021-12-23 18:07:58.742521,2485
2021-12-23 18:07:58.742527,1421
2021-12-23 18:07:58.742534,-525
2021-12-23 18:07:58.742540,891
2021-12-23 18:07:58.742546,684
2021-12-23 18:07:58.742553,594
2021-12-23 18:07:58.742559,121
2021-12-23 18:07:58.742565,-4640
2021-12-23 18:07:58.742572,-4255
2021-12-23 18:07:58.742578,2107
2021-12-23 18:07:58.742584,1722
2021-12-23 18:07:58.742591,-244
2021-12-23 18:07:58.742597,2010
2021-12-23 18:07:58.742603,1416
2021-12-23 18:07:58.742610,-197
2021-12-23 18:07:58.742616,662
2021-12-23 18:07:58.742622,199
2021-12-23 18:07:58.967851,-1513
2021-12-23 18:07:58.967875,-850
2021-12-23 18:07:58.967883,917
2021-12-23 18:07:58.967889,337
2021-12-23 18:07:58.967896,-2335
2021-12-23 18:07:58.967902,-2392
2021-12-23 18:07:58.967908,1820
2021-12-23 18:07:58.967915,2775
2021-12-23 18:07:58.967921,-28
2021-12-23 18:07:58.967928,-525
2021-12-23 18:07:58.967934,-1337
2021-12-23 18:07:58.967940,-1613
2021-12-23 18:07:58.967947,1886
2021-12-23 18:07:58.967953,2704
2021-12-23 18:07:58.967959,-16
2021-12-23 18:07:58.967965,-515
2021-12-23 18:07:58.967972,242
2021-12-23 18:07:58.967978,743
2021-12-23 18:07:58.967984,1848
2021-12-23 18:07:58.967991,1929
2021-12-23 18:07:58.967997,491
2021-12-23 18:07:58.968003,-149
2021-12-23 18:07:58.968010,434
2021-12-23 18:07:58.968016,1314
2021-12-23 18:07:58.968022,1943
2021-12-23 18:07:58.968028,1592
2021-12-23 18:07:58.968035,503
2021-12-23 18:07:58.968041,-259
2021-12-23 18:07:58.968047,209
2021-12-23 18:07:58.968054,1573
2021-12-23 18:07:59.237847,1979
2021-12-23 18:07:59.237879,705
2021-12-23 18:07:59.237891,-2392
2021-12-23 18:07:59.237902,-5092
2021-12-23 18:07:59.237912,-2744
2021-12-23 18:07:59.237922,1791
2021-12-23 18:07:59.237931,2314
2021-12-23 18:07:59.237941,926
2021-12-23 18:07:59.237951,206
2021-12-23 18:07:59.237961,-2202
2021-12-23 18:07:59.237970,-2697
2021-12-23 18:07:59.237980,1575
2021-12-23 18:07:59.237990,3025
2021-12-23 18:07:59.238000,800
2021-12-23 18:07:59.238009,-14
2021-12-23 18:07:59.238019,-427
2021-12-23 18:07:59.238029,114
2021-12-23 18:07:59.238039,2045
2021-12-23 18:07:59.238048,2122
2021-12-23 18:07:59.238058,1102
2021-12-23 18:07:59.238068,292
2021-12-23 18:07:59.238077,-710
2021-12-23 18:07:59.238087,475
2021-12-23 18:07:59.238097,2369
2021-12-23 18:07:59.238106,1316
2021-12-23 18:07:59.238116,-2975
2021-12-23 18:07:59.238126,-5686
2021-12-23 18:07:59.238135,-1494
2021-12-23 18:07:59.238145,2632
2021-12-23 18:07:59.238155,1573
2021-12-23 18:07:59.462091,1050
2021-12-23 18:07:59.462108,1772
2021-12-23 18:07:59.462115,78
2021-12-23 18:07:59.462120,-1646
2021-12-23 18:07:59.462126,-1287
2021-12-23 18:07:59.462131,-308
2021-12-23 18:07:59.462136,1584
2021-12-23 18:07:59.462141,1953
2021-12-23 18:07:59.462146,-2003
2021-12-23 18:07:59.462151,-4431
2021-12-23 18:07:59.462156,259
2021-12-23 18:07:59.462161,3585
2021-12-23 18:07:59.462166,1252
2021-12-23 18:07:59.462172,525
2021-12-23 18:07:59.462177,-1344
2021-12-23 18:07:59.462182,-3878
2021-12-23 18:07:59.462187,603
2021-12-23 18:07:59.462192,3716
2021-12-23 18:07:59.462197,1121
2021-12-23 18:07:59.462202,610
2021-12-23 18:07:59.462207,-9
2021-12-23 18:07:59.462212,-1140
2021-12-23 18:07:59.462217,1501
2021-12-23 18:07:59.462222,2820
2021-12-23 18:07:59.462228,1287
2021-12-23 18:07:59.462233,917
2021-12-23 18:07:59.462238,-197
2021-12-23 18:07:59.462243,-819
2021-12-23 18:07:59.462248,1770
2021-12-23 18:07:59.462253,2637
2021-12-23 18:07:59.732761,1188
2021-12-23 18:07:59.732783,933
2021-12-23 18:07:59.732792,-201
2021-12-23 18:07:59.732817,-684
2021-12-23 18:07:59.732827,1879
2021-12-23 18:07:59.732837,1946
2021-12-23 18:07:59.732846,-1475
2021-12-23 18:07:59.732856,-3108
2021-12-23 18:07:59.732866,-3402
2021-12-23 18:07:59.732875,-1934
2021-12-23 18:07:59.732885,2148
2021-12-23 18:07:59.732895,2628
2021-12-23 18:07:59.732904,777
2021-12-23 18:07:59.732914,-539
2021-12-23 18:07:59.732923,-3457
2021-12-23 18:07:59.732933,-2012
2021-12-23 18:07:59.732943,2910
2021-12-23 18:07:59.732952,2497
2021-12-23 18:07:59.732962,510
2021-12-23 18:07:59.732972,575
2021-12-23 18:07:59.732981,-651
2021-12-23 18:07:59.732991,-289
2021-12-23 18:07:59.733001,2262
2021-12-23 18:07:59.733010,2176
2021-12-23 18:07:59.733020,974
2021-12-23 18:07:59.733030,441
2021-12-23 18:07:59.733039,-701
2021-12-23 18:07:59.733049,173
2021-12-23 18:07:59.733059,2255
2021-12-23 18:07:59.733068,1870
2021-12-23 18:07:59.957020,-166
2021-12-23 18:07:59.957052,-3671
2021-12-23 18:07:59.957064,-4153
2021-12-23 18:07:59.957075,1116
2021-12-23 18:07:59.957085,3020
2021-12-23 18:07:59.957095,874
2021-12-23 18:07:59.957105,1276
2021-12-23 18:07:59.957115,1513
2021-12-23 18:07:59.957125,-1908
2021-12-23 18:07:59.957135,-2732
2021-12-23 18:07:59.957145,1920
2021-12-23 18:07:59.957155,3017
2021-12-23 18:07:59.957165,-458
2021-12-23 18:07:59.957175,-2982
2021-12-23 18:07:59.957185,-2521
2021-12-23 18:07:59.957195,1043
2021-12-23 18:07:59.957205,2561
2021-12-23 18:07:59.957215,1197
2021-12-23 18:07:59.957225,-163
2021-12-23 18:07:59.957234,-2407
2021-12-23 18:07:59.957244,-2214
2021-12-23 18:07:59.957254,1430
2021-12-23 18:07:59.957264,2390
2021-12-23 18:07:59.957274,1121
2021-12-23 18:07:59.957284,655
2021-12-23 18:07:59.957294,-199
2021-12-23 18:07:59.957303,-491
2021-12-23 18:07:59.957313,746
2021-12-23 18:07:59.957323,1908
2021-12-23 18:07:59.957333,1737
2021-12-23 18:08:00.227776,487
2021-12-23 18:08:00.227798,-116
2021-12-23 18:08:00.227806,275
2021-12-23 18:08:00.227813,712
2021-12-23 18:08:00.227819,1584
2021-12-23 18:08:00.227825,1634
2021-12-23 18:08:00.227832,-1487
2021-12-23 18:08:00.227838,-3322
2021-12-23 18:08:00.227844,-47
2021-12-23 18:08:00.227850,1520
2021-12-23 18:08:00.227857,-1347
2021-12-23 18:08:00.227863,-2145
2021-12-23 18:08:00.227869,-1637
2021-12-23 18:08:00.227876,-2371
2021-12-23 18:08:00.227882,-204
2021-12-23 18:08:00.227888,1789
2021-12-23 18:08:00.227894,1252
2021-12-23 18:08:00.227901,926
2021-12-23 18:08:00.227907,-962
2021-12-23 18:08:00.227913,-1525
2021-12-23 18:08:00.227920,983
2021-12-23 18:08:00.227926,1383
2021-12-23 18:08:00.227932,1071
2021-12-23 18:08:00.227938,1423
2021-12-23 18:08:00.227945,161
2021-12-23 18:08:00.227951,99
2021-12-23 18:08:00.227957,1078
2021-12-23 18:08:00.227963,831
2021-12-23 18:08:00.227970,1354
2021-12-23 18:08:00.227976,1394
2021-12-23 18:08:00.362798,-11
2021-12-23 18:08:00.362818,415
2021-12-23 18:08:00.362826,1100
2021-12-23 18:08:00.362833,482
2021-12-23 18:08:00.362839,1337
2021-12-23 18:08:00.362846,1986
2021-12-23 18:08:00.362852,-1943
2021-12-23 18:08:00.362859,-4959
2021-12-23 18:08:00.362865,-1748
2021-12-23 18:08:00.362872,-204
2021-12-23 18:08:00.362878,-684
2021-12-23 18:08:00.362884,910
2021-12-23 18:08:00.362891,-677
2021-12-23 18:08:00.362897,-2545
2021-12-23 18:08:00.362904,-33
2021-12-23 18:08:00.362910,1276
2021-12-23 18:08:00.362917,468
2021-12-23 18:08:00.362923,-1775
2021-12-23 18:08:00.362929,-3205
2021-12-23 18:08:00.362936,482
2021-12-23 18:08:00.362942,1893
2021-12-23 18:08:00.362948,-289
2021-12-23 18:08:00.362955,472
2021-12-23 18:08:00.362961,-838
2021-12-23 18:08:00.362968,-2806
2021-12-23 18:08:00.362974,1057
2021-12-23 18:08:00.362980,2209
2021-12-23 18:08:00.362987,-365
2021-12-23 18:08:00.362993,710
2021-12-23 18:08:00.363000,-263
2021-12-23 18:08:00.587885,-2910
2021-12-23 18:08:00.587917,-446
2021-12-23 18:08:00.587929,-427
2021-12-23 18:08:00.587939,-2818
2021-12-23 18:08:00.587949,-945
2021-12-23 18:08:00.587959,-2150
2021-12-23 18:08:00.587969,-3243
2021-12-23 18:08:00.587979,1356
2021-12-23 18:08:00.587989,1428
2021-12-23 18:08:00.587999,-1109
2021-12-23 18:08:00.588009,-617
2021-12-23 18:08:00.588019,-2136
2021-12-23 18:08:00.588029,-1651
2021-12-23 18:08:00.588038,1805
2021-12-23 18:08:00.588048,-1083
2021-12-23 18:08:00.588058,-3844
2021-12-23 18:08:00.588068,437
2021-12-23 18:08:00.588078,1599
2021-12-23 18:08:00.588088,42
2021-12-23 18:08:00.588098,1570
2021-12-23 18:08:00.588108,1309
2021-12-23 18:08:00.588118,-23
2021-12-23 18:08:00.588128,651
2021-12-23 18:08:00.588137,-503
2021-12-23 18:08:00.588147,-1587
2021-12-23 18:08:00.588157,589
2021-12-23 18:08:00.588167,1012
2021-12-23 18:08:00.588177,-289
2021-12-23 18:08:00.588186,80
2021-12-23 18:08:00.588196,577
2021-12-23 18:08:00.812907,1235
2021-12-23 18:08:00.812929,1599
2021-12-23 18:08:00.812937,304
2021-12-23 18:08:00.812944,-586
2021-12-23 18:08:00.812950,-1860
2021-12-23 18:08:00.812957,-2290
2021-12-23 18:08:00.812963,1463
2021-12-23 18:08:00.812970,2887
2021-12-23 18:08:00.812976,125
2021-12-23 18:08:00.812982,-686
2021-12-23 18:08:00.812989,-1366
2021-12-23 18:08:00.812995,-1689
2021-12-23 18:08:00.813001,-1083
2021-12-23 18:08:00.813008,-3367
2021-12-23 18:08:00.813014,-3405
2021-12-23 18:08:00.813020,-380
2021-12-23 18:08:00.813026,-1687
2021-12-23 18:08:00.813032,-4583
2021-12-23 18:08:00.813039,-1791
2021-12-23 18:08:00.813049,1466
2021-12-23 18:08:00.813056,-712
2021-12-23 18:08:00.813062,-2347
2021-12-23 18:08:00.813068,-829
2021-12-23 18:08:00.813075,475
2021-12-23 18:08:00.813081,779
2021-12-23 18:08:00.813088,622
2021-12-23 18:08:00.813094,-130
2021-12-23 18:08:00.813100,-983
2021-12-23 18:08:00.813107,-432
2021-12-23 18:08:00.813113,993
2021-12-23 18:08:01.037775,1337
2021-12-23 18:08:01.037807,843
2021-12-23 18:08:01.037819,-206
2021-12-23 18:08:01.037830,-2804
2021-12-23 18:08:01.037840,-3402
2021-12-23 18:08:01.037850,491
2021-12-23 18:08:01.037860,2250
2021-12-23 18:08:01.037870,425
2021-12-23 18:08:01.037880,-380
2021-12-23 18:08:01.037891,-2195
2021-12-23 18:08:01.037901,-2858
2021-12-23 18:08:01.037911,1287
2021-12-23 18:08:01.037921,2837
2021-12-23 18:08:01.037931,575
2021-12-23 18:08:01.037941,-166
2021-12-23 18:08:01.037952,-249
2021-12-23 18:08:01.037962,807
2021-12-23 18:08:01.037972,2466
2021-12-23 18:08:01.037982,411
2021-12-23 18:08:01.037992,-1444
2021-12-23 18:08:01.038002,565
2021-12-23 18:08:01.038012,936
2021-12-23 18:08:01.038022,743
2021-12-23 18:08:01.038032,2613
2021-12-23 18:08:01.038042,2818
2021-12-23 18:08:01.038052,1734
2021-12-23 18:08:01.038062,665
2021-12-23 18:08:01.038072,-133
2021-12-23 18:08:01.038082,1397
2021-12-23 18:08:01.038092,3046
2021-12-23 18:08:01.351582,2350
2021-12-23 18:08:01.351603,1656
2021-12-23 18:08:01.351611,-610
2021-12-23 18:08:01.351618,-3669
2021-12-23 18:08:01.351624,-268
2021-12-23 18:08:01.351631,4141
2021-12-23 18:08:01.351637,2343
2021-12-23 18:08:01.351644,943
2021-12-23 18:08:01.351650,-482
2021-12-23 18:08:01.351656,-3058
2021-12-23 18:08:01.351663,494
2021-12-23 18:08:01.351669,4072
2021-12-23 18:08:01.351675,2000
2021-12-23 18:08:01.351682,1066
2021-12-23 18:08:01.351688,434
2021-12-23 18:08:01.351695,-724
2021-12-23 18:08:01.351701,1729
2021-12-23 18:08:01.351708,1710
2021-12-23 18:08:01.351714,-3524
2021-12-23 18:08:01.351720,-3091
2021-12-23 18:08:01.351727,653
2021-12-23 18:08:01.351733,-981
2021-12-23 18:08:01.351740,249
2021-12-23 18:08:01.351746,3716
2021-12-23 18:08:01.351752,2245
2021-12-23 18:08:01.351758,841
2021-12-23 18:08:01.351765,289
2021-12-23 18:08:01.351771,-95
2021-12-23 18:08:01.351778,2150
2021-12-23 18:08:01.351784,3003
2021-12-23 18:08:01.532896,1701
2021-12-23 18:08:01.532927,1306
2021-12-23 18:08:01.532940,-240
2021-12-23 18:08:01.532950,-548
2021-12-23 18:08:01.532960,2426
2021-12-23 18:08:01.532970,2929
2021-12-23 18:08:01.532980,1482
2021-12-23 18:08:01.532990,216
2021-12-23 18:08:01.533000,-3103
2021-12-23 18:08:01.533010,-2338
2021-12-23 18:08:01.533020,3136
2021-12-23 18:08:01.533030,3224
2021-12-23 18:08:01.533039,767
2021-12-23 18:08:01.533049,510
2021-12-23 18:08:01.533059,-1211
2021-12-23 18:08:01.533069,-746
2021-12-23 18:08:01.533079,2787
2021-12-23 18:08:01.533089,2701
2021-12-23 18:08:01.533099,1085
2021-12-23 18:08:01.533109,458
2021-12-23 18:08:01.533118,-1147
2021-12-23 18:08:01.533128,-237
2021-12-23 18:08:01.533138,800
2021-12-23 18:08:01.533148,-993
2021-12-23 18:08:01.533158,546
2021-12-23 18:08:01.533168,1732
2021-12-23 18:08:01.533178,-986
2021-12-23 18:08:01.533188,-21
2021-12-23 18:08:01.533198,2906
2021-12-23 18:08:01.533207,2193
2021-12-23 18:08:01.757843,1081
2021-12-23 18:08:01.757874,670
2021-12-23 18:08:01.757887,-477
2021-12-23 18:08:01.757898,325
2021-12-23 18:08:01.757908,2411
2021-12-23 18:08:01.757918,2212
2021-12-23 18:08:01.757928,641
2021-12-23 18:08:01.757938,-1986
2021-12-23 18:08:01.757948,-3093
2021-12-23 18:08:01.757958,857
2021-12-23 18:08:01.757968,3203
2021-12-23 18:08:01.757978,1387
2021-12-23 18:08:01.757988,206
2021-12-23 18:08:01.757998,-1844
2021-12-23 18:08:01.758008,-2597
2021-12-23 18:08:01.758018,1240
2021-12-23 18:08:01.758028,2939
2021-12-23 18:08:01.758038,1311
2021-12-23 18:08:01.758048,772
2021-12-23 18:08:01.758058,192
2021-12-23 18:08:01.758068,-247
2021-12-23 18:08:01.758078,938
2021-12-23 18:08:01.758088,1939
2021-12-23 18:08:01.758098,-1473
2021-12-23 18:08:01.758108,-6489
2021-12-23 18:08:01.758117,-3464
2021-12-23 18:08:01.758127,2155
2021-12-23 18:08:01.758138,1337
2021-12-23 18:08:01.758148,712
2021-12-23 18:08:01.758158,2305
2021-12-23 18:08:02.026508,1102
2021-12-23 18:08:02.026540,-365
2021-12-23 18:08:02.026552,370
2021-12-23 18:08:02.026562,1112
2021-12-23 18:08:02.026572,1670
2021-12-23 18:08:02.026582,1746
2021-12-23 18:08:02.026592,-1233
2021-12-23 18:08:02.026602,-3224
2021-12-23 18:08:02.026612,154
2021-12-23 18:08:02.026621,2181
2021-12-23 18:08:02.026632,1240
2021-12-23 18:08:02.026641,1190
2021-12-23 18:08:02.026651,-1204
2021-12-23 18:08:02.026661,-2751
2021-12-23 18:08:02.026671,698
2021-12-23 18:08:02.026681,1922
2021-12-23 18:08:02.026691,715
2021-12-23 18:08:02.026700,1157
2021-12-23 18:08:02.026710,634
2021-12-23 18:08:02.026720,90
2021-12-23 18:08:02.026730,860
2021-12-23 18:08:02.026740,1085
2021-12-23 18:08:02.026750,1546
2021-12-23 18:08:02.026759,1584
2021-12-23 18:08:02.026769,301
2021-12-23 18:08:02.026779,294
2021-12-23 18:08:02.026789,-765
2021-12-23 18:08:02.026799,-2747
2021-12-23 18:08:02.026808,384
2021-12-23 18:08:02.026818,2697
2021-12-23 18:08:02.207872,-59
2021-12-23 18:08:02.207905,38
2021-12-23 18:08:02.207917,1523
2021-12-23 18:08:02.207928,518
2021-12-23 18:08:02.207937,1192
2021-12-23 18:08:02.207947,316
2021-12-23 18:08:02.207957,-2979
2021-12-23 18:08:02.207967,-627
2021-12-23 18:08:02.207977,2381
2021-12-23 18:08:02.207987,677
2021-12-23 18:08:02.207998,765
2021-12-23 18:08:02.208007,-225
2021-12-23 18:08:02.208018,-3122
2021-12-23 18:08:02.208027,-73
2021-12-23 18:08:02.208037,2466
2021-12-23 18:08:02.208047,320
2021-12-23 18:08:02.208057,824
2021-12-23 18:08:02.208067,1475
2021-12-23 18:08:02.208077,73
2021-12-23 18:08:02.208087,1071
2021-12-23 18:08:02.208096,1584
2021-12-23 18:08:02.208106,434
2021-12-23 18:08:02.208116,1204
2021-12-23 18:08:02.208126,912
2021-12-23 18:08:02.208136,-147
2021-12-23 18:08:02.208146,1487
2021-12-23 18:08:02.208156,1497
2021-12-23 18:08:02.208165,199
2021-12-23 18:08:02.208175,370
2021-12-23 18:08:02.208185,-2787
2021-12-23 18:08:02.432610,-3614
2021-12-23 18:08:02.432633,2122
2021-12-23 18:08:02.432641,2112
2021-12-23 18:08:02.432648,-1066
2021-12-23 18:08:02.432655,166
2021-12-23 18:08:02.432662,-1475
2021-12-23 18:08:02.432668,-2266
2021-12-23 18:08:02.432675,2169
2021-12-23 18:08:02.432681,2007
2021-12-23 18:08:02.432688,-544
2021-12-23 18:08:02.432694,-133
2021-12-23 18:08:02.432701,-1696
2021-12-23 18:08:02.432707,-1245
2021-12-23 18:08:02.432714,2526
2021-12-23 18:08:02.432720,1449
2021-12-23 18:08:02.432727,-499
2021-12-23 18:08:02.432733,945
2021-12-23 18:08:02.432740,727
2021-12-23 18:08:02.432746,658
2021-12-23 18:08:02.432753,2000
2021-12-23 18:08:02.432760,910
2021-12-23 18:08:02.432767,42
2021-12-23 18:08:02.432773,845
2021-12-23 18:08:02.432780,641
2021-12-23 18:08:02.432786,1145
2021-12-23 18:08:02.432793,1943
2021-12-23 18:08:02.432799,750
2021-12-23 18:08:02.432805,152
2021-12-23 18:08:02.432812,686
2021-12-23 18:08:02.432818,527
2021-12-23 18:08:02.747884,-415
2021-12-23 18:08:02.747916,-1456
2021-12-23 18:08:02.747928,-658
2021-12-23 18:08:02.747939,437
2021-12-23 18:08:02.747949,-1846
2021-12-23 18:08:02.747959,-2694
2021-12-23 18:08:02.747969,1708
2021-12-23 18:08:02.747979,2903
2021-12-23 18:08:02.747988,-263
2021-12-23 18:08:02.747998,-841
2021-12-23 18:08:02.748008,-1449
2021-12-23 18:08:02.748018,-1708
2021-12-23 18:08:02.748027,1872
2021-12-23 18:08:02.748037,2637
2021-12-23 18:08:02.748047,-128
2021-12-23 18:08:02.748056,-361
2021-12-23 18:08:02.748066,491
2021-12-23 18:08:02.748076,867
2021-12-23 18:08:02.748086,1746
2021-12-23 18:08:02.748095,1756
2021-12-23 18:08:02.748105,453
2021-12-23 18:08:02.748115,-342
2021-12-23 18:08:02.748124,287
2021-12-23 18:08:02.748134,1392
2021-12-23 18:08:02.748144,1825
2021-12-23 18:08:02.748153,1487
2021-12-23 18:08:02.748163,506
2021-12-23 18:08:02.748172,-394
2021-12-23 18:08:02.748182,87
2021-12-23 18:08:02.748192,1478
2021-12-23 18:08:02.882810,1924
2021-12-23 18:08:02.882831,1159
2021-12-23 18:08:02.882839,-1371
2021-12-23 18:08:02.882846,-4027
2021-12-23 18:08:02.882853,-4479
2021-12-23 18:08:02.882860,-2309
2021-12-23 18:08:02.882866,1863
2021-12-23 18:08:02.882873,2404
2021-12-23 18:08:02.882879,-582
2021-12-23 18:08:02.882885,-3048
2021-12-23 18:08:02.882892,-2578
2021-12-23 18:08:02.882898,1582
2021-12-23 18:08:02.882904,2796
2021-12-23 18:08:02.882911,812
2021-12-23 18:08:02.882917,125
2021-12-23 18:08:02.882924,-40
2021-12-23 18:08:02.882930,774
2021-12-23 18:08:02.882936,2017
2021-12-23 18:08:02.882942,1820
2021-12-23 18:08:02.882949,1242
2021-12-23 18:08:02.882955,-358
2021-12-23 18:08:02.882962,-3307
2021-12-23 18:08:02.882968,-1882
2021-12-23 18:08:02.882974,2761
2021-12-23 18:08:02.882980,2478
2021-12-23 18:08:02.882987,299
2021-12-23 18:08:02.882993,-273
2021-12-23 18:08:02.882999,-1093
2021-12-23 18:08:02.883005,468
2021-12-23 18:08:02.883012,2547
2021-12-23 18:08:03.152927,1668
2021-12-23 18:08:03.152958,912
2021-12-23 18:08:03.152970,-1245
2021-12-23 18:08:03.152980,-4365
2021-12-23 18:08:03.152990,-2359
2021-12-23 18:08:03.153000,190
2021-12-23 18:08:03.153010,323
2021-12-23 18:08:03.153020,1356
2021-12-23 18:08:03.153030,-1233
2021-12-23 18:08:03.153040,-4312
2021-12-23 18:08:03.153049,220
2021-12-23 18:08:03.153059,3678
2021-12-23 18:08:03.153069,1245
2021-12-23 18:08:03.153079,513
2021-12-23 18:08:03.153089,49
2021-12-23 18:08:03.153099,-1226
2021-12-23 18:08:03.153108,1207
2021-12-23 18:08:03.153118,2865
2021-12-23 18:08:03.153128,1316
2021-12-23 18:08:03.153137,919
2021-12-23 18:08:03.153147,-38
2021-12-23 18:08:03.153157,-910
2021-12-23 18:08:03.153167,1642
2021-12-23 18:08:03.153177,2647
2021-12-23 18:08:03.153187,1173
2021-12-23 18:08:03.153197,950
2021-12-23 18:08:03.153206,-377
2021-12-23 18:08:03.153216,-969
2021-12-23 18:08:03.153226,1827
2021-12-23 18:08:03.153236,2530
2021-12-23 18:08:03.377192,1102
2021-12-23 18:08:03.377212,774
2021-12-23 18:08:03.377220,-722
2021-12-23 18:08:03.377228,-1017
2021-12-23 18:08:03.377234,1891
2021-12-23 18:08:03.377241,2402
2021-12-23 18:08:03.377247,-544
2021-12-23 18:08:03.377254,-3657
2021-12-23 18:08:03.377260,-5812
2021-12-23 18:08:03.377266,-6358
2021-12-23 18:08:03.377273,-2987
2021-12-23 18:08:03.377279,2133
2021-12-23 18:08:03.377286,2373
2021-12-23 18:08:03.377292,-1383
2021-12-23 18:08:03.377298,-3830
2021-12-23 18:08:03.377305,-1123
2021-12-23 18:08:03.377311,2929
2021-12-23 18:08:03.377318,2088
2021-12-23 18:08:03.377324,758
2021-12-23 18:08:03.377330,724
2021-12-23 18:08:03.377337,-765
2021-12-23 18:08:03.377343,-49
2021-12-23 18:08:03.377350,2390
2021-12-23 18:08:03.377356,2105
2021-12-23 18:08:03.377362,1090
2021-12-23 18:08:03.377369,527
2021-12-23 18:08:03.377375,-537
2021-12-23 18:08:03.377381,335
2021-12-23 18:08:03.377388,2269
2021-12-23 18:08:03.377394,1991
2021-12-23 18:08:03.602874,1069
2021-12-23 18:08:03.602896,389
2021-12-23 18:08:03.602903,-746
2021-12-23 18:08:03.602910,190
2021-12-23 18:08:03.602917,2245
2021-12-23 18:08:03.602923,1912
2021-12-23 18:08:03.602929,425
2021-12-23 18:08:03.602936,-2297
2021-12-23 18:08:03.602942,-4845
2021-12-23 18:08:03.602948,-2559
2021-12-23 18:08:03.602955,1397
2021-12-23 18:08:03.602961,2117
2021-12-23 18:08:03.602968,161
2021-12-23 18:08:03.602974,-2720
2021-12-23 18:08:03.602980,-2502
2021-12-23 18:08:03.602987,1306
2021-12-23 18:08:03.602993,2545
2021-12-23 18:08:03.603000,1223
2021-12-23 18:08:03.603006,734
2021-12-23 18:08:03.603012,97
2021-12-23 18:08:03.603018,-273
2021-12-23 18:08:03.603025,860
2021-12-23 18:08:03.603031,2034
2021-12-23 18:08:03.603038,1751
2021-12-23 18:08:03.603044,674
2021-12-23 18:08:03.603050,28
2021-12-23 18:08:03.603057,244
2021-12-23 18:08:03.603063,1014
2021-12-23 18:08:03.603070,1741
2021-12-23 18:08:03.603076,1729
2021-12-23 18:08:03.827601,632
2021-12-23 18:08:03.827623,-168
2021-12-23 18:08:03.827632,259
2021-12-23 18:08:03.827638,810
2021-12-23 18:08:03.827645,1516
2021-12-23 18:08:03.827655,1608
2021-12-23 18:08:03.827661,-1497
2021-12-23 18:08:03.827668,-3307
2021-12-23 18:08:03.827674,92
2021-12-23 18:08:03.827681,1832
2021-12-23 18:08:03.827687,-318
2021-12-23 18:08:03.827693,-2228
2021-12-23 18:08:03.827700,-3112
2021-12-23 18:08:03.827706,-1905
2021-12-23 18:08:03.827712,-1318
2021-12-23 18:08:03.827719,-4545
2021-12-23 18:08:03.827725,-2711
2021-12-23 18:08:03.827731,2960
2021-12-23 18:08:03.827738,1000
2021-12-23 18:08:03.827744,-1359
2021-12-23 18:08:03.827750,1200
2021-12-23 18:08:03.827757,1542
2021-12-23 18:08:03.827763,1000
2021-12-23 18:08:03.827769,1523
2021-12-23 18:08:03.827775,472
2021-12-23 18:08:03.827782,287
2021-12-23 18:08:03.827788,1223
2021-12-23 18:08:03.827794,938
2021-12-23 18:08:03.827801,1418
2021-12-23 18:08:03.827807,1501
2021-12-23 18:08:04.096984,114
2021-12-23 18:08:04.097016,636
2021-12-23 18:08:04.097028,1162
2021-12-23 18:08:04.097039,441
2021-12-23 18:08:04.097049,1406
2021-12-23 18:08:04.097059,-66
2021-12-23 18:08:04.097069,-3573
2021-12-23 18:08:04.097079,-926
2021-12-23 18:08:04.097088,2421
2021-12-23 18:08:04.097098,701
2021-12-23 18:08:04.097108,579
2021-12-23 18:08:04.097118,-159
2021-12-23 18:08:04.097128,-4075
2021-12-23 18:08:04.097138,-3227
2021-12-23 18:08:04.097148,380
2021-12-23 18:08:04.097158,902
2021-12-23 18:08:04.097168,1074
2021-12-23 18:08:04.097178,772
2021-12-23 18:08:04.097188,-19
2021-12-23 18:08:04.097198,1299
2021-12-23 18:08:04.097208,1235
2021-12-23 18:08:04.097218,83
2021-12-23 18:08:04.097228,1380
2021-12-23 18:08:04.097237,1147
2021-12-23 18:08:04.097247,66
2021-12-23 18:08:04.097257,1535
2021-12-23 18:08:04.097267,1409
2021-12-23 18:08:04.097277,282
2021-12-23 18:08:04.097287,1240
2021-12-23 18:08:04.097296,922
2021-12-23 18:08:04.277890,268
2021-12-23 18:08:04.277920,1604
2021-12-23 18:08:04.277932,1093
2021-12-23 18:08:04.277943,-40
2021-12-23 18:08:04.277952,251
2021-12-23 18:08:04.277962,-1965
2021-12-23 18:08:04.277972,-1996
2021-12-23 18:08:04.277982,2354
2021-12-23 18:08:04.277992,1765
2021-12-23 18:08:04.278001,-589
2021-12-23 18:08:04.278011,-135
2021-12-23 18:08:04.278021,-2081
2021-12-23 18:08:04.278031,-1416
2021-12-23 18:08:04.278041,2613
2021-12-23 18:08:04.278051,106
2021-12-23 18:08:04.278061,-3802
2021-12-23 18:08:04.278070,-1865
2021-12-23 18:08:04.278080,-261
2021-12-23 18:08:04.278090,287
2021-12-23 18:08:04.278099,1228
2021-12-23 18:08:04.278109,-3265
2021-12-23 18:08:04.278119,-5943
2021-12-23 18:08:04.278129,287
2021-12-23 18:08:04.278138,2490
2021-12-23 18:08:04.278148,149
2021-12-23 18:08:04.278158,1473
2021-12-23 18:08:04.278168,1573
2021-12-23 18:08:04.278177,64
2021-12-23 18:08:04.278187,522
2021-12-23 18:08:04.278197,990
2021-12-23 18:08:04.502778,1478
2021-12-23 18:08:04.502800,1905
2021-12-23 18:08:04.502807,582
2021-12-23 18:08:04.502814,-427
2021-12-23 18:08:04.502821,-1668
2021-12-23 18:08:04.502827,-2067
2021-12-23 18:08:04.502834,1670
2021-12-23 18:08:04.502841,2894
2021-12-23 18:08:04.502847,104
2021-12-23 18:08:04.502854,-665
2021-12-23 18:08:04.502860,-1565
2021-12-23 18:08:04.502867,-1568
2021-12-23 18:08:04.502874,2053
2021-12-23 18:08:04.502880,2673
2021-12-23 18:08:04.502887,-4
2021-12-23 18:08:04.502893,327
2021-12-23 18:08:04.502900,1188
2021-12-23 18:08:04.502906,-1045
2021-12-23 18:08:04.502913,-701
2021-12-23 18:08:04.502919,2468
2021-12-23 18:08:04.502926,1190
2021-12-23 18:08:04.502932,-1216
2021-12-23 18:08:04.502939,128
2021-12-23 18:08:04.502945,1751
2021-12-23 18:08:04.502952,1834
2021-12-23 18:08:04.502958,1435
2021-12-23 18:08:04.502965,480
2021-12-23 18:08:04.502971,-491
2021-12-23 18:08:04.502978,163
2021-12-23 18:08:04.502984,1499
2021-12-23 18:08:04.727906,204
2021-12-23 18:08:04.727936,-1430
2021-12-23 18:08:04.727950,-532
2021-12-23 18:08:04.727962,-2343
2021-12-23 18:08:04.727973,-3980
2021-12-23 18:08:04.727985,544
2021-12-23 18:08:04.727997,2889
2021-12-23 18:08:04.728008,522
2021-12-23 18:08:04.728055,-686
2021-12-23 18:08:04.728069,-2445
2021-12-23 18:08:04.728077,-2751
2021-12-23 18:08:04.728084,1394
2021-12-23 18:08:04.728090,2770
2021-12-23 18:08:04.728097,608
2021-12-23 18:08:04.728103,-204
2021-12-23 18:08:04.728110,-620
2021-12-23 18:08:04.728116,64
2021-12-23 18:08:04.728123,1969
2021-12-23 18:08:04.728129,900
2021-12-23 18:08:04.728136,-2086
2021-12-23 18:08:04.728142,-2307
2021-12-23 18:08:04.728148,-1853
2021-12-23 18:08:04.728155,-1480
2021-12-23 18:08:04.728161,-26
2021-12-23 18:08:04.728168,-850
2021-12-23 18:08:04.728174,-1620
2021-12-23 18:08:04.728180,-4443
2021-12-23 18:08:04.728187,-7656
2021-12-23 18:08:04.728193,-1057
2021-12-23 18:08:04.728200,3892
2021-12-23 18:08:04.997812,337
2021-12-23 18:08:04.997834,-223
2021-12-23 18:08:04.997842,-1074
2021-12-23 18:08:04.997867,-4690
2021-12-23 18:08:04.997877,-1304
2021-12-23 18:08:04.997887,3514
2021-12-23 18:08:04.997897,1611
2021-12-23 18:08:04.997907,66
2021-12-23 18:08:04.997917,-1378
2021-12-23 18:08:04.997926,-3832
2021-12-23 18:08:04.997936,-23
2021-12-23 18:08:04.997946,3678
2021-12-23 18:08:04.997956,1451
2021-12-23 18:08:04.997966,560
2021-12-23 18:08:04.997975,144
2021-12-23 18:08:04.997985,-1143
2021-12-23 18:08:04.997995,1095
2021-12-23 18:08:04.998005,2654
2021-12-23 18:08:04.998014,1506
2021-12-23 18:08:04.998024,1468
2021-12-23 18:08:04.998034,163
2021-12-23 18:08:04.998044,-2345
2021-12-23 18:08:04.998053,-335
2021-12-23 18:08:04.998063,3084
2021-12-23 18:08:04.998073,2247
2021-12-23 18:08:04.998082,627
2021-12-23 18:08:04.998092,-218
2021-12-23 18:08:04.998102,-242
2021-12-23 18:08:04.998112,1998
2021-12-23 18:08:04.998122,2732
2021-12-23 18:08:05.222560,1537
2021-12-23 18:08:05.222583,1083
2021-12-23 18:08:05.222591,-392
2021-12-23 18:08:05.222598,-648
2021-12-23 18:08:05.222605,2274
2021-12-23 18:08:05.222614,2787
2021-12-23 18:08:05.222620,1283
2021-12-23 18:08:05.222627,42
2021-12-23 18:08:05.222633,-3219
2021-12-23 18:08:05.222640,-2340
2021-12-23 18:08:05.222646,3101
2021-12-23 18:08:05.222653,2965
2021-12-23 18:08:05.222659,639
2021-12-23 18:08:05.222666,-242
2021-12-23 18:08:05.222672,-3032
2021-12-23 18:08:05.222679,-1556
2021-12-23 18:08:05.222685,3198
2021-12-23 18:08:05.222692,2611
2021-12-23 18:08:05.222698,755
2021-12-23 18:08:05.222705,760
2021-12-23 18:08:05.222711,-491
2021-12-23 18:08:05.222718,0
2021-12-23 18:08:05.222725,1546
2021-12-23 18:08:05.222731,-634
2021-12-23 18:08:05.222737,-1154
2021-12-23 18:08:05.222744,1261
2021-12-23 18:08:05.222750,68
2021-12-23 18:08:05.222757,-287
2021-12-23 18:08:05.222763,2480
2021-12-23 18:08:05.222770,2404
2021-12-23 18:08:05.447827,1271
2021-12-23 18:08:05.447850,1247
2021-12-23 18:08:05.447858,-3136
2021-12-23 18:08:05.447865,-5767
2021-12-23 18:08:05.447891,1211
2021-12-23 18:08:05.447901,4405
2021-12-23 18:08:05.447911,-175
2021-12-23 18:08:05.447921,-3072
2021-12-23 18:08:05.447931,-2324
2021-12-23 18:08:05.447940,1116
2021-12-23 18:08:05.447950,2730
2021-12-23 18:08:05.447960,1549
2021-12-23 18:08:05.447970,330
2021-12-23 18:08:05.447980,-1977
2021-12-23 18:08:05.447990,-2328
2021-12-23 18:08:05.448000,1373
2021-12-23 18:08:05.448010,2863
2021-12-23 18:08:05.448019,1373
2021-12-23 18:08:05.448029,822
2021-12-23 18:08:05.448039,273
2021-12-23 18:08:05.448049,-135
2021-12-23 18:08:05.448059,1069
2021-12-23 18:08:05.448069,2179
2021-12-23 18:08:05.448078,1910
2021-12-23 18:08:05.448088,829
2021-12-23 18:08:05.448098,-1162
2021-12-23 18:08:05.448108,-1494
2021-12-23 18:08:05.448118,1211
2021-12-23 18:08:05.448127,2495
2021-12-23 18:08:05.448137,1506
2021-12-23 18:08:05.672897,575
2021-12-23 18:08:05.672919,213
2021-12-23 18:08:05.672927,394
2021-12-23 18:08:05.672934,803
2021-12-23 18:08:05.672940,1770
2021-12-23 18:08:05.672947,1758
2021-12-23 18:08:05.672953,-1487
2021-12-23 18:08:05.672960,-3112
2021-12-23 18:08:05.672966,294
2021-12-23 18:08:05.672973,2036
2021-12-23 18:08:05.672979,1181
2021-12-23 18:08:05.672986,1095
2021-12-23 18:08:05.672992,-1278
2021-12-23 18:08:05.672998,-2685
2021-12-23 18:08:05.673005,729
2021-12-23 18:08:05.673011,2015
2021-12-23 18:08:05.673018,981
2021-12-23 18:08:05.673024,1516
2021-12-23 18:08:05.673030,1055
2021-12-23 18:08:05.673036,480
2021-12-23 18:08:05.673043,922
2021-12-23 18:08:05.673049,895
2021-12-23 18:08:05.673056,1530
2021-12-23 18:08:05.673062,1506
2021-12-23 18:08:05.673069,-106
2021-12-23 18:08:05.673075,282
2021-12-23 18:08:05.673081,515
2021-12-23 18:08:05.673088,-2043
2021-12-23 18:08:05.673094,-1157
2021-12-23 18:08:05.673101,1943
2021-12-23 18:08:05.942145,729
2021-12-23 18:08:05.942176,-90
2021-12-23 18:08:05.942189,1071
2021-12-23 18:08:05.942199,753
2021-12-23 18:08:05.942209,1145
2021-12-23 18:08:05.942219,-144
2021-12-23 18:08:05.942229,-3155
2021-12-23 18:08:05.942239,-2464
2021-12-23 18:08:05.942249,-3307
2021-12-23 18:08:05.942259,-3623
2021-12-23 18:08:05.942269,2015
2021-12-23 18:08:05.942279,798
2021-12-23 18:08:05.942289,-4196
2021-12-23 18:08:05.942299,273
2021-12-23 18:08:05.942308,2994
2021-12-23 18:08:05.942318,-163
2021-12-23 18:08:05.942328,796
2021-12-23 18:08:05.942338,1601
2021-12-23 18:08:05.942348,-133
2021-12-23 18:08:05.942358,1112
2021-12-23 18:08:05.942368,1620
2021-12-23 18:08:05.942378,259
2021-12-23 18:08:05.942388,-190
2021-12-23 18:08:05.942398,-1718
2021-12-23 18:08:05.942408,-1219
2021-12-23 18:08:05.942418,1634
2021-12-23 18:08:05.942428,558
2021-12-23 18:08:05.942438,-945
2021-12-23 18:08:05.942448,677
2021-12-23 18:08:05.942458,-586
2021-12-23 18:08:06.165657,-1758
2021-12-23 18:08:06.165673,1489
2021-12-23 18:08:06.165678,1399
2021-12-23 18:08:06.165683,-670
2021-12-23 18:08:06.165688,280
2021-12-23 18:08:06.165692,-993
2021-12-23 18:08:06.165697,-1373
2021-12-23 18:08:06.165701,2043
2021-12-23 18:08:06.165706,1516
2021-12-23 18:08:06.165710,-356
2021-12-23 18:08:06.165715,-261
2021-12-23 18:08:06.165719,-2293
2021-12-23 18:08:06.165723,-1449
2021-12-23 18:08:06.165728,998
2021-12-23 18:08:06.165732,-1440
2021-12-23 18:08:06.165737,-2255
2021-12-23 18:08:06.165741,-1784
2021-12-23 18:08:06.165745,-3063
2021-12-23 18:08:06.165750,-399
2021-12-23 18:08:06.165754,1974
2021-12-23 18:08:06.165759,-396
2021-12-23 18:08:06.165763,-1012
2021-12-23 18:08:06.165767,373
2021-12-23 18:08:06.165772,-180
2021-12-23 18:08:06.165776,434
2021-12-23 18:08:06.165781,1732
2021-12-23 18:08:06.165785,356
2021-12-23 18:08:06.165790,-261
2021-12-23 18:08:06.165794,803
2021-12-23 18:08:06.165798,822
2021-12-23 18:08:06.393036,499
2021-12-23 18:08:06.393059,-1140
2021-12-23 18:08:06.393067,-2347
2021-12-23 18:08:06.393074,-249
2021-12-23 18:08:06.393081,-1166
2021-12-23 18:08:06.393087,-2782
2021-12-23 18:08:06.393094,1539
2021-12-23 18:08:06.393100,3120
2021-12-23 18:08:06.393107,-83
2021-12-23 18:08:06.393113,-950
2021-12-23 18:08:06.393119,-1744
2021-12-23 18:08:06.393126,-1777
2021-12-23 18:08:06.393132,1299
2021-12-23 18:08:06.393138,-1661
2021-12-23 18:08:06.393145,-5622
2021-12-23 18:08:06.393151,-59
2021-12-23 18:08:06.393158,2701
2021-12-23 18:08:06.393164,57
2021-12-23 18:08:06.393171,1570
2021-12-23 18:08:06.393177,2796
2021-12-23 18:08:06.393184,605
2021-12-23 18:08:06.393190,-313
2021-12-23 18:08:06.393196,608
2021-12-23 18:08:06.393203,1656
2021-12-23 18:08:06.393209,2195
2021-12-23 18:08:06.393215,1836
2021-12-23 18:08:06.393222,895
2021-12-23 18:08:06.393228,-26
2021-12-23 18:08:06.393235,425
2021-12-23 18:08:06.393241,1962
2021-12-23 18:08:06.617591,2288
2021-12-23 18:08:06.617612,1620
2021-12-23 18:08:06.617620,159
2021-12-23 18:08:06.617627,-1953
2021-12-23 18:08:06.617633,-724
2021-12-23 18:08:06.617640,2644
2021-12-23 18:08:06.617646,2535
2021-12-23 18:08:06.617653,1097
2021-12-23 18:08:06.617659,501
2021-12-23 18:08:06.617666,-2240
2021-12-23 18:08:06.617672,-2744
2021-12-23 18:08:06.617679,2038
2021-12-23 18:08:06.617685,3352
2021-12-23 18:08:06.617692,834
2021-12-23 18:08:06.617698,-171
2021-12-23 18:08:06.617705,-2297
2021-12-23 18:08:06.617711,-2079
2021-12-23 18:08:06.617718,2526
2021-12-23 18:08:06.617724,3044
2021-12-23 18:08:06.617731,765
2021-12-23 18:08:06.617737,211
2021-12-23 18:08:06.617744,-620
2021-12-23 18:08:06.617750,399
2021-12-23 18:08:06.617757,2564
2021-12-23 18:08:06.617763,2150
2021-12-23 18:08:06.617769,1240
2021-12-23 18:08:06.617776,375
2021-12-23 18:08:06.617782,-598
2021-12-23 18:08:06.617789,979
2021-12-23 18:08:06.617795,2623
2021-12-23 18:08:06.843098,1851
2021-12-23 18:08:06.843120,1188
2021-12-23 18:08:06.843128,-1202
2021-12-23 18:08:06.843134,-4160
2021-12-23 18:08:06.843141,-1057
2021-12-23 18:08:06.843147,1085
2021-12-23 18:08:06.843154,-1135
2021-12-23 18:08:06.843160,670
2021-12-23 18:08:06.843167,-301
2021-12-23 18:08:06.843173,-4391
2021-12-23 18:08:06.843180,80
2021-12-23 18:08:06.843186,4160
2021-12-23 18:08:06.843193,1333
2021-12-23 18:08:06.843199,515
2021-12-23 18:08:06.843205,-80
2021-12-23 18:08:06.843212,-1599
2021-12-23 18:08:06.843218,1295
2021-12-23 18:08:06.843225,3129
2021-12-23 18:08:06.843231,910
2021-12-23 18:08:06.843237,-3148
2021-12-23 18:08:06.843244,-6107
2021-12-23 18:08:06.843250,-1501
2021-12-23 18:08:06.843256,3730
2021-12-23 18:08:06.843263,1974
2021-12-23 18:08:06.843269,724
2021-12-23 18:08:06.843275,1737
2021-12-23 18:08:06.843282,-266
2021-12-23 18:08:06.843288,-1114
2021-12-23 18:08:06.843294,2228
2021-12-23 18:08:06.843301,2861
2021-12-23 18:08:07.067938,1128
2021-12-23 18:08:07.067960,1036
2021-12-23 18:08:07.067967,-375
2021-12-23 18:08:07.067974,-760
2021-12-23 18:08:07.067981,2176
2021-12-23 18:08:07.067987,2580
2021-12-23 18:08:07.067994,375
2021-12-23 18:08:07.068000,-3120
2021-12-23 18:08:07.068062,-6425
