Time,ECG
2021-12-10 13:47:11.757961,-114
2021-12-10 13:47:11.757980,-110
2021-12-10 13:47:11.757990,-119
2021-12-10 13:47:11.757998,-119
2021-12-10 13:47:11.758007,-114
2021-12-10 13:47:11.758015,-112
2021-12-10 13:47:11.758024,-107
2021-12-10 13:47:11.758032,-114
2021-12-10 13:47:11.758041,-117
2021-12-10 13:47:11.758050,-107
2021-12-10 13:47:11.758058,-112
2021-12-10 13:47:11.758067,-114
2021-12-10 13:47:11.758075,-117
2021-12-10 13:47:11.758084,-122
2021-12-10 13:47:11.758092,-122
2021-12-10 13:47:11.758100,-117
2021-12-10 13:47:11.758108,-105
2021-12-10 13:47:11.758117,-97
2021-12-10 13:47:11.758126,-102
2021-12-10 13:47:11.758134,-90
2021-12-10 13:47:11.758142,-88
2021-12-10 13:47:11.758151,-95
2021-12-10 13:47:11.758159,-105
2021-12-10 13:47:11.758168,-119
2021-12-10 13:47:11.758176,-112
2021-12-10 13:47:11.758184,-112
2021-12-10 13:47:11.758193,-124
2021-12-10 13:47:11.758201,-117
2021-12-10 13:47:11.758210,-114
2021-12-10 13:47:11.758218,-114
2021-12-10 13:47:11.758296,-102
2021-12-10 13:47:11.758306,-66
2021-12-10 13:47:11.758315,12
2021-12-10 13:47:11.758324,195
2021-12-10 13:47:11.758332,369
2021-12-10 13:47:11.758341,163
2021-12-10 13:47:11.758350,-352
2021-12-10 13:47:11.758358,-599
2021-12-10 13:47:11.758366,-435
2021-12-10 13:47:11.758375,-220
2021-12-10 13:47:11.758383,-134
2021-12-10 13:47:11.758391,-102
2021-12-10 13:47:11.758400,-75
2021-12-10 13:47:11.758408,-66
2021-12-10 13:47:11.758416,-63
2021-12-10 13:47:11.758425,-44
2021-12-10 13:47:11.758433,-39
2021-12-10 13:47:11.758442,-36
2021-12-10 13:47:11.758450,-17
2021-12-10 13:47:11.758458,-14
2021-12-10 13:47:11.758467,-14
2021-12-10 13:47:11.758475,0
2021-12-10 13:47:11.758483,7
2021-12-10 13:47:11.758492,14
2021-12-10 13:47:11.758500,31
2021-12-10 13:47:11.758508,53
2021-12-10 13:47:11.758517,63
2021-12-10 13:47:11.758525,75
2021-12-10 13:47:11.758533,107
2021-12-10 13:47:11.758543,124
2021-12-10 13:47:11.879022,132
2021-12-10 13:47:11.879039,139
2021-12-10 13:47:11.879048,132
2021-12-10 13:47:11.879057,117
2021-12-10 13:47:11.879065,92
2021-12-10 13:47:11.879074,51
2021-12-10 13:47:11.879082,12
2021-12-10 13:47:11.879091,-53
2021-12-10 13:47:11.879099,-112
2021-12-10 13:47:11.879108,-127
2021-12-10 13:47:11.879116,-151
2021-12-10 13:47:11.879125,-183
2021-12-10 13:47:11.879133,-188
2021-12-10 13:47:11.879145,-190
2021-12-10 13:47:11.879154,-190
2021-12-10 13:47:11.879162,-190
2021-12-10 13:47:11.879170,-185
2021-12-10 13:47:11.879179,-171
2021-12-10 13:47:11.879187,-168
2021-12-10 13:47:11.879196,-166
2021-12-10 13:47:11.879204,-163
2021-12-10 13:47:11.879213,-154
2021-12-10 13:47:11.879221,-141
2021-12-10 13:47:11.879229,-141
2021-12-10 13:47:11.879238,-129
2021-12-10 13:47:11.879246,-119
2021-12-10 13:47:11.879255,-117
2021-12-10 13:47:11.879263,-100
2021-12-10 13:47:11.879271,-97
2021-12-10 13:47:11.879281,-105
2021-12-10 13:47:12.060540,-102
2021-12-10 13:47:12.060561,-105
2021-12-10 13:47:12.060571,-100
2021-12-10 13:47:12.060580,-102
2021-12-10 13:47:12.060589,-105
2021-12-10 13:47:12.060598,-95
2021-12-10 13:47:12.060607,-97
2021-12-10 13:47:12.060615,-102
2021-12-10 13:47:12.060624,-105
2021-12-10 13:47:12.060642,-114
2021-12-10 13:47:12.060651,-107
2021-12-10 13:47:12.060659,-100
2021-12-10 13:47:12.060668,-102
2021-12-10 13:47:12.060677,-100
2021-12-10 13:47:12.060685,-105
2021-12-10 13:47:12.060694,-105
2021-12-10 13:47:12.060702,-105
2021-12-10 13:47:12.060713,-105
2021-12-10 13:47:12.060722,-102
2021-12-10 13:47:12.060730,-110
2021-12-10 13:47:12.060739,-102
2021-12-10 13:47:12.060747,-90
2021-12-10 13:47:12.060756,-92
2021-12-10 13:47:12.060764,-95
2021-12-10 13:47:12.060773,-92
2021-12-10 13:47:12.060781,-92
2021-12-10 13:47:12.060790,-85
2021-12-10 13:47:12.060798,-85
2021-12-10 13:47:12.060807,-78
2021-12-10 13:47:12.060816,-75
2021-12-10 13:47:12.285397,-70
2021-12-10 13:47:12.285416,-56
2021-12-10 13:47:12.285425,-56
2021-12-10 13:47:12.285434,-68
2021-12-10 13:47:12.285443,-80
2021-12-10 13:47:12.285451,-90
2021-12-10 13:47:12.285460,-80
2021-12-10 13:47:12.285472,-80
2021-12-10 13:47:12.285480,-90
2021-12-10 13:47:12.285488,-88
2021-12-10 13:47:12.285497,-90
2021-12-10 13:47:12.285505,-83
2021-12-10 13:47:12.285514,-61
2021-12-10 13:47:12.285523,-12
2021-12-10 13:47:12.285531,114
2021-12-10 13:47:12.285539,332
2021-12-10 13:47:12.285548,320
2021-12-10 13:47:12.285556,-134
2021-12-10 13:47:12.285565,-564
2021-12-10 13:47:12.285573,-540
2021-12-10 13:47:12.285582,-278
2021-12-10 13:47:12.285590,-132
2021-12-10 13:47:12.285599,-83
2021-12-10 13:47:12.285607,-53
2021-12-10 13:47:12.285616,-41
2021-12-10 13:47:12.285624,-36
2021-12-10 13:47:12.285632,-29
2021-12-10 13:47:12.285641,-14
2021-12-10 13:47:12.285649,-7
2021-12-10 13:47:12.285658,-4
2021-12-10 13:47:12.599885,-2
2021-12-10 13:47:12.599904,-4
2021-12-10 13:47:12.599914,-4
2021-12-10 13:47:12.599923,0
2021-12-10 13:47:12.599931,9
2021-12-10 13:47:12.599940,31
2021-12-10 13:47:12.599949,46
2021-12-10 13:47:12.599957,68
2021-12-10 13:47:12.599965,95
2021-12-10 13:47:12.599974,110
2021-12-10 13:47:12.599982,127
2021-12-10 13:47:12.599991,139
2021-12-10 13:47:12.599999,158
2021-12-10 13:47:12.600008,168
2021-12-10 13:47:12.600016,144
2021-12-10 13:47:12.600025,127
2021-12-10 13:47:12.600033,105
2021-12-10 13:47:12.600041,58
2021-12-10 13:47:12.600050,7
2021-12-10 13:47:12.600059,-36
2021-12-10 13:47:12.600067,-70
2021-12-10 13:47:12.600075,-102
2021-12-10 13:47:12.600084,-136
2021-12-10 13:47:12.600092,-136
2021-12-10 13:47:12.600104,-134
2021-12-10 13:47:12.600113,-136
2021-12-10 13:47:12.600121,-129
2021-12-10 13:47:12.600129,-129
2021-12-10 13:47:12.600138,-112
2021-12-10 13:47:12.600146,-83
2021-12-10 13:47:12.735442,-78
2021-12-10 13:47:12.735461,-66
2021-12-10 13:47:12.735471,-51
2021-12-10 13:47:12.735480,-44
2021-12-10 13:47:12.735488,-31
2021-12-10 13:47:12.735497,-22
2021-12-10 13:47:12.735506,-12
2021-12-10 13:47:12.735514,-7
2021-12-10 13:47:12.735523,0
2021-12-10 13:47:12.735531,7
2021-12-10 13:47:12.735540,-7
2021-12-10 13:47:12.735548,-7
2021-12-10 13:47:12.735557,-2
2021-12-10 13:47:12.735565,-9
2021-12-10 13:47:12.735574,-4
2021-12-10 13:47:12.735582,-7
2021-12-10 13:47:12.735590,-17
2021-12-10 13:47:12.735599,-9
2021-12-10 13:47:12.735607,-2
2021-12-10 13:47:12.735615,-2
2021-12-10 13:47:12.735624,-2
2021-12-10 13:47:12.735632,0
2021-12-10 13:47:12.735642,2
2021-12-10 13:47:12.735651,-4
2021-12-10 13:47:12.735659,-2
2021-12-10 13:47:12.735667,4
2021-12-10 13:47:12.735676,0
2021-12-10 13:47:12.735684,4
2021-12-10 13:47:12.735692,4
2021-12-10 13:47:12.735701,7
2021-12-10 13:47:12.961089,24
2021-12-10 13:47:12.961109,29
2021-12-10 13:47:12.961119,22
2021-12-10 13:47:12.961127,9
2021-12-10 13:47:12.961135,9
2021-12-10 13:47:12.961143,24
2021-12-10 13:47:12.961151,29
2021-12-10 13:47:12.961159,36
2021-12-10 13:47:12.961167,46
2021-12-10 13:47:12.961175,41
2021-12-10 13:47:12.961183,53
2021-12-10 13:47:12.961190,48
2021-12-10 13:47:12.961198,22
2021-12-10 13:47:12.961206,12
2021-12-10 13:47:12.961214,14
2021-12-10 13:47:12.961222,12
2021-12-10 13:47:12.961229,4
2021-12-10 13:47:12.961237,-2
2021-12-10 13:47:12.961245,0
2021-12-10 13:47:12.961253,0
2021-12-10 13:47:12.961262,7
2021-12-10 13:47:12.961269,39
2021-12-10 13:47:12.961277,102
2021-12-10 13:47:12.961284,291
2021-12-10 13:47:12.961296,513
2021-12-10 13:47:12.961304,330
2021-12-10 13:47:12.961312,-310
2021-12-10 13:47:12.961320,-687
2021-12-10 13:47:12.961327,-442
2021-12-10 13:47:12.961335,-144
2021-12-10 13:47:13.275480,-97
2021-12-10 13:47:13.275500,-39
2021-12-10 13:47:13.275510,26
2021-12-10 13:47:13.275519,7
2021-12-10 13:47:13.275527,12
2021-12-10 13:47:13.275536,44
2021-12-10 13:47:13.275544,41
2021-12-10 13:47:13.275553,29
2021-12-10 13:47:13.275561,34
2021-12-10 13:47:13.275569,41
2021-12-10 13:47:13.275578,31
2021-12-10 13:47:13.275586,41
2021-12-10 13:47:13.275594,58
2021-12-10 13:47:13.275603,58
2021-12-10 13:47:13.275611,68
2021-12-10 13:47:13.275619,83
2021-12-10 13:47:13.275627,97
2021-12-10 13:47:13.275635,117
2021-12-10 13:47:13.275644,124
2021-12-10 13:47:13.275652,139
2021-12-10 13:47:13.275661,146
2021-12-10 13:47:13.275669,134
2021-12-10 13:47:13.275677,124
2021-12-10 13:47:13.275685,110
2021-12-10 13:47:13.275693,75
2021-12-10 13:47:13.275702,36
2021-12-10 13:47:13.275710,-12
2021-12-10 13:47:13.275718,-61
2021-12-10 13:47:13.275727,-114
2021-12-10 13:47:13.275735,-158
2021-12-10 13:47:13.455505,-178
2021-12-10 13:47:13.455525,-202
2021-12-10 13:47:13.455535,-224
2021-12-10 13:47:13.455543,-234
2021-12-10 13:47:13.455552,-237
2021-12-10 13:47:13.455561,-229
2021-12-10 13:47:13.455569,-224
2021-12-10 13:47:13.455578,-220
2021-12-10 13:47:13.455586,-220
2021-12-10 13:47:13.455595,-227
2021-12-10 13:47:13.455604,-207
2021-12-10 13:47:13.455612,-185
2021-12-10 13:47:13.455621,-183
2021-12-10 13:47:13.455629,-180
2021-12-10 13:47:13.455638,-183
2021-12-10 13:47:13.455647,-185
2021-12-10 13:47:13.455655,-178
2021-12-10 13:47:13.455663,-178
2021-12-10 13:47:13.455672,-168
2021-12-10 13:47:13.455680,-168
2021-12-10 13:47:13.455689,-193
2021-12-10 13:47:13.455698,-200
2021-12-10 13:47:13.455706,-193
2021-12-10 13:47:13.455714,-185
2021-12-10 13:47:13.455723,-190
2021-12-10 13:47:13.455731,-198
2021-12-10 13:47:13.455740,-193
2021-12-10 13:47:13.455748,-193
2021-12-10 13:47:13.455757,-195
2021-12-10 13:47:13.455765,-202
2021-12-10 13:47:13.680468,-210
2021-12-10 13:47:13.680488,-200
2021-12-10 13:47:13.680497,-205
2021-12-10 13:47:13.680506,-217
2021-12-10 13:47:13.680514,-200
2021-12-10 13:47:13.680523,-195
2021-12-10 13:47:13.680531,-200
2021-12-10 13:47:13.680540,-193
2021-12-10 13:47:13.680549,-190
2021-12-10 13:47:13.680557,-183
2021-12-10 13:47:13.680570,-178
2021-12-10 13:47:13.680579,-171
2021-12-10 13:47:13.680587,-176
2021-12-10 13:47:13.680596,-207
2021-12-10 13:47:13.680604,-217
2021-12-10 13:47:13.680613,-210
2021-12-10 13:47:13.680621,-212
2021-12-10 13:47:13.680630,-207
2021-12-10 13:47:13.680638,-205
2021-12-10 13:47:13.680647,-200
2021-12-10 13:47:13.680655,-195
2021-12-10 13:47:13.680663,-195
2021-12-10 13:47:13.680672,-166
2021-12-10 13:47:13.680680,-110
2021-12-10 13:47:13.680689,31
2021-12-10 13:47:13.680697,283
2021-12-10 13:47:13.680705,246
2021-12-10 13:47:13.680714,-349
2021-12-10 13:47:13.680722,-868
2021-12-10 13:47:13.680731,-718
2021-12-10 13:47:13.949048,-354
2021-12-10 13:47:13.949066,-266
2021-12-10 13:47:13.949076,-222
2021-12-10 13:47:13.949085,-119
2021-12-10 13:47:13.949093,-107
2021-12-10 13:47:13.949102,-114
2021-12-10 13:47:13.949111,-85
2021-12-10 13:47:13.949119,-80
2021-12-10 13:47:13.949127,-80
2021-12-10 13:47:13.949136,-75
2021-12-10 13:47:13.949145,-63
2021-12-10 13:47:13.949153,-44
2021-12-10 13:47:13.949162,-46
2021-12-10 13:47:13.949170,-41
2021-12-10 13:47:13.949178,-29
2021-12-10 13:47:13.949187,-17
2021-12-10 13:47:13.949195,0
2021-12-10 13:47:13.949204,19
2021-12-10 13:47:13.949212,48
2021-12-10 13:47:13.949221,58
2021-12-10 13:47:13.949229,51
2021-12-10 13:47:13.949238,61
2021-12-10 13:47:13.949246,63
2021-12-10 13:47:13.949254,53
2021-12-10 13:47:13.949263,39
2021-12-10 13:47:13.949275,12
2021-12-10 13:47:13.949283,-12
2021-12-10 13:47:13.949292,-48
2021-12-10 13:47:13.949300,-95
2021-12-10 13:47:13.949308,-136
2021-12-10 13:47:14.175399,-178
2021-12-10 13:47:14.175416,-200
2021-12-10 13:47:14.175426,-212
2021-12-10 13:47:14.175435,-234
2021-12-10 13:47:14.175444,-232
2021-12-10 13:47:14.175452,-224
2021-12-10 13:47:14.175461,-224
2021-12-10 13:47:14.175469,-212
2021-12-10 13:47:14.175478,-198
2021-12-10 13:47:14.175486,-190
2021-12-10 13:47:14.175495,-180
2021-12-10 13:47:14.175503,-168
2021-12-10 13:47:14.175512,-168
2021-12-10 13:47:14.175520,-168
2021-12-10 13:47:14.175529,-154
2021-12-10 13:47:14.175537,-141
2021-12-10 13:47:14.175545,-139
2021-12-10 13:47:14.175554,-124
2021-12-10 13:47:14.175562,-122
2021-12-10 13:47:14.175571,-117
2021-12-10 13:47:14.175579,-110
2021-12-10 13:47:14.175587,-112
2021-12-10 13:47:14.175596,-105
2021-12-10 13:47:14.175604,-97
2021-12-10 13:47:14.175613,-100
2021-12-10 13:47:14.175621,-102
2021-12-10 13:47:14.175629,-107
2021-12-10 13:47:14.175638,-97
2021-12-10 13:47:14.175646,-92
2021-12-10 13:47:14.175654,-102
2021-12-10 13:47:14.400534,-97
2021-12-10 13:47:14.400553,-97
2021-12-10 13:47:14.400563,-95
2021-12-10 13:47:14.400572,-88
2021-12-10 13:47:14.400581,-88
2021-12-10 13:47:14.400589,-78
2021-12-10 13:47:14.400598,-80
2021-12-10 13:47:14.400606,-83
2021-12-10 13:47:14.400615,-70
2021-12-10 13:47:14.400623,-68
2021-12-10 13:47:14.400631,-58
2021-12-10 13:47:14.400640,-53
2021-12-10 13:47:14.400648,-66
2021-12-10 13:47:14.400657,-46
2021-12-10 13:47:14.400665,-34
2021-12-10 13:47:14.400673,-48
2021-12-10 13:47:14.400684,-68
2021-12-10 13:47:14.400693,-83
2021-12-10 13:47:14.400702,-80
2021-12-10 13:47:14.400710,-75
2021-12-10 13:47:14.400719,-85
2021-12-10 13:47:14.400727,-85
2021-12-10 13:47:14.400735,-80
2021-12-10 13:47:14.400744,-78
2021-12-10 13:47:14.400752,-66
2021-12-10 13:47:14.400761,-29
2021-12-10 13:47:14.400769,53
2021-12-10 13:47:14.400777,251
2021-12-10 13:47:14.400786,418
2021-12-10 13:47:14.400794,149
2021-12-10 13:47:14.625491,-447
2021-12-10 13:47:14.625511,-679
2021-12-10 13:47:14.625520,-418
2021-12-10 13:47:14.625529,-183
2021-12-10 13:47:14.625538,-119
2021-12-10 13:47:14.625546,-56
2021-12-10 13:47:14.625555,-14
2021-12-10 13:47:14.625564,-22
2021-12-10 13:47:14.625572,-14
2021-12-10 13:47:14.625580,2
2021-12-10 13:47:14.625589,0
2021-12-10 13:47:14.625598,0
2021-12-10 13:47:14.625606,19
2021-12-10 13:47:14.625615,22
2021-12-10 13:47:14.625623,24
2021-12-10 13:47:14.625631,34
2021-12-10 13:47:14.625640,36
2021-12-10 13:47:14.625648,44
2021-12-10 13:47:14.625657,51
2021-12-10 13:47:14.625665,63
2021-12-10 13:47:14.625674,83
2021-12-10 13:47:14.625682,95
2021-12-10 13:47:14.625690,110
2021-12-10 13:47:14.625699,119
2021-12-10 13:47:14.625707,119
2021-12-10 13:47:14.625716,117
2021-12-10 13:47:14.625724,100
2021-12-10 13:47:14.625732,85
2021-12-10 13:47:14.625741,66
2021-12-10 13:47:14.625749,19
2021-12-10 13:47:14.805514,-22
2021-12-10 13:47:14.805533,-61
2021-12-10 13:47:14.805542,-97
2021-12-10 13:47:14.805551,-124
2021-12-10 13:47:14.805559,-161
2021-12-10 13:47:14.805568,-180
2021-12-10 13:47:14.805576,-190
2021-12-10 13:47:14.805585,-190
2021-12-10 13:47:14.805593,-178
2021-12-10 13:47:14.805602,-178
2021-12-10 13:47:14.805610,-171
2021-12-10 13:47:14.805619,-158
2021-12-10 13:47:14.805627,-161
2021-12-10 13:47:14.805639,-144
2021-12-10 13:47:14.805647,-129
2021-12-10 13:47:14.805656,-134
2021-12-10 13:47:14.805664,-132
2021-12-10 13:47:14.805672,-124
2021-12-10 13:47:14.805681,-117
2021-12-10 13:47:14.805689,-119
2021-12-10 13:47:14.805698,-117
2021-12-10 13:47:14.805706,-112
2021-12-10 13:47:14.805715,-117
2021-12-10 13:47:14.805723,-119
2021-12-10 13:47:14.805731,-117
2021-12-10 13:47:14.805740,-129
2021-12-10 13:47:14.805748,-122
2021-12-10 13:47:14.805757,-119
2021-12-10 13:47:14.805765,-129
2021-12-10 13:47:14.805773,-127
2021-12-10 13:47:15.030529,-124
2021-12-10 13:47:15.030549,-124
2021-12-10 13:47:15.030559,-124
2021-12-10 13:47:15.030568,-127
2021-12-10 13:47:15.030577,-122
2021-12-10 13:47:15.030586,-119
2021-12-10 13:47:15.030595,-119
2021-12-10 13:47:15.030603,-117
2021-12-10 13:47:15.030612,-117
2021-12-10 13:47:15.030621,-105
2021-12-10 13:47:15.030630,-107
2021-12-10 13:47:15.030639,-107
2021-12-10 13:47:15.030647,-88
2021-12-10 13:47:15.030656,-88
2021-12-10 13:47:15.030665,-100
2021-12-10 13:47:15.030673,-112
2021-12-10 13:47:15.030682,-127
2021-12-10 13:47:15.030690,-114
2021-12-10 13:47:15.030699,-110
2021-12-10 13:47:15.030708,-114
2021-12-10 13:47:15.030716,-110
2021-12-10 13:47:15.030725,-114
2021-12-10 13:47:15.030734,-114
2021-12-10 13:47:15.030742,-88
2021-12-10 13:47:15.030751,-36
2021-12-10 13:47:15.030759,68
2021-12-10 13:47:15.030768,295
2021-12-10 13:47:15.030777,449
2021-12-10 13:47:15.030785,95
2021-12-10 13:47:15.030794,-557
2021-12-10 13:47:15.300424,-745
2021-12-10 13:47:15.300442,-425
2021-12-10 13:47:15.300452,-188
2021-12-10 13:47:15.300461,-136
2021-12-10 13:47:15.300470,-70
2021-12-10 13:47:15.300478,-31
2021-12-10 13:47:15.300487,-31
2021-12-10 13:47:15.300495,-12
2021-12-10 13:47:15.300504,9
2021-12-10 13:47:15.300512,7
2021-12-10 13:47:15.300521,19
2021-12-10 13:47:15.300529,31
2021-12-10 13:47:15.300538,24
2021-12-10 13:47:15.300546,39
2021-12-10 13:47:15.300555,58
2021-12-10 13:47:15.300563,63
2021-12-10 13:47:15.300571,80
2021-12-10 13:47:15.300584,90
2021-12-10 13:47:15.300593,107
2021-12-10 13:47:15.300601,132
2021-12-10 13:47:15.300610,146
2021-12-10 13:47:15.300618,156
2021-12-10 13:47:15.300626,163
2021-12-10 13:47:15.300635,163
2021-12-10 13:47:15.300643,156
2021-12-10 13:47:15.300651,136
2021-12-10 13:47:15.300660,119
2021-12-10 13:47:15.300668,88
2021-12-10 13:47:15.300677,44
2021-12-10 13:47:15.300685,4
2021-12-10 13:47:15.525568,-46
2021-12-10 13:47:15.525588,-95
2021-12-10 13:47:15.525597,-129
2021-12-10 13:47:15.525606,-151
2021-12-10 13:47:15.525615,-161
2021-12-10 13:47:15.525623,-171
2021-12-10 13:47:15.525632,-171
2021-12-10 13:47:15.525640,-163
2021-12-10 13:47:15.525649,-161
2021-12-10 13:47:15.525657,-154
2021-12-10 13:47:15.525665,-139
2021-12-10 13:47:15.525674,-122
2021-12-10 13:47:15.525682,-112
2021-12-10 13:47:15.525690,-117
2021-12-10 13:47:15.525699,-110
2021-12-10 13:47:15.525707,-97
2021-12-10 13:47:15.525715,-105
2021-12-10 13:47:15.525724,-95
2021-12-10 13:47:15.525732,-88
2021-12-10 13:47:15.525740,-95
2021-12-10 13:47:15.525749,-95
2021-12-10 13:47:15.525757,-100
2021-12-10 13:47:15.525765,-105
2021-12-10 13:47:15.525774,-105
2021-12-10 13:47:15.525782,-105
2021-12-10 13:47:15.525790,-107
2021-12-10 13:47:15.525799,-122
2021-12-10 13:47:15.525807,-122
2021-12-10 13:47:15.525815,-114
2021-12-10 13:47:15.525824,-122
2021-12-10 13:47:15.750534,-117
2021-12-10 13:47:15.750554,-110
2021-12-10 13:47:15.750563,-105
2021-12-10 13:47:15.750572,-102
2021-12-10 13:47:15.750581,-105
2021-12-10 13:47:15.750589,-92
2021-12-10 13:47:15.750598,-73
2021-12-10 13:47:15.750606,-70
2021-12-10 13:47:15.750615,-61
2021-12-10 13:47:15.750623,-39
2021-12-10 13:47:15.750631,-34
2021-12-10 13:47:15.750640,-53
2021-12-10 13:47:15.750648,-75
2021-12-10 13:47:15.750657,-75
2021-12-10 13:47:15.750665,-73
2021-12-10 13:47:15.750674,-78
2021-12-10 13:47:15.750682,-70
2021-12-10 13:47:15.750690,-63
2021-12-10 13:47:15.750699,-63
2021-12-10 13:47:15.750707,-66
2021-12-10 13:47:15.750715,-48
2021-12-10 13:47:15.750724,14
2021-12-10 13:47:15.750732,122
2021-12-10 13:47:15.750741,359
2021-12-10 13:47:15.750749,528
2021-12-10 13:47:15.750758,149
2021-12-10 13:47:15.750766,-520
2021-12-10 13:47:15.750774,-706
2021-12-10 13:47:15.750782,-369
2021-12-10 13:47:15.750793,-119
2021-12-10 13:47:16.019098,-83
2021-12-10 13:47:16.019116,-19
2021-12-10 13:47:16.019126,31
2021-12-10 13:47:16.019135,22
2021-12-10 13:47:16.019144,36
2021-12-10 13:47:16.019152,56
2021-12-10 13:47:16.019161,51
2021-12-10 13:47:16.019170,51
2021-12-10 13:47:16.019178,58
2021-12-10 13:47:16.019187,70
2021-12-10 13:47:16.019196,80
2021-12-10 13:47:16.019204,85
2021-12-10 13:47:16.019213,97
2021-12-10 13:47:16.019222,100
2021-12-10 13:47:16.019230,107
2021-12-10 13:47:16.019239,129
2021-12-10 13:47:16.019247,141
2021-12-10 13:47:16.019256,158
2021-12-10 13:47:16.019265,176
2021-12-10 13:47:16.019273,183
2021-12-10 13:47:16.019282,183
2021-12-10 13:47:16.019290,163
2021-12-10 13:47:16.019299,144
2021-12-10 13:47:16.019308,129
2021-12-10 13:47:16.019316,95
2021-12-10 13:47:16.019325,56
2021-12-10 13:47:16.019333,12
2021-12-10 13:47:16.019342,-34
2021-12-10 13:47:16.019350,-70
2021-12-10 13:47:16.019359,-110
2021-12-10 13:47:16.200493,-129
2021-12-10 13:47:16.200512,-139
2021-12-10 13:47:16.200522,-151
2021-12-10 13:47:16.200531,-156
2021-12-10 13:47:16.200540,-163
2021-12-10 13:47:16.200548,-161
2021-12-10 13:47:16.200557,-146
2021-12-10 13:47:16.200566,-139
2021-12-10 13:47:16.200574,-124
2021-12-10 13:47:16.200583,-117
2021-12-10 13:47:16.200591,-122
2021-12-10 13:47:16.200600,-124
2021-12-10 13:47:16.200608,-119
2021-12-10 13:47:16.200617,-97
2021-12-10 13:47:16.200626,-88
2021-12-10 13:47:16.200634,-90
2021-12-10 13:47:16.200643,-83
2021-12-10 13:47:16.200651,-85
2021-12-10 13:47:16.200660,-90
2021-12-10 13:47:16.200668,-83
2021-12-10 13:47:16.200677,-88
2021-12-10 13:47:16.200685,-90
2021-12-10 13:47:16.200694,-90
2021-12-10 13:47:16.200702,-92
2021-12-10 13:47:16.200711,-90
2021-12-10 13:47:16.200719,-83
2021-12-10 13:47:16.200728,-70
2021-12-10 13:47:16.200736,-70
2021-12-10 13:47:16.200745,-80
2021-12-10 13:47:16.200753,-75
2021-12-10 13:47:16.425568,-78
2021-12-10 13:47:16.425587,-75
2021-12-10 13:47:16.425596,-61
2021-12-10 13:47:16.425605,-58
2021-12-10 13:47:16.425614,-48
2021-12-10 13:47:16.425623,-41
2021-12-10 13:47:16.425631,-53
2021-12-10 13:47:16.425639,-68
2021-12-10 13:47:16.425648,-92
2021-12-10 13:47:16.425657,-92
2021-12-10 13:47:16.425665,-75
2021-12-10 13:47:16.425674,-78
2021-12-10 13:47:16.425682,-73
2021-12-10 13:47:16.425691,-70
2021-12-10 13:47:16.425699,-68
2021-12-10 13:47:16.425708,-46
2021-12-10 13:47:16.425716,2
2021-12-10 13:47:16.425725,95
2021-12-10 13:47:16.425733,298
2021-12-10 13:47:16.425742,601
2021-12-10 13:47:16.425753,535
2021-12-10 13:47:16.425761,-168
2021-12-10 13:47:16.425770,-726
2021-12-10 13:47:16.425778,-545
2021-12-10 13:47:16.425786,-168
2021-12-10 13:47:16.425795,-68
2021-12-10 13:47:16.425804,-31
2021-12-10 13:47:16.425812,44
2021-12-10 13:47:16.425820,56
2021-12-10 13:47:16.425829,61
2021-12-10 13:47:16.650487,105
2021-12-10 13:47:16.650505,122
2021-12-10 13:47:16.650515,119
2021-12-10 13:47:16.650524,139
2021-12-10 13:47:16.650533,149
2021-12-10 13:47:16.650542,151
2021-12-10 13:47:16.650550,163
2021-12-10 13:47:16.650559,171
2021-12-10 13:47:16.650567,180
2021-12-10 13:47:16.650575,188
2021-12-10 13:47:16.650584,200
2021-12-10 13:47:16.650592,224
2021-12-10 13:47:16.650601,237
2021-12-10 13:47:16.650609,254
2021-12-10 13:47:16.650618,266
2021-12-10 13:47:16.650626,256
2021-12-10 13:47:16.650634,246
2021-12-10 13:47:16.650643,229
2021-12-10 13:47:16.650651,202
2021-12-10 13:47:16.650660,171
2021-12-10 13:47:16.650668,129
2021-12-10 13:47:16.650677,85
2021-12-10 13:47:16.650685,26
2021-12-10 13:47:16.650694,-26
2021-12-10 13:47:16.650702,-61
2021-12-10 13:47:16.650711,-95
2021-12-10 13:47:16.650719,-114
2021-12-10 13:47:16.650728,-124
2021-12-10 13:47:16.650736,-146
2021-12-10 13:47:16.650745,-151
2021-12-10 13:47:16.875615,-146
2021-12-10 13:47:16.875636,-141
2021-12-10 13:47:16.875645,-129
2021-12-10 13:47:16.875654,-119
2021-12-10 13:47:16.875663,-110
2021-12-10 13:47:16.875671,-110
2021-12-10 13:47:16.875680,-112
2021-12-10 13:47:16.875688,-105
2021-12-10 13:47:16.875697,-110
2021-12-10 13:47:16.875705,-117
2021-12-10 13:47:16.875713,-124
2021-12-10 13:47:16.875722,-141
2021-12-10 13:47:16.875730,-141
2021-12-10 13:47:16.875739,-144
2021-12-10 13:47:16.875747,-163
2021-12-10 13:47:16.875756,-173
2021-12-10 13:47:16.875764,-183
2021-12-10 13:47:16.875773,-190
2021-12-10 13:47:16.875781,-205
2021-12-10 13:47:16.875789,-220
2021-12-10 13:47:16.875797,-212
2021-12-10 13:47:16.875806,-217
2021-12-10 13:47:16.875814,-224
2021-12-10 13:47:16.875823,-220
2021-12-10 13:47:16.875831,-224
2021-12-10 13:47:16.875839,-217
2021-12-10 13:47:16.875848,-212
2021-12-10 13:47:16.875856,-227
2021-12-10 13:47:16.875865,-251
2021-12-10 13:47:16.875873,-281
2021-12-10 13:47:17.144889,-281
2021-12-10 13:47:17.144908,-266
2021-12-10 13:47:17.144918,-276
2021-12-10 13:47:17.144927,-281
2021-12-10 13:47:17.144935,-283
2021-12-10 13:47:17.144944,-283
2021-12-10 13:47:17.144952,-269
2021-12-10 13:47:17.144960,-234
2021-12-10 13:47:17.144969,-163
2021-12-10 13:47:17.144977,-39
2021-12-10 13:47:17.144985,207
2021-12-10 13:47:17.144994,286
2021-12-10 13:47:17.145003,-273
2021-12-10 13:47:17.145011,-973
2021-12-10 13:47:17.145019,-963
2021-12-10 13:47:17.145028,-515
2021-12-10 13:47:17.145036,-337
2021-12-10 13:47:17.145044,-320
2021-12-10 13:47:17.145053,-193
2021-12-10 13:47:17.145061,-122
2021-12-10 13:47:17.145069,-154
2021-12-10 13:47:17.145078,-134
2021-12-10 13:47:17.145089,-102
2021-12-10 13:47:17.145097,-105
2021-12-10 13:47:17.145106,-92
2021-12-10 13:47:17.145114,-80
2021-12-10 13:47:17.145122,-75
2021-12-10 13:47:17.145131,-63
2021-12-10 13:47:17.145139,-56
2021-12-10 13:47:17.145147,-36
2021-12-10 13:47:17.370570,-19
2021-12-10 13:47:17.370590,-2
2021-12-10 13:47:17.370600,19
2021-12-10 13:47:17.370609,31
2021-12-10 13:47:17.370618,53
2021-12-10 13:47:17.370626,73
2021-12-10 13:47:17.370635,73
2021-12-10 13:47:17.370644,73
2021-12-10 13:47:17.370652,53
2021-12-10 13:47:17.370660,22
2021-12-10 13:47:17.370669,-7
2021-12-10 13:47:17.370678,-51
2021-12-10 13:47:17.370686,-102
2021-12-10 13:47:17.370694,-156
2021-12-10 13:47:17.370703,-205
2021-12-10 13:47:17.370711,-239
2021-12-10 13:47:17.370720,-273
2021-12-10 13:47:17.370728,-295
2021-12-10 13:47:17.370736,-300
2021-12-10 13:47:17.370745,-305
2021-12-10 13:47:17.370753,-305
2021-12-10 13:47:17.370762,-315
2021-12-10 13:47:17.370770,-310
2021-12-10 13:47:17.370778,-291
2021-12-10 13:47:17.370786,-281
2021-12-10 13:47:17.370795,-261
2021-12-10 13:47:17.370803,-251
2021-12-10 13:47:17.370811,-249
2021-12-10 13:47:17.370820,-224
2021-12-10 13:47:17.370828,-212
2021-12-10 13:47:17.595533,-210
2021-12-10 13:47:17.595553,-200
2021-12-10 13:47:17.595562,-200
2021-12-10 13:47:17.595571,-207
2021-12-10 13:47:17.595580,-207
2021-12-10 13:47:17.595588,-202
2021-12-10 13:47:17.595597,-198
2021-12-10 13:47:17.595605,-205
2021-12-10 13:47:17.595614,-215
2021-12-10 13:47:17.595622,-227
2021-12-10 13:47:17.595630,-222
2021-12-10 13:47:17.595639,-207
2021-12-10 13:47:17.595647,-207
2021-12-10 13:47:17.595655,-202
2021-12-10 13:47:17.595664,-198
2021-12-10 13:47:17.595672,-202
2021-12-10 13:47:17.595681,-193
2021-12-10 13:47:17.595689,-188
2021-12-10 13:47:17.595697,-202
2021-12-10 13:47:17.595706,-217
2021-12-10 13:47:17.595714,-229
2021-12-10 13:47:17.595723,-227
2021-12-10 13:47:17.595731,-222
2021-12-10 13:47:17.595739,-220
2021-12-10 13:47:17.595748,-217
2021-12-10 13:47:17.595756,-222
2021-12-10 13:47:17.595764,-222
2021-12-10 13:47:17.595773,-200
2021-12-10 13:47:17.595781,-154
2021-12-10 13:47:17.595790,-56
2021-12-10 13:47:17.865549,163
2021-12-10 13:47:17.865569,398
2021-12-10 13:47:17.865578,136
2021-12-10 13:47:17.865587,-652
2021-12-10 13:47:17.865596,-1017
2021-12-10 13:47:17.865604,-640
2021-12-10 13:47:17.865613,-317
2021-12-10 13:47:17.865621,-293
2021-12-10 13:47:17.865630,-210
2021-12-10 13:47:17.865638,-100
2021-12-10 13:47:17.865646,-95
2021-12-10 13:47:17.865655,-92
2021-12-10 13:47:17.865663,-53
2021-12-10 13:47:17.865672,-51
2021-12-10 13:47:17.865680,-56
2021-12-10 13:47:17.865688,-31
2021-12-10 13:47:17.865697,-19
2021-12-10 13:47:17.865705,-14
2021-12-10 13:47:17.865714,4
2021-12-10 13:47:17.865722,17
2021-12-10 13:47:17.865731,34
2021-12-10 13:47:17.865739,51
2021-12-10 13:47:17.865747,73
2021-12-10 13:47:17.865756,102
2021-12-10 13:47:17.865764,122
2021-12-10 13:47:17.865772,141
2021-12-10 13:47:17.865781,151
2021-12-10 13:47:17.865789,144
2021-12-10 13:47:17.865797,136
2021-12-10 13:47:17.865805,117
2021-12-10 13:47:18.089190,78
2021-12-10 13:47:18.089210,31
2021-12-10 13:47:18.089220,-24
2021-12-10 13:47:18.089229,-75
2021-12-10 13:47:18.089238,-127
2021-12-10 13:47:18.089249,-168
2021-12-10 13:47:18.089258,-193
2021-12-10 13:47:18.089267,-224
2021-12-10 13:47:18.089276,-242
2021-12-10 13:47:18.089284,-249
2021-12-10 13:47:18.089293,-256
2021-12-10 13:47:18.089302,-251
2021-12-10 13:47:18.089310,-251
2021-12-10 13:47:18.089319,-249
2021-12-10 13:47:18.089327,-232
2021-12-10 13:47:18.089336,-217
2021-12-10 13:47:18.089345,-200
2021-12-10 13:47:18.089353,-185
2021-12-10 13:47:18.089362,-180
2021-12-10 13:47:18.089370,-166
2021-12-10 13:47:18.089379,-161
2021-12-10 13:47:18.089387,-154
2021-12-10 13:47:18.089396,-144
2021-12-10 13:47:18.089404,-144
2021-12-10 13:47:18.089413,-141
2021-12-10 13:47:18.089444,-144
2021-12-10 13:47:18.089454,-146
2021-12-10 13:47:18.089462,-144
2021-12-10 13:47:18.089470,-149
2021-12-10 13:47:18.089477,-149
2021-12-10 13:47:18.494316,-151
2021-12-10 13:47:18.494336,-158
2021-12-10 13:47:18.494346,-154
2021-12-10 13:47:18.494355,-158
2021-12-10 13:47:18.494363,-158
2021-12-10 13:47:18.494372,-154
2021-12-10 13:47:18.494380,-156
2021-12-10 13:47:18.494389,-151
2021-12-10 13:47:18.494397,-146
2021-12-10 13:47:18.494406,-141
2021-12-10 13:47:18.494414,-134
2021-12-10 13:47:18.494423,-141
2021-12-10 13:47:18.494431,-154
2021-12-10 13:47:18.494440,-173
2021-12-10 13:47:18.494448,-183
2021-12-10 13:47:18.494456,-168
2021-12-10 13:47:18.494465,-168
2021-12-10 13:47:18.494473,-171
2021-12-10 13:47:18.494482,-166
2021-12-10 13:47:18.494490,-168
2021-12-10 13:47:18.494499,-163
2021-12-10 13:47:18.494507,-146
2021-12-10 13:47:18.494516,-105
2021-12-10 13:47:18.494524,41
2021-12-10 13:47:18.494533,339
2021-12-10 13:47:18.494541,403
2021-12-10 13:47:18.494549,-102
2021-12-10 13:47:18.494558,-638
2021-12-10 13:47:18.494567,-650
2021-12-10 13:47:18.494575,-388
2021-12-10 13:47:18.584778,-251
2021-12-10 13:47:18.584795,-195
2021-12-10 13:47:18.584804,-134
2021-12-10 13:47:18.584813,-110
2021-12-10 13:47:18.584821,-105
2021-12-10 13:47:18.584830,-92
2021-12-10 13:47:18.584838,-78
2021-12-10 13:47:18.584847,-78
2021-12-10 13:47:18.584855,-68
2021-12-10 13:47:18.584864,-56
2021-12-10 13:47:18.584872,-51
2021-12-10 13:47:18.584880,-41
2021-12-10 13:47:18.584889,-34
2021-12-10 13:47:18.584897,-24
2021-12-10 13:47:18.584906,-4
2021-12-10 13:47:18.584914,7
2021-12-10 13:47:18.584922,29
2021-12-10 13:47:18.584931,53
2021-12-10 13:47:18.584940,70
2021-12-10 13:47:18.584948,92
2021-12-10 13:47:18.584956,100
2021-12-10 13:47:18.584965,97
2021-12-10 13:47:18.584973,97
2021-12-10 13:47:18.584982,78
2021-12-10 13:47:18.584990,48
2021-12-10 13:47:18.584999,2
2021-12-10 13:47:18.585007,-51
2021-12-10 13:47:18.585015,-97
2021-12-10 13:47:18.585024,-141
2021-12-10 13:47:18.585032,-173
2021-12-10 13:47:18.855645,-195
2021-12-10 13:47:18.855665,-210
2021-12-10 13:47:18.855675,-207
2021-12-10 13:47:18.855684,-210
2021-12-10 13:47:18.855692,-205
2021-12-10 13:47:18.855701,-200
2021-12-10 13:47:18.855709,-202
2021-12-10 13:47:18.855718,-193
2021-12-10 13:47:18.855726,-183
2021-12-10 13:47:18.855734,-180
2021-12-10 13:47:18.855743,-166
2021-12-10 13:47:18.855751,-163
2021-12-10 13:47:18.855759,-156
2021-12-10 13:47:18.855768,-141
2021-12-10 13:47:18.855776,-139
2021-12-10 13:47:18.855784,-132
2021-12-10 13:47:18.855793,-129
2021-12-10 13:47:18.855801,-124
2021-12-10 13:47:18.855809,-119
2021-12-10 13:47:18.855818,-122
2021-12-10 13:47:18.855826,-117
2021-12-10 13:47:18.855834,-117
2021-12-10 13:47:18.855843,-122
2021-12-10 13:47:18.855851,-117
2021-12-10 13:47:18.855859,-119
2021-12-10 13:47:18.855868,-117
2021-12-10 13:47:18.855876,-114
2021-12-10 13:47:18.855885,-117
2021-12-10 13:47:18.855894,-112
2021-12-10 13:47:18.855902,-117
2021-12-10 13:47:18.945535,-117
2021-12-10 13:47:18.945558,-107
2021-12-10 13:47:18.945568,-102
2021-12-10 13:47:18.945577,-92
2021-12-10 13:47:18.945586,-90
2021-12-10 13:47:18.945594,-88
2021-12-10 13:47:18.945603,-75
2021-12-10 13:47:18.945611,-88
2021-12-10 13:47:18.945620,-114
2021-12-10 13:47:18.945628,-119
2021-12-10 13:47:18.945637,-117
2021-12-10 13:47:18.945645,-117
2021-12-10 13:47:18.945654,-127
2021-12-10 13:47:18.945662,-127
2021-12-10 13:47:18.945671,-119
2021-12-10 13:47:18.945679,-127
2021-12-10 13:47:18.945688,-117
2021-12-10 13:47:18.945696,-75
2021-12-10 13:47:18.945705,36
2021-12-10 13:47:18.945713,322
2021-12-10 13:47:18.945721,467
2021-12-10 13:47:18.945730,58
2021-12-10 13:47:18.945738,-528
2021-12-10 13:47:18.945747,-657
2021-12-10 13:47:18.945755,-386
2021-12-10 13:47:18.945764,-198
2021-12-10 13:47:18.945772,-151
2021-12-10 13:47:18.945780,-92
2021-12-10 13:47:18.945789,-66
2021-12-10 13:47:18.945797,-56
2021-12-10 13:47:19.304968,-36
2021-12-10 13:47:19.304987,-24
2021-12-10 13:47:19.304996,-7
2021-12-10 13:47:19.305005,0
2021-12-10 13:47:19.305014,2
2021-12-10 13:47:19.305023,14
2021-12-10 13:47:19.305031,19
2021-12-10 13:47:19.305040,34
2021-12-10 13:47:19.305048,51
2021-12-10 13:47:19.305056,61
2021-12-10 13:47:19.305065,78
2021-12-10 13:47:19.305073,97
2021-12-10 13:47:19.305082,124
2021-12-10 13:47:19.305090,154
2021-12-10 13:47:19.305099,178
2021-12-10 13:47:19.305107,200
2021-12-10 13:47:19.305115,198
2021-12-10 13:47:19.305124,188
2021-12-10 13:47:19.305132,180
2021-12-10 13:47:19.305141,151
2021-12-10 13:47:19.305149,110
2021-12-10 13:47:19.305157,46
2021-12-10 13:47:19.305166,-24
2021-12-10 13:47:19.305174,-61
2021-12-10 13:47:19.305182,-97
2021-12-10 13:47:19.305191,-134
2021-12-10 13:47:19.305199,-156
2021-12-10 13:47:19.305206,-173
2021-12-10 13:47:19.305215,-173
2021-12-10 13:47:19.305223,-171
2021-12-10 13:47:19.530755,-156
2021-12-10 13:47:19.530776,-144
2021-12-10 13:47:19.530785,-156
2021-12-10 13:47:19.530794,-151
2021-12-10 13:47:19.530803,-139
2021-12-10 13:47:19.530811,-141
2021-12-10 13:47:19.530819,-132
2021-12-10 13:47:19.530828,-119
2021-12-10 13:47:19.530836,-110
2021-12-10 13:47:19.530844,-100
2021-12-10 13:47:19.530853,-95
2021-12-10 13:47:19.530861,-78
2021-12-10 13:47:19.530869,-66
2021-12-10 13:47:19.530878,-68
2021-12-10 13:47:19.530886,-63
2021-12-10 13:47:19.530894,-63
2021-12-10 13:47:19.530902,-68
2021-12-10 13:47:19.530911,-73
2021-12-10 13:47:19.530919,-78
2021-12-10 13:47:19.530927,-68
2021-12-10 13:47:19.530936,-70
2021-12-10 13:47:19.530944,-83
2021-12-10 13:47:19.530952,-78
2021-12-10 13:47:19.530961,-80
2021-12-10 13:47:19.530969,-75
2021-12-10 13:47:19.531014,-68
2021-12-10 13:47:19.531026,-75
2021-12-10 13:47:19.531035,-75
2021-12-10 13:47:19.531044,-73
2021-12-10 13:47:19.531052,-70
2021-12-10 13:47:19.665539,-75
2021-12-10 13:47:19.665558,-75
2021-12-10 13:47:19.665568,-70
2021-12-10 13:47:19.665577,-78
2021-12-10 13:47:19.665585,-73
2021-12-10 13:47:19.665594,-58
2021-12-10 13:47:19.665603,-68
2021-12-10 13:47:19.665611,-58
2021-12-10 13:47:19.665620,-44
2021-12-10 13:47:19.665628,-51
2021-12-10 13:47:19.665637,-46
2021-12-10 13:47:19.665645,-44
2021-12-10 13:47:19.665654,-53
2021-12-10 13:47:19.665662,-70
2021-12-10 13:47:19.665671,-85
2021-12-10 13:47:19.665679,-75
2021-12-10 13:47:19.665688,-68
2021-12-10 13:47:19.665696,-75
2021-12-10 13:47:19.665704,-73
2021-12-10 13:47:19.665713,-83
2021-12-10 13:47:19.665721,-90
2021-12-10 13:47:19.665730,-85
2021-12-10 13:47:19.665738,-63
2021-12-10 13:47:19.665746,41
2021-12-10 13:47:19.665755,330
2021-12-10 13:47:19.665763,626
2021-12-10 13:47:19.665771,388
2021-12-10 13:47:19.665780,-317
2021-12-10 13:47:19.665788,-679
2021-12-10 13:47:19.665797,-464
2021-12-10 13:47:19.935618,-220
2021-12-10 13:47:19.935638,-156
2021-12-10 13:47:19.935648,-107
2021-12-10 13:47:19.935657,-61
2021-12-10 13:47:19.935665,-58
2021-12-10 13:47:19.935674,-44
2021-12-10 13:47:19.935683,-17
2021-12-10 13:47:19.935691,-17
2021-12-10 13:47:19.935700,-22
2021-12-10 13:47:19.935708,-9
2021-12-10 13:47:19.935717,-2
2021-12-10 13:47:19.935730,12
2021-12-10 13:47:19.935739,22
2021-12-10 13:47:19.935747,22
2021-12-10 13:47:19.935756,34
2021-12-10 13:47:19.935764,53
2021-12-10 13:47:19.935773,80
2021-12-10 13:47:19.935781,110
2021-12-10 13:47:19.935789,127
2021-12-10 13:47:19.935798,154
2021-12-10 13:47:19.935806,171
2021-12-10 13:47:19.935814,178
2021-12-10 13:47:19.935823,185
2021-12-10 13:47:19.935831,163
2021-12-10 13:47:19.935839,136
2021-12-10 13:47:19.935848,107
2021-12-10 13:47:19.935856,51
2021-12-10 13:47:19.935865,-4
2021-12-10 13:47:19.935873,-51
2021-12-10 13:47:19.935882,-102
2021-12-10 13:47:20.159929,-149
2021-12-10 13:47:20.159950,-173
2021-12-10 13:47:20.159960,-183
2021-12-10 13:47:20.159969,-200
2021-12-10 13:47:20.159977,-202
2021-12-10 13:47:20.159986,-193
2021-12-10 13:47:20.159995,-193
2021-12-10 13:47:20.160003,-185
2021-12-10 13:47:20.160012,-185
2021-12-10 13:47:20.160020,-188
2021-12-10 13:47:20.160029,-173
2021-12-10 13:47:20.160037,-168
2021-12-10 13:47:20.160046,-163
2021-12-10 13:47:20.160054,-151
2021-12-10 13:47:20.160063,-151
2021-12-10 13:47:20.160071,-134
2021-12-10 13:47:20.160080,-119
2021-12-10 13:47:20.160088,-117
2021-12-10 13:47:20.160096,-112
2021-12-10 13:47:20.160105,-112
2021-12-10 13:47:20.160113,-110
2021-12-10 13:47:20.160122,-105
2021-12-10 13:47:20.160130,-107
2021-12-10 13:47:20.160139,-105
2021-12-10 13:47:20.160147,-107
2021-12-10 13:47:20.160155,-105
2021-12-10 13:47:20.160164,-97
2021-12-10 13:47:20.160172,-112
2021-12-10 13:47:20.160181,-114
2021-12-10 13:47:20.160189,-112
2021-12-10 13:47:20.340596,-122
2021-12-10 13:47:20.340617,-119
2021-12-10 13:47:20.340626,-122
2021-12-10 13:47:20.340635,-122
2021-12-10 13:47:20.340644,-119
2021-12-10 13:47:20.340652,-119
2021-12-10 13:47:20.340661,-114
2021-12-10 13:47:20.340670,-124
2021-12-10 13:47:20.340678,-127
2021-12-10 13:47:20.340687,-112
2021-12-10 13:47:20.340695,-114
2021-12-10 13:47:20.340704,-114
2021-12-10 13:47:20.340712,-119
2021-12-10 13:47:20.340720,-132
2021-12-10 13:47:20.340729,-124
2021-12-10 13:47:20.340737,-110
2021-12-10 13:47:20.340746,-97
2021-12-10 13:47:20.340754,-95
2021-12-10 13:47:20.340763,-90
2021-12-10 13:47:20.340771,-75
2021-12-10 13:47:20.340779,-85
2021-12-10 13:47:20.340788,-112
2021-12-10 13:47:20.340796,-124
2021-12-10 13:47:20.340804,-124
2021-12-10 13:47:20.340813,-110
2021-12-10 13:47:20.340821,-110
2021-12-10 13:47:20.340829,-119
2021-12-10 13:47:20.340838,-112
2021-12-10 13:47:20.340846,-114
2021-12-10 13:47:20.340855,-114
2021-12-10 13:47:20.610535,-100
2021-12-10 13:47:20.610554,-58
2021-12-10 13:47:20.610564,112
2021-12-10 13:47:20.610573,474
2021-12-10 13:47:20.610582,604
2021-12-10 13:47:20.610590,85
2021-12-10 13:47:20.610599,-582
2021-12-10 13:47:20.610608,-677
2021-12-10 13:47:20.610616,-364
2021-12-10 13:47:20.610625,-193
2021-12-10 13:47:20.610634,-158
2021-12-10 13:47:20.610642,-95
2021-12-10 13:47:20.610651,-66
2021-12-10 13:47:20.610659,-61
2021-12-10 13:47:20.610668,-48
2021-12-10 13:47:20.610676,-36
2021-12-10 13:47:20.610685,-26
2021-12-10 13:47:20.610693,-19
2021-12-10 13:47:20.610702,-14
2021-12-10 13:47:20.610710,-12
2021-12-10 13:47:20.610719,2
2021-12-10 13:47:20.610728,17
2021-12-10 13:47:20.610736,24
2021-12-10 13:47:20.610745,34
2021-12-10 13:47:20.610753,44
2021-12-10 13:47:20.610762,70
2021-12-10 13:47:20.610770,110
2021-12-10 13:47:20.610779,132
2021-12-10 13:47:20.610787,158
2021-12-10 13:47:20.610796,178
2021-12-10 13:47:20.880017,185
2021-12-10 13:47:20.880035,188
2021-12-10 13:47:20.880045,163
2021-12-10 13:47:20.880053,134
2021-12-10 13:47:20.880062,102
2021-12-10 13:47:20.880071,36
2021-12-10 13:47:20.880079,-31
2021-12-10 13:47:20.880088,-88
2021-12-10 13:47:20.880096,-127
2021-12-10 13:47:20.880105,-156
2021-12-10 13:47:20.880114,-188
2021-12-10 13:47:20.880122,-210
2021-12-10 13:47:20.880131,-215
2021-12-10 13:47:20.880139,-207
2021-12-10 13:47:20.880148,-195
2021-12-10 13:47:20.880156,-200
2021-12-10 13:47:20.880165,-202
2021-12-10 13:47:20.880173,-193
2021-12-10 13:47:20.880182,-185
2021-12-10 13:47:20.880191,-161
2021-12-10 13:47:20.880199,-149
2021-12-10 13:47:20.880207,-151
2021-12-10 13:47:20.880216,-136
2021-12-10 13:47:20.880224,-127
2021-12-10 13:47:20.880233,-122
2021-12-10 13:47:20.880241,-100
2021-12-10 13:47:20.880250,-80
2021-12-10 13:47:20.880258,-66
2021-12-10 13:47:20.880267,-53
2021-12-10 13:47:20.880275,-34
2021-12-10 13:47:21.105529,-19
2021-12-10 13:47:21.105546,-14
2021-12-10 13:47:21.105556,-4
2021-12-10 13:47:21.105565,-7
2021-12-10 13:47:21.105573,-7
2021-12-10 13:47:21.105582,-2
2021-12-10 13:47:21.105590,-14
2021-12-10 13:47:21.105599,-12
2021-12-10 13:47:21.105610,0
2021-12-10 13:47:21.105619,-9
2021-12-10 13:47:21.105627,-14
2021-12-10 13:47:21.105636,-9
2021-12-10 13:47:21.105644,-2
2021-12-10 13:47:21.105653,-2
2021-12-10 13:47:21.105661,-12
2021-12-10 13:47:21.105670,-7
2021-12-10 13:47:21.105678,-4
2021-12-10 13:47:21.105687,-7
2021-12-10 13:47:21.105695,-2
2021-12-10 13:47:21.105703,-9
2021-12-10 13:47:21.105712,-12
2021-12-10 13:47:21.105720,-9
2021-12-10 13:47:21.105729,-19
2021-12-10 13:47:21.105737,-14
2021-12-10 13:47:21.105745,-7
2021-12-10 13:47:21.105754,-12
2021-12-10 13:47:21.105762,-12
2021-12-10 13:47:21.105771,-4
2021-12-10 13:47:21.105779,7
2021-12-10 13:47:21.105788,2
2021-12-10 13:47:21.240505,-19
2021-12-10 13:47:21.240524,-34
2021-12-10 13:47:21.240534,-48
2021-12-10 13:47:21.240542,-51
2021-12-10 13:47:21.240551,-51
2021-12-10 13:47:21.240559,-68
2021-12-10 13:47:21.240568,-78
2021-12-10 13:47:21.240576,-83
2021-12-10 13:47:21.240585,-85
2021-12-10 13:47:21.240593,-68
2021-12-10 13:47:21.240602,-41
2021-12-10 13:47:21.240610,46
2021-12-10 13:47:21.240618,317
2021-12-10 13:47:21.240627,540
2021-12-10 13:47:21.240635,171
2021-12-10 13:47:21.240643,-584
2021-12-10 13:47:21.240652,-836
2021-12-10 13:47:21.240660,-464
2021-12-10 13:47:21.240668,-200
2021-12-10 13:47:21.240677,-193
2021-12-10 13:47:21.240685,-127
2021-12-10 13:47:21.240694,-75
2021-12-10 13:47:21.240702,-90
2021-12-10 13:47:21.240710,-68
2021-12-10 13:47:21.240719,-41
2021-12-10 13:47:21.240727,-58
2021-12-10 13:47:21.240735,-73
2021-12-10 13:47:21.240744,-56
2021-12-10 13:47:21.240752,-53
2021-12-10 13:47:21.240760,-58
2021-12-10 13:47:21.465590,-41
2021-12-10 13:47:21.465610,-36
2021-12-10 13:47:21.465620,-29
2021-12-10 13:47:21.465628,-19
2021-12-10 13:47:21.465637,-2
2021-12-10 13:47:21.465646,26
2021-12-10 13:47:21.465654,44
2021-12-10 13:47:21.465663,68
2021-12-10 13:47:21.465671,83
2021-12-10 13:47:21.465679,75
2021-12-10 13:47:21.465688,78
2021-12-10 13:47:21.465696,68
2021-12-10 13:47:21.465705,41
2021-12-10 13:47:21.465713,4
2021-12-10 13:47:21.465722,-61
2021-12-10 13:47:21.465730,-122
2021-12-10 13:47:21.465739,-166
2021-12-10 13:47:21.465747,-212
2021-12-10 13:47:21.465756,-246
2021-12-10 13:47:21.465764,-273
2021-12-10 13:47:21.465773,-288
2021-12-10 13:47:21.465781,-291
2021-12-10 13:47:21.465789,-293
2021-12-10 13:47:21.465798,-276
2021-12-10 13:47:21.465806,-259
2021-12-10 13:47:21.465815,-259
2021-12-10 13:47:21.465823,-261
2021-12-10 13:47:21.465831,-283
2021-12-10 13:47:21.465840,-298
2021-12-10 13:47:21.465848,-278
2021-12-10 13:47:21.780574,-251
2021-12-10 13:47:21.780593,-232
2021-12-10 13:47:21.780603,-227
2021-12-10 13:47:21.780612,-217
2021-12-10 13:47:21.780621,-205
2021-12-10 13:47:21.780629,-195
2021-12-10 13:47:21.780638,-173
2021-12-10 13:47:21.780647,-156
2021-12-10 13:47:21.780655,-151
2021-12-10 13:47:21.780664,-146
2021-12-10 13:47:21.780672,-154
2021-12-10 13:47:21.780681,-154
2021-12-10 13:47:21.780690,-141
2021-12-10 13:47:21.780698,-139
2021-12-10 13:47:21.780707,-136
2021-12-10 13:47:21.780715,-139
2021-12-10 13:47:21.780724,-136
2021-12-10 13:47:21.780732,-129
2021-12-10 13:47:21.780741,-132
2021-12-10 13:47:21.780749,-129
2021-12-10 13:47:21.780758,-134
2021-12-10 13:47:21.780767,-141
2021-12-10 13:47:21.780775,-134
2021-12-10 13:47:21.780784,-129
2021-12-10 13:47:21.780793,-127
2021-12-10 13:47:21.780801,-122
2021-12-10 13:47:21.780809,-127
2021-12-10 13:47:21.780818,-119
2021-12-10 13:47:21.780827,-122
2021-12-10 13:47:21.780835,-129
2021-12-10 13:47:21.960793,-122
2021-12-10 13:47:21.960814,-110
2021-12-10 13:47:21.960824,-102
2021-12-10 13:47:21.960833,-100
2021-12-10 13:47:21.960842,-92
2021-12-10 13:47:21.960850,-75
2021-12-10 13:47:21.960859,-78
2021-12-10 13:47:21.960867,-105
2021-12-10 13:47:21.960876,-129
2021-12-10 13:47:21.960884,-132
2021-12-10 13:47:21.960893,-124
2021-12-10 13:47:21.960901,-129
2021-12-10 13:47:21.960910,-129
2021-12-10 13:47:21.960918,-122
2021-12-10 13:47:21.960927,-127
2021-12-10 13:47:21.960935,-119
2021-12-10 13:47:21.960943,-92
2021-12-10 13:47:21.960951,-19
2021-12-10 13:47:21.960960,217
2021-12-10 13:47:21.960968,454
2021-12-10 13:47:21.960977,205
2021-12-10 13:47:21.960985,-413
2021-12-10 13:47:21.960994,-684
2021-12-10 13:47:21.961002,-471
2021-12-10 13:47:21.961010,-249
2021-12-10 13:47:21.961019,-176
2021-12-10 13:47:21.961027,-122
2021-12-10 13:47:21.961036,-88
2021-12-10 13:47:21.961044,-75
2021-12-10 13:47:21.961052,-51
2021-12-10 13:47:22.229167,-39
2021-12-10 13:47:22.229186,-31
2021-12-10 13:47:22.229195,-29
2021-12-10 13:47:22.229205,-24
2021-12-10 13:47:22.229213,-17
2021-12-10 13:47:22.229222,-9
2021-12-10 13:47:22.229231,4
2021-12-10 13:47:22.229239,7
2021-12-10 13:47:22.229248,4
2021-12-10 13:47:22.229256,26
2021-12-10 13:47:22.229265,48
2021-12-10 13:47:22.229273,70
2021-12-10 13:47:22.229281,97
2021-12-10 13:47:22.229290,114
2021-12-10 13:47:22.229298,132
2021-12-10 13:47:22.229307,144
2021-12-10 13:47:22.229315,151
2021-12-10 13:47:22.229323,141
2021-12-10 13:47:22.229332,112
2021-12-10 13:47:22.229340,85
2021-12-10 13:47:22.229348,41
2021-12-10 13:47:22.229356,-19
2021-12-10 13:47:22.229365,-75
2021-12-10 13:47:22.229376,-124
2021-12-10 13:47:22.229385,-161
2021-12-10 13:47:22.229393,-188
2021-12-10 13:47:22.229401,-210
2021-12-10 13:47:22.229410,-207
2021-12-10 13:47:22.229418,-210
2021-12-10 13:47:22.229426,-217
2021-12-10 13:47:22.410581,-207
2021-12-10 13:47:22.410600,-202
2021-12-10 13:47:22.410609,-195
2021-12-10 13:47:22.410618,-193
2021-12-10 13:47:22.410627,-193
2021-12-10 13:47:22.410635,-178
2021-12-10 13:47:22.410643,-173
2021-12-10 13:47:22.410652,-173
2021-12-10 13:47:22.410660,-161
2021-12-10 13:47:22.410668,-149
2021-12-10 13:47:22.410677,-141
2021-12-10 13:47:22.410685,-136
2021-12-10 13:47:22.410693,-129
2021-12-10 13:47:22.410702,-124
2021-12-10 13:47:22.410710,-129
2021-12-10 13:47:22.410718,-124
2021-12-10 13:47:22.410727,-114
2021-12-10 13:47:22.410735,-122
2021-12-10 13:47:22.410744,-122
2021-12-10 13:47:22.410752,-124
2021-12-10 13:47:22.410760,-124
2021-12-10 13:47:22.410769,-117
2021-12-10 13:47:22.410777,-112
2021-12-10 13:47:22.410785,-110
2021-12-10 13:47:22.410794,-127
2021-12-10 13:47:22.410802,-132
2021-12-10 13:47:22.410810,-117
2021-12-10 13:47:22.410819,-122
2021-12-10 13:47:22.410827,-122
2021-12-10 13:47:22.410835,-110
2021-12-10 13:47:22.680553,-112
2021-12-10 13:47:22.680571,-107
2021-12-10 13:47:22.680581,-105
2021-12-10 13:47:22.680590,-105
2021-12-10 13:47:22.680598,-100
2021-12-10 13:47:22.680607,-105
2021-12-10 13:47:22.680615,-102
2021-12-10 13:47:22.680624,-100
2021-12-10 13:47:22.680632,-105
2021-12-10 13:47:22.680640,-100
2021-12-10 13:47:22.680649,-90
2021-12-10 13:47:22.680657,-80
2021-12-10 13:47:22.680666,-78
2021-12-10 13:47:22.680674,-70
2021-12-10 13:47:22.680682,-51
2021-12-10 13:47:22.680691,-53
2021-12-10 13:47:22.680699,-73
2021-12-10 13:47:22.680708,-78
2021-12-10 13:47:22.680716,-73
2021-12-10 13:47:22.680725,-63
2021-12-10 13:47:22.680733,-63
2021-12-10 13:47:22.680741,-75
2021-12-10 13:47:22.680749,-75
2021-12-10 13:47:22.680757,-70
2021-12-10 13:47:22.680766,-51
2021-12-10 13:47:22.680774,-9
2021-12-10 13:47:22.680783,88
2021-12-10 13:47:22.680791,391
2021-12-10 13:47:22.680799,682
2021-12-10 13:47:22.680807,386
2021-12-10 13:47:22.860597,-354
2021-12-10 13:47:22.860617,-692
2021-12-10 13:47:22.860627,-408
2021-12-10 13:47:22.860636,-149
2021-12-10 13:47:22.860645,-117
2021-12-10 13:47:22.860653,-48
2021-12-10 13:47:22.860662,14
2021-12-10 13:47:22.860671,19
2021-12-10 13:47:22.860679,36
2021-12-10 13:47:22.860688,46
2021-12-10 13:47:22.860696,48
2021-12-10 13:47:22.860705,53
2021-12-10 13:47:22.860713,61
2021-12-10 13:47:22.860722,73
2021-12-10 13:47:22.860730,73
2021-12-10 13:47:22.860739,78
2021-12-10 13:47:22.860748,95
2021-12-10 13:47:22.860756,105
2021-12-10 13:47:22.860765,127
2021-12-10 13:47:22.860773,154
2021-12-10 13:47:22.860782,180
2021-12-10 13:47:22.860790,215
2021-12-10 13:47:22.860799,239
2021-12-10 13:47:22.860807,271
2021-12-10 13:47:22.860816,291
2021-12-10 13:47:22.860824,298
2021-12-10 13:47:22.860833,300
2021-12-10 13:47:22.860841,276
2021-12-10 13:47:22.860850,234
2021-12-10 13:47:22.860858,185
2021-12-10 13:47:23.085578,122
2021-12-10 13:47:23.085598,63
2021-12-10 13:47:23.085608,7
2021-12-10 13:47:23.085617,-31
2021-12-10 13:47:23.085625,-61
2021-12-10 13:47:23.085634,-95
2021-12-10 13:47:23.085643,-100
2021-12-10 13:47:23.085651,-90
2021-12-10 13:47:23.085660,-95
2021-12-10 13:47:23.085668,-95
2021-12-10 13:47:23.085677,-97
2021-12-10 13:47:23.085685,-95
2021-12-10 13:47:23.085694,-83
2021-12-10 13:47:23.085703,-78
2021-12-10 13:47:23.085711,-68
2021-12-10 13:47:23.085719,-63
2021-12-10 13:47:23.085728,-61
2021-12-10 13:47:23.085736,-48
2021-12-10 13:47:23.085745,-41
2021-12-10 13:47:23.085753,-29
2021-12-10 13:47:23.085762,-19
2021-12-10 13:47:23.085770,-22
2021-12-10 13:47:23.085779,-9
2021-12-10 13:47:23.085787,-7
2021-12-10 13:47:23.085796,-19
2021-12-10 13:47:23.085804,-19
2021-12-10 13:47:23.085813,-22
2021-12-10 13:47:23.085821,-22
2021-12-10 13:47:23.085830,-31
2021-12-10 13:47:23.085838,-39
2021-12-10 13:47:23.310504,-34
2021-12-10 13:47:23.310522,-44
2021-12-10 13:47:23.310532,-48
2021-12-10 13:47:23.310541,-51
2021-12-10 13:47:23.310549,-61
2021-12-10 13:47:23.310557,-58
2021-12-10 13:47:23.310566,-58
2021-12-10 13:47:23.310574,-61
2021-12-10 13:47:23.310582,-58
2021-12-10 13:47:23.310591,-68
2021-12-10 13:47:23.310599,-73
2021-12-10 13:47:23.310607,-73
2021-12-10 13:47:23.310616,-75
2021-12-10 13:47:23.310624,-70
2021-12-10 13:47:23.310632,-75
2021-12-10 13:47:23.310641,-80
2021-12-10 13:47:23.310649,-80
2021-12-10 13:47:23.310657,-88
2021-12-10 13:47:23.310665,-75
2021-12-10 13:47:23.310674,-68
2021-12-10 13:47:23.310682,-70
2021-12-10 13:47:23.310690,-61
2021-12-10 13:47:23.310699,-58
2021-12-10 13:47:23.310707,-58
2021-12-10 13:47:23.310715,-70
2021-12-10 13:47:23.310723,-102
2021-12-10 13:47:23.310732,-117
2021-12-10 13:47:23.310740,-117
2021-12-10 13:47:23.310749,-117
2021-12-10 13:47:23.310757,-119
2021-12-10 13:47:23.535553,-124
2021-12-10 13:47:23.535572,-117
2021-12-10 13:47:23.535582,-119
2021-12-10 13:47:23.535591,-114
2021-12-10 13:47:23.535600,-73
2021-12-10 13:47:23.535608,51
2021-12-10 13:47:23.535617,361
2021-12-10 13:47:23.535626,486
2021-12-10 13:47:23.535634,-73
2021-12-10 13:47:23.535643,-804
2021-12-10 13:47:23.535652,-858
2021-12-10 13:47:23.535660,-440
2021-12-10 13:47:23.535669,-251
2021-12-10 13:47:23.535678,-249
2021-12-10 13:47:23.535686,-149
2021-12-10 13:47:23.535695,-100
2021-12-10 13:47:23.535703,-119
2021-12-10 13:47:23.535712,-102
2021-12-10 13:47:23.535721,-85
2021-12-10 13:47:23.535729,-88
2021-12-10 13:47:23.535738,-80
2021-12-10 13:47:23.535746,-78
2021-12-10 13:47:23.535755,-75
2021-12-10 13:47:23.535763,-73
2021-12-10 13:47:23.535771,-56
2021-12-10 13:47:23.535780,-34
2021-12-10 13:47:23.535788,-26
2021-12-10 13:47:23.535796,-17
2021-12-10 13:47:23.535805,9
2021-12-10 13:47:23.535816,36
2021-12-10 13:47:23.805500,63
2021-12-10 13:47:23.805519,78
2021-12-10 13:47:23.805528,97
2021-12-10 13:47:23.805537,102
2021-12-10 13:47:23.805546,83
2021-12-10 13:47:23.805555,73
2021-12-10 13:47:23.805563,51
2021-12-10 13:47:23.805572,0
2021-12-10 13:47:23.805580,-56
2021-12-10 13:47:23.805589,-122
2021-12-10 13:47:23.805597,-180
2021-12-10 13:47:23.805606,-224
2021-12-10 13:47:23.805614,-261
2021-12-10 13:47:23.805623,-283
2021-12-10 13:47:23.805631,-308
2021-12-10 13:47:23.805640,-317
2021-12-10 13:47:23.805648,-315
2021-12-10 13:47:23.805657,-317
2021-12-10 13:47:23.805665,-320
2021-12-10 13:47:23.805673,-325
2021-12-10 13:47:23.805682,-315
2021-12-10 13:47:23.805690,-298
2021-12-10 13:47:23.805699,-293
2021-12-10 13:47:23.805707,-286
2021-12-10 13:47:23.805715,-269
2021-12-10 13:47:23.805724,-256
2021-12-10 13:47:23.805733,-249
2021-12-10 13:47:23.805741,-239
2021-12-10 13:47:23.805750,-222
2021-12-10 13:47:23.805758,-217
2021-12-10 13:47:24.074999,-224
2021-12-10 13:47:24.075019,-217
2021-12-10 13:47:24.075029,-215
2021-12-10 13:47:24.075037,-217
2021-12-10 13:47:24.075046,-212
2021-12-10 13:47:24.075054,-212
2021-12-10 13:47:24.075063,-215
2021-12-10 13:47:24.075071,-217
2021-12-10 13:47:24.075080,-229
2021-12-10 13:47:24.075088,-232
2021-12-10 13:47:24.075096,-227
2021-12-10 13:47:24.075105,-227
2021-12-10 13:47:24.075113,-234
2021-12-10 13:47:24.075121,-237
2021-12-10 13:47:24.075130,-232
2021-12-10 13:47:24.075138,-232
2021-12-10 13:47:24.075146,-229
2021-12-10 13:47:24.075155,-224
2021-12-10 13:47:24.075163,-222
2021-12-10 13:47:24.075171,-215
2021-12-10 13:47:24.075179,-202
2021-12-10 13:47:24.075188,-195
2021-12-10 13:47:24.075196,-176
2021-12-10 13:47:24.075204,-166
2021-12-10 13:47:24.075213,-171
2021-12-10 13:47:24.075221,-180
2021-12-10 13:47:24.075229,-200
2021-12-10 13:47:24.075238,-210
2021-12-10 13:47:24.075246,-202
2021-12-10 13:47:24.075254,-202
2021-12-10 13:47:24.344748,-198
2021-12-10 13:47:24.344765,-202
2021-12-10 13:47:24.344775,-207
2021-12-10 13:47:24.344784,-202
2021-12-10 13:47:24.344792,-185
2021-12-10 13:47:24.344801,-146
2021-12-10 13:47:24.344809,-95
2021-12-10 13:47:24.344818,56
2021-12-10 13:47:24.344826,337
2021-12-10 13:47:24.344834,261
2021-12-10 13:47:24.344843,-427
2021-12-10 13:47:24.344851,-958
2021-12-10 13:47:24.344860,-748
2021-12-10 13:47:24.344868,-352
2021-12-10 13:47:24.344876,-259
2021-12-10 13:47:24.344885,-207
2021-12-10 13:47:24.344893,-97
2021-12-10 13:47:24.344901,-85
2021-12-10 13:47:24.344909,-85
2021-12-10 13:47:24.344918,-56
2021-12-10 13:47:24.344926,-51
2021-12-10 13:47:24.344934,-51
2021-12-10 13:47:24.344942,-44
2021-12-10 13:47:24.344950,-31
2021-12-10 13:47:24.344959,-24
2021-12-10 13:47:24.344967,-19
2021-12-10 13:47:24.344975,-2
2021-12-10 13:47:24.344984,9
2021-12-10 13:47:24.344992,26
2021-12-10 13:47:24.345000,48
2021-12-10 13:47:24.525576,66
2021-12-10 13:47:24.525595,90
2021-12-10 13:47:24.525605,117
2021-12-10 13:47:24.525614,134
2021-12-10 13:47:24.525622,141
2021-12-10 13:47:24.525631,139
2021-12-10 13:47:24.525639,132
2021-12-10 13:47:24.525648,112
2021-12-10 13:47:24.525656,73
2021-12-10 13:47:24.525664,36
2021-12-10 13:47:24.525673,-22
2021-12-10 13:47:24.525681,-88
2021-12-10 13:47:24.525690,-136
2021-12-10 13:47:24.525698,-180
2021-12-10 13:47:24.525707,-212
2021-12-10 13:47:24.525715,-229
2021-12-10 13:47:24.525723,-242
2021-12-10 13:47:24.525732,-246
2021-12-10 13:47:24.525740,-256
2021-12-10 13:47:24.525748,-256
2021-12-10 13:47:24.525757,-246
2021-12-10 13:47:24.525765,-244
2021-12-10 13:47:24.525773,-229
2021-12-10 13:47:24.525782,-215
2021-12-10 13:47:24.525790,-207
2021-12-10 13:47:24.525798,-193
2021-12-10 13:47:24.525807,-183
2021-12-10 13:47:24.525816,-166
2021-12-10 13:47:24.525824,-149
2021-12-10 13:47:24.525832,-144
2021-12-10 13:47:24.705562,-136
2021-12-10 13:47:24.705581,-134
2021-12-10 13:47:24.705592,-127
2021-12-10 13:47:24.705602,-119
2021-12-10 13:47:24.705611,-122
2021-12-10 13:47:24.705621,-127
2021-12-10 13:47:24.705630,-134
2021-12-10 13:47:24.705640,-136
2021-12-10 13:47:24.705649,-129
2021-12-10 13:47:24.705658,-136
2021-12-10 13:47:24.705667,-136
2021-12-10 13:47:24.705677,-136
2021-12-10 13:47:24.705686,-146
2021-12-10 13:47:24.705695,-146
2021-12-10 13:47:24.705704,-139
2021-12-10 13:47:24.705714,-139
2021-12-10 13:47:24.705723,-134
2021-12-10 13:47:24.705732,-134
2021-12-10 13:47:24.705741,-129
2021-12-10 13:47:24.705751,-129
2021-12-10 13:47:24.705760,-129
2021-12-10 13:47:24.705769,-122
2021-12-10 13:47:24.705779,-124
2021-12-10 13:47:24.705788,-129
2021-12-10 13:47:24.705797,-129
2021-12-10 13:47:24.705806,-122
2021-12-10 13:47:24.705815,-110
2021-12-10 13:47:24.705825,-102
2021-12-10 13:47:24.705834,-97
2021-12-10 13:47:24.705843,-88
2021-12-10 13:47:24.930708,-83
2021-12-10 13:47:24.930728,-75
2021-12-10 13:47:24.930738,-80
2021-12-10 13:47:24.930747,-102
2021-12-10 13:47:24.930756,-110
2021-12-10 13:47:24.930764,-105
2021-12-10 13:47:24.930773,-102
2021-12-10 13:47:24.930781,-105
2021-12-10 13:47:24.930790,-110
2021-12-10 13:47:24.930798,-105
2021-12-10 13:47:24.930807,-105
2021-12-10 13:47:24.930815,-92
2021-12-10 13:47:24.930824,-44
2021-12-10 13:47:24.930832,95
2021-12-10 13:47:24.930840,425
2021-12-10 13:47:24.930849,567
2021-12-10 13:47:24.930857,78
2021-12-10 13:47:24.930866,-555
2021-12-10 13:47:24.930874,-660
2021-12-10 13:47:24.930882,-364
2021-12-10 13:47:24.930891,-180
2021-12-10 13:47:24.930899,-154
2021-12-10 13:47:24.930908,-88
2021-12-10 13:47:24.930916,-56
2021-12-10 13:47:24.930925,-58
2021-12-10 13:47:24.930933,-31
2021-12-10 13:47:24.930942,-17
2021-12-10 13:47:24.930950,-12
2021-12-10 13:47:24.930959,0
2021-12-10 13:47:24.930967,4
2021-12-10 13:47:25.155552,12
2021-12-10 13:47:25.155572,17
2021-12-10 13:47:25.155582,29
2021-12-10 13:47:25.155591,41
2021-12-10 13:47:25.155599,48
2021-12-10 13:47:25.155608,63
2021-12-10 13:47:25.155616,83
2021-12-10 13:47:25.155625,105
2021-12-10 13:47:25.155633,132
2021-12-10 13:47:25.155642,151
2021-12-10 13:47:25.155650,168
2021-12-10 13:47:25.155659,183
2021-12-10 13:47:25.155667,190
2021-12-10 13:47:25.155676,193
2021-12-10 13:47:25.155684,173
2021-12-10 13:47:25.155692,141
2021-12-10 13:47:25.155701,102
2021-12-10 13:47:25.155709,36
2021-12-10 13:47:25.155718,-22
2021-12-10 13:47:25.155726,-58
2021-12-10 13:47:25.155734,-85
2021-12-10 13:47:25.155743,-100
2021-12-10 13:47:25.155751,-117
2021-12-10 13:47:25.155759,-127
2021-12-10 13:47:25.155768,-127
2021-12-10 13:47:25.155776,-132
2021-12-10 13:47:25.155784,-132
2021-12-10 13:47:25.155793,-134
2021-12-10 13:47:25.155804,-132
2021-12-10 13:47:25.155812,-114
2021-12-10 13:47:25.425040,-102
2021-12-10 13:47:25.425060,-88
2021-12-10 13:47:25.425069,-78
2021-12-10 13:47:25.425078,-75
2021-12-10 13:47:25.425087,-63
2021-12-10 13:47:25.425095,-58
2021-12-10 13:47:25.425104,-46
2021-12-10 13:47:25.425112,-34
2021-12-10 13:47:25.425121,-34
2021-12-10 13:47:25.425129,-24
2021-12-10 13:47:25.425138,-24
2021-12-10 13:47:25.425146,-29
2021-12-10 13:47:25.425154,-22
2021-12-10 13:47:25.425163,-26
2021-12-10 13:47:25.425171,-29
2021-12-10 13:47:25.425180,-29
2021-12-10 13:47:25.425188,-26
2021-12-10 13:47:25.425196,-14
2021-12-10 13:47:25.425205,-12
2021-12-10 13:47:25.425213,-2
2021-12-10 13:47:25.425221,7
2021-12-10 13:47:25.425230,2
2021-12-10 13:47:25.425238,4
2021-12-10 13:47:25.425246,7
2021-12-10 13:47:25.425255,9
2021-12-10 13:47:25.425263,24
2021-12-10 13:47:25.425271,24
2021-12-10 13:47:25.425280,22
2021-12-10 13:47:25.425288,22
2021-12-10 13:47:25.425297,17
2021-12-10 13:47:25.605592,24
2021-12-10 13:47:25.605611,19
2021-12-10 13:47:25.605621,19
2021-12-10 13:47:25.605630,26
2021-12-10 13:47:25.605639,26
2021-12-10 13:47:25.605647,34
2021-12-10 13:47:25.605656,44
2021-12-10 13:47:25.605664,56
2021-12-10 13:47:25.605672,63
2021-12-10 13:47:25.605681,39
2021-12-10 13:47:25.605689,12
2021-12-10 13:47:25.605697,0
2021-12-10 13:47:25.605706,4
2021-12-10 13:47:25.605714,14
2021-12-10 13:47:25.605723,2
2021-12-10 13:47:25.605731,-9
2021-12-10 13:47:25.605740,-4
2021-12-10 13:47:25.605748,-9
2021-12-10 13:47:25.605756,2
2021-12-10 13:47:25.605765,41
2021-12-10 13:47:25.605773,161
2021-12-10 13:47:25.605782,498
2021-12-10 13:47:25.605790,736
2021-12-10 13:47:25.605799,337
2021-12-10 13:47:25.605807,-386
2021-12-10 13:47:25.605816,-640
2021-12-10 13:47:25.605824,-357
2021-12-10 13:47:25.605833,-132
2021-12-10 13:47:25.605841,-95
2021-12-10 13:47:25.605850,-29
2021-12-10 13:47:25.875631,12
2021-12-10 13:47:25.875650,19
2021-12-10 13:47:25.875660,29
2021-12-10 13:47:25.875669,31
2021-12-10 13:47:25.875678,36
2021-12-10 13:47:25.875686,44
2021-12-10 13:47:25.875695,53
2021-12-10 13:47:25.875703,56
2021-12-10 13:47:25.875712,51
2021-12-10 13:47:25.875720,58
2021-12-10 13:47:25.875729,73
2021-12-10 13:47:25.875737,85
2021-12-10 13:47:25.875745,100
2021-12-10 13:47:25.875754,117
2021-12-10 13:47:25.875762,136
2021-12-10 13:47:25.875771,154
2021-12-10 13:47:25.875779,171
2021-12-10 13:47:25.875788,195
2021-12-10 13:47:25.875796,200
2021-12-10 13:47:25.875804,198
2021-12-10 13:47:25.875813,190
2021-12-10 13:47:25.875821,168
2021-12-10 13:47:25.875829,139
2021-12-10 13:47:25.875838,83
2021-12-10 13:47:25.875846,19
2021-12-10 13:47:25.875854,-29
2021-12-10 13:47:25.875863,-90
2021-12-10 13:47:25.875871,-132
2021-12-10 13:47:25.875880,-156
2021-12-10 13:47:25.875888,-180
2021-12-10 13:47:26.145009,-195
2021-12-10 13:47:26.145029,-202
2021-12-10 13:47:26.145039,-205
2021-12-10 13:47:26.145048,-212
2021-12-10 13:47:26.145056,-222
2021-12-10 13:47:26.145065,-207
2021-12-10 13:47:26.145074,-205
2021-12-10 13:47:26.145082,-222
2021-12-10 13:47:26.145090,-220
2021-12-10 13:47:26.145099,-220
2021-12-10 13:47:26.145108,-212
2021-12-10 13:47:26.145116,-200
2021-12-10 13:47:26.145124,-202
2021-12-10 13:47:26.145132,-198
2021-12-10 13:47:26.145141,-190
2021-12-10 13:47:26.145149,-185
2021-12-10 13:47:26.145157,-180
2021-12-10 13:47:26.145166,-183
2021-12-10 13:47:26.145174,-180
2021-12-10 13:47:26.145183,-183
2021-12-10 13:47:26.145191,-190
2021-12-10 13:47:26.145200,-180
2021-12-10 13:47:26.145208,-180
2021-12-10 13:47:26.145216,-183
2021-12-10 13:47:26.145225,-180
2021-12-10 13:47:26.145233,-188
2021-12-10 13:47:26.145242,-190
2021-12-10 13:47:26.145250,-185
2021-12-10 13:47:26.145258,-183
2021-12-10 13:47:26.145267,-185
2021-12-10 13:47:26.369337,-193
2021-12-10 13:47:26.369358,-190
2021-12-10 13:47:26.369368,-190
2021-12-10 13:47:26.369376,-185
2021-12-10 13:47:26.369385,-176
2021-12-10 13:47:26.369394,-188
2021-12-10 13:47:26.369402,-193
2021-12-10 13:47:26.369410,-180
2021-12-10 13:47:26.369419,-183
2021-12-10 13:47:26.369427,-176
2021-12-10 13:47:26.369436,-163
2021-12-10 13:47:26.369444,-161
2021-12-10 13:47:26.369453,-156
2021-12-10 13:47:26.369461,-161
2021-12-10 13:47:26.369470,-190
2021-12-10 13:47:26.369478,-215
2021-12-10 13:47:26.369486,-205
2021-12-10 13:47:26.369495,-185
2021-12-10 13:47:26.369503,-193
2021-12-10 13:47:26.369512,-200
2021-12-10 13:47:26.369520,-193
2021-12-10 13:47:26.369528,-200
2021-12-10 13:47:26.369537,-178
2021-12-10 13:47:26.369545,-134
2021-12-10 13:47:26.369554,-48
2021-12-10 13:47:26.369562,202
2021-12-10 13:47:26.369571,364
2021-12-10 13:47:26.369579,-53
2021-12-10 13:47:26.369588,-736
2021-12-10 13:47:26.369596,-870
2021-12-10 13:47:26.685024,-491
2021-12-10 13:47:26.685043,-271
2021-12-10 13:47:26.685053,-246
2021-12-10 13:47:26.685062,-151
2021-12-10 13:47:26.685070,-95
2021-12-10 13:47:26.685079,-100
2021-12-10 13:47:26.685088,-80
2021-12-10 13:47:26.685096,-68
2021-12-10 13:47:26.685105,-70
2021-12-10 13:47:26.685113,-70
2021-12-10 13:47:26.685122,-56
2021-12-10 13:47:26.685130,-51
2021-12-10 13:47:26.685138,-53
2021-12-10 13:47:26.685147,-41
2021-12-10 13:47:26.685155,-34
2021-12-10 13:47:26.685164,-29
2021-12-10 13:47:26.685172,-4
2021-12-10 13:47:26.685180,14
2021-12-10 13:47:26.685189,39
2021-12-10 13:47:26.685197,66
2021-12-10 13:47:26.685206,88
2021-12-10 13:47:26.685214,110
2021-12-10 13:47:26.685222,117
2021-12-10 13:47:26.685231,107
2021-12-10 13:47:26.685239,92
2021-12-10 13:47:26.685247,61
2021-12-10 13:47:26.685256,24
2021-12-10 13:47:26.685264,-22
2021-12-10 13:47:26.685273,-83
2021-12-10 13:47:26.685281,-136
2021-12-10 13:47:26.775557,-188
2021-12-10 13:47:26.775575,-220
2021-12-10 13:47:26.775585,-242
2021-12-10 13:47:26.775593,-261
2021-12-10 13:47:26.775602,-264
2021-12-10 13:47:26.775610,-266
2021-12-10 13:47:26.775619,-271
2021-12-10 13:47:26.775628,-266
2021-12-10 13:47:26.775636,-266
2021-12-10 13:47:26.775645,-264
2021-12-10 13:47:26.775653,-256
2021-12-10 13:47:26.775662,-242
2021-12-10 13:47:26.775670,-229
2021-12-10 13:47:26.775678,-222
2021-12-10 13:47:26.775687,-207
2021-12-10 13:47:26.775695,-195
2021-12-10 13:47:26.775704,-188
2021-12-10 13:47:26.775712,-166
2021-12-10 13:47:26.775721,-161
2021-12-10 13:47:26.775729,-156
2021-12-10 13:47:26.775737,-144
2021-12-10 13:47:26.775746,-144
2021-12-10 13:47:26.775754,-146
2021-12-10 13:47:26.775763,-144
2021-12-10 13:47:26.775771,-149
2021-12-10 13:47:26.775779,-146
2021-12-10 13:47:26.775788,-154
2021-12-10 13:47:26.775796,-154
2021-12-10 13:47:26.775805,-154
2021-12-10 13:47:26.775813,-156
2021-12-10 13:47:27.000633,-149
2021-12-10 13:47:27.000653,-149
2021-12-10 13:47:27.000662,-151
2021-12-10 13:47:27.000671,-144
2021-12-10 13:47:27.000680,-146
2021-12-10 13:47:27.000688,-146
2021-12-10 13:47:27.000697,-149
2021-12-10 13:47:27.000705,-151
2021-12-10 13:47:27.000714,-139
2021-12-10 13:47:27.000722,-136
2021-12-10 13:47:27.000730,-136
2021-12-10 13:47:27.000739,-124
2021-12-10 13:47:27.000747,-119
2021-12-10 13:47:27.000756,-105
2021-12-10 13:47:27.000764,-95
2021-12-10 13:47:27.000772,-100
2021-12-10 13:47:27.000781,-107
2021-12-10 13:47:27.000789,-129
2021-12-10 13:47:27.000798,-139
2021-12-10 13:47:27.000806,-132
2021-12-10 13:47:27.000815,-124
2021-12-10 13:47:27.000823,-119
2021-12-10 13:47:27.000831,-122
2021-12-10 13:47:27.000848,-122
2021-12-10 13:47:27.000856,-117
2021-12-10 13:47:27.000865,-112
2021-12-10 13:47:27.000873,-83
2021-12-10 13:47:27.000882,-14
2021-12-10 13:47:27.000890,217
2021-12-10 13:47:27.000898,511
2021-12-10 13:47:27.314931,303
2021-12-10 13:47:27.314950,-381
2021-12-10 13:47:27.314960,-728
2021-12-10 13:47:27.314968,-501
2021-12-10 13:47:27.314977,-237
2021-12-10 13:47:27.314986,-183
2021-12-10 13:47:27.314994,-119
2021-12-10 13:47:27.315003,-41
2021-12-10 13:47:27.315011,-46
2021-12-10 13:47:27.315020,-36
2021-12-10 13:47:27.315028,-14
2021-12-10 13:47:27.315037,-22
2021-12-10 13:47:27.315045,-14
2021-12-10 13:47:27.315054,0
2021-12-10 13:47:27.315062,7
2021-12-10 13:47:27.315071,12
2021-12-10 13:47:27.315079,14
2021-12-10 13:47:27.315087,26
2021-12-10 13:47:27.315096,39
2021-12-10 13:47:27.315104,53
2021-12-10 13:47:27.315112,75
2021-12-10 13:47:27.315120,90
2021-12-10 13:47:27.315129,112
2021-12-10 13:47:27.315137,136
2021-12-10 13:47:27.315145,154
2021-12-10 13:47:27.315153,173
2021-12-10 13:47:27.315162,173
2021-12-10 13:47:27.315170,168
2021-12-10 13:47:27.315178,156
2021-12-10 13:47:27.315186,122
2021-12-10 13:47:27.450592,80
2021-12-10 13:47:27.450611,26
2021-12-10 13:47:27.450621,-36
2021-12-10 13:47:27.450630,-88
2021-12-10 13:47:27.450639,-136
2021-12-10 13:47:27.450647,-163
2021-12-10 13:47:27.450656,-178
2021-12-10 13:47:27.450664,-190
2021-12-10 13:47:27.450673,-188
2021-12-10 13:47:27.450681,-190
2021-12-10 13:47:27.450690,-190
2021-12-10 13:47:27.450699,-180
2021-12-10 13:47:27.450707,-178
2021-12-10 13:47:27.450716,-173
2021-12-10 13:47:27.450724,-168
2021-12-10 13:47:27.450732,-163
2021-12-10 13:47:27.450741,-156
2021-12-10 13:47:27.450749,-151
2021-12-10 13:47:27.450757,-134
2021-12-10 13:47:27.450766,-119
2021-12-10 13:47:27.450774,-114
2021-12-10 13:47:27.450783,-105
2021-12-10 13:47:27.450791,-107
2021-12-10 13:47:27.450799,-100
2021-12-10 13:47:27.450808,-92
2021-12-10 13:47:27.450816,-97
2021-12-10 13:47:27.450825,-90
2021-12-10 13:47:27.450833,-88
2021-12-10 13:47:27.450841,-95
2021-12-10 13:47:27.450850,-92
2021-12-10 13:47:27.764952,-92
2021-12-10 13:47:27.764970,-92
2021-12-10 13:47:27.764980,-92
2021-12-10 13:47:27.764989,-102
2021-12-10 13:47:27.764997,-102
2021-12-10 13:47:27.765006,-102
2021-12-10 13:47:27.765014,-102
2021-12-10 13:47:27.765023,-97
2021-12-10 13:47:27.765031,-100
2021-12-10 13:47:27.765040,-97
2021-12-10 13:47:27.765048,-97
2021-12-10 13:47:27.765057,-95
2021-12-10 13:47:27.765065,-83
2021-12-10 13:47:27.765073,-85
2021-12-10 13:47:27.765082,-85
2021-12-10 13:47:27.765090,-80
2021-12-10 13:47:27.765098,-85
2021-12-10 13:47:27.765107,-88
2021-12-10 13:47:27.765115,-85
2021-12-10 13:47:27.765123,-80
2021-12-10 13:47:27.765132,-68
2021-12-10 13:47:27.765140,-61
2021-12-10 13:47:27.765149,-51
2021-12-10 13:47:27.765157,-44
2021-12-10 13:47:27.765165,-34
2021-12-10 13:47:27.765174,-26
2021-12-10 13:47:27.765182,-46
2021-12-10 13:47:27.765191,-70
2021-12-10 13:47:27.765199,-68
2021-12-10 13:47:27.765207,-48
2021-12-10 13:47:27.945722,-41
2021-12-10 13:47:27.945743,-44
2021-12-10 13:47:27.945753,-44
2021-12-10 13:47:27.945762,-41
2021-12-10 13:47:27.945770,-48
2021-12-10 13:47:27.945779,-17
2021-12-10 13:47:27.945787,51
2021-12-10 13:47:27.945796,227
2021-12-10 13:47:27.945804,564
2021-12-10 13:47:27.945813,584
2021-12-10 13:47:27.945821,17
2021-12-10 13:47:27.945830,-513
2021-12-10 13:47:27.945838,-515
2021-12-10 13:47:27.945847,-234
2021-12-10 13:47:27.945855,-97
2021-12-10 13:47:27.945864,-83
2021-12-10 13:47:27.945873,-24
2021-12-10 13:47:27.945881,9
2021-12-10 13:47:27.945889,29
2021-12-10 13:47:27.945898,56
2021-12-10 13:47:27.945906,66
2021-12-10 13:47:27.945914,70
2021-12-10 13:47:27.945923,70
2021-12-10 13:47:27.945931,73
2021-12-10 13:47:27.945939,85
2021-12-10 13:47:27.945948,85
2021-12-10 13:47:27.945956,92
2021-12-10 13:47:27.945965,102
2021-12-10 13:47:27.945973,110
2021-12-10 13:47:27.945981,124
2021-12-10 13:47:28.215579,144
2021-12-10 13:47:28.215597,176
2021-12-10 13:47:28.215607,207
2021-12-10 13:47:28.215615,222
2021-12-10 13:47:28.215624,242
2021-12-10 13:47:28.215633,246
2021-12-10 13:47:28.215641,242
2021-12-10 13:47:28.215649,237
2021-12-10 13:47:28.215658,212
2021-12-10 13:47:28.215666,178
2021-12-10 13:47:28.215675,136
2021-12-10 13:47:28.215683,78
2021-12-10 13:47:28.215692,26
2021-12-10 13:47:28.215700,-22
2021-12-10 13:47:28.215708,-58
2021-12-10 13:47:28.215717,-83
2021-12-10 13:47:28.215725,-102
2021-12-10 13:47:28.215734,-107
2021-12-10 13:47:28.215742,-110
2021-12-10 13:47:28.215751,-112
2021-12-10 13:47:28.215759,-105
2021-12-10 13:47:28.215767,-102
2021-12-10 13:47:28.215776,-97
2021-12-10 13:47:28.215784,-92
2021-12-10 13:47:28.215793,-88
2021-12-10 13:47:28.215801,-75
2021-12-10 13:47:28.215809,-80
2021-12-10 13:47:28.215818,-80
2021-12-10 13:47:28.215826,-63
2021-12-10 13:47:28.215835,-58
2021-12-10 13:47:28.484170,-53
2021-12-10 13:47:28.484187,-48
2021-12-10 13:47:28.484196,-46
2021-12-10 13:47:28.484205,-44
2021-12-10 13:47:28.484214,-46
2021-12-10 13:47:28.484222,-41
2021-12-10 13:47:28.484230,-39
2021-12-10 13:47:28.484239,-48
2021-12-10 13:47:28.484247,-51
2021-12-10 13:47:28.484255,-56
2021-12-10 13:47:28.484263,-53
2021-12-10 13:47:28.484272,-51
2021-12-10 13:47:28.484280,-66
2021-12-10 13:47:28.484289,-70
2021-12-10 13:47:28.484297,-80
2021-12-10 13:47:28.484305,-83
2021-12-10 13:47:28.484313,-73
2021-12-10 13:47:28.484322,-85
2021-12-10 13:47:28.484330,-92
2021-12-10 13:47:28.484338,-88
2021-12-10 13:47:28.484347,-92
2021-12-10 13:47:28.484355,-95
2021-12-10 13:47:28.484363,-97
2021-12-10 13:47:28.484371,-92
2021-12-10 13:47:28.484380,-88
2021-12-10 13:47:28.484388,-100
2021-12-10 13:47:28.484396,-100
2021-12-10 13:47:28.484404,-97
2021-12-10 13:47:28.484412,-105
2021-12-10 13:47:28.484421,-105
2021-12-10 13:47:28.665622,-107
2021-12-10 13:47:28.665642,-100
2021-12-10 13:47:28.665651,-95
2021-12-10 13:47:28.665660,-100
2021-12-10 13:47:28.665668,-92
2021-12-10 13:47:28.665677,-97
2021-12-10 13:47:28.665685,-110
2021-12-10 13:47:28.665694,-124
2021-12-10 13:47:28.665702,-149
2021-12-10 13:47:28.665711,-154
2021-12-10 13:47:28.665719,-146
2021-12-10 13:47:28.665727,-154
2021-12-10 13:47:28.665736,-158
2021-12-10 13:47:28.665744,-163
2021-12-10 13:47:28.665753,-158
2021-12-10 13:47:28.665761,-149
2021-12-10 13:47:28.665770,-127
2021-12-10 13:47:28.665778,-58
2021-12-10 13:47:28.665786,119
2021-12-10 13:47:28.665795,376
2021-12-10 13:47:28.665803,251
2021-12-10 13:47:28.665812,-396
2021-12-10 13:47:28.665821,-819
2021-12-10 13:47:28.665829,-626
2021-12-10 13:47:28.665837,-317
2021-12-10 13:47:28.665845,-232
2021-12-10 13:47:28.665854,-190
2021-12-10 13:47:28.665862,-119
2021-12-10 13:47:28.665871,-102
2021-12-10 13:47:28.665879,-105
2021-12-10 13:47:28.890715,-83
2021-12-10 13:47:28.890734,-80
2021-12-10 13:47:28.890744,-80
2021-12-10 13:47:28.890753,-73
2021-12-10 13:47:28.890761,-73
2021-12-10 13:47:28.890770,-68
2021-12-10 13:47:28.890778,-61
2021-12-10 13:47:28.890787,-56
2021-12-10 13:47:28.890795,-41
2021-12-10 13:47:28.890804,-34
2021-12-10 13:47:28.890812,-19
2021-12-10 13:47:28.890820,4
2021-12-10 13:47:28.890829,17
2021-12-10 13:47:28.890837,44
2021-12-10 13:47:28.890846,68
2021-12-10 13:47:28.890854,73
2021-12-10 13:47:28.890863,83
2021-12-10 13:47:28.890871,70
2021-12-10 13:47:28.890880,51
2021-12-10 13:47:28.890888,24
2021-12-10 13:47:28.890896,-19
2021-12-10 13:47:28.890905,-61
2021-12-10 13:47:28.890913,-114
2021-12-10 13:47:28.890921,-173
2021-12-10 13:47:28.890930,-217
2021-12-10 13:47:28.890938,-249
2021-12-10 13:47:28.890946,-269
2021-12-10 13:47:28.890955,-283
2021-12-10 13:47:28.890963,-291
2021-12-10 13:47:28.890971,-291
2021-12-10 13:47:29.160020,-298
2021-12-10 13:47:29.160038,-295
2021-12-10 13:47:29.160048,-288
2021-12-10 13:47:29.160057,-291
2021-12-10 13:47:29.160065,-273
2021-12-10 13:47:29.160074,-256
2021-12-10 13:47:29.160082,-259
2021-12-10 13:47:29.160091,-254
2021-12-10 13:47:29.160099,-239
2021-12-10 13:47:29.160107,-222
2021-12-10 13:47:29.160116,-217
2021-12-10 13:47:29.160124,-222
2021-12-10 13:47:29.160132,-212
2021-12-10 13:47:29.160140,-207
2021-12-10 13:47:29.160149,-202
2021-12-10 13:47:29.160157,-200
2021-12-10 13:47:29.160165,-205
2021-12-10 13:47:29.160179,-200
2021-12-10 13:47:29.160188,-205
2021-12-10 13:47:29.160196,-207
2021-12-10 13:47:29.160204,-200
2021-12-10 13:47:29.160213,-207
2021-12-10 13:47:29.160221,-205
2021-12-10 13:47:29.160229,-198
2021-12-10 13:47:29.160238,-202
2021-12-10 13:47:29.160246,-198
2021-12-10 13:47:29.160254,-195
2021-12-10 13:47:29.160263,-198
2021-12-10 13:47:29.160271,-190
2021-12-10 13:47:29.160280,-183
2021-12-10 13:47:29.385036,-180
2021-12-10 13:47:29.385056,-185
2021-12-10 13:47:29.385066,-183
2021-12-10 13:47:29.385075,-176
2021-12-10 13:47:29.385083,-178
2021-12-10 13:47:29.385092,-171
2021-12-10 13:47:29.385100,-158
2021-12-10 13:47:29.385109,-156
2021-12-10 13:47:29.385117,-141
2021-12-10 13:47:29.385125,-134
2021-12-10 13:47:29.385134,-136
2021-12-10 13:47:29.385142,-144
2021-12-10 13:47:29.385151,-168
2021-12-10 13:47:29.385159,-173
2021-12-10 13:47:29.385168,-163
2021-12-10 13:47:29.385176,-166
2021-12-10 13:47:29.385184,-163
2021-12-10 13:47:29.385193,-163
2021-12-10 13:47:29.385201,-161
2021-12-10 13:47:29.385209,-154
2021-12-10 13:47:29.385218,-141
2021-12-10 13:47:29.385226,-100
2021-12-10 13:47:29.385235,-2
2021-12-10 13:47:29.385243,266
2021-12-10 13:47:29.385252,398
2021-12-10 13:47:29.385260,-80
2021-12-10 13:47:29.385269,-714
2021-12-10 13:47:29.385277,-758
2021-12-10 13:47:29.385285,-398
2021-12-10 13:47:29.385293,-220
2021-12-10 13:47:29.565601,-195
2021-12-10 13:47:29.565620,-97
2021-12-10 13:47:29.565630,-41
2021-12-10 13:47:29.565639,-66
2021-12-10 13:47:29.565648,-61
2021-12-10 13:47:29.565657,-41
2021-12-10 13:47:29.565665,-36
2021-12-10 13:47:29.565674,-24
2021-12-10 13:47:29.565683,-22
2021-12-10 13:47:29.565691,-14
2021-12-10 13:47:29.565700,-9
2021-12-10 13:47:29.565708,-4
2021-12-10 13:47:29.565717,14
2021-12-10 13:47:29.565726,31
2021-12-10 13:47:29.565734,46
2021-12-10 13:47:29.565743,68
2021-12-10 13:47:29.565751,75
2021-12-10 13:47:29.565760,88
2021-12-10 13:47:29.565768,105
2021-12-10 13:47:29.565777,119
2021-12-10 13:47:29.565785,129
2021-12-10 13:47:29.565794,122
2021-12-10 13:47:29.565802,107
2021-12-10 13:47:29.565810,85
2021-12-10 13:47:29.565819,48
2021-12-10 13:47:29.565827,4
2021-12-10 13:47:29.565836,-56
2021-12-10 13:47:29.565844,-114
2021-12-10 13:47:29.565853,-154
2021-12-10 13:47:29.565861,-190
2021-12-10 13:47:29.745582,-210
2021-12-10 13:47:29.745601,-222
2021-12-10 13:47:29.745610,-232
2021-12-10 13:47:29.745619,-232
2021-12-10 13:47:29.745627,-242
2021-12-10 13:47:29.745636,-239
2021-12-10 13:47:29.745644,-229
2021-12-10 13:47:29.745653,-222
2021-12-10 13:47:29.745661,-210
2021-12-10 13:47:29.745670,-205
2021-12-10 13:47:29.745678,-195
2021-12-10 13:47:29.745687,-178
2021-12-10 13:47:29.745695,-171
2021-12-10 13:47:29.745704,-161
2021-12-10 13:47:29.745712,-156
2021-12-10 13:47:29.745720,-154
2021-12-10 13:47:29.745729,-144
2021-12-10 13:47:29.745737,-144
2021-12-10 13:47:29.745746,-134
2021-12-10 13:47:29.745755,-127
2021-12-10 13:47:29.745763,-134
2021-12-10 13:47:29.745772,-136
2021-12-10 13:47:29.745780,-141
2021-12-10 13:47:29.745789,-144
2021-12-10 13:47:29.745797,-141
2021-12-10 13:47:29.745806,-141
2021-12-10 13:47:29.745814,-139
2021-12-10 13:47:29.745823,-144
2021-12-10 13:47:29.745831,-149
2021-12-10 13:47:29.745839,-139
2021-12-10 13:47:30.015655,-136
2021-12-10 13:47:30.015674,-144
2021-12-10 13:47:30.015684,-144
2021-12-10 13:47:30.015692,-146
2021-12-10 13:47:30.015701,-141
2021-12-10 13:47:30.015710,-141
2021-12-10 13:47:30.015718,-141
2021-12-10 13:47:30.015727,-132
2021-12-10 13:47:30.015735,-141
2021-12-10 13:47:30.015744,-144
2021-12-10 13:47:30.015752,-136
2021-12-10 13:47:30.015761,-134
2021-12-10 13:47:30.015769,-132
2021-12-10 13:47:30.015777,-134
2021-12-10 13:47:30.015786,-136
2021-12-10 13:47:30.015794,-141
2021-12-10 13:47:30.015803,-141
2021-12-10 13:47:30.015811,-124
2021-12-10 13:47:30.015820,-114
2021-12-10 13:47:30.015828,-110
2021-12-10 13:47:30.015836,-105
2021-12-10 13:47:30.015845,-105
2021-12-10 13:47:30.015853,-92
2021-12-10 13:47:30.015862,-92
2021-12-10 13:47:30.015870,-119
2021-12-10 13:47:30.015878,-134
2021-12-10 13:47:30.015887,-132
2021-12-10 13:47:30.015895,-122
2021-12-10 13:47:30.015904,-119
2021-12-10 13:47:30.015912,-122
2021-12-10 13:47:30.240604,-117
2021-12-10 13:47:30.240623,-119
2021-12-10 13:47:30.240632,-119
2021-12-10 13:47:30.240641,-85
2021-12-10 13:47:30.240650,-22
2021-12-10 13:47:30.240658,163
2021-12-10 13:47:30.240667,413
2021-12-10 13:47:30.240675,286
2021-12-10 13:47:30.240684,-242
2021-12-10 13:47:30.240692,-586
2021-12-10 13:47:30.240701,-491
2021-12-10 13:47:30.240709,-256
2021-12-10 13:47:30.240718,-154
2021-12-10 13:47:30.240726,-114
2021-12-10 13:47:30.240735,-75
2021-12-10 13:47:30.240743,-66
2021-12-10 13:47:30.240751,-48
2021-12-10 13:47:30.240760,-36
2021-12-10 13:47:30.240768,-26
2021-12-10 13:47:30.240777,-17
2021-12-10 13:47:30.240785,-24
2021-12-10 13:47:30.240794,-24
2021-12-10 13:47:30.240802,-19
2021-12-10 13:47:30.240811,-24
2021-12-10 13:47:30.240819,-22
2021-12-10 13:47:30.240827,-17
2021-12-10 13:47:30.240836,0
2021-12-10 13:47:30.240844,17
2021-12-10 13:47:30.240853,39
2021-12-10 13:47:30.240861,73
2021-12-10 13:47:30.599281,95
2021-12-10 13:47:30.599301,117
2021-12-10 13:47:30.599310,141
2021-12-10 13:47:30.599319,151
2021-12-10 13:47:30.599328,158
2021-12-10 13:47:30.599336,161
2021-12-10 13:47:30.599345,146
2021-12-10 13:47:30.599353,122
2021-12-10 13:47:30.599362,73
2021-12-10 13:47:30.599370,29
2021-12-10 13:47:30.599379,-12
2021-12-10 13:47:30.599387,-53
2021-12-10 13:47:30.599396,-78
2021-12-10 13:47:30.599404,-102
2021-12-10 13:47:30.599412,-122
2021-12-10 13:47:30.599421,-122
2021-12-10 13:47:30.599429,-124
2021-12-10 13:47:30.599437,-117
2021-12-10 13:47:30.599446,-105
2021-12-10 13:47:30.599454,-102
2021-12-10 13:47:30.599462,-100
2021-12-10 13:47:30.599471,-92
2021-12-10 13:47:30.599479,-80
2021-12-10 13:47:30.599487,-75
2021-12-10 13:47:30.599496,-75
2021-12-10 13:47:30.599504,-68
2021-12-10 13:47:30.599513,-73
2021-12-10 13:47:30.599521,-66
2021-12-10 13:47:30.599529,-53
2021-12-10 13:47:30.599537,-58
2021-12-10 13:47:30.735607,-53
2021-12-10 13:47:30.735625,-44
2021-12-10 13:47:30.735635,-46
2021-12-10 13:47:30.735644,-48
2021-12-10 13:47:30.735653,-53
2021-12-10 13:47:30.735661,-53
2021-12-10 13:47:30.735670,-51
2021-12-10 13:47:30.735678,-56
2021-12-10 13:47:30.735687,-46
2021-12-10 13:47:30.735695,-44
2021-12-10 13:47:30.735704,-39
2021-12-10 13:47:30.735712,-29
2021-12-10 13:47:30.735721,-31
2021-12-10 13:47:30.735729,-39
2021-12-10 13:47:30.735737,-44
2021-12-10 13:47:30.735746,-41
2021-12-10 13:47:30.735754,-31
2021-12-10 13:47:30.735763,-41
2021-12-10 13:47:30.735771,-46
2021-12-10 13:47:30.735780,-39
2021-12-10 13:47:30.735788,-41
2021-12-10 13:47:30.735796,-36
2021-12-10 13:47:30.735805,-36
2021-12-10 13:47:30.735813,-44
2021-12-10 13:47:30.735822,-34
2021-12-10 13:47:30.735830,-29
2021-12-10 13:47:30.735839,-26
2021-12-10 13:47:30.735847,-29
2021-12-10 13:47:30.735856,-29
2021-12-10 13:47:30.735864,-19
2021-12-10 13:47:30.960703,-17
2021-12-10 13:47:30.960723,-9
2021-12-10 13:47:30.960733,2
2021-12-10 13:47:30.960742,7
2021-12-10 13:47:30.960751,19
2021-12-10 13:47:30.960760,19
2021-12-10 13:47:30.960768,-7
2021-12-10 13:47:30.960777,-26
2021-12-10 13:47:30.960785,-26
2021-12-10 13:47:30.960794,-9
2021-12-10 13:47:30.960802,-9
2021-12-10 13:47:30.960811,-24
2021-12-10 13:47:30.960819,-24
2021-12-10 13:47:30.960828,-19
2021-12-10 13:47:30.960836,-7
2021-12-10 13:47:30.960845,26
2021-12-10 13:47:30.960853,90
2021-12-10 13:47:30.960862,295
2021-12-10 13:47:30.960870,633
2021-12-10 13:47:30.960879,626
2021-12-10 13:47:30.960887,48
2021-12-10 13:47:30.960896,-471
2021-12-10 13:47:30.960904,-427
2021-12-10 13:47:30.960913,-136
2021-12-10 13:47:30.960921,-19
2021-12-10 13:47:30.960930,12
2021-12-10 13:47:30.960938,70
2021-12-10 13:47:30.960947,88
2021-12-10 13:47:30.960956,92
2021-12-10 13:47:30.960964,112
2021-12-10 13:47:31.140612,127
2021-12-10 13:47:31.140630,122
2021-12-10 13:47:31.140639,117
2021-12-10 13:47:31.140648,129
2021-12-10 13:47:31.140657,129
2021-12-10 13:47:31.140666,129
2021-12-10 13:47:31.140674,136
2021-12-10 13:47:31.140683,141
2021-12-10 13:47:31.140691,161
2021-12-10 13:47:31.140700,176
2021-12-10 13:47:31.140709,190
2021-12-10 13:47:31.140717,217
2021-12-10 13:47:31.140725,229
2021-12-10 13:47:31.140734,246
2021-12-10 13:47:31.140742,261
2021-12-10 13:47:31.140751,261
2021-12-10 13:47:31.140759,261
2021-12-10 13:47:31.140767,244
2021-12-10 13:47:31.140776,220
2021-12-10 13:47:31.140784,188
2021-12-10 13:47:31.140793,139
2021-12-10 13:47:31.140801,88
2021-12-10 13:47:31.140809,29
2021-12-10 13:47:31.140818,-17
2021-12-10 13:47:31.140826,-41
2021-12-10 13:47:31.140835,-78
2021-12-10 13:47:31.140843,-97
2021-12-10 13:47:31.140852,-100
2021-12-10 13:47:31.140860,-107
2021-12-10 13:47:31.140868,-107
2021-12-10 13:47:31.410684,-110
2021-12-10 13:47:31.410702,-105
2021-12-10 13:47:31.410712,-95
2021-12-10 13:47:31.410720,-97
2021-12-10 13:47:31.410729,-92
2021-12-10 13:47:31.410738,-92
2021-12-10 13:47:31.410746,-90
2021-12-10 13:47:31.410755,-73
2021-12-10 13:47:31.410763,-63
2021-12-10 13:47:31.410771,-61
2021-12-10 13:47:31.410780,-61
2021-12-10 13:47:31.410788,-63
2021-12-10 13:47:31.410796,-56
2021-12-10 13:47:31.410805,-56
2021-12-10 13:47:31.410846,-58
2021-12-10 13:47:31.410855,-56
2021-12-10 13:47:31.410864,-61
2021-12-10 13:47:31.410872,-58
2021-12-10 13:47:31.410881,-63
2021-12-10 13:47:31.410889,-75
2021-12-10 13:47:31.410897,-78
2021-12-10 13:47:31.410906,-83
2021-12-10 13:47:31.410914,-83
2021-12-10 13:47:31.410923,-80
2021-12-10 13:47:31.410931,-88
2021-12-10 13:47:31.410939,-88
2021-12-10 13:47:31.410947,-92
2021-12-10 13:47:31.410956,-100
2021-12-10 13:47:31.410965,-95
2021-12-10 13:47:31.410973,-100
2021-12-10 13:47:31.590655,-102
2021-12-10 13:47:31.590674,-100
2021-12-10 13:47:31.590684,-100
2021-12-10 13:47:31.590693,-95
2021-12-10 13:47:31.590701,-102
2021-12-10 13:47:31.590710,-107
2021-12-10 13:47:31.590719,-107
2021-12-10 13:47:31.590727,-114
2021-12-10 13:47:31.590736,-110
2021-12-10 13:47:31.590744,-110
2021-12-10 13:47:31.590753,-112
2021-12-10 13:47:31.590762,-114
2021-12-10 13:47:31.590770,-122
2021-12-10 13:47:31.590779,-114
2021-12-10 13:47:31.590788,-105
2021-12-10 13:47:31.590796,-102
2021-12-10 13:47:31.590805,-107
2021-12-10 13:47:31.590813,-124
2021-12-10 13:47:31.590822,-139
2021-12-10 13:47:31.590830,-144
2021-12-10 13:47:31.590839,-146
2021-12-10 13:47:31.590848,-141
2021-12-10 13:47:31.590856,-151
2021-12-10 13:47:31.590865,-163
2021-12-10 13:47:31.590874,-154
2021-12-10 13:47:31.590882,-146
2021-12-10 13:47:31.590891,-127
2021-12-10 13:47:31.590899,-85
2021-12-10 13:47:31.590908,22
2021-12-10 13:47:31.590917,293
2021-12-10 13:47:31.861342,359
2021-12-10 13:47:31.861366,-156
2021-12-10 13:47:31.861481,-748
2021-12-10 13:47:31.861496,-760
2021-12-10 13:47:31.861505,-408
2021-12-10 13:47:31.861513,-246
2021-12-10 13:47:31.861521,-224
2021-12-10 13:47:31.861529,-141
2021-12-10 13:47:31.861537,-112
2021-12-10 13:47:31.861545,-119
2021-12-10 13:47:31.861553,-100
2021-12-10 13:47:31.861561,-88
2021-12-10 13:47:31.861570,-80
2021-12-10 13:47:31.861578,-75
2021-12-10 13:47:31.861586,-73
2021-12-10 13:47:31.861594,-68
2021-12-10 13:47:31.861603,-61
2021-12-10 13:47:31.861610,-51
2021-12-10 13:47:31.861619,-48
2021-12-10 13:47:31.861627,-34
2021-12-10 13:47:31.861635,-7
2021-12-10 13:47:31.861643,2
2021-12-10 13:47:31.861652,22
2021-12-10 13:47:31.861659,48
2021-12-10 13:47:31.861667,66
2021-12-10 13:47:31.861675,80
2021-12-10 13:47:31.861683,75
2021-12-10 13:47:31.861691,63
2021-12-10 13:47:31.861699,61
2021-12-10 13:47:31.861732,41
2021-12-10 13:47:32.085714,7
2021-12-10 13:47:32.085734,-39
2021-12-10 13:47:32.085744,-95
2021-12-10 13:47:32.085753,-141
2021-12-10 13:47:32.085762,-190
2021-12-10 13:47:32.085770,-224
2021-12-10 13:47:32.085779,-242
2021-12-10 13:47:32.085787,-264
2021-12-10 13:47:32.085796,-276
2021-12-10 13:47:32.085804,-283
2021-12-10 13:47:32.085813,-288
2021-12-10 13:47:32.085821,-283
2021-12-10 13:47:32.085830,-281
2021-12-10 13:47:32.085839,-271
2021-12-10 13:47:32.085847,-264
2021-12-10 13:47:32.085856,-261
2021-12-10 13:47:32.085864,-244
2021-12-10 13:47:32.085873,-237
2021-12-10 13:47:32.085881,-234
2021-12-10 13:47:32.085890,-224
2021-12-10 13:47:32.085898,-220
2021-12-10 13:47:32.085907,-210
2021-12-10 13:47:32.085915,-207
2021-12-10 13:47:32.085924,-202
2021-12-10 13:47:32.085932,-198
2021-12-10 13:47:32.085941,-202
2021-12-10 13:47:32.085949,-202
2021-12-10 13:47:32.085958,-202
2021-12-10 13:47:32.085966,-205
2021-12-10 13:47:32.085975,-202
2021-12-10 13:47:32.355679,-207
2021-12-10 13:47:32.355697,-205
2021-12-10 13:47:32.355706,-202
2021-12-10 13:47:32.355715,-215
2021-12-10 13:47:32.355722,-210
2021-12-10 13:47:32.355731,-202
2021-12-10 13:47:32.355739,-205
2021-12-10 13:47:32.355747,-202
2021-12-10 13:47:32.355755,-215
2021-12-10 13:47:32.355763,-215
2021-12-10 13:47:32.355771,-200
2021-12-10 13:47:32.355780,-205
2021-12-10 13:47:32.355788,-207
2021-12-10 13:47:32.355796,-200
2021-12-10 13:47:32.355804,-200
2021-12-10 13:47:32.355812,-205
2021-12-10 13:47:32.355820,-205
2021-12-10 13:47:32.355828,-188
2021-12-10 13:47:32.355836,-180
2021-12-10 13:47:32.355844,-178
2021-12-10 13:47:32.355852,-163
2021-12-10 13:47:32.355859,-156
2021-12-10 13:47:32.355867,-149
2021-12-10 13:47:32.355875,-149
2021-12-10 13:47:32.355884,-171
2021-12-10 13:47:32.355892,-185
2021-12-10 13:47:32.355900,-183
2021-12-10 13:47:32.355908,-176
2021-12-10 13:47:32.355916,-173
2021-12-10 13:47:32.355924,-176
2021-12-10 13:47:32.579952,-171
2021-12-10 13:47:32.579971,-166
2021-12-10 13:47:32.579981,-158
2021-12-10 13:47:32.579990,-124
2021-12-10 13:47:32.579998,-75
2021-12-10 13:47:32.580007,92
2021-12-10 13:47:32.580015,342
2021-12-10 13:47:32.580024,190
2021-12-10 13:47:32.580032,-474
2021-12-10 13:47:32.580041,-895
2021-12-10 13:47:32.580049,-638
2021-12-10 13:47:32.580058,-286
2021-12-10 13:47:32.580066,-222
2021-12-10 13:47:32.580075,-161
2021-12-10 13:47:32.580083,-70
2021-12-10 13:47:32.580092,-73
2021-12-10 13:47:32.580100,-73
2021-12-10 13:47:32.580108,-48
2021-12-10 13:47:32.580117,-39
2021-12-10 13:47:32.580125,-39
2021-12-10 13:47:32.580134,-36
2021-12-10 13:47:32.580142,-26
2021-12-10 13:47:32.580150,-24
2021-12-10 13:47:32.580159,-19
2021-12-10 13:47:32.580167,-2
2021-12-10 13:47:32.580175,9
2021-12-10 13:47:32.580184,22
2021-12-10 13:47:32.580192,41
2021-12-10 13:47:32.580201,56
2021-12-10 13:47:32.580209,85
2021-12-10 13:47:32.760620,105
2021-12-10 13:47:32.760638,110
2021-12-10 13:47:32.760648,119
2021-12-10 13:47:32.760657,117
2021-12-10 13:47:32.760666,112
2021-12-10 13:47:32.760674,95
2021-12-10 13:47:32.760683,66
2021-12-10 13:47:32.760692,34
2021-12-10 13:47:32.760700,-12
2021-12-10 13:47:32.760709,-61
2021-12-10 13:47:32.760718,-105
2021-12-10 13:47:32.760727,-146
2021-12-10 13:47:32.760735,-173
2021-12-10 13:47:32.760744,-200
2021-12-10 13:47:32.760752,-217
2021-12-10 13:47:32.760761,-220
2021-12-10 13:47:32.760769,-220
2021-12-10 13:47:32.760778,-215
2021-12-10 13:47:32.760786,-210
2021-12-10 13:47:32.760795,-202
2021-12-10 13:47:32.760803,-185
2021-12-10 13:47:32.760812,-178
2021-12-10 13:47:32.760820,-171
2021-12-10 13:47:32.760829,-158
2021-12-10 13:47:32.760837,-151
2021-12-10 13:47:32.760846,-139
2021-12-10 13:47:32.760854,-134
2021-12-10 13:47:32.760863,-129
2021-12-10 13:47:32.760871,-117
2021-12-10 13:47:32.760880,-119
2021-12-10 13:47:33.030140,-117
2021-12-10 13:47:33.030159,-119
2021-12-10 13:47:33.030169,-122
2021-12-10 13:47:33.030178,-119
2021-12-10 13:47:33.030187,-122
2021-12-10 13:47:33.030195,-119
2021-12-10 13:47:33.030204,-117
2021-12-10 13:47:33.030213,-129
2021-12-10 13:47:33.030221,-127
2021-12-10 13:47:33.030230,-127
2021-12-10 13:47:33.030238,-129
2021-12-10 13:47:33.030247,-122
2021-12-10 13:47:33.030255,-124
2021-12-10 13:47:33.030264,-124
2021-12-10 13:47:33.030272,-119
2021-12-10 13:47:33.030281,-119
2021-12-10 13:47:33.030290,-114
2021-12-10 13:47:33.030298,-114
2021-12-10 13:47:33.030307,-117
2021-12-10 13:47:33.030315,-114
2021-12-10 13:47:33.030324,-117
2021-12-10 13:47:33.030332,-112
2021-12-10 13:47:33.030341,-107
2021-12-10 13:47:33.030349,-110
2021-12-10 13:47:33.030358,-107
2021-12-10 13:47:33.030367,-110
2021-12-10 13:47:33.030375,-102
2021-12-10 13:47:33.030384,-92
2021-12-10 13:47:33.030392,-92
2021-12-10 13:47:33.030401,-88
2021-12-10 13:47:33.210634,-85
2021-12-10 13:47:33.210652,-73
2021-12-10 13:47:33.210662,-66
2021-12-10 13:47:33.210671,-83
2021-12-10 13:47:33.210680,-102
2021-12-10 13:47:33.210688,-107
2021-12-10 13:47:33.210697,-105
2021-12-10 13:47:33.210705,-102
2021-12-10 13:47:33.210714,-110
2021-12-10 13:47:33.210722,-100
2021-12-10 13:47:33.210731,-95
2021-12-10 13:47:33.210739,-100
2021-12-10 13:47:33.210748,-75
2021-12-10 13:47:33.210756,-24
2021-12-10 13:47:33.210765,124
2021-12-10 13:47:33.210773,435
2021-12-10 13:47:33.210782,486
2021-12-10 13:47:33.210790,-36
2021-12-10 13:47:33.210798,-584
2021-12-10 13:47:33.210807,-599
2021-12-10 13:47:33.210816,-305
2021-12-10 13:47:33.210824,-166
2021-12-10 13:47:33.210832,-122
2021-12-10 13:47:33.210841,-56
2021-12-10 13:47:33.210849,-46
2021-12-10 13:47:33.210858,-39
2021-12-10 13:47:33.210866,-14
2021-12-10 13:47:33.210875,-4
2021-12-10 13:47:33.210883,4
2021-12-10 13:47:33.210892,14
2021-12-10 13:47:33.525111,24
2021-12-10 13:47:33.525132,26
2021-12-10 13:47:33.525141,24
2021-12-10 13:47:33.525150,36
2021-12-10 13:47:33.525159,51
2021-12-10 13:47:33.525167,68
2021-12-10 13:47:33.525176,85
2021-12-10 13:47:33.525184,100
2021-12-10 13:47:33.525193,127
2021-12-10 13:47:33.525201,146
2021-12-10 13:47:33.525209,161
2021-12-10 13:47:33.525218,176
2021-12-10 13:47:33.525226,171
2021-12-10 13:47:33.525234,168
2021-12-10 13:47:33.525243,161
2021-12-10 13:47:33.525251,141
2021-12-10 13:47:33.525260,119
2021-12-10 13:47:33.525268,75
2021-12-10 13:47:33.525276,31
2021-12-10 13:47:33.525285,4
2021-12-10 13:47:33.525293,-34
2021-12-10 13:47:33.525301,-58
2021-12-10 13:47:33.525310,-73
2021-12-10 13:47:33.525318,-88
2021-12-10 13:47:33.525326,-90
2021-12-10 13:47:33.525335,-92
2021-12-10 13:47:33.525343,-92
2021-12-10 13:47:33.525351,-88
2021-12-10 13:47:33.525360,-80
2021-12-10 13:47:33.525368,-61
2021-12-10 13:47:33.794962,-51
2021-12-10 13:47:33.794980,-39
2021-12-10 13:47:33.794989,-24
2021-12-10 13:47:33.794998,-19
2021-12-10 13:47:33.795006,-9
2021-12-10 13:47:33.795015,-9
2021-12-10 13:47:33.795023,-2
2021-12-10 13:47:33.795031,14
2021-12-10 13:47:33.795040,17
2021-12-10 13:47:33.795048,17
2021-12-10 13:47:33.795056,22
2021-12-10 13:47:33.795065,22
2021-12-10 13:47:33.795073,26
2021-12-10 13:47:33.795081,22
2021-12-10 13:47:33.795089,19
2021-12-10 13:47:33.795096,24
2021-12-10 13:47:33.795104,19
2021-12-10 13:47:33.795112,22
2021-12-10 13:47:33.795121,19
2021-12-10 13:47:33.795130,17
2021-12-10 13:47:33.795139,22
2021-12-10 13:47:33.795147,12
2021-12-10 13:47:33.795156,9
2021-12-10 13:47:33.795165,17
2021-12-10 13:47:33.795174,9
2021-12-10 13:47:33.795182,12
2021-12-10 13:47:33.795191,22
2021-12-10 13:47:33.795199,22
2021-12-10 13:47:33.795207,19
2021-12-10 13:47:33.795215,14
2021-12-10 13:47:33.930749,19
2021-12-10 13:47:33.930769,17
2021-12-10 13:47:33.930780,9
2021-12-10 13:47:33.930790,17
2021-12-10 13:47:33.930799,17
2021-12-10 13:47:33.930809,26
2021-12-10 13:47:33.930818,39
2021-12-10 13:47:33.930827,36
2021-12-10 13:47:33.930836,48
2021-12-10 13:47:33.930845,56
2021-12-10 13:47:33.930854,41
2021-12-10 13:47:33.930864,14
2021-12-10 13:47:33.930873,-2
2021-12-10 13:47:33.930882,14
2021-12-10 13:47:33.930891,19
2021-12-10 13:47:33.930900,-2
2021-12-10 13:47:33.930910,0
2021-12-10 13:47:33.930919,2
2021-12-10 13:47:33.930928,-4
2021-12-10 13:47:33.930945,4
2021-12-10 13:47:33.930954,41
2021-12-10 13:47:33.930963,146
2021-12-10 13:47:33.930973,415
2021-12-10 13:47:33.930981,618
2021-12-10 13:47:33.930990,278
2021-12-10 13:47:33.930999,-388
2021-12-10 13:47:33.931008,-621
2021-12-10 13:47:33.931017,-347
2021-12-10 13:47:33.931026,-124
2021-12-10 13:47:33.931035,-78
2021-12-10 13:47:34.200061,-22
2021-12-10 13:47:34.200080,17
2021-12-10 13:47:34.200089,12
2021-12-10 13:47:34.200098,12
2021-12-10 13:47:34.200107,26
2021-12-10 13:47:34.200115,34
2021-12-10 13:47:34.200124,39
2021-12-10 13:47:34.200132,46
2021-12-10 13:47:34.200141,39
2021-12-10 13:47:34.200149,36
2021-12-10 13:47:34.200158,39
2021-12-10 13:47:34.200166,39
2021-12-10 13:47:34.200175,53
2021-12-10 13:47:34.200183,70
2021-12-10 13:47:34.200192,83
2021-12-10 13:47:34.200200,100
2021-12-10 13:47:34.200208,112
2021-12-10 13:47:34.200217,132
2021-12-10 13:47:34.200225,146
2021-12-10 13:47:34.200234,146
2021-12-10 13:47:34.200242,149
2021-12-10 13:47:34.200250,129
2021-12-10 13:47:34.200259,107
2021-12-10 13:47:34.200267,78
2021-12-10 13:47:34.200275,22
2021-12-10 13:47:34.200284,-29
2021-12-10 13:47:34.200293,-80
2021-12-10 13:47:34.200301,-132
2021-12-10 13:47:34.200310,-171
2021-12-10 13:47:34.200318,-207
2021-12-10 13:47:34.380704,-232
2021-12-10 13:47:34.380724,-251
2021-12-10 13:47:34.380734,-271
2021-12-10 13:47:34.380743,-269
2021-12-10 13:47:34.380751,-271
2021-12-10 13:47:34.380760,-278
2021-12-10 13:47:34.380768,-281
2021-12-10 13:47:34.380777,-276
2021-12-10 13:47:34.380785,-269
2021-12-10 13:47:34.380806,-266
2021-12-10 13:47:34.380815,-259
2021-12-10 13:47:34.380823,-249
2021-12-10 13:47:34.380832,-251
2021-12-10 13:47:34.380840,-234
2021-12-10 13:47:34.380848,-229
2021-12-10 13:47:34.380857,-242
2021-12-10 13:47:34.380865,-234
2021-12-10 13:47:34.380873,-234
2021-12-10 13:47:34.380881,-239
2021-12-10 13:47:34.380890,-244
2021-12-10 13:47:34.380898,-254
2021-12-10 13:47:34.380906,-254
2021-12-10 13:47:34.380915,-251
2021-12-10 13:47:34.380923,-256
2021-12-10 13:47:34.380931,-256
2021-12-10 13:47:34.380939,-261
2021-12-10 13:47:34.380948,-264
2021-12-10 13:47:34.380956,-259
2021-12-10 13:47:34.380964,-259
2021-12-10 13:47:34.380972,-254
2021-12-10 13:47:34.649321,-259
2021-12-10 13:47:34.649341,-264
2021-12-10 13:47:34.649351,-256
2021-12-10 13:47:34.649360,-246
2021-12-10 13:47:34.649368,-237
2021-12-10 13:47:34.649377,-234
2021-12-10 13:47:34.649385,-229
2021-12-10 13:47:34.649394,-215
2021-12-10 13:47:34.649402,-222
2021-12-10 13:47:34.649410,-227
2021-12-10 13:47:34.649419,-232
2021-12-10 13:47:34.649427,-251
2021-12-10 13:47:34.649435,-249
2021-12-10 13:47:34.649444,-244
2021-12-10 13:47:34.649452,-254
2021-12-10 13:47:34.649460,-251
2021-12-10 13:47:34.649469,-249
2021-12-10 13:47:34.649477,-254
2021-12-10 13:47:34.649485,-254
2021-12-10 13:47:34.649494,-229
2021-12-10 13:47:34.649502,-185
2021-12-10 13:47:34.649510,-114
2021-12-10 13:47:34.649518,102
2021-12-10 13:47:34.649527,300
2021-12-10 13:47:34.649535,-26
2021-12-10 13:47:34.649543,-711
2021-12-10 13:47:34.649552,-939
2021-12-10 13:47:34.649560,-577
2021-12-10 13:47:34.649568,-303
2021-12-10 13:47:34.649577,-281
2021-12-10 13:47:34.875697,-193
2021-12-10 13:47:34.875716,-117
2021-12-10 13:47:34.875725,-136
2021-12-10 13:47:34.875734,-124
2021-12-10 13:47:34.875742,-100
2021-12-10 13:47:34.875750,-102
2021-12-10 13:47:34.875758,-97
2021-12-10 13:47:34.875766,-85
2021-12-10 13:47:34.875774,-78
2021-12-10 13:47:34.875783,-75
2021-12-10 13:47:34.875791,-63
2021-12-10 13:47:34.875799,-51
2021-12-10 13:47:34.875807,-44
2021-12-10 13:47:34.875816,-29
2021-12-10 13:47:34.875824,-12
2021-12-10 13:47:34.875833,0
2021-12-10 13:47:34.875841,24
2021-12-10 13:47:34.875850,44
2021-12-10 13:47:34.875858,58
2021-12-10 13:47:34.875866,63
2021-12-10 13:47:34.875875,46
2021-12-10 13:47:34.875883,34
2021-12-10 13:47:34.875891,17
2021-12-10 13:47:34.875899,-14
2021-12-10 13:47:34.875907,-48
2021-12-10 13:47:34.875916,-105
2021-12-10 13:47:34.875924,-156
2021-12-10 13:47:34.875933,-193
2021-12-10 13:47:34.875941,-222
2021-12-10 13:47:34.875949,-237
2021-12-10 13:47:35.100737,-256
2021-12-10 13:47:35.100757,-271
2021-12-10 13:47:35.100767,-273
2021-12-10 13:47:35.100776,-273
2021-12-10 13:47:35.100784,-261
2021-12-10 13:47:35.100793,-251
2021-12-10 13:47:35.100801,-251
2021-12-10 13:47:35.100810,-239
2021-12-10 13:47:35.100818,-229
2021-12-10 13:47:35.100827,-217
2021-12-10 13:47:35.100835,-202
2021-12-10 13:47:35.100844,-193
2021-12-10 13:47:35.100852,-178
2021-12-10 13:47:35.100861,-173
2021-12-10 13:47:35.100869,-168
2021-12-10 13:47:35.100878,-158
2021-12-10 13:47:35.100886,-158
2021-12-10 13:47:35.100894,-154
2021-12-10 13:47:35.100903,-156
2021-12-10 13:47:35.100911,-163
2021-12-10 13:47:35.100919,-156
2021-12-10 13:47:35.100928,-161
2021-12-10 13:47:35.100936,-168
2021-12-10 13:47:35.100944,-171
2021-12-10 13:47:35.100953,-176
2021-12-10 13:47:35.100961,-168
2021-12-10 13:47:35.100970,-168
2021-12-10 13:47:35.100978,-166
2021-12-10 13:47:35.100986,-158
2021-12-10 13:47:35.100994,-161
2021-12-10 13:47:35.280700,-158
2021-12-10 13:47:35.280719,-158
2021-12-10 13:47:35.280729,-156
2021-12-10 13:47:35.280737,-149
2021-12-10 13:47:35.280746,-151
2021-12-10 13:47:35.280755,-151
2021-12-10 13:47:35.280763,-149
2021-12-10 13:47:35.280771,-156
2021-12-10 13:47:35.280780,-146
2021-12-10 13:47:35.280788,-134
2021-12-10 13:47:35.280797,-127
2021-12-10 13:47:35.280805,-117
2021-12-10 13:47:35.280813,-114
2021-12-10 13:47:35.280821,-102
2021-12-10 13:47:35.280830,-105
2021-12-10 13:47:35.280838,-129
2021-12-10 13:47:35.280846,-136
2021-12-10 13:47:35.280855,-134
2021-12-10 13:47:35.280864,-132
2021-12-10 13:47:35.280872,-129
2021-12-10 13:47:35.280880,-132
2021-12-10 13:47:35.280889,-127
2021-12-10 13:47:35.280897,-127
2021-12-10 13:47:35.280905,-119
2021-12-10 13:47:35.280914,-85
2021-12-10 13:47:35.280922,-12
2021-12-10 13:47:35.280930,227
2021-12-10 13:47:35.280938,462
2021-12-10 13:47:35.280947,195
2021-12-10 13:47:35.280955,-430
2021-12-10 13:47:35.505701,-687
2021-12-10 13:47:35.505718,-437
2021-12-10 13:47:35.505728,-207
2021-12-10 13:47:35.505736,-158
2021-12-10 13:47:35.505745,-92
2021-12-10 13:47:35.505753,-51
2021-12-10 13:47:35.505762,-61
2021-12-10 13:47:35.505770,-34
2021-12-10 13:47:35.505779,-12
2021-12-10 13:47:35.505787,-19
2021-12-10 13:47:35.505795,-17
2021-12-10 13:47:35.505804,-12
2021-12-10 13:47:35.505812,-7
2021-12-10 13:47:35.505820,-4
2021-12-10 13:47:35.505829,2
2021-12-10 13:47:35.505837,19
2021-12-10 13:47:35.505845,26
2021-12-10 13:47:35.505853,39
2021-12-10 13:47:35.505862,53
2021-12-10 13:47:35.505870,70
2021-12-10 13:47:35.505878,97
2021-12-10 13:47:35.505887,112
2021-12-10 13:47:35.505895,127
2021-12-10 13:47:35.505903,134
2021-12-10 13:47:35.505911,124
2021-12-10 13:47:35.505920,117
2021-12-10 13:47:35.505928,97
2021-12-10 13:47:35.505936,66
2021-12-10 13:47:35.505944,29
2021-12-10 13:47:35.505952,-19
2021-12-10 13:47:35.730631,-63
2021-12-10 13:47:35.730649,-105
2021-12-10 13:47:35.730659,-144
2021-12-10 13:47:35.730668,-163
2021-12-10 13:47:35.730677,-180
2021-12-10 13:47:35.730685,-190
2021-12-10 13:47:35.730694,-190
2021-12-10 13:47:35.730703,-190
2021-12-10 13:47:35.730711,-180
2021-12-10 13:47:35.730720,-178
2021-12-10 13:47:35.730728,-176
2021-12-10 13:47:35.730737,-166
2021-12-10 13:47:35.730745,-161
2021-12-10 13:47:35.730754,-146
2021-12-10 13:47:35.730762,-136
2021-12-10 13:47:35.730771,-134
2021-12-10 13:47:35.730779,-117
2021-12-10 13:47:35.730788,-107
2021-12-10 13:47:35.730796,-100
2021-12-10 13:47:35.730804,-90
2021-12-10 13:47:35.730813,-88
2021-12-10 13:47:35.730821,-80
2021-12-10 13:47:35.730830,-78
2021-12-10 13:47:35.730839,-78
2021-12-10 13:47:35.730847,-73
2021-12-10 13:47:35.730855,-75
2021-12-10 13:47:35.730864,-73
2021-12-10 13:47:35.730872,-66
2021-12-10 13:47:35.730880,-70
2021-12-10 13:47:35.730889,-66
2021-12-10 13:47:36.045770,-61
2021-12-10 13:47:36.045791,-61
2021-12-10 13:47:36.045801,-58
2021-12-10 13:47:36.045810,-63
2021-12-10 13:47:36.045819,-61
2021-12-10 13:47:36.045828,-66
2021-12-10 13:47:36.045836,-66
2021-12-10 13:47:36.045845,-53
2021-12-10 13:47:36.045853,-53
2021-12-10 13:47:36.045862,-53
2021-12-10 13:47:36.045871,-46
2021-12-10 13:47:36.045879,-44
2021-12-10 13:47:36.045887,-26
2021-12-10 13:47:36.045896,-19
2021-12-10 13:47:36.045905,-17
2021-12-10 13:47:36.045913,-2
2021-12-10 13:47:36.045922,-2
2021-12-10 13:47:36.045930,-12
2021-12-10 13:47:36.045939,-22
2021-12-10 13:47:36.045947,-22
2021-12-10 13:47:36.045956,-4
2021-12-10 13:47:36.045964,-7
2021-12-10 13:47:36.045973,-7
2021-12-10 13:47:36.045981,4
2021-12-10 13:47:36.045990,7
2021-12-10 13:47:36.045998,17
2021-12-10 13:47:36.046007,36
2021-12-10 13:47:36.046015,90
2021-12-10 13:47:36.046024,269
2021-12-10 13:47:36.046032,584
2021-12-10 13:47:36.225693,601
2021-12-10 13:47:36.225712,26
2021-12-10 13:47:36.225722,-525
2021-12-10 13:47:36.225730,-489
2021-12-10 13:47:36.225739,-180
2021-12-10 13:47:36.225747,-51
2021-12-10 13:47:36.225756,-17
2021-12-10 13:47:36.225764,44
2021-12-10 13:47:36.225773,63
2021-12-10 13:47:36.225781,58
2021-12-10 13:47:36.225790,73
2021-12-10 13:47:36.225798,92
2021-12-10 13:47:36.225806,88
2021-12-10 13:47:36.225815,95
2021-12-10 13:47:36.225823,102
2021-12-10 13:47:36.225832,95
2021-12-10 13:47:36.225840,107
2021-12-10 13:47:36.225848,117
2021-12-10 13:47:36.225857,124
2021-12-10 13:47:36.225865,129
2021-12-10 13:47:36.225873,132
2021-12-10 13:47:36.225882,154
2021-12-10 13:47:36.225890,176
2021-12-10 13:47:36.225898,183
2021-12-10 13:47:36.225906,198
2021-12-10 13:47:36.225915,205
2021-12-10 13:47:36.225923,205
2021-12-10 13:47:36.225931,190
2021-12-10 13:47:36.225940,166
2021-12-10 13:47:36.225948,144
2021-12-10 13:47:36.450683,102
2021-12-10 13:47:36.450700,46
2021-12-10 13:47:36.450710,-12
2021-12-10 13:47:36.450719,-78
2021-12-10 13:47:36.450727,-114
2021-12-10 13:47:36.450736,-146
2021-12-10 13:47:36.450744,-183
2021-12-10 13:47:36.450752,-202
2021-12-10 13:47:36.450761,-220
2021-12-10 13:47:36.450769,-227
2021-12-10 13:47:36.450778,-224
2021-12-10 13:47:36.450786,-222
2021-12-10 13:47:36.450794,-217
2021-12-10 13:47:36.450803,-215
2021-12-10 13:47:36.450811,-210
2021-12-10 13:47:36.450819,-205
2021-12-10 13:47:36.450828,-205
2021-12-10 13:47:36.450836,-193
2021-12-10 13:47:36.450845,-188
2021-12-10 13:47:36.450853,-198
2021-12-10 13:47:36.450861,-193
2021-12-10 13:47:36.450870,-193
2021-12-10 13:47:36.450878,-195
2021-12-10 13:47:36.450886,-188
2021-12-10 13:47:36.450895,-190
2021-12-10 13:47:36.450903,-193
2021-12-10 13:47:36.450911,-198
2021-12-10 13:47:36.450920,-202
2021-12-10 13:47:36.450928,-200
2021-12-10 13:47:36.450936,-200
2021-12-10 13:47:36.764357,-200
2021-12-10 13:47:36.764376,-200
2021-12-10 13:47:36.764385,-210
2021-12-10 13:47:36.764394,-210
2021-12-10 13:47:36.764403,-207
2021-12-10 13:47:36.764411,-205
2021-12-10 13:47:36.764420,-200
2021-12-10 13:47:36.764428,-200
2021-12-10 13:47:36.764436,-200
2021-12-10 13:47:36.764445,-202
2021-12-10 13:47:36.764453,-202
2021-12-10 13:47:36.764461,-193
2021-12-10 13:47:36.764470,-185
2021-12-10 13:47:36.764478,-188
2021-12-10 13:47:36.764486,-210
2021-12-10 13:47:36.764495,-229
2021-12-10 13:47:36.764503,-227
2021-12-10 13:47:36.764511,-224
2021-12-10 13:47:36.764520,-227
2021-12-10 13:47:36.764528,-224
2021-12-10 13:47:36.764537,-224
2021-12-10 13:47:36.764545,-220
2021-12-10 13:47:36.764553,-220
2021-12-10 13:47:36.764562,-210
2021-12-10 13:47:36.764570,-168
2021-12-10 13:47:36.764579,-105
2021-12-10 13:47:36.764587,88
2021-12-10 13:47:36.764595,327
2021-12-10 13:47:36.764604,100
2021-12-10 13:47:36.764612,-599
2021-12-10 13:47:36.900819,-951
2021-12-10 13:47:36.900839,-638
2021-12-10 13:47:36.900849,-313
2021-12-10 13:47:36.900857,-266
2021-12-10 13:47:36.900866,-198
2021-12-10 13:47:36.900878,-114
2021-12-10 13:47:36.900887,-119
2021-12-10 13:47:36.900895,-105
2021-12-10 13:47:36.900904,-78
2021-12-10 13:47:36.900912,-78
2021-12-10 13:47:36.900921,-75
2021-12-10 13:47:36.900929,-66
2021-12-10 13:47:36.900938,-51
2021-12-10 13:47:36.900946,-46
2021-12-10 13:47:36.900955,-46
2021-12-10 13:47:36.900963,-31
2021-12-10 13:47:36.900972,-19
2021-12-10 13:47:36.900980,0
2021-12-10 13:47:36.900988,17
2021-12-10 13:47:36.900997,31
2021-12-10 13:47:36.901005,58
2021-12-10 13:47:36.901014,73
2021-12-10 13:47:36.901022,80
2021-12-10 13:47:36.901031,92
2021-12-10 13:47:36.901039,85
2021-12-10 13:47:36.901047,61
2021-12-10 13:47:36.901056,34
2021-12-10 13:47:36.901064,4
2021-12-10 13:47:36.901073,-36
2021-12-10 13:47:36.901081,-95
2021-12-10 13:47:37.125717,-146
2021-12-10 13:47:37.125736,-190
2021-12-10 13:47:37.125746,-224
2021-12-10 13:47:37.125755,-242
2021-12-10 13:47:37.125763,-266
2021-12-10 13:47:37.125772,-276
2021-12-10 13:47:37.125780,-269
2021-12-10 13:47:37.125788,-278
2021-12-10 13:47:37.125796,-283
2021-12-10 13:47:37.125805,-273
2021-12-10 13:47:37.125813,-259
2021-12-10 13:47:37.125822,-249
2021-12-10 13:47:37.125830,-244
2021-12-10 13:47:37.125838,-227
2021-12-10 13:47:37.125847,-220
2021-12-10 13:47:37.125855,-215
2021-12-10 13:47:37.125863,-200
2021-12-10 13:47:37.125872,-195
2021-12-10 13:47:37.125880,-190
2021-12-10 13:47:37.125888,-176
2021-12-10 13:47:37.125896,-176
2021-12-10 13:47:37.125905,-180
2021-12-10 13:47:37.125913,-178
2021-12-10 13:47:37.125921,-171
2021-12-10 13:47:37.125929,-171
2021-12-10 13:47:37.125937,-188
2021-12-10 13:47:37.125946,-185
2021-12-10 13:47:37.125954,-178
2021-12-10 13:47:37.125963,-185
2021-12-10 13:47:37.125971,-180
2021-12-10 13:47:37.350652,-180
2021-12-10 13:47:37.350670,-180
2021-12-10 13:47:37.350680,-173
2021-12-10 13:47:37.350688,-173
2021-12-10 13:47:37.350697,-173
2021-12-10 13:47:37.350706,-173
2021-12-10 13:47:37.350714,-173
2021-12-10 13:47:37.350723,-161
2021-12-10 13:47:37.350731,-151
2021-12-10 13:47:37.350740,-146
2021-12-10 13:47:37.350749,-139
2021-12-10 13:47:37.350757,-132
2021-12-10 13:47:37.350766,-129
2021-12-10 13:47:37.350774,-141
2021-12-10 13:47:37.350783,-154
2021-12-10 13:47:37.350792,-156
2021-12-10 13:47:37.350800,-158
2021-12-10 13:47:37.350808,-151
2021-12-10 13:47:37.350817,-149
2021-12-10 13:47:37.350826,-151
2021-12-10 13:47:37.350834,-144
2021-12-10 13:47:37.350842,-144
2021-12-10 13:47:37.350851,-134
2021-12-10 13:47:37.350859,-107
2021-12-10 13:47:37.350868,-39
2021-12-10 13:47:37.350876,200
2021-12-10 13:47:37.350885,484
2021-12-10 13:47:37.350893,269
2021-12-10 13:47:37.350902,-437
2021-12-10 13:47:37.350910,-797
2021-12-10 13:47:37.575737,-515
2021-12-10 13:47:37.575757,-239
2021-12-10 13:47:37.575767,-202
2021-12-10 13:47:37.575775,-122
2021-12-10 13:47:37.575783,-56
2021-12-10 13:47:37.575790,-68
2021-12-10 13:47:37.575798,-53
2021-12-10 13:47:37.575805,-26
2021-12-10 13:47:37.575812,-24
2021-12-10 13:47:37.575820,-22
2021-12-10 13:47:37.575827,-12
2021-12-10 13:47:37.575835,-4
2021-12-10 13:47:37.575844,-7
2021-12-10 13:47:37.575852,9
2021-12-10 13:47:37.575860,26
2021-12-10 13:47:37.575868,34
2021-12-10 13:47:37.575876,56
2021-12-10 13:47:37.575885,73
2021-12-10 13:47:37.575893,85
2021-12-10 13:47:37.575902,114
2021-12-10 13:47:37.575910,139
2021-12-10 13:47:37.575918,151
2021-12-10 13:47:37.575927,144
2021-12-10 13:47:37.575935,134
2021-12-10 13:47:37.575943,132
2021-12-10 13:47:37.575952,110
2021-12-10 13:47:37.575960,78
2021-12-10 13:47:37.575968,39
2021-12-10 13:47:37.575977,-17
2021-12-10 13:47:37.575985,-61
2021-12-10 13:47:37.845614,-100
2021-12-10 13:47:37.845632,-132
2021-12-10 13:47:37.845641,-149
2021-12-10 13:47:37.845650,-168
2021-12-10 13:47:37.845659,-173
2021-12-10 13:47:37.845668,-176
2021-12-10 13:47:37.845676,-183
2021-12-10 13:47:37.845685,-178
2021-12-10 13:47:37.845693,-176
2021-12-10 13:47:37.845702,-163
2021-12-10 13:47:37.845710,-154
2021-12-10 13:47:37.845719,-154
2021-12-10 13:47:37.845727,-141
2021-12-10 13:47:37.845736,-124
2021-12-10 13:47:37.845744,-110
2021-12-10 13:47:37.845753,-102
2021-12-10 13:47:37.845761,-105
2021-12-10 13:47:37.845770,-92
2021-12-10 13:47:37.845778,-83
2021-12-10 13:47:37.845786,-90
2021-12-10 13:47:37.845795,-88
2021-12-10 13:47:37.845803,-90
2021-12-10 13:47:37.845812,-92
2021-12-10 13:47:37.845820,-95
2021-12-10 13:47:37.845829,-102
2021-12-10 13:47:37.845837,-100
2021-12-10 13:47:37.845846,-105
2021-12-10 13:47:37.845854,-107
2021-12-10 13:47:37.845863,-102
2021-12-10 13:47:37.845871,-110
2021-12-10 13:47:38.070767,-110
2021-12-10 13:47:38.070788,-110
2021-12-10 13:47:38.070797,-114
2021-12-10 13:47:38.070806,-110
2021-12-10 13:47:38.070815,-112
2021-12-10 13:47:38.070824,-119
2021-12-10 13:47:38.070832,-112
2021-12-10 13:47:38.070841,-110
2021-12-10 13:47:38.070849,-102
2021-12-10 13:47:38.070858,-95
2021-12-10 13:47:38.070866,-97
2021-12-10 13:47:38.070875,-85
2021-12-10 13:47:38.070884,-78
2021-12-10 13:47:38.070892,-78
2021-12-10 13:47:38.070901,-95
2021-12-10 13:47:38.070909,-119
2021-12-10 13:47:38.070918,-117
2021-12-10 13:47:38.070926,-112
2021-12-10 13:47:38.070935,-114
2021-12-10 13:47:38.070943,-110
2021-12-10 13:47:38.070951,-110
2021-12-10 13:47:38.070960,-112
2021-12-10 13:47:38.070968,-110
2021-12-10 13:47:38.070977,-90
2021-12-10 13:47:38.070985,-36
2021-12-10 13:47:38.070993,122
2021-12-10 13:47:38.071002,418
2021-12-10 13:47:38.071010,398
2021-12-10 13:47:38.071019,-171
2021-12-10 13:47:38.071027,-635
2021-12-10 13:47:38.295132,-562
2021-12-10 13:47:38.295151,-291
2021-12-10 13:47:38.295161,-171
2021-12-10 13:47:38.295170,-132
2021-12-10 13:47:38.295179,-75
2021-12-10 13:47:38.295187,-56
2021-12-10 13:47:38.295196,-46
2021-12-10 13:47:38.295204,-24
2021-12-10 13:47:38.295213,-22
2021-12-10 13:47:38.295221,-19
2021-12-10 13:47:38.295230,-7
2021-12-10 13:47:38.295247,-7
2021-12-10 13:47:38.295256,4
2021-12-10 13:47:38.295265,12
2021-12-10 13:47:38.295273,17
2021-12-10 13:47:38.295281,29
2021-12-10 13:47:38.295290,36
2021-12-10 13:47:38.295298,56
2021-12-10 13:47:38.295307,78
2021-12-10 13:47:38.295315,100
2021-12-10 13:47:38.295323,124
2021-12-10 13:47:38.295332,136
2021-12-10 13:47:38.295340,146
2021-12-10 13:47:38.295348,154
2021-12-10 13:47:38.295357,139
2021-12-10 13:47:38.295365,127
2021-12-10 13:47:38.295374,102
2021-12-10 13:47:38.295382,58
2021-12-10 13:47:38.295390,14
2021-12-10 13:47:38.295399,-44
2021-12-10 13:47:38.520720,-90
2021-12-10 13:47:38.520738,-122
2021-12-10 13:47:38.520748,-156
2021-12-10 13:47:38.520757,-180
2021-12-10 13:47:38.520765,-195
2021-12-10 13:47:38.520774,-195
2021-12-10 13:47:38.520782,-193
2021-12-10 13:47:38.520791,-198
2021-12-10 13:47:38.520799,-188
2021-12-10 13:47:38.520808,-188
2021-12-10 13:47:38.520816,-188
2021-12-10 13:47:38.520825,-171
2021-12-10 13:47:38.520833,-163
2021-12-10 13:47:38.520842,-161
2021-12-10 13:47:38.520850,-149
2021-12-10 13:47:38.520859,-141
2021-12-10 13:47:38.520867,-132
2021-12-10 13:47:38.520875,-129
2021-12-10 13:47:38.520884,-124
2021-12-10 13:47:38.520892,-114
2021-12-10 13:47:38.520901,-119
2021-12-10 13:47:38.520909,-117
2021-12-10 13:47:38.520918,-117
2021-12-10 13:47:38.520926,-119
2021-12-10 13:47:38.520934,-114
2021-12-10 13:47:38.520943,-119
2021-12-10 13:47:38.520951,-122
2021-12-10 13:47:38.520960,-122
2021-12-10 13:47:38.520968,-127
2021-12-10 13:47:38.520977,-122
2021-12-10 13:47:38.789334,-122
2021-12-10 13:47:38.789353,-124
2021-12-10 13:47:38.789363,-122
2021-12-10 13:47:38.789372,-124
2021-12-10 13:47:38.789380,-117
2021-12-10 13:47:38.789389,-114
2021-12-10 13:47:38.789397,-112
2021-12-10 13:47:38.789406,-100
2021-12-10 13:47:38.789414,-102
2021-12-10 13:47:38.789423,-110
2021-12-10 13:47:38.789431,-122
2021-12-10 13:47:38.789439,-139
2021-12-10 13:47:38.789448,-129
2021-12-10 13:47:38.789456,-119
2021-12-10 13:47:38.789465,-129
2021-12-10 13:47:38.789473,-127
2021-12-10 13:47:38.789481,-127
2021-12-10 13:47:38.789490,-122
2021-12-10 13:47:38.789498,-114
2021-12-10 13:47:38.789506,-90
2021-12-10 13:47:38.789515,-14
2021-12-10 13:47:38.789523,205
2021-12-10 13:47:38.789532,479
2021-12-10 13:47:38.789540,305
2021-12-10 13:47:38.789548,-325
2021-12-10 13:47:38.789557,-665
2021-12-10 13:47:38.789565,-481
2021-12-10 13:47:38.789573,-242
2021-12-10 13:47:38.789582,-156
2021-12-10 13:47:38.789590,-102
2021-12-10 13:47:38.970828,-56
2021-12-10 13:47:38.970849,-51
2021-12-10 13:47:38.970859,-46
2021-12-10 13:47:38.970868,-26
2021-12-10 13:47:38.970876,-22
2021-12-10 13:47:38.970885,-9
2021-12-10 13:47:38.970893,4
2021-12-10 13:47:38.970902,0
2021-12-10 13:47:38.970910,4
2021-12-10 13:47:38.970919,9
2021-12-10 13:47:38.970927,14
2021-12-10 13:47:38.970935,34
2021-12-10 13:47:38.970944,46
2021-12-10 13:47:38.970952,66
2021-12-10 13:47:38.970961,83
2021-12-10 13:47:38.970969,102
2021-12-10 13:47:38.970978,132
2021-12-10 13:47:38.970986,144
2021-12-10 13:47:38.970995,151
2021-12-10 13:47:38.971003,154
2021-12-10 13:47:38.971012,136
2021-12-10 13:47:38.971020,122
2021-12-10 13:47:38.971029,90
2021-12-10 13:47:38.971037,41
2021-12-10 13:47:38.971045,-7
2021-12-10 13:47:38.971053,-66
2021-12-10 13:47:38.971062,-110
2021-12-10 13:47:38.971070,-139
2021-12-10 13:47:38.971079,-168
2021-12-10 13:47:38.971087,-178
2021-12-10 13:47:39.240709,-178
2021-12-10 13:47:39.240728,-178
2021-12-10 13:47:39.240737,-176
2021-12-10 13:47:39.240746,-178
2021-12-10 13:47:39.240755,-171
2021-12-10 13:47:39.240763,-163
2021-12-10 13:47:39.240772,-161
2021-12-10 13:47:39.240780,-154
2021-12-10 13:47:39.240789,-146
2021-12-10 13:47:39.240797,-136
2021-12-10 13:47:39.240805,-127
2021-12-10 13:47:39.240814,-129
2021-12-10 13:47:39.240822,-122
2021-12-10 13:47:39.240831,-119
2021-12-10 13:47:39.240839,-117
2021-12-10 13:47:39.240847,-107
2021-12-10 13:47:39.240856,-107
2021-12-10 13:47:39.240864,-102
2021-12-10 13:47:39.240872,-97
2021-12-10 13:47:39.240881,-102
2021-12-10 13:47:39.240889,-95
2021-12-10 13:47:39.240897,-102
2021-12-10 13:47:39.240906,-110
2021-12-10 13:47:39.240914,-105
2021-12-10 13:47:39.240922,-102
2021-12-10 13:47:39.240930,-107
2021-12-10 13:47:39.240939,-112
2021-12-10 13:47:39.240947,-110
2021-12-10 13:47:39.240955,-107
2021-12-10 13:47:39.240964,-117
2021-12-10 13:47:39.511268,-105
2021-12-10 13:47:39.511287,-85
2021-12-10 13:47:39.511297,-90
2021-12-10 13:47:39.511306,-83
2021-12-10 13:47:39.511314,-70
2021-12-10 13:47:39.511323,-66
2021-12-10 13:47:39.511331,-75
2021-12-10 13:47:39.511340,-102
2021-12-10 13:47:39.511348,-114
2021-12-10 13:47:39.511356,-110
2021-12-10 13:47:39.511365,-105
2021-12-10 13:47:39.511373,-97
2021-12-10 13:47:39.511382,-102
2021-12-10 13:47:39.511390,-105
2021-12-10 13:47:39.511398,-110
2021-12-10 13:47:39.511407,-112
2021-12-10 13:47:39.511415,-75
2021-12-10 13:47:39.511423,-4
2021-12-10 13:47:39.511431,200
2021-12-10 13:47:39.511440,493
2021-12-10 13:47:39.511448,364
2021-12-10 13:47:39.511457,-276
2021-12-10 13:47:39.511465,-684
2021-12-10 13:47:39.511473,-515
2021-12-10 13:47:39.511481,-239
2021-12-10 13:47:39.511490,-158
2021-12-10 13:47:39.511498,-100
2021-12-10 13:47:39.511506,-44
2021-12-10 13:47:39.511515,-41
2021-12-10 13:47:39.511523,-24
2021-12-10 13:47:39.645749,-4
2021-12-10 13:47:39.645769,-2
2021-12-10 13:47:39.645779,7
2021-12-10 13:47:39.645788,14
2021-12-10 13:47:39.645797,22
2021-12-10 13:47:39.645805,24
2021-12-10 13:47:39.645814,26
2021-12-10 13:47:39.645823,48
2021-12-10 13:47:39.645831,63
2021-12-10 13:47:39.645840,75
2021-12-10 13:47:39.645849,95
2021-12-10 13:47:39.645857,112
2021-12-10 13:47:39.645866,134
2021-12-10 13:47:39.645875,151
2021-12-10 13:47:39.645883,166
2021-12-10 13:47:39.645892,171
2021-12-10 13:47:39.645900,158
2021-12-10 13:47:39.645908,141
2021-12-10 13:47:39.645917,124
2021-12-10 13:47:39.645925,100
2021-12-10 13:47:39.645934,68
2021-12-10 13:47:39.645942,14
2021-12-10 13:47:39.645951,-46
2021-12-10 13:47:39.645959,-90
2021-12-10 13:47:39.645968,-124
2021-12-10 13:47:39.645976,-141
2021-12-10 13:47:39.645985,-161
2021-12-10 13:47:39.645993,-171
2021-12-10 13:47:39.646002,-168
2021-12-10 13:47:39.646010,-173
2021-12-10 13:47:40.094528,-168
2021-12-10 13:47:40.094548,-158
2021-12-10 13:47:40.094557,-156
2021-12-10 13:47:40.094567,-141
2021-12-10 13:47:40.094575,-134
2021-12-10 13:47:40.094584,-132
2021-12-10 13:47:40.094592,-117
2021-12-10 13:47:40.094601,-114
2021-12-10 13:47:40.094609,-110
2021-12-10 13:47:40.094618,-100
2021-12-10 13:47:40.094626,-90
2021-12-10 13:47:40.094635,-83
2021-12-10 13:47:40.094644,-85
2021-12-10 13:47:40.094652,-85
2021-12-10 13:47:40.094661,-83
2021-12-10 13:47:40.094669,-92
2021-12-10 13:47:40.094678,-92
2021-12-10 13:47:40.094686,-92
2021-12-10 13:47:40.094695,-88
2021-12-10 13:47:40.094703,-75
2021-12-10 13:47:40.094712,-75
2021-12-10 13:47:40.094720,-68
2021-12-10 13:47:40.094729,-58
2021-12-10 13:47:40.094737,-61
2021-12-10 13:47:40.094746,-58
2021-12-10 13:47:40.094754,-61
2021-12-10 13:47:40.094763,-56
2021-12-10 13:47:40.094771,-56
2021-12-10 13:47:40.094779,-66
2021-12-10 13:47:40.094788,-61
2021-12-10 13:47:40.230031,-56
2021-12-10 13:47:40.230047,-48
2021-12-10 13:47:40.230057,-39
2021-12-10 13:47:40.230066,-41
2021-12-10 13:47:40.230075,-29
2021-12-10 13:47:40.230083,-26
2021-12-10 13:47:40.230092,-41
2021-12-10 13:47:40.230100,-63
2021-12-10 13:47:40.230157,-88
2021-12-10 13:47:40.230167,-88
2021-12-10 13:47:40.230176,-83
2021-12-10 13:47:40.230184,-97
2021-12-10 13:47:40.230193,-92
2021-12-10 13:47:40.230202,-83
2021-12-10 13:47:40.230210,-85
2021-12-10 13:47:40.230218,-70
2021-12-10 13:47:40.230227,-34
2021-12-10 13:47:40.230235,39
2021-12-10 13:47:40.230243,259
2021-12-10 13:47:40.230252,572
2021-12-10 13:47:40.230260,469
2021-12-10 13:47:40.230269,-215
2021-12-10 13:47:40.230277,-701
2021-12-10 13:47:40.230286,-535
2021-12-10 13:47:40.230294,-229
2021-12-10 13:47:40.230303,-144
2021-12-10 13:47:40.230311,-97
2021-12-10 13:47:40.230320,-29
2021-12-10 13:47:40.230328,-17
2021-12-10 13:47:40.230336,-19
2021-12-10 13:47:40.320697,9
2021-12-10 13:47:40.320714,26
2021-12-10 13:47:40.320724,29
2021-12-10 13:47:40.320733,44
2021-12-10 13:47:40.320741,44
2021-12-10 13:47:40.320750,36
2021-12-10 13:47:40.320758,41
2021-12-10 13:47:40.320767,51
2021-12-10 13:47:40.320775,66
2021-12-10 13:47:40.320783,70
2021-12-10 13:47:40.320792,70
2021-12-10 13:47:40.320800,90
2021-12-10 13:47:40.320809,112
2021-12-10 13:47:40.320817,151
2021-12-10 13:47:40.320826,193
2021-12-10 13:47:40.320834,210
2021-12-10 13:47:40.320843,224
2021-12-10 13:47:40.320851,229
2021-12-10 13:47:40.320859,217
2021-12-10 13:47:40.320868,200
2021-12-10 13:47:40.320876,163
2021-12-10 13:47:40.320885,117
2021-12-10 13:47:40.320893,66
2021-12-10 13:47:40.320901,19
2021-12-10 13:47:40.320910,-2
2021-12-10 13:47:40.320918,-17
2021-12-10 13:47:40.320926,-17
2021-12-10 13:47:40.320935,-14
2021-12-10 13:47:40.320943,-19
2021-12-10 13:47:40.320951,-4
2021-12-10 13:47:40.635763,9
2021-12-10 13:47:40.635782,22
2021-12-10 13:47:40.635792,34
2021-12-10 13:47:40.635800,29
2021-12-10 13:47:40.635809,41
2021-12-10 13:47:40.635817,58
2021-12-10 13:47:40.635826,61
2021-12-10 13:47:40.635835,73
2021-12-10 13:47:40.635843,75
2021-12-10 13:47:40.635852,85
2021-12-10 13:47:40.635860,119
2021-12-10 13:47:40.635869,139
2021-12-10 13:47:40.635877,146
2021-12-10 13:47:40.635886,158
2021-12-10 13:47:40.635894,168
2021-12-10 13:47:40.635903,171
2021-12-10 13:47:40.635911,166
2021-12-10 13:47:40.635920,178
2021-12-10 13:47:40.635928,178
2021-12-10 13:47:40.635937,166
2021-12-10 13:47:40.635945,168
2021-12-10 13:47:40.635954,163
2021-12-10 13:47:40.635962,151
2021-12-10 13:47:40.635971,154
2021-12-10 13:47:40.635979,144
