Time,ECG
2021-12-10 13:42:11.860956,4974
2021-12-10 13:42:11.860974,4974
2021-12-10 13:42:11.860983,4903
2021-12-10 13:42:11.860991,4815
2021-12-10 13:42:11.860999,4785
2021-12-10 13:42:11.861008,4744
2021-12-10 13:42:11.861017,4680
2021-12-10 13:42:11.861025,4634
2021-12-10 13:42:11.861034,4597
2021-12-10 13:42:11.861043,4529
2021-12-10 13:42:11.861051,4465
2021-12-10 13:42:11.861059,4433
2021-12-10 13:42:11.861068,4345
2021-12-10 13:42:11.861076,4262
2021-12-10 13:42:11.861084,4255
2021-12-10 13:42:11.861093,4208
2021-12-10 13:42:11.861101,4113
2021-12-10 13:42:11.861110,4071
2021-12-10 13:42:11.861118,4069
2021-12-10 13:42:11.861126,4017
2021-12-10 13:42:11.861135,3954
2021-12-10 13:42:11.861143,3988
2021-12-10 13:42:11.861151,4091
2021-12-10 13:42:11.861159,4228
2021-12-10 13:42:11.861168,4252
2021-12-10 13:42:12.131790,3810
2021-12-10 13:42:12.131813,3132
2021-12-10 13:42:12.131823,2976
2021-12-10 13:42:12.131831,3318
2021-12-10 13:42:12.131840,3504
2021-12-10 13:42:12.131848,3465
2021-12-10 13:42:12.131856,3492
2021-12-10 13:42:12.131865,3521
2021-12-10 13:42:12.131873,3455
2021-12-10 13:42:12.131881,3416
2021-12-10 13:42:12.131890,3438
2021-12-10 13:42:12.131899,3411
2021-12-10 13:42:12.131907,3335
2021-12-10 13:42:12.131916,3294
2021-12-10 13:42:12.131924,3296
2021-12-10 13:42:12.131932,3272
2021-12-10 13:42:12.131941,3201
2021-12-10 13:42:12.131949,3171
2021-12-10 13:42:12.131958,3206
2021-12-10 13:42:12.131966,3201
2021-12-10 13:42:12.131974,3149
2021-12-10 13:42:12.131983,3137
2021-12-10 13:42:12.132001,3144
2021-12-10 13:42:12.132010,3127
2021-12-10 13:42:12.132019,3113
2021-12-10 13:42:12.132027,3093
2021-12-10 13:42:12.132036,3027
2021-12-10 13:42:12.132044,3003
2021-12-10 13:42:12.132052,3032
2021-12-10 13:42:12.132061,2917
2021-12-10 13:42:12.267308,2746
2021-12-10 13:42:12.267328,2699
2021-12-10 13:42:12.267338,2655
2021-12-10 13:42:12.267346,2523
2021-12-10 13:42:12.267357,2411
2021-12-10 13:42:12.267366,2391
2021-12-10 13:42:12.267374,2384
2021-12-10 13:42:12.267383,2301
2021-12-10 13:42:12.267391,2249
2021-12-10 13:42:12.267399,2259
2021-12-10 13:42:12.267408,2220
2021-12-10 13:42:12.267416,2169
2021-12-10 13:42:12.267424,2159
2021-12-10 13:42:12.267433,2161
2021-12-10 13:42:12.267441,2137
2021-12-10 13:42:12.267449,2093
2021-12-10 13:42:12.267457,2071
2021-12-10 13:42:12.267466,2063
2021-12-10 13:42:12.267477,2039
2021-12-10 13:42:12.267486,2015
2021-12-10 13:42:12.267494,2019
2021-12-10 13:42:12.267502,2012
2021-12-10 13:42:12.267510,1966
2021-12-10 13:42:12.267519,1949
2021-12-10 13:42:12.267527,1941
2021-12-10 13:42:12.267535,1905
2021-12-10 13:42:12.267544,1885
2021-12-10 13:42:12.267552,1868
2021-12-10 13:42:12.267560,1829
2021-12-10 13:42:12.267569,1799
2021-12-10 13:42:12.492303,1768
2021-12-10 13:42:12.492323,1733
2021-12-10 13:42:12.492333,1753
2021-12-10 13:42:12.492341,1753
2021-12-10 13:42:12.492354,1677
2021-12-10 13:42:12.492363,1640
2021-12-10 13:42:12.492372,1640
2021-12-10 13:42:12.492380,1618
2021-12-10 13:42:12.492388,1587
2021-12-10 13:42:12.492396,1557
2021-12-10 13:42:12.492404,1543
2021-12-10 13:42:12.492413,1547
2021-12-10 13:42:12.492421,1540
2021-12-10 13:42:12.492429,1503
2021-12-10 13:42:12.492437,1481
2021-12-10 13:42:12.492446,1489
2021-12-10 13:42:12.492454,1459
2021-12-10 13:42:12.492463,1406
2021-12-10 13:42:12.492470,1398
2021-12-10 13:42:12.492479,1413
2021-12-10 13:42:12.492487,1381
2021-12-10 13:42:12.492496,1347
2021-12-10 13:42:12.492515,1364
2021-12-10 13:42:12.492524,1381
2021-12-10 13:42:12.492532,1327
2021-12-10 13:42:12.492540,1259
2021-12-10 13:42:12.492548,1244
2021-12-10 13:42:12.492556,1252
2021-12-10 13:42:12.492565,1234
2021-12-10 13:42:12.492573,1210
2021-12-10 13:42:12.761411,1210
2021-12-10 13:42:12.761428,1188
2021-12-10 13:42:12.761437,1146
2021-12-10 13:42:12.761446,1159
2021-12-10 13:42:12.761454,1200
2021-12-10 13:42:12.761463,1210
2021-12-10 13:42:12.761471,1340
2021-12-10 13:42:12.761480,1596
2021-12-10 13:42:12.761488,1455
2021-12-10 13:42:12.761497,789
2021-12-10 13:42:12.761505,354
2021-12-10 13:42:12.761514,523
2021-12-10 13:42:12.761527,826
2021-12-10 13:42:12.761536,946
2021-12-10 13:42:12.761544,1000
2021-12-10 13:42:12.761552,1044
2021-12-10 13:42:12.761561,1061
2021-12-10 13:42:12.761569,1063
2021-12-10 13:42:12.761578,1053
2021-12-10 13:42:12.761586,1049
2021-12-10 13:42:12.761595,1041
2021-12-10 13:42:12.761603,1029
2021-12-10 13:42:12.761611,1041
2021-12-10 13:42:12.761620,1039
2021-12-10 13:42:12.761628,1014
2021-12-10 13:42:12.761637,1019
2021-12-10 13:42:12.761645,1051
2021-12-10 13:42:12.761654,1056
2021-12-10 13:42:12.761662,1051
2021-12-10 13:42:12.761671,1076
2021-12-10 13:42:12.987247,1105
2021-12-10 13:42:12.987266,1115
2021-12-10 13:42:12.987276,1124
2021-12-10 13:42:12.987285,1127
2021-12-10 13:42:12.987295,1124
2021-12-10 13:42:12.987304,1115
2021-12-10 13:42:12.987312,1071
2021-12-10 13:42:12.987321,1029
2021-12-10 13:42:12.987330,1000
2021-12-10 13:42:12.987338,917
2021-12-10 13:42:12.987346,814
2021-12-10 13:42:12.987355,753
2021-12-10 13:42:12.987363,701
2021-12-10 13:42:12.987372,643
2021-12-10 13:42:12.987380,604
2021-12-10 13:42:12.987389,582
2021-12-10 13:42:12.987397,560
2021-12-10 13:42:12.987405,552
2021-12-10 13:42:12.987414,562
2021-12-10 13:42:12.987422,560
2021-12-10 13:42:12.987430,540
2021-12-10 13:42:12.987439,528
2021-12-10 13:42:12.987447,540
2021-12-10 13:42:12.987456,577
2021-12-10 13:42:12.987464,586
2021-12-10 13:42:12.987473,547
2021-12-10 13:42:12.987481,538
2021-12-10 13:42:12.987490,555
2021-12-10 13:42:12.987498,557
2021-12-10 13:42:12.987509,564
2021-12-10 13:42:13.167178,574
2021-12-10 13:42:13.167197,564
2021-12-10 13:42:13.167206,542
2021-12-10 13:42:13.167215,547
2021-12-10 13:42:13.167224,584
2021-12-10 13:42:13.167232,594
2021-12-10 13:42:13.167241,582
2021-12-10 13:42:13.167249,586
2021-12-10 13:42:13.167258,591
2021-12-10 13:42:13.167266,594
2021-12-10 13:42:13.167275,606
2021-12-10 13:42:13.167284,599
2021-12-10 13:42:13.167292,586
2021-12-10 13:42:13.167301,604
2021-12-10 13:42:13.167309,616
2021-12-10 13:42:13.167318,591
2021-12-10 13:42:13.167326,586
2021-12-10 13:42:13.167335,599
2021-12-10 13:42:13.167353,572
2021-12-10 13:42:13.167362,569
2021-12-10 13:42:13.167371,594
2021-12-10 13:42:13.167379,574
2021-12-10 13:42:13.167388,577
2021-12-10 13:42:13.167396,586
2021-12-10 13:42:13.167404,557
2021-12-10 13:42:13.167413,577
2021-12-10 13:42:13.167422,628
2021-12-10 13:42:13.167431,599
2021-12-10 13:42:13.167440,560
2021-12-10 13:42:13.167449,596
2021-12-10 13:42:13.437098,596
2021-12-10 13:42:13.437115,538
2021-12-10 13:42:13.437124,538
2021-12-10 13:42:13.437133,582
2021-12-10 13:42:13.437141,586
2021-12-10 13:42:13.437150,569
2021-12-10 13:42:13.437158,562
2021-12-10 13:42:13.437167,530
2021-12-10 13:42:13.437175,489
2021-12-10 13:42:13.437183,486
2021-12-10 13:42:13.437192,476
2021-12-10 13:42:13.437200,445
2021-12-10 13:42:13.437208,449
2021-12-10 13:42:13.437217,452
2021-12-10 13:42:13.437225,418
2021-12-10 13:42:13.437233,410
2021-12-10 13:42:13.437242,445
2021-12-10 13:42:13.437250,498
2021-12-10 13:42:13.437258,692
2021-12-10 13:42:13.437267,1005
2021-12-10 13:42:13.437275,931
2021-12-10 13:42:13.437283,308
2021-12-10 13:42:13.437292,-195
2021-12-10 13:42:13.437300,-156
2021-12-10 13:42:13.437309,114
2021-12-10 13:42:13.437317,246
2021-12-10 13:42:13.437326,281
2021-12-10 13:42:13.437334,320
2021-12-10 13:42:13.437342,349
2021-12-10 13:42:13.437354,364
2021-12-10 13:42:13.662226,347
2021-12-10 13:42:13.662246,337
2021-12-10 13:42:13.662255,352
2021-12-10 13:42:13.662264,357
2021-12-10 13:42:13.662272,357
2021-12-10 13:42:13.662281,371
2021-12-10 13:42:13.662289,376
2021-12-10 13:42:13.662298,374
2021-12-10 13:42:13.662306,388
2021-12-10 13:42:13.662315,398
2021-12-10 13:42:13.662323,393
2021-12-10 13:42:13.662332,423
2021-12-10 13:42:13.662340,481
2021-12-10 13:42:13.662349,506
2021-12-10 13:42:13.662357,520
2021-12-10 13:42:13.662366,547
2021-12-10 13:42:13.662374,542
2021-12-10 13:42:13.662383,530
2021-12-10 13:42:13.662391,530
2021-12-10 13:42:13.662400,501
2021-12-10 13:42:13.662408,445
2021-12-10 13:42:13.662417,386
2021-12-10 13:42:13.662425,322
2021-12-10 13:42:13.662434,246
2021-12-10 13:42:13.662442,185
2021-12-10 13:42:13.662450,136
2021-12-10 13:42:13.662459,100
2021-12-10 13:42:13.662467,102
2021-12-10 13:42:13.662476,119
2021-12-10 13:42:13.662484,112
2021-12-10 13:42:13.886500,107
2021-12-10 13:42:13.886518,122
2021-12-10 13:42:13.886528,114
2021-12-10 13:42:13.886537,105
2021-12-10 13:42:13.886545,122
2021-12-10 13:42:13.886555,132
2021-12-10 13:42:13.886564,124
2021-12-10 13:42:13.886572,139
2021-12-10 13:42:13.886581,154
2021-12-10 13:42:13.886589,151
2021-12-10 13:42:13.886598,149
2021-12-10 13:42:13.886606,136
2021-12-10 13:42:13.886615,132
2021-12-10 13:42:13.886624,129
2021-12-10 13:42:13.886632,122
2021-12-10 13:42:13.886640,129
2021-12-10 13:42:13.886649,132
2021-12-10 13:42:13.886657,105
2021-12-10 13:42:13.886666,100
2021-12-10 13:42:13.886674,97
2021-12-10 13:42:13.886683,88
2021-12-10 13:42:13.886691,85
2021-12-10 13:42:13.886700,83
2021-12-10 13:42:13.886708,83
2021-12-10 13:42:13.886717,70
2021-12-10 13:42:13.886725,63
2021-12-10 13:42:13.886734,68
2021-12-10 13:42:13.886742,61
2021-12-10 13:42:13.886758,48
2021-12-10 13:42:13.886767,44
2021-12-10 13:42:14.067244,36
2021-12-10 13:42:14.067264,51
2021-12-10 13:42:14.067274,73
2021-12-10 13:42:14.067283,58
2021-12-10 13:42:14.067291,41
2021-12-10 13:42:14.067300,44
2021-12-10 13:42:14.067308,36
2021-12-10 13:42:14.067317,24
2021-12-10 13:42:14.067325,31
2021-12-10 13:42:14.067333,44
2021-12-10 13:42:14.067342,41
2021-12-10 13:42:14.067350,22
2021-12-10 13:42:14.067359,24
2021-12-10 13:42:14.067367,46
2021-12-10 13:42:14.067375,56
2021-12-10 13:42:14.067388,51
2021-12-10 13:42:14.067397,46
2021-12-10 13:42:14.067406,44
2021-12-10 13:42:14.067414,44
2021-12-10 13:42:14.067423,44
2021-12-10 13:42:14.067431,22
2021-12-10 13:42:14.067440,12
2021-12-10 13:42:14.067448,26
2021-12-10 13:42:14.067457,24
2021-12-10 13:42:14.067465,7
2021-12-10 13:42:14.067474,7
2021-12-10 13:42:14.067482,34
2021-12-10 13:42:14.067491,48
2021-12-10 13:42:14.067499,39
2021-12-10 13:42:14.067507,78
2021-12-10 13:42:14.292182,217
2021-12-10 13:42:14.292200,520
2021-12-10 13:42:14.292210,760
2021-12-10 13:42:14.292219,388
2021-12-10 13:42:14.292228,-388
2021-12-10 13:42:14.292236,-674
2021-12-10 13:42:14.292245,-339
2021-12-10 13:42:14.292253,-66
2021-12-10 13:42:14.292262,-19
2021-12-10 13:42:14.292270,53
2021-12-10 13:42:14.292286,107
2021-12-10 13:42:14.292295,102
2021-12-10 13:42:14.292303,141
2021-12-10 13:42:14.292312,171
2021-12-10 13:42:14.292320,146
2021-12-10 13:42:14.292328,154
2021-12-10 13:42:14.292337,188
2021-12-10 13:42:14.292345,188
2021-12-10 13:42:14.292357,183
2021-12-10 13:42:14.292365,195
2021-12-10 13:42:14.292374,217
2021-12-10 13:42:14.292382,237
2021-12-10 13:42:14.292391,251
2021-12-10 13:42:14.292399,273
2021-12-10 13:42:14.292407,313
2021-12-10 13:42:14.292416,354
2021-12-10 13:42:14.292424,381
2021-12-10 13:42:14.292432,393
2021-12-10 13:42:14.292441,401
2021-12-10 13:42:14.292449,408
2021-12-10 13:42:14.517286,401
2021-12-10 13:42:14.517306,361
2021-12-10 13:42:14.517315,310
2021-12-10 13:42:14.517324,271
2021-12-10 13:42:14.517333,212
2021-12-10 13:42:14.517341,117
2021-12-10 13:42:14.517350,44
2021-12-10 13:42:14.517358,2
2021-12-10 13:42:14.517367,-36
2021-12-10 13:42:14.517375,-78
2021-12-10 13:42:14.517384,-107
2021-12-10 13:42:14.517392,-114
2021-12-10 13:42:14.517400,-110
2021-12-10 13:42:14.517409,-105
2021-12-10 13:42:14.517417,-102
2021-12-10 13:42:14.517426,-107
2021-12-10 13:42:14.517434,-110
2021-12-10 13:42:14.517443,-97
2021-12-10 13:42:14.517451,-97
2021-12-10 13:42:14.517459,-100
2021-12-10 13:42:14.517468,-102
2021-12-10 13:42:14.517476,-102
2021-12-10 13:42:14.517484,-75
2021-12-10 13:42:14.517493,-68
2021-12-10 13:42:14.517501,-83
2021-12-10 13:42:14.517510,-80
2021-12-10 13:42:14.517518,-78
2021-12-10 13:42:14.517527,-83
2021-12-10 13:42:14.517535,-83
2021-12-10 13:42:14.517543,-83
2021-12-10 13:42:14.830864,-95
2021-12-10 13:42:14.830882,-102
2021-12-10 13:42:14.830892,-83
2021-12-10 13:42:14.830901,-85
2021-12-10 13:42:14.830909,-127
2021-12-10 13:42:14.830917,-129
2021-12-10 13:42:14.830926,-95
2021-12-10 13:42:14.830934,-100
2021-12-10 13:42:14.830943,-134
2021-12-10 13:42:14.830951,-144
2021-12-10 13:42:14.830959,-136
2021-12-10 13:42:14.830968,-134
2021-12-10 13:42:14.830976,-127
2021-12-10 13:42:14.830985,-127
2021-12-10 13:42:14.830993,-141
2021-12-10 13:42:14.831001,-156
2021-12-10 13:42:14.831010,-149
2021-12-10 13:42:14.831018,-158
2021-12-10 13:42:14.831026,-171
2021-12-10 13:42:14.831035,-144
2021-12-10 13:42:14.831043,-134
2021-12-10 13:42:14.831054,-176
2021-12-10 13:42:14.831063,-173
2021-12-10 13:42:14.831071,-141
2021-12-10 13:42:14.831080,-158
2021-12-10 13:42:14.831088,-168
2021-12-10 13:42:14.831096,-166
2021-12-10 13:42:14.831105,-200
2021-12-10 13:42:14.831113,-220
2021-12-10 13:42:14.831122,-202
2021-12-10 13:42:15.012283,-193
2021-12-10 13:42:15.012303,-202
2021-12-10 13:42:15.012313,-212
2021-12-10 13:42:15.012322,-207
2021-12-10 13:42:15.012331,-205
2021-12-10 13:42:15.012339,-200
2021-12-10 13:42:15.012348,-154
2021-12-10 13:42:15.012357,-66
2021-12-10 13:42:15.012365,92
2021-12-10 13:42:15.012374,188
2021-12-10 13:42:15.012382,-139
2021-12-10 13:42:15.012391,-782
2021-12-10 13:42:15.012400,-1044
2021-12-10 13:42:15.012408,-682
2021-12-10 13:42:15.012417,-313
2021-12-10 13:42:15.012425,-269
2021-12-10 13:42:15.012434,-212
2021-12-10 13:42:15.012442,-112
2021-12-10 13:42:15.012451,-119
2021-12-10 13:42:15.012460,-119
2021-12-10 13:42:15.012468,-83
2021-12-10 13:42:15.012477,-88
2021-12-10 13:42:15.012485,-90
2021-12-10 13:42:15.012494,-51
2021-12-10 13:42:15.012502,-29
2021-12-10 13:42:15.012511,-39
2021-12-10 13:42:15.012519,-24
2021-12-10 13:42:15.012528,9
2021-12-10 13:42:15.012542,39
2021-12-10 13:42:15.012551,66
2021-12-10 13:42:15.237235,90
2021-12-10 13:42:15.237255,124
2021-12-10 13:42:15.237265,158
2021-12-10 13:42:15.237273,178
2021-12-10 13:42:15.237282,198
2021-12-10 13:42:15.237291,210
2021-12-10 13:42:15.237299,205
2021-12-10 13:42:15.237308,198
2021-12-10 13:42:15.237316,180
2021-12-10 13:42:15.237325,134
2021-12-10 13:42:15.237333,80
2021-12-10 13:42:15.237342,26
2021-12-10 13:42:15.237350,-41
2021-12-10 13:42:15.237359,-124
2021-12-10 13:42:15.237367,-180
2021-12-10 13:42:15.237376,-190
2021-12-10 13:42:15.237389,-215
2021-12-10 13:42:15.237398,-266
2021-12-10 13:42:15.237411,-271
2021-12-10 13:42:15.237420,-232
2021-12-10 13:42:15.237429,-215
2021-12-10 13:42:15.237437,-237
2021-12-10 13:42:15.237445,-237
2021-12-10 13:42:15.237454,-205
2021-12-10 13:42:15.237462,-205
2021-12-10 13:42:15.237470,-210
2021-12-10 13:42:15.237479,-195
2021-12-10 13:42:15.237487,-193
2021-12-10 13:42:15.237496,-190
2021-12-10 13:42:15.237504,-178
2021-12-10 13:42:15.506703,-176
2021-12-10 13:42:15.506723,-156
2021-12-10 13:42:15.506733,-132
2021-12-10 13:42:15.506742,-149
2021-12-10 13:42:15.506750,-166
2021-12-10 13:42:15.506759,-127
2021-12-10 13:42:15.506767,-124
2021-12-10 13:42:15.506776,-180
2021-12-10 13:42:15.506784,-185
2021-12-10 13:42:15.506793,-136
2021-12-10 13:42:15.506801,-134
2021-12-10 13:42:15.506810,-171
2021-12-10 13:42:15.506818,-154
2021-12-10 13:42:15.506827,-141
2021-12-10 13:42:15.506835,-176
2021-12-10 13:42:15.506844,-158
2021-12-10 13:42:15.506852,-129
2021-12-10 13:42:15.506861,-151
2021-12-10 13:42:15.506869,-168
2021-12-10 13:42:15.506878,-156
2021-12-10 13:42:15.506886,-151
2021-12-10 13:42:15.506895,-146
2021-12-10 13:42:15.506903,-124
2021-12-10 13:42:15.506912,-124
2021-12-10 13:42:15.506920,-149
2021-12-10 13:42:15.506929,-146
2021-12-10 13:42:15.506938,-124
2021-12-10 13:42:15.506946,-124
2021-12-10 13:42:15.506954,-129
2021-12-10 13:42:15.506963,-114
2021-12-10 13:42:15.731684,-102
2021-12-10 13:42:15.731703,-107
2021-12-10 13:42:15.731739,-107
2021-12-10 13:42:15.731758,-97
2021-12-10 13:42:15.731768,-78
2021-12-10 13:42:15.731777,-58
2021-12-10 13:42:15.731785,-83
2021-12-10 13:42:15.731794,-110
2021-12-10 13:42:15.731802,-97
2021-12-10 13:42:15.731811,-88
2021-12-10 13:42:15.731820,-85
2021-12-10 13:42:15.731828,-83
2021-12-10 13:42:15.731837,-85
2021-12-10 13:42:15.731845,-85
2021-12-10 13:42:15.731853,-78
2021-12-10 13:42:15.731862,-48
2021-12-10 13:42:15.731870,7
2021-12-10 13:42:15.731879,151
2021-12-10 13:42:15.731887,435
2021-12-10 13:42:15.731895,462
2021-12-10 13:42:15.731904,-83
2021-12-10 13:42:15.731912,-638
2021-12-10 13:42:15.731926,-618
2021-12-10 13:42:15.731935,-293
2021-12-10 13:42:15.731943,-149
2021-12-10 13:42:15.731952,-100
2021-12-10 13:42:15.731960,-4
2021-12-10 13:42:15.731969,24
2021-12-10 13:42:15.731977,12
2021-12-10 13:42:15.731985,36
2021-12-10 13:42:15.956515,51
2021-12-10 13:42:15.956534,46
2021-12-10 13:42:15.956543,53
2021-12-10 13:42:15.956552,68
2021-12-10 13:42:15.956561,75
2021-12-10 13:42:15.956569,80
2021-12-10 13:42:15.956578,90
2021-12-10 13:42:15.956586,100
2021-12-10 13:42:15.956595,122
2021-12-10 13:42:15.956603,156
2021-12-10 13:42:15.956612,183
2021-12-10 13:42:15.956620,210
2021-12-10 13:42:15.956629,234
2021-12-10 13:42:15.956637,256
2021-12-10 13:42:15.956646,276
2021-12-10 13:42:15.956654,281
2021-12-10 13:42:15.956662,283
2021-12-10 13:42:15.956671,271
2021-12-10 13:42:15.956679,232
2021-12-10 13:42:15.956688,190
2021-12-10 13:42:15.956696,136
2021-12-10 13:42:15.956704,70
2021-12-10 13:42:15.956713,14
2021-12-10 13:42:15.956721,-34
2021-12-10 13:42:15.956730,-73
2021-12-10 13:42:15.956738,-95
2021-12-10 13:42:15.956747,-110
2021-12-10 13:42:15.956755,-117
2021-12-10 13:42:15.956764,-117
2021-12-10 13:42:15.956772,-119
2021-12-10 13:42:16.182254,-117
2021-12-10 13:42:16.182273,-107
2021-12-10 13:42:16.182283,-97
2021-12-10 13:42:16.182291,-102
2021-12-10 13:42:16.182300,-95
2021-12-10 13:42:16.182309,-80
2021-12-10 13:42:16.182317,-75
2021-12-10 13:42:16.182326,-70
2021-12-10 13:42:16.182334,-66
2021-12-10 13:42:16.182342,-58
2021-12-10 13:42:16.182351,-41
2021-12-10 13:42:16.182359,-39
2021-12-10 13:42:16.182368,-44
2021-12-10 13:42:16.182376,-34
2021-12-10 13:42:16.182385,-31
2021-12-10 13:42:16.182393,-31
2021-12-10 13:42:16.182402,-31
2021-12-10 13:42:16.182410,-34
2021-12-10 13:42:16.182418,-34
2021-12-10 13:42:16.182427,-34
2021-12-10 13:42:16.182435,-31
2021-12-10 13:42:16.182444,-29
2021-12-10 13:42:16.182458,-36
2021-12-10 13:42:16.182467,-44
2021-12-10 13:42:16.182476,-36
2021-12-10 13:42:16.182484,-29
2021-12-10 13:42:16.182493,-34
2021-12-10 13:42:16.182501,-34
2021-12-10 13:42:16.182512,-31
2021-12-10 13:42:16.182521,-36
2021-12-10 13:42:16.362112,-39
2021-12-10 13:42:16.362128,-29
2021-12-10 13:42:16.362138,-31
2021-12-10 13:42:16.362146,-31
2021-12-10 13:42:16.362159,-26
2021-12-10 13:42:16.362167,-36
2021-12-10 13:42:16.362176,-39
2021-12-10 13:42:16.362184,-34
2021-12-10 13:42:16.362192,-31
2021-12-10 13:42:16.362201,-31
2021-12-10 13:42:16.362209,-36
2021-12-10 13:42:16.362217,-34
2021-12-10 13:42:16.362226,-26
2021-12-10 13:42:16.362234,-22
2021-12-10 13:42:16.362242,-17
2021-12-10 13:42:16.362251,-14
2021-12-10 13:42:16.362259,-7
2021-12-10 13:42:16.362267,-7
2021-12-10 13:42:16.362275,-24
2021-12-10 13:42:16.362284,-41
2021-12-10 13:42:16.362292,-41
2021-12-10 13:42:16.362300,-34
2021-12-10 13:42:16.362308,-39
2021-12-10 13:42:16.362317,-46
2021-12-10 13:42:16.362325,-41
2021-12-10 13:42:16.362333,-41
2021-12-10 13:42:16.362341,-41
2021-12-10 13:42:16.362350,-19
2021-12-10 13:42:16.362358,31
2021-12-10 13:42:16.362366,168
2021-12-10 13:42:16.721652,471
2021-12-10 13:42:16.721672,589
2021-12-10 13:42:16.721682,134
2021-12-10 13:42:16.721691,-454
2021-12-10 13:42:16.721699,-577
2021-12-10 13:42:16.721708,-344
2021-12-10 13:42:16.721716,-168
2021-12-10 13:42:16.721725,-102
2021-12-10 13:42:16.721733,-44
2021-12-10 13:42:16.721741,-19
2021-12-10 13:42:16.721750,-12
2021-12-10 13:42:16.721758,2
2021-12-10 13:42:16.721767,14
2021-12-10 13:42:16.721775,22
2021-12-10 13:42:16.721784,26
2021-12-10 13:42:16.721792,31
2021-12-10 13:42:16.721800,46
2021-12-10 13:42:16.721809,68
2021-12-10 13:42:16.721817,73
2021-12-10 13:42:16.721826,75
2021-12-10 13:42:16.721834,105
2021-12-10 13:42:16.721843,122
2021-12-10 13:42:16.721851,134
2021-12-10 13:42:16.721859,168
2021-12-10 13:42:16.721868,205
2021-12-10 13:42:16.721876,227
2021-12-10 13:42:16.721885,254
2021-12-10 13:42:16.721893,266
2021-12-10 13:42:16.721901,261
2021-12-10 13:42:16.721910,251
2021-12-10 13:42:16.857126,244
2021-12-10 13:42:16.857143,212
2021-12-10 13:42:16.857153,144
2021-12-10 13:42:16.857161,75
2021-12-10 13:42:16.857170,24
2021-12-10 13:42:16.857178,-26
2021-12-10 13:42:16.857187,-75
2021-12-10 13:42:16.857196,-102
2021-12-10 13:42:16.857204,-117
2021-12-10 13:42:16.857212,-129
2021-12-10 13:42:16.857221,-134
2021-12-10 13:42:16.857229,-127
2021-12-10 13:42:16.857238,-117
2021-12-10 13:42:16.857246,-117
2021-12-10 13:42:16.857254,-117
2021-12-10 13:42:16.857263,-117
2021-12-10 13:42:16.857271,-95
2021-12-10 13:42:16.857280,-75
2021-12-10 13:42:16.857288,-75
2021-12-10 13:42:16.857296,-73
2021-12-10 13:42:16.857305,-68
2021-12-10 13:42:16.857313,-63
2021-12-10 13:42:16.857322,-56
2021-12-10 13:42:16.857330,-48
2021-12-10 13:42:16.857338,-44
2021-12-10 13:42:16.857349,-41
2021-12-10 13:42:16.857358,-39
2021-12-10 13:42:16.857366,-34
2021-12-10 13:42:16.857375,-44
2021-12-10 13:42:16.857383,-46
2021-12-10 13:42:17.216656,-24
2021-12-10 13:42:17.216675,-22
2021-12-10 13:42:17.216685,-41
2021-12-10 13:42:17.216694,-41
2021-12-10 13:42:17.216702,-29
2021-12-10 13:42:17.216710,-29
2021-12-10 13:42:17.216719,-36
2021-12-10 13:42:17.216727,-34
2021-12-10 13:42:17.216736,-44
2021-12-10 13:42:17.216744,-56
2021-12-10 13:42:17.216753,-46
2021-12-10 13:42:17.216761,-51
2021-12-10 13:42:17.216770,-58
2021-12-10 13:42:17.216778,-48
2021-12-10 13:42:17.216787,-56
2021-12-10 13:42:17.216795,-63
2021-12-10 13:42:17.216804,-51
2021-12-10 13:42:17.216812,-44
2021-12-10 13:42:17.216820,-46
2021-12-10 13:42:17.216829,-46
2021-12-10 13:42:17.216837,-41
2021-12-10 13:42:17.216846,-48
2021-12-10 13:42:17.216854,-48
2021-12-10 13:42:17.216862,-36
2021-12-10 13:42:17.216871,-41
2021-12-10 13:42:17.216879,-46
2021-12-10 13:42:17.216888,-39
2021-12-10 13:42:17.216896,-36
2021-12-10 13:42:17.216911,-34
2021-12-10 13:42:17.216920,-29
2021-12-10 13:42:17.307097,-24
2021-12-10 13:42:17.307113,-9
2021-12-10 13:42:17.307122,-2
2021-12-10 13:42:17.307131,-17
2021-12-10 13:42:17.307139,-44
2021-12-10 13:42:17.307148,-53
2021-12-10 13:42:17.307157,-44
2021-12-10 13:42:17.307165,-48
2021-12-10 13:42:17.307174,-58
2021-12-10 13:42:17.307182,-51
2021-12-10 13:42:17.307190,-51
2021-12-10 13:42:17.307199,-51
2021-12-10 13:42:17.307207,-34
2021-12-10 13:42:17.307216,7
2021-12-10 13:42:17.307224,88
2021-12-10 13:42:17.307233,288
2021-12-10 13:42:17.307241,498
2021-12-10 13:42:17.307250,254
2021-12-10 13:42:17.307258,-401
2021-12-10 13:42:17.307267,-721
2021-12-10 13:42:17.307275,-484
2021-12-10 13:42:17.307283,-217
2021-12-10 13:42:17.307292,-149
2021-12-10 13:42:17.307300,-78
2021-12-10 13:42:17.307309,-2
2021-12-10 13:42:17.307317,-14
2021-12-10 13:42:17.307326,-22
2021-12-10 13:42:17.307334,7
2021-12-10 13:42:17.307349,17
2021-12-10 13:42:17.307358,22
2021-12-10 13:42:17.532347,36
2021-12-10 13:42:17.532367,34
2021-12-10 13:42:17.532376,39
2021-12-10 13:42:17.532385,51
2021-12-10 13:42:17.532394,63
2021-12-10 13:42:17.532403,83
2021-12-10 13:42:17.532411,95
2021-12-10 13:42:17.532420,105
2021-12-10 13:42:17.532428,129
2021-12-10 13:42:17.532437,158
2021-12-10 13:42:17.532445,188
2021-12-10 13:42:17.532453,212
2021-12-10 13:42:17.532462,229
2021-12-10 13:42:17.532470,232
2021-12-10 13:42:17.532479,220
2021-12-10 13:42:17.532488,202
2021-12-10 13:42:17.532496,158
2021-12-10 13:42:17.532504,97
2021-12-10 13:42:17.532513,39
2021-12-10 13:42:17.532521,-19
2021-12-10 13:42:17.532530,-80
2021-12-10 13:42:17.532538,-132
2021-12-10 13:42:17.532547,-166
2021-12-10 13:42:17.532555,-185
2021-12-10 13:42:17.532564,-205
2021-12-10 13:42:17.532572,-215
2021-12-10 13:42:17.532581,-202
2021-12-10 13:42:17.532592,-202
2021-12-10 13:42:17.532601,-205
2021-12-10 13:42:17.532609,-193
2021-12-10 13:42:17.801625,-185
2021-12-10 13:42:17.801643,-183
2021-12-10 13:42:17.801653,-173
2021-12-10 13:42:17.801662,-168
2021-12-10 13:42:17.801670,-168
2021-12-10 13:42:17.801679,-161
2021-12-10 13:42:17.801687,-149
2021-12-10 13:42:17.801696,-149
2021-12-10 13:42:17.801704,-144
2021-12-10 13:42:17.801713,-136
2021-12-10 13:42:17.801721,-134
2021-12-10 13:42:17.801730,-129
2021-12-10 13:42:17.801739,-127
2021-12-10 13:42:17.801747,-136
2021-12-10 13:42:17.801755,-134
2021-12-10 13:42:17.801764,-127
2021-12-10 13:42:17.801772,-122
2021-12-10 13:42:17.801781,-124
2021-12-10 13:42:17.801789,-134
2021-12-10 13:42:17.801798,-129
2021-12-10 13:42:17.801806,-127
2021-12-10 13:42:17.801815,-139
2021-12-10 13:42:17.801823,-141
2021-12-10 13:42:17.801831,-136
2021-12-10 13:42:17.801840,-134
2021-12-10 13:42:17.801848,-134
2021-12-10 13:42:17.801857,-139
2021-12-10 13:42:17.801865,-139
2021-12-10 13:42:17.801873,-136
2021-12-10 13:42:17.801882,-134
2021-12-10 13:42:18.070982,-132
2021-12-10 13:42:18.071002,-129
2021-12-10 13:42:18.071012,-129
2021-12-10 13:42:18.071021,-134
2021-12-10 13:42:18.071030,-132
2021-12-10 13:42:18.071038,-127
2021-12-10 13:42:18.071047,-129
2021-12-10 13:42:18.071056,-124
2021-12-10 13:42:18.071064,-117
2021-12-10 13:42:18.071073,-112
2021-12-10 13:42:18.071081,-97
2021-12-10 13:42:18.071090,-95
2021-12-10 13:42:18.071099,-112
2021-12-10 13:42:18.071107,-134
2021-12-10 13:42:18.071116,-146
2021-12-10 13:42:18.071124,-139
2021-12-10 13:42:18.071133,-134
2021-12-10 13:42:18.071141,-144
2021-12-10 13:42:18.071150,-154
2021-12-10 13:42:18.071159,-154
2021-12-10 13:42:18.071167,-151
2021-12-10 13:42:18.071176,-139
2021-12-10 13:42:18.071184,-112
2021-12-10 13:42:18.071193,-68
2021-12-10 13:42:18.071201,51
2021-12-10 13:42:18.071209,246
2021-12-10 13:42:18.071218,132
2021-12-10 13:42:18.071227,-464
2021-12-10 13:42:18.071235,-877
2021-12-10 13:42:18.071244,-682
2021-12-10 13:42:18.207151,-332
2021-12-10 13:42:18.207167,-220
2021-12-10 13:42:18.207177,-168
2021-12-10 13:42:18.207185,-73
2021-12-10 13:42:18.207194,-53
2021-12-10 13:42:18.207203,-68
2021-12-10 13:42:18.207211,-44
2021-12-10 13:42:18.207220,-29
2021-12-10 13:42:18.207233,-29
2021-12-10 13:42:18.207242,-19
2021-12-10 13:42:18.207251,-14
2021-12-10 13:42:18.207259,-7
2021-12-10 13:42:18.207268,2
2021-12-10 13:42:18.207276,14
2021-12-10 13:42:18.207285,34
2021-12-10 13:42:18.207293,51
2021-12-10 13:42:18.207301,68
2021-12-10 13:42:18.207310,88
2021-12-10 13:42:18.207318,117
2021-12-10 13:42:18.207327,151
2021-12-10 13:42:18.207335,171
2021-12-10 13:42:18.207343,185
2021-12-10 13:42:18.207352,193
2021-12-10 13:42:18.207360,185
2021-12-10 13:42:18.207368,171
2021-12-10 13:42:18.207376,144
2021-12-10 13:42:18.207385,90
2021-12-10 13:42:18.207393,26
2021-12-10 13:42:18.207401,-39
2021-12-10 13:42:18.207409,-95
2021-12-10 13:42:18.477296,-144
2021-12-10 13:42:18.477316,-185
2021-12-10 13:42:18.477326,-210
2021-12-10 13:42:18.477334,-224
2021-12-10 13:42:18.477343,-229
2021-12-10 13:42:18.477352,-224
2021-12-10 13:42:18.477360,-224
2021-12-10 13:42:18.477369,-217
2021-12-10 13:42:18.477377,-202
2021-12-10 13:42:18.477385,-202
2021-12-10 13:42:18.477397,-205
2021-12-10 13:42:18.477405,-198
2021-12-10 13:42:18.477413,-178
2021-12-10 13:42:18.477422,-168
2021-12-10 13:42:18.477430,-171
2021-12-10 13:42:18.477439,-158
2021-12-10 13:42:18.477447,-144
2021-12-10 13:42:18.477455,-141
2021-12-10 13:42:18.477464,-134
2021-12-10 13:42:18.477472,-127
2021-12-10 13:42:18.477480,-122
2021-12-10 13:42:18.477489,-122
2021-12-10 13:42:18.477497,-119
2021-12-10 13:42:18.477506,-112
2021-12-10 13:42:18.477514,-122
2021-12-10 13:42:18.477523,-127
2021-12-10 13:42:18.477531,-122
2021-12-10 13:42:18.477540,-129
2021-12-10 13:42:18.477548,-139
2021-12-10 13:42:18.477557,-129
2021-12-10 13:42:18.702250,-124
2021-12-10 13:42:18.702269,-124
2021-12-10 13:42:18.702279,-132
2021-12-10 13:42:18.702288,-136
2021-12-10 13:42:18.702297,-134
2021-12-10 13:42:18.702305,-127
2021-12-10 13:42:18.702314,-122
2021-12-10 13:42:18.702322,-127
2021-12-10 13:42:18.702330,-127
2021-12-10 13:42:18.702339,-117
2021-12-10 13:42:18.702347,-117
2021-12-10 13:42:18.702356,-117
2021-12-10 13:42:18.702364,-112
2021-12-10 13:42:18.702372,-110
2021-12-10 13:42:18.702381,-112
2021-12-10 13:42:18.702389,-119
2021-12-10 13:42:18.702398,-117
2021-12-10 13:42:18.702406,-107
2021-12-10 13:42:18.702414,-107
2021-12-10 13:42:18.702423,-107
2021-12-10 13:42:18.702431,-107
2021-12-10 13:42:18.702439,-102
2021-12-10 13:42:18.702448,-95
2021-12-10 13:42:18.702456,-95
2021-12-10 13:42:18.702464,-90
2021-12-10 13:42:18.702473,-75
2021-12-10 13:42:18.702481,-80
2021-12-10 13:42:18.702489,-100
2021-12-10 13:42:18.702497,-117
2021-12-10 13:42:18.702506,-119
2021-12-10 13:42:18.971693,-107
2021-12-10 13:42:18.971714,-110
2021-12-10 13:42:18.971724,-114
2021-12-10 13:42:18.971733,-119
2021-12-10 13:42:18.971741,-124
2021-12-10 13:42:18.971750,-119
2021-12-10 13:42:18.971758,-110
2021-12-10 13:42:18.971766,-68
2021-12-10 13:42:18.971775,24
2021-12-10 13:42:18.971783,251
2021-12-10 13:42:18.971792,440
2021-12-10 13:42:18.971800,158
2021-12-10 13:42:18.971809,-401
2021-12-10 13:42:18.971817,-626
2021-12-10 13:42:18.971825,-457
2021-12-10 13:42:18.971834,-251
2021-12-10 13:42:18.971842,-161
2021-12-10 13:42:18.971851,-102
2021-12-10 13:42:18.971867,-58
2021-12-10 13:42:18.971876,-51
2021-12-10 13:42:18.971884,-46
2021-12-10 13:42:18.971892,-34
2021-12-10 13:42:18.971901,-29
2021-12-10 13:42:18.971909,-22
2021-12-10 13:42:18.971917,-9
2021-12-10 13:42:18.971926,-2
2021-12-10 13:42:18.971934,0
2021-12-10 13:42:18.971943,9
2021-12-10 13:42:18.971951,24
2021-12-10 13:42:18.971959,34
2021-12-10 13:42:19.152265,46
2021-12-10 13:42:19.152283,68
2021-12-10 13:42:19.152293,90
2021-12-10 13:42:19.152302,107
2021-12-10 13:42:19.152311,129
2021-12-10 13:42:19.152319,151
2021-12-10 13:42:19.152328,168
2021-12-10 13:42:19.152336,176
2021-12-10 13:42:19.152344,173
2021-12-10 13:42:19.152353,154
2021-12-10 13:42:19.152361,122
2021-12-10 13:42:19.152377,80
2021-12-10 13:42:19.152386,24
2021-12-10 13:42:19.152395,-41
2021-12-10 13:42:19.152403,-88
2021-12-10 13:42:19.152411,-122
2021-12-10 13:42:19.152419,-154
2021-12-10 13:42:19.152428,-183
2021-12-10 13:42:19.152436,-193
2021-12-10 13:42:19.152444,-190
2021-12-10 13:42:19.152453,-190
2021-12-10 13:42:19.152461,-193
2021-12-10 13:42:19.152469,-183
2021-12-10 13:42:19.152478,-163
2021-12-10 13:42:19.152486,-149
2021-12-10 13:42:19.152494,-154
2021-12-10 13:42:19.152502,-151
2021-12-10 13:42:19.152511,-129
2021-12-10 13:42:19.152519,-122
2021-12-10 13:42:19.152527,-127
2021-12-10 13:42:19.377218,-117
2021-12-10 13:42:19.377235,-105
2021-12-10 13:42:19.377245,-92
2021-12-10 13:42:19.377253,-85
2021-12-10 13:42:19.377262,-85
2021-12-10 13:42:19.377270,-80
2021-12-10 13:42:19.377281,-68
2021-12-10 13:42:19.377290,-63
2021-12-10 13:42:19.377304,-61
2021-12-10 13:42:19.377313,-51
2021-12-10 13:42:19.377321,-36
2021-12-10 13:42:19.377330,-39
2021-12-10 13:42:19.377338,-48
2021-12-10 13:42:19.377346,-29
2021-12-10 13:42:19.377355,-12
2021-12-10 13:42:19.377363,-24
2021-12-10 13:42:19.377371,-19
2021-12-10 13:42:19.377379,9
2021-12-10 13:42:19.377388,31
2021-12-10 13:42:19.377396,39
2021-12-10 13:42:19.377404,39
2021-12-10 13:42:19.377412,36
2021-12-10 13:42:19.377421,51
2021-12-10 13:42:19.377429,85
2021-12-10 13:42:19.377437,95
2021-12-10 13:42:19.377446,90
2021-12-10 13:42:19.377454,92
2021-12-10 13:42:19.377462,92
2021-12-10 13:42:19.377471,114
2021-12-10 13:42:19.377479,136
2021-12-10 13:42:19.646717,127
2021-12-10 13:42:19.646737,127
2021-12-10 13:42:19.646747,144
2021-12-10 13:42:19.646756,136
2021-12-10 13:42:19.646764,127
2021-12-10 13:42:19.646773,158
2021-12-10 13:42:19.646781,190
2021-12-10 13:42:19.646789,173
2021-12-10 13:42:19.646798,144
2021-12-10 13:42:19.646806,149
2021-12-10 13:42:19.646814,171
2021-12-10 13:42:19.646822,178
2021-12-10 13:42:19.646831,183
2021-12-10 13:42:19.646839,178
2021-12-10 13:42:19.646847,144
2021-12-10 13:42:19.646856,122
2021-12-10 13:42:19.646864,149
2021-12-10 13:42:19.646873,158
2021-12-10 13:42:19.646881,146
2021-12-10 13:42:19.646889,149
2021-12-10 13:42:19.646898,141
2021-12-10 13:42:19.646906,117
2021-12-10 13:42:19.646914,110
2021-12-10 13:42:19.646922,146
2021-12-10 13:42:19.646931,202
2021-12-10 13:42:19.646939,313
2021-12-10 13:42:19.646948,626
2021-12-10 13:42:19.646956,924
2021-12-10 13:42:19.646964,645
2021-12-10 13:42:19.646973,-92
2021-12-10 13:42:19.827238,-484
2021-12-10 13:42:19.827257,-264
2021-12-10 13:42:19.827266,-2
2021-12-10 13:42:19.827275,31
2021-12-10 13:42:19.827284,75
2021-12-10 13:42:19.827292,141
2021-12-10 13:42:19.827301,151
2021-12-10 13:42:19.827309,158
2021-12-10 13:42:19.827318,188
2021-12-10 13:42:19.827326,229
2021-12-10 13:42:19.827335,269
2021-12-10 13:42:19.827343,293
2021-12-10 13:42:19.827351,303
2021-12-10 13:42:19.827360,310
2021-12-10 13:42:19.827368,332
2021-12-10 13:42:19.827377,369
2021-12-10 13:42:19.827385,393
2021-12-10 13:42:19.827393,413
2021-12-10 13:42:19.827402,442
2021-12-10 13:42:19.827410,479
2021-12-10 13:42:19.827418,520
2021-12-10 13:42:19.827427,569
2021-12-10 13:42:19.827435,608
2021-12-10 13:42:19.827443,626
2021-12-10 13:42:19.827452,608
2021-12-10 13:42:19.827460,582
2021-12-10 13:42:19.827468,569
2021-12-10 13:42:19.827477,533
2021-12-10 13:42:19.827485,467
2021-12-10 13:42:19.827493,403
2021-12-10 13:42:20.095932,347
2021-12-10 13:42:20.095952,298
2021-12-10 13:42:20.095962,244
2021-12-10 13:42:20.095970,198
2021-12-10 13:42:20.095979,173
2021-12-10 13:42:20.095987,156
2021-12-10 13:42:20.095996,144
2021-12-10 13:42:20.096004,141
2021-12-10 13:42:20.096013,151
2021-12-10 13:42:20.096021,173
2021-12-10 13:42:20.096030,200
2021-12-10 13:42:20.096038,224
2021-12-10 13:42:20.096047,261
2021-12-10 13:42:20.096055,317
2021-12-10 13:42:20.096064,366
2021-12-10 13:42:20.096072,393
2021-12-10 13:42:20.096081,435
2021-12-10 13:42:20.096095,476
2021-12-10 13:42:20.096107,503
2021-12-10 13:42:20.096116,530
2021-12-10 13:42:20.096125,557
2021-12-10 13:42:20.096133,584
2021-12-10 13:42:20.096141,611
2021-12-10 13:42:20.096150,623
2021-12-10 13:42:20.096158,623
2021-12-10 13:42:20.096167,628
2021-12-10 13:42:20.096175,638
2021-12-10 13:42:20.096183,652
2021-12-10 13:42:20.096192,660
2021-12-10 13:42:20.096200,662
2021-12-10 13:42:20.322760,667
2021-12-10 13:42:20.322779,665
2021-12-10 13:42:20.322788,660
2021-12-10 13:42:20.322797,650
2021-12-10 13:42:20.322806,640
2021-12-10 13:42:20.322814,638
2021-12-10 13:42:20.322823,633
2021-12-10 13:42:20.322831,633
2021-12-10 13:42:20.322839,623
2021-12-10 13:42:20.322848,606
2021-12-10 13:42:20.322856,591
2021-12-10 13:42:20.322865,574
2021-12-10 13:42:20.322873,557
2021-12-10 13:42:20.322881,555
2021-12-10 13:42:20.322890,547
2021-12-10 13:42:20.322898,542
2021-12-10 13:42:20.322909,542
2021-12-10 13:42:20.322918,533
2021-12-10 13:42:20.322926,523
2021-12-10 13:42:20.322935,518
2021-12-10 13:42:20.322943,515
2021-12-10 13:42:20.322951,508
2021-12-10 13:42:20.322959,501
2021-12-10 13:42:20.322968,513
2021-12-10 13:42:20.322976,513
2021-12-10 13:42:20.322985,493
2021-12-10 13:42:20.322993,476
2021-12-10 13:42:20.323001,457
2021-12-10 13:42:20.323010,442
2021-12-10 13:42:20.323018,442
2021-12-10 13:42:20.547347,435
2021-12-10 13:42:20.547367,427
2021-12-10 13:42:20.547377,427
2021-12-10 13:42:20.547386,423
2021-12-10 13:42:20.547395,420
2021-12-10 13:42:20.547404,437
2021-12-10 13:42:20.547413,486
2021-12-10 13:42:20.547422,577
2021-12-10 13:42:20.547430,802
2021-12-10 13:42:20.547439,939
2021-12-10 13:42:20.547447,508
2021-12-10 13:42:20.547456,-198
2021-12-10 13:42:20.547464,-369
2021-12-10 13:42:20.547473,9
2021-12-10 13:42:20.547481,278
2021-12-10 13:42:20.547490,313
2021-12-10 13:42:20.547498,393
2021-12-10 13:42:20.547507,452
2021-12-10 13:42:20.547515,430
2021-12-10 13:42:20.547524,447
2021-12-10 13:42:20.547532,476
2021-12-10 13:42:20.547541,459
2021-12-10 13:42:20.547549,449
2021-12-10 13:42:20.547557,459
2021-12-10 13:42:20.547566,464
2021-12-10 13:42:20.547574,467
2021-12-10 13:42:20.547583,481
2021-12-10 13:42:20.547591,501
2021-12-10 13:42:20.547599,498
2021-12-10 13:42:20.547608,511
2021-12-10 13:42:20.727252,545
2021-12-10 13:42:20.727271,560
2021-12-10 13:42:20.727281,582
2021-12-10 13:42:20.727289,616
2021-12-10 13:42:20.727298,635
2021-12-10 13:42:20.727307,643
2021-12-10 13:42:20.727315,635
2021-12-10 13:42:20.727323,623
2021-12-10 13:42:20.727332,591
2021-12-10 13:42:20.727340,535
2021-12-10 13:42:20.727349,476
2021-12-10 13:42:20.727358,398
2021-12-10 13:42:20.727366,317
2021-12-10 13:42:20.727374,261
2021-12-10 13:42:20.727383,205
2021-12-10 13:42:20.727391,156
2021-12-10 13:42:20.727400,127
2021-12-10 13:42:20.727408,107
2021-12-10 13:42:20.727416,95
2021-12-10 13:42:20.727425,92
2021-12-10 13:42:20.727433,92
2021-12-10 13:42:20.727442,90
2021-12-10 13:42:20.727450,92
2021-12-10 13:42:20.727459,105
2021-12-10 13:42:20.727467,100
2021-12-10 13:42:20.727476,107
2021-12-10 13:42:20.727484,124
2021-12-10 13:42:20.727492,112
2021-12-10 13:42:20.727501,107
2021-12-10 13:42:20.727509,122
2021-12-10 13:42:20.997333,129
2021-12-10 13:42:20.997353,134
2021-12-10 13:42:20.997363,134
2021-12-10 13:42:20.997372,129
2021-12-10 13:42:20.997380,127
2021-12-10 13:42:20.997389,127
2021-12-10 13:42:20.997397,129
2021-12-10 13:42:20.997406,122
2021-12-10 13:42:20.997414,112
2021-12-10 13:42:20.997423,105
2021-12-10 13:42:20.997431,95
2021-12-10 13:42:20.997439,95
2021-12-10 13:42:20.997448,95
2021-12-10 13:42:20.997456,85
2021-12-10 13:42:20.997465,78
2021-12-10 13:42:20.997473,66
2021-12-10 13:42:20.997481,61
2021-12-10 13:42:20.997490,61
2021-12-10 13:42:20.997498,53
2021-12-10 13:42:20.997506,53
2021-12-10 13:42:20.997515,51
2021-12-10 13:42:20.997524,44
2021-12-10 13:42:20.997532,51
2021-12-10 13:42:20.997548,58
2021-12-10 13:42:20.997557,68
2021-12-10 13:42:20.997566,75
2021-12-10 13:42:20.997574,78
2021-12-10 13:42:20.997582,75
2021-12-10 13:42:20.997591,56
2021-12-10 13:42:20.997599,39
2021-12-10 13:42:21.222313,39
2021-12-10 13:42:21.222333,39
2021-12-10 13:42:21.222342,39
2021-12-10 13:42:21.222351,31
2021-12-10 13:42:21.222360,29
2021-12-10 13:42:21.222368,39
2021-12-10 13:42:21.222377,36
2021-12-10 13:42:21.222385,44
2021-12-10 13:42:21.222394,73
2021-12-10 13:42:21.222402,107
2021-12-10 13:42:21.222411,234
2021-12-10 13:42:21.222419,496
2021-12-10 13:42:21.222428,489
2021-12-10 13:42:21.222436,-100
2021-12-10 13:42:21.222445,-665
2021-12-10 13:42:21.222453,-582
2021-12-10 13:42:21.222462,-210
2021-12-10 13:42:21.222470,-63
2021-12-10 13:42:21.222484,-14
2021-12-10 13:42:21.222493,78
2021-12-10 13:42:21.222502,105
2021-12-10 13:42:21.222510,97
2021-12-10 13:42:21.222519,122
2021-12-10 13:42:21.222527,136
2021-12-10 13:42:21.222535,127
2021-12-10 13:42:21.222544,141
2021-12-10 13:42:21.222552,158
2021-12-10 13:42:21.222560,156
2021-12-10 13:42:21.222569,171
2021-12-10 13:42:21.222577,185
2021-12-10 13:42:21.447245,190
2021-12-10 13:42:21.447263,210
2021-12-10 13:42:21.447273,232
2021-12-10 13:42:21.447281,249
2021-12-10 13:42:21.447290,269
2021-12-10 13:42:21.447298,288
2021-12-10 13:42:21.447307,313
2021-12-10 13:42:21.447315,320
2021-12-10 13:42:21.447324,310
2021-12-10 13:42:21.447332,308
2021-12-10 13:42:21.447340,281
2021-12-10 13:42:21.447349,234
2021-12-10 13:42:21.447357,168
2021-12-10 13:42:21.447386,90
2021-12-10 13:42:21.447395,24
2021-12-10 13:42:21.447404,-24
2021-12-10 13:42:21.447412,-56
2021-12-10 13:42:21.447421,-88
2021-12-10 13:42:21.447429,-112
2021-12-10 13:42:21.447438,-107
2021-12-10 13:42:21.447446,-100
2021-12-10 13:42:21.447455,-97
2021-12-10 13:42:21.447463,-80
2021-12-10 13:42:21.447471,-68
2021-12-10 13:42:21.447479,-63
2021-12-10 13:42:21.447488,-56
2021-12-10 13:42:21.447496,-48
2021-12-10 13:42:21.447505,-26
2021-12-10 13:42:21.447513,-14
2021-12-10 13:42:21.447522,-7
2021-12-10 13:42:21.672319,7
2021-12-10 13:42:21.672339,9
2021-12-10 13:42:21.672348,7
2021-12-10 13:42:21.672357,9
2021-12-10 13:42:21.672366,14
2021-12-10 13:42:21.672374,22
2021-12-10 13:42:21.672383,19
2021-12-10 13:42:21.672391,17
2021-12-10 13:42:21.672400,19
2021-12-10 13:42:21.672408,22
2021-12-10 13:42:21.672417,29
2021-12-10 13:42:21.672425,22
2021-12-10 13:42:21.672433,12
2021-12-10 13:42:21.672442,9
2021-12-10 13:42:21.672450,2
2021-12-10 13:42:21.672459,0
2021-12-10 13:42:21.672467,-4
2021-12-10 13:42:21.672476,-4
2021-12-10 13:42:21.672484,4
2021-12-10 13:42:21.672493,-4
2021-12-10 13:42:21.672501,-12
2021-12-10 13:42:21.672510,-7
2021-12-10 13:42:21.672518,-17
2021-12-10 13:42:21.672526,-22
2021-12-10 13:42:21.672535,-19
2021-12-10 13:42:21.672543,-17
2021-12-10 13:42:21.672551,-17
2021-12-10 13:42:21.672559,-19
2021-12-10 13:42:21.672568,-19
2021-12-10 13:42:21.672576,-17
2021-12-10 13:42:21.897268,-19
2021-12-10 13:42:21.897287,-19
2021-12-10 13:42:21.897296,-24
2021-12-10 13:42:21.897305,-26
2021-12-10 13:42:21.897314,-17
2021-12-10 13:42:21.897323,-12
2021-12-10 13:42:21.897332,-12
2021-12-10 13:42:21.897340,-12
2021-12-10 13:42:21.897348,0
2021-12-10 13:42:21.897357,12
2021-12-10 13:42:21.897366,0
2021-12-10 13:42:21.897374,-22
2021-12-10 13:42:21.897383,-36
2021-12-10 13:42:21.897391,-34
2021-12-10 13:42:21.897400,-24
2021-12-10 13:42:21.897408,-31
2021-12-10 13:42:21.897417,-31
2021-12-10 13:42:21.897425,-24
2021-12-10 13:42:21.897434,-34
2021-12-10 13:42:21.897442,-19
2021-12-10 13:42:21.897451,22
2021-12-10 13:42:21.897459,102
2021-12-10 13:42:21.897468,352
2021-12-10 13:42:21.897476,648
2021-12-10 13:42:21.897485,440
2021-12-10 13:42:21.897493,-261
2021-12-10 13:42:21.897502,-660
2021-12-10 13:42:21.897510,-467
2021-12-10 13:42:21.897525,-190
2021-12-10 13:42:21.897534,-102
2021-12-10 13:42:22.165949,-44
2021-12-10 13:42:22.165968,4
2021-12-10 13:42:22.165977,7
2021-12-10 13:42:22.165986,19
2021-12-10 13:42:22.165995,39
2021-12-10 13:42:22.166003,46
2021-12-10 13:42:22.166012,44
2021-12-10 13:42:22.166021,51
2021-12-10 13:42:22.166029,58
2021-12-10 13:42:22.166037,56
2021-12-10 13:42:22.166046,70
2021-12-10 13:42:22.166054,80
2021-12-10 13:42:22.166063,85
2021-12-10 13:42:22.166071,107
2021-12-10 13:42:22.166080,129
2021-12-10 13:42:22.166088,154
2021-12-10 13:42:22.166096,185
2021-12-10 13:42:22.166105,212
2021-12-10 13:42:22.166113,246
2021-12-10 13:42:22.166122,269
2021-12-10 13:42:22.166130,271
2021-12-10 13:42:22.166138,261
2021-12-10 13:42:22.166147,239
2021-12-10 13:42:22.166155,207
2021-12-10 13:42:22.166164,156
2021-12-10 13:42:22.166172,85
2021-12-10 13:42:22.166181,14
2021-12-10 13:42:22.166189,-51
2021-12-10 13:42:22.166197,-95
2021-12-10 13:42:22.166206,-134
2021-12-10 13:42:22.347209,-171
2021-12-10 13:42:22.347225,-178
2021-12-10 13:42:22.347235,-180
2021-12-10 13:42:22.347244,-180
2021-12-10 13:42:22.347252,-173
2021-12-10 13:42:22.347261,-173
2021-12-10 13:42:22.347270,-171
2021-12-10 13:42:22.347278,-156
2021-12-10 13:42:22.347287,-141
2021-12-10 13:42:22.347295,-139
2021-12-10 13:42:22.347304,-136
2021-12-10 13:42:22.347312,-127
2021-12-10 13:42:22.347321,-122
2021-12-10 13:42:22.347329,-119
2021-12-10 13:42:22.347338,-107
2021-12-10 13:42:22.347346,-100
2021-12-10 13:42:22.347355,-90
2021-12-10 13:42:22.347363,-80
2021-12-10 13:42:22.347378,-80
2021-12-10 13:42:22.347387,-75
2021-12-10 13:42:22.347396,-70
2021-12-10 13:42:22.347404,-73
2021-12-10 13:42:22.347413,-75
2021-12-10 13:42:22.347421,-75
2021-12-10 13:42:22.347430,-68
2021-12-10 13:42:22.347438,-66
2021-12-10 13:42:22.347447,-70
2021-12-10 13:42:22.347455,-70
2021-12-10 13:42:22.347464,-73
2021-12-10 13:42:22.347472,-73
2021-12-10 13:42:22.572211,-63
2021-12-10 13:42:22.572229,-68
2021-12-10 13:42:22.572239,-70
2021-12-10 13:42:22.572247,-70
2021-12-10 13:42:22.572256,-70
2021-12-10 13:42:22.572265,-68
2021-12-10 13:42:22.572274,-68
2021-12-10 13:42:22.572282,-63
2021-12-10 13:42:22.572290,-58
2021-12-10 13:42:22.572299,-63
2021-12-10 13:42:22.572307,-63
2021-12-10 13:42:22.572316,-61
2021-12-10 13:42:22.572324,-61
2021-12-10 13:42:22.572333,-61
2021-12-10 13:42:22.572341,-73
2021-12-10 13:42:22.572350,-70
2021-12-10 13:42:22.572358,-61
2021-12-10 13:42:22.572366,-53
2021-12-10 13:42:22.572375,-46
2021-12-10 13:42:22.572383,-36
2021-12-10 13:42:22.572392,-22
2021-12-10 13:42:22.572400,-14
2021-12-10 13:42:22.572408,-36
2021-12-10 13:42:22.572417,-58
2021-12-10 13:42:22.572425,-58
2021-12-10 13:42:22.572434,-48
2021-12-10 13:42:22.572442,-53
2021-12-10 13:42:22.572450,-61
2021-12-10 13:42:22.572464,-56
2021-12-10 13:42:22.572473,-56
2021-12-10 13:42:22.841803,-61
2021-12-10 13:42:22.841824,-36
2021-12-10 13:42:22.841834,26
2021-12-10 13:42:22.841843,195
2021-12-10 13:42:22.841851,560
2021-12-10 13:42:22.841860,716
2021-12-10 13:42:22.841869,224
2021-12-10 13:42:22.841877,-467
2021-12-10 13:42:22.841886,-648
2021-12-10 13:42:22.841894,-359
2021-12-10 13:42:22.841903,-154
2021-12-10 13:42:22.841911,-117
2021-12-10 13:42:22.841920,-58
2021-12-10 13:42:22.841928,-24
2021-12-10 13:42:22.841936,-22
2021-12-10 13:42:22.841945,-7
2021-12-10 13:42:22.841953,7
2021-12-10 13:42:22.841962,19
2021-12-10 13:42:22.841970,24
2021-12-10 13:42:22.841979,34
2021-12-10 13:42:22.841987,39
2021-12-10 13:42:22.841995,46
2021-12-10 13:42:22.842004,63
2021-12-10 13:42:22.842012,80
2021-12-10 13:42:22.842021,102
2021-12-10 13:42:22.842029,127
2021-12-10 13:42:22.842037,151
2021-12-10 13:42:22.842046,190
2021-12-10 13:42:22.842054,229
2021-12-10 13:42:22.842063,269
2021-12-10 13:42:23.067340,303
2021-12-10 13:42:23.067360,320
2021-12-10 13:42:23.067370,325
2021-12-10 13:42:23.067379,313
2021-12-10 13:42:23.067387,288
2021-12-10 13:42:23.067396,261
2021-12-10 13:42:23.067404,207
2021-12-10 13:42:23.067413,136
2021-12-10 13:42:23.067422,70
2021-12-10 13:42:23.067430,4
2021-12-10 13:42:23.067439,-39
2021-12-10 13:42:23.067447,-68
2021-12-10 13:42:23.067456,-88
2021-12-10 13:42:23.067464,-90
2021-12-10 13:42:23.067473,-95
2021-12-10 13:42:23.067481,-95
2021-12-10 13:42:23.067490,-88
2021-12-10 13:42:23.067498,-78
2021-12-10 13:42:23.067506,-66
2021-12-10 13:42:23.067515,-61
2021-12-10 13:42:23.067523,-63
2021-12-10 13:42:23.067532,-56
2021-12-10 13:42:23.067540,-39
2021-12-10 13:42:23.067549,-26
2021-12-10 13:42:23.067557,-24
2021-12-10 13:42:23.067565,-19
2021-12-10 13:42:23.067574,-9
2021-12-10 13:42:23.067582,-9
2021-12-10 13:42:23.067596,4
2021-12-10 13:42:23.067605,19
2021-12-10 13:42:23.337270,17
2021-12-10 13:42:23.337288,19
2021-12-10 13:42:23.337298,14
2021-12-10 13:42:23.337307,14
2021-12-10 13:42:23.337315,22
2021-12-10 13:42:23.337324,17
2021-12-10 13:42:23.337332,14
2021-12-10 13:42:23.337341,17
2021-12-10 13:42:23.337349,14
2021-12-10 13:42:23.337357,17
2021-12-10 13:42:23.337366,14
2021-12-10 13:42:23.337374,19
2021-12-10 13:42:23.337383,24
2021-12-10 13:42:23.337391,17
2021-12-10 13:42:23.337399,9
2021-12-10 13:42:23.337407,7
2021-12-10 13:42:23.337416,17
2021-12-10 13:42:23.337424,24
2021-12-10 13:42:23.337433,19
2021-12-10 13:42:23.337441,26
2021-12-10 13:42:23.337449,26
2021-12-10 13:42:23.337457,14
2021-12-10 13:42:23.337466,22
2021-12-10 13:42:23.337474,26
2021-12-10 13:42:23.337482,26
2021-12-10 13:42:23.337491,29
2021-12-10 13:42:23.337499,24
2021-12-10 13:42:23.337507,29
2021-12-10 13:42:23.337516,29
2021-12-10 13:42:23.337524,29
2021-12-10 13:42:23.517387,29
2021-12-10 13:42:23.517408,26
2021-12-10 13:42:23.517417,39
2021-12-10 13:42:23.517426,48
2021-12-10 13:42:23.517435,53
2021-12-10 13:42:23.517443,63
2021-12-10 13:42:23.517452,53
2021-12-10 13:42:23.517461,26
2021-12-10 13:42:23.517469,7
2021-12-10 13:42:23.517478,12
2021-12-10 13:42:23.517486,24
2021-12-10 13:42:23.517495,14
2021-12-10 13:42:23.517503,7
2021-12-10 13:42:23.517512,9
2021-12-10 13:42:23.517520,2
2021-12-10 13:42:23.517529,7
2021-12-10 13:42:23.517537,44
2021-12-10 13:42:23.517546,100
2021-12-10 13:42:23.517554,269
2021-12-10 13:42:23.517563,589
2021-12-10 13:42:23.517571,604
2021-12-10 13:42:23.517580,-22
2021-12-10 13:42:23.517588,-633
2021-12-10 13:42:23.517597,-599
2021-12-10 13:42:23.517605,-234
2021-12-10 13:42:23.517614,-83
2021-12-10 13:42:23.517622,-58
2021-12-10 13:42:23.517631,19
2021-12-10 13:42:23.517639,63
2021-12-10 13:42:23.517647,58
2021-12-10 13:42:23.742302,70
2021-12-10 13:42:23.742321,88
2021-12-10 13:42:23.742330,85
2021-12-10 13:42:23.742339,95
2021-12-10 13:42:23.742348,107
2021-12-10 13:42:23.742356,114
2021-12-10 13:42:23.742365,124
2021-12-10 13:42:23.742373,127
2021-12-10 13:42:23.742382,134
2021-12-10 13:42:23.742390,154
2021-12-10 13:42:23.742399,166
2021-12-10 13:42:23.742407,193
2021-12-10 13:42:23.742415,227
2021-12-10 13:42:23.742424,242
2021-12-10 13:42:23.742432,264
2021-12-10 13:42:23.742440,293
2021-12-10 13:42:23.742449,308
2021-12-10 13:42:23.742457,298
2021-12-10 13:42:23.742466,281
2021-12-10 13:42:23.742474,259
2021-12-10 13:42:23.742482,210
2021-12-10 13:42:23.742490,141
2021-12-10 13:42:23.742499,78
2021-12-10 13:42:23.742507,19
2021-12-10 13:42:23.742516,-41
2021-12-10 13:42:23.742524,-95
2021-12-10 13:42:23.742532,-132
2021-12-10 13:42:23.742541,-146
2021-12-10 13:42:23.742549,-156
2021-12-10 13:42:23.742557,-158
2021-12-10 13:42:23.967342,-156
2021-12-10 13:42:23.967364,-156
2021-12-10 13:42:23.967373,-149
2021-12-10 13:42:23.967383,-146
2021-12-10 13:42:23.967393,-141
2021-12-10 13:42:23.967402,-129
2021-12-10 13:42:23.967411,-129
2021-12-10 13:42:23.967421,-129
2021-12-10 13:42:23.967430,-114
2021-12-10 13:42:23.967440,-107
2021-12-10 13:42:23.967449,-102
2021-12-10 13:42:23.967458,-105
2021-12-10 13:42:23.967468,-102
2021-12-10 13:42:23.967477,-90
2021-12-10 13:42:23.967496,-90
2021-12-10 13:42:23.967507,-92
2021-12-10 13:42:23.967517,-88
2021-12-10 13:42:23.967527,-83
2021-12-10 13:42:23.967536,-80
2021-12-10 13:42:23.967546,-85
2021-12-10 13:42:23.967555,-88
2021-12-10 13:42:23.967563,-88
2021-12-10 13:42:23.967572,-88
2021-12-10 13:42:23.967580,-85
2021-12-10 13:42:23.967589,-90
2021-12-10 13:42:23.967598,-95
2021-12-10 13:42:23.967606,-92
2021-12-10 13:42:23.967615,-92
2021-12-10 13:42:23.967623,-88
2021-12-10 13:42:23.967632,-95
2021-12-10 13:42:24.236620,-97
2021-12-10 13:42:24.236640,-92
2021-12-10 13:42:24.236649,-100
2021-12-10 13:42:24.236658,-102
2021-12-10 13:42:24.236669,-102
2021-12-10 13:42:24.236678,-112
2021-12-10 13:42:24.236687,-110
2021-12-10 13:42:24.236695,-100
2021-12-10 13:42:24.236703,-92
2021-12-10 13:42:24.236712,-83
2021-12-10 13:42:24.236720,-73
2021-12-10 13:42:24.236729,-70
2021-12-10 13:42:24.236737,-83
2021-12-10 13:42:24.236746,-102
2021-12-10 13:42:24.236754,-112
2021-12-10 13:42:24.236762,-110
2021-12-10 13:42:24.236771,-110
2021-12-10 13:42:24.236779,-114
2021-12-10 13:42:24.236788,-117
2021-12-10 13:42:24.236796,-110
2021-12-10 13:42:24.236805,-110
2021-12-10 13:42:24.236813,-102
2021-12-10 13:42:24.236821,-63
2021-12-10 13:42:24.236830,-19
2021-12-10 13:42:24.236838,85
2021-12-10 13:42:24.236846,342
2021-12-10 13:42:24.236855,376
2021-12-10 13:42:24.236863,-190
2021-12-10 13:42:24.236878,-824
2021-12-10 13:42:24.236887,-792
2021-12-10 13:42:24.417255,-366
2021-12-10 13:42:24.417273,-176
2021-12-10 13:42:24.417283,-139
2021-12-10 13:42:24.417291,-44
2021-12-10 13:42:24.417300,-4
2021-12-10 13:42:24.417309,-19
2021-12-10 13:42:24.417317,-4
2021-12-10 13:42:24.417325,17
2021-12-10 13:42:24.417334,14
2021-12-10 13:42:24.417342,17
2021-12-10 13:42:24.417350,31
2021-12-10 13:42:24.417359,31
2021-12-10 13:42:24.417367,36
2021-12-10 13:42:24.417376,58
2021-12-10 13:42:24.417384,68
2021-12-10 13:42:24.417392,78
2021-12-10 13:42:24.417401,97
2021-12-10 13:42:24.417409,119
2021-12-10 13:42:24.417417,149
2021-12-10 13:42:24.417425,183
2021-12-10 13:42:24.417434,207
2021-12-10 13:42:24.417442,224
2021-12-10 13:42:24.417450,232
2021-12-10 13:42:24.417459,232
2021-12-10 13:42:24.417467,215
2021-12-10 13:42:24.417475,185
2021-12-10 13:42:24.417483,144
2021-12-10 13:42:24.417492,68
2021-12-10 13:42:24.417500,-9
2021-12-10 13:42:24.417508,-68
2021-12-10 13:42:24.642854,-119
2021-12-10 13:42:24.642873,-168
2021-12-10 13:42:24.642883,-210
2021-12-10 13:42:24.642892,-224
2021-12-10 13:42:24.642900,-227
2021-12-10 13:42:24.642909,-237
2021-12-10 13:42:24.642917,-234
2021-12-10 13:42:24.642926,-229
2021-12-10 13:42:24.642934,-224
2021-12-10 13:42:24.642943,-215
2021-12-10 13:42:24.642951,-212
2021-12-10 13:42:24.642959,-207
2021-12-10 13:42:24.642968,-190
2021-12-10 13:42:24.642976,-180
2021-12-10 13:42:24.642985,-171
2021-12-10 13:42:24.642993,-166
2021-12-10 13:42:24.643002,-161
2021-12-10 13:42:24.643010,-154
2021-12-10 13:42:24.643018,-151
2021-12-10 13:42:24.643027,-139
2021-12-10 13:42:24.643035,-129
2021-12-10 13:42:24.643043,-132
2021-12-10 13:42:24.643052,-127
2021-12-10 13:42:24.643060,-127
2021-12-10 13:42:24.643068,-124
2021-12-10 13:42:24.643077,-122
2021-12-10 13:42:24.643085,-127
2021-12-10 13:42:24.643094,-124
2021-12-10 13:42:24.643102,-127
2021-12-10 13:42:24.643110,-129
2021-12-10 13:42:24.867222,-124
2021-12-10 13:42:24.867238,-124
2021-12-10 13:42:24.867248,-122
2021-12-10 13:42:24.867257,-122
2021-12-10 13:42:24.867265,-127
2021-12-10 13:42:24.867273,-119
2021-12-10 13:42:24.867282,-119
2021-12-10 13:42:24.867290,-117
2021-12-10 13:42:24.867298,-112
2021-12-10 13:42:24.867307,-117
2021-12-10 13:42:24.867315,-119
2021-12-10 13:42:24.867323,-117
2021-12-10 13:42:24.867332,-107
2021-12-10 13:42:24.867340,-100
2021-12-10 13:42:24.867348,-105
2021-12-10 13:42:24.867357,-102
2021-12-10 13:42:24.867365,-102
2021-12-10 13:42:24.867373,-102
2021-12-10 13:42:24.867381,-100
2021-12-10 13:42:24.867390,-102
2021-12-10 13:42:24.867398,-100
2021-12-10 13:42:24.867406,-90
2021-12-10 13:42:24.867415,-83
2021-12-10 13:42:24.867423,-73
2021-12-10 13:42:24.867431,-66
2021-12-10 13:42:24.867440,-58
2021-12-10 13:42:24.867448,-66
2021-12-10 13:42:24.867456,-90
2021-12-10 13:42:24.867465,-102
2021-12-10 13:42:24.867473,-92
2021-12-10 13:42:25.137323,-90
2021-12-10 13:42:25.137342,-92
2021-12-10 13:42:25.137352,-97
2021-12-10 13:42:25.137360,-102
2021-12-10 13:42:25.137369,-105
2021-12-10 13:42:25.137378,-102
2021-12-10 13:42:25.137386,-70
2021-12-10 13:42:25.137395,-12
2021-12-10 13:42:25.137410,161
2021-12-10 13:42:25.137419,511
2021-12-10 13:42:25.137427,567
2021-12-10 13:42:25.137436,-19
2021-12-10 13:42:25.137444,-652
2021-12-10 13:42:25.137453,-711
2021-12-10 13:42:25.137461,-379
2021-12-10 13:42:25.137470,-193
2021-12-10 13:42:25.137478,-166
2021-12-10 13:42:25.137487,-97
2021-12-10 13:42:25.137495,-58
2021-12-10 13:42:25.137504,-53
2021-12-10 13:42:25.137512,-36
2021-12-10 13:42:25.137520,-29
2021-12-10 13:42:25.137529,-31
2021-12-10 13:42:25.137537,-24
2021-12-10 13:42:25.137546,-7
2021-12-10 13:42:25.137554,2
2021-12-10 13:42:25.137563,9
2021-12-10 13:42:25.137571,26
2021-12-10 13:42:25.137579,39
2021-12-10 13:42:25.137588,58
2021-12-10 13:42:25.406679,83
2021-12-10 13:42:25.406698,95
2021-12-10 13:42:25.406707,119
2021-12-10 13:42:25.406716,154
2021-12-10 13:42:25.406724,180
2021-12-10 13:42:25.406733,202
2021-12-10 13:42:25.406741,215
2021-12-10 13:42:25.406750,220
2021-12-10 13:42:25.406758,205
2021-12-10 13:42:25.406766,173
2021-12-10 13:42:25.406775,139
2021-12-10 13:42:25.406783,83
2021-12-10 13:42:25.406792,14
2021-12-10 13:42:25.406800,-48
2021-12-10 13:42:25.406809,-112
2021-12-10 13:42:25.406817,-154
2021-12-10 13:42:25.406825,-180
2021-12-10 13:42:25.406834,-202
2021-12-10 13:42:25.406842,-210
2021-12-10 13:42:25.406851,-212
2021-12-10 13:42:25.406859,-202
2021-12-10 13:42:25.406867,-200
2021-12-10 13:42:25.406876,-202
2021-12-10 13:42:25.406884,-185
2021-12-10 13:42:25.406892,-178
2021-12-10 13:42:25.406901,-176
2021-12-10 13:42:25.406909,-163
2021-12-10 13:42:25.406918,-158
2021-12-10 13:42:25.406931,-149
2021-12-10 13:42:25.406940,-139
2021-12-10 13:42:25.631780,-136
2021-12-10 13:42:25.631800,-129
2021-12-10 13:42:25.631809,-127
2021-12-10 13:42:25.631818,-127
2021-12-10 13:42:25.631827,-124
2021-12-10 13:42:25.631835,-119
2021-12-10 13:42:25.631843,-114
2021-12-10 13:42:25.631852,-117
2021-12-10 13:42:25.631860,-124
2021-12-10 13:42:25.631869,-124
2021-12-10 13:42:25.631877,-122
2021-12-10 13:42:25.631885,-114
2021-12-10 13:42:25.631894,-112
2021-12-10 13:42:25.631902,-122
2021-12-10 13:42:25.631911,-122
2021-12-10 13:42:25.631919,-122
2021-12-10 13:42:25.631928,-127
2021-12-10 13:42:25.631937,-124
2021-12-10 13:42:25.631945,-129
2021-12-10 13:42:25.631953,-132
2021-12-10 13:42:25.631962,-134
2021-12-10 13:42:25.631970,-134
2021-12-10 13:42:25.631979,-124
2021-12-10 13:42:25.631987,-122
2021-12-10 13:42:25.631996,-124
2021-12-10 13:42:25.632004,-124
2021-12-10 13:42:25.632012,-124
2021-12-10 13:42:25.632021,-122
2021-12-10 13:42:25.632030,-122
2021-12-10 13:42:25.632038,-119
2021-12-10 13:42:25.812289,-114
2021-12-10 13:42:25.812307,-119
2021-12-10 13:42:25.812316,-119
2021-12-10 13:42:25.812327,-122
2021-12-10 13:42:25.812336,-124
2021-12-10 13:42:25.812344,-117
2021-12-10 13:42:25.812353,-114
2021-12-10 13:42:25.812361,-110
2021-12-10 13:42:25.812369,-105
2021-12-10 13:42:25.812378,-100
2021-12-10 13:42:25.812386,-92
2021-12-10 13:42:25.812394,-90
2021-12-10 13:42:25.812403,-97
2021-12-10 13:42:25.812411,-124
2021-12-10 13:42:25.812419,-149
2021-12-10 13:42:25.812428,-139
2021-12-10 13:42:25.812436,-129
2021-12-10 13:42:25.812444,-132
2021-12-10 13:42:25.812453,-129
2021-12-10 13:42:25.812461,-132
2021-12-10 13:42:25.812469,-139
2021-12-10 13:42:25.812478,-136
2021-12-10 13:42:25.812486,-102
2021-12-10 13:42:25.812494,-4
2021-12-10 13:42:25.812503,259
2021-12-10 13:42:25.812511,643
2021-12-10 13:42:25.812525,567
2021-12-10 13:42:25.812534,-146
2021-12-10 13:42:25.812542,-738
2021-12-10 13:42:25.812551,-699
2021-12-10 13:42:26.171763,-381
2021-12-10 13:42:26.171783,-256
2021-12-10 13:42:26.171793,-244
2021-12-10 13:42:26.171802,-178
2021-12-10 13:42:26.171811,-149
2021-12-10 13:42:26.171819,-149
2021-12-10 13:42:26.171828,-129
2021-12-10 13:42:26.171836,-117
2021-12-10 13:42:26.171845,-102
2021-12-10 13:42:26.171853,-68
2021-12-10 13:42:26.171862,-36
2021-12-10 13:42:26.171870,-19
2021-12-10 13:42:26.171879,-19
2021-12-10 13:42:26.171887,-31
2021-12-10 13:42:26.171896,-4
2021-12-10 13:42:26.171904,80
2021-12-10 13:42:26.171913,188
2021-12-10 13:42:26.171921,261
2021-12-10 13:42:26.171929,293
2021-12-10 13:42:26.171938,349
2021-12-10 13:42:26.171946,427
2021-12-10 13:42:26.171955,496
2021-12-10 13:42:26.171963,555
2021-12-10 13:42:26.171972,579
2021-12-10 13:42:26.171980,552
2021-12-10 13:42:26.171988,486
2021-12-10 13:42:26.171997,401
2021-12-10 13:42:26.172005,298
2021-12-10 13:42:26.172013,176
2021-12-10 13:42:26.172022,48
2021-12-10 13:42:26.306069,-63
2021-12-10 13:42:26.306090,-176
2021-12-10 13:42:26.306100,-273
2021-12-10 13:42:26.306108,-349
2021-12-10 13:42:26.306117,-413
2021-12-10 13:42:26.306125,-467
2021-12-10 13:42:26.306134,-496
2021-12-10 13:42:26.306142,-503
2021-12-10 13:42:26.306157,-501
2021-12-10 13:42:26.306166,-491
2021-12-10 13:42:26.306174,-457
2021-12-10 13:42:26.306183,-420
2021-12-10 13:42:26.306191,-383
2021-12-10 13:42:26.306199,-335
2021-12-10 13:42:26.306208,-300
2021-12-10 13:42:26.306216,-273
2021-12-10 13:42:26.306225,-246
2021-12-10 13:42:26.306233,-227
2021-12-10 13:42:26.306241,-222
2021-12-10 13:42:26.306250,-224
2021-12-10 13:42:26.306258,-207
2021-12-10 13:42:26.306266,-185
2021-12-10 13:42:26.306275,-168
2021-12-10 13:42:26.306283,-154
2021-12-10 13:42:26.306292,-146
2021-12-10 13:42:26.306300,-136
2021-12-10 13:42:26.306308,-134
2021-12-10 13:42:26.306317,-149
2021-12-10 13:42:26.306325,-156
2021-12-10 13:42:26.306333,-156
2021-12-10 13:42:26.532451,-158
2021-12-10 13:42:26.532471,-154
2021-12-10 13:42:26.532481,-163
2021-12-10 13:42:26.532490,-185
2021-12-10 13:42:26.532498,-193
2021-12-10 13:42:26.532507,-190
2021-12-10 13:42:26.532515,-195
2021-12-10 13:42:26.532524,-205
2021-12-10 13:42:26.532532,-215
2021-12-10 13:42:26.532541,-222
2021-12-10 13:42:26.532549,-229
2021-12-10 13:42:26.532557,-232
2021-12-10 13:42:26.532566,-239
2021-12-10 13:42:26.532574,-242
2021-12-10 13:42:26.532583,-244
2021-12-10 13:42:26.532591,-246
2021-12-10 13:42:26.532599,-234
2021-12-10 13:42:26.532608,-242
2021-12-10 13:42:26.532616,-256
2021-12-10 13:42:26.532625,-244
2021-12-10 13:42:26.532633,-244
2021-12-10 13:42:26.532641,-249
2021-12-10 13:42:26.532650,-229
2021-12-10 13:42:26.532658,-222
2021-12-10 13:42:26.532666,-227
2021-12-10 13:42:26.532675,-229
2021-12-10 13:42:26.532683,-242
2021-12-10 13:42:26.532692,-261
2021-12-10 13:42:26.532700,-266
2021-12-10 13:42:26.532708,-266
2021-12-10 13:42:26.756709,-273
2021-12-10 13:42:26.756727,-283
2021-12-10 13:42:26.756737,-298
2021-12-10 13:42:26.756746,-320
2021-12-10 13:42:26.756755,-327
2021-12-10 13:42:26.756763,-293
2021-12-10 13:42:26.756772,-229
2021-12-10 13:42:26.756780,-75
2021-12-10 13:42:26.756788,229
2021-12-10 13:42:26.756797,256
2021-12-10 13:42:26.756805,-398
2021-12-10 13:42:26.756814,-1085
2021-12-10 13:42:26.756822,-1036
2021-12-10 13:42:26.756831,-604
2021-12-10 13:42:26.756839,-449
2021-12-10 13:42:26.756848,-430
2021-12-10 13:42:26.756856,-317
2021-12-10 13:42:26.756864,-264
2021-12-10 13:42:26.756873,-256
2021-12-10 13:42:26.756881,-210
2021-12-10 13:42:26.756889,-183
2021-12-10 13:42:26.756898,-195
2021-12-10 13:42:26.756906,-188
2021-12-10 13:42:26.756915,-163
2021-12-10 13:42:26.756923,-158
2021-12-10 13:42:26.756932,-146
2021-12-10 13:42:26.756940,-117
2021-12-10 13:42:26.756949,-102
2021-12-10 13:42:26.756957,-102
2021-12-10 13:42:26.756965,-97
2021-12-10 13:42:27.027417,-78
2021-12-10 13:42:27.027438,-48
2021-12-10 13:42:27.027447,-26
2021-12-10 13:42:27.027456,-12
2021-12-10 13:42:27.027465,9
2021-12-10 13:42:27.027474,48
2021-12-10 13:42:27.027482,73
2021-12-10 13:42:27.027491,66
2021-12-10 13:42:27.027499,56
2021-12-10 13:42:27.027508,34
2021-12-10 13:42:27.027516,-22
2021-12-10 13:42:27.027525,-85
2021-12-10 13:42:27.027533,-127
2021-12-10 13:42:27.027542,-154
2021-12-10 13:42:27.027550,-188
2021-12-10 13:42:27.027558,-227
2021-12-10 13:42:27.027567,-227
2021-12-10 13:42:27.027575,-202
2021-12-10 13:42:27.027590,-185
2021-12-10 13:42:27.027599,-173
2021-12-10 13:42:27.027607,-176
2021-12-10 13:42:27.027615,-178
2021-12-10 13:42:27.027624,-154
2021-12-10 13:42:27.027632,-132
2021-12-10 13:42:27.027640,-119
2021-12-10 13:42:27.027649,-100
2021-12-10 13:42:27.027657,-80
2021-12-10 13:42:27.027665,-80
2021-12-10 13:42:27.027674,-85
2021-12-10 13:42:27.027682,-80
2021-12-10 13:42:27.207553,-92
2021-12-10 13:42:27.207570,-132
2021-12-10 13:42:27.207579,-166
2021-12-10 13:42:27.207588,-207
2021-12-10 13:42:27.207597,-256
2021-12-10 13:42:27.207606,-283
2021-12-10 13:42:27.207614,-308
2021-12-10 13:42:27.207623,-344
2021-12-10 13:42:27.207631,-357
2021-12-10 13:42:27.207640,-359
2021-12-10 13:42:27.207648,-361
2021-12-10 13:42:27.207657,-342
2021-12-10 13:42:27.207665,-320
2021-12-10 13:42:27.207674,-315
2021-12-10 13:42:27.207682,-300
2021-12-10 13:42:27.207691,-293
2021-12-10 13:42:27.207699,-305
2021-12-10 13:42:27.207707,-298
2021-12-10 13:42:27.207716,-293
2021-12-10 13:42:27.207724,-305
2021-12-10 13:42:27.207732,-293
2021-12-10 13:42:27.207741,-266
2021-12-10 13:42:27.207749,-249
2021-12-10 13:42:27.207758,-227
2021-12-10 13:42:27.207766,-202
2021-12-10 13:42:27.207775,-180
2021-12-10 13:42:27.207783,-156
2021-12-10 13:42:27.207791,-112
2021-12-10 13:42:27.207800,-63
2021-12-10 13:42:27.207808,-41
2021-12-10 13:42:27.432282,-9
2021-12-10 13:42:27.432299,44
2021-12-10 13:42:27.432308,68
2021-12-10 13:42:27.432317,70
2021-12-10 13:42:27.432326,102
2021-12-10 13:42:27.432334,136
2021-12-10 13:42:27.432342,151
2021-12-10 13:42:27.432351,188
2021-12-10 13:42:27.432365,232
2021-12-10 13:42:27.432374,251
2021-12-10 13:42:27.432382,266
2021-12-10 13:42:27.432391,317
2021-12-10 13:42:27.432399,393
2021-12-10 13:42:27.432407,528
2021-12-10 13:42:27.432416,821
2021-12-10 13:42:27.432424,958
2021-12-10 13:42:27.432432,474
2021-12-10 13:42:27.432441,-205
2021-12-10 13:42:27.432449,-261
2021-12-10 13:42:27.432458,161
2021-12-10 13:42:27.432466,386
2021-12-10 13:42:27.432474,423
2021-12-10 13:42:27.432482,530
2021-12-10 13:42:27.432491,594
2021-12-10 13:42:27.432499,584
2021-12-10 13:42:27.432507,611
2021-12-10 13:42:27.432515,650
2021-12-10 13:42:27.432524,652
2021-12-10 13:42:27.432550,655
2021-12-10 13:42:27.432559,670
2021-12-10 13:42:27.657339,677
2021-12-10 13:42:27.657358,679
2021-12-10 13:42:27.657368,689
2021-12-10 13:42:27.657377,694
2021-12-10 13:42:27.657386,692
2021-12-10 13:42:27.657394,704
2021-12-10 13:42:27.657403,736
2021-12-10 13:42:27.657411,765
2021-12-10 13:42:27.657420,780
2021-12-10 13:42:27.657429,802
2021-12-10 13:42:27.657437,829
2021-12-10 13:42:27.657446,833
2021-12-10 13:42:27.657454,829
2021-12-10 13:42:27.657463,811
2021-12-10 13:42:27.657471,765
2021-12-10 13:42:27.657480,714
2021-12-10 13:42:27.657488,662
2021-12-10 13:42:27.657497,584
2021-12-10 13:42:27.657505,501
2021-12-10 13:42:27.657514,445
2021-12-10 13:42:27.657522,405
2021-12-10 13:42:27.657531,361
2021-12-10 13:42:27.657539,327
2021-12-10 13:42:27.657548,320
2021-12-10 13:42:27.657556,320
2021-12-10 13:42:27.657565,310
2021-12-10 13:42:27.657573,293
2021-12-10 13:42:27.657582,288
2021-12-10 13:42:27.657590,295
2021-12-10 13:42:27.657599,295
2021-12-10 13:42:27.882245,293
2021-12-10 13:42:27.882262,291
2021-12-10 13:42:27.882272,293
2021-12-10 13:42:27.882280,300
2021-12-10 13:42:27.882289,300
2021-12-10 13:42:27.882298,291
2021-12-10 13:42:27.882306,281
2021-12-10 13:42:27.882315,286
2021-12-10 13:42:27.882323,298
2021-12-10 13:42:27.882332,283
2021-12-10 13:42:27.882340,271
2021-12-10 13:42:27.882348,276
2021-12-10 13:42:27.882357,271
2021-12-10 13:42:27.882365,259
2021-12-10 13:42:27.882374,239
2021-12-10 13:42:27.882382,217
2021-12-10 13:42:27.882391,200
2021-12-10 13:42:27.882399,198
2021-12-10 13:42:27.882408,205
2021-12-10 13:42:27.882416,193
2021-12-10 13:42:27.882425,173
2021-12-10 13:42:27.882433,176
2021-12-10 13:42:27.882442,178
2021-12-10 13:42:27.882450,166
2021-12-10 13:42:27.882459,161
2021-12-10 13:42:27.882467,161
2021-12-10 13:42:27.882475,154
2021-12-10 13:42:27.882484,158
2021-12-10 13:42:27.882492,156
2021-12-10 13:42:27.882501,146
2021-12-10 13:42:28.107386,156
2021-12-10 13:42:28.107406,161
2021-12-10 13:42:28.107415,154
2021-12-10 13:42:28.107424,146
2021-12-10 13:42:28.107433,134
2021-12-10 13:42:28.107441,129
2021-12-10 13:42:28.107449,146
2021-12-10 13:42:28.107457,151
2021-12-10 13:42:28.107466,144
2021-12-10 13:42:28.107474,151
2021-12-10 13:42:28.107483,156
2021-12-10 13:42:28.107491,154
2021-12-10 13:42:28.107499,156
2021-12-10 13:42:28.107507,149
2021-12-10 13:42:28.107515,124
2021-12-10 13:42:28.107524,97
2021-12-10 13:42:28.107532,97
2021-12-10 13:42:28.107540,105
2021-12-10 13:42:28.107557,102
2021-12-10 13:42:28.107566,97
2021-12-10 13:42:28.107574,100
2021-12-10 13:42:28.107582,105
2021-12-10 13:42:28.107591,107
2021-12-10 13:42:28.107599,127
2021-12-10 13:42:28.107607,176
2021-12-10 13:42:28.107615,298
2021-12-10 13:42:28.107624,601
2021-12-10 13:42:28.107632,787
2021-12-10 13:42:28.107640,357
2021-12-10 13:42:28.107649,-364
2021-12-10 13:42:28.420963,-560
2021-12-10 13:42:28.420981,-222
2021-12-10 13:42:28.420991,-2
2021-12-10 13:42:28.421000,22
2021-12-10 13:42:28.421008,105
2021-12-10 13:42:28.421017,154
2021-12-10 13:42:28.421026,122
2021-12-10 13:42:28.421034,124
2021-12-10 13:42:28.421043,156
2021-12-10 13:42:28.421051,161
2021-12-10 13:42:28.421060,151
2021-12-10 13:42:28.421068,156
2021-12-10 13:42:28.421076,163
2021-12-10 13:42:28.421085,163
2021-12-10 13:42:28.421093,166
2021-12-10 13:42:28.421102,168
2021-12-10 13:42:28.421110,180
2021-12-10 13:42:28.421118,207
2021-12-10 13:42:28.421127,227
2021-12-10 13:42:28.421135,246
2021-12-10 13:42:28.421144,278
2021-12-10 13:42:28.421152,315
2021-12-10 13:42:28.421160,352
2021-12-10 13:42:28.421169,381
2021-12-10 13:42:28.421177,391
2021-12-10 13:42:28.421185,371
2021-12-10 13:42:28.421194,325
2021-12-10 13:42:28.421202,271
2021-12-10 13:42:28.421211,212
2021-12-10 13:42:28.421219,146
2021-12-10 13:42:28.557529,95
2021-12-10 13:42:28.557557,48
2021-12-10 13:42:28.557567,-7
2021-12-10 13:42:28.557576,-58
2021-12-10 13:42:28.557584,-100
2021-12-10 13:42:28.557593,-134
2021-12-10 13:42:28.557601,-154
2021-12-10 13:42:28.557610,-144
2021-12-10 13:42:28.557618,-134
2021-12-10 13:42:28.557627,-132
2021-12-10 13:42:28.557635,-117
2021-12-10 13:42:28.557644,-105
2021-12-10 13:42:28.557652,-97
2021-12-10 13:42:28.557661,-90
2021-12-10 13:42:28.557669,-80
2021-12-10 13:42:28.557677,-63
2021-12-10 13:42:28.557686,-46
2021-12-10 13:42:28.557694,-22
2021-12-10 13:42:28.557703,4
2021-12-10 13:42:28.557711,19
2021-12-10 13:42:28.557719,29
2021-12-10 13:42:28.557728,29
2021-12-10 13:42:28.557736,29
2021-12-10 13:42:28.557745,51
2021-12-10 13:42:28.557753,61
2021-12-10 13:42:28.557761,46
2021-12-10 13:42:28.557770,22
2021-12-10 13:42:28.557778,-7
2021-12-10 13:42:28.557786,-34
2021-12-10 13:42:28.557795,-56
2021-12-10 13:42:28.782288,-63
2021-12-10 13:42:28.782305,-78
2021-12-10 13:42:28.782315,-105
2021-12-10 13:42:28.782323,-105
2021-12-10 13:42:28.782332,-114
2021-12-10 13:42:28.782340,-146
2021-12-10 13:42:28.782349,-151
2021-12-10 13:42:28.782357,-154
2021-12-10 13:42:28.782365,-166
2021-12-10 13:42:28.782374,-168
2021-12-10 13:42:28.782382,-176
2021-12-10 13:42:28.782391,-190
2021-12-10 13:42:28.782399,-195
2021-12-10 13:42:28.782408,-200
2021-12-10 13:42:28.782416,-212
2021-12-10 13:42:28.782425,-232
2021-12-10 13:42:28.782433,-242
2021-12-10 13:42:28.782442,-244
2021-12-10 13:42:28.782450,-251
2021-12-10 13:42:28.782459,-249
2021-12-10 13:42:28.782467,-251
2021-12-10 13:42:28.782476,-259
2021-12-10 13:42:28.782484,-259
2021-12-10 13:42:28.782492,-286
2021-12-10 13:42:28.782501,-327
2021-12-10 13:42:28.782509,-335
2021-12-10 13:42:28.782518,-320
2021-12-10 13:42:28.782526,-317
2021-12-10 13:42:28.782541,-327
2021-12-10 13:42:28.782549,-320
2021-12-10 13:42:29.007377,-315
2021-12-10 13:42:29.007395,-317
2021-12-10 13:42:29.007405,-291
2021-12-10 13:42:29.007414,-234
2021-12-10 13:42:29.007422,-168
2021-12-10 13:42:29.007431,26
2021-12-10 13:42:29.007439,244
2021-12-10 13:42:29.007447,-41
2021-12-10 13:42:29.007456,-780
2021-12-10 13:42:29.007464,-1080
2021-12-10 13:42:29.007473,-718
2021-12-10 13:42:29.007481,-396
2021-12-10 13:42:29.007490,-344
2021-12-10 13:42:29.007498,-264
2021-12-10 13:42:29.007507,-188
2021-12-10 13:42:29.007515,-193
2021-12-10 13:42:29.007523,-180
2021-12-10 13:42:29.007532,-149
2021-12-10 13:42:29.007540,-139
2021-12-10 13:42:29.007549,-141
2021-12-10 13:42:29.007557,-136
2021-12-10 13:42:29.007566,-127
2021-12-10 13:42:29.007574,-119
2021-12-10 13:42:29.007582,-117
2021-12-10 13:42:29.007591,-107
2021-12-10 13:42:29.007599,-88
2021-12-10 13:42:29.007608,-70
2021-12-10 13:42:29.007616,-53
2021-12-10 13:42:29.007624,-26
2021-12-10 13:42:29.007633,0
2021-12-10 13:42:29.277564,34
2021-12-10 13:42:29.277583,63
2021-12-10 13:42:29.277592,70
2021-12-10 13:42:29.277601,73
2021-12-10 13:42:29.277610,61
2021-12-10 13:42:29.277619,31
2021-12-10 13:42:29.277627,12
2021-12-10 13:42:29.277636,-24
2021-12-10 13:42:29.277644,-100
2021-12-10 13:42:29.277653,-178
2021-12-10 13:42:29.277662,-234
2021-12-10 13:42:29.277670,-276
2021-12-10 13:42:29.277679,-320
2021-12-10 13:42:29.277688,-352
2021-12-10 13:42:29.277696,-352
2021-12-10 13:42:29.277705,-359
2021-12-10 13:42:29.277713,-364
2021-12-10 13:42:29.277722,-352
2021-12-10 13:42:29.277739,-344
2021-12-10 13:42:29.277747,-339
2021-12-10 13:42:29.277756,-339
2021-12-10 13:42:29.277764,-347
2021-12-10 13:42:29.277773,-347
2021-12-10 13:42:29.277781,-339
2021-12-10 13:42:29.277790,-327
2021-12-10 13:42:29.277798,-320
2021-12-10 13:42:29.277807,-317
2021-12-10 13:42:29.277815,-313
2021-12-10 13:42:29.277824,-310
2021-12-10 13:42:29.277832,-308
2021-12-10 13:42:29.502441,-300
2021-12-10 13:42:29.502460,-303
2021-12-10 13:42:29.502470,-305
2021-12-10 13:42:29.502479,-308
2021-12-10 13:42:29.502487,-295
2021-12-10 13:42:29.502496,-295
2021-12-10 13:42:29.502504,-310
2021-12-10 13:42:29.502513,-305
2021-12-10 13:42:29.502521,-303
2021-12-10 13:42:29.502530,-325
2021-12-10 13:42:29.502538,-325
2021-12-10 13:42:29.502546,-313
2021-12-10 13:42:29.502554,-310
2021-12-10 13:42:29.502563,-317
2021-12-10 13:42:29.502571,-332
2021-12-10 13:42:29.502580,-327
2021-12-10 13:42:29.502588,-327
2021-12-10 13:42:29.502596,-337
2021-12-10 13:42:29.502605,-335
2021-12-10 13:42:29.502613,-332
2021-12-10 13:42:29.502621,-330
2021-12-10 13:42:29.502630,-322
2021-12-10 13:42:29.502661,-322
2021-12-10 13:42:29.502669,-317
2021-12-10 13:42:29.502678,-298
2021-12-10 13:42:29.502686,-291
2021-12-10 13:42:29.502695,-310
2021-12-10 13:42:29.502703,-337
2021-12-10 13:42:29.502711,-352
2021-12-10 13:42:29.502720,-352
2021-12-10 13:42:29.771155,-342
2021-12-10 13:42:29.771174,-354
2021-12-10 13:42:29.771184,-379
2021-12-10 13:42:29.771192,-379
2021-12-10 13:42:29.771201,-381
2021-12-10 13:42:29.771209,-393
2021-12-10 13:42:29.771218,-369
2021-12-10 13:42:29.771226,-332
2021-12-10 13:42:29.771235,-232
2021-12-10 13:42:29.771243,36
2021-12-10 13:42:29.771252,136
2021-12-10 13:42:29.771260,-423
2021-12-10 13:42:29.771268,-1193
2021-12-10 13:42:29.771276,-1313
2021-12-10 13:42:29.771285,-929
2021-12-10 13:42:29.771293,-753
2021-12-10 13:42:29.771301,-748
2021-12-10 13:42:29.771309,-640
2021-12-10 13:42:29.771318,-567
2021-12-10 13:42:29.771326,-564
2021-12-10 13:42:29.771334,-533
2021-12-10 13:42:29.771348,-474
2021-12-10 13:42:29.771357,-423
2021-12-10 13:42:29.771366,-393
2021-12-10 13:42:29.771374,-357
2021-12-10 13:42:29.771382,-317
2021-12-10 13:42:29.771390,-281
2021-12-10 13:42:29.771399,-237
2021-12-10 13:42:29.771407,-202
2021-12-10 13:42:29.771415,-173
2021-12-10 13:42:29.952273,-151
2021-12-10 13:42:29.952290,-136
2021-12-10 13:42:29.952300,-114
2021-12-10 13:42:29.952308,-105
2021-12-10 13:42:29.952324,-83
2021-12-10 13:42:29.952333,-44
2021-12-10 13:42:29.952341,-24
2021-12-10 13:42:29.952350,2
2021-12-10 13:42:29.952358,34
2021-12-10 13:42:29.952366,58
2021-12-10 13:42:29.952375,68
2021-12-10 13:42:29.952383,31
2021-12-10 13:42:29.952391,-19
2021-12-10 13:42:29.952400,-44
2021-12-10 13:42:29.952408,-85
2021-12-10 13:42:29.952416,-141
2021-12-10 13:42:29.952425,-154
2021-12-10 13:42:29.952433,-119
2021-12-10 13:42:29.952441,-110
2021-12-10 13:42:29.952449,-127
2021-12-10 13:42:29.952458,-129
2021-12-10 13:42:29.952466,-122
2021-12-10 13:42:29.952474,-114
2021-12-10 13:42:29.952483,-132
2021-12-10 13:42:29.952491,-185
2021-12-10 13:42:29.952499,-212
2021-12-10 13:42:29.952507,-178
2021-12-10 13:42:29.952516,-173
2021-12-10 13:42:29.952528,-224
2021-12-10 13:42:29.952537,-276
2021-12-10 13:42:30.222383,-291
2021-12-10 13:42:30.222402,-288
2021-12-10 13:42:30.222412,-308
2021-12-10 13:42:30.222420,-330
2021-12-10 13:42:30.222429,-366
2021-12-10 13:42:30.222437,-423
2021-12-10 13:42:30.222446,-454
2021-12-10 13:42:30.222454,-474
2021-12-10 13:42:30.222463,-476
2021-12-10 13:42:30.222471,-459
2021-12-10 13:42:30.222479,-454
2021-12-10 13:42:30.222488,-447
2021-12-10 13:42:30.222496,-381
2021-12-10 13:42:30.222505,-271
2021-12-10 13:42:30.222513,-220
2021-12-10 13:42:30.222521,-232
2021-12-10 13:42:30.222530,-249
2021-12-10 13:42:30.222538,-232
2021-12-10 13:42:30.222547,-134
2021-12-10 13:42:30.222555,-117
2021-12-10 13:42:30.222564,-232
2021-12-10 13:42:30.222572,-239
2021-12-10 13:42:30.222580,-254
2021-12-10 13:42:30.222589,-349
2021-12-10 13:42:30.222597,-320
2021-12-10 13:42:30.222605,-313
2021-12-10 13:42:30.222614,-359
2021-12-10 13:42:30.222622,-303
2021-12-10 13:42:30.222630,-288
2021-12-10 13:42:30.222639,-327
2021-12-10 13:42:30.445930,-347
2021-12-10 13:42:30.445946,-357
2021-12-10 13:42:30.445955,-337
2021-12-10 13:42:30.445964,-337
2021-12-10 13:42:30.445973,-317
2021-12-10 13:42:30.445981,-259
2021-12-10 13:42:30.445990,-281
2021-12-10 13:42:30.445998,-291
2021-12-10 13:42:30.446007,-251
2021-12-10 13:42:30.446015,-281
2021-12-10 13:42:30.446024,-273
2021-12-10 13:42:30.446032,-239
2021-12-10 13:42:30.446040,-251
2021-12-10 13:42:30.446049,-242
2021-12-10 13:42:30.446057,-266
2021-12-10 13:42:30.446066,-322
2021-12-10 13:42:30.446074,-227
2021-12-10 13:42:30.446082,-107
2021-12-10 13:42:30.446097,-48
2021-12-10 13:42:30.446105,244
2021-12-10 13:42:30.446114,640
2021-12-10 13:42:30.446122,562
2021-12-10 13:42:30.446131,-85
2021-12-10 13:42:30.446139,-652
2021-12-10 13:42:30.446147,-621
2021-12-10 13:42:30.446156,-283
2021-12-10 13:42:30.446164,-124
2021-12-10 13:42:30.446172,-70
2021-12-10 13:42:30.446181,53
2021-12-10 13:42:30.446189,92
2021-12-10 13:42:30.672397,31
2021-12-10 13:42:30.672416,73
2021-12-10 13:42:30.672425,158
2021-12-10 13:42:30.672434,105
2021-12-10 13:42:30.672443,88
2021-12-10 13:42:30.672451,183
2021-12-10 13:42:30.672460,151
2021-12-10 13:42:30.672468,88
2021-12-10 13:42:30.672476,129
2021-12-10 13:42:30.672485,132
2021-12-10 13:42:30.672493,68
2021-12-10 13:42:30.672501,31
2021-12-10 13:42:30.672509,61
2021-12-10 13:42:30.672518,129
2021-12-10 13:42:30.672526,154
2021-12-10 13:42:30.672534,132
2021-12-10 13:42:30.672543,97
2021-12-10 13:42:30.672551,68
2021-12-10 13:42:30.672559,80
2021-12-10 13:42:30.672568,92
2021-12-10 13:42:30.672576,105
2021-12-10 13:42:30.672584,85
2021-12-10 13:42:30.672593,4
2021-12-10 13:42:30.672601,-22
2021-12-10 13:42:30.672609,-24
2021-12-10 13:42:30.672618,-122
2021-12-10 13:42:30.672626,-244
2021-12-10 13:42:30.672635,-254
2021-12-10 13:42:30.672643,-227
2021-12-10 13:42:30.672651,-207
2021-12-10 13:42:30.896707,-166
2021-12-10 13:42:30.896725,-168
2021-12-10 13:42:30.896735,-70
2021-12-10 13:42:30.896744,105
2021-12-10 13:42:30.896753,85
2021-12-10 13:42:30.896762,39
2021-12-10 13:42:30.896770,129
2021-12-10 13:42:30.896779,207
2021-12-10 13:42:30.896793,273
2021-12-10 13:42:30.896802,452
2021-12-10 13:42:30.896811,550
2021-12-10 13:42:30.896819,474
2021-12-10 13:42:30.896833,572
2021-12-10 13:42:30.896842,780
2021-12-10 13:42:30.896850,745
2021-12-10 13:42:30.896858,648
2021-12-10 13:42:30.896867,723
2021-12-10 13:42:30.896875,833
2021-12-10 13:42:30.896883,860
2021-12-10 13:42:30.896892,880
2021-12-10 13:42:30.896900,946
2021-12-10 13:42:30.896909,1085
2021-12-10 13:42:30.896917,1186
2021-12-10 13:42:30.896925,1154
2021-12-10 13:42:30.896934,1269
2021-12-10 13:42:30.896942,1516
2021-12-10 13:42:30.896950,1675
2021-12-10 13:42:30.896959,1892
2021-12-10 13:42:30.896967,2159
2021-12-10 13:42:30.896975,2310
2021-12-10 13:42:31.077445,2425
2021-12-10 13:42:31.077463,2579
2021-12-10 13:42:31.077473,2716
2021-12-10 13:42:31.077482,2775
2021-12-10 13:42:31.077490,2756
2021-12-10 13:42:31.077499,2826
2021-12-10 13:42:31.077508,2941
2021-12-10 13:42:31.077516,2929
2021-12-10 13:42:31.077525,2946
2021-12-10 13:42:31.077534,3076
2021-12-10 13:42:31.077542,3093
2021-12-10 13:42:31.077550,3027
2021-12-10 13:42:31.077559,3113
2021-12-10 13:42:31.077568,3208
2021-12-10 13:42:31.077576,3186
2021-12-10 13:42:31.077585,3154
2021-12-10 13:42:31.077593,3171
2021-12-10 13:42:31.077602,3218
2021-12-10 13:42:31.077610,3254
2021-12-10 13:42:31.077619,3274
2021-12-10 13:42:31.077628,3286
2021-12-10 13:42:31.077636,3274
2021-12-10 13:42:31.077645,3242
2021-12-10 13:42:31.077653,3206
2021-12-10 13:42:31.077662,3159
2021-12-10 13:42:31.077670,3181
2021-12-10 13:42:31.077679,3176
2021-12-10 13:42:31.077687,3088
2021-12-10 13:42:31.077701,3125
2021-12-10 13:42:31.077710,3218
2021-12-10 13:42:31.302372,3188
2021-12-10 13:42:31.302390,3179
2021-12-10 13:42:31.302400,3369
2021-12-10 13:42:31.302409,3677
2021-12-10 13:42:31.302417,3836
2021-12-10 13:42:31.302426,3543
2021-12-10 13:42:31.302434,2902
2021-12-10 13:42:31.302443,2489
2021-12-10 13:42:31.302451,2611
2021-12-10 13:42:31.302460,2932
2021-12-10 13:42:31.302468,3022
2021-12-10 13:42:31.302476,2993
2021-12-10 13:42:31.302485,3022
2021-12-10 13:42:31.302493,3025
2021-12-10 13:42:31.302501,3025
2021-12-10 13:42:31.302510,2998
2021-12-10 13:42:31.302518,2880
2021-12-10 13:42:31.302526,2868
2021-12-10 13:42:31.302535,2875
2021-12-10 13:42:31.302543,2797
2021-12-10 13:42:31.302552,2797
2021-12-10 13:42:31.302560,2758
2021-12-10 13:42:31.302569,2699
2021-12-10 13:42:31.302577,2773
2021-12-10 13:42:31.302585,2738
2021-12-10 13:42:31.302594,2653
2021-12-10 13:42:31.302602,2707
2021-12-10 13:42:31.302610,2685
2021-12-10 13:42:31.302619,2633
2021-12-10 13:42:31.302627,2665
2021-12-10 13:42:31.616848,2643
2021-12-10 13:42:31.616868,2575
2021-12-10 13:42:31.616877,2531
2021-12-10 13:42:31.616886,2499
2021-12-10 13:42:31.616895,2418
2021-12-10 13:42:31.616904,2296
2021-12-10 13:42:31.616912,2176
2021-12-10 13:42:31.616920,2081
2021-12-10 13:42:31.616929,2002
2021-12-10 13:42:31.616937,1856
2021-12-10 13:42:31.616946,1724
2021-12-10 13:42:31.616954,1687
2021-12-10 13:42:31.616962,1621
2021-12-10 13:42:31.616971,1557
2021-12-10 13:42:31.616979,1538
2021-12-10 13:42:31.616988,1484
2021-12-10 13:42:31.616996,1428
2021-12-10 13:42:31.617005,1379
2021-12-10 13:42:31.617013,1315
2021-12-10 13:42:31.617022,1256
2021-12-10 13:42:31.617030,1215
2021-12-10 13:42:31.617038,1205
2021-12-10 13:42:31.617047,1137
2021-12-10 13:42:31.617055,1049
2021-12-10 13:42:31.617063,1034
2021-12-10 13:42:31.617072,992
2021-12-10 13:42:31.617080,904
2021-12-10 13:42:31.617089,824
2021-12-10 13:42:31.617097,767
2021-12-10 13:42:31.617106,758
2021-12-10 13:42:31.797365,723
2021-12-10 13:42:31.797384,630
2021-12-10 13:42:31.797394,555
2021-12-10 13:42:31.797402,513
2021-12-10 13:42:31.797411,493
2021-12-10 13:42:31.797419,430
2021-12-10 13:42:31.797428,325
2021-12-10 13:42:31.797436,322
2021-12-10 13:42:31.797444,325
2021-12-10 13:42:31.797453,210
2021-12-10 13:42:31.797461,141
2021-12-10 13:42:31.797469,149
2021-12-10 13:42:31.797478,83
2021-12-10 13:42:31.797486,-19
2021-12-10 13:42:31.797494,-44
2021-12-10 13:42:31.797503,-17
2021-12-10 13:42:31.797511,-78
2021-12-10 13:42:31.797520,-183
2021-12-10 13:42:31.797528,-229
2021-12-10 13:42:31.797543,-246
2021-12-10 13:42:31.797551,-286
2021-12-10 13:42:31.797560,-352
2021-12-10 13:42:31.797568,-371
2021-12-10 13:42:31.797577,-401
2021-12-10 13:42:31.797585,-493
2021-12-10 13:42:31.797593,-530
2021-12-10 13:42:31.797602,-533
2021-12-10 13:42:31.797610,-572
2021-12-10 13:42:31.797618,-611
2021-12-10 13:42:31.797627,-682
2021-12-10 13:42:32.022460,-731
2021-12-10 13:42:32.022480,-772
2021-12-10 13:42:32.022489,-831
2021-12-10 13:42:32.022498,-836
2021-12-10 13:42:32.022507,-870
2021-12-10 13:42:32.022516,-946
2021-12-10 13:42:32.022524,-968
2021-12-10 13:42:32.022533,-1017
2021-12-10 13:42:32.022550,-1046
2021-12-10 13:42:32.022559,-1044
2021-12-10 13:42:32.022567,-1068
2021-12-10 13:42:32.022576,-1061
2021-12-10 13:42:32.022585,-926
2021-12-10 13:42:32.022593,-731
2021-12-10 13:42:32.022601,-939
2021-12-10 13:42:32.022610,-1611
2021-12-10 13:42:32.022618,-2039
2021-12-10 13:42:32.022627,-1887
2021-12-10 13:42:32.022635,-1565
2021-12-10 13:42:32.022643,-1474
2021-12-10 13:42:32.022652,-1455
2021-12-10 13:42:32.022660,-1386
2021-12-10 13:42:32.022669,-1415
2021-12-10 13:42:32.022677,-1457
2021-12-10 13:42:32.022686,-1437
2021-12-10 13:42:32.022694,-1452
2021-12-10 13:42:32.022702,-1447
2021-12-10 13:42:32.022711,-1447
2021-12-10 13:42:32.022719,-1501
2021-12-10 13:42:32.022728,-1506
2021-12-10 13:42:32.247403,-1491
2021-12-10 13:42:32.247421,-1489
2021-12-10 13:42:32.247431,-1442
2021-12-10 13:42:32.247440,-1423
2021-12-10 13:42:32.247449,-1430
2021-12-10 13:42:32.247457,-1384
2021-12-10 13:42:32.247466,-1320
2021-12-10 13:42:32.247474,-1318
2021-12-10 13:42:32.247483,-1310
2021-12-10 13:42:32.247491,-1237
2021-12-10 13:42:32.247500,-1234
2021-12-10 13:42:32.247508,-1249
2021-12-10 13:42:32.247517,-1198
2021-12-10 13:42:32.247525,-1252
2021-12-10 13:42:32.247534,-1320
2021-12-10 13:42:32.247542,-1323
2021-12-10 13:42:32.247550,-1408
2021-12-10 13:42:32.247559,-1450
2021-12-10 13:42:32.247567,-1447
2021-12-10 13:42:32.247576,-1540
2021-12-10 13:42:32.247584,-1550
2021-12-10 13:42:32.247593,-1496
2021-12-10 13:42:32.247601,-1530
2021-12-10 13:42:32.247610,-1533
2021-12-10 13:42:32.247618,-1481
2021-12-10 13:42:32.247626,-1484
2021-12-10 13:42:32.247635,-1484
2021-12-10 13:42:32.247643,-1389
2021-12-10 13:42:32.247666,-1362
2021-12-10 13:42:32.247675,-1459
2021-12-10 13:42:32.516122,-1381
2021-12-10 13:42:32.516142,-1237
2021-12-10 13:42:32.516152,-1325
2021-12-10 13:42:32.516161,-1354
2021-12-10 13:42:32.516170,-1247
2021-12-10 13:42:32.516179,-1237
2021-12-10 13:42:32.516187,-1266
2021-12-10 13:42:32.516196,-1237
2021-12-10 13:42:32.516204,-1173
2021-12-10 13:42:32.516213,-1156
2021-12-10 13:42:32.516221,-1188
2021-12-10 13:42:32.516230,-1149
2021-12-10 13:42:32.516238,-1115
2021-12-10 13:42:32.516247,-1139
2021-12-10 13:42:32.516255,-1115
2021-12-10 13:42:32.516264,-1078
2021-12-10 13:42:32.516272,-1088
2021-12-10 13:42:32.516281,-1107
2021-12-10 13:42:32.516290,-1076
2021-12-10 13:42:32.516298,-985
2021-12-10 13:42:32.516307,-973
2021-12-10 13:42:32.516315,-1049
2021-12-10 13:42:32.516323,-1031
2021-12-10 13:42:32.516332,-963
2021-12-10 13:42:32.516340,-956
2021-12-10 13:42:32.516349,-975
2021-12-10 13:42:32.516357,-968
2021-12-10 13:42:32.516366,-951
2021-12-10 13:42:32.516374,-899
2021-12-10 13:42:32.516382,-882
2021-12-10 13:42:32.697408,-931
2021-12-10 13:42:32.697427,-855
2021-12-10 13:42:32.697437,-797
2021-12-10 13:42:32.697446,-882
2021-12-10 13:42:32.697454,-868
2021-12-10 13:42:32.697463,-794
2021-12-10 13:42:32.697471,-799
2021-12-10 13:42:32.697479,-802
2021-12-10 13:42:32.697487,-821
2021-12-10 13:42:32.697496,-789
2021-12-10 13:42:32.697504,-674
2021-12-10 13:42:32.697512,-699
2021-12-10 13:42:32.697521,-750
2021-12-10 13:42:32.697529,-677
2021-12-10 13:42:32.697537,-645
2021-12-10 13:42:32.697546,-674
2021-12-10 13:42:32.697554,-706
2021-12-10 13:42:32.697562,-667
2021-12-10 13:42:32.697576,-584
2021-12-10 13:42:32.697585,-621
2021-12-10 13:42:32.697593,-648
2021-12-10 13:42:32.697601,-586
2021-12-10 13:42:32.697610,-594
2021-12-10 13:42:32.697618,-611
2021-12-10 13:42:32.697626,-535
2021-12-10 13:42:32.697635,-449
2021-12-10 13:42:32.697643,-403
2021-12-10 13:42:32.697651,-149
2021-12-10 13:42:32.697660,190
2021-12-10 13:42:32.697668,-107
2021-12-10 13:42:32.922437,-851
2021-12-10 13:42:32.922455,-1110
2021-12-10 13:42:32.922464,-880
2021-12-10 13:42:32.922473,-643
2021-12-10 13:42:32.922482,-471
2021-12-10 13:42:32.922490,-393
2021-12-10 13:42:32.922499,-425
2021-12-10 13:42:32.922507,-418
2021-12-10 13:42:32.922516,-349
2021-12-10 13:42:32.922524,-303
2021-12-10 13:42:32.922533,-298
2021-12-10 13:42:32.922541,-308
2021-12-10 13:42:32.922550,-278
2021-12-10 13:42:32.922558,-222
2021-12-10 13:42:32.922567,-234
2021-12-10 13:42:32.922575,-249
2021-12-10 13:42:32.922584,-212
2021-12-10 13:42:32.922592,-173
2021-12-10 13:42:32.922600,-132
2021-12-10 13:42:32.922609,-144
2021-12-10 13:42:32.922617,-114
2021-12-10 13:42:32.922625,-2
2021-12-10 13:42:32.922634,-4
2021-12-10 13:42:32.922642,-36
2021-12-10 13:42:32.922651,34
2021-12-10 13:42:32.922659,51
2021-12-10 13:42:32.922668,26
2021-12-10 13:42:32.922676,61
2021-12-10 13:42:32.922684,41
2021-12-10 13:42:32.922693,-63
2021-12-10 13:42:33.147335,-61
2021-12-10 13:42:33.147352,-44
2021-12-10 13:42:33.147362,-178
2021-12-10 13:42:33.147371,-259
2021-12-10 13:42:33.147379,-222
2021-12-10 13:42:33.147388,-249
2021-12-10 13:42:33.147396,-293
2021-12-10 13:42:33.147405,-269
2021-12-10 13:42:33.147420,-269
2021-12-10 13:42:33.147429,-261
2021-12-10 13:42:33.147438,-200
2021-12-10 13:42:33.147447,-237
2021-12-10 13:42:33.147455,-283
2021-12-10 13:42:33.147464,-185
2021-12-10 13:42:33.147472,-141
2021-12-10 13:42:33.147481,-237
2021-12-10 13:42:33.147489,-237
2021-12-10 13:42:33.147498,-158
2021-12-10 13:42:33.147506,-168
2021-12-10 13:42:33.147515,-180
2021-12-10 13:42:33.147523,-161
2021-12-10 13:42:33.147532,-151
2021-12-10 13:42:33.147540,-112
2021-12-10 13:42:33.147548,-112
2021-12-10 13:42:33.147557,-134
2021-12-10 13:42:33.147565,-119
2021-12-10 13:42:33.147574,-132
2021-12-10 13:42:33.147582,-132
2021-12-10 13:42:33.147590,-100
2021-12-10 13:42:33.147599,-110
2021-12-10 13:42:33.372384,-122
2021-12-10 13:42:33.372402,-95
2021-12-10 13:42:33.372412,-58
2021-12-10 13:42:33.372421,-66
2021-12-10 13:42:33.372429,-100
2021-12-10 13:42:33.372438,-90
2021-12-10 13:42:33.372446,-58
2021-12-10 13:42:33.372454,-53
2021-12-10 13:42:33.372463,-73
2021-12-10 13:42:33.372471,-78
2021-12-10 13:42:33.372480,-19
2021-12-10 13:42:33.372488,-4
2021-12-10 13:42:33.372496,-53
2021-12-10 13:42:33.372505,-24
2021-12-10 13:42:33.372513,0
2021-12-10 13:42:33.372522,-39
2021-12-10 13:42:33.372530,-17
2021-12-10 13:42:33.372539,14
2021-12-10 13:42:33.372547,-2
2021-12-10 13:42:33.372555,2
2021-12-10 13:42:33.372564,46
2021-12-10 13:42:33.372572,41
2021-12-10 13:42:33.372581,19
2021-12-10 13:42:33.372589,53
2021-12-10 13:42:33.372597,58
2021-12-10 13:42:33.372606,24
2021-12-10 13:42:33.372614,46
2021-12-10 13:42:33.372622,66
2021-12-10 13:42:33.372636,61
2021-12-10 13:42:33.372645,88
2021-12-10 13:42:33.687420,95
2021-12-10 13:42:33.687439,68
2021-12-10 13:42:33.687449,75
2021-12-10 13:42:33.687457,83
2021-12-10 13:42:33.687466,56
2021-12-10 13:42:33.687474,31
2021-12-10 13:42:33.687483,39
2021-12-10 13:42:33.687491,63
2021-12-10 13:42:33.687499,56
2021-12-10 13:42:33.687508,46
2021-12-10 13:42:33.687516,51
2021-12-10 13:42:33.687525,39
2021-12-10 13:42:33.687533,78
2021-12-10 13:42:33.687542,136
2021-12-10 13:42:33.687550,198
2021-12-10 13:42:33.687559,447
2021-12-10 13:42:33.687567,753
2021-12-10 13:42:33.687576,586
2021-12-10 13:42:33.687584,-61
2021-12-10 13:42:33.687593,-525
2021-12-10 13:42:33.687601,-418
2021-12-10 13:42:33.687609,-100
2021-12-10 13:42:33.687618,9
2021-12-10 13:42:33.687626,36
2021-12-10 13:42:33.687635,117
2021-12-10 13:42:33.687643,156
2021-12-10 13:42:33.687651,102
2021-12-10 13:42:33.687660,85
2021-12-10 13:42:33.687668,146
2021-12-10 13:42:33.687676,144
2021-12-10 13:42:33.912368,129
2021-12-10 13:42:33.912387,139
2021-12-10 13:42:33.912396,132
2021-12-10 13:42:33.912405,173
2021-12-10 13:42:33.912414,185
2021-12-10 13:42:33.912422,180
2021-12-10 13:42:33.912439,232
2021-12-10 13:42:33.912448,198
2021-12-10 13:42:33.912456,171
2021-12-10 13:42:33.912465,269
2021-12-10 13:42:33.912473,322
2021-12-10 13:42:33.912482,305
2021-12-10 13:42:33.912490,327
2021-12-10 13:42:33.912498,364
2021-12-10 13:42:33.912507,349
2021-12-10 13:42:33.912515,325
2021-12-10 13:42:33.912524,313
2021-12-10 13:42:33.912532,295
2021-12-10 13:42:33.912544,291
2021-12-10 13:42:33.912553,220
2021-12-10 13:42:33.912561,105
2021-12-10 13:42:33.912570,83
2021-12-10 13:42:33.912578,92
2021-12-10 13:42:33.912587,61
2021-12-10 13:42:33.912595,46
2021-12-10 13:42:33.912603,63
2021-12-10 13:42:33.912612,100
2021-12-10 13:42:33.912620,107
2021-12-10 13:42:33.912628,117
2021-12-10 13:42:33.912637,173
2021-12-10 13:42:34.136791,139
2021-12-10 13:42:34.136810,112
2021-12-10 13:42:34.136820,202
2021-12-10 13:42:34.136829,244
2021-12-10 13:42:34.136837,229
2021-12-10 13:42:34.136846,229
2021-12-10 13:42:34.136854,249
2021-12-10 13:42:34.136863,291
2021-12-10 13:42:34.136871,283
2021-12-10 13:42:34.136879,261
2021-12-10 13:42:34.136888,295
2021-12-10 13:42:34.136896,295
2021-12-10 13:42:34.136904,271
2021-12-10 13:42:34.136912,254
2021-12-10 13:42:34.136921,273
2021-12-10 13:42:34.136929,327
2021-12-10 13:42:34.136937,308
2021-12-10 13:42:34.136945,276
2021-12-10 13:42:34.136953,286
2021-12-10 13:42:34.136962,271
2021-12-10 13:42:34.136970,254
2021-12-10 13:42:34.136978,264
2021-12-10 13:42:34.136986,310
2021-12-10 13:42:34.136995,291
2021-12-10 13:42:34.137003,202
2021-12-10 13:42:34.137011,234
2021-12-10 13:42:34.137020,286
2021-12-10 13:42:34.137028,242
2021-12-10 13:42:34.137036,215
2021-12-10 13:42:34.137045,224
2021-12-10 13:42:34.406755,215
2021-12-10 13:42:34.406772,227
2021-12-10 13:42:34.406781,229
2021-12-10 13:42:34.406790,198
2021-12-10 13:42:34.406799,190
2021-12-10 13:42:34.406807,205
2021-12-10 13:42:34.406816,163
2021-12-10 13:42:34.406824,141
2021-12-10 13:42:34.406839,195
2021-12-10 13:42:34.406847,166
2021-12-10 13:42:34.406856,88
2021-12-10 13:42:34.406864,114
2021-12-10 13:42:34.406872,139
2021-12-10 13:42:34.406881,66
2021-12-10 13:42:34.406889,44
2021-12-10 13:42:34.406897,100
2021-12-10 13:42:34.406906,73
2021-12-10 13:42:34.406914,24
2021-12-10 13:42:34.406922,46
2021-12-10 13:42:34.406931,44
2021-12-10 13:42:34.406939,12
2021-12-10 13:42:34.406947,9
2021-12-10 13:42:34.406956,36
2021-12-10 13:42:34.406964,36
2021-12-10 13:42:34.406998,2
2021-12-10 13:42:34.407007,-7
2021-12-10 13:42:34.407016,-31
2021-12-10 13:42:34.407024,-78
2021-12-10 13:42:34.407033,-102
2021-12-10 13:42:34.407041,-75
2021-12-10 13:42:34.631108,-48
2021-12-10 13:42:34.631128,-90
2021-12-10 13:42:34.631138,-144
2021-12-10 13:42:34.631147,-134
2021-12-10 13:42:34.631155,-90
2021-12-10 13:42:34.631163,-80
2021-12-10 13:42:34.631172,-29
2021-12-10 13:42:34.631180,224
2021-12-10 13:42:34.631190,427
2021-12-10 13:42:34.631199,88
2021-12-10 13:42:34.631208,-606
2021-12-10 13:42:34.631217,-912
2021-12-10 13:42:34.631226,-623
2021-12-10 13:42:34.631235,-354
2021-12-10 13:42:34.631244,-339
2021-12-10 13:42:34.631253,-278
2021-12-10 13:42:34.631262,-212
2021-12-10 13:42:34.631271,-242
2021-12-10 13:42:34.631280,-254
2021-12-10 13:42:34.631289,-232
2021-12-10 13:42:34.631299,-234
2021-12-10 13:42:34.631308,-239
2021-12-10 13:42:34.631316,-227
2021-12-10 13:42:34.631325,-249
2021-12-10 13:42:34.631335,-261
2021-12-10 13:42:34.631344,-239
2021-12-10 13:42:34.631353,-246
2021-12-10 13:42:34.631362,-239
2021-12-10 13:42:34.631377,-205
2021-12-10 13:42:34.631386,-215
2021-12-10 13:42:34.857716,-212
2021-12-10 13:42:34.857734,-144
2021-12-10 13:42:34.857744,-105
2021-12-10 13:42:34.857753,-132
2021-12-10 13:42:34.857762,-136
2021-12-10 13:42:34.857770,-102
2021-12-10 13:42:34.857779,-110
2021-12-10 13:42:34.857787,-156
2021-12-10 13:42:34.857795,-202
2021-12-10 13:42:34.857804,-227
2021-12-10 13:42:34.857812,-251
2021-12-10 13:42:34.857821,-364
2021-12-10 13:42:34.857829,-445
2021-12-10 13:42:34.857837,-427
2021-12-10 13:42:34.857846,-503
2021-12-10 13:42:34.857854,-589
2021-12-10 13:42:34.857863,-572
2021-12-10 13:42:34.857871,-582
2021-12-10 13:42:34.857879,-586
2021-12-10 13:42:34.857888,-560
2021-12-10 13:42:34.857896,-572
2021-12-10 13:42:34.857904,-589
2021-12-10 13:42:34.857913,-567
2021-12-10 13:42:34.857921,-552
2021-12-10 13:42:34.857929,-540
2021-12-10 13:42:34.857937,-530
2021-12-10 13:42:34.857946,-540
2021-12-10 13:42:34.857954,-540
2021-12-10 13:42:34.857962,-530
2021-12-10 13:42:34.857971,-523
2021-12-10 13:42:34.992369,-511
2021-12-10 13:42:34.992387,-525
2021-12-10 13:42:34.992396,-545
2021-12-10 13:42:34.992405,-506
2021-12-10 13:42:34.992414,-489
2021-12-10 13:42:34.992422,-547
2021-12-10 13:42:34.992431,-538
2021-12-10 13:42:34.992439,-489
2021-12-10 13:42:34.992448,-525
2021-12-10 13:42:34.992456,-533
2021-12-10 13:42:34.992464,-503
2021-12-10 13:42:34.992473,-520
2021-12-10 13:42:34.992481,-538
2021-12-10 13:42:34.992489,-523
2021-12-10 13:42:34.992498,-489
2021-12-10 13:42:34.992506,-503
2021-12-10 13:42:34.992514,-540
2021-12-10 13:42:34.992523,-515
2021-12-10 13:42:34.992538,-513
2021-12-10 13:42:34.992547,-540
2021-12-10 13:42:34.992555,-533
2021-12-10 13:42:34.992564,-533
2021-12-10 13:42:34.992572,-545
2021-12-10 13:42:34.992581,-528
2021-12-10 13:42:34.992589,-508
2021-12-10 13:42:34.992597,-520
2021-12-10 13:42:34.992606,-538
2021-12-10 13:42:34.992614,-523
2021-12-10 13:42:34.992622,-515
2021-12-10 13:42:34.992631,-533
2021-12-10 13:42:35.261770,-528
2021-12-10 13:42:35.261787,-515
2021-12-10 13:42:35.261797,-506
2021-12-10 13:42:35.261806,-496
2021-12-10 13:42:35.261815,-511
2021-12-10 13:42:35.261823,-513
2021-12-10 13:42:35.261832,-489
2021-12-10 13:42:35.261840,-491
2021-12-10 13:42:35.261849,-518
2021-12-10 13:42:35.261857,-535
2021-12-10 13:42:35.261866,-533
2021-12-10 13:42:35.261874,-528
2021-12-10 13:42:35.261883,-535
2021-12-10 13:42:35.261891,-523
2021-12-10 13:42:35.261899,-525
2021-12-10 13:42:35.261908,-557
2021-12-10 13:42:35.261916,-557
2021-12-10 13:42:35.261925,-508
2021-12-10 13:42:35.261933,-449
2021-12-10 13:42:35.261941,-327
2021-12-10 13:42:35.261950,-73
2021-12-10 13:42:35.261958,-100
2021-12-10 13:42:35.261967,-738
2021-12-10 13:42:35.261975,-1310
2021-12-10 13:42:35.261984,-1164
2021-12-10 13:42:35.261992,-714
2021-12-10 13:42:35.262000,-523
2021-12-10 13:42:35.262009,-454
2021-12-10 13:42:35.262017,-327
2021-12-10 13:42:35.262026,-271
2021-12-10 13:42:35.442406,-249
2021-12-10 13:42:35.442423,-163
2021-12-10 13:42:35.442433,-105
2021-12-10 13:42:35.442442,-88
2021-12-10 13:42:35.442450,-44
2021-12-10 13:42:35.442459,-14
2021-12-10 13:42:35.442467,0
2021-12-10 13:42:35.442476,24
2021-12-10 13:42:35.442490,4
2021-12-10 13:42:35.442499,-24
2021-12-10 13:42:35.442507,-34
2021-12-10 13:42:35.442516,-12
2021-12-10 13:42:35.442524,46
2021-12-10 13:42:35.442532,114
2021-12-10 13:42:35.442541,200
2021-12-10 13:42:35.442549,293
2021-12-10 13:42:35.442557,347
2021-12-10 13:42:35.442566,401
2021-12-10 13:42:35.442574,454
2021-12-10 13:42:35.442582,467
2021-12-10 13:42:35.442591,437
2021-12-10 13:42:35.442599,396
2021-12-10 13:42:35.442608,366
2021-12-10 13:42:35.442616,325
2021-12-10 13:42:35.442624,266
2021-12-10 13:42:35.442633,232
2021-12-10 13:42:35.442641,202
2021-12-10 13:42:35.442649,163
2021-12-10 13:42:35.442658,119
2021-12-10 13:42:35.442669,75
2021-12-10 13:42:35.712401,51
2021-12-10 13:42:35.712418,29
2021-12-10 13:42:35.712428,4
2021-12-10 13:42:35.712436,-4
2021-12-10 13:42:35.712445,-17
2021-12-10 13:42:35.712453,-31
2021-12-10 13:42:35.712462,-56
2021-12-10 13:42:35.712470,-83
2021-12-10 13:42:35.712479,-85
2021-12-10 13:42:35.712487,-97
2021-12-10 13:42:35.712496,-114
2021-12-10 13:42:35.712504,-119
2021-12-10 13:42:35.712513,-132
2021-12-10 13:42:35.712521,-119
2021-12-10 13:42:35.712529,-90
2021-12-10 13:42:35.712538,-66
2021-12-10 13:42:35.712546,-26
2021-12-10 13:42:35.712554,4
2021-12-10 13:42:35.712563,34
2021-12-10 13:42:35.712571,48
2021-12-10 13:42:35.712580,48
2021-12-10 13:42:35.712588,73
2021-12-10 13:42:35.712596,83
2021-12-10 13:42:35.712604,78
2021-12-10 13:42:35.712613,80
2021-12-10 13:42:35.712621,83
2021-12-10 13:42:35.712629,95
2021-12-10 13:42:35.712637,92
2021-12-10 13:42:35.712646,73
2021-12-10 13:42:35.712654,80
2021-12-10 13:42:35.937340,88
2021-12-10 13:42:35.937357,92
2021-12-10 13:42:35.937366,92
2021-12-10 13:42:35.937375,80
2021-12-10 13:42:35.937383,88
2021-12-10 13:42:35.937392,92
2021-12-10 13:42:35.937400,90
2021-12-10 13:42:35.937409,95
2021-12-10 13:42:35.937417,88
2021-12-10 13:42:35.937425,92
2021-12-10 13:42:35.937434,100
2021-12-10 13:42:35.937442,92
2021-12-10 13:42:35.937450,97
2021-12-10 13:42:35.937459,92
2021-12-10 13:42:35.937467,80
2021-12-10 13:42:35.937475,78
2021-12-10 13:42:35.937484,80
2021-12-10 13:42:35.937492,95
2021-12-10 13:42:35.937501,102
2021-12-10 13:42:35.937509,107
2021-12-10 13:42:35.937517,105
2021-12-10 13:42:35.937526,92
2021-12-10 13:42:35.937534,110
2021-12-10 13:42:35.937542,119
2021-12-10 13:42:35.937551,95
2021-12-10 13:42:35.937559,70
2021-12-10 13:42:35.937567,66
2021-12-10 13:42:35.937576,73
2021-12-10 13:42:35.937584,70
2021-12-10 13:42:35.937593,61
2021-12-10 13:42:36.162507,73
2021-12-10 13:42:36.162526,70
2021-12-10 13:42:36.162536,66
2021-12-10 13:42:36.162544,100
2021-12-10 13:42:36.162553,156
2021-12-10 13:42:36.162561,349
2021-12-10 13:42:36.162570,701
2021-12-10 13:42:36.162578,699
2021-12-10 13:42:36.162587,97
2021-12-10 13:42:36.162595,-489
2021-12-10 13:42:36.162604,-503
2021-12-10 13:42:36.162612,-183
2021-12-10 13:42:36.162620,-22
2021-12-10 13:42:36.162629,14
2021-12-10 13:42:36.162637,66
2021-12-10 13:42:36.162646,78
2021-12-10 13:42:36.162654,80
2021-12-10 13:42:36.162662,90
2021-12-10 13:42:36.162677,97
2021-12-10 13:42:36.162686,95
2021-12-10 13:42:36.162695,92
2021-12-10 13:42:36.162703,110
2021-12-10 13:42:36.162711,110
2021-12-10 13:42:36.162720,107
2021-12-10 13:42:36.162728,119
2021-12-10 13:42:36.162737,127
2021-12-10 13:42:36.162751,139
2021-12-10 13:42:36.162760,154
2021-12-10 13:42:36.162768,171
2021-12-10 13:42:36.162777,210
2021-12-10 13:42:36.387427,234
2021-12-10 13:42:36.387445,256
2021-12-10 13:42:36.387454,283
2021-12-10 13:42:36.387463,293
2021-12-10 13:42:36.387472,295
2021-12-10 13:42:36.387480,291
2021-12-10 13:42:36.387488,281
2021-12-10 13:42:36.387497,254
2021-12-10 13:42:36.387505,195
2021-12-10 13:42:36.387514,144
2021-12-10 13:42:36.387522,92
2021-12-10 13:42:36.387531,36
2021-12-10 13:42:36.387539,-4
2021-12-10 13:42:36.387547,-44
2021-12-10 13:42:36.387556,-58
2021-12-10 13:42:36.387564,-58
2021-12-10 13:42:36.387573,-58
2021-12-10 13:42:36.387581,-51
2021-12-10 13:42:36.387590,-56
2021-12-10 13:42:36.387598,-48
2021-12-10 13:42:36.387606,-29
2021-12-10 13:42:36.387615,-39
2021-12-10 13:42:36.387623,-34
2021-12-10 13:42:36.387632,-12
2021-12-10 13:42:36.387640,-9
2021-12-10 13:42:36.387649,-7
2021-12-10 13:42:36.387657,-4
2021-12-10 13:42:36.387665,2
2021-12-10 13:42:36.387674,4
2021-12-10 13:42:36.387682,0
2021-12-10 13:42:36.656099,0
2021-12-10 13:42:36.656119,-7
2021-12-10 13:42:36.656128,-7
2021-12-10 13:42:36.656137,0
2021-12-10 13:42:36.656146,-4
2021-12-10 13:42:36.656154,-4
2021-12-10 13:42:36.656163,-12
2021-12-10 13:42:36.656171,-26
2021-12-10 13:42:36.656180,-24
2021-12-10 13:42:36.656188,-22
2021-12-10 13:42:36.656197,-22
2021-12-10 13:42:36.656205,-22
2021-12-10 13:42:36.656214,-36
2021-12-10 13:42:36.656222,-41
2021-12-10 13:42:36.656230,-44
2021-12-10 13:42:36.656239,-44
2021-12-10 13:42:36.656247,-34
2021-12-10 13:42:36.656255,-39
2021-12-10 13:42:36.656264,-46
2021-12-10 13:42:36.656272,-51
2021-12-10 13:42:36.656280,-61
2021-12-10 13:42:36.656289,-56
2021-12-10 13:42:36.656297,-56
2021-12-10 13:42:36.656305,-70
2021-12-10 13:42:36.656314,-85
2021-12-10 13:42:36.656322,-85
2021-12-10 13:42:36.656330,-78
2021-12-10 13:42:36.656339,-92
2021-12-10 13:42:36.656347,-100
2021-12-10 13:42:36.656355,-95
2021-12-10 13:42:36.837342,-105
2021-12-10 13:42:36.837359,-110
2021-12-10 13:42:36.837369,-112
2021-12-10 13:42:36.837377,-119
2021-12-10 13:42:36.837386,-110
2021-12-10 13:42:36.837394,-112
2021-12-10 13:42:36.837403,-114
2021-12-10 13:42:36.837411,-107
2021-12-10 13:42:36.837419,-124
2021-12-10 13:42:36.837428,-154
2021-12-10 13:42:36.837436,-168
2021-12-10 13:42:36.837444,-173
2021-12-10 13:42:36.837453,-166
2021-12-10 13:42:36.837461,-171
2021-12-10 13:42:36.837469,-176
2021-12-10 13:42:36.837478,-178
2021-12-10 13:42:36.837486,-178
2021-12-10 13:42:36.837494,-156
2021-12-10 13:42:36.837503,-119
2021-12-10 13:42:36.837511,-36
2021-12-10 13:42:36.837520,212
2021-12-10 13:42:36.837528,435
2021-12-10 13:42:36.837537,117
2021-12-10 13:42:36.837545,-628
2021-12-10 13:42:36.837553,-951
2021-12-10 13:42:36.837562,-635
2021-12-10 13:42:36.837570,-332
2021-12-10 13:42:36.837578,-288
2021-12-10 13:42:36.837587,-227
2021-12-10 13:42:36.837595,-158
2021-12-10 13:42:37.062544,-156
2021-12-10 13:42:37.062565,-144
2021-12-10 13:42:37.062575,-127
2021-12-10 13:42:37.062584,-127
2021-12-10 13:42:37.062592,-127
2021-12-10 13:42:37.062601,-122
2021-12-10 13:42:37.062610,-127
2021-12-10 13:42:37.062618,-122
2021-12-10 13:42:37.062627,-102
2021-12-10 13:42:37.062635,-95
2021-12-10 13:42:37.062644,-88
2021-12-10 13:42:37.062652,-78
2021-12-10 13:42:37.062661,-63
2021-12-10 13:42:37.062669,-29
2021-12-10 13:42:37.062678,-4
2021-12-10 13:42:37.062686,12
2021-12-10 13:42:37.062695,41
2021-12-10 13:42:37.062703,48
2021-12-10 13:42:37.062711,46
2021-12-10 13:42:37.062720,41
2021-12-10 13:42:37.062728,17
2021-12-10 13:42:37.062737,-14
2021-12-10 13:42:37.062745,-66
2021-12-10 13:42:37.062754,-134
2021-12-10 13:42:37.062762,-215
2021-12-10 13:42:37.062770,-283
2021-12-10 13:42:37.062779,-327
2021-12-10 13:42:37.062787,-374
2021-12-10 13:42:37.062796,-420
2021-12-10 13:42:37.062804,-442
2021-12-10 13:42:37.287423,-454
2021-12-10 13:42:37.287439,-445
2021-12-10 13:42:37.287449,-440
2021-12-10 13:42:37.287458,-445
2021-12-10 13:42:37.287466,-440
2021-12-10 13:42:37.287475,-445
2021-12-10 13:42:37.287483,-437
2021-12-10 13:42:37.287492,-413
2021-12-10 13:42:37.287500,-408
2021-12-10 13:42:37.287509,-403
2021-12-10 13:42:37.287525,-386
2021-12-10 13:42:37.287534,-374
2021-12-10 13:42:37.287542,-369
2021-12-10 13:42:37.287551,-369
2021-12-10 13:42:37.287559,-361
2021-12-10 13:42:37.287568,-349
2021-12-10 13:42:37.287576,-342
2021-12-10 13:42:37.287584,-330
2021-12-10 13:42:37.287598,-344
2021-12-10 13:42:37.287607,-354
2021-12-10 13:42:37.287616,-347
2021-12-10 13:42:37.287624,-357
2021-12-10 13:42:37.287632,-369
2021-12-10 13:42:37.287641,-366
2021-12-10 13:42:37.287649,-359
2021-12-10 13:42:37.287657,-357
2021-12-10 13:42:37.287666,-376
2021-12-10 13:42:37.287674,-381
2021-12-10 13:42:37.287682,-376
2021-12-10 13:42:37.287691,-393
2021-12-10 13:42:37.557546,-403
2021-12-10 13:42:37.557567,-396
2021-12-10 13:42:37.557577,-396
2021-12-10 13:42:37.557585,-415
2021-12-10 13:42:37.557594,-432
2021-12-10 13:42:37.557603,-420
2021-12-10 13:42:37.557611,-435
2021-12-10 13:42:37.557619,-454
2021-12-10 13:42:37.557627,-449
2021-12-10 13:42:37.557636,-462
2021-12-10 13:42:37.557644,-464
2021-12-10 13:42:37.557653,-442
2021-12-10 13:42:37.557661,-449
2021-12-10 13:42:37.557669,-474
2021-12-10 13:42:37.557678,-518
2021-12-10 13:42:37.557686,-552
2021-12-10 13:42:37.557694,-552
2021-12-10 13:42:37.557702,-555
2021-12-10 13:42:37.557711,-567
2021-12-10 13:42:37.557720,-579
2021-12-10 13:42:37.557729,-586
2021-12-10 13:42:37.557737,-594
2021-12-10 13:42:37.557745,-621
2021-12-10 13:42:37.557753,-599
2021-12-10 13:42:37.557762,-528
2021-12-10 13:42:37.557770,-445
2021-12-10 13:42:37.557778,-281
2021-12-10 13:42:37.557786,-330
2021-12-10 13:42:37.557795,-907
2021-12-10 13:42:37.557803,-1486
2021-12-10 13:42:37.782425,-1408
2021-12-10 13:42:37.782444,-953
2021-12-10 13:42:37.782453,-765
2021-12-10 13:42:37.782462,-755
2021-12-10 13:42:37.782470,-633
2021-12-10 13:42:37.782479,-572
2021-12-10 13:42:37.782487,-599
2021-12-10 13:42:37.782496,-572
2021-12-10 13:42:37.782517,-557
2021-12-10 13:42:37.782526,-574
2021-12-10 13:42:37.782534,-564
2021-12-10 13:42:37.782542,-538
2021-12-10 13:42:37.782551,-542
2021-12-10 13:42:37.782559,-555
2021-12-10 13:42:37.782568,-535
2021-12-10 13:42:37.782576,-513
2021-12-10 13:42:37.782584,-491
2021-12-10 13:42:37.782593,-469
2021-12-10 13:42:37.782601,-462
2021-12-10 13:42:37.782609,-430
2021-12-10 13:42:37.782618,-391
2021-12-10 13:42:37.782626,-374
2021-12-10 13:42:37.782635,-342
2021-12-10 13:42:37.782643,-332
2021-12-10 13:42:37.782651,-344
2021-12-10 13:42:37.782660,-357
2021-12-10 13:42:37.782668,-401
2021-12-10 13:42:37.782676,-445
2021-12-10 13:42:37.782685,-498
2021-12-10 13:42:37.782693,-582
2021-12-10 13:42:38.007394,-640
2021-12-10 13:42:38.007412,-694
2021-12-10 13:42:38.007422,-762
2021-12-10 13:42:38.007430,-804
2021-12-10 13:42:38.007439,-809
2021-12-10 13:42:38.007447,-809
2021-12-10 13:42:38.007456,-811
2021-12-10 13:42:38.007464,-804
2021-12-10 13:42:38.007473,-804
2021-12-10 13:42:38.007481,-819
2021-12-10 13:42:38.007490,-804
2021-12-10 13:42:38.007498,-784
2021-12-10 13:42:38.007506,-782
2021-12-10 13:42:38.007515,-762
2021-12-10 13:42:38.007523,-755
2021-12-10 13:42:38.007531,-738
2021-12-10 13:42:38.007540,-701
2021-12-10 13:42:38.007548,-679
2021-12-10 13:42:38.007557,-662
2021-12-10 13:42:38.007565,-640
2021-12-10 13:42:38.007573,-635
2021-12-10 13:42:38.007582,-626
2021-12-10 13:42:38.007590,-601
2021-12-10 13:42:38.007598,-569
2021-12-10 13:42:38.007607,-567
2021-12-10 13:42:38.007615,-557
2021-12-10 13:42:38.007623,-520
2021-12-10 13:42:38.007632,-511
2021-12-10 13:42:38.007646,-513
2021-12-10 13:42:38.007655,-489
2021-12-10 13:42:38.232451,-476
2021-12-10 13:42:38.232469,-467
2021-12-10 13:42:38.232478,-449
2021-12-10 13:42:38.232487,-432
2021-12-10 13:42:38.232496,-425
2021-12-10 13:42:38.232504,-425
2021-12-10 13:42:38.232513,-405
2021-12-10 13:42:38.232522,-393
2021-12-10 13:42:38.232530,-396
2021-12-10 13:42:38.232538,-379
2021-12-10 13:42:38.232547,-371
2021-12-10 13:42:38.232555,-369
2021-12-10 13:42:38.232564,-349
2021-12-10 13:42:38.232572,-352
2021-12-10 13:42:38.232581,-357
2021-12-10 13:42:38.232589,-337
2021-12-10 13:42:38.232598,-305
2021-12-10 13:42:38.232606,-283
2021-12-10 13:42:38.232615,-276
2021-12-10 13:42:38.232623,-266
2021-12-10 13:42:38.232632,-276
2021-12-10 13:42:38.232640,-283
2021-12-10 13:42:38.232649,-256
2021-12-10 13:42:38.232657,-249
2021-12-10 13:42:38.232666,-261
2021-12-10 13:42:38.232674,-251
2021-12-10 13:42:38.232683,-244
2021-12-10 13:42:38.232691,-227
2021-12-10 13:42:38.232700,-185
2021-12-10 13:42:38.232708,-114
2021-12-10 13:42:38.457437,22
2021-12-10 13:42:38.457454,295
2021-12-10 13:42:38.457464,437
2021-12-10 13:42:38.457473,-66
2021-12-10 13:42:38.457482,-870
2021-12-10 13:42:38.457490,-1019
2021-12-10 13:42:38.457499,-557
2021-12-10 13:42:38.457507,-300
2021-12-10 13:42:38.457516,-291
2021-12-10 13:42:38.457524,-178
2021-12-10 13:42:38.457533,-95
2021-12-10 13:42:38.457541,-117
2021-12-10 13:42:38.457550,-97
2021-12-10 13:42:38.457558,-61
2021-12-10 13:42:38.457566,-73
2021-12-10 13:42:38.457575,-70
2021-12-10 13:42:38.457583,-41
2021-12-10 13:42:38.457592,-39
2021-12-10 13:42:38.457605,-44
2021-12-10 13:42:38.457614,-34
2021-12-10 13:42:38.457625,-2
2021-12-10 13:42:38.457634,17
2021-12-10 13:42:38.457642,19
2021-12-10 13:42:38.457651,56
2021-12-10 13:42:38.457659,100
2021-12-10 13:42:38.457668,124
2021-12-10 13:42:38.457676,161
2021-12-10 13:42:38.457684,193
2021-12-10 13:42:38.457693,205
2021-12-10 13:42:38.457701,207
2021-12-10 13:42:38.726685,188
2021-12-10 13:42:38.726703,166
2021-12-10 13:42:38.726712,119
2021-12-10 13:42:38.726721,48
2021-12-10 13:42:38.726730,-19
2021-12-10 13:42:38.726739,-85
2021-12-10 13:42:38.726747,-141
2021-12-10 13:42:38.726756,-205
2021-12-10 13:42:38.726764,-269
2021-12-10 13:42:38.726772,-293
2021-12-10 13:42:38.726781,-295
2021-12-10 13:42:38.726789,-298
2021-12-10 13:42:38.726798,-303
2021-12-10 13:42:38.726806,-303
2021-12-10 13:42:38.726815,-288
2021-12-10 13:42:38.726823,-276
2021-12-10 13:42:38.726832,-276
2021-12-10 13:42:38.726840,-269
2021-12-10 13:42:38.726849,-264
2021-12-10 13:42:38.726857,-244
2021-12-10 13:42:38.726866,-224
2021-12-10 13:42:38.726874,-227
2021-12-10 13:42:38.726883,-215
2021-12-10 13:42:38.726891,-195
2021-12-10 13:42:38.726900,-190
2021-12-10 13:42:38.726908,-180
2021-12-10 13:42:38.726917,-173
2021-12-10 13:42:38.726925,-173
2021-12-10 13:42:38.726934,-178
2021-12-10 13:42:38.726942,-180
2021-12-10 13:42:38.907447,-171
2021-12-10 13:42:38.907466,-173
2021-12-10 13:42:38.907476,-180
2021-12-10 13:42:38.907484,-185
2021-12-10 13:42:38.907493,-180
2021-12-10 13:42:38.907501,-180
2021-12-10 13:42:38.907510,-200
2021-12-10 13:42:38.907518,-198
2021-12-10 13:42:38.907527,-180
2021-12-10 13:42:38.907535,-185
2021-12-10 13:42:38.907543,-185
2021-12-10 13:42:38.907552,-180
2021-12-10 13:42:38.907560,-180
2021-12-10 13:42:38.907569,-176
2021-12-10 13:42:38.907577,-183
2021-12-10 13:42:38.907586,-183
2021-12-10 13:42:38.907594,-166
2021-12-10 13:42:38.907602,-176
2021-12-10 13:42:38.907611,-183
2021-12-10 13:42:38.907619,-176
2021-12-10 13:42:38.907628,-171
2021-12-10 13:42:38.907636,-168
2021-12-10 13:42:38.907644,-163
2021-12-10 13:42:38.907653,-149
2021-12-10 13:42:38.907661,-146
2021-12-10 13:42:38.907670,-141
2021-12-10 13:42:38.907678,-127
2021-12-10 13:42:38.907687,-144
2021-12-10 13:42:38.907695,-171
2021-12-10 13:42:38.907703,-166
2021-12-10 13:42:39.132430,-154
2021-12-10 13:42:39.132447,-154
2021-12-10 13:42:39.132457,-161
2021-12-10 13:42:39.132466,-166
2021-12-10 13:42:39.132474,-171
2021-12-10 13:42:39.132483,-176
2021-12-10 13:42:39.132491,-144
2021-12-10 13:42:39.132500,-75
2021-12-10 13:42:39.132508,83
2021-12-10 13:42:39.132517,469
2021-12-10 13:42:39.132525,723
2021-12-10 13:42:39.132534,242
2021-12-10 13:42:39.132542,-657
2021-12-10 13:42:39.132550,-985
2021-12-10 13:42:39.132559,-577
2021-12-10 13:42:39.132567,-278
2021-12-10 13:42:39.132576,-273
2021-12-10 13:42:39.132584,-171
2021-12-10 13:42:39.132593,-85
2021-12-10 13:42:39.132601,-107
2021-12-10 13:42:39.132609,-97
2021-12-10 13:42:39.132618,-63
2021-12-10 13:42:39.132626,-68
2021-12-10 13:42:39.132634,-78
2021-12-10 13:42:39.132642,-58
2021-12-10 13:42:39.132651,-44
2021-12-10 13:42:39.132659,-44
2021-12-10 13:42:39.132667,-22
2021-12-10 13:42:39.132681,2
2021-12-10 13:42:39.132690,12
2021-12-10 13:42:39.536329,34
2021-12-10 13:42:39.536350,63
2021-12-10 13:42:39.536359,95
2021-12-10 13:42:39.536368,119
2021-12-10 13:42:39.536377,146
2021-12-10 13:42:39.536385,183
2021-12-10 13:42:39.536394,207
2021-12-10 13:42:39.536402,212
2021-12-10 13:42:39.536411,205
2021-12-10 13:42:39.536419,178
2021-12-10 13:42:39.536427,134
2021-12-10 13:42:39.536436,61
2021-12-10 13:42:39.536444,-26
2021-12-10 13:42:39.536453,-95
2021-12-10 13:42:39.536461,-151
2021-12-10 13:42:39.536470,-207
2021-12-10 13:42:39.536478,-261
2021-12-10 13:42:39.536486,-303
2021-12-10 13:42:39.536495,-315
2021-12-10 13:42:39.536503,-317
2021-12-10 13:42:39.536512,-313
2021-12-10 13:42:39.536520,-308
2021-12-10 13:42:39.536529,-308
2021-12-10 13:42:39.536537,-293
2021-12-10 13:42:39.536550,-278
2021-12-10 13:42:39.536559,-276
2021-12-10 13:42:39.536568,-266
2021-12-10 13:42:39.536576,-264
2021-12-10 13:42:39.536585,-254
2021-12-10 13:42:39.536629,-234
2021-12-10 13:42:39.671818,-222
2021-12-10 13:42:39.671836,-215
2021-12-10 13:42:39.671846,-210
2021-12-10 13:42:39.671855,-210
2021-12-10 13:42:39.671863,-207
2021-12-10 13:42:39.671872,-202
2021-12-10 13:42:39.671880,-195
2021-12-10 13:42:39.671888,-200
2021-12-10 13:42:39.671897,-205
2021-12-10 13:42:39.671905,-202
2021-12-10 13:42:39.671913,-215
2021-12-10 13:42:39.671922,-222
2021-12-10 13:42:39.671930,-212
2021-12-10 13:42:39.671938,-217
2021-12-10 13:42:39.671946,-222
2021-12-10 13:42:39.671955,-229
2021-12-10 13:42:39.671963,-239
2021-12-10 13:42:39.671971,-239
2021-12-10 13:42:39.671986,-249
2021-12-10 13:42:39.671994,-254
2021-12-10 13:42:39.672003,-244
2021-12-10 13:42:39.672011,-249
2021-12-10 13:42:39.672019,-259
2021-12-10 13:42:39.672027,-261
2021-12-10 13:42:39.672036,-261
2021-12-10 13:42:39.672044,-256
2021-12-10 13:42:39.672052,-254
2021-12-10 13:42:39.672060,-254
2021-12-10 13:42:39.672068,-256
2021-12-10 13:42:39.672077,-249
2021-12-10 13:42:39.852367,-227
2021-12-10 13:42:39.852383,-215
2021-12-10 13:42:39.852393,-210
2021-12-10 13:42:39.852401,-202
2021-12-10 13:42:39.852410,-207
2021-12-10 13:42:39.852419,-224
2021-12-10 13:42:39.852427,-232
2021-12-10 13:42:39.852436,-215
2021-12-10 13:42:39.852444,-215
2021-12-10 13:42:39.852453,-232
2021-12-10 13:42:39.852461,-220
2021-12-10 13:42:39.852470,-200
2021-12-10 13:42:39.852478,-200
2021-12-10 13:42:39.852486,-190
2021-12-10 13:42:39.852495,-149
2021-12-10 13:42:39.852503,-75
2021-12-10 13:42:39.852512,102
2021-12-10 13:42:39.852520,445
2021-12-10 13:42:39.852528,471
2021-12-10 13:42:39.852537,-217
2021-12-10 13:42:39.852545,-924
2021-12-10 13:42:39.852554,-890
2021-12-10 13:42:39.852562,-457
2021-12-10 13:42:39.852570,-271
2021-12-10 13:42:39.852579,-239
2021-12-10 13:42:39.852587,-129
2021-12-10 13:42:39.852596,-88
2021-12-10 13:42:39.852604,-107
2021-12-10 13:42:39.852613,-78
2021-12-10 13:42:39.852621,-61
2021-12-10 13:42:40.166915,-73
2021-12-10 13:42:40.166935,-58
2021-12-10 13:42:40.166945,-46
2021-12-10 13:42:40.166954,-46
2021-12-10 13:42:40.166962,-29
2021-12-10 13:42:40.166970,-17
2021-12-10 13:42:40.166979,-14
2021-12-10 13:42:40.166987,-4
2021-12-10 13:42:40.167001,4
2021-12-10 13:42:40.167010,34
2021-12-10 13:42:40.167018,66
2021-12-10 13:42:40.167026,92
2021-12-10 13:42:40.167035,119
2021-12-10 13:42:40.167043,141
2021-12-10 13:42:40.167051,156
2021-12-10 13:42:40.167060,146
2021-12-10 13:42:40.167068,122
2021-12-10 13:42:40.167076,102
2021-12-10 13:42:40.167084,58
2021-12-10 13:42:40.167093,-7
2021-12-10 13:42:40.167101,-73
2021-12-10 13:42:40.167110,-136
2021-12-10 13:42:40.167118,-190
2021-12-10 13:42:40.167126,-242
2021-12-10 13:42:40.167135,-283
2021-12-10 13:42:40.167143,-305
2021-12-10 13:42:40.167151,-317
2021-12-10 13:42:40.167160,-317
2021-12-10 13:42:40.167174,-308
2021-12-10 13:42:40.167183,-303
2021-12-10 13:42:40.302411,-300
2021-12-10 13:42:40.302428,-295
2021-12-10 13:42:40.302437,-281
2021-12-10 13:42:40.302446,-278
2021-12-10 13:42:40.302455,-288
2021-12-10 13:42:40.302463,-276
2021-12-10 13:42:40.302472,-264
2021-12-10 13:42:40.302480,-261
2021-12-10 13:42:40.302489,-251
2021-12-10 13:42:40.302497,-242
2021-12-10 13:42:40.302505,-232
2021-12-10 13:42:40.302514,-224
2021-12-10 13:42:40.302522,-220
2021-12-10 13:42:40.302531,-215
2021-12-10 13:42:40.302539,-217
2021-12-10 13:42:40.302547,-217
2021-12-10 13:42:40.302556,-222
2021-12-10 13:42:40.302564,-222
2021-12-10 13:42:40.302573,-215
2021-12-10 13:42:40.302581,-224
2021-12-10 13:42:40.302589,-234
2021-12-10 13:42:40.302598,-229
2021-12-10 13:42:40.302606,-232
2021-12-10 13:42:40.302615,-227
2021-12-10 13:42:40.302623,-224
2021-12-10 13:42:40.302631,-224
2021-12-10 13:42:40.302640,-222
2021-12-10 13:42:40.302648,-229
2021-12-10 13:42:40.302662,-232
2021-12-10 13:42:40.302671,-220
2021-12-10 13:42:40.572569,-215
2021-12-10 13:42:40.572589,-215
2021-12-10 13:42:40.572599,-217
2021-12-10 13:42:40.572608,-205
2021-12-10 13:42:40.572617,-188
2021-12-10 13:42:40.572625,-193
2021-12-10 13:42:40.572633,-202
2021-12-10 13:42:40.572642,-217
2021-12-10 13:42:40.572650,-222
2021-12-10 13:42:40.572659,-205
2021-12-10 13:42:40.572667,-202
2021-12-10 13:42:40.572676,-210
2021-12-10 13:42:40.572684,-217
2021-12-10 13:42:40.572711,-215
2021-12-10 13:42:40.572720,-195
2021-12-10 13:42:40.572729,-180
2021-12-10 13:42:40.572737,-136
2021-12-10 13:42:40.572746,-58
2021-12-10 13:42:40.572754,97
2021-12-10 13:42:40.572763,330
2021-12-10 13:42:40.572771,180
2021-12-10 13:42:40.572780,-511
2021-12-10 13:42:40.572788,-956
2021-12-10 13:42:40.572797,-716
2021-12-10 13:42:40.572805,-322
2021-12-10 13:42:40.572814,-198
2021-12-10 13:42:40.572822,-136
2021-12-10 13:42:40.572831,-36
2021-12-10 13:42:40.572839,-19
2021-12-10 13:42:40.572847,-19
2021-12-10 13:42:40.796090,9
2021-12-10 13:42:40.796108,12
2021-12-10 13:42:40.796118,9
2021-12-10 13:42:40.796126,22
2021-12-10 13:42:40.796135,36
2021-12-10 13:42:40.796143,51
2021-12-10 13:42:40.796152,53
2021-12-10 13:42:40.796160,58
2021-12-10 13:42:40.796169,75
2021-12-10 13:42:40.796177,80
2021-12-10 13:42:40.796185,95
2021-12-10 13:42:40.796194,117
2021-12-10 13:42:40.796202,139
2021-12-10 13:42:40.796211,166
2021-12-10 13:42:40.796219,193
2021-12-10 13:42:40.796227,212
2021-12-10 13:42:40.796236,222
2021-12-10 13:42:40.796244,215
2021-12-10 13:42:40.796253,188
2021-12-10 13:42:40.796261,139
2021-12-10 13:42:40.796269,95
2021-12-10 13:42:40.796278,29
2021-12-10 13:42:40.796286,-51
2021-12-10 13:42:40.796294,-105
2021-12-10 13:42:40.796303,-156
2021-12-10 13:42:40.796311,-200
2021-12-10 13:42:40.796320,-220
2021-12-10 13:42:40.796328,-237
2021-12-10 13:42:40.796337,-239
2021-12-10 13:42:40.796345,-229
2021-12-10 13:42:40.977418,-232
2021-12-10 13:42:40.977435,-234
2021-12-10 13:42:40.977444,-229
2021-12-10 13:42:40.977453,-217
2021-12-10 13:42:40.977462,-205
2021-12-10 13:42:40.977470,-210
2021-12-10 13:42:40.977478,-202
2021-12-10 13:42:40.977487,-193
2021-12-10 13:42:40.977495,-185
2021-12-10 13:42:40.977503,-173
2021-12-10 13:42:40.977512,-163
2021-12-10 13:42:40.977520,-158
2021-12-10 13:42:40.977528,-156
2021-12-10 13:42:40.977537,-146
2021-12-10 13:42:40.977545,-129
2021-12-10 13:42:40.977553,-132
2021-12-10 13:42:40.977561,-136
2021-12-10 13:42:40.977570,-127
2021-12-10 13:42:40.977578,-127
2021-12-10 13:42:40.977586,-119
2021-12-10 13:42:40.977594,-112
2021-12-10 13:42:40.977603,-122
2021-12-10 13:42:40.977611,-127
