Time,ECG
2021-12-10 14:02:15.768855,-92
2021-12-10 14:02:15.768876,-132
2021-12-10 14:02:15.768886,-168
2021-12-10 14:02:15.768895,-146
2021-12-10 14:02:15.768904,-75
2021-12-10 14:02:15.768913,-26
2021-12-10 14:02:15.768922,0
2021-12-10 14:02:15.768931,122
2021-12-10 14:02:15.768940,388
2021-12-10 14:02:15.768949,308
2021-12-10 14:02:15.768958,-459
2021-12-10 14:02:15.768966,-1144
2021-12-10 14:02:15.768975,-970
2021-12-10 14:02:15.768984,-435
2021-12-10 14:02:15.768992,-271
2021-12-10 14:02:15.769001,-205
2021-12-10 14:02:15.769010,-4
2021-12-10 14:02:15.769019,44
2021-12-10 14:02:15.769027,24
2021-12-10 14:02:15.769036,95
2021-12-10 14:02:15.769044,102
2021-12-10 14:02:15.769053,41
2021-12-10 14:02:15.769062,100
2021-12-10 14:02:15.769070,178
2021-12-10 14:02:15.769079,117
2021-12-10 14:02:15.769087,70
2021-12-10 14:02:15.769096,136
2021-12-10 14:02:15.769105,188
2021-12-10 14:02:15.769114,171
2021-12-10 14:02:15.769122,193
2021-12-10 14:02:15.769210,249
2021-12-10 14:02:15.769221,269
2021-12-10 14:02:15.769230,286
2021-12-10 14:02:15.769239,335
2021-12-10 14:02:15.769247,369
2021-12-10 14:02:15.769256,337
2021-12-10 14:02:15.769265,317
2021-12-10 14:02:15.769274,344
2021-12-10 14:02:15.769282,317
2021-12-10 14:02:15.769291,210
2021-12-10 14:02:15.769299,85
2021-12-10 14:02:15.769308,-7
2021-12-10 14:02:15.769316,-90
2021-12-10 14:02:15.769325,-129
2021-12-10 14:02:15.769333,-168
2021-12-10 14:02:15.769342,-273
2021-12-10 14:02:15.769350,-300
2021-12-10 14:02:15.769360,-254
2021-12-10 14:02:15.769368,-271
2021-12-10 14:02:15.769377,-293
2021-12-10 14:02:15.769385,-308
2021-12-10 14:02:15.769394,-339
2021-12-10 14:02:15.769402,-298
2021-12-10 14:02:15.769411,-266
2021-12-10 14:02:15.769419,-273
2021-12-10 14:02:15.769428,-237
2021-12-10 14:02:15.769436,-261
2021-12-10 14:02:15.769445,-300
2021-12-10 14:02:15.769453,-232
2021-12-10 14:02:15.769464,-198
2021-12-10 14:02:15.895471,-271
2021-12-10 14:02:15.895491,-251
2021-12-10 14:02:15.895501,-176
2021-12-10 14:02:15.895510,-202
2021-12-10 14:02:15.895519,-217
2021-12-10 14:02:15.895527,-202
2021-12-10 14:02:15.895536,-224
2021-12-10 14:02:15.895545,-239
2021-12-10 14:02:15.895553,-220
2021-12-10 14:02:15.895562,-217
2021-12-10 14:02:15.895571,-234
2021-12-10 14:02:15.895579,-254
2021-12-10 14:02:15.895588,-266
2021-12-10 14:02:15.895600,-222
2021-12-10 14:02:15.895609,-176
2021-12-10 14:02:15.895617,-244
2021-12-10 14:02:15.895626,-271
2021-12-10 14:02:15.895636,-185
2021-12-10 14:02:15.895645,-205
2021-12-10 14:02:15.895653,-254
2021-12-10 14:02:15.895662,-224
2021-12-10 14:02:15.895670,-227
2021-12-10 14:02:15.895679,-234
2021-12-10 14:02:15.895687,-212
2021-12-10 14:02:15.895696,-180
2021-12-10 14:02:15.895705,-173
2021-12-10 14:02:15.895713,-222
2021-12-10 14:02:15.895722,-237
2021-12-10 14:02:15.895730,-239
2021-12-10 14:02:15.895741,-264
2021-12-10 14:02:16.119101,-229
2021-12-10 14:02:16.119124,-220
2021-12-10 14:02:16.119134,-261
2021-12-10 14:02:16.119143,-232
2021-12-10 14:02:16.119152,-171
2021-12-10 14:02:16.119160,-146
2021-12-10 14:02:16.119169,-63
2021-12-10 14:02:16.119178,149
2021-12-10 14:02:16.119187,246
2021-12-10 14:02:16.119195,-183
2021-12-10 14:02:16.119204,-936
2021-12-10 14:02:16.119213,-1193
2021-12-10 14:02:16.119221,-802
2021-12-10 14:02:16.119230,-420
2021-12-10 14:02:16.119239,-310
2021-12-10 14:02:16.119247,-168
2021-12-10 14:02:16.119256,9
2021-12-10 14:02:16.119268,19
2021-12-10 14:02:16.119277,-44
2021-12-10 14:02:16.119285,2
2021-12-10 14:02:16.119294,53
2021-12-10 14:02:16.119303,48
2021-12-10 14:02:16.119311,46
2021-12-10 14:02:16.119320,51
2021-12-10 14:02:16.119328,97
2021-12-10 14:02:16.119337,127
2021-12-10 14:02:16.119345,117
2021-12-10 14:02:16.119354,127
2021-12-10 14:02:16.119362,144
2021-12-10 14:02:16.119371,176
2021-12-10 14:02:16.346324,222
2021-12-10 14:02:16.346344,269
2021-12-10 14:02:16.346353,288
2021-12-10 14:02:16.346393,317
2021-12-10 14:02:16.346400,366
2021-12-10 14:02:16.346410,349
2021-12-10 14:02:16.346418,352
2021-12-10 14:02:16.346431,379
2021-12-10 14:02:16.346439,273
2021-12-10 14:02:16.346447,156
2021-12-10 14:02:16.346456,102
2021-12-10 14:02:16.346464,22
2021-12-10 14:02:16.346472,-75
2021-12-10 14:02:16.346481,-136
2021-12-10 14:02:16.346489,-190
2021-12-10 14:02:16.346498,-220
2021-12-10 14:02:16.346506,-202
2021-12-10 14:02:16.346515,-259
2021-12-10 14:02:16.346523,-288
2021-12-10 14:02:16.346532,-224
2021-12-10 14:02:16.346540,-212
2021-12-10 14:02:16.346549,-229
2021-12-10 14:02:16.346557,-207
2021-12-10 14:02:16.346565,-193
2021-12-10 14:02:16.346574,-210
2021-12-10 14:02:16.346582,-212
2021-12-10 14:02:16.346590,-193
2021-12-10 14:02:16.346599,-171
2021-12-10 14:02:16.346611,-132
2021-12-10 14:02:16.346622,-127
2021-12-10 14:02:16.525398,-141
2021-12-10 14:02:16.525418,-114
2021-12-10 14:02:16.525428,-122
2021-12-10 14:02:16.525437,-114
2021-12-10 14:02:16.525446,-97
2021-12-10 14:02:16.525455,-124
2021-12-10 14:02:16.525463,-114
2021-12-10 14:02:16.525472,-107
2021-12-10 14:02:16.525481,-110
2021-12-10 14:02:16.525489,-92
2021-12-10 14:02:16.525498,-127
2021-12-10 14:02:16.525506,-151
2021-12-10 14:02:16.525515,-107
2021-12-10 14:02:16.525523,-78
2021-12-10 14:02:16.525532,-119
2021-12-10 14:02:16.525541,-139
2021-12-10 14:02:16.525549,-107
2021-12-10 14:02:16.525558,-124
2021-12-10 14:02:16.525567,-144
2021-12-10 14:02:16.525575,-119
2021-12-10 14:02:16.525584,-95
2021-12-10 14:02:16.525592,-88
2021-12-10 14:02:16.525601,-107
2021-12-10 14:02:16.525609,-75
2021-12-10 14:02:16.525623,-44
2021-12-10 14:02:16.525632,-102
2021-12-10 14:02:16.525640,-105
2021-12-10 14:02:16.525649,-53
2021-12-10 14:02:16.525658,-61
2021-12-10 14:02:16.525666,-58
2021-12-10 14:02:17.064393,-46
2021-12-10 14:02:17.064414,-68
2021-12-10 14:02:17.064424,-53
2021-12-10 14:02:17.064463,-46
2021-12-10 14:02:17.064473,-73
2021-12-10 14:02:17.064482,-90
2021-12-10 14:02:17.064490,-110
2021-12-10 14:02:17.064499,-80
2021-12-10 14:02:17.064508,-39
2021-12-10 14:02:17.064516,-53
2021-12-10 14:02:17.064524,-26
2021-12-10 14:02:17.064536,83
2021-12-10 14:02:17.064546,259
2021-12-10 14:02:17.064554,533
2021-12-10 14:02:17.064563,420
2021-12-10 14:02:17.064571,-437
2021-12-10 14:02:17.064580,-1071
2021-12-10 14:02:17.064588,-799
2021-12-10 14:02:17.064597,-354
2021-12-10 14:02:17.064605,-244
2021-12-10 14:02:17.064614,-124
2021-12-10 14:02:17.064622,73
2021-12-10 14:02:17.064633,92
2021-12-10 14:02:17.064642,39
2021-12-10 14:02:17.064651,127
2021-12-10 14:02:17.064659,205
2021-12-10 14:02:17.064668,129
2021-12-10 14:02:17.064677,102
2021-12-10 14:02:17.064685,166
2021-12-10 14:02:17.064694,161
2021-12-10 14:02:17.154836,154
2021-12-10 14:02:17.154858,185
2021-12-10 14:02:17.154869,195
2021-12-10 14:02:17.154878,224
2021-12-10 14:02:17.154887,261
2021-12-10 14:02:17.154896,281
2021-12-10 14:02:17.154905,349
2021-12-10 14:02:17.154913,418
2021-12-10 14:02:17.154922,398
2021-12-10 14:02:17.154931,391
2021-12-10 14:02:17.154939,449
2021-12-10 14:02:17.154948,486
2021-12-10 14:02:17.154957,449
2021-12-10 14:02:17.154965,398
2021-12-10 14:02:17.154974,337
2021-12-10 14:02:17.154982,237
2021-12-10 14:02:17.154991,136
2021-12-10 14:02:17.154999,63
2021-12-10 14:02:17.155008,-24
2021-12-10 14:02:17.155017,-124
2021-12-10 14:02:17.155026,-163
2021-12-10 14:02:17.155034,-166
2021-12-10 14:02:17.155043,-193
2021-12-10 14:02:17.155051,-212
2021-12-10 14:02:17.155065,-176
2021-12-10 14:02:17.155074,-158
2021-12-10 14:02:17.155082,-202
2021-12-10 14:02:17.155091,-176
2021-12-10 14:02:17.155099,-134
2021-12-10 14:02:17.155108,-178
2021-12-10 14:02:17.290321,-185
2021-12-10 14:02:17.290339,-151
2021-12-10 14:02:17.290349,-144
2021-12-10 14:02:17.290358,-117
2021-12-10 14:02:17.290366,-110
2021-12-10 14:02:17.290375,-127
2021-12-10 14:02:17.290384,-114
2021-12-10 14:02:17.290392,-112
2021-12-10 14:02:17.290401,-117
2021-12-10 14:02:17.290409,-95
2021-12-10 14:02:17.290418,-97
2021-12-10 14:02:17.290426,-78
2021-12-10 14:02:17.290435,-75
2021-12-10 14:02:17.290444,-122
2021-12-10 14:02:17.290452,-90
2021-12-10 14:02:17.290461,-75
2021-12-10 14:02:17.290469,-141
2021-12-10 14:02:17.290478,-119
2021-12-10 14:02:17.290486,-56
2021-12-10 14:02:17.290495,-105
2021-12-10 14:02:17.290503,-149
2021-12-10 14:02:17.290512,-102
2021-12-10 14:02:17.290520,-70
2021-12-10 14:02:17.290529,-102
2021-12-10 14:02:17.290537,-129
2021-12-10 14:02:17.290545,-129
2021-12-10 14:02:17.290554,-119
2021-12-10 14:02:17.290562,-105
2021-12-10 14:02:17.290571,-112
2021-12-10 14:02:17.290579,-105
2021-12-10 14:02:17.560467,-68
2021-12-10 14:02:17.560490,-83
2021-12-10 14:02:17.560500,-114
2021-12-10 14:02:17.560509,-95
2021-12-10 14:02:17.560517,-70
2021-12-10 14:02:17.560526,-90
2021-12-10 14:02:17.560535,-88
2021-12-10 14:02:17.560543,-56
2021-12-10 14:02:17.560552,-63
2021-12-10 14:02:17.560560,-63
2021-12-10 14:02:17.560568,-63
2021-12-10 14:02:17.560577,-124
2021-12-10 14:02:17.560585,-136
2021-12-10 14:02:17.560594,-97
2021-12-10 14:02:17.560602,-97
2021-12-10 14:02:17.560611,-83
2021-12-10 14:02:17.560619,-90
2021-12-10 14:02:17.560627,-117
2021-12-10 14:02:17.560636,-80
2021-12-10 14:02:17.560644,-22
2021-12-10 14:02:17.560653,34
2021-12-10 14:02:17.560661,215
2021-12-10 14:02:17.560670,569
2021-12-10 14:02:17.560678,560
2021-12-10 14:02:17.560686,-266
2021-12-10 14:02:17.560695,-1051
2021-12-10 14:02:17.560703,-907
2021-12-10 14:02:17.560712,-418
2021-12-10 14:02:17.560720,-273
2021-12-10 14:02:17.560729,-168
2021-12-10 14:02:17.695644,19
2021-12-10 14:02:17.695666,73
2021-12-10 14:02:17.695676,63
2021-12-10 14:02:17.695685,80
2021-12-10 14:02:17.695693,122
2021-12-10 14:02:17.695702,119
2021-12-10 14:02:17.695711,85
2021-12-10 14:02:17.695719,100
2021-12-10 14:02:17.695727,132
2021-12-10 14:02:17.695736,149
2021-12-10 14:02:17.695749,171
2021-12-10 14:02:17.695758,173
2021-12-10 14:02:17.695766,193
2021-12-10 14:02:17.695775,251
2021-12-10 14:02:17.695784,273
2021-12-10 14:02:17.695793,283
2021-12-10 14:02:17.695802,339
2021-12-10 14:02:17.695810,393
2021-12-10 14:02:17.695819,396
2021-12-10 14:02:17.695827,410
2021-12-10 14:02:17.695835,447
2021-12-10 14:02:17.695844,423
2021-12-10 14:02:17.695852,366
2021-12-10 14:02:17.695861,320
2021-12-10 14:02:17.695869,217
2021-12-10 14:02:17.695878,100
2021-12-10 14:02:17.695886,14
2021-12-10 14:02:17.695894,-88
2021-12-10 14:02:17.695903,-171
2021-12-10 14:02:17.695911,-198
2021-12-10 14:02:17.920291,-227
2021-12-10 14:02:17.920308,-259
2021-12-10 14:02:17.920318,-264
2021-12-10 14:02:17.920327,-269
2021-12-10 14:02:17.920335,-271
2021-12-10 14:02:17.920344,-239
2021-12-10 14:02:17.920352,-202
2021-12-10 14:02:17.920361,-244
2021-12-10 14:02:17.920369,-278
2021-12-10 14:02:17.920378,-232
2021-12-10 14:02:17.920386,-190
2021-12-10 14:02:17.920394,-205
2021-12-10 14:02:17.920403,-224
2021-12-10 14:02:17.920411,-195
2021-12-10 14:02:17.920420,-151
2021-12-10 14:02:17.920428,-178
2021-12-10 14:02:17.920437,-193
2021-12-10 14:02:17.920445,-144
2021-12-10 14:02:17.920454,-136
2021-12-10 14:02:17.920462,-156
2021-12-10 14:02:17.920471,-134
2021-12-10 14:02:17.920479,-114
2021-12-10 14:02:17.920488,-144
2021-12-10 14:02:17.920496,-149
2021-12-10 14:02:17.920505,-127
2021-12-10 14:02:17.920520,-136
2021-12-10 14:02:17.920529,-156
2021-12-10 14:02:17.920538,-161
2021-12-10 14:02:17.920546,-154
2021-12-10 14:02:17.920555,-144
2021-12-10 14:02:18.233973,-127
2021-12-10 14:02:18.233992,-127
2021-12-10 14:02:18.234001,-141
2021-12-10 14:02:18.234010,-134
2021-12-10 14:02:18.234019,-139
2021-12-10 14:02:18.234027,-161
2021-12-10 14:02:18.234036,-158
2021-12-10 14:02:18.234045,-134
2021-12-10 14:02:18.234053,-119
2021-12-10 14:02:18.234061,-144
2021-12-10 14:02:18.234070,-151
2021-12-10 14:02:18.234078,-110
2021-12-10 14:02:18.234087,-107
2021-12-10 14:02:18.234095,-136
2021-12-10 14:02:18.234103,-136
2021-12-10 14:02:18.234112,-117
2021-12-10 14:02:18.234120,-112
2021-12-10 14:02:18.234129,-124
2021-12-10 14:02:18.234137,-105
2021-12-10 14:02:18.234146,-61
2021-12-10 14:02:18.234155,-78
2021-12-10 14:02:18.234163,-124
2021-12-10 14:02:18.234172,-112
2021-12-10 14:02:18.234180,-97
2021-12-10 14:02:18.234189,-127
2021-12-10 14:02:18.234197,-114
2021-12-10 14:02:18.234206,-97
2021-12-10 14:02:18.234214,-151
2021-12-10 14:02:18.234223,-154
2021-12-10 14:02:18.234231,-112
2021-12-10 14:02:18.370458,-100
2021-12-10 14:02:18.370480,-68
2021-12-10 14:02:18.370490,-14
2021-12-10 14:02:18.370499,75
2021-12-10 14:02:18.370508,286
2021-12-10 14:02:18.370517,310
2021-12-10 14:02:18.370525,-320
2021-12-10 14:02:18.370534,-1100
2021-12-10 14:02:18.370543,-1090
2021-12-10 14:02:18.370551,-533
2021-12-10 14:02:18.370560,-266
2021-12-10 14:02:18.370568,-237
2021-12-10 14:02:18.370577,-73
2021-12-10 14:02:18.370586,39
2021-12-10 14:02:18.370594,26
2021-12-10 14:02:18.370603,39
2021-12-10 14:02:18.370614,48
2021-12-10 14:02:18.370623,44
2021-12-10 14:02:18.370632,83
2021-12-10 14:02:18.370640,114
2021-12-10 14:02:18.370649,75
2021-12-10 14:02:18.370657,85
2021-12-10 14:02:18.370666,136
2021-12-10 14:02:18.370674,122
2021-12-10 14:02:18.370683,102
2021-12-10 14:02:18.370691,136
2021-12-10 14:02:18.370700,195
2021-12-10 14:02:18.370708,229
2021-12-10 14:02:18.370717,237
2021-12-10 14:02:18.370725,269
2021-12-10 14:02:18.595337,308
2021-12-10 14:02:18.595355,315
2021-12-10 14:02:18.595365,344
2021-12-10 14:02:18.595375,344
2021-12-10 14:02:18.595383,239
2021-12-10 14:02:18.595392,176
2021-12-10 14:02:18.595401,166
2021-12-10 14:02:18.595409,48
2021-12-10 14:02:18.595418,-48
2021-12-10 14:02:18.595426,-90
2021-12-10 14:02:18.595435,-185
2021-12-10 14:02:18.595443,-237
2021-12-10 14:02:18.595452,-246
2021-12-10 14:02:18.595461,-281
2021-12-10 14:02:18.595469,-298
2021-12-10 14:02:18.595477,-308
2021-12-10 14:02:18.595486,-283
2021-12-10 14:02:18.595494,-242
2021-12-10 14:02:18.595503,-286
2021-12-10 14:02:18.595511,-315
2021-12-10 14:02:18.595519,-232
2021-12-10 14:02:18.595528,-222
2021-12-10 14:02:18.595536,-310
2021-12-10 14:02:18.595545,-295
2021-12-10 14:02:18.595553,-207
2021-12-10 14:02:18.595562,-198
2021-12-10 14:02:18.595570,-224
2021-12-10 14:02:18.595579,-190
2021-12-10 14:02:18.595587,-154
2021-12-10 14:02:18.595596,-185
2021-12-10 14:02:18.865426,-188
2021-12-10 14:02:18.865446,-154
2021-12-10 14:02:18.865456,-146
2021-12-10 14:02:18.865465,-141
2021-12-10 14:02:18.865474,-178
2021-12-10 14:02:18.865483,-178
2021-12-10 14:02:18.865491,-141
2021-12-10 14:02:18.865500,-183
2021-12-10 14:02:18.865508,-198
2021-12-10 14:02:18.865517,-161
2021-12-10 14:02:18.865525,-163
2021-12-10 14:02:18.865533,-180
2021-12-10 14:02:18.865542,-146
2021-12-10 14:02:18.865558,-124
2021-12-10 14:02:18.865567,-183
2021-12-10 14:02:18.865575,-210
2021-12-10 14:02:18.865584,-176
2021-12-10 14:02:18.865592,-171
2021-12-10 14:02:18.865600,-163
2021-12-10 14:02:18.865609,-122
2021-12-10 14:02:18.865618,-129
2021-12-10 14:02:18.865626,-149
2021-12-10 14:02:18.865634,-127
2021-12-10 14:02:18.865643,-102
2021-12-10 14:02:18.865651,-102
2021-12-10 14:02:18.865659,-136
2021-12-10 14:02:18.865668,-117
2021-12-10 14:02:18.865676,-53
2021-12-10 14:02:18.865685,-112
2021-12-10 14:02:18.865693,-166
2021-12-10 14:02:19.090339,-127
2021-12-10 14:02:19.090358,-129
2021-12-10 14:02:19.090367,-151
2021-12-10 14:02:19.090377,-114
2021-12-10 14:02:19.090386,-107
2021-12-10 14:02:19.090394,-134
2021-12-10 14:02:19.090403,-124
2021-12-10 14:02:19.090411,-68
2021-12-10 14:02:19.090420,2
2021-12-10 14:02:19.090429,80
2021-12-10 14:02:19.090437,332
2021-12-10 14:02:19.090446,383
2021-12-10 14:02:19.090455,-322
2021-12-10 14:02:19.090463,-1085
2021-12-10 14:02:19.090472,-1024
2021-12-10 14:02:19.090480,-538
2021-12-10 14:02:19.090489,-349
2021-12-10 14:02:19.090498,-246
2021-12-10 14:02:19.090506,-22
2021-12-10 14:02:19.090515,-29
2021-12-10 14:02:19.090523,-134
2021-12-10 14:02:19.090532,-44
2021-12-10 14:02:19.090540,22
2021-12-10 14:02:19.090549,-80
2021-12-10 14:02:19.090557,-105
2021-12-10 14:02:19.090566,-7
2021-12-10 14:02:19.090574,-41
2021-12-10 14:02:19.090583,-132
2021-12-10 14:02:19.090592,-85
2021-12-10 14:02:19.090600,-34
2021-12-10 14:02:19.315486,-68
2021-12-10 14:02:19.315509,-53
2021-12-10 14:02:19.315519,2
2021-12-10 14:02:19.315527,14
2021-12-10 14:02:19.315536,46
2021-12-10 14:02:19.315545,97
2021-12-10 14:02:19.315553,90
2021-12-10 14:02:19.315562,107
2021-12-10 14:02:19.315570,156
2021-12-10 14:02:19.315579,122
2021-12-10 14:02:19.315587,46
2021-12-10 14:02:19.315596,24
2021-12-10 14:02:19.315604,-46
2021-12-10 14:02:19.315613,-200
2021-12-10 14:02:19.315621,-303
2021-12-10 14:02:19.315629,-366
2021-12-10 14:02:19.315638,-432
2021-12-10 14:02:19.315651,-484
2021-12-10 14:02:19.315660,-525
2021-12-10 14:02:19.315669,-535
2021-12-10 14:02:19.315677,-535
2021-12-10 14:02:19.315685,-515
2021-12-10 14:02:19.315694,-491
2021-12-10 14:02:19.315702,-538
2021-12-10 14:02:19.315711,-535
2021-12-10 14:02:19.315719,-481
2021-12-10 14:02:19.315727,-479
2021-12-10 14:02:19.315736,-447
2021-12-10 14:02:19.315744,-432
2021-12-10 14:02:19.315752,-454
2021-12-10 14:02:19.540427,-420
2021-12-10 14:02:19.540447,-383
2021-12-10 14:02:19.540459,-376
2021-12-10 14:02:19.540468,-359
2021-12-10 14:02:19.540478,-349
2021-12-10 14:02:19.540487,-349
2021-12-10 14:02:19.540496,-339
2021-12-10 14:02:19.540504,-330
2021-12-10 14:02:19.540513,-310
2021-12-10 14:02:19.540521,-310
2021-12-10 14:02:19.540530,-332
2021-12-10 14:02:19.540539,-305
2021-12-10 14:02:19.540549,-264
2021-12-10 14:02:19.540558,-264
2021-12-10 14:02:19.540566,-295
2021-12-10 14:02:19.540575,-283
2021-12-10 14:02:19.540584,-242
2021-12-10 14:02:19.540593,-242
2021-12-10 14:02:19.540602,-266
2021-12-10 14:02:19.540611,-293
2021-12-10 14:02:19.540620,-254
2021-12-10 14:02:19.540629,-185
2021-12-10 14:02:19.540638,-232
2021-12-10 14:02:19.540648,-283
2021-12-10 14:02:19.540657,-202
2021-12-10 14:02:19.540666,-151
2021-12-10 14:02:19.540675,-210
2021-12-10 14:02:19.540683,-215
2021-12-10 14:02:19.540693,-168
2021-12-10 14:02:19.540702,-158
2021-12-10 14:02:19.765341,-161
2021-12-10 14:02:19.765360,-154
2021-12-10 14:02:19.765369,-156
2021-12-10 14:02:19.765378,-146
2021-12-10 14:02:19.765387,-107
2021-12-10 14:02:19.765396,-83
2021-12-10 14:02:19.765404,-97
2021-12-10 14:02:19.765413,-139
2021-12-10 14:02:19.765422,-110
2021-12-10 14:02:19.765430,-51
2021-12-10 14:02:19.765439,-112
2021-12-10 14:02:19.765447,-163
2021-12-10 14:02:19.765456,-119
2021-12-10 14:02:19.765464,-100
2021-12-10 14:02:19.765473,-129
2021-12-10 14:02:19.765482,-124
2021-12-10 14:02:19.765490,-75
2021-12-10 14:02:19.765499,-88
2021-12-10 14:02:19.765507,-90
2021-12-10 14:02:19.765516,-9
2021-12-10 14:02:19.765524,83
2021-12-10 14:02:19.765533,298
2021-12-10 14:02:19.765541,645
2021-12-10 14:02:19.765550,467
2021-12-10 14:02:19.765558,-437
2021-12-10 14:02:19.765567,-1068
2021-12-10 14:02:19.765575,-846
2021-12-10 14:02:19.765584,-352
2021-12-10 14:02:19.765592,-168
2021-12-10 14:02:19.765606,-136
2021-12-10 14:02:19.990347,-36
2021-12-10 14:02:19.990366,31
2021-12-10 14:02:19.990374,44
2021-12-10 14:02:19.990382,31
2021-12-10 14:02:19.990390,44
2021-12-10 14:02:19.990398,112
2021-12-10 14:02:19.990406,114
2021-12-10 14:02:19.990414,61
2021-12-10 14:02:19.990422,88
2021-12-10 14:02:19.990430,144
2021-12-10 14:02:19.990438,139
2021-12-10 14:02:19.990445,146
2021-12-10 14:02:19.990452,180
2021-12-10 14:02:19.990460,200
2021-12-10 14:02:19.990468,222
2021-12-10 14:02:19.990477,273
2021-12-10 14:02:19.990485,388
2021-12-10 14:02:19.990492,423
2021-12-10 14:02:19.990501,369
2021-12-10 14:02:19.990509,423
2021-12-10 14:02:19.990517,464
2021-12-10 14:02:19.990525,405
2021-12-10 14:02:19.990533,383
2021-12-10 14:02:19.990539,349
2021-12-10 14:02:19.990545,220
2021-12-10 14:02:19.990552,105
2021-12-10 14:02:19.990559,36
2021-12-10 14:02:19.990565,-78
2021-12-10 14:02:19.990572,-166
2021-12-10 14:02:19.990578,-163
2021-12-10 14:02:20.304789,-176
2021-12-10 14:02:20.304811,-237
2021-12-10 14:02:20.304821,-254
2021-12-10 14:02:20.304830,-210
2021-12-10 14:02:20.304838,-212
2021-12-10 14:02:20.304847,-246
2021-12-10 14:02:20.304855,-222
2021-12-10 14:02:20.304864,-178
2021-12-10 14:02:20.304872,-168
2021-12-10 14:02:20.304881,-198
2021-12-10 14:02:20.304889,-161
2021-12-10 14:02:20.304898,-112
2021-12-10 14:02:20.304906,-173
2021-12-10 14:02:20.304914,-183
2021-12-10 14:02:20.304923,-124
2021-12-10 14:02:20.304931,-112
2021-12-10 14:02:20.304939,-134
2021-12-10 14:02:20.304948,-136
2021-12-10 14:02:20.304956,-119
2021-12-10 14:02:20.304965,-117
2021-12-10 14:02:20.304973,-97
2021-12-10 14:02:20.304982,-97
2021-12-10 14:02:20.304990,-119
2021-12-10 14:02:20.304999,-100
2021-12-10 14:02:20.305007,-134
2021-12-10 14:02:20.305015,-173
2021-12-10 14:02:20.305024,-132
2021-12-10 14:02:20.305032,-132
2021-12-10 14:02:20.305040,-151
2021-12-10 14:02:20.305049,-136
2021-12-10 14:02:20.440312,-151
2021-12-10 14:02:20.440330,-146
2021-12-10 14:02:20.440340,-105
2021-12-10 14:02:20.440349,-146
2021-12-10 14:02:20.440357,-198
2021-12-10 14:02:20.440366,-141
2021-12-10 14:02:20.440375,-127
2021-12-10 14:02:20.440383,-166
2021-12-10 14:02:20.440392,-141
2021-12-10 14:02:20.440401,-124
2021-12-10 14:02:20.440409,-139
2021-12-10 14:02:20.440418,-100
2021-12-10 14:02:20.440426,-90
2021-12-10 14:02:20.440435,-156
2021-12-10 14:02:20.440443,-156
2021-12-10 14:02:20.440452,-95
2021-12-10 14:02:20.440460,-97
2021-12-10 14:02:20.440469,-127
2021-12-10 14:02:20.440478,-114
2021-12-10 14:02:20.440486,-85
2021-12-10 14:02:20.440498,-53
2021-12-10 14:02:20.440506,-63
2021-12-10 14:02:20.440515,-88
2021-12-10 14:02:20.440523,-112
2021-12-10 14:02:20.440532,-166
2021-12-10 14:02:20.440540,-144
2021-12-10 14:02:20.440549,-100
2021-12-10 14:02:20.440557,-156
2021-12-10 14:02:20.440566,-163
2021-12-10 14:02:20.440574,-112
2021-12-10 14:02:20.710318,-141
2021-12-10 14:02:20.710336,-168
2021-12-10 14:02:20.710345,-112
2021-12-10 14:02:20.710354,-24
2021-12-10 14:02:20.710363,154
2021-12-10 14:02:20.710371,489
2021-12-10 14:02:20.710380,467
2021-12-10 14:02:20.710388,-288
2021-12-10 14:02:20.710397,-1024
2021-12-10 14:02:20.710405,-975
2021-12-10 14:02:20.710414,-518
2021-12-10 14:02:20.710422,-315
2021-12-10 14:02:20.710431,-232
2021-12-10 14:02:20.710439,-78
2021-12-10 14:02:20.710447,-73
2021-12-10 14:02:20.710456,-90
2021-12-10 14:02:20.710464,-2
2021-12-10 14:02:20.710472,-24
2021-12-10 14:02:20.710481,-51
2021-12-10 14:02:20.710489,19
2021-12-10 14:02:20.710498,4
2021-12-10 14:02:20.710506,-36
2021-12-10 14:02:20.710514,36
2021-12-10 14:02:20.710523,107
2021-12-10 14:02:20.710531,53
2021-12-10 14:02:20.710540,29
2021-12-10 14:02:20.710548,119
2021-12-10 14:02:20.710556,156
2021-12-10 14:02:20.710565,136
2021-12-10 14:02:20.710573,171
2021-12-10 14:02:20.935358,244
2021-12-10 14:02:20.935376,308
2021-12-10 14:02:20.935386,286
2021-12-10 14:02:20.935395,266
2021-12-10 14:02:20.935404,310
2021-12-10 14:02:20.935412,234
2021-12-10 14:02:20.935421,124
2021-12-10 14:02:20.935429,119
2021-12-10 14:02:20.935438,34
2021-12-10 14:02:20.935446,-124
2021-12-10 14:02:20.935455,-188
2021-12-10 14:02:20.935463,-229
2021-12-10 14:02:20.935472,-322
2021-12-10 14:02:20.935480,-332
2021-12-10 14:02:20.935488,-313
2021-12-10 14:02:20.935497,-361
2021-12-10 14:02:20.935505,-339
2021-12-10 14:02:20.935514,-317
2021-12-10 14:02:20.935522,-388
2021-12-10 14:02:20.935531,-330
2021-12-10 14:02:20.935540,-256
2021-12-10 14:02:20.935548,-361
2021-12-10 14:02:20.935557,-388
2021-12-10 14:02:20.935565,-295
2021-12-10 14:02:20.935574,-291
2021-12-10 14:02:20.935582,-300
2021-12-10 14:02:20.935591,-273
2021-12-10 14:02:20.935599,-266
2021-12-10 14:02:20.935608,-286
2021-12-10 14:02:20.935616,-291
2021-12-10 14:02:21.205408,-283
2021-12-10 14:02:21.205427,-300
2021-12-10 14:02:21.205437,-303
2021-12-10 14:02:21.205446,-295
2021-12-10 14:02:21.205455,-286
2021-12-10 14:02:21.205463,-278
2021-12-10 14:02:21.205472,-313
2021-12-10 14:02:21.205480,-342
2021-12-10 14:02:21.205489,-325
2021-12-10 14:02:21.205497,-278
2021-12-10 14:02:21.205506,-298
2021-12-10 14:02:21.205514,-344
2021-12-10 14:02:21.205523,-330
2021-12-10 14:02:21.205531,-342
2021-12-10 14:02:21.205539,-354
2021-12-10 14:02:21.205548,-332
2021-12-10 14:02:21.205557,-342
2021-12-10 14:02:21.205565,-342
2021-12-10 14:02:21.205573,-320
2021-12-10 14:02:21.205582,-320
2021-12-10 14:02:21.205590,-364
2021-12-10 14:02:21.205598,-386
2021-12-10 14:02:21.205610,-332
2021-12-10 14:02:21.205618,-276
2021-12-10 14:02:21.205627,-317
2021-12-10 14:02:21.205635,-361
2021-12-10 14:02:21.205644,-295
2021-12-10 14:02:21.205652,-278
2021-12-10 14:02:21.205661,-332
2021-12-10 14:02:21.205669,-320
2021-12-10 14:02:21.385344,-317
2021-12-10 14:02:21.385363,-339
2021-12-10 14:02:21.385372,-337
2021-12-10 14:02:21.385381,-330
2021-12-10 14:02:21.385390,-315
2021-12-10 14:02:21.385399,-339
2021-12-10 14:02:21.385407,-347
2021-12-10 14:02:21.385416,-300
2021-12-10 14:02:21.385424,-254
2021-12-10 14:02:21.385433,-195
2021-12-10 14:02:21.385442,-110
2021-12-10 14:02:21.385450,29
2021-12-10 14:02:21.385459,63
2021-12-10 14:02:21.385468,-393
2021-12-10 14:02:21.385476,-1115
2021-12-10 14:02:21.385485,-1259
2021-12-10 14:02:21.385493,-789
2021-12-10 14:02:21.385501,-442
2021-12-10 14:02:21.385510,-342
2021-12-10 14:02:21.385519,-251
2021-12-10 14:02:21.385527,-158
2021-12-10 14:02:21.385535,-92
2021-12-10 14:02:21.385544,-102
2021-12-10 14:02:21.385552,-114
2021-12-10 14:02:21.385561,-85
2021-12-10 14:02:21.385570,-61
2021-12-10 14:02:21.385578,-58
2021-12-10 14:02:21.385586,-63
2021-12-10 14:02:21.385595,-9
2021-12-10 14:02:21.385603,2
2021-12-10 14:02:21.655474,-46
2021-12-10 14:02:21.655495,14
2021-12-10 14:02:21.655505,90
2021-12-10 14:02:21.655514,83
2021-12-10 14:02:21.655523,95
2021-12-10 14:02:21.655531,154
2021-12-10 14:02:21.655540,222
2021-12-10 14:02:21.655549,249
2021-12-10 14:02:21.655557,207
2021-12-10 14:02:21.655565,229
2021-12-10 14:02:21.655574,273
2021-12-10 14:02:21.655582,202
2021-12-10 14:02:21.655590,154
2021-12-10 14:02:21.655599,134
2021-12-10 14:02:21.655607,7
2021-12-10 14:02:21.655615,-134
2021-12-10 14:02:21.655624,-183
2021-12-10 14:02:21.655632,-234
2021-12-10 14:02:21.655640,-286
2021-12-10 14:02:21.655649,-278
2021-12-10 14:02:21.655657,-317
2021-12-10 14:02:21.655666,-364
2021-12-10 14:02:21.655674,-332
2021-12-10 14:02:21.655682,-325
2021-12-10 14:02:21.655690,-320
2021-12-10 14:02:21.655699,-288
2021-12-10 14:02:21.655707,-315
2021-12-10 14:02:21.655716,-308
2021-12-10 14:02:21.655724,-239
2021-12-10 14:02:21.655732,-237
2021-12-10 14:02:21.835438,-269
2021-12-10 14:02:21.835459,-249
2021-12-10 14:02:21.835469,-215
2021-12-10 14:02:21.835478,-185
2021-12-10 14:02:21.835486,-178
2021-12-10 14:02:21.835495,-202
2021-12-10 14:02:21.835504,-210
2021-12-10 14:02:21.835513,-171
2021-12-10 14:02:21.835521,-151
2021-12-10 14:02:21.835530,-185
2021-12-10 14:02:21.835538,-193
2021-12-10 14:02:21.835547,-173
2021-12-10 14:02:21.835555,-188
2021-12-10 14:02:21.835564,-185
2021-12-10 14:02:21.835572,-168
2021-12-10 14:02:21.835581,-180
2021-12-10 14:02:21.835590,-188
2021-12-10 14:02:21.835598,-188
2021-12-10 14:02:21.835607,-200
2021-12-10 14:02:21.835615,-205
2021-12-10 14:02:21.835628,-188
2021-12-10 14:02:21.835637,-163
2021-12-10 14:02:21.835644,-161
2021-12-10 14:02:21.835653,-198
2021-12-10 14:02:21.835661,-190
2021-12-10 14:02:21.835670,-132
2021-12-10 14:02:21.835679,-161
2021-12-10 14:02:21.835687,-195
2021-12-10 14:02:21.835695,-139
2021-12-10 14:02:21.835704,-132
2021-12-10 14:02:22.105519,-171
2021-12-10 14:02:22.105540,-151
2021-12-10 14:02:22.105550,-122
2021-12-10 14:02:22.105559,-124
2021-12-10 14:02:22.105567,-146
2021-12-10 14:02:22.105579,-134
2021-12-10 14:02:22.105588,-90
2021-12-10 14:02:22.105597,-92
2021-12-10 14:02:22.105606,-105
2021-12-10 14:02:22.105614,-97
2021-12-10 14:02:22.105623,-127
2021-12-10 14:02:22.105631,-158
2021-12-10 14:02:22.105640,-141
2021-12-10 14:02:22.105648,-124
2021-12-10 14:02:22.105657,-144
2021-12-10 14:02:22.105665,-151
2021-12-10 14:02:22.105674,-124
2021-12-10 14:02:22.105682,-132
2021-12-10 14:02:22.105691,-149
2021-12-10 14:02:22.105699,-41
2021-12-10 14:02:22.105707,80
2021-12-10 14:02:22.105716,207
2021-12-10 14:02:22.105724,511
2021-12-10 14:02:22.105733,423
2021-12-10 14:02:22.105741,-381
2021-12-10 14:02:22.105750,-992
2021-12-10 14:02:22.105758,-816
2021-12-10 14:02:22.105767,-393
2021-12-10 14:02:22.105775,-210
2021-12-10 14:02:22.105784,-114
2021-12-10 14:02:22.329113,-26
2021-12-10 14:02:22.329131,-4
2021-12-10 14:02:22.329141,31
2021-12-10 14:02:22.329150,68
2021-12-10 14:02:22.329159,53
2021-12-10 14:02:22.329167,46
2021-12-10 14:02:22.329176,78
2021-12-10 14:02:22.329185,95
2021-12-10 14:02:22.329193,114
2021-12-10 14:02:22.329202,132
2021-12-10 14:02:22.329210,114
2021-12-10 14:02:22.329219,119
2021-12-10 14:02:22.329227,173
2021-12-10 14:02:22.329236,210
2021-12-10 14:02:22.329244,215
2021-12-10 14:02:22.329253,251
2021-12-10 14:02:22.329261,308
2021-12-10 14:02:22.329269,332
2021-12-10 14:02:22.329278,342
2021-12-10 14:02:22.329286,376
2021-12-10 14:02:22.329295,415
2021-12-10 14:02:22.329303,396
2021-12-10 14:02:22.329312,337
2021-12-10 14:02:22.329320,271
2021-12-10 14:02:22.329329,180
2021-12-10 14:02:22.329337,85
2021-12-10 14:02:22.329346,-4
2021-12-10 14:02:22.329355,-66
2021-12-10 14:02:22.329363,-114
2021-12-10 14:02:22.329372,-163
2021-12-10 14:02:22.510480,-195
2021-12-10 14:02:22.510502,-215
2021-12-10 14:02:22.510511,-171
2021-12-10 14:02:22.510520,-151
2021-12-10 14:02:22.510529,-215
2021-12-10 14:02:22.510537,-217
2021-12-10 14:02:22.510546,-156
2021-12-10 14:02:22.510554,-127
2021-12-10 14:02:22.510563,-151
2021-12-10 14:02:22.510571,-149
2021-12-10 14:02:22.510580,-92
2021-12-10 14:02:22.510588,-97
2021-12-10 14:02:22.510596,-136
2021-12-10 14:02:22.510605,-105
2021-12-10 14:02:22.510613,-53
2021-12-10 14:02:22.510622,-68
2021-12-10 14:02:22.510630,-114
2021-12-10 14:02:22.510639,-95
2021-12-10 14:02:22.510647,-66
2021-12-10 14:02:22.510655,-78
2021-12-10 14:02:22.510664,-56
2021-12-10 14:02:22.510673,-63
2021-12-10 14:02:22.510681,-132
2021-12-10 14:02:22.510689,-132
2021-12-10 14:02:22.510698,-92
2021-12-10 14:02:22.510706,-110
2021-12-10 14:02:22.510715,-168
2021-12-10 14:02:22.510723,-141
2021-12-10 14:02:22.510731,-46
2021-12-10 14:02:22.510740,-83
2021-12-10 14:02:22.824827,-178
2021-12-10 14:02:22.824847,-146
2021-12-10 14:02:22.824857,-117
2021-12-10 14:02:22.824866,-158
2021-12-10 14:02:22.824875,-176
2021-12-10 14:02:22.824883,-112
2021-12-10 14:02:22.824892,-88
2021-12-10 14:02:22.824900,-149
2021-12-10 14:02:22.824909,-141
2021-12-10 14:02:22.824918,-100
2021-12-10 14:02:22.824926,-127
2021-12-10 14:02:22.824935,-141
2021-12-10 14:02:22.824943,-136
2021-12-10 14:02:22.824952,-136
2021-12-10 14:02:22.824961,-92
2021-12-10 14:02:22.824969,-70
2021-12-10 14:02:22.824978,-110
2021-12-10 14:02:22.824986,-92
2021-12-10 14:02:22.824995,-85
2021-12-10 14:02:22.825003,-112
2021-12-10 14:02:22.825012,-73
2021-12-10 14:02:22.825021,-73
2021-12-10 14:02:22.825029,-144
2021-12-10 14:02:22.825038,-144
2021-12-10 14:02:22.825046,-129
2021-12-10 14:02:22.825055,-132
2021-12-10 14:02:22.825063,-95
2021-12-10 14:02:22.825072,-112
2021-12-10 14:02:22.825080,-122
2021-12-10 14:02:22.825089,-29
2021-12-10 14:02:23.049911,83
2021-12-10 14:02:23.049937,293
2021-12-10 14:02:23.049948,613
2021-12-10 14:02:23.049957,513
2021-12-10 14:02:23.049966,-293
2021-12-10 14:02:23.049975,-1012
2021-12-10 14:02:23.049983,-829
2021-12-10 14:02:23.049992,-295
2021-12-10 14:02:23.050000,-185
2021-12-10 14:02:23.050009,-188
2021-12-10 14:02:23.050018,-51
2021-12-10 14:02:23.050026,22
2021-12-10 14:02:23.050035,39
2021-12-10 14:02:23.050044,31
2021-12-10 14:02:23.050052,14
2021-12-10 14:02:23.050061,36
2021-12-10 14:02:23.050070,75
2021-12-10 14:02:23.050078,88
2021-12-10 14:02:23.050087,73
2021-12-10 14:02:23.050095,90
2021-12-10 14:02:23.050104,122
2021-12-10 14:02:23.050113,134
2021-12-10 14:02:23.050121,185
2021-12-10 14:02:23.050130,195
2021-12-10 14:02:23.050138,185
2021-12-10 14:02:23.050147,269
2021-12-10 14:02:23.050156,320
2021-12-10 14:02:23.050164,313
2021-12-10 14:02:23.050173,388
2021-12-10 14:02:23.050181,469
2021-12-10 14:02:23.230364,420
2021-12-10 14:02:23.230383,335
2021-12-10 14:02:23.230392,325
2021-12-10 14:02:23.230401,330
2021-12-10 14:02:23.230410,242
2021-12-10 14:02:23.230419,110
2021-12-10 14:02:23.230427,24
2021-12-10 14:02:23.230436,-26
2021-12-10 14:02:23.230444,-44
2021-12-10 14:02:23.230453,-70
2021-12-10 14:02:23.230461,-124
2021-12-10 14:02:23.230470,-117
2021-12-10 14:02:23.230478,-110
2021-12-10 14:02:23.230487,-151
2021-12-10 14:02:23.230496,-112
2021-12-10 14:02:23.230504,-56
2021-12-10 14:02:23.230512,-90
2021-12-10 14:02:23.230521,-66
2021-12-10 14:02:23.230529,-34
2021-12-10 14:02:23.230538,-63
2021-12-10 14:02:23.230546,-4
2021-12-10 14:02:23.230554,73
2021-12-10 14:02:23.230563,36
2021-12-10 14:02:23.230571,17
2021-12-10 14:02:23.230580,95
2021-12-10 14:02:23.230588,90
2021-12-10 14:02:23.230596,-12
2021-12-10 14:02:23.230605,61
2021-12-10 14:02:23.230613,207
2021-12-10 14:02:23.230621,132
2021-12-10 14:02:23.455349,78
2021-12-10 14:02:23.455367,122
2021-12-10 14:02:23.455377,53
2021-12-10 14:02:23.455385,61
2021-12-10 14:02:23.455394,198
2021-12-10 14:02:23.455402,185
2021-12-10 14:02:23.455411,75
2021-12-10 14:02:23.455419,53
2021-12-10 14:02:23.455428,100
2021-12-10 14:02:23.455436,119
2021-12-10 14:02:23.455445,66
2021-12-10 14:02:23.455453,56
2021-12-10 14:02:23.455462,114
2021-12-10 14:02:23.455470,105
2021-12-10 14:02:23.455479,90
2021-12-10 14:02:23.455487,85
2021-12-10 14:02:23.455495,53
2021-12-10 14:02:23.455504,127
2021-12-10 14:02:23.455512,158
2021-12-10 14:02:23.455520,46
2021-12-10 14:02:23.455529,44
2021-12-10 14:02:23.455537,166
2021-12-10 14:02:23.455546,176
2021-12-10 14:02:23.455554,63
2021-12-10 14:02:23.455563,85
2021-12-10 14:02:23.455571,161
2021-12-10 14:02:23.455579,80
2021-12-10 14:02:23.455588,19
2021-12-10 14:02:23.455596,95
2021-12-10 14:02:23.455604,127
2021-12-10 14:02:23.725367,83
2021-12-10 14:02:23.725384,95
2021-12-10 14:02:23.725394,114
2021-12-10 14:02:23.725403,122
2021-12-10 14:02:23.725412,254
2021-12-10 14:02:23.725420,427
2021-12-10 14:02:23.725429,579
2021-12-10 14:02:23.725437,577
2021-12-10 14:02:23.725446,-9
2021-12-10 14:02:23.725455,-794
2021-12-10 14:02:23.725463,-770
2021-12-10 14:02:23.725472,-198
2021-12-10 14:02:23.725480,36
2021-12-10 14:02:23.725489,117
2021-12-10 14:02:23.725498,298
2021-12-10 14:02:23.725506,332
2021-12-10 14:02:23.725514,256
2021-12-10 14:02:23.725523,242
2021-12-10 14:02:23.725531,308
2021-12-10 14:02:23.725540,369
2021-12-10 14:02:23.725548,320
2021-12-10 14:02:23.725556,317
2021-12-10 14:02:23.725565,469
2021-12-10 14:02:23.725573,481
2021-12-10 14:02:23.725581,386
2021-12-10 14:02:23.725590,425
2021-12-10 14:02:23.725598,452
2021-12-10 14:02:23.725606,413
2021-12-10 14:02:23.725615,464
2021-12-10 14:02:23.725623,518
2021-12-10 14:02:23.905521,511
2021-12-10 14:02:23.905542,572
2021-12-10 14:02:23.905551,628
2021-12-10 14:02:23.905560,623
2021-12-10 14:02:23.905569,640
2021-12-10 14:02:23.905577,640
2021-12-10 14:02:23.905585,589
2021-12-10 14:02:23.905594,493
2021-12-10 14:02:23.905602,432
2021-12-10 14:02:23.905610,413
2021-12-10 14:02:23.905618,305
2021-12-10 14:02:23.905630,210
2021-12-10 14:02:23.905638,161
2021-12-10 14:02:23.905646,53
2021-12-10 14:02:23.905654,68
2021-12-10 14:02:23.905663,151
2021-12-10 14:02:23.905671,66
2021-12-10 14:02:23.905680,0
2021-12-10 14:02:23.905688,80
2021-12-10 14:02:23.905697,122
2021-12-10 14:02:23.905705,112
2021-12-10 14:02:23.905713,166
2021-12-10 14:02:23.905722,227
2021-12-10 14:02:23.905730,154
2021-12-10 14:02:23.905738,29
2021-12-10 14:02:23.905746,88
2021-12-10 14:02:23.905754,293
2021-12-10 14:02:23.905763,303
2021-12-10 14:02:23.905772,163
2021-12-10 14:02:23.905779,242
2021-12-10 14:02:24.219939,313
2021-12-10 14:02:24.219960,154
2021-12-10 14:02:24.219970,210
2021-12-10 14:02:24.219979,432
2021-12-10 14:02:24.219988,276
2021-12-10 14:02:24.219996,129
2021-12-10 14:02:24.220005,300
2021-12-10 14:02:24.220013,298
2021-12-10 14:02:24.220021,249
2021-12-10 14:02:24.220030,349
2021-12-10 14:02:24.220038,339
2021-12-10 14:02:24.220047,295
2021-12-10 14:02:24.220055,286
2021-12-10 14:02:24.220063,283
2021-12-10 14:02:24.220072,291
2021-12-10 14:02:24.220080,303
2021-12-10 14:02:24.220089,371
2021-12-10 14:02:24.220097,396
2021-12-10 14:02:24.220105,347
2021-12-10 14:02:24.220114,381
2021-12-10 14:02:24.220122,391
2021-12-10 14:02:24.220131,332
2021-12-10 14:02:24.220139,393
2021-12-10 14:02:24.220147,449
2021-12-10 14:02:24.220156,408
2021-12-10 14:02:24.220164,420
2021-12-10 14:02:24.220173,418
2021-12-10 14:02:24.220181,391
2021-12-10 14:02:24.220190,437
2021-12-10 14:02:24.220198,447
2021-12-10 14:02:24.444178,437
2021-12-10 14:02:24.444200,508
2021-12-10 14:02:24.444210,594
2021-12-10 14:02:24.444219,829
2021-12-10 14:02:24.444227,963
2021-12-10 14:02:24.444236,310
2021-12-10 14:02:24.444245,-582
2021-12-10 14:02:24.444253,-613
2021-12-10 14:02:24.444262,-53
2021-12-10 14:02:24.444270,176
2021-12-10 14:02:24.444279,166
2021-12-10 14:02:24.444288,332
2021-12-10 14:02:24.444296,410
2021-12-10 14:02:24.444305,342
2021-12-10 14:02:24.444313,379
2021-12-10 14:02:24.444322,396
2021-12-10 14:02:24.444330,359
2021-12-10 14:02:24.444338,396
2021-12-10 14:02:24.444347,418
2021-12-10 14:02:24.444356,379
2021-12-10 14:02:24.444364,335
2021-12-10 14:02:24.444373,352
2021-12-10 14:02:24.444381,413
2021-12-10 14:02:24.444390,403
2021-12-10 14:02:24.444398,371
2021-12-10 14:02:24.444407,405
2021-12-10 14:02:24.444415,425
2021-12-10 14:02:24.444423,418
2021-12-10 14:02:24.444432,430
2021-12-10 14:02:24.444441,413
2021-12-10 14:02:24.580565,369
2021-12-10 14:02:24.580588,352
2021-12-10 14:02:24.580598,335
2021-12-10 14:02:24.580607,251
2021-12-10 14:02:24.580616,134
2021-12-10 14:02:24.580625,66
2021-12-10 14:02:24.580633,-46
2021-12-10 14:02:24.580642,-234
2021-12-10 14:02:24.580651,-357
2021-12-10 14:02:24.580659,-432
2021-12-10 14:02:24.580668,-530
2021-12-10 14:02:24.580677,-601
2021-12-10 14:02:24.580685,-652
2021-12-10 14:02:24.580693,-648
2021-12-10 14:02:24.580702,-604
2021-12-10 14:02:24.580710,-650
2021-12-10 14:02:24.580719,-711
2021-12-10 14:02:24.580727,-694
2021-12-10 14:02:24.580736,-689
2021-12-10 14:02:24.580744,-706
2021-12-10 14:02:24.580753,-704
2021-12-10 14:02:24.580761,-699
2021-12-10 14:02:24.580769,-711
2021-12-10 14:02:24.580778,-714
2021-12-10 14:02:24.580786,-687
2021-12-10 14:02:24.580795,-674
2021-12-10 14:02:24.580803,-687
2021-12-10 14:02:24.580812,-694
2021-12-10 14:02:24.580820,-674
2021-12-10 14:02:24.580829,-643
2021-12-10 14:02:24.895034,-672
2021-12-10 14:02:24.895057,-692
2021-12-10 14:02:24.895067,-679
2021-12-10 14:02:24.895077,-699
2021-12-10 14:02:24.895086,-718
2021-12-10 14:02:24.895094,-711
2021-12-10 14:02:24.895103,-718
2021-12-10 14:02:24.895112,-714
2021-12-10 14:02:24.895121,-684
2021-12-10 14:02:24.895129,-696
2021-12-10 14:02:24.895138,-716
2021-12-10 14:02:24.895146,-684
2021-12-10 14:02:24.895155,-657
2021-12-10 14:02:24.895163,-660
2021-12-10 14:02:24.895172,-657
2021-12-10 14:02:24.895180,-643
2021-12-10 14:02:24.895188,-628
2021-12-10 14:02:24.895197,-618
2021-12-10 14:02:24.895205,-584
2021-12-10 14:02:24.895213,-545
2021-12-10 14:02:24.895222,-538
2021-12-10 14:02:24.895230,-520
2021-12-10 14:02:24.895239,-506
2021-12-10 14:02:24.895247,-538
2021-12-10 14:02:24.895256,-555
2021-12-10 14:02:24.895270,-518
2021-12-10 14:02:24.895278,-498
2021-12-10 14:02:24.895286,-506
2021-12-10 14:02:24.895295,-496
2021-12-10 14:02:24.895303,-474
2021-12-10 14:02:25.074803,-474
2021-12-10 14:02:25.074823,-462
2021-12-10 14:02:25.074832,-388
2021-12-10 14:02:25.074841,-271
2021-12-10 14:02:25.074850,-31
2021-12-10 14:02:25.074859,317
2021-12-10 14:02:25.074868,163
2021-12-10 14:02:25.074876,-665
2021-12-10 14:02:25.074888,-1198
2021-12-10 14:02:25.074896,-931
2021-12-10 14:02:25.074905,-550
2021-12-10 14:02:25.074914,-469
2021-12-10 14:02:25.074922,-386
2021-12-10 14:02:25.074931,-266
2021-12-10 14:02:25.074939,-266
2021-12-10 14:02:25.074948,-266
2021-12-10 14:02:25.074956,-212
2021-12-10 14:02:25.074965,-193
2021-12-10 14:02:25.074974,-188
2021-12-10 14:02:25.074982,-168
2021-12-10 14:02:25.074991,-154
2021-12-10 14:02:25.074999,-146
2021-12-10 14:02:25.075008,-127
2021-12-10 14:02:25.075016,-105
2021-12-10 14:02:25.075025,-83
2021-12-10 14:02:25.075033,-61
2021-12-10 14:02:25.075042,-29
2021-12-10 14:02:25.075050,7
2021-12-10 14:02:25.075059,46
2021-12-10 14:02:25.075067,88
2021-12-10 14:02:25.345417,122
2021-12-10 14:02:25.345436,141
2021-12-10 14:02:25.345446,151
2021-12-10 14:02:25.345455,146
2021-12-10 14:02:25.345464,132
2021-12-10 14:02:25.345472,97
2021-12-10 14:02:25.345481,36
2021-12-10 14:02:25.345490,-53
2021-12-10 14:02:25.345498,-156
2021-12-10 14:02:25.345507,-234
2021-12-10 14:02:25.345515,-293
2021-12-10 14:02:25.345524,-339
2021-12-10 14:02:25.345533,-379
2021-12-10 14:02:25.345541,-403
2021-12-10 14:02:25.345550,-408
2021-12-10 14:02:25.345558,-410
2021-12-10 14:02:25.345567,-408
2021-12-10 14:02:25.345575,-396
2021-12-10 14:02:25.345584,-391
2021-12-10 14:02:25.345592,-386
2021-12-10 14:02:25.345601,-374
2021-12-10 14:02:25.345610,-366
2021-12-10 14:02:25.345618,-357
2021-12-10 14:02:25.345627,-344
2021-12-10 14:02:25.345635,-330
2021-12-10 14:02:25.345644,-313
2021-12-10 14:02:25.345652,-305
2021-12-10 14:02:25.345660,-310
2021-12-10 14:02:25.345669,-305
2021-12-10 14:02:25.345677,-298
2021-12-10 14:02:25.525506,-291
2021-12-10 14:02:25.525527,-291
2021-12-10 14:02:25.525537,-288
2021-12-10 14:02:25.525546,-288
2021-12-10 14:02:25.525554,-288
2021-12-10 14:02:25.525563,-281
2021-12-10 14:02:25.525571,-281
2021-12-10 14:02:25.525580,-288
2021-12-10 14:02:25.525589,-288
2021-12-10 14:02:25.525597,-288
2021-12-10 14:02:25.525606,-283
2021-12-10 14:02:25.525614,-278
2021-12-10 14:02:25.525623,-278
2021-12-10 14:02:25.525631,-276
2021-12-10 14:02:25.525640,-276
2021-12-10 14:02:25.525648,-276
2021-12-10 14:02:25.525657,-269
2021-12-10 14:02:25.525665,-261
2021-12-10 14:02:25.525674,-249
2021-12-10 14:02:25.525682,-232
2021-12-10 14:02:25.525691,-227
2021-12-10 14:02:25.525699,-224
2021-12-10 14:02:25.525708,-234
2021-12-10 14:02:25.525716,-246
2021-12-10 14:02:25.525725,-244
2021-12-10 14:02:25.525733,-237
2021-12-10 14:02:25.525742,-232
2021-12-10 14:02:25.525750,-229
2021-12-10 14:02:25.525758,-227
2021-12-10 14:02:25.525767,-220
2021-12-10 14:02:25.884894,-212
2021-12-10 14:02:25.884916,-178
2021-12-10 14:02:25.884926,-100
2021-12-10 14:02:25.884935,97
2021-12-10 14:02:25.884944,491
2021-12-10 14:02:25.884952,579
2021-12-10 14:02:25.884961,-88
2021-12-10 14:02:25.884970,-846
2021-12-10 14:02:25.884978,-887
2021-12-10 14:02:25.884987,-489
2021-12-10 14:02:25.885025,-293
2021-12-10 14:02:25.885034,-237
2021-12-10 14:02:25.885042,-112
2021-12-10 14:02:25.885051,-80
2021-12-10 14:02:25.885059,-105
2021-12-10 14:02:25.885068,-66
2021-12-10 14:02:25.885077,-26
2021-12-10 14:02:25.885085,-24
2021-12-10 14:02:25.885094,-12
2021-12-10 14:02:25.885103,17
2021-12-10 14:02:25.885111,41
2021-12-10 14:02:25.885119,39
2021-12-10 14:02:25.885128,29
2021-12-10 14:02:25.885136,56
2021-12-10 14:02:25.885145,100
2021-12-10 14:02:25.885153,129
2021-12-10 14:02:25.885162,149
2021-12-10 14:02:25.885170,195
2021-12-10 14:02:25.885179,244
2021-12-10 14:02:25.885187,281
2021-12-10 14:02:25.975419,313
2021-12-10 14:02:25.975438,327
2021-12-10 14:02:25.975448,320
2021-12-10 14:02:25.975456,305
2021-12-10 14:02:25.975465,266
2021-12-10 14:02:25.975474,217
2021-12-10 14:02:25.975482,141
2021-12-10 14:02:25.975491,34
2021-12-10 14:02:25.975499,-56
2021-12-10 14:02:25.975508,-117
2021-12-10 14:02:25.975516,-163
2021-12-10 14:02:25.975524,-205
2021-12-10 14:02:25.975533,-229
2021-12-10 14:02:25.975541,-229
2021-12-10 14:02:25.975550,-227
2021-12-10 14:02:25.975558,-224
2021-12-10 14:02:25.975566,-217
2021-12-10 14:02:25.975575,-210
2021-12-10 14:02:25.975583,-200
2021-12-10 14:02:25.975591,-198
2021-12-10 14:02:25.975599,-188
2021-12-10 14:02:25.975608,-171
2021-12-10 14:02:25.975616,-168
2021-12-10 14:02:25.975625,-163
2021-12-10 14:02:25.975633,-154
2021-12-10 14:02:25.975641,-158
2021-12-10 14:02:25.975650,-154
2021-12-10 14:02:25.975658,-139
2021-12-10 14:02:25.975667,-132
2021-12-10 14:02:25.975675,-132
2021-12-10 14:02:26.244991,-136
2021-12-10 14:02:26.245013,-136
2021-12-10 14:02:26.245022,-132
2021-12-10 14:02:26.245031,-136
2021-12-10 14:02:26.245040,-139
2021-12-10 14:02:26.245048,-141
2021-12-10 14:02:26.245057,-144
2021-12-10 14:02:26.245065,-139
2021-12-10 14:02:26.245073,-139
2021-12-10 14:02:26.245082,-141
2021-12-10 14:02:26.245090,-139
2021-12-10 14:02:26.245099,-136
2021-12-10 14:02:26.245107,-134
2021-12-10 14:02:26.245116,-134
2021-12-10 14:02:26.245124,-127
2021-12-10 14:02:26.245132,-117
2021-12-10 14:02:26.245141,-112
2021-12-10 14:02:26.245149,-107
2021-12-10 14:02:26.245157,-114
2021-12-10 14:02:26.245166,-139
2021-12-10 14:02:26.245174,-149
2021-12-10 14:02:26.245182,-154
2021-12-10 14:02:26.245190,-154
2021-12-10 14:02:26.245202,-144
2021-12-10 14:02:26.245210,-139
2021-12-10 14:02:26.245219,-139
2021-12-10 14:02:26.245227,-139
2021-12-10 14:02:26.245235,-107
2021-12-10 14:02:26.245244,-46
2021-12-10 14:02:26.245252,46
2021-12-10 14:02:26.469160,269
2021-12-10 14:02:26.469183,354
2021-12-10 14:02:26.469193,-168
2021-12-10 14:02:26.469203,-880
2021-12-10 14:02:26.469211,-919
2021-12-10 14:02:26.469220,-442
2021-12-10 14:02:26.469228,-215
2021-12-10 14:02:26.469237,-200
2021-12-10 14:02:26.469245,-92
2021-12-10 14:02:26.469254,-41
2021-12-10 14:02:26.469262,-51
2021-12-10 14:02:26.469270,-17
2021-12-10 14:02:26.469279,0
2021-12-10 14:02:26.469288,4
2021-12-10 14:02:26.469296,17
2021-12-10 14:02:26.469305,24
2021-12-10 14:02:26.469313,39
2021-12-10 14:02:26.469322,41
2021-12-10 14:02:26.469330,51
2021-12-10 14:02:26.469339,75
2021-12-10 14:02:26.469347,92
2021-12-10 14:02:26.469356,124
2021-12-10 14:02:26.469364,166
2021-12-10 14:02:26.469373,198
2021-12-10 14:02:26.469381,220
2021-12-10 14:02:26.469390,254
2021-12-10 14:02:26.469398,291
2021-12-10 14:02:26.469407,291
2021-12-10 14:02:26.469415,286
2021-12-10 14:02:26.469424,295
2021-12-10 14:02:26.650575,269
2021-12-10 14:02:26.650597,212
2021-12-10 14:02:26.650607,127
2021-12-10 14:02:26.650616,39
2021-12-10 14:02:26.650624,-19
2021-12-10 14:02:26.650633,-78
2021-12-10 14:02:26.650642,-129
2021-12-10 14:02:26.650650,-149
2021-12-10 14:02:26.650658,-154
2021-12-10 14:02:26.650667,-161
2021-12-10 14:02:26.650675,-163
2021-12-10 14:02:26.650684,-151
2021-12-10 14:02:26.650693,-134
2021-12-10 14:02:26.650701,-139
2021-12-10 14:02:26.650710,-134
2021-12-10 14:02:26.650718,-119
2021-12-10 14:02:26.650727,-129
2021-12-10 14:02:26.650735,-119
2021-12-10 14:02:26.650744,-83
2021-12-10 14:02:26.650752,-66
2021-12-10 14:02:26.650761,-78
2021-12-10 14:02:26.650769,-90
2021-12-10 14:02:26.650778,-63
2021-12-10 14:02:26.650786,-70
2021-12-10 14:02:26.650795,-90
2021-12-10 14:02:26.650803,-61
2021-12-10 14:02:26.650811,-53
2021-12-10 14:02:26.650820,-80
2021-12-10 14:02:26.650828,-75
2021-12-10 14:02:26.650837,-63
2021-12-10 14:02:26.964907,-68
2021-12-10 14:02:26.964927,-78
2021-12-10 14:02:26.964937,-83
2021-12-10 14:02:26.964946,-73
2021-12-10 14:02:26.964955,-68
2021-12-10 14:02:26.964964,-80
2021-12-10 14:02:26.964972,-73
2021-12-10 14:02:26.964981,-63
2021-12-10 14:02:26.964989,-66
2021-12-10 14:02:26.964998,-68
2021-12-10 14:02:26.965007,-70
2021-12-10 14:02:26.965015,-78
2021-12-10 14:02:26.965024,-88
2021-12-10 14:02:26.965032,-83
2021-12-10 14:02:26.965041,-80
2021-12-10 14:02:26.965050,-97
2021-12-10 14:02:26.965058,-110
2021-12-10 14:02:26.965067,-105
2021-12-10 14:02:26.965075,-95
2021-12-10 14:02:26.965084,-92
2021-12-10 14:02:26.965092,-78
2021-12-10 14:02:26.965101,-36
2021-12-10 14:02:26.965110,53
2021-12-10 14:02:26.965118,298
2021-12-10 14:02:26.965127,491
2021-12-10 14:02:26.965135,114
2021-12-10 14:02:26.965144,-623
2021-12-10 14:02:26.965153,-848
2021-12-10 14:02:26.965161,-469
2021-12-10 14:02:26.965170,-207
2021-12-10 14:02:27.234941,-185
2021-12-10 14:02:27.234963,-80
2021-12-10 14:02:27.234973,12
2021-12-10 14:02:27.234982,2
2021-12-10 14:02:27.234990,9
2021-12-10 14:02:27.234999,22
2021-12-10 14:02:27.235008,22
2021-12-10 14:02:27.235016,36
2021-12-10 14:02:27.235025,41
2021-12-10 14:02:27.235034,41
2021-12-10 14:02:27.235042,61
2021-12-10 14:02:27.235051,80
2021-12-10 14:02:27.235059,100
2021-12-10 14:02:27.235068,124
2021-12-10 14:02:27.235076,144
2021-12-10 14:02:27.235085,151
2021-12-10 14:02:27.235093,171
2021-12-10 14:02:27.235102,212
2021-12-10 14:02:27.235110,249
2021-12-10 14:02:27.235119,269
2021-12-10 14:02:27.235128,273
2021-12-10 14:02:27.235136,281
2021-12-10 14:02:27.235145,273
2021-12-10 14:02:27.235153,234
2021-12-10 14:02:27.235162,180
2021-12-10 14:02:27.235170,112
2021-12-10 14:02:27.235179,17
2021-12-10 14:02:27.235187,-78
2021-12-10 14:02:27.235196,-134
2021-12-10 14:02:27.235204,-173
2021-12-10 14:02:27.370387,-212
2021-12-10 14:02:27.370405,-234
2021-12-10 14:02:27.370414,-237
2021-12-10 14:02:27.370423,-246
2021-12-10 14:02:27.370432,-261
2021-12-10 14:02:27.370440,-259
2021-12-10 14:02:27.370449,-244
2021-12-10 14:02:27.370457,-234
2021-12-10 14:02:27.370466,-227
2021-12-10 14:02:27.370474,-220
2021-12-10 14:02:27.370483,-202
2021-12-10 14:02:27.370491,-185
2021-12-10 14:02:27.370500,-198
2021-12-10 14:02:27.370508,-205
2021-12-10 14:02:27.370517,-185
2021-12-10 14:02:27.370525,-168
2021-12-10 14:02:27.370534,-158
2021-12-10 14:02:27.370542,-154
2021-12-10 14:02:27.370551,-156
2021-12-10 14:02:27.370559,-158
2021-12-10 14:02:27.370567,-161
2021-12-10 14:02:27.370576,-161
2021-12-10 14:02:27.370584,-168
2021-12-10 14:02:27.370593,-176
2021-12-10 14:02:27.370602,-183
2021-12-10 14:02:27.370610,-193
2021-12-10 14:02:27.370619,-185
2021-12-10 14:02:27.370627,-178
2021-12-10 14:02:27.370635,-180
2021-12-10 14:02:27.370644,-176
2021-12-10 14:02:27.595442,-171
2021-12-10 14:02:27.595460,-190
2021-12-10 14:02:27.595470,-210
2021-12-10 14:02:27.595479,-195
2021-12-10 14:02:27.595487,-171
2021-12-10 14:02:27.595496,-163
2021-12-10 14:02:27.595505,-158
2021-12-10 14:02:27.595513,-158
2021-12-10 14:02:27.595522,-176
2021-12-10 14:02:27.595530,-195
2021-12-10 14:02:27.595539,-193
2021-12-10 14:02:27.595547,-190
2021-12-10 14:02:27.595556,-193
2021-12-10 14:02:27.595564,-193
2021-12-10 14:02:27.595573,-188
2021-12-10 14:02:27.595581,-185
2021-12-10 14:02:27.595590,-193
2021-12-10 14:02:27.595598,-173
2021-12-10 14:02:27.595607,-105
2021-12-10 14:02:27.595615,53
2021-12-10 14:02:27.595624,391
2021-12-10 14:02:27.595632,550
2021-12-10 14:02:27.595641,41
2021-12-10 14:02:27.595649,-696
2021-12-10 14:02:27.595658,-819
2021-12-10 14:02:27.595666,-447
2021-12-10 14:02:27.595674,-264
2021-12-10 14:02:27.595683,-237
2021-12-10 14:02:27.595691,-117
2021-12-10 14:02:27.595703,-58
2021-12-10 14:02:27.865737,-78
2021-12-10 14:02:27.865757,-53
2021-12-10 14:02:27.865767,-26
2021-12-10 14:02:27.865776,-36
2021-12-10 14:02:27.865785,-34
2021-12-10 14:02:27.865793,-12
2021-12-10 14:02:27.865802,4
2021-12-10 14:02:27.865811,9
2021-12-10 14:02:27.865819,24
2021-12-10 14:02:27.865828,41
2021-12-10 14:02:27.865836,56
2021-12-10 14:02:27.865845,80
2021-12-10 14:02:27.865853,112
2021-12-10 14:02:27.865862,139
2021-12-10 14:02:27.865871,163
2021-12-10 14:02:27.865879,207
2021-12-10 14:02:27.865888,246
2021-12-10 14:02:27.865896,249
2021-12-10 14:02:27.865905,242
2021-12-10 14:02:27.865913,234
2021-12-10 14:02:27.865922,205
2021-12-10 14:02:27.865930,154
2021-12-10 14:02:27.865939,75
2021-12-10 14:02:27.865947,-19
2021-12-10 14:02:27.865956,-102
2021-12-10 14:02:27.865964,-163
2021-12-10 14:02:27.865973,-207
2021-12-10 14:02:27.865981,-244
2021-12-10 14:02:27.865990,-269
2021-12-10 14:02:27.865998,-264
2021-12-10 14:02:28.045588,-266
2021-12-10 14:02:28.045609,-266
2021-12-10 14:02:28.045618,-239
2021-12-10 14:02:28.045627,-224
2021-12-10 14:02:28.045636,-244
2021-12-10 14:02:28.045644,-259
2021-12-10 14:02:28.045652,-237
2021-12-10 14:02:28.045661,-222
2021-12-10 14:02:28.045670,-234
2021-12-10 14:02:28.045678,-224
2021-12-10 14:02:28.045686,-200
2021-12-10 14:02:28.045695,-195
2021-12-10 14:02:28.045704,-202
2021-12-10 14:02:28.045712,-171
2021-12-10 14:02:28.045721,-132
2021-12-10 14:02:28.045729,-173
2021-12-10 14:02:28.045738,-210
2021-12-10 14:02:28.045746,-180
2021-12-10 14:02:28.045755,-161
2021-12-10 14:02:28.045764,-183
2021-12-10 14:02:28.045772,-224
2021-12-10 14:02:28.045781,-212
2021-12-10 14:02:28.045789,-141
2021-12-10 14:02:28.045798,-154
2021-12-10 14:02:28.045806,-232
2021-12-10 14:02:28.045815,-237
2021-12-10 14:02:28.045823,-171
2021-12-10 14:02:28.045832,-129
2021-12-10 14:02:28.045840,-124
2021-12-10 14:02:28.045849,-156
2021-12-10 14:02:28.270602,-234
2021-12-10 14:02:28.270625,-222
2021-12-10 14:02:28.270635,-117
2021-12-10 14:02:28.270644,-151
2021-12-10 14:02:28.270653,-246
2021-12-10 14:02:28.270662,-183
2021-12-10 14:02:28.270670,-139
2021-12-10 14:02:28.270679,-222
2021-12-10 14:02:28.270687,-212
2021-12-10 14:02:28.270696,-134
2021-12-10 14:02:28.270704,-134
2021-12-10 14:02:28.270713,-183
2021-12-10 14:02:28.270722,-217
2021-12-10 14:02:28.270730,-158
2021-12-10 14:02:28.270739,-46
2021-12-10 14:02:28.270747,132
2021-12-10 14:02:28.270756,454
2021-12-10 14:02:28.270764,459
2021-12-10 14:02:28.270773,-154
2021-12-10 14:02:28.270781,-740
2021-12-10 14:02:28.270790,-736
2021-12-10 14:02:28.270798,-408
2021-12-10 14:02:28.270807,-234
2021-12-10 14:02:28.270815,-183
2021-12-10 14:02:28.270824,-92
2021-12-10 14:02:28.270832,-58
2021-12-10 14:02:28.270841,-51
2021-12-10 14:02:28.270849,-29
2021-12-10 14:02:28.270857,-44
2021-12-10 14:02:28.270866,-53
2021-12-10 14:02:28.629833,4
2021-12-10 14:02:28.629853,70
2021-12-10 14:02:28.629863,46
2021-12-10 14:02:28.629872,7
2021-12-10 14:02:28.629880,51
2021-12-10 14:02:28.629889,41
2021-12-10 14:02:28.629898,39
2021-12-10 14:02:28.629906,161
2021-12-10 14:02:28.629915,190
2021-12-10 14:02:28.629923,134
2021-12-10 14:02:28.629932,198
2021-12-10 14:02:28.629940,246
2021-12-10 14:02:28.629949,205
2021-12-10 14:02:28.629958,205
2021-12-10 14:02:28.629966,224
2021-12-10 14:02:28.629975,220
2021-12-10 14:02:28.629983,212
2021-12-10 14:02:28.629992,154
2021-12-10 14:02:28.630001,17
2021-12-10 14:02:28.630009,-110
2021-12-10 14:02:28.630018,-168
2021-12-10 14:02:28.630026,-195
2021-12-10 14:02:28.630035,-239
2021-12-10 14:02:28.630044,-276
2021-12-10 14:02:28.630053,-269
2021-12-10 14:02:28.630061,-278
2021-12-10 14:02:28.630070,-337
2021-12-10 14:02:28.630078,-293
2021-12-10 14:02:28.630087,-193
2021-12-10 14:02:28.630095,-249
2021-12-10 14:02:28.765594,-305
2021-12-10 14:02:28.765617,-246
2021-12-10 14:02:28.765626,-227
2021-12-10 14:02:28.765635,-215
2021-12-10 14:02:28.765644,-156
2021-12-10 14:02:28.765653,-168
2021-12-10 14:02:28.765662,-237
2021-12-10 14:02:28.765671,-217
2021-12-10 14:02:28.765679,-136
2021-12-10 14:02:28.765688,-132
2021-12-10 14:02:28.765696,-166
2021-12-10 14:02:28.765705,-205
2021-12-10 14:02:28.765714,-237
2021-12-10 14:02:28.765722,-190
2021-12-10 14:02:28.765731,-190
2021-12-10 14:02:28.765740,-254
2021-12-10 14:02:28.765748,-185
2021-12-10 14:02:28.765757,-144
2021-12-10 14:02:28.765765,-256
2021-12-10 14:02:28.765774,-244
2021-12-10 14:02:28.765782,-171
2021-12-10 14:02:28.765791,-224
2021-12-10 14:02:28.765800,-232
2021-12-10 14:02:28.765808,-178
2021-12-10 14:02:28.765817,-222
2021-12-10 14:02:28.765825,-256
2021-12-10 14:02:28.765834,-173
2021-12-10 14:02:28.765843,-119
2021-12-10 14:02:28.765851,-210
2021-12-10 14:02:28.765860,-266
2021-12-10 14:02:28.945608,-193
2021-12-10 14:02:28.945630,-158
2021-12-10 14:02:28.945640,-188
2021-12-10 14:02:28.945649,-202
2021-12-10 14:02:28.945658,-185
2021-12-10 14:02:28.945666,-195
2021-12-10 14:02:28.945675,-264
2021-12-10 14:02:28.945683,-276
2021-12-10 14:02:28.945691,-154
2021-12-10 14:02:28.945700,-92
2021-12-10 14:02:28.945708,-107
2021-12-10 14:02:28.945717,122
2021-12-10 14:02:28.945725,452
2021-12-10 14:02:28.945734,185
2021-12-10 14:02:28.945742,-567
2021-12-10 14:02:28.945751,-858
2021-12-10 14:02:28.945759,-591
2021-12-10 14:02:28.945768,-344
2021-12-10 14:02:28.945776,-229
2021-12-10 14:02:28.945785,-114
2021-12-10 14:02:28.945793,12
2021-12-10 14:02:28.945802,70
2021-12-10 14:02:28.945810,34
2021-12-10 14:02:28.945818,75
2021-12-10 14:02:28.945827,154
2021-12-10 14:02:28.945835,119
2021-12-10 14:02:28.945844,107
2021-12-10 14:02:28.945852,146
2021-12-10 14:02:28.945860,166
2021-12-10 14:02:28.945869,149
2021-12-10 14:02:29.170621,198
2021-12-10 14:02:29.170644,335
2021-12-10 14:02:29.170654,327
2021-12-10 14:02:29.170662,234
2021-12-10 14:02:29.170671,288
2021-12-10 14:02:29.170680,386
2021-12-10 14:02:29.170688,408
2021-12-10 14:02:29.170697,405
2021-12-10 14:02:29.170705,467
2021-12-10 14:02:29.170714,528
2021-12-10 14:02:29.170722,489
2021-12-10 14:02:29.170731,469
2021-12-10 14:02:29.170739,459
2021-12-10 14:02:29.170748,317
2021-12-10 14:02:29.170756,195
2021-12-10 14:02:29.170765,180
2021-12-10 14:02:29.170773,112
2021-12-10 14:02:29.170782,4
2021-12-10 14:02:29.170790,-12
2021-12-10 14:02:29.170799,-9
2021-12-10 14:02:29.170807,-36
2021-12-10 14:02:29.170816,-46
2021-12-10 14:02:29.170824,-63
2021-12-10 14:02:29.170833,-80
2021-12-10 14:02:29.170841,-107
2021-12-10 14:02:29.170850,-70
2021-12-10 14:02:29.170858,39
2021-12-10 14:02:29.170867,-19
2021-12-10 14:02:29.170878,-117
2021-12-10 14:02:29.170887,-7
2021-12-10 14:02:29.530185,39
2021-12-10 14:02:29.530206,-75
2021-12-10 14:02:29.530216,-88
2021-12-10 14:02:29.530225,12
2021-12-10 14:02:29.530234,36
2021-12-10 14:02:29.530242,-36
2021-12-10 14:02:29.530251,-19
2021-12-10 14:02:29.530260,44
2021-12-10 14:02:29.530268,-36
2021-12-10 14:02:29.530277,-44
2021-12-10 14:02:29.530285,53
2021-12-10 14:02:29.530294,17
2021-12-10 14:02:29.530303,-95
2021-12-10 14:02:29.530311,-88
2021-12-10 14:02:29.530319,-17
2021-12-10 14:02:29.530328,-17
2021-12-10 14:02:29.530337,-58
2021-12-10 14:02:29.530346,-48
2021-12-10 14:02:29.530354,-9
2021-12-10 14:02:29.530363,-41
2021-12-10 14:02:29.530372,-102
2021-12-10 14:02:29.530380,-63
2021-12-10 14:02:29.530389,-31
2021-12-10 14:02:29.530397,-68
2021-12-10 14:02:29.530406,-68
2021-12-10 14:02:29.530414,-80
2021-12-10 14:02:29.530423,-124
2021-12-10 14:02:29.530431,-110
2021-12-10 14:02:29.530440,-92
2021-12-10 14:02:29.530448,-117
2021-12-10 14:02:29.665603,-139
2021-12-10 14:02:29.665625,-180
2021-12-10 14:02:29.665636,-149
2021-12-10 14:02:29.665644,-24
2021-12-10 14:02:29.665653,53
2021-12-10 14:02:29.665662,149
2021-12-10 14:02:29.665670,210
2021-12-10 14:02:29.665679,-205
2021-12-10 14:02:29.665687,-880
2021-12-10 14:02:29.665696,-985
2021-12-10 14:02:29.665704,-530
2021-12-10 14:02:29.665713,-249
2021-12-10 14:02:29.665721,-256
2021-12-10 14:02:29.665730,-132
2021-12-10 14:02:29.665738,31
2021-12-10 14:02:29.665746,14
2021-12-10 14:02:29.665755,-4
2021-12-10 14:02:29.665763,34
2021-12-10 14:02:29.665771,56
2021-12-10 14:02:29.665780,29
2021-12-10 14:02:29.665788,4
2021-12-10 14:02:29.665796,48
2021-12-10 14:02:29.665805,83
2021-12-10 14:02:29.665813,100
2021-12-10 14:02:29.665822,122
2021-12-10 14:02:29.665830,110
2021-12-10 14:02:29.665838,92
2021-12-10 14:02:29.665847,124
2021-12-10 14:02:29.665855,222
2021-12-10 14:02:29.665864,298
2021-12-10 14:02:29.890652,266
2021-12-10 14:02:29.890674,244
2021-12-10 14:02:29.890684,300
2021-12-10 14:02:29.890693,305
2021-12-10 14:02:29.890701,207
2021-12-10 14:02:29.890710,202
2021-12-10 14:02:29.890719,266
2021-12-10 14:02:29.890727,110
2021-12-10 14:02:29.890736,-80
2021-12-10 14:02:29.890744,-36
2021-12-10 14:02:29.890753,-41
2021-12-10 14:02:29.890761,-156
2021-12-10 14:02:29.890770,-156
2021-12-10 14:02:29.890778,-168
2021-12-10 14:02:29.890787,-273
2021-12-10 14:02:29.890795,-283
2021-12-10 14:02:29.890805,-210
2021-12-10 14:02:29.890814,-205
2021-12-10 14:02:29.890823,-198
2021-12-10 14:02:29.890831,-195
2021-12-10 14:02:29.890840,-202
2021-12-10 14:02:29.890849,-122
2021-12-10 14:02:29.890857,-110
2021-12-10 14:02:29.890865,-188
2021-12-10 14:02:29.890874,-176
2021-12-10 14:02:29.890883,-144
2021-12-10 14:02:29.890891,-117
2021-12-10 14:02:29.890900,-78
2021-12-10 14:02:29.890908,-117
2021-12-10 14:02:29.890917,-141
2021-12-10 14:02:30.115670,-46
2021-12-10 14:02:30.115692,-17
2021-12-10 14:02:30.115702,-83
2021-12-10 14:02:30.115711,-56
2021-12-10 14:02:30.115720,-58
2021-12-10 14:02:30.115728,-154
2021-12-10 14:02:30.115737,-100
2021-12-10 14:02:30.115745,7
2021-12-10 14:02:30.115754,-51
2021-12-10 14:02:30.115762,-105
2021-12-10 14:02:30.115771,-46
2021-12-10 14:02:30.115779,-44
2021-12-10 14:02:30.115788,-105
2021-12-10 14:02:30.115797,-110
2021-12-10 14:02:30.115805,-70
2021-12-10 14:02:30.115813,-61
2021-12-10 14:02:30.115822,-70
2021-12-10 14:02:30.115830,-66
2021-12-10 14:02:30.115839,-44
2021-12-10 14:02:30.115847,-53
2021-12-10 14:02:30.115856,-68
2021-12-10 14:02:30.115865,-39
2021-12-10 14:02:30.115873,-41
2021-12-10 14:02:30.115881,-100
2021-12-10 14:02:30.115890,-119
2021-12-10 14:02:30.115898,-85
2021-12-10 14:02:30.115906,-61
2021-12-10 14:02:30.115915,-61
2021-12-10 14:02:30.115923,-80
2021-12-10 14:02:30.115931,-63
2021-12-10 14:02:30.384806,-29
2021-12-10 14:02:30.384824,-51
2021-12-10 14:02:30.384834,-51
2021-12-10 14:02:30.384843,139
2021-12-10 14:02:30.384851,489
2021-12-10 14:02:30.384860,359
2021-12-10 14:02:30.384869,-374
2021-12-10 14:02:30.384877,-851
2021-12-10 14:02:30.384886,-714
2021-12-10 14:02:30.384894,-359
2021-12-10 14:02:30.384903,-178
2021-12-10 14:02:30.384911,-95
2021-12-10 14:02:30.384920,36
2021-12-10 14:02:30.384928,97
2021-12-10 14:02:30.384936,53
2021-12-10 14:02:30.384945,-14
2021-12-10 14:02:30.384953,66
2021-12-10 14:02:30.384962,220
2021-12-10 14:02:30.384970,141
2021-12-10 14:02:30.384978,48
2021-12-10 14:02:30.384987,149
2021-12-10 14:02:30.384995,173
2021-12-10 14:02:30.385003,114
2021-12-10 14:02:30.385012,180
2021-12-10 14:02:30.385020,224
2021-12-10 14:02:30.385029,171
2021-12-10 14:02:30.385037,222
2021-12-10 14:02:30.385045,303
2021-12-10 14:02:30.385054,291
2021-12-10 14:02:30.385062,308
2021-12-10 14:02:30.609252,325
2021-12-10 14:02:30.609274,305
2021-12-10 14:02:30.609284,357
2021-12-10 14:02:30.609294,364
2021-12-10 14:02:30.609303,276
2021-12-10 14:02:30.609311,242
2021-12-10 14:02:30.609320,224
2021-12-10 14:02:30.609329,80
2021-12-10 14:02:30.609337,-68
2021-12-10 14:02:30.609346,-61
2021-12-10 14:02:30.609354,-85
2021-12-10 14:02:30.609363,-171
2021-12-10 14:02:30.609372,-134
2021-12-10 14:02:30.609380,-132
2021-12-10 14:02:30.609389,-198
2021-12-10 14:02:30.609397,-127
2021-12-10 14:02:30.609406,-90
2021-12-10 14:02:30.609415,-183
2021-12-10 14:02:30.609423,-151
2021-12-10 14:02:30.609432,-58
2021-12-10 14:02:30.609441,-78
2021-12-10 14:02:30.609449,-80
2021-12-10 14:02:30.609458,-46
2021-12-10 14:02:30.609467,-75
2021-12-10 14:02:30.609475,-80
2021-12-10 14:02:30.609484,-9
2021-12-10 14:02:30.609492,19
2021-12-10 14:02:30.609501,-44
2021-12-10 14:02:30.609509,-53
2021-12-10 14:02:30.609518,41
2021-12-10 14:02:30.880562,36
2021-12-10 14:02:30.880583,12
2021-12-10 14:02:30.880593,66
2021-12-10 14:02:30.880602,70
2021-12-10 14:02:30.880611,56
2021-12-10 14:02:30.880620,58
2021-12-10 14:02:30.880628,19
2021-12-10 14:02:30.880637,-2
2021-12-10 14:02:30.880645,48
2021-12-10 14:02:30.880654,73
2021-12-10 14:02:30.880662,44
2021-12-10 14:02:30.880671,-2
2021-12-10 14:02:30.880679,4
2021-12-10 14:02:30.880688,53
2021-12-10 14:02:30.880696,39
2021-12-10 14:02:30.880704,14
2021-12-10 14:02:30.880713,68
2021-12-10 14:02:30.880721,78
2021-12-10 14:02:30.880730,-14
2021-12-10 14:02:30.880738,14
2021-12-10 14:02:30.880746,134
2021-12-10 14:02:30.880755,51
2021-12-10 14:02:30.880763,-19
2021-12-10 14:02:30.880772,112
2021-12-10 14:02:30.880780,117
2021-12-10 14:02:30.880789,9
2021-12-10 14:02:30.880797,63
2021-12-10 14:02:30.880806,88
2021-12-10 14:02:30.880814,-31
2021-12-10 14:02:30.880823,-9
2021-12-10 14:02:31.105610,90
2021-12-10 14:02:31.105633,68
2021-12-10 14:02:31.105643,4
2021-12-10 14:02:31.105652,14
2021-12-10 14:02:31.105661,95
2021-12-10 14:02:31.105669,129
2021-12-10 14:02:31.105678,293
2021-12-10 14:02:31.105686,640
2021-12-10 14:02:31.105695,462
2021-12-10 14:02:31.105703,-327
2021-12-10 14:02:31.105712,-753
2021-12-10 14:02:31.105720,-503
2021-12-10 14:02:31.105729,-246
2021-12-10 14:02:31.105737,-190
2021-12-10 14:02:31.105745,-26
2021-12-10 14:02:31.105754,127
2021-12-10 14:02:31.105762,151
2021-12-10 14:02:31.105770,149
2021-12-10 14:02:31.105779,156
2021-12-10 14:02:31.105787,242
2021-12-10 14:02:31.105795,288
2021-12-10 14:02:31.105804,237
2021-12-10 14:02:31.105812,276
2021-12-10 14:02:31.105829,303
2021-12-10 14:02:31.105838,220
2021-12-10 14:02:31.105846,249
2021-12-10 14:02:31.105855,381
2021-12-10 14:02:31.105863,344
2021-12-10 14:02:31.105871,256
2021-12-10 14:02:31.105880,357
2021-12-10 14:02:31.240572,432
2021-12-10 14:02:31.240592,489
2021-12-10 14:02:31.240602,606
2021-12-10 14:02:31.240611,569
2021-12-10 14:02:31.240620,496
2021-12-10 14:02:31.240628,491
2021-12-10 14:02:31.240637,508
2021-12-10 14:02:31.240646,503
2021-12-10 14:02:31.240654,427
2021-12-10 14:02:31.240663,354
2021-12-10 14:02:31.240671,198
2021-12-10 14:02:31.240680,46
2021-12-10 14:02:31.240688,39
2021-12-10 14:02:31.240697,70
2021-12-10 14:02:31.240705,14
2021-12-10 14:02:31.240714,-136
2021-12-10 14:02:31.240722,-149
2021-12-10 14:02:31.240730,-44
2021-12-10 14:02:31.240739,-83
2021-12-10 14:02:31.240747,-100
2021-12-10 14:02:31.240756,9
2021-12-10 14:02:31.240764,-24
2021-12-10 14:02:31.240772,-80
2021-12-10 14:02:31.240781,-66
2021-12-10 14:02:31.240789,-114
2021-12-10 14:02:31.240798,-26
2021-12-10 14:02:31.240806,56
2021-12-10 14:02:31.240814,-39
2021-12-10 14:02:31.240823,-44
2021-12-10 14:02:31.240832,-31
2021-12-10 14:02:31.600623,-58
2021-12-10 14:02:31.600645,51
2021-12-10 14:02:31.600655,107
2021-12-10 14:02:31.600664,-2
2021-12-10 14:02:31.600673,-44
2021-12-10 14:02:31.600681,-44
2021-12-10 14:02:31.600690,-66
2021-12-10 14:02:31.600699,51
2021-12-10 14:02:31.600707,56
2021-12-10 14:02:31.600716,-149
2021-12-10 14:02:31.600724,-80
2021-12-10 14:02:31.600733,122
2021-12-10 14:02:31.600742,-7
2021-12-10 14:02:31.600750,-141
2021-12-10 14:02:31.600759,-36
2021-12-10 14:02:31.600767,-14
2021-12-10 14:02:31.600776,-92
2021-12-10 14:02:31.600784,-73
2021-12-10 14:02:31.600793,-9
2021-12-10 14:02:31.600801,-63
2021-12-10 14:02:31.600810,-97
2021-12-10 14:02:31.600819,-19
2021-12-10 14:02:31.600827,-44
2021-12-10 14:02:31.600836,-129
2021-12-10 14:02:31.600844,-68
2021-12-10 14:02:31.600853,46
2021-12-10 14:02:31.600861,-53
2021-12-10 14:02:31.600870,-176
2021-12-10 14:02:31.600878,-41
2021-12-10 14:02:31.600887,9
2021-12-10 14:02:31.780573,-110
2021-12-10 14:02:31.780594,-112
2021-12-10 14:02:31.780604,-83
2021-12-10 14:02:31.780613,-136
2021-12-10 14:02:31.780621,-163
2021-12-10 14:02:31.780630,-95
2021-12-10 14:02:31.780639,-83
2021-12-10 14:02:31.780647,-229
2021-12-10 14:02:31.780656,-291
2021-12-10 14:02:31.780664,-154
2021-12-10 14:02:31.780673,-107
2021-12-10 14:02:31.780681,-180
2021-12-10 14:02:31.780690,-161
2021-12-10 14:02:31.780698,-4
2021-12-10 14:02:31.780707,295
2021-12-10 14:02:31.780715,320
2021-12-10 14:02:31.780724,-342
2021-12-10 14:02:31.780732,-973
2021-12-10 14:02:31.780741,-914
2021-12-10 14:02:31.780749,-594
2021-12-10 14:02:31.780758,-423
2021-12-10 14:02:31.780766,-251
2021-12-10 14:02:31.780775,-100
2021-12-10 14:02:31.780783,-141
2021-12-10 14:02:31.780792,-124
2021-12-10 14:02:31.780800,0
2021-12-10 14:02:31.780809,-4
2021-12-10 14:02:31.780817,-105
2021-12-10 14:02:31.780826,-114
2021-12-10 14:02:31.780834,-17
2021-12-10 14:02:32.095634,44
2021-12-10 14:02:32.095656,-2
2021-12-10 14:02:32.095667,-70
2021-12-10 14:02:32.095676,-22
2021-12-10 14:02:32.095685,149
2021-12-10 14:02:32.095693,141
2021-12-10 14:02:32.095702,-39
2021-12-10 14:02:32.095711,68
2021-12-10 14:02:32.095719,303
2021-12-10 14:02:32.095728,224
2021-12-10 14:02:32.095737,80
2021-12-10 14:02:32.095745,222
2021-12-10 14:02:32.095754,376
2021-12-10 14:02:32.095762,224
2021-12-10 14:02:32.095771,83
2021-12-10 14:02:32.095780,151
2021-12-10 14:02:32.095788,85
2021-12-10 14:02:32.095797,-66
2021-12-10 14:02:32.095806,-58
2021-12-10 14:02:32.095814,-105
2021-12-10 14:02:32.095823,-224
2021-12-10 14:02:32.095832,-242
2021-12-10 14:02:32.095841,-259
2021-12-10 14:02:32.095849,-327
2021-12-10 14:02:32.095858,-266
2021-12-10 14:02:32.095866,-183
2021-12-10 14:02:32.095875,-310
2021-12-10 14:02:32.095883,-369
2021-12-10 14:02:32.095892,-220
2021-12-10 14:02:32.095900,-224
2021-12-10 14:02:32.185607,-313
2021-12-10 14:02:32.185629,-158
2021-12-10 14:02:32.185640,-132
2021-12-10 14:02:32.185649,-342
2021-12-10 14:02:32.185658,-264
2021-12-10 14:02:32.185667,-95
2021-12-10 14:02:32.185675,-149
2021-12-10 14:02:32.185684,-188
2021-12-10 14:02:32.185693,-127
2021-12-10 14:02:32.185701,-117
2021-12-10 14:02:32.185710,-166
2021-12-10 14:02:32.185719,-158
2021-12-10 14:02:32.185728,-151
2021-12-10 14:02:32.185736,-200
2021-12-10 14:02:32.185745,-149
2021-12-10 14:02:32.185753,-66
2021-12-10 14:02:32.185762,-97
2021-12-10 14:02:32.185771,-141
2021-12-10 14:02:32.185779,-102
2021-12-10 14:02:32.185788,-70
2021-12-10 14:02:32.185797,-156
2021-12-10 14:02:32.185805,-227
2021-12-10 14:02:32.185814,-102
2021-12-10 14:02:32.185823,44
2021-12-10 14:02:32.185832,-39
2021-12-10 14:02:32.185840,-127
2021-12-10 14:02:32.185849,-66
2021-12-10 14:02:32.185857,-66
2021-12-10 14:02:32.185866,-90
2021-12-10 14:02:32.185874,-85
2021-12-10 14:02:32.410620,-144
2021-12-10 14:02:32.410642,-46
2021-12-10 14:02:32.410652,92
2021-12-10 14:02:32.410661,-66
2021-12-10 14:02:32.410670,-146
2021-12-10 14:02:32.410679,-14
2021-12-10 14:02:32.410687,-46
2021-12-10 14:02:32.410696,-105
2021-12-10 14:02:32.410705,-4
2021-12-10 14:02:32.410713,-22
2021-12-10 14:02:32.410722,-139
2021-12-10 14:02:32.410730,-48
2021-12-10 14:02:32.410739,83
2021-12-10 14:02:32.410748,-2
2021-12-10 14:02:32.410757,53
2021-12-10 14:02:32.410765,371
2021-12-10 14:02:32.410774,220
2021-12-10 14:02:32.410783,-503
2021-12-10 14:02:32.410791,-919
2021-12-10 14:02:32.410800,-684
2021-12-10 14:02:32.410808,-295
2021-12-10 14:02:32.410817,-129
2021-12-10 14:02:32.410826,-17
2021-12-10 14:02:32.410834,83
2021-12-10 14:02:32.410842,100
2021-12-10 14:02:32.410851,200
2021-12-10 14:02:32.410860,254
2021-12-10 14:02:32.410868,166
2021-12-10 14:02:32.410876,210
2021-12-10 14:02:32.410885,339
2021-12-10 14:02:32.724349,310
2021-12-10 14:02:32.724372,195
2021-12-10 14:02:32.724382,202
2021-12-10 14:02:32.724391,291
2021-12-10 14:02:32.724400,310
2021-12-10 14:02:32.724408,293
2021-12-10 14:02:32.724417,332
2021-12-10 14:02:32.724426,371
2021-12-10 14:02:32.724434,381
2021-12-10 14:02:32.724443,459
2021-12-10 14:02:32.724451,550
2021-12-10 14:02:32.724460,484
2021-12-10 14:02:32.724469,425
2021-12-10 14:02:32.724477,493
2021-12-10 14:02:32.724486,489
2021-12-10 14:02:32.724495,403
2021-12-10 14:02:32.724503,413
2021-12-10 14:02:32.724512,408
2021-12-10 14:02:32.724520,251
2021-12-10 14:02:32.724529,144
2021-12-10 14:02:32.724538,136
2021-12-10 14:02:32.724546,73
2021-12-10 14:02:32.724555,0
2021-12-10 14:02:32.724563,2
2021-12-10 14:02:32.724572,31
2021-12-10 14:02:32.724580,0
2021-12-10 14:02:32.724589,-46
2021-12-10 14:02:32.724597,-12
2021-12-10 14:02:32.724606,22
2021-12-10 14:02:32.724614,-22
2021-12-10 14:02:32.905132,-66
2021-12-10 14:02:32.905155,-66
2021-12-10 14:02:32.905165,-58
2021-12-10 14:02:32.905174,-29
2021-12-10 14:02:32.905183,-12
2021-12-10 14:02:32.905191,-48
2021-12-10 14:02:32.905200,-102
2021-12-10 14:02:32.905208,-124
2021-12-10 14:02:32.905217,-124
2021-12-10 14:02:32.905225,-149
2021-12-10 14:02:32.905234,-161
2021-12-10 14:02:32.905242,-161
2021-12-10 14:02:32.905251,-249
2021-12-10 14:02:32.905261,-347
2021-12-10 14:02:32.905269,-305
2021-12-10 14:02:32.905278,-264
2021-12-10 14:02:32.905287,-369
2021-12-10 14:02:32.905295,-479
2021-12-10 14:02:32.905304,-464
2021-12-10 14:02:32.905312,-440
2021-12-10 14:02:32.905320,-503
2021-12-10 14:02:32.905329,-562
2021-12-10 14:02:32.905337,-562
2021-12-10 14:02:32.905346,-613
2021-12-10 14:02:32.905354,-704
2021-12-10 14:02:32.905363,-657
2021-12-10 14:02:32.905371,-613
2021-12-10 14:02:32.905380,-718
2021-12-10 14:02:32.905388,-692
2021-12-10 14:02:32.905397,-584
2021-12-10 14:02:33.130004,-648
2021-12-10 14:02:33.130026,-704
2021-12-10 14:02:33.130036,-662
2021-12-10 14:02:33.130045,-657
2021-12-10 14:02:33.130054,-677
2021-12-10 14:02:33.130062,-687
2021-12-10 14:02:33.130071,-709
2021-12-10 14:02:33.130080,-716
2021-12-10 14:02:33.130088,-694
2021-12-10 14:02:33.130097,-635
2021-12-10 14:02:33.130106,-606
2021-12-10 14:02:33.130114,-643
2021-12-10 14:02:33.130122,-640
2021-12-10 14:02:33.130131,-604
2021-12-10 14:02:33.130139,-601
2021-12-10 14:02:33.130148,-611
2021-12-10 14:02:33.130156,-628
2021-12-10 14:02:33.130196,-616
2021-12-10 14:02:33.130205,-533
2021-12-10 14:02:33.130214,-432
2021-12-10 14:02:33.130223,-371
2021-12-10 14:02:33.130231,-291
2021-12-10 14:02:33.130240,-19
2021-12-10 14:02:33.130249,193
2021-12-10 14:02:33.130257,-220
2021-12-10 14:02:33.130266,-943
2021-12-10 14:02:33.130274,-1168
2021-12-10 14:02:33.130283,-868
2021-12-10 14:02:33.130291,-579
2021-12-10 14:02:33.130300,-462
2021-12-10 14:02:33.355633,-342
2021-12-10 14:02:33.355655,-271
2021-12-10 14:02:33.355664,-303
2021-12-10 14:02:33.355673,-300
2021-12-10 14:02:33.355682,-234
2021-12-10 14:02:33.355690,-183
2021-12-10 14:02:33.355699,-198
2021-12-10 14:02:33.355708,-256
2021-12-10 14:02:33.355716,-222
2021-12-10 14:02:33.355724,-132
2021-12-10 14:02:33.355733,-151
2021-12-10 14:02:33.355742,-158
2021-12-10 14:02:33.355750,-78
2021-12-10 14:02:33.355759,-66
2021-12-10 14:02:33.355767,-66
2021-12-10 14:02:33.355776,7
2021-12-10 14:02:33.355784,61
2021-12-10 14:02:33.355793,83
2021-12-10 14:02:33.355801,127
2021-12-10 14:02:33.355809,173
2021-12-10 14:02:33.355818,180
2021-12-10 14:02:33.355826,163
2021-12-10 14:02:33.355834,161
2021-12-10 14:02:33.355843,105
2021-12-10 14:02:33.355851,-4
2021-12-10 14:02:33.355859,-73
2021-12-10 14:02:33.355868,-141
2021-12-10 14:02:33.355876,-237
2021-12-10 14:02:33.355884,-283
2021-12-10 14:02:33.355893,-300
2021-12-10 14:02:33.580460,-339
2021-12-10 14:02:33.580478,-364
2021-12-10 14:02:33.580488,-369
2021-12-10 14:02:33.580496,-381
2021-12-10 14:02:33.580505,-369
2021-12-10 14:02:33.580513,-347
2021-12-10 14:02:33.580522,-352
2021-12-10 14:02:33.580530,-357
2021-12-10 14:02:33.580539,-357
2021-12-10 14:02:33.580547,-359
2021-12-10 14:02:33.580555,-339
2021-12-10 14:02:33.580564,-303
2021-12-10 14:02:33.580572,-288
2021-12-10 14:02:33.580581,-288
2021-12-10 14:02:33.580589,-273
2021-12-10 14:02:33.580598,-271
2021-12-10 14:02:33.580606,-266
2021-12-10 14:02:33.580615,-239
2021-12-10 14:02:33.580623,-229
2021-12-10 14:02:33.580631,-256
2021-12-10 14:02:33.580640,-256
2021-12-10 14:02:33.580648,-234
2021-12-10 14:02:33.580657,-227
2021-12-10 14:02:33.580665,-232
2021-12-10 14:02:33.580673,-237
2021-12-10 14:02:33.580682,-237
2021-12-10 14:02:33.580690,-242
2021-12-10 14:02:33.580699,-249
2021-12-10 14:02:33.580707,-242
2021-12-10 14:02:33.580715,-242
2021-12-10 14:02:33.805650,-239
2021-12-10 14:02:33.805672,-222
2021-12-10 14:02:33.805682,-237
2021-12-10 14:02:33.805691,-242
2021-12-10 14:02:33.805700,-212
2021-12-10 14:02:33.805708,-217
2021-12-10 14:02:33.805717,-224
2021-12-10 14:02:33.805725,-200
2021-12-10 14:02:33.805734,-198
2021-12-10 14:02:33.805742,-224
2021-12-10 14:02:33.805751,-224
2021-12-10 14:02:33.805759,-205
2021-12-10 14:02:33.805768,-195
2021-12-10 14:02:33.805777,-173
2021-12-10 14:02:33.805785,-158
2021-12-10 14:02:33.805793,-161
2021-12-10 14:02:33.805802,-151
2021-12-10 14:02:33.805810,-158
2021-12-10 14:02:33.805819,-195
2021-12-10 14:02:33.805827,-193
2021-12-10 14:02:33.805836,-158
2021-12-10 14:02:33.805844,-161
2021-12-10 14:02:33.805853,-168
2021-12-10 14:02:33.805861,-149
2021-12-10 14:02:33.805870,-168
2021-12-10 14:02:33.805878,-207
2021-12-10 14:02:33.805887,-127
2021-12-10 14:02:33.805895,9
2021-12-10 14:02:33.805904,166
2021-12-10 14:02:33.805912,545
2021-12-10 14:02:34.120027,660
2021-12-10 14:02:34.120049,-63
2021-12-10 14:02:34.120059,-846
2021-12-10 14:02:34.120068,-855
2021-12-10 14:02:34.120077,-464
2021-12-10 14:02:34.120086,-242
2021-12-10 14:02:34.120094,-119
2021-12-10 14:02:34.120103,-78
2021-12-10 14:02:34.120112,-141
2021-12-10 14:02:34.120120,-88
2021-12-10 14:02:34.120129,-12
2021-12-10 14:02:34.120137,-51
2021-12-10 14:02:34.120145,-12
2021-12-10 14:02:34.120154,92
2021-12-10 14:02:34.120163,53
2021-12-10 14:02:34.120171,-2
2021-12-10 14:02:34.120179,73
2021-12-10 14:02:34.120188,97
2021-12-10 14:02:34.120196,24
2021-12-10 14:02:34.120205,63
2021-12-10 14:02:34.120213,158
2021-12-10 14:02:34.120221,144
2021-12-10 14:02:34.120230,161
2021-12-10 14:02:34.120238,276
2021-12-10 14:02:34.120246,305
2021-12-10 14:02:34.120255,291
2021-12-10 14:02:34.120263,352
2021-12-10 14:02:34.120272,398
2021-12-10 14:02:34.120280,352
2021-12-10 14:02:34.120288,232
2021-12-10 14:02:34.300487,188
2021-12-10 14:02:34.300505,237
2021-12-10 14:02:34.300515,146
2021-12-10 14:02:34.300524,-31
2021-12-10 14:02:34.300532,-110
2021-12-10 14:02:34.300541,-149
2021-12-10 14:02:34.300549,-237
2021-12-10 14:02:34.300558,-259
2021-12-10 14:02:34.300566,-163
2021-12-10 14:02:34.300575,-242
2021-12-10 14:02:34.300583,-308
2021-12-10 14:02:34.300592,-132
2021-12-10 14:02:34.300600,-132
2021-12-10 14:02:34.300609,-217
2021-12-10 14:02:34.300617,-117
2021-12-10 14:02:34.300626,-141
2021-12-10 14:02:34.300634,-271
2021-12-10 14:02:34.300643,-232
2021-12-10 14:02:34.300651,-97
2021-12-10 14:02:34.300660,-61
2021-12-10 14:02:34.300668,-127
2021-12-10 14:02:34.300677,-75
2021-12-10 14:02:34.300685,90
2021-12-10 14:02:34.300694,66
2021-12-10 14:02:34.300702,-51
2021-12-10 14:02:34.300711,4
2021-12-10 14:02:34.300719,92
2021-12-10 14:02:34.300728,70
2021-12-10 14:02:34.300736,117
2021-12-10 14:02:34.300745,176
2021-12-10 14:02:34.480588,73
2021-12-10 14:02:34.480611,97
2021-12-10 14:02:34.480621,271
2021-12-10 14:02:34.480630,281
2021-12-10 14:02:34.480638,220
2021-12-10 14:02:34.480647,198
2021-12-10 14:02:34.480655,200
2021-12-10 14:02:34.480664,322
2021-12-10 14:02:34.480672,467
2021-12-10 14:02:34.480681,501
2021-12-10 14:02:34.480690,474
2021-12-10 14:02:34.480698,425
2021-12-10 14:02:34.480707,538
2021-12-10 14:02:34.480715,714
2021-12-10 14:02:34.480724,618
2021-12-10 14:02:34.480732,508
2021-12-10 14:02:34.480741,613
2021-12-10 14:02:34.480749,692
2021-12-10 14:02:34.480758,660
2021-12-10 14:02:34.480766,586
2021-12-10 14:02:34.480775,604
2021-12-10 14:02:34.480784,733
2021-12-10 14:02:34.480792,706
2021-12-10 14:02:34.480801,569
2021-12-10 14:02:34.480809,604
2021-12-10 14:02:34.480818,628
2021-12-10 14:02:34.480826,515
2021-12-10 14:02:34.480835,557
2021-12-10 14:02:34.480843,665
2021-12-10 14:02:34.480851,498
2021-12-10 14:02:34.839058,437
2021-12-10 14:02:34.839077,657
2021-12-10 14:02:34.839087,577
2021-12-10 14:02:34.839096,457
2021-12-10 14:02:34.839105,726
2021-12-10 14:02:34.839114,777
2021-12-10 14:02:34.839122,733
2021-12-10 14:02:34.839131,1005
2021-12-10 14:02:34.839139,674
2021-12-10 14:02:34.839148,-261
2021-12-10 14:02:34.839156,-403
2021-12-10 14:02:34.839165,73
2021-12-10 14:02:34.839173,166
2021-12-10 14:02:34.839181,261
2021-12-10 14:02:34.839190,542
2021-12-10 14:02:34.839198,533
2021-12-10 14:02:34.839207,471
2021-12-10 14:02:34.839215,518
2021-12-10 14:02:34.839224,501
2021-12-10 14:02:34.839232,491
2021-12-10 14:02:34.839241,513
2021-12-10 14:02:34.839249,496
2021-12-10 14:02:34.839257,401
2021-12-10 14:02:34.839266,369
2021-12-10 14:02:34.839274,440
2021-12-10 14:02:34.839282,423
2021-12-10 14:02:34.839291,347
2021-12-10 14:02:34.839299,359
2021-12-10 14:02:34.839308,379
2021-12-10 14:02:34.839316,347
2021-12-10 14:02:34.930728,408
2021-12-10 14:02:34.930751,491
2021-12-10 14:02:34.930761,423
2021-12-10 14:02:34.930770,300
2021-12-10 14:02:34.930778,393
2021-12-10 14:02:34.930787,498
2021-12-10 14:02:34.930795,339
2021-12-10 14:02:34.930804,266
2021-12-10 14:02:34.930812,298
2021-12-10 14:02:34.930820,117
2021-12-10 14:02:34.930829,-44
2021-12-10 14:02:34.930837,44
2021-12-10 14:02:34.930846,26
2021-12-10 14:02:34.930854,-234
2021-12-10 14:02:34.930862,-273
2021-12-10 14:02:34.930871,-92
2021-12-10 14:02:34.930879,-205
2021-12-10 14:02:34.930887,-357
2021-12-10 14:02:34.930896,-146
2021-12-10 14:02:34.930904,-80
2021-12-10 14:02:34.930913,-352
2021-12-10 14:02:34.930921,-393
2021-12-10 14:02:34.930929,-215
2021-12-10 14:02:34.930938,-215
2021-12-10 14:02:34.930946,-237
2021-12-10 14:02:34.930955,-215
2021-12-10 14:02:34.930963,-256
2021-12-10 14:02:34.930971,-171
2021-12-10 14:02:34.930980,-151
2021-12-10 14:02:34.930988,-242
2021-12-10 14:02:35.244917,-156
2021-12-10 14:02:35.244935,-141
2021-12-10 14:02:35.244945,-190
2021-12-10 14:02:35.244954,-149
2021-12-10 14:02:35.244963,-193
2021-12-10 14:02:35.244971,-158
2021-12-10 14:02:35.244980,-73
2021-12-10 14:02:35.244988,-202
2021-12-10 14:02:35.244997,-246
2021-12-10 14:02:35.245005,-53
2021-12-10 14:02:35.245014,-85
2021-12-10 14:02:35.245022,-210
2021-12-10 14:02:35.245031,-85
2021-12-10 14:02:35.245039,-97
2021-12-10 14:02:35.245048,-200
2021-12-10 14:02:35.245056,-75
2021-12-10 14:02:35.245064,-73
2021-12-10 14:02:35.245073,-198
2021-12-10 14:02:35.245081,-136
2021-12-10 14:02:35.245089,-78
2021-12-10 14:02:35.245098,-176
2021-12-10 14:02:35.245106,-117
2021-12-10 14:02:35.245114,68
2021-12-10 14:02:35.245123,-19
2021-12-10 14:02:35.245131,-212
2021-12-10 14:02:35.245139,-119
2021-12-10 14:02:35.245148,31
2021-12-10 14:02:35.245156,-80
2021-12-10 14:02:35.245164,-163
2021-12-10 14:02:35.245173,-51
2021-12-10 14:02:35.425538,-39
2021-12-10 14:02:35.425557,-154
2021-12-10 14:02:35.425567,-112
2021-12-10 14:02:35.425576,9
2021-12-10 14:02:35.425585,-44
2021-12-10 14:02:35.425594,-139
2021-12-10 14:02:35.425602,-117
2021-12-10 14:02:35.425611,-19
2021-12-10 14:02:35.425619,9
2021-12-10 14:02:35.425628,56
2021-12-10 14:02:35.425636,237
2021-12-10 14:02:35.425645,-24
2021-12-10 14:02:35.425654,-689
2021-12-10 14:02:35.425662,-875
2021-12-10 14:02:35.425674,-611
2021-12-10 14:02:35.425682,-325
2021-12-10 14:02:35.425690,-166
2021-12-10 14:02:35.425699,-119
2021-12-10 14:02:35.425707,-4
2021-12-10 14:02:35.425716,127
2021-12-10 14:02:35.425724,73
2021-12-10 14:02:35.425733,22
2021-12-10 14:02:35.425741,136
2021-12-10 14:02:35.425750,92
2021-12-10 14:02:35.425758,2
2021-12-10 14:02:35.425766,112
2021-12-10 14:02:35.425775,119
2021-12-10 14:02:35.425783,7
2021-12-10 14:02:35.425792,41
2021-12-10 14:02:35.425800,195
2021-12-10 14:02:35.650674,237
2021-12-10 14:02:35.650698,92
2021-12-10 14:02:35.650708,61
2021-12-10 14:02:35.650717,227
2021-12-10 14:02:35.650725,283
2021-12-10 14:02:35.650734,222
2021-12-10 14:02:35.650743,224
2021-12-10 14:02:35.650751,332
2021-12-10 14:02:35.650759,337
2021-12-10 14:02:35.650768,163
2021-12-10 14:02:35.650776,144
2021-12-10 14:02:35.650785,232
2021-12-10 14:02:35.650793,136
2021-12-10 14:02:35.650802,-41
2021-12-10 14:02:35.650810,-85
2021-12-10 14:02:35.650818,-41
2021-12-10 14:02:35.650827,-122
2021-12-10 14:02:35.650835,-278
2021-12-10 14:02:35.650844,-205
2021-12-10 14:02:35.650852,-78
2021-12-10 14:02:35.650861,-215
2021-12-10 14:02:35.650869,-298
2021-12-10 14:02:35.650878,-171
2021-12-10 14:02:35.650886,-158
2021-12-10 14:02:35.650894,-234
2021-12-10 14:02:35.650903,-200
2021-12-10 14:02:35.650911,-149
2021-12-10 14:02:35.650920,-151
2021-12-10 14:02:35.650928,-161
2021-12-10 14:02:35.650937,-136
2021-12-10 14:02:35.920506,-97
2021-12-10 14:02:35.920524,-110
2021-12-10 14:02:35.920534,-107
2021-12-10 14:02:35.920543,-56
2021-12-10 14:02:35.920551,-66
2021-12-10 14:02:35.920560,-92
2021-12-10 14:02:35.920569,-92
2021-12-10 14:02:35.920577,-102
2021-12-10 14:02:35.920586,-14
2021-12-10 14:02:35.920595,22
2021-12-10 14:02:35.920603,-161
2021-12-10 14:02:35.920612,-166
2021-12-10 14:02:35.920620,51
2021-12-10 14:02:35.920629,-46
2021-12-10 14:02:35.920638,-259
2021-12-10 14:02:35.920646,-124
2021-12-10 14:02:35.920655,-9
2021-12-10 14:02:35.920663,-112
2021-12-10 14:02:35.920672,-110
2021-12-10 14:02:35.920680,0
2021-12-10 14:02:35.920689,-58
2021-12-10 14:02:35.920698,-134
2021-12-10 14:02:35.920707,-36
2021-12-10 14:02:35.920715,-80
2021-12-10 14:02:35.920724,-161
2021-12-10 14:02:35.920733,-29
2021-12-10 14:02:35.920741,31
2021-12-10 14:02:35.920750,-75
2021-12-10 14:02:35.920758,-88
2021-12-10 14:02:35.920767,-14
2021-12-10 14:02:36.145121,-100
2021-12-10 14:02:36.145140,-136
2021-12-10 14:02:36.145150,9
2021-12-10 14:02:36.145159,-17
2021-12-10 14:02:36.145167,-78
2021-12-10 14:02:36.145176,-36
2021-12-10 14:02:36.145184,-144
2021-12-10 14:02:36.145193,-176
2021-12-10 14:02:36.145201,-105
2021-12-10 14:02:36.145210,-134
2021-12-10 14:02:36.145218,-114
2021-12-10 14:02:36.145227,-110
2021-12-10 14:02:36.145235,-156
2021-12-10 14:02:36.145244,-158
2021-12-10 14:02:36.145252,-180
2021-12-10 14:02:36.145261,-161
2021-12-10 14:02:36.145269,-26
2021-12-10 14:02:36.145278,176
2021-12-10 14:02:36.145286,151
2021-12-10 14:02:36.145295,-393
2021-12-10 14:02:36.145303,-992
2021-12-10 14:02:36.145312,-1066
2021-12-10 14:02:36.145320,-784
2021-12-10 14:02:36.145329,-530
2021-12-10 14:02:36.145337,-420
2021-12-10 14:02:36.145345,-339
2021-12-10 14:02:36.145354,-308
2021-12-10 14:02:36.145362,-359
2021-12-10 14:02:36.145371,-344
2021-12-10 14:02:36.145379,-308
2021-12-10 14:02:36.460088,-352
2021-12-10 14:02:36.460111,-317
2021-12-10 14:02:36.460121,-261
2021-12-10 14:02:36.460130,-308
2021-12-10 14:02:36.460139,-379
2021-12-10 14:02:36.460147,-381
2021-12-10 14:02:36.460156,-281
2021-12-10 14:02:36.460164,-259
2021-12-10 14:02:36.460173,-261
2021-12-10 14:02:36.460181,-166
2021-12-10 14:02:36.460190,-173
2021-12-10 14:02:36.460198,-134
2021-12-10 14:02:36.460207,29
2021-12-10 14:02:36.460215,-9
2021-12-10 14:02:36.460224,-134
2021-12-10 14:02:36.460232,-34
2021-12-10 14:02:36.460241,80
2021-12-10 14:02:36.460249,-4
2021-12-10 14:02:36.460258,-24
2021-12-10 14:02:36.460266,63
2021-12-10 14:02:36.460275,-34
2021-12-10 14:02:36.460283,-200
2021-12-10 14:02:36.460292,-227
2021-12-10 14:02:36.460300,-249
2021-12-10 14:02:36.460309,-313
2021-12-10 14:02:36.460317,-317
2021-12-10 14:02:36.460326,-259
2021-12-10 14:02:36.460334,-178
2021-12-10 14:02:36.460342,-264
2021-12-10 14:02:36.460351,-379
2021-12-10 14:02:36.595217,-303
2021-12-10 14:02:36.595238,-259
2021-12-10 14:02:36.595248,-269
2021-12-10 14:02:36.595257,-242
2021-12-10 14:02:36.595265,-259
2021-12-10 14:02:36.595274,-234
2021-12-10 14:02:36.595282,-144
2021-12-10 14:02:36.595291,-112
2021-12-10 14:02:36.595299,-122
2021-12-10 14:02:36.595308,-180
2021-12-10 14:02:36.595316,-154
2021-12-10 14:02:36.595325,2
2021-12-10 14:02:36.595333,2
2021-12-10 14:02:36.595342,-85
2021-12-10 14:02:36.595350,-63
2021-12-10 14:02:36.595359,-36
2021-12-10 14:02:36.595367,-9
2021-12-10 14:02:36.595376,-31
2021-12-10 14:02:36.595384,-19
2021-12-10 14:02:36.595392,127
2021-12-10 14:02:36.595401,73
2021-12-10 14:02:36.595409,-78
2021-12-10 14:02:36.595418,-12
2021-12-10 14:02:36.595427,31
2021-12-10 14:02:36.595435,-24
2021-12-10 14:02:36.595444,58
2021-12-10 14:02:36.595452,136
2021-12-10 14:02:36.595461,14
2021-12-10 14:02:36.595469,-68
2021-12-10 14:02:36.595478,29
2021-12-10 14:02:36.910353,114
2021-12-10 14:02:36.910379,85
2021-12-10 14:02:36.910388,56
2021-12-10 14:02:36.910397,100
2021-12-10 14:02:36.910406,97
2021-12-10 14:02:36.910415,-17
2021-12-10 14:02:36.910424,2
2021-12-10 14:02:36.910432,178
2021-12-10 14:02:36.910441,132
2021-12-10 14:02:36.910449,17
2021-12-10 14:02:36.910458,134
2021-12-10 14:02:36.910466,183
2021-12-10 14:02:36.910475,56
2021-12-10 14:02:36.910485,4
2021-12-10 14:02:36.910494,58
2021-12-10 14:02:36.910503,95
2021-12-10 14:02:36.910512,51
2021-12-10 14:02:36.910521,34
2021-12-10 14:02:36.910531,85
2021-12-10 14:02:36.910540,53
2021-12-10 14:02:36.910549,39
2021-12-10 14:02:36.910557,156
2021-12-10 14:02:36.910566,202
2021-12-10 14:02:36.910574,229
2021-12-10 14:02:36.910583,449
2021-12-10 14:02:36.910592,374
2021-12-10 14:02:36.910600,-342
2021-12-10 14:02:36.910629,-794
2021-12-10 14:02:36.910638,-513
2021-12-10 14:02:36.910647,-173
2021-12-10 14:02:37.001189,-66
2021-12-10 14:02:37.001211,12
2021-12-10 14:02:37.001221,122
2021-12-10 14:02:37.001230,185
2021-12-10 14:02:37.001239,132
2021-12-10 14:02:37.001247,112
2021-12-10 14:02:37.001256,200
2021-12-10 14:02:37.001264,215
2021-12-10 14:02:37.001273,105
2021-12-10 14:02:37.001281,139
2021-12-10 14:02:37.001290,313
2021-12-10 14:02:37.001299,234
2021-12-10 14:02:37.001307,58
2021-12-10 14:02:37.001316,163
2021-12-10 14:02:37.001324,313
2021-12-10 14:02:37.001333,227
2021-12-10 14:02:37.001341,166
2021-12-10 14:02:37.001350,300
2021-12-10 14:02:37.001358,361
2021-12-10 14:02:37.001367,249
2021-12-10 14:02:37.001375,293
2021-12-10 14:02:37.001383,435
2021-12-10 14:02:37.001392,379
2021-12-10 14:02:37.001400,298
2021-12-10 14:02:37.001409,246
2021-12-10 14:02:37.001417,166
2021-12-10 14:02:37.001426,190
2021-12-10 14:02:37.001434,171
2021-12-10 14:02:37.001442,-63
2021-12-10 14:02:37.001451,-193
2021-12-10 14:02:37.225674,-22
2021-12-10 14:02:37.225696,-17
2021-12-10 14:02:37.225705,-278
2021-12-10 14:02:37.225714,-276
2021-12-10 14:02:37.225723,-107
2021-12-10 14:02:37.225732,-176
2021-12-10 14:02:37.225740,-308
2021-12-10 14:02:37.225748,-210
2021-12-10 14:02:37.225757,-70
2021-12-10 14:02:37.225765,-168
2021-12-10 14:02:37.225774,-259
2021-12-10 14:02:37.225782,-95
2021-12-10 14:02:37.225791,-14
2021-12-10 14:02:37.225799,-180
2021-12-10 14:02:37.225807,-180
2021-12-10 14:02:37.225816,-63
2021-12-10 14:02:37.225824,-156
2021-12-10 14:02:37.225833,-180
2021-12-10 14:02:37.225841,-51
2021-12-10 14:02:37.225849,-107
2021-12-10 14:02:37.225858,-154
2021-12-10 14:02:37.225866,-12
2021-12-10 14:02:37.225875,-119
2021-12-10 14:02:37.225883,-205
2021-12-10 14:02:37.225891,75
2021-12-10 14:02:37.225900,-9
2021-12-10 14:02:37.225908,-300
2021-12-10 14:02:37.225916,-146
2021-12-10 14:02:37.225925,-31
2021-12-10 14:02:37.225933,-168
2021-12-10 14:02:37.450636,-176
2021-12-10 14:02:37.450659,-119
2021-12-10 14:02:37.450669,-198
2021-12-10 14:02:37.450678,-202
2021-12-10 14:02:37.450687,-41
2021-12-10 14:02:37.450696,-58
2021-12-10 14:02:37.450705,-266
2021-12-10 14:02:37.450714,-202
2021-12-10 14:02:37.450723,-36
2021-12-10 14:02:37.450731,-180
2021-12-10 14:02:37.450740,-210
2021-12-10 14:02:37.450749,2
2021-12-10 14:02:37.450758,-31
2021-12-10 14:02:37.450767,-195
2021-12-10 14:02:37.450775,-129
2021-12-10 14:02:37.450784,41
2021-12-10 14:02:37.450793,-46
2021-12-10 14:02:37.450802,-173
2021-12-10 14:02:37.450810,14
2021-12-10 14:02:37.450819,41
2021-12-10 14:02:37.450827,-110
2021-12-10 14:02:37.450836,-17
2021-12-10 14:02:37.450845,-9
2021-12-10 14:02:37.450853,-119
2021-12-10 14:02:37.450862,-97
2021-12-10 14:02:37.450871,-100
2021-12-10 14:02:37.450879,-19
2021-12-10 14:02:37.450888,122
2021-12-10 14:02:37.450896,122
2021-12-10 14:02:37.450905,291
2021-12-10 14:02:37.720033,523
2021-12-10 14:02:37.720055,229
2021-12-10 14:02:37.720065,-449
2021-12-10 14:02:37.720074,-831
2021-12-10 14:02:37.720083,-648
2021-12-10 14:02:37.720092,-195
2021-12-10 14:02:37.720100,161
2021-12-10 14:02:37.720109,271
2021-12-10 14:02:37.720117,259
2021-12-10 14:02:37.720126,359
2021-12-10 14:02:37.720134,479
2021-12-10 14:02:37.720142,447
2021-12-10 14:02:37.720155,430
2021-12-10 14:02:37.720163,515
2021-12-10 14:02:37.720172,552
2021-12-10 14:02:37.720180,577
2021-12-10 14:02:37.720189,687
2021-12-10 14:02:37.720197,679
2021-12-10 14:02:37.720206,623
2021-12-10 14:02:37.720214,792
2021-12-10 14:02:37.720222,865
2021-12-10 14:02:37.720231,648
2021-12-10 14:02:37.720239,701
2021-12-10 14:02:37.720248,1029
2021-12-10 14:02:37.720256,1056
2021-12-10 14:02:37.720265,941
2021-12-10 14:02:37.720273,953
2021-12-10 14:02:37.720282,1000
2021-12-10 14:02:37.720290,1049
2021-12-10 14:02:37.720299,1029
2021-12-10 14:02:37.990732,975
2021-12-10 14:02:37.990754,1019
2021-12-10 14:02:37.990763,1027
2021-12-10 14:02:37.990772,875
2021-12-10 14:02:37.990781,767
2021-12-10 14:02:37.990789,784
2021-12-10 14:02:37.990798,704
2021-12-10 14:02:37.990806,628
2021-12-10 14:02:37.990815,731
2021-12-10 14:02:37.990823,723
2021-12-10 14:02:37.990832,567
2021-12-10 14:02:37.990840,601
2021-12-10 14:02:37.990848,804
2021-12-10 14:02:37.990857,819
2021-12-10 14:02:37.990866,662
2021-12-10 14:02:37.990874,657
2021-12-10 14:02:37.990883,775
2021-12-10 14:02:37.990891,775
2021-12-10 14:02:37.990900,794
2021-12-10 14:02:37.990911,921
2021-12-10 14:02:37.990920,895
2021-12-10 14:02:37.990928,807
2021-12-10 14:02:37.990937,877
2021-12-10 14:02:37.990945,941
2021-12-10 14:02:37.990954,863
2021-12-10 14:02:37.990962,838
2021-12-10 14:02:37.990971,899
2021-12-10 14:02:37.990979,887
2021-12-10 14:02:37.990987,895
2021-12-10 14:02:37.990996,951
2021-12-10 14:02:38.170684,855
2021-12-10 14:02:38.170707,750
2021-12-10 14:02:38.170717,880
2021-12-10 14:02:38.170725,961
2021-12-10 14:02:38.170734,851
2021-12-10 14:02:38.170742,838
2021-12-10 14:02:38.170751,863
2021-12-10 14:02:38.170759,794
2021-12-10 14:02:38.170768,816
2021-12-10 14:02:38.170776,873
2021-12-10 14:02:38.170785,811
2021-12-10 14:02:38.170793,745
2021-12-10 14:02:38.170801,772
2021-12-10 14:02:38.170810,782
2021-12-10 14:02:38.170818,718
2021-12-10 14:02:38.170827,672
2021-12-10 14:02:38.170835,674
2021-12-10 14:02:38.170843,696
2021-12-10 14:02:38.170852,650
2021-12-10 14:02:38.170860,606
2021-12-10 14:02:38.170869,630
2021-12-10 14:02:38.170877,557
2021-12-10 14:02:38.170885,471
2021-12-10 14:02:38.170894,511
2021-12-10 14:02:38.170902,513
2021-12-10 14:02:38.170910,452
2021-12-10 14:02:38.170919,445
2021-12-10 14:02:38.170927,515
2021-12-10 14:02:38.170935,530
2021-12-10 14:02:38.170944,557
2021-12-10 14:02:38.440518,626
2021-12-10 14:02:38.440535,217
2021-12-10 14:02:38.440545,-491
2021-12-10 14:02:38.440554,-550
2021-12-10 14:02:38.440562,-83
2021-12-10 14:02:38.440571,129
2021-12-10 14:02:38.440579,161
2021-12-10 14:02:38.440588,273
2021-12-10 14:02:38.440596,281
2021-12-10 14:02:38.440605,286
2021-12-10 14:02:38.440613,381
2021-12-10 14:02:38.440622,305
2021-12-10 14:02:38.440630,193
2021-12-10 14:02:38.440638,283
2021-12-10 14:02:38.440647,293
2021-12-10 14:02:38.440655,190
2021-12-10 14:02:38.440664,229
2021-12-10 14:02:38.440672,298
2021-12-10 14:02:38.440681,271
2021-12-10 14:02:38.440689,234
2021-12-10 14:02:38.440697,244
2021-12-10 14:02:38.440706,259
2021-12-10 14:02:38.440714,232
2021-12-10 14:02:38.440722,215
2021-12-10 14:02:38.440731,288
2021-12-10 14:02:38.440739,371
2021-12-10 14:02:38.440748,347
2021-12-10 14:02:38.440756,308
2021-12-10 14:02:38.440764,300
2021-12-10 14:02:38.440772,246
2021-12-10 14:02:38.710826,193
2021-12-10 14:02:38.710849,151
2021-12-10 14:02:38.710859,85
2021-12-10 14:02:38.710867,-9
2021-12-10 14:02:38.710876,-105
2021-12-10 14:02:38.710885,-139
2021-12-10 14:02:38.710893,-129
2021-12-10 14:02:38.710902,-173
2021-12-10 14:02:38.710910,-278
2021-12-10 14:02:38.710919,-293
2021-12-10 14:02:38.710927,-178
2021-12-10 14:02:38.710936,-154
2021-12-10 14:02:38.710944,-273
2021-12-10 14:02:38.710953,-295
2021-12-10 14:02:38.710961,-215
2021-12-10 14:02:38.710970,-222
2021-12-10 14:02:38.710978,-269
2021-12-10 14:02:38.710987,-239
2021-12-10 14:02:38.710995,-205
2021-12-10 14:02:38.711004,-178
2021-12-10 14:02:38.711012,-136
2021-12-10 14:02:38.711021,-166
2021-12-10 14:02:38.711029,-217
2021-12-10 14:02:38.711037,-158
2021-12-10 14:02:38.711046,-117
2021-12-10 14:02:38.711054,-141
2021-12-10 14:02:38.711092,-161
2021-12-10 14:02:38.711100,-215
2021-12-10 14:02:38.711109,-205
2021-12-10 14:02:38.711117,-107
2021-12-10 14:02:38.979300,-114
2021-12-10 14:02:38.979318,-222
2021-12-10 14:02:38.979328,-195
2021-12-10 14:02:38.979337,-100
2021-12-10 14:02:38.979346,-141
2021-12-10 14:02:38.979355,-183
2021-12-10 14:02:38.979363,-139
2021-12-10 14:02:38.979372,-136
2021-12-10 14:02:38.979380,-161
2021-12-10 14:02:38.979389,-151
2021-12-10 14:02:38.979397,-146
2021-12-10 14:02:38.979406,-134
2021-12-10 14:02:38.979414,-88
2021-12-10 14:02:38.979423,-73
2021-12-10 14:02:38.979431,-100
2021-12-10 14:02:38.979440,-105
2021-12-10 14:02:38.979448,-110
2021-12-10 14:02:38.979457,-149
2021-12-10 14:02:38.979466,-146
2021-12-10 14:02:38.979474,-58
2021-12-10 14:02:38.979482,-83
2021-12-10 14:02:38.979491,-185
2021-12-10 14:02:38.979499,-141
2021-12-10 14:02:38.979508,-66
2021-12-10 14:02:38.979516,-58
2021-12-10 14:02:38.979526,-75
2021-12-10 14:02:38.979535,-68
2021-12-10 14:02:38.979543,2
2021-12-10 14:02:38.979552,173
2021-12-10 14:02:38.979560,339
2021-12-10 14:02:39.070612,29
2021-12-10 14:02:39.070631,-643
2021-12-10 14:02:39.070641,-868
2021-12-10 14:02:39.070650,-608
2021-12-10 14:02:39.070659,-313
2021-12-10 14:02:39.070667,-102
2021-12-10 14:02:39.070676,24
2021-12-10 14:02:39.070684,58
2021-12-10 14:02:39.070693,75
2021-12-10 14:02:39.070701,90
2021-12-10 14:02:39.070710,105
2021-12-10 14:02:39.070719,146
2021-12-10 14:02:39.070727,144
2021-12-10 14:02:39.070736,122
2021-12-10 14:02:39.070744,139
2021-12-10 14:02:39.070753,119
2021-12-10 14:02:39.070760,70
2021-12-10 14:02:39.070768,161
2021-12-10 14:02:39.070776,278
2021-12-10 14:02:39.070783,229
2021-12-10 14:02:39.070791,195
2021-12-10 14:02:39.070798,264
2021-12-10 14:02:39.070805,308
2021-12-10 14:02:39.070812,288
2021-12-10 14:02:39.070819,281
2021-12-10 14:02:39.070826,335
2021-12-10 14:02:39.070835,388
2021-12-10 14:02:39.070843,388
2021-12-10 14:02:39.070852,366
2021-12-10 14:02:39.070861,283
2021-12-10 14:02:39.295715,202
2021-12-10 14:02:39.295738,244
2021-12-10 14:02:39.295748,217
2021-12-10 14:02:39.295757,44
2021-12-10 14:02:39.295765,-24
2021-12-10 14:02:39.295774,2
2021-12-10 14:02:39.295783,-75
2021-12-10 14:02:39.295791,-114
2021-12-10 14:02:39.295800,-36
2021-12-10 14:02:39.295808,-68
2021-12-10 14:02:39.295817,-149
2021-12-10 14:02:39.295826,-124
2021-12-10 14:02:39.295834,-124
2021-12-10 14:02:39.295843,-144
2021-12-10 14:02:39.295852,-48
2021-12-10 14:02:39.295860,-29
2021-12-10 14:02:39.295869,-107
2021-12-10 14:02:39.295877,-58
2021-12-10 14:02:39.295886,-22
2021-12-10 14:02:39.295895,-85
2021-12-10 14:02:39.295903,-78
2021-12-10 14:02:39.295912,-36
2021-12-10 14:02:39.295920,-44
2021-12-10 14:02:39.295928,-26
2021-12-10 14:02:39.295937,-24
2021-12-10 14:02:39.295945,-66
2021-12-10 14:02:39.295954,-66
2021-12-10 14:02:39.295962,9
2021-12-10 14:02:39.295971,58
2021-12-10 14:02:39.295980,-51
2021-12-10 14:02:39.520721,-107
2021-12-10 14:02:39.520742,-44
2021-12-10 14:02:39.520752,-90
2021-12-10 14:02:39.520761,-85
2021-12-10 14:02:39.520769,9
2021-12-10 14:02:39.520778,-34
2021-12-10 14:02:39.520787,-58
2021-12-10 14:02:39.520795,-29
2021-12-10 14:02:39.520804,-70
2021-12-10 14:02:39.520812,-73
2021-12-10 14:02:39.520821,-31
2021-12-10 14:02:39.520829,-34
2021-12-10 14:02:39.520838,-24
2021-12-10 14:02:39.520846,-9
2021-12-10 14:02:39.520854,-44
2021-12-10 14:02:39.520863,-80
2021-12-10 14:02:39.520871,-68
2021-12-10 14:02:39.520880,-34
2021-12-10 14:02:39.520888,-2
2021-12-10 14:02:39.520897,-17
2021-12-10 14:02:39.520905,-107
2021-12-10 14:02:39.520914,-117
2021-12-10 14:02:39.520922,-29
2021-12-10 14:02:39.520930,-22
2021-12-10 14:02:39.520939,-102
2021-12-10 14:02:39.520947,-127
2021-12-10 14:02:39.520956,2
2021-12-10 14:02:39.520964,158
2021-12-10 14:02:39.520972,242
2021-12-10 14:02:39.520981,330
2021-12-10 14:02:39.790664,105
2021-12-10 14:02:39.790685,-528
2021-12-10 14:02:39.790695,-853
2021-12-10 14:02:39.790704,-657
2021-12-10 14:02:39.790713,-359
2021-12-10 14:02:39.790721,-124
2021-12-10 14:02:39.790730,14
2021-12-10 14:02:39.790739,39
2021-12-10 14:02:39.790747,56
2021-12-10 14:02:39.790755,90
2021-12-10 14:02:39.790764,119
2021-12-10 14:02:39.790772,168
2021-12-10 14:02:39.790781,139
2021-12-10 14:02:39.790789,90
2021-12-10 14:02:39.790797,134
2021-12-10 14:02:39.790806,144
2021-12-10 14:02:39.790814,124
2021-12-10 14:02:39.790822,154
2021-12-10 14:02:39.790831,185
2021-12-10 14:02:39.790839,227
2021-12-10 14:02:39.790848,237
2021-12-10 14:02:39.790856,158
2021-12-10 14:02:39.790864,154
2021-12-10 14:02:39.790873,337
2021-12-10 14:02:39.790881,410
2021-12-10 14:02:39.790890,288
2021-12-10 14:02:39.790898,276
2021-12-10 14:02:39.790907,347
2021-12-10 14:02:39.790915,313
2021-12-10 14:02:39.790923,269
2021-12-10 14:02:40.060781,259
2021-12-10 14:02:40.060802,207
2021-12-10 14:02:40.060812,102
2021-12-10 14:02:40.060821,-17
2021-12-10 14:02:40.060830,-44
2021-12-10 14:02:40.060839,4
2021-12-10 14:02:40.060847,-56
2021-12-10 14:02:40.060856,-154
2021-12-10 14:02:40.060865,-158
2021-12-10 14:02:40.060873,-149
2021-12-10 14:02:40.060882,-139
2021-12-10 14:02:40.060891,-122
2021-12-10 14:02:40.060899,-149
2021-12-10 14:02:40.060908,-127
2021-12-10 14:02:40.060917,-78
2021-12-10 14:02:40.060925,-132
2021-12-10 14:02:40.060934,-132
2021-12-10 14:02:40.060943,-105
2021-12-10 14:02:40.060951,-122
2021-12-10 14:02:40.060960,-58
2021-12-10 14:02:40.060968,-68
2021-12-10 14:02:40.060977,-144
2021-12-10 14:02:40.060985,-85
2021-12-10 14:02:40.060994,-7
2021-12-10 14:02:40.061002,-51
2021-12-10 14:02:40.061011,-92
2021-12-10 14:02:40.061019,-29
2021-12-10 14:02:40.061028,-53
2021-12-10 14:02:40.061036,-134
2021-12-10 14:02:40.061045,-105
2021-12-10 14:02:40.240712,-75
2021-12-10 14:02:40.240734,-110
2021-12-10 14:02:40.240744,-132
2021-12-10 14:02:40.240753,-73
2021-12-10 14:02:40.240762,-2
2021-12-10 14:02:40.240771,-92
2021-12-10 14:02:40.240779,-190
2021-12-10 14:02:40.240788,-112
2021-12-10 14:02:40.240797,-51
2021-12-10 14:02:40.240805,-127
2021-12-10 14:02:40.240814,-151
2021-12-10 14:02:40.240823,-61
2021-12-10 14:02:40.240831,-29
2021-12-10 14:02:40.240840,-80
2021-12-10 14:02:40.240848,-102
2021-12-10 14:02:40.240857,-102
2021-12-10 14:02:40.240865,-141
2021-12-10 14:02:40.240874,-110
2021-12-10 14:02:40.240882,-19
2021-12-10 14:02:40.240891,-90
2021-12-10 14:02:40.240899,-151
2021-12-10 14:02:40.240908,-78
2021-12-10 14:02:40.240916,-144
2021-12-10 14:02:40.240925,-205
2021-12-10 14:02:40.240933,-80
2021-12-10 14:02:40.240942,-122
2021-12-10 14:02:40.240950,-232
2021-12-10 14:02:40.240959,-136
2021-12-10 14:02:40.240968,0
2021-12-10 14:02:40.240976,46
2021-12-10 14:02:40.465718,122
2021-12-10 14:02:40.465740,246
2021-12-10 14:02:40.465750,-88
2021-12-10 14:02:40.465759,-787
2021-12-10 14:02:40.465767,-973
2021-12-10 14:02:40.465776,-630
2021-12-10 14:02:40.465784,-327
2021-12-10 14:02:40.465793,-222
2021-12-10 14:02:40.465801,-144
2021-12-10 14:02:40.465810,-24
2021-12-10 14:02:40.465818,51
2021-12-10 14:02:40.465827,-14
2021-12-10 14:02:40.465835,-31
2021-12-10 14:02:40.465844,80
2021-12-10 14:02:40.465852,46
2021-12-10 14:02:40.465861,17
2021-12-10 14:02:40.465869,100
2021-12-10 14:02:40.465878,66
2021-12-10 14:02:40.465886,-26
2021-12-10 14:02:40.465895,-17
2021-12-10 14:02:40.465903,61
2021-12-10 14:02:40.465912,92
2021-12-10 14:02:40.465920,75
2021-12-10 14:02:40.465928,92
2021-12-10 14:02:40.465937,166
2021-12-10 14:02:40.465945,173
2021-12-10 14:02:40.465954,124
2021-12-10 14:02:40.465962,200
2021-12-10 14:02:40.465971,234
2021-12-10 14:02:40.465979,119
2021-12-10 14:02:40.780105,110
2021-12-10 14:02:40.780127,144
2021-12-10 14:02:40.780137,53
2021-12-10 14:02:40.780146,-2
2021-12-10 14:02:40.780155,-34
2021-12-10 14:02:40.780163,-139
2021-12-10 14:02:40.780172,-168
2021-12-10 14:02:40.780180,-195
2021-12-10 14:02:40.780189,-300
2021-12-10 14:02:40.780197,-327
2021-12-10 14:02:40.780206,-347
2021-12-10 14:02:40.780214,-298
2021-12-10 14:02:40.780223,-176
2021-12-10 14:02:40.780231,-291
2021-12-10 14:02:40.780240,-442
2021-12-10 14:02:40.780249,-315
2021-12-10 14:02:40.780257,-200
2021-12-10 14:02:40.780266,-293
2021-12-10 14:02:40.780274,-320
2021-12-10 14:02:40.780283,-229
2021-12-10 14:02:40.780291,-264
2021-12-10 14:02:40.780300,-364
2021-12-10 14:02:40.780308,-286
2021-12-10 14:02:40.780317,-171
2021-12-10 14:02:40.780325,-220
2021-12-10 14:02:40.780333,-317
2021-12-10 14:02:40.780342,-283
2021-12-10 14:02:40.780350,-144
2021-12-10 14:02:40.780359,-198
2021-12-10 14:02:40.780377,-357
2021-12-10 14:02:40.959514,-315
2021-12-10 14:02:40.959537,-237
2021-12-10 14:02:40.959547,-320
2021-12-10 14:02:40.959556,-371
2021-12-10 14:02:40.959564,-207
2021-12-10 14:02:40.959576,-168
2021-12-10 14:02:40.959585,-347
2021-12-10 14:02:40.959593,-354
2021-12-10 14:02:40.959602,-261
2021-12-10 14:02:40.959611,-266
2021-12-10 14:02:40.959619,-327
2021-12-10 14:02:40.959628,-322
2021-12-10 14:02:40.959637,-242
2021-12-10 14:02:40.959645,-261
2021-12-10 14:02:40.959654,-303
2021-12-10 14:02:40.959663,-291
2021-12-10 14:02:40.959671,-303
2021-12-10 14:02:40.959680,-202
2021-12-10 14:02:40.959688,-158
2021-12-10 14:02:40.959697,-320
2021-12-10 14:02:40.959706,-361
2021-12-10 14:02:40.959714,-313
2021-12-10 14:02:40.959724,-303
2021-12-10 14:02:40.959733,-283
2021-12-10 14:02:40.959742,-295
2021-12-10 14:02:40.959750,-264
2021-12-10 14:02:40.959759,-264
2021-12-10 14:02:40.959767,-315
2021-12-10 14:02:40.959776,-249
2021-12-10 14:02:40.959784,-198
2021-12-10 14:02:41.140736,-185
2021-12-10 14:02:41.140758,-68
2021-12-10 14:02:41.140768,-105
2021-12-10 14:02:41.140777,-584
2021-12-10 14:02:41.140786,-1085
2021-12-10 14:02:41.140794,-1041
2021-12-10 14:02:41.140803,-706
2021-12-10 14:02:41.140811,-464
2021-12-10 14:02:41.140820,-295
2021-12-10 14:02:41.140828,-234
2021-12-10 14:02:41.140837,-220
2021-12-10 14:02:41.140846,-141
2021-12-10 14:02:41.140854,-139
2021-12-10 14:02:41.140863,-151
2021-12-10 14:02:41.140871,-51
2021-12-10 14:02:41.140880,-66
2021-12-10 14:02:41.140888,-146
2021-12-10 14:02:41.140896,-24
2021-12-10 14:02:41.140905,29
2021-12-10 14:02:41.140913,-85
2021-12-10 14:02:41.140922,-102
2021-12-10 14:02:41.140930,-95
2021-12-10 14:02:41.140939,-73
2021-12-10 14:02:41.140947,46
2021-12-10 14:02:41.140956,92
2021-12-10 14:02:41.140964,19
2021-12-10 14:02:41.140973,66
2021-12-10 14:02:41.140981,190
2021-12-10 14:02:41.140990,119
2021-12-10 14:02:41.140998,46
2021-12-10 14:02:41.455550,122
2021-12-10 14:02:41.455569,56
2021-12-10 14:02:41.455578,-36
2021-12-10 14:02:41.455587,19
2021-12-10 14:02:41.455596,24
2021-12-10 14:02:41.455605,-70
2021-12-10 14:02:41.455613,-234
2021-12-10 14:02:41.455622,-369
2021-12-10 14:02:41.455630,-278
2021-12-10 14:02:41.455639,-168
2021-12-10 14:02:41.455647,-305
2021-12-10 14:02:41.455656,-342
2021-12-10 14:02:41.455665,-249
2021-12-10 14:02:41.455673,-354
2021-12-10 14:02:41.455681,-374
2021-12-10 14:02:41.455690,-200
2021-12-10 14:02:41.455698,-200
2021-12-10 14:02:41.455707,-303
2021-12-10 14:02:41.455716,-305
2021-12-10 14:02:41.455724,-254
2021-12-10 14:02:41.455733,-205
2021-12-10 14:02:41.455741,-202
2021-12-10 14:02:41.455750,-215
2021-12-10 14:02:41.455758,-200
2021-12-10 14:02:41.455767,-149
2021-12-10 14:02:41.455775,-146
2021-12-10 14:02:41.455784,-210
2021-12-10 14:02:41.455792,-178
2021-12-10 14:02:41.455801,-124
2021-12-10 14:02:41.455809,-205
2021-12-10 14:02:41.635747,-246
2021-12-10 14:02:41.635770,-171
2021-12-10 14:02:41.635780,-163
2021-12-10 14:02:41.635789,-242
2021-12-10 14:02:41.635797,-210
2021-12-10 14:02:41.635806,-134
2021-12-10 14:02:41.635815,-198
2021-12-10 14:02:41.635823,-239
2021-12-10 14:02:41.635832,-178
2021-12-10 14:02:41.635840,-163
2021-12-10 14:02:41.635849,-188
2021-12-10 14:02:41.635857,-246
2021-12-10 14:02:41.635866,-229
2021-12-10 14:02:41.635874,-114
2021-12-10 14:02:41.635883,-132
2021-12-10 14:02:41.635891,-195
2021-12-10 14:02:41.635900,-156
2021-12-10 14:02:41.635908,-149
2021-12-10 14:02:41.635917,-188
2021-12-10 14:02:41.635925,-168
2021-12-10 14:02:41.635934,-132
2021-12-10 14:02:41.635942,-100
2021-12-10 14:02:41.635950,-78
2021-12-10 14:02:41.635959,-161
2021-12-10 14:02:41.635967,-217
2021-12-10 14:02:41.635975,-102
2021-12-10 14:02:41.635984,-83
2021-12-10 14:02:41.635992,-205
2021-12-10 14:02:41.636001,-217
2021-12-10 14:02:41.636009,-136
2021-12-10 14:02:41.860611,-129
2021-12-10 14:02:41.860632,-171
2021-12-10 14:02:41.860642,-134
2021-12-10 14:02:41.860651,-44
2021-12-10 14:02:41.860660,-9
2021-12-10 14:02:41.860669,41
2021-12-10 14:02:41.860678,193
2021-12-10 14:02:41.860686,4
2021-12-10 14:02:41.860695,-662
2021-12-10 14:02:41.860704,-1009
2021-12-10 14:02:41.860712,-728
2021-12-10 14:02:41.860721,-376
2021-12-10 14:02:41.860729,-256
2021-12-10 14:02:41.860738,-166
2021-12-10 14:02:41.860746,-7
2021-12-10 14:02:41.860755,48
2021-12-10 14:02:41.860763,2
2021-12-10 14:02:41.860772,-4
2021-12-10 14:02:41.860780,24
2021-12-10 14:02:41.860789,107
2021-12-10 14:02:41.860797,166
2021-12-10 14:02:41.860806,53
2021-12-10 14:02:41.860814,-9
2021-12-10 14:02:41.860823,75
2021-12-10 14:02:41.860831,112
2021-12-10 14:02:41.860840,102
2021-12-10 14:02:41.860849,110
2021-12-10 14:02:41.860857,168
2021-12-10 14:02:41.860866,227
2021-12-10 14:02:41.860874,161
2021-12-10 14:02:42.175709,134
2021-12-10 14:02:42.175729,261
2021-12-10 14:02:42.175739,347
2021-12-10 14:02:42.175748,317
2021-12-10 14:02:42.175757,232
2021-12-10 14:02:42.175766,173
2021-12-10 14:02:42.175774,222
2021-12-10 14:02:42.175783,227
2021-12-10 14:02:42.175791,95
2021-12-10 14:02:42.175800,68
2021-12-10 14:02:42.175809,44
2021-12-10 14:02:42.175817,-119
2021-12-10 14:02:42.175826,-107
2021-12-10 14:02:42.175834,-48
2021-12-10 14:02:42.175843,-188
2021-12-10 14:02:42.175851,-269
2021-12-10 14:02:42.175860,-224
2021-12-10 14:02:42.175868,-163
2021-12-10 14:02:42.175877,-88
2021-12-10 14:02:42.175885,-114
2021-12-10 14:02:42.175894,-237
2021-12-10 14:02:42.175902,-232
2021-12-10 14:02:42.175911,-141
2021-12-10 14:02:42.175919,-141
2021-12-10 14:02:42.175928,-83
2021-12-10 14:02:42.175936,-2
2021-12-10 14:02:42.175944,-117
2021-12-10 14:02:42.175953,-178
2021-12-10 14:02:42.175961,-90
2021-12-10 14:02:42.175970,-97
2021-12-10 14:02:42.310686,-78
2021-12-10 14:02:42.310706,-14
2021-12-10 14:02:42.310716,-92
2021-12-10 14:02:42.310725,-134
2021-12-10 14:02:42.310734,-95
2021-12-10 14:02:42.310742,-75
2021-12-10 14:02:42.310751,-44
2021-12-10 14:02:42.310759,-85
2021-12-10 14:02:42.310768,-158
2021-12-10 14:02:42.310776,-102
2021-12-10 14:02:42.310785,-73
2021-12-10 14:02:42.310793,-136
2021-12-10 14:02:42.310802,-102
2021-12-10 14:02:42.310810,-80
2021-12-10 14:02:42.310819,-136
2021-12-10 14:02:42.310827,-105
2021-12-10 14:02:42.310836,-75
2021-12-10 14:02:42.310844,-122
2021-12-10 14:02:42.310853,-95
2021-12-10 14:02:42.310861,-53
2021-12-10 14:02:42.310870,-119
2021-12-10 14:02:42.310878,-136
2021-12-10 14:02:42.310886,-70
2021-12-10 14:02:42.310895,-53
2021-12-10 14:02:42.310903,-80
2021-12-10 14:02:42.310912,-107
2021-12-10 14:02:42.310920,-95
2021-12-10 14:02:42.310929,-41
2021-12-10 14:02:42.310937,-51
2021-12-10 14:02:42.310946,-149
2021-12-10 14:02:42.580607,-105
2021-12-10 14:02:42.580626,19
2021-12-10 14:02:42.580636,-58
2021-12-10 14:02:42.580645,-156
2021-12-10 14:02:42.580654,-102
2021-12-10 14:02:42.580663,-97
2021-12-10 14:02:42.580671,-102
2021-12-10 14:02:42.580680,-80
2021-12-10 14:02:42.580688,-134
2021-12-10 14:02:42.580697,-114
2021-12-10 14:02:42.580705,-51
2021-12-10 14:02:42.580714,-85
2021-12-10 14:02:42.580722,-34
2021-12-10 14:02:42.580731,158
2021-12-10 14:02:42.580739,342
2021-12-10 14:02:42.580748,119
2021-12-10 14:02:42.580756,-569
2021-12-10 14:02:42.580764,-948
2021-12-10 14:02:42.580773,-775
2021-12-10 14:02:42.580781,-491
2021-12-10 14:02:42.580790,-266
2021-12-10 14:02:42.580798,7
2021-12-10 14:02:42.580806,151
2021-12-10 14:02:42.580815,-4
2021-12-10 14:02:42.580823,-46
2021-12-10 14:02:42.580832,114
2021-12-10 14:02:42.580840,119
2021-12-10 14:02:42.580849,46
2021-12-10 14:02:42.580857,48
2021-12-10 14:02:42.580866,80
2021-12-10 14:02:42.805028,119
2021-12-10 14:02:42.805046,110
2021-12-10 14:02:42.805056,95
2021-12-10 14:02:42.805065,144
2021-12-10 14:02:42.805074,146
2021-12-10 14:02:42.805082,129
2021-12-10 14:02:42.805091,220
2021-12-10 14:02:42.805100,229
2021-12-10 14:02:42.805108,134
2021-12-10 14:02:42.805117,200
2021-12-10 14:02:42.805125,327
2021-12-10 14:02:42.805134,298
2021-12-10 14:02:42.805142,198
2021-12-10 14:02:42.805151,166
2021-12-10 14:02:42.805160,259
2021-12-10 14:02:42.805168,293
2021-12-10 14:02:42.805177,114
2021-12-10 14:02:42.805185,4
2021-12-10 14:02:42.805194,24
2021-12-10 14:02:42.805202,-26
2021-12-10 14:02:42.805211,-117
2021-12-10 14:02:42.805219,-198
2021-12-10 14:02:42.805227,-200
2021-12-10 14:02:42.805236,-144
2021-12-10 14:02:42.805245,-171
2021-12-10 14:02:42.805253,-215
2021-12-10 14:02:42.805261,-183
2021-12-10 14:02:42.805270,-129
2021-12-10 14:02:42.805278,-124
2021-12-10 14:02:42.805287,-195
2021-12-10 14:02:43.074344,-200
2021-12-10 14:02:43.074364,-119
2021-12-10 14:02:43.074374,-166
2021-12-10 14:02:43.074383,-188
2021-12-10 14:02:43.074391,-66
2021-12-10 14:02:43.074400,-73
2021-12-10 14:02:43.074408,-166
2021-12-10 14:02:43.074417,-90
2021-12-10 14:02:43.074425,-12
2021-12-10 14:02:43.074434,-110
2021-12-10 14:02:43.074442,-158
2021-12-10 14:02:43.074451,-83
2021-12-10 14:02:43.074459,-100
2021-12-10 14:02:43.074467,-173
2021-12-10 14:02:43.074476,-88
2021-12-10 14:02:43.074484,-19
2021-12-10 14:02:43.074493,-127
2021-12-10 14:02:43.074501,-149
2021-12-10 14:02:43.074510,-83
2021-12-10 14:02:43.074518,-107
2021-12-10 14:02:43.074527,-139
2021-12-10 14:02:43.074535,-97
2021-12-10 14:02:43.074544,-114
2021-12-10 14:02:43.074552,-141
2021-12-10 14:02:43.074561,-70
2021-12-10 14:02:43.074569,-107
2021-12-10 14:02:43.074578,-207
2021-12-10 14:02:43.074586,-134
2021-12-10 14:02:43.074594,-29
2021-12-10 14:02:43.074603,-61
2021-12-10 14:02:43.255743,-117
2021-12-10 14:02:43.255764,-95
2021-12-10 14:02:43.255773,-95
2021-12-10 14:02:43.255782,-107
2021-12-10 14:02:43.255791,-73
2021-12-10 14:02:43.255800,-117
2021-12-10 14:02:43.255808,-122
2021-12-10 14:02:43.255817,-44
2021-12-10 14:02:43.255825,-75
2021-12-10 14:02:43.255834,-80
2021-12-10 14:02:43.255843,-39
2021-12-10 14:02:43.255851,-95
2021-12-10 14:02:43.255860,-80
2021-12-10 14:02:43.255868,-63
2021-12-10 14:02:43.255877,-107
2021-12-10 14:02:43.255885,-31
2021-12-10 14:02:43.255894,-48
2021-12-10 14:02:43.255902,-176
2021-12-10 14:02:43.255911,-117
2021-12-10 14:02:43.255919,-24
2021-12-10 14:02:43.255928,-114
2021-12-10 14:02:43.255936,-151
2021-12-10 14:02:43.255944,-2
2021-12-10 14:02:43.255953,53
2021-12-10 14:02:43.255962,9
2021-12-10 14:02:43.255970,158
2021-12-10 14:02:43.255979,251
2021-12-10 14:02:43.255987,-178
2021-12-10 14:02:43.255995,-821
2021-12-10 14:02:43.256004,-917
2021-12-10 14:02:43.435741,-498
2021-12-10 14:02:43.435763,-200
2021-12-10 14:02:43.435773,-161
2021-12-10 14:02:43.435782,-53
2021-12-10 14:02:43.435791,88
2021-12-10 14:02:43.435799,51
2021-12-10 14:02:43.435808,46
2021-12-10 14:02:43.435816,144
2021-12-10 14:02:43.435825,144
2021-12-10 14:02:43.435834,68
2021-12-10 14:02:43.435842,48
2021-12-10 14:02:43.435850,85
2021-12-10 14:02:43.435859,119
2021-12-10 14:02:43.435867,180
2021-12-10 14:02:43.435876,149
2021-12-10 14:02:43.435884,48
2021-12-10 14:02:43.435893,146
2021-12-10 14:02:43.435901,227
2021-12-10 14:02:43.435910,132
2021-12-10 14:02:43.435918,171
2021-12-10 14:02:43.435927,276
2021-12-10 14:02:43.435935,195
2021-12-10 14:02:43.435944,183
2021-12-10 14:02:43.435952,303
2021-12-10 14:02:43.435961,251
2021-12-10 14:02:43.435969,180
2021-12-10 14:02:43.435977,217
2021-12-10 14:02:43.435986,154
2021-12-10 14:02:43.435994,56
2021-12-10 14:02:43.436003,-9
2021-12-10 14:02:43.660772,-119
2021-12-10 14:02:43.660794,-117
2021-12-10 14:02:43.660804,-46
2021-12-10 14:02:43.660813,-146
2021-12-10 14:02:43.660822,-273
2021-12-10 14:02:43.660831,-269
2021-12-10 14:02:43.660839,-229
2021-12-10 14:02:43.660848,-217
2021-12-10 14:02:43.660856,-200
2021-12-10 14:02:43.660865,-136
2021-12-10 14:02:43.660873,-136
2021-12-10 14:02:43.660882,-193
2021-12-10 14:02:43.660891,-222
2021-12-10 14:02:43.660899,-232
2021-12-10 14:02:43.660908,-171
2021-12-10 14:02:43.660916,-95
2021-12-10 14:02:43.660925,-124
2021-12-10 14:02:43.660933,-180
2021-12-10 14:02:43.660942,-146
2021-12-10 14:02:43.660951,-129
2021-12-10 14:02:43.660959,-163
2021-12-10 14:02:43.660968,-119
2021-12-10 14:02:43.660976,-83
2021-12-10 14:02:43.660985,-163
2021-12-10 14:02:43.660994,-149
2021-12-10 14:02:43.661002,-63
2021-12-10 14:02:43.661011,-166
2021-12-10 14:02:43.661019,-210
2021-12-10 14:02:43.661028,-122
2021-12-10 14:02:43.661036,-151
2021-12-10 14:02:43.930867,-207
2021-12-10 14:02:43.930889,-183
2021-12-10 14:02:43.930899,-144
2021-12-10 14:02:43.930908,-139
2021-12-10 14:02:43.930917,-156
2021-12-10 14:02:43.930926,-166
2021-12-10 14:02:43.930934,-146
2021-12-10 14:02:43.930943,-117
2021-12-10 14:02:43.930951,-178
2021-12-10 14:02:43.930960,-261
2021-12-10 14:02:43.930969,-171
2021-12-10 14:02:43.930977,-48
2021-12-10 14:02:43.930986,-146
2021-12-10 14:02:43.930995,-237
2021-12-10 14:02:43.931003,-134
2021-12-10 14:02:43.931012,-112
2021-12-10 14:02:43.931021,-188
2021-12-10 14:02:43.931029,-180
2021-12-10 14:02:43.931038,-114
2021-12-10 14:02:43.931046,-100
2021-12-10 14:02:43.931055,-156
2021-12-10 14:02:43.931093,-124
2021-12-10 14:02:43.931102,-44
2021-12-10 14:02:43.931110,-117
2021-12-10 14:02:43.931119,-190
2021-12-10 14:02:43.931128,-132
2021-12-10 14:02:43.931136,-119
2021-12-10 14:02:43.931145,-188
2021-12-10 14:02:43.931153,-180
2021-12-10 14:02:43.931162,-141
2021-12-10 14:02:44.155760,-127
2021-12-10 14:02:44.155782,-92
2021-12-10 14:02:44.155792,-119
2021-12-10 14:02:44.155800,-132
2021-12-10 14:02:44.155809,-51
2021-12-10 14:02:44.155818,-4
2021-12-10 14:02:44.155826,58
2021-12-10 14:02:44.155834,78
2021-12-10 14:02:44.155898,-281
2021-12-10 14:02:44.155908,-863
2021-12-10 14:02:44.155917,-934
2021-12-10 14:02:44.155925,-515
2021-12-10 14:02:44.155934,-308
2021-12-10 14:02:44.155942,-217
2021-12-10 14:02:44.155951,-51
2021-12-10 14:02:44.155959,-46
2021-12-10 14:02:44.155968,-46
2021-12-10 14:02:44.155976,114
2021-12-10 14:02:44.155985,132
2021-12-10 14:02:44.155993,-26
2021-12-10 14:02:44.156001,12
2021-12-10 14:02:44.156010,119
2021-12-10 14:02:44.156018,90
2021-12-10 14:02:44.156027,95
2021-12-10 14:02:44.156035,80
2021-12-10 14:02:44.156044,41
2021-12-10 14:02:44.156052,139
2021-12-10 14:02:44.156060,176
2021-12-10 14:02:44.156069,83
2021-12-10 14:02:44.156077,92
2021-12-10 14:02:44.380824,190
2021-12-10 14:02:44.380846,227
2021-12-10 14:02:44.380856,229
2021-12-10 14:02:44.380865,242
2021-12-10 14:02:44.380873,234
2021-12-10 14:02:44.380882,198
2021-12-10 14:02:44.380890,163
2021-12-10 14:02:44.380899,158
2021-12-10 14:02:44.380907,119
2021-12-10 14:02:44.380916,-7
2021-12-10 14:02:44.380925,-44
2021-12-10 14:02:44.380933,9
2021-12-10 14:02:44.380942,-139
2021-12-10 14:02:44.380950,-295
2021-12-10 14:02:44.380959,-168
2021-12-10 14:02:44.380967,-88
2021-12-10 14:02:44.380976,-183
2021-12-10 14:02:44.380985,-276
2021-12-10 14:02:44.380993,-322
2021-12-10 14:02:44.381002,-256
2021-12-10 14:02:44.381010,-134
2021-12-10 14:02:44.381019,-134
2021-12-10 14:02:44.381027,-193
2021-12-10 14:02:44.381036,-202
2021-12-10 14:02:44.381044,-220
2021-12-10 14:02:44.381053,-146
2021-12-10 14:02:44.381061,-63
2021-12-10 14:02:44.381070,-183
2021-12-10 14:02:44.381078,-193
2021-12-10 14:02:44.381087,-48
2021-12-10 14:02:44.605830,-102
2021-12-10 14:02:44.605853,-161
2021-12-10 14:02:44.605863,-70
2021-12-10 14:02:44.605871,-136
2021-12-10 14:02:44.605880,-200
2021-12-10 14:02:44.605889,-80
2021-12-10 14:02:44.605897,-114
2021-12-10 14:02:44.605906,-195
2021-12-10 14:02:44.605914,-136
2021-12-10 14:02:44.605923,-180
2021-12-10 14:02:44.605931,-207
2021-12-10 14:02:44.605940,-95
2021-12-10 14:02:44.605948,-75
2021-12-10 14:02:44.605957,-149
2021-12-10 14:02:44.605965,-178
2021-12-10 14:02:44.605974,-154
2021-12-10 14:02:44.605982,-168
