Time,ECG
2021-12-10 14:07:17.107764,70
2021-12-10 14:07:17.107783,-14
2021-12-10 14:07:17.107793,-80
2021-12-10 14:07:17.107802,-156
2021-12-10 14:07:17.107810,-188
2021-12-10 14:07:17.107819,-220
2021-12-10 14:07:17.107828,-237
2021-12-10 14:07:17.107836,-222
2021-12-10 14:07:17.107845,-242
2021-12-10 14:07:17.107854,-237
2021-12-10 14:07:17.107863,-205
2021-12-10 14:07:17.107871,-210
2021-12-10 14:07:17.107880,-210
2021-12-10 14:07:17.107888,-198
2021-12-10 14:07:17.107897,-193
2021-12-10 14:07:17.107905,-166
2021-12-10 14:07:17.107914,-161
2021-12-10 14:07:17.107923,-154
2021-12-10 14:07:17.107931,-119
2021-12-10 14:07:17.107940,-139
2021-12-10 14:07:17.107948,-156
2021-12-10 14:07:17.107957,-117
2021-12-10 14:07:17.107965,-127
2021-12-10 14:07:17.107974,-146
2021-12-10 14:07:17.107982,-114
2021-12-10 14:07:17.107990,-119
2021-12-10 14:07:17.107999,-122
2021-12-10 14:07:17.108008,-97
2021-12-10 14:07:17.108016,-124
2021-12-10 14:07:17.108025,-144
2021-12-10 14:07:17.108102,-139
2021-12-10 14:07:17.108112,-124
2021-12-10 14:07:17.108121,-95
2021-12-10 14:07:17.108130,-90
2021-12-10 14:07:17.108139,-122
2021-12-10 14:07:17.108147,-117
2021-12-10 14:07:17.108157,-95
2021-12-10 14:07:17.108165,-134
2021-12-10 14:07:17.108174,-127
2021-12-10 14:07:17.108182,-53
2021-12-10 14:07:17.108191,-78
2021-12-10 14:07:17.108200,-139
2021-12-10 14:07:17.108208,-122
2021-12-10 14:07:17.108217,-97
2021-12-10 14:07:17.108226,-119
2021-12-10 14:07:17.108234,-119
2021-12-10 14:07:17.108243,-83
2021-12-10 14:07:17.108252,-80
2021-12-10 14:07:17.108261,-105
2021-12-10 14:07:17.108270,-105
2021-12-10 14:07:17.108278,-80
2021-12-10 14:07:17.108287,-51
2021-12-10 14:07:17.108295,-58
2021-12-10 14:07:17.108304,-90
2021-12-10 14:07:17.108312,-83
2021-12-10 14:07:17.108321,-75
2021-12-10 14:07:17.108329,-85
2021-12-10 14:07:17.108338,-46
2021-12-10 14:07:17.108346,0
2021-12-10 14:07:17.108357,-48
2021-12-10 14:07:17.263618,-119
2021-12-10 14:07:17.263637,-107
2021-12-10 14:07:17.263646,-75
2021-12-10 14:07:17.263655,-85
2021-12-10 14:07:17.263664,-129
2021-12-10 14:07:17.263672,-129
2021-12-10 14:07:17.263681,-70
2021-12-10 14:07:17.263689,-85
2021-12-10 14:07:17.263698,-68
2021-12-10 14:07:17.263706,80
2021-12-10 14:07:17.263715,246
2021-12-10 14:07:17.263723,579
2021-12-10 14:07:17.263732,667
2021-12-10 14:07:17.263743,-154
2021-12-10 14:07:17.263752,-970
2021-12-10 14:07:17.263760,-784
2021-12-10 14:07:17.263769,-305
2021-12-10 14:07:17.263777,-224
2021-12-10 14:07:17.263786,-141
2021-12-10 14:07:17.263794,24
2021-12-10 14:07:17.263803,7
2021-12-10 14:07:17.263811,-14
2021-12-10 14:07:17.263820,48
2021-12-10 14:07:17.263828,51
2021-12-10 14:07:17.263837,36
2021-12-10 14:07:17.263845,61
2021-12-10 14:07:17.263854,44
2021-12-10 14:07:17.263862,53
2021-12-10 14:07:17.263870,129
2021-12-10 14:07:17.263880,112
2021-12-10 14:07:17.488597,73
2021-12-10 14:07:17.488616,151
2021-12-10 14:07:17.488626,202
2021-12-10 14:07:17.488634,173
2021-12-10 14:07:17.488643,188
2021-12-10 14:07:17.488652,242
2021-12-10 14:07:17.488660,278
2021-12-10 14:07:17.488669,315
2021-12-10 14:07:17.488678,313
2021-12-10 14:07:17.488686,242
2021-12-10 14:07:17.488695,195
2021-12-10 14:07:17.488703,202
2021-12-10 14:07:17.488712,139
2021-12-10 14:07:17.488720,-9
2021-12-10 14:07:17.488729,-92
2021-12-10 14:07:17.488737,-136
2021-12-10 14:07:17.488746,-200
2021-12-10 14:07:17.488756,-244
2021-12-10 14:07:17.488765,-293
2021-12-10 14:07:17.488773,-317
2021-12-10 14:07:17.488782,-298
2021-12-10 14:07:17.488790,-303
2021-12-10 14:07:17.488799,-327
2021-12-10 14:07:17.488807,-317
2021-12-10 14:07:17.488816,-286
2021-12-10 14:07:17.488824,-295
2021-12-10 14:07:17.488833,-310
2021-12-10 14:07:17.488841,-256
2021-12-10 14:07:17.488850,-237
2021-12-10 14:07:17.488858,-269
2021-12-10 14:07:17.758593,-259
2021-12-10 14:07:17.758612,-224
2021-12-10 14:07:17.758622,-212
2021-12-10 14:07:17.758630,-207
2021-12-10 14:07:17.758639,-193
2021-12-10 14:07:17.758648,-185
2021-12-10 14:07:17.758656,-188
2021-12-10 14:07:17.758669,-210
2021-12-10 14:07:17.758678,-237
2021-12-10 14:07:17.758686,-242
2021-12-10 14:07:17.758695,-180
2021-12-10 14:07:17.758703,-171
2021-12-10 14:07:17.758712,-254
2021-12-10 14:07:17.758720,-224
2021-12-10 14:07:17.758729,-139
2021-12-10 14:07:17.758737,-212
2021-12-10 14:07:17.758746,-281
2021-12-10 14:07:17.758754,-198
2021-12-10 14:07:17.758763,-161
2021-12-10 14:07:17.758771,-210
2021-12-10 14:07:17.758780,-207
2021-12-10 14:07:17.758788,-200
2021-12-10 14:07:17.758797,-229
2021-12-10 14:07:17.758805,-212
2021-12-10 14:07:17.758813,-171
2021-12-10 14:07:17.758822,-163
2021-12-10 14:07:17.758830,-176
2021-12-10 14:07:17.758839,-154
2021-12-10 14:07:17.758847,-134
2021-12-10 14:07:17.758857,-154
2021-12-10 14:07:17.983634,-154
2021-12-10 14:07:17.983654,-185
2021-12-10 14:07:17.983663,-212
2021-12-10 14:07:17.983672,-154
2021-12-10 14:07:17.983681,-146
2021-12-10 14:07:17.983689,-193
2021-12-10 14:07:17.983698,-178
2021-12-10 14:07:17.983707,-161
2021-12-10 14:07:17.983715,-195
2021-12-10 14:07:17.983724,-188
2021-12-10 14:07:17.983732,-90
2021-12-10 14:07:17.983741,-26
2021-12-10 14:07:17.983749,48
2021-12-10 14:07:17.983758,366
2021-12-10 14:07:17.983766,462
2021-12-10 14:07:17.983775,-249
2021-12-10 14:07:17.983783,-961
2021-12-10 14:07:17.983792,-826
2021-12-10 14:07:17.983801,-403
2021-12-10 14:07:17.983809,-291
2021-12-10 14:07:17.983818,-222
2021-12-10 14:07:17.983826,-58
2021-12-10 14:07:17.983835,-12
2021-12-10 14:07:17.983843,-73
2021-12-10 14:07:17.983855,-51
2021-12-10 14:07:17.983864,61
2021-12-10 14:07:17.983873,70
2021-12-10 14:07:17.983881,9
2021-12-10 14:07:17.983890,19
2021-12-10 14:07:17.983898,66
2021-12-10 14:07:18.342234,51
2021-12-10 14:07:18.342253,29
2021-12-10 14:07:18.342263,80
2021-12-10 14:07:18.342271,141
2021-12-10 14:07:18.342280,166
2021-12-10 14:07:18.342289,200
2021-12-10 14:07:18.342297,224
2021-12-10 14:07:18.342306,224
2021-12-10 14:07:18.342314,269
2021-12-10 14:07:18.342323,322
2021-12-10 14:07:18.342331,322
2021-12-10 14:07:18.342340,303
2021-12-10 14:07:18.342348,244
2021-12-10 14:07:18.342357,180
2021-12-10 14:07:18.342365,122
2021-12-10 14:07:18.342374,7
2021-12-10 14:07:18.342382,-61
2021-12-10 14:07:18.342391,-70
2021-12-10 14:07:18.342399,-180
2021-12-10 14:07:18.342408,-242
2021-12-10 14:07:18.342417,-224
2021-12-10 14:07:18.342425,-286
2021-12-10 14:07:18.342435,-317
2021-12-10 14:07:18.342444,-283
2021-12-10 14:07:18.342453,-224
2021-12-10 14:07:18.342461,-193
2021-12-10 14:07:18.342470,-256
2021-12-10 14:07:18.342478,-293
2021-12-10 14:07:18.342487,-251
2021-12-10 14:07:18.342495,-220
2021-12-10 14:07:18.433632,-234
2021-12-10 14:07:18.433652,-212
2021-12-10 14:07:18.433662,-151
2021-12-10 14:07:18.433671,-198
2021-12-10 14:07:18.433680,-207
2021-12-10 14:07:18.433688,-110
2021-12-10 14:07:18.433697,-139
2021-12-10 14:07:18.433705,-229
2021-12-10 14:07:18.433714,-193
2021-12-10 14:07:18.433722,-124
2021-12-10 14:07:18.433730,-151
2021-12-10 14:07:18.433739,-185
2021-12-10 14:07:18.433748,-127
2021-12-10 14:07:18.433756,-114
2021-12-10 14:07:18.433764,-200
2021-12-10 14:07:18.433773,-195
2021-12-10 14:07:18.433781,-122
2021-12-10 14:07:18.433790,-149
2021-12-10 14:07:18.433798,-210
2021-12-10 14:07:18.433807,-205
2021-12-10 14:07:18.433815,-146
2021-12-10 14:07:18.433824,-112
2021-12-10 14:07:18.433832,-173
2021-12-10 14:07:18.433841,-185
2021-12-10 14:07:18.433853,-95
2021-12-10 14:07:18.433862,-119
2021-12-10 14:07:18.433870,-212
2021-12-10 14:07:18.433879,-156
2021-12-10 14:07:18.433887,-48
2021-12-10 14:07:18.433896,-75
2021-12-10 14:07:18.748051,-185
2021-12-10 14:07:18.748070,-190
2021-12-10 14:07:18.748080,-83
2021-12-10 14:07:18.748089,-53
2021-12-10 14:07:18.748098,-83
2021-12-10 14:07:18.748106,-70
2021-12-10 14:07:18.748115,-36
2021-12-10 14:07:18.748124,19
2021-12-10 14:07:18.748132,36
2021-12-10 14:07:18.748141,-26
2021-12-10 14:07:18.748149,-66
2021-12-10 14:07:18.748158,-4
2021-12-10 14:07:18.748166,46
2021-12-10 14:07:18.748175,19
2021-12-10 14:07:18.748184,34
2021-12-10 14:07:18.748192,107
2021-12-10 14:07:18.748201,97
2021-12-10 14:07:18.748209,127
2021-12-10 14:07:18.748218,266
2021-12-10 14:07:18.748226,273
2021-12-10 14:07:18.748235,425
2021-12-10 14:07:18.748243,890
2021-12-10 14:07:18.748251,723
2021-12-10 14:07:18.748260,-200
2021-12-10 14:07:18.748269,-591
2021-12-10 14:07:18.748277,-210
2021-12-10 14:07:18.748285,112
2021-12-10 14:07:18.748294,205
2021-12-10 14:07:18.748302,401
2021-12-10 14:07:18.748311,572
2021-12-10 14:07:18.928648,545
2021-12-10 14:07:18.928668,533
2021-12-10 14:07:18.928678,599
2021-12-10 14:07:18.928686,616
2021-12-10 14:07:18.928695,616
2021-12-10 14:07:18.928703,701
2021-12-10 14:07:18.928712,743
2021-12-10 14:07:18.928720,699
2021-12-10 14:07:18.928729,714
2021-12-10 14:07:18.928737,743
2021-12-10 14:07:18.928745,814
2021-12-10 14:07:18.928754,936
2021-12-10 14:07:18.928762,863
2021-12-10 14:07:18.928771,831
2021-12-10 14:07:18.928779,980
2021-12-10 14:07:18.928787,1007
2021-12-10 14:07:18.928796,1024
2021-12-10 14:07:18.928804,1088
2021-12-10 14:07:18.928813,1134
2021-12-10 14:07:18.928821,1139
2021-12-10 14:07:18.928830,1071
2021-12-10 14:07:18.928838,1076
2021-12-10 14:07:18.928847,992
2021-12-10 14:07:18.928855,833
2021-12-10 14:07:18.928863,804
2021-12-10 14:07:18.928872,696
2021-12-10 14:07:18.928880,552
2021-12-10 14:07:18.928888,518
2021-12-10 14:07:18.928897,440
2021-12-10 14:07:18.928905,432
2021-12-10 14:07:19.198699,486
2021-12-10 14:07:19.198720,413
2021-12-10 14:07:19.198730,347
2021-12-10 14:07:19.198739,305
2021-12-10 14:07:19.198748,273
2021-12-10 14:07:19.198756,300
2021-12-10 14:07:19.198765,286
2021-12-10 14:07:19.198774,276
2021-12-10 14:07:19.198782,325
2021-12-10 14:07:19.198791,320
2021-12-10 14:07:19.198802,300
2021-12-10 14:07:19.198811,281
2021-12-10 14:07:19.198819,237
2021-12-10 14:07:19.198828,266
2021-12-10 14:07:19.198837,283
2021-12-10 14:07:19.198845,313
2021-12-10 14:07:19.198854,359
2021-12-10 14:07:19.198862,271
2021-12-10 14:07:19.198871,183
2021-12-10 14:07:19.198879,202
2021-12-10 14:07:19.198888,239
2021-12-10 14:07:19.198896,291
2021-12-10 14:07:19.198905,283
2021-12-10 14:07:19.198914,176
2021-12-10 14:07:19.198922,141
2021-12-10 14:07:19.198931,183
2021-12-10 14:07:19.198939,117
2021-12-10 14:07:19.198947,80
2021-12-10 14:07:19.198956,210
2021-12-10 14:07:19.198964,239
2021-12-10 14:07:19.333729,151
2021-12-10 14:07:19.333750,158
2021-12-10 14:07:19.333760,198
2021-12-10 14:07:19.333769,176
2021-12-10 14:07:19.333778,136
2021-12-10 14:07:19.333787,166
2021-12-10 14:07:19.333795,210
2021-12-10 14:07:19.333804,193
2021-12-10 14:07:19.333812,200
2021-12-10 14:07:19.333821,246
2021-12-10 14:07:19.333829,234
2021-12-10 14:07:19.333838,242
2021-12-10 14:07:19.333846,303
2021-12-10 14:07:19.333855,266
2021-12-10 14:07:19.333863,193
2021-12-10 14:07:19.333872,190
2021-12-10 14:07:19.333880,188
2021-12-10 14:07:19.333889,176
2021-12-10 14:07:19.333897,180
2021-12-10 14:07:19.333906,205
2021-12-10 14:07:19.333914,244
2021-12-10 14:07:19.333923,261
2021-12-10 14:07:19.333931,293
2021-12-10 14:07:19.333940,317
2021-12-10 14:07:19.333948,342
2021-12-10 14:07:19.333962,533
2021-12-10 14:07:19.333970,841
2021-12-10 14:07:19.333979,831
2021-12-10 14:07:19.333987,156
2021-12-10 14:07:19.333995,-657
2021-12-10 14:07:19.648095,-674
2021-12-10 14:07:19.648116,-95
2021-12-10 14:07:19.648126,193
2021-12-10 14:07:19.648135,207
2021-12-10 14:07:19.648144,273
2021-12-10 14:07:19.648152,342
2021-12-10 14:07:19.648161,335
2021-12-10 14:07:19.648169,293
2021-12-10 14:07:19.648178,335
2021-12-10 14:07:19.648186,371
2021-12-10 14:07:19.648195,379
2021-12-10 14:07:19.648204,371
2021-12-10 14:07:19.648212,322
2021-12-10 14:07:19.648220,418
2021-12-10 14:07:19.648229,506
2021-12-10 14:07:19.648237,354
2021-12-10 14:07:19.648246,342
2021-12-10 14:07:19.648254,513
2021-12-10 14:07:19.648262,538
2021-12-10 14:07:19.648271,506
2021-12-10 14:07:19.648279,591
2021-12-10 14:07:19.648288,672
2021-12-10 14:07:19.648296,577
2021-12-10 14:07:19.648304,530
2021-12-10 14:07:19.648313,682
2021-12-10 14:07:19.648321,648
2021-12-10 14:07:19.648330,420
2021-12-10 14:07:19.648338,396
2021-12-10 14:07:19.648347,420
2021-12-10 14:07:19.648355,229
2021-12-10 14:07:19.783674,75
2021-12-10 14:07:19.783694,85
2021-12-10 14:07:19.783704,34
2021-12-10 14:07:19.783713,-51
2021-12-10 14:07:19.783721,-41
2021-12-10 14:07:19.783730,-36
2021-12-10 14:07:19.783738,-63
2021-12-10 14:07:19.783747,-66
2021-12-10 14:07:19.783755,-31
2021-12-10 14:07:19.783764,36
2021-12-10 14:07:19.783772,68
2021-12-10 14:07:19.783781,29
2021-12-10 14:07:19.783789,26
2021-12-10 14:07:19.783797,88
2021-12-10 14:07:19.783806,78
2021-12-10 14:07:19.783814,29
2021-12-10 14:07:19.783828,124
2021-12-10 14:07:19.783837,188
2021-12-10 14:07:19.783845,80
2021-12-10 14:07:19.783854,90
2021-12-10 14:07:19.783862,195
2021-12-10 14:07:19.783871,188
2021-12-10 14:07:19.783879,195
2021-12-10 14:07:19.783887,166
2021-12-10 14:07:19.783896,88
2021-12-10 14:07:19.783904,132
2021-12-10 14:07:19.783912,210
2021-12-10 14:07:19.783921,193
2021-12-10 14:07:19.783929,139
2021-12-10 14:07:19.783938,136
2021-12-10 14:07:20.053548,195
2021-12-10 14:07:20.053566,193
2021-12-10 14:07:20.053576,129
2021-12-10 14:07:20.053585,129
2021-12-10 14:07:20.053593,158
2021-12-10 14:07:20.053602,168
2021-12-10 14:07:20.053610,188
2021-12-10 14:07:20.053619,210
2021-12-10 14:07:20.053627,205
2021-12-10 14:07:20.053635,154
2021-12-10 14:07:20.053644,141
2021-12-10 14:07:20.053652,178
2021-12-10 14:07:20.053661,183
2021-12-10 14:07:20.053669,158
2021-12-10 14:07:20.053678,163
2021-12-10 14:07:20.053686,173
2021-12-10 14:07:20.053695,190
2021-12-10 14:07:20.053703,212
2021-12-10 14:07:20.053712,156
2021-12-10 14:07:20.053720,112
2021-12-10 14:07:20.053729,173
2021-12-10 14:07:20.053737,158
2021-12-10 14:07:20.053745,56
2021-12-10 14:07:20.053754,80
2021-12-10 14:07:20.053762,176
2021-12-10 14:07:20.053770,127
2021-12-10 14:07:20.053779,58
2021-12-10 14:07:20.053787,141
2021-12-10 14:07:20.053796,166
2021-12-10 14:07:20.053804,132
2021-12-10 14:07:20.367354,273
2021-12-10 14:07:20.367375,533
2021-12-10 14:07:20.367385,718
2021-12-10 14:07:20.367393,440
2021-12-10 14:07:20.367402,-486
2021-12-10 14:07:20.367411,-1107
2021-12-10 14:07:20.367419,-679
2021-12-10 14:07:20.367428,-83
2021-12-10 14:07:20.367436,4
2021-12-10 14:07:20.367445,70
2021-12-10 14:07:20.367453,229
2021-12-10 14:07:20.367462,249
2021-12-10 14:07:20.367470,269
2021-12-10 14:07:20.367483,288
2021-12-10 14:07:20.367492,251
2021-12-10 14:07:20.367500,256
2021-12-10 14:07:20.367509,273
2021-12-10 14:07:20.367517,278
2021-12-10 14:07:20.367525,286
2021-12-10 14:07:20.367534,283
2021-12-10 14:07:20.367542,303
2021-12-10 14:07:20.367550,310
2021-12-10 14:07:20.367559,352
2021-12-10 14:07:20.367567,449
2021-12-10 14:07:20.367575,401
2021-12-10 14:07:20.367584,391
2021-12-10 14:07:20.367592,533
2021-12-10 14:07:20.367601,513
2021-12-10 14:07:20.367609,437
2021-12-10 14:07:20.367617,491
2021-12-10 14:07:20.504026,489
2021-12-10 14:07:20.504095,393
2021-12-10 14:07:20.504106,403
2021-12-10 14:07:20.504160,354
2021-12-10 14:07:20.504216,110
2021-12-10 14:07:20.504226,-7
2021-12-10 14:07:20.504261,-22
2021-12-10 14:07:20.504282,-124
2021-12-10 14:07:20.504292,-171
2021-12-10 14:07:20.504301,-166
2021-12-10 14:07:20.504310,-188
2021-12-10 14:07:20.504319,-185
2021-12-10 14:07:20.504328,-202
2021-12-10 14:07:20.504336,-212
2021-12-10 14:07:20.504345,-144
2021-12-10 14:07:20.504354,-173
2021-12-10 14:07:20.504362,-254
2021-12-10 14:07:20.504371,-139
2021-12-10 14:07:20.504380,-46
2021-12-10 14:07:20.504388,-166
2021-12-10 14:07:20.504397,-139
2021-12-10 14:07:20.504405,-12
2021-12-10 14:07:20.504414,-90
2021-12-10 14:07:20.504423,-127
2021-12-10 14:07:20.504431,-34
2021-12-10 14:07:20.504439,-4
2021-12-10 14:07:20.504448,-7
2021-12-10 14:07:20.504457,-22
2021-12-10 14:07:20.504465,-66
2021-12-10 14:07:20.504474,-46
2021-12-10 14:07:20.728590,44
2021-12-10 14:07:20.728608,17
2021-12-10 14:07:20.728618,-78
2021-12-10 14:07:20.728626,-46
2021-12-10 14:07:20.728635,-2
2021-12-10 14:07:20.728644,-26
2021-12-10 14:07:20.728652,-24
2021-12-10 14:07:20.728660,0
2021-12-10 14:07:20.728669,9
2021-12-10 14:07:20.728677,-7
2021-12-10 14:07:20.728686,-22
2021-12-10 14:07:20.728694,19
2021-12-10 14:07:20.728703,44
2021-12-10 14:07:20.728711,12
2021-12-10 14:07:20.728719,0
2021-12-10 14:07:20.728727,7
2021-12-10 14:07:20.728736,-2
2021-12-10 14:07:20.728749,17
2021-12-10 14:07:20.728758,46
2021-12-10 14:07:20.728766,66
2021-12-10 14:07:20.728774,90
2021-12-10 14:07:20.728783,36
2021-12-10 14:07:20.728791,-63
2021-12-10 14:07:20.728800,-63
2021-12-10 14:07:20.728808,-24
2021-12-10 14:07:20.728816,-56
2021-12-10 14:07:20.728825,-75
2021-12-10 14:07:20.728833,-31
2021-12-10 14:07:20.728842,17
2021-12-10 14:07:20.728850,73
2021-12-10 14:07:21.043058,146
2021-12-10 14:07:21.043078,276
2021-12-10 14:07:21.043087,503
2021-12-10 14:07:21.043096,361
2021-12-10 14:07:21.043105,-572
2021-12-10 14:07:21.043114,-1296
2021-12-10 14:07:21.043122,-943
2021-12-10 14:07:21.043131,-332
2021-12-10 14:07:21.043139,-173
2021-12-10 14:07:21.043147,-90
2021-12-10 14:07:21.043156,85
2021-12-10 14:07:21.043165,97
2021-12-10 14:07:21.043173,83
2021-12-10 14:07:21.043181,156
2021-12-10 14:07:21.043190,171
2021-12-10 14:07:21.043198,134
2021-12-10 14:07:21.043207,134
2021-12-10 14:07:21.043215,141
2021-12-10 14:07:21.043224,144
2021-12-10 14:07:21.043232,210
2021-12-10 14:07:21.043241,291
2021-12-10 14:07:21.043249,222
2021-12-10 14:07:21.043258,161
2021-12-10 14:07:21.043266,269
2021-12-10 14:07:21.043275,359
2021-12-10 14:07:21.043283,366
2021-12-10 14:07:21.043291,388
2021-12-10 14:07:21.043300,459
2021-12-10 14:07:21.043308,498
2021-12-10 14:07:21.043317,432
2021-12-10 14:07:21.178710,391
2021-12-10 14:07:21.178735,408
2021-12-10 14:07:21.178745,344
2021-12-10 14:07:21.178754,222
2021-12-10 14:07:21.178763,107
2021-12-10 14:07:21.178772,-9
2021-12-10 14:07:21.178780,-136
2021-12-10 14:07:21.178789,-198
2021-12-10 14:07:21.178797,-210
2021-12-10 14:07:21.178806,-271
2021-12-10 14:07:21.178814,-303
2021-12-10 14:07:21.178823,-224
2021-12-10 14:07:21.178831,-234
2021-12-10 14:07:21.178839,-335
2021-12-10 14:07:21.178848,-291
2021-12-10 14:07:21.178856,-217
2021-12-10 14:07:21.178865,-286
2021-12-10 14:07:21.178873,-313
2021-12-10 14:07:21.178881,-217
2021-12-10 14:07:21.178890,-185
2021-12-10 14:07:21.178898,-227
2021-12-10 14:07:21.178907,-207
2021-12-10 14:07:21.178915,-168
2021-12-10 14:07:21.178923,-156
2021-12-10 14:07:21.178931,-176
2021-12-10 14:07:21.178940,-151
2021-12-10 14:07:21.178948,-75
2021-12-10 14:07:21.178956,-158
2021-12-10 14:07:21.178965,-259
2021-12-10 14:07:21.178978,-185
2021-12-10 14:07:21.448582,-158
2021-12-10 14:07:21.448600,-193
2021-12-10 14:07:21.448610,-200
2021-12-10 14:07:21.448619,-202
2021-12-10 14:07:21.448628,-151
2021-12-10 14:07:21.448636,-132
2021-12-10 14:07:21.448645,-195
2021-12-10 14:07:21.448654,-171
2021-12-10 14:07:21.448662,-117
2021-12-10 14:07:21.448671,-188
2021-12-10 14:07:21.448679,-217
2021-12-10 14:07:21.448688,-114
2021-12-10 14:07:21.448696,-105
2021-12-10 14:07:21.448705,-217
2021-12-10 14:07:21.448713,-202
2021-12-10 14:07:21.448721,-117
2021-12-10 14:07:21.448730,-127
2021-12-10 14:07:21.448738,-154
2021-12-10 14:07:21.448747,-124
2021-12-10 14:07:21.448755,-53
2021-12-10 14:07:21.448763,-63
2021-12-10 14:07:21.448772,-134
2021-12-10 14:07:21.448780,-134
2021-12-10 14:07:21.448789,-102
2021-12-10 14:07:21.448797,-88
2021-12-10 14:07:21.448806,-127
2021-12-10 14:07:21.448814,-161
2021-12-10 14:07:21.448822,-117
2021-12-10 14:07:21.448831,-80
2021-12-10 14:07:21.448839,-75
2021-12-10 14:07:21.628585,-75
2021-12-10 14:07:21.628603,-119
2021-12-10 14:07:21.628613,-107
2021-12-10 14:07:21.628622,4
2021-12-10 14:07:21.628631,105
2021-12-10 14:07:21.628640,339
2021-12-10 14:07:21.628648,665
2021-12-10 14:07:21.628657,300
2021-12-10 14:07:21.628666,-740
2021-12-10 14:07:21.628674,-1161
2021-12-10 14:07:21.628683,-650
2021-12-10 14:07:21.628691,-224
2021-12-10 14:07:21.628700,-132
2021-12-10 14:07:21.628709,17
2021-12-10 14:07:21.628717,97
2021-12-10 14:07:21.628726,78
2021-12-10 14:07:21.628734,105
2021-12-10 14:07:21.628743,163
2021-12-10 14:07:21.628751,183
2021-12-10 14:07:21.628760,158
2021-12-10 14:07:21.628769,193
2021-12-10 14:07:21.628777,229
2021-12-10 14:07:21.628786,215
2021-12-10 14:07:21.628794,295
2021-12-10 14:07:21.628803,357
2021-12-10 14:07:21.628811,266
2021-12-10 14:07:21.628820,291
2021-12-10 14:07:21.628829,408
2021-12-10 14:07:21.628837,401
2021-12-10 14:07:21.628846,408
2021-12-10 14:07:21.898742,496
2021-12-10 14:07:21.898763,574
2021-12-10 14:07:21.898773,596
2021-12-10 14:07:21.898782,567
2021-12-10 14:07:21.898791,511
2021-12-10 14:07:21.898799,396
2021-12-10 14:07:21.898808,286
2021-12-10 14:07:21.898816,237
2021-12-10 14:07:21.898825,132
2021-12-10 14:07:21.898833,-36
2021-12-10 14:07:21.898842,-117
2021-12-10 14:07:21.898850,-100
2021-12-10 14:07:21.898859,-136
2021-12-10 14:07:21.898867,-207
2021-12-10 14:07:21.898876,-193
2021-12-10 14:07:21.898884,-168
2021-12-10 14:07:21.898892,-176
2021-12-10 14:07:21.898901,-154
2021-12-10 14:07:21.898909,-144
2021-12-10 14:07:21.898918,-119
2021-12-10 14:07:21.898929,-63
2021-12-10 14:07:21.898937,-31
2021-12-10 14:07:21.898945,9
2021-12-10 14:07:21.898954,44
2021-12-10 14:07:21.898962,56
2021-12-10 14:07:21.898971,136
2021-12-10 14:07:21.898979,166
2021-12-10 14:07:21.898987,102
2021-12-10 14:07:21.898996,144
2021-12-10 14:07:21.899004,239
2021-12-10 14:07:22.168764,217
2021-12-10 14:07:22.168786,244
2021-12-10 14:07:22.168796,352
2021-12-10 14:07:22.168805,288
2021-12-10 14:07:22.168813,237
2021-12-10 14:07:22.168822,339
2021-12-10 14:07:22.168831,342
2021-12-10 14:07:22.168839,278
2021-12-10 14:07:22.168848,310
2021-12-10 14:07:22.168857,322
2021-12-10 14:07:22.168865,330
2021-12-10 14:07:22.168873,401
2021-12-10 14:07:22.168882,383
2021-12-10 14:07:22.168891,342
2021-12-10 14:07:22.168899,396
2021-12-10 14:07:22.168908,459
2021-12-10 14:07:22.168916,474
2021-12-10 14:07:22.168925,430
2021-12-10 14:07:22.168933,432
2021-12-10 14:07:22.168942,520
2021-12-10 14:07:22.168950,520
2021-12-10 14:07:22.168959,449
2021-12-10 14:07:22.168967,496
2021-12-10 14:07:22.168976,535
2021-12-10 14:07:22.168984,452
2021-12-10 14:07:22.168993,442
2021-12-10 14:07:22.169001,464
2021-12-10 14:07:22.169010,396
2021-12-10 14:07:22.169018,361
2021-12-10 14:07:22.169027,317
2021-12-10 14:07:22.527215,190
2021-12-10 14:07:22.527235,134
2021-12-10 14:07:22.527245,129
2021-12-10 14:07:22.527253,70
2021-12-10 14:07:22.527262,14
2021-12-10 14:07:22.527271,41
2021-12-10 14:07:22.527280,124
2021-12-10 14:07:22.527288,335
2021-12-10 14:07:22.527297,501
2021-12-10 14:07:22.527305,-73
2021-12-10 14:07:22.527314,-1137
2021-12-10 14:07:22.527322,-1354
2021-12-10 14:07:22.527331,-760
2021-12-10 14:07:22.527340,-530
2021-12-10 14:07:22.527348,-572
2021-12-10 14:07:22.527357,-361
2021-12-10 14:07:22.527365,-227
2021-12-10 14:07:22.527374,-264
2021-12-10 14:07:22.527382,-271
2021-12-10 14:07:22.527391,-278
2021-12-10 14:07:22.527399,-293
2021-12-10 14:07:22.527408,-305
2021-12-10 14:07:22.527416,-364
2021-12-10 14:07:22.527425,-403
2021-12-10 14:07:22.527434,-327
2021-12-10 14:07:22.527442,-313
2021-12-10 14:07:22.527451,-357
2021-12-10 14:07:22.527459,-291
2021-12-10 14:07:22.527467,-229
2021-12-10 14:07:22.527476,-183
2021-12-10 14:07:22.663128,-88
2021-12-10 14:07:22.663147,12
2021-12-10 14:07:22.663157,83
2021-12-10 14:07:22.663166,88
2021-12-10 14:07:22.663175,95
2021-12-10 14:07:22.663183,154
2021-12-10 14:07:22.663192,161
2021-12-10 14:07:22.663200,127
2021-12-10 14:07:22.663208,110
2021-12-10 14:07:22.663217,39
2021-12-10 14:07:22.663225,-44
2021-12-10 14:07:22.663234,-112
2021-12-10 14:07:22.663242,-239
2021-12-10 14:07:22.663251,-293
2021-12-10 14:07:22.663259,-242
2021-12-10 14:07:22.663267,-254
2021-12-10 14:07:22.663276,-278
2021-12-10 14:07:22.663284,-254
2021-12-10 14:07:22.663293,-281
2021-12-10 14:07:22.663301,-286
2021-12-10 14:07:22.663309,-217
2021-12-10 14:07:22.663318,-202
2021-12-10 14:07:22.663329,-158
2021-12-10 14:07:22.663337,-107
2021-12-10 14:07:22.663346,-129
2021-12-10 14:07:22.663354,-102
2021-12-10 14:07:22.663362,-46
2021-12-10 14:07:22.663371,-24
2021-12-10 14:07:22.663379,-83
2021-12-10 14:07:22.663387,-107
2021-12-10 14:07:22.843716,-46
2021-12-10 14:07:22.843736,-53
2021-12-10 14:07:22.843747,-97
2021-12-10 14:07:22.843755,-90
2021-12-10 14:07:22.843764,-53
2021-12-10 14:07:22.843773,-51
2021-12-10 14:07:22.843781,-114
2021-12-10 14:07:22.843790,-80
2021-12-10 14:07:22.843798,78
2021-12-10 14:07:22.843806,29
2021-12-10 14:07:22.843815,-117
2021-12-10 14:07:22.843823,-56
2021-12-10 14:07:22.843832,4
2021-12-10 14:07:22.843840,-29
2021-12-10 14:07:22.843848,-9
2021-12-10 14:07:22.843857,29
2021-12-10 14:07:22.843865,22
2021-12-10 14:07:22.843874,17
2021-12-10 14:07:22.843882,-4
2021-12-10 14:07:22.843891,-63
2021-12-10 14:07:22.843899,-24
2021-12-10 14:07:22.843907,73
2021-12-10 14:07:22.843916,66
2021-12-10 14:07:22.843924,-7
2021-12-10 14:07:22.843932,-34
2021-12-10 14:07:22.843941,-26
2021-12-10 14:07:22.843949,-14
2021-12-10 14:07:22.843958,-17
2021-12-10 14:07:22.843966,-39
2021-12-10 14:07:22.843974,-66
2021-12-10 14:07:23.024152,-73
2021-12-10 14:07:23.024170,-44
2021-12-10 14:07:23.024180,-29
2021-12-10 14:07:23.024189,31
2021-12-10 14:07:23.024197,163
2021-12-10 14:07:23.024206,300
2021-12-10 14:07:23.024214,408
2021-12-10 14:07:23.024223,36
2021-12-10 14:07:23.024231,-882
2021-12-10 14:07:23.024239,-1291
2021-12-10 14:07:23.024248,-782
2021-12-10 14:07:23.024256,-291
2021-12-10 14:07:23.024265,-210
2021-12-10 14:07:23.024273,-70
2021-12-10 14:07:23.024282,100
2021-12-10 14:07:23.024290,78
2021-12-10 14:07:23.024298,95
2021-12-10 14:07:23.024307,161
2021-12-10 14:07:23.024315,119
2021-12-10 14:07:23.024324,53
2021-12-10 14:07:23.024332,158
2021-12-10 14:07:23.024340,249
2021-12-10 14:07:23.024349,119
2021-12-10 14:07:23.024357,75
2021-12-10 14:07:23.024365,188
2021-12-10 14:07:23.024374,212
2021-12-10 14:07:23.024382,205
2021-12-10 14:07:23.024391,291
2021-12-10 14:07:23.024399,359
2021-12-10 14:07:23.024408,315
2021-12-10 14:07:23.338691,251
2021-12-10 14:07:23.338710,291
2021-12-10 14:07:23.338720,398
2021-12-10 14:07:23.338728,408
2021-12-10 14:07:23.338737,325
2021-12-10 14:07:23.338746,273
2021-12-10 14:07:23.338754,193
2021-12-10 14:07:23.338763,44
2021-12-10 14:07:23.338771,19
2021-12-10 14:07:23.338780,63
2021-12-10 14:07:23.338788,-95
2021-12-10 14:07:23.338797,-264
2021-12-10 14:07:23.338805,-246
2021-12-10 14:07:23.338813,-259
2021-12-10 14:07:23.338822,-352
2021-12-10 14:07:23.338830,-359
2021-12-10 14:07:23.338839,-295
2021-12-10 14:07:23.338847,-320
2021-12-10 14:07:23.338856,-330
2021-12-10 14:07:23.338865,-256
2021-12-10 14:07:23.338873,-308
2021-12-10 14:07:23.338881,-403
2021-12-10 14:07:23.338890,-308
2021-12-10 14:07:23.338898,-202
2021-12-10 14:07:23.338906,-273
2021-12-10 14:07:23.338915,-327
2021-12-10 14:07:23.338923,-207
2021-12-10 14:07:23.338931,-178
2021-12-10 14:07:23.338940,-310
2021-12-10 14:07:23.338948,-305
2021-12-10 14:07:23.473638,-220
2021-12-10 14:07:23.473656,-242
2021-12-10 14:07:23.473666,-298
2021-12-10 14:07:23.473675,-251
2021-12-10 14:07:23.473683,-151
2021-12-10 14:07:23.473695,-249
2021-12-10 14:07:23.473703,-364
2021-12-10 14:07:23.473712,-293
2021-12-10 14:07:23.473720,-283
2021-12-10 14:07:23.473729,-349
2021-12-10 14:07:23.473737,-266
2021-12-10 14:07:23.473746,-210
2021-12-10 14:07:23.473754,-317
2021-12-10 14:07:23.473763,-317
2021-12-10 14:07:23.473771,-239
2021-12-10 14:07:23.473779,-261
2021-12-10 14:07:23.473788,-327
2021-12-10 14:07:23.473796,-339
2021-12-10 14:07:23.473805,-266
2021-12-10 14:07:23.473813,-237
2021-12-10 14:07:23.473822,-239
2021-12-10 14:07:23.473830,-222
2021-12-10 14:07:23.473839,-295
2021-12-10 14:07:23.473847,-339
2021-12-10 14:07:23.473855,-264
2021-12-10 14:07:23.473864,-249
2021-12-10 14:07:23.473872,-305
2021-12-10 14:07:23.473880,-271
2021-12-10 14:07:23.473889,-188
2021-12-10 14:07:23.473897,-139
2021-12-10 14:07:23.698625,-26
2021-12-10 14:07:23.698643,205
2021-12-10 14:07:23.698653,244
2021-12-10 14:07:23.698662,-303
2021-12-10 14:07:23.698671,-1117
2021-12-10 14:07:23.698679,-1340
2021-12-10 14:07:23.698688,-753
2021-12-10 14:07:23.698696,-195
2021-12-10 14:07:23.698705,-207
2021-12-10 14:07:23.698713,-310
2021-12-10 14:07:23.698722,-136
2021-12-10 14:07:23.698731,88
2021-12-10 14:07:23.698739,2
2021-12-10 14:07:23.698748,-161
2021-12-10 14:07:23.698756,-66
2021-12-10 14:07:23.698765,9
2021-12-10 14:07:23.698773,9
2021-12-10 14:07:23.698782,-7
2021-12-10 14:07:23.698790,-9
2021-12-10 14:07:23.698799,102
2021-12-10 14:07:23.698807,88
2021-12-10 14:07:23.698816,-34
2021-12-10 14:07:23.698824,17
2021-12-10 14:07:23.698833,110
2021-12-10 14:07:23.698841,195
2021-12-10 14:07:23.698849,222
2021-12-10 14:07:23.698858,110
2021-12-10 14:07:23.698866,198
2021-12-10 14:07:23.698875,401
2021-12-10 14:07:23.698883,254
2021-12-10 14:07:23.923698,78
2021-12-10 14:07:23.923718,168
2021-12-10 14:07:23.923728,112
2021-12-10 14:07:23.923737,-97
2021-12-10 14:07:23.923745,-141
2021-12-10 14:07:23.923754,-180
2021-12-10 14:07:23.923762,-288
2021-12-10 14:07:23.923771,-391
2021-12-10 14:07:23.923779,-430
2021-12-10 14:07:23.923788,-327
2021-12-10 14:07:23.923796,-322
2021-12-10 14:07:23.923805,-452
2021-12-10 14:07:23.923813,-442
2021-12-10 14:07:23.923822,-374
2021-12-10 14:07:23.923830,-405
2021-12-10 14:07:23.923839,-374
2021-12-10 14:07:23.923847,-310
2021-12-10 14:07:23.923856,-364
2021-12-10 14:07:23.923864,-286
2021-12-10 14:07:23.923873,-198
2021-12-10 14:07:23.923881,-315
2021-12-10 14:07:23.923890,-322
2021-12-10 14:07:23.923899,-217
2021-12-10 14:07:23.923907,-227
2021-12-10 14:07:23.923915,-246
2021-12-10 14:07:23.923924,-217
2021-12-10 14:07:23.923932,-251
2021-12-10 14:07:23.923941,-246
2021-12-10 14:07:23.923949,-220
2021-12-10 14:07:23.923958,-281
2021-12-10 14:07:24.193750,-249
2021-12-10 14:07:24.193770,-180
2021-12-10 14:07:24.193780,-207
2021-12-10 14:07:24.193789,-227
2021-12-10 14:07:24.193798,-222
2021-12-10 14:07:24.193806,-232
2021-12-10 14:07:24.193815,-249
2021-12-10 14:07:24.193823,-237
2021-12-10 14:07:24.193831,-176
2021-12-10 14:07:24.193840,-173
2021-12-10 14:07:24.193848,-217
2021-12-10 14:07:24.193856,-180
2021-12-10 14:07:24.193865,-183
2021-12-10 14:07:24.193873,-249
2021-12-10 14:07:24.193881,-222
2021-12-10 14:07:24.193890,-183
2021-12-10 14:07:24.193898,-146
2021-12-10 14:07:24.193906,-110
2021-12-10 14:07:24.193915,-156
2021-12-10 14:07:24.193923,-171
2021-12-10 14:07:24.193932,-129
2021-12-10 14:07:24.193940,-156
2021-12-10 14:07:24.193948,-200
2021-12-10 14:07:24.193957,-188
2021-12-10 14:07:24.193965,-161
2021-12-10 14:07:24.193973,-151
2021-12-10 14:07:24.193981,-144
2021-12-10 14:07:24.193990,-105
2021-12-10 14:07:24.193998,-9
2021-12-10 14:07:24.194006,136
2021-12-10 14:07:24.462349,357
2021-12-10 14:07:24.462370,251
2021-12-10 14:07:24.462381,-471
2021-12-10 14:07:24.462390,-1080
2021-12-10 14:07:24.462398,-956
2021-12-10 14:07:24.462407,-447
2021-12-10 14:07:24.462415,-193
2021-12-10 14:07:24.462424,-154
2021-12-10 14:07:24.462433,-12
2021-12-10 14:07:24.462441,85
2021-12-10 14:07:24.462450,24
2021-12-10 14:07:24.462458,-17
2021-12-10 14:07:24.462467,73
2021-12-10 14:07:24.462475,154
2021-12-10 14:07:24.462484,85
2021-12-10 14:07:24.462492,44
2021-12-10 14:07:24.462501,132
2021-12-10 14:07:24.462509,166
2021-12-10 14:07:24.462518,124
2021-12-10 14:07:24.462527,136
2021-12-10 14:07:24.462535,198
2021-12-10 14:07:24.462544,190
2021-12-10 14:07:24.462552,180
2021-12-10 14:07:24.462561,273
2021-12-10 14:07:24.462569,359
2021-12-10 14:07:24.462578,379
2021-12-10 14:07:24.462587,349
2021-12-10 14:07:24.462595,322
2021-12-10 14:07:24.462603,352
2021-12-10 14:07:24.462612,344
2021-12-10 14:07:24.688659,271
2021-12-10 14:07:24.688679,198
2021-12-10 14:07:24.688688,114
2021-12-10 14:07:24.688697,24
2021-12-10 14:07:24.688706,-46
2021-12-10 14:07:24.688715,-112
2021-12-10 14:07:24.688723,-151
2021-12-10 14:07:24.688732,-163
2021-12-10 14:07:24.688740,-180
2021-12-10 14:07:24.688749,-195
2021-12-10 14:07:24.688757,-180
2021-12-10 14:07:24.688766,-156
2021-12-10 14:07:24.688774,-161
2021-12-10 14:07:24.688783,-151
2021-12-10 14:07:24.688791,-102
2021-12-10 14:07:24.688800,-85
2021-12-10 14:07:24.688808,-85
2021-12-10 14:07:24.688817,-51
2021-12-10 14:07:24.688825,-39
2021-12-10 14:07:24.688833,-44
2021-12-10 14:07:24.688842,7
2021-12-10 14:07:24.688850,31
2021-12-10 14:07:24.688859,-24
2021-12-10 14:07:24.688867,-26
2021-12-10 14:07:24.688875,22
2021-12-10 14:07:24.688884,29
2021-12-10 14:07:24.688892,9
2021-12-10 14:07:24.688901,4
2021-12-10 14:07:24.688909,34
2021-12-10 14:07:24.688917,61
2021-12-10 14:07:24.913760,41
2021-12-10 14:07:24.913781,39
2021-12-10 14:07:24.913791,73
2021-12-10 14:07:24.913800,63
2021-12-10 14:07:24.913808,24
2021-12-10 14:07:24.913817,26
2021-12-10 14:07:24.913825,44
2021-12-10 14:07:24.913834,12
2021-12-10 14:07:24.913842,-14
2021-12-10 14:07:24.913851,-36
2021-12-10 14:07:24.913859,-70
2021-12-10 14:07:24.913868,-39
2021-12-10 14:07:24.913876,-17
2021-12-10 14:07:24.913884,-70
2021-12-10 14:07:24.913893,-95
2021-12-10 14:07:24.913901,-110
2021-12-10 14:07:24.913909,-173
2021-12-10 14:07:24.913918,-195
2021-12-10 14:07:24.913926,-176
2021-12-10 14:07:24.913934,-200
2021-12-10 14:07:24.913943,-251
2021-12-10 14:07:24.913951,-249
2021-12-10 14:07:24.913959,-232
2021-12-10 14:07:24.913968,-256
2021-12-10 14:07:24.913976,-251
2021-12-10 14:07:24.913984,-176
2021-12-10 14:07:24.913993,-29
2021-12-10 14:07:24.914001,315
2021-12-10 14:07:24.914010,596
2021-12-10 14:07:24.914018,132
2021-12-10 14:07:25.138602,-809
2021-12-10 14:07:25.138621,-1112
2021-12-10 14:07:25.138632,-645
2021-12-10 14:07:25.138642,-310
2021-12-10 14:07:25.138652,-278
2021-12-10 14:07:25.138661,-171
2021-12-10 14:07:25.138670,-75
2021-12-10 14:07:25.138680,-92
2021-12-10 14:07:25.138689,-75
2021-12-10 14:07:25.138698,-22
2021-12-10 14:07:25.138707,-14
2021-12-10 14:07:25.138716,-9
2021-12-10 14:07:25.138726,34
2021-12-10 14:07:25.138735,83
2021-12-10 14:07:25.138744,97
2021-12-10 14:07:25.138753,114
2021-12-10 14:07:25.138762,149
2021-12-10 14:07:25.138771,176
2021-12-10 14:07:25.138780,217
2021-12-10 14:07:25.138790,276
2021-12-10 14:07:25.138799,335
2021-12-10 14:07:25.138808,408
2021-12-10 14:07:25.138817,469
2021-12-10 14:07:25.138826,471
2021-12-10 14:07:25.138835,464
2021-12-10 14:07:25.138844,474
2021-12-10 14:07:25.138853,454
2021-12-10 14:07:25.138862,379
2021-12-10 14:07:25.138871,300
2021-12-10 14:07:25.138879,224
2021-12-10 14:07:25.408059,122
2021-12-10 14:07:25.408078,34
2021-12-10 14:07:25.408088,-34
2021-12-10 14:07:25.408097,-92
2021-12-10 14:07:25.408106,-100
2021-12-10 14:07:25.408115,-97
2021-12-10 14:07:25.408123,-107
2021-12-10 14:07:25.408132,-95
2021-12-10 14:07:25.408141,-102
2021-12-10 14:07:25.408149,-122
2021-12-10 14:07:25.408158,-105
2021-12-10 14:07:25.408169,-92
2021-12-10 14:07:25.408178,-100
2021-12-10 14:07:25.408187,-95
2021-12-10 14:07:25.408195,-78
2021-12-10 14:07:25.408204,-70
2021-12-10 14:07:25.408212,-70
2021-12-10 14:07:25.408221,-68
2021-12-10 14:07:25.408229,-58
2021-12-10 14:07:25.408238,-58
2021-12-10 14:07:25.408246,-63
2021-12-10 14:07:25.408255,-66
2021-12-10 14:07:25.408264,-70
2021-12-10 14:07:25.408272,-73
2021-12-10 14:07:25.408281,-63
2021-12-10 14:07:25.408289,-80
2021-12-10 14:07:25.408298,-114
2021-12-10 14:07:25.408306,-97
2021-12-10 14:07:25.408315,-85
2021-12-10 14:07:25.408323,-102
2021-12-10 14:07:25.633747,-102
2021-12-10 14:07:25.633767,-92
2021-12-10 14:07:25.633777,-95
2021-12-10 14:07:25.633786,-100
2021-12-10 14:07:25.633795,-100
2021-12-10 14:07:25.633804,-100
2021-12-10 14:07:25.633813,-90
2021-12-10 14:07:25.633821,-73
2021-12-10 14:07:25.633830,-83
2021-12-10 14:07:25.633839,-100
2021-12-10 14:07:25.633847,-97
2021-12-10 14:07:25.633856,-122
2021-12-10 14:07:25.633864,-136
2021-12-10 14:07:25.633873,-114
2021-12-10 14:07:25.633881,-102
2021-12-10 14:07:25.633890,-112
2021-12-10 14:07:25.633898,-124
2021-12-10 14:07:25.633907,-134
2021-12-10 14:07:25.633915,-132
2021-12-10 14:07:25.633924,-80
2021-12-10 14:07:25.633932,4
2021-12-10 14:07:25.633941,134
2021-12-10 14:07:25.633949,379
2021-12-10 14:07:25.633958,354
2021-12-10 14:07:25.633966,-393
2021-12-10 14:07:25.633975,-1154
2021-12-10 14:07:25.633983,-1000
2021-12-10 14:07:25.633991,-420
2021-12-10 14:07:25.634000,-227
2021-12-10 14:07:25.634008,-188
2021-12-10 14:07:25.768643,-31
2021-12-10 14:07:25.768661,22
2021-12-10 14:07:25.768671,-2
2021-12-10 14:07:25.768680,31
2021-12-10 14:07:25.768689,39
2021-12-10 14:07:25.768697,14
2021-12-10 14:07:25.768706,39
2021-12-10 14:07:25.768714,73
2021-12-10 14:07:25.768723,73
2021-12-10 14:07:25.768731,75
2021-12-10 14:07:25.768739,83
2021-12-10 14:07:25.768748,92
2021-12-10 14:07:25.768756,122
2021-12-10 14:07:25.768765,151
2021-12-10 14:07:25.768773,178
2021-12-10 14:07:25.768782,222
2021-12-10 14:07:25.768790,261
2021-12-10 14:07:25.768799,271
2021-12-10 14:07:25.768807,266
2021-12-10 14:07:25.768815,269
2021-12-10 14:07:25.768824,254
2021-12-10 14:07:25.768832,215
2021-12-10 14:07:25.768841,149
2021-12-10 14:07:25.768849,46
2021-12-10 14:07:25.768857,-51
2021-12-10 14:07:25.768866,-134
2021-12-10 14:07:25.768874,-205
2021-12-10 14:07:25.768883,-273
2021-12-10 14:07:25.768891,-339
2021-12-10 14:07:25.768899,-374
2021-12-10 14:07:26.038693,-376
2021-12-10 14:07:26.038712,-386
2021-12-10 14:07:26.038721,-393
2021-12-10 14:07:26.038730,-388
2021-12-10 14:07:26.038739,-388
2021-12-10 14:07:26.038747,-388
2021-12-10 14:07:26.038756,-376
2021-12-10 14:07:26.038764,-369
2021-12-10 14:07:26.038773,-374
2021-12-10 14:07:26.038781,-371
2021-12-10 14:07:26.038790,-357
2021-12-10 14:07:26.038798,-347
2021-12-10 14:07:26.038807,-342
2021-12-10 14:07:26.038815,-320
2021-12-10 14:07:26.038824,-305
2021-12-10 14:07:26.038832,-325
2021-12-10 14:07:26.038841,-332
2021-12-10 14:07:26.038849,-317
2021-12-10 14:07:26.038858,-320
2021-12-10 14:07:26.038866,-320
2021-12-10 14:07:26.038875,-317
2021-12-10 14:07:26.038883,-327
2021-12-10 14:07:26.038892,-320
2021-12-10 14:07:26.038900,-295
2021-12-10 14:07:26.038909,-293
2021-12-10 14:07:26.038917,-303
2021-12-10 14:07:26.038925,-300
2021-12-10 14:07:26.038934,-300
2021-12-10 14:07:26.038942,-288
2021-12-10 14:07:26.038951,-269
2021-12-10 14:07:26.353645,-256
2021-12-10 14:07:26.353666,-264
2021-12-10 14:07:26.353676,-295
2021-12-10 14:07:26.353685,-325
2021-12-10 14:07:26.353693,-303
2021-12-10 14:07:26.353702,-278
2021-12-10 14:07:26.353711,-295
2021-12-10 14:07:26.353719,-300
2021-12-10 14:07:26.353728,-281
2021-12-10 14:07:26.353736,-271
2021-12-10 14:07:26.353744,-264
2021-12-10 14:07:26.353753,-222
2021-12-10 14:07:26.353762,-144
2021-12-10 14:07:26.353770,24
2021-12-10 14:07:26.353779,322
2021-12-10 14:07:26.353787,242
2021-12-10 14:07:26.353796,-613
2021-12-10 14:07:26.353804,-1315
2021-12-10 14:07:26.353813,-1019
2021-12-10 14:07:26.353821,-462
2021-12-10 14:07:26.353829,-344
2021-12-10 14:07:26.353838,-283
2021-12-10 14:07:26.353846,-100
2021-12-10 14:07:26.353855,-68
2021-12-10 14:07:26.353863,-110
2021-12-10 14:07:26.353872,-63
2021-12-10 14:07:26.353880,-24
2021-12-10 14:07:26.353889,-29
2021-12-10 14:07:26.353897,-12
2021-12-10 14:07:26.353905,19
2021-12-10 14:07:26.622410,29
2021-12-10 14:07:26.622431,44
2021-12-10 14:07:26.622441,68
2021-12-10 14:07:26.622450,92
2021-12-10 14:07:26.622458,127
2021-12-10 14:07:26.622467,176
2021-12-10 14:07:26.622475,212
2021-12-10 14:07:26.622484,242
2021-12-10 14:07:26.622498,278
2021-12-10 14:07:26.622507,313
2021-12-10 14:07:26.622515,337
2021-12-10 14:07:26.622524,344
2021-12-10 14:07:26.622532,315
2021-12-10 14:07:26.622541,269
2021-12-10 14:07:26.622549,202
2021-12-10 14:07:26.622558,105
2021-12-10 14:07:26.622566,2
2021-12-10 14:07:26.622575,-88
2021-12-10 14:07:26.622583,-166
2021-12-10 14:07:26.622591,-220
2021-12-10 14:07:26.622600,-256
2021-12-10 14:07:26.622608,-276
2021-12-10 14:07:26.622616,-278
2021-12-10 14:07:26.622625,-273
2021-12-10 14:07:26.622633,-278
2021-12-10 14:07:26.622642,-276
2021-12-10 14:07:26.622650,-259
2021-12-10 14:07:26.622658,-249
2021-12-10 14:07:26.622667,-237
2021-12-10 14:07:26.622675,-215
2021-12-10 14:07:26.758688,-195
2021-12-10 14:07:26.758708,-176
2021-12-10 14:07:26.758717,-163
2021-12-10 14:07:26.758726,-173
2021-12-10 14:07:26.758735,-173
2021-12-10 14:07:26.758744,-146
2021-12-10 14:07:26.758752,-132
2021-12-10 14:07:26.758760,-144
2021-12-10 14:07:26.758769,-151
2021-12-10 14:07:26.758777,-134
2021-12-10 14:07:26.758786,-127
2021-12-10 14:07:26.758794,-139
2021-12-10 14:07:26.758803,-154
2021-12-10 14:07:26.758811,-151
2021-12-10 14:07:26.758820,-141
2021-12-10 14:07:26.758828,-139
2021-12-10 14:07:26.758837,-136
2021-12-10 14:07:26.758845,-139
2021-12-10 14:07:26.758854,-144
2021-12-10 14:07:26.758862,-136
2021-12-10 14:07:26.758871,-139
2021-12-10 14:07:26.758879,-141
2021-12-10 14:07:26.758887,-127
2021-12-10 14:07:26.758896,-114
2021-12-10 14:07:26.758904,-102
2021-12-10 14:07:26.758913,-88
2021-12-10 14:07:26.758921,-80
2021-12-10 14:07:26.758929,-80
2021-12-10 14:07:26.758938,-92
2021-12-10 14:07:26.758946,-105
2021-12-10 14:07:26.938723,-107
2021-12-10 14:07:26.938742,-102
2021-12-10 14:07:26.938752,-88
2021-12-10 14:07:26.938761,-83
2021-12-10 14:07:26.938770,-92
2021-12-10 14:07:26.938779,-75
2021-12-10 14:07:26.938787,-56
2021-12-10 14:07:26.938796,-58
2021-12-10 14:07:26.938804,-4
2021-12-10 14:07:26.938813,195
2021-12-10 14:07:26.938822,611
2021-12-10 14:07:26.938831,706
2021-12-10 14:07:26.938839,-90
2021-12-10 14:07:26.938848,-958
2021-12-10 14:07:26.938857,-899
2021-12-10 14:07:26.938865,-369
2021-12-10 14:07:26.938874,-176
2021-12-10 14:07:26.938883,-144
2021-12-10 14:07:26.938891,-4
2021-12-10 14:07:26.938900,39
2021-12-10 14:07:26.938909,7
2021-12-10 14:07:26.938917,51
2021-12-10 14:07:26.938926,90
2021-12-10 14:07:26.938934,90
2021-12-10 14:07:26.938943,95
2021-12-10 14:07:26.938951,100
2021-12-10 14:07:26.938960,114
2021-12-10 14:07:26.938968,144
2021-12-10 14:07:26.938977,171
2021-12-10 14:07:26.938985,185
2021-12-10 14:07:27.163644,205
2021-12-10 14:07:27.163663,246
2021-12-10 14:07:27.163673,300
2021-12-10 14:07:27.163682,349
2021-12-10 14:07:27.163691,386
2021-12-10 14:07:27.163699,425
2021-12-10 14:07:27.163708,449
2021-12-10 14:07:27.163716,430
2021-12-10 14:07:27.163725,410
2021-12-10 14:07:27.163734,391
2021-12-10 14:07:27.163742,327
2021-12-10 14:07:27.163751,242
2021-12-10 14:07:27.163759,141
2021-12-10 14:07:27.163767,36
2021-12-10 14:07:27.163776,-34
2021-12-10 14:07:27.163784,-107
2021-12-10 14:07:27.163793,-178
2021-12-10 14:07:27.163801,-185
2021-12-10 14:07:27.163810,-190
2021-12-10 14:07:27.163818,-212
2021-12-10 14:07:27.163827,-210
2021-12-10 14:07:27.163835,-198
2021-12-10 14:07:27.163843,-188
2021-12-10 14:07:27.163852,-168
2021-12-10 14:07:27.163860,-151
2021-12-10 14:07:27.163869,-141
2021-12-10 14:07:27.163877,-134
2021-12-10 14:07:27.163886,-134
2021-12-10 14:07:27.163894,-129
2021-12-10 14:07:27.163903,-114
2021-12-10 14:07:27.433713,-105
2021-12-10 14:07:27.433733,-105
2021-12-10 14:07:27.433743,-90
2021-12-10 14:07:27.433752,-73
2021-12-10 14:07:27.433760,-75
2021-12-10 14:07:27.433769,-90
2021-12-10 14:07:27.433777,-97
2021-12-10 14:07:27.433786,-92
2021-12-10 14:07:27.433794,-90
2021-12-10 14:07:27.433803,-95
2021-12-10 14:07:27.433811,-107
2021-12-10 14:07:27.433820,-112
2021-12-10 14:07:27.433828,-107
2021-12-10 14:07:27.433837,-97
2021-12-10 14:07:27.433845,-100
2021-12-10 14:07:27.433854,-110
2021-12-10 14:07:27.433862,-100
2021-12-10 14:07:27.433871,-88
2021-12-10 14:07:27.433879,-107
2021-12-10 14:07:27.433887,-119
2021-12-10 14:07:27.433896,-90
2021-12-10 14:07:27.433904,-85
2021-12-10 14:07:27.433913,-90
2021-12-10 14:07:27.433921,-66
2021-12-10 14:07:27.433930,-56
2021-12-10 14:07:27.433938,-83
2021-12-10 14:07:27.433947,-102
2021-12-10 14:07:27.433955,-107
2021-12-10 14:07:27.433963,-102
2021-12-10 14:07:27.433972,-90
2021-12-10 14:07:27.658622,-88
2021-12-10 14:07:27.658639,-107
2021-12-10 14:07:27.658649,-114
2021-12-10 14:07:27.658657,-88
2021-12-10 14:07:27.658666,-51
2021-12-10 14:07:27.658674,-9
2021-12-10 14:07:27.658683,205
2021-12-10 14:07:27.658691,662
2021-12-10 14:07:27.658700,704
2021-12-10 14:07:27.658708,-136
2021-12-10 14:07:27.658717,-961
2021-12-10 14:07:27.658725,-880
2021-12-10 14:07:27.658734,-364
2021-12-10 14:07:27.658743,-173
2021-12-10 14:07:27.658751,-149
2021-12-10 14:07:27.658759,-34
2021-12-10 14:07:27.658768,4
2021-12-10 14:07:27.658776,-7
2021-12-10 14:07:27.658785,29
2021-12-10 14:07:27.658793,56
2021-12-10 14:07:27.658802,58
2021-12-10 14:07:27.658810,80
2021-12-10 14:07:27.658819,97
2021-12-10 14:07:27.658830,95
2021-12-10 14:07:27.658839,102
2021-12-10 14:07:27.658847,129
2021-12-10 14:07:27.658856,149
2021-12-10 14:07:27.658864,173
2021-12-10 14:07:27.658873,212
2021-12-10 14:07:27.658881,251
2021-12-10 14:07:27.838757,291
2021-12-10 14:07:27.838778,332
2021-12-10 14:07:27.838788,354
2021-12-10 14:07:27.838797,361
2021-12-10 14:07:27.838806,379
2021-12-10 14:07:27.838814,374
2021-12-10 14:07:27.838823,320
2021-12-10 14:07:27.838831,254
2021-12-10 14:07:27.838840,176
2021-12-10 14:07:27.838848,73
2021-12-10 14:07:27.838857,-24
2021-12-10 14:07:27.838865,-122
2021-12-10 14:07:27.838874,-202
2021-12-10 14:07:27.838882,-222
2021-12-10 14:07:27.838891,-242
2021-12-10 14:07:27.838899,-278
2021-12-10 14:07:27.838907,-283
2021-12-10 14:07:27.838916,-261
2021-12-10 14:07:27.838924,-256
2021-12-10 14:07:27.838932,-249
2021-12-10 14:07:27.838941,-232
2021-12-10 14:07:27.838949,-227
2021-12-10 14:07:27.838957,-224
2021-12-10 14:07:27.838965,-215
2021-12-10 14:07:27.838974,-217
2021-12-10 14:07:27.838982,-198
2021-12-10 14:07:27.838991,-168
2021-12-10 14:07:27.838999,-173
2021-12-10 14:07:27.839007,-168
2021-12-10 14:07:27.839016,-144
2021-12-10 14:07:28.063729,-129
2021-12-10 14:07:28.063747,-129
2021-12-10 14:07:28.063756,-161
2021-12-10 14:07:28.063765,-176
2021-12-10 14:07:28.063774,-146
2021-12-10 14:07:28.063783,-141
2021-12-10 14:07:28.063791,-158
2021-12-10 14:07:28.063800,-151
2021-12-10 14:07:28.063808,-141
2021-12-10 14:07:28.063817,-154
2021-12-10 14:07:28.063826,-161
2021-12-10 14:07:28.063834,-151
2021-12-10 14:07:28.063843,-149
2021-12-10 14:07:28.063852,-156
2021-12-10 14:07:28.063860,-156
2021-12-10 14:07:28.063869,-161
2021-12-10 14:07:28.063877,-161
2021-12-10 14:07:28.063886,-134
2021-12-10 14:07:28.063895,-119
2021-12-10 14:07:28.063903,-122
2021-12-10 14:07:28.063912,-117
2021-12-10 14:07:28.063920,-129
2021-12-10 14:07:28.063929,-149
2021-12-10 14:07:28.063937,-161
2021-12-10 14:07:28.063946,-171
2021-12-10 14:07:28.063954,-163
2021-12-10 14:07:28.063963,-146
2021-12-10 14:07:28.063971,-149
2021-12-10 14:07:28.063980,-166
2021-12-10 14:07:28.063989,-163
2021-12-10 14:07:28.378727,-112
2021-12-10 14:07:28.378747,-53
2021-12-10 14:07:28.378756,34
2021-12-10 14:07:28.378766,288
2021-12-10 14:07:28.378774,415
2021-12-10 14:07:28.378782,-190
2021-12-10 14:07:28.378791,-1068
2021-12-10 14:07:28.378799,-1120
2021-12-10 14:07:28.378808,-538
2021-12-10 14:07:28.378816,-266
2021-12-10 14:07:28.378825,-244
2021-12-10 14:07:28.378833,-92
2021-12-10 14:07:28.378842,0
2021-12-10 14:07:28.378850,-12
2021-12-10 14:07:28.378859,12
2021-12-10 14:07:28.378867,39
2021-12-10 14:07:28.378875,29
2021-12-10 14:07:28.378883,34
2021-12-10 14:07:28.378892,56
2021-12-10 14:07:28.378900,70
2021-12-10 14:07:28.378909,78
2021-12-10 14:07:28.378917,92
2021-12-10 14:07:28.378925,114
2021-12-10 14:07:28.378934,151
2021-12-10 14:07:28.378942,195
2021-12-10 14:07:28.378950,220
2021-12-10 14:07:28.378959,256
2021-12-10 14:07:28.378967,303
2021-12-10 14:07:28.378975,332
2021-12-10 14:07:28.378984,344
2021-12-10 14:07:28.602349,354
2021-12-10 14:07:28.602369,354
2021-12-10 14:07:28.602379,315
2021-12-10 14:07:28.602388,251
2021-12-10 14:07:28.602396,180
2021-12-10 14:07:28.602405,75
2021-12-10 14:07:28.602413,-56
2021-12-10 14:07:28.602422,-144
2021-12-10 14:07:28.602430,-183
2021-12-10 14:07:28.602438,-229
2021-12-10 14:07:28.602447,-264
2021-12-10 14:07:28.602455,-266
2021-12-10 14:07:28.602464,-273
2021-12-10 14:07:28.602472,-281
2021-12-10 14:07:28.602480,-266
2021-12-10 14:07:28.602489,-266
2021-12-10 14:07:28.602497,-276
2021-12-10 14:07:28.602506,-261
2021-12-10 14:07:28.602514,-239
2021-12-10 14:07:28.602523,-227
2021-12-10 14:07:28.602531,-210
2021-12-10 14:07:28.602540,-195
2021-12-10 14:07:28.602548,-188
2021-12-10 14:07:28.602556,-176
2021-12-10 14:07:28.602565,-168
2021-12-10 14:07:28.602573,-156
2021-12-10 14:07:28.602582,-136
2021-12-10 14:07:28.602590,-139
2021-12-10 14:07:28.602599,-149
2021-12-10 14:07:28.602607,-132
2021-12-10 14:07:28.783659,-122
2021-12-10 14:07:28.783678,-139
2021-12-10 14:07:28.783688,-149
2021-12-10 14:07:28.783696,-144
2021-12-10 14:07:28.783704,-139
2021-12-10 14:07:28.783712,-144
2021-12-10 14:07:28.783720,-156
2021-12-10 14:07:28.783728,-146
2021-12-10 14:07:28.783737,-129
2021-12-10 14:07:28.783745,-146
2021-12-10 14:07:28.783753,-168
2021-12-10 14:07:28.783762,-154
2021-12-10 14:07:28.783770,-139
2021-12-10 14:07:28.783778,-144
2021-12-10 14:07:28.783787,-146
2021-12-10 14:07:28.783795,-144
2021-12-10 14:07:28.783804,-139
2021-12-10 14:07:28.783812,-132
2021-12-10 14:07:28.783820,-124
2021-12-10 14:07:28.783828,-129
2021-12-10 14:07:28.783837,-144
2021-12-10 14:07:28.783845,-136
2021-12-10 14:07:28.783854,-112
2021-12-10 14:07:28.783862,-105
2021-12-10 14:07:28.783870,-110
2021-12-10 14:07:28.783879,-102
2021-12-10 14:07:28.783887,-100
2021-12-10 14:07:28.783896,-122
2021-12-10 14:07:28.783904,-139
2021-12-10 14:07:28.783912,-124
2021-12-10 14:07:29.098143,-122
2021-12-10 14:07:29.098162,-132
2021-12-10 14:07:29.098172,-129
2021-12-10 14:07:29.098181,-136
2021-12-10 14:07:29.098189,-139
2021-12-10 14:07:29.098198,-97
2021-12-10 14:07:29.098207,-41
2021-12-10 14:07:29.098215,85
2021-12-10 14:07:29.098224,462
2021-12-10 14:07:29.098233,674
2021-12-10 14:07:29.098241,44
2021-12-10 14:07:29.098250,-870
2021-12-10 14:07:29.098258,-980
2021-12-10 14:07:29.098267,-474
2021-12-10 14:07:29.098275,-212
2021-12-10 14:07:29.098283,-190
2021-12-10 14:07:29.098292,-73
2021-12-10 14:07:29.098300,24
2021-12-10 14:07:29.098309,12
2021-12-10 14:07:29.098317,2
2021-12-10 14:07:29.098325,24
2021-12-10 14:07:29.098334,46
2021-12-10 14:07:29.098342,68
2021-12-10 14:07:29.098351,90
2021-12-10 14:07:29.098359,105
2021-12-10 14:07:29.098368,105
2021-12-10 14:07:29.098376,97
2021-12-10 14:07:29.098384,107
2021-12-10 14:07:29.098393,151
2021-12-10 14:07:29.098404,185
2021-12-10 14:07:29.233789,212
2021-12-10 14:07:29.233809,259
2021-12-10 14:07:29.233819,303
2021-12-10 14:07:29.233828,344
2021-12-10 14:07:29.233837,379
2021-12-10 14:07:29.233845,374
2021-12-10 14:07:29.233854,361
2021-12-10 14:07:29.233862,337
2021-12-10 14:07:29.233871,293
2021-12-10 14:07:29.233879,234
2021-12-10 14:07:29.233888,136
2021-12-10 14:07:29.233896,34
2021-12-10 14:07:29.233905,-48
2021-12-10 14:07:29.233913,-136
2021-12-10 14:07:29.233922,-195
2021-12-10 14:07:29.233930,-217
2021-12-10 14:07:29.233939,-227
2021-12-10 14:07:29.233947,-232
2021-12-10 14:07:29.233956,-249
2021-12-10 14:07:29.233964,-246
2021-12-10 14:07:29.233973,-205
2021-12-10 14:07:29.233982,-190
2021-12-10 14:07:29.233990,-205
2021-12-10 14:07:29.233999,-180
2021-12-10 14:07:29.234007,-151
2021-12-10 14:07:29.234016,-151
2021-12-10 14:07:29.234024,-129
2021-12-10 14:07:29.234033,-88
2021-12-10 14:07:29.234041,-97
2021-12-10 14:07:29.234050,-149
2021-12-10 14:07:29.458702,-141
2021-12-10 14:07:29.458721,-92
2021-12-10 14:07:29.458731,-85
2021-12-10 14:07:29.458740,-102
2021-12-10 14:07:29.458749,-105
2021-12-10 14:07:29.458757,-100
2021-12-10 14:07:29.458766,-100
2021-12-10 14:07:29.458774,-97
2021-12-10 14:07:29.458783,-95
2021-12-10 14:07:29.458791,-112
2021-12-10 14:07:29.458800,-129
2021-12-10 14:07:29.458808,-117
2021-12-10 14:07:29.458817,-102
2021-12-10 14:07:29.458825,-110
2021-12-10 14:07:29.458834,-129
2021-12-10 14:07:29.458842,-129
2021-12-10 14:07:29.458850,-112
2021-12-10 14:07:29.458859,-100
2021-12-10 14:07:29.458867,-117
2021-12-10 14:07:29.458875,-134
2021-12-10 14:07:29.458884,-117
2021-12-10 14:07:29.458892,-100
2021-12-10 14:07:29.458900,-110
2021-12-10 14:07:29.458908,-117
2021-12-10 14:07:29.458917,-107
2021-12-10 14:07:29.458925,-107
2021-12-10 14:07:29.458934,-110
2021-12-10 14:07:29.458942,-100
2021-12-10 14:07:29.458950,-102
2021-12-10 14:07:29.458958,-95
2021-12-10 14:07:29.728713,-80
2021-12-10 14:07:29.728732,-83
2021-12-10 14:07:29.728742,-75
2021-12-10 14:07:29.728751,-68
2021-12-10 14:07:29.728760,-80
2021-12-10 14:07:29.728769,-107
2021-12-10 14:07:29.728777,-114
2021-12-10 14:07:29.728786,-97
2021-12-10 14:07:29.728794,-90
2021-12-10 14:07:29.728802,-97
2021-12-10 14:07:29.728811,-100
2021-12-10 14:07:29.728819,-110
2021-12-10 14:07:29.728828,-114
2021-12-10 14:07:29.728836,-68
2021-12-10 14:07:29.728845,17
2021-12-10 14:07:29.728853,212
2021-12-10 14:07:29.728862,633
2021-12-10 14:07:29.728870,682
2021-12-10 14:07:29.728879,-149
2021-12-10 14:07:29.728887,-961
2021-12-10 14:07:29.728895,-853
2021-12-10 14:07:29.728904,-337
2021-12-10 14:07:29.728912,-171
2021-12-10 14:07:29.728921,-144
2021-12-10 14:07:29.728929,-7
2021-12-10 14:07:29.728937,24
2021-12-10 14:07:29.728946,-9
2021-12-10 14:07:29.728954,46
2021-12-10 14:07:29.728963,78
2021-12-10 14:07:29.728971,53
2021-12-10 14:07:29.953896,61
2021-12-10 14:07:29.953916,90
2021-12-10 14:07:29.953925,95
2021-12-10 14:07:29.953934,100
2021-12-10 14:07:29.953943,117
2021-12-10 14:07:29.953952,134
2021-12-10 14:07:29.953960,156
2021-12-10 14:07:29.953969,195
2021-12-10 14:07:29.953977,229
2021-12-10 14:07:29.953986,254
2021-12-10 14:07:29.953994,293
2021-12-10 14:07:29.954003,339
2021-12-10 14:07:29.954011,349
2021-12-10 14:07:29.954020,335
2021-12-10 14:07:29.954028,327
2021-12-10 14:07:29.954037,305
2021-12-10 14:07:29.954045,254
2021-12-10 14:07:29.954053,178
2021-12-10 14:07:29.954062,75
2021-12-10 14:07:29.954070,-24
2021-12-10 14:07:29.954079,-114
2021-12-10 14:07:29.954087,-185
2021-12-10 14:07:29.954096,-239
2021-12-10 14:07:29.954105,-271
2021-12-10 14:07:29.954113,-278
2021-12-10 14:07:29.954121,-286
2021-12-10 14:07:29.954130,-305
2021-12-10 14:07:29.954138,-298
2021-12-10 14:07:29.954147,-281
2021-12-10 14:07:29.954155,-276
2021-12-10 14:07:30.133718,-266
2021-12-10 14:07:30.133737,-249
2021-12-10 14:07:30.133747,-239
2021-12-10 14:07:30.133756,-249
2021-12-10 14:07:30.133764,-242
2021-12-10 14:07:30.133773,-217
2021-12-10 14:07:30.133781,-217
2021-12-10 14:07:30.133790,-232
2021-12-10 14:07:30.133798,-220
2021-12-10 14:07:30.133807,-207
2021-12-10 14:07:30.133815,-212
2021-12-10 14:07:30.133824,-210
2021-12-10 14:07:30.133832,-205
2021-12-10 14:07:30.133840,-210
2021-12-10 14:07:30.133849,-212
2021-12-10 14:07:30.133857,-215
2021-12-10 14:07:30.133865,-224
2021-12-10 14:07:30.133874,-239
2021-12-10 14:07:30.133882,-244
2021-12-10 14:07:30.133891,-237
2021-12-10 14:07:30.133899,-237
2021-12-10 14:07:30.133907,-244
2021-12-10 14:07:30.133915,-249
2021-12-10 14:07:30.133924,-244
2021-12-10 14:07:30.133932,-234
2021-12-10 14:07:30.133941,-232
2021-12-10 14:07:30.133949,-234
2021-12-10 14:07:30.133957,-237
2021-12-10 14:07:30.133966,-237
2021-12-10 14:07:30.133974,-234
2021-12-10 14:07:30.403756,-237
2021-12-10 14:07:30.403776,-232
2021-12-10 14:07:30.403786,-224
2021-12-10 14:07:30.403795,-234
2021-12-10 14:07:30.403804,-239
2021-12-10 14:07:30.403812,-222
2021-12-10 14:07:30.403821,-210
2021-12-10 14:07:30.403829,-200
2021-12-10 14:07:30.403838,-190
2021-12-10 14:07:30.403847,-190
2021-12-10 14:07:30.403855,-217
2021-12-10 14:07:30.403864,-256
2021-12-10 14:07:30.403873,-259
2021-12-10 14:07:30.403881,-239
2021-12-10 14:07:30.403890,-244
2021-12-10 14:07:30.403898,-256
2021-12-10 14:07:30.403907,-259
2021-12-10 14:07:30.403915,-259
2021-12-10 14:07:30.403924,-254
2021-12-10 14:07:30.403932,-220
2021-12-10 14:07:30.403940,-156
2021-12-10 14:07:30.403949,-63
2021-12-10 14:07:30.403957,171
2021-12-10 14:07:30.403966,254
2021-12-10 14:07:30.403974,-381
2021-12-10 14:07:30.403983,-1215
2021-12-10 14:07:30.403991,-1212
2021-12-10 14:07:30.404000,-643
2021-12-10 14:07:30.404008,-383
2021-12-10 14:07:30.404016,-357
2021-12-10 14:07:30.717448,-217
2021-12-10 14:07:30.717469,-149
2021-12-10 14:07:30.717478,-176
2021-12-10 14:07:30.717487,-149
2021-12-10 14:07:30.717496,-127
2021-12-10 14:07:30.717504,-144
2021-12-10 14:07:30.717513,-129
2021-12-10 14:07:30.717521,-114
2021-12-10 14:07:30.717529,-119
2021-12-10 14:07:30.717537,-114
2021-12-10 14:07:30.717545,-100
2021-12-10 14:07:30.717553,-83
2021-12-10 14:07:30.717561,-56
2021-12-10 14:07:30.717569,-22
2021-12-10 14:07:30.717577,9
2021-12-10 14:07:30.717585,48
2021-12-10 14:07:30.717593,92
2021-12-10 14:07:30.717601,129
2021-12-10 14:07:30.717610,156
2021-12-10 14:07:30.717618,178
2021-12-10 14:07:30.717625,163
2021-12-10 14:07:30.717633,136
2021-12-10 14:07:30.717641,112
2021-12-10 14:07:30.717649,44
2021-12-10 14:07:30.717657,-56
2021-12-10 14:07:30.717665,-146
2021-12-10 14:07:30.717673,-220
2021-12-10 14:07:30.717682,-286
2021-12-10 14:07:30.717692,-339
2021-12-10 14:07:30.717700,-359
2021-12-10 14:07:30.853812,-366
2021-12-10 14:07:30.853833,-374
2021-12-10 14:07:30.853843,-369
2021-12-10 14:07:30.853851,-361
2021-12-10 14:07:30.853860,-352
2021-12-10 14:07:30.853868,-320
2021-12-10 14:07:30.853877,-295
2021-12-10 14:07:30.853885,-291
2021-12-10 14:07:30.853893,-269
2021-12-10 14:07:30.853902,-229
2021-12-10 14:07:30.853910,-234
2021-12-10 14:07:30.853919,-246
2021-12-10 14:07:30.853927,-210
2021-12-10 14:07:30.853935,-185
2021-12-10 14:07:30.853944,-200
2021-12-10 14:07:30.853952,-185
2021-12-10 14:07:30.853960,-161
2021-12-10 14:07:30.853969,-163
2021-12-10 14:07:30.853978,-163
2021-12-10 14:07:30.853986,-144
2021-12-10 14:07:30.853994,-136
2021-12-10 14:07:30.854003,-154
2021-12-10 14:07:30.854011,-173
2021-12-10 14:07:30.854019,-171
2021-12-10 14:07:30.854028,-151
2021-12-10 14:07:30.854036,-139
2021-12-10 14:07:30.854045,-149
2021-12-10 14:07:30.854053,-144
2021-12-10 14:07:30.854061,-124
2021-12-10 14:07:30.854070,-110
2021-12-10 14:07:31.078783,-102
2021-12-10 14:07:31.078803,-122
2021-12-10 14:07:31.078813,-139
2021-12-10 14:07:31.078822,-119
2021-12-10 14:07:31.078831,-114
2021-12-10 14:07:31.078839,-127
2021-12-10 14:07:31.078848,-102
2021-12-10 14:07:31.078856,-83
2021-12-10 14:07:31.078865,-90
2021-12-10 14:07:31.078874,-88
2021-12-10 14:07:31.078882,-80
2021-12-10 14:07:31.078891,-88
2021-12-10 14:07:31.078899,-78
2021-12-10 14:07:31.078908,-75
2021-12-10 14:07:31.078916,-90
2021-12-10 14:07:31.078925,-90
2021-12-10 14:07:31.078933,-85
2021-12-10 14:07:31.078942,-85
2021-12-10 14:07:31.078950,-73
2021-12-10 14:07:31.078959,-51
2021-12-10 14:07:31.078967,-31
2021-12-10 14:07:31.078976,-36
2021-12-10 14:07:31.078984,-53
2021-12-10 14:07:31.078993,-36
2021-12-10 14:07:31.079001,-12
2021-12-10 14:07:31.079010,-31
2021-12-10 14:07:31.079018,-58
2021-12-10 14:07:31.079026,-46
2021-12-10 14:07:31.079035,-48
2021-12-10 14:07:31.079043,-68
2021-12-10 14:07:31.303779,-56
2021-12-10 14:07:31.303799,-36
2021-12-10 14:07:31.303809,-58
2021-12-10 14:07:31.303817,-61
2021-12-10 14:07:31.303826,2
2021-12-10 14:07:31.303835,78
2021-12-10 14:07:31.303843,217
2021-12-10 14:07:31.303852,577
2021-12-10 14:07:31.303860,687
2021-12-10 14:07:31.303869,0
2021-12-10 14:07:31.303878,-799
2021-12-10 14:07:31.303886,-811
2021-12-10 14:07:31.303895,-335
2021-12-10 14:07:31.303903,-107
2021-12-10 14:07:31.303912,-78
2021-12-10 14:07:31.303920,9
2021-12-10 14:07:31.303929,53
2021-12-10 14:07:31.303937,61
2021-12-10 14:07:31.303946,92
2021-12-10 14:07:31.303954,110
2021-12-10 14:07:31.303962,110
2021-12-10 14:07:31.303971,122
2021-12-10 14:07:31.303979,144
2021-12-10 14:07:31.303988,139
2021-12-10 14:07:31.303996,114
2021-12-10 14:07:31.304004,139
2021-12-10 14:07:31.304013,185
2021-12-10 14:07:31.304021,198
2021-12-10 14:07:31.304030,220
2021-12-10 14:07:31.304038,271
2021-12-10 14:07:31.528786,313
2021-12-10 14:07:31.528806,357
2021-12-10 14:07:31.528816,393
2021-12-10 14:07:31.528825,386
2021-12-10 14:07:31.528834,386
2021-12-10 14:07:31.528843,413
2021-12-10 14:07:31.528852,401
2021-12-10 14:07:31.528861,344
2021-12-10 14:07:31.528869,281
2021-12-10 14:07:31.528878,193
2021-12-10 14:07:31.528887,83
2021-12-10 14:07:31.528895,-14
2021-12-10 14:07:31.528904,-85
2021-12-10 14:07:31.528913,-136
2021-12-10 14:07:31.528921,-173
2021-12-10 14:07:31.528930,-195
2021-12-10 14:07:31.528939,-200
2021-12-10 14:07:31.528948,-202
2021-12-10 14:07:31.528956,-205
2021-12-10 14:07:31.528965,-188
2021-12-10 14:07:31.528974,-171
2021-12-10 14:07:31.528982,-178
2021-12-10 14:07:31.528991,-185
2021-12-10 14:07:31.529000,-163
2021-12-10 14:07:31.529009,-144
2021-12-10 14:07:31.529017,-136
2021-12-10 14:07:31.529026,-134
2021-12-10 14:07:31.529035,-122
2021-12-10 14:07:31.529044,-107
2021-12-10 14:07:31.529053,-105
2021-12-10 14:07:31.843955,-112
2021-12-10 14:07:31.843975,-114
2021-12-10 14:07:31.843985,-112
2021-12-10 14:07:31.843994,-105
2021-12-10 14:07:31.844003,-102
2021-12-10 14:07:31.844011,-102
2021-12-10 14:07:31.844020,-105
2021-12-10 14:07:31.844028,-107
2021-12-10 14:07:31.844037,-105
2021-12-10 14:07:31.844045,-102
2021-12-10 14:07:31.844054,-102
2021-12-10 14:07:31.844062,-110
2021-12-10 14:07:31.844070,-114
2021-12-10 14:07:31.844079,-105
2021-12-10 14:07:31.844087,-100
2021-12-10 14:07:31.844096,-110
2021-12-10 14:07:31.844104,-114
2021-12-10 14:07:31.844112,-105
2021-12-10 14:07:31.844121,-102
2021-12-10 14:07:31.844129,-105
2021-12-10 14:07:31.844137,-95
2021-12-10 14:07:31.844146,-88
2021-12-10 14:07:31.844154,-88
2021-12-10 14:07:31.844162,-85
2021-12-10 14:07:31.844171,-85
2021-12-10 14:07:31.844179,-88
2021-12-10 14:07:31.844187,-92
2021-12-10 14:07:31.844196,-95
2021-12-10 14:07:31.844204,-78
2021-12-10 14:07:31.844213,-75
2021-12-10 14:07:31.978718,-95
2021-12-10 14:07:31.978737,-95
2021-12-10 14:07:31.978746,-83
2021-12-10 14:07:31.978755,-83
2021-12-10 14:07:31.978764,-85
2021-12-10 14:07:31.978773,-83
2021-12-10 14:07:31.978781,-63
2021-12-10 14:07:31.978790,-41
2021-12-10 14:07:31.978798,-34
2021-12-10 14:07:31.978806,-44
2021-12-10 14:07:31.978815,-61
2021-12-10 14:07:31.978823,-75
2021-12-10 14:07:31.978832,-78
2021-12-10 14:07:31.978840,-75
2021-12-10 14:07:31.978849,-80
2021-12-10 14:07:31.978857,-80
2021-12-10 14:07:31.978865,-75
2021-12-10 14:07:31.978874,-78
2021-12-10 14:07:31.978882,-70
2021-12-10 14:07:31.978891,-26
2021-12-10 14:07:31.978899,48
2021-12-10 14:07:31.978907,264
2021-12-10 14:07:31.978916,679
2021-12-10 14:07:31.978924,670
2021-12-10 14:07:31.978932,-161
2021-12-10 14:07:31.978941,-907
2021-12-10 14:07:31.978949,-789
2021-12-10 14:07:31.978958,-315
2021-12-10 14:07:31.978966,-146
2021-12-10 14:07:31.978974,-114
2021-12-10 14:07:32.338924,-9
2021-12-10 14:07:32.338946,22
2021-12-10 14:07:32.338956,9
2021-12-10 14:07:32.338965,29
2021-12-10 14:07:32.338974,48
2021-12-10 14:07:32.338983,53
2021-12-10 14:07:32.338991,63
2021-12-10 14:07:32.339000,73
2021-12-10 14:07:32.339008,80
2021-12-10 14:07:32.339016,85
2021-12-10 14:07:32.339025,110
2021-12-10 14:07:32.339033,144
2021-12-10 14:07:32.339042,168
2021-12-10 14:07:32.339050,180
2021-12-10 14:07:32.339059,205
2021-12-10 14:07:32.339068,254
2021-12-10 14:07:32.339076,300
2021-12-10 14:07:32.339084,327
2021-12-10 14:07:32.339093,352
2021-12-10 14:07:32.339101,366
2021-12-10 14:07:32.339110,359
2021-12-10 14:07:32.339118,330
2021-12-10 14:07:32.339126,273
2021-12-10 14:07:32.339135,195
2021-12-10 14:07:32.339143,105
2021-12-10 14:07:32.339152,9
2021-12-10 14:07:32.339160,-85
2021-12-10 14:07:32.339168,-154
2021-12-10 14:07:32.339177,-200
2021-12-10 14:07:32.339185,-246
2021-12-10 14:07:32.428908,-269
2021-12-10 14:07:32.428929,-254
2021-12-10 14:07:32.428939,-259
2021-12-10 14:07:32.428948,-276
2021-12-10 14:07:32.428956,-278
2021-12-10 14:07:32.428965,-264
2021-12-10 14:07:32.428973,-246
2021-12-10 14:07:32.428982,-237
2021-12-10 14:07:32.428990,-224
2021-12-10 14:07:32.428999,-215
2021-12-10 14:07:32.429008,-224
2021-12-10 14:07:32.429016,-210
2021-12-10 14:07:32.429025,-188
2021-12-10 14:07:32.429033,-198
2021-12-10 14:07:32.429041,-198
2021-12-10 14:07:32.429050,-183
2021-12-10 14:07:32.429058,-176
2021-12-10 14:07:32.429067,-176
2021-12-10 14:07:32.429075,-176
2021-12-10 14:07:32.429084,-173
2021-12-10 14:07:32.429092,-176
2021-12-10 14:07:32.429101,-176
2021-12-10 14:07:32.429109,-180
2021-12-10 14:07:32.429127,-188
2021-12-10 14:07:32.429136,-176
2021-12-10 14:07:32.429145,-168
2021-12-10 14:07:32.429153,-180
2021-12-10 14:07:32.429162,-188
2021-12-10 14:07:32.429170,-185
2021-12-10 14:07:32.429178,-185
2021-12-10 14:07:32.787561,-193
2021-12-10 14:07:32.787584,-188
2021-12-10 14:07:32.787594,-176
2021-12-10 14:07:32.787603,-185
2021-12-10 14:07:32.787612,-190
2021-12-10 14:07:32.787621,-185
2021-12-10 14:07:32.787630,-183
2021-12-10 14:07:32.787638,-173
2021-12-10 14:07:32.787647,-180
2021-12-10 14:07:32.787656,-217
2021-12-10 14:07:32.787664,-220
2021-12-10 14:07:32.787673,-190
2021-12-10 14:07:32.787682,-190
2021-12-10 14:07:32.787690,-198
2021-12-10 14:07:32.787699,-195
2021-12-10 14:07:32.787707,-200
2021-12-10 14:07:32.787716,-190
2021-12-10 14:07:32.787725,-168
2021-12-10 14:07:32.787733,-171
2021-12-10 14:07:32.787742,-176
2021-12-10 14:07:32.787750,-163
2021-12-10 14:07:32.787759,-161
2021-12-10 14:07:32.787768,-180
2021-12-10 14:07:32.787776,-193
2021-12-10 14:07:32.787785,-193
2021-12-10 14:07:32.787793,-188
2021-12-10 14:07:32.787802,-190
2021-12-10 14:07:32.787810,-185
2021-12-10 14:07:32.787819,-180
2021-12-10 14:07:32.787827,-185
2021-12-10 14:07:32.968931,-171
2021-12-10 14:07:32.968954,-110
2021-12-10 14:07:32.968964,-34
2021-12-10 14:07:32.968973,114
2021-12-10 14:07:32.968981,364
2021-12-10 14:07:32.968990,166
2021-12-10 14:07:32.968999,-706
2021-12-10 14:07:32.969007,-1244
2021-12-10 14:07:32.969016,-870
2021-12-10 14:07:32.969024,-381
2021-12-10 14:07:32.969033,-283
2021-12-10 14:07:32.969041,-207
2021-12-10 14:07:32.969050,-92
2021-12-10 14:07:32.969058,-95
2021-12-10 14:07:32.969067,-97
2021-12-10 14:07:32.969075,-68
2021-12-10 14:07:32.969084,-63
2021-12-10 14:07:32.969092,-48
2021-12-10 14:07:32.969100,-24
2021-12-10 14:07:32.969109,-34
2021-12-10 14:07:32.969117,-41
2021-12-10 14:07:32.969126,-4
2021-12-10 14:07:32.969134,34
2021-12-10 14:07:32.969143,48
2021-12-10 14:07:32.969151,53
2021-12-10 14:07:32.969160,80
2021-12-10 14:07:32.969168,134
2021-12-10 14:07:32.969177,171
2021-12-10 14:07:32.969185,207
2021-12-10 14:07:32.969193,256
2021-12-10 14:07:33.148946,283
2021-12-10 14:07:33.148967,298
2021-12-10 14:07:33.148977,286
2021-12-10 14:07:33.148986,224
2021-12-10 14:07:33.148994,178
2021-12-10 14:07:33.149003,151
2021-12-10 14:07:33.149011,58
2021-12-10 14:07:33.149020,-63
2021-12-10 14:07:33.149028,-144
2021-12-10 14:07:33.149037,-202
2021-12-10 14:07:33.149045,-246
2021-12-10 14:07:33.149054,-273
2021-12-10 14:07:33.149062,-283
2021-12-10 14:07:33.149071,-283
2021-12-10 14:07:33.149079,-283
2021-12-10 14:07:33.149088,-271
2021-12-10 14:07:33.149096,-256
2021-12-10 14:07:33.149105,-244
2021-12-10 14:07:33.149113,-234
2021-12-10 14:07:33.149122,-227
2021-12-10 14:07:33.149130,-215
2021-12-10 14:07:33.149138,-207
2021-12-10 14:07:33.149147,-188
2021-12-10 14:07:33.149155,-156
2021-12-10 14:07:33.149164,-146
2021-12-10 14:07:33.149172,-149
2021-12-10 14:07:33.149180,-136
2021-12-10 14:07:33.149189,-119
2021-12-10 14:07:33.149197,-122
2021-12-10 14:07:33.149205,-136
2021-12-10 14:07:33.373911,-141
2021-12-10 14:07:33.373933,-132
2021-12-10 14:07:33.373943,-134
2021-12-10 14:07:33.373952,-136
2021-12-10 14:07:33.373961,-139
2021-12-10 14:07:33.373969,-146
2021-12-10 14:07:33.373978,-141
2021-12-10 14:07:33.373986,-144
2021-12-10 14:07:33.373995,-154
2021-12-10 14:07:33.374003,-144
2021-12-10 14:07:33.374012,-129
2021-12-10 14:07:33.374020,-139
2021-12-10 14:07:33.374029,-158
2021-12-10 14:07:33.374037,-154
2021-12-10 14:07:33.374046,-139
2021-12-10 14:07:33.374054,-141
2021-12-10 14:07:33.374063,-144
2021-12-10 14:07:33.374071,-136
2021-12-10 14:07:33.374080,-132
2021-12-10 14:07:33.374089,-136
2021-12-10 14:07:33.374097,-149
2021-12-10 14:07:33.374105,-139
2021-12-10 14:07:33.374114,-117
2021-12-10 14:07:33.374122,-122
2021-12-10 14:07:33.374131,-129
2021-12-10 14:07:33.374139,-122
2021-12-10 14:07:33.374147,-110
2021-12-10 14:07:33.374156,-105
2021-12-10 14:07:33.374164,-95
2021-12-10 14:07:33.374173,-83
2021-12-10 14:07:33.598786,-68
2021-12-10 14:07:33.598805,-58
2021-12-10 14:07:33.598814,-80
2021-12-10 14:07:33.598823,-107
2021-12-10 14:07:33.598832,-102
2021-12-10 14:07:33.598840,-90
2021-12-10 14:07:33.598848,-102
2021-12-10 14:07:33.598857,-105
2021-12-10 14:07:33.598865,-100
2021-12-10 14:07:33.598874,-95
2021-12-10 14:07:33.598882,-80
2021-12-10 14:07:33.598891,-56
2021-12-10 14:07:33.598899,-12
2021-12-10 14:07:33.598907,127
2021-12-10 14:07:33.598916,469
2021-12-10 14:07:33.598924,633
2021-12-10 14:07:33.598932,9
2021-12-10 14:07:33.598941,-875
2021-12-10 14:07:33.598949,-961
2021-12-10 14:07:33.598957,-432
2021-12-10 14:07:33.598966,-178
2021-12-10 14:07:33.598974,-158
2021-12-10 14:07:33.598982,-34
2021-12-10 14:07:33.598991,29
2021-12-10 14:07:33.598999,2
2021-12-10 14:07:33.599008,29
2021-12-10 14:07:33.599016,61
2021-12-10 14:07:33.599024,61
2021-12-10 14:07:33.599032,68
2021-12-10 14:07:33.599041,83
2021-12-10 14:07:33.958944,97
2021-12-10 14:07:33.958966,114
2021-12-10 14:07:33.958976,129
2021-12-10 14:07:33.958985,149
2021-12-10 14:07:33.958994,178
2021-12-10 14:07:33.959003,210
2021-12-10 14:07:33.959011,246
2021-12-10 14:07:33.959020,276
2021-12-10 14:07:33.959028,295
2021-12-10 14:07:33.959037,332
2021-12-10 14:07:33.959045,366
2021-12-10 14:07:33.959054,376
2021-12-10 14:07:33.959063,371
2021-12-10 14:07:33.959071,359
2021-12-10 14:07:33.959080,325
2021-12-10 14:07:33.959088,256
2021-12-10 14:07:33.959097,161
2021-12-10 14:07:33.959105,56
2021-12-10 14:07:33.959114,-36
2021-12-10 14:07:33.959122,-100
2021-12-10 14:07:33.959131,-154
2021-12-10 14:07:33.959140,-200
2021-12-10 14:07:33.959148,-215
2021-12-10 14:07:33.959157,-217
2021-12-10 14:07:33.959165,-220
2021-12-10 14:07:33.959174,-210
2021-12-10 14:07:33.959182,-200
2021-12-10 14:07:33.959191,-193
2021-12-10 14:07:33.959199,-180
2021-12-10 14:07:33.959208,-168
2021-12-10 14:07:34.048882,-168
2021-12-10 14:07:34.048902,-166
2021-12-10 14:07:34.048912,-144
2021-12-10 14:07:34.048921,-124
2021-12-10 14:07:34.048929,-114
2021-12-10 14:07:34.048938,-110
2021-12-10 14:07:34.048947,-107
2021-12-10 14:07:34.048955,-95
2021-12-10 14:07:34.048964,-83
2021-12-10 14:07:34.048973,-75
2021-12-10 14:07:34.048981,-80
2021-12-10 14:07:34.048990,-88
2021-12-10 14:07:34.048999,-78
2021-12-10 14:07:34.049007,-70
2021-12-10 14:07:34.049016,-80
2021-12-10 14:07:34.049025,-78
2021-12-10 14:07:34.049033,-70
2021-12-10 14:07:34.049042,-73
2021-12-10 14:07:34.049051,-80
2021-12-10 14:07:34.049059,-80
2021-12-10 14:07:34.049068,-73
2021-12-10 14:07:34.049077,-75
2021-12-10 14:07:34.049085,-90
2021-12-10 14:07:34.049094,-88
2021-12-10 14:07:34.049102,-73
2021-12-10 14:07:34.049111,-68
2021-12-10 14:07:34.049119,-68
2021-12-10 14:07:34.049128,-66
2021-12-10 14:07:34.049136,-63
2021-12-10 14:07:34.049145,-63
2021-12-10 14:07:34.318849,-70
2021-12-10 14:07:34.318870,-75
2021-12-10 14:07:34.318880,-70
2021-12-10 14:07:34.318889,-58
2021-12-10 14:07:34.318898,-56
2021-12-10 14:07:34.318906,-61
2021-12-10 14:07:34.318915,-66
2021-12-10 14:07:34.318923,-66
2021-12-10 14:07:34.318932,-63
2021-12-10 14:07:34.318940,-58
2021-12-10 14:07:34.318949,-68
2021-12-10 14:07:34.318957,-70
2021-12-10 14:07:34.318966,-51
2021-12-10 14:07:34.318974,-36
2021-12-10 14:07:34.318983,-29
2021-12-10 14:07:34.318992,-22
2021-12-10 14:07:34.319000,-29
2021-12-10 14:07:34.319008,-58
2021-12-10 14:07:34.319017,-75
2021-12-10 14:07:34.319025,-63
2021-12-10 14:07:34.319034,-53
2021-12-10 14:07:34.319042,-68
2021-12-10 14:07:34.319051,-83
2021-12-10 14:07:34.319059,-85
2021-12-10 14:07:34.319067,-70
2021-12-10 14:07:34.319076,-29
2021-12-10 14:07:34.319084,46
2021-12-10 14:07:34.319093,234
2021-12-10 14:07:34.319101,626
2021-12-10 14:07:34.319110,674
2021-12-10 14:07:34.543307,-97
2021-12-10 14:07:34.543329,-882
2021-12-10 14:07:34.543338,-814
2021-12-10 14:07:34.543347,-320
2021-12-10 14:07:34.543356,-146
2021-12-10 14:07:34.543365,-136
2021-12-10 14:07:34.543374,-24
2021-12-10 14:07:34.543382,17
2021-12-10 14:07:34.543391,2
2021-12-10 14:07:34.543399,46
2021-12-10 14:07:34.543408,78
2021-12-10 14:07:34.543416,53
2021-12-10 14:07:34.543425,58
2021-12-10 14:07:34.543433,97
2021-12-10 14:07:34.543441,105
2021-12-10 14:07:34.543450,102
2021-12-10 14:07:34.543459,124
2021-12-10 14:07:34.543474,156
2021-12-10 14:07:34.543482,166
2021-12-10 14:07:34.543491,178
2021-12-10 14:07:34.543499,215
2021-12-10 14:07:34.543508,259
2021-12-10 14:07:34.543517,298
2021-12-10 14:07:34.543525,335
2021-12-10 14:07:34.543533,357
2021-12-10 14:07:34.543542,361
2021-12-10 14:07:34.543550,352
2021-12-10 14:07:34.543558,330
2021-12-10 14:07:34.543567,293
2021-12-10 14:07:34.543575,224
2021-12-10 14:07:34.812543,132
2021-12-10 14:07:34.812565,36
2021-12-10 14:07:34.812575,-58
2021-12-10 14:07:34.812584,-136
2021-12-10 14:07:34.812592,-183
2021-12-10 14:07:34.812601,-217
2021-12-10 14:07:34.812609,-239
2021-12-10 14:07:34.812618,-244
2021-12-10 14:07:34.812626,-256
2021-12-10 14:07:34.812635,-261
2021-12-10 14:07:34.812643,-242
2021-12-10 14:07:34.812652,-232
2021-12-10 14:07:34.812666,-234
2021-12-10 14:07:34.812675,-217
2021-12-10 14:07:34.812684,-198
2021-12-10 14:07:34.812693,-198
2021-12-10 14:07:34.812701,-198
2021-12-10 14:07:34.812710,-183
2021-12-10 14:07:34.812718,-166
2021-12-10 14:07:34.812727,-161
2021-12-10 14:07:34.812735,-166
2021-12-10 14:07:34.812743,-161
2021-12-10 14:07:34.812752,-151
2021-12-10 14:07:34.812760,-146
2021-12-10 14:07:34.812769,-151
2021-12-10 14:07:34.812777,-151
2021-12-10 14:07:34.812786,-149
2021-12-10 14:07:34.812794,-149
2021-12-10 14:07:34.812803,-156
2021-12-10 14:07:34.812811,-161
2021-12-10 14:07:34.993861,-158
2021-12-10 14:07:34.993881,-163
2021-12-10 14:07:34.993891,-173
2021-12-10 14:07:34.993900,-176
2021-12-10 14:07:34.993909,-173
2021-12-10 14:07:34.993917,-171
2021-12-10 14:07:34.993926,-166
2021-12-10 14:07:34.993935,-161
2021-12-10 14:07:34.993943,-163
2021-12-10 14:07:34.993952,-171
2021-12-10 14:07:34.993961,-173
2021-12-10 14:07:34.993969,-178
2021-12-10 14:07:34.993978,-171
2021-12-10 14:07:34.993987,-161
2021-12-10 14:07:34.993995,-171
2021-12-10 14:07:34.994004,-166
2021-12-10 14:07:34.994012,-154
2021-12-10 14:07:34.994021,-154
2021-12-10 14:07:34.994029,-149
2021-12-10 14:07:34.994038,-149
2021-12-10 14:07:34.994047,-163
2021-12-10 14:07:34.994055,-166
2021-12-10 14:07:34.994064,-151
2021-12-10 14:07:34.994072,-144
2021-12-10 14:07:34.994081,-132
2021-12-10 14:07:34.994090,-112
2021-12-10 14:07:34.994098,-112
2021-12-10 14:07:34.994107,-132
2021-12-10 14:07:34.994115,-144
2021-12-10 14:07:34.994124,-161
2021-12-10 14:07:35.218925,-183
2021-12-10 14:07:35.218946,-171
2021-12-10 14:07:35.218956,-149
2021-12-10 14:07:35.218965,-154
2021-12-10 14:07:35.218974,-161
2021-12-10 14:07:35.218982,-146
2021-12-10 14:07:35.218991,-88
2021-12-10 14:07:35.219000,-17
2021-12-10 14:07:35.219008,114
2021-12-10 14:07:35.219017,388
2021-12-10 14:07:35.219025,354
2021-12-10 14:07:35.219034,-432
2021-12-10 14:07:35.219042,-1164
2021-12-10 14:07:35.219051,-961
2021-12-10 14:07:35.219059,-393
2021-12-10 14:07:35.219068,-229
2021-12-10 14:07:35.219076,-195
2021-12-10 14:07:35.219085,-56
2021-12-10 14:07:35.219093,-22
2021-12-10 14:07:35.219102,-34
2021-12-10 14:07:35.219110,14
2021-12-10 14:07:35.219119,36
2021-12-10 14:07:35.219127,22
2021-12-10 14:07:35.219135,29
2021-12-10 14:07:35.219144,46
2021-12-10 14:07:35.219152,48
2021-12-10 14:07:35.219161,58
2021-12-10 14:07:35.219169,90
2021-12-10 14:07:35.219177,114
2021-12-10 14:07:35.219186,129
2021-12-10 14:07:35.444032,156
2021-12-10 14:07:35.444054,198
2021-12-10 14:07:35.444064,239
2021-12-10 14:07:35.444073,256
2021-12-10 14:07:35.444082,288
2021-12-10 14:07:35.444090,327
2021-12-10 14:07:35.444099,317
2021-12-10 14:07:35.444107,295
2021-12-10 14:07:35.444116,291
2021-12-10 14:07:35.444124,246
2021-12-10 14:07:35.444132,163
2021-12-10 14:07:35.444141,73
2021-12-10 14:07:35.444149,-24
2021-12-10 14:07:35.444158,-114
2021-12-10 14:07:35.444166,-176
2021-12-10 14:07:35.444175,-217
2021-12-10 14:07:35.444183,-254
2021-12-10 14:07:35.444191,-269
2021-12-10 14:07:35.444200,-273
2021-12-10 14:07:35.444208,-266
2021-12-10 14:07:35.444217,-256
2021-12-10 14:07:35.444226,-276
2021-12-10 14:07:35.444234,-288
2021-12-10 14:07:35.444243,-246
2021-12-10 14:07:35.444251,-210
2021-12-10 14:07:35.444260,-217
2021-12-10 14:07:35.444268,-222
2021-12-10 14:07:35.444276,-205
2021-12-10 14:07:35.444285,-193
2021-12-10 14:07:35.444293,-176
2021-12-10 14:07:35.713347,-151
2021-12-10 14:07:35.713370,-161
2021-12-10 14:07:35.713380,-176
2021-12-10 14:07:35.713389,-151
2021-12-10 14:07:35.713397,-129
2021-12-10 14:07:35.713406,-134
2021-12-10 14:07:35.713415,-134
2021-12-10 14:07:35.713423,-124
2021-12-10 14:07:35.713432,-129
2021-12-10 14:07:35.713440,-144
2021-12-10 14:07:35.713449,-146
2021-12-10 14:07:35.713458,-129
2021-12-10 14:07:35.713466,-132
2021-12-10 14:07:35.713475,-146
2021-12-10 14:07:35.713483,-127
2021-12-10 14:07:35.713492,-105
2021-12-10 14:07:35.713501,-117
2021-12-10 14:07:35.713509,-127
2021-12-10 14:07:35.713518,-127
2021-12-10 14:07:35.713526,-117
2021-12-10 14:07:35.713535,-100
2021-12-10 14:07:35.713543,-105
2021-12-10 14:07:35.713552,-100
2021-12-10 14:07:35.713561,-88
2021-12-10 14:07:35.713569,-107
2021-12-10 14:07:35.713578,-105
2021-12-10 14:07:35.713586,-73
2021-12-10 14:07:35.713595,-66
2021-12-10 14:07:35.713604,-88
2021-12-10 14:07:35.713612,-95
2021-12-10 14:07:35.938929,-80
2021-12-10 14:07:35.938950,-63
2021-12-10 14:07:35.938960,-58
2021-12-10 14:07:35.938968,-70
2021-12-10 14:07:35.938977,-75
2021-12-10 14:07:35.938985,-48
2021-12-10 14:07:35.938994,-26
2021-12-10 14:07:35.939002,-39
2021-12-10 14:07:35.939011,-68
2021-12-10 14:07:35.939019,-78
2021-12-10 14:07:35.939027,-53
2021-12-10 14:07:35.939036,-48
2021-12-10 14:07:35.939044,-92
2021-12-10 14:07:35.939052,-105
2021-12-10 14:07:35.939061,-85
2021-12-10 14:07:35.939069,-92
2021-12-10 14:07:35.939077,-85
2021-12-10 14:07:35.939086,-19
2021-12-10 14:07:35.939094,83
2021-12-10 14:07:35.939102,339
2021-12-10 14:07:35.939111,657
2021-12-10 14:07:35.939119,357
2021-12-10 14:07:35.939127,-582
2021-12-10 14:07:35.939136,-1024
2021-12-10 14:07:35.939144,-599
2021-12-10 14:07:35.939152,-205
2021-12-10 14:07:35.939161,-168
2021-12-10 14:07:35.939169,-83
2021-12-10 14:07:35.939177,26
2021-12-10 14:07:35.939185,17
2021-12-10 14:07:36.118945,22
2021-12-10 14:07:36.118966,68
2021-12-10 14:07:36.118976,83
2021-12-10 14:07:36.118985,75
2021-12-10 14:07:36.118993,70
2021-12-10 14:07:36.119002,85
2021-12-10 14:07:36.119011,110
2021-12-10 14:07:36.119019,124
2021-12-10 14:07:36.119028,139
2021-12-10 14:07:36.119037,168
2021-12-10 14:07:36.119045,200
2021-12-10 14:07:36.119054,217
2021-12-10 14:07:36.119062,237
2021-12-10 14:07:36.119071,288
2021-12-10 14:07:36.119079,339
2021-12-10 14:07:36.119088,369
2021-12-10 14:07:36.119096,381
2021-12-10 14:07:36.119105,381
2021-12-10 14:07:36.119113,366
2021-12-10 14:07:36.119122,339
2021-12-10 14:07:36.119130,286
2021-12-10 14:07:36.119139,200
2021-12-10 14:07:36.119147,102
2021-12-10 14:07:36.119156,4
2021-12-10 14:07:36.119164,-88
2021-12-10 14:07:36.119173,-158
2021-12-10 14:07:36.119181,-183
2021-12-10 14:07:36.119190,-202
2021-12-10 14:07:36.119199,-234
2021-12-10 14:07:36.119207,-232
2021-12-10 14:07:36.433973,-210
2021-12-10 14:07:36.433996,-212
2021-12-10 14:07:36.434005,-217
2021-12-10 14:07:36.434015,-207
2021-12-10 14:07:36.434024,-198
2021-12-10 14:07:36.434032,-183
2021-12-10 14:07:36.434041,-168
2021-12-10 14:07:36.434049,-163
2021-12-10 14:07:36.434058,-156
2021-12-10 14:07:36.434067,-149
2021-12-10 14:07:36.434075,-141
2021-12-10 14:07:36.434084,-132
2021-12-10 14:07:36.434092,-122
2021-12-10 14:07:36.434101,-112
2021-12-10 14:07:36.434109,-114
2021-12-10 14:07:36.434118,-119
2021-12-10 14:07:36.434127,-119
2021-12-10 14:07:36.434135,-112
2021-12-10 14:07:36.434144,-110
2021-12-10 14:07:36.434152,-110
2021-12-10 14:07:36.434160,-112
2021-12-10 14:07:36.434169,-117
2021-12-10 14:07:36.434178,-127
2021-12-10 14:07:36.434186,-122
2021-12-10 14:07:36.434195,-107
2021-12-10 14:07:36.434203,-122
2021-12-10 14:07:36.434212,-134
2021-12-10 14:07:36.434220,-119
2021-12-10 14:07:36.434229,-110
2021-12-10 14:07:36.434237,-112
2021-12-10 14:07:36.569103,-112
2021-12-10 14:07:36.569126,-107
2021-12-10 14:07:36.569136,-102
2021-12-10 14:07:36.569145,-102
2021-12-10 14:07:36.569154,-110
2021-12-10 14:07:36.569163,-112
2021-12-10 14:07:36.569171,-92
2021-12-10 14:07:36.569180,-85
2021-12-10 14:07:36.569188,-105
2021-12-10 14:07:36.569197,-112
2021-12-10 14:07:36.569206,-102
2021-12-10 14:07:36.569214,-92
2021-12-10 14:07:36.569222,-95
2021-12-10 14:07:36.569231,-95
2021-12-10 14:07:36.569240,-75
2021-12-10 14:07:36.569248,-56
2021-12-10 14:07:36.569257,-51
2021-12-10 14:07:36.569265,-61
2021-12-10 14:07:36.569274,-73
2021-12-10 14:07:36.569282,-88
2021-12-10 14:07:36.569291,-90
2021-12-10 14:07:36.569299,-83
2021-12-10 14:07:36.569308,-85
2021-12-10 14:07:36.569316,-95
2021-12-10 14:07:36.569325,-95
2021-12-10 14:07:36.569334,-78
2021-12-10 14:07:36.569342,-68
2021-12-10 14:07:36.569351,-46
2021-12-10 14:07:36.569359,31
2021-12-10 14:07:36.569368,281
2021-12-10 14:07:36.927700,682
2021-12-10 14:07:36.927721,586
2021-12-10 14:07:36.927731,-293
2021-12-10 14:07:36.927739,-958
2021-12-10 14:07:36.927748,-733
2021-12-10 14:07:36.927756,-271
2021-12-10 14:07:36.927765,-151
2021-12-10 14:07:36.927774,-114
2021-12-10 14:07:36.927782,-9
2021-12-10 14:07:36.927790,7
2021-12-10 14:07:36.927799,2
2021-12-10 14:07:36.927807,29
2021-12-10 14:07:36.927815,31
2021-12-10 14:07:36.927824,34
2021-12-10 14:07:36.927841,61
2021-12-10 14:07:36.927850,75
2021-12-10 14:07:36.927858,83
2021-12-10 14:07:36.927867,97
2021-12-10 14:07:36.927875,114
2021-12-10 14:07:36.927884,139
2021-12-10 14:07:36.927892,171
2021-12-10 14:07:36.927901,200
2021-12-10 14:07:36.927909,222
2021-12-10 14:07:36.927917,259
2021-12-10 14:07:36.927926,303
2021-12-10 14:07:36.927934,337
2021-12-10 14:07:36.927943,357
2021-12-10 14:07:36.927951,357
2021-12-10 14:07:36.927960,352
2021-12-10 14:07:36.927968,327
2021-12-10 14:07:37.063962,269
2021-12-10 14:07:37.063983,200
2021-12-10 14:07:37.063993,105
2021-12-10 14:07:37.064002,-4
2021-12-10 14:07:37.064011,-80
2021-12-10 14:07:37.064019,-146
2021-12-10 14:07:37.064028,-212
2021-12-10 14:07:37.064037,-237
2021-12-10 14:07:37.064045,-251
2021-12-10 14:07:37.064054,-271
2021-12-10 14:07:37.064062,-261
2021-12-10 14:07:37.064071,-251
2021-12-10 14:07:37.064080,-254
2021-12-10 14:07:37.064088,-242
2021-12-10 14:07:37.064097,-227
2021-12-10 14:07:37.064105,-222
2021-12-10 14:07:37.064114,-210
2021-12-10 14:07:37.064122,-212
2021-12-10 14:07:37.064131,-212
2021-12-10 14:07:37.064139,-185
2021-12-10 14:07:37.064148,-178
2021-12-10 14:07:37.064156,-193
2021-12-10 14:07:37.064165,-173
2021-12-10 14:07:37.064173,-154
2021-12-10 14:07:37.064182,-166
2021-12-10 14:07:37.064190,-176
2021-12-10 14:07:37.064198,-163
2021-12-10 14:07:37.064207,-154
2021-12-10 14:07:37.064215,-163
2021-12-10 14:07:37.064224,-173
2021-12-10 14:07:37.289044,-166
2021-12-10 14:07:37.289067,-163
2021-12-10 14:07:37.289077,-168
2021-12-10 14:07:37.289086,-180
2021-12-10 14:07:37.289095,-188
2021-12-10 14:07:37.289104,-180
2021-12-10 14:07:37.289113,-173
2021-12-10 14:07:37.289121,-183
2021-12-10 14:07:37.289130,-185
2021-12-10 14:07:37.289138,-180
2021-12-10 14:07:37.289147,-183
2021-12-10 14:07:37.289155,-190
2021-12-10 14:07:37.289164,-178
2021-12-10 14:07:37.289172,-173
2021-12-10 14:07:37.289181,-202
2021-12-10 14:07:37.289189,-210
2021-12-10 14:07:37.289198,-193
2021-12-10 14:07:37.289206,-193
2021-12-10 14:07:37.289215,-195
2021-12-10 14:07:37.289223,-183
2021-12-10 14:07:37.289231,-173
2021-12-10 14:07:37.289240,-163
2021-12-10 14:07:37.289249,-146
2021-12-10 14:07:37.289257,-149
2021-12-10 14:07:37.289266,-185
2021-12-10 14:07:37.289276,-193
2021-12-10 14:07:37.289285,-183
2021-12-10 14:07:37.289293,-200
2021-12-10 14:07:37.289302,-205
2021-12-10 14:07:37.289310,-185
2021-12-10 14:07:37.558980,-183
2021-12-10 14:07:37.559003,-188
2021-12-10 14:07:37.559013,-178
2021-12-10 14:07:37.559022,-139
2021-12-10 14:07:37.559031,-68
2021-12-10 14:07:37.559039,53
2021-12-10 14:07:37.559048,300
2021-12-10 14:07:37.559056,239
2021-12-10 14:07:37.559064,-542
2021-12-10 14:07:37.559073,-1232
2021-12-10 14:07:37.559081,-1007
2021-12-10 14:07:37.559090,-447
2021-12-10 14:07:37.559098,-273
2021-12-10 14:07:37.559107,-242
2021-12-10 14:07:37.559115,-102
2021-12-10 14:07:37.559123,-46
2021-12-10 14:07:37.559132,-63
2021-12-10 14:07:37.559140,-36
2021-12-10 14:07:37.559149,-17
2021-12-10 14:07:37.559157,-31
2021-12-10 14:07:37.559165,-24
2021-12-10 14:07:37.559174,0
2021-12-10 14:07:37.559182,0
2021-12-10 14:07:37.559191,-2
2021-12-10 14:07:37.559199,31
2021-12-10 14:07:37.559207,56
2021-12-10 14:07:37.559216,61
2021-12-10 14:07:37.559224,92
2021-12-10 14:07:37.559233,136
2021-12-10 14:07:37.559241,163
2021-12-10 14:07:37.783982,193
2021-12-10 14:07:37.784004,220
2021-12-10 14:07:37.784014,242
2021-12-10 14:07:37.784023,251
2021-12-10 14:07:37.784032,242
2021-12-10 14:07:37.784040,210
2021-12-10 14:07:37.784049,154
2021-12-10 14:07:37.784058,78
2021-12-10 14:07:37.784066,-14
2021-12-10 14:07:37.784075,-119
2021-12-10 14:07:37.784084,-205
2021-12-10 14:07:37.784092,-266
2021-12-10 14:07:37.784101,-308
2021-12-10 14:07:37.784110,-337
2021-12-10 14:07:37.784118,-364
2021-12-10 14:07:37.784127,-374
2021-12-10 14:07:37.784135,-366
2021-12-10 14:07:37.784144,-366
2021-12-10 14:07:37.784152,-369
2021-12-10 14:07:37.784161,-359
2021-12-10 14:07:37.784169,-347
2021-12-10 14:07:37.784178,-337
2021-12-10 14:07:37.784186,-313
2021-12-10 14:07:37.784195,-295
2021-12-10 14:07:37.784203,-300
2021-12-10 14:07:37.784212,-293
2021-12-10 14:07:37.784220,-261
2021-12-10 14:07:37.784228,-251
2021-12-10 14:07:37.784237,-254
2021-12-10 14:07:37.784245,-234
2021-12-10 14:07:37.963945,-217
2021-12-10 14:07:37.963966,-224
2021-12-10 14:07:37.963975,-229
2021-12-10 14:07:37.963984,-224
2021-12-10 14:07:37.963993,-224
2021-12-10 14:07:37.964002,-229
2021-12-10 14:07:37.964011,-217
2021-12-10 14:07:37.964019,-202
2021-12-10 14:07:37.964028,-212
2021-12-10 14:07:37.964036,-227
2021-12-10 14:07:37.964045,-232
2021-12-10 14:07:37.964053,-222
2021-12-10 14:07:37.964062,-220
2021-12-10 14:07:37.964070,-222
2021-12-10 14:07:37.964079,-207
2021-12-10 14:07:37.964087,-200
2021-12-10 14:07:37.964095,-212
2021-12-10 14:07:37.964104,-205
2021-12-10 14:07:37.964112,-198
2021-12-10 14:07:37.964121,-202
2021-12-10 14:07:37.964129,-193
2021-12-10 14:07:37.964138,-173
2021-12-10 14:07:37.964146,-171
2021-12-10 14:07:37.964155,-173
2021-12-10 14:07:37.964163,-161
2021-12-10 14:07:37.964172,-146
2021-12-10 14:07:37.964180,-141
2021-12-10 14:07:37.964189,-151
2021-12-10 14:07:37.964197,-168
2021-12-10 14:07:37.964206,-166
2021-12-10 14:07:38.234105,-156
2021-12-10 14:07:38.234125,-158
2021-12-10 14:07:38.234135,-154
2021-12-10 14:07:38.234144,-139
2021-12-10 14:07:38.234153,-136
2021-12-10 14:07:38.234162,-144
2021-12-10 14:07:38.234170,-107
2021-12-10 14:07:38.234179,-14
2021-12-10 14:07:38.234188,198
2021-12-10 14:07:38.234196,542
2021-12-10 14:07:38.234205,420
2021-12-10 14:07:38.234213,-469
2021-12-10 14:07:38.234222,-1085
2021-12-10 14:07:38.234231,-753
2021-12-10 14:07:38.234239,-283
2021-12-10 14:07:38.234248,-202
2021-12-10 14:07:38.234256,-146
2021-12-10 14:07:38.234265,-26
2021-12-10 14:07:38.234274,-4
2021-12-10 14:07:38.234282,-2
2021-12-10 14:07:38.234291,31
2021-12-10 14:07:38.234299,51
2021-12-10 14:07:38.234308,51
2021-12-10 14:07:38.234316,63
2021-12-10 14:07:38.234325,78
2021-12-10 14:07:38.234333,78
2021-12-10 14:07:38.234342,92
2021-12-10 14:07:38.234350,122
2021-12-10 14:07:38.234359,144
2021-12-10 14:07:38.234368,166
2021-12-10 14:07:38.458960,198
2021-12-10 14:07:38.458983,234
2021-12-10 14:07:38.458992,273
2021-12-10 14:07:38.459001,317
2021-12-10 14:07:38.459010,361
2021-12-10 14:07:38.459018,366
2021-12-10 14:07:38.459027,344
2021-12-10 14:07:38.459035,337
2021-12-10 14:07:38.459043,320
2021-12-10 14:07:38.459052,261
2021-12-10 14:07:38.459060,173
2021-12-10 14:07:38.459069,66
2021-12-10 14:07:38.459078,-39
2021-12-10 14:07:38.459086,-114
2021-12-10 14:07:38.459094,-163
2021-12-10 14:07:38.459103,-215
2021-12-10 14:07:38.459111,-254
2021-12-10 14:07:38.459120,-259
2021-12-10 14:07:38.459128,-251
2021-12-10 14:07:38.459136,-244
2021-12-10 14:07:38.459145,-237
2021-12-10 14:07:38.459153,-232
2021-12-10 14:07:38.459162,-232
2021-12-10 14:07:38.459170,-220
2021-12-10 14:07:38.459179,-205
2021-12-10 14:07:38.459187,-185
2021-12-10 14:07:38.459196,-178
2021-12-10 14:07:38.459204,-178
2021-12-10 14:07:38.459213,-161
2021-12-10 14:07:38.459221,-146
2021-12-10 14:07:38.638986,-139
2021-12-10 14:07:38.639008,-124
2021-12-10 14:07:38.639018,-110
2021-12-10 14:07:38.639027,-112
2021-12-10 14:07:38.639036,-119
2021-12-10 14:07:38.639045,-110
2021-12-10 14:07:38.639054,-105
2021-12-10 14:07:38.639062,-122
2021-12-10 14:07:38.639071,-117
2021-12-10 14:07:38.639079,-110
2021-12-10 14:07:38.639088,-114
2021-12-10 14:07:38.639096,-107
2021-12-10 14:07:38.639105,-100
2021-12-10 14:07:38.639113,-102
2021-12-10 14:07:38.639122,-97
2021-12-10 14:07:38.639130,-97
2021-12-10 14:07:38.639139,-107
2021-12-10 14:07:38.639147,-100
2021-12-10 14:07:38.639156,-95
2021-12-10 14:07:38.639165,-95
2021-12-10 14:07:38.639173,-88
2021-12-10 14:07:38.639181,-78
2021-12-10 14:07:38.639190,-73
2021-12-10 14:07:38.639198,-61
2021-12-10 14:07:38.639207,-58
2021-12-10 14:07:38.639215,-66
2021-12-10 14:07:38.639224,-63
2021-12-10 14:07:38.639232,-53
2021-12-10 14:07:38.639240,-56
2021-12-10 14:07:38.639249,-68
2021-12-10 14:07:38.997606,-53
2021-12-10 14:07:38.997629,-22
2021-12-10 14:07:38.997639,-9
2021-12-10 14:07:38.997648,-14
2021-12-10 14:07:38.997656,-14
2021-12-10 14:07:38.997665,-39
2021-12-10 14:07:38.997674,-58
2021-12-10 14:07:38.997682,-44
2021-12-10 14:07:38.997690,-41
2021-12-10 14:07:38.997699,-58
2021-12-10 14:07:38.997707,-48
2021-12-10 14:07:38.997716,-39
2021-12-10 14:07:38.997725,-51
2021-12-10 14:07:38.997733,-24
2021-12-10 14:07:38.997741,56
2021-12-10 14:07:38.997750,215
2021-12-10 14:07:38.997758,589
2021-12-10 14:07:38.997767,753
2021-12-10 14:07:38.997775,112
2021-12-10 14:07:38.997784,-736
2021-12-10 14:07:38.997792,-833
2021-12-10 14:07:38.997801,-376
2021-12-10 14:07:38.997809,-122
2021-12-10 14:07:38.997818,-95
2021-12-10 14:07:38.997826,-4
2021-12-10 14:07:38.997834,56
2021-12-10 14:07:38.997843,48
2021-12-10 14:07:38.997851,61
2021-12-10 14:07:38.997859,88
2021-12-10 14:07:38.997868,97
2021-12-10 14:07:39.178991,100
2021-12-10 14:07:39.179013,102
2021-12-10 14:07:39.179023,114
2021-12-10 14:07:39.179032,134
2021-12-10 14:07:39.179041,144
2021-12-10 14:07:39.179049,166
2021-12-10 14:07:39.179058,198
2021-12-10 14:07:39.179067,222
2021-12-10 14:07:39.179075,249
2021-12-10 14:07:39.179084,286
2021-12-10 14:07:39.179093,322
2021-12-10 14:07:39.179101,361
2021-12-10 14:07:39.179110,401
2021-12-10 14:07:39.179118,398
2021-12-10 14:07:39.179126,371
2021-12-10 14:07:39.179135,364
2021-12-10 14:07:39.179143,342
2021-12-10 14:07:39.179152,266
2021-12-10 14:07:39.179161,166
2021-12-10 14:07:39.179169,66
2021-12-10 14:07:39.179177,-26
2021-12-10 14:07:39.179186,-107
2021-12-10 14:07:39.179195,-161
2021-12-10 14:07:39.179203,-200
2021-12-10 14:07:39.179212,-229
2021-12-10 14:07:39.179220,-222
2021-12-10 14:07:39.179229,-205
2021-12-10 14:07:39.179237,-207
2021-12-10 14:07:39.179246,-210
2021-12-10 14:07:39.179254,-195
2021-12-10 14:07:39.358990,-183
2021-12-10 14:07:39.359010,-173
2021-12-10 14:07:39.359020,-163
2021-12-10 14:07:39.359029,-158
2021-12-10 14:07:39.359038,-146
2021-12-10 14:07:39.359047,-127
2021-12-10 14:07:39.359055,-124
2021-12-10 14:07:39.359064,-127
2021-12-10 14:07:39.359072,-110
2021-12-10 14:07:39.359081,-100
2021-12-10 14:07:39.359089,-110
2021-12-10 14:07:39.359098,-105
2021-12-10 14:07:39.359106,-85
2021-12-10 14:07:39.359115,-83
2021-12-10 14:07:39.359124,-88
2021-12-10 14:07:39.359132,-88
2021-12-10 14:07:39.359141,-88
2021-12-10 14:07:39.359150,-85
2021-12-10 14:07:39.359158,-95
2021-12-10 14:07:39.359178,-102
2021-12-10 14:07:39.359187,-97
2021-12-10 14:07:39.359196,-90
2021-12-10 14:07:39.359204,-88
2021-12-10 14:07:39.359213,-85
2021-12-10 14:07:39.359221,-88
2021-12-10 14:07:39.359230,-97
2021-12-10 14:07:39.359239,-105
2021-12-10 14:07:39.359247,-95
2021-12-10 14:07:39.359256,-85
2021-12-10 14:07:39.359264,-88
2021-12-10 14:07:39.628386,-85
2021-12-10 14:07:39.628409,-80
2021-12-10 14:07:39.628419,-85
2021-12-10 14:07:39.628428,-92
2021-12-10 14:07:39.628437,-85
2021-12-10 14:07:39.628445,-83
2021-12-10 14:07:39.628454,-92
2021-12-10 14:07:39.628462,-92
2021-12-10 14:07:39.628471,-83
2021-12-10 14:07:39.628480,-75
2021-12-10 14:07:39.628488,-73
2021-12-10 14:07:39.628497,-56
2021-12-10 14:07:39.628506,-34
2021-12-10 14:07:39.628514,-41
2021-12-10 14:07:39.628523,-73
2021-12-10 14:07:39.628532,-95
2021-12-10 14:07:39.628541,-80
2021-12-10 14:07:39.628549,-70
2021-12-10 14:07:39.628558,-83
2021-12-10 14:07:39.628566,-80
2021-12-10 14:07:39.628575,-78
2021-12-10 14:07:39.628583,-83
2021-12-10 14:07:39.628592,-70
2021-12-10 14:07:39.628600,-44
2021-12-10 14:07:39.628609,19
2021-12-10 14:07:39.628617,227
2021-12-10 14:07:39.628626,643
2021-12-10 14:07:39.628634,711
2021-12-10 14:07:39.628643,-51
2021-12-10 14:07:39.628652,-863
2021-12-10 14:07:39.808993,-826
2021-12-10 14:07:39.809015,-327
2021-12-10 14:07:39.809026,-136
2021-12-10 14:07:39.809035,-124
2021-12-10 14:07:39.809043,-7
2021-12-10 14:07:39.809052,39
2021-12-10 14:07:39.809061,9
2021-12-10 14:07:39.809069,31
2021-12-10 14:07:39.809078,58
2021-12-10 14:07:39.809086,56
2021-12-10 14:07:39.809095,66
2021-12-10 14:07:39.809103,83
2021-12-10 14:07:39.809112,92
2021-12-10 14:07:39.809120,100
2021-12-10 14:07:39.809129,119
2021-12-10 14:07:39.809137,139
2021-12-10 14:07:39.809146,161
2021-12-10 14:07:39.809154,188
2021-12-10 14:07:39.809163,232
2021-12-10 14:07:39.809171,273
2021-12-10 14:07:39.809179,283
2021-12-10 14:07:39.809188,313
2021-12-10 14:07:39.809196,366
2021-12-10 14:07:39.809205,364
2021-12-10 14:07:39.809213,327
2021-12-10 14:07:39.809221,315
2021-12-10 14:07:39.809230,286
2021-12-10 14:07:39.809238,210
2021-12-10 14:07:39.809247,112
2021-12-10 14:07:39.809255,-2
2021-12-10 14:07:40.079028,-95
2021-12-10 14:07:40.079051,-158
2021-12-10 14:07:40.079061,-224
2021-12-10 14:07:40.079070,-264
2021-12-10 14:07:40.079079,-266
2021-12-10 14:07:40.079088,-276
2021-12-10 14:07:40.079097,-291
2021-12-10 14:07:40.079105,-288
2021-12-10 14:07:40.079114,-278
2021-12-10 14:07:40.079123,-269
2021-12-10 14:07:40.079132,-259
2021-12-10 14:07:40.079141,-261
2021-12-10 14:07:40.079149,-249
2021-12-10 14:07:40.079158,-220
2021-12-10 14:07:40.079167,-205
2021-12-10 14:07:40.079175,-210
2021-12-10 14:07:40.079184,-212
2021-12-10 14:07:40.079193,-190
2021-12-10 14:07:40.079202,-171
2021-12-10 14:07:40.079210,-171
2021-12-10 14:07:40.079219,-173
2021-12-10 14:07:40.079228,-158
2021-12-10 14:07:40.079236,-156
2021-12-10 14:07:40.079245,-173
2021-12-10 14:07:40.079254,-171
2021-12-10 14:07:40.079262,-163
2021-12-10 14:07:40.079271,-173
2021-12-10 14:07:40.079280,-173
2021-12-10 14:07:40.079289,-171
2021-12-10 14:07:40.079297,-183
2021-12-10 14:07:40.258804,-190
2021-12-10 14:07:40.258821,-176
2021-12-10 14:07:40.258831,-168
2021-12-10 14:07:40.258839,-176
2021-12-10 14:07:40.258849,-193
2021-12-10 14:07:40.258857,-202
2021-12-10 14:07:40.258866,-185
2021-12-10 14:07:40.258874,-180
2021-12-10 14:07:40.258883,-188
2021-12-10 14:07:40.258891,-176
2021-12-10 14:07:40.258900,-171
2021-12-10 14:07:40.258908,-193
2021-12-10 14:07:40.258917,-198
2021-12-10 14:07:40.258925,-178
2021-12-10 14:07:40.258934,-176
2021-12-10 14:07:40.258942,-183
2021-12-10 14:07:40.258951,-180
2021-12-10 14:07:40.258959,-176
2021-12-10 14:07:40.258968,-163
2021-12-10 14:07:40.258976,-144
2021-12-10 14:07:40.258985,-139
2021-12-10 14:07:40.258993,-171
2021-12-10 14:07:40.259002,-190
2021-12-10 14:07:40.259010,-176
2021-12-10 14:07:40.259018,-176
2021-12-10 14:07:40.259027,-190
2021-12-10 14:07:40.259035,-193
2021-12-10 14:07:40.259044,-180
2021-12-10 14:07:40.259052,-176
2021-12-10 14:07:40.259061,-176
2021-12-10 14:07:40.574012,-136
2021-12-10 14:07:40.574035,-61
2021-12-10 14:07:40.574044,68
2021-12-10 14:07:40.574054,322
2021-12-10 14:07:40.574062,266
2021-12-10 14:07:40.574071,-515
2021-12-10 14:07:40.574080,-1217
2021-12-10 14:07:40.574089,-1007
2021-12-10 14:07:40.574097,-462
2021-12-10 14:07:40.574106,-288
2021-12-10 14:07:40.574115,-246
2021-12-10 14:07:40.574123,-107
2021-12-10 14:07:40.574132,-63
2021-12-10 14:07:40.574140,-80
2021-12-10 14:07:40.574149,-58
2021-12-10 14:07:40.574157,-41
2021-12-10 14:07:40.574166,-39
2021-12-10 14:07:40.574175,-24
2021-12-10 14:07:40.574183,-7
2021-12-10 14:07:40.574192,4
2021-12-10 14:07:40.574200,19
2021-12-10 14:07:40.574209,41
2021-12-10 14:07:40.574218,53
2021-12-10 14:07:40.574226,75
2021-12-10 14:07:40.574235,124
2021-12-10 14:07:40.574243,168
2021-12-10 14:07:40.574252,185
2021-12-10 14:07:40.574260,215
2021-12-10 14:07:40.574269,261
2021-12-10 14:07:40.574277,288
2021-12-10 14:07:40.708968,295
2021-12-10 14:07:40.708990,286
2021-12-10 14:07:40.709000,251
2021-12-10 14:07:40.709009,198
2021-12-10 14:07:40.709017,129
2021-12-10 14:07:40.709026,44
2021-12-10 14:07:40.709035,-63
2021-12-10 14:07:40.709043,-163
2021-12-10 14:07:40.709052,-227
2021-12-10 14:07:40.709060,-266
2021-12-10 14:07:40.709069,-300
2021-12-10 14:07:40.709078,-315
2021-12-10 14:07:40.709086,-308
2021-12-10 14:07:40.709095,-310
2021-12-10 14:07:40.709103,-315
2021-12-10 14:07:40.709112,-300
2021-12-10 14:07:40.709120,-288
2021-12-10 14:07:40.709128,-273
2021-12-10 14:07:40.709137,-249
2021-12-10 14:07:40.709145,-246
2021-12-10 14:07:40.709154,-259
2021-12-10 14:07:40.709162,-237
2021-12-10 14:07:40.709171,-207
2021-12-10 14:07:40.709179,-212
2021-12-10 14:07:40.709187,-205
2021-12-10 14:07:40.709196,-178
2021-12-10 14:07:40.709205,-168
2021-12-10 14:07:40.709213,-173
2021-12-10 14:07:40.709222,-168
2021-12-10 14:07:40.709230,-154
2021-12-10 14:07:41.067603,-158
2021-12-10 14:07:41.067624,-173
2021-12-10 14:07:41.067634,-173
2021-12-10 14:07:41.067643,-171
2021-12-10 14:07:41.067652,-173
2021-12-10 14:07:41.067660,-171
2021-12-10 14:07:41.067669,-171
2021-12-10 14:07:41.067677,-176
2021-12-10 14:07:41.067686,-176
2021-12-10 14:07:41.067694,-168
2021-12-10 14:07:41.067703,-161
2021-12-10 14:07:41.067711,-158
2021-12-10 14:07:41.067720,-168
2021-12-10 14:07:41.067728,-171
2021-12-10 14:07:41.067737,-166
2021-12-10 14:07:41.067745,-166
2021-12-10 14:07:41.067754,-163
2021-12-10 14:07:41.067762,-154
2021-12-10 14:07:41.067771,-146
2021-12-10 14:07:41.067780,-146
2021-12-10 14:07:41.067788,-146
2021-12-10 14:07:41.067797,-144
2021-12-10 14:07:41.067805,-141
2021-12-10 14:07:41.067813,-136
2021-12-10 14:07:41.067822,-127
2021-12-10 14:07:41.067830,-112
2021-12-10 14:07:41.067839,-105
2021-12-10 14:07:41.067847,-105
2021-12-10 14:07:41.067856,-95
2021-12-10 14:07:41.067864,-88
2021-12-10 14:07:41.294062,-85
2021-12-10 14:07:41.294099,-92
2021-12-10 14:07:41.294109,-119
2021-12-10 14:07:41.294118,-117
2021-12-10 14:07:41.294127,-90
2021-12-10 14:07:41.294135,-100
2021-12-10 14:07:41.294144,-124
2021-12-10 14:07:41.294153,-117
2021-12-10 14:07:41.294161,-102
2021-12-10 14:07:41.294170,-97
2021-12-10 14:07:41.294179,-53
2021-12-10 14:07:41.294187,26
2021-12-10 14:07:41.294196,249
2021-12-10 14:07:41.294204,626
2021-12-10 14:07:41.294213,496
2021-12-10 14:07:41.294222,-398
2021-12-10 14:07:41.294230,-985
2021-12-10 14:07:41.294239,-684
2021-12-10 14:07:41.294248,-256
2021-12-10 14:07:41.294256,-168
2021-12-10 14:07:41.294265,-100
2021-12-10 14:07:41.294274,7
2021-12-10 14:07:41.294282,19
2021-12-10 14:07:41.294291,22
2021-12-10 14:07:41.294299,61
2021-12-10 14:07:41.294308,78
2021-12-10 14:07:41.294316,63
2021-12-10 14:07:41.294325,63
2021-12-10 14:07:41.294334,88
2021-12-10 14:07:41.294342,97
2021-12-10 14:07:41.428897,105
2021-12-10 14:07:41.428917,129
2021-12-10 14:07:41.428927,151
2021-12-10 14:07:41.428937,168
2021-12-10 14:07:41.428947,200
2021-12-10 14:07:41.428956,249
2021-12-10 14:07:41.428965,288
2021-12-10 14:07:41.428975,310
2021-12-10 14:07:41.428984,339
2021-12-10 14:07:41.428993,357
2021-12-10 14:07:41.429003,349
2021-12-10 14:07:41.429012,347
2021-12-10 14:07:41.429021,327
2021-12-10 14:07:41.429030,273
2021-12-10 14:07:41.429039,198
2021-12-10 14:07:41.429048,97
2021-12-10 14:07:41.429057,2
2021-12-10 14:07:41.429066,-66
2021-12-10 14:07:41.429075,-122
2021-12-10 14:07:41.429085,-180
2021-12-10 14:07:41.429094,-220
2021-12-10 14:07:41.429103,-222
2021-12-10 14:07:41.429112,-227
2021-12-10 14:07:41.429121,-237
2021-12-10 14:07:41.429130,-227
2021-12-10 14:07:41.429139,-212
2021-12-10 14:07:41.429149,-205
2021-12-10 14:07:41.429158,-193
2021-12-10 14:07:41.429167,-178
2021-12-10 14:07:41.429177,-161
2021-12-10 14:07:41.653925,-154
2021-12-10 14:07:41.653945,-149
2021-12-10 14:07:41.653955,-134
2021-12-10 14:07:41.653964,-114
2021-12-10 14:07:41.653973,-112
2021-12-10 14:07:41.653982,-117
2021-12-10 14:07:41.653990,-114
2021-12-10 14:07:41.653999,-110
2021-12-10 14:07:41.654007,-97
2021-12-10 14:07:41.654015,-88
2021-12-10 14:07:41.654024,-83
2021-12-10 14:07:41.654033,-83
2021-12-10 14:07:41.654041,-85
2021-12-10 14:07:41.654050,-83
2021-12-10 14:07:41.654058,-68
2021-12-10 14:07:41.654066,-66
2021-12-10 14:07:41.654075,-83
2021-12-10 14:07:41.654083,-88
2021-12-10 14:07:41.654092,-78
2021-12-10 14:07:41.654100,-78
2021-12-10 14:07:41.654109,-80
2021-12-10 14:07:41.654117,-75
2021-12-10 14:07:41.654126,-61
2021-12-10 14:07:41.654134,-61
2021-12-10 14:07:41.654143,-70
2021-12-10 14:07:41.654151,-61
2021-12-10 14:07:41.654159,-46
2021-12-10 14:07:41.654168,-48
2021-12-10 14:07:41.654176,-63
2021-12-10 14:07:41.654185,-68
2021-12-10 14:07:41.878877,-58
2021-12-10 14:07:41.878894,-53
2021-12-10 14:07:41.878904,-51
2021-12-10 14:07:41.878913,-44
2021-12-10 14:07:41.878922,-44
2021-12-10 14:07:41.878931,-46
2021-12-10 14:07:41.878939,-48
2021-12-10 14:07:41.878948,-51
2021-12-10 14:07:41.878956,-51
2021-12-10 14:07:41.878965,-48
2021-12-10 14:07:41.878973,-48
2021-12-10 14:07:41.878982,-39
2021-12-10 14:07:41.878991,-34
2021-12-10 14:07:41.878999,-24
2021-12-10 14:07:41.879008,-7
2021-12-10 14:07:41.879017,-7
2021-12-10 14:07:41.879025,-29
2021-12-10 14:07:41.879034,-44
2021-12-10 14:07:41.879042,-44
2021-12-10 14:07:41.879051,-48
2021-12-10 14:07:41.879059,-56
2021-12-10 14:07:41.879068,-44
2021-12-10 14:07:41.879076,-41
2021-12-10 14:07:41.879085,-56
2021-12-10 14:07:41.879094,-44
2021-12-10 14:07:41.879102,-4
2021-12-10 14:07:41.879111,73
2021-12-10 14:07:41.879119,313
2021-12-10 14:07:41.879128,731
2021-12-10 14:07:41.879136,709
2021-12-10 14:07:42.103946,-114
2021-12-10 14:07:42.103967,-833
2021-12-10 14:07:42.103976,-711
2021-12-10 14:07:42.103985,-273
2021-12-10 14:07:42.103994,-134
2021-12-10 14:07:42.104003,-95
2021-12-10 14:07:42.104011,4
2021-12-10 14:07:42.104020,31
2021-12-10 14:07:42.104028,34
2021-12-10 14:07:42.104037,63
2021-12-10 14:07:42.104045,73
2021-12-10 14:07:42.104054,75
2021-12-10 14:07:42.104063,85
2021-12-10 14:07:42.104071,83
2021-12-10 14:07:42.104080,88
2021-12-10 14:07:42.104088,114
2021-12-10 14:07:42.104097,141
2021-12-10 14:07:42.104105,158
2021-12-10 14:07:42.104114,178
2021-12-10 14:07:42.104122,202
2021-12-10 14:07:42.104131,246
2021-12-10 14:07:42.104139,293
2021-12-10 14:07:42.104148,315
2021-12-10 14:07:42.104156,344
2021-12-10 14:07:42.104164,386
2021-12-10 14:07:42.104173,403
2021-12-10 14:07:42.104181,396
2021-12-10 14:07:42.104190,383
2021-12-10 14:07:42.104198,347
2021-12-10 14:07:42.104207,264
2021-12-10 14:07:42.329000,166
2021-12-10 14:07:42.329021,78
2021-12-10 14:07:42.329030,-14
2021-12-10 14:07:42.329039,-100
2021-12-10 14:07:42.329048,-146
2021-12-10 14:07:42.329063,-161
2021-12-10 14:07:42.329072,-180
2021-12-10 14:07:42.329081,-190
2021-12-10 14:07:42.329090,-180
2021-12-10 14:07:42.329098,-173
2021-12-10 14:07:42.329107,-171
2021-12-10 14:07:42.329115,-161
2021-12-10 14:07:42.329123,-151
2021-12-10 14:07:42.329132,-141
2021-12-10 14:07:42.329141,-132
2021-12-10 14:07:42.329149,-122
2021-12-10 14:07:42.329157,-105
2021-12-10 14:07:42.329166,-102
2021-12-10 14:07:42.329174,-100
2021-12-10 14:07:42.329183,-75
2021-12-10 14:07:42.329191,-68
2021-12-10 14:07:42.329199,-85
2021-12-10 14:07:42.329208,-83
2021-12-10 14:07:42.329216,-66
2021-12-10 14:07:42.329224,-61
2021-12-10 14:07:42.329233,-61
2021-12-10 14:07:42.329241,-53
2021-12-10 14:07:42.329250,-58
2021-12-10 14:07:42.329258,-58
2021-12-10 14:07:42.329267,-51
2021-12-10 14:07:42.554066,-58
2021-12-10 14:07:42.554089,-70
2021-12-10 14:07:42.554099,-78
2021-12-10 14:07:42.554108,-85
2021-12-10 14:07:42.554117,-88
2021-12-10 14:07:42.554126,-78
2021-12-10 14:07:42.554135,-73
2021-12-10 14:07:42.554143,-73
2021-12-10 14:07:42.554152,-78
2021-12-10 14:07:42.554161,-80
2021-12-10 14:07:42.554169,-78
2021-12-10 14:07:42.554178,-78
2021-12-10 14:07:42.554186,-73
2021-12-10 14:07:42.554195,-68
2021-12-10 14:07:42.554204,-68
2021-12-10 14:07:42.554213,-70
2021-12-10 14:07:42.554221,-70
2021-12-10 14:07:42.554230,-68
2021-12-10 14:07:42.554238,-63
2021-12-10 14:07:42.554247,-63
2021-12-10 14:07:42.554256,-63
2021-12-10 14:07:42.554264,-53
2021-12-10 14:07:42.554273,-39
2021-12-10 14:07:42.554282,-53
2021-12-10 14:07:42.554290,-88
2021-12-10 14:07:42.554299,-78
2021-12-10 14:07:42.554308,-56
2021-12-10 14:07:42.554316,-58
2021-12-10 14:07:42.554325,-53
2021-12-10 14:07:42.554333,-44
2021-12-10 14:07:42.779017,-36
2021-12-10 14:07:42.779039,-19
2021-12-10 14:07:42.779048,-14
2021-12-10 14:07:42.779057,-34
2021-12-10 14:07:42.779066,-61
2021-12-10 14:07:42.779075,-73
2021-12-10 14:07:42.779083,-66
2021-12-10 14:07:42.779092,-66
2021-12-10 14:07:42.779100,-66
2021-12-10 14:07:42.779109,-61
2021-12-10 14:07:42.779118,-68
2021-12-10 14:07:42.779126,-70
2021-12-10 14:07:42.779135,-53
2021-12-10 14:07:42.779143,9
2021-12-10 14:07:42.779152,144
2021-12-10 14:07:42.779160,476
2021-12-10 14:07:42.779169,780
2021-12-10 14:07:42.779177,352
2021-12-10 14:07:42.779186,-604
2021-12-10 14:07:42.779194,-948
2021-12-10 14:07:42.779203,-498
2021-12-10 14:07:42.779211,-163
2021-12-10 14:07:42.779220,-149
2021-12-10 14:07:42.779228,-73
2021-12-10 14:07:42.779236,9
2021-12-10 14:07:42.779245,12
2021-12-10 14:07:42.779253,29
2021-12-10 14:07:42.779262,44
2021-12-10 14:07:42.779270,29
2021-12-10 14:07:42.779279,44
2021-12-10 14:07:43.137740,68
2021-12-10 14:07:43.137762,66
2021-12-10 14:07:43.137771,75
2021-12-10 14:07:43.137780,97
2021-12-10 14:07:43.137789,107
2021-12-10 14:07:43.137798,122
2021-12-10 14:07:43.137806,154
2021-12-10 14:07:43.137815,178
2021-12-10 14:07:43.137823,202
2021-12-10 14:07:43.137832,239
2021-12-10 14:07:43.137840,276
2021-12-10 14:07:43.137849,303
2021-12-10 14:07:43.137858,317
2021-12-10 14:07:43.137866,320
2021-12-10 14:07:43.137875,310
2021-12-10 14:07:43.137883,276
2021-12-10 14:07:43.137892,220
2021-12-10 14:07:43.137900,141
2021-12-10 14:07:43.137909,44
2021-12-10 14:07:43.137918,-51
2021-12-10 14:07:43.137926,-134
2021-12-10 14:07:43.137935,-205
2021-12-10 14:07:43.137943,-239
2021-12-10 14:07:43.137952,-254
2021-12-10 14:07:43.137961,-283
2021-12-10 14:07:43.137970,-305
2021-12-10 14:07:43.137978,-288
2021-12-10 14:07:43.137987,-273
2021-12-10 14:07:43.137995,-278
2021-12-10 14:07:43.138004,-276
2021-12-10 14:07:43.319058,-261
2021-12-10 14:07:43.319079,-246
2021-12-10 14:07:43.319089,-246
2021-12-10 14:07:43.319098,-254
2021-12-10 14:07:43.319108,-242
2021-12-10 14:07:43.319117,-217
2021-12-10 14:07:43.319126,-205
2021-12-10 14:07:43.319135,-200
2021-12-10 14:07:43.319144,-200
2021-12-10 14:07:43.319152,-202
2021-12-10 14:07:43.319161,-195
2021-12-10 14:07:43.319170,-198
2021-12-10 14:07:43.319178,-212
2021-12-10 14:07:43.319187,-212
2021-12-10 14:07:43.319196,-200
2021-12-10 14:07:43.319204,-207
2021-12-10 14:07:43.319213,-212
2021-12-10 14:07:43.319222,-202
2021-12-10 14:07:43.319230,-198
2021-12-10 14:07:43.319239,-212
2021-12-10 14:07:43.319248,-227
2021-12-10 14:07:43.319256,-220
2021-12-10 14:07:43.319265,-212
2021-12-10 14:07:43.319273,-224
2021-12-10 14:07:43.319282,-220
2021-12-10 14:07:43.319291,-210
2021-12-10 14:07:43.319299,-217
2021-12-10 14:07:43.319308,-224
2021-12-10 14:07:43.319317,-217
2021-12-10 14:07:43.319325,-210
2021-12-10 14:07:43.498874,-210
2021-12-10 14:07:43.498893,-212
2021-12-10 14:07:43.498903,-212
2021-12-10 14:07:43.498912,-212
2021-12-10 14:07:43.498921,-217
2021-12-10 14:07:43.498929,-224
2021-12-10 14:07:43.498938,-215
2021-12-10 14:07:43.498946,-195
2021-12-10 14:07:43.498955,-200
2021-12-10 14:07:43.498963,-205
2021-12-10 14:07:43.498971,-207
2021-12-10 14:07:43.498980,-220
2021-12-10 14:07:43.498988,-229
2021-12-10 14:07:43.498997,-234
2021-12-10 14:07:43.499005,-239
2021-12-10 14:07:43.499014,-249
2021-12-10 14:07:43.499023,-264
2021-12-10 14:07:43.499031,-254
2021-12-10 14:07:43.499040,-232
2021-12-10 14:07:43.499048,-220
2021-12-10 14:07:43.499057,-163
2021-12-10 14:07:43.499065,-63
2021-12-10 14:07:43.499074,134
2021-12-10 14:07:43.499082,283
2021-12-10 14:07:43.499090,-185
2021-12-10 14:07:43.499099,-1071
2021-12-10 14:07:43.499107,-1261
2021-12-10 14:07:43.499116,-689
2021-12-10 14:07:43.499124,-335
2021-12-10 14:07:43.499133,-303
2021-12-10 14:07:43.723935,-176
2021-12-10 14:07:43.723953,-80
2021-12-10 14:07:43.723963,-95
2021-12-10 14:07:43.723972,-68
2021-12-10 14:07:43.723981,-34
2021-12-10 14:07:43.723989,-36
2021-12-10 14:07:43.723998,-19
2021-12-10 14:07:43.724006,-2
2021-12-10 14:07:43.724015,0
2021-12-10 14:07:43.724023,14
2021-12-10 14:07:43.724032,29
2021-12-10 14:07:43.724040,44
2021-12-10 14:07:43.724049,73
2021-12-10 14:07:43.724058,102
2021-12-10 14:07:43.724066,129
2021-12-10 14:07:43.724075,176
2021-12-10 14:07:43.724083,220
2021-12-10 14:07:43.724092,246
2021-12-10 14:07:43.724100,276
2021-12-10 14:07:43.724109,298
2021-12-10 14:07:43.724117,293
2021-12-10 14:07:43.724126,266
2021-12-10 14:07:43.724134,229
2021-12-10 14:07:43.724143,173
2021-12-10 14:07:43.724151,90
2021-12-10 14:07:43.724160,-14
2021-12-10 14:07:43.724168,-107
2021-12-10 14:07:43.724176,-173
2021-12-10 14:07:43.724185,-224
2021-12-10 14:07:43.724193,-266
2021-12-10 14:07:44.038323,-293
2021-12-10 14:07:44.038343,-300
2021-12-10 14:07:44.038352,-303
2021-12-10 14:07:44.038361,-305
2021-12-10 14:07:44.038369,-295
2021-12-10 14:07:44.038378,-288
2021-12-10 14:07:44.038386,-283
2021-12-10 14:07:44.038395,-266
2021-12-10 14:07:44.038403,-249
2021-12-10 14:07:44.038412,-239
2021-12-10 14:07:44.038420,-222
2021-12-10 14:07:44.038428,-207
2021-12-10 14:07:44.038437,-202
2021-12-10 14:07:44.038445,-193
2021-12-10 14:07:44.038453,-180
2021-12-10 14:07:44.038461,-180
2021-12-10 14:07:44.038470,-173
2021-12-10 14:07:44.038478,-156
2021-12-10 14:07:44.038486,-156
2021-12-10 14:07:44.038495,-173
2021-12-10 14:07:44.038503,-173
2021-12-10 14:07:44.038511,-166
2021-12-10 14:07:44.038520,-166
2021-12-10 14:07:44.038528,-158
2021-12-10 14:07:44.038536,-158
2021-12-10 14:07:44.038545,-168
2021-12-10 14:07:44.038553,-163
2021-12-10 14:07:44.038561,-154
2021-12-10 14:07:44.038570,-154
2021-12-10 14:07:44.038578,-156
2021-12-10 14:07:44.173995,-154
2021-12-10 14:07:44.174016,-141
2021-12-10 14:07:44.174025,-132
2021-12-10 14:07:44.174034,-129
2021-12-10 14:07:44.174043,-134
2021-12-10 14:07:44.174051,-139
2021-12-10 14:07:44.174060,-127
2021-12-10 14:07:44.174068,-124
2021-12-10 14:07:44.174076,-127
2021-12-10 14:07:44.174085,-117
2021-12-10 14:07:44.174093,-112
2021-12-10 14:07:44.174101,-114
2021-12-10 14:07:44.174110,-114
2021-12-10 14:07:44.174118,-110
2021-12-10 14:07:44.174127,-110
2021-12-10 14:07:44.174135,-102
2021-12-10 14:07:44.174143,-92
2021-12-10 14:07:44.174152,-85
2021-12-10 14:07:44.174160,-63
2021-12-10 14:07:44.174169,-48
2021-12-10 14:07:44.174177,-70
2021-12-10 14:07:44.174185,-80
2021-12-10 14:07:44.174194,-88
2021-12-10 14:07:44.174202,-102
2021-12-10 14:07:44.174211,-92
2021-12-10 14:07:44.174219,-78
2021-12-10 14:07:44.174228,-88
2021-12-10 14:07:44.174236,-102
2021-12-10 14:07:44.174244,-90
2021-12-10 14:07:44.174253,-80
2021-12-10 14:07:44.399026,-68
2021-12-10 14:07:44.399049,-9
2021-12-10 14:07:44.399059,124
2021-12-10 14:07:44.399068,449
2021-12-10 14:07:44.399077,672
2021-12-10 14:07:44.399086,149
2021-12-10 14:07:44.399094,-748
2021-12-10 14:07:44.399103,-926
2021-12-10 14:07:44.399112,-442
2021-12-10 14:07:44.399120,-161
2021-12-10 14:07:44.399128,-136
2021-12-10 14:07:44.399137,-41
2021-12-10 14:07:44.399145,19
2021-12-10 14:07:44.399154,7
2021-12-10 14:07:44.399163,31
2021-12-10 14:07:44.399171,58
2021-12-10 14:07:44.399180,53
2021-12-10 14:07:44.399188,73
2021-12-10 14:07:44.399197,90
2021-12-10 14:07:44.399205,83
2021-12-10 14:07:44.399214,95
2021-12-10 14:07:44.399222,127
2021-12-10 14:07:44.399231,144
2021-12-10 14:07:44.399239,158
2021-12-10 14:07:44.399248,185
2021-12-10 14:07:44.399256,222
2021-12-10 14:07:44.399265,259
2021-12-10 14:07:44.399273,300
2021-12-10 14:07:44.399282,332
2021-12-10 14:07:44.399290,342
2021-12-10 14:07:44.624039,359
2021-12-10 14:07:44.624062,371
2021-12-10 14:07:44.624071,349
2021-12-10 14:07:44.624080,317
2021-12-10 14:07:44.624089,271
2021-12-10 14:07:44.624097,190
2021-12-10 14:07:44.624106,95
2021-12-10 14:07:44.624114,4
2021-12-10 14:07:44.624123,-51
2021-12-10 14:07:44.624131,-97
2021-12-10 14:07:44.624139,-176
2021-12-10 14:07:44.624148,-217
2021-12-10 14:07:44.624156,-188
2021-12-10 14:07:44.624165,-161
2021-12-10 14:07:44.624173,-161
2021-12-10 14:07:44.624181,-158
2021-12-10 14:07:44.624190,-151
2021-12-10 14:07:44.624198,-136
2021-12-10 14:07:44.624206,-129
2021-12-10 14:07:44.624215,-127
2021-12-10 14:07:44.624223,-107
2021-12-10 14:07:44.624231,-88
2021-12-10 14:07:44.624240,-80
2021-12-10 14:07:44.624248,-68
2021-12-10 14:07:44.624257,-48
2021-12-10 14:07:44.624265,-46
2021-12-10 14:07:44.624273,-56
2021-12-10 14:07:44.624282,-56
2021-12-10 14:07:44.624290,-41
2021-12-10 14:07:44.624299,-46
2021-12-10 14:07:44.939084,-63
2021-12-10 14:07:44.939107,-36
2021-12-10 14:07:44.939117,-26
2021-12-10 14:07:44.939126,-53
2021-12-10 14:07:44.939135,-51
2021-12-10 14:07:44.939143,-44
2021-12-10 14:07:44.939152,-63
2021-12-10 14:07:44.939161,-73
2021-12-10 14:07:44.939169,-63
2021-12-10 14:07:44.939178,-48
2021-12-10 14:07:44.939187,-56
2021-12-10 14:07:44.939195,-68
2021-12-10 14:07:44.939204,-41
2021-12-10 14:07:44.939212,-17
2021-12-10 14:07:44.939221,-39
2021-12-10 14:07:44.939229,-56
2021-12-10 14:07:44.939238,-46
2021-12-10 14:07:44.939246,-26
2021-12-10 14:07:44.939255,-12
2021-12-10 14:07:44.939263,-36
2021-12-10 14:07:44.939272,-56
2021-12-10 14:07:44.939280,-24
2021-12-10 14:07:44.939289,-14
2021-12-10 14:07:44.939297,-56
2021-12-10 14:07:44.939306,-63
2021-12-10 14:07:44.939314,-24
2021-12-10 14:07:44.939323,-12
2021-12-10 14:07:44.939331,-19
2021-12-10 14:07:44.939340,2
2021-12-10 14:07:44.939348,26
2021-12-10 14:07:45.252686,41
2021-12-10 14:07:45.252708,53
2021-12-10 14:07:45.252718,51
2021-12-10 14:07:45.252727,34
2021-12-10 14:07:45.252735,12
2021-12-10 14:07:45.252744,4
2021-12-10 14:07:45.252752,17
2021-12-10 14:07:45.252761,19
2021-12-10 14:07:45.252769,26
2021-12-10 14:07:45.252778,31
2021-12-10 14:07:45.252786,4
2021-12-10 14:07:45.252795,-14
2021-12-10 14:07:45.252803,29
2021-12-10 14:07:45.252812,112
2021-12-10 14:07:45.252820,288
2021-12-10 14:07:45.252829,694
2021-12-10 14:07:45.252837,860
2021-12-10 14:07:45.252846,188
2021-12-10 14:07:45.252854,-706
2021-12-10 14:07:45.252863,-833
2021-12-10 14:07:45.252871,-335
2021-12-10 14:07:45.252880,-58
2021-12-10 14:07:45.252889,-90
2021-12-10 14:07:45.252897,-19
2021-12-10 14:07:45.252906,85
2021-12-10 14:07:45.252915,85
2021-12-10 14:07:45.252923,90
2021-12-10 14:07:45.252932,122
2021-12-10 14:07:45.252940,132
2021-12-10 14:07:45.252949,136
2021-12-10 14:07:45.343940,161
2021-12-10 14:07:45.343959,183
2021-12-10 14:07:45.343968,166
2021-12-10 14:07:45.343978,158
2021-12-10 14:07:45.343986,202
2021-12-10 14:07:45.343995,237
2021-12-10 14:07:45.344003,249
2021-12-10 14:07:45.344012,286
2021-12-10 14:07:45.344021,339
2021-12-10 14:07:45.344029,386
2021-12-10 14:07:45.344038,405
2021-12-10 14:07:45.344047,418
2021-12-10 14:07:45.344055,454
2021-12-10 14:07:45.344064,469
2021-12-10 14:07:45.344072,432
2021-12-10 14:07:45.344081,369
2021-12-10 14:07:45.344089,305
2021-12-10 14:07:45.344098,227
2021-12-10 14:07:45.344106,117
2021-12-10 14:07:45.344115,17
2021-12-10 14:07:45.344123,-51
2021-12-10 14:07:45.344131,-107
2021-12-10 14:07:45.344140,-166
2021-12-10 14:07:45.344149,-202
2021-12-10 14:07:45.344157,-195
2021-12-10 14:07:45.344166,-180
2021-12-10 14:07:45.344174,-190
2021-12-10 14:07:45.344182,-200
2021-12-10 14:07:45.344191,-195
2021-12-10 14:07:45.344199,-183
2021-12-10 14:07:45.614070,-166
2021-12-10 14:07:45.614093,-151
2021-12-10 14:07:45.614103,-154
2021-12-10 14:07:45.614112,-146
2021-12-10 14:07:45.614121,-127
2021-12-10 14:07:45.614129,-122
2021-12-10 14:07:45.614138,-117
2021-12-10 14:07:45.614146,-107
2021-12-10 14:07:45.614210,-102
2021-12-10 14:07:45.614220,-102
2021-12-10 14:07:45.614229,-107
2021-12-10 14:07:45.614237,-114
2021-12-10 14:07:45.614246,-105
2021-12-10 14:07:45.614255,-95
2021-12-10 14:07:45.614263,-112
2021-12-10 14:07:45.614271,-114
2021-12-10 14:07:45.614280,-92
2021-12-10 14:07:45.614288,-95
2021-12-10 14:07:45.614296,-122
2021-12-10 14:07:45.614305,-114
2021-12-10 14:07:45.614313,-97
2021-12-10 14:07:45.614322,-112
2021-12-10 14:07:45.614330,-127
2021-12-10 14:07:45.614338,-110
2021-12-10 14:07:45.614347,-102
2021-12-10 14:07:45.614355,-117
2021-12-10 14:07:45.614363,-110
2021-12-10 14:07:45.614372,-95
2021-12-10 14:07:45.614380,-88
2021-12-10 14:07:45.614388,-90
2021-12-10 14:07:45.838991,-117
2021-12-10 14:07:45.839013,-127
2021-12-10 14:07:45.839022,-114
2021-12-10 14:07:45.839031,-114
2021-12-10 14:07:45.839040,-110
2021-12-10 14:07:45.839049,-102
2021-12-10 14:07:45.839057,-105
2021-12-10 14:07:45.839066,-100
2021-12-10 14:07:45.839074,-95
2021-12-10 14:07:45.839083,-90
2021-12-10 14:07:45.839091,-80
2021-12-10 14:07:45.839099,-73
2021-12-10 14:07:45.839108,-78
2021-12-10 14:07:45.839116,-100
2021-12-10 14:07:45.839124,-129
2021-12-10 14:07:45.839133,-112
2021-12-10 14:07:45.839141,-73
2021-12-10 14:07:45.839149,-95
2021-12-10 14:07:45.839158,-154
2021-12-10 14:07:45.839166,-141
2021-12-10 14:07:45.839174,-100
2021-12-10 14:07:45.839183,-110
2021-12-10 14:07:45.839191,-92
2021-12-10 14:07:45.839199,-12
2021-12-10 14:07:45.839208,100
2021-12-10 14:07:45.839216,381
2021-12-10 14:07:45.839225,508
2021-12-10 14:07:45.839233,-151
2021-12-10 14:07:45.839241,-1029
2021-12-10 14:07:45.839250,-1034
2021-12-10 14:07:46.064172,-437
2021-12-10 14:07:46.064194,-193
2021-12-10 14:07:46.064204,-205
2021-12-10 14:07:46.064213,-70
2021-12-10 14:07:46.064222,4
2021-12-10 14:07:46.064230,-14
2021-12-10 14:07:46.064239,14
2021-12-10 14:07:46.064248,22
2021-12-10 14:07:46.064256,9
2021-12-10 14:07:46.064265,36
2021-12-10 14:07:46.064273,61
2021-12-10 14:07:46.064282,66
2021-12-10 14:07:46.064290,85
2021-12-10 14:07:46.064299,110
2021-12-10 14:07:46.064308,105
2021-12-10 14:07:46.064316,97
