Time,ECG
2021-12-10 14:12:18.464856,-12
2021-12-10 14:12:18.464870,134
2021-12-10 14:12:18.464875,369
2021-12-10 14:12:18.464880,327
2021-12-10 14:12:18.464884,-215
2021-12-10 14:12:18.464889,-701
2021-12-10 14:12:18.464894,-652
2021-12-10 14:12:18.464898,-354
2021-12-10 14:12:18.464902,-198
2021-12-10 14:12:18.464907,-139
2021-12-10 14:12:18.464911,-85
2021-12-10 14:12:18.464916,-66
2021-12-10 14:12:18.464920,-58
2021-12-10 14:12:18.464924,-46
2021-12-10 14:12:18.464929,-31
2021-12-10 14:12:18.464933,-22
2021-12-10 14:12:18.464937,-19
2021-12-10 14:12:18.464942,-12
2021-12-10 14:12:18.464946,-4
2021-12-10 14:12:18.464951,7
2021-12-10 14:12:18.464955,17
2021-12-10 14:12:18.464959,24
2021-12-10 14:12:18.464964,41
2021-12-10 14:12:18.464968,66
2021-12-10 14:12:18.464972,88
2021-12-10 14:12:18.464977,112
2021-12-10 14:12:18.464982,136
2021-12-10 14:12:18.464986,158
2021-12-10 14:12:18.464990,168
2021-12-10 14:12:18.464995,168
2021-12-10 14:12:18.465043,158
2021-12-10 14:12:18.465049,134
2021-12-10 14:12:18.465053,88
2021-12-10 14:12:18.465058,24
2021-12-10 14:12:18.465062,-56
2021-12-10 14:12:18.465067,-132
2021-12-10 14:12:18.465072,-195
2021-12-10 14:12:18.465076,-242
2021-12-10 14:12:18.465081,-273
2021-12-10 14:12:18.465085,-300
2021-12-10 14:12:18.465089,-315
2021-12-10 14:12:18.465094,-317
2021-12-10 14:12:18.465098,-320
2021-12-10 14:12:18.465103,-317
2021-12-10 14:12:18.465107,-315
2021-12-10 14:12:18.465111,-313
2021-12-10 14:12:18.465116,-308
2021-12-10 14:12:18.465121,-305
2021-12-10 14:12:18.465125,-300
2021-12-10 14:12:18.465129,-295
2021-12-10 14:12:18.465134,-291
2021-12-10 14:12:18.465138,-286
2021-12-10 14:12:18.465142,-283
2021-12-10 14:12:18.465147,-281
2021-12-10 14:12:18.465151,-278
2021-12-10 14:12:18.465156,-278
2021-12-10 14:12:18.465160,-273
2021-12-10 14:12:18.465164,-273
2021-12-10 14:12:18.465169,-278
2021-12-10 14:12:18.465174,-276
2021-12-10 14:12:18.721193,-271
2021-12-10 14:12:18.721210,-271
2021-12-10 14:12:18.721220,-276
2021-12-10 14:12:18.721228,-286
2021-12-10 14:12:18.721237,-288
2021-12-10 14:12:18.721246,-293
2021-12-10 14:12:18.721254,-293
2021-12-10 14:12:18.721262,-291
2021-12-10 14:12:18.721271,-291
2021-12-10 14:12:18.721279,-293
2021-12-10 14:12:18.721288,-298
2021-12-10 14:12:18.721296,-293
2021-12-10 14:12:18.721305,-283
2021-12-10 14:12:18.721317,-288
2021-12-10 14:12:18.721325,-286
2021-12-10 14:12:18.721334,-273
2021-12-10 14:12:18.721342,-276
2021-12-10 14:12:18.721351,-283
2021-12-10 14:12:18.721359,-286
2021-12-10 14:12:18.721367,-281
2021-12-10 14:12:18.721376,-271
2021-12-10 14:12:18.721384,-271
2021-12-10 14:12:18.721393,-261
2021-12-10 14:12:18.721401,-242
2021-12-10 14:12:18.721410,-232
2021-12-10 14:12:18.721418,-242
2021-12-10 14:12:18.721426,-264
2021-12-10 14:12:18.721435,-266
2021-12-10 14:12:18.721443,-254
2021-12-10 14:12:18.721453,-254
2021-12-10 14:12:18.946751,-246
2021-12-10 14:12:18.946767,-239
2021-12-10 14:12:18.946777,-242
2021-12-10 14:12:18.946786,-242
2021-12-10 14:12:18.946794,-224
2021-12-10 14:12:18.946803,-168
2021-12-10 14:12:18.946811,-70
2021-12-10 14:12:18.946820,132
2021-12-10 14:12:18.946828,342
2021-12-10 14:12:18.946837,112
2021-12-10 14:12:18.946845,-523
2021-12-10 14:12:18.946854,-846
2021-12-10 14:12:18.946862,-621
2021-12-10 14:12:18.946870,-332
2021-12-10 14:12:18.946879,-229
2021-12-10 14:12:18.946887,-166
2021-12-10 14:12:18.946896,-105
2021-12-10 14:12:18.946907,-85
2021-12-10 14:12:18.946915,-66
2021-12-10 14:12:18.946924,-44
2021-12-10 14:12:18.946932,-39
2021-12-10 14:12:18.946941,-24
2021-12-10 14:12:18.946949,-7
2021-12-10 14:12:18.946958,9
2021-12-10 14:12:18.946966,26
2021-12-10 14:12:18.946975,39
2021-12-10 14:12:18.946983,56
2021-12-10 14:12:18.946991,78
2021-12-10 14:12:18.947000,105
2021-12-10 14:12:18.947008,132
2021-12-10 14:12:19.171966,158
2021-12-10 14:12:19.171986,195
2021-12-10 14:12:19.171995,224
2021-12-10 14:12:19.172004,242
2021-12-10 14:12:19.172013,254
2021-12-10 14:12:19.172021,256
2021-12-10 14:12:19.172030,249
2021-12-10 14:12:19.172042,222
2021-12-10 14:12:19.172051,173
2021-12-10 14:12:19.172059,112
2021-12-10 14:12:19.172068,39
2021-12-10 14:12:19.172076,-39
2021-12-10 14:12:19.172085,-97
2021-12-10 14:12:19.172093,-141
2021-12-10 14:12:19.172101,-173
2021-12-10 14:12:19.172110,-193
2021-12-10 14:12:19.172118,-193
2021-12-10 14:12:19.172126,-185
2021-12-10 14:12:19.172135,-185
2021-12-10 14:12:19.172143,-185
2021-12-10 14:12:19.172151,-173
2021-12-10 14:12:19.172160,-163
2021-12-10 14:12:19.172168,-154
2021-12-10 14:12:19.172176,-139
2021-12-10 14:12:19.172185,-119
2021-12-10 14:12:19.172193,-114
2021-12-10 14:12:19.172201,-114
2021-12-10 14:12:19.172210,-100
2021-12-10 14:12:19.172218,-85
2021-12-10 14:12:19.172227,-83
2021-12-10 14:12:19.396808,-80
2021-12-10 14:12:19.396826,-78
2021-12-10 14:12:19.396835,-73
2021-12-10 14:12:19.396844,-70
2021-12-10 14:12:19.396853,-75
2021-12-10 14:12:19.396861,-70
2021-12-10 14:12:19.396869,-66
2021-12-10 14:12:19.396878,-75
2021-12-10 14:12:19.396886,-78
2021-12-10 14:12:19.396895,-78
2021-12-10 14:12:19.396903,-80
2021-12-10 14:12:19.396912,-78
2021-12-10 14:12:19.396920,-70
2021-12-10 14:12:19.396928,-73
2021-12-10 14:12:19.396937,-83
2021-12-10 14:12:19.396945,-78
2021-12-10 14:12:19.396954,-68
2021-12-10 14:12:19.396962,-70
2021-12-10 14:12:19.396970,-66
2021-12-10 14:12:19.396979,-66
2021-12-10 14:12:19.396987,-70
2021-12-10 14:12:19.396996,-63
2021-12-10 14:12:19.397004,-61
2021-12-10 14:12:19.397012,-68
2021-12-10 14:12:19.397024,-66
2021-12-10 14:12:19.397033,-61
2021-12-10 14:12:19.397041,-61
2021-12-10 14:12:19.397049,-61
2021-12-10 14:12:19.397058,-48
2021-12-10 14:12:19.397066,-29
2021-12-10 14:12:19.621760,-24
2021-12-10 14:12:19.621776,-26
2021-12-10 14:12:19.621785,-36
2021-12-10 14:12:19.621794,-56
2021-12-10 14:12:19.621803,-58
2021-12-10 14:12:19.621811,-51
2021-12-10 14:12:19.621819,-53
2021-12-10 14:12:19.621828,-61
2021-12-10 14:12:19.621836,-61
2021-12-10 14:12:19.621844,-51
2021-12-10 14:12:19.621852,-41
2021-12-10 14:12:19.621861,-17
2021-12-10 14:12:19.621869,48
2021-12-10 14:12:19.621877,190
2021-12-10 14:12:19.621886,445
2021-12-10 14:12:19.621894,452
2021-12-10 14:12:19.621903,-105
2021-12-10 14:12:19.621911,-679
2021-12-10 14:12:19.621919,-655
2021-12-10 14:12:19.621927,-305
2021-12-10 14:12:19.621936,-127
2021-12-10 14:12:19.621944,-68
2021-12-10 14:12:19.621954,17
2021-12-10 14:12:19.621963,46
2021-12-10 14:12:19.621971,41
2021-12-10 14:12:19.621979,66
2021-12-10 14:12:19.621988,85
2021-12-10 14:12:19.621996,88
2021-12-10 14:12:19.622005,105
2021-12-10 14:12:19.622013,117
2021-12-10 14:12:19.891878,129
2021-12-10 14:12:19.891898,141
2021-12-10 14:12:19.891908,158
2021-12-10 14:12:19.891916,173
2021-12-10 14:12:19.891925,183
2021-12-10 14:12:19.891934,205
2021-12-10 14:12:19.891942,232
2021-12-10 14:12:19.891951,256
2021-12-10 14:12:19.891959,283
2021-12-10 14:12:19.891968,305
2021-12-10 14:12:19.891977,317
2021-12-10 14:12:19.891985,317
2021-12-10 14:12:19.891993,300
2021-12-10 14:12:19.892002,281
2021-12-10 14:12:19.892010,244
2021-12-10 14:12:19.892019,185
2021-12-10 14:12:19.892027,112
2021-12-10 14:12:19.892035,34
2021-12-10 14:12:19.892044,-29
2021-12-10 14:12:19.892052,-75
2021-12-10 14:12:19.892061,-114
2021-12-10 14:12:19.892069,-141
2021-12-10 14:12:19.892077,-158
2021-12-10 14:12:19.892086,-163
2021-12-10 14:12:19.892098,-166
2021-12-10 14:12:19.892106,-168
2021-12-10 14:12:19.892115,-163
2021-12-10 14:12:19.892123,-161
2021-12-10 14:12:19.892131,-154
2021-12-10 14:12:19.892140,-141
2021-12-10 14:12:20.071959,-136
2021-12-10 14:12:20.071979,-127
2021-12-10 14:12:20.071989,-114
2021-12-10 14:12:20.071997,-112
2021-12-10 14:12:20.072006,-102
2021-12-10 14:12:20.072015,-92
2021-12-10 14:12:20.072024,-100
2021-12-10 14:12:20.072032,-107
2021-12-10 14:12:20.072041,-100
2021-12-10 14:12:20.072049,-95
2021-12-10 14:12:20.072058,-107
2021-12-10 14:12:20.072067,-114
2021-12-10 14:12:20.072075,-110
2021-12-10 14:12:20.072084,-105
2021-12-10 14:12:20.072092,-102
2021-12-10 14:12:20.072101,-110
2021-12-10 14:12:20.072109,-117
2021-12-10 14:12:20.072118,-114
2021-12-10 14:12:20.072126,-119
2021-12-10 14:12:20.072135,-117
2021-12-10 14:12:20.072143,-105
2021-12-10 14:12:20.072152,-112
2021-12-10 14:12:20.072161,-122
2021-12-10 14:12:20.072169,-127
2021-12-10 14:12:20.072178,-132
2021-12-10 14:12:20.072186,-122
2021-12-10 14:12:20.072195,-114
2021-12-10 14:12:20.072203,-119
2021-12-10 14:12:20.072212,-122
2021-12-10 14:12:20.072220,-117
2021-12-10 14:12:20.385555,-112
2021-12-10 14:12:20.385574,-119
2021-12-10 14:12:20.385584,-124
2021-12-10 14:12:20.385593,-117
2021-12-10 14:12:20.385602,-117
2021-12-10 14:12:20.385610,-117
2021-12-10 14:12:20.385619,-105
2021-12-10 14:12:20.385627,-92
2021-12-10 14:12:20.385635,-95
2021-12-10 14:12:20.385644,-117
2021-12-10 14:12:20.385653,-136
2021-12-10 14:12:20.385661,-139
2021-12-10 14:12:20.385670,-136
2021-12-10 14:12:20.385678,-134
2021-12-10 14:12:20.385687,-139
2021-12-10 14:12:20.385695,-136
2021-12-10 14:12:20.385704,-129
2021-12-10 14:12:20.385712,-124
2021-12-10 14:12:20.385721,-85
2021-12-10 14:12:20.385729,-7
2021-12-10 14:12:20.385738,163
2021-12-10 14:12:20.385746,398
2021-12-10 14:12:20.385754,246
2021-12-10 14:12:20.385763,-449
2021-12-10 14:12:20.385771,-909
2021-12-10 14:12:20.385780,-648
2021-12-10 14:12:20.385788,-291
2021-12-10 14:12:20.385797,-224
2021-12-10 14:12:20.385805,-146
2021-12-10 14:12:20.385813,-34
2021-12-10 14:12:20.521883,-36
2021-12-10 14:12:20.521902,-39
2021-12-10 14:12:20.521911,-2
2021-12-10 14:12:20.521920,-2
2021-12-10 14:12:20.521929,-4
2021-12-10 14:12:20.521937,17
2021-12-10 14:12:20.521945,31
2021-12-10 14:12:20.521954,29
2021-12-10 14:12:20.521962,41
2021-12-10 14:12:20.521971,70
2021-12-10 14:12:20.521982,85
2021-12-10 14:12:20.521990,95
2021-12-10 14:12:20.521999,124
2021-12-10 14:12:20.522007,161
2021-12-10 14:12:20.522016,190
2021-12-10 14:12:20.522024,215
2021-12-10 14:12:20.522032,229
2021-12-10 14:12:20.522041,242
2021-12-10 14:12:20.522049,239
2021-12-10 14:12:20.522057,222
2021-12-10 14:12:20.522066,195
2021-12-10 14:12:20.522074,151
2021-12-10 14:12:20.522082,88
2021-12-10 14:12:20.522091,12
2021-12-10 14:12:20.522099,-58
2021-12-10 14:12:20.522107,-107
2021-12-10 14:12:20.522116,-149
2021-12-10 14:12:20.522124,-185
2021-12-10 14:12:20.522133,-207
2021-12-10 14:12:20.522143,-224
2021-12-10 14:12:20.836807,-232
2021-12-10 14:12:20.836824,-232
2021-12-10 14:12:20.836834,-232
2021-12-10 14:12:20.836842,-234
2021-12-10 14:12:20.836851,-227
2021-12-10 14:12:20.836860,-210
2021-12-10 14:12:20.836868,-198
2021-12-10 14:12:20.836876,-183
2021-12-10 14:12:20.836885,-161
2021-12-10 14:12:20.836893,-163
2021-12-10 14:12:20.836901,-168
2021-12-10 14:12:20.836910,-154
2021-12-10 14:12:20.836918,-141
2021-12-10 14:12:20.836927,-141
2021-12-10 14:12:20.836935,-136
2021-12-10 14:12:20.836944,-132
2021-12-10 14:12:20.836952,-136
2021-12-10 14:12:20.836960,-139
2021-12-10 14:12:20.836969,-127
2021-12-10 14:12:20.836977,-122
2021-12-10 14:12:20.836985,-127
2021-12-10 14:12:20.836994,-134
2021-12-10 14:12:20.837002,-134
2021-12-10 14:12:20.837010,-127
2021-12-10 14:12:20.837019,-122
2021-12-10 14:12:20.837031,-124
2021-12-10 14:12:20.837039,-127
2021-12-10 14:12:20.837048,-132
2021-12-10 14:12:20.837056,-129
2021-12-10 14:12:20.837064,-110
2021-12-10 14:12:21.061285,-97
2021-12-10 14:12:21.061304,-105
2021-12-10 14:12:21.061314,-114
2021-12-10 14:12:21.061322,-122
2021-12-10 14:12:21.061331,-117
2021-12-10 14:12:21.061339,-107
2021-12-10 14:12:21.061348,-100
2021-12-10 14:12:21.061356,-88
2021-12-10 14:12:21.061365,-97
2021-12-10 14:12:21.061373,-90
2021-12-10 14:12:21.061382,-46
2021-12-10 14:12:21.061390,-51
2021-12-10 14:12:21.061398,-90
2021-12-10 14:12:21.061407,-92
2021-12-10 14:12:21.061415,-88
2021-12-10 14:12:21.061424,-105
2021-12-10 14:12:21.061433,-110
2021-12-10 14:12:21.061441,-95
2021-12-10 14:12:21.061450,-90
2021-12-10 14:12:21.061458,-44
2021-12-10 14:12:21.061467,56
2021-12-10 14:12:21.061475,222
2021-12-10 14:12:21.061484,437
2021-12-10 14:12:21.061492,281
2021-12-10 14:12:21.061501,-454
2021-12-10 14:12:21.061509,-924
2021-12-10 14:12:21.061518,-591
2021-12-10 14:12:21.061526,-239
2021-12-10 14:12:21.061535,-224
2021-12-10 14:12:21.061543,-110
2021-12-10 14:12:21.331825,53
2021-12-10 14:12:21.331845,46
2021-12-10 14:12:21.331855,22
2021-12-10 14:12:21.331864,51
2021-12-10 14:12:21.331872,68
2021-12-10 14:12:21.331881,70
2021-12-10 14:12:21.331889,63
2021-12-10 14:12:21.331897,75
2021-12-10 14:12:21.331906,92
2021-12-10 14:12:21.331914,97
2021-12-10 14:12:21.331923,151
2021-12-10 14:12:21.331931,215
2021-12-10 14:12:21.331939,193
2021-12-10 14:12:21.331948,171
2021-12-10 14:12:21.331956,222
2021-12-10 14:12:21.331964,281
2021-12-10 14:12:21.331976,315
2021-12-10 14:12:21.331984,371
2021-12-10 14:12:21.331993,396
2021-12-10 14:12:21.332001,352
2021-12-10 14:12:21.332009,320
2021-12-10 14:12:21.332018,315
2021-12-10 14:12:21.332026,264
2021-12-10 14:12:21.332035,173
2021-12-10 14:12:21.332043,127
2021-12-10 14:12:21.332051,90
2021-12-10 14:12:21.332060,-4
2021-12-10 14:12:21.332068,-80
2021-12-10 14:12:21.332077,-83
2021-12-10 14:12:21.332085,-68
2021-12-10 14:12:21.511912,-83
2021-12-10 14:12:21.511932,-102
2021-12-10 14:12:21.511942,-90
2021-12-10 14:12:21.511951,-61
2021-12-10 14:12:21.511959,-68
2021-12-10 14:12:21.511968,-78
2021-12-10 14:12:21.511976,-44
2021-12-10 14:12:21.511985,-17
2021-12-10 14:12:21.511993,-24
2021-12-10 14:12:21.512002,-7
2021-12-10 14:12:21.512010,26
2021-12-10 14:12:21.512019,29
2021-12-10 14:12:21.512027,41
2021-12-10 14:12:21.512036,68
2021-12-10 14:12:21.512044,53
2021-12-10 14:12:21.512053,44
2021-12-10 14:12:21.512061,68
2021-12-10 14:12:21.512070,80
2021-12-10 14:12:21.512078,44
2021-12-10 14:12:21.512087,24
2021-12-10 14:12:21.512095,46
2021-12-10 14:12:21.512104,31
2021-12-10 14:12:21.512112,0
2021-12-10 14:12:21.512121,7
2021-12-10 14:12:21.512129,34
2021-12-10 14:12:21.512137,29
2021-12-10 14:12:21.512146,-9
2021-12-10 14:12:21.512154,-19
2021-12-10 14:12:21.512163,-2
2021-12-10 14:12:21.512171,0
2021-12-10 14:12:21.736176,-7
2021-12-10 14:12:21.736193,-9
2021-12-10 14:12:21.736202,4
2021-12-10 14:12:21.736211,-2
2021-12-10 14:12:21.736219,-24
2021-12-10 14:12:21.736228,-7
2021-12-10 14:12:21.736236,26
2021-12-10 14:12:21.736245,34
2021-12-10 14:12:21.736253,22
2021-12-10 14:12:21.736262,24
2021-12-10 14:12:21.736270,39
2021-12-10 14:12:21.736279,39
2021-12-10 14:12:21.736287,26
2021-12-10 14:12:21.736301,2
2021-12-10 14:12:21.736309,-19
2021-12-10 14:12:21.736318,-12
2021-12-10 14:12:21.736326,17
2021-12-10 14:12:21.736335,14
2021-12-10 14:12:21.736343,-22
2021-12-10 14:12:21.736352,-24
2021-12-10 14:12:21.736360,-4
2021-12-10 14:12:21.736368,-7
2021-12-10 14:12:21.736377,29
2021-12-10 14:12:21.736385,188
2021-12-10 14:12:21.736394,520
2021-12-10 14:12:21.736402,726
2021-12-10 14:12:21.736411,242
2021-12-10 14:12:21.736419,-626
2021-12-10 14:12:21.736427,-838
2021-12-10 14:12:21.736436,-388
2021-12-10 14:12:21.961868,-158
2021-12-10 14:12:21.961886,-166
2021-12-10 14:12:21.961896,-44
2021-12-10 14:12:21.961905,24
2021-12-10 14:12:21.961914,2
2021-12-10 14:12:21.961922,34
2021-12-10 14:12:21.961931,51
2021-12-10 14:12:21.961939,31
2021-12-10 14:12:21.961948,48
2021-12-10 14:12:21.961956,78
2021-12-10 14:12:21.961965,78
2021-12-10 14:12:21.961973,80
2021-12-10 14:12:21.961982,107
2021-12-10 14:12:21.961990,122
2021-12-10 14:12:21.961999,129
2021-12-10 14:12:21.962007,156
2021-12-10 14:12:21.962016,188
2021-12-10 14:12:21.962024,210
2021-12-10 14:12:21.962032,239
2021-12-10 14:12:21.962041,266
2021-12-10 14:12:21.962049,281
2021-12-10 14:12:21.962058,295
2021-12-10 14:12:21.962066,288
2021-12-10 14:12:21.962074,251
2021-12-10 14:12:21.962083,202
2021-12-10 14:12:21.962091,134
2021-12-10 14:12:21.962099,41
2021-12-10 14:12:21.962108,-41
2021-12-10 14:12:21.962116,-107
2021-12-10 14:12:21.962125,-178
2021-12-10 14:12:22.141831,-239
2021-12-10 14:12:22.141848,-269
2021-12-10 14:12:22.141857,-273
2021-12-10 14:12:22.141866,-288
2021-12-10 14:12:22.141874,-298
2021-12-10 14:12:22.141883,-303
2021-12-10 14:12:22.141891,-305
2021-12-10 14:12:22.141900,-298
2021-12-10 14:12:22.141909,-291
2021-12-10 14:12:22.141917,-300
2021-12-10 14:12:22.141925,-288
2021-12-10 14:12:22.141934,-266
2021-12-10 14:12:22.141942,-266
2021-12-10 14:12:22.141951,-254
2021-12-10 14:12:22.141959,-224
2021-12-10 14:12:22.141967,-217
2021-12-10 14:12:22.141976,-229
2021-12-10 14:12:22.141987,-234
2021-12-10 14:12:22.141995,-237
2021-12-10 14:12:22.142004,-237
2021-12-10 14:12:22.142012,-234
2021-12-10 14:12:22.142021,-237
2021-12-10 14:12:22.142029,-237
2021-12-10 14:12:22.142038,-234
2021-12-10 14:12:22.142046,-227
2021-12-10 14:12:22.142054,-222
2021-12-10 14:12:22.142063,-237
2021-12-10 14:12:22.142073,-249
2021-12-10 14:12:22.142081,-239
2021-12-10 14:12:22.142089,-232
2021-12-10 14:12:22.410533,-234
2021-12-10 14:12:22.410551,-229
2021-12-10 14:12:22.410560,-222
2021-12-10 14:12:22.410569,-215
2021-12-10 14:12:22.410578,-205
2021-12-10 14:12:22.410586,-210
2021-12-10 14:12:22.410595,-227
2021-12-10 14:12:22.410603,-246
2021-12-10 14:12:22.410612,-254
2021-12-10 14:12:22.410620,-251
2021-12-10 14:12:22.410629,-261
2021-12-10 14:12:22.410637,-269
2021-12-10 14:12:22.410645,-259
2021-12-10 14:12:22.410654,-251
2021-12-10 14:12:22.410662,-261
2021-12-10 14:12:22.410670,-251
2021-12-10 14:12:22.410678,-193
2021-12-10 14:12:22.410687,-114
2021-12-10 14:12:22.410695,53
2021-12-10 14:12:22.410703,237
2021-12-10 14:12:22.410712,-51
2021-12-10 14:12:22.410720,-814
2021-12-10 14:12:22.410728,-1144
2021-12-10 14:12:22.410736,-758
2021-12-10 14:12:22.410745,-408
2021-12-10 14:12:22.410753,-349
2021-12-10 14:12:22.410761,-256
2021-12-10 14:12:22.410770,-158
2021-12-10 14:12:22.410778,-161
2021-12-10 14:12:22.410786,-151
2021-12-10 14:12:22.636197,-117
2021-12-10 14:12:22.636213,-107
2021-12-10 14:12:22.636222,-105
2021-12-10 14:12:22.636231,-90
2021-12-10 14:12:22.636240,-80
2021-12-10 14:12:22.636249,-75
2021-12-10 14:12:22.636258,-53
2021-12-10 14:12:22.636266,-24
2021-12-10 14:12:22.636275,0
2021-12-10 14:12:22.636284,24
2021-12-10 14:12:22.636293,51
2021-12-10 14:12:22.636301,80
2021-12-10 14:12:22.636310,119
2021-12-10 14:12:22.636318,166
2021-12-10 14:12:22.636327,198
2021-12-10 14:12:22.636335,198
2021-12-10 14:12:22.636344,185
2021-12-10 14:12:22.636352,166
2021-12-10 14:12:22.636361,122
2021-12-10 14:12:22.636370,48
2021-12-10 14:12:22.636378,-39
2021-12-10 14:12:22.636387,-127
2021-12-10 14:12:22.636395,-220
2021-12-10 14:12:22.636404,-291
2021-12-10 14:12:22.636412,-317
2021-12-10 14:12:22.636420,-339
2021-12-10 14:12:22.636429,-371
2021-12-10 14:12:22.636437,-381
2021-12-10 14:12:22.636446,-379
2021-12-10 14:12:22.636457,-386
2021-12-10 14:12:22.861878,-396
2021-12-10 14:12:22.861897,-388
2021-12-10 14:12:22.861907,-376
2021-12-10 14:12:22.861915,-357
2021-12-10 14:12:22.861924,-342
2021-12-10 14:12:22.861932,-335
2021-12-10 14:12:22.861941,-322
2021-12-10 14:12:22.861949,-315
2021-12-10 14:12:22.861958,-317
2021-12-10 14:12:22.861966,-310
2021-12-10 14:12:22.861975,-305
2021-12-10 14:12:22.861983,-308
2021-12-10 14:12:22.861992,-300
2021-12-10 14:12:22.862000,-300
2021-12-10 14:12:22.862009,-308
2021-12-10 14:12:22.862017,-305
2021-12-10 14:12:22.862025,-305
2021-12-10 14:12:22.862034,-310
2021-12-10 14:12:22.862042,-313
2021-12-10 14:12:22.862051,-313
2021-12-10 14:12:22.862059,-310
2021-12-10 14:12:22.862067,-303
2021-12-10 14:12:22.862076,-313
2021-12-10 14:12:22.862084,-313
2021-12-10 14:12:22.862093,-278
2021-12-10 14:12:22.862101,-249
2021-12-10 14:12:22.862109,-256
2021-12-10 14:12:22.862118,-251
2021-12-10 14:12:22.862126,-220
2021-12-10 14:12:22.862135,-217
2021-12-10 14:12:23.086891,-234
2021-12-10 14:12:23.086909,-227
2021-12-10 14:12:23.086919,-217
2021-12-10 14:12:23.086928,-227
2021-12-10 14:12:23.086936,-234
2021-12-10 14:12:23.086945,-232
2021-12-10 14:12:23.086954,-217
2021-12-10 14:12:23.086962,-215
2021-12-10 14:12:23.086971,-234
2021-12-10 14:12:23.086980,-251
2021-12-10 14:12:23.086988,-244
2021-12-10 14:12:23.086997,-232
2021-12-10 14:12:23.087006,-222
2021-12-10 14:12:23.087014,-200
2021-12-10 14:12:23.087023,-134
2021-12-10 14:12:23.087031,122
2021-12-10 14:12:23.087040,432
2021-12-10 14:12:23.087048,188
2021-12-10 14:12:23.087057,-574
2021-12-10 14:12:23.087065,-941
2021-12-10 14:12:23.087074,-670
2021-12-10 14:12:23.087082,-386
2021-12-10 14:12:23.087091,-310
2021-12-10 14:12:23.087099,-190
2021-12-10 14:12:23.087108,-85
2021-12-10 14:12:23.087117,-97
2021-12-10 14:12:23.087125,-102
2021-12-10 14:12:23.087134,-68
2021-12-10 14:12:23.087142,-39
2021-12-10 14:12:23.087151,-61
2021-12-10 14:12:23.356271,-97
2021-12-10 14:12:23.356289,-36
2021-12-10 14:12:23.356298,14
2021-12-10 14:12:23.356307,-4
2021-12-10 14:12:23.356316,29
2021-12-10 14:12:23.356324,66
2021-12-10 14:12:23.356333,61
2021-12-10 14:12:23.356341,75
2021-12-10 14:12:23.356350,92
2021-12-10 14:12:23.356358,132
2021-12-10 14:12:23.356367,178
2021-12-10 14:12:23.356375,168
2021-12-10 14:12:23.356384,188
2021-12-10 14:12:23.356392,244
2021-12-10 14:12:23.356401,232
2021-12-10 14:12:23.356409,163
2021-12-10 14:12:23.356417,95
2021-12-10 14:12:23.356426,48
2021-12-10 14:12:23.356434,-29
2021-12-10 14:12:23.356443,-136
2021-12-10 14:12:23.356454,-161
2021-12-10 14:12:23.356463,-158
2021-12-10 14:12:23.356471,-195
2021-12-10 14:12:23.356480,-188
2021-12-10 14:12:23.356488,-215
2021-12-10 14:12:23.356497,-276
2021-12-10 14:12:23.356505,-220
2021-12-10 14:12:23.356514,-173
2021-12-10 14:12:23.356522,-195
2021-12-10 14:12:23.356530,-168
2021-12-10 14:12:23.581805,-124
2021-12-10 14:12:23.581821,-136
2021-12-10 14:12:23.581830,-168
2021-12-10 14:12:23.581839,-146
2021-12-10 14:12:23.581848,-112
2021-12-10 14:12:23.581856,-83
2021-12-10 14:12:23.581865,-9
2021-12-10 14:12:23.581873,0
2021-12-10 14:12:23.581881,-66
2021-12-10 14:12:23.581890,-41
2021-12-10 14:12:23.581898,2
2021-12-10 14:12:23.581907,-36
2021-12-10 14:12:23.581915,-53
2021-12-10 14:12:23.581924,-26
2021-12-10 14:12:23.581932,-12
2021-12-10 14:12:23.581941,-12
2021-12-10 14:12:23.581949,-2
2021-12-10 14:12:23.581958,12
2021-12-10 14:12:23.581966,12
2021-12-10 14:12:23.581975,-12
2021-12-10 14:12:23.581983,9
2021-12-10 14:12:23.581992,53
2021-12-10 14:12:23.582000,19
2021-12-10 14:12:23.582008,-7
2021-12-10 14:12:23.582017,9
2021-12-10 14:12:23.582025,7
2021-12-10 14:12:23.582034,58
2021-12-10 14:12:23.582042,97
2021-12-10 14:12:23.582051,58
2021-12-10 14:12:23.582059,53
2021-12-10 14:12:23.761796,73
2021-12-10 14:12:23.761812,46
2021-12-10 14:12:23.761821,17
2021-12-10 14:12:23.761830,29
2021-12-10 14:12:23.761838,26
2021-12-10 14:12:23.761847,0
2021-12-10 14:12:23.761855,26
2021-12-10 14:12:23.761864,26
2021-12-10 14:12:23.761872,-39
2021-12-10 14:12:23.761880,-24
2021-12-10 14:12:23.761889,41
2021-12-10 14:12:23.761897,90
2021-12-10 14:12:23.761905,249
2021-12-10 14:12:23.761914,484
2021-12-10 14:12:23.761922,300
2021-12-10 14:12:23.761930,-388
2021-12-10 14:12:23.761939,-762
2021-12-10 14:12:23.761947,-535
2021-12-10 14:12:23.761955,-239
2021-12-10 14:12:23.761964,-112
2021-12-10 14:12:23.761972,-9
2021-12-10 14:12:23.761980,80
2021-12-10 14:12:23.761989,90
2021-12-10 14:12:23.761997,90
2021-12-10 14:12:23.762005,114
2021-12-10 14:12:23.762013,114
2021-12-10 14:12:23.762022,110
2021-12-10 14:12:23.762030,134
2021-12-10 14:12:23.762038,156
2021-12-10 14:12:23.762047,144
2021-12-10 14:12:24.031819,144
2021-12-10 14:12:24.031835,163
2021-12-10 14:12:24.031845,188
2021-12-10 14:12:24.031854,205
2021-12-10 14:12:24.031862,212
2021-12-10 14:12:24.031871,232
2021-12-10 14:12:24.031880,271
2021-12-10 14:12:24.031888,308
2021-12-10 14:12:24.031897,330
2021-12-10 14:12:24.031906,344
2021-12-10 14:12:24.031914,344
2021-12-10 14:12:24.031923,317
2021-12-10 14:12:24.031931,266
2021-12-10 14:12:24.031940,215
2021-12-10 14:12:24.031948,151
2021-12-10 14:12:24.031957,56
2021-12-10 14:12:24.031965,-39
2021-12-10 14:12:24.031974,-105
2021-12-10 14:12:24.031982,-146
2021-12-10 14:12:24.031991,-185
2021-12-10 14:12:24.031999,-227
2021-12-10 14:12:24.032008,-227
2021-12-10 14:12:24.032019,-210
2021-12-10 14:12:24.032027,-224
2021-12-10 14:12:24.032036,-246
2021-12-10 14:12:24.032045,-239
2021-12-10 14:12:24.032053,-234
2021-12-10 14:12:24.032062,-249
2021-12-10 14:12:24.032070,-244
2021-12-10 14:12:24.032079,-220
2021-12-10 14:12:24.212038,-224
2021-12-10 14:12:24.212059,-249
2021-12-10 14:12:24.212069,-254
2021-12-10 14:12:24.212078,-234
2021-12-10 14:12:24.212086,-222
2021-12-10 14:12:24.212095,-244
2021-12-10 14:12:24.212103,-254
2021-12-10 14:12:24.212112,-237
2021-12-10 14:12:24.212120,-251
2021-12-10 14:12:24.212129,-276
2021-12-10 14:12:24.212137,-269
2021-12-10 14:12:24.212145,-269
2021-12-10 14:12:24.212154,-317
2021-12-10 14:12:24.212162,-359
2021-12-10 14:12:24.212171,-332
2021-12-10 14:12:24.212179,-271
2021-12-10 14:12:24.212187,-259
2021-12-10 14:12:24.212196,-308
2021-12-10 14:12:24.212204,-325
2021-12-10 14:12:24.212213,-300
2021-12-10 14:12:24.212221,-298
2021-12-10 14:12:24.212230,-303
2021-12-10 14:12:24.212238,-322
2021-12-10 14:12:24.212246,-386
2021-12-10 14:12:24.212254,-413
2021-12-10 14:12:24.212262,-332
2021-12-10 14:12:24.212269,-249
2021-12-10 14:12:24.212277,-251
2021-12-10 14:12:24.212285,-286
2021-12-10 14:12:24.212292,-273
2021-12-10 14:12:24.526171,-264
2021-12-10 14:12:24.526189,-317
2021-12-10 14:12:24.526199,-335
2021-12-10 14:12:24.526208,-286
2021-12-10 14:12:24.526217,-283
2021-12-10 14:12:24.526225,-305
2021-12-10 14:12:24.526234,-288
2021-12-10 14:12:24.526242,-281
2021-12-10 14:12:24.526251,-293
2021-12-10 14:12:24.526260,-317
2021-12-10 14:12:24.526268,-281
2021-12-10 14:12:24.526277,-173
2021-12-10 14:12:24.526285,-56
2021-12-10 14:12:24.526294,198
2021-12-10 14:12:24.526302,261
2021-12-10 14:12:24.526311,-369
2021-12-10 14:12:24.526319,-1031
2021-12-10 14:12:24.526328,-924
2021-12-10 14:12:24.526337,-474
2021-12-10 14:12:24.526345,-310
2021-12-10 14:12:24.526354,-266
2021-12-10 14:12:24.526362,-149
2021-12-10 14:12:24.526371,-100
2021-12-10 14:12:24.526379,-129
2021-12-10 14:12:24.526388,-129
2021-12-10 14:12:24.526396,-95
2021-12-10 14:12:24.526405,-61
2021-12-10 14:12:24.526413,-34
2021-12-10 14:12:24.526422,-39
2021-12-10 14:12:24.526430,-88
2021-12-10 14:12:24.661916,-90
2021-12-10 14:12:24.661935,-24
2021-12-10 14:12:24.661945,-19
2021-12-10 14:12:24.661953,-61
2021-12-10 14:12:24.661962,-17
2021-12-10 14:12:24.661971,53
2021-12-10 14:12:24.661979,12
2021-12-10 14:12:24.661988,46
2021-12-10 14:12:24.661996,205
2021-12-10 14:12:24.662005,190
2021-12-10 14:12:24.662013,119
2021-12-10 14:12:24.662021,161
2021-12-10 14:12:24.662030,149
2021-12-10 14:12:24.662038,83
2021-12-10 14:12:24.662047,0
2021-12-10 14:12:24.662055,-129
2021-12-10 14:12:24.662064,-149
2021-12-10 14:12:24.662072,-132
2021-12-10 14:12:24.662080,-273
2021-12-10 14:12:24.662088,-303
2021-12-10 14:12:24.662097,-249
2021-12-10 14:12:24.662105,-315
2021-12-10 14:12:24.662113,-288
2021-12-10 14:12:24.662122,-266
2021-12-10 14:12:24.662130,-335
2021-12-10 14:12:24.662138,-303
2021-12-10 14:12:24.662147,-269
2021-12-10 14:12:24.662155,-283
2021-12-10 14:12:24.662163,-217
2021-12-10 14:12:24.662172,-173
2021-12-10 14:12:24.886898,-198
2021-12-10 14:12:24.886917,-185
2021-12-10 14:12:24.886926,-183
2021-12-10 14:12:24.886935,-183
2021-12-10 14:12:24.886944,-141
2021-12-10 14:12:24.886955,-136
2021-12-10 14:12:24.886964,-156
2021-12-10 14:12:24.886972,-136
2021-12-10 14:12:24.886981,-110
2021-12-10 14:12:24.886990,-85
2021-12-10 14:12:24.886998,-95
2021-12-10 14:12:24.887007,-139
2021-12-10 14:12:24.887015,-90
2021-12-10 14:12:24.887023,-92
2021-12-10 14:12:24.887032,-176
2021-12-10 14:12:24.887040,-70
2021-12-10 14:12:24.887049,26
2021-12-10 14:12:24.887058,-95
2021-12-10 14:12:24.887066,-139
2021-12-10 14:12:24.887075,-92
2021-12-10 14:12:24.887083,-110
2021-12-10 14:12:24.887091,-85
2021-12-10 14:12:24.887100,-63
2021-12-10 14:12:24.887108,-97
2021-12-10 14:12:24.887117,-56
2021-12-10 14:12:24.887125,2
2021-12-10 14:12:24.887133,-70
2021-12-10 14:12:24.887142,-119
2021-12-10 14:12:24.887150,-34
2021-12-10 14:12:24.887159,-7
2021-12-10 14:12:25.157253,-56
2021-12-10 14:12:25.157272,-9
2021-12-10 14:12:25.157281,34
2021-12-10 14:12:25.157290,-83
2021-12-10 14:12:25.157299,-85
2021-12-10 14:12:25.157307,83
2021-12-10 14:12:25.157316,51
2021-12-10 14:12:25.157324,-88
2021-12-10 14:12:25.157333,-48
2021-12-10 14:12:25.157341,2
2021-12-10 14:12:25.157350,-68
2021-12-10 14:12:25.157359,-105
2021-12-10 14:12:25.157367,7
2021-12-10 14:12:25.157375,102
2021-12-10 14:12:25.157384,112
2021-12-10 14:12:25.157393,298
2021-12-10 14:12:25.157401,511
2021-12-10 14:12:25.157410,234
2021-12-10 14:12:25.157418,-423
2021-12-10 14:12:25.157427,-787
2021-12-10 14:12:25.157435,-582
2021-12-10 14:12:25.157444,-212
2021-12-10 14:12:25.157452,-34
2021-12-10 14:12:25.157461,26
2021-12-10 14:12:25.157469,80
2021-12-10 14:12:25.157477,124
2021-12-10 14:12:25.157486,144
2021-12-10 14:12:25.157494,110
2021-12-10 14:12:25.157509,136
2021-12-10 14:12:25.157518,239
2021-12-10 14:12:25.427004,212
2021-12-10 14:12:25.427024,163
2021-12-10 14:12:25.427033,232
2021-12-10 14:12:25.427042,239
2021-12-10 14:12:25.427051,202
2021-12-10 14:12:25.427059,261
2021-12-10 14:12:25.427068,308
2021-12-10 14:12:25.427076,317
2021-12-10 14:12:25.427084,354
2021-12-10 14:12:25.427093,361
2021-12-10 14:12:25.427101,381
2021-12-10 14:12:25.427110,408
2021-12-10 14:12:25.427118,401
2021-12-10 14:12:25.427127,469
2021-12-10 14:12:25.427135,493
2021-12-10 14:12:25.427143,366
2021-12-10 14:12:25.427152,291
2021-12-10 14:12:25.427161,251
2021-12-10 14:12:25.427169,144
2021-12-10 14:12:25.427177,58
2021-12-10 14:12:25.427186,19
2021-12-10 14:12:25.427194,-29
2021-12-10 14:12:25.427203,-73
2021-12-10 14:12:25.427211,-114
2021-12-10 14:12:25.427220,-149
2021-12-10 14:12:25.427228,-105
2021-12-10 14:12:25.427237,-105
2021-12-10 14:12:25.427245,-149
2021-12-10 14:12:25.427253,-53
2021-12-10 14:12:25.427262,-36
2021-12-10 14:12:25.696273,-154
2021-12-10 14:12:25.696291,-105
2021-12-10 14:12:25.696301,-22
2021-12-10 14:12:25.696310,-88
2021-12-10 14:12:25.696319,-122
2021-12-10 14:12:25.696327,-78
2021-12-10 14:12:25.696336,-17
2021-12-10 14:12:25.696344,0
2021-12-10 14:12:25.696353,-68
2021-12-10 14:12:25.696362,-73
2021-12-10 14:12:25.696370,-17
2021-12-10 14:12:25.696379,-58
2021-12-10 14:12:25.696387,-78
2021-12-10 14:12:25.696396,4
2021-12-10 14:12:25.696404,17
2021-12-10 14:12:25.696413,-66
2021-12-10 14:12:25.696421,-75
2021-12-10 14:12:25.696429,-12
2021-12-10 14:12:25.696438,-34
2021-12-10 14:12:25.696446,-95
2021-12-10 14:12:25.696454,-63
2021-12-10 14:12:25.696463,-22
2021-12-10 14:12:25.696471,-70
2021-12-10 14:12:25.696479,-88
2021-12-10 14:12:25.696488,-46
2021-12-10 14:12:25.696496,-78
2021-12-10 14:12:25.696505,-114
2021-12-10 14:12:25.696513,-51
2021-12-10 14:12:25.696521,-22
2021-12-10 14:12:25.696530,-73
2021-12-10 14:12:25.831896,-83
2021-12-10 14:12:25.831917,-58
2021-12-10 14:12:25.831927,-61
2021-12-10 14:12:25.831935,-61
2021-12-10 14:12:25.831944,-31
2021-12-10 14:12:25.831952,-51
2021-12-10 14:12:25.831961,-70
2021-12-10 14:12:25.831969,-14
2021-12-10 14:12:25.831977,-19
2021-12-10 14:12:25.831986,-70
2021-12-10 14:12:25.831994,-24
2021-12-10 14:12:25.832003,2
2021-12-10 14:12:25.832011,-75
2021-12-10 14:12:25.832019,-92
2021-12-10 14:12:25.832028,-41
2021-12-10 14:12:25.832036,-80
2021-12-10 14:12:25.832044,-129
2021-12-10 14:12:25.832053,-61
2021-12-10 14:12:25.832061,-9
2021-12-10 14:12:25.832070,-29
2021-12-10 14:12:25.832078,9
2021-12-10 14:12:25.832086,224
2021-12-10 14:12:25.832095,481
2021-12-10 14:12:25.832103,198
2021-12-10 14:12:25.832112,-552
2021-12-10 14:12:25.832120,-846
2021-12-10 14:12:25.832128,-552
2021-12-10 14:12:25.832137,-303
2021-12-10 14:12:25.832145,-185
2021-12-10 14:12:25.832153,-39
2021-12-10 14:12:26.101947,24
2021-12-10 14:12:26.101965,34
2021-12-10 14:12:26.101974,61
2021-12-10 14:12:26.101983,68
2021-12-10 14:12:26.101992,83
2021-12-10 14:12:26.102000,95
2021-12-10 14:12:26.102009,78
2021-12-10 14:12:26.102017,105
2021-12-10 14:12:26.102025,156
2021-12-10 14:12:26.102034,110
2021-12-10 14:12:26.102042,90
2021-12-10 14:12:26.102051,185
2021-12-10 14:12:26.102059,183
2021-12-10 14:12:26.102068,144
2021-12-10 14:12:26.102076,232
2021-12-10 14:12:26.102085,261
2021-12-10 14:12:26.102093,207
2021-12-10 14:12:26.102102,305
2021-12-10 14:12:26.102110,413
2021-12-10 14:12:26.102119,317
2021-12-10 14:12:26.102127,229
2021-12-10 14:12:26.102135,256
2021-12-10 14:12:26.102144,224
2021-12-10 14:12:26.102152,117
2021-12-10 14:12:26.102161,29
2021-12-10 14:12:26.102169,-68
2021-12-10 14:12:26.102178,-173
2021-12-10 14:12:26.102186,-161
2021-12-10 14:12:26.102195,-141
2021-12-10 14:12:26.102203,-224
2021-12-10 14:12:26.326295,-246
2021-12-10 14:12:26.326313,-222
2021-12-10 14:12:26.326322,-242
2021-12-10 14:12:26.326331,-266
2021-12-10 14:12:26.326340,-269
2021-12-10 14:12:26.326348,-237
2021-12-10 14:12:26.326357,-234
2021-12-10 14:12:26.326365,-254
2021-12-10 14:12:26.326373,-205
2021-12-10 14:12:26.326382,-176
2021-12-10 14:12:26.326390,-239
2021-12-10 14:12:26.326398,-273
2021-12-10 14:12:26.326407,-180
2021-12-10 14:12:26.326415,-112
2021-12-10 14:12:26.326423,-188
2021-12-10 14:12:26.326431,-198
2021-12-10 14:12:26.326440,-122
2021-12-10 14:12:26.326448,-154
2021-12-10 14:12:26.326456,-210
2021-12-10 14:12:26.326464,-195
2021-12-10 14:12:26.326472,-171
2021-12-10 14:12:26.326481,-198
2021-12-10 14:12:26.326489,-239
2021-12-10 14:12:26.326497,-193
2021-12-10 14:12:26.326505,-134
2021-12-10 14:12:26.326514,-195
2021-12-10 14:12:26.326522,-220
2021-12-10 14:12:26.326530,-171
2021-12-10 14:12:26.326538,-195
2021-12-10 14:12:26.326546,-210
2021-12-10 14:12:26.550500,-188
2021-12-10 14:12:26.550517,-205
2021-12-10 14:12:26.550526,-173
2021-12-10 14:12:26.550535,-136
2021-12-10 14:12:26.550544,-190
2021-12-10 14:12:26.550552,-205
2021-12-10 14:12:26.550561,-163
2021-12-10 14:12:26.550569,-166
2021-12-10 14:12:26.550578,-198
2021-12-10 14:12:26.550586,-185
2021-12-10 14:12:26.550594,-114
2021-12-10 14:12:26.550603,-122
2021-12-10 14:12:26.550611,-183
2021-12-10 14:12:26.550619,-158
2021-12-10 14:12:26.550628,-151
2021-12-10 14:12:26.550636,-205
2021-12-10 14:12:26.550645,-146
2021-12-10 14:12:26.550653,-100
2021-12-10 14:12:26.550661,-222
2021-12-10 14:12:26.550669,-254
2021-12-10 14:12:26.550678,-149
2021-12-10 14:12:26.550686,-161
2021-12-10 14:12:26.550694,-232
2021-12-10 14:12:26.550703,-146
2021-12-10 14:12:26.550711,-36
2021-12-10 14:12:26.550719,-41
2021-12-10 14:12:26.550728,117
2021-12-10 14:12:26.550736,361
2021-12-10 14:12:26.550744,58
2021-12-10 14:12:26.550753,-662
2021-12-10 14:12:26.731938,-961
2021-12-10 14:12:26.731958,-670
2021-12-10 14:12:26.731967,-352
2021-12-10 14:12:26.731976,-244
2021-12-10 14:12:26.731984,-141
2021-12-10 14:12:26.731993,-34
2021-12-10 14:12:26.732001,-19
2021-12-10 14:12:26.732010,-41
2021-12-10 14:12:26.732018,-34
2021-12-10 14:12:26.732026,-14
2021-12-10 14:12:26.732035,0
2021-12-10 14:12:26.732048,24
2021-12-10 14:12:26.732056,31
2021-12-10 14:12:26.732065,66
2021-12-10 14:12:26.732073,78
2021-12-10 14:12:26.732082,31
2021-12-10 14:12:26.732090,75
2021-12-10 14:12:26.732098,149
2021-12-10 14:12:26.732107,117
2021-12-10 14:12:26.732115,127
2021-12-10 14:12:26.732124,232
2021-12-10 14:12:26.732132,249
2021-12-10 14:12:26.732140,193
2021-12-10 14:12:26.732149,229
2021-12-10 14:12:26.732157,281
2021-12-10 14:12:26.732165,215
2021-12-10 14:12:26.732173,163
2021-12-10 14:12:26.732182,185
2021-12-10 14:12:26.732190,105
2021-12-10 14:12:26.732198,-34
2021-12-10 14:12:26.956914,-107
2021-12-10 14:12:26.956933,-146
2021-12-10 14:12:26.956942,-207
2021-12-10 14:12:26.956951,-261
2021-12-10 14:12:26.956960,-288
2021-12-10 14:12:26.956968,-293
2021-12-10 14:12:26.956977,-271
2021-12-10 14:12:26.956986,-293
2021-12-10 14:12:26.956994,-335
2021-12-10 14:12:26.957002,-273
2021-12-10 14:12:26.957011,-244
2021-12-10 14:12:26.957020,-317
2021-12-10 14:12:26.957028,-293
2021-12-10 14:12:26.957037,-207
2021-12-10 14:12:26.957045,-227
2021-12-10 14:12:26.957053,-251
2021-12-10 14:12:26.957062,-239
2021-12-10 14:12:26.957070,-249
2021-12-10 14:12:26.957079,-229
2021-12-10 14:12:26.957087,-178
2021-12-10 14:12:26.957096,-202
2021-12-10 14:12:26.957104,-227
2021-12-10 14:12:26.957112,-185
2021-12-10 14:12:26.957121,-217
2021-12-10 14:12:26.957129,-269
2021-12-10 14:12:26.957137,-200
2021-12-10 14:12:26.957146,-154
2021-12-10 14:12:26.957154,-224
2021-12-10 14:12:26.957163,-239
2021-12-10 14:12:26.957171,-202
2021-12-10 14:12:27.226914,-234
2021-12-10 14:12:27.226932,-227
2021-12-10 14:12:27.226941,-178
2021-12-10 14:12:27.226950,-229
2021-12-10 14:12:27.226958,-251
2021-12-10 14:12:27.226967,-188
2021-12-10 14:12:27.226975,-202
2021-12-10 14:12:27.226983,-244
2021-12-10 14:12:27.226992,-190
2021-12-10 14:12:27.227000,-163
2021-12-10 14:12:27.227009,-215
2021-12-10 14:12:27.227017,-202
2021-12-10 14:12:27.227026,-193
2021-12-10 14:12:27.227034,-237
2021-12-10 14:12:27.227042,-183
2021-12-10 14:12:27.227051,-105
2021-12-10 14:12:27.227059,-146
2021-12-10 14:12:27.227067,-210
2021-12-10 14:12:27.227075,-215
2021-12-10 14:12:27.227084,-205
2021-12-10 14:12:27.227092,-202
2021-12-10 14:12:27.227101,-232
2021-12-10 14:12:27.227109,-212
2021-12-10 14:12:27.227117,-136
2021-12-10 14:12:27.227125,-176
2021-12-10 14:12:27.227134,-239
2021-12-10 14:12:27.227142,-178
2021-12-10 14:12:27.227150,-105
2021-12-10 14:12:27.227159,-53
2021-12-10 14:12:27.227167,127
2021-12-10 14:12:27.451872,325
2021-12-10 14:12:27.451888,53
2021-12-10 14:12:27.451898,-679
2021-12-10 14:12:27.451907,-1044
2021-12-10 14:12:27.451916,-692
2021-12-10 14:12:27.451924,-320
2021-12-10 14:12:27.451933,-246
2021-12-10 14:12:27.451941,-151
2021-12-10 14:12:27.451949,-48
2021-12-10 14:12:27.451958,-70
2021-12-10 14:12:27.451966,-75
2021-12-10 14:12:27.451975,0
2021-12-10 14:12:27.451983,31
2021-12-10 14:12:27.451992,-24
2021-12-10 14:12:27.452000,-14
2021-12-10 14:12:27.452008,66
2021-12-10 14:12:27.452017,51
2021-12-10 14:12:27.452025,12
2021-12-10 14:12:27.452034,58
2021-12-10 14:12:27.452042,83
2021-12-10 14:12:27.452050,48
2021-12-10 14:12:27.452059,107
2021-12-10 14:12:27.452067,224
2021-12-10 14:12:27.452075,215
2021-12-10 14:12:27.452084,190
2021-12-10 14:12:27.452092,237
2021-12-10 14:12:27.452100,244
2021-12-10 14:12:27.452109,202
2021-12-10 14:12:27.452117,183
2021-12-10 14:12:27.452125,163
2021-12-10 14:12:27.721424,102
2021-12-10 14:12:27.721444,46
2021-12-10 14:12:27.721454,-7
2021-12-10 14:12:27.721463,-110
2021-12-10 14:12:27.721471,-173
2021-12-10 14:12:27.721480,-171
2021-12-10 14:12:27.721488,-222
2021-12-10 14:12:27.721496,-308
2021-12-10 14:12:27.721505,-276
2021-12-10 14:12:27.721513,-234
2021-12-10 14:12:27.721521,-300
2021-12-10 14:12:27.721530,-322
2021-12-10 14:12:27.721538,-259
2021-12-10 14:12:27.721546,-232
2021-12-10 14:12:27.721555,-237
2021-12-10 14:12:27.721563,-239
2021-12-10 14:12:27.721571,-224
2021-12-10 14:12:27.721580,-193
2021-12-10 14:12:27.721588,-195
2021-12-10 14:12:27.721597,-227
2021-12-10 14:12:27.721605,-254
2021-12-10 14:12:27.721613,-210
2021-12-10 14:12:27.721622,-122
2021-12-10 14:12:27.721630,-166
2021-12-10 14:12:27.721639,-259
2021-12-10 14:12:27.721647,-259
2021-12-10 14:12:27.721656,-185
2021-12-10 14:12:27.721664,-119
2021-12-10 14:12:27.721673,-171
2021-12-10 14:12:27.721681,-220
2021-12-10 14:12:27.946979,-161
2021-12-10 14:12:27.946998,-168
2021-12-10 14:12:27.947008,-276
2021-12-10 14:12:27.947016,-205
2021-12-10 14:12:27.947025,-44
2021-12-10 14:12:27.947034,-141
2021-12-10 14:12:27.947042,-244
2021-12-10 14:12:27.947051,-144
2021-12-10 14:12:27.947062,-129
2021-12-10 14:12:27.947071,-224
2021-12-10 14:12:27.947079,-161
2021-12-10 14:12:27.947088,-31
2021-12-10 14:12:27.947096,-124
2021-12-10 14:12:27.947104,-212
2021-12-10 14:12:27.947113,-129
2021-12-10 14:12:27.947121,-124
2021-12-10 14:12:27.947130,-178
2021-12-10 14:12:27.947138,-95
2021-12-10 14:12:27.947146,-17
2021-12-10 14:12:27.947155,-85
2021-12-10 14:12:27.947163,-154
2021-12-10 14:12:27.947172,-154
2021-12-10 14:12:27.947180,-136
2021-12-10 14:12:27.947188,-124
2021-12-10 14:12:27.947197,-149
2021-12-10 14:12:27.947205,-146
2021-12-10 14:12:27.947213,-102
2021-12-10 14:12:27.947222,-80
2021-12-10 14:12:27.947230,-41
2021-12-10 14:12:27.947239,4
2021-12-10 14:12:28.216940,73
2021-12-10 14:12:28.216958,369
2021-12-10 14:12:28.216967,437
2021-12-10 14:12:28.216976,-315
2021-12-10 14:12:28.216985,-1005
2021-12-10 14:12:28.216993,-740
2021-12-10 14:12:28.217002,-313
2021-12-10 14:12:28.217010,-293
2021-12-10 14:12:28.217019,-166
2021-12-10 14:12:28.217027,34
2021-12-10 14:12:28.217036,4
2021-12-10 14:12:28.217044,26
2021-12-10 14:12:28.217053,105
2021-12-10 14:12:28.217061,48
2021-12-10 14:12:28.217070,66
2021-12-10 14:12:28.217078,154
2021-12-10 14:12:28.217087,114
2021-12-10 14:12:28.217095,66
2021-12-10 14:12:28.217104,110
2021-12-10 14:12:28.217112,146
2021-12-10 14:12:28.217121,149
2021-12-10 14:12:28.217129,173
2021-12-10 14:12:28.217137,188
2021-12-10 14:12:28.217146,222
2021-12-10 14:12:28.217154,295
2021-12-10 14:12:28.217163,298
2021-12-10 14:12:28.217171,261
2021-12-10 14:12:28.217180,298
2021-12-10 14:12:28.217188,332
2021-12-10 14:12:28.217196,322
2021-12-10 14:12:28.352031,320
2021-12-10 14:12:28.352050,278
2021-12-10 14:12:28.352059,185
2021-12-10 14:12:28.352068,70
2021-12-10 14:12:28.352077,-56
2021-12-10 14:12:28.352085,-95
2021-12-10 14:12:28.352094,-141
2021-12-10 14:12:28.352102,-242
2021-12-10 14:12:28.352110,-224
2021-12-10 14:12:28.352119,-215
2021-12-10 14:12:28.352127,-283
2021-12-10 14:12:28.352136,-249
2021-12-10 14:12:28.352144,-212
2021-12-10 14:12:28.352153,-273
2021-12-10 14:12:28.352161,-261
2021-12-10 14:12:28.352169,-210
2021-12-10 14:12:28.352178,-271
2021-12-10 14:12:28.352186,-295
2021-12-10 14:12:28.352194,-249
2021-12-10 14:12:28.352203,-220
2021-12-10 14:12:28.352211,-161
2021-12-10 14:12:28.352219,-144
2021-12-10 14:12:28.352228,-215
2021-12-10 14:12:28.352236,-256
2021-12-10 14:12:28.352245,-195
2021-12-10 14:12:28.352253,-132
2021-12-10 14:12:28.352262,-171
2021-12-10 14:12:28.352270,-202
2021-12-10 14:12:28.352279,-200
2021-12-10 14:12:28.352287,-183
2021-12-10 14:12:28.710594,-134
2021-12-10 14:12:28.710612,-168
2021-12-10 14:12:28.710622,-229
2021-12-10 14:12:28.710631,-190
2021-12-10 14:12:28.710640,-161
2021-12-10 14:12:28.710648,-180
2021-12-10 14:12:28.710657,-144
2021-12-10 14:12:28.710666,-107
2021-12-10 14:12:28.710674,-205
2021-12-10 14:12:28.710683,-195
2021-12-10 14:12:28.710691,-41
2021-12-10 14:12:28.710700,-119
2021-12-10 14:12:28.710708,-242
2021-12-10 14:12:28.710717,-146
2021-12-10 14:12:28.710725,-122
2021-12-10 14:12:28.710734,-193
2021-12-10 14:12:28.710742,-173
2021-12-10 14:12:28.710751,-171
2021-12-10 14:12:28.710759,-183
2021-12-10 14:12:28.710768,-117
2021-12-10 14:12:28.710776,-134
2021-12-10 14:12:28.710785,-176
2021-12-10 14:12:28.710793,-51
2021-12-10 14:12:28.710801,78
2021-12-10 14:12:28.710810,95
2021-12-10 14:12:28.710819,269
2021-12-10 14:12:28.710827,300
2021-12-10 14:12:28.710835,-410
2021-12-10 14:12:28.710844,-1120
2021-12-10 14:12:28.710853,-953
2021-12-10 14:12:28.801934,-432
2021-12-10 14:12:28.801953,-195
2021-12-10 14:12:28.801963,-161
2021-12-10 14:12:28.801971,-56
2021-12-10 14:12:28.801980,112
2021-12-10 14:12:28.801988,95
2021-12-10 14:12:28.801997,9
2021-12-10 14:12:28.802006,92
2021-12-10 14:12:28.802014,158
2021-12-10 14:12:28.802022,110
2021-12-10 14:12:28.802031,144
2021-12-10 14:12:28.802039,237
2021-12-10 14:12:28.802048,251
2021-12-10 14:12:28.802056,273
2021-12-10 14:12:28.802064,278
2021-12-10 14:12:28.802073,264
2021-12-10 14:12:28.802081,342
2021-12-10 14:12:28.802090,381
2021-12-10 14:12:28.802098,352
2021-12-10 14:12:28.802106,440
2021-12-10 14:12:28.802115,567
2021-12-10 14:12:28.802123,542
2021-12-10 14:12:28.802131,538
2021-12-10 14:12:28.802140,630
2021-12-10 14:12:28.802148,528
2021-12-10 14:12:28.802156,339
2021-12-10 14:12:28.802164,352
2021-12-10 14:12:28.802173,315
2021-12-10 14:12:28.802181,114
2021-12-10 14:12:28.802190,68
2021-12-10 14:12:29.026931,102
2021-12-10 14:12:29.026949,-48
2021-12-10 14:12:29.026959,-129
2021-12-10 14:12:29.026967,-14
2021-12-10 14:12:29.026976,-12
2021-12-10 14:12:29.026985,-129
2021-12-10 14:12:29.026993,-73
2021-12-10 14:12:29.027002,22
2021-12-10 14:12:29.027010,-46
2021-12-10 14:12:29.027018,-70
2021-12-10 14:12:29.027027,0
2021-12-10 14:12:29.027036,-2
2021-12-10 14:12:29.027044,-2
2021-12-10 14:12:29.027053,56
2021-12-10 14:12:29.027061,46
2021-12-10 14:12:29.027070,14
2021-12-10 14:12:29.027078,63
2021-12-10 14:12:29.027086,70
2021-12-10 14:12:29.027095,24
2021-12-10 14:12:29.027103,4
2021-12-10 14:12:29.027111,9
2021-12-10 14:12:29.027120,9
2021-12-10 14:12:29.027128,24
2021-12-10 14:12:29.027139,78
2021-12-10 14:12:29.027148,63
2021-12-10 14:12:29.027156,-46
2021-12-10 14:12:29.027164,-68
2021-12-10 14:12:29.027172,9
2021-12-10 14:12:29.027181,36
2021-12-10 14:12:29.027189,-4
2021-12-10 14:12:29.296306,-34
2021-12-10 14:12:29.296324,-22
2021-12-10 14:12:29.296334,4
2021-12-10 14:12:29.296342,36
2021-12-10 14:12:29.296351,44
2021-12-10 14:12:29.296359,-22
2021-12-10 14:12:29.296368,-48
2021-12-10 14:12:29.296376,9
2021-12-10 14:12:29.296385,36
2021-12-10 14:12:29.296393,17
2021-12-10 14:12:29.296401,-2
2021-12-10 14:12:29.296410,-22
2021-12-10 14:12:29.296418,-34
2021-12-10 14:12:29.296427,-34
2021-12-10 14:12:29.296435,-22
2021-12-10 14:12:29.296443,-31
2021-12-10 14:12:29.296452,-24
2021-12-10 14:12:29.296460,14
2021-12-10 14:12:29.296468,-63
2021-12-10 14:12:29.296477,-212
2021-12-10 14:12:29.296485,34
2021-12-10 14:12:29.296494,435
2021-12-10 14:12:29.296502,423
2021-12-10 14:12:29.296510,489
2021-12-10 14:12:29.296519,366
2021-12-10 14:12:29.296527,-555
2021-12-10 14:12:29.296536,-1058
2021-12-10 14:12:29.296544,-596
2021-12-10 14:12:29.296552,-298
2021-12-10 14:12:29.296561,-269
2021-12-10 14:12:29.567165,-24
2021-12-10 14:12:29.567185,105
2021-12-10 14:12:29.567194,-36
2021-12-10 14:12:29.567203,41
2021-12-10 14:12:29.567212,398
2021-12-10 14:12:29.567220,325
2021-12-10 14:12:29.567229,17
2021-12-10 14:12:29.567238,166
2021-12-10 14:12:29.567246,349
2021-12-10 14:12:29.567255,227
2021-12-10 14:12:29.567264,168
2021-12-10 14:12:29.567272,293
2021-12-10 14:12:29.567281,371
2021-12-10 14:12:29.567290,325
2021-12-10 14:12:29.567298,303
2021-12-10 14:12:29.567307,354
2021-12-10 14:12:29.567315,420
2021-12-10 14:12:29.567323,501
2021-12-10 14:12:29.567332,550
2021-12-10 14:12:29.567340,476
2021-12-10 14:12:29.567349,493
2021-12-10 14:12:29.567357,591
2021-12-10 14:12:29.567366,418
2021-12-10 14:12:29.567375,244
2021-12-10 14:12:29.567383,305
2021-12-10 14:12:29.567392,264
2021-12-10 14:12:29.567400,129
2021-12-10 14:12:29.567409,80
2021-12-10 14:12:29.567417,2
2021-12-10 14:12:29.567426,-136
2021-12-10 14:12:29.746881,-127
2021-12-10 14:12:29.746897,-26
2021-12-10 14:12:29.746906,-90
2021-12-10 14:12:29.746915,-151
2021-12-10 14:12:29.746924,-39
2021-12-10 14:12:29.746932,2
2021-12-10 14:12:29.746941,-7
2021-12-10 14:12:29.746949,70
2021-12-10 14:12:29.746958,63
2021-12-10 14:12:29.746966,41
2021-12-10 14:12:29.746975,200
2021-12-10 14:12:29.746983,315
2021-12-10 14:12:29.746992,190
2021-12-10 14:12:29.747000,129
2021-12-10 14:12:29.747009,251
2021-12-10 14:12:29.747017,256
2021-12-10 14:12:29.747025,237
2021-12-10 14:12:29.747034,315
2021-12-10 14:12:29.747042,269
2021-12-10 14:12:29.747051,220
2021-12-10 14:12:29.747059,286
2021-12-10 14:12:29.747067,286
2021-12-10 14:12:29.747076,224
2021-12-10 14:12:29.747084,256
2021-12-10 14:12:29.747092,320
2021-12-10 14:12:29.747101,335
2021-12-10 14:12:29.747109,305
2021-12-10 14:12:29.747117,237
2021-12-10 14:12:29.747125,212
2021-12-10 14:12:29.747134,269
2021-12-10 14:12:29.971945,322
2021-12-10 14:12:29.971964,322
2021-12-10 14:12:29.971974,249
2021-12-10 14:12:29.971983,215
2021-12-10 14:12:29.971991,273
2021-12-10 14:12:29.972000,276
2021-12-10 14:12:29.972008,205
2021-12-10 14:12:29.972017,166
2021-12-10 14:12:29.972025,193
2021-12-10 14:12:29.972034,193
2021-12-10 14:12:29.972042,154
2021-12-10 14:12:29.972051,156
2021-12-10 14:12:29.972059,178
2021-12-10 14:12:29.972068,193
2021-12-10 14:12:29.972076,215
2021-12-10 14:12:29.972084,224
2021-12-10 14:12:29.972093,315
2021-12-10 14:12:29.972101,694
2021-12-10 14:12:29.972110,841
2021-12-10 14:12:29.972118,51
2021-12-10 14:12:29.972126,-858
2021-12-10 14:12:29.972135,-772
2021-12-10 14:12:29.972143,-163
2021-12-10 14:12:29.972152,24
2021-12-10 14:12:29.972160,14
2021-12-10 14:12:29.972168,173
2021-12-10 14:12:29.972177,251
2021-12-10 14:12:29.972185,246
2021-12-10 14:12:29.972193,254
2021-12-10 14:12:29.972202,278
2021-12-10 14:12:30.242566,330
2021-12-10 14:12:30.242586,322
2021-12-10 14:12:30.242595,293
2021-12-10 14:12:30.242604,332
2021-12-10 14:12:30.242613,381
2021-12-10 14:12:30.242621,357
2021-12-10 14:12:30.242630,322
2021-12-10 14:12:30.242638,359
2021-12-10 14:12:30.242647,437
2021-12-10 14:12:30.242655,515
2021-12-10 14:12:30.242664,493
2021-12-10 14:12:30.242672,462
2021-12-10 14:12:30.242681,601
2021-12-10 14:12:30.242689,667
2021-12-10 14:12:30.242697,584
2021-12-10 14:12:30.242706,501
2021-12-10 14:12:30.242715,423
2021-12-10 14:12:30.242723,425
2021-12-10 14:12:30.242731,408
2021-12-10 14:12:30.242740,234
2021-12-10 14:12:30.242748,92
2021-12-10 14:12:30.242757,53
2021-12-10 14:12:30.242766,17
2021-12-10 14:12:30.242774,2
2021-12-10 14:12:30.242782,-85
2021-12-10 14:12:30.242791,-222
2021-12-10 14:12:30.242799,-210
2021-12-10 14:12:30.242807,-119
2021-12-10 14:12:30.242816,-127
2021-12-10 14:12:30.242824,-178
2021-12-10 14:12:30.467061,-168
2021-12-10 14:12:30.467081,-119
2021-12-10 14:12:30.467091,-124
2021-12-10 14:12:30.467100,-176
2021-12-10 14:12:30.467108,-176
2021-12-10 14:12:30.467117,-144
2021-12-10 14:12:30.467125,-166
2021-12-10 14:12:30.467134,-185
2021-12-10 14:12:30.467142,-141
2021-12-10 14:12:30.467151,-107
2021-12-10 14:12:30.467159,-88
2021-12-10 14:12:30.467168,-90
2021-12-10 14:12:30.467176,-149
2021-12-10 14:12:30.467185,-144
2021-12-10 14:12:30.467194,-132
2021-12-10 14:12:30.467202,-264
2021-12-10 14:12:30.467211,-330
2021-12-10 14:12:30.467219,-178
2021-12-10 14:12:30.467228,-107
2021-12-10 14:12:30.467236,-200
2021-12-10 14:12:30.467245,-188
2021-12-10 14:12:30.467253,-117
2021-12-10 14:12:30.467262,-134
2021-12-10 14:12:30.467270,-195
2021-12-10 14:12:30.467278,-256
2021-12-10 14:12:30.467287,-242
2021-12-10 14:12:30.467295,-205
2021-12-10 14:12:30.467304,-283
2021-12-10 14:12:30.467312,-332
2021-12-10 14:12:30.467327,-259
2021-12-10 14:12:30.735622,-242
2021-12-10 14:12:30.735641,-281
2021-12-10 14:12:30.735651,-246
2021-12-10 14:12:30.735660,-200
2021-12-10 14:12:30.735669,-220
2021-12-10 14:12:30.735677,-232
2021-12-10 14:12:30.735686,-58
2021-12-10 14:12:30.735694,229
2021-12-10 14:12:30.735703,4
2021-12-10 14:12:30.735711,-829
2021-12-10 14:12:30.735720,-1288
2021-12-10 14:12:30.735728,-997
2021-12-10 14:12:30.735736,-589
2021-12-10 14:12:30.735745,-401
2021-12-10 14:12:30.735753,-244
2021-12-10 14:12:30.735762,-95
2021-12-10 14:12:30.735770,-85
2021-12-10 14:12:30.735779,-107
2021-12-10 14:12:30.735787,-12
2021-12-10 14:12:30.735795,29
2021-12-10 14:12:30.735804,-34
2021-12-10 14:12:30.735812,19
2021-12-10 14:12:30.735821,92
2021-12-10 14:12:30.735829,14
2021-12-10 14:12:30.735837,-12
2021-12-10 14:12:30.735846,132
2021-12-10 14:12:30.735854,222
2021-12-10 14:12:30.735863,173
2021-12-10 14:12:30.735871,256
2021-12-10 14:12:30.735880,403
2021-12-10 14:12:30.916902,322
2021-12-10 14:12:30.916919,286
2021-12-10 14:12:30.916928,496
2021-12-10 14:12:30.916937,628
2021-12-10 14:12:30.916945,542
2021-12-10 14:12:30.916954,467
2021-12-10 14:12:30.916962,513
2021-12-10 14:12:30.916971,491
2021-12-10 14:12:30.916979,332
2021-12-10 14:12:30.916987,288
2021-12-10 14:12:30.916996,317
2021-12-10 14:12:30.917004,171
2021-12-10 14:12:30.917013,97
2021-12-10 14:12:30.917021,188
2021-12-10 14:12:30.917029,151
2021-12-10 14:12:30.917038,136
2021-12-10 14:12:30.917046,239
2021-12-10 14:12:30.917055,217
2021-12-10 14:12:30.917063,136
2021-12-10 14:12:30.917071,217
2021-12-10 14:12:30.917080,308
2021-12-10 14:12:30.917088,246
2021-12-10 14:12:30.917097,242
2021-12-10 14:12:30.917105,361
2021-12-10 14:12:30.917113,391
2021-12-10 14:12:30.917122,364
2021-12-10 14:12:30.917130,401
2021-12-10 14:12:30.917138,462
2021-12-10 14:12:30.917147,481
2021-12-10 14:12:30.917155,427
2021-12-10 14:12:31.096970,435
2021-12-10 14:12:31.096989,515
2021-12-10 14:12:31.096999,496
2021-12-10 14:12:31.097008,476
2021-12-10 14:12:31.097017,574
2021-12-10 14:12:31.097026,586
2021-12-10 14:12:31.097034,440
2021-12-10 14:12:31.097043,440
2021-12-10 14:12:31.097051,586
2021-12-10 14:12:31.097060,608
2021-12-10 14:12:31.097069,540
2021-12-10 14:12:31.097077,557
2021-12-10 14:12:31.097086,616
2021-12-10 14:12:31.097094,591
2021-12-10 14:12:31.097103,582
2021-12-10 14:12:31.097112,657
2021-12-10 14:12:31.097120,640
2021-12-10 14:12:31.097129,562
2021-12-10 14:12:31.097137,611
2021-12-10 14:12:31.097146,682
2021-12-10 14:12:31.097154,679
2021-12-10 14:12:31.097163,640
2021-12-10 14:12:31.097171,643
2021-12-10 14:12:31.097180,714
2021-12-10 14:12:31.097188,753
2021-12-10 14:12:31.097197,777
2021-12-10 14:12:31.097206,784
2021-12-10 14:12:31.097214,728
2021-12-10 14:12:31.097223,731
2021-12-10 14:12:31.097231,814
2021-12-10 14:12:31.322153,907
2021-12-10 14:12:31.322174,1156
2021-12-10 14:12:31.322183,1474
2021-12-10 14:12:31.322192,1127
2021-12-10 14:12:31.322200,112
2021-12-10 14:12:31.322208,-354
2021-12-10 14:12:31.322216,114
2021-12-10 14:12:31.322224,628
2021-12-10 14:12:31.322236,709
2021-12-10 14:12:31.322244,750
2021-12-10 14:12:31.322252,926
2021-12-10 14:12:31.322259,1014
2021-12-10 14:12:31.322268,980
2021-12-10 14:12:31.322276,895
2021-12-10 14:12:31.322285,846
2021-12-10 14:12:31.322293,897
2021-12-10 14:12:31.322302,899
2021-12-10 14:12:31.322310,789
2021-12-10 14:12:31.322319,784
2021-12-10 14:12:31.322327,821
2021-12-10 14:12:31.322336,731
2021-12-10 14:12:31.322344,704
2021-12-10 14:12:31.322353,770
2021-12-10 14:12:31.322361,816
2021-12-10 14:12:31.322370,873
2021-12-10 14:12:31.322378,892
2021-12-10 14:12:31.322387,855
2021-12-10 14:12:31.322395,943
2021-12-10 14:12:31.322404,1049
2021-12-10 14:12:31.322412,946
2021-12-10 14:12:31.681436,909
2021-12-10 14:12:31.681457,975
2021-12-10 14:12:31.681466,851
2021-12-10 14:12:31.681475,674
2021-12-10 14:12:31.681484,608
2021-12-10 14:12:31.681492,525
2021-12-10 14:12:31.681501,449
2021-12-10 14:12:31.681509,425
2021-12-10 14:12:31.681518,332
2021-12-10 14:12:31.681526,291
2021-12-10 14:12:31.681535,418
2021-12-10 14:12:31.681543,393
2021-12-10 14:12:31.681551,224
2021-12-10 14:12:31.681560,229
2021-12-10 14:12:31.681568,264
2021-12-10 14:12:31.681577,193
2021-12-10 14:12:31.681585,134
2021-12-10 14:12:31.681593,139
2021-12-10 14:12:31.681602,180
2021-12-10 14:12:31.681610,105
2021-12-10 14:12:31.681618,-22
2021-12-10 14:12:31.681627,-41
2021-12-10 14:12:31.681635,-68
2021-12-10 14:12:31.681644,-180
2021-12-10 14:12:31.681652,-325
2021-12-10 14:12:31.681661,-398
2021-12-10 14:12:31.681669,-349
2021-12-10 14:12:31.681677,-335
2021-12-10 14:12:31.681686,-398
2021-12-10 14:12:31.681694,-403
2021-12-10 14:12:31.816986,-401
2021-12-10 14:12:31.817004,-410
2021-12-10 14:12:31.817014,-398
2021-12-10 14:12:31.817023,-388
2021-12-10 14:12:31.817031,-366
2021-12-10 14:12:31.817040,-386
2021-12-10 14:12:31.817048,-427
2021-12-10 14:12:31.817057,-376
2021-12-10 14:12:31.817065,-335
2021-12-10 14:12:31.817074,-361
2021-12-10 14:12:31.817082,-330
2021-12-10 14:12:31.817091,-234
2021-12-10 14:12:31.817099,-166
2021-12-10 14:12:31.817108,-149
2021-12-10 14:12:31.817116,-146
2021-12-10 14:12:31.817125,-75
2021-12-10 14:12:31.817133,92
2021-12-10 14:12:31.817142,305
2021-12-10 14:12:31.817150,552
2021-12-10 14:12:31.817159,794
2021-12-10 14:12:31.817167,1027
2021-12-10 14:12:31.817175,1308
2021-12-10 14:12:31.817184,1547
2021-12-10 14:12:31.817192,1790
2021-12-10 14:12:31.817200,2174
2021-12-10 14:12:31.817209,2775
2021-12-10 14:12:31.817217,3394
2021-12-10 14:12:31.817226,3418
2021-12-10 14:12:31.817234,3073
2021-12-10 14:12:31.817242,3467
2021-12-10 14:12:32.042088,4646
2021-12-10 14:12:32.267158,4247
2021-12-10 14:12:32.267173,2535
2021-12-10 14:12:32.267182,1190
2021-12-10 14:12:32.267191,34
2021-12-10 14:12:32.267199,-1345
2021-12-10 14:12:32.267208,-2562
2021-12-10 14:12:32.267216,-3492
2021-12-10 14:12:32.267225,-4304
2021-12-10 14:12:32.267233,-5081
2021-12-10 14:12:32.267242,-6032
2021-12-10 14:12:32.267250,-7370
2021-12-10 14:12:32.267259,-8896
2021-12-10 14:12:32.267267,-10075
2021-12-10 14:12:32.267275,-10789
2021-12-10 14:12:32.267284,-11439
2021-12-10 14:12:32.267292,-11936
2021-12-10 14:12:32.267300,-11958
2021-12-10 14:12:32.267309,-11902
2021-12-10 14:12:32.267317,-12051
2021-12-10 14:12:32.267326,-11973
2021-12-10 14:12:32.267334,-11672
2021-12-10 14:12:32.492019,-11603
2021-12-10 14:12:32.492037,-11532
2021-12-10 14:12:32.492047,-11166
2021-12-10 14:12:32.492056,-10877
2021-12-10 14:12:32.492064,-10730
2021-12-10 14:12:32.492072,-10449
2021-12-10 14:12:32.492084,-10165
2021-12-10 14:12:32.492092,-9935
2021-12-10 14:12:32.492101,-9666
2021-12-10 14:12:32.492109,-9542
2021-12-10 14:12:32.492118,-9429
2021-12-10 14:12:32.492126,-9082
2021-12-10 14:12:32.492135,-8784
2021-12-10 14:12:32.492143,-8710
2021-12-10 14:12:32.492151,-8603
2021-12-10 14:12:32.492160,-8329
2021-12-10 14:12:32.492168,-8172
2021-12-10 14:12:32.492177,-8121
2021-12-10 14:12:32.492185,-7896
2021-12-10 14:12:32.492193,-7681
2021-12-10 14:12:32.492202,-7395
2021-12-10 14:12:32.492210,-7121
2021-12-10 14:12:32.492218,-7490
2021-12-10 14:12:32.492226,-8123
2021-12-10 14:12:32.492235,-8182
2021-12-10 14:12:32.492243,-7766
2021-12-10 14:12:32.492251,-7343
2021-12-10 14:12:32.492260,-7069
2021-12-10 14:12:32.492268,-6886
2021-12-10 14:12:32.492277,-6700
2021-12-10 14:12:32.761246,-6416
2021-12-10 14:12:32.761263,-6187
2021-12-10 14:12:32.761272,-6150
2021-12-10 14:12:32.761281,-6013
2021-12-10 14:12:32.761289,-5734
2021-12-10 14:12:32.761298,-5585
2021-12-10 14:12:32.761306,-5402
2021-12-10 14:12:32.761314,-5115
2021-12-10 14:12:32.761322,-4978
2021-12-10 14:12:32.761331,-4815
2021-12-10 14:12:32.761339,-4548
2021-12-10 14:12:32.761347,-4480
2021-12-10 14:12:32.761356,-4401
2021-12-10 14:12:32.761364,-4059
2021-12-10 14:12:32.761372,-3829
2021-12-10 14:12:32.761381,-3748
2021-12-10 14:12:32.761389,-3521
2021-12-10 14:12:32.761397,-3279
2021-12-10 14:12:32.761406,-3135
2021-12-10 14:12:32.761414,-2973
2021-12-10 14:12:32.761422,-2844
2021-12-10 14:12:32.761430,-2790
2021-12-10 14:12:32.761439,-2773
2021-12-10 14:12:32.761447,-2782
2021-12-10 14:12:32.761455,-2699
2021-12-10 14:12:32.761463,-2535
2021-12-10 14:12:32.761471,-2452
2021-12-10 14:12:32.761479,-2389
2021-12-10 14:12:32.761488,-2310
2021-12-10 14:12:32.761496,-2284
2021-12-10 14:12:32.986976,-2181
2021-12-10 14:12:32.986994,-2061
2021-12-10 14:12:32.987004,-2088
2021-12-10 14:12:32.987013,-2029
2021-12-10 14:12:32.987021,-1838
2021-12-10 14:12:32.987029,-1755
2021-12-10 14:12:32.987038,-1750
2021-12-10 14:12:32.987046,-1687
2021-12-10 14:12:32.987054,-1594
2021-12-10 14:12:32.987063,-1472
2021-12-10 14:12:32.987071,-1376
2021-12-10 14:12:32.987080,-1393
2021-12-10 14:12:32.987088,-1298
2021-12-10 14:12:32.987096,-1168
2021-12-10 14:12:32.987105,-1186
2021-12-10 14:12:32.987113,-1102
2021-12-10 14:12:32.987122,-1000
2021-12-10 14:12:32.987130,-1027
2021-12-10 14:12:32.987138,-978
2021-12-10 14:12:32.987146,-858
2021-12-10 14:12:32.987155,-777
2021-12-10 14:12:32.987163,-748
2021-12-10 14:12:32.987171,-726
2021-12-10 14:12:32.987179,-618
2021-12-10 14:12:32.987188,-557
2021-12-10 14:12:32.987196,-665
2021-12-10 14:12:32.987204,-660
2021-12-10 14:12:32.987213,-496
2021-12-10 14:12:32.987221,-486
2021-12-10 14:12:32.987229,-493
2021-12-10 14:12:33.167083,-337
2021-12-10 14:12:33.167105,-293
2021-12-10 14:12:33.167115,-342
2021-12-10 14:12:33.167124,-295
2021-12-10 14:12:33.167132,-291
2021-12-10 14:12:33.167141,-361
2021-12-10 14:12:33.167149,-361
2021-12-10 14:12:33.167158,-308
2021-12-10 14:12:33.167166,-300
2021-12-10 14:12:33.167175,-303
2021-12-10 14:12:33.167183,-256
2021-12-10 14:12:33.167192,-244
2021-12-10 14:12:33.167200,-237
2021-12-10 14:12:33.167209,-149
2021-12-10 14:12:33.167217,9
2021-12-10 14:12:33.167226,335
2021-12-10 14:12:33.167234,430
2021-12-10 14:12:33.167243,-278
2021-12-10 14:12:33.167251,-1066
2021-12-10 14:12:33.167260,-941
2021-12-10 14:12:33.167268,-462
2021-12-10 14:12:33.167277,-352
2021-12-10 14:12:33.167285,-276
2021-12-10 14:12:33.167294,-97
2021-12-10 14:12:33.167302,-68
2021-12-10 14:12:33.167310,-58
2021-12-10 14:12:33.167318,34
2021-12-10 14:12:33.167327,61
2021-12-10 14:12:33.167335,17
2021-12-10 14:12:33.167343,-12
2021-12-10 14:12:33.436921,22
2021-12-10 14:12:33.436937,92
2021-12-10 14:12:33.436947,114
2021-12-10 14:12:33.436956,100
2021-12-10 14:12:33.436964,83
2021-12-10 14:12:33.436973,105
2021-12-10 14:12:33.436981,163
2021-12-10 14:12:33.436989,188
2021-12-10 14:12:33.436998,254
2021-12-10 14:12:33.437006,381
2021-12-10 14:12:33.437015,391
2021-12-10 14:12:33.437023,371
2021-12-10 14:12:33.437032,408
2021-12-10 14:12:33.437040,320
2021-12-10 14:12:33.437048,227
2021-12-10 14:12:33.437057,264
2021-12-10 14:12:33.437065,171
2021-12-10 14:12:33.437074,-22
2021-12-10 14:12:33.437082,-58
2021-12-10 14:12:33.437090,-92
2021-12-10 14:12:33.437099,-210
2021-12-10 14:12:33.437107,-266
2021-12-10 14:12:33.437115,-295
2021-12-10 14:12:33.437124,-325
2021-12-10 14:12:33.437132,-308
2021-12-10 14:12:33.437140,-305
2021-12-10 14:12:33.437149,-273
2021-12-10 14:12:33.437157,-254
2021-12-10 14:12:33.437165,-325
2021-12-10 14:12:33.437174,-303
2021-12-10 14:12:33.796401,-237
2021-12-10 14:12:33.796420,-251
2021-12-10 14:12:33.796430,-205
2021-12-10 14:12:33.796438,-161
2021-12-10 14:12:33.796447,-158
2021-12-10 14:12:33.796456,-129
2021-12-10 14:12:33.796464,-180
2021-12-10 14:12:33.796473,-200
2021-12-10 14:12:33.796481,-112
2021-12-10 14:12:33.796490,-127
2021-12-10 14:12:33.796499,-198
2021-12-10 14:12:33.796507,-163
2021-12-10 14:12:33.796515,-112
2021-12-10 14:12:33.796524,-90
2021-12-10 14:12:33.796532,-100
2021-12-10 14:12:33.796540,-146
2021-12-10 14:12:33.796549,-92
2021-12-10 14:12:33.796557,0
2021-12-10 14:12:33.796566,-97
2021-12-10 14:12:33.796574,-190
2021-12-10 14:12:33.796582,-58
2021-12-10 14:12:33.796590,-12
2021-12-10 14:12:33.796599,-58
2021-12-10 14:12:33.796607,78
2021-12-10 14:12:33.796615,114
2021-12-10 14:12:33.796624,12
2021-12-10 14:12:33.796632,44
2021-12-10 14:12:33.796641,110
2021-12-10 14:12:33.796649,100
2021-12-10 14:12:33.796657,83
2021-12-10 14:12:33.931894,63
2021-12-10 14:12:33.931910,24
2021-12-10 14:12:33.931919,12
2021-12-10 14:12:33.931928,19
2021-12-10 14:12:33.931937,-29
2021-12-10 14:12:33.931946,-70
2021-12-10 14:12:33.931954,-70
2021-12-10 14:12:33.931963,-141
2021-12-10 14:12:33.931971,-237
2021-12-10 14:12:33.931980,-198
2021-12-10 14:12:33.931988,-144
2021-12-10 14:12:33.931997,-190
2021-12-10 14:12:33.932005,46
2021-12-10 14:12:33.932014,427
2021-12-10 14:12:33.932022,29
2021-12-10 14:12:33.932031,-973
2021-12-10 14:12:33.932039,-1357
2021-12-10 14:12:33.932048,-992
2021-12-10 14:12:33.932056,-682
2021-12-10 14:12:33.932064,-626
2021-12-10 14:12:33.932073,-523
2021-12-10 14:12:33.932081,-442
2021-12-10 14:12:33.932089,-530
2021-12-10 14:12:33.932098,-562
2021-12-10 14:12:33.932106,-467
2021-12-10 14:12:33.932114,-442
2021-12-10 14:12:33.932123,-471
2021-12-10 14:12:33.932131,-430
2021-12-10 14:12:33.932139,-371
2021-12-10 14:12:33.932148,-327
2021-12-10 14:12:34.112059,-310
2021-12-10 14:12:34.112079,-339
2021-12-10 14:12:34.112089,-320
2021-12-10 14:12:34.112098,-229
2021-12-10 14:12:34.112107,-166
2021-12-10 14:12:34.112115,-136
2021-12-10 14:12:34.112124,-48
2021-12-10 14:12:34.112132,63
2021-12-10 14:12:34.112141,22
2021-12-10 14:12:34.112149,-51
2021-12-10 14:12:34.112158,41
2021-12-10 14:12:34.112166,119
2021-12-10 14:12:34.112175,22
2021-12-10 14:12:34.112183,-97
2021-12-10 14:12:34.112192,-144
2021-12-10 14:12:34.112200,-212
2021-12-10 14:12:34.112208,-337
2021-12-10 14:12:34.112217,-452
2021-12-10 14:12:34.112225,-513
2021-12-10 14:12:34.112234,-547
2021-12-10 14:12:34.112242,-567
2021-12-10 14:12:34.112251,-520
2021-12-10 14:12:34.112259,-484
2021-12-10 14:12:34.112268,-518
2021-12-10 14:12:34.112276,-486
2021-12-10 14:12:34.112284,-435
2021-12-10 14:12:34.112293,-489
2021-12-10 14:12:34.112301,-506
2021-12-10 14:12:34.112310,-445
2021-12-10 14:12:34.112318,-425
2021-12-10 14:12:34.426350,-435
2021-12-10 14:12:34.426373,-410
2021-12-10 14:12:34.426383,-327
2021-12-10 14:12:34.426392,-295
2021-12-10 14:12:34.426401,-379
2021-12-10 14:12:34.426409,-388
2021-12-10 14:12:34.426418,-291
2021-12-10 14:12:34.426426,-266
2021-12-10 14:12:34.426435,-315
2021-12-10 14:12:34.426443,-325
2021-12-10 14:12:34.426451,-293
2021-12-10 14:12:34.426460,-283
2021-12-10 14:12:34.426468,-305
2021-12-10 14:12:34.426477,-276
2021-12-10 14:12:34.426485,-210
2021-12-10 14:12:34.426494,-251
2021-12-10 14:12:34.426502,-308
2021-12-10 14:12:34.426510,-264
2021-12-10 14:12:34.426519,-256
2021-12-10 14:12:34.426527,-300
2021-12-10 14:12:34.426536,-276
2021-12-10 14:12:34.426544,-193
2021-12-10 14:12:34.426553,-185
2021-12-10 14:12:34.426561,-232
2021-12-10 14:12:34.426569,-200
2021-12-10 14:12:34.426577,-146
2021-12-10 14:12:34.426586,-158
2021-12-10 14:12:34.426594,-168
2021-12-10 14:12:34.426602,-161
2021-12-10 14:12:34.426611,-132
2021-12-10 14:12:34.606303,-68
2021-12-10 14:12:34.606319,-80
2021-12-10 14:12:34.606329,-154
2021-12-10 14:12:34.606338,-163
2021-12-10 14:12:34.606346,-119
2021-12-10 14:12:34.606355,-66
2021-12-10 14:12:34.606363,-75
2021-12-10 14:12:34.606372,-141
2021-12-10 14:12:34.606380,-110
2021-12-10 14:12:34.606389,-46
2021-12-10 14:12:34.606397,-73
2021-12-10 14:12:34.606406,-75
2021-12-10 14:12:34.606414,44
2021-12-10 14:12:34.606423,224
2021-12-10 14:12:34.606431,608
2021-12-10 14:12:34.606440,929
2021-12-10 14:12:34.606448,474
2021-12-10 14:12:34.606456,-445
2021-12-10 14:12:34.606465,-750
2021-12-10 14:12:34.606473,-308
2021-12-10 14:12:34.606482,46
2021-12-10 14:12:34.606490,95
2021-12-10 14:12:34.606499,141
2021-12-10 14:12:34.606507,176
2021-12-10 14:12:34.606516,234
2021-12-10 14:12:34.606524,332
2021-12-10 14:12:34.606533,342
2021-12-10 14:12:34.606541,361
2021-12-10 14:12:34.606550,484
2021-12-10 14:12:34.606558,508
2021-12-10 14:12:34.875597,427
2021-12-10 14:12:34.875614,442
2021-12-10 14:12:34.875624,493
2021-12-10 14:12:34.875633,523
2021-12-10 14:12:34.875641,589
2021-12-10 14:12:34.875650,662
2021-12-10 14:12:34.875658,714
2021-12-10 14:12:34.875667,750
2021-12-10 14:12:34.875675,794
2021-12-10 14:12:34.875684,880
2021-12-10 14:12:34.875692,963
2021-12-10 14:12:34.875700,992
2021-12-10 14:12:34.875709,997
2021-12-10 14:12:34.875717,992
2021-12-10 14:12:34.875725,921
2021-12-10 14:12:34.875734,824
2021-12-10 14:12:34.875742,740
2021-12-10 14:12:34.875750,601
2021-12-10 14:12:34.875759,486
2021-12-10 14:12:34.875767,440
2021-12-10 14:12:34.875775,330
2021-12-10 14:12:34.875784,278
2021-12-10 14:12:34.875792,344
2021-12-10 14:12:34.875801,305
2021-12-10 14:12:34.875809,190
2021-12-10 14:12:34.875817,212
2021-12-10 14:12:34.875826,276
2021-12-10 14:12:34.875834,217
2021-12-10 14:12:34.875842,171
2021-12-10 14:12:34.875851,207
2021-12-10 14:12:35.012013,205
2021-12-10 14:12:35.012031,195
2021-12-10 14:12:35.012041,256
2021-12-10 14:12:35.012050,281
2021-12-10 14:12:35.012059,254
2021-12-10 14:12:35.012068,239
2021-12-10 14:12:35.012076,202
2021-12-10 14:12:35.012085,207
2021-12-10 14:12:35.012093,244
2021-12-10 14:12:35.012102,220
2021-12-10 14:12:35.012110,212
2021-12-10 14:12:35.012119,244
2021-12-10 14:12:35.012127,217
2021-12-10 14:12:35.012136,161
2021-12-10 14:12:35.012144,166
2021-12-10 14:12:35.012153,151
2021-12-10 14:12:35.012161,141
2021-12-10 14:12:35.012170,217
2021-12-10 14:12:35.012178,171
2021-12-10 14:12:35.012187,14
2021-12-10 14:12:35.012196,26
2021-12-10 14:12:35.012204,105
2021-12-10 14:12:35.012213,97
2021-12-10 14:12:35.012221,100
2021-12-10 14:12:35.012230,80
2021-12-10 14:12:35.012238,46
2021-12-10 14:12:35.012247,58
2021-12-10 14:12:35.012255,17
2021-12-10 14:12:35.012264,-34
2021-12-10 14:12:35.012273,2
2021-12-10 14:12:35.237151,29
2021-12-10 14:12:35.237171,31
2021-12-10 14:12:35.237181,48
2021-12-10 14:12:35.237190,51
2021-12-10 14:12:35.237199,7
2021-12-10 14:12:35.237207,-122
2021-12-10 14:12:35.237216,-134
2021-12-10 14:12:35.237224,-7
2021-12-10 14:12:35.237232,-19
2021-12-10 14:12:35.237241,-107
2021-12-10 14:12:35.237249,-85
2021-12-10 14:12:35.237257,-53
2021-12-10 14:12:35.237266,-31
2021-12-10 14:12:35.237274,19
2021-12-10 14:12:35.237282,80
2021-12-10 14:12:35.237291,383
2021-12-10 14:12:35.237299,868
2021-12-10 14:12:35.237307,789
2021-12-10 14:12:35.237316,-190
2021-12-10 14:12:35.237324,-1083
2021-12-10 14:12:35.237332,-890
2021-12-10 14:12:35.237340,-320
2021-12-10 14:12:35.237349,-217
2021-12-10 14:12:35.237357,-154
2021-12-10 14:12:35.237365,-9
2021-12-10 14:12:35.237373,-85
2021-12-10 14:12:35.237382,-139
2021-12-10 14:12:35.237390,-41
2021-12-10 14:12:35.237398,14
2021-12-10 14:12:35.237406,2
2021-12-10 14:12:35.551350,-9
2021-12-10 14:12:35.551367,39
2021-12-10 14:12:35.551377,68
2021-12-10 14:12:35.551386,19
2021-12-10 14:12:35.551395,56
2021-12-10 14:12:35.551403,154
2021-12-10 14:12:35.551412,212
2021-12-10 14:12:35.551420,278
2021-12-10 14:12:35.551429,278
2021-12-10 14:12:35.551437,256
2021-12-10 14:12:35.551446,364
2021-12-10 14:12:35.551455,437
2021-12-10 14:12:35.551463,447
2021-12-10 14:12:35.551472,513
2021-12-10 14:12:35.551480,437
2021-12-10 14:12:35.551489,273
2021-12-10 14:12:35.551497,266
2021-12-10 14:12:35.551506,220
2021-12-10 14:12:35.551514,31
2021-12-10 14:12:35.551523,-90
2021-12-10 14:12:35.551532,-149
2021-12-10 14:12:35.551540,-291
2021-12-10 14:12:35.551549,-401
2021-12-10 14:12:35.551557,-371
2021-12-10 14:12:35.551566,-364
2021-12-10 14:12:35.551574,-405
2021-12-10 14:12:35.551583,-396
2021-12-10 14:12:35.551592,-396
2021-12-10 14:12:35.551600,-408
2021-12-10 14:12:35.551609,-347
2021-12-10 14:12:35.776487,-330
2021-12-10 14:12:35.776507,-425
2021-12-10 14:12:35.776517,-408
2021-12-10 14:12:35.776526,-305
2021-12-10 14:12:35.776534,-330
2021-12-10 14:12:35.776543,-371
2021-12-10 14:12:35.776552,-276
2021-12-10 14:12:35.776560,-200
2021-12-10 14:12:35.776568,-276
2021-12-10 14:12:35.776577,-364
2021-12-10 14:12:35.776585,-330
2021-12-10 14:12:35.776594,-271
2021-12-10 14:12:35.776602,-288
2021-12-10 14:12:35.776610,-298
2021-12-10 14:12:35.776619,-269
2021-12-10 14:12:35.776627,-276
2021-12-10 14:12:35.776636,-271
2021-12-10 14:12:35.776644,-239
2021-12-10 14:12:35.776653,-313
2021-12-10 14:12:35.776661,-396
2021-12-10 14:12:35.776669,-317
2021-12-10 14:12:35.776678,-259
2021-12-10 14:12:35.776686,-337
2021-12-10 14:12:35.776695,-357
2021-12-10 14:12:35.776703,-273
2021-12-10 14:12:35.776712,-264
2021-12-10 14:12:35.776720,-303
2021-12-10 14:12:35.776728,-269
2021-12-10 14:12:35.776737,-278
2021-12-10 14:12:35.776745,-361
2021-12-10 14:12:35.957022,-337
2021-12-10 14:12:35.957041,-286
2021-12-10 14:12:35.957051,-322
2021-12-10 14:12:35.957059,-344
2021-12-10 14:12:35.957068,-303
2021-12-10 14:12:35.957076,-266
2021-12-10 14:12:35.957085,-281
2021-12-10 14:12:35.957093,-293
2021-12-10 14:12:35.957102,-261
2021-12-10 14:12:35.957110,-229
2021-12-10 14:12:35.957118,-254
2021-12-10 14:12:35.957127,-281
2021-12-10 14:12:35.957135,-276
2021-12-10 14:12:35.957144,-293
2021-12-10 14:12:35.957152,-325
2021-12-10 14:12:35.957160,-295
2021-12-10 14:12:35.957169,-251
2021-12-10 14:12:35.957177,-298
2021-12-10 14:12:35.957186,-337
2021-12-10 14:12:35.957194,-293
2021-12-10 14:12:35.957202,-300
2021-12-10 14:12:35.957211,-298
2021-12-10 14:12:35.957219,-176
2021-12-10 14:12:35.957228,90
2021-12-10 14:12:35.957236,582
2021-12-10 14:12:35.957245,731
2021-12-10 14:12:35.957253,-97
2021-12-10 14:12:35.957262,-1120
2021-12-10 14:12:35.957270,-1144
2021-12-10 14:12:35.957278,-562
2021-12-10 14:12:36.182224,-381
2021-12-10 14:12:36.182244,-405
2021-12-10 14:12:36.182254,-298
2021-12-10 14:12:36.182263,-249
2021-12-10 14:12:36.182271,-256
2021-12-10 14:12:36.182280,-269
2021-12-10 14:12:36.182289,-271
2021-12-10 14:12:36.182297,-229
2021-12-10 14:12:36.182306,-246
2021-12-10 14:12:36.182314,-295
2021-12-10 14:12:36.182323,-273
2021-12-10 14:12:36.182331,-249
2021-12-10 14:12:36.182340,-269
2021-12-10 14:12:36.182348,-266
2021-12-10 14:12:36.182357,-232
2021-12-10 14:12:36.182365,-180
2021-12-10 14:12:36.182374,-144
2021-12-10 14:12:36.182382,-102
2021-12-10 14:12:36.182391,-39
2021-12-10 14:12:36.182399,-7
2021-12-10 14:12:36.182408,0
2021-12-10 14:12:36.182416,14
2021-12-10 14:12:36.182425,-12
2021-12-10 14:12:36.182433,-80
2021-12-10 14:12:36.182442,-146
2021-12-10 14:12:36.182454,-254
2021-12-10 14:12:36.182462,-391
2021-12-10 14:12:36.182471,-496
2021-12-10 14:12:36.182479,-606
2021-12-10 14:12:36.182488,-711
2021-12-10 14:12:36.407061,-772
2021-12-10 14:12:36.407081,-824
2021-12-10 14:12:36.407091,-848
2021-12-10 14:12:36.407099,-858
2021-12-10 14:12:36.407108,-907
2021-12-10 14:12:36.407116,-934
2021-12-10 14:12:36.407125,-912
2021-12-10 14:12:36.407133,-919
2021-12-10 14:12:36.407141,-956
2021-12-10 14:12:36.407150,-958
2021-12-10 14:12:36.407158,-921
2021-12-10 14:12:36.407167,-931
2021-12-10 14:12:36.407175,-990
2021-12-10 14:12:36.407183,-983
2021-12-10 14:12:36.407192,-921
2021-12-10 14:12:36.407200,-914
2021-12-10 14:12:36.407209,-961
2021-12-10 14:12:36.407217,-978
2021-12-10 14:12:36.407226,-965
2021-12-10 14:12:36.407234,-958
2021-12-10 14:12:36.407242,-946
2021-12-10 14:12:36.407250,-931
2021-12-10 14:12:36.407259,-936
2021-12-10 14:12:36.407267,-931
2021-12-10 14:12:36.407275,-907
2021-12-10 14:12:36.407284,-904
2021-12-10 14:12:36.407292,-904
2021-12-10 14:12:36.407301,-890
2021-12-10 14:12:36.407309,-909
2021-12-10 14:12:36.407317,-912
2021-12-10 14:12:36.632098,-851
2021-12-10 14:12:36.632118,-838
2021-12-10 14:12:36.632128,-875
2021-12-10 14:12:36.632137,-863
2021-12-10 14:12:36.632146,-868
2021-12-10 14:12:36.632154,-919
2021-12-10 14:12:36.632163,-941
2021-12-10 14:12:36.632171,-943
2021-12-10 14:12:36.632179,-948
2021-12-10 14:12:36.632188,-968
2021-12-10 14:12:36.632196,-1000
2021-12-10 14:12:36.632205,-1034
2021-12-10 14:12:36.632213,-1073
2021-12-10 14:12:36.632221,-1098
2021-12-10 14:12:36.632230,-1093
2021-12-10 14:12:36.632238,-1093
2021-12-10 14:12:36.632247,-1098
2021-12-10 14:12:36.632255,-1071
2021-12-10 14:12:36.632263,-1036
2021-12-10 14:12:36.632272,-1034
2021-12-10 14:12:36.632280,-1031
2021-12-10 14:12:36.632288,-1046
2021-12-10 14:12:36.632297,-1063
2021-12-10 14:12:36.632305,-1051
2021-12-10 14:12:36.632313,-1044
2021-12-10 14:12:36.632322,-995
2021-12-10 14:12:36.632330,-941
2021-12-10 14:12:36.632339,-980
2021-12-10 14:12:36.632347,-1014
2021-12-10 14:12:36.632355,-961
2021-12-10 14:12:36.900617,-887
2021-12-10 14:12:36.900635,-704
2021-12-10 14:12:36.900644,-227
2021-12-10 14:12:36.900653,114
2021-12-10 14:12:36.900662,-415
2021-12-10 14:12:36.900671,-1442
2021-12-10 14:12:36.900679,-1741
2021-12-10 14:12:36.900688,-1230
2021-12-10 14:12:36.900696,-953
2021-12-10 14:12:36.900705,-987
2021-12-10 14:12:36.900713,-848
2021-12-10 14:12:36.900721,-714
2021-12-10 14:12:36.900730,-721
2021-12-10 14:12:36.900738,-718
2021-12-10 14:12:36.900746,-670
2021-12-10 14:12:36.900754,-635
2021-12-10 14:12:36.900763,-635
2021-12-10 14:12:36.900771,-630
2021-12-10 14:12:36.900780,-582
2021-12-10 14:12:36.900788,-535
2021-12-10 14:12:36.900797,-515
2021-12-10 14:12:36.900805,-462
2021-12-10 14:12:36.900813,-415
2021-12-10 14:12:36.900822,-401
2021-12-10 14:12:36.900830,-344
2021-12-10 14:12:36.900839,-266
2021-12-10 14:12:36.900847,-224
2021-12-10 14:12:36.900855,-188
2021-12-10 14:12:36.900864,-139
2021-12-10 14:12:36.900872,-107
2021-12-10 14:12:37.082070,-100
2021-12-10 14:12:37.082089,-112
2021-12-10 14:12:37.082098,-163
2021-12-10 14:12:37.082107,-271
2021-12-10 14:12:37.082116,-391
2021-12-10 14:12:37.082125,-459
2021-12-10 14:12:37.082133,-538
2021-12-10 14:12:37.082142,-652
2021-12-10 14:12:37.082151,-696
2021-12-10 14:12:37.082160,-696
2021-12-10 14:12:37.082168,-733
2021-12-10 14:12:37.082177,-748
2021-12-10 14:12:37.082186,-736
2021-12-10 14:12:37.082194,-740
2021-12-10 14:12:37.082203,-723
2021-12-10 14:12:37.082211,-689
2021-12-10 14:12:37.082220,-704
2021-12-10 14:12:37.082228,-726
2021-12-10 14:12:37.082237,-652
2021-12-10 14:12:37.082245,-606
2021-12-10 14:12:37.082254,-645
2021-12-10 14:12:37.082263,-635
2021-12-10 14:12:37.082271,-589
2021-12-10 14:12:37.082280,-579
2021-12-10 14:12:37.082288,-572
2021-12-10 14:12:37.082297,-562
2021-12-10 14:12:37.082305,-564
2021-12-10 14:12:37.082314,-538
2021-12-10 14:12:37.082322,-501
2021-12-10 14:12:37.082330,-508
2021-12-10 14:12:37.307197,-503
2021-12-10 14:12:37.307217,-484
2021-12-10 14:12:37.307227,-493
2021-12-10 14:12:37.307236,-496
2021-12-10 14:12:37.307244,-491
2021-12-10 14:12:37.307253,-498
2021-12-10 14:12:37.307261,-508
2021-12-10 14:12:37.307269,-491
2021-12-10 14:12:37.307278,-474
2021-12-10 14:12:37.307286,-496
2021-12-10 14:12:37.307295,-491
2021-12-10 14:12:37.307303,-454
2021-12-10 14:12:37.307312,-435
2021-12-10 14:12:37.307320,-432
2021-12-10 14:12:37.307328,-445
2021-12-10 14:12:37.307337,-445
2021-12-10 14:12:37.307345,-425
2021-12-10 14:12:37.307354,-396
2021-12-10 14:12:37.307362,-366
2021-12-10 14:12:37.307370,-369
2021-12-10 14:12:37.307379,-393
2021-12-10 14:12:37.307387,-413
2021-12-10 14:12:37.307395,-413
2021-12-10 14:12:37.307404,-364
2021-12-10 14:12:37.307412,-337
2021-12-10 14:12:37.307420,-361
2021-12-10 14:12:37.307429,-354
2021-12-10 14:12:37.307437,-359
2021-12-10 14:12:37.307445,-366
2021-12-10 14:12:37.307454,-332
2021-12-10 14:12:37.667034,-310
2021-12-10 14:12:37.667053,-249
2021-12-10 14:12:37.667063,44
2021-12-10 14:12:37.667072,511
2021-12-10 14:12:37.667080,459
2021-12-10 14:12:37.667089,-452
2021-12-10 14:12:37.667097,-1198
2021-12-10 14:12:37.667106,-990
2021-12-10 14:12:37.667114,-520
2021-12-10 14:12:37.667122,-403
2021-12-10 14:12:37.667131,-322
2021-12-10 14:12:37.667139,-173
2021-12-10 14:12:37.667148,-158
2021-12-10 14:12:37.667156,-178
2021-12-10 14:12:37.667165,-139
2021-12-10 14:12:37.667173,-112
2021-12-10 14:12:37.667181,-102
2021-12-10 14:12:37.667190,-68
2021-12-10 14:12:37.667198,-31
2021-12-10 14:12:37.667207,-9
2021-12-10 14:12:37.667215,31
2021-12-10 14:12:37.667223,73
2021-12-10 14:12:37.667232,58
2021-12-10 14:12:37.667240,70
2021-12-10 14:12:37.667249,127
2021-12-10 14:12:37.667257,178
2021-12-10 14:12:37.667266,237
2021-12-10 14:12:37.667274,303
2021-12-10 14:12:37.667282,342
2021-12-10 14:12:37.667291,361
2021-12-10 14:12:37.802092,364
2021-12-10 14:12:37.802112,361
2021-12-10 14:12:37.802122,322
2021-12-10 14:12:37.802130,234
2021-12-10 14:12:37.802139,134
2021-12-10 14:12:37.802148,7
2021-12-10 14:12:37.802156,-134
2021-12-10 14:12:37.802165,-205
2021-12-10 14:12:37.802173,-229
2021-12-10 14:12:37.802182,-281
2021-12-10 14:12:37.802190,-305
2021-12-10 14:12:37.802198,-300
2021-12-10 14:12:37.802207,-344
2021-12-10 14:12:37.802215,-359
2021-12-10 14:12:37.802224,-313
2021-12-10 14:12:37.802232,-293
2021-12-10 14:12:37.802241,-325
2021-12-10 14:12:37.802249,-332
2021-12-10 14:12:37.802258,-288
2021-12-10 14:12:37.802266,-232
2021-12-10 14:12:37.802275,-242
2021-12-10 14:12:37.802283,-269
2021-12-10 14:12:37.802291,-227
2021-12-10 14:12:37.802300,-217
2021-12-10 14:12:37.802308,-234
2021-12-10 14:12:37.802316,-173
2021-12-10 14:12:37.802325,-141
2021-12-10 14:12:37.802333,-183
2021-12-10 14:12:37.802341,-185
2021-12-10 14:12:37.802350,-149
2021-12-10 14:12:38.072072,-132
2021-12-10 14:12:38.072092,-141
2021-12-10 14:12:38.072102,-139
2021-12-10 14:12:38.072110,-141
2021-12-10 14:12:38.072119,-168
2021-12-10 14:12:38.072127,-166
2021-12-10 14:12:38.072136,-146
2021-12-10 14:12:38.072144,-139
2021-12-10 14:12:38.072153,-122
2021-12-10 14:12:38.072161,-119
2021-12-10 14:12:38.072170,-146
2021-12-10 14:12:38.072178,-144
2021-12-10 14:12:38.072186,-112
2021-12-10 14:12:38.072195,-112
2021-12-10 14:12:38.072203,-146
2021-12-10 14:12:38.072212,-156
2021-12-10 14:12:38.072220,-112
2021-12-10 14:12:38.072229,-85
2021-12-10 14:12:38.072237,-107
2021-12-10 14:12:38.072250,-100
2021-12-10 14:12:38.072259,-80
2021-12-10 14:12:38.072267,-88
2021-12-10 14:12:38.072276,-100
2021-12-10 14:12:38.072284,-134
2021-12-10 14:12:38.072292,-129
2021-12-10 14:12:38.072301,-75
2021-12-10 14:12:38.072309,-75
2021-12-10 14:12:38.072318,-129
2021-12-10 14:12:38.072326,-134
2021-12-10 14:12:38.072335,-105
2021-12-10 14:12:38.342263,-95
2021-12-10 14:12:38.342283,-83
2021-12-10 14:12:38.342293,-51
2021-12-10 14:12:38.342302,173
2021-12-10 14:12:38.342310,728
2021-12-10 14:12:38.342352,860
2021-12-10 14:12:38.342373,-14
2021-12-10 14:12:38.342390,-902
2021-12-10 14:12:38.342399,-848
2021-12-10 14:12:38.342407,-379
2021-12-10 14:12:38.342416,-242
2021-12-10 14:12:38.342424,-220
2021-12-10 14:12:38.342433,-90
2021-12-10 14:12:38.342441,-51
2021-12-10 14:12:38.342450,-73
2021-12-10 14:12:38.342459,-46
2021-12-10 14:12:38.342467,-4
2021-12-10 14:12:38.342476,19
2021-12-10 14:12:38.342484,-2
2021-12-10 14:12:38.342493,-4
2021-12-10 14:12:38.342501,41
2021-12-10 14:12:38.342510,51
2021-12-10 14:12:38.342518,51
2021-12-10 14:12:38.342527,83
2021-12-10 14:12:38.342535,117
2021-12-10 14:12:38.342544,168
2021-12-10 14:12:38.342552,200
2021-12-10 14:12:38.342561,224
2021-12-10 14:12:38.342569,305
2021-12-10 14:12:38.342578,364
2021-12-10 14:12:38.477047,352
2021-12-10 14:12:38.477065,357
2021-12-10 14:12:38.477075,398
2021-12-10 14:12:38.477084,374
2021-12-10 14:12:38.477092,256
2021-12-10 14:12:38.477101,136
2021-12-10 14:12:38.477109,31
2021-12-10 14:12:38.477117,-85
2021-12-10 14:12:38.477126,-185
2021-12-10 14:12:38.477134,-259
2021-12-10 14:12:38.477143,-298
2021-12-10 14:12:38.477151,-322
2021-12-10 14:12:38.477160,-371
2021-12-10 14:12:38.477168,-386
2021-12-10 14:12:38.477176,-364
2021-12-10 14:12:38.477185,-393
2021-12-10 14:12:38.477193,-415
2021-12-10 14:12:38.477202,-383
2021-12-10 14:12:38.477210,-366
2021-12-10 14:12:38.477219,-379
2021-12-10 14:12:38.477227,-369
2021-12-10 14:12:38.477235,-310
2021-12-10 14:12:38.477247,-288
2021-12-10 14:12:38.477256,-330
2021-12-10 14:12:38.477264,-322
2021-12-10 14:12:38.477272,-288
2021-12-10 14:12:38.477281,-315
2021-12-10 14:12:38.477289,-339
2021-12-10 14:12:38.477298,-278
2021-12-10 14:12:38.477307,-207
2021-12-10 14:12:38.747308,-242
2021-12-10 14:12:38.747360,-261
2021-12-10 14:12:38.747371,-202
2021-12-10 14:12:38.747380,-210
2021-12-10 14:12:38.747389,-273
2021-12-10 14:12:38.747429,-261
2021-12-10 14:12:38.747438,-232
2021-12-10 14:12:38.747446,-259
2021-12-10 14:12:38.747487,-227
2021-12-10 14:12:38.747495,-173
2021-12-10 14:12:38.747503,-222
2021-12-10 14:12:38.747512,-246
2021-12-10 14:12:38.747556,-195
2021-12-10 14:12:38.747564,-168
2021-12-10 14:12:38.747573,-180
2021-12-10 14:12:38.747616,-193
2021-12-10 14:12:38.747624,-188
2021-12-10 14:12:38.747633,-178
2021-12-10 14:12:38.747641,-178
2021-12-10 14:12:38.747684,-166
2021-12-10 14:12:38.747692,-146
2021-12-10 14:12:38.747701,-136
2021-12-10 14:12:38.747742,-119
2021-12-10 14:12:38.747750,-66
2021-12-10 14:12:38.747758,-19
2021-12-10 14:12:38.747766,-68
2021-12-10 14:12:38.747807,-124
2021-12-10 14:12:38.747815,-85
2021-12-10 14:12:38.747823,-51
2021-12-10 14:12:38.747832,-85
2021-12-10 14:12:38.971242,-95
2021-12-10 14:12:38.971258,-44
2021-12-10 14:12:38.971267,-83
2021-12-10 14:12:38.971276,-134
2021-12-10 14:12:38.971284,-4
2021-12-10 14:12:38.971293,75
2021-12-10 14:12:38.971301,90
2021-12-10 14:12:38.971310,471
2021-12-10 14:12:38.971318,961
2021-12-10 14:12:38.971326,616
2021-12-10 14:12:38.971335,-420
2021-12-10 14:12:38.971343,-892
2021-12-10 14:12:38.971352,-513
2021-12-10 14:12:38.971360,-178
2021-12-10 14:12:38.971369,-117
2021-12-10 14:12:38.971377,17
2021-12-10 14:12:38.971385,95
2021-12-10 14:12:38.971394,48
2021-12-10 14:12:38.971402,75
2021-12-10 14:12:38.971410,136
2021-12-10 14:12:38.971419,129
2021-12-10 14:12:38.971427,141
2021-12-10 14:12:38.971436,185
2021-12-10 14:12:38.971444,188
2021-12-10 14:12:38.971452,183
2021-12-10 14:12:38.971461,202
2021-12-10 14:12:38.971469,234
2021-12-10 14:12:38.971477,269
2021-12-10 14:12:38.971486,303
2021-12-10 14:12:38.971494,354
2021-12-10 14:12:39.197139,401
2021-12-10 14:12:39.197159,445
2021-12-10 14:12:39.197168,508
2021-12-10 14:12:39.197177,533
2021-12-10 14:12:39.197186,520
2021-12-10 14:12:39.197195,552
2021-12-10 14:12:39.197203,545
2021-12-10 14:12:39.197212,459
2021-12-10 14:12:39.197220,391
2021-12-10 14:12:39.197229,320
2021-12-10 14:12:39.197238,166
2021-12-10 14:12:39.197246,39
2021-12-10 14:12:39.197255,22
2021-12-10 14:12:39.197263,-48
2021-12-10 14:12:39.197272,-168
2021-12-10 14:12:39.197280,-168
2021-12-10 14:12:39.197289,-132
2021-12-10 14:12:39.197298,-166
2021-12-10 14:12:39.197306,-180
2021-12-10 14:12:39.197315,-154
2021-12-10 14:12:39.197323,-132
2021-12-10 14:12:39.197332,-139
2021-12-10 14:12:39.197340,-168
2021-12-10 14:12:39.197348,-198
2021-12-10 14:12:39.197357,-156
2021-12-10 14:12:39.197365,-68
2021-12-10 14:12:39.197374,-70
2021-12-10 14:12:39.197382,-124
2021-12-10 14:12:39.197391,-102
2021-12-10 14:12:39.197399,-75
2021-12-10 14:12:39.377076,-83
2021-12-10 14:12:39.377095,-80
2021-12-10 14:12:39.377104,-100
2021-12-10 14:12:39.377113,-112
2021-12-10 14:12:39.377121,-97
2021-12-10 14:12:39.377130,-112
2021-12-10 14:12:39.377138,-102
2021-12-10 14:12:39.377146,-63
2021-12-10 14:12:39.377155,-83
2021-12-10 14:12:39.377163,-124
2021-12-10 14:12:39.377171,-134
2021-12-10 14:12:39.377180,-134
2021-12-10 14:12:39.377188,-119
2021-12-10 14:12:39.377196,-114
2021-12-10 14:12:39.377204,-134
2021-12-10 14:12:39.377213,-144
2021-12-10 14:12:39.377221,-149
2021-12-10 14:12:39.377230,-171
2021-12-10 14:12:39.377238,-144
2021-12-10 14:12:39.377246,-95
2021-12-10 14:12:39.377254,-95
2021-12-10 14:12:39.377263,-114
2021-12-10 14:12:39.377271,-117
2021-12-10 14:12:39.377279,-114
2021-12-10 14:12:39.377288,-127
2021-12-10 14:12:39.377296,-173
2021-12-10 14:12:39.377304,-193
2021-12-10 14:12:39.377313,-161
2021-12-10 14:12:39.377321,-139
2021-12-10 14:12:39.377330,-161
2021-12-10 14:12:39.602090,-163
2021-12-10 14:12:39.602109,-134
2021-12-10 14:12:39.602118,-161
2021-12-10 14:12:39.602127,-144
2021-12-10 14:12:39.602136,0
2021-12-10 14:12:39.602145,315
2021-12-10 14:12:39.602153,718
2021-12-10 14:12:39.602162,484
2021-12-10 14:12:39.602170,-560
2021-12-10 14:12:39.602179,-1154
2021-12-10 14:12:39.602187,-748
2021-12-10 14:12:39.602196,-317
2021-12-10 14:12:39.602204,-305
2021-12-10 14:12:39.602213,-242
2021-12-10 14:12:39.602221,-129
2021-12-10 14:12:39.602230,-151
2021-12-10 14:12:39.602238,-134
2021-12-10 14:12:39.602247,-85
2021-12-10 14:12:39.602255,-100
2021-12-10 14:12:39.602264,-80
2021-12-10 14:12:39.602272,-26
2021-12-10 14:12:39.602281,-24
2021-12-10 14:12:39.602289,-29
2021-12-10 14:12:39.602297,0
2021-12-10 14:12:39.602306,26
2021-12-10 14:12:39.602314,41
2021-12-10 14:12:39.602323,78
2021-12-10 14:12:39.602331,114
2021-12-10 14:12:39.602340,117
2021-12-10 14:12:39.602348,168
2021-12-10 14:12:39.917061,293
2021-12-10 14:12:39.917080,332
2021-12-10 14:12:39.917090,286
2021-12-10 14:12:39.917099,291
2021-12-10 14:12:39.917107,288
2021-12-10 14:12:39.917116,195
2021-12-10 14:12:39.917124,92
2021-12-10 14:12:39.917133,-9
2021-12-10 14:12:39.917141,-166
2021-12-10 14:12:39.917150,-276
2021-12-10 14:12:39.917159,-310
2021-12-10 14:12:39.917167,-371
2021-12-10 14:12:39.917176,-452
2021-12-10 14:12:39.917184,-501
2021-12-10 14:12:39.917193,-513
2021-12-10 14:12:39.917201,-513
2021-12-10 14:12:39.917209,-518
2021-12-10 14:12:39.917218,-518
2021-12-10 14:12:39.917226,-508
2021-12-10 14:12:39.917235,-484
2021-12-10 14:12:39.917243,-471
2021-12-10 14:12:39.917251,-476
2021-12-10 14:12:39.917260,-462
2021-12-10 14:12:39.917268,-442
2021-12-10 14:12:39.917277,-415
2021-12-10 14:12:39.917285,-364
2021-12-10 14:12:39.917293,-352
2021-12-10 14:12:39.917302,-383
2021-12-10 14:12:39.917310,-374
2021-12-10 14:12:39.917318,-361
2021-12-10 14:12:40.097090,-359
2021-12-10 14:12:40.097110,-332
2021-12-10 14:12:40.097119,-330
2021-12-10 14:12:40.097128,-352
2021-12-10 14:12:40.097137,-347
2021-12-10 14:12:40.097145,-313
2021-12-10 14:12:40.097154,-295
2021-12-10 14:12:40.097162,-300
2021-12-10 14:12:40.097171,-286
2021-12-10 14:12:40.097180,-295
2021-12-10 14:12:40.097188,-332
2021-12-10 14:12:40.097197,-308
2021-12-10 14:12:40.097205,-264
2021-12-10 14:12:40.097214,-273
2021-12-10 14:12:40.097222,-278
2021-12-10 14:12:40.097231,-244
2021-12-10 14:12:40.097239,-234
2021-12-10 14:12:40.097248,-261
2021-12-10 14:12:40.097256,-276
2021-12-10 14:12:40.097265,-278
2021-12-10 14:12:40.097273,-273
2021-12-10 14:12:40.097282,-261
2021-12-10 14:12:40.097290,-278
2021-12-10 14:12:40.097299,-313
2021-12-10 14:12:40.097307,-308
2021-12-10 14:12:40.097316,-271
2021-12-10 14:12:40.097324,-207
2021-12-10 14:12:40.097332,-110
2021-12-10 14:12:40.097341,129
2021-12-10 14:12:40.097349,538
2021-12-10 14:12:40.501107,413
2021-12-10 14:12:40.501125,-589
2021-12-10 14:12:40.501134,-1274
2021-12-10 14:12:40.501143,-899
2021-12-10 14:12:40.501152,-432
2021-12-10 14:12:40.501161,-427
2021-12-10 14:12:40.501169,-354
2021-12-10 14:12:40.501178,-144
2021-12-10 14:12:40.501186,-112
2021-12-10 14:12:40.501195,-136
2021-12-10 14:12:40.501203,-83
2021-12-10 14:12:40.501211,-95
2021-12-10 14:12:40.501220,-139
2021-12-10 14:12:40.501228,-88
2021-12-10 14:12:40.501236,-51
2021-12-10 14:12:40.501245,-85
2021-12-10 14:12:40.501253,-105
2021-12-10 14:12:40.501262,-56
2021-12-10 14:12:40.501270,22
2021-12-10 14:12:40.501279,22
2021-12-10 14:12:40.501290,2
2021-12-10 14:12:40.501299,70
2021-12-10 14:12:40.501307,161
2021-12-10 14:12:40.501316,205
2021-12-10 14:12:40.501324,224
2021-12-10 14:12:40.501333,229
2021-12-10 14:12:40.501341,246
2021-12-10 14:12:40.501350,232
2021-12-10 14:12:40.501358,146
2021-12-10 14:12:40.501367,70
2021-12-10 14:12:40.725846,-19
2021-12-10 14:12:40.725865,-166
2021-12-10 14:12:40.725874,-273
2021-12-10 14:12:40.725883,-327
2021-12-10 14:12:40.725892,-379
2021-12-10 14:12:40.725900,-418
2021-12-10 14:12:40.725909,-420
2021-12-10 14:12:40.725918,-471
2021-12-10 14:12:40.725926,-525
2021-12-10 14:12:40.725935,-471
2021-12-10 14:12:40.725943,-427
2021-12-10 14:12:40.725952,-454
2021-12-10 14:12:40.725960,-452
2021-12-10 14:12:40.725969,-413
2021-12-10 14:12:40.725977,-374
2021-12-10 14:12:40.725986,-352
2021-12-10 14:12:40.725994,-379
2021-12-10 14:12:40.726002,-403
2021-12-10 14:12:40.726011,-359
2021-12-10 14:12:40.726019,-308
2021-12-10 14:12:40.726028,-317
2021-12-10 14:12:40.726036,-332
2021-12-10 14:12:40.726044,-310
2021-12-10 14:12:40.726053,-291
2021-12-10 14:12:40.726061,-283
2021-12-10 14:12:40.726070,-273
2021-12-10 14:12:40.726078,-273
2021-12-10 14:12:40.726087,-271
2021-12-10 14:12:40.726095,-269
2021-12-10 14:12:40.726104,-286
2021-12-10 14:12:40.816383,-291
2021-12-10 14:12:40.816400,-276
2021-12-10 14:12:40.816409,-271
2021-12-10 14:12:40.816418,-269
2021-12-10 14:12:40.816426,-259
2021-12-10 14:12:40.816435,-261
2021-12-10 14:12:40.816443,-266
2021-12-10 14:12:40.816451,-259
2021-12-10 14:12:40.816460,-246
2021-12-10 14:12:40.816468,-239
2021-12-10 14:12:40.816476,-232
2021-12-10 14:12:40.816484,-224
2021-12-10 14:12:40.816493,-217
2021-12-10 14:12:40.816501,-202
2021-12-10 14:12:40.816510,-202
2021-12-10 14:12:40.816518,-227
2021-12-10 14:12:40.816526,-244
2021-12-10 14:12:40.816534,-246
2021-12-10 14:12:40.816543,-251
2021-12-10 14:12:40.816551,-244
2021-12-10 14:12:40.816559,-224
2021-12-10 14:12:40.816567,-229
2021-12-10 14:12:40.816576,-244
2021-12-10 14:12:40.816584,-229
2021-12-10 14:12:40.816592,-180
2021-12-10 14:12:40.816601,-95
2021-12-10 14:12:40.816609,198
2021-12-10 14:12:40.816617,665
2021-12-10 14:12:40.816626,547
2021-12-10 14:12:40.816634,-401
2021-12-10 14:12:41.040624,-1063
2021-12-10 14:12:41.040641,-811
2021-12-10 14:12:41.040651,-401
2021-12-10 14:12:41.040660,-317
2021-12-10 14:12:41.040668,-254
2021-12-10 14:12:41.040677,-151
2021-12-10 14:12:41.040686,-139
2021-12-10 14:12:41.040694,-129
2021-12-10 14:12:41.040703,-97
2021-12-10 14:12:41.040711,-80
2021-12-10 14:12:41.040720,-68
2021-12-10 14:12:41.040728,-53
2021-12-10 14:12:41.040736,-41
2021-12-10 14:12:41.040745,-34
2021-12-10 14:12:41.040753,-24
2021-12-10 14:12:41.040762,0
2021-12-10 14:12:41.040770,41
2021-12-10 14:12:41.040779,83
2021-12-10 14:12:41.040787,102
2021-12-10 14:12:41.040795,134
2021-12-10 14:12:41.040804,195
2021-12-10 14:12:41.040812,256
2021-12-10 14:12:41.040821,291
2021-12-10 14:12:41.040829,303
2021-12-10 14:12:41.040838,310
2021-12-10 14:12:41.040846,308
2021-12-10 14:12:41.040854,271
2021-12-10 14:12:41.040866,195
2021-12-10 14:12:41.040874,88
2021-12-10 14:12:41.040883,-36
2021-12-10 14:12:41.267186,-144
2021-12-10 14:12:41.267206,-234
2021-12-10 14:12:41.267216,-308
2021-12-10 14:12:41.267225,-352
2021-12-10 14:12:41.267234,-383
2021-12-10 14:12:41.267242,-405
2021-12-10 14:12:41.267251,-408
2021-12-10 14:12:41.267259,-393
2021-12-10 14:12:41.267268,-381
2021-12-10 14:12:41.267278,-374
2021-12-10 14:12:41.267290,-369
2021-12-10 14:12:41.267299,-359
2021-12-10 14:12:41.267307,-342
2021-12-10 14:12:41.267316,-330
2021-12-10 14:12:41.267325,-317
2021-12-10 14:12:41.267333,-308
2021-12-10 14:12:41.267342,-303
2021-12-10 14:12:41.267350,-291
2021-12-10 14:12:41.267359,-281
2021-12-10 14:12:41.267367,-276
2021-12-10 14:12:41.267376,-256
2021-12-10 14:12:41.267384,-237
2021-12-10 14:12:41.267393,-254
2021-12-10 14:12:41.267401,-273
2021-12-10 14:12:41.267410,-254
2021-12-10 14:12:41.267418,-256
2021-12-10 14:12:41.267427,-278
2021-12-10 14:12:41.267436,-264
2021-12-10 14:12:41.267444,-254
2021-12-10 14:12:41.267453,-261
2021-12-10 14:12:41.447023,-259
2021-12-10 14:12:41.447041,-251
2021-12-10 14:12:41.447050,-254
2021-12-10 14:12:41.447059,-259
2021-12-10 14:12:41.447068,-251
2021-12-10 14:12:41.447076,-246
2021-12-10 14:12:41.447085,-251
2021-12-10 14:12:41.447093,-251
2021-12-10 14:12:41.447102,-242
2021-12-10 14:12:41.447110,-234
2021-12-10 14:12:41.447119,-232
2021-12-10 14:12:41.447127,-220
2021-12-10 14:12:41.447136,-210
2021-12-10 14:12:41.447144,-222
2021-12-10 14:12:41.447152,-251
2021-12-10 14:12:41.447161,-256
2021-12-10 14:12:41.447169,-242
2021-12-10 14:12:41.447178,-249
2021-12-10 14:12:41.447186,-256
2021-12-10 14:12:41.447194,-242
2021-12-10 14:12:41.447203,-239
2021-12-10 14:12:41.447211,-249
2021-12-10 14:12:41.447219,-232
2021-12-10 14:12:41.447228,-180
2021-12-10 14:12:41.447236,-46
2021-12-10 14:12:41.447245,339
2021-12-10 14:12:41.447253,711
2021-12-10 14:12:41.447262,300
2021-12-10 14:12:41.447270,-718
2021-12-10 14:12:41.447278,-1122
2021-12-10 14:12:41.761434,-670
2021-12-10 14:12:41.761452,-327
2021-12-10 14:12:41.761462,-332
2021-12-10 14:12:41.761470,-249
2021-12-10 14:12:41.761479,-151
2021-12-10 14:12:41.761487,-149
2021-12-10 14:12:41.761496,-119
2021-12-10 14:12:41.761505,-83
2021-12-10 14:12:41.761513,-78
2021-12-10 14:12:41.761522,-70
2021-12-10 14:12:41.761530,-51
2021-12-10 14:12:41.761539,-31
2021-12-10 14:12:41.761547,-26
2021-12-10 14:12:41.761556,-17
2021-12-10 14:12:41.761564,26
2021-12-10 14:12:41.761572,51
2021-12-10 14:12:41.761581,56
2021-12-10 14:12:41.761589,110
2021-12-10 14:12:41.761597,178
2021-12-10 14:12:41.761606,212
2021-12-10 14:12:41.761614,249
2021-12-10 14:12:41.761622,288
2021-12-10 14:12:41.761631,305
2021-12-10 14:12:41.761639,303
2021-12-10 14:12:41.761648,278
2021-12-10 14:12:41.761656,232
2021-12-10 14:12:41.761664,156
2021-12-10 14:12:41.761673,39
2021-12-10 14:12:41.761681,-97
2021-12-10 14:12:41.761690,-193
2021-12-10 14:12:41.986991,-261
2021-12-10 14:12:41.987008,-320
2021-12-10 14:12:41.987017,-366
2021-12-10 14:12:41.987026,-401
2021-12-10 14:12:41.987035,-418
2021-12-10 14:12:41.987043,-420
2021-12-10 14:12:41.987052,-430
2021-12-10 14:12:41.987060,-435
2021-12-10 14:12:41.987069,-410
2021-12-10 14:12:41.987077,-393
2021-12-10 14:12:41.987086,-405
2021-12-10 14:12:41.987095,-391
2021-12-10 14:12:41.987103,-342
2021-12-10 14:12:41.987112,-332
2021-12-10 14:12:41.987121,-357
2021-12-10 14:12:41.987129,-357
2021-12-10 14:12:41.987137,-332
2021-12-10 14:12:41.987146,-320
2021-12-10 14:12:41.987154,-327
2021-12-10 14:12:41.987163,-332
2021-12-10 14:12:41.987171,-327
2021-12-10 14:12:41.987180,-317
2021-12-10 14:12:41.987188,-310
2021-12-10 14:12:41.987197,-293
2021-12-10 14:12:41.987205,-288
2021-12-10 14:12:41.987214,-308
2021-12-10 14:12:41.987222,-310
2021-12-10 14:12:41.987231,-286
2021-12-10 14:12:41.987239,-291
2021-12-10 14:12:41.987248,-317
2021-12-10 14:12:42.257677,-305
2021-12-10 14:12:42.257697,-276
2021-12-10 14:12:42.257707,-276
2021-12-10 14:12:42.257716,-286
2021-12-10 14:12:42.257725,-273
2021-12-10 14:12:42.257733,-276
2021-12-10 14:12:42.257742,-286
2021-12-10 14:12:42.257750,-259
2021-12-10 14:12:42.257759,-234
2021-12-10 14:12:42.257767,-242
2021-12-10 14:12:42.257776,-244
2021-12-10 14:12:42.257784,-242
2021-12-10 14:12:42.257793,-261
2021-12-10 14:12:42.257801,-273
2021-12-10 14:12:42.257809,-261
2021-12-10 14:12:42.257818,-264
2021-12-10 14:12:42.257826,-261
2021-12-10 14:12:42.257835,-249
2021-12-10 14:12:42.257843,-256
2021-12-10 14:12:42.257852,-254
2021-12-10 14:12:42.257860,-224
2021-12-10 14:12:42.257869,-180
2021-12-10 14:12:42.257878,-95
2021-12-10 14:12:42.257886,158
2021-12-10 14:12:42.257895,432
2021-12-10 14:12:42.257903,53
2021-12-10 14:12:42.257912,-917
2021-12-10 14:12:42.257920,-1269
2021-12-10 14:12:42.257928,-723
2021-12-10 14:12:42.257937,-344
2021-12-10 14:12:42.437031,-361
2021-12-10 14:12:42.437047,-239
2021-12-10 14:12:42.437057,-97
2021-12-10 14:12:42.437066,-127
2021-12-10 14:12:42.437075,-127
2021-12-10 14:12:42.437083,-75
2021-12-10 14:12:42.437092,-70
2021-12-10 14:12:42.437100,-83
2021-12-10 14:12:42.437109,-68
2021-12-10 14:12:42.437117,-36
2021-12-10 14:12:42.437126,-39
2021-12-10 14:12:42.437135,-58
2021-12-10 14:12:42.437143,-24
2021-12-10 14:12:42.437151,19
2021-12-10 14:12:42.437160,34
2021-12-10 14:12:42.437169,73
2021-12-10 14:12:42.437177,141
2021-12-10 14:12:42.437185,195
2021-12-10 14:12:42.437194,220
2021-12-10 14:12:42.437202,234
2021-12-10 14:12:42.437211,234
2021-12-10 14:12:42.437219,222
2021-12-10 14:12:42.437228,205
2021-12-10 14:12:42.437236,158
2021-12-10 14:12:42.437245,90
2021-12-10 14:12:42.437253,-4
2021-12-10 14:12:42.437262,-112
2021-12-10 14:12:42.437270,-202
2021-12-10 14:12:42.437279,-283
2021-12-10 14:12:42.437287,-349
2021-12-10 14:12:42.617119,-361
2021-12-10 14:12:42.617139,-364
2021-12-10 14:12:42.617148,-405
2021-12-10 14:12:42.617157,-447
2021-12-10 14:12:42.617166,-413
2021-12-10 14:12:42.617175,-344
2021-12-10 14:12:42.617183,-354
2021-12-10 14:12:42.617192,-374
2021-12-10 14:12:42.617200,-332
2021-12-10 14:12:42.617209,-337
2021-12-10 14:12:42.617217,-371
2021-12-10 14:12:42.617226,-325
2021-12-10 14:12:42.617234,-278
2021-12-10 14:12:42.617243,-305
2021-12-10 14:12:42.617251,-335
2021-12-10 14:12:42.617260,-300
2021-12-10 14:12:42.617268,-256
2021-12-10 14:12:42.617277,-259
2021-12-10 14:12:42.617285,-266
2021-12-10 14:12:42.617294,-266
2021-12-10 14:12:42.617302,-266
2021-12-10 14:12:42.617310,-276
2021-12-10 14:12:42.617319,-286
2021-12-10 14:12:42.617327,-271
2021-12-10 14:12:42.617336,-261
2021-12-10 14:12:42.617344,-251
2021-12-10 14:12:42.617353,-227
2021-12-10 14:12:42.617361,-239
2021-12-10 14:12:42.617370,-264
2021-12-10 14:12:42.617378,-242
2021-12-10 14:12:42.931438,-222
2021-12-10 14:12:42.931456,-224
2021-12-10 14:12:42.931465,-217
2021-12-10 14:12:42.931474,-205
2021-12-10 14:12:42.931483,-183
2021-12-10 14:12:42.931491,-158
2021-12-10 14:12:42.931500,-156
2021-12-10 14:12:42.931508,-188
2021-12-10 14:12:42.931516,-202
2021-12-10 14:12:42.931525,-185
2021-12-10 14:12:42.931533,-180
2021-12-10 14:12:42.931542,-180
2021-12-10 14:12:42.931550,-178
2021-12-10 14:12:42.931559,-188
2021-12-10 14:12:42.931568,-178
2021-12-10 14:12:42.931576,-151
2021-12-10 14:12:42.931584,-154
2021-12-10 14:12:42.931593,-129
2021-12-10 14:12:42.931601,-19
2021-12-10 14:12:42.931609,210
2021-12-10 14:12:42.931618,474
2021-12-10 14:12:42.931626,212
2021-12-10 14:12:42.931635,-665
2021-12-10 14:12:42.931643,-1120
2021-12-10 14:12:42.931652,-711
2021-12-10 14:12:42.931660,-295
2021-12-10 14:12:42.931668,-239
2021-12-10 14:12:42.931677,-146
2021-12-10 14:12:42.931685,-17
2021-12-10 14:12:42.931693,-7
2021-12-10 14:12:43.111134,-2
2021-12-10 14:12:43.111153,34
2021-12-10 14:12:43.111163,48
2021-12-10 14:12:43.111172,53
2021-12-10 14:12:43.111180,53
2021-12-10 14:12:43.111188,66
2021-12-10 14:12:43.111195,90
2021-12-10 14:12:43.111202,110
2021-12-10 14:12:43.111210,129
2021-12-10 14:12:43.111217,156
2021-12-10 14:12:43.111224,188
2021-12-10 14:12:43.111232,220
2021-12-10 14:12:43.111239,264
2021-12-10 14:12:43.111247,310
2021-12-10 14:12:43.111255,342
2021-12-10 14:12:43.111263,359
2021-12-10 14:12:43.111271,369
2021-12-10 14:12:43.111279,374
2021-12-10 14:12:43.111287,354
2021-12-10 14:12:43.111295,303
2021-12-10 14:12:43.111304,227
2021-12-10 14:12:43.111312,132
2021-12-10 14:12:43.111320,24
2021-12-10 14:12:43.111328,-73
2021-12-10 14:12:43.111337,-146
2021-12-10 14:12:43.111345,-200
2021-12-10 14:12:43.111353,-237
2021-12-10 14:12:43.111362,-269
2021-12-10 14:12:43.111370,-283
2021-12-10 14:12:43.111378,-288
2021-12-10 14:12:43.337142,-298
2021-12-10 14:12:43.337161,-300
2021-12-10 14:12:43.337171,-291
2021-12-10 14:12:43.337180,-278
2021-12-10 14:12:43.337188,-271
2021-12-10 14:12:43.337196,-264
2021-12-10 14:12:43.337205,-254
2021-12-10 14:12:43.337213,-249
2021-12-10 14:12:43.337222,-246
2021-12-10 14:12:43.337230,-234
2021-12-10 14:12:43.337239,-227
2021-12-10 14:12:43.337247,-232
2021-12-10 14:12:43.337255,-229
2021-12-10 14:12:43.337264,-222
2021-12-10 14:12:43.337272,-227
2021-12-10 14:12:43.337281,-227
2021-12-10 14:12:43.337289,-224
2021-12-10 14:12:43.337297,-232
2021-12-10 14:12:43.337306,-242
2021-12-10 14:12:43.337314,-239
2021-12-10 14:12:43.337322,-242
2021-12-10 14:12:43.337331,-256
2021-12-10 14:12:43.337339,-254
2021-12-10 14:12:43.337347,-251
2021-12-10 14:12:43.337356,-264
2021-12-10 14:12:43.337364,-264
2021-12-10 14:12:43.337372,-256
2021-12-10 14:12:43.337381,-259
2021-12-10 14:12:43.337389,-264
2021-12-10 14:12:43.337397,-264
2021-12-10 14:12:43.562116,-259
2021-12-10 14:12:43.562135,-251
2021-12-10 14:12:43.562145,-234
2021-12-10 14:12:43.562154,-217
2021-12-10 14:12:43.562163,-217
2021-12-10 14:12:43.562172,-222
2021-12-10 14:12:43.562180,-234
2021-12-10 14:12:43.562189,-239
2021-12-10 14:12:43.562198,-234
2021-12-10 14:12:43.562206,-249
2021-12-10 14:12:43.562215,-259
2021-12-10 14:12:43.562224,-244
2021-12-10 14:12:43.562232,-234
2021-12-10 14:12:43.562241,-242
2021-12-10 14:12:43.562249,-232
2021-12-10 14:12:43.562258,-180
2021-12-10 14:12:43.562267,-83
2021-12-10 14:12:43.562275,198
2021-12-10 14:12:43.562284,591
2021-12-10 14:12:43.562292,379
2021-12-10 14:12:43.562301,-582
2021-12-10 14:12:43.562310,-1122
2021-12-10 14:12:43.562318,-750
2021-12-10 14:12:43.562327,-347
2021-12-10 14:12:43.562335,-310
2021-12-10 14:12:43.562344,-232
2021-12-10 14:12:43.562352,-105
2021-12-10 14:12:43.562361,-102
2021-12-10 14:12:43.562369,-92
2021-12-10 14:12:43.562378,-46
2021-12-10 14:12:43.831387,-41
2021-12-10 14:12:43.831402,-36
2021-12-10 14:12:43.831412,-12
2021-12-10 14:12:43.831420,-4
2021-12-10 14:12:43.831429,4
2021-12-10 14:12:43.831437,31
2021-12-10 14:12:43.831446,53
2021-12-10 14:12:43.831454,70
2021-12-10 14:12:43.831463,107
2021-12-10 14:12:43.831471,146
2021-12-10 14:12:43.831479,176
2021-12-10 14:12:43.831488,220
2021-12-10 14:12:43.831496,264
2021-12-10 14:12:43.831505,288
2021-12-10 14:12:43.831513,300
2021-12-10 14:12:43.831522,303
2021-12-10 14:12:43.831530,291
2021-12-10 14:12:43.831538,254
2021-12-10 14:12:43.831547,173
2021-12-10 14:12:43.831555,63
2021-12-10 14:12:43.831563,-41
2021-12-10 14:12:43.831572,-134
2021-12-10 14:12:43.831580,-212
2021-12-10 14:12:43.831588,-264
2021-12-10 14:12:43.831597,-300
2021-12-10 14:12:43.831605,-327
2021-12-10 14:12:43.831613,-339
2021-12-10 14:12:43.831621,-332
2021-12-10 14:12:43.831630,-335
2021-12-10 14:12:43.831638,-342
2021-12-10 14:12:43.967106,-332
2021-12-10 14:12:43.967124,-322
2021-12-10 14:12:43.967134,-315
2021-12-10 14:12:43.967143,-313
2021-12-10 14:12:43.967151,-310
2021-12-10 14:12:43.967160,-288
2021-12-10 14:12:43.967168,-271
2021-12-10 14:12:43.967177,-266
2021-12-10 14:12:43.967185,-249
2021-12-10 14:12:43.967194,-234
2021-12-10 14:12:43.967202,-239
2021-12-10 14:12:43.967211,-229
2021-12-10 14:12:43.967219,-220
2021-12-10 14:12:43.967231,-229
2021-12-10 14:12:43.967239,-227
2021-12-10 14:12:43.967248,-220
2021-12-10 14:12:43.967256,-224
2021-12-10 14:12:43.967264,-229
2021-12-10 14:12:43.967273,-227
2021-12-10 14:12:43.967281,-227
2021-12-10 14:12:43.967289,-229
2021-12-10 14:12:43.967298,-232
2021-12-10 14:12:43.967306,-234
2021-12-10 14:12:43.967314,-227
2021-12-10 14:12:43.967323,-222
2021-12-10 14:12:43.967331,-220
2021-12-10 14:12:43.967339,-217
2021-12-10 14:12:43.967348,-220
2021-12-10 14:12:43.967356,-212
2021-12-10 14:12:43.967364,-198
2021-12-10 14:12:44.282190,-188
2021-12-10 14:12:44.282210,-183
2021-12-10 14:12:44.282219,-176
2021-12-10 14:12:44.282228,-166
2021-12-10 14:12:44.282237,-171
2021-12-10 14:12:44.282245,-198
2021-12-10 14:12:44.282254,-215
2021-12-10 14:12:44.282262,-202
2021-12-10 14:12:44.282271,-195
2021-12-10 14:12:44.282279,-205
2021-12-10 14:12:44.282288,-200
2021-12-10 14:12:44.282296,-193
2021-12-10 14:12:44.282305,-190
2021-12-10 14:12:44.282313,-183
2021-12-10 14:12:44.282321,-141
2021-12-10 14:12:44.282330,-61
2021-12-10 14:12:44.282338,173
2021-12-10 14:12:44.282347,530
2021-12-10 14:12:44.282355,361
2021-12-10 14:12:44.282364,-530
2021-12-10 14:12:44.282372,-1085
2021-12-10 14:12:44.282380,-758
2021-12-10 14:12:44.282389,-337
2021-12-10 14:12:44.282397,-264
2021-12-10 14:12:44.282406,-183
2021-12-10 14:12:44.282414,-58
2021-12-10 14:12:44.282422,-53
2021-12-10 14:12:44.282431,-48
2021-12-10 14:12:44.282439,2
2021-12-10 14:12:44.282447,17
2021-12-10 14:12:44.507044,7
2021-12-10 14:12:44.507061,19
2021-12-10 14:12:44.507071,44
2021-12-10 14:12:44.507080,58
2021-12-10 14:12:44.507088,73
2021-12-10 14:12:44.507097,97
2021-12-10 14:12:44.507106,117
2021-12-10 14:12:44.507114,141
2021-12-10 14:12:44.507123,173
2021-12-10 14:12:44.507131,210
2021-12-10 14:12:44.507140,269
2021-12-10 14:12:44.507148,313
2021-12-10 14:12:44.507157,332
2021-12-10 14:12:44.507165,352
2021-12-10 14:12:44.507174,359
2021-12-10 14:12:44.507182,337
2021-12-10 14:12:44.507191,295
2021-12-10 14:12:44.507199,227
2021-12-10 14:12:44.507208,127
2021-12-10 14:12:44.507216,9
2021-12-10 14:12:44.507225,-100
2021-12-10 14:12:44.507233,-173
2021-12-10 14:12:44.507242,-212
2021-12-10 14:12:44.507250,-261
2021-12-10 14:12:44.507259,-303
2021-12-10 14:12:44.507267,-313
2021-12-10 14:12:44.507275,-313
2021-12-10 14:12:44.507284,-315
2021-12-10 14:12:44.507292,-305
2021-12-10 14:12:44.507301,-308
2021-12-10 14:12:44.687147,-310
2021-12-10 14:12:44.687166,-273
2021-12-10 14:12:44.687175,-244
2021-12-10 14:12:44.687184,-259
2021-12-10 14:12:44.687193,-259
2021-12-10 14:12:44.687201,-229
2021-12-10 14:12:44.687210,-215
2021-12-10 14:12:44.687218,-202
2021-12-10 14:12:44.687227,-183
2021-12-10 14:12:44.687235,-178
2021-12-10 14:12:44.687243,-146
2021-12-10 14:12:44.687252,-122
2021-12-10 14:12:44.687260,-146
2021-12-10 14:12:44.687268,-146
2021-12-10 14:12:44.687277,-117
2021-12-10 14:12:44.687285,-117
2021-12-10 14:12:44.687294,-124
2021-12-10 14:12:44.687303,-105
2021-12-10 14:12:44.687311,-102
2021-12-10 14:12:44.687319,-114
2021-12-10 14:12:44.687328,-114
2021-12-10 14:12:44.687336,-107
2021-12-10 14:12:44.687345,-102
2021-12-10 14:12:44.687353,-102
2021-12-10 14:12:44.687361,-88
2021-12-10 14:12:44.687370,-78
2021-12-10 14:12:44.687378,-80
2021-12-10 14:12:44.687386,-73
2021-12-10 14:12:44.687395,-66
2021-12-10 14:12:44.687403,-68
2021-12-10 14:12:44.912110,-68
2021-12-10 14:12:44.912129,-68
2021-12-10 14:12:44.912138,-70
2021-12-10 14:12:44.912147,-73
2021-12-10 14:12:44.912156,-70
2021-12-10 14:12:44.912164,-63
2021-12-10 14:12:44.912173,-61
2021-12-10 14:12:44.912181,-53
2021-12-10 14:12:44.912190,-46
2021-12-10 14:12:44.912198,-39
2021-12-10 14:12:44.912207,-22
2021-12-10 14:12:44.912216,-14
2021-12-10 14:12:44.912224,-31
2021-12-10 14:12:44.912233,-63
2021-12-10 14:12:44.912241,-78
2021-12-10 14:12:44.912250,-68
2021-12-10 14:12:44.912258,-66
2021-12-10 14:12:44.912267,-75
2021-12-10 14:12:44.912275,-73
2021-12-10 14:12:44.912284,-70
2021-12-10 14:12:44.912292,-75
2021-12-10 14:12:44.912301,-63
2021-12-10 14:12:44.912309,-2
2021-12-10 14:12:44.912318,151
2021-12-10 14:12:44.912326,533
2021-12-10 14:12:44.912335,794
2021-12-10 14:12:44.912343,264
2021-12-10 14:12:44.912351,-665
2021-12-10 14:12:44.912360,-921
2021-12-10 14:12:44.912368,-486
2021-12-10 14:12:45.270817,-183
2021-12-10 14:12:45.270836,-151
2021-12-10 14:12:45.270846,-66
2021-12-10 14:12:45.270855,7
2021-12-10 14:12:45.270864,2
2021-12-10 14:12:45.270872,24
2021-12-10 14:12:45.270881,51
2021-12-10 14:12:45.270889,44
2021-12-10 14:12:45.270898,46
2021-12-10 14:12:45.270907,68
2021-12-10 14:12:45.270915,78
2021-12-10 14:12:45.270924,90
2021-12-10 14:12:45.270932,110
2021-12-10 14:12:45.270941,124
2021-12-10 14:12:45.270949,146
2021-12-10 14:12:45.270957,178
2021-12-10 14:12:45.270966,220
2021-12-10 14:12:45.270974,259
2021-12-10 14:12:45.270983,298
2021-12-10 14:12:45.270991,344
2021-12-10 14:12:45.271000,379
2021-12-10 14:12:45.271008,391
2021-12-10 14:12:45.271016,396
2021-12-10 14:12:45.271025,381
2021-12-10 14:12:45.271034,327
2021-12-10 14:12:45.271042,244
2021-12-10 14:12:45.271051,139
2021-12-10 14:12:45.271059,24
2021-12-10 14:12:45.271068,-78
2021-12-10 14:12:45.271076,-161
2021-12-10 14:12:45.362170,-222
2021-12-10 14:12:45.362189,-264
2021-12-10 14:12:45.362199,-298
2021-12-10 14:12:45.362207,-313
2021-12-10 14:12:45.362216,-305
2021-12-10 14:12:45.362224,-303
2021-12-10 14:12:45.362232,-305
2021-12-10 14:12:45.362241,-293
2021-12-10 14:12:45.362249,-283
2021-12-10 14:12:45.362258,-281
2021-12-10 14:12:45.362266,-269
2021-12-10 14:12:45.362274,-261
2021-12-10 14:12:45.362283,-256
2021-12-10 14:12:45.362291,-239
2021-12-10 14:12:45.362299,-234
2021-12-10 14:12:45.362308,-237
2021-12-10 14:12:45.362316,-232
2021-12-10 14:12:45.362325,-229
2021-12-10 14:12:45.362333,-227
2021-12-10 14:12:45.362341,-215
2021-12-10 14:12:45.362350,-202
2021-12-10 14:12:45.362358,-198
2021-12-10 14:12:45.362366,-202
2021-12-10 14:12:45.362375,-205
2021-12-10 14:12:45.362383,-202
2021-12-10 14:12:45.362391,-202
2021-12-10 14:12:45.362400,-202
2021-12-10 14:12:45.362408,-202
2021-12-10 14:12:45.362416,-205
2021-12-10 14:12:45.362425,-207
2021-12-10 14:12:45.676526,-207
2021-12-10 14:12:45.676545,-210
2021-12-10 14:12:45.676554,-210
2021-12-10 14:12:45.676563,-207
2021-12-10 14:12:45.676571,-207
2021-12-10 14:12:45.676580,-212
2021-12-10 14:12:45.676588,-210
2021-12-10 14:12:45.676597,-200
2021-12-10 14:12:45.676605,-202
2021-12-10 14:12:45.676613,-210
2021-12-10 14:12:45.676621,-212
2021-12-10 14:12:45.676630,-215
2021-12-10 14:12:45.676638,-207
2021-12-10 14:12:45.676647,-200
2021-12-10 14:12:45.676655,-205
2021-12-10 14:12:45.676664,-205
2021-12-10 14:12:45.676672,-198
2021-12-10 14:12:45.676681,-195
2021-12-10 14:12:45.676689,-185
2021-12-10 14:12:45.676697,-171
2021-12-10 14:12:45.676705,-166
2021-12-10 14:12:45.676714,-158
2021-12-10 14:12:45.676722,-149
2021-12-10 14:12:45.676731,-163
2021-12-10 14:12:45.676739,-195
2021-12-10 14:12:45.676747,-198
2021-12-10 14:12:45.676756,-188
2021-12-10 14:12:45.676764,-185
2021-12-10 14:12:45.676773,-183
2021-12-10 14:12:45.676781,-180
2021-12-10 14:12:45.812128,-185
2021-12-10 14:12:45.812146,-185
2021-12-10 14:12:45.812155,-161
2021-12-10 14:12:45.812164,-105
2021-12-10 14:12:45.812173,36
2021-12-10 14:12:45.812182,405
2021-12-10 14:12:45.812191,599
2021-12-10 14:12:45.812199,-22
2021-12-10 14:12:45.812208,-919
2021-12-10 14:12:45.812216,-1034
2021-12-10 14:12:45.812225,-540
2021-12-10 14:12:45.812233,-300
2021-12-10 14:12:45.812242,-281
2021-12-10 14:12:45.812250,-158
2021-12-10 14:12:45.812259,-85
2021-12-10 14:12:45.812268,-95
2021-12-10 14:12:45.812276,-66
2021-12-10 14:12:45.812285,-39
2021-12-10 14:12:45.812293,-36
2021-12-10 14:12:45.812302,-19
2021-12-10 14:12:45.812311,0
2021-12-10 14:12:45.812319,4
2021-12-10 14:12:45.812328,17
2021-12-10 14:12:45.812336,39
2021-12-10 14:12:45.812345,51
2021-12-10 14:12:45.812353,75
2021-12-10 14:12:45.812362,117
2021-12-10 14:12:45.812370,154
2021-12-10 14:12:45.812378,185
2021-12-10 14:12:45.812387,227
2021-12-10 14:12:46.037153,271
2021-12-10 14:12:46.037172,300
2021-12-10 14:12:46.037182,303
2021-12-10 14:12:46.037191,288
2021-12-10 14:12:46.037200,269
2021-12-10 14:12:46.037208,224
2021-12-10 14:12:46.037217,146
2021-12-10 14:12:46.037226,41
2021-12-10 14:12:46.037234,-63
2021-12-10 14:12:46.037243,-151
2021-12-10 14:12:46.037251,-222
2021-12-10 14:12:46.037260,-283
2021-12-10 14:12:46.037269,-330
2021-12-10 14:12:46.037277,-352
2021-12-10 14:12:46.037286,-361
2021-12-10 14:12:46.037294,-369
2021-12-10 14:12:46.037303,-366
2021-12-10 14:12:46.037311,-359
2021-12-10 14:12:46.037319,-349
2021-12-10 14:12:46.037328,-339
2021-12-10 14:12:46.037336,-339
2021-12-10 14:12:46.037345,-342
2021-12-10 14:12:46.037353,-332
2021-12-10 14:12:46.037362,-322
2021-12-10 14:12:46.037370,-315
2021-12-10 14:12:46.037378,-310
2021-12-10 14:12:46.037387,-298
2021-12-10 14:12:46.037395,-286
2021-12-10 14:12:46.037403,-288
2021-12-10 14:12:46.037412,-293
2021-12-10 14:12:46.307226,-286
2021-12-10 14:12:46.307247,-281
2021-12-10 14:12:46.307257,-286
2021-12-10 14:12:46.307265,-293
2021-12-10 14:12:46.307274,-286
2021-12-10 14:12:46.307282,-278
2021-12-10 14:12:46.307291,-283
2021-12-10 14:12:46.307299,-286
2021-12-10 14:12:46.307308,-283
2021-12-10 14:12:46.307316,-283
2021-12-10 14:12:46.307325,-281
2021-12-10 14:12:46.307333,-278
2021-12-10 14:12:46.307342,-278
2021-12-10 14:12:46.307350,-276
2021-12-10 14:12:46.307359,-276
2021-12-10 14:12:46.307367,-273
2021-12-10 14:12:46.307376,-261
2021-12-10 14:12:46.307384,-254
2021-12-10 14:12:46.307392,-256
2021-12-10 14:12:46.307401,-251
2021-12-10 14:12:46.307409,-239
2021-12-10 14:12:46.307418,-239
2021-12-10 14:12:46.307426,-242
2021-12-10 14:12:46.307435,-237
2021-12-10 14:12:46.307443,-222
2021-12-10 14:12:46.307451,-215
2021-12-10 14:12:46.307460,-212
2021-12-10 14:12:46.307468,-198
2021-12-10 14:12:46.307477,-178
2021-12-10 14:12:46.307485,-180
2021-12-10 14:12:46.576610,-198
2021-12-10 14:12:46.576631,-212
2021-12-10 14:12:46.576640,-215
2021-12-10 14:12:46.576649,-210
2021-12-10 14:12:46.576658,-205
2021-12-10 14:12:46.576667,-202
2021-12-10 14:12:46.576675,-200
2021-12-10 14:12:46.576683,-205
2021-12-10 14:12:46.576692,-195
2021-12-10 14:12:46.576700,-163
2021-12-10 14:12:46.576709,-110
2021-12-10 14:12:46.576717,17
2021-12-10 14:12:46.576725,325
2021-12-10 14:12:46.576734,435
2021-12-10 14:12:46.576742,-193
2021-12-10 14:12:46.576751,-983
2021-12-10 14:12:46.576759,-973
2021-12-10 14:12:46.576767,-459
2021-12-10 14:12:46.576776,-251
2021-12-10 14:12:46.576784,-234
2021-12-10 14:12:46.576793,-105
2021-12-10 14:12:46.576801,-44
2021-12-10 14:12:46.576809,-58
2021-12-10 14:12:46.576818,-29
2021-12-10 14:12:46.576826,4
2021-12-10 14:12:46.576835,4
2021-12-10 14:12:46.576843,12
2021-12-10 14:12:46.576851,29
2021-12-10 14:12:46.576860,44
2021-12-10 14:12:46.576868,61
2021-12-10 14:12:46.847158,78
2021-12-10 14:12:46.847177,95
2021-12-10 14:12:46.847187,127
2021-12-10 14:12:46.847196,163
2021-12-10 14:12:46.847205,195
2021-12-10 14:12:46.847214,239
2021-12-10 14:12:46.847222,288
2021-12-10 14:12:46.847231,320
2021-12-10 14:12:46.847239,335
2021-12-10 14:12:46.847248,342
2021-12-10 14:12:46.847256,347
2021-12-10 14:12:46.847265,322
2021-12-10 14:12:46.847273,266
2021-12-10 14:12:46.847282,180
2021-12-10 14:12:46.847290,53
2021-12-10 14:12:46.847299,-61
2021-12-10 14:12:46.847308,-132
2021-12-10 14:12:46.847316,-202
2021-12-10 14:12:46.847324,-259
2021-12-10 14:12:46.847333,-286
2021-12-10 14:12:46.847341,-303
2021-12-10 14:12:46.847350,-315
2021-12-10 14:12:46.847358,-317
2021-12-10 14:12:46.847367,-315
2021-12-10 14:12:46.847375,-310
2021-12-10 14:12:46.847384,-308
2021-12-10 14:12:46.847392,-303
2021-12-10 14:12:46.847401,-293
2021-12-10 14:12:46.847409,-278
2021-12-10 14:12:46.847417,-266
2021-12-10 14:12:46.982129,-254
2021-12-10 14:12:46.982148,-239
2021-12-10 14:12:46.982157,-227
2021-12-10 14:12:46.982166,-220
2021-12-10 14:12:46.982175,-210
2021-12-10 14:12:46.982184,-195
2021-12-10 14:12:46.982192,-183
2021-12-10 14:12:46.982201,-195
2021-12-10 14:12:46.982209,-202
2021-12-10 14:12:46.982218,-185
2021-12-10 14:12:46.982226,-178
2021-12-10 14:12:46.982235,-180
2021-12-10 14:12:46.982243,-176
2021-12-10 14:12:46.982252,-173
2021-12-10 14:12:46.982260,-180
2021-12-10 14:12:46.982269,-190
2021-12-10 14:12:46.982277,-183
2021-12-10 14:12:46.982286,-176
2021-12-10 14:12:46.982294,-180
2021-12-10 14:12:46.982303,-180
2021-12-10 14:12:46.982312,-176
2021-12-10 14:12:46.982320,-166
2021-12-10 14:12:46.982329,-166
2021-12-10 14:12:46.982337,-168
2021-12-10 14:12:46.982346,-166
2021-12-10 14:12:46.982354,-161
2021-12-10 14:12:46.982363,-156
2021-12-10 14:12:46.982371,-146
2021-12-10 14:12:46.982380,-139
2021-12-10 14:12:46.982388,-136
2021-12-10 14:12:47.295783,-134
2021-12-10 14:12:47.295801,-134
2021-12-10 14:12:47.295810,-134
2021-12-10 14:12:47.295819,-129
2021-12-10 14:12:47.295828,-129
2021-12-10 14:12:47.295836,-132
2021-12-10 14:12:47.295845,-127
2021-12-10 14:12:47.295854,-119
2021-12-10 14:12:47.295862,-112
2021-12-10 14:12:47.295871,-112
2021-12-10 14:12:47.295879,-119
2021-12-10 14:12:47.295888,-119
2021-12-10 14:12:47.295896,-112
2021-12-10 14:12:47.295905,-105
2021-12-10 14:12:47.295913,-97
2021-12-10 14:12:47.295922,-88
2021-12-10 14:12:47.295980,-68
2021-12-10 14:12:47.295990,-61
2021-12-10 14:12:47.295999,-68
2021-12-10 14:12:47.296008,-90
2021-12-10 14:12:47.296017,-110
2021-12-10 14:12:47.296025,-102
2021-12-10 14:12:47.296034,-92
2021-12-10 14:12:47.296043,-95
2021-12-10 14:12:47.296051,-95
2021-12-10 14:12:47.296062,-92
2021-12-10 14:12:47.296071,-97
2021-12-10 14:12:47.296079,-92
2021-12-10 14:12:47.296088,-48
2021-12-10 14:12:47.296096,48
2021-12-10 14:12:47.522145,322
2021-12-10 14:12:47.522163,701
2021-12-10 14:12:47.522173,518
2021-12-10 14:12:47.522182,-344
2021-12-10 14:12:47.522191,-875
2021-12-10 14:12:47.522199,-611
2021-12-10 14:12:47.522208,-239
2021-12-10 14:12:47.522216,-163
2021-12-10 14:12:47.522225,-110
2021-12-10 14:12:47.522234,-19
2021-12-10 14:12:47.522242,-9
2021-12-10 14:12:47.522251,-7
2021-12-10 14:12:47.522259,26
2021-12-10 14:12:47.522272,36
2021-12-10 14:12:47.522281,39
2021-12-10 14:12:47.522290,53
2021-12-10 14:12:47.522298,73
2021-12-10 14:12:47.522307,83
2021-12-10 14:12:47.522315,92
2021-12-10 14:12:47.522323,117
2021-12-10 14:12:47.522332,141
2021-12-10 14:12:47.522340,163
2021-12-10 14:12:47.522348,198
2021-12-10 14:12:47.522357,232
2021-12-10 14:12:47.522365,273
2021-12-10 14:12:47.522374,317
2021-12-10 14:12:47.522382,352
2021-12-10 14:12:47.522390,371
2021-12-10 14:12:47.522399,381
2021-12-10 14:12:47.522407,374
2021-12-10 14:12:47.657183,347
2021-12-10 14:12:47.657204,298
2021-12-10 14:12:47.657213,215
2021-12-10 14:12:47.657222,105
2021-12-10 14:12:47.657231,-4
2021-12-10 14:12:47.657239,-88
2021-12-10 14:12:47.657248,-154
2021-12-10 14:12:47.657256,-210
2021-12-10 14:12:47.657265,-237
2021-12-10 14:12:47.657273,-251
