Time,ECG
2021-12-10 13:52:13.104756,-244
2021-12-10 13:52:13.104776,-239
2021-12-10 13:52:13.104786,-222
2021-12-10 13:52:13.104794,-212
2021-12-10 13:52:13.104803,-202
2021-12-10 13:52:13.104812,-178
2021-12-10 13:52:13.104820,-166
2021-12-10 13:52:13.104829,-171
2021-12-10 13:52:13.104837,-168
2021-12-10 13:52:13.104846,-151
2021-12-10 13:52:13.104855,-141
2021-12-10 13:52:13.104863,-144
2021-12-10 13:52:13.104872,-141
2021-12-10 13:52:13.104880,-132
2021-12-10 13:52:13.104889,-127
2021-12-10 13:52:13.104897,-127
2021-12-10 13:52:13.104906,-122
2021-12-10 13:52:13.104914,-117
2021-12-10 13:52:13.104923,-117
2021-12-10 13:52:13.104931,-117
2021-12-10 13:52:13.104940,-122
2021-12-10 13:52:13.104948,-122
2021-12-10 13:52:13.104956,-117
2021-12-10 13:52:13.104965,-110
2021-12-10 13:52:13.104973,-107
2021-12-10 13:52:13.104982,-110
2021-12-10 13:52:13.104991,-112
2021-12-10 13:52:13.104999,-107
2021-12-10 13:52:13.105008,-110
2021-12-10 13:52:13.105016,-114
2021-12-10 13:52:13.105092,-107
2021-12-10 13:52:13.105103,-102
2021-12-10 13:52:13.105111,-105
2021-12-10 13:52:13.105120,-102
2021-12-10 13:52:13.105129,-97
2021-12-10 13:52:13.105137,-88
2021-12-10 13:52:13.105146,-80
2021-12-10 13:52:13.105155,-75
2021-12-10 13:52:13.105163,-61
2021-12-10 13:52:13.105172,-46
2021-12-10 13:52:13.105180,-41
2021-12-10 13:52:13.105189,-58
2021-12-10 13:52:13.105198,-88
2021-12-10 13:52:13.105206,-88
2021-12-10 13:52:13.105214,-70
2021-12-10 13:52:13.105223,-75
2021-12-10 13:52:13.105231,-80
2021-12-10 13:52:13.105240,-68
2021-12-10 13:52:13.105249,-61
2021-12-10 13:52:13.105257,-58
2021-12-10 13:52:13.105266,-17
2021-12-10 13:52:13.105274,66
2021-12-10 13:52:13.105283,246
2021-12-10 13:52:13.105291,555
2021-12-10 13:52:13.105300,518
2021-12-10 13:52:13.105308,-166
2021-12-10 13:52:13.105317,-789
2021-12-10 13:52:13.105325,-721
2021-12-10 13:52:13.105334,-300
2021-12-10 13:52:13.105344,-102
2021-12-10 13:52:13.293869,-75
2021-12-10 13:52:13.293890,-12
2021-12-10 13:52:13.293900,22
2021-12-10 13:52:13.293909,24
2021-12-10 13:52:13.293918,36
2021-12-10 13:52:13.293927,46
2021-12-10 13:52:13.293935,58
2021-12-10 13:52:13.293944,68
2021-12-10 13:52:13.293952,68
2021-12-10 13:52:13.293961,73
2021-12-10 13:52:13.293969,85
2021-12-10 13:52:13.293977,92
2021-12-10 13:52:13.293986,102
2021-12-10 13:52:13.293999,119
2021-12-10 13:52:13.294008,136
2021-12-10 13:52:13.294016,151
2021-12-10 13:52:13.294025,176
2021-12-10 13:52:13.294033,210
2021-12-10 13:52:13.294042,227
2021-12-10 13:52:13.294050,232
2021-12-10 13:52:13.294059,229
2021-12-10 13:52:13.294067,212
2021-12-10 13:52:13.294076,193
2021-12-10 13:52:13.294084,166
2021-12-10 13:52:13.294092,112
2021-12-10 13:52:13.294101,58
2021-12-10 13:52:13.294109,4
2021-12-10 13:52:13.294118,-58
2021-12-10 13:52:13.294126,-112
2021-12-10 13:52:13.294136,-141
2021-12-10 13:52:13.473827,-156
2021-12-10 13:52:13.473846,-176
2021-12-10 13:52:13.473856,-185
2021-12-10 13:52:13.473865,-185
2021-12-10 13:52:13.473873,-188
2021-12-10 13:52:13.473882,-180
2021-12-10 13:52:13.473890,-166
2021-12-10 13:52:13.473899,-161
2021-12-10 13:52:13.473907,-154
2021-12-10 13:52:13.473916,-139
2021-12-10 13:52:13.473924,-127
2021-12-10 13:52:13.473933,-124
2021-12-10 13:52:13.473941,-124
2021-12-10 13:52:13.473949,-119
2021-12-10 13:52:13.473958,-117
2021-12-10 13:52:13.473966,-119
2021-12-10 13:52:13.473975,-112
2021-12-10 13:52:13.473986,-105
2021-12-10 13:52:13.473994,-117
2021-12-10 13:52:13.474003,-132
2021-12-10 13:52:13.474011,-127
2021-12-10 13:52:13.474031,-119
2021-12-10 13:52:13.474039,-114
2021-12-10 13:52:13.474048,-122
2021-12-10 13:52:13.474056,-134
2021-12-10 13:52:13.474065,-129
2021-12-10 13:52:13.474073,-119
2021-12-10 13:52:13.474082,-127
2021-12-10 13:52:13.474091,-129
2021-12-10 13:52:13.474099,-119
2021-12-10 13:52:13.743083,-124
2021-12-10 13:52:13.743103,-132
2021-12-10 13:52:13.743113,-119
2021-12-10 13:52:13.743121,-117
2021-12-10 13:52:13.743130,-124
2021-12-10 13:52:13.743139,-127
2021-12-10 13:52:13.743147,-119
2021-12-10 13:52:13.743160,-119
2021-12-10 13:52:13.743168,-119
2021-12-10 13:52:13.743177,-122
2021-12-10 13:52:13.743185,-127
2021-12-10 13:52:13.743194,-117
2021-12-10 13:52:13.743202,-90
2021-12-10 13:52:13.743211,-85
2021-12-10 13:52:13.743219,-105
2021-12-10 13:52:13.743228,-127
2021-12-10 13:52:13.743236,-144
2021-12-10 13:52:13.743244,-144
2021-12-10 13:52:13.743252,-136
2021-12-10 13:52:13.743261,-136
2021-12-10 13:52:13.743269,-141
2021-12-10 13:52:13.743278,-149
2021-12-10 13:52:13.743286,-154
2021-12-10 13:52:13.743294,-146
2021-12-10 13:52:13.743303,-110
2021-12-10 13:52:13.743311,-41
2021-12-10 13:52:13.743319,124
2021-12-10 13:52:13.743328,418
2021-12-10 13:52:13.743336,332
2021-12-10 13:52:13.743345,-420
2021-12-10 13:52:14.012487,-1005
2021-12-10 13:52:14.012508,-797
2021-12-10 13:52:14.012518,-364
2021-12-10 13:52:14.012527,-246
2021-12-10 13:52:14.012535,-210
2021-12-10 13:52:14.012544,-105
2021-12-10 13:52:14.012552,-78
2021-12-10 13:52:14.012561,-83
2021-12-10 13:52:14.012570,-56
2021-12-10 13:52:14.012578,-51
2021-12-10 13:52:14.012587,-58
2021-12-10 13:52:14.012595,-44
2021-12-10 13:52:14.012604,-36
2021-12-10 13:52:14.012612,-41
2021-12-10 13:52:14.012621,-31
2021-12-10 13:52:14.012629,-9
2021-12-10 13:52:14.012638,4
2021-12-10 13:52:14.012646,19
2021-12-10 13:52:14.012655,39
2021-12-10 13:52:14.012663,58
2021-12-10 13:52:14.012672,85
2021-12-10 13:52:14.012680,114
2021-12-10 13:52:14.012689,129
2021-12-10 13:52:14.012697,129
2021-12-10 13:52:14.012710,124
2021-12-10 13:52:14.012719,112
2021-12-10 13:52:14.012727,85
2021-12-10 13:52:14.012736,44
2021-12-10 13:52:14.012745,2
2021-12-10 13:52:14.012753,-51
2021-12-10 13:52:14.193930,-119
2021-12-10 13:52:14.193952,-178
2021-12-10 13:52:14.193962,-229
2021-12-10 13:52:14.193970,-281
2021-12-10 13:52:14.193979,-310
2021-12-10 13:52:14.193987,-320
2021-12-10 13:52:14.193996,-335
2021-12-10 13:52:14.194004,-339
2021-12-10 13:52:14.194013,-330
2021-12-10 13:52:14.194021,-332
2021-12-10 13:52:14.194029,-337
2021-12-10 13:52:14.194037,-322
2021-12-10 13:52:14.194046,-300
2021-12-10 13:52:14.194054,-283
2021-12-10 13:52:14.194063,-271
2021-12-10 13:52:14.194072,-271
2021-12-10 13:52:14.194080,-273
2021-12-10 13:52:14.194090,-264
2021-12-10 13:52:14.194099,-249
2021-12-10 13:52:14.194108,-239
2021-12-10 13:52:14.194116,-242
2021-12-10 13:52:14.194125,-246
2021-12-10 13:52:14.194135,-239
2021-12-10 13:52:14.194144,-229
2021-12-10 13:52:14.194152,-227
2021-12-10 13:52:14.194160,-232
2021-12-10 13:52:14.194169,-249
2021-12-10 13:52:14.194177,-254
2021-12-10 13:52:14.194186,-237
2021-12-10 13:52:14.194194,-234
2021-12-10 13:52:14.418785,-249
2021-12-10 13:52:14.418804,-244
2021-12-10 13:52:14.418813,-237
2021-12-10 13:52:14.418822,-242
2021-12-10 13:52:14.418831,-237
2021-12-10 13:52:14.418839,-227
2021-12-10 13:52:14.418848,-220
2021-12-10 13:52:14.418856,-215
2021-12-10 13:52:14.418865,-215
2021-12-10 13:52:14.418873,-207
2021-12-10 13:52:14.418881,-188
2021-12-10 13:52:14.418890,-178
2021-12-10 13:52:14.418898,-183
2021-12-10 13:52:14.418907,-202
2021-12-10 13:52:14.418915,-224
2021-12-10 13:52:14.418924,-227
2021-12-10 13:52:14.418932,-215
2021-12-10 13:52:14.418941,-215
2021-12-10 13:52:14.418949,-220
2021-12-10 13:52:14.418957,-217
2021-12-10 13:52:14.418966,-215
2021-12-10 13:52:14.418974,-215
2021-12-10 13:52:14.418982,-193
2021-12-10 13:52:14.418991,-139
2021-12-10 13:52:14.419003,-56
2021-12-10 13:52:14.419012,151
2021-12-10 13:52:14.419020,418
2021-12-10 13:52:14.419029,168
2021-12-10 13:52:14.419038,-704
2021-12-10 13:52:14.419046,-1164
2021-12-10 13:52:14.688385,-765
2021-12-10 13:52:14.688411,-361
2021-12-10 13:52:14.688421,-310
2021-12-10 13:52:14.688430,-207
2021-12-10 13:52:14.688438,-88
2021-12-10 13:52:14.688447,-97
2021-12-10 13:52:14.688455,-90
2021-12-10 13:52:14.688463,-41
2021-12-10 13:52:14.688472,-39
2021-12-10 13:52:14.688480,-44
2021-12-10 13:52:14.688489,-19
2021-12-10 13:52:14.688497,-9
2021-12-10 13:52:14.688506,-4
2021-12-10 13:52:14.688514,7
2021-12-10 13:52:14.688523,26
2021-12-10 13:52:14.688531,44
2021-12-10 13:52:14.688540,66
2021-12-10 13:52:14.688548,95
2021-12-10 13:52:14.688557,117
2021-12-10 13:52:14.688565,144
2021-12-10 13:52:14.688573,171
2021-12-10 13:52:14.688582,178
2021-12-10 13:52:14.688590,183
2021-12-10 13:52:14.688599,188
2021-12-10 13:52:14.688607,173
2021-12-10 13:52:14.688616,139
2021-12-10 13:52:14.688624,88
2021-12-10 13:52:14.688632,31
2021-12-10 13:52:14.688641,-29
2021-12-10 13:52:14.688649,-97
2021-12-10 13:52:14.913904,-163
2021-12-10 13:52:14.913926,-212
2021-12-10 13:52:14.913936,-246
2021-12-10 13:52:14.913945,-269
2021-12-10 13:52:14.913953,-278
2021-12-10 13:52:14.913962,-281
2021-12-10 13:52:14.913970,-281
2021-12-10 13:52:14.913978,-286
2021-12-10 13:52:14.913987,-283
2021-12-10 13:52:14.913995,-271
2021-12-10 13:52:14.914004,-249
2021-12-10 13:52:14.914012,-239
2021-12-10 13:52:14.914021,-239
2021-12-10 13:52:14.914029,-227
2021-12-10 13:52:14.914037,-210
2021-12-10 13:52:14.914046,-205
2021-12-10 13:52:14.914054,-198
2021-12-10 13:52:14.914062,-188
2021-12-10 13:52:14.914071,-176
2021-12-10 13:52:14.914079,-163
2021-12-10 13:52:14.914088,-168
2021-12-10 13:52:14.914096,-178
2021-12-10 13:52:14.914104,-183
2021-12-10 13:52:14.914113,-183
2021-12-10 13:52:14.914121,-173
2021-12-10 13:52:14.914130,-178
2021-12-10 13:52:14.914138,-200
2021-12-10 13:52:14.914146,-193
2021-12-10 13:52:14.914155,-168
2021-12-10 13:52:14.914163,-171
2021-12-10 13:52:15.138179,-178
2021-12-10 13:52:15.138200,-173
2021-12-10 13:52:15.138210,-171
2021-12-10 13:52:15.138218,-176
2021-12-10 13:52:15.138227,-171
2021-12-10 13:52:15.138236,-166
2021-12-10 13:52:15.138244,-166
2021-12-10 13:52:15.138253,-158
2021-12-10 13:52:15.138262,-156
2021-12-10 13:52:15.138270,-156
2021-12-10 13:52:15.138284,-146
2021-12-10 13:52:15.138292,-141
2021-12-10 13:52:15.138301,-151
2021-12-10 13:52:15.138310,-158
2021-12-10 13:52:15.138318,-156
2021-12-10 13:52:15.138327,-146
2021-12-10 13:52:15.138335,-139
2021-12-10 13:52:15.138344,-132
2021-12-10 13:52:15.138352,-132
2021-12-10 13:52:15.138361,-129
2021-12-10 13:52:15.138369,-112
2021-12-10 13:52:15.138378,-100
2021-12-10 13:52:15.138386,-107
2021-12-10 13:52:15.138394,-132
2021-12-10 13:52:15.138403,-134
2021-12-10 13:52:15.138411,-122
2021-12-10 13:52:15.138420,-119
2021-12-10 13:52:15.138428,-122
2021-12-10 13:52:15.138437,-112
2021-12-10 13:52:15.138445,-107
2021-12-10 13:52:15.408900,-105
2021-12-10 13:52:15.408922,-78
2021-12-10 13:52:15.408932,-12
2021-12-10 13:52:15.408941,127
2021-12-10 13:52:15.408949,374
2021-12-10 13:52:15.408958,347
2021-12-10 13:52:15.408967,-198
2021-12-10 13:52:15.408975,-687
2021-12-10 13:52:15.408984,-660
2021-12-10 13:52:15.408993,-349
2021-12-10 13:52:15.409001,-141
2021-12-10 13:52:15.409010,-92
2021-12-10 13:52:15.409018,-63
2021-12-10 13:52:15.409027,-36
2021-12-10 13:52:15.409036,-14
2021-12-10 13:52:15.409044,0
2021-12-10 13:52:15.409053,12
2021-12-10 13:52:15.409061,22
2021-12-10 13:52:15.409070,24
2021-12-10 13:52:15.409079,26
2021-12-10 13:52:15.409087,41
2021-12-10 13:52:15.409096,53
2021-12-10 13:52:15.409104,48
2021-12-10 13:52:15.409113,68
2021-12-10 13:52:15.409122,95
2021-12-10 13:52:15.409135,105
2021-12-10 13:52:15.409144,117
2021-12-10 13:52:15.409152,144
2021-12-10 13:52:15.409161,171
2021-12-10 13:52:15.409170,198
2021-12-10 13:52:15.543777,215
2021-12-10 13:52:15.543795,222
2021-12-10 13:52:15.543805,222
2021-12-10 13:52:15.543814,215
2021-12-10 13:52:15.543823,185
2021-12-10 13:52:15.543832,134
2021-12-10 13:52:15.543840,85
2021-12-10 13:52:15.543849,34
2021-12-10 13:52:15.543857,-26
2021-12-10 13:52:15.543866,-78
2021-12-10 13:52:15.543875,-117
2021-12-10 13:52:15.543883,-146
2021-12-10 13:52:15.543891,-166
2021-12-10 13:52:15.543900,-168
2021-12-10 13:52:15.543908,-166
2021-12-10 13:52:15.543917,-171
2021-12-10 13:52:15.543925,-171
2021-12-10 13:52:15.543933,-163
2021-12-10 13:52:15.543942,-156
2021-12-10 13:52:15.543950,-141
2021-12-10 13:52:15.543958,-129
2021-12-10 13:52:15.543967,-129
2021-12-10 13:52:15.543975,-124
2021-12-10 13:52:15.543983,-114
2021-12-10 13:52:15.543992,-105
2021-12-10 13:52:15.544000,-105
2021-12-10 13:52:15.544009,-105
2021-12-10 13:52:15.544017,-97
2021-12-10 13:52:15.544026,-95
2021-12-10 13:52:15.544034,-100
2021-12-10 13:52:15.813908,-92
2021-12-10 13:52:15.813929,-80
2021-12-10 13:52:15.813939,-78
2021-12-10 13:52:15.813948,-83
2021-12-10 13:52:15.813957,-90
2021-12-10 13:52:15.813966,-90
2021-12-10 13:52:15.813974,-88
2021-12-10 13:52:15.813983,-92
2021-12-10 13:52:15.813991,-97
2021-12-10 13:52:15.814000,-100
2021-12-10 13:52:15.814009,-97
2021-12-10 13:52:15.814017,-100
2021-12-10 13:52:15.814026,-102
2021-12-10 13:52:15.814034,-97
2021-12-10 13:52:15.814043,-92
2021-12-10 13:52:15.814051,-90
2021-12-10 13:52:15.814063,-92
2021-12-10 13:52:15.814071,-102
2021-12-10 13:52:15.814080,-97
2021-12-10 13:52:15.814089,-85
2021-12-10 13:52:15.814097,-85
2021-12-10 13:52:15.814106,-88
2021-12-10 13:52:15.814114,-85
2021-12-10 13:52:15.814123,-83
2021-12-10 13:52:15.814131,-85
2021-12-10 13:52:15.814140,-80
2021-12-10 13:52:15.814149,-78
2021-12-10 13:52:15.814157,-90
2021-12-10 13:52:15.814166,-85
2021-12-10 13:52:15.814174,-58
2021-12-10 13:52:16.037599,-53
2021-12-10 13:52:16.037622,-48
2021-12-10 13:52:16.037632,-31
2021-12-10 13:52:16.037641,-39
2021-12-10 13:52:16.037649,-70
2021-12-10 13:52:16.037658,-90
2021-12-10 13:52:16.037666,-88
2021-12-10 13:52:16.037675,-85
2021-12-10 13:52:16.037683,-88
2021-12-10 13:52:16.037692,-85
2021-12-10 13:52:16.037700,-80
2021-12-10 13:52:16.037709,-80
2021-12-10 13:52:16.037717,-75
2021-12-10 13:52:16.037726,-36
2021-12-10 13:52:16.037734,46
2021-12-10 13:52:16.037743,264
2021-12-10 13:52:16.037751,604
2021-12-10 13:52:16.037760,525
2021-12-10 13:52:16.037768,-185
2021-12-10 13:52:16.037777,-758
2021-12-10 13:52:16.037785,-643
2021-12-10 13:52:16.037793,-269
2021-12-10 13:52:16.037802,-129
2021-12-10 13:52:16.037810,-105
2021-12-10 13:52:16.037819,-39
2021-12-10 13:52:16.037856,-7
2021-12-10 13:52:16.037865,-2
2021-12-10 13:52:16.037873,9
2021-12-10 13:52:16.037882,24
2021-12-10 13:52:16.037890,34
2021-12-10 13:52:16.218876,44
2021-12-10 13:52:16.218896,53
2021-12-10 13:52:16.218905,63
2021-12-10 13:52:16.218914,70
2021-12-10 13:52:16.218923,75
2021-12-10 13:52:16.218932,90
2021-12-10 13:52:16.218940,114
2021-12-10 13:52:16.218949,136
2021-12-10 13:52:16.218957,161
2021-12-10 13:52:16.218966,188
2021-12-10 13:52:16.218975,207
2021-12-10 13:52:16.218983,229
2021-12-10 13:52:16.218992,249
2021-12-10 13:52:16.219003,249
2021-12-10 13:52:16.219012,232
2021-12-10 13:52:16.219021,212
2021-12-10 13:52:16.219029,180
2021-12-10 13:52:16.219038,127
2021-12-10 13:52:16.219046,63
2021-12-10 13:52:16.219055,-9
2021-12-10 13:52:16.219064,-83
2021-12-10 13:52:16.219072,-136
2021-12-10 13:52:16.219081,-173
2021-12-10 13:52:16.219089,-205
2021-12-10 13:52:16.219098,-222
2021-12-10 13:52:16.219107,-222
2021-12-10 13:52:16.219116,-227
2021-12-10 13:52:16.219124,-232
2021-12-10 13:52:16.219133,-224
2021-12-10 13:52:16.219141,-210
2021-12-10 13:52:16.578822,-205
2021-12-10 13:52:16.578841,-200
2021-12-10 13:52:16.578851,-188
2021-12-10 13:52:16.578860,-185
2021-12-10 13:52:16.578868,-178
2021-12-10 13:52:16.578877,-161
2021-12-10 13:52:16.578886,-156
2021-12-10 13:52:16.578894,-156
2021-12-10 13:52:16.578903,-146
2021-12-10 13:52:16.578912,-141
2021-12-10 13:52:16.578920,-139
2021-12-10 13:52:16.578929,-141
2021-12-10 13:52:16.578937,-139
2021-12-10 13:52:16.578946,-134
2021-12-10 13:52:16.578954,-141
2021-12-10 13:52:16.578963,-146
2021-12-10 13:52:16.578971,-141
2021-12-10 13:52:16.578980,-134
2021-12-10 13:52:16.578989,-141
2021-12-10 13:52:16.578997,-146
2021-12-10 13:52:16.579006,-136
2021-12-10 13:52:16.579014,-141
2021-12-10 13:52:16.579023,-151
2021-12-10 13:52:16.579031,-144
2021-12-10 13:52:16.579040,-132
2021-12-10 13:52:16.579048,-132
2021-12-10 13:52:16.579057,-139
2021-12-10 13:52:16.579065,-139
2021-12-10 13:52:16.579074,-136
2021-12-10 13:52:16.579082,-139
2021-12-10 13:52:16.713863,-134
2021-12-10 13:52:16.713884,-132
2021-12-10 13:52:16.713894,-132
2021-12-10 13:52:16.713903,-132
2021-12-10 13:52:16.713912,-127
2021-12-10 13:52:16.713920,-124
2021-12-10 13:52:16.713929,-132
2021-12-10 13:52:16.713938,-139
2021-12-10 13:52:16.713946,-134
2021-12-10 13:52:16.713955,-132
2021-12-10 13:52:16.713963,-132
2021-12-10 13:52:16.713972,-129
2021-12-10 13:52:16.713980,-127
2021-12-10 13:52:16.713989,-124
2021-12-10 13:52:16.713997,-124
2021-12-10 13:52:16.714006,-127
2021-12-10 13:52:16.714014,-127
2021-12-10 13:52:16.714026,-114
2021-12-10 13:52:16.714035,-97
2021-12-10 13:52:16.714043,-97
2021-12-10 13:52:16.714052,-114
2021-12-10 13:52:16.714060,-132
2021-12-10 13:52:16.714069,-134
2021-12-10 13:52:16.714077,-132
2021-12-10 13:52:16.714086,-134
2021-12-10 13:52:16.714095,-139
2021-12-10 13:52:16.714103,-141
2021-12-10 13:52:16.714112,-141
2021-12-10 13:52:16.714120,-136
2021-12-10 13:52:16.714129,-117
2021-12-10 13:52:16.983752,-80
2021-12-10 13:52:16.983770,-31
2021-12-10 13:52:16.983779,124
2021-12-10 13:52:16.983788,427
2021-12-10 13:52:16.983796,339
2021-12-10 13:52:16.983805,-437
2021-12-10 13:52:16.983813,-1014
2021-12-10 13:52:16.983821,-762
2021-12-10 13:52:16.983830,-320
2021-12-10 13:52:16.983838,-207
2021-12-10 13:52:16.983846,-161
2021-12-10 13:52:16.983855,-56
2021-12-10 13:52:16.983863,-31
2021-12-10 13:52:16.983871,-41
2021-12-10 13:52:16.983880,-19
2021-12-10 13:52:16.983888,4
2021-12-10 13:52:16.983897,7
2021-12-10 13:52:16.983905,2
2021-12-10 13:52:16.983913,14
2021-12-10 13:52:16.983921,29
2021-12-10 13:52:16.983929,39
2021-12-10 13:52:16.983938,46
2021-12-10 13:52:16.983946,61
2021-12-10 13:52:16.983954,85
2021-12-10 13:52:16.983963,105
2021-12-10 13:52:16.983971,124
2021-12-10 13:52:16.983979,156
2021-12-10 13:52:16.983988,183
2021-12-10 13:52:16.983996,200
2021-12-10 13:52:16.984005,210
2021-12-10 13:52:17.164015,212
2021-12-10 13:52:17.164102,200
2021-12-10 13:52:17.164123,180
2021-12-10 13:52:17.164130,141
2021-12-10 13:52:17.164136,80
2021-12-10 13:52:17.164141,19
2021-12-10 13:52:17.164146,-36
2021-12-10 13:52:17.164188,-100
2021-12-10 13:52:17.164233,-161
2021-12-10 13:52:17.164297,-202
2021-12-10 13:52:17.164343,-224
2021-12-10 13:52:17.164359,-239
2021-12-10 13:52:17.164371,-254
2021-12-10 13:52:17.164383,-259
2021-12-10 13:52:17.164396,-259
2021-12-10 13:52:17.164409,-261
2021-12-10 13:52:17.164421,-249
2021-12-10 13:52:17.164432,-234
2021-12-10 13:52:17.164443,-232
2021-12-10 13:52:17.164453,-224
2021-12-10 13:52:17.164470,-207
2021-12-10 13:52:17.164493,-200
2021-12-10 13:52:17.164510,-193
2021-12-10 13:52:17.164529,-176
2021-12-10 13:52:17.164552,-163
2021-12-10 13:52:17.164582,-163
2021-12-10 13:52:17.164627,-156
2021-12-10 13:52:17.164691,-151
2021-12-10 13:52:17.164751,-146
2021-12-10 13:52:17.164853,-144
2021-12-10 13:52:17.388735,-144
2021-12-10 13:52:17.388752,-146
2021-12-10 13:52:17.388762,-144
2021-12-10 13:52:17.388771,-144
2021-12-10 13:52:17.388780,-149
2021-12-10 13:52:17.388788,-151
2021-12-10 13:52:17.388797,-156
2021-12-10 13:52:17.388805,-161
2021-12-10 13:52:17.388814,-156
2021-12-10 13:52:17.388822,-156
2021-12-10 13:52:17.388831,-156
2021-12-10 13:52:17.388839,-156
2021-12-10 13:52:17.388848,-158
2021-12-10 13:52:17.388856,-158
2021-12-10 13:52:17.388865,-151
2021-12-10 13:52:17.388873,-154
2021-12-10 13:52:17.388882,-151
2021-12-10 13:52:17.388890,-136
2021-12-10 13:52:17.388898,-139
2021-12-10 13:52:17.388907,-144
2021-12-10 13:52:17.388915,-139
2021-12-10 13:52:17.388924,-139
2021-12-10 13:52:17.388932,-144
2021-12-10 13:52:17.388941,-144
2021-12-10 13:52:17.388949,-139
2021-12-10 13:52:17.388957,-136
2021-12-10 13:52:17.388966,-139
2021-12-10 13:52:17.388974,-136
2021-12-10 13:52:17.388983,-124
2021-12-10 13:52:17.388991,-114
2021-12-10 13:52:17.613842,-110
2021-12-10 13:52:17.613861,-97
2021-12-10 13:52:17.613871,-85
2021-12-10 13:52:17.613880,-90
2021-12-10 13:52:17.613889,-105
2021-12-10 13:52:17.613898,-129
2021-12-10 13:52:17.613906,-134
2021-12-10 13:52:17.613915,-119
2021-12-10 13:52:17.613923,-117
2021-12-10 13:52:17.613932,-124
2021-12-10 13:52:17.613940,-124
2021-12-10 13:52:17.613949,-122
2021-12-10 13:52:17.613958,-124
2021-12-10 13:52:17.613966,-110
2021-12-10 13:52:17.613975,-63
2021-12-10 13:52:17.613983,41
2021-12-10 13:52:17.613992,342
2021-12-10 13:52:17.614000,555
2021-12-10 13:52:17.614009,80
2021-12-10 13:52:17.614018,-743
2021-12-10 13:52:17.614050,-917
2021-12-10 13:52:17.614068,-474
2021-12-10 13:52:17.614078,-215
2021-12-10 13:52:17.614087,-188
2021-12-10 13:52:17.614095,-78
2021-12-10 13:52:17.614104,-19
2021-12-10 13:52:17.614112,-51
2021-12-10 13:52:17.614120,-31
2021-12-10 13:52:17.614129,7
2021-12-10 13:52:17.614138,7
2021-12-10 13:52:17.838743,12
2021-12-10 13:52:17.838761,31
2021-12-10 13:52:17.838771,36
2021-12-10 13:52:17.838780,39
2021-12-10 13:52:17.838788,53
2021-12-10 13:52:17.838797,70
2021-12-10 13:52:17.838805,83
2021-12-10 13:52:17.838814,107
2021-12-10 13:52:17.838822,134
2021-12-10 13:52:17.838831,163
2021-12-10 13:52:17.838839,193
2021-12-10 13:52:17.838848,212
2021-12-10 13:52:17.838856,234
2021-12-10 13:52:17.838865,246
2021-12-10 13:52:17.838873,242
2021-12-10 13:52:17.838882,222
2021-12-10 13:52:17.838890,190
2021-12-10 13:52:17.838899,141
2021-12-10 13:52:17.838907,83
2021-12-10 13:52:17.838916,9
2021-12-10 13:52:17.838927,-66
2021-12-10 13:52:17.838936,-124
2021-12-10 13:52:17.838944,-161
2021-12-10 13:52:17.838953,-193
2021-12-10 13:52:17.838961,-220
2021-12-10 13:52:17.838970,-224
2021-12-10 13:52:17.838978,-222
2021-12-10 13:52:17.838987,-227
2021-12-10 13:52:17.838995,-224
2021-12-10 13:52:17.839004,-217
2021-12-10 13:52:18.107600,-217
2021-12-10 13:52:18.107620,-207
2021-12-10 13:52:18.107630,-193
2021-12-10 13:52:18.107639,-188
2021-12-10 13:52:18.107648,-185
2021-12-10 13:52:18.107657,-173
2021-12-10 13:52:18.107665,-161
2021-12-10 13:52:18.107674,-151
2021-12-10 13:52:18.107682,-141
2021-12-10 13:52:18.107691,-139
2021-12-10 13:52:18.107699,-141
2021-12-10 13:52:18.107708,-136
2021-12-10 13:52:18.107716,-124
2021-12-10 13:52:18.107725,-124
2021-12-10 13:52:18.107733,-124
2021-12-10 13:52:18.107742,-122
2021-12-10 13:52:18.107750,-127
2021-12-10 13:52:18.107759,-127
2021-12-10 13:52:18.107768,-124
2021-12-10 13:52:18.107776,-129
2021-12-10 13:52:18.107784,-132
2021-12-10 13:52:18.107793,-124
2021-12-10 13:52:18.107802,-127
2021-12-10 13:52:18.107810,-129
2021-12-10 13:52:18.107818,-124
2021-12-10 13:52:18.107827,-124
2021-12-10 13:52:18.107835,-129
2021-12-10 13:52:18.107844,-124
2021-12-10 13:52:18.107852,-122
2021-12-10 13:52:18.107861,-124
2021-12-10 13:52:18.288927,-124
2021-12-10 13:52:18.288949,-114
2021-12-10 13:52:18.288959,-112
2021-12-10 13:52:18.288968,-119
2021-12-10 13:52:18.288977,-124
2021-12-10 13:52:18.288985,-117
2021-12-10 13:52:18.288994,-114
2021-12-10 13:52:18.289002,-112
2021-12-10 13:52:18.289011,-107
2021-12-10 13:52:18.289019,-110
2021-12-10 13:52:18.289028,-110
2021-12-10 13:52:18.289036,-107
2021-12-10 13:52:18.289045,-107
2021-12-10 13:52:18.289053,-107
2021-12-10 13:52:18.289062,-102
2021-12-10 13:52:18.289070,-107
2021-12-10 13:52:18.289079,-107
2021-12-10 13:52:18.289087,-97
2021-12-10 13:52:18.289095,-95
2021-12-10 13:52:18.289104,-97
2021-12-10 13:52:18.289112,-95
2021-12-10 13:52:18.289121,-88
2021-12-10 13:52:18.289129,-85
2021-12-10 13:52:18.289137,-83
2021-12-10 13:52:18.289146,-80
2021-12-10 13:52:18.289154,-66
2021-12-10 13:52:18.289163,-48
2021-12-10 13:52:18.289171,-41
2021-12-10 13:52:18.289179,-53
2021-12-10 13:52:18.289188,-83
2021-12-10 13:52:18.558774,-92
2021-12-10 13:52:18.558792,-83
2021-12-10 13:52:18.558802,-83
2021-12-10 13:52:18.558811,-97
2021-12-10 13:52:18.558820,-100
2021-12-10 13:52:18.558828,-97
2021-12-10 13:52:18.558837,-102
2021-12-10 13:52:18.558846,-83
2021-12-10 13:52:18.558854,-24
2021-12-10 13:52:18.558862,83
2021-12-10 13:52:18.558871,381
2021-12-10 13:52:18.558879,655
2021-12-10 13:52:18.558888,327
2021-12-10 13:52:18.558896,-398
2021-12-10 13:52:18.558905,-736
2021-12-10 13:52:18.558913,-501
2021-12-10 13:52:18.558922,-198
2021-12-10 13:52:18.558930,-117
2021-12-10 13:52:18.558938,-97
2021-12-10 13:52:18.558947,-48
2021-12-10 13:52:18.558955,-26
2021-12-10 13:52:18.558964,-19
2021-12-10 13:52:18.558975,-2
2021-12-10 13:52:18.558983,9
2021-12-10 13:52:18.558992,17
2021-12-10 13:52:18.559000,26
2021-12-10 13:52:18.559009,29
2021-12-10 13:52:18.559017,36
2021-12-10 13:52:18.559026,53
2021-12-10 13:52:18.559034,70
2021-12-10 13:52:18.784025,85
2021-12-10 13:52:18.784046,105
2021-12-10 13:52:18.784055,127
2021-12-10 13:52:18.784063,139
2021-12-10 13:52:18.784072,166
2021-12-10 13:52:18.784079,202
2021-12-10 13:52:18.784086,234
2021-12-10 13:52:18.784093,254
2021-12-10 13:52:18.784100,251
2021-12-10 13:52:18.784107,237
2021-12-10 13:52:18.784114,222
2021-12-10 13:52:18.784121,188
2021-12-10 13:52:18.784127,136
2021-12-10 13:52:18.784134,78
2021-12-10 13:52:18.784141,2
2021-12-10 13:52:18.784149,-68
2021-12-10 13:52:18.784157,-110
2021-12-10 13:52:18.784164,-151
2021-12-10 13:52:18.784172,-180
2021-12-10 13:52:18.784180,-193
2021-12-10 13:52:18.784187,-198
2021-12-10 13:52:18.784195,-200
2021-12-10 13:52:18.784203,-190
2021-12-10 13:52:18.784210,-178
2021-12-10 13:52:18.784217,-176
2021-12-10 13:52:18.784224,-173
2021-12-10 13:52:18.784232,-168
2021-12-10 13:52:18.784240,-161
2021-12-10 13:52:18.784248,-146
2021-12-10 13:52:18.784256,-139
2021-12-10 13:52:19.008941,-132
2021-12-10 13:52:19.008960,-127
2021-12-10 13:52:19.008970,-122
2021-12-10 13:52:19.008979,-112
2021-12-10 13:52:19.008988,-112
2021-12-10 13:52:19.008997,-112
2021-12-10 13:52:19.009005,-100
2021-12-10 13:52:19.009014,-97
2021-12-10 13:52:19.009022,-105
2021-12-10 13:52:19.009031,-105
2021-12-10 13:52:19.009039,-105
2021-12-10 13:52:19.009048,-112
2021-12-10 13:52:19.009056,-117
2021-12-10 13:52:19.009065,-114
2021-12-10 13:52:19.009073,-112
2021-12-10 13:52:19.009082,-110
2021-12-10 13:52:19.009090,-107
2021-12-10 13:52:19.009099,-110
2021-12-10 13:52:19.009107,-117
2021-12-10 13:52:19.009116,-122
2021-12-10 13:52:19.009124,-122
2021-12-10 13:52:19.009133,-117
2021-12-10 13:52:19.009141,-114
2021-12-10 13:52:19.009149,-119
2021-12-10 13:52:19.009158,-122
2021-12-10 13:52:19.009166,-117
2021-12-10 13:52:19.009175,-117
2021-12-10 13:52:19.009184,-122
2021-12-10 13:52:19.009192,-119
2021-12-10 13:52:19.009201,-107
2021-12-10 13:52:19.278160,-102
2021-12-10 13:52:19.278178,-119
2021-12-10 13:52:19.278188,-124
2021-12-10 13:52:19.278197,-114
2021-12-10 13:52:19.278206,-117
2021-12-10 13:52:19.278214,-119
2021-12-10 13:52:19.278223,-119
2021-12-10 13:52:19.278231,-122
2021-12-10 13:52:19.278240,-127
2021-12-10 13:52:19.278248,-134
2021-12-10 13:52:19.278256,-134
2021-12-10 13:52:19.278265,-129
2021-12-10 13:52:19.278273,-129
2021-12-10 13:52:19.278282,-127
2021-12-10 13:52:19.278290,-124
2021-12-10 13:52:19.278299,-127
2021-12-10 13:52:19.278307,-132
2021-12-10 13:52:19.278316,-129
2021-12-10 13:52:19.278324,-127
2021-12-10 13:52:19.278333,-119
2021-12-10 13:52:19.278341,-102
2021-12-10 13:52:19.278350,-92
2021-12-10 13:52:19.278358,-97
2021-12-10 13:52:19.278367,-92
2021-12-10 13:52:19.278375,-100
2021-12-10 13:52:19.278384,-124
2021-12-10 13:52:19.278392,-129
2021-12-10 13:52:19.278400,-122
2021-12-10 13:52:19.278409,-122
2021-12-10 13:52:19.278417,-119
2021-12-10 13:52:19.503801,-122
2021-12-10 13:52:19.503820,-119
2021-12-10 13:52:19.503829,-110
2021-12-10 13:52:19.503838,-88
2021-12-10 13:52:19.503846,-36
2021-12-10 13:52:19.503860,70
2021-12-10 13:52:19.503869,369
2021-12-10 13:52:19.503878,569
2021-12-10 13:52:19.503886,102
2021-12-10 13:52:19.503895,-672
2021-12-10 13:52:19.503903,-853
2021-12-10 13:52:19.503912,-467
2021-12-10 13:52:19.503920,-217
2021-12-10 13:52:19.503929,-198
2021-12-10 13:52:19.503937,-117
2021-12-10 13:52:19.503946,-51
2021-12-10 13:52:19.503954,-58
2021-12-10 13:52:19.503963,-41
2021-12-10 13:52:19.503972,-12
2021-12-10 13:52:19.503980,-12
2021-12-10 13:52:19.503989,-12
2021-12-10 13:52:19.503997,7
2021-12-10 13:52:19.504006,17
2021-12-10 13:52:19.504014,19
2021-12-10 13:52:19.504022,31
2021-12-10 13:52:19.504031,48
2021-12-10 13:52:19.504039,61
2021-12-10 13:52:19.504048,78
2021-12-10 13:52:19.504056,107
2021-12-10 13:52:19.504065,139
2021-12-10 13:52:19.683900,163
2021-12-10 13:52:19.683920,190
2021-12-10 13:52:19.683930,224
2021-12-10 13:52:19.683939,244
2021-12-10 13:52:19.683948,232
2021-12-10 13:52:19.683956,207
2021-12-10 13:52:19.683965,180
2021-12-10 13:52:19.683973,144
2021-12-10 13:52:19.683982,95
2021-12-10 13:52:19.683990,19
2021-12-10 13:52:19.683999,-58
2021-12-10 13:52:19.684007,-114
2021-12-10 13:52:19.684016,-161
2021-12-10 13:52:19.684024,-212
2021-12-10 13:52:19.684032,-246
2021-12-10 13:52:19.684041,-254
2021-12-10 13:52:19.684049,-251
2021-12-10 13:52:19.684057,-256
2021-12-10 13:52:19.684066,-251
2021-12-10 13:52:19.684074,-239
2021-12-10 13:52:19.684082,-239
2021-12-10 13:52:19.684091,-249
2021-12-10 13:52:19.684099,-239
2021-12-10 13:52:19.684108,-215
2021-12-10 13:52:19.684116,-200
2021-12-10 13:52:19.684124,-195
2021-12-10 13:52:19.684133,-198
2021-12-10 13:52:19.684141,-188
2021-12-10 13:52:19.684150,-176
2021-12-10 13:52:19.684158,-168
2021-12-10 13:52:19.908940,-158
2021-12-10 13:52:19.908962,-149
2021-12-10 13:52:19.908972,-151
2021-12-10 13:52:19.908981,-151
2021-12-10 13:52:19.908989,-149
2021-12-10 13:52:19.908998,-151
2021-12-10 13:52:19.909006,-151
2021-12-10 13:52:19.909015,-151
2021-12-10 13:52:19.909023,-156
2021-12-10 13:52:19.909032,-156
2021-12-10 13:52:19.909040,-156
2021-12-10 13:52:19.909048,-161
2021-12-10 13:52:19.909057,-166
2021-12-10 13:52:19.909065,-163
2021-12-10 13:52:19.909074,-161
2021-12-10 13:52:19.909082,-168
2021-12-10 13:52:19.909090,-173
2021-12-10 13:52:19.909099,-171
2021-12-10 13:52:19.909107,-173
2021-12-10 13:52:19.909115,-176
2021-12-10 13:52:19.909124,-168
2021-12-10 13:52:19.909132,-166
2021-12-10 13:52:19.909141,-171
2021-12-10 13:52:19.909149,-171
2021-12-10 13:52:19.909157,-163
2021-12-10 13:52:19.909166,-154
2021-12-10 13:52:19.909174,-154
2021-12-10 13:52:19.909182,-158
2021-12-10 13:52:19.909191,-154
2021-12-10 13:52:19.909199,-149
2021-12-10 13:52:20.312445,-146
2021-12-10 13:52:20.312466,-141
2021-12-10 13:52:20.312476,-144
2021-12-10 13:52:20.312484,-146
2021-12-10 13:52:20.312493,-144
2021-12-10 13:52:20.312501,-136
2021-12-10 13:52:20.312510,-129
2021-12-10 13:52:20.312518,-117
2021-12-10 13:52:20.312527,-107
2021-12-10 13:52:20.312535,-95
2021-12-10 13:52:20.312543,-92
2021-12-10 13:52:20.312552,-122
2021-12-10 13:52:20.312560,-149
2021-12-10 13:52:20.312569,-134
2021-12-10 13:52:20.312577,-119
2021-12-10 13:52:20.312586,-132
2021-12-10 13:52:20.312594,-139
2021-12-10 13:52:20.312603,-129
2021-12-10 13:52:20.312611,-122
2021-12-10 13:52:20.312620,-117
2021-12-10 13:52:20.312628,-88
2021-12-10 13:52:20.312637,-34
2021-12-10 13:52:20.312645,75
2021-12-10 13:52:20.312653,352
2021-12-10 13:52:20.312662,445
2021-12-10 13:52:20.312670,-134
2021-12-10 13:52:20.312679,-848
2021-12-10 13:52:20.312687,-858
2021-12-10 13:52:20.312696,-405
2021-12-10 13:52:20.312705,-190
2021-12-10 13:52:20.403942,-156
2021-12-10 13:52:20.403967,-48
2021-12-10 13:52:20.403977,-7
2021-12-10 13:52:20.403986,-19
2021-12-10 13:52:20.403995,4
2021-12-10 13:52:20.404004,24
2021-12-10 13:52:20.404012,29
2021-12-10 13:52:20.404021,48
2021-12-10 13:52:20.404030,51
2021-12-10 13:52:20.404038,46
2021-12-10 13:52:20.404047,58
2021-12-10 13:52:20.404055,80
2021-12-10 13:52:20.404063,92
2021-12-10 13:52:20.404072,110
2021-12-10 13:52:20.404080,134
2021-12-10 13:52:20.404089,154
2021-12-10 13:52:20.404097,180
2021-12-10 13:52:20.404106,217
2021-12-10 13:52:20.404115,246
2021-12-10 13:52:20.404123,269
2021-12-10 13:52:20.404132,281
2021-12-10 13:52:20.404140,269
2021-12-10 13:52:20.404149,249
2021-12-10 13:52:20.404157,227
2021-12-10 13:52:20.404166,176
2021-12-10 13:52:20.404174,107
2021-12-10 13:52:20.404183,31
2021-12-10 13:52:20.404191,-44
2021-12-10 13:52:20.404200,-107
2021-12-10 13:52:20.404208,-156
2021-12-10 13:52:20.674060,-193
2021-12-10 13:52:20.674081,-217
2021-12-10 13:52:20.674091,-227
2021-12-10 13:52:20.674099,-232
2021-12-10 13:52:20.674107,-227
2021-12-10 13:52:20.674115,-220
2021-12-10 13:52:20.674122,-217
2021-12-10 13:52:20.674130,-205
2021-12-10 13:52:20.674138,-202
2021-12-10 13:52:20.674145,-205
2021-12-10 13:52:20.674153,-190
2021-12-10 13:52:20.674162,-168
2021-12-10 13:52:20.674170,-161
2021-12-10 13:52:20.674178,-156
2021-12-10 13:52:20.674186,-161
2021-12-10 13:52:20.674194,-161
2021-12-10 13:52:20.674202,-146
2021-12-10 13:52:20.674210,-134
2021-12-10 13:52:20.674219,-129
2021-12-10 13:52:20.674227,-127
2021-12-10 13:52:20.674235,-127
2021-12-10 13:52:20.674243,-129
2021-12-10 13:52:20.674251,-136
2021-12-10 13:52:20.674259,-134
2021-12-10 13:52:20.674267,-129
2021-12-10 13:52:20.674274,-134
2021-12-10 13:52:20.674282,-134
2021-12-10 13:52:20.674290,-136
2021-12-10 13:52:20.674297,-144
2021-12-10 13:52:20.674305,-139
2021-12-10 13:52:20.853971,-132
2021-12-10 13:52:20.853993,-134
2021-12-10 13:52:20.854003,-141
2021-12-10 13:52:20.854011,-144
2021-12-10 13:52:20.854019,-141
2021-12-10 13:52:20.854028,-141
2021-12-10 13:52:20.854036,-136
2021-12-10 13:52:20.854044,-129
2021-12-10 13:52:20.854052,-134
2021-12-10 13:52:20.854060,-134
2021-12-10 13:52:20.854069,-127
2021-12-10 13:52:20.854076,-129
2021-12-10 13:52:20.854085,-132
2021-12-10 13:52:20.854093,-127
2021-12-10 13:52:20.854101,-127
2021-12-10 13:52:20.854109,-132
2021-12-10 13:52:20.854118,-132
2021-12-10 13:52:20.854126,-124
2021-12-10 13:52:20.854134,-119
2021-12-10 13:52:20.854142,-119
2021-12-10 13:52:20.854150,-122
2021-12-10 13:52:20.854158,-122
2021-12-10 13:52:20.854167,-122
2021-12-10 13:52:20.854175,-124
2021-12-10 13:52:20.854183,-124
2021-12-10 13:52:20.854191,-114
2021-12-10 13:52:20.854199,-117
2021-12-10 13:52:20.854208,-122
2021-12-10 13:52:20.854216,-124
2021-12-10 13:52:20.854224,-117
2021-12-10 13:52:21.078970,-107
2021-12-10 13:52:21.078991,-97
2021-12-10 13:52:21.079001,-92
2021-12-10 13:52:21.079010,-85
2021-12-10 13:52:21.079018,-78
2021-12-10 13:52:21.079027,-75
2021-12-10 13:52:21.079035,-95
2021-12-10 13:52:21.079044,-124
2021-12-10 13:52:21.079052,-122
2021-12-10 13:52:21.079061,-110
2021-12-10 13:52:21.079069,-112
2021-12-10 13:52:21.079078,-114
2021-12-10 13:52:21.079086,-107
2021-12-10 13:52:21.079094,-107
2021-12-10 13:52:21.079103,-100
2021-12-10 13:52:21.079111,-63
2021-12-10 13:52:21.079120,2
2021-12-10 13:52:21.079128,205
2021-12-10 13:52:21.079136,557
2021-12-10 13:52:21.079145,518
2021-12-10 13:52:21.079153,-129
2021-12-10 13:52:21.079161,-682
2021-12-10 13:52:21.079170,-643
2021-12-10 13:52:21.079178,-315
2021-12-10 13:52:21.079187,-149
2021-12-10 13:52:21.079195,-124
2021-12-10 13:52:21.079203,-78
2021-12-10 13:52:21.079212,-44
2021-12-10 13:52:21.079220,-39
2021-12-10 13:52:21.079228,-29
2021-12-10 13:52:21.348909,-7
2021-12-10 13:52:21.348930,2
2021-12-10 13:52:21.348940,4
2021-12-10 13:52:21.348948,14
2021-12-10 13:52:21.348957,24
2021-12-10 13:52:21.348966,34
2021-12-10 13:52:21.348974,46
2021-12-10 13:52:21.348983,53
2021-12-10 13:52:21.348991,66
2021-12-10 13:52:21.349000,92
2021-12-10 13:52:21.349008,117
2021-12-10 13:52:21.349023,134
2021-12-10 13:52:21.349032,171
2021-12-10 13:52:21.349040,205
2021-12-10 13:52:21.349049,215
2021-12-10 13:52:21.349057,224
2021-12-10 13:52:21.349066,237
2021-12-10 13:52:21.349074,227
2021-12-10 13:52:21.349083,193
2021-12-10 13:52:21.349091,149
2021-12-10 13:52:21.349099,97
2021-12-10 13:52:21.349108,26
2021-12-10 13:52:21.349116,-46
2021-12-10 13:52:21.349124,-105
2021-12-10 13:52:21.349133,-144
2021-12-10 13:52:21.349141,-176
2021-12-10 13:52:21.349150,-200
2021-12-10 13:52:21.349158,-212
2021-12-10 13:52:21.349166,-215
2021-12-10 13:52:21.349175,-210
2021-12-10 13:52:21.573933,-198
2021-12-10 13:52:21.573955,-198
2021-12-10 13:52:21.573965,-200
2021-12-10 13:52:21.573974,-188
2021-12-10 13:52:21.573982,-178
2021-12-10 13:52:21.573991,-171
2021-12-10 13:52:21.573999,-163
2021-12-10 13:52:21.574007,-154
2021-12-10 13:52:21.574016,-151
2021-12-10 13:52:21.574024,-154
2021-12-10 13:52:21.574032,-146
2021-12-10 13:52:21.574041,-134
2021-12-10 13:52:21.574049,-132
2021-12-10 13:52:21.574057,-134
2021-12-10 13:52:21.574066,-129
2021-12-10 13:52:21.574074,-124
2021-12-10 13:52:21.574083,-124
2021-12-10 13:52:21.574091,-122
2021-12-10 13:52:21.574099,-119
2021-12-10 13:52:21.574108,-122
2021-12-10 13:52:21.574116,-124
2021-12-10 13:52:21.574124,-124
2021-12-10 13:52:21.574133,-124
2021-12-10 13:52:21.574141,-122
2021-12-10 13:52:21.574150,-119
2021-12-10 13:52:21.574158,-112
2021-12-10 13:52:21.574166,-107
2021-12-10 13:52:21.574175,-110
2021-12-10 13:52:21.574183,-107
2021-12-10 13:52:21.574191,-105
2021-12-10 13:52:21.753776,-102
2021-12-10 13:52:21.753793,-97
2021-12-10 13:52:21.753803,-102
2021-12-10 13:52:21.753812,-100
2021-12-10 13:52:21.753820,-90
2021-12-10 13:52:21.753829,-88
2021-12-10 13:52:21.753837,-88
2021-12-10 13:52:21.753846,-85
2021-12-10 13:52:21.753854,-88
2021-12-10 13:52:21.753862,-85
2021-12-10 13:52:21.753871,-80
2021-12-10 13:52:21.753879,-80
2021-12-10 13:52:21.753888,-80
2021-12-10 13:52:21.753896,-78
2021-12-10 13:52:21.753904,-78
2021-12-10 13:52:21.753913,-78
2021-12-10 13:52:21.753921,-78
2021-12-10 13:52:21.753930,-80
2021-12-10 13:52:21.753938,-85
2021-12-10 13:52:21.753946,-78
2021-12-10 13:52:21.753955,-68
2021-12-10 13:52:21.753963,-70
2021-12-10 13:52:21.753972,-75
2021-12-10 13:52:21.753980,-75
2021-12-10 13:52:21.753988,-70
2021-12-10 13:52:21.753997,-70
2021-12-10 13:52:21.754005,-73
2021-12-10 13:52:21.754013,-66
2021-12-10 13:52:21.754022,-46
2021-12-10 13:52:21.754030,-34
2021-12-10 13:52:22.068897,-31
2021-12-10 13:52:22.068918,-34
2021-12-10 13:52:22.068928,-53
2021-12-10 13:52:22.068937,-75
2021-12-10 13:52:22.068946,-73
2021-12-10 13:52:22.068955,-73
2021-12-10 13:52:22.068963,-78
2021-12-10 13:52:22.068972,-70
2021-12-10 13:52:22.068980,-68
2021-12-10 13:52:22.068989,-68
2021-12-10 13:52:22.068997,-56
2021-12-10 13:52:22.069005,-22
2021-12-10 13:52:22.069014,58
2021-12-10 13:52:22.069022,298
2021-12-10 13:52:22.069031,662
2021-12-10 13:52:22.069040,596
2021-12-10 13:52:22.069048,-85
2021-12-10 13:52:22.069056,-662
2021-12-10 13:52:22.069065,-616
2021-12-10 13:52:22.069073,-271
2021-12-10 13:52:22.069082,-117
2021-12-10 13:52:22.069090,-110
2021-12-10 13:52:22.069099,-58
2021-12-10 13:52:22.069107,-17
2021-12-10 13:52:22.069115,-12
2021-12-10 13:52:22.069124,2
2021-12-10 13:52:22.069132,24
2021-12-10 13:52:22.069140,24
2021-12-10 13:52:22.069149,26
2021-12-10 13:52:22.069157,46
2021-12-10 13:52:22.247714,58
2021-12-10 13:52:22.247736,66
2021-12-10 13:52:22.247745,80
2021-12-10 13:52:22.247754,95
2021-12-10 13:52:22.247763,102
2021-12-10 13:52:22.247771,119
2021-12-10 13:52:22.247780,151
2021-12-10 13:52:22.247789,185
2021-12-10 13:52:22.247797,212
2021-12-10 13:52:22.247806,237
2021-12-10 13:52:22.247814,261
2021-12-10 13:52:22.247822,273
2021-12-10 13:52:22.247831,271
2021-12-10 13:52:22.247839,259
2021-12-10 13:52:22.247877,229
2021-12-10 13:52:22.247886,178
2021-12-10 13:52:22.247894,112
2021-12-10 13:52:22.247902,34
2021-12-10 13:52:22.247911,-36
2021-12-10 13:52:22.247919,-85
2021-12-10 13:52:22.247928,-127
2021-12-10 13:52:22.247936,-168
2021-12-10 13:52:22.247944,-202
2021-12-10 13:52:22.247952,-222
2021-12-10 13:52:22.247960,-220
2021-12-10 13:52:22.247969,-207
2021-12-10 13:52:22.247977,-210
2021-12-10 13:52:22.247985,-210
2021-12-10 13:52:22.247994,-202
2021-12-10 13:52:22.248002,-198
2021-12-10 13:52:22.474142,-185
2021-12-10 13:52:22.474162,-180
2021-12-10 13:52:22.474172,-173
2021-12-10 13:52:22.474180,-166
2021-12-10 13:52:22.474189,-166
2021-12-10 13:52:22.474197,-166
2021-12-10 13:52:22.474206,-158
2021-12-10 13:52:22.474214,-156
2021-12-10 13:52:22.474226,-166
2021-12-10 13:52:22.474234,-171
2021-12-10 13:52:22.474243,-161
2021-12-10 13:52:22.474251,-156
2021-12-10 13:52:22.474260,-161
2021-12-10 13:52:22.474268,-161
2021-12-10 13:52:22.474277,-154
2021-12-10 13:52:22.474285,-141
2021-12-10 13:52:22.474294,-141
2021-12-10 13:52:22.474302,-161
2021-12-10 13:52:22.474310,-178
2021-12-10 13:52:22.474319,-178
2021-12-10 13:52:22.474327,-163
2021-12-10 13:52:22.474336,-156
2021-12-10 13:52:22.474344,-168
2021-12-10 13:52:22.474352,-158
2021-12-10 13:52:22.474361,-132
2021-12-10 13:52:22.474369,-154
2021-12-10 13:52:22.474377,-190
2021-12-10 13:52:22.474386,-188
2021-12-10 13:52:22.474394,-163
2021-12-10 13:52:22.474402,-154
2021-12-10 13:52:22.700156,-156
2021-12-10 13:52:22.700176,-154
2021-12-10 13:52:22.700186,-151
2021-12-10 13:52:22.700194,-151
2021-12-10 13:52:22.700203,-144
2021-12-10 13:52:22.700212,-134
2021-12-10 13:52:22.700220,-136
2021-12-10 13:52:22.700228,-134
2021-12-10 13:52:22.700237,-127
2021-12-10 13:52:22.700245,-127
2021-12-10 13:52:22.700254,-136
2021-12-10 13:52:22.700262,-139
2021-12-10 13:52:22.700271,-129
2021-12-10 13:52:22.700279,-122
2021-12-10 13:52:22.700288,-122
2021-12-10 13:52:22.700296,-114
2021-12-10 13:52:22.700304,-97
2021-12-10 13:52:22.700313,-80
2021-12-10 13:52:22.700321,-78
2021-12-10 13:52:22.700330,-85
2021-12-10 13:52:22.700338,-78
2021-12-10 13:52:22.700347,-75
2021-12-10 13:52:22.700355,-100
2021-12-10 13:52:22.700363,-119
2021-12-10 13:52:22.700372,-105
2021-12-10 13:52:22.700380,-88
2021-12-10 13:52:22.700389,-95
2021-12-10 13:52:22.700397,-102
2021-12-10 13:52:22.700405,-102
2021-12-10 13:52:22.700414,-102
2021-12-10 13:52:22.923833,-68
2021-12-10 13:52:22.923851,-12
2021-12-10 13:52:22.923861,92
2021-12-10 13:52:22.923870,391
2021-12-10 13:52:22.923878,606
2021-12-10 13:52:22.923887,158
2021-12-10 13:52:22.923895,-643
2021-12-10 13:52:22.923903,-873
2021-12-10 13:52:22.923912,-476
2021-12-10 13:52:22.923920,-195
2021-12-10 13:52:22.923929,-161
2021-12-10 13:52:22.923937,-75
2021-12-10 13:52:22.923945,-14
2021-12-10 13:52:22.923954,-14
2021-12-10 13:52:22.923962,4
2021-12-10 13:52:22.923970,17
2021-12-10 13:52:22.923979,17
2021-12-10 13:52:22.923987,31
2021-12-10 13:52:22.923996,39
2021-12-10 13:52:22.924004,36
2021-12-10 13:52:22.924012,56
2021-12-10 13:52:22.924021,80
2021-12-10 13:52:22.924030,85
2021-12-10 13:52:22.924038,100
2021-12-10 13:52:22.924047,124
2021-12-10 13:52:22.924055,149
2021-12-10 13:52:22.924063,183
2021-12-10 13:52:22.924072,212
2021-12-10 13:52:22.924080,227
2021-12-10 13:52:22.924088,254
2021-12-10 13:52:23.194081,298
2021-12-10 13:52:23.194103,303
2021-12-10 13:52:23.194113,264
2021-12-10 13:52:23.194122,232
2021-12-10 13:52:23.194130,215
2021-12-10 13:52:23.194139,173
2021-12-10 13:52:23.194147,92
2021-12-10 13:52:23.194156,9
2021-12-10 13:52:23.194164,-46
2021-12-10 13:52:23.194172,-97
2021-12-10 13:52:23.194181,-168
2021-12-10 13:52:23.194189,-200
2021-12-10 13:52:23.194204,-195
2021-12-10 13:52:23.194213,-205
2021-12-10 13:52:23.194222,-212
2021-12-10 13:52:23.194230,-198
2021-12-10 13:52:23.194240,-185
2021-12-10 13:52:23.194249,-198
2021-12-10 13:52:23.194258,-200
2021-12-10 13:52:23.194266,-161
2021-12-10 13:52:23.194274,-144
2021-12-10 13:52:23.194283,-154
2021-12-10 13:52:23.194291,-141
2021-12-10 13:52:23.194299,-114
2021-12-10 13:52:23.194308,-102
2021-12-10 13:52:23.194316,-102
2021-12-10 13:52:23.194325,-105
2021-12-10 13:52:23.194333,-105
2021-12-10 13:52:23.194342,-95
2021-12-10 13:52:23.194350,-85
2021-12-10 13:52:23.418307,-73
2021-12-10 13:52:23.418326,-56
2021-12-10 13:52:23.418336,-41
2021-12-10 13:52:23.418345,-44
2021-12-10 13:52:23.418354,-53
2021-12-10 13:52:23.418362,-51
2021-12-10 13:52:23.418371,-51
2021-12-10 13:52:23.418379,-75
2021-12-10 13:52:23.418388,-83
2021-12-10 13:52:23.418396,-61
2021-12-10 13:52:23.418405,-39
2021-12-10 13:52:23.418413,-41
2021-12-10 13:52:23.418421,-51
2021-12-10 13:52:23.418430,-31
2021-12-10 13:52:23.418438,-2
2021-12-10 13:52:23.418446,-14
2021-12-10 13:52:23.418455,-26
2021-12-10 13:52:23.418463,-7
2021-12-10 13:52:23.418472,14
2021-12-10 13:52:23.418480,4
2021-12-10 13:52:23.418488,-9
2021-12-10 13:52:23.418497,-2
2021-12-10 13:52:23.418505,12
2021-12-10 13:52:23.418513,22
2021-12-10 13:52:23.418522,26
2021-12-10 13:52:23.418530,12
2021-12-10 13:52:23.418538,9
2021-12-10 13:52:23.418547,51
2021-12-10 13:52:23.418555,90
2021-12-10 13:52:23.418564,92
2021-12-10 13:52:23.598844,83
2021-12-10 13:52:23.598862,92
2021-12-10 13:52:23.598872,117
2021-12-10 13:52:23.598881,124
2021-12-10 13:52:23.598889,105
2021-12-10 13:52:23.598898,112
2021-12-10 13:52:23.598906,141
2021-12-10 13:52:23.598915,149
2021-12-10 13:52:23.598923,144
2021-12-10 13:52:23.598932,166
2021-12-10 13:52:23.598940,198
2021-12-10 13:52:23.598949,212
2021-12-10 13:52:23.598957,190
2021-12-10 13:52:23.598966,139
2021-12-10 13:52:23.598974,139
2021-12-10 13:52:23.598983,168
2021-12-10 13:52:23.598991,161
2021-12-10 13:52:23.598999,136
2021-12-10 13:52:23.599008,119
2021-12-10 13:52:23.599016,124
2021-12-10 13:52:23.599025,136
2021-12-10 13:52:23.599033,158
2021-12-10 13:52:23.599041,217
2021-12-10 13:52:23.599053,371
2021-12-10 13:52:23.599062,704
2021-12-10 13:52:23.599070,789
2021-12-10 13:52:23.599079,151
2021-12-10 13:52:23.599087,-604
2021-12-10 13:52:23.599096,-630
2021-12-10 13:52:23.599104,-171
2021-12-10 13:52:23.869916,48
2021-12-10 13:52:23.869939,78
2021-12-10 13:52:23.869949,176
2021-12-10 13:52:23.869958,207
2021-12-10 13:52:23.869966,193
2021-12-10 13:52:23.869975,227
2021-12-10 13:52:23.869983,242
2021-12-10 13:52:23.869992,227
2021-12-10 13:52:23.870000,234
2021-12-10 13:52:23.870009,251
2021-12-10 13:52:23.870017,259
2021-12-10 13:52:23.870026,266
2021-12-10 13:52:23.870034,271
2021-12-10 13:52:23.870042,276
2021-12-10 13:52:23.870050,291
2021-12-10 13:52:23.870059,313
2021-12-10 13:52:23.870067,337
2021-12-10 13:52:23.870075,354
2021-12-10 13:52:23.870084,381
2021-12-10 13:52:23.870092,408
2021-12-10 13:52:23.870100,425
2021-12-10 13:52:23.870109,435
2021-12-10 13:52:23.870117,425
2021-12-10 13:52:23.870126,403
2021-12-10 13:52:23.870134,376
2021-12-10 13:52:23.870142,327
2021-12-10 13:52:23.870151,254
2021-12-10 13:52:23.870159,171
2021-12-10 13:52:23.870167,83
2021-12-10 13:52:23.870176,12
2021-12-10 13:52:24.048925,-34
2021-12-10 13:52:24.048946,-73
2021-12-10 13:52:24.048956,-112
2021-12-10 13:52:24.048965,-136
2021-12-10 13:52:24.048974,-144
2021-12-10 13:52:24.048983,-156
2021-12-10 13:52:24.048991,-178
2021-12-10 13:52:24.049000,-180
2021-12-10 13:52:24.049009,-163
2021-12-10 13:52:24.049017,-156
2021-12-10 13:52:24.049026,-156
2021-12-10 13:52:24.049034,-151
2021-12-10 13:52:24.049043,-151
2021-12-10 13:52:24.049051,-146
2021-12-10 13:52:24.049060,-139
2021-12-10 13:52:24.049069,-141
2021-12-10 13:52:24.049077,-134
2021-12-10 13:52:24.049086,-114
2021-12-10 13:52:24.049094,-119
2021-12-10 13:52:24.049103,-141
2021-12-10 13:52:24.049112,-141
2021-12-10 13:52:24.049120,-141
2021-12-10 13:52:24.049129,-166
2021-12-10 13:52:24.049137,-158
2021-12-10 13:52:24.049146,-151
2021-12-10 13:52:24.049155,-171
2021-12-10 13:52:24.049163,-166
2021-12-10 13:52:24.049172,-158
2021-12-10 13:52:24.049180,-168
2021-12-10 13:52:24.049189,-176
2021-12-10 13:52:24.362607,-205
2021-12-10 13:52:24.362630,-215
2021-12-10 13:52:24.362639,-185
2021-12-10 13:52:24.362647,-176
2021-12-10 13:52:24.362655,-188
2021-12-10 13:52:24.362663,-193
2021-12-10 13:52:24.362670,-188
2021-12-10 13:52:24.362678,-173
2021-12-10 13:52:24.362686,-180
2021-12-10 13:52:24.362694,-212
2021-12-10 13:52:24.362701,-207
2021-12-10 13:52:24.362709,-183
2021-12-10 13:52:24.362716,-176
2021-12-10 13:52:24.362724,-163
2021-12-10 13:52:24.362732,-158
2021-12-10 13:52:24.362740,-198
2021-12-10 13:52:24.362747,-215
2021-12-10 13:52:24.362755,-180
2021-12-10 13:52:24.362763,-161
2021-12-10 13:52:24.362771,-161
2021-12-10 13:52:24.362779,-144
2021-12-10 13:52:24.362787,-127
2021-12-10 13:52:24.362795,-119
2021-12-10 13:52:24.362803,-129
2021-12-10 13:52:24.362812,-173
2021-12-10 13:52:24.362820,-202
2021-12-10 13:52:24.362828,-193
2021-12-10 13:52:24.362836,-176
2021-12-10 13:52:24.362844,-154
2021-12-10 13:52:24.362882,-156
2021-12-10 13:52:24.498879,-173
2021-12-10 13:52:24.498898,-136
2021-12-10 13:52:24.498908,-90
2021-12-10 13:52:24.498916,-70
2021-12-10 13:52:24.498925,0
2021-12-10 13:52:24.498934,276
2021-12-10 13:52:24.498943,459
2021-12-10 13:52:24.498951,-75
2021-12-10 13:52:24.498960,-919
2021-12-10 13:52:24.498968,-1024
2021-12-10 13:52:24.498977,-513
2021-12-10 13:52:24.498985,-244
2021-12-10 13:52:24.498994,-205
2021-12-10 13:52:24.499002,-73
2021-12-10 13:52:24.499011,-7
2021-12-10 13:52:24.499019,-46
2021-12-10 13:52:24.499028,-31
2021-12-10 13:52:24.499036,19
2021-12-10 13:52:24.499045,26
2021-12-10 13:52:24.499053,12
2021-12-10 13:52:24.499062,26
2021-12-10 13:52:24.499070,53
2021-12-10 13:52:24.499079,58
2021-12-10 13:52:24.499087,68
2021-12-10 13:52:24.499096,85
2021-12-10 13:52:24.499104,83
2021-12-10 13:52:24.499112,107
2021-12-10 13:52:24.499121,154
2021-12-10 13:52:24.499129,183
2021-12-10 13:52:24.499137,210
2021-12-10 13:52:24.768897,259
2021-12-10 13:52:24.768916,298
2021-12-10 13:52:24.768925,286
2021-12-10 13:52:24.768934,264
2021-12-10 13:52:24.768942,281
2021-12-10 13:52:24.768951,276
2021-12-10 13:52:24.768959,212
2021-12-10 13:52:24.768968,136
2021-12-10 13:52:24.768976,80
2021-12-10 13:52:24.768985,-14
2021-12-10 13:52:24.768993,-107
2021-12-10 13:52:24.769002,-139
2021-12-10 13:52:24.769010,-173
2021-12-10 13:52:24.769018,-190
2021-12-10 13:52:24.769028,-180
2021-12-10 13:52:24.769036,-198
2021-12-10 13:52:24.769044,-193
2021-12-10 13:52:24.769053,-168
2021-12-10 13:52:24.769061,-185
2021-12-10 13:52:24.769069,-190
2021-12-10 13:52:24.769078,-156
2021-12-10 13:52:24.769086,-136
2021-12-10 13:52:24.769095,-127
2021-12-10 13:52:24.769103,-110
2021-12-10 13:52:24.769112,-88
2021-12-10 13:52:24.769120,-70
2021-12-10 13:52:24.769128,-92
2021-12-10 13:52:24.769137,-114
2021-12-10 13:52:24.769145,-100
2021-12-10 13:52:24.769154,-92
2021-12-10 13:52:24.994000,-88
2021-12-10 13:52:24.994022,-63
2021-12-10 13:52:24.994032,-46
2021-12-10 13:52:24.994041,-56
2021-12-10 13:52:24.994050,-70
2021-12-10 13:52:24.994058,-61
2021-12-10 13:52:24.994067,-44
2021-12-10 13:52:24.994075,-61
2021-12-10 13:52:24.994084,-73
2021-12-10 13:52:24.994093,-53
2021-12-10 13:52:24.994101,-46
2021-12-10 13:52:24.994109,-41
2021-12-10 13:52:24.994118,-19
2021-12-10 13:52:24.994126,-14
2021-12-10 13:52:24.994135,-22
2021-12-10 13:52:24.994143,-9
2021-12-10 13:52:24.994152,4
2021-12-10 13:52:24.994160,4
2021-12-10 13:52:24.994169,9
2021-12-10 13:52:24.994177,17
2021-12-10 13:52:24.994186,14
2021-12-10 13:52:24.994195,17
2021-12-10 13:52:24.994203,26
2021-12-10 13:52:24.994211,22
2021-12-10 13:52:24.994220,9
2021-12-10 13:52:24.994228,9
2021-12-10 13:52:24.994237,7
2021-12-10 13:52:24.994245,-4
2021-12-10 13:52:24.994254,0
2021-12-10 13:52:24.994266,12
2021-12-10 13:52:25.218827,4
2021-12-10 13:52:25.218845,-4
2021-12-10 13:52:25.218855,14
2021-12-10 13:52:25.218863,29
2021-12-10 13:52:25.218872,34
2021-12-10 13:52:25.218881,53
2021-12-10 13:52:25.218890,58
2021-12-10 13:52:25.218898,17
2021-12-10 13:52:25.218906,-19
2021-12-10 13:52:25.218915,-7
2021-12-10 13:52:25.218923,0
2021-12-10 13:52:25.218932,-2
2021-12-10 13:52:25.218940,12
2021-12-10 13:52:25.218949,19
2021-12-10 13:52:25.218958,12
2021-12-10 13:52:25.218966,34
2021-12-10 13:52:25.218975,78
2021-12-10 13:52:25.218983,146
2021-12-10 13:52:25.218992,371
2021-12-10 13:52:25.219001,674
2021-12-10 13:52:25.219009,471
2021-12-10 13:52:25.219018,-288
2021-12-10 13:52:25.219026,-770
2021-12-10 13:52:25.219035,-574
2021-12-10 13:52:25.219043,-180
2021-12-10 13:52:25.219052,-26
2021-12-10 13:52:25.219061,7
2021-12-10 13:52:25.219069,68
2021-12-10 13:52:25.219077,95
2021-12-10 13:52:25.219086,105
2021-12-10 13:52:25.488887,127
2021-12-10 13:52:25.488906,141
2021-12-10 13:52:25.488916,139
2021-12-10 13:52:25.488925,139
2021-12-10 13:52:25.488933,151
2021-12-10 13:52:25.488942,168
2021-12-10 13:52:25.488950,183
2021-12-10 13:52:25.488959,198
2021-12-10 13:52:25.488967,195
2021-12-10 13:52:25.488976,207
2021-12-10 13:52:25.488984,249
2021-12-10 13:52:25.488997,276
2021-12-10 13:52:25.489006,283
2021-12-10 13:52:25.489014,320
2021-12-10 13:52:25.489021,366
2021-12-10 13:52:25.489028,388
2021-12-10 13:52:25.489035,396
2021-12-10 13:52:25.489041,401
2021-12-10 13:52:25.489047,383
2021-12-10 13:52:25.489054,335
2021-12-10 13:52:25.489060,281
2021-12-10 13:52:25.489066,217
2021-12-10 13:52:25.489073,146
2021-12-10 13:52:25.489079,75
2021-12-10 13:52:25.489086,17
2021-12-10 13:52:25.489094,-31
2021-12-10 13:52:25.489101,-70
2021-12-10 13:52:25.489108,-95
2021-12-10 13:52:25.489115,-102
2021-12-10 13:52:25.489121,-97
2021-12-10 13:52:25.714183,-102
2021-12-10 13:52:25.714204,-105
2021-12-10 13:52:25.714214,-90
2021-12-10 13:52:25.714223,-75
2021-12-10 13:52:25.714232,-70
2021-12-10 13:52:25.714240,-56
2021-12-10 13:52:25.714249,-39
2021-12-10 13:52:25.714258,-31
2021-12-10 13:52:25.714266,-29
2021-12-10 13:52:25.714275,-29
2021-12-10 13:52:25.714283,-24
2021-12-10 13:52:25.714292,-9
2021-12-10 13:52:25.714300,-2
2021-12-10 13:52:25.714309,-14
2021-12-10 13:52:25.714317,-12
2021-12-10 13:52:25.714326,-2
2021-12-10 13:52:25.714335,-2
2021-12-10 13:52:25.714343,7
2021-12-10 13:52:25.714351,14
2021-12-10 13:52:25.714360,-7
2021-12-10 13:52:25.714368,-19
2021-12-10 13:52:25.714376,-9
2021-12-10 13:52:25.714385,-14
2021-12-10 13:52:25.714393,-22
2021-12-10 13:52:25.714402,-12
2021-12-10 13:52:25.714410,-7
2021-12-10 13:52:25.714418,-14
2021-12-10 13:52:25.714427,-17
2021-12-10 13:52:25.714435,-12
2021-12-10 13:52:25.714443,-9
2021-12-10 13:52:25.893883,-19
2021-12-10 13:52:25.893903,-19
2021-12-10 13:52:25.893912,-9
2021-12-10 13:52:25.893921,-9
2021-12-10 13:52:25.893930,-12
2021-12-10 13:52:25.893938,-12
2021-12-10 13:52:25.893947,-29
2021-12-10 13:52:25.893955,-31
2021-12-10 13:52:25.893963,-22
2021-12-10 13:52:25.893971,-17
2021-12-10 13:52:25.893980,-17
2021-12-10 13:52:25.893988,-22
2021-12-10 13:52:25.893997,-34
2021-12-10 13:52:25.894005,-31
2021-12-10 13:52:25.894014,-34
2021-12-10 13:52:25.894022,-34
2021-12-10 13:52:25.894030,-31
2021-12-10 13:52:25.894039,-44
2021-12-10 13:52:25.894047,-48
2021-12-10 13:52:25.894056,-26
2021-12-10 13:52:25.894064,-7
2021-12-10 13:52:25.894072,2
2021-12-10 13:52:25.894081,7
2021-12-10 13:52:25.894089,0
2021-12-10 13:52:25.894098,-29
2021-12-10 13:52:25.894106,-48
2021-12-10 13:52:25.894115,-44
2021-12-10 13:52:25.894124,-44
2021-12-10 13:52:25.894132,-48
2021-12-10 13:52:25.894140,-46
2021-12-10 13:52:26.164685,-44
2021-12-10 13:52:26.164706,-48
2021-12-10 13:52:26.164715,-36
2021-12-10 13:52:26.164724,9
2021-12-10 13:52:26.164733,92
2021-12-10 13:52:26.164742,339
2021-12-10 13:52:26.164750,655
2021-12-10 13:52:26.164759,410
2021-12-10 13:52:26.164767,-437
2021-12-10 13:52:26.164776,-929
2021-12-10 13:52:26.164784,-630
2021-12-10 13:52:26.164793,-215
2021-12-10 13:52:26.164802,-134
2021-12-10 13:52:26.164810,-100
2021-12-10 13:52:26.164818,-12
2021-12-10 13:52:26.164827,0
2021-12-10 13:52:26.164835,7
2021-12-10 13:52:26.164844,39
2021-12-10 13:52:26.164852,46
2021-12-10 13:52:26.164861,41
2021-12-10 13:52:26.164869,48
2021-12-10 13:52:26.164878,68
2021-12-10 13:52:26.164886,85
2021-12-10 13:52:26.164895,100
2021-12-10 13:52:26.164903,117
2021-12-10 13:52:26.164911,129
2021-12-10 13:52:26.164920,141
2021-12-10 13:52:26.164928,168
2021-12-10 13:52:26.164937,193
2021-12-10 13:52:26.164945,224
2021-12-10 13:52:26.387593,264
2021-12-10 13:52:26.387613,298
2021-12-10 13:52:26.387623,313
2021-12-10 13:52:26.387632,310
2021-12-10 13:52:26.387640,288
2021-12-10 13:52:26.387649,259
2021-12-10 13:52:26.387657,227
2021-12-10 13:52:26.387666,178
2021-12-10 13:52:26.387675,102
2021-12-10 13:52:26.387683,17
2021-12-10 13:52:26.387691,-58
2021-12-10 13:52:26.387700,-122
2021-12-10 13:52:26.387708,-168
2021-12-10 13:52:26.387717,-200
2021-12-10 13:52:26.387725,-232
2021-12-10 13:52:26.387734,-254
2021-12-10 13:52:26.387742,-251
2021-12-10 13:52:26.387751,-249
2021-12-10 13:52:26.387759,-261
2021-12-10 13:52:26.387768,-261
2021-12-10 13:52:26.387776,-246
2021-12-10 13:52:26.387784,-239
2021-12-10 13:52:26.387793,-242
2021-12-10 13:52:26.387801,-232
2021-12-10 13:52:26.387810,-217
2021-12-10 13:52:26.387818,-220
2021-12-10 13:52:26.387827,-217
2021-12-10 13:52:26.387835,-210
2021-12-10 13:52:26.387843,-210
2021-12-10 13:52:26.387852,-220
2021-12-10 13:52:26.658976,-220
2021-12-10 13:52:26.658997,-207
2021-12-10 13:52:26.659006,-205
2021-12-10 13:52:26.659015,-215
2021-12-10 13:52:26.659023,-227
2021-12-10 13:52:26.659032,-229
2021-12-10 13:52:26.659041,-239
2021-12-10 13:52:26.659049,-249
2021-12-10 13:52:26.659058,-251
2021-12-10 13:52:26.659066,-264
2021-12-10 13:52:26.659075,-283
2021-12-10 13:52:26.659083,-283
2021-12-10 13:52:26.659092,-276
2021-12-10 13:52:26.659100,-283
2021-12-10 13:52:26.659109,-295
2021-12-10 13:52:26.659117,-300
2021-12-10 13:52:26.659125,-298
2021-12-10 13:52:26.659134,-303
2021-12-10 13:52:26.659142,-310
2021-12-10 13:52:26.659151,-308
2021-12-10 13:52:26.659159,-308
2021-12-10 13:52:26.659168,-313
2021-12-10 13:52:26.659176,-310
2021-12-10 13:52:26.659184,-303
2021-12-10 13:52:26.659193,-298
2021-12-10 13:52:26.659201,-303
2021-12-10 13:52:26.659210,-303
2021-12-10 13:52:26.659218,-295
2021-12-10 13:52:26.659230,-286
2021-12-10 13:52:26.659238,-283
2021-12-10 13:52:26.793987,-283
2021-12-10 13:52:26.794008,-281
2021-12-10 13:52:26.794018,-288
2021-12-10 13:52:26.794027,-315
2021-12-10 13:52:26.794035,-322
2021-12-10 13:52:26.794044,-313
2021-12-10 13:52:26.794053,-317
2021-12-10 13:52:26.794061,-325
2021-12-10 13:52:26.794070,-317
2021-12-10 13:52:26.794078,-322
2021-12-10 13:52:26.794087,-322
2021-12-10 13:52:26.794096,-269
2021-12-10 13:52:26.794104,-202
2021-12-10 13:52:26.794113,-127
2021-12-10 13:52:26.794121,95
2021-12-10 13:52:26.794130,154
2021-12-10 13:52:26.794138,-469
2021-12-10 13:52:26.794147,-1254
2021-12-10 13:52:26.794155,-1244
2021-12-10 13:52:26.794164,-684
2021-12-10 13:52:26.794173,-418
2021-12-10 13:52:26.794182,-393
2021-12-10 13:52:26.794190,-256
2021-12-10 13:52:26.794199,-173
2021-12-10 13:52:26.794208,-188
2021-12-10 13:52:26.794216,-158
2021-12-10 13:52:26.794225,-127
2021-12-10 13:52:26.794233,-144
2021-12-10 13:52:26.794242,-141
2021-12-10 13:52:26.794250,-110
2021-12-10 13:52:27.063866,-95
2021-12-10 13:52:27.063884,-90
2021-12-10 13:52:27.063894,-75
2021-12-10 13:52:27.063903,-63
2021-12-10 13:52:27.063911,-44
2021-12-10 13:52:27.063920,-7
2021-12-10 13:52:27.063928,26
2021-12-10 13:52:27.063937,56
2021-12-10 13:52:27.063945,88
2021-12-10 13:52:27.063954,122
2021-12-10 13:52:27.063963,149
2021-12-10 13:52:27.063971,166
2021-12-10 13:52:27.063980,168
2021-12-10 13:52:27.063988,154
2021-12-10 13:52:27.063996,117
2021-12-10 13:52:27.064005,66
2021-12-10 13:52:27.064013,2
2021-12-10 13:52:27.064022,-78
2021-12-10 13:52:27.064030,-158
2021-12-10 13:52:27.064039,-222
2021-12-10 13:52:27.064047,-276
2021-12-10 13:52:27.064056,-317
2021-12-10 13:52:27.064064,-342
2021-12-10 13:52:27.064073,-352
2021-12-10 13:52:27.064081,-347
2021-12-10 13:52:27.064090,-347
2021-12-10 13:52:27.064098,-352
2021-12-10 13:52:27.064107,-344
2021-12-10 13:52:27.064116,-322
2021-12-10 13:52:27.064124,-303
2021-12-10 13:52:27.289054,-293
2021-12-10 13:52:27.289076,-286
2021-12-10 13:52:27.289086,-269
2021-12-10 13:52:27.289095,-254
2021-12-10 13:52:27.289104,-246
2021-12-10 13:52:27.289113,-232
2021-12-10 13:52:27.289121,-220
2021-12-10 13:52:27.289130,-210
2021-12-10 13:52:27.289138,-200
2021-12-10 13:52:27.289147,-198
2021-12-10 13:52:27.289155,-200
2021-12-10 13:52:27.289164,-198
2021-12-10 13:52:27.289172,-193
2021-12-10 13:52:27.289181,-195
2021-12-10 13:52:27.289189,-205
2021-12-10 13:52:27.289197,-207
2021-12-10 13:52:27.289206,-200
2021-12-10 13:52:27.289214,-198
2021-12-10 13:52:27.289223,-198
2021-12-10 13:52:27.289232,-200
2021-12-10 13:52:27.289240,-207
2021-12-10 13:52:27.289248,-205
2021-12-10 13:52:27.289257,-193
2021-12-10 13:52:27.289265,-190
2021-12-10 13:52:27.289274,-193
2021-12-10 13:52:27.289282,-188
2021-12-10 13:52:27.289291,-180
2021-12-10 13:52:27.289299,-183
2021-12-10 13:52:27.289308,-183
2021-12-10 13:52:27.289316,-168
2021-12-10 13:52:27.513911,-161
2021-12-10 13:52:27.513925,-166
2021-12-10 13:52:27.513930,-166
2021-12-10 13:52:27.513935,-158
2021-12-10 13:52:27.513939,-151
2021-12-10 13:52:27.513944,-154
2021-12-10 13:52:27.513948,-161
2021-12-10 13:52:27.513952,-151
2021-12-10 13:52:27.513957,-136
2021-12-10 13:52:27.513961,-129
2021-12-10 13:52:27.513965,-117
2021-12-10 13:52:27.513970,-102
2021-12-10 13:52:27.513974,-105
2021-12-10 13:52:27.513978,-119
2021-12-10 13:52:27.513983,-141
2021-12-10 13:52:27.513987,-156
2021-12-10 13:52:27.513992,-151
2021-12-10 13:52:27.513996,-144
2021-12-10 13:52:27.514001,-141
2021-12-10 13:52:27.514005,-139
2021-12-10 13:52:27.514009,-136
2021-12-10 13:52:27.514014,-139
2021-12-10 13:52:27.514018,-129
2021-12-10 13:52:27.514022,-75
2021-12-10 13:52:27.514027,41
2021-12-10 13:52:27.514031,337
2021-12-10 13:52:27.514035,560
2021-12-10 13:52:27.514040,92
2021-12-10 13:52:27.514044,-758
2021-12-10 13:52:27.514049,-990
2021-12-10 13:52:27.738924,-547
2021-12-10 13:52:27.738942,-237
2021-12-10 13:52:27.738951,-202
2021-12-10 13:52:27.738960,-105
2021-12-10 13:52:27.738969,-22
2021-12-10 13:52:27.738977,-31
2021-12-10 13:52:27.738986,-22
2021-12-10 13:52:27.738994,4
2021-12-10 13:52:27.739003,7
2021-12-10 13:52:27.739011,19
2021-12-10 13:52:27.739020,36
2021-12-10 13:52:27.739028,41
2021-12-10 13:52:27.739037,46
2021-12-10 13:52:27.739045,56
2021-12-10 13:52:27.739054,78
2021-12-10 13:52:27.739062,102
2021-12-10 13:52:27.739071,122
2021-12-10 13:52:27.739079,151
2021-12-10 13:52:27.739088,185
2021-12-10 13:52:27.739096,207
2021-12-10 13:52:27.739105,242
2021-12-10 13:52:27.739113,286
2021-12-10 13:52:27.739122,305
2021-12-10 13:52:27.739130,300
2021-12-10 13:52:27.739139,283
2021-12-10 13:52:27.739147,256
2021-12-10 13:52:27.739156,222
2021-12-10 13:52:27.739164,168
2021-12-10 13:52:27.739173,97
2021-12-10 13:52:27.739181,26
2021-12-10 13:52:27.964026,-44
2021-12-10 13:52:27.964048,-107
2021-12-10 13:52:27.964058,-146
2021-12-10 13:52:27.964066,-163
2021-12-10 13:52:27.964075,-173
2021-12-10 13:52:27.964084,-185
2021-12-10 13:52:27.964092,-185
2021-12-10 13:52:27.964101,-178
2021-12-10 13:52:27.964109,-168
2021-12-10 13:52:27.964117,-158
2021-12-10 13:52:27.964126,-146
2021-12-10 13:52:27.964134,-141
2021-12-10 13:52:27.964143,-139
2021-12-10 13:52:27.964151,-129
2021-12-10 13:52:27.964160,-112
2021-12-10 13:52:27.964168,-105
2021-12-10 13:52:27.964176,-105
2021-12-10 13:52:27.964185,-92
2021-12-10 13:52:27.964193,-83
2021-12-10 13:52:27.964201,-83
2021-12-10 13:52:27.964210,-80
2021-12-10 13:52:27.964218,-73
2021-12-10 13:52:27.964227,-70
2021-12-10 13:52:27.964235,-73
2021-12-10 13:52:27.964244,-70
2021-12-10 13:52:27.964252,-70
2021-12-10 13:52:27.964260,-78
2021-12-10 13:52:27.964269,-85
2021-12-10 13:52:27.964277,-88
2021-12-10 13:52:27.964285,-85
2021-12-10 13:52:28.189080,-83
2021-12-10 13:52:28.189102,-80
2021-12-10 13:52:28.189111,-73
2021-12-10 13:52:28.189120,-70
2021-12-10 13:52:28.189129,-75
2021-12-10 13:52:28.189137,-75
2021-12-10 13:52:28.189145,-68
2021-12-10 13:52:28.189154,-63
2021-12-10 13:52:28.189162,-58
2021-12-10 13:52:28.189171,-61
2021-12-10 13:52:28.189179,-53
2021-12-10 13:52:28.189187,-48
2021-12-10 13:52:28.189196,-63
2021-12-10 13:52:28.189204,-68
2021-12-10 13:52:28.189212,-53
2021-12-10 13:52:28.189221,-41
2021-12-10 13:52:28.189229,-39
2021-12-10 13:52:28.189237,-36
2021-12-10 13:52:28.189246,-29
2021-12-10 13:52:28.189254,-26
2021-12-10 13:52:28.189262,-36
2021-12-10 13:52:28.189271,-39
2021-12-10 13:52:28.189279,-31
2021-12-10 13:52:28.189287,-14
2021-12-10 13:52:28.189296,0
2021-12-10 13:52:28.189304,4
2021-12-10 13:52:28.189312,19
2021-12-10 13:52:28.189321,39
2021-12-10 13:52:28.189329,34
2021-12-10 13:52:28.189337,12
2021-12-10 13:52:28.457608,0
2021-12-10 13:52:28.457628,4
2021-12-10 13:52:28.457637,2
2021-12-10 13:52:28.457646,-7
2021-12-10 13:52:28.457654,-12
2021-12-10 13:52:28.457663,-12
2021-12-10 13:52:28.457671,-7
2021-12-10 13:52:28.457680,9
2021-12-10 13:52:28.457688,63
2021-12-10 13:52:28.457696,178
2021-12-10 13:52:28.457705,464
2021-12-10 13:52:28.457713,765
2021-12-10 13:52:28.457721,479
2021-12-10 13:52:28.457730,-327
2021-12-10 13:52:28.457738,-767
2021-12-10 13:52:28.457746,-508
2021-12-10 13:52:28.457755,-136
2021-12-10 13:52:28.457763,-34
2021-12-10 13:52:28.457771,7
2021-12-10 13:52:28.457780,80
2021-12-10 13:52:28.457788,102
2021-12-10 13:52:28.457796,102
2021-12-10 13:52:28.457805,119
2021-12-10 13:52:28.457820,134
2021-12-10 13:52:28.457828,146
2021-12-10 13:52:28.457837,156
2021-12-10 13:52:28.457845,158
2021-12-10 13:52:28.457854,161
2021-12-10 13:52:28.457862,168
2021-12-10 13:52:28.457870,183
2021-12-10 13:52:28.639044,205
2021-12-10 13:52:28.639066,227
2021-12-10 13:52:28.639076,254
2021-12-10 13:52:28.639085,286
2021-12-10 13:52:28.639094,313
2021-12-10 13:52:28.639102,342
2021-12-10 13:52:28.639111,379
2021-12-10 13:52:28.639120,405
2021-12-10 13:52:28.639128,420
2021-12-10 13:52:28.639137,415
2021-12-10 13:52:28.639146,381
2021-12-10 13:52:28.639154,347
2021-12-10 13:52:28.639163,310
2021-12-10 13:52:28.639171,237
2021-12-10 13:52:28.639180,144
2021-12-10 13:52:28.639189,70
2021-12-10 13:52:28.639197,14
2021-12-10 13:52:28.639206,-26
2021-12-10 13:52:28.639215,-61
2021-12-10 13:52:28.639223,-80
2021-12-10 13:52:28.639232,-88
2021-12-10 13:52:28.639241,-85
2021-12-10 13:52:28.639249,-78
2021-12-10 13:52:28.639258,-83
2021-12-10 13:52:28.639266,-83
2021-12-10 13:52:28.639275,-61
2021-12-10 13:52:28.639284,-46
2021-12-10 13:52:28.639292,-41
2021-12-10 13:52:28.639301,-31
2021-12-10 13:52:28.639309,-24
2021-12-10 13:52:28.953906,-19
2021-12-10 13:52:28.953925,-12
2021-12-10 13:52:28.953935,-14
2021-12-10 13:52:28.953943,-22
2021-12-10 13:52:28.953952,-12
2021-12-10 13:52:28.953961,-2
2021-12-10 13:52:28.953969,-2
2021-12-10 13:52:28.953978,-2
2021-12-10 13:52:28.953987,-2
2021-12-10 13:52:28.953995,-12
2021-12-10 13:52:28.954004,-14
2021-12-10 13:52:28.954012,-7
2021-12-10 13:52:28.954021,-12
2021-12-10 13:52:28.954029,-14
2021-12-10 13:52:28.954037,-12
2021-12-10 13:52:28.954046,-19
2021-12-10 13:52:28.954054,-22
2021-12-10 13:52:28.954062,-17
2021-12-10 13:52:28.954071,-22
2021-12-10 13:52:28.954079,-26
2021-12-10 13:52:28.954088,-22
2021-12-10 13:52:28.954096,-22
2021-12-10 13:52:28.954104,-24
2021-12-10 13:52:28.954113,-24
2021-12-10 13:52:28.954121,-26
2021-12-10 13:52:28.954129,-31
2021-12-10 13:52:28.954138,-29
2021-12-10 13:52:28.954146,-26
2021-12-10 13:52:28.954154,-31
2021-12-10 13:52:28.954163,-31
2021-12-10 13:52:29.133865,-26
2021-12-10 13:52:29.133883,-26
2021-12-10 13:52:29.133893,-29
2021-12-10 13:52:29.133901,-31
2021-12-10 13:52:29.133910,-36
2021-12-10 13:52:29.133918,-46
2021-12-10 13:52:29.133927,-51
2021-12-10 13:52:29.133936,-48
2021-12-10 13:52:29.133944,-51
2021-12-10 13:52:29.133953,-61
2021-12-10 13:52:29.133961,-63
2021-12-10 13:52:29.133970,-61
2021-12-10 13:52:29.133978,-70
2021-12-10 13:52:29.133987,-75
2021-12-10 13:52:29.133995,-61
2021-12-10 13:52:29.134004,-63
2021-12-10 13:52:29.134013,-68
2021-12-10 13:52:29.134021,-53
2021-12-10 13:52:29.134029,-56
2021-12-10 13:52:29.134038,-78
2021-12-10 13:52:29.134046,-102
2021-12-10 13:52:29.134055,-117
2021-12-10 13:52:29.134063,-114
2021-12-10 13:52:29.134071,-112
2021-12-10 13:52:29.134080,-117
2021-12-10 13:52:29.134088,-124
2021-12-10 13:52:29.134097,-132
2021-12-10 13:52:29.134105,-134
2021-12-10 13:52:29.134114,-97
2021-12-10 13:52:29.134122,-17
2021-12-10 13:52:29.403932,146
2021-12-10 13:52:29.403951,486
2021-12-10 13:52:29.403961,557
2021-12-10 13:52:29.403969,-90
2021-12-10 13:52:29.403978,-821
2021-12-10 13:52:29.403987,-858
2021-12-10 13:52:29.403995,-425
2021-12-10 13:52:29.404004,-198
2021-12-10 13:52:29.404012,-173
2021-12-10 13:52:29.404021,-92
2021-12-10 13:52:29.404029,-44
2021-12-10 13:52:29.404037,-51
2021-12-10 13:52:29.404046,-31
2021-12-10 13:52:29.404054,-7
2021-12-10 13:52:29.404063,-19
2021-12-10 13:52:29.404071,-31
2021-12-10 13:52:29.404080,-22
2021-12-10 13:52:29.404088,-12
2021-12-10 13:52:29.404097,-9
2021-12-10 13:52:29.404105,2
2021-12-10 13:52:29.404113,17
2021-12-10 13:52:29.404122,26
2021-12-10 13:52:29.404130,48
2021-12-10 13:52:29.404139,75
2021-12-10 13:52:29.404147,97
2021-12-10 13:52:29.404156,134
2021-12-10 13:52:29.404164,176
2021-12-10 13:52:29.404173,195
2021-12-10 13:52:29.404181,195
2021-12-10 13:52:29.404189,190
2021-12-10 13:52:29.584408,178
2021-12-10 13:52:29.584426,144
2021-12-10 13:52:29.584435,97
2021-12-10 13:52:29.584444,44
2021-12-10 13:52:29.584452,-31
2021-12-10 13:52:29.584461,-117
2021-12-10 13:52:29.584469,-180
2021-12-10 13:52:29.584478,-237
2021-12-10 13:52:29.584486,-286
2021-12-10 13:52:29.584494,-317
2021-12-10 13:52:29.584503,-339
2021-12-10 13:52:29.584511,-347
2021-12-10 13:52:29.584519,-339
2021-12-10 13:52:29.584528,-337
2021-12-10 13:52:29.584536,-344
2021-12-10 13:52:29.584545,-347
2021-12-10 13:52:29.584553,-337
2021-12-10 13:52:29.584561,-325
2021-12-10 13:52:29.584570,-322
2021-12-10 13:52:29.584578,-327
2021-12-10 13:52:29.584586,-317
2021-12-10 13:52:29.584595,-293
2021-12-10 13:52:29.584603,-286
2021-12-10 13:52:29.584612,-293
2021-12-10 13:52:29.584620,-281
2021-12-10 13:52:29.584628,-273
2021-12-10 13:52:29.584637,-278
2021-12-10 13:52:29.584645,-276
2021-12-10 13:52:29.584654,-271
2021-12-10 13:52:29.584662,-271
2021-12-10 13:52:29.943440,-264
2021-12-10 13:52:29.943462,-271
2021-12-10 13:52:29.943472,-278
2021-12-10 13:52:29.943481,-271
2021-12-10 13:52:29.943489,-266
2021-12-10 13:52:29.943498,-273
2021-12-10 13:52:29.943506,-278
2021-12-10 13:52:29.943515,-278
2021-12-10 13:52:29.943523,-286
2021-12-10 13:52:29.943532,-295
2021-12-10 13:52:29.943540,-293
2021-12-10 13:52:29.943549,-288
2021-12-10 13:52:29.943558,-300
2021-12-10 13:52:29.943566,-315
2021-12-10 13:52:29.943574,-308
2021-12-10 13:52:29.943583,-300
2021-12-10 13:52:29.943591,-310
2021-12-10 13:52:29.943600,-313
2021-12-10 13:52:29.943609,-308
2021-12-10 13:52:29.943617,-305
2021-12-10 13:52:29.943626,-305
2021-12-10 13:52:29.943634,-308
2021-12-10 13:52:29.943642,-308
2021-12-10 13:52:29.943651,-303
2021-12-10 13:52:29.943659,-300
2021-12-10 13:52:29.943668,-298
2021-12-10 13:52:29.943676,-291
2021-12-10 13:52:29.943684,-278
2021-12-10 13:52:29.943693,-264
2021-12-10 13:52:29.943701,-251
2021-12-10 13:52:30.033968,-246
2021-12-10 13:52:30.033987,-259
2021-12-10 13:52:30.033997,-273
2021-12-10 13:52:30.034006,-281
2021-12-10 13:52:30.034015,-276
2021-12-10 13:52:30.034023,-276
2021-12-10 13:52:30.034032,-286
2021-12-10 13:52:30.034040,-286
2021-12-10 13:52:30.034049,-278
2021-12-10 13:52:30.034057,-281
2021-12-10 13:52:30.034066,-271
2021-12-10 13:52:30.034074,-229
2021-12-10 13:52:30.034083,-166
2021-12-10 13:52:30.034091,-56
2021-12-10 13:52:30.034100,190
2021-12-10 13:52:30.034108,237
2021-12-10 13:52:30.034116,-398
2021-12-10 13:52:30.034125,-1159
2021-12-10 13:52:30.034133,-1134
2021-12-10 13:52:30.034142,-606
2021-12-10 13:52:30.034150,-364
2021-12-10 13:52:30.034159,-330
2021-12-10 13:52:30.034167,-202
2021-12-10 13:52:30.034175,-127
2021-12-10 13:52:30.034183,-139
2021-12-10 13:52:30.034192,-119
2021-12-10 13:52:30.034200,-92
2021-12-10 13:52:30.034208,-90
2021-12-10 13:52:30.034217,-75
2021-12-10 13:52:30.034225,-58
2021-12-10 13:52:30.258934,-61
2021-12-10 13:52:30.258952,-58
2021-12-10 13:52:30.258961,-31
2021-12-10 13:52:30.258970,-9
2021-12-10 13:52:30.258979,7
2021-12-10 13:52:30.258987,29
2021-12-10 13:52:30.258996,58
2021-12-10 13:52:30.259004,90
2021-12-10 13:52:30.259013,127
2021-12-10 13:52:30.259022,163
2021-12-10 13:52:30.259030,190
2021-12-10 13:52:30.259038,202
2021-12-10 13:52:30.259047,195
2021-12-10 13:52:30.259055,178
2021-12-10 13:52:30.259064,151
2021-12-10 13:52:30.259072,105
2021-12-10 13:52:30.259080,36
2021-12-10 13:52:30.259089,-41
2021-12-10 13:52:30.259097,-117
2021-12-10 13:52:30.259106,-178
2021-12-10 13:52:30.259114,-234
2021-12-10 13:52:30.259122,-286
2021-12-10 13:52:30.259131,-305
2021-12-10 13:52:30.259139,-308
2021-12-10 13:52:30.259147,-320
2021-12-10 13:52:30.259156,-322
2021-12-10 13:52:30.259164,-315
2021-12-10 13:52:30.259173,-305
2021-12-10 13:52:30.259181,-295
2021-12-10 13:52:30.259189,-276
2021-12-10 13:52:30.528416,-256
2021-12-10 13:52:30.528438,-251
2021-12-10 13:52:30.528448,-242
2021-12-10 13:52:30.528457,-222
2021-12-10 13:52:30.528465,-220
2021-12-10 13:52:30.528474,-220
2021-12-10 13:52:30.528482,-205
2021-12-10 13:52:30.528490,-188
2021-12-10 13:52:30.528499,-183
2021-12-10 13:52:30.528507,-183
2021-12-10 13:52:30.528516,-183
2021-12-10 13:52:30.528524,-178
2021-12-10 13:52:30.528532,-176
2021-12-10 13:52:30.528541,-180
2021-12-10 13:52:30.528549,-176
2021-12-10 13:52:30.528558,-166
2021-12-10 13:52:30.528566,-176
2021-12-10 13:52:30.528578,-183
2021-12-10 13:52:30.528587,-176
2021-12-10 13:52:30.528595,-173
2021-12-10 13:52:30.528603,-171
2021-12-10 13:52:30.528612,-156
2021-12-10 13:52:30.528620,-166
2021-12-10 13:52:30.528629,-183
2021-12-10 13:52:30.528637,-154
2021-12-10 13:52:30.528645,-119
2021-12-10 13:52:30.528654,-146
2021-12-10 13:52:30.528662,-193
2021-12-10 13:52:30.528670,-183
2021-12-10 13:52:30.528679,-139
2021-12-10 13:52:30.753406,-112
2021-12-10 13:52:30.753423,-114
2021-12-10 13:52:30.753433,-141
2021-12-10 13:52:30.753441,-146
2021-12-10 13:52:30.753450,-107
2021-12-10 13:52:30.753459,-85
2021-12-10 13:52:30.753467,-90
2021-12-10 13:52:30.753476,-56
2021-12-10 13:52:30.753484,-14
2021-12-10 13:52:30.753492,-14
2021-12-10 13:52:30.753501,-26
2021-12-10 13:52:30.753509,-22
2021-12-10 13:52:30.753518,-12
2021-12-10 13:52:30.753526,-2
2021-12-10 13:52:30.753534,7
2021-12-10 13:52:30.753543,12
2021-12-10 13:52:30.753551,22
2021-12-10 13:52:30.753560,41
2021-12-10 13:52:30.753568,56
2021-12-10 13:52:30.753576,44
2021-12-10 13:52:30.753585,19
2021-12-10 13:52:30.753593,14
2021-12-10 13:52:30.753602,29
2021-12-10 13:52:30.753610,36
2021-12-10 13:52:30.753619,24
2021-12-10 13:52:30.753627,19
2021-12-10 13:52:30.753636,26
2021-12-10 13:52:30.753644,31
2021-12-10 13:52:30.753652,48
2021-12-10 13:52:30.753661,110
2021-12-10 13:52:30.934055,217
2021-12-10 13:52:30.934076,486
2021-12-10 13:52:30.934086,772
2021-12-10 13:52:30.934095,447
2021-12-10 13:52:30.934103,-369
2021-12-10 13:52:30.934112,-738
2021-12-10 13:52:30.934120,-432
2021-12-10 13:52:30.934129,-88
2021-12-10 13:52:30.934137,-2
2021-12-10 13:52:30.934146,46
2021-12-10 13:52:30.934154,114
2021-12-10 13:52:30.934163,122
2021-12-10 13:52:30.934171,127
2021-12-10 13:52:30.934180,151
2021-12-10 13:52:30.934188,154
2021-12-10 13:52:30.934197,149
2021-12-10 13:52:30.934205,154
2021-12-10 13:52:30.934214,161
2021-12-10 13:52:30.934222,166
2021-12-10 13:52:30.934231,173
2021-12-10 13:52:30.934239,183
2021-12-10 13:52:30.934248,193
2021-12-10 13:52:30.934256,207
2021-12-10 13:52:30.934265,229
2021-12-10 13:52:30.934273,254
2021-12-10 13:52:30.934282,286
2021-12-10 13:52:30.934290,317
2021-12-10 13:52:30.934299,337
2021-12-10 13:52:30.934307,347
2021-12-10 13:52:30.934315,354
2021-12-10 13:52:31.203760,357
2021-12-10 13:52:31.203774,330
2021-12-10 13:52:31.203779,278
2021-12-10 13:52:31.203784,217
2021-12-10 13:52:31.203789,151
2021-12-10 13:52:31.203793,68
2021-12-10 13:52:31.203798,-14
2021-12-10 13:52:31.203803,-66
2021-12-10 13:52:31.203807,-110
2021-12-10 13:52:31.203812,-161
2021-12-10 13:52:31.203816,-180
2021-12-10 13:52:31.203821,-173
2021-12-10 13:52:31.203825,-168
2021-12-10 13:52:31.203830,-171
2021-12-10 13:52:31.203834,-173
2021-12-10 13:52:31.203839,-161
2021-12-10 13:52:31.203844,-146
2021-12-10 13:52:31.203848,-144
2021-12-10 13:52:31.203853,-141
2021-12-10 13:52:31.203857,-127
2021-12-10 13:52:31.203862,-122
2021-12-10 13:52:31.203866,-122
2021-12-10 13:52:31.203871,-110
2021-12-10 13:52:31.203875,-100
2021-12-10 13:52:31.203880,-97
2021-12-10 13:52:31.203884,-90
2021-12-10 13:52:31.203889,-83
2021-12-10 13:52:31.203893,-83
2021-12-10 13:52:31.203898,-83
2021-12-10 13:52:31.203902,-80
2021-12-10 13:52:31.518349,-75
2021-12-10 13:52:31.518368,-80
2021-12-10 13:52:31.518377,-90
2021-12-10 13:52:31.518386,-90
2021-12-10 13:52:31.518395,-83
2021-12-10 13:52:31.518403,-83
2021-12-10 13:52:31.518412,-88
2021-12-10 13:52:31.518421,-85
2021-12-10 13:52:31.518429,-88
2021-12-10 13:52:31.518438,-88
2021-12-10 13:52:31.518446,-90
2021-12-10 13:52:31.518454,-95
2021-12-10 13:52:31.518463,-97
2021-12-10 13:52:31.518471,-88
2021-12-10 13:52:31.518480,-88
2021-12-10 13:52:31.518488,-95
2021-12-10 13:52:31.518496,-90
2021-12-10 13:52:31.518505,-88
2021-12-10 13:52:31.518513,-83
2021-12-10 13:52:31.518522,-83
2021-12-10 13:52:31.518530,-97
2021-12-10 13:52:31.518538,-95
2021-12-10 13:52:31.518547,-83
2021-12-10 13:52:31.518555,-83
2021-12-10 13:52:31.518563,-85
2021-12-10 13:52:31.518572,-83
2021-12-10 13:52:31.518580,-90
2021-12-10 13:52:31.518589,-100
2021-12-10 13:52:31.518597,-97
2021-12-10 13:52:31.518605,-95
2021-12-10 13:52:31.653930,-95
2021-12-10 13:52:31.653949,-85
2021-12-10 13:52:31.653959,-75
2021-12-10 13:52:31.653967,-68
2021-12-10 13:52:31.653976,-58
2021-12-10 13:52:31.653985,-44
2021-12-10 13:52:31.653993,-48
2021-12-10 13:52:31.654001,-78
2021-12-10 13:52:31.654010,-107
2021-12-10 13:52:31.654018,-105
2021-12-10 13:52:31.654027,-90
2021-12-10 13:52:31.654035,-90
2021-12-10 13:52:31.654044,-90
2021-12-10 13:52:31.654052,-92
2021-12-10 13:52:31.654061,-92
2021-12-10 13:52:31.654069,-83
2021-12-10 13:52:31.654077,-48
2021-12-10 13:52:31.654086,17
2021-12-10 13:52:31.654094,198
2021-12-10 13:52:31.654103,569
2021-12-10 13:52:31.654111,626
2021-12-10 13:52:31.654120,-39
2021-12-10 13:52:31.654128,-740
2021-12-10 13:52:31.654137,-765
2021-12-10 13:52:31.654145,-359
2021-12-10 13:52:31.654154,-132
2021-12-10 13:52:31.654162,-102
2021-12-10 13:52:31.654171,-36
2021-12-10 13:52:31.654179,0
2021-12-10 13:52:31.654188,-2
2021-12-10 13:52:31.923954,17
2021-12-10 13:52:31.923974,31
2021-12-10 13:52:31.923983,34
2021-12-10 13:52:31.923992,39
2021-12-10 13:52:31.924001,44
2021-12-10 13:52:31.924009,48
2021-12-10 13:52:31.924018,51
2021-12-10 13:52:31.924026,53
2021-12-10 13:52:31.924035,61
2021-12-10 13:52:31.924043,75
2021-12-10 13:52:31.924052,90
2021-12-10 13:52:31.924060,117
2021-12-10 13:52:31.924068,149
2021-12-10 13:52:31.924077,176
2021-12-10 13:52:31.924085,202
2021-12-10 13:52:31.924094,224
2021-12-10 13:52:31.924102,234
2021-12-10 13:52:31.924110,227
2021-12-10 13:52:31.924119,205
2021-12-10 13:52:31.924127,173
2021-12-10 13:52:31.924135,129
2021-12-10 13:52:31.924144,63
2021-12-10 13:52:31.924152,-22
2021-12-10 13:52:31.924160,-97
2021-12-10 13:52:31.924169,-163
2021-12-10 13:52:31.924177,-229
2021-12-10 13:52:31.924185,-278
2021-12-10 13:52:31.924194,-303
2021-12-10 13:52:31.924202,-310
2021-12-10 13:52:31.924210,-320
2021-12-10 13:52:32.148306,-335
2021-12-10 13:52:32.148325,-335
2021-12-10 13:52:32.148334,-327
2021-12-10 13:52:32.148343,-332
2021-12-10 13:52:32.148352,-337
2021-12-10 13:52:32.148360,-332
2021-12-10 13:52:32.148369,-325
2021-12-10 13:52:32.148378,-327
2021-12-10 13:52:32.148386,-325
2021-12-10 13:52:32.148395,-313
2021-12-10 13:52:32.148403,-308
2021-12-10 13:52:32.148412,-305
2021-12-10 13:52:32.148420,-308
2021-12-10 13:52:32.148429,-310
2021-12-10 13:52:32.148437,-305
2021-12-10 13:52:32.148446,-303
2021-12-10 13:52:32.148454,-305
2021-12-10 13:52:32.148463,-303
2021-12-10 13:52:32.148471,-305
2021-12-10 13:52:32.148480,-308
2021-12-10 13:52:32.148488,-300
2021-12-10 13:52:32.148497,-303
2021-12-10 13:52:32.148505,-315
2021-12-10 13:52:32.148513,-313
2021-12-10 13:52:32.148522,-308
2021-12-10 13:52:32.148530,-313
2021-12-10 13:52:32.148539,-320
2021-12-10 13:52:32.148547,-325
2021-12-10 13:52:32.148555,-330
2021-12-10 13:52:32.148564,-330
2021-12-10 13:52:32.329080,-325
2021-12-10 13:52:32.329103,-325
2021-12-10 13:52:32.329112,-330
2021-12-10 13:52:32.329121,-330
2021-12-10 13:52:32.329130,-330
2021-12-10 13:52:32.329138,-339
2021-12-10 13:52:32.329146,-344
2021-12-10 13:52:32.329155,-342
2021-12-10 13:52:32.329163,-349
2021-12-10 13:52:32.329171,-354
2021-12-10 13:52:32.329180,-354
2021-12-10 13:52:32.329188,-361
2021-12-10 13:52:32.329197,-359
2021-12-10 13:52:32.329205,-352
2021-12-10 13:52:32.329213,-354
2021-12-10 13:52:32.329222,-352
2021-12-10 13:52:32.329230,-349
2021-12-10 13:52:32.329239,-357
2021-12-10 13:52:32.329247,-361
2021-12-10 13:52:32.329255,-379
2021-12-10 13:52:32.329264,-401
2021-12-10 13:52:32.329272,-396
2021-12-10 13:52:32.329280,-393
2021-12-10 13:52:32.329289,-398
2021-12-10 13:52:32.329297,-393
2021-12-10 13:52:32.329305,-396
2021-12-10 13:52:32.329314,-401
2021-12-10 13:52:32.329322,-376
2021-12-10 13:52:32.329330,-322
2021-12-10 13:52:32.329339,-256
2021-12-10 13:52:32.598200,-83
2021-12-10 13:52:32.598218,207
2021-12-10 13:52:32.598227,83
2021-12-10 13:52:32.598236,-692
2021-12-10 13:52:32.598245,-1234
2021-12-10 13:52:32.598253,-990
2021-12-10 13:52:32.598262,-572
2021-12-10 13:52:32.598270,-449
2021-12-10 13:52:32.598279,-376
2021-12-10 13:52:32.598287,-259
2021-12-10 13:52:32.598296,-237
2021-12-10 13:52:32.598304,-237
2021-12-10 13:52:32.598313,-200
2021-12-10 13:52:32.598321,-183
2021-12-10 13:52:32.598329,-173
2021-12-10 13:52:32.598338,-151
2021-12-10 13:52:32.598346,-149
2021-12-10 13:52:32.598354,-139
2021-12-10 13:52:32.598363,-114
2021-12-10 13:52:32.598371,-105
2021-12-10 13:52:32.598380,-97
2021-12-10 13:52:32.598388,-70
2021-12-10 13:52:32.598397,-36
2021-12-10 13:52:32.598405,-7
2021-12-10 13:52:32.598414,24
2021-12-10 13:52:32.598422,61
2021-12-10 13:52:32.598431,100
2021-12-10 13:52:32.598439,124
2021-12-10 13:52:32.598448,129
2021-12-10 13:52:32.598456,124
2021-12-10 13:52:32.779166,114
2021-12-10 13:52:32.779189,83
2021-12-10 13:52:32.779199,31
2021-12-10 13:52:32.779207,-31
2021-12-10 13:52:32.779216,-107
2021-12-10 13:52:32.779225,-185
2021-12-10 13:52:32.779233,-237
2021-12-10 13:52:32.779241,-273
2021-12-10 13:52:32.779250,-310
2021-12-10 13:52:32.779259,-330
2021-12-10 13:52:32.779267,-337
2021-12-10 13:52:32.779276,-337
2021-12-10 13:52:32.779284,-322
2021-12-10 13:52:32.779293,-308
2021-12-10 13:52:32.779304,-308
2021-12-10 13:52:32.779313,-305
2021-12-10 13:52:32.779321,-295
2021-12-10 13:52:32.779330,-278
2021-12-10 13:52:32.779338,-264
2021-12-10 13:52:32.779347,-254
2021-12-10 13:52:32.779355,-239
2021-12-10 13:52:32.779364,-229
2021-12-10 13:52:32.779372,-227
2021-12-10 13:52:32.779381,-217
2021-12-10 13:52:32.779389,-207
2021-12-10 13:52:32.779397,-195
2021-12-10 13:52:32.779406,-188
2021-12-10 13:52:32.779414,-193
2021-12-10 13:52:32.779423,-183
2021-12-10 13:52:32.779431,-166
2021-12-10 13:52:33.004074,-163
2021-12-10 13:52:33.004096,-163
2021-12-10 13:52:33.004106,-163
2021-12-10 13:52:33.004115,-163
2021-12-10 13:52:33.004123,-158
2021-12-10 13:52:33.004132,-158
2021-12-10 13:52:33.004140,-154
2021-12-10 13:52:33.004149,-139
2021-12-10 13:52:33.004157,-144
2021-12-10 13:52:33.004165,-151
2021-12-10 13:52:33.004174,-139
2021-12-10 13:52:33.004182,-124
2021-12-10 13:52:33.004191,-119
2021-12-10 13:52:33.004199,-110
2021-12-10 13:52:33.004208,-100
2021-12-10 13:52:33.004216,-100
2021-12-10 13:52:33.004224,-92
2021-12-10 13:52:33.004233,-83
2021-12-10 13:52:33.004241,-75
2021-12-10 13:52:33.004250,-61
2021-12-10 13:52:33.004258,-48
2021-12-10 13:52:33.004267,-46
2021-12-10 13:52:33.004275,-51
2021-12-10 13:52:33.004284,-44
2021-12-10 13:52:33.004292,-29
2021-12-10 13:52:33.004300,-34
2021-12-10 13:52:33.004309,-53
2021-12-10 13:52:33.004317,-44
2021-12-10 13:52:33.004325,-12
2021-12-10 13:52:33.004334,2
2021-12-10 13:52:33.274155,2
2021-12-10 13:52:33.274177,7
2021-12-10 13:52:33.274187,2
2021-12-10 13:52:33.274196,-4
2021-12-10 13:52:33.274205,-22
2021-12-10 13:52:33.274214,-34
2021-12-10 13:52:33.274223,-14
2021-12-10 13:52:33.274231,-2
2021-12-10 13:52:33.274239,-17
2021-12-10 13:52:33.274248,-29
2021-12-10 13:52:33.274257,-29
2021-12-10 13:52:33.274265,-19
2021-12-10 13:52:33.274274,17
2021-12-10 13:52:33.274283,73
2021-12-10 13:52:33.274291,171
2021-12-10 13:52:33.274300,413
2021-12-10 13:52:33.274309,530
2021-12-10 13:52:33.274317,83
2021-12-10 13:52:33.274326,-569
2021-12-10 13:52:33.274334,-716
2021-12-10 13:52:33.274343,-347
2021-12-10 13:52:33.274351,-14
2021-12-10 13:52:33.274360,88
2021-12-10 13:52:33.274368,149
2021-12-10 13:52:33.274377,202
2021-12-10 13:52:33.274386,249
2021-12-10 13:52:33.274394,305
2021-12-10 13:52:33.274403,337
2021-12-10 13:52:33.274411,342
2021-12-10 13:52:33.274420,337
2021-12-10 13:52:33.543930,310
2021-12-10 13:52:33.543949,300
2021-12-10 13:52:33.543958,310
2021-12-10 13:52:33.543967,305
2021-12-10 13:52:33.543976,332
2021-12-10 13:52:33.543984,427
2021-12-10 13:52:33.543993,530
2021-12-10 13:52:33.544001,630
2021-12-10 13:52:33.544010,765
2021-12-10 13:52:33.544018,892
2021-12-10 13:52:33.544027,975
2021-12-10 13:52:33.544035,1044
2021-12-10 13:52:33.544044,1073
2021-12-10 13:52:33.544052,1051
2021-12-10 13:52:33.544061,1036
2021-12-10 13:52:33.544069,1039
2021-12-10 13:52:33.544078,1014
2021-12-10 13:52:33.544086,963
2021-12-10 13:52:33.544095,892
2021-12-10 13:52:33.544103,811
2021-12-10 13:52:33.544112,740
2021-12-10 13:52:33.544120,687
2021-12-10 13:52:33.544129,655
2021-12-10 13:52:33.544137,638
2021-12-10 13:52:33.544146,633
2021-12-10 13:52:33.544154,655
2021-12-10 13:52:33.544163,670
2021-12-10 13:52:33.544171,657
2021-12-10 13:52:33.544180,643
2021-12-10 13:52:33.544188,648
2021-12-10 13:52:33.769217,672
2021-12-10 13:52:33.769237,682
2021-12-10 13:52:33.769247,679
2021-12-10 13:52:33.769256,699
2021-12-10 13:52:33.769265,723
2021-12-10 13:52:33.769274,753
2021-12-10 13:52:33.769283,782
2021-12-10 13:52:33.769291,797
2021-12-10 13:52:33.769300,794
2021-12-10 13:52:33.769308,792
2021-12-10 13:52:33.769317,797
2021-12-10 13:52:33.769325,797
2021-12-10 13:52:33.769334,780
2021-12-10 13:52:33.769342,765
2021-12-10 13:52:33.769351,753
2021-12-10 13:52:33.769359,745
2021-12-10 13:52:33.769368,750
2021-12-10 13:52:33.769376,753
2021-12-10 13:52:33.769385,743
2021-12-10 13:52:33.769393,726
2021-12-10 13:52:33.769402,709
2021-12-10 13:52:33.769410,704
2021-12-10 13:52:33.769418,701
2021-12-10 13:52:33.769427,679
2021-12-10 13:52:33.769436,657
2021-12-10 13:52:33.769447,662
2021-12-10 13:52:33.769455,655
2021-12-10 13:52:33.769464,638
2021-12-10 13:52:33.769472,648
2021-12-10 13:52:33.769480,657
2021-12-10 13:52:34.039069,655
2021-12-10 13:52:34.039091,655
2021-12-10 13:52:34.039100,655
2021-12-10 13:52:34.039109,660
2021-12-10 13:52:34.039118,667
2021-12-10 13:52:34.039127,674
2021-12-10 13:52:34.039136,677
2021-12-10 13:52:34.039144,672
2021-12-10 13:52:34.039153,665
2021-12-10 13:52:34.039161,660
2021-12-10 13:52:34.039170,667
2021-12-10 13:52:34.039179,662
2021-12-10 13:52:34.039187,655
2021-12-10 13:52:34.039196,662
2021-12-10 13:52:34.039204,662
2021-12-10 13:52:34.039213,655
2021-12-10 13:52:34.039221,648
2021-12-10 13:52:34.039230,635
2021-12-10 13:52:34.039239,621
2021-12-10 13:52:34.039247,613
2021-12-10 13:52:34.039256,611
2021-12-10 13:52:34.039264,601
2021-12-10 13:52:34.039273,589
2021-12-10 13:52:34.039281,591
2021-12-10 13:52:34.039290,601
2021-12-10 13:52:34.039298,621
2021-12-10 13:52:34.039307,694
2021-12-10 13:52:34.039315,892
2021-12-10 13:52:34.039324,1291
2021-12-10 13:52:34.039332,1494
2021-12-10 13:52:34.219025,978
2021-12-10 13:52:34.219045,97
2021-12-10 13:52:34.219053,-200
2021-12-10 13:52:34.219060,261
2021-12-10 13:52:34.219067,618
2021-12-10 13:52:34.219074,599
2021-12-10 13:52:34.219081,630
2021-12-10 13:52:34.219088,692
2021-12-10 13:52:34.219094,670
2021-12-10 13:52:34.219101,660
2021-12-10 13:52:34.219109,679
2021-12-10 13:52:34.219116,682
2021-12-10 13:52:34.219123,677
2021-12-10 13:52:34.219130,674
2021-12-10 13:52:34.219137,660
2021-12-10 13:52:34.219145,655
2021-12-10 13:52:34.219152,674
2021-12-10 13:52:34.219160,687
2021-12-10 13:52:34.219168,687
2021-12-10 13:52:34.219176,699
2021-12-10 13:52:34.219184,723
2021-12-10 13:52:34.219192,745
2021-12-10 13:52:34.219200,765
2021-12-10 13:52:34.219208,789
2021-12-10 13:52:34.219216,809
2021-12-10 13:52:34.219224,802
2021-12-10 13:52:34.219232,787
2021-12-10 13:52:34.219239,762
2021-12-10 13:52:34.219246,714
2021-12-10 13:52:34.219252,648
2021-12-10 13:52:34.442878,560
2021-12-10 13:52:34.442900,454
2021-12-10 13:52:34.442910,337
2021-12-10 13:52:34.442919,215
2021-12-10 13:52:34.442927,107
2021-12-10 13:52:34.442936,19
2021-12-10 13:52:34.442944,-63
2021-12-10 13:52:34.442953,-134
2021-12-10 13:52:34.442961,-198
2021-12-10 13:52:34.442970,-251
2021-12-10 13:52:34.442978,-303
2021-12-10 13:52:34.442987,-364
2021-12-10 13:52:34.442995,-425
2021-12-10 13:52:34.443003,-467
2021-12-10 13:52:34.443012,-498
2021-12-10 13:52:34.443020,-538
2021-12-10 13:52:34.443028,-574
2021-12-10 13:52:34.443037,-604
2021-12-10 13:52:34.443045,-640
2021-12-10 13:52:34.443053,-682
2021-12-10 13:52:34.443062,-716
2021-12-10 13:52:34.443070,-748
2021-12-10 13:52:34.443079,-782
2021-12-10 13:52:34.443087,-819
2021-12-10 13:52:34.443095,-843
2021-12-10 13:52:34.443104,-863
2021-12-10 13:52:34.443112,-885
2021-12-10 13:52:34.443121,-899
2021-12-10 13:52:34.443129,-909
2021-12-10 13:52:34.443137,-921
2021-12-10 13:52:34.667794,-924
2021-12-10 13:52:34.667817,-919
2021-12-10 13:52:34.667826,-921
2021-12-10 13:52:34.667835,-919
2021-12-10 13:52:34.667844,-909
2021-12-10 13:52:34.667852,-917
2021-12-10 13:52:34.667861,-924
2021-12-10 13:52:34.667869,-909
2021-12-10 13:52:34.667878,-890
2021-12-10 13:52:34.667886,-885
2021-12-10 13:52:34.667895,-882
2021-12-10 13:52:34.667903,-885
2021-12-10 13:52:34.667912,-882
2021-12-10 13:52:34.667920,-877
2021-12-10 13:52:34.667929,-870
2021-12-10 13:52:34.667937,-860
2021-12-10 13:52:34.667945,-851
2021-12-10 13:52:34.667954,-848
2021-12-10 13:52:34.667962,-848
2021-12-10 13:52:34.667971,-843
2021-12-10 13:52:34.667979,-833
2021-12-10 13:52:34.667988,-826
2021-12-10 13:52:34.667996,-819
2021-12-10 13:52:34.668004,-802
2021-12-10 13:52:34.668013,-780
2021-12-10 13:52:34.668021,-770
2021-12-10 13:52:34.668030,-772
2021-12-10 13:52:34.668038,-787
2021-12-10 13:52:34.668047,-807
2021-12-10 13:52:34.668055,-807
2021-12-10 13:52:34.849104,-794
2021-12-10 13:52:34.849126,-789
2021-12-10 13:52:34.849136,-792
2021-12-10 13:52:34.849144,-792
2021-12-10 13:52:34.849153,-784
2021-12-10 13:52:34.849161,-760
2021-12-10 13:52:34.849170,-714
2021-12-10 13:52:34.849178,-650
2021-12-10 13:52:34.849186,-493
2021-12-10 13:52:34.849194,-176
2021-12-10 13:52:34.849203,-205
2021-12-10 13:52:34.849211,-980
2021-12-10 13:52:34.849220,-1675
2021-12-10 13:52:34.849228,-1489
2021-12-10 13:52:34.849236,-968
2021-12-10 13:52:34.849245,-797
2021-12-10 13:52:34.849253,-750
2021-12-10 13:52:34.849262,-611
2021-12-10 13:52:34.849270,-567
2021-12-10 13:52:34.849278,-577
2021-12-10 13:52:34.849287,-538
2021-12-10 13:52:34.849295,-520
2021-12-10 13:52:34.849303,-525
2021-12-10 13:52:34.849312,-508
2021-12-10 13:52:34.849320,-493
2021-12-10 13:52:34.849328,-479
2021-12-10 13:52:34.849337,-457
2021-12-10 13:52:34.849345,-442
2021-12-10 13:52:34.849353,-423
2021-12-10 13:52:34.849362,-396
2021-12-10 13:52:35.074135,-366
2021-12-10 13:52:35.074157,-332
2021-12-10 13:52:35.074167,-295
2021-12-10 13:52:35.074176,-261
2021-12-10 13:52:35.074184,-229
2021-12-10 13:52:35.074193,-200
2021-12-10 13:52:35.074202,-183
2021-12-10 13:52:35.074210,-188
2021-12-10 13:52:35.074219,-205
2021-12-10 13:52:35.074227,-229
2021-12-10 13:52:35.074236,-273
2021-12-10 13:52:35.074244,-342
2021-12-10 13:52:35.074253,-418
2021-12-10 13:52:35.074261,-489
2021-12-10 13:52:35.074270,-550
2021-12-10 13:52:35.074279,-589
2021-12-10 13:52:35.074287,-616
2021-12-10 13:52:35.074296,-638
2021-12-10 13:52:35.074304,-652
2021-12-10 13:52:35.074313,-655
2021-12-10 13:52:35.074321,-648
2021-12-10 13:52:35.074330,-645
2021-12-10 13:52:35.074338,-638
2021-12-10 13:52:35.074347,-621
2021-12-10 13:52:35.074356,-601
2021-12-10 13:52:35.074364,-574
2021-12-10 13:52:35.074373,-552
2021-12-10 13:52:35.074381,-550
2021-12-10 13:52:35.074390,-538
2021-12-10 13:52:35.074398,-518
2021-12-10 13:52:35.343908,-506
2021-12-10 13:52:35.343926,-496
2021-12-10 13:52:35.343936,-489
2021-12-10 13:52:35.343945,-489
2021-12-10 13:52:35.343954,-484
2021-12-10 13:52:35.343963,-467
2021-12-10 13:52:35.343971,-459
2021-12-10 13:52:35.343980,-459
2021-12-10 13:52:35.343988,-464
2021-12-10 13:52:35.343997,-467
2021-12-10 13:52:35.344005,-459
2021-12-10 13:52:35.344013,-459
2021-12-10 13:52:35.344022,-457
2021-12-10 13:52:35.344030,-449
2021-12-10 13:52:35.344039,-445
2021-12-10 13:52:35.344047,-445
2021-12-10 13:52:35.344056,-437
2021-12-10 13:52:35.344064,-427
2021-12-10 13:52:35.344073,-427
2021-12-10 13:52:35.344084,-425
2021-12-10 13:52:35.344093,-413
2021-12-10 13:52:35.344102,-405
2021-12-10 13:52:35.344110,-398
2021-12-10 13:52:35.344119,-379
2021-12-10 13:52:35.344127,-369
2021-12-10 13:52:35.344136,-359
2021-12-10 13:52:35.344144,-342
2021-12-10 13:52:35.344153,-339
2021-12-10 13:52:35.344161,-357
2021-12-10 13:52:35.344170,-371
2021-12-10 13:52:35.569050,-371
2021-12-10 13:52:35.569070,-361
2021-12-10 13:52:35.569080,-359
2021-12-10 13:52:35.569089,-359
2021-12-10 13:52:35.569098,-357
2021-12-10 13:52:35.569106,-349
2021-12-10 13:52:35.569115,-344
2021-12-10 13:52:35.569123,-325
2021-12-10 13:52:35.569132,-276
2021-12-10 13:52:35.569140,-185
2021-12-10 13:52:35.569149,56
2021-12-10 13:52:35.569158,359
2021-12-10 13:52:35.569166,92
2021-12-10 13:52:35.569174,-833
2021-12-10 13:52:35.569183,-1315
2021-12-10 13:52:35.569191,-885
2021-12-10 13:52:35.569200,-462
2021-12-10 13:52:35.569209,-420
2021-12-10 13:52:35.569217,-320
2021-12-10 13:52:35.569226,-193
2021-12-10 13:52:35.569234,-202
2021-12-10 13:52:35.569243,-193
2021-12-10 13:52:35.569251,-141
2021-12-10 13:52:35.569260,-134
2021-12-10 13:52:35.569268,-139
2021-12-10 13:52:35.569277,-129
2021-12-10 13:52:35.569285,-119
2021-12-10 13:52:35.569293,-100
2021-12-10 13:52:35.569302,-78
2021-12-10 13:52:35.569310,-58
2021-12-10 13:52:35.838462,-36
2021-12-10 13:52:35.838484,-12
2021-12-10 13:52:35.838494,14
2021-12-10 13:52:35.838503,44
2021-12-10 13:52:35.838512,80
2021-12-10 13:52:35.838520,119
2021-12-10 13:52:35.838529,154
2021-12-10 13:52:35.838537,168
2021-12-10 13:52:35.838546,163
2021-12-10 13:52:35.838554,154
2021-12-10 13:52:35.838563,132
2021-12-10 13:52:35.838571,90
2021-12-10 13:52:35.838580,26
2021-12-10 13:52:35.838588,-58
2021-12-10 13:52:35.838597,-144
2021-12-10 13:52:35.838605,-212
2021-12-10 13:52:35.838614,-261
2021-12-10 13:52:35.838622,-305
2021-12-10 13:52:35.838630,-332
2021-12-10 13:52:35.838638,-352
2021-12-10 13:52:35.838647,-364
2021-12-10 13:52:35.838655,-359
2021-12-10 13:52:35.838664,-344
2021-12-10 13:52:35.838672,-339
2021-12-10 13:52:35.838681,-332
2021-12-10 13:52:35.838689,-315
2021-12-10 13:52:35.838697,-300
2021-12-10 13:52:35.838706,-283
2021-12-10 13:52:35.838714,-269
2021-12-10 13:52:35.838722,-264
2021-12-10 13:52:36.018954,-256
2021-12-10 13:52:36.018973,-244
2021-12-10 13:52:36.018982,-237
2021-12-10 13:52:36.018991,-227
2021-12-10 13:52:36.019000,-220
2021-12-10 13:52:36.019009,-220
2021-12-10 13:52:36.019017,-220
2021-12-10 13:52:36.019026,-215
2021-12-10 13:52:36.019034,-215
2021-12-10 13:52:36.019042,-217
2021-12-10 13:52:36.019051,-217
2021-12-10 13:52:36.019059,-212
2021-12-10 13:52:36.019068,-215
2021-12-10 13:52:36.019076,-222
2021-12-10 13:52:36.019085,-220
2021-12-10 13:52:36.019094,-215
2021-12-10 13:52:36.019102,-212
2021-12-10 13:52:36.019110,-215
2021-12-10 13:52:36.019119,-210
2021-12-10 13:52:36.019127,-210
2021-12-10 13:52:36.019136,-210
2021-12-10 13:52:36.019144,-198
2021-12-10 13:52:36.019152,-185
2021-12-10 13:52:36.019161,-195
2021-12-10 13:52:36.019169,-207
2021-12-10 13:52:36.019178,-198
2021-12-10 13:52:36.019186,-190
2021-12-10 13:52:36.019194,-193
2021-12-10 13:52:36.019203,-185
2021-12-10 13:52:36.019211,-183
2021-12-10 13:52:36.288994,-180
2021-12-10 13:52:36.289027,-173
2021-12-10 13:52:36.289036,-183
2021-12-10 13:52:36.289045,-198
2021-12-10 13:52:36.289054,-176
2021-12-10 13:52:36.289062,-149
2021-12-10 13:52:36.289071,-154
2021-12-10 13:52:36.289079,-154
2021-12-10 13:52:36.289088,-154
2021-12-10 13:52:36.289096,-180
2021-12-10 13:52:36.289105,-190
2021-12-10 13:52:36.289113,-149
2021-12-10 13:52:36.289122,-110
2021-12-10 13:52:36.289131,-132
2021-12-10 13:52:36.289139,-222
2021-12-10 13:52:36.289148,-244
2021-12-10 13:52:36.289156,-168
2021-12-10 13:52:36.289165,-127
2021-12-10 13:52:36.289173,-100
2021-12-10 13:52:36.289182,58
2021-12-10 13:52:36.289190,403
2021-12-10 13:52:36.289199,530
2021-12-10 13:52:36.289207,-29
2021-12-10 13:52:36.289216,-758
2021-12-10 13:52:36.289224,-868
2021-12-10 13:52:36.289233,-481
2021-12-10 13:52:36.289241,-229
2021-12-10 13:52:36.289249,-183
2021-12-10 13:52:36.289258,-112
2021-12-10 13:52:36.289266,-63
2021-12-10 13:52:36.513952,-68
2021-12-10 13:52:36.513970,-61
2021-12-10 13:52:36.513980,-34
2021-12-10 13:52:36.513989,-22
2021-12-10 13:52:36.513997,-19
2021-12-10 13:52:36.514006,-12
2021-12-10 13:52:36.514015,-4
2021-12-10 13:52:36.514023,2
2021-12-10 13:52:36.514031,12
2021-12-10 13:52:36.514040,24
2021-12-10 13:52:36.514048,46
2021-12-10 13:52:36.514057,66
2021-12-10 13:52:36.514065,73
2021-12-10 13:52:36.514074,102
2021-12-10 13:52:36.514082,146
2021-12-10 13:52:36.514091,176
2021-12-10 13:52:36.514099,193
2021-12-10 13:52:36.514107,202
2021-12-10 13:52:36.514116,202
2021-12-10 13:52:36.514124,190
2021-12-10 13:52:36.514135,163
2021-12-10 13:52:36.514143,124
2021-12-10 13:52:36.514152,73
2021-12-10 13:52:36.514160,14
2021-12-10 13:52:36.514168,-56
2021-12-10 13:52:36.514176,-124
2021-12-10 13:52:36.514185,-163
2021-12-10 13:52:36.514193,-188
2021-12-10 13:52:36.514202,-224
2021-12-10 13:52:36.514210,-249
2021-12-10 13:52:36.783163,-246
2021-12-10 13:52:36.783220,-246
2021-12-10 13:52:36.783228,-261
2021-12-10 13:52:36.783236,-251
2021-12-10 13:52:36.783279,-227
2021-12-10 13:52:36.783287,-220
2021-12-10 13:52:36.783294,-215
2021-12-10 13:52:36.783302,-200
2021-12-10 13:52:36.783349,-198
2021-12-10 13:52:36.783357,-200
2021-12-10 13:52:36.783365,-198
2021-12-10 13:52:36.783373,-185
2021-12-10 13:52:36.783414,-171
2021-12-10 13:52:36.783421,-173
2021-12-10 13:52:36.783429,-190
2021-12-10 13:52:36.783437,-190
2021-12-10 13:52:36.783480,-173
2021-12-10 13:52:36.783488,-173
2021-12-10 13:52:36.783496,-185
2021-12-10 13:52:36.783537,-180
2021-12-10 13:52:36.783545,-171
2021-12-10 13:52:36.783554,-178
2021-12-10 13:52:36.783562,-185
2021-12-10 13:52:36.783602,-178
2021-12-10 13:52:36.783610,-176
2021-12-10 13:52:36.783618,-195
2021-12-10 13:52:36.783626,-198
2021-12-10 13:52:36.783667,-178
2021-12-10 13:52:36.783675,-168
2021-12-10 13:52:36.783682,-171
2021-12-10 13:52:36.964121,-168
2021-12-10 13:52:36.964143,-173
2021-12-10 13:52:36.964153,-173
2021-12-10 13:52:36.964162,-156
2021-12-10 13:52:36.964170,-161
2021-12-10 13:52:36.964179,-185
2021-12-10 13:52:36.964187,-185
2021-12-10 13:52:36.964196,-161
2021-12-10 13:52:36.964204,-151
2021-12-10 13:52:36.964212,-156
2021-12-10 13:52:36.964221,-151
2021-12-10 13:52:36.964229,-141
2021-12-10 13:52:36.964238,-134
2021-12-10 13:52:36.964246,-127
2021-12-10 13:52:36.964255,-124
2021-12-10 13:52:36.964263,-134
2021-12-10 13:52:36.964272,-161
2021-12-10 13:52:36.964280,-178
2021-12-10 13:52:36.964288,-156
2021-12-10 13:52:36.964297,-139
2021-12-10 13:52:36.964305,-151
2021-12-10 13:52:36.964314,-161
2021-12-10 13:52:36.964322,-151
2021-12-10 13:52:36.964330,-139
2021-12-10 13:52:36.964339,-117
2021-12-10 13:52:36.964347,-51
2021-12-10 13:52:36.964356,102
2021-12-10 13:52:36.964364,374
2021-12-10 13:52:36.964372,369
2021-12-10 13:52:36.964381,-183
2021-12-10 13:52:37.189370,-733
2021-12-10 13:52:37.189392,-743
2021-12-10 13:52:37.189402,-405
2021-12-10 13:52:37.189411,-188
2021-12-10 13:52:37.189420,-146
2021-12-10 13:52:37.189428,-102
2021-12-10 13:52:37.189437,-58
2021-12-10 13:52:37.189445,-46
2021-12-10 13:52:37.189454,-39
2021-12-10 13:52:37.189462,-26
2021-12-10 13:52:37.189471,-19
2021-12-10 13:52:37.189480,-24
2021-12-10 13:52:37.189488,-17
2021-12-10 13:52:37.189497,0
2021-12-10 13:52:37.189505,0
2021-12-10 13:52:37.189514,2
2021-12-10 13:52:37.189522,17
2021-12-10 13:52:37.189531,29
2021-12-10 13:52:37.189539,41
2021-12-10 13:52:37.189548,66
2021-12-10 13:52:37.189556,95
2021-12-10 13:52:37.189565,119
2021-12-10 13:52:37.189573,146
2021-12-10 13:52:37.189582,166
2021-12-10 13:52:37.189590,171
2021-12-10 13:52:37.189598,166
2021-12-10 13:52:37.189607,158
2021-12-10 13:52:37.189616,141
2021-12-10 13:52:37.189624,105
2021-12-10 13:52:37.189633,41
2021-12-10 13:52:37.414118,-29
2021-12-10 13:52:37.414140,-83
2021-12-10 13:52:37.414150,-134
2021-12-10 13:52:37.414159,-183
2021-12-10 13:52:37.414167,-227
2021-12-10 13:52:37.414176,-256
2021-12-10 13:52:37.414184,-256
2021-12-10 13:52:37.414193,-246
2021-12-10 13:52:37.414201,-251
2021-12-10 13:52:37.414209,-254
2021-12-10 13:52:37.414218,-234
2021-12-10 13:52:37.414226,-222
2021-12-10 13:52:37.414235,-220
2021-12-10 13:52:37.414243,-207
2021-12-10 13:52:37.414252,-202
2021-12-10 13:52:37.414260,-207
2021-12-10 13:52:37.414268,-202
2021-12-10 13:52:37.414277,-185
2021-12-10 13:52:37.414285,-176
2021-12-10 13:52:37.414294,-173
2021-12-10 13:52:37.414302,-171
2021-12-10 13:52:37.414311,-166
2021-12-10 13:52:37.414319,-168
2021-12-10 13:52:37.414327,-163
2021-12-10 13:52:37.414336,-156
2021-12-10 13:52:37.414344,-158
2021-12-10 13:52:37.414353,-161
2021-12-10 13:52:37.414361,-161
2021-12-10 13:52:37.414370,-163
2021-12-10 13:52:37.414378,-161
2021-12-10 13:52:37.639148,-151
2021-12-10 13:52:37.639170,-149
2021-12-10 13:52:37.639179,-158
2021-12-10 13:52:37.639188,-156
2021-12-10 13:52:37.639197,-151
2021-12-10 13:52:37.639205,-154
2021-12-10 13:52:37.639214,-154
2021-12-10 13:52:37.639223,-154
2021-12-10 13:52:37.639231,-156
2021-12-10 13:52:37.639240,-161
2021-12-10 13:52:37.639248,-156
2021-12-10 13:52:37.639257,-149
2021-12-10 13:52:37.639265,-141
2021-12-10 13:52:37.639273,-141
2021-12-10 13:52:37.639282,-146
2021-12-10 13:52:37.639290,-154
2021-12-10 13:52:37.639299,-161
2021-12-10 13:52:37.639307,-163
2021-12-10 13:52:37.639315,-163
2021-12-10 13:52:37.639324,-158
2021-12-10 13:52:37.639332,-149
2021-12-10 13:52:37.639341,-139
2021-12-10 13:52:37.639349,-124
2021-12-10 13:52:37.639358,-124
2021-12-10 13:52:37.639366,-124
2021-12-10 13:52:37.639374,-119
2021-12-10 13:52:37.639383,-146
2021-12-10 13:52:37.639391,-161
2021-12-10 13:52:37.639400,-144
2021-12-10 13:52:37.639408,-141
2021-12-10 13:52:37.908621,-149
2021-12-10 13:52:37.908644,-146
2021-12-10 13:52:37.908653,-149
2021-12-10 13:52:37.908662,-144
2021-12-10 13:52:37.908669,-105
2021-12-10 13:52:37.908677,-26
2021-12-10 13:52:37.908684,166
2021-12-10 13:52:37.908692,464
2021-12-10 13:52:37.908700,386
2021-12-10 13:52:37.908708,-278
2021-12-10 13:52:37.908717,-826
2021-12-10 13:52:37.908725,-723
2021-12-10 13:52:37.908734,-335
2021-12-10 13:52:37.908742,-166
2021-12-10 13:52:37.908751,-151
2021-12-10 13:52:37.908759,-92
2021-12-10 13:52:37.908768,-56
2021-12-10 13:52:37.908776,-41
2021-12-10 13:52:37.908785,-9
2021-12-10 13:52:37.908793,9
2021-12-10 13:52:37.908802,7
2021-12-10 13:52:37.908810,17
2021-12-10 13:52:37.908819,39
2021-12-10 13:52:37.908827,53
2021-12-10 13:52:37.908835,61
2021-12-10 13:52:37.908844,70
2021-12-10 13:52:37.908852,85
2021-12-10 13:52:37.908891,112
2021-12-10 13:52:37.908899,136
2021-12-10 13:52:37.908908,149
2021-12-10 13:52:38.133357,173
2021-12-10 13:52:38.133375,215
2021-12-10 13:52:38.133384,244
2021-12-10 13:52:38.133393,244
2021-12-10 13:52:38.133402,246
2021-12-10 13:52:38.133410,259
2021-12-10 13:52:38.133419,256
2021-12-10 13:52:38.133427,232
2021-12-10 13:52:38.133435,198
2021-12-10 13:52:38.133444,139
2021-12-10 13:52:38.133452,61
2021-12-10 13:52:38.133461,-7
2021-12-10 13:52:38.133470,-56
2021-12-10 13:52:38.133478,-100
2021-12-10 13:52:38.133486,-136
2021-12-10 13:52:38.133495,-151
2021-12-10 13:52:38.133503,-156
2021-12-10 13:52:38.133512,-163
2021-12-10 13:52:38.133520,-158
2021-12-10 13:52:38.133528,-146
2021-12-10 13:52:38.133537,-141
2021-12-10 13:52:38.133545,-134
2021-12-10 13:52:38.133554,-124
2021-12-10 13:52:38.133563,-119
2021-12-10 13:52:38.133571,-119
2021-12-10 13:52:38.133579,-112
2021-12-10 13:52:38.133588,-102
2021-12-10 13:52:38.133596,-95
2021-12-10 13:52:38.133605,-90
2021-12-10 13:52:38.133613,-88
2021-12-10 13:52:38.314080,-92
2021-12-10 13:52:38.314101,-92
2021-12-10 13:52:38.314111,-85
2021-12-10 13:52:38.314119,-90
2021-12-10 13:52:38.314128,-95
2021-12-10 13:52:38.314144,-85
2021-12-10 13:52:38.314153,-90
2021-12-10 13:52:38.314161,-102
2021-12-10 13:52:38.314170,-97
2021-12-10 13:52:38.314178,-92
2021-12-10 13:52:38.314186,-95
2021-12-10 13:52:38.314195,-95
2021-12-10 13:52:38.314203,-95
2021-12-10 13:52:38.314212,-100
2021-12-10 13:52:38.314220,-105
2021-12-10 13:52:38.314229,-100
2021-12-10 13:52:38.314237,-95
2021-12-10 13:52:38.314246,-95
2021-12-10 13:52:38.314254,-97
2021-12-10 13:52:38.314263,-92
2021-12-10 13:52:38.314271,-97
2021-12-10 13:52:38.314279,-97
2021-12-10 13:52:38.314288,-85
2021-12-10 13:52:38.314296,-75
2021-12-10 13:52:38.314305,-88
2021-12-10 13:52:38.314313,-97
2021-12-10 13:52:38.314322,-97
2021-12-10 13:52:38.314330,-92
2021-12-10 13:52:38.314339,-92
2021-12-10 13:52:38.314347,-88
2021-12-10 13:52:38.584151,-75
2021-12-10 13:52:38.584173,-58
2021-12-10 13:52:38.584183,-48
2021-12-10 13:52:38.584192,-48
2021-12-10 13:52:38.584200,-61
2021-12-10 13:52:38.584209,-83
2021-12-10 13:52:38.584218,-83
2021-12-10 13:52:38.584226,-70
2021-12-10 13:52:38.584235,-73
2021-12-10 13:52:38.584243,-75
2021-12-10 13:52:38.584252,-68
2021-12-10 13:52:38.584260,-68
2021-12-10 13:52:38.584269,-61
2021-12-10 13:52:38.584277,-19
2021-12-10 13:52:38.584286,68
2021-12-10 13:52:38.584294,266
2021-12-10 13:52:38.584303,599
2021-12-10 13:52:38.584311,596
2021-12-10 13:52:38.584320,-80
2021-12-10 13:52:38.584328,-782
2021-12-10 13:52:38.584337,-733
2021-12-10 13:52:38.584346,-251
2021-12-10 13:52:38.584354,-48
2021-12-10 13:52:38.584363,-46
2021-12-10 13:52:38.584371,31
2021-12-10 13:52:38.584380,70
2021-12-10 13:52:38.584389,58
2021-12-10 13:52:38.584397,75
2021-12-10 13:52:38.584406,92
2021-12-10 13:52:38.584414,92
2021-12-10 13:52:38.852824,105
2021-12-10 13:52:38.852846,124
2021-12-10 13:52:38.852855,134
2021-12-10 13:52:38.852864,139
2021-12-10 13:52:38.852878,149
2021-12-10 13:52:38.852887,161
2021-12-10 13:52:38.852896,176
2021-12-10 13:52:38.852904,200
2021-12-10 13:52:38.852913,217
2021-12-10 13:52:38.852922,227
2021-12-10 13:52:38.852930,256
2021-12-10 13:52:38.852938,283
2021-12-10 13:52:38.852947,286
2021-12-10 13:52:38.852955,281
2021-12-10 13:52:38.852964,276
2021-12-10 13:52:38.852972,259
2021-12-10 13:52:38.852980,232
2021-12-10 13:52:38.852988,188
2021-12-10 13:52:38.852997,129
2021-12-10 13:52:38.853005,63
2021-12-10 13:52:38.853013,-4
2021-12-10 13:52:38.853022,-63
2021-12-10 13:52:38.853030,-112
2021-12-10 13:52:38.853039,-144
2021-12-10 13:52:38.853047,-158
2021-12-10 13:52:38.853055,-173
2021-12-10 13:52:38.853064,-183
2021-12-10 13:52:38.853072,-176
2021-12-10 13:52:38.853081,-171
2021-12-10 13:52:38.853089,-166
2021-12-10 13:52:38.989151,-151
2021-12-10 13:52:38.989172,-134
2021-12-10 13:52:38.989182,-129
2021-12-10 13:52:38.989191,-134
2021-12-10 13:52:38.989199,-139
2021-12-10 13:52:38.989208,-127
2021-12-10 13:52:38.989216,-112
2021-12-10 13:52:38.989225,-114
2021-12-10 13:52:38.989233,-122
2021-12-10 13:52:38.989241,-127
2021-12-10 13:52:38.989250,-134
2021-12-10 13:52:38.989258,-139
2021-12-10 13:52:38.989267,-134
2021-12-10 13:52:38.989275,-129
2021-12-10 13:52:38.989283,-144
2021-12-10 13:52:38.989292,-161
2021-12-10 13:52:38.989301,-158
2021-12-10 13:52:38.989309,-158
2021-12-10 13:52:38.989317,-163
2021-12-10 13:52:38.989326,-161
2021-12-10 13:52:38.989334,-158
2021-12-10 13:52:38.989343,-166
2021-12-10 13:52:38.989351,-171
2021-12-10 13:52:38.989359,-166
2021-12-10 13:52:38.989368,-161
2021-12-10 13:52:38.989376,-163
2021-12-10 13:52:38.989384,-166
2021-12-10 13:52:38.989393,-163
2021-12-10 13:52:38.989401,-171
2021-12-10 13:52:38.989409,-178
2021-12-10 13:52:39.259730,-178
2021-12-10 13:52:39.259756,-171
2021-12-10 13:52:39.259766,-173
2021-12-10 13:52:39.259775,-193
2021-12-10 13:52:39.259784,-202
2021-12-10 13:52:39.259792,-188
2021-12-10 13:52:39.259801,-180
2021-12-10 13:52:39.259877,-180
2021-12-10 13:52:39.259887,-173
2021-12-10 13:52:39.259895,-166
2021-12-10 13:52:39.259917,-161
2021-12-10 13:52:39.259926,-168
2021-12-10 13:52:39.259934,-195
2021-12-10 13:52:39.259953,-202
2021-12-10 13:52:39.259993,-195
2021-12-10 13:52:39.260001,-198
2021-12-10 13:52:39.260010,-202
2021-12-10 13:52:39.260018,-193
2021-12-10 13:52:39.260026,-188
2021-12-10 13:52:39.260035,-190
2021-12-10 13:52:39.260043,-166
2021-12-10 13:52:39.260051,-95
2021-12-10 13:52:39.260060,0
2021-12-10 13:52:39.260068,217
2021-12-10 13:52:39.260077,413
2021-12-10 13:52:39.260085,22
2021-12-10 13:52:39.260093,-843
2021-12-10 13:52:39.260102,-1142
2021-12-10 13:52:39.260110,-655
2021-12-10 13:52:39.260118,-291
2021-12-10 13:52:39.528495,-276
2021-12-10 13:52:39.528516,-171
2021-12-10 13:52:39.528525,-63
2021-12-10 13:52:39.528534,-88
2021-12-10 13:52:39.528543,-83
2021-12-10 13:52:39.528551,-41
2021-12-10 13:52:39.528560,-41
2021-12-10 13:52:39.528568,-41
2021-12-10 13:52:39.528577,-24
2021-12-10 13:52:39.528585,-19
2021-12-10 13:52:39.528594,-14
2021-12-10 13:52:39.528602,0
2021-12-10 13:52:39.528610,17
2021-12-10 13:52:39.528619,31
2021-12-10 13:52:39.528627,51
2021-12-10 13:52:39.528636,70
2021-12-10 13:52:39.528644,97
2021-12-10 13:52:39.528653,127
2021-12-10 13:52:39.528661,151
2021-12-10 13:52:39.528669,171
2021-12-10 13:52:39.528678,176
2021-12-10 13:52:39.528686,166
2021-12-10 13:52:39.528694,146
2021-12-10 13:52:39.528703,124
2021-12-10 13:52:39.528711,90
2021-12-10 13:52:39.528719,36
2021-12-10 13:52:39.528728,-34
2021-12-10 13:52:39.528736,-105
2021-12-10 13:52:39.528744,-166
2021-12-10 13:52:39.528753,-217
2021-12-10 13:52:39.843526,-254
2021-12-10 13:52:39.843546,-281
2021-12-10 13:52:39.843556,-303
2021-12-10 13:52:39.843565,-320
2021-12-10 13:52:39.843574,-322
2021-12-10 13:52:39.843582,-315
2021-12-10 13:52:39.843590,-310
2021-12-10 13:52:39.843599,-295
2021-12-10 13:52:39.843607,-281
2021-12-10 13:52:39.843615,-276
2021-12-10 13:52:39.843623,-261
2021-12-10 13:52:39.843632,-249
2021-12-10 13:52:39.843640,-249
2021-12-10 13:52:39.843648,-234
2021-12-10 13:52:39.843656,-222
2021-12-10 13:52:39.843665,-224
2021-12-10 13:52:39.843673,-217
2021-12-10 13:52:39.843681,-210
2021-12-10 13:52:39.843689,-217
2021-12-10 13:52:39.843698,-220
2021-12-10 13:52:39.843706,-217
2021-12-10 13:52:39.843714,-212
2021-12-10 13:52:39.843722,-210
2021-12-10 13:52:39.843731,-212
2021-12-10 13:52:39.843739,-215
2021-12-10 13:52:39.843747,-215
2021-12-10 13:52:39.843756,-217
2021-12-10 13:52:39.843764,-217
2021-12-10 13:52:39.843772,-215
2021-12-10 13:52:39.843781,-210
2021-12-10 13:52:39.934131,-205
2021-12-10 13:52:39.934151,-200
2021-12-10 13:52:39.934161,-202
2021-12-10 13:52:39.934170,-205
2021-12-10 13:52:39.934178,-195
2021-12-10 13:52:39.934187,-180
2021-12-10 13:52:39.934195,-171
2021-12-10 13:52:39.934203,-166
2021-12-10 13:52:39.934212,-163
2021-12-10 13:52:39.934220,-166
2021-12-10 13:52:39.934228,-176
2021-12-10 13:52:39.934237,-193
2021-12-10 13:52:39.934245,-195
2021-12-10 13:52:39.934253,-190
2021-12-10 13:52:39.934262,-193
2021-12-10 13:52:39.934270,-195
2021-12-10 13:52:39.934279,-188
2021-12-10 13:52:39.934287,-178
2021-12-10 13:52:39.934295,-178
2021-12-10 13:52:39.934303,-166
2021-12-10 13:52:39.934312,-105
2021-12-10 13:52:39.934320,0
2021-12-10 13:52:39.934328,212
2021-12-10 13:52:39.934337,474
2021-12-10 13:52:39.934345,232
2021-12-10 13:52:39.934353,-662
2021-12-10 13:52:39.934362,-1168
2021-12-10 13:52:39.934370,-762
2021-12-10 13:52:39.934378,-332
2021-12-10 13:52:39.934387,-286
2021-12-10 13:52:40.248478,-188
2021-12-10 13:52:40.248499,-51
2021-12-10 13:52:40.248509,-56
2021-12-10 13:52:40.248518,-63
2021-12-10 13:52:40.248526,-14
2021-12-10 13:52:40.248535,-2
2021-12-10 13:52:40.248543,-7
2021-12-10 13:52:40.248551,0
2021-12-10 13:52:40.248560,7
2021-12-10 13:52:40.248568,17
2021-12-10 13:52:40.248576,39
2021-12-10 13:52:40.248585,58
2021-12-10 13:52:40.248593,70
2021-12-10 13:52:40.248601,92
2021-12-10 13:52:40.248610,119
2021-12-10 13:52:40.248618,136
2021-12-10 13:52:40.248627,161
2021-12-10 13:52:40.248635,190
2021-12-10 13:52:40.248643,212
2021-12-10 13:52:40.248652,215
2021-12-10 13:52:40.248660,205
2021-12-10 13:52:40.248668,190
2021-12-10 13:52:40.248676,171
2021-12-10 13:52:40.248685,134
2021-12-10 13:52:40.248693,70
2021-12-10 13:52:40.248702,-2
2021-12-10 13:52:40.248710,-70
2021-12-10 13:52:40.248718,-139
2021-12-10 13:52:40.248727,-195
2021-12-10 13:52:40.248735,-232
2021-12-10 13:52:40.384171,-254
2021-12-10 13:52:40.384194,-271
2021-12-10 13:52:40.384204,-286
2021-12-10 13:52:40.384213,-291
2021-12-10 13:52:40.384221,-281
2021-12-10 13:52:40.384230,-266
2021-12-10 13:52:40.384238,-254
2021-12-10 13:52:40.384247,-251
2021-12-10 13:52:40.384256,-244
2021-12-10 13:52:40.384264,-222
2021-12-10 13:52:40.384272,-210
2021-12-10 13:52:40.384281,-202
2021-12-10 13:52:40.384289,-198
2021-12-10 13:52:40.384298,-188
2021-12-10 13:52:40.384306,-178
2021-12-10 13:52:40.384314,-178
2021-12-10 13:52:40.384323,-171
2021-12-10 13:52:40.384331,-161
2021-12-10 13:52:40.384340,-173
2021-12-10 13:52:40.384348,-180
2021-12-10 13:52:40.384357,-173
2021-12-10 13:52:40.384365,-173
2021-12-10 13:52:40.384373,-176
2021-12-10 13:52:40.384382,-176
2021-12-10 13:52:40.384390,-178
2021-12-10 13:52:40.384399,-178
2021-12-10 13:52:40.384407,-178
2021-12-10 13:52:40.384415,-178
2021-12-10 13:52:40.384424,-176
2021-12-10 13:52:40.384432,-176
2021-12-10 13:52:40.609184,-176
2021-12-10 13:52:40.609206,-168
2021-12-10 13:52:40.609216,-163
2021-12-10 13:52:40.609225,-168
2021-12-10 13:52:40.609234,-166
2021-12-10 13:52:40.609243,-161
2021-12-10 13:52:40.609251,-163
2021-12-10 13:52:40.609260,-166
2021-12-10 13:52:40.609269,-158
2021-12-10 13:52:40.609277,-156
2021-12-10 13:52:40.609286,-156
2021-12-10 13:52:40.609294,-151
2021-12-10 13:52:40.609303,-146
2021-12-10 13:52:40.609311,-139
2021-12-10 13:52:40.609320,-127
2021-12-10 13:52:40.609328,-117
2021-12-10 13:52:40.609337,-114
2021-12-10 13:52:40.609345,-124
2021-12-10 13:52:40.609354,-146
2021-12-10 13:52:40.609362,-158
2021-12-10 13:52:40.609370,-149
2021-12-10 13:52:40.609379,-149
2021-12-10 13:52:40.609387,-154
2021-12-10 13:52:40.609395,-149
2021-12-10 13:52:40.609404,-149
2021-12-10 13:52:40.609412,-154
2021-12-10 13:52:40.609421,-127
2021-12-10 13:52:40.609429,-66
2021-12-10 13:52:40.609438,44
2021-12-10 13:52:40.609446,325
2021-12-10 13:52:40.877786,498
2021-12-10 13:52:40.877808,41
2021-12-10 13:52:40.877818,-706
2021-12-10 13:52:40.877827,-875
2021-12-10 13:52:40.877836,-484
2021-12-10 13:52:40.877845,-229
2021-12-10 13:52:40.877853,-198
2021-12-10 13:52:40.877862,-110
2021-12-10 13:52:40.877870,-48
2021-12-10 13:52:40.877879,-58
2021-12-10 13:52:40.877887,-44
2021-12-10 13:52:40.877896,-19
2021-12-10 13:52:40.877904,-17
2021-12-10 13:52:40.877913,-17
2021-12-10 13:52:40.877921,-7
2021-12-10 13:52:40.877929,4
2021-12-10 13:52:40.877938,12
2021-12-10 13:52:40.877946,17
2021-12-10 13:52:40.877955,31
2021-12-10 13:52:40.877963,51
2021-12-10 13:52:40.877972,68
2021-12-10 13:52:40.877980,83
2021-12-10 13:52:40.877988,110
2021-12-10 13:52:40.877997,136
2021-12-10 13:52:40.878005,156
2021-12-10 13:52:40.878013,171
2021-12-10 13:52:40.878022,178
2021-12-10 13:52:40.878030,171
2021-12-10 13:52:40.878038,158
2021-12-10 13:52:40.878047,134
2021-12-10 13:52:41.059182,102
2021-12-10 13:52:41.059204,53
2021-12-10 13:52:41.059214,-14
2021-12-10 13:52:41.059223,-78
2021-12-10 13:52:41.059232,-127
2021-12-10 13:52:41.059241,-173
2021-12-10 13:52:41.059249,-210
2021-12-10 13:52:41.059258,-229
2021-12-10 13:52:41.059266,-234
2021-12-10 13:52:41.059274,-244
2021-12-10 13:52:41.059283,-251
2021-12-10 13:52:41.059291,-244
2021-12-10 13:52:41.059300,-234
2021-12-10 13:52:41.059308,-227
2021-12-10 13:52:41.059317,-215
2021-12-10 13:52:41.059325,-202
2021-12-10 13:52:41.059333,-195
2021-12-10 13:52:41.059342,-185
2021-12-10 13:52:41.059350,-178
2021-12-10 13:52:41.059358,-176
2021-12-10 13:52:41.059367,-171
2021-12-10 13:52:41.059375,-163
2021-12-10 13:52:41.059383,-161
2021-12-10 13:52:41.059392,-161
2021-12-10 13:52:41.059400,-154
2021-12-10 13:52:41.059408,-146
2021-12-10 13:52:41.059417,-146
2021-12-10 13:52:41.059425,-158
2021-12-10 13:52:41.059433,-163
2021-12-10 13:52:41.059442,-158
2021-12-10 13:52:41.284227,-158
2021-12-10 13:52:41.284250,-156
2021-12-10 13:52:41.284260,-154
2021-12-10 13:52:41.284269,-161
2021-12-10 13:52:41.284278,-163
2021-12-10 13:52:41.284286,-161
2021-12-10 13:52:41.284295,-163
2021-12-10 13:52:41.284303,-163
2021-12-10 13:52:41.284312,-158
2021-12-10 13:52:41.284320,-154
2021-12-10 13:52:41.284329,-156
2021-12-10 13:52:41.284337,-154
2021-12-10 13:52:41.284346,-149
2021-12-10 13:52:41.284354,-146
2021-12-10 13:52:41.284363,-146
2021-12-10 13:52:41.284372,-149
2021-12-10 13:52:41.284380,-146
2021-12-10 13:52:41.284389,-132
2021-12-10 13:52:41.284397,-122
2021-12-10 13:52:41.284405,-117
2021-12-10 13:52:41.284414,-107
2021-12-10 13:52:41.284422,-110
2021-12-10 13:52:41.284431,-124
2021-12-10 13:52:41.284439,-139
2021-12-10 13:52:41.284449,-139
2021-12-10 13:52:41.284457,-132
2021-12-10 13:52:41.284466,-129
2021-12-10 13:52:41.284474,-136
2021-12-10 13:52:41.284483,-139
2021-12-10 13:52:41.284491,-134
2021-12-10 13:52:41.599204,-129
2021-12-10 13:52:41.599226,-107
2021-12-10 13:52:41.599236,-53
2021-12-10 13:52:41.599245,51
2021-12-10 13:52:41.599254,310
2021-12-10 13:52:41.599263,467
2021-12-10 13:52:41.599271,46
2021-12-10 13:52:41.599280,-633
2021-12-10 13:52:41.599343,-819
2021-12-10 13:52:41.599354,-496
2021-12-10 13:52:41.599362,-229
2021-12-10 13:52:41.599371,-161
2021-12-10 13:52:41.599379,-95
2021-12-10 13:52:41.599388,-44
2021-12-10 13:52:41.599396,-39
2021-12-10 13:52:41.599405,-29
2021-12-10 13:52:41.599413,-14
2021-12-10 13:52:41.599422,-9
2021-12-10 13:52:41.599431,2
2021-12-10 13:52:41.599439,14
2021-12-10 13:52:41.599447,17
2021-12-10 13:52:41.599456,26
2021-12-10 13:52:41.599464,41
2021-12-10 13:52:41.599473,44
2021-12-10 13:52:41.599481,56
2021-12-10 13:52:41.599490,83
2021-12-10 13:52:41.599498,95
2021-12-10 13:52:41.599507,107
2021-12-10 13:52:41.599515,141
2021-12-10 13:52:41.599523,176
2021-12-10 13:52:41.913534,190
2021-12-10 13:52:41.913554,198
2021-12-10 13:52:41.913564,198
2021-12-10 13:52:41.913573,178
2021-12-10 13:52:41.913582,146
2021-12-10 13:52:41.913590,110
2021-12-10 13:52:41.913599,58
2021-12-10 13:52:41.913608,-7
2021-12-10 13:52:41.913616,-80
2021-12-10 13:52:41.913625,-136
2021-12-10 13:52:41.913633,-173
2021-12-10 13:52:41.913642,-198
2021-12-10 13:52:41.913650,-222
2021-12-10 13:52:41.913659,-239
2021-12-10 13:52:41.913668,-239
2021-12-10 13:52:41.913676,-239
2021-12-10 13:52:41.913684,-239
2021-12-10 13:52:41.913693,-229
2021-12-10 13:52:41.913701,-222
2021-12-10 13:52:41.913710,-217
2021-12-10 13:52:41.913718,-207
2021-12-10 13:52:41.913727,-193
2021-12-10 13:52:41.913735,-185
2021-12-10 13:52:41.913744,-178
2021-12-10 13:52:41.913752,-173
2021-12-10 13:52:41.913761,-171
2021-12-10 13:52:41.913769,-171
2021-12-10 13:52:41.913778,-163
2021-12-10 13:52:41.913786,-154
2021-12-10 13:52:41.913795,-151
2021-12-10 13:52:42.004189,-149
2021-12-10 13:52:42.004211,-144
2021-12-10 13:52:42.004220,-146
2021-12-10 13:52:42.004229,-149
2021-12-10 13:52:42.004238,-146
2021-12-10 13:52:42.004247,-146
2021-12-10 13:52:42.004255,-149
2021-12-10 13:52:42.004263,-146
2021-12-10 13:52:42.004272,-151
2021-12-10 13:52:42.004280,-154
