Time,ECG
2021-12-10 13:57:14.443270,-102
2021-12-10 13:57:14.443289,-95
2021-12-10 13:57:14.443299,-56
2021-12-10 13:57:14.443307,9
2021-12-10 13:57:14.443316,193
2021-12-10 13:57:14.443325,486
2021-12-10 13:57:14.443334,361
2021-12-10 13:57:14.443342,-379
2021-12-10 13:57:14.443351,-892
2021-12-10 13:57:14.443360,-662
2021-12-10 13:57:14.443368,-291
2021-12-10 13:57:14.443376,-202
2021-12-10 13:57:14.443385,-134
2021-12-10 13:57:14.443393,-31
2021-12-10 13:57:14.443401,-31
2021-12-10 13:57:14.443410,-36
2021-12-10 13:57:14.443418,-4
2021-12-10 13:57:14.443427,7
2021-12-10 13:57:14.443435,7
2021-12-10 13:57:14.443444,19
2021-12-10 13:57:14.443452,29
2021-12-10 13:57:14.443460,34
2021-12-10 13:57:14.443468,51
2021-12-10 13:57:14.443477,68
2021-12-10 13:57:14.443485,78
2021-12-10 13:57:14.443494,95
2021-12-10 13:57:14.443503,114
2021-12-10 13:57:14.443511,139
2021-12-10 13:57:14.443519,173
2021-12-10 13:57:14.443528,205
2021-12-10 13:57:14.443606,234
2021-12-10 13:57:14.443616,251
2021-12-10 13:57:14.443625,254
2021-12-10 13:57:14.443633,251
2021-12-10 13:57:14.443642,232
2021-12-10 13:57:14.443650,195
2021-12-10 13:57:14.443660,139
2021-12-10 13:57:14.443668,58
2021-12-10 13:57:14.443676,-24
2021-12-10 13:57:14.443685,-95
2021-12-10 13:57:14.443693,-149
2021-12-10 13:57:14.443701,-188
2021-12-10 13:57:14.443710,-222
2021-12-10 13:57:14.443718,-242
2021-12-10 13:57:14.443726,-244
2021-12-10 13:57:14.443735,-244
2021-12-10 13:57:14.443743,-242
2021-12-10 13:57:14.443752,-239
2021-12-10 13:57:14.443760,-234
2021-12-10 13:57:14.443769,-229
2021-12-10 13:57:14.443777,-222
2021-12-10 13:57:14.443785,-210
2021-12-10 13:57:14.443794,-200
2021-12-10 13:57:14.443802,-195
2021-12-10 13:57:14.443810,-188
2021-12-10 13:57:14.443818,-178
2021-12-10 13:57:14.443827,-166
2021-12-10 13:57:14.443835,-158
2021-12-10 13:57:14.443843,-151
2021-12-10 13:57:14.443853,-139
2021-12-10 13:57:14.443920,-136
2021-12-10 13:57:14.443930,-136
2021-12-10 13:57:14.443939,-127
2021-12-10 13:57:14.443947,-129
2021-12-10 13:57:14.443955,-132
2021-12-10 13:57:14.443964,-129
2021-12-10 13:57:14.443972,-136
2021-12-10 13:57:14.443981,-139
2021-12-10 13:57:14.443989,-134
2021-12-10 13:57:14.443998,-134
2021-12-10 13:57:14.444006,-134
2021-12-10 13:57:14.444014,-141
2021-12-10 13:57:14.444023,-146
2021-12-10 13:57:14.444034,-144
2021-12-10 13:57:14.444043,-139
2021-12-10 13:57:14.444051,-134
2021-12-10 13:57:14.444059,-134
2021-12-10 13:57:14.444068,-134
2021-12-10 13:57:14.444076,-136
2021-12-10 13:57:14.444085,-134
2021-12-10 13:57:14.444093,-127
2021-12-10 13:57:14.444102,-124
2021-12-10 13:57:14.444110,-122
2021-12-10 13:57:14.444118,-119
2021-12-10 13:57:14.444127,-122
2021-12-10 13:57:14.444135,-117
2021-12-10 13:57:14.444143,-112
2021-12-10 13:57:14.444152,-112
2021-12-10 13:57:14.444160,-110
2021-12-10 13:57:14.444170,-114
2021-12-10 13:57:14.662032,-117
2021-12-10 13:57:14.662051,-107
2021-12-10 13:57:14.662060,-100
2021-12-10 13:57:14.662069,-97
2021-12-10 13:57:14.662078,-92
2021-12-10 13:57:14.662087,-80
2021-12-10 13:57:14.662095,-68
2021-12-10 13:57:14.662104,-68
2021-12-10 13:57:14.662112,-83
2021-12-10 13:57:14.662121,-105
2021-12-10 13:57:14.662129,-102
2021-12-10 13:57:14.662138,-92
2021-12-10 13:57:14.662146,-102
2021-12-10 13:57:14.662155,-105
2021-12-10 13:57:14.662163,-100
2021-12-10 13:57:14.662172,-102
2021-12-10 13:57:14.662181,-100
2021-12-10 13:57:14.662192,-73
2021-12-10 13:57:14.662201,-14
2021-12-10 13:57:14.662210,156
2021-12-10 13:57:14.662218,464
2021-12-10 13:57:14.662227,437
2021-12-10 13:57:14.662235,-168
2021-12-10 13:57:14.662244,-670
2021-12-10 13:57:14.662252,-604
2021-12-10 13:57:14.662261,-320
2021-12-10 13:57:14.662269,-178
2021-12-10 13:57:14.662278,-117
2021-12-10 13:57:14.662286,-56
2021-12-10 13:57:14.662295,-39
2021-12-10 13:57:14.931365,-31
2021-12-10 13:57:14.931384,-9
2021-12-10 13:57:14.931394,0
2021-12-10 13:57:14.931403,7
2021-12-10 13:57:14.931412,19
2021-12-10 13:57:14.931420,26
2021-12-10 13:57:14.931429,31
2021-12-10 13:57:14.931441,46
2021-12-10 13:57:14.931450,56
2021-12-10 13:57:14.931458,70
2021-12-10 13:57:14.931467,95
2021-12-10 13:57:14.931475,114
2021-12-10 13:57:14.931484,134
2021-12-10 13:57:14.931492,158
2021-12-10 13:57:14.931501,188
2021-12-10 13:57:14.931509,217
2021-12-10 13:57:14.931517,244
2021-12-10 13:57:14.931526,259
2021-12-10 13:57:14.931534,254
2021-12-10 13:57:14.931543,237
2021-12-10 13:57:14.931551,217
2021-12-10 13:57:14.931560,171
2021-12-10 13:57:14.931568,95
2021-12-10 13:57:14.931577,14
2021-12-10 13:57:14.931585,-58
2021-12-10 13:57:14.931594,-117
2021-12-10 13:57:14.931602,-166
2021-12-10 13:57:14.931610,-198
2021-12-10 13:57:14.931619,-207
2021-12-10 13:57:14.931628,-212
2021-12-10 13:57:15.112151,-217
2021-12-10 13:57:15.112170,-210
2021-12-10 13:57:15.112180,-205
2021-12-10 13:57:15.112189,-202
2021-12-10 13:57:15.112197,-198
2021-12-10 13:57:15.112206,-193
2021-12-10 13:57:15.112214,-188
2021-12-10 13:57:15.112222,-180
2021-12-10 13:57:15.112231,-166
2021-12-10 13:57:15.112239,-163
2021-12-10 13:57:15.112248,-166
2021-12-10 13:57:15.112256,-156
2021-12-10 13:57:15.112265,-144
2021-12-10 13:57:15.112273,-132
2021-12-10 13:57:15.112282,-127
2021-12-10 13:57:15.112290,-132
2021-12-10 13:57:15.112299,-132
2021-12-10 13:57:15.112307,-127
2021-12-10 13:57:15.112315,-124
2021-12-10 13:57:15.112324,-117
2021-12-10 13:57:15.112332,-112
2021-12-10 13:57:15.112341,-119
2021-12-10 13:57:15.112349,-124
2021-12-10 13:57:15.112357,-122
2021-12-10 13:57:15.112375,-119
2021-12-10 13:57:15.112384,-124
2021-12-10 13:57:15.112393,-119
2021-12-10 13:57:15.112401,-119
2021-12-10 13:57:15.112409,-127
2021-12-10 13:57:15.112418,-122
2021-12-10 13:57:15.336944,-112
2021-12-10 13:57:15.336962,-110
2021-12-10 13:57:15.336971,-107
2021-12-10 13:57:15.336980,-112
2021-12-10 13:57:15.336989,-112
2021-12-10 13:57:15.336997,-105
2021-12-10 13:57:15.337006,-105
2021-12-10 13:57:15.337014,-105
2021-12-10 13:57:15.337023,-105
2021-12-10 13:57:15.337031,-105
2021-12-10 13:57:15.337040,-107
2021-12-10 13:57:15.337049,-105
2021-12-10 13:57:15.337057,-97
2021-12-10 13:57:15.337066,-97
2021-12-10 13:57:15.337074,-100
2021-12-10 13:57:15.337082,-95
2021-12-10 13:57:15.337091,-100
2021-12-10 13:57:15.337099,-107
2021-12-10 13:57:15.337108,-102
2021-12-10 13:57:15.337116,-97
2021-12-10 13:57:15.337124,-92
2021-12-10 13:57:15.337133,-90
2021-12-10 13:57:15.337143,-80
2021-12-10 13:57:15.337151,-66
2021-12-10 13:57:15.337160,-61
2021-12-10 13:57:15.337168,-73
2021-12-10 13:57:15.337177,-102
2021-12-10 13:57:15.337185,-112
2021-12-10 13:57:15.337194,-97
2021-12-10 13:57:15.337202,-97
2021-12-10 13:57:15.651477,-100
2021-12-10 13:57:15.651497,-100
2021-12-10 13:57:15.651507,-107
2021-12-10 13:57:15.651516,-107
2021-12-10 13:57:15.651525,-88
2021-12-10 13:57:15.651533,-31
2021-12-10 13:57:15.651542,112
2021-12-10 13:57:15.651550,440
2021-12-10 13:57:15.651559,596
2021-12-10 13:57:15.651567,105
2021-12-10 13:57:15.651576,-582
2021-12-10 13:57:15.651584,-709
2021-12-10 13:57:15.651593,-391
2021-12-10 13:57:15.651602,-190
2021-12-10 13:57:15.651610,-146
2021-12-10 13:57:15.651619,-78
2021-12-10 13:57:15.651627,-39
2021-12-10 13:57:15.651635,-36
2021-12-10 13:57:15.651644,-19
2021-12-10 13:57:15.651652,0
2021-12-10 13:57:15.651661,4
2021-12-10 13:57:15.651669,9
2021-12-10 13:57:15.651678,24
2021-12-10 13:57:15.651686,36
2021-12-10 13:57:15.651699,48
2021-12-10 13:57:15.651708,61
2021-12-10 13:57:15.651717,73
2021-12-10 13:57:15.651725,95
2021-12-10 13:57:15.651734,117
2021-12-10 13:57:15.651742,139
2021-12-10 13:57:15.877015,168
2021-12-10 13:57:15.877034,202
2021-12-10 13:57:15.877044,234
2021-12-10 13:57:15.877053,259
2021-12-10 13:57:15.877061,281
2021-12-10 13:57:15.877070,286
2021-12-10 13:57:15.877079,276
2021-12-10 13:57:15.877087,254
2021-12-10 13:57:15.877096,207
2021-12-10 13:57:15.877104,136
2021-12-10 13:57:15.877113,56
2021-12-10 13:57:15.877121,-29
2021-12-10 13:57:15.877130,-95
2021-12-10 13:57:15.877138,-144
2021-12-10 13:57:15.877147,-190
2021-12-10 13:57:15.877155,-217
2021-12-10 13:57:15.877164,-222
2021-12-10 13:57:15.877172,-224
2021-12-10 13:57:15.877181,-222
2021-12-10 13:57:15.877189,-217
2021-12-10 13:57:15.877197,-212
2021-12-10 13:57:15.877206,-212
2021-12-10 13:57:15.877214,-202
2021-12-10 13:57:15.877223,-188
2021-12-10 13:57:15.877231,-180
2021-12-10 13:57:15.877240,-173
2021-12-10 13:57:15.877248,-161
2021-12-10 13:57:15.877257,-154
2021-12-10 13:57:15.877265,-149
2021-12-10 13:57:15.877274,-144
2021-12-10 13:57:16.145620,-134
2021-12-10 13:57:16.145638,-127
2021-12-10 13:57:16.145648,-134
2021-12-10 13:57:16.145657,-129
2021-12-10 13:57:16.145666,-117
2021-12-10 13:57:16.145674,-117
2021-12-10 13:57:16.145683,-117
2021-12-10 13:57:16.145691,-112
2021-12-10 13:57:16.145700,-114
2021-12-10 13:57:16.145708,-122
2021-12-10 13:57:16.145717,-114
2021-12-10 13:57:16.145726,-102
2021-12-10 13:57:16.145734,-117
2021-12-10 13:57:16.145743,-124
2021-12-10 13:57:16.145752,-117
2021-12-10 13:57:16.145760,-117
2021-12-10 13:57:16.145768,-119
2021-12-10 13:57:16.145777,-114
2021-12-10 13:57:16.145785,-110
2021-12-10 13:57:16.145794,-110
2021-12-10 13:57:16.145802,-110
2021-12-10 13:57:16.145811,-102
2021-12-10 13:57:16.145819,-105
2021-12-10 13:57:16.145828,-112
2021-12-10 13:57:16.145837,-105
2021-12-10 13:57:16.145845,-102
2021-12-10 13:57:16.145853,-105
2021-12-10 13:57:16.145862,-105
2021-12-10 13:57:16.145870,-102
2021-12-10 13:57:16.145878,-100
2021-12-10 13:57:16.282050,-100
2021-12-10 13:57:16.282070,-100
2021-12-10 13:57:16.282079,-102
2021-12-10 13:57:16.282088,-105
2021-12-10 13:57:16.282097,-102
2021-12-10 13:57:16.282105,-102
2021-12-10 13:57:16.282114,-110
2021-12-10 13:57:16.282122,-114
2021-12-10 13:57:16.282131,-107
2021-12-10 13:57:16.282139,-100
2021-12-10 13:57:16.282151,-92
2021-12-10 13:57:16.282160,-80
2021-12-10 13:57:16.282169,-68
2021-12-10 13:57:16.282177,-73
2021-12-10 13:57:16.282186,-90
2021-12-10 13:57:16.282194,-107
2021-12-10 13:57:16.282203,-110
2021-12-10 13:57:16.282211,-100
2021-12-10 13:57:16.282220,-95
2021-12-10 13:57:16.282228,-105
2021-12-10 13:57:16.282237,-107
2021-12-10 13:57:16.282246,-100
2021-12-10 13:57:16.282254,-97
2021-12-10 13:57:16.282263,-66
2021-12-10 13:57:16.282271,2
2021-12-10 13:57:16.282280,193
2021-12-10 13:57:16.282288,574
2021-12-10 13:57:16.282296,640
2021-12-10 13:57:16.282305,-19
2021-12-10 13:57:16.282313,-718
2021-12-10 13:57:16.507235,-704
2021-12-10 13:57:16.507257,-320
2021-12-10 13:57:16.507268,-166
2021-12-10 13:57:16.507277,-139
2021-12-10 13:57:16.507286,-56
2021-12-10 13:57:16.507295,-34
2021-12-10 13:57:16.507304,-41
2021-12-10 13:57:16.507313,-14
2021-12-10 13:57:16.507322,2
2021-12-10 13:57:16.507330,4
2021-12-10 13:57:16.507339,19
2021-12-10 13:57:16.507347,34
2021-12-10 13:57:16.507356,36
2021-12-10 13:57:16.507365,46
2021-12-10 13:57:16.507374,63
2021-12-10 13:57:16.507382,78
2021-12-10 13:57:16.507391,97
2021-12-10 13:57:16.507399,127
2021-12-10 13:57:16.507407,156
2021-12-10 13:57:16.507415,188
2021-12-10 13:57:16.507424,220
2021-12-10 13:57:16.507432,251
2021-12-10 13:57:16.507440,281
2021-12-10 13:57:16.507448,300
2021-12-10 13:57:16.507456,298
2021-12-10 13:57:16.507469,273
2021-12-10 13:57:16.507477,246
2021-12-10 13:57:16.507484,205
2021-12-10 13:57:16.507492,136
2021-12-10 13:57:16.507500,48
2021-12-10 13:57:16.777055,-34
2021-12-10 13:57:16.777076,-102
2021-12-10 13:57:16.777085,-154
2021-12-10 13:57:16.777094,-188
2021-12-10 13:57:16.777102,-215
2021-12-10 13:57:16.777111,-237
2021-12-10 13:57:16.777119,-239
2021-12-10 13:57:16.777128,-227
2021-12-10 13:57:16.777136,-229
2021-12-10 13:57:16.777145,-227
2021-12-10 13:57:16.777153,-212
2021-12-10 13:57:16.777161,-207
2021-12-10 13:57:16.777170,-205
2021-12-10 13:57:16.777178,-193
2021-12-10 13:57:16.777187,-183
2021-12-10 13:57:16.777195,-168
2021-12-10 13:57:16.777204,-158
2021-12-10 13:57:16.777212,-158
2021-12-10 13:57:16.777220,-156
2021-12-10 13:57:16.777229,-144
2021-12-10 13:57:16.777237,-134
2021-12-10 13:57:16.777246,-134
2021-12-10 13:57:16.777254,-132
2021-12-10 13:57:16.777263,-129
2021-12-10 13:57:16.777271,-132
2021-12-10 13:57:16.777279,-129
2021-12-10 13:57:16.777288,-127
2021-12-10 13:57:16.777296,-134
2021-12-10 13:57:16.777305,-134
2021-12-10 13:57:16.777313,-134
2021-12-10 13:57:16.957012,-134
2021-12-10 13:57:16.957030,-129
2021-12-10 13:57:16.957040,-129
2021-12-10 13:57:16.957049,-132
2021-12-10 13:57:16.957058,-129
2021-12-10 13:57:16.957066,-132
2021-12-10 13:57:16.957075,-132
2021-12-10 13:57:16.957083,-132
2021-12-10 13:57:16.957092,-129
2021-12-10 13:57:16.957100,-132
2021-12-10 13:57:16.957108,-139
2021-12-10 13:57:16.957117,-139
2021-12-10 13:57:16.957125,-134
2021-12-10 13:57:16.957133,-129
2021-12-10 13:57:16.957142,-124
2021-12-10 13:57:16.957150,-124
2021-12-10 13:57:16.957161,-124
2021-12-10 13:57:16.957169,-124
2021-12-10 13:57:16.957178,-127
2021-12-10 13:57:16.957186,-119
2021-12-10 13:57:16.957194,-119
2021-12-10 13:57:16.957203,-124
2021-12-10 13:57:16.957211,-119
2021-12-10 13:57:16.957219,-122
2021-12-10 13:57:16.957228,-129
2021-12-10 13:57:16.957236,-132
2021-12-10 13:57:16.957245,-129
2021-12-10 13:57:16.957253,-124
2021-12-10 13:57:16.957261,-122
2021-12-10 13:57:16.957270,-112
2021-12-10 13:57:17.271574,-92
2021-12-10 13:57:17.271595,-83
2021-12-10 13:57:17.271605,-85
2021-12-10 13:57:17.271614,-105
2021-12-10 13:57:17.271623,-119
2021-12-10 13:57:17.271631,-112
2021-12-10 13:57:17.271640,-105
2021-12-10 13:57:17.271648,-107
2021-12-10 13:57:17.271657,-107
2021-12-10 13:57:17.271665,-110
2021-12-10 13:57:17.271674,-110
2021-12-10 13:57:17.271683,-102
2021-12-10 13:57:17.271691,-58
2021-12-10 13:57:17.271700,44
2021-12-10 13:57:17.271709,330
2021-12-10 13:57:17.271717,684
2021-12-10 13:57:17.271726,469
2021-12-10 13:57:17.271734,-359
2021-12-10 13:57:17.271743,-836
2021-12-10 13:57:17.271751,-550
2021-12-10 13:57:17.271760,-198
2021-12-10 13:57:17.271768,-141
2021-12-10 13:57:17.271777,-83
2021-12-10 13:57:17.271785,4
2021-12-10 13:57:17.271794,9
2021-12-10 13:57:17.271802,14
2021-12-10 13:57:17.271811,46
2021-12-10 13:57:17.271819,58
2021-12-10 13:57:17.271828,66
2021-12-10 13:57:17.271836,75
2021-12-10 13:57:17.407153,85
2021-12-10 13:57:17.407174,102
2021-12-10 13:57:17.407183,112
2021-12-10 13:57:17.407192,122
2021-12-10 13:57:17.407201,144
2021-12-10 13:57:17.407209,166
2021-12-10 13:57:17.407218,195
2021-12-10 13:57:17.407226,227
2021-12-10 13:57:17.407234,256
2021-12-10 13:57:17.407243,286
2021-12-10 13:57:17.407251,313
2021-12-10 13:57:17.407260,332
2021-12-10 13:57:17.407268,339
2021-12-10 13:57:17.407281,339
2021-12-10 13:57:17.407289,320
2021-12-10 13:57:17.407298,273
2021-12-10 13:57:17.407306,212
2021-12-10 13:57:17.407314,129
2021-12-10 13:57:17.407323,36
2021-12-10 13:57:17.407331,-36
2021-12-10 13:57:17.407340,-105
2021-12-10 13:57:17.407348,-151
2021-12-10 13:57:17.407356,-176
2021-12-10 13:57:17.407365,-200
2021-12-10 13:57:17.407373,-210
2021-12-10 13:57:17.407382,-202
2021-12-10 13:57:17.407390,-202
2021-12-10 13:57:17.407398,-205
2021-12-10 13:57:17.407407,-198
2021-12-10 13:57:17.407415,-183
2021-12-10 13:57:17.722067,-171
2021-12-10 13:57:17.722087,-166
2021-12-10 13:57:17.722097,-151
2021-12-10 13:57:17.722106,-146
2021-12-10 13:57:17.722115,-141
2021-12-10 13:57:17.722123,-129
2021-12-10 13:57:17.722132,-124
2021-12-10 13:57:17.722140,-119
2021-12-10 13:57:17.722149,-110
2021-12-10 13:57:17.722157,-107
2021-12-10 13:57:17.722166,-110
2021-12-10 13:57:17.722175,-102
2021-12-10 13:57:17.722184,-97
2021-12-10 13:57:17.722192,-110
2021-12-10 13:57:17.722201,-110
2021-12-10 13:57:17.722209,-100
2021-12-10 13:57:17.722218,-110
2021-12-10 13:57:17.722226,-117
2021-12-10 13:57:17.722235,-105
2021-12-10 13:57:17.722243,-100
2021-12-10 13:57:17.722252,-110
2021-12-10 13:57:17.722260,-110
2021-12-10 13:57:17.722269,-102
2021-12-10 13:57:17.722277,-102
2021-12-10 13:57:17.722286,-110
2021-12-10 13:57:17.722294,-110
2021-12-10 13:57:17.722302,-107
2021-12-10 13:57:17.722311,-107
2021-12-10 13:57:17.722319,-107
2021-12-10 13:57:17.722328,-107
2021-12-10 13:57:17.902010,-107
2021-12-10 13:57:17.902028,-110
2021-12-10 13:57:17.902038,-117
2021-12-10 13:57:17.902047,-117
2021-12-10 13:57:17.902055,-114
2021-12-10 13:57:17.902063,-117
2021-12-10 13:57:17.902072,-117
2021-12-10 13:57:17.902080,-117
2021-12-10 13:57:17.902089,-114
2021-12-10 13:57:17.902097,-110
2021-12-10 13:57:17.902105,-102
2021-12-10 13:57:17.902114,-92
2021-12-10 13:57:17.902122,-85
2021-12-10 13:57:17.902131,-95
2021-12-10 13:57:17.902139,-114
2021-12-10 13:57:17.902147,-136
2021-12-10 13:57:17.902156,-139
2021-12-10 13:57:17.902169,-132
2021-12-10 13:57:17.902178,-139
2021-12-10 13:57:17.902186,-146
2021-12-10 13:57:17.902195,-151
2021-12-10 13:57:17.902203,-151
2021-12-10 13:57:17.902212,-141
2021-12-10 13:57:17.902220,-105
2021-12-10 13:57:17.902228,-41
2021-12-10 13:57:17.902237,105
2021-12-10 13:57:17.902245,361
2021-12-10 13:57:17.902253,308
2021-12-10 13:57:17.902262,-364
2021-12-10 13:57:17.902270,-946
2021-12-10 13:57:18.170827,-782
2021-12-10 13:57:18.170848,-357
2021-12-10 13:57:18.170857,-224
2021-12-10 13:57:18.170866,-171
2021-12-10 13:57:18.170874,-48
2021-12-10 13:57:18.170883,-19
2021-12-10 13:57:18.170891,-34
2021-12-10 13:57:18.170900,-2
2021-12-10 13:57:18.170908,14
2021-12-10 13:57:18.170917,9
2021-12-10 13:57:18.170925,26
2021-12-10 13:57:18.170933,44
2021-12-10 13:57:18.170942,51
2021-12-10 13:57:18.170950,58
2021-12-10 13:57:18.170958,70
2021-12-10 13:57:18.170967,92
2021-12-10 13:57:18.170975,114
2021-12-10 13:57:18.170983,136
2021-12-10 13:57:18.170992,163
2021-12-10 13:57:18.171000,190
2021-12-10 13:57:18.171008,224
2021-12-10 13:57:18.171017,256
2021-12-10 13:57:18.171025,271
2021-12-10 13:57:18.171033,281
2021-12-10 13:57:18.171042,278
2021-12-10 13:57:18.171050,251
2021-12-10 13:57:18.171058,215
2021-12-10 13:57:18.171066,163
2021-12-10 13:57:18.171075,95
2021-12-10 13:57:18.171083,9
2021-12-10 13:57:18.530913,-68
2021-12-10 13:57:18.530933,-132
2021-12-10 13:57:18.530943,-180
2021-12-10 13:57:18.530952,-205
2021-12-10 13:57:18.530961,-220
2021-12-10 13:57:18.530969,-232
2021-12-10 13:57:18.530977,-239
2021-12-10 13:57:18.530986,-244
2021-12-10 13:57:18.530994,-239
2021-12-10 13:57:18.531002,-227
2021-12-10 13:57:18.531011,-217
2021-12-10 13:57:18.531019,-205
2021-12-10 13:57:18.531027,-193
2021-12-10 13:57:18.531036,-193
2021-12-10 13:57:18.531044,-185
2021-12-10 13:57:18.531053,-171
2021-12-10 13:57:18.531061,-161
2021-12-10 13:57:18.531070,-154
2021-12-10 13:57:18.531079,-149
2021-12-10 13:57:18.531087,-144
2021-12-10 13:57:18.531096,-136
2021-12-10 13:57:18.531104,-136
2021-12-10 13:57:18.531112,-146
2021-12-10 13:57:18.531121,-149
2021-12-10 13:57:18.531129,-141
2021-12-10 13:57:18.531138,-141
2021-12-10 13:57:18.531146,-139
2021-12-10 13:57:18.531194,-139
2021-12-10 13:57:18.531208,-146
2021-12-10 13:57:18.531220,-154
2021-12-10 13:57:18.621414,-154
2021-12-10 13:57:18.621433,-154
2021-12-10 13:57:18.621442,-151
2021-12-10 13:57:18.621451,-149
2021-12-10 13:57:18.621460,-151
2021-12-10 13:57:18.621468,-151
2021-12-10 13:57:18.621477,-151
2021-12-10 13:57:18.621485,-146
2021-12-10 13:57:18.621493,-144
2021-12-10 13:57:18.621502,-146
2021-12-10 13:57:18.621510,-144
2021-12-10 13:57:18.621518,-141
2021-12-10 13:57:18.621527,-144
2021-12-10 13:57:18.621535,-139
2021-12-10 13:57:18.621544,-136
2021-12-10 13:57:18.621552,-139
2021-12-10 13:57:18.621560,-144
2021-12-10 13:57:18.621569,-139
2021-12-10 13:57:18.621577,-127
2021-12-10 13:57:18.621585,-122
2021-12-10 13:57:18.621594,-119
2021-12-10 13:57:18.621602,-112
2021-12-10 13:57:18.621610,-97
2021-12-10 13:57:18.621619,-95
2021-12-10 13:57:18.621627,-119
2021-12-10 13:57:18.621635,-144
2021-12-10 13:57:18.621644,-132
2021-12-10 13:57:18.621652,-124
2021-12-10 13:57:18.621660,-134
2021-12-10 13:57:18.621669,-134
2021-12-10 13:57:18.802102,-124
2021-12-10 13:57:18.802122,-119
2021-12-10 13:57:18.802131,-119
2021-12-10 13:57:18.802140,-92
2021-12-10 13:57:18.802149,-22
2021-12-10 13:57:18.802158,149
2021-12-10 13:57:18.802166,452
2021-12-10 13:57:18.802175,423
2021-12-10 13:57:18.802183,-215
2021-12-10 13:57:18.802191,-750
2021-12-10 13:57:18.802199,-648
2021-12-10 13:57:18.802208,-315
2021-12-10 13:57:18.802216,-188
2021-12-10 13:57:18.802225,-136
2021-12-10 13:57:18.802233,-58
2021-12-10 13:57:18.802241,-41
2021-12-10 13:57:18.802250,-39
2021-12-10 13:57:18.802258,-9
2021-12-10 13:57:18.802267,4
2021-12-10 13:57:18.802275,7
2021-12-10 13:57:18.802283,22
2021-12-10 13:57:18.802291,34
2021-12-10 13:57:18.802300,39
2021-12-10 13:57:18.802308,46
2021-12-10 13:57:18.802316,63
2021-12-10 13:57:18.802325,75
2021-12-10 13:57:18.802333,88
2021-12-10 13:57:18.802342,112
2021-12-10 13:57:18.802350,139
2021-12-10 13:57:18.802358,158
2021-12-10 13:57:19.116548,188
2021-12-10 13:57:19.116572,215
2021-12-10 13:57:19.116582,237
2021-12-10 13:57:19.116591,246
2021-12-10 13:57:19.116600,237
2021-12-10 13:57:19.116608,212
2021-12-10 13:57:19.116617,180
2021-12-10 13:57:19.116626,141
2021-12-10 13:57:19.116634,78
2021-12-10 13:57:19.116643,-4
2021-12-10 13:57:19.116651,-70
2021-12-10 13:57:19.116660,-122
2021-12-10 13:57:19.116668,-171
2021-12-10 13:57:19.116677,-205
2021-12-10 13:57:19.116686,-220
2021-12-10 13:57:19.116694,-224
2021-12-10 13:57:19.116703,-227
2021-12-10 13:57:19.116711,-224
2021-12-10 13:57:19.116720,-217
2021-12-10 13:57:19.116728,-210
2021-12-10 13:57:19.116740,-200
2021-12-10 13:57:19.116749,-188
2021-12-10 13:57:19.116757,-176
2021-12-10 13:57:19.116766,-166
2021-12-10 13:57:19.116774,-156
2021-12-10 13:57:19.116783,-149
2021-12-10 13:57:19.116792,-141
2021-12-10 13:57:19.116800,-139
2021-12-10 13:57:19.116808,-136
2021-12-10 13:57:19.116817,-134
2021-12-10 13:57:19.297024,-127
2021-12-10 13:57:19.297043,-122
2021-12-10 13:57:19.297053,-124
2021-12-10 13:57:19.297061,-122
2021-12-10 13:57:19.297070,-124
2021-12-10 13:57:19.297078,-129
2021-12-10 13:57:19.297087,-127
2021-12-10 13:57:19.297095,-124
2021-12-10 13:57:19.297103,-129
2021-12-10 13:57:19.297112,-127
2021-12-10 13:57:19.297120,-124
2021-12-10 13:57:19.297128,-129
2021-12-10 13:57:19.297137,-129
2021-12-10 13:57:19.297145,-122
2021-12-10 13:57:19.297153,-122
2021-12-10 13:57:19.297161,-127
2021-12-10 13:57:19.297170,-124
2021-12-10 13:57:19.297178,-119
2021-12-10 13:57:19.297186,-119
2021-12-10 13:57:19.297194,-119
2021-12-10 13:57:19.297202,-114
2021-12-10 13:57:19.297211,-107
2021-12-10 13:57:19.297219,-102
2021-12-10 13:57:19.297228,-105
2021-12-10 13:57:19.297236,-112
2021-12-10 13:57:19.297246,-112
2021-12-10 13:57:19.297253,-110
2021-12-10 13:57:19.297287,-102
2021-12-10 13:57:19.297299,-102
2021-12-10 13:57:19.297308,-97
2021-12-10 13:57:19.522273,-78
2021-12-10 13:57:19.522304,-66
2021-12-10 13:57:19.522315,-70
2021-12-10 13:57:19.522323,-88
2021-12-10 13:57:19.522332,-112
2021-12-10 13:57:19.522341,-114
2021-12-10 13:57:19.522349,-105
2021-12-10 13:57:19.522358,-107
2021-12-10 13:57:19.522366,-105
2021-12-10 13:57:19.522375,-100
2021-12-10 13:57:19.522383,-110
2021-12-10 13:57:19.522393,-112
2021-12-10 13:57:19.522402,-75
2021-12-10 13:57:19.522410,-9
2021-12-10 13:57:19.522419,151
2021-12-10 13:57:19.522427,462
2021-12-10 13:57:19.522436,459
2021-12-10 13:57:19.522444,-168
2021-12-10 13:57:19.522453,-748
2021-12-10 13:57:19.522461,-677
2021-12-10 13:57:19.522470,-320
2021-12-10 13:57:19.522478,-173
2021-12-10 13:57:19.522486,-124
2021-12-10 13:57:19.522495,-39
2021-12-10 13:57:19.522504,-17
2021-12-10 13:57:19.522512,-22
2021-12-10 13:57:19.522521,7
2021-12-10 13:57:19.522529,17
2021-12-10 13:57:19.522537,17
2021-12-10 13:57:19.522546,36
2021-12-10 13:57:19.791437,46
2021-12-10 13:57:19.791456,51
2021-12-10 13:57:19.791466,63
2021-12-10 13:57:19.791474,78
2021-12-10 13:57:19.791483,88
2021-12-10 13:57:19.791491,105
2021-12-10 13:57:19.791500,136
2021-12-10 13:57:19.791508,166
2021-12-10 13:57:19.791517,188
2021-12-10 13:57:19.791525,215
2021-12-10 13:57:19.791533,242
2021-12-10 13:57:19.791542,256
2021-12-10 13:57:19.791550,259
2021-12-10 13:57:19.791559,261
2021-12-10 13:57:19.791567,249
2021-12-10 13:57:19.791576,210
2021-12-10 13:57:19.791584,158
2021-12-10 13:57:19.791593,97
2021-12-10 13:57:19.791601,19
2021-12-10 13:57:19.791609,-56
2021-12-10 13:57:19.791618,-114
2021-12-10 13:57:19.791626,-163
2021-12-10 13:57:19.791637,-195
2021-12-10 13:57:19.791646,-212
2021-12-10 13:57:19.791654,-222
2021-12-10 13:57:19.791662,-222
2021-12-10 13:57:19.791671,-224
2021-12-10 13:57:19.791679,-222
2021-12-10 13:57:19.791687,-212
2021-12-10 13:57:19.791696,-200
2021-12-10 13:57:20.062115,-188
2021-12-10 13:57:20.062134,-178
2021-12-10 13:57:20.062144,-173
2021-12-10 13:57:20.062152,-163
2021-12-10 13:57:20.062161,-156
2021-12-10 13:57:20.062170,-151
2021-12-10 13:57:20.062178,-149
2021-12-10 13:57:20.062186,-139
2021-12-10 13:57:20.062195,-132
2021-12-10 13:57:20.062203,-144
2021-12-10 13:57:20.062212,-141
2021-12-10 13:57:20.062220,-132
2021-12-10 13:57:20.062228,-132
2021-12-10 13:57:20.062237,-139
2021-12-10 13:57:20.062245,-141
2021-12-10 13:57:20.062253,-139
2021-12-10 13:57:20.062262,-144
2021-12-10 13:57:20.062270,-149
2021-12-10 13:57:20.062278,-144
2021-12-10 13:57:20.062287,-144
2021-12-10 13:57:20.062295,-146
2021-12-10 13:57:20.062303,-144
2021-12-10 13:57:20.062312,-139
2021-12-10 13:57:20.062320,-136
2021-12-10 13:57:20.062329,-136
2021-12-10 13:57:20.062337,-134
2021-12-10 13:57:20.062345,-129
2021-12-10 13:57:20.062354,-132
2021-12-10 13:57:20.062362,-129
2021-12-10 13:57:20.062370,-119
2021-12-10 13:57:20.241450,-119
2021-12-10 13:57:20.241470,-122
2021-12-10 13:57:20.241479,-122
2021-12-10 13:57:20.241488,-124
2021-12-10 13:57:20.241497,-119
2021-12-10 13:57:20.241505,-117
2021-12-10 13:57:20.241513,-107
2021-12-10 13:57:20.241522,-102
2021-12-10 13:57:20.241530,-100
2021-12-10 13:57:20.241539,-90
2021-12-10 13:57:20.241547,-75
2021-12-10 13:57:20.241556,-83
2021-12-10 13:57:20.241564,-110
2021-12-10 13:57:20.241572,-122
2021-12-10 13:57:20.241581,-112
2021-12-10 13:57:20.241589,-112
2021-12-10 13:57:20.241598,-117
2021-12-10 13:57:20.241606,-110
2021-12-10 13:57:20.241614,-110
2021-12-10 13:57:20.241623,-107
2021-12-10 13:57:20.241631,-88
2021-12-10 13:57:20.241640,-41
2021-12-10 13:57:20.241648,90
2021-12-10 13:57:20.241656,405
2021-12-10 13:57:20.241665,577
2021-12-10 13:57:20.241673,92
2021-12-10 13:57:20.241681,-667
2021-12-10 13:57:20.241690,-829
2021-12-10 13:57:20.241698,-440
2021-12-10 13:57:20.241707,-202
2021-12-10 13:57:20.511470,-166
2021-12-10 13:57:20.511489,-75
2021-12-10 13:57:20.511499,-26
2021-12-10 13:57:20.511508,-36
2021-12-10 13:57:20.511516,-14
2021-12-10 13:57:20.511525,14
2021-12-10 13:57:20.511533,9
2021-12-10 13:57:20.511542,12
2021-12-10 13:57:20.511550,29
2021-12-10 13:57:20.511559,39
2021-12-10 13:57:20.511567,48
2021-12-10 13:57:20.511576,61
2021-12-10 13:57:20.511584,73
2021-12-10 13:57:20.511592,95
2021-12-10 13:57:20.511601,114
2021-12-10 13:57:20.511609,134
2021-12-10 13:57:20.511618,168
2021-12-10 13:57:20.511626,198
2021-12-10 13:57:20.511635,220
2021-12-10 13:57:20.511643,246
2021-12-10 13:57:20.511652,261
2021-12-10 13:57:20.511660,259
2021-12-10 13:57:20.511668,246
2021-12-10 13:57:20.511677,220
2021-12-10 13:57:20.511685,173
2021-12-10 13:57:20.511694,114
2021-12-10 13:57:20.511702,39
2021-12-10 13:57:20.511710,-44
2021-12-10 13:57:20.511719,-102
2021-12-10 13:57:20.511727,-141
2021-12-10 13:57:20.647116,-183
2021-12-10 13:57:20.647135,-217
2021-12-10 13:57:20.647145,-222
2021-12-10 13:57:20.647154,-217
2021-12-10 13:57:20.647162,-217
2021-12-10 13:57:20.647174,-215
2021-12-10 13:57:20.647182,-207
2021-12-10 13:57:20.647191,-200
2021-12-10 13:57:20.647199,-188
2021-12-10 13:57:20.647207,-176
2021-12-10 13:57:20.647216,-168
2021-12-10 13:57:20.647224,-154
2021-12-10 13:57:20.647232,-146
2021-12-10 13:57:20.647241,-149
2021-12-10 13:57:20.647249,-146
2021-12-10 13:57:20.647258,-139
2021-12-10 13:57:20.647266,-136
2021-12-10 13:57:20.647274,-139
2021-12-10 13:57:20.647283,-134
2021-12-10 13:57:20.647291,-124
2021-12-10 13:57:20.647299,-129
2021-12-10 13:57:20.647308,-134
2021-12-10 13:57:20.647316,-129
2021-12-10 13:57:20.647325,-132
2021-12-10 13:57:20.647333,-134
2021-12-10 13:57:20.647341,-134
2021-12-10 13:57:20.647350,-139
2021-12-10 13:57:20.647358,-134
2021-12-10 13:57:20.647366,-127
2021-12-10 13:57:20.647375,-134
2021-12-10 13:57:20.871967,-134
2021-12-10 13:57:20.871984,-132
2021-12-10 13:57:20.871994,-124
2021-12-10 13:57:20.872002,-122
2021-12-10 13:57:20.872011,-124
2021-12-10 13:57:20.872020,-122
2021-12-10 13:57:20.872028,-122
2021-12-10 13:57:20.872036,-124
2021-12-10 13:57:20.872045,-117
2021-12-10 13:57:20.872054,-114
2021-12-10 13:57:20.872062,-122
2021-12-10 13:57:20.872071,-127
2021-12-10 13:57:20.872079,-124
2021-12-10 13:57:20.872087,-117
2021-12-10 13:57:20.872096,-110
2021-12-10 13:57:20.872104,-105
2021-12-10 13:57:20.872112,-90
2021-12-10 13:57:20.872121,-78
2021-12-10 13:57:20.872129,-83
2021-12-10 13:57:20.872137,-102
2021-12-10 13:57:20.872146,-114
2021-12-10 13:57:20.872154,-110
2021-12-10 13:57:20.872163,-114
2021-12-10 13:57:20.872171,-114
2021-12-10 13:57:20.872179,-105
2021-12-10 13:57:20.872188,-95
2021-12-10 13:57:20.872196,-95
2021-12-10 13:57:20.872204,-85
2021-12-10 13:57:20.872213,-46
2021-12-10 13:57:20.872221,68
2021-12-10 13:57:21.097177,393
2021-12-10 13:57:21.097197,667
2021-12-10 13:57:21.097206,251
2021-12-10 13:57:21.097213,-616
2021-12-10 13:57:21.097222,-899
2021-12-10 13:57:21.097230,-496
2021-12-10 13:57:21.097237,-215
2021-12-10 13:57:21.097245,-183
2021-12-10 13:57:21.097253,-88
2021-12-10 13:57:21.097261,-22
2021-12-10 13:57:21.097269,-39
2021-12-10 13:57:21.097277,-24
2021-12-10 13:57:21.097285,2
2021-12-10 13:57:21.097293,4
2021-12-10 13:57:21.097301,19
2021-12-10 13:57:21.097309,31
2021-12-10 13:57:21.097317,26
2021-12-10 13:57:21.097325,39
2021-12-10 13:57:21.097333,66
2021-12-10 13:57:21.097341,78
2021-12-10 13:57:21.097349,88
2021-12-10 13:57:21.097357,110
2021-12-10 13:57:21.097365,144
2021-12-10 13:57:21.097373,168
2021-12-10 13:57:21.097381,193
2021-12-10 13:57:21.097389,224
2021-12-10 13:57:21.097397,249
2021-12-10 13:57:21.097405,259
2021-12-10 13:57:21.097413,251
2021-12-10 13:57:21.097421,244
2021-12-10 13:57:21.367082,229
2021-12-10 13:57:21.367101,185
2021-12-10 13:57:21.367110,122
2021-12-10 13:57:21.367119,48
2021-12-10 13:57:21.367128,-36
2021-12-10 13:57:21.367137,-105
2021-12-10 13:57:21.367145,-151
2021-12-10 13:57:21.367154,-188
2021-12-10 13:57:21.367163,-217
2021-12-10 13:57:21.367171,-234
2021-12-10 13:57:21.367180,-237
2021-12-10 13:57:21.367188,-237
2021-12-10 13:57:21.367197,-232
2021-12-10 13:57:21.367206,-222
2021-12-10 13:57:21.367214,-207
2021-12-10 13:57:21.367223,-193
2021-12-10 13:57:21.367231,-183
2021-12-10 13:57:21.367240,-180
2021-12-10 13:57:21.367248,-171
2021-12-10 13:57:21.367257,-161
2021-12-10 13:57:21.367265,-151
2021-12-10 13:57:21.367274,-144
2021-12-10 13:57:21.367282,-146
2021-12-10 13:57:21.367291,-149
2021-12-10 13:57:21.367300,-139
2021-12-10 13:57:21.367308,-134
2021-12-10 13:57:21.367317,-134
2021-12-10 13:57:21.367325,-136
2021-12-10 13:57:21.367333,-136
2021-12-10 13:57:21.367342,-136
2021-12-10 13:57:21.592178,-136
2021-12-10 13:57:21.592201,-139
2021-12-10 13:57:21.592210,-141
2021-12-10 13:57:21.592219,-144
2021-12-10 13:57:21.592228,-144
2021-12-10 13:57:21.592236,-139
2021-12-10 13:57:21.592245,-141
2021-12-10 13:57:21.592253,-144
2021-12-10 13:57:21.592262,-134
2021-12-10 13:57:21.592270,-129
2021-12-10 13:57:21.592279,-139
2021-12-10 13:57:21.592287,-139
2021-12-10 13:57:21.592296,-132
2021-12-10 13:57:21.592304,-129
2021-12-10 13:57:21.592312,-124
2021-12-10 13:57:21.592321,-122
2021-12-10 13:57:21.592329,-132
2021-12-10 13:57:21.592338,-129
2021-12-10 13:57:21.592346,-129
2021-12-10 13:57:21.592355,-127
2021-12-10 13:57:21.592363,-119
2021-12-10 13:57:21.592371,-117
2021-12-10 13:57:21.592379,-105
2021-12-10 13:57:21.592388,-88
2021-12-10 13:57:21.592396,-80
2021-12-10 13:57:21.592405,-78
2021-12-10 13:57:21.592413,-102
2021-12-10 13:57:21.592421,-124
2021-12-10 13:57:21.592430,-110
2021-12-10 13:57:21.592438,-100
2021-12-10 13:57:22.040896,-110
2021-12-10 13:57:22.040914,-112
2021-12-10 13:57:22.040924,-102
2021-12-10 13:57:22.040933,-102
2021-12-10 13:57:22.040942,-97
2021-12-10 13:57:22.040951,-56
2021-12-10 13:57:22.040959,53
2021-12-10 13:57:22.040968,342
2021-12-10 13:57:22.040977,692
2021-12-10 13:57:22.040985,457
2021-12-10 13:57:22.040994,-420
2021-12-10 13:57:22.041003,-904
2021-12-10 13:57:22.041011,-577
2021-12-10 13:57:22.041020,-220
2021-12-10 13:57:22.041029,-180
2021-12-10 13:57:22.041037,-117
2021-12-10 13:57:22.041046,-26
2021-12-10 13:57:22.041054,-31
2021-12-10 13:57:22.041063,-29
2021-12-10 13:57:22.041071,4
2021-12-10 13:57:22.041080,17
2021-12-10 13:57:22.041088,22
2021-12-10 13:57:22.041097,29
2021-12-10 13:57:22.041105,36
2021-12-10 13:57:22.041114,58
2021-12-10 13:57:22.041122,66
2021-12-10 13:57:22.041130,66
2021-12-10 13:57:22.041139,83
2021-12-10 13:57:22.041147,112
2021-12-10 13:57:22.041160,136
2021-12-10 13:57:22.176539,161
2021-12-10 13:57:22.176558,198
2021-12-10 13:57:22.176568,227
2021-12-10 13:57:22.176577,234
2021-12-10 13:57:22.176585,249
2021-12-10 13:57:22.176594,259
2021-12-10 13:57:22.176602,244
2021-12-10 13:57:22.176611,224
2021-12-10 13:57:22.176619,193
2021-12-10 13:57:22.176627,132
2021-12-10 13:57:22.176636,51
2021-12-10 13:57:22.176644,-22
2021-12-10 13:57:22.176653,-85
2021-12-10 13:57:22.176661,-141
2021-12-10 13:57:22.176670,-188
2021-12-10 13:57:22.176678,-220
2021-12-10 13:57:22.176687,-237
2021-12-10 13:57:22.176695,-234
2021-12-10 13:57:22.176703,-227
2021-12-10 13:57:22.176712,-224
2021-12-10 13:57:22.176720,-224
2021-12-10 13:57:22.176728,-217
2021-12-10 13:57:22.176737,-198
2021-12-10 13:57:22.176745,-185
2021-12-10 13:57:22.176754,-176
2021-12-10 13:57:22.176762,-166
2021-12-10 13:57:22.176770,-163
2021-12-10 13:57:22.176779,-156
2021-12-10 13:57:22.176787,-136
2021-12-10 13:57:22.176796,-134
2021-12-10 13:57:22.311322,-141
2021-12-10 13:57:22.311340,-136
2021-12-10 13:57:22.311350,-136
2021-12-10 13:57:22.311359,-136
2021-12-10 13:57:22.311367,-132
2021-12-10 13:57:22.311376,-132
2021-12-10 13:57:22.311384,-134
2021-12-10 13:57:22.311393,-134
2021-12-10 13:57:22.311401,-139
2021-12-10 13:57:22.311409,-144
2021-12-10 13:57:22.311418,-139
2021-12-10 13:57:22.311427,-132
2021-12-10 13:57:22.311435,-134
2021-12-10 13:57:22.311443,-136
2021-12-10 13:57:22.311451,-141
2021-12-10 13:57:22.311460,-141
2021-12-10 13:57:22.311468,-134
2021-12-10 13:57:22.311476,-129
2021-12-10 13:57:22.311485,-129
2021-12-10 13:57:22.311493,-127
2021-12-10 13:57:22.311502,-127
2021-12-10 13:57:22.311510,-124
2021-12-10 13:57:22.311518,-122
2021-12-10 13:57:22.311526,-124
2021-12-10 13:57:22.311535,-124
2021-12-10 13:57:22.311543,-124
2021-12-10 13:57:22.311551,-117
2021-12-10 13:57:22.311559,-112
2021-12-10 13:57:22.311568,-110
2021-12-10 13:57:22.311576,-97
2021-12-10 13:57:22.492011,-88
2021-12-10 13:57:22.492029,-95
2021-12-10 13:57:22.492038,-122
2021-12-10 13:57:22.492047,-141
2021-12-10 13:57:22.492056,-132
2021-12-10 13:57:22.492065,-117
2021-12-10 13:57:22.492073,-122
2021-12-10 13:57:22.492082,-122
2021-12-10 13:57:22.492090,-119
2021-12-10 13:57:22.492099,-117
2021-12-10 13:57:22.492107,-105
2021-12-10 13:57:22.492120,-70
2021-12-10 13:57:22.492129,17
2021-12-10 13:57:22.492137,254
2021-12-10 13:57:22.492146,670
2021-12-10 13:57:22.492154,687
2021-12-10 13:57:22.492163,-107
2021-12-10 13:57:22.492171,-855
2021-12-10 13:57:22.492180,-733
2021-12-10 13:57:22.492188,-278
2021-12-10 13:57:22.492197,-146
2021-12-10 13:57:22.492205,-114
2021-12-10 13:57:22.492214,-17
2021-12-10 13:57:22.492222,-2
2021-12-10 13:57:22.492230,-9
2021-12-10 13:57:22.492239,19
2021-12-10 13:57:22.492247,31
2021-12-10 13:57:22.492255,39
2021-12-10 13:57:22.492264,56
2021-12-10 13:57:22.492272,63
2021-12-10 13:57:22.761519,75
2021-12-10 13:57:22.761539,90
2021-12-10 13:57:22.761548,105
2021-12-10 13:57:22.761558,124
2021-12-10 13:57:22.761567,139
2021-12-10 13:57:22.761575,156
2021-12-10 13:57:22.761584,185
2021-12-10 13:57:22.761593,210
2021-12-10 13:57:22.761602,234
2021-12-10 13:57:22.761610,261
2021-12-10 13:57:22.761619,276
2021-12-10 13:57:22.761628,283
2021-12-10 13:57:22.761636,276
2021-12-10 13:57:22.761645,246
2021-12-10 13:57:22.761653,212
2021-12-10 13:57:22.761662,161
2021-12-10 13:57:22.761670,90
2021-12-10 13:57:22.761679,12
2021-12-10 13:57:22.761688,-56
2021-12-10 13:57:22.761696,-110
2021-12-10 13:57:22.761705,-156
2021-12-10 13:57:22.761713,-195
2021-12-10 13:57:22.761722,-215
2021-12-10 13:57:22.761731,-220
2021-12-10 13:57:22.761739,-217
2021-12-10 13:57:22.761748,-215
2021-12-10 13:57:22.761756,-212
2021-12-10 13:57:22.761765,-202
2021-12-10 13:57:22.761773,-185
2021-12-10 13:57:22.761782,-168
2021-12-10 13:57:22.942125,-161
2021-12-10 13:57:22.942144,-156
2021-12-10 13:57:22.942154,-144
2021-12-10 13:57:22.942162,-136
2021-12-10 13:57:22.942171,-132
2021-12-10 13:57:22.942179,-124
2021-12-10 13:57:22.942188,-122
2021-12-10 13:57:22.942196,-122
2021-12-10 13:57:22.942205,-119
2021-12-10 13:57:22.942214,-114
2021-12-10 13:57:22.942222,-119
2021-12-10 13:57:22.942230,-132
2021-12-10 13:57:22.942239,-129
2021-12-10 13:57:22.942248,-124
2021-12-10 13:57:22.942256,-127
2021-12-10 13:57:22.942265,-124
2021-12-10 13:57:22.942273,-124
2021-12-10 13:57:22.942282,-124
2021-12-10 13:57:22.942290,-129
2021-12-10 13:57:22.942298,-129
2021-12-10 13:57:22.942307,-124
2021-12-10 13:57:22.942315,-129
2021-12-10 13:57:22.942323,-132
2021-12-10 13:57:22.942332,-124
2021-12-10 13:57:22.942340,-132
2021-12-10 13:57:22.942349,-129
2021-12-10 13:57:22.942357,-119
2021-12-10 13:57:22.942365,-122
2021-12-10 13:57:22.942373,-122
2021-12-10 13:57:22.942382,-110
2021-12-10 13:57:23.212658,-90
2021-12-10 13:57:23.212678,-85
2021-12-10 13:57:23.212687,-95
2021-12-10 13:57:23.212696,-107
2021-12-10 13:57:23.212705,-122
2021-12-10 13:57:23.212713,-132
2021-12-10 13:57:23.212722,-124
2021-12-10 13:57:23.212730,-119
2021-12-10 13:57:23.212739,-122
2021-12-10 13:57:23.212747,-122
2021-12-10 13:57:23.212756,-112
2021-12-10 13:57:23.212764,-105
2021-12-10 13:57:23.212773,-70
2021-12-10 13:57:23.212781,4
2021-12-10 13:57:23.212790,146
2021-12-10 13:57:23.212798,339
2021-12-10 13:57:23.212807,190
2021-12-10 13:57:23.212815,-528
2021-12-10 13:57:23.212824,-1046
2021-12-10 13:57:23.212832,-767
2021-12-10 13:57:23.212840,-313
2021-12-10 13:57:23.212849,-195
2021-12-10 13:57:23.212857,-124
2021-12-10 13:57:23.212865,2
2021-12-10 13:57:23.212874,26
2021-12-10 13:57:23.212882,17
2021-12-10 13:57:23.212891,48
2021-12-10 13:57:23.212899,63
2021-12-10 13:57:23.212908,63
2021-12-10 13:57:23.212916,78
2021-12-10 13:57:23.481388,92
2021-12-10 13:57:23.481405,95
2021-12-10 13:57:23.481415,105
2021-12-10 13:57:23.481424,122
2021-12-10 13:57:23.481433,144
2021-12-10 13:57:23.481442,158
2021-12-10 13:57:23.481450,178
2021-12-10 13:57:23.481459,215
2021-12-10 13:57:23.481468,242
2021-12-10 13:57:23.481476,264
2021-12-10 13:57:23.481485,293
2021-12-10 13:57:23.481493,305
2021-12-10 13:57:23.481502,303
2021-12-10 13:57:23.481511,291
2021-12-10 13:57:23.481519,266
2021-12-10 13:57:23.481528,222
2021-12-10 13:57:23.481536,151
2021-12-10 13:57:23.481545,68
2021-12-10 13:57:23.481553,-12
2021-12-10 13:57:23.481562,-80
2021-12-10 13:57:23.481570,-139
2021-12-10 13:57:23.481579,-190
2021-12-10 13:57:23.481587,-217
2021-12-10 13:57:23.481596,-229
2021-12-10 13:57:23.481604,-242
2021-12-10 13:57:23.481613,-246
2021-12-10 13:57:23.481621,-254
2021-12-10 13:57:23.481630,-254
2021-12-10 13:57:23.481639,-237
2021-12-10 13:57:23.481647,-222
2021-12-10 13:57:23.662125,-212
2021-12-10 13:57:23.662145,-198
2021-12-10 13:57:23.662154,-188
2021-12-10 13:57:23.662163,-178
2021-12-10 13:57:23.662172,-168
2021-12-10 13:57:23.662180,-161
2021-12-10 13:57:23.662188,-154
2021-12-10 13:57:23.662197,-154
2021-12-10 13:57:23.662207,-151
2021-12-10 13:57:23.662216,-146
2021-12-10 13:57:23.662225,-151
2021-12-10 13:57:23.662233,-154
2021-12-10 13:57:23.662241,-149
2021-12-10 13:57:23.662250,-146
2021-12-10 13:57:23.662258,-151
2021-12-10 13:57:23.662267,-158
2021-12-10 13:57:23.662275,-156
2021-12-10 13:57:23.662283,-156
2021-12-10 13:57:23.662292,-158
2021-12-10 13:57:23.662300,-154
2021-12-10 13:57:23.662308,-154
2021-12-10 13:57:23.662317,-154
2021-12-10 13:57:23.662325,-154
2021-12-10 13:57:23.662333,-149
2021-12-10 13:57:23.662342,-144
2021-12-10 13:57:23.662350,-144
2021-12-10 13:57:23.662359,-146
2021-12-10 13:57:23.662367,-146
2021-12-10 13:57:23.662375,-141
2021-12-10 13:57:23.662384,-132
2021-12-10 13:57:23.931454,-124
2021-12-10 13:57:23.931473,-112
2021-12-10 13:57:23.931482,-100
2021-12-10 13:57:23.931491,-105
2021-12-10 13:57:23.931500,-122
2021-12-10 13:57:23.931508,-136
2021-12-10 13:57:23.931517,-134
2021-12-10 13:57:23.931525,-127
2021-12-10 13:57:23.931534,-129
2021-12-10 13:57:23.931542,-132
2021-12-10 13:57:23.931551,-132
2021-12-10 13:57:23.931559,-132
2021-12-10 13:57:23.931568,-122
2021-12-10 13:57:23.931576,-92
2021-12-10 13:57:23.931584,-34
2021-12-10 13:57:23.931593,129
2021-12-10 13:57:23.931601,437
2021-12-10 13:57:23.931610,425
2021-12-10 13:57:23.931618,-254
2021-12-10 13:57:23.931626,-853
2021-12-10 13:57:23.931635,-709
2021-12-10 13:57:23.931643,-332
2021-12-10 13:57:23.931651,-220
2021-12-10 13:57:23.931660,-146
2021-12-10 13:57:23.931668,-41
2021-12-10 13:57:23.931676,-36
2021-12-10 13:57:23.931685,-36
2021-12-10 13:57:23.931693,0
2021-12-10 13:57:23.931701,9
2021-12-10 13:57:23.931710,7
2021-12-10 13:57:24.157192,19
2021-12-10 13:57:24.157212,26
2021-12-10 13:57:24.157222,34
2021-12-10 13:57:24.157231,41
2021-12-10 13:57:24.157239,56
2021-12-10 13:57:24.157248,78
2021-12-10 13:57:24.157257,95
2021-12-10 13:57:24.157265,112
2021-12-10 13:57:24.157273,136
2021-12-10 13:57:24.157282,158
2021-12-10 13:57:24.157290,173
2021-12-10 13:57:24.157299,188
2021-12-10 13:57:24.157307,207
2021-12-10 13:57:24.157316,212
2021-12-10 13:57:24.157325,195
2021-12-10 13:57:24.157333,166
2021-12-10 13:57:24.157342,141
2021-12-10 13:57:24.157350,92
2021-12-10 13:57:24.157358,24
2021-12-10 13:57:24.157367,-41
2021-12-10 13:57:24.157375,-105
2021-12-10 13:57:24.157383,-156
2021-12-10 13:57:24.157392,-188
2021-12-10 13:57:24.157400,-212
2021-12-10 13:57:24.157409,-229
2021-12-10 13:57:24.157417,-234
2021-12-10 13:57:24.157426,-229
2021-12-10 13:57:24.157434,-224
2021-12-10 13:57:24.157442,-222
2021-12-10 13:57:24.157451,-212
2021-12-10 13:57:24.425805,-198
2021-12-10 13:57:24.425823,-188
2021-12-10 13:57:24.425832,-178
2021-12-10 13:57:24.425841,-173
2021-12-10 13:57:24.425850,-166
2021-12-10 13:57:24.425858,-156
2021-12-10 13:57:24.425867,-149
2021-12-10 13:57:24.425875,-149
2021-12-10 13:57:24.425884,-146
2021-12-10 13:57:24.425892,-136
2021-12-10 13:57:24.425900,-132
2021-12-10 13:57:24.425909,-127
2021-12-10 13:57:24.425917,-122
2021-12-10 13:57:24.425926,-129
2021-12-10 13:57:24.425934,-134
2021-12-10 13:57:24.425942,-127
2021-12-10 13:57:24.425951,-127
2021-12-10 13:57:24.425959,-127
2021-12-10 13:57:24.425967,-117
2021-12-10 13:57:24.425976,-117
2021-12-10 13:57:24.425984,-124
2021-12-10 13:57:24.425993,-127
2021-12-10 13:57:24.426001,-122
2021-12-10 13:57:24.426009,-119
2021-12-10 13:57:24.426018,-122
2021-12-10 13:57:24.426026,-119
2021-12-10 13:57:24.426034,-114
2021-12-10 13:57:24.426042,-112
2021-12-10 13:57:24.426051,-110
2021-12-10 13:57:24.426059,-110
2021-12-10 13:57:24.606416,-105
2021-12-10 13:57:24.606431,-95
2021-12-10 13:57:24.606437,-88
2021-12-10 13:57:24.606442,-73
2021-12-10 13:57:24.606446,-75
2021-12-10 13:57:24.606451,-97
2021-12-10 13:57:24.606455,-107
2021-12-10 13:57:24.606460,-102
2021-12-10 13:57:24.606464,-105
2021-12-10 13:57:24.606469,-112
2021-12-10 13:57:24.606473,-112
2021-12-10 13:57:24.606478,-107
2021-12-10 13:57:24.606482,-105
2021-12-10 13:57:24.606487,-102
2021-12-10 13:57:24.606491,-70
2021-12-10 13:57:24.606496,0
2021-12-10 13:57:24.606500,190
2021-12-10 13:57:24.606505,467
2021-12-10 13:57:24.606509,335
2021-12-10 13:57:24.606514,-330
2021-12-10 13:57:24.606518,-758
2021-12-10 13:57:24.606523,-586
2021-12-10 13:57:24.606527,-293
2021-12-10 13:57:24.606532,-171
2021-12-10 13:57:24.606536,-90
2021-12-10 13:57:24.606541,-31
2021-12-10 13:57:24.606545,-26
2021-12-10 13:57:24.606550,-14
2021-12-10 13:57:24.606554,9
2021-12-10 13:57:24.606559,17
2021-12-10 13:57:24.832231,17
2021-12-10 13:57:24.832250,24
2021-12-10 13:57:24.832260,36
2021-12-10 13:57:24.832268,46
2021-12-10 13:57:24.832277,61
2021-12-10 13:57:24.832286,78
2021-12-10 13:57:24.832294,83
2021-12-10 13:57:24.832303,105
2021-12-10 13:57:24.832311,139
2021-12-10 13:57:24.832320,163
2021-12-10 13:57:24.832328,190
2021-12-10 13:57:24.832336,220
2021-12-10 13:57:24.832345,239
2021-12-10 13:57:24.832353,251
2021-12-10 13:57:24.832362,261
2021-12-10 13:57:24.832370,259
2021-12-10 13:57:24.832378,227
2021-12-10 13:57:24.832386,183
2021-12-10 13:57:24.832395,129
2021-12-10 13:57:24.832403,56
2021-12-10 13:57:24.832411,-22
2021-12-10 13:57:24.832420,-80
2021-12-10 13:57:24.832428,-119
2021-12-10 13:57:24.832440,-158
2021-12-10 13:57:24.832448,-193
2021-12-10 13:57:24.832457,-205
2021-12-10 13:57:24.832465,-205
2021-12-10 13:57:24.832473,-207
2021-12-10 13:57:24.832482,-198
2021-12-10 13:57:24.832490,-188
2021-12-10 13:57:25.056526,-185
2021-12-10 13:57:25.056545,-183
2021-12-10 13:57:25.056554,-180
2021-12-10 13:57:25.056563,-168
2021-12-10 13:57:25.056572,-161
2021-12-10 13:57:25.056581,-158
2021-12-10 13:57:25.056589,-154
2021-12-10 13:57:25.056597,-146
2021-12-10 13:57:25.056606,-134
2021-12-10 13:57:25.056614,-132
2021-12-10 13:57:25.056623,-136
2021-12-10 13:57:25.056631,-134
2021-12-10 13:57:25.056640,-132
2021-12-10 13:57:25.056648,-132
2021-12-10 13:57:25.056657,-132
2021-12-10 13:57:25.056665,-141
2021-12-10 13:57:25.056674,-141
2021-12-10 13:57:25.056682,-136
2021-12-10 13:57:25.056690,-139
2021-12-10 13:57:25.056699,-141
2021-12-10 13:57:25.056707,-146
2021-12-10 13:57:25.056715,-149
2021-12-10 13:57:25.056724,-144
2021-12-10 13:57:25.056732,-139
2021-12-10 13:57:25.056741,-141
2021-12-10 13:57:25.056749,-141
2021-12-10 13:57:25.056761,-139
2021-12-10 13:57:25.056785,-132
2021-12-10 13:57:25.056795,-127
2021-12-10 13:57:25.056803,-127
2021-12-10 13:57:25.281521,-129
2021-12-10 13:57:25.281540,-127
2021-12-10 13:57:25.281549,-122
2021-12-10 13:57:25.281558,-117
2021-12-10 13:57:25.281567,-100
2021-12-10 13:57:25.281576,-85
2021-12-10 13:57:25.281584,-92
2021-12-10 13:57:25.281592,-107
2021-12-10 13:57:25.281601,-122
2021-12-10 13:57:25.281609,-122
2021-12-10 13:57:25.281618,-114
2021-12-10 13:57:25.281626,-124
2021-12-10 13:57:25.281635,-124
2021-12-10 13:57:25.281643,-114
2021-12-10 13:57:25.281652,-110
2021-12-10 13:57:25.281660,-110
2021-12-10 13:57:25.281668,-90
2021-12-10 13:57:25.281677,-39
2021-12-10 13:57:25.281685,88
2021-12-10 13:57:25.281694,398
2021-12-10 13:57:25.281702,589
2021-12-10 13:57:25.281711,139
2021-12-10 13:57:25.281719,-601
2021-12-10 13:57:25.281728,-784
2021-12-10 13:57:25.281736,-430
2021-12-10 13:57:25.281745,-190
2021-12-10 13:57:25.281753,-151
2021-12-10 13:57:25.281762,-70
2021-12-10 13:57:25.281770,-22
2021-12-10 13:57:25.281779,-29
2021-12-10 13:57:25.507046,-14
2021-12-10 13:57:25.507064,12
2021-12-10 13:57:25.507073,19
2021-12-10 13:57:25.507082,29
2021-12-10 13:57:25.507091,41
2021-12-10 13:57:25.507099,48
2021-12-10 13:57:25.507108,61
2021-12-10 13:57:25.507116,70
2021-12-10 13:57:25.507125,83
2021-12-10 13:57:25.507133,105
2021-12-10 13:57:25.507142,119
2021-12-10 13:57:25.507150,141
2021-12-10 13:57:25.507158,171
2021-12-10 13:57:25.507167,205
2021-12-10 13:57:25.507175,232
2021-12-10 13:57:25.507184,244
2021-12-10 13:57:25.507192,249
2021-12-10 13:57:25.507200,246
2021-12-10 13:57:25.507209,232
2021-12-10 13:57:25.507217,205
2021-12-10 13:57:25.507225,156
2021-12-10 13:57:25.507233,90
2021-12-10 13:57:25.507242,17
2021-12-10 13:57:25.507250,-56
2021-12-10 13:57:25.507259,-117
2021-12-10 13:57:25.507267,-168
2021-12-10 13:57:25.507276,-200
2021-12-10 13:57:25.507284,-215
2021-12-10 13:57:25.507293,-227
2021-12-10 13:57:25.507301,-229
2021-12-10 13:57:25.776539,-222
2021-12-10 13:57:25.776559,-215
2021-12-10 13:57:25.776569,-207
2021-12-10 13:57:25.776578,-202
2021-12-10 13:57:25.776587,-193
2021-12-10 13:57:25.776596,-183
2021-12-10 13:57:25.776604,-180
2021-12-10 13:57:25.776613,-171
2021-12-10 13:57:25.776621,-158
2021-12-10 13:57:25.776630,-161
2021-12-10 13:57:25.776638,-161
2021-12-10 13:57:25.776647,-149
2021-12-10 13:57:25.776655,-139
2021-12-10 13:57:25.776664,-139
2021-12-10 13:57:25.776672,-144
2021-12-10 13:57:25.776681,-139
2021-12-10 13:57:25.776689,-141
2021-12-10 13:57:25.776698,-146
2021-12-10 13:57:25.776706,-144
2021-12-10 13:57:25.776715,-146
2021-12-10 13:57:25.776723,-146
2021-12-10 13:57:25.776732,-139
2021-12-10 13:57:25.776740,-139
2021-12-10 13:57:25.776749,-139
2021-12-10 13:57:25.776757,-141
2021-12-10 13:57:25.776765,-139
2021-12-10 13:57:25.776773,-139
2021-12-10 13:57:25.776782,-141
2021-12-10 13:57:25.776790,-139
2021-12-10 13:57:25.776798,-134
2021-12-10 13:57:25.912170,-132
2021-12-10 13:57:25.912189,-132
2021-12-10 13:57:25.912198,-132
2021-12-10 13:57:25.912207,-134
2021-12-10 13:57:25.912216,-132
2021-12-10 13:57:25.912225,-129
2021-12-10 13:57:25.912233,-122
2021-12-10 13:57:25.912242,-117
2021-12-10 13:57:25.912250,-114
2021-12-10 13:57:25.912258,-102
2021-12-10 13:57:25.912267,-88
2021-12-10 13:57:25.912275,-85
2021-12-10 13:57:25.912284,-97
2021-12-10 13:57:25.912292,-117
2021-12-10 13:57:25.912301,-119
2021-12-10 13:57:25.912309,-112
2021-12-10 13:57:25.912317,-110
2021-12-10 13:57:25.912326,-105
2021-12-10 13:57:25.912334,-107
2021-12-10 13:57:25.912343,-110
2021-12-10 13:57:25.912351,-107
2021-12-10 13:57:25.912360,-88
2021-12-10 13:57:25.912368,-29
2021-12-10 13:57:25.912377,110
2021-12-10 13:57:25.912385,435
2021-12-10 13:57:25.912394,643
2021-12-10 13:57:25.912402,171
2021-12-10 13:57:25.912410,-633
2021-12-10 13:57:25.912419,-841
2021-12-10 13:57:25.912428,-449
2021-12-10 13:57:26.182274,-200
2021-12-10 13:57:26.182299,-163
2021-12-10 13:57:26.182309,-73
2021-12-10 13:57:26.182317,-26
2021-12-10 13:57:26.182326,-34
2021-12-10 13:57:26.182335,-9
2021-12-10 13:57:26.182343,14
2021-12-10 13:57:26.182352,19
2021-12-10 13:57:26.182360,26
2021-12-10 13:57:26.182368,34
2021-12-10 13:57:26.182377,46
2021-12-10 13:57:26.182385,58
2021-12-10 13:57:26.182394,70
2021-12-10 13:57:26.182402,90
2021-12-10 13:57:26.182410,107
2021-12-10 13:57:26.182419,124
2021-12-10 13:57:26.182427,146
2021-12-10 13:57:26.182436,178
2021-12-10 13:57:26.182444,217
2021-12-10 13:57:26.182453,239
2021-12-10 13:57:26.182461,256
2021-12-10 13:57:26.182470,261
2021-12-10 13:57:26.182478,254
2021-12-10 13:57:26.182486,242
2021-12-10 13:57:26.182495,215
2021-12-10 13:57:26.182503,168
2021-12-10 13:57:26.182512,102
2021-12-10 13:57:26.182520,29
2021-12-10 13:57:26.182528,-39
2021-12-10 13:57:26.182540,-100
2021-12-10 13:57:26.541725,-149
2021-12-10 13:57:26.541748,-188
2021-12-10 13:57:26.541757,-215
2021-12-10 13:57:26.541766,-224
2021-12-10 13:57:26.541775,-220
2021-12-10 13:57:26.541783,-217
2021-12-10 13:57:26.541791,-217
2021-12-10 13:57:26.541800,-210
2021-12-10 13:57:26.541808,-200
2021-12-10 13:57:26.541816,-190
2021-12-10 13:57:26.541824,-180
2021-12-10 13:57:26.541833,-171
2021-12-10 13:57:26.541841,-163
2021-12-10 13:57:26.541850,-158
2021-12-10 13:57:26.541858,-154
2021-12-10 13:57:26.541867,-156
2021-12-10 13:57:26.541875,-151
2021-12-10 13:57:26.541883,-141
2021-12-10 13:57:26.541892,-141
2021-12-10 13:57:26.541900,-139
2021-12-10 13:57:26.541909,-141
2021-12-10 13:57:26.541917,-146
2021-12-10 13:57:26.541926,-139
2021-12-10 13:57:26.541935,-136
2021-12-10 13:57:26.541943,-144
2021-12-10 13:57:26.541952,-149
2021-12-10 13:57:26.541960,-151
2021-12-10 13:57:26.541969,-151
2021-12-10 13:57:26.541977,-139
2021-12-10 13:57:26.541985,-134
2021-12-10 13:57:26.632276,-144
2021-12-10 13:57:26.632297,-158
2021-12-10 13:57:26.632307,-149
2021-12-10 13:57:26.632316,-139
2021-12-10 13:57:26.632325,-141
2021-12-10 13:57:26.632334,-144
2021-12-10 13:57:26.632342,-141
2021-12-10 13:57:26.632350,-139
2021-12-10 13:57:26.632359,-136
2021-12-10 13:57:26.632367,-136
2021-12-10 13:57:26.632376,-134
2021-12-10 13:57:26.632384,-129
2021-12-10 13:57:26.632393,-129
2021-12-10 13:57:26.632401,-127
2021-12-10 13:57:26.632410,-127
2021-12-10 13:57:26.632418,-124
2021-12-10 13:57:26.632426,-112
2021-12-10 13:57:26.632435,-100
2021-12-10 13:57:26.632443,-88
2021-12-10 13:57:26.632452,-88
2021-12-10 13:57:26.632460,-95
2021-12-10 13:57:26.632468,-105
2021-12-10 13:57:26.632477,-117
2021-12-10 13:57:26.632485,-114
2021-12-10 13:57:26.632494,-110
2021-12-10 13:57:26.632502,-112
2021-12-10 13:57:26.632511,-110
2021-12-10 13:57:26.632519,-110
2021-12-10 13:57:26.632528,-107
2021-12-10 13:57:26.632536,-92
2021-12-10 13:57:26.902289,-51
2021-12-10 13:57:26.902310,34
2021-12-10 13:57:26.902319,273
2021-12-10 13:57:26.902328,599
2021-12-10 13:57:26.902337,430
2021-12-10 13:57:26.902345,-379
2021-12-10 13:57:26.902354,-890
2021-12-10 13:57:26.902362,-630
2021-12-10 13:57:26.902370,-266
2021-12-10 13:57:26.902379,-185
2021-12-10 13:57:26.902387,-129
2021-12-10 13:57:26.902399,-53
2021-12-10 13:57:26.902407,-56
2021-12-10 13:57:26.902416,-56
2021-12-10 13:57:26.902424,-29
2021-12-10 13:57:26.902432,-12
2021-12-10 13:57:26.902440,-2
2021-12-10 13:57:26.902448,9
2021-12-10 13:57:26.902457,19
2021-12-10 13:57:26.902465,31
2021-12-10 13:57:26.902473,51
2021-12-10 13:57:26.902482,75
2021-12-10 13:57:26.902490,97
2021-12-10 13:57:26.902498,119
2021-12-10 13:57:26.902507,156
2021-12-10 13:57:26.902515,183
2021-12-10 13:57:26.902523,200
2021-12-10 13:57:26.902531,234
2021-12-10 13:57:26.902540,269
2021-12-10 13:57:26.902548,281
2021-12-10 13:57:27.171823,281
2021-12-10 13:57:27.171846,278
2021-12-10 13:57:27.171856,261
2021-12-10 13:57:27.171865,222
2021-12-10 13:57:27.171873,166
2021-12-10 13:57:27.171882,100
2021-12-10 13:57:27.171890,22
2021-12-10 13:57:27.171898,-48
2021-12-10 13:57:27.171907,-102
2021-12-10 13:57:27.171915,-139
2021-12-10 13:57:27.171924,-154
2021-12-10 13:57:27.171932,-171
2021-12-10 13:57:27.171940,-193
2021-12-10 13:57:27.171949,-193
2021-12-10 13:57:27.171957,-183
2021-12-10 13:57:27.171965,-176
2021-12-10 13:57:27.171973,-163
2021-12-10 13:57:27.171982,-154
2021-12-10 13:57:27.171990,-151
2021-12-10 13:57:27.171998,-139
2021-12-10 13:57:27.172007,-122
2021-12-10 13:57:27.172015,-117
2021-12-10 13:57:27.172023,-114
2021-12-10 13:57:27.172031,-102
2021-12-10 13:57:27.172040,-97
2021-12-10 13:57:27.172049,-100
2021-12-10 13:57:27.172057,-90
2021-12-10 13:57:27.172065,-88
2021-12-10 13:57:27.172074,-90
2021-12-10 13:57:27.172082,-92
2021-12-10 13:57:27.352248,-95
2021-12-10 13:57:27.352268,-95
2021-12-10 13:57:27.352277,-95
2021-12-10 13:57:27.352286,-97
2021-12-10 13:57:27.352294,-97
2021-12-10 13:57:27.352303,-102
2021-12-10 13:57:27.352312,-107
2021-12-10 13:57:27.352320,-102
2021-12-10 13:57:27.352328,-102
2021-12-10 13:57:27.352337,-107
2021-12-10 13:57:27.352345,-107
2021-12-10 13:57:27.352354,-107
2021-12-10 13:57:27.352362,-114
2021-12-10 13:57:27.352371,-117
2021-12-10 13:57:27.352379,-110
2021-12-10 13:57:27.352388,-105
2021-12-10 13:57:27.352396,-112
2021-12-10 13:57:27.352405,-117
2021-12-10 13:57:27.352413,-114
2021-12-10 13:57:27.352422,-105
2021-12-10 13:57:27.352430,-100
2021-12-10 13:57:27.352438,-100
2021-12-10 13:57:27.352447,-90
2021-12-10 13:57:27.352455,-78
2021-12-10 13:57:27.352463,-80
2021-12-10 13:57:27.352472,-100
2021-12-10 13:57:27.352480,-119
2021-12-10 13:57:27.352489,-117
2021-12-10 13:57:27.352497,-114
2021-12-10 13:57:27.352506,-124
2021-12-10 13:57:27.532237,-127
2021-12-10 13:57:27.532257,-122
2021-12-10 13:57:27.532267,-124
2021-12-10 13:57:27.532276,-119
2021-12-10 13:57:27.532284,-83
2021-12-10 13:57:27.532293,-9
2021-12-10 13:57:27.532301,144
2021-12-10 13:57:27.532310,405
2021-12-10 13:57:27.532318,359
2021-12-10 13:57:27.532326,-347
2021-12-10 13:57:27.532335,-978
2021-12-10 13:57:27.532343,-802
2021-12-10 13:57:27.532351,-357
2021-12-10 13:57:27.532360,-237
2021-12-10 13:57:27.532368,-173
2021-12-10 13:57:27.532377,-34
2021-12-10 13:57:27.532385,-12
2021-12-10 13:57:27.532393,-39
2021-12-10 13:57:27.532406,-2
2021-12-10 13:57:27.532417,17
2021-12-10 13:57:27.532425,14
2021-12-10 13:57:27.532434,34
2021-12-10 13:57:27.532442,44
2021-12-10 13:57:27.532450,48
2021-12-10 13:57:27.532458,68
2021-12-10 13:57:27.532466,85
2021-12-10 13:57:27.532475,95
2021-12-10 13:57:27.532483,112
2021-12-10 13:57:27.532491,139
2021-12-10 13:57:27.532500,166
2021-12-10 13:57:27.757202,190
2021-12-10 13:57:27.757220,215
2021-12-10 13:57:27.757230,237
2021-12-10 13:57:27.757239,244
2021-12-10 13:57:27.757247,242
2021-12-10 13:57:27.757256,227
2021-12-10 13:57:27.757264,200
2021-12-10 13:57:27.757273,163
2021-12-10 13:57:27.757281,110
2021-12-10 13:57:27.757289,39
2021-12-10 13:57:27.757298,-39
2021-12-10 13:57:27.757306,-105
2021-12-10 13:57:27.757315,-141
2021-12-10 13:57:27.757323,-178
2021-12-10 13:57:27.757332,-220
2021-12-10 13:57:27.757340,-239
2021-12-10 13:57:27.757349,-242
2021-12-10 13:57:27.757357,-246
2021-12-10 13:57:27.757366,-249
2021-12-10 13:57:27.757374,-239
2021-12-10 13:57:27.757383,-227
2021-12-10 13:57:27.757391,-217
2021-12-10 13:57:27.757400,-202
2021-12-10 13:57:27.757408,-193
2021-12-10 13:57:27.757417,-183
2021-12-10 13:57:27.757425,-168
2021-12-10 13:57:27.757434,-158
2021-12-10 13:57:27.757442,-154
2021-12-10 13:57:27.757453,-149
2021-12-10 13:57:27.757462,-146
2021-12-10 13:57:28.026736,-139
2021-12-10 13:57:28.026760,-139
2021-12-10 13:57:28.026769,-136
2021-12-10 13:57:28.026778,-134
2021-12-10 13:57:28.026787,-141
2021-12-10 13:57:28.026796,-146
2021-12-10 13:57:28.026805,-149
2021-12-10 13:57:28.026813,-149
2021-12-10 13:57:28.026822,-146
2021-12-10 13:57:28.026830,-149
2021-12-10 13:57:28.026838,-151
2021-12-10 13:57:28.026847,-151
2021-12-10 13:57:28.026855,-149
2021-12-10 13:57:28.026864,-144
2021-12-10 13:57:28.026872,-144
2021-12-10 13:57:28.026880,-141
2021-12-10 13:57:28.026889,-144
2021-12-10 13:57:28.026897,-151
2021-12-10 13:57:28.026906,-149
2021-12-10 13:57:28.026914,-146
2021-12-10 13:57:28.026923,-149
2021-12-10 13:57:28.026931,-149
2021-12-10 13:57:28.026939,-141
2021-12-10 13:57:28.026948,-132
2021-12-10 13:57:28.026956,-124
2021-12-10 13:57:28.026965,-122
2021-12-10 13:57:28.026973,-110
2021-12-10 13:57:28.026981,-100
2021-12-10 13:57:28.026990,-97
2021-12-10 13:57:28.026998,-107
2021-12-10 13:57:28.252336,-127
2021-12-10 13:57:28.252356,-127
2021-12-10 13:57:28.252366,-117
2021-12-10 13:57:28.252374,-119
2021-12-10 13:57:28.252383,-114
2021-12-10 13:57:28.252391,-114
2021-12-10 13:57:28.252400,-114
2021-12-10 13:57:28.252408,-102
2021-12-10 13:57:28.252417,-70
2021-12-10 13:57:28.252426,-4
2021-12-10 13:57:28.252434,176
2021-12-10 13:57:28.252443,457
2021-12-10 13:57:28.252451,361
2021-12-10 13:57:28.252460,-303
2021-12-10 13:57:28.252468,-782
2021-12-10 13:57:28.252476,-618
2021-12-10 13:57:28.252485,-295
2021-12-10 13:57:28.252493,-168
2021-12-10 13:57:28.252502,-92
2021-12-10 13:57:28.252510,-19
2021-12-10 13:57:28.252518,-14
2021-12-10 13:57:28.252527,-12
2021-12-10 13:57:28.252535,17
2021-12-10 13:57:28.252543,24
2021-12-10 13:57:28.252552,24
2021-12-10 13:57:28.252560,36
2021-12-10 13:57:28.252568,53
2021-12-10 13:57:28.252577,61
2021-12-10 13:57:28.252585,66
2021-12-10 13:57:28.252593,78
2021-12-10 13:57:28.521562,95
2021-12-10 13:57:28.521584,112
2021-12-10 13:57:28.521593,132
2021-12-10 13:57:28.521602,154
2021-12-10 13:57:28.521611,173
2021-12-10 13:57:28.521620,193
2021-12-10 13:57:28.521629,207
2021-12-10 13:57:28.521637,220
2021-12-10 13:57:28.521646,220
2021-12-10 13:57:28.521654,207
2021-12-10 13:57:28.521663,190
2021-12-10 13:57:28.521671,161
2021-12-10 13:57:28.521680,117
2021-12-10 13:57:28.521688,48
2021-12-10 13:57:28.521697,-31
2021-12-10 13:57:28.521705,-90
2021-12-10 13:57:28.521714,-129
2021-12-10 13:57:28.521723,-168
2021-12-10 13:57:28.521731,-193
2021-12-10 13:57:28.521740,-202
2021-12-10 13:57:28.521748,-212
2021-12-10 13:57:28.521757,-215
2021-12-10 13:57:28.521765,-207
2021-12-10 13:57:28.521774,-202
2021-12-10 13:57:28.521782,-198
2021-12-10 13:57:28.521791,-190
2021-12-10 13:57:28.521800,-178
2021-12-10 13:57:28.521808,-171
2021-12-10 13:57:28.521817,-161
2021-12-10 13:57:28.521825,-149
2021-12-10 13:57:28.702298,-146
2021-12-10 13:57:28.702320,-139
2021-12-10 13:57:28.702330,-132
2021-12-10 13:57:28.702339,-129
2021-12-10 13:57:28.702348,-129
2021-12-10 13:57:28.702357,-132
2021-12-10 13:57:28.702365,-129
2021-12-10 13:57:28.702374,-127
2021-12-10 13:57:28.702382,-134
2021-12-10 13:57:28.702391,-136
2021-12-10 13:57:28.702399,-136
2021-12-10 13:57:28.702408,-134
2021-12-10 13:57:28.702417,-132
2021-12-10 13:57:28.702425,-134
2021-12-10 13:57:28.702434,-136
2021-12-10 13:57:28.702443,-134
2021-12-10 13:57:28.702451,-129
2021-12-10 13:57:28.702459,-122
2021-12-10 13:57:28.702468,-122
2021-12-10 13:57:28.702476,-127
2021-12-10 13:57:28.702485,-122
2021-12-10 13:57:28.702493,-122
2021-12-10 13:57:28.702502,-124
2021-12-10 13:57:28.702510,-124
2021-12-10 13:57:28.702519,-127
2021-12-10 13:57:28.702527,-127
2021-12-10 13:57:28.702536,-127
2021-12-10 13:57:28.702544,-119
2021-12-10 13:57:28.702553,-110
2021-12-10 13:57:28.702561,-100
2021-12-10 13:57:28.927254,-85
2021-12-10 13:57:28.927274,-78
2021-12-10 13:57:28.927284,-90
2021-12-10 13:57:28.927293,-110
2021-12-10 13:57:28.927301,-117
2021-12-10 13:57:28.927310,-107
2021-12-10 13:57:28.927318,-107
2021-12-10 13:57:28.927327,-117
2021-12-10 13:57:28.927335,-114
2021-12-10 13:57:28.927344,-110
2021-12-10 13:57:28.927352,-105
2021-12-10 13:57:28.927360,-83
2021-12-10 13:57:28.927369,-41
2021-12-10 13:57:28.927377,46
2021-12-10 13:57:28.927385,313
2021-12-10 13:57:28.927394,594
2021-12-10 13:57:28.927402,313
2021-12-10 13:57:28.927410,-464
2021-12-10 13:57:28.927419,-811
2021-12-10 13:57:28.927427,-491
2021-12-10 13:57:28.927436,-210
2021-12-10 13:57:28.927444,-161
2021-12-10 13:57:28.927453,-78
2021-12-10 13:57:28.927461,-12
2021-12-10 13:57:28.927469,-19
2021-12-10 13:57:28.927478,-4
2021-12-10 13:57:28.927486,26
2021-12-10 13:57:28.927495,29
2021-12-10 13:57:28.927503,34
2021-12-10 13:57:28.927512,48
2021-12-10 13:57:29.152256,51
2021-12-10 13:57:29.152277,51
2021-12-10 13:57:29.152286,70
2021-12-10 13:57:29.152295,90
2021-12-10 13:57:29.152303,107
2021-12-10 13:57:29.152312,129
2021-12-10 13:57:29.152320,154
2021-12-10 13:57:29.152329,176
2021-12-10 13:57:29.152337,200
2021-12-10 13:57:29.152345,227
2021-12-10 13:57:29.152353,246
2021-12-10 13:57:29.152362,254
2021-12-10 13:57:29.152370,251
2021-12-10 13:57:29.152378,234
2021-12-10 13:57:29.152387,212
2021-12-10 13:57:29.152395,176
2021-12-10 13:57:29.152403,114
2021-12-10 13:57:29.152411,41
2021-12-10 13:57:29.152420,-34
2021-12-10 13:57:29.152428,-95
2021-12-10 13:57:29.152436,-136
2021-12-10 13:57:29.152445,-173
2021-12-10 13:57:29.152453,-195
2021-12-10 13:57:29.152461,-200
2021-12-10 13:57:29.152469,-205
2021-12-10 13:57:29.152477,-207
2021-12-10 13:57:29.152486,-205
2021-12-10 13:57:29.152494,-198
2021-12-10 13:57:29.152502,-185
2021-12-10 13:57:29.152511,-176
2021-12-10 13:57:29.422210,-161
2021-12-10 13:57:29.422230,-149
2021-12-10 13:57:29.422240,-136
2021-12-10 13:57:29.422249,-127
2021-12-10 13:57:29.422257,-122
2021-12-10 13:57:29.422266,-119
2021-12-10 13:57:29.422274,-114
2021-12-10 13:57:29.422283,-110
2021-12-10 13:57:29.422291,-102
2021-12-10 13:57:29.422300,-100
2021-12-10 13:57:29.422308,-95
2021-12-10 13:57:29.422317,-95
2021-12-10 13:57:29.422325,-102
2021-12-10 13:57:29.422333,-102
2021-12-10 13:57:29.422342,-102
2021-12-10 13:57:29.422350,-102
2021-12-10 13:57:29.422358,-102
2021-12-10 13:57:29.422367,-102
2021-12-10 13:57:29.422375,-100
2021-12-10 13:57:29.422384,-95
2021-12-10 13:57:29.422392,-92
2021-12-10 13:57:29.422400,-90
2021-12-10 13:57:29.422409,-90
2021-12-10 13:57:29.422417,-90
2021-12-10 13:57:29.422426,-85
2021-12-10 13:57:29.422434,-80
2021-12-10 13:57:29.422443,-85
2021-12-10 13:57:29.422451,-90
2021-12-10 13:57:29.422459,-90
2021-12-10 13:57:29.422468,-90
2021-12-10 13:57:29.647318,-83
2021-12-10 13:57:29.647340,-68
2021-12-10 13:57:29.647349,-58
2021-12-10 13:57:29.647358,-44
2021-12-10 13:57:29.647367,-31
2021-12-10 13:57:29.647376,-48
2021-12-10 13:57:29.647384,-83
2021-12-10 13:57:29.647393,-95
2021-12-10 13:57:29.647402,-88
2021-12-10 13:57:29.647410,-83
2021-12-10 13:57:29.647418,-83
2021-12-10 13:57:29.647427,-85
2021-12-10 13:57:29.647435,-85
2021-12-10 13:57:29.647444,-80
2021-12-10 13:57:29.647453,-68
2021-12-10 13:57:29.647461,-31
2021-12-10 13:57:29.647470,68
2021-12-10 13:57:29.647478,330
2021-12-10 13:57:29.647487,638
2021-12-10 13:57:29.647495,391
2021-12-10 13:57:29.647504,-469
2021-12-10 13:57:29.647512,-917
2021-12-10 13:57:29.647521,-547
2021-12-10 13:57:29.647538,-188
2021-12-10 13:57:29.647547,-161
2021-12-10 13:57:29.647556,-73
2021-12-10 13:57:29.647564,31
2021-12-10 13:57:29.647573,14
2021-12-10 13:57:29.647581,17
2021-12-10 13:57:29.647589,61
2021-12-10 13:57:29.827245,63
2021-12-10 13:57:29.827264,56
2021-12-10 13:57:29.827274,75
2021-12-10 13:57:29.827283,90
2021-12-10 13:57:29.827291,95
2021-12-10 13:57:29.827300,117
2021-12-10 13:57:29.827308,136
2021-12-10 13:57:29.827317,149
2021-12-10 13:57:29.827326,173
2021-12-10 13:57:29.827334,200
2021-12-10 13:57:29.827343,220
2021-12-10 13:57:29.827351,242
2021-12-10 13:57:29.827360,271
2021-12-10 13:57:29.827368,293
2021-12-10 13:57:29.827377,303
2021-12-10 13:57:29.827385,295
2021-12-10 13:57:29.827394,273
2021-12-10 13:57:29.827402,246
2021-12-10 13:57:29.827410,210
2021-12-10 13:57:29.827419,146
2021-12-10 13:57:29.827427,63
2021-12-10 13:57:29.827436,-12
2021-12-10 13:57:29.827444,-80
2021-12-10 13:57:29.827452,-127
2021-12-10 13:57:29.827461,-166
2021-12-10 13:57:29.827469,-205
2021-12-10 13:57:29.827478,-215
2021-12-10 13:57:29.827486,-210
2021-12-10 13:57:29.827495,-215
2021-12-10 13:57:29.827503,-215
2021-12-10 13:57:30.052340,-207
2021-12-10 13:57:30.052363,-198
2021-12-10 13:57:30.052373,-195
2021-12-10 13:57:30.052382,-193
2021-12-10 13:57:30.052391,-180
2021-12-10 13:57:30.052399,-168
2021-12-10 13:57:30.052408,-156
2021-12-10 13:57:30.052417,-151
2021-12-10 13:57:30.052425,-151
2021-12-10 13:57:30.052434,-141
2021-12-10 13:57:30.052442,-139
2021-12-10 13:57:30.052451,-144
2021-12-10 13:57:30.052459,-141
2021-12-10 13:57:30.052468,-146
2021-12-10 13:57:30.052476,-151
2021-12-10 13:57:30.052485,-146
2021-12-10 13:57:30.052493,-149
2021-12-10 13:57:30.052502,-149
2021-12-10 13:57:30.052510,-149
2021-12-10 13:57:30.052519,-146
2021-12-10 13:57:30.052527,-151
2021-12-10 13:57:30.052536,-154
2021-12-10 13:57:30.052544,-149
2021-12-10 13:57:30.052553,-146
2021-12-10 13:57:30.052561,-146
2021-12-10 13:57:30.052570,-136
2021-12-10 13:57:30.052578,-134
2021-12-10 13:57:30.052587,-136
2021-12-10 13:57:30.052595,-122
2021-12-10 13:57:30.052604,-105
2021-12-10 13:57:30.322256,-102
2021-12-10 13:57:30.322276,-107
2021-12-10 13:57:30.322286,-117
2021-12-10 13:57:30.322295,-139
2021-12-10 13:57:30.322303,-144
2021-12-10 13:57:30.322312,-139
2021-12-10 13:57:30.322320,-144
2021-12-10 13:57:30.322329,-144
2021-12-10 13:57:30.322337,-136
2021-12-10 13:57:30.322345,-144
2021-12-10 13:57:30.322354,-141
2021-12-10 13:57:30.322362,-110
2021-12-10 13:57:30.322370,-63
2021-12-10 13:57:30.322379,-4
2021-12-10 13:57:30.322387,158
2021-12-10 13:57:30.322395,359
2021-12-10 13:57:30.322403,119
2021-12-10 13:57:30.322412,-648
2021-12-10 13:57:30.322420,-1044
2021-12-10 13:57:30.322428,-662
2021-12-10 13:57:30.322437,-271
2021-12-10 13:57:30.322445,-210
2021-12-10 13:57:30.322453,-114
2021-12-10 13:57:30.322462,12
2021-12-10 13:57:30.322470,14
2021-12-10 13:57:30.322479,7
2021-12-10 13:57:30.322487,39
2021-12-10 13:57:30.322495,46
2021-12-10 13:57:30.322503,51
2021-12-10 13:57:30.322512,68
2021-12-10 13:57:30.591079,75
2021-12-10 13:57:30.591101,85
2021-12-10 13:57:30.591111,105
2021-12-10 13:57:30.591120,114
2021-12-10 13:57:30.591128,134
2021-12-10 13:57:30.591137,161
2021-12-10 13:57:30.591145,183
2021-12-10 13:57:30.591153,207
2021-12-10 13:57:30.591162,232
2021-12-10 13:57:30.591170,259
2021-12-10 13:57:30.591179,278
2021-12-10 13:57:30.591187,291
2021-12-10 13:57:30.591195,288
2021-12-10 13:57:30.591204,266
2021-12-10 13:57:30.591212,234
2021-12-10 13:57:30.591221,183
2021-12-10 13:57:30.591229,112
2021-12-10 13:57:30.591237,29
2021-12-10 13:57:30.591246,-56
2021-12-10 13:57:30.591254,-119
2021-12-10 13:57:30.591263,-168
2021-12-10 13:57:30.591274,-212
2021-12-10 13:57:30.591284,-232
2021-12-10 13:57:30.591293,-237
2021-12-10 13:57:30.591301,-242
2021-12-10 13:57:30.591309,-246
2021-12-10 13:57:30.591318,-246
2021-12-10 13:57:30.591326,-242
2021-12-10 13:57:30.591334,-234
2021-12-10 13:57:30.591343,-222
2021-12-10 13:57:30.775874,-207
2021-12-10 13:57:30.775896,-200
2021-12-10 13:57:30.775905,-193
2021-12-10 13:57:30.775914,-178
2021-12-10 13:57:30.775922,-171
2021-12-10 13:57:30.775930,-168
2021-12-10 13:57:30.775939,-158
2021-12-10 13:57:30.775947,-158
2021-12-10 13:57:30.775956,-163
2021-12-10 13:57:30.775964,-163
2021-12-10 13:57:30.775972,-163
2021-12-10 13:57:30.775981,-168
2021-12-10 13:57:30.775989,-168
2021-12-10 13:57:30.775997,-166
2021-12-10 13:57:30.776006,-173
2021-12-10 13:57:30.776014,-183
2021-12-10 13:57:30.776022,-183
2021-12-10 13:57:30.776031,-180
2021-12-10 13:57:30.776039,-178
2021-12-10 13:57:30.776048,-178
2021-12-10 13:57:30.776056,-176
2021-12-10 13:57:30.776065,-171
2021-12-10 13:57:30.776073,-171
2021-12-10 13:57:30.776081,-176
2021-12-10 13:57:30.776090,-173
2021-12-10 13:57:30.776098,-171
2021-12-10 13:57:30.776106,-166
2021-12-10 13:57:30.776115,-154
2021-12-10 13:57:30.776123,-141
2021-12-10 13:57:30.776131,-144
2021-12-10 13:57:31.176278,-139
2021-12-10 13:57:31.176300,-122
2021-12-10 13:57:31.176343,-117
2021-12-10 13:57:31.176376,-134
2021-12-10 13:57:31.176387,-146
2021-12-10 13:57:31.176396,-141
2021-12-10 13:57:31.176405,-136
2021-12-10 13:57:31.176414,-139
2021-12-10 13:57:31.176422,-139
2021-12-10 13:57:31.176431,-134
2021-12-10 13:57:31.176439,-136
2021-12-10 13:57:31.176448,-134
2021-12-10 13:57:31.176456,-107
2021-12-10 13:57:31.176465,-51
2021-12-10 13:57:31.176503,132
2021-12-10 13:57:31.176511,457
2021-12-10 13:57:31.176520,405
2021-12-10 13:57:31.176529,-269
2021-12-10 13:57:31.176537,-792
2021-12-10 13:57:31.176546,-640
2021-12-10 13:57:31.176554,-310
2021-12-10 13:57:31.176563,-205
2021-12-10 13:57:31.176571,-136
2021-12-10 13:57:31.176579,-48
2021-12-10 13:57:31.176587,-46
2021-12-10 13:57:31.176596,-46
2021-12-10 13:57:31.176604,-14
2021-12-10 13:57:31.176612,-2
2021-12-10 13:57:31.176621,2
2021-12-10 13:57:31.176629,17
2021-12-10 13:57:31.266716,29
2021-12-10 13:57:31.266738,36
2021-12-10 13:57:31.266747,51
2021-12-10 13:57:31.266756,66
2021-12-10 13:57:31.266765,75
2021-12-10 13:57:31.266774,97
2021-12-10 13:57:31.266782,124
2021-12-10 13:57:31.266791,146
2021-12-10 13:57:31.266799,178
2021-12-10 13:57:31.266807,207
2021-12-10 13:57:31.266816,229
2021-12-10 13:57:31.266824,242
2021-12-10 13:57:31.266833,244
2021-12-10 13:57:31.266841,232
2021-12-10 13:57:31.266850,207
2021-12-10 13:57:31.266858,168
2021-12-10 13:57:31.266867,112
2021-12-10 13:57:31.266875,36
2021-12-10 13:57:31.266884,-41
2021-12-10 13:57:31.266892,-105
2021-12-10 13:57:31.266901,-154
2021-12-10 13:57:31.266909,-190
2021-12-10 13:57:31.266917,-210
2021-12-10 13:57:31.266926,-222
2021-12-10 13:57:31.266934,-227
2021-12-10 13:57:31.266943,-227
2021-12-10 13:57:31.266951,-220
2021-12-10 13:57:31.266960,-212
2021-12-10 13:57:31.266968,-210
2021-12-10 13:57:31.266976,-200
2021-12-10 13:57:31.447314,-195
2021-12-10 13:57:31.447337,-188
2021-12-10 13:57:31.447347,-178
2021-12-10 13:57:31.447356,-171
2021-12-10 13:57:31.447364,-163
2021-12-10 13:57:31.447373,-156
2021-12-10 13:57:31.447381,-156
2021-12-10 13:57:31.447390,-151
2021-12-10 13:57:31.447398,-149
2021-12-10 13:57:31.447407,-146
2021-12-10 13:57:31.447415,-144
2021-12-10 13:57:31.447424,-146
2021-12-10 13:57:31.447432,-146
2021-12-10 13:57:31.447440,-144
2021-12-10 13:57:31.447449,-146
2021-12-10 13:57:31.447457,-149
2021-12-10 13:57:31.447466,-151
2021-12-10 13:57:31.447474,-151
2021-12-10 13:57:31.447483,-151
2021-12-10 13:57:31.447491,-151
2021-12-10 13:57:31.447500,-146
2021-12-10 13:57:31.447508,-149
2021-12-10 13:57:31.447517,-149
2021-12-10 13:57:31.447525,-146
2021-12-10 13:57:31.447533,-151
2021-12-10 13:57:31.447542,-151
2021-12-10 13:57:31.447550,-149
2021-12-10 13:57:31.447558,-146
2021-12-10 13:57:31.447567,-134
2021-12-10 13:57:31.447575,-129
2021-12-10 13:57:31.716704,-124
2021-12-10 13:57:31.716726,-112
2021-12-10 13:57:31.716736,-110
2021-12-10 13:57:31.716744,-127
2021-12-10 13:57:31.716753,-146
2021-12-10 13:57:31.716762,-144
2021-12-10 13:57:31.716770,-136
2021-12-10 13:57:31.716779,-136
2021-12-10 13:57:31.716787,-136
2021-12-10 13:57:31.716796,-132
2021-12-10 13:57:31.716804,-132
2021-12-10 13:57:31.716813,-127
2021-12-10 13:57:31.716821,-102
2021-12-10 13:57:31.716829,-31
2021-12-10 13:57:31.716838,168
2021-12-10 13:57:31.716846,518
2021-12-10 13:57:31.716855,508
2021-12-10 13:57:31.716890,-163
2021-12-10 13:57:31.716899,-758
2021-12-10 13:57:31.716907,-677
2021-12-10 13:57:31.716916,-332
2021-12-10 13:57:31.716924,-190
2021-12-10 13:57:31.716933,-134
2021-12-10 13:57:31.716941,-56
2021-12-10 13:57:31.716949,-36
2021-12-10 13:57:31.716958,-36
2021-12-10 13:57:31.716966,-9
2021-12-10 13:57:31.716974,4
2021-12-10 13:57:31.716983,9
2021-12-10 13:57:31.716991,22
2021-12-10 13:57:31.897296,36
2021-12-10 13:57:31.897317,48
2021-12-10 13:57:31.897327,58
2021-12-10 13:57:31.897336,70
2021-12-10 13:57:31.897344,90
2021-12-10 13:57:31.897353,110
2021-12-10 13:57:31.897361,134
2021-12-10 13:57:31.897369,168
2021-12-10 13:57:31.897378,202
2021-12-10 13:57:31.897386,232
2021-12-10 13:57:31.897394,259
2021-12-10 13:57:31.897403,276
2021-12-10 13:57:31.897411,286
2021-12-10 13:57:31.897419,276
2021-12-10 13:57:31.897428,254
2021-12-10 13:57:31.897436,217
2021-12-10 13:57:31.897445,151
2021-12-10 13:57:31.897453,68
2021-12-10 13:57:31.897461,-9
2021-12-10 13:57:31.897470,-83
2021-12-10 13:57:31.897478,-136
2021-12-10 13:57:31.897487,-173
2021-12-10 13:57:31.897495,-193
2021-12-10 13:57:31.897503,-202
2021-12-10 13:57:31.897512,-202
2021-12-10 13:57:31.897520,-198
2021-12-10 13:57:31.897529,-190
2021-12-10 13:57:31.897537,-185
2021-12-10 13:57:31.897546,-180
2021-12-10 13:57:31.897554,-176
2021-12-10 13:57:32.122346,-163
2021-12-10 13:57:32.122367,-154
2021-12-10 13:57:32.122376,-146
2021-12-10 13:57:32.122385,-141
2021-12-10 13:57:32.122393,-139
2021-12-10 13:57:32.122402,-134
2021-12-10 13:57:32.122410,-129
2021-12-10 13:57:32.122419,-122
2021-12-10 13:57:32.122427,-112
2021-12-10 13:57:32.122435,-112
2021-12-10 13:57:32.122444,-117
2021-12-10 13:57:32.122452,-112
2021-12-10 13:57:32.122461,-110
2021-12-10 13:57:32.122469,-112
2021-12-10 13:57:32.122478,-114
2021-12-10 13:57:32.122486,-114
2021-12-10 13:57:32.122494,-112
2021-12-10 13:57:32.122503,-114
2021-12-10 13:57:32.122511,-117
2021-12-10 13:57:32.122519,-114
2021-12-10 13:57:32.122528,-119
2021-12-10 13:57:32.122536,-122
2021-12-10 13:57:32.122544,-119
2021-12-10 13:57:32.122553,-117
2021-12-10 13:57:32.122561,-110
2021-12-10 13:57:32.122569,-107
2021-12-10 13:57:32.122578,-102
2021-12-10 13:57:32.122586,-105
2021-12-10 13:57:32.122595,-110
2021-12-10 13:57:32.122603,-102
2021-12-10 13:57:32.436711,-102
2021-12-10 13:57:32.436733,-97
2021-12-10 13:57:32.436743,-80
2021-12-10 13:57:32.436752,-75
2021-12-10 13:57:32.436760,-70
2021-12-10 13:57:32.436768,-58
2021-12-10 13:57:32.436777,-58
2021-12-10 13:57:32.436785,-80
2021-12-10 13:57:32.436794,-100
2021-12-10 13:57:32.436802,-95
2021-12-10 13:57:32.436810,-83
2021-12-10 13:57:32.436819,-92
2021-12-10 13:57:32.436827,-92
2021-12-10 13:57:32.436836,-83
2021-12-10 13:57:32.436844,-83
2021-12-10 13:57:32.436852,-78
2021-12-10 13:57:32.436860,-44
2021-12-10 13:57:32.436869,58
2021-12-10 13:57:32.436877,354
2021-12-10 13:57:32.436886,716
2021-12-10 13:57:32.436894,506
2021-12-10 13:57:32.436902,-335
2021-12-10 13:57:32.436911,-819
2021-12-10 13:57:32.436919,-542
2021-12-10 13:57:32.436927,-215
2021-12-10 13:57:32.436936,-166
2021-12-10 13:57:32.436944,-95
2021-12-10 13:57:32.436952,-12
2021-12-10 13:57:32.436961,-19
2021-12-10 13:57:32.436969,-9
2021-12-10 13:57:32.660992,34
2021-12-10 13:57:32.661015,41
2021-12-10 13:57:32.661025,39
2021-12-10 13:57:32.661034,53
2021-12-10 13:57:32.661043,66
2021-12-10 13:57:32.661052,85
2021-12-10 13:57:32.661060,102
2021-12-10 13:57:32.661069,114
2021-12-10 13:57:32.661077,134
2021-12-10 13:57:32.661086,146
2021-12-10 13:57:32.661094,173
2021-12-10 13:57:32.661103,215
2021-12-10 13:57:32.661111,239
2021-12-10 13:57:32.661120,269
2021-12-10 13:57:32.661128,298
2021-12-10 13:57:32.661136,308
2021-12-10 13:57:32.661145,305
2021-12-10 13:57:32.661153,293
2021-12-10 13:57:32.661162,264
2021-12-10 13:57:32.661170,220
2021-12-10 13:57:32.661178,151
2021-12-10 13:57:32.661187,61
2021-12-10 13:57:32.661196,-22
2021-12-10 13:57:32.661204,-88
2021-12-10 13:57:32.661212,-136
2021-12-10 13:57:32.661221,-173
2021-12-10 13:57:32.661229,-202
2021-12-10 13:57:32.661238,-220
2021-12-10 13:57:32.661246,-222
2021-12-10 13:57:32.661254,-212
2021-12-10 13:57:32.842376,-207
2021-12-10 13:57:32.842398,-205
2021-12-10 13:57:32.842408,-205
2021-12-10 13:57:32.842417,-202
2021-12-10 13:57:32.842426,-188
2021-12-10 13:57:32.842435,-176
2021-12-10 13:57:32.842443,-168
2021-12-10 13:57:32.842452,-158
2021-12-10 13:57:32.842460,-154
2021-12-10 13:57:32.842469,-149
2021-12-10 13:57:32.842478,-139
2021-12-10 13:57:32.842486,-127
2021-12-10 13:57:32.842495,-119
2021-12-10 13:57:32.842503,-124
2021-12-10 13:57:32.842512,-129
2021-12-10 13:57:32.842521,-124
2021-12-10 13:57:32.842529,-119
2021-12-10 13:57:32.842538,-124
2021-12-10 13:57:32.842546,-132
2021-12-10 13:57:32.842555,-132
2021-12-10 13:57:32.842564,-124
2021-12-10 13:57:32.842572,-129
2021-12-10 13:57:32.842581,-132
2021-12-10 13:57:32.842589,-124
2021-12-10 13:57:32.842598,-127
2021-12-10 13:57:32.842606,-127
2021-12-10 13:57:32.842615,-124
2021-12-10 13:57:32.842623,-124
2021-12-10 13:57:32.842632,-129
2021-12-10 13:57:32.842641,-136
2021-12-10 13:57:33.157306,-132
2021-12-10 13:57:33.157327,-129
2021-12-10 13:57:33.157336,-127
2021-12-10 13:57:33.157345,-124
2021-12-10 13:57:33.157354,-122
2021-12-10 13:57:33.157362,-100
2021-12-10 13:57:33.157371,-85
2021-12-10 13:57:33.157379,-100
2021-12-10 13:57:33.157388,-122
2021-12-10 13:57:33.157396,-132
2021-12-10 13:57:33.157405,-129
2021-12-10 13:57:33.157413,-124
2021-12-10 13:57:33.157422,-124
2021-12-10 13:57:33.157430,-132
2021-12-10 13:57:33.157439,-129
2021-12-10 13:57:33.157447,-124
2021-12-10 13:57:33.157456,-119
2021-12-10 13:57:33.157464,-95
2021-12-10 13:57:33.157473,-41
2021-12-10 13:57:33.157481,66
2021-12-10 13:57:33.157490,291
2021-12-10 13:57:33.157499,313
2021-12-10 13:57:33.157507,-281
2021-12-10 13:57:33.157516,-926
2021-12-10 13:57:33.157524,-848
2021-12-10 13:57:33.157533,-388
2021-12-10 13:57:33.157541,-198
2021-12-10 13:57:33.157549,-156
2021-12-10 13:57:33.157558,-41
2021-12-10 13:57:33.157566,4
2021-12-10 13:57:33.292371,-12
2021-12-10 13:57:33.292393,17
2021-12-10 13:57:33.292403,39
2021-12-10 13:57:33.292411,31
2021-12-10 13:57:33.292420,44
2021-12-10 13:57:33.292428,61
2021-12-10 13:57:33.292437,68
2021-12-10 13:57:33.292446,80
2021-12-10 13:57:33.292454,92
2021-12-10 13:57:33.292462,105
2021-12-10 13:57:33.292471,132
2021-12-10 13:57:33.292479,156
2021-12-10 13:57:33.292487,178
2021-12-10 13:57:33.292496,215
2021-12-10 13:57:33.292504,246
2021-12-10 13:57:33.292513,269
2021-12-10 13:57:33.292521,283
2021-12-10 13:57:33.292530,291
2021-12-10 13:57:33.292538,278
2021-12-10 13:57:33.292546,249
2021-12-10 13:57:33.292555,210
2021-12-10 13:57:33.292563,144
2021-12-10 13:57:33.292571,61
2021-12-10 13:57:33.292579,-22
2021-12-10 13:57:33.292588,-95
2021-12-10 13:57:33.292596,-149
2021-12-10 13:57:33.292604,-188
2021-12-10 13:57:33.292612,-212
2021-12-10 13:57:33.292620,-229
2021-12-10 13:57:33.292629,-239
2021-12-10 13:57:33.517231,-234
2021-12-10 13:57:33.517251,-229
2021-12-10 13:57:33.517261,-234
2021-12-10 13:57:33.517270,-239
2021-12-10 13:57:33.517278,-229
2021-12-10 13:57:33.517287,-220
2021-12-10 13:57:33.517295,-207
2021-12-10 13:57:33.517304,-198
2021-12-10 13:57:33.517312,-188
2021-12-10 13:57:33.517320,-176
2021-12-10 13:57:33.517329,-158
2021-12-10 13:57:33.517337,-149
2021-12-10 13:57:33.517345,-149
2021-12-10 13:57:33.517353,-139
2021-12-10 13:57:33.517362,-132
2021-12-10 13:57:33.517370,-134
2021-12-10 13:57:33.517378,-134
2021-12-10 13:57:33.517387,-139
2021-12-10 13:57:33.517395,-144
2021-12-10 13:57:33.517403,-146
2021-12-10 13:57:33.517412,-151
2021-12-10 13:57:33.517420,-154
2021-12-10 13:57:33.517429,-158
2021-12-10 13:57:33.517437,-166
2021-12-10 13:57:33.517445,-166
2021-12-10 13:57:33.517454,-163
2021-12-10 13:57:33.517462,-158
2021-12-10 13:57:33.517471,-158
2021-12-10 13:57:33.517479,-161
2021-12-10 13:57:33.517487,-156
2021-12-10 13:57:33.742356,-151
2021-12-10 13:57:33.742378,-149
2021-12-10 13:57:33.742387,-154
2021-12-10 13:57:33.742396,-156
2021-12-10 13:57:33.742405,-151
2021-12-10 13:57:33.742413,-146
2021-12-10 13:57:33.742422,-144
2021-12-10 13:57:33.742430,-132
2021-12-10 13:57:33.742438,-117
2021-12-10 13:57:33.742447,-107
2021-12-10 13:57:33.742455,-110
2021-12-10 13:57:33.742463,-136
2021-12-10 13:57:33.742472,-154
2021-12-10 13:57:33.742480,-141
2021-12-10 13:57:33.742489,-132
2021-12-10 13:57:33.742497,-136
2021-12-10 13:57:33.742505,-136
2021-12-10 13:57:33.742514,-132
2021-12-10 13:57:33.742522,-127
2021-12-10 13:57:33.742531,-117
2021-12-10 13:57:33.742539,-78
2021-12-10 13:57:33.742547,4
2021-12-10 13:57:33.742556,266
2021-12-10 13:57:33.742564,552
2021-12-10 13:57:33.742573,259
2021-12-10 13:57:33.742581,-523
2021-12-10 13:57:33.742590,-846
2021-12-10 13:57:33.742598,-513
2021-12-10 13:57:33.742606,-237
2021-12-10 13:57:33.742615,-193
2021-12-10 13:57:34.012332,-97
2021-12-10 13:57:34.012351,-24
2021-12-10 13:57:34.012361,-34
2021-12-10 13:57:34.012371,-17
2021-12-10 13:57:34.012379,7
2021-12-10 13:57:34.012388,4
2021-12-10 13:57:34.012397,9
2021-12-10 13:57:34.012406,24
2021-12-10 13:57:34.012414,34
2021-12-10 13:57:34.012423,41
2021-12-10 13:57:34.012432,51
2021-12-10 13:57:34.012440,66
2021-12-10 13:57:34.012449,85
2021-12-10 13:57:34.012458,112
2021-12-10 13:57:34.012473,139
2021-12-10 13:57:34.012482,171
2021-12-10 13:57:34.012490,205
2021-12-10 13:57:34.012499,234
2021-12-10 13:57:34.012507,259
2021-12-10 13:57:34.012516,271
2021-12-10 13:57:34.012524,266
2021-12-10 13:57:34.012533,249
2021-12-10 13:57:34.012541,215
2021-12-10 13:57:34.012550,158
2021-12-10 13:57:34.012559,83
2021-12-10 13:57:34.012567,0
2021-12-10 13:57:34.012576,-73
2021-12-10 13:57:34.012584,-132
2021-12-10 13:57:34.012593,-180
2021-12-10 13:57:34.012601,-220
2021-12-10 13:57:34.192476,-237
2021-12-10 13:57:34.192498,-239
2021-12-10 13:57:34.192507,-242
2021-12-10 13:57:34.192516,-246
2021-12-10 13:57:34.192525,-244
2021-12-10 13:57:34.192533,-237
2021-12-10 13:57:34.192541,-232
2021-12-10 13:57:34.192549,-224
2021-12-10 13:57:34.192558,-217
2021-12-10 13:57:34.192566,-212
2021-12-10 13:57:34.192574,-207
2021-12-10 13:57:34.192582,-193
2021-12-10 13:57:34.192591,-180
2021-12-10 13:57:34.192599,-178
2021-12-10 13:57:34.192607,-176
2021-12-10 13:57:34.192616,-168
2021-12-10 13:57:34.192624,-166
2021-12-10 13:57:34.192632,-166
2021-12-10 13:57:34.192642,-166
2021-12-10 13:57:34.192650,-161
2021-12-10 13:57:34.192658,-156
2021-12-10 13:57:34.192667,-163
2021-12-10 13:57:34.192675,-163
2021-12-10 13:57:34.192684,-156
2021-12-10 13:57:34.192692,-151
2021-12-10 13:57:34.192700,-146
2021-12-10 13:57:34.192709,-144
2021-12-10 13:57:34.192717,-146
2021-12-10 13:57:34.192725,-134
2021-12-10 13:57:34.192734,-134
2021-12-10 13:57:34.462346,-132
2021-12-10 13:57:34.462367,-119
2021-12-10 13:57:34.462377,-122
2021-12-10 13:57:34.462386,-127
2021-12-10 13:57:34.462394,-119
2021-12-10 13:57:34.462403,-110
2021-12-10 13:57:34.462411,-112
2021-12-10 13:57:34.462420,-110
2021-12-10 13:57:34.462428,-102
2021-12-10 13:57:34.462436,-112
2021-12-10 13:57:34.462445,-124
2021-12-10 13:57:34.462453,-112
2021-12-10 13:57:34.462462,-100
2021-12-10 13:57:34.462470,-100
2021-12-10 13:57:34.462478,-95
2021-12-10 13:57:34.462487,-85
2021-12-10 13:57:34.462495,-73
2021-12-10 13:57:34.462504,-66
2021-12-10 13:57:34.462512,-63
2021-12-10 13:57:34.462530,-75
2021-12-10 13:57:34.462538,-97
2021-12-10 13:57:34.462546,-92
2021-12-10 13:57:34.462555,-80
2021-12-10 13:57:34.462563,-85
2021-12-10 13:57:34.462571,-90
2021-12-10 13:57:34.462579,-85
2021-12-10 13:57:34.462588,-80
2021-12-10 13:57:34.462596,-70
2021-12-10 13:57:34.462605,-39
2021-12-10 13:57:34.462613,34
2021-12-10 13:57:34.730963,232
2021-12-10 13:57:34.730984,538
2021-12-10 13:57:34.730994,418
2021-12-10 13:57:34.731003,-288
2021-12-10 13:57:34.731012,-743
2021-12-10 13:57:34.731020,-540
2021-12-10 13:57:34.731029,-232
2021-12-10 13:57:34.731037,-146
2021-12-10 13:57:34.731045,-80
2021-12-10 13:57:34.731054,4
2021-12-10 13:57:34.731062,14
2021-12-10 13:57:34.731071,17
2021-12-10 13:57:34.731079,51
2021-12-10 13:57:34.731087,58
2021-12-10 13:57:34.731096,46
2021-12-10 13:57:34.731104,61
2021-12-10 13:57:34.731112,78
2021-12-10 13:57:34.731121,88
2021-12-10 13:57:34.731129,100
2021-12-10 13:57:34.731138,112
2021-12-10 13:57:34.731146,124
2021-12-10 13:57:34.731154,141
2021-12-10 13:57:34.731163,166
2021-12-10 13:57:34.731171,195
2021-12-10 13:57:34.731180,229
2021-12-10 13:57:34.731188,266
2021-12-10 13:57:34.731197,288
2021-12-10 13:57:34.731205,298
2021-12-10 13:57:34.731214,305
2021-12-10 13:57:34.731222,298
2021-12-10 13:57:35.001728,273
2021-12-10 13:57:35.001750,229
2021-12-10 13:57:35.001760,163
2021-12-10 13:57:35.001769,80
2021-12-10 13:57:35.001778,-2
2021-12-10 13:57:35.001787,-66
2021-12-10 13:57:35.001795,-114
2021-12-10 13:57:35.001804,-158
2021-12-10 13:57:35.001812,-190
2021-12-10 13:57:35.001821,-207
2021-12-10 13:57:35.001829,-207
2021-12-10 13:57:35.001838,-202
2021-12-10 13:57:35.001846,-200
2021-12-10 13:57:35.001854,-193
2021-12-10 13:57:35.001863,-200
2021-12-10 13:57:35.001871,-212
2021-12-10 13:57:35.001880,-205
2021-12-10 13:57:35.001888,-195
2021-12-10 13:57:35.001896,-190
2021-12-10 13:57:35.001905,-180
2021-12-10 13:57:35.001913,-178
2021-12-10 13:57:35.001922,-168
2021-12-10 13:57:35.001930,-151
2021-12-10 13:57:35.001939,-141
2021-12-10 13:57:35.001947,-141
2021-12-10 13:57:35.001955,-134
2021-12-10 13:57:35.001964,-127
2021-12-10 13:57:35.001972,-124
2021-12-10 13:57:35.001980,-122
2021-12-10 13:57:35.001989,-122
2021-12-10 13:57:35.137330,-124
2021-12-10 13:57:35.137353,-127
2021-12-10 13:57:35.137362,-124
2021-12-10 13:57:35.137371,-124
2021-12-10 13:57:35.137380,-124
2021-12-10 13:57:35.137388,-122
2021-12-10 13:57:35.137397,-124
2021-12-10 13:57:35.137405,-127
2021-12-10 13:57:35.137414,-124
2021-12-10 13:57:35.137423,-124
2021-12-10 13:57:35.137431,-124
2021-12-10 13:57:35.137440,-122
2021-12-10 13:57:35.137448,-124
2021-12-10 13:57:35.137457,-132
2021-12-10 13:57:35.137466,-132
2021-12-10 13:57:35.137474,-122
2021-12-10 13:57:35.137482,-122
2021-12-10 13:57:35.137520,-127
2021-12-10 13:57:35.137529,-127
2021-12-10 13:57:35.137537,-122
2021-12-10 13:57:35.137545,-112
2021-12-10 13:57:35.137554,-107
2021-12-10 13:57:35.137562,-100
2021-12-10 13:57:35.137571,-88
2021-12-10 13:57:35.137579,-80
2021-12-10 13:57:35.137588,-90
2021-12-10 13:57:35.137596,-114
2021-12-10 13:57:35.137605,-124
2021-12-10 13:57:35.137614,-110
2021-12-10 13:57:35.137622,-102
2021-12-10 13:57:35.362334,-107
2021-12-10 13:57:35.362355,-110
2021-12-10 13:57:35.362365,-110
2021-12-10 13:57:35.362374,-110
2021-12-10 13:57:35.362382,-92
2021-12-10 13:57:35.362391,-46
2021-12-10 13:57:35.362400,63
2021-12-10 13:57:35.362408,352
2021-12-10 13:57:35.362417,567
2021-12-10 13:57:35.362425,144
2021-12-10 13:57:35.362434,-613
2021-12-10 13:57:35.362442,-799
2021-12-10 13:57:35.362451,-432
2021-12-10 13:57:35.362459,-202
2021-12-10 13:57:35.362468,-168
2021-12-10 13:57:35.362476,-73
2021-12-10 13:57:35.362485,-17
2021-12-10 13:57:35.362494,-26
2021-12-10 13:57:35.362502,-7
2021-12-10 13:57:35.362511,17
2021-12-10 13:57:35.362519,12
2021-12-10 13:57:35.362528,19
2021-12-10 13:57:35.362536,36
2021-12-10 13:57:35.362545,44
2021-12-10 13:57:35.362553,53
2021-12-10 13:57:35.362562,68
2021-12-10 13:57:35.362570,88
2021-12-10 13:57:35.362579,105
2021-12-10 13:57:35.362587,127
2021-12-10 13:57:35.362596,154
2021-12-10 13:57:35.632473,185
2021-12-10 13:57:35.632494,222
2021-12-10 13:57:35.632533,256
2021-12-10 13:57:35.632541,276
2021-12-10 13:57:35.632551,286
2021-12-10 13:57:35.632559,283
2021-12-10 13:57:35.632568,259
2021-12-10 13:57:35.632576,220
2021-12-10 13:57:35.632585,161
2021-12-10 13:57:35.632593,80
2021-12-10 13:57:35.632602,-4
2021-12-10 13:57:35.632610,-78
2021-12-10 13:57:35.632619,-134
2021-12-10 13:57:35.632627,-180
2021-12-10 13:57:35.632636,-215
2021-12-10 13:57:35.632644,-227
2021-12-10 13:57:35.632653,-237
2021-12-10 13:57:35.632661,-249
2021-12-10 13:57:35.632670,-244
2021-12-10 13:57:35.632678,-232
2021-12-10 13:57:35.632687,-224
2021-12-10 13:57:35.632695,-224
2021-12-10 13:57:35.632704,-222
2021-12-10 13:57:35.632712,-215
2021-12-10 13:57:35.632720,-210
2021-12-10 13:57:35.632729,-200
2021-12-10 13:57:35.632738,-193
2021-12-10 13:57:35.632746,-185
2021-12-10 13:57:35.632754,-176
2021-12-10 13:57:35.632763,-166
2021-12-10 13:57:35.812468,-161
2021-12-10 13:57:35.812490,-151
2021-12-10 13:57:35.812499,-144
2021-12-10 13:57:35.812508,-139
2021-12-10 13:57:35.812517,-139
2021-12-10 13:57:35.812525,-141
2021-12-10 13:57:35.812534,-144
2021-12-10 13:57:35.812543,-144
2021-12-10 13:57:35.812551,-144
2021-12-10 13:57:35.812560,-144
2021-12-10 13:57:35.812568,-149
2021-12-10 13:57:35.812576,-151
2021-12-10 13:57:35.812585,-151
2021-12-10 13:57:35.812593,-149
2021-12-10 13:57:35.812602,-146
2021-12-10 13:57:35.812610,-146
2021-12-10 13:57:35.812619,-146
2021-12-10 13:57:35.812627,-146
2021-12-10 13:57:35.812636,-146
2021-12-10 13:57:35.812644,-141
2021-12-10 13:57:35.812653,-141
2021-12-10 13:57:35.812661,-136
2021-12-10 13:57:35.812670,-132
2021-12-10 13:57:35.812678,-134
2021-12-10 13:57:35.812687,-132
2021-12-10 13:57:35.812695,-132
2021-12-10 13:57:35.812704,-132
2021-12-10 13:57:35.812712,-127
2021-12-10 13:57:35.812721,-124
2021-12-10 13:57:35.812729,-122
2021-12-10 13:57:36.126767,-119
2021-12-10 13:57:36.126787,-122
2021-12-10 13:57:36.126797,-117
2021-12-10 13:57:36.126805,-117
2021-12-10 13:57:36.126814,-117
2021-12-10 13:57:36.126823,-112
2021-12-10 13:57:36.126831,-110
2021-12-10 13:57:36.126840,-100
2021-12-10 13:57:36.126848,-80
2021-12-10 13:57:36.126857,-73
2021-12-10 13:57:36.126865,-90
2021-12-10 13:57:36.126873,-117
2021-12-10 13:57:36.126882,-119
2021-12-10 13:57:36.126890,-105
2021-12-10 13:57:36.126899,-102
2021-12-10 13:57:36.126907,-107
2021-12-10 13:57:36.126915,-110
2021-12-10 13:57:36.126923,-107
2021-12-10 13:57:36.126932,-102
2021-12-10 13:57:36.126940,-83
2021-12-10 13:57:36.126948,-39
2021-12-10 13:57:36.126957,83
2021-12-10 13:57:36.126965,391
2021-12-10 13:57:36.126974,586
2021-12-10 13:57:36.126982,185
2021-12-10 13:57:36.126990,-484
2021-12-10 13:57:36.126999,-704
2021-12-10 13:57:36.127007,-447
2021-12-10 13:57:36.127015,-207
2021-12-10 13:57:36.127024,-136
2021-12-10 13:57:36.306789,-80
2021-12-10 13:57:36.306811,-36
2021-12-10 13:57:36.306821,-31
2021-12-10 13:57:36.306829,-19
2021-12-10 13:57:36.306838,-4
2021-12-10 13:57:36.306846,-2
2021-12-10 13:57:36.306854,4
2021-12-10 13:57:36.306863,19
2021-12-10 13:57:36.306871,31
2021-12-10 13:57:36.306880,34
2021-12-10 13:57:36.306888,44
2021-12-10 13:57:36.306896,66
2021-12-10 13:57:36.306904,80
2021-12-10 13:57:36.306913,100
2021-12-10 13:57:36.306921,132
2021-12-10 13:57:36.306933,156
2021-12-10 13:57:36.306942,183
2021-12-10 13:57:36.306950,215
2021-12-10 13:57:36.306958,239
2021-12-10 13:57:36.306967,259
2021-12-10 13:57:36.306975,261
2021-12-10 13:57:36.306983,249
2021-12-10 13:57:36.306992,220
2021-12-10 13:57:36.307000,173
2021-12-10 13:57:36.307008,105
2021-12-10 13:57:36.307017,24
2021-12-10 13:57:36.307025,-56
2021-12-10 13:57:36.307033,-119
2021-12-10 13:57:36.307042,-171
2021-12-10 13:57:36.307050,-207
2021-12-10 13:57:36.576724,-224
2021-12-10 13:57:36.576744,-229
2021-12-10 13:57:36.576754,-234
2021-12-10 13:57:36.576763,-239
2021-12-10 13:57:36.576771,-234
2021-12-10 13:57:36.576780,-220
2021-12-10 13:57:36.576788,-210
2021-12-10 13:57:36.576796,-205
2021-12-10 13:57:36.576805,-198
2021-12-10 13:57:36.576813,-190
2021-12-10 13:57:36.576821,-185
2021-12-10 13:57:36.576830,-180
2021-12-10 13:57:36.576838,-171
2021-12-10 13:57:36.576847,-161
2021-12-10 13:57:36.576855,-161
2021-12-10 13:57:36.576863,-154
2021-12-10 13:57:36.576872,-144
2021-12-10 13:57:36.576880,-139
2021-12-10 13:57:36.576888,-139
2021-12-10 13:57:36.576899,-134
2021-12-10 13:57:36.576908,-129
2021-12-10 13:57:36.576916,-129
2021-12-10 13:57:36.576925,-124
2021-12-10 13:57:36.576933,-117
2021-12-10 13:57:36.576941,-119
2021-12-10 13:57:36.576950,-119
2021-12-10 13:57:36.576958,-117
2021-12-10 13:57:36.576966,-122
2021-12-10 13:57:36.576974,-124
2021-12-10 13:57:36.576983,-127
2021-12-10 13:57:36.846039,-129
2021-12-10 13:57:36.846061,-127
2021-12-10 13:57:36.846071,-124
2021-12-10 13:57:36.846079,-122
2021-12-10 13:57:36.846088,-124
2021-12-10 13:57:36.846097,-124
2021-12-10 13:57:36.846105,-114
2021-12-10 13:57:36.846114,-112
2021-12-10 13:57:36.846122,-119
2021-12-10 13:57:36.846131,-117
2021-12-10 13:57:36.846139,-112
2021-12-10 13:57:36.846147,-105
2021-12-10 13:57:36.846156,-105
2021-12-10 13:57:36.846165,-105
2021-12-10 13:57:36.846173,-105
2021-12-10 13:57:36.846182,-107
2021-12-10 13:57:36.846190,-107
2021-12-10 13:57:36.846199,-107
2021-12-10 13:57:36.846207,-110
2021-12-10 13:57:36.846216,-107
2021-12-10 13:57:36.846224,-105
2021-12-10 13:57:36.846233,-97
2021-12-10 13:57:36.846241,-88
2021-12-10 13:57:36.846249,-83
2021-12-10 13:57:36.846258,-63
2021-12-10 13:57:36.846266,-48
2021-12-10 13:57:36.846275,-70
2021-12-10 13:57:36.846283,-100
2021-12-10 13:57:36.846292,-100
2021-12-10 13:57:36.846300,-85
2021-12-10 13:57:36.982342,-85
2021-12-10 13:57:36.982363,-92
2021-12-10 13:57:36.982373,-90
2021-12-10 13:57:36.982382,-95
2021-12-10 13:57:36.982391,-92
2021-12-10 13:57:36.982399,-70
2021-12-10 13:57:36.982408,-29
2021-12-10 13:57:36.982416,63
2021-12-10 13:57:36.982425,354
2021-12-10 13:57:36.982434,660
2021-12-10 13:57:36.982442,383
2021-12-10 13:57:36.982451,-369
2021-12-10 13:57:36.982459,-740
2021-12-10 13:57:36.982468,-506
2021-12-10 13:57:36.982476,-222
2021-12-10 13:57:36.982484,-141
2021-12-10 13:57:36.982493,-95
2021-12-10 13:57:36.982501,-41
2021-12-10 13:57:36.982510,-29
2021-12-10 13:57:36.982518,-26
2021-12-10 13:57:36.982527,-7
2021-12-10 13:57:36.982535,2
2021-12-10 13:57:36.982544,0
2021-12-10 13:57:36.982552,7
2021-12-10 13:57:36.982560,29
2021-12-10 13:57:36.982569,41
2021-12-10 13:57:36.982577,46
2021-12-10 13:57:36.982586,63
2021-12-10 13:57:36.982594,85
2021-12-10 13:57:36.982603,100
2021-12-10 13:57:37.252343,124
2021-12-10 13:57:37.252363,161
2021-12-10 13:57:37.252373,193
2021-12-10 13:57:37.252382,222
2021-12-10 13:57:37.252391,251
2021-12-10 13:57:37.252399,264
2021-12-10 13:57:37.252408,269
2021-12-10 13:57:37.252416,264
2021-12-10 13:57:37.252425,234
2021-12-10 13:57:37.252433,190
2021-12-10 13:57:37.252442,124
2021-12-10 13:57:37.252450,41
2021-12-10 13:57:37.252458,-44
2021-12-10 13:57:37.252467,-114
2021-12-10 13:57:37.252475,-163
2021-12-10 13:57:37.252484,-205
2021-12-10 13:57:37.252492,-229
2021-12-10 13:57:37.252501,-234
2021-12-10 13:57:37.252509,-234
2021-12-10 13:57:37.252518,-237
2021-12-10 13:57:37.252526,-232
2021-12-10 13:57:37.252534,-222
2021-12-10 13:57:37.252543,-212
2021-12-10 13:57:37.252551,-205
2021-12-10 13:57:37.252560,-198
2021-12-10 13:57:37.252568,-193
2021-12-10 13:57:37.252577,-185
2021-12-10 13:57:37.252585,-171
2021-12-10 13:57:37.252594,-166
2021-12-10 13:57:37.252602,-158
2021-12-10 13:57:37.432365,-149
2021-12-10 13:57:37.432387,-146
2021-12-10 13:57:37.432397,-139
2021-12-10 13:57:37.432406,-132
2021-12-10 13:57:37.432414,-129
2021-12-10 13:57:37.432423,-129
2021-12-10 13:57:37.432431,-124
2021-12-10 13:57:37.432440,-122
2021-12-10 13:57:37.432448,-129
2021-12-10 13:57:37.432456,-127
2021-12-10 13:57:37.432465,-117
2021-12-10 13:57:37.432473,-129
2021-12-10 13:57:37.432482,-139
2021-12-10 13:57:37.432490,-127
2021-12-10 13:57:37.432499,-122
2021-12-10 13:57:37.432507,-124
2021-12-10 13:57:37.432516,-117
2021-12-10 13:57:37.432524,-117
2021-12-10 13:57:37.432533,-127
2021-12-10 13:57:37.432541,-129
2021-12-10 13:57:37.432550,-119
2021-12-10 13:57:37.432558,-117
2021-12-10 13:57:37.432566,-119
2021-12-10 13:57:37.432575,-117
2021-12-10 13:57:37.432583,-114
2021-12-10 13:57:37.432592,-114
2021-12-10 13:57:37.432600,-114
2021-12-10 13:57:37.432608,-112
2021-12-10 13:57:37.432617,-112
2021-12-10 13:57:37.432625,-107
2021-12-10 13:57:37.747559,-100
2021-12-10 13:57:37.747578,-100
2021-12-10 13:57:37.747588,-105
2021-12-10 13:57:37.747597,-100
2021-12-10 13:57:37.747605,-92
2021-12-10 13:57:37.747614,-105
2021-12-10 13:57:37.747622,-117
2021-12-10 13:57:37.747631,-107
2021-12-10 13:57:37.747639,-92
2021-12-10 13:57:37.747647,-92
2021-12-10 13:57:37.747656,-97
2021-12-10 13:57:37.747664,-97
2021-12-10 13:57:37.747672,-80
2021-12-10 13:57:37.747681,-66
2021-12-10 13:57:37.747689,-80
2021-12-10 13:57:37.747698,-102
2021-12-10 13:57:37.747706,-105
2021-12-10 13:57:37.747714,-105
2021-12-10 13:57:37.747723,-102
2021-12-10 13:57:37.747731,-107
2021-12-10 13:57:37.747739,-117
2021-12-10 13:57:37.747748,-105
2021-12-10 13:57:37.747756,-95
2021-12-10 13:57:37.747764,-92
2021-12-10 13:57:37.747773,-48
2021-12-10 13:57:37.747781,83
2021-12-10 13:57:37.747790,415
2021-12-10 13:57:37.747798,706
2021-12-10 13:57:37.747807,354
2021-12-10 13:57:37.747815,-467
2021-12-10 13:57:37.972394,-821
2021-12-10 13:57:37.972415,-498
2021-12-10 13:57:37.972425,-198
2021-12-10 13:57:37.972434,-161
2021-12-10 13:57:37.972443,-102
2021-12-10 13:57:37.972451,-34
2021-12-10 13:57:37.972460,-44
2021-12-10 13:57:37.972468,-39
2021-12-10 13:57:37.972476,-4
2021-12-10 13:57:37.972485,12
2021-12-10 13:57:37.972493,12
2021-12-10 13:57:37.972502,17
2021-12-10 13:57:37.972510,39
2021-12-10 13:57:37.972518,58
2021-12-10 13:57:37.972527,66
2021-12-10 13:57:37.972535,75
2021-12-10 13:57:37.972544,92
2021-12-10 13:57:37.972552,117
2021-12-10 13:57:37.972560,146
2021-12-10 13:57:37.972569,173
2021-12-10 13:57:37.972577,210
2021-12-10 13:57:37.972586,246
2021-12-10 13:57:37.972594,276
2021-12-10 13:57:37.972602,295
2021-12-10 13:57:37.972610,295
2021-12-10 13:57:37.972619,286
2021-12-10 13:57:37.972627,264
2021-12-10 13:57:37.972636,212
2021-12-10 13:57:37.972644,139
2021-12-10 13:57:37.972652,56
2021-12-10 13:57:38.107242,-34
2021-12-10 13:57:38.107260,-110
2021-12-10 13:57:38.107270,-163
2021-12-10 13:57:38.107279,-198
2021-12-10 13:57:38.107287,-220
2021-12-10 13:57:38.107296,-234
2021-12-10 13:57:38.107304,-234
2021-12-10 13:57:38.107312,-232
2021-12-10 13:57:38.107321,-229
2021-12-10 13:57:38.107329,-227
2021-12-10 13:57:38.107338,-220
2021-12-10 13:57:38.107346,-205
2021-12-10 13:57:38.107354,-193
2021-12-10 13:57:38.107363,-188
2021-12-10 13:57:38.107371,-183
2021-12-10 13:57:38.107380,-171
2021-12-10 13:57:38.107388,-171
2021-12-10 13:57:38.107397,-168
2021-12-10 13:57:38.107405,-151
2021-12-10 13:57:38.107413,-144
2021-12-10 13:57:38.107422,-146
2021-12-10 13:57:38.107430,-136
2021-12-10 13:57:38.107439,-129
2021-12-10 13:57:38.107447,-136
2021-12-10 13:57:38.107455,-134
2021-12-10 13:57:38.107464,-124
2021-12-10 13:57:38.107472,-129
2021-12-10 13:57:38.107480,-129
2021-12-10 13:57:38.107489,-129
2021-12-10 13:57:38.107497,-134
2021-12-10 13:57:38.376749,-134
2021-12-10 13:57:38.376769,-132
2021-12-10 13:57:38.376779,-132
2021-12-10 13:57:38.376787,-134
2021-12-10 13:57:38.376796,-132
2021-12-10 13:57:38.376804,-127
2021-12-10 13:57:38.376813,-129
2021-12-10 13:57:38.376821,-127
2021-12-10 13:57:38.376829,-124
2021-12-10 13:57:38.376838,-129
2021-12-10 13:57:38.376846,-127
2021-12-10 13:57:38.376854,-122
2021-12-10 13:57:38.376863,-117
2021-12-10 13:57:38.376871,-114
2021-12-10 13:57:38.376879,-117
2021-12-10 13:57:38.376888,-124
2021-12-10 13:57:38.376896,-119
2021-12-10 13:57:38.376904,-102
2021-12-10 13:57:38.376913,-102
2021-12-10 13:57:38.376921,-117
2021-12-10 13:57:38.376929,-114
2021-12-10 13:57:38.376947,-119
2021-12-10 13:57:38.376956,-127
2021-12-10 13:57:38.376964,-112
2021-12-10 13:57:38.376972,-105
2021-12-10 13:57:38.376981,-100
2021-12-10 13:57:38.376989,-88
2021-12-10 13:57:38.376997,-70
2021-12-10 13:57:38.377005,-61
2021-12-10 13:57:38.377013,-70
2021-12-10 13:57:38.602461,-88
2021-12-10 13:57:38.602483,-102
2021-12-10 13:57:38.602492,-112
2021-12-10 13:57:38.602502,-112
2021-12-10 13:57:38.602510,-107
2021-12-10 13:57:38.602519,-102
2021-12-10 13:57:38.602527,-102
2021-12-10 13:57:38.602536,-107
2021-12-10 13:57:38.602544,-102
2021-12-10 13:57:38.602553,-73
2021-12-10 13:57:38.602561,2
2021-12-10 13:57:38.602570,222
2021-12-10 13:57:38.602578,621
2021-12-10 13:57:38.602586,660
2021-12-10 13:57:38.602595,-58
2021-12-10 13:57:38.602603,-780
2021-12-10 13:57:38.602612,-721
2021-12-10 13:57:38.602620,-303
2021-12-10 13:57:38.602629,-158
2021-12-10 13:57:38.602637,-136
2021-12-10 13:57:38.602645,-53
2021-12-10 13:57:38.602654,-31
2021-12-10 13:57:38.602663,-44
2021-12-10 13:57:38.602672,-19
2021-12-10 13:57:38.602680,2
2021-12-10 13:57:38.602689,7
2021-12-10 13:57:38.602697,22
2021-12-10 13:57:38.602706,39
2021-12-10 13:57:38.602714,44
2021-12-10 13:57:38.602722,58
2021-12-10 13:57:38.871082,80
2021-12-10 13:57:38.871104,95
2021-12-10 13:57:38.871114,119
2021-12-10 13:57:38.871123,144
2021-12-10 13:57:38.871132,171
2021-12-10 13:57:38.871140,207
2021-12-10 13:57:38.871149,244
2021-12-10 13:57:38.871157,278
2021-12-10 13:57:38.871166,298
2021-12-10 13:57:38.871174,303
2021-12-10 13:57:38.871183,303
2021-12-10 13:57:38.871191,286
2021-12-10 13:57:38.871200,244
2021-12-10 13:57:38.871208,183
2021-12-10 13:57:38.871216,102
2021-12-10 13:57:38.871225,9
2021-12-10 13:57:38.871233,-66
2021-12-10 13:57:38.871242,-122
2021-12-10 13:57:38.871250,-163
2021-12-10 13:57:38.871258,-195
2021-12-10 13:57:38.871267,-215
2021-12-10 13:57:38.871275,-222
2021-12-10 13:57:38.871283,-220
2021-12-10 13:57:38.871291,-215
2021-12-10 13:57:38.871300,-210
2021-12-10 13:57:38.871308,-198
2021-12-10 13:57:38.871317,-185
2021-12-10 13:57:38.871325,-180
2021-12-10 13:57:38.871334,-171
2021-12-10 13:57:38.871342,-154
2021-12-10 13:57:39.141796,-141
2021-12-10 13:57:39.141818,-136
2021-12-10 13:57:39.141828,-134
2021-12-10 13:57:39.141836,-122
2021-12-10 13:57:39.141845,-114
2021-12-10 13:57:39.141853,-112
2021-12-10 13:57:39.141862,-110
2021-12-10 13:57:39.141870,-107
2021-12-10 13:57:39.141879,-110
2021-12-10 13:57:39.141887,-110
2021-12-10 13:57:39.141896,-110
2021-12-10 13:57:39.141904,-105
2021-12-10 13:57:39.141913,-105
2021-12-10 13:57:39.141921,-112
2021-12-10 13:57:39.141929,-119
2021-12-10 13:57:39.141937,-124
2021-12-10 13:57:39.141946,-127
2021-12-10 13:57:39.141954,-134
2021-12-10 13:57:39.141962,-139
2021-12-10 13:57:39.141971,-139
2021-12-10 13:57:39.141979,-144
2021-12-10 13:57:39.141987,-146
2021-12-10 13:57:39.141996,-141
2021-12-10 13:57:39.142004,-139
2021-12-10 13:57:39.142012,-141
2021-12-10 13:57:39.142021,-151
2021-12-10 13:57:39.142029,-156
2021-12-10 13:57:39.142037,-151
2021-12-10 13:57:39.142045,-149
2021-12-10 13:57:39.142054,-149
2021-12-10 13:57:39.321784,-136
2021-12-10 13:57:39.321805,-124
2021-12-10 13:57:39.321815,-117
2021-12-10 13:57:39.321824,-110
2021-12-10 13:57:39.321833,-100
2021-12-10 13:57:39.321842,-95
2021-12-10 13:57:39.321850,-95
2021-12-10 13:57:39.321859,-88
2021-12-10 13:57:39.321867,-73
2021-12-10 13:57:39.321876,-63
2021-12-10 13:57:39.321884,-53
2021-12-10 13:57:39.321893,-39
2021-12-10 13:57:39.321901,-46
2021-12-10 13:57:39.321910,-75
2021-12-10 13:57:39.321918,-80
2021-12-10 13:57:39.321926,-68
2021-12-10 13:57:39.321935,-73
2021-12-10 13:57:39.321943,-78
2021-12-10 13:57:39.321952,-70
2021-12-10 13:57:39.321960,-78
2021-12-10 13:57:39.321969,-78
2021-12-10 13:57:39.321977,-46
2021-12-10 13:57:39.321985,14
2021-12-10 13:57:39.321994,163
2021-12-10 13:57:39.322002,523
2021-12-10 13:57:39.322010,701
2021-12-10 13:57:39.322019,107
2021-12-10 13:57:39.322027,-750
2021-12-10 13:57:39.322035,-851
2021-12-10 13:57:39.322044,-369
2021-12-10 13:57:39.502266,-149
2021-12-10 13:57:39.502285,-146
2021-12-10 13:57:39.502294,-34
2021-12-10 13:57:39.502303,29
2021-12-10 13:57:39.502311,7
2021-12-10 13:57:39.502334,31
2021-12-10 13:57:39.502343,66
2021-12-10 13:57:39.502352,63
2021-12-10 13:57:39.502360,73
2021-12-10 13:57:39.502369,92
2021-12-10 13:57:39.502377,105
2021-12-10 13:57:39.502385,122
2021-12-10 13:57:39.502394,134
2021-12-10 13:57:39.502402,146
2021-12-10 13:57:39.502410,173
2021-12-10 13:57:39.502419,198
2021-12-10 13:57:39.502427,220
2021-12-10 13:57:39.502436,254
2021-12-10 13:57:39.502444,291
2021-12-10 13:57:39.502453,322
2021-12-10 13:57:39.502461,342
2021-12-10 13:57:39.502469,352
2021-12-10 13:57:39.502478,352
2021-12-10 13:57:39.502486,330
2021-12-10 13:57:39.502494,293
2021-12-10 13:57:39.502503,242
2021-12-10 13:57:39.502511,166
2021-12-10 13:57:39.502519,73
2021-12-10 13:57:39.502528,-14
2021-12-10 13:57:39.502536,-78
2021-12-10 13:57:39.771836,-127
2021-12-10 13:57:39.771858,-171
2021-12-10 13:57:39.771868,-193
2021-12-10 13:57:39.771876,-198
2021-12-10 13:57:39.771885,-207
2021-12-10 13:57:39.771894,-217
2021-12-10 13:57:39.771902,-212
2021-12-10 13:57:39.771911,-202
2021-12-10 13:57:39.771919,-193
2021-12-10 13:57:39.771927,-183
2021-12-10 13:57:39.771935,-173
2021-12-10 13:57:39.771944,-166
2021-12-10 13:57:39.771952,-158
2021-12-10 13:57:39.771961,-151
2021-12-10 13:57:39.771969,-141
2021-12-10 13:57:39.771978,-129
2021-12-10 13:57:39.771986,-132
2021-12-10 13:57:39.771995,-134
2021-12-10 13:57:39.772003,-124
2021-12-10 13:57:39.772011,-114
2021-12-10 13:57:39.772020,-119
2021-12-10 13:57:39.772028,-127
2021-12-10 13:57:39.772036,-132
2021-12-10 13:57:39.772045,-127
2021-12-10 13:57:39.772053,-129
2021-12-10 13:57:39.772061,-136
2021-12-10 13:57:39.772070,-132
2021-12-10 13:57:39.772078,-132
2021-12-10 13:57:39.772086,-141
2021-12-10 13:57:39.772095,-141
2021-12-10 13:57:39.952407,-132
2021-12-10 13:57:39.952429,-132
2021-12-10 13:57:39.952438,-136
2021-12-10 13:57:39.952447,-136
2021-12-10 13:57:39.952456,-134
2021-12-10 13:57:39.952465,-132
2021-12-10 13:57:39.952473,-132
2021-12-10 13:57:39.952482,-134
2021-12-10 13:57:39.952491,-124
2021-12-10 13:57:39.952499,-112
2021-12-10 13:57:39.952508,-107
2021-12-10 13:57:39.952516,-100
2021-12-10 13:57:39.952525,-100
2021-12-10 13:57:39.952533,-114
2021-12-10 13:57:39.952542,-132
2021-12-10 13:57:39.952550,-132
2021-12-10 13:57:39.952559,-122
2021-12-10 13:57:39.952567,-124
2021-12-10 13:57:39.952575,-127
2021-12-10 13:57:39.952584,-114
2021-12-10 13:57:39.952592,-112
2021-12-10 13:57:39.952601,-117
2021-12-10 13:57:39.952609,-95
2021-12-10 13:57:39.952618,-34
2021-12-10 13:57:39.952626,48
2021-12-10 13:57:39.952634,227
2021-12-10 13:57:39.952643,325
2021-12-10 13:57:39.952651,-119
2021-12-10 13:57:39.952660,-868
2021-12-10 13:57:39.952668,-1002
2021-12-10 13:57:40.222276,-523
2021-12-10 13:57:40.222294,-237
2021-12-10 13:57:40.222303,-195
2021-12-10 13:57:40.222312,-70
2021-12-10 13:57:40.222320,14
2021-12-10 13:57:40.222329,0
2021-12-10 13:57:40.222338,12
2021-12-10 13:57:40.222346,39
2021-12-10 13:57:40.222355,41
2021-12-10 13:57:40.222363,46
2021-12-10 13:57:40.222372,48
2021-12-10 13:57:40.222380,48
2021-12-10 13:57:40.222389,66
2021-12-10 13:57:40.222397,85
2021-12-10 13:57:40.222405,100
2021-12-10 13:57:40.222414,124
2021-12-10 13:57:40.222422,151
2021-12-10 13:57:40.222431,176
2021-12-10 13:57:40.222439,210
2021-12-10 13:57:40.222448,251
2021-12-10 13:57:40.222456,283
2021-12-10 13:57:40.222465,298
2021-12-10 13:57:40.222473,300
2021-12-10 13:57:40.222482,303
2021-12-10 13:57:40.222490,288
2021-12-10 13:57:40.222499,251
2021-12-10 13:57:40.222507,193
2021-12-10 13:57:40.222515,107
2021-12-10 13:57:40.222524,12
2021-12-10 13:57:40.222532,-70
2021-12-10 13:57:40.537300,-134
2021-12-10 13:57:40.537322,-180
2021-12-10 13:57:40.537332,-220
2021-12-10 13:57:40.537341,-244
2021-12-10 13:57:40.537349,-256
2021-12-10 13:57:40.537358,-259
2021-12-10 13:57:40.537366,-259
2021-12-10 13:57:40.537375,-254
2021-12-10 13:57:40.537383,-244
2021-12-10 13:57:40.537392,-232
2021-12-10 13:57:40.537401,-222
2021-12-10 13:57:40.537409,-207
2021-12-10 13:57:40.537418,-198
2021-12-10 13:57:40.537426,-188
2021-12-10 13:57:40.537434,-178
2021-12-10 13:57:40.537443,-171
2021-12-10 13:57:40.537451,-166
2021-12-10 13:57:40.537460,-156
2021-12-10 13:57:40.537468,-149
2021-12-10 13:57:40.537477,-144
2021-12-10 13:57:40.537485,-141
2021-12-10 13:57:40.537494,-141
2021-12-10 13:57:40.537502,-146
2021-12-10 13:57:40.537511,-154
2021-12-10 13:57:40.537519,-151
2021-12-10 13:57:40.537527,-149
2021-12-10 13:57:40.537536,-154
2021-12-10 13:57:40.537544,-156
2021-12-10 13:57:40.537553,-158
2021-12-10 13:57:40.537561,-156
2021-12-10 13:57:40.672283,-156
2021-12-10 13:57:40.672304,-158
2021-12-10 13:57:40.672314,-154
2021-12-10 13:57:40.672322,-151
2021-12-10 13:57:40.672331,-154
2021-12-10 13:57:40.672340,-151
2021-12-10 13:57:40.672348,-151
2021-12-10 13:57:40.672357,-149
2021-12-10 13:57:40.672365,-149
2021-12-10 13:57:40.672374,-151
2021-12-10 13:57:40.672382,-151
2021-12-10 13:57:40.672391,-144
2021-12-10 13:57:40.672399,-134
2021-12-10 13:57:40.672407,-127
2021-12-10 13:57:40.672416,-119
2021-12-10 13:57:40.672424,-107
2021-12-10 13:57:40.672432,-107
2021-12-10 13:57:40.672441,-122
2021-12-10 13:57:40.672449,-139
2021-12-10 13:57:40.672457,-144
2021-12-10 13:57:40.672466,-136
2021-12-10 13:57:40.672474,-139
2021-12-10 13:57:40.672483,-141
2021-12-10 13:57:40.672491,-134
2021-12-10 13:57:40.672500,-132
2021-12-10 13:57:40.672508,-127
2021-12-10 13:57:40.672516,-102
2021-12-10 13:57:40.672525,-53
2021-12-10 13:57:40.672533,95
2021-12-10 13:57:40.672541,425
2021-12-10 13:57:40.986080,493
2021-12-10 13:57:40.986102,-102
2021-12-10 13:57:40.986112,-753
2021-12-10 13:57:40.986121,-745
2021-12-10 13:57:40.986129,-374
2021-12-10 13:57:40.986138,-202
2021-12-10 13:57:40.986146,-158
2021-12-10 13:57:40.986155,-75
2021-12-10 13:57:40.986163,-48
2021-12-10 13:57:40.986172,-56
2021-12-10 13:57:40.986180,-34
2021-12-10 13:57:40.986189,-14
2021-12-10 13:57:40.986197,-7
2021-12-10 13:57:40.986205,0
2021-12-10 13:57:40.986214,9
2021-12-10 13:57:40.986222,17
2021-12-10 13:57:40.986231,29
2021-12-10 13:57:40.986239,46
2021-12-10 13:57:40.986248,61
2021-12-10 13:57:40.986256,83
2021-12-10 13:57:40.986264,105
2021-12-10 13:57:40.986273,129
2021-12-10 13:57:40.986281,163
2021-12-10 13:57:40.986290,198
2021-12-10 13:57:40.986298,227
2021-12-10 13:57:40.986307,246
2021-12-10 13:57:40.986315,254
2021-12-10 13:57:40.986323,246
2021-12-10 13:57:40.986332,227
2021-12-10 13:57:40.986340,200
2021-12-10 13:57:41.167640,146
2021-12-10 13:57:41.167660,68
2021-12-10 13:57:41.167669,-12
2021-12-10 13:57:41.167677,-85
2021-12-10 13:57:41.167686,-139
2021-12-10 13:57:41.167694,-176
2021-12-10 13:57:41.167702,-205
2021-12-10 13:57:41.167710,-222
2021-12-10 13:57:41.167718,-227
2021-12-10 13:57:41.167726,-229
2021-12-10 13:57:41.167734,-227
2021-12-10 13:57:41.167742,-217
2021-12-10 13:57:41.167749,-207
2021-12-10 13:57:41.167756,-198
2021-12-10 13:57:41.167763,-190
2021-12-10 13:57:41.167772,-180
2021-12-10 13:57:41.167779,-166
2021-12-10 13:57:41.167787,-154
2021-12-10 13:57:41.167795,-146
2021-12-10 13:57:41.167804,-141
2021-12-10 13:57:41.167812,-139
2021-12-10 13:57:41.167821,-139
2021-12-10 13:57:41.167829,-136
2021-12-10 13:57:41.167838,-129
2021-12-10 13:57:41.167846,-124
2021-12-10 13:57:41.167854,-122
2021-12-10 13:57:41.167862,-124
2021-12-10 13:57:41.167871,-127
2021-12-10 13:57:41.167879,-122
2021-12-10 13:57:41.167887,-122
2021-12-10 13:57:41.436834,-124
2021-12-10 13:57:41.436855,-124
2021-12-10 13:57:41.436865,-127
2021-12-10 13:57:41.436874,-122
2021-12-10 13:57:41.436883,-119
2021-12-10 13:57:41.436891,-127
2021-12-10 13:57:41.436900,-119
2021-12-10 13:57:41.436908,-114
2021-12-10 13:57:41.436917,-122
2021-12-10 13:57:41.436925,-122
2021-12-10 13:57:41.436934,-119
2021-12-10 13:57:41.436942,-122
2021-12-10 13:57:41.436951,-124
2021-12-10 13:57:41.436959,-114
2021-12-10 13:57:41.436967,-102
2021-12-10 13:57:41.436976,-97
2021-12-10 13:57:41.436984,-80
2021-12-10 13:57:41.436993,-56
2021-12-10 13:57:41.437001,-68
2021-12-10 13:57:41.437009,-92
2021-12-10 13:57:41.437018,-105
2021-12-10 13:57:41.437026,-97
2021-12-10 13:57:41.437035,-90
2021-12-10 13:57:41.437043,-95
2021-12-10 13:57:41.437052,-92
2021-12-10 13:57:41.437060,-90
2021-12-10 13:57:41.437068,-90
2021-12-10 13:57:41.437077,-78
2021-12-10 13:57:41.437085,-44
2021-12-10 13:57:41.437094,29
2021-12-10 13:57:41.572447,244
2021-12-10 13:57:41.572470,599
2021-12-10 13:57:41.572480,533
2021-12-10 13:57:41.572488,-232
2021-12-10 13:57:41.572496,-816
2021-12-10 13:57:41.572504,-630
2021-12-10 13:57:41.572512,-254
2021-12-10 13:57:41.572519,-151
2021-12-10 13:57:41.572527,-92
2021-12-10 13:57:41.572534,-2
2021-12-10 13:57:41.572542,4
2021-12-10 13:57:41.572550,7
2021-12-10 13:57:41.572558,44
2021-12-10 13:57:41.572567,53
2021-12-10 13:57:41.572575,44
2021-12-10 13:57:41.572582,61
2021-12-10 13:57:41.572591,80
2021-12-10 13:57:41.572599,83
2021-12-10 13:57:41.572607,92
2021-12-10 13:57:41.572616,110
2021-12-10 13:57:41.572624,132
2021-12-10 13:57:41.572632,144
2021-12-10 13:57:41.572640,161
2021-12-10 13:57:41.572648,198
2021-12-10 13:57:41.572655,229
2021-12-10 13:57:41.572663,251
2021-12-10 13:57:41.572671,278
2021-12-10 13:57:41.572678,291
2021-12-10 13:57:41.572686,288
2021-12-10 13:57:41.572693,278
2021-12-10 13:57:41.797405,251
2021-12-10 13:57:41.797425,210
2021-12-10 13:57:41.797434,149
2021-12-10 13:57:41.797443,68
2021-12-10 13:57:41.797452,-12
2021-12-10 13:57:41.797460,-85
2021-12-10 13:57:41.797469,-141
2021-12-10 13:57:41.797477,-178
2021-12-10 13:57:41.797486,-202
2021-12-10 13:57:41.797494,-217
2021-12-10 13:57:41.797503,-222
2021-12-10 13:57:41.797511,-220
2021-12-10 13:57:41.797519,-222
2021-12-10 13:57:41.797528,-217
2021-12-10 13:57:41.797536,-200
2021-12-10 13:57:41.797544,-200
2021-12-10 13:57:41.797553,-205
2021-12-10 13:57:41.797561,-190
2021-12-10 13:57:41.797569,-178
2021-12-10 13:57:41.797578,-168
2021-12-10 13:57:41.797586,-161
2021-12-10 13:57:41.797594,-156
2021-12-10 13:57:41.797602,-149
2021-12-10 13:57:41.797611,-139
2021-12-10 13:57:41.797619,-132
2021-12-10 13:57:41.797627,-132
2021-12-10 13:57:41.797636,-129
2021-12-10 13:57:41.797644,-127
2021-12-10 13:57:41.797653,-129
2021-12-10 13:57:41.797661,-132
2021-12-10 13:57:42.067481,-132
2021-12-10 13:57:42.067504,-129
2021-12-10 13:57:42.067514,-129
2021-12-10 13:57:42.067523,-132
2021-12-10 13:57:42.067531,-134
2021-12-10 13:57:42.067540,-132
2021-12-10 13:57:42.067549,-139
2021-12-10 13:57:42.067557,-136
2021-12-10 13:57:42.067565,-124
2021-12-10 13:57:42.067574,-122
2021-12-10 13:57:42.067582,-122
2021-12-10 13:57:42.067591,-112
2021-12-10 13:57:42.067599,-102
2021-12-10 13:57:42.067608,-105
2021-12-10 13:57:42.067617,-110
2021-12-10 13:57:42.067625,-124
2021-12-10 13:57:42.067634,-139
2021-12-10 13:57:42.067642,-136
2021-12-10 13:57:42.067651,-132
2021-12-10 13:57:42.067659,-136
2021-12-10 13:57:42.067667,-134
2021-12-10 13:57:42.067676,-129
2021-12-10 13:57:42.067684,-132
2021-12-10 13:57:42.067693,-122
2021-12-10 13:57:42.067701,-85
2021-12-10 13:57:42.067710,-29
2021-12-10 13:57:42.067718,88
2021-12-10 13:57:42.067727,303
2021-12-10 13:57:42.067736,242
2021-12-10 13:57:42.067744,-403
2021-12-10 13:57:42.247291,-956
2021-12-10 13:57:42.247308,-765
2021-12-10 13:57:42.247318,-330
2021-12-10 13:57:42.247327,-202
2021-12-10 13:57:42.247336,-161
2021-12-10 13:57:42.247344,-46
2021-12-10 13:57:42.247353,-12
2021-12-10 13:57:42.247362,-19
2021-12-10 13:57:42.247371,4
2021-12-10 13:57:42.247379,19
2021-12-10 13:57:42.247388,19
2021-12-10 13:57:42.247396,31
2021-12-10 13:57:42.247405,41
2021-12-10 13:57:42.247414,51
2021-12-10 13:57:42.247422,63
2021-12-10 13:57:42.247431,75
2021-12-10 13:57:42.247440,95
2021-12-10 13:57:42.247448,114
2021-12-10 13:57:42.247457,136
2021-12-10 13:57:42.247465,166
2021-12-10 13:57:42.247474,195
2021-12-10 13:57:42.247483,229
2021-12-10 13:57:42.247491,256
2021-12-10 13:57:42.247511,266
2021-12-10 13:57:42.247519,269
2021-12-10 13:57:42.247528,259
2021-12-10 13:57:42.247537,229
2021-12-10 13:57:42.247545,183
2021-12-10 13:57:42.247554,110
2021-12-10 13:57:42.247562,24
2021-12-10 13:57:42.517403,-53
2021-12-10 13:57:42.517424,-122
2021-12-10 13:57:42.517434,-171
2021-12-10 13:57:42.517443,-205
2021-12-10 13:57:42.517452,-229
2021-12-10 13:57:42.517461,-244
2021-12-10 13:57:42.517469,-244
2021-12-10 13:57:42.517478,-237
2021-12-10 13:57:42.517486,-237
2021-12-10 13:57:42.517495,-239
2021-12-10 13:57:42.517503,-237
2021-12-10 13:57:42.517512,-232
2021-12-10 13:57:42.517520,-217
2021-12-10 13:57:42.517529,-200
2021-12-10 13:57:42.517538,-193
2021-12-10 13:57:42.517546,-180
2021-12-10 13:57:42.517555,-171
2021-12-10 13:57:42.517563,-161
2021-12-10 13:57:42.517572,-146
2021-12-10 13:57:42.517580,-141
2021-12-10 13:57:42.517589,-139
2021-12-10 13:57:42.517597,-136
2021-12-10 13:57:42.517606,-139
2021-12-10 13:57:42.517615,-139
2021-12-10 13:57:42.517623,-136
2021-12-10 13:57:42.517632,-136
2021-12-10 13:57:42.517641,-144
2021-12-10 13:57:42.517649,-149
2021-12-10 13:57:42.517657,-149
2021-12-10 13:57:42.517666,-149
2021-12-10 13:57:42.741804,-149
2021-12-10 13:57:42.741825,-144
2021-12-10 13:57:42.741835,-144
2021-12-10 13:57:42.741844,-146
2021-12-10 13:57:42.741853,-154
2021-12-10 13:57:42.741862,-154
2021-12-10 13:57:42.741870,-149
2021-12-10 13:57:42.741879,-149
2021-12-10 13:57:42.741937,-144
2021-12-10 13:57:42.741947,-136
2021-12-10 13:57:42.741956,-136
2021-12-10 13:57:42.741965,-132
2021-12-10 13:57:42.741973,-114
2021-12-10 13:57:42.741982,-112
2021-12-10 13:57:42.741991,-122
2021-12-10 13:57:42.741999,-149
2021-12-10 13:57:42.742008,-156
2021-12-10 13:57:42.742017,-141
2021-12-10 13:57:42.742025,-141
2021-12-10 13:57:42.742034,-144
2021-12-10 13:57:42.742042,-139
2021-12-10 13:57:42.742051,-139
2021-12-10 13:57:42.742060,-136
2021-12-10 13:57:42.742068,-124
2021-12-10 13:57:42.742077,-80
2021-12-10 13:57:42.742086,41
2021-12-10 13:57:42.742094,332
2021-12-10 13:57:42.742103,471
2021-12-10 13:57:42.742111,-4
2021-12-10 13:57:42.742120,-650
2021-12-10 13:57:43.191276,-731
2021-12-10 13:57:43.191307,-410
2021-12-10 13:57:43.191316,-227
2021-12-10 13:57:43.191325,-168
2021-12-10 13:57:43.191334,-78
2021-12-10 13:57:43.191342,-41
2021-12-10 13:57:43.191351,-46
2021-12-10 13:57:43.191359,-26
2021-12-10 13:57:43.191368,-9
2021-12-10 13:57:43.191376,-7
2021-12-10 13:57:43.191384,4
2021-12-10 13:57:43.191393,17
2021-12-10 13:57:43.191402,22
2021-12-10 13:57:43.191411,36
2021-12-10 13:57:43.191419,51
2021-12-10 13:57:43.191428,61
2021-12-10 13:57:43.191436,78
2021-12-10 13:57:43.191473,100
2021-12-10 13:57:43.191482,122
2021-12-10 13:57:43.191491,149
2021-12-10 13:57:43.191499,180
2021-12-10 13:57:43.191508,202
2021-12-10 13:57:43.191516,217
2021-12-10 13:57:43.191525,222
2021-12-10 13:57:43.191533,217
2021-12-10 13:57:43.191542,202
2021-12-10 13:57:43.191550,168
2021-12-10 13:57:43.191558,107
2021-12-10 13:57:43.191567,39
2021-12-10 13:57:43.191576,-29
2021-12-10 13:57:43.281936,-90
2021-12-10 13:57:43.281958,-136
