Time,ECG
2021-12-24 16:02:31.347258,-126
2021-12-24 16:02:31.347276,-124
2021-12-24 16:02:31.347283,-131
2021-12-24 16:02:31.347288,-128
2021-12-24 16:02:31.347292,-126
2021-12-24 16:02:31.347297,-144
2021-12-24 16:02:31.347302,-131
2021-12-24 16:02:31.347306,-94
2021-12-24 16:02:31.347310,-85
2021-12-24 16:02:31.347315,-91
2021-12-24 16:02:31.347319,-110
2021-12-24 16:02:31.347324,-128
2021-12-24 16:02:31.347328,-117
2021-12-24 16:02:31.347333,-94
2021-12-24 16:02:31.347337,-80
2021-12-24 16:02:31.347341,-78
2021-12-24 16:02:31.347346,-75
2021-12-24 16:02:31.347350,-80
2021-12-24 16:02:31.347355,-89
2021-12-24 16:02:31.347359,-73
2021-12-24 16:02:31.347364,-55
2021-12-24 16:02:31.347368,-55
2021-12-24 16:02:31.347372,-29
2021-12-24 16:02:31.347377,36
2021-12-24 16:02:31.347381,85
2021-12-24 16:02:31.347386,-36
2021-12-24 16:02:31.347391,-331
2021-12-24 16:02:31.347395,-420
2021-12-24 16:02:31.347400,-227
2021-12-24 16:02:31.347404,-124
2021-12-24 16:02:31.532745,-137
2021-12-24 16:02:31.532774,-94
2021-12-24 16:02:31.532786,-71
2021-12-24 16:02:31.532796,-128
2021-12-24 16:02:31.532806,-167
2021-12-24 16:02:31.532816,-144
2021-12-24 16:02:31.532827,-117
2021-12-24 16:02:31.532837,-98
2021-12-24 16:02:31.532847,-85
2021-12-24 16:02:31.532856,-94
2021-12-24 16:02:31.532866,-112
2021-12-24 16:02:31.532876,-108
2021-12-24 16:02:31.532886,-78
2021-12-24 16:02:31.532896,-55
2021-12-24 16:02:31.532906,-45
2021-12-24 16:02:31.532915,-36
2021-12-24 16:02:31.532925,-36
2021-12-24 16:02:31.532936,-22
2021-12-24 16:02:31.532946,16
2021-12-24 16:02:31.532956,41
2021-12-24 16:02:31.532966,57
2021-12-24 16:02:31.532976,62
2021-12-24 16:02:31.532985,62
2021-12-24 16:02:31.532995,91
2021-12-24 16:02:31.533005,119
2021-12-24 16:02:31.533015,131
2021-12-24 16:02:31.533024,128
2021-12-24 16:02:31.533034,98
2021-12-24 16:02:31.533044,73
2021-12-24 16:02:31.533056,71
2021-12-24 16:02:31.803180,62
2021-12-24 16:02:31.803211,50
2021-12-24 16:02:31.803222,39
2021-12-24 16:02:31.803232,22
2021-12-24 16:02:31.803241,-18
2021-12-24 16:02:31.803251,-71
2021-12-24 16:02:31.803261,-59
2021-12-24 16:02:31.803271,-22
2021-12-24 16:02:31.803280,-29
2021-12-24 16:02:31.803290,-64
2021-12-24 16:02:31.803300,-78
2021-12-24 16:02:31.803309,-48
2021-12-24 16:02:31.803319,-27
2021-12-24 16:02:31.803335,-25
2021-12-24 16:02:31.803345,-20
2021-12-24 16:02:31.803354,-43
2021-12-24 16:02:31.803364,-52
2021-12-24 16:02:31.803374,-18
2021-12-24 16:02:31.803384,0
2021-12-24 16:02:31.803394,9
2021-12-24 16:02:31.803403,16
2021-12-24 16:02:31.803413,9
2021-12-24 16:02:31.803423,13
2021-12-24 16:02:31.803433,32
2021-12-24 16:02:31.803442,52
2021-12-24 16:02:31.803452,62
2021-12-24 16:02:31.803462,52
2021-12-24 16:02:31.803471,36
2021-12-24 16:02:31.803481,39
2021-12-24 16:02:31.803493,64
2021-12-24 16:02:32.028170,78
2021-12-24 16:02:32.028201,78
2021-12-24 16:02:32.028213,80
2021-12-24 16:02:32.028223,68
2021-12-24 16:02:32.028232,66
2021-12-24 16:02:32.028242,91
2021-12-24 16:02:32.028252,85
2021-12-24 16:02:32.028262,55
2021-12-24 16:02:32.028271,22
2021-12-24 16:02:32.028281,-6
2021-12-24 16:02:32.028291,0
2021-12-24 16:02:32.028301,22
2021-12-24 16:02:32.028311,32
2021-12-24 16:02:32.028320,39
2021-12-24 16:02:32.028330,39
2021-12-24 16:02:32.028340,32
2021-12-24 16:02:32.028349,32
2021-12-24 16:02:32.028363,29
2021-12-24 16:02:32.028373,22
2021-12-24 16:02:32.028382,11
2021-12-24 16:02:32.028392,-9
2021-12-24 16:02:32.028402,-32
2021-12-24 16:02:32.028412,-22
2021-12-24 16:02:32.028422,-11
2021-12-24 16:02:32.028431,-34
2021-12-24 16:02:32.028441,-59
2021-12-24 16:02:32.028451,-85
2021-12-24 16:02:32.028461,-101
2021-12-24 16:02:32.028471,-85
2021-12-24 16:02:32.028481,-66
2021-12-24 16:02:32.208138,-62
2021-12-24 16:02:32.208169,-57
2021-12-24 16:02:32.208181,-66
2021-12-24 16:02:32.208191,-71
2021-12-24 16:02:32.208201,-57
2021-12-24 16:02:32.208211,-27
2021-12-24 16:02:32.208221,43
2021-12-24 16:02:32.208238,156
2021-12-24 16:02:32.208248,186
2021-12-24 16:02:32.208258,-9
2021-12-24 16:02:32.208268,-312
2021-12-24 16:02:32.208278,-351
2021-12-24 16:02:32.208288,-156
2021-12-24 16:02:32.208298,-94
2021-12-24 16:02:32.208307,-147
2021-12-24 16:02:32.208317,-119
2021-12-24 16:02:32.208327,-73
2021-12-24 16:02:32.208337,-73
2021-12-24 16:02:32.208347,-66
2021-12-24 16:02:32.208357,-62
2021-12-24 16:02:32.208367,-89
2021-12-24 16:02:32.208376,-89
2021-12-24 16:02:32.208386,-57
2021-12-24 16:02:32.208396,-45
2021-12-24 16:02:32.208406,-34
2021-12-24 16:02:32.208416,-25
2021-12-24 16:02:32.208426,-25
2021-12-24 16:02:32.208436,-11
2021-12-24 16:02:32.208446,2
2021-12-24 16:02:32.208457,20
2021-12-24 16:02:32.477990,39
2021-12-24 16:02:32.478021,41
2021-12-24 16:02:32.478032,48
2021-12-24 16:02:32.478042,57
2021-12-24 16:02:32.478052,78
2021-12-24 16:02:32.478062,103
2021-12-24 16:02:32.478071,105
2021-12-24 16:02:32.478081,89
2021-12-24 16:02:32.478091,78
2021-12-24 16:02:32.478100,89
2021-12-24 16:02:32.478110,94
2021-12-24 16:02:32.478120,66
2021-12-24 16:02:32.478129,36
2021-12-24 16:02:32.478139,2
2021-12-24 16:02:32.478149,-27
2021-12-24 16:02:32.478159,-36
2021-12-24 16:02:32.478169,-41
2021-12-24 16:02:32.478179,-41
2021-12-24 16:02:32.478189,-34
2021-12-24 16:02:32.478199,-34
2021-12-24 16:02:32.478209,-27
2021-12-24 16:02:32.478218,-22
2021-12-24 16:02:32.478228,-13
2021-12-24 16:02:32.478238,6
2021-12-24 16:02:32.478256,6
2021-12-24 16:02:32.478266,4
2021-12-24 16:02:32.478276,18
2021-12-24 16:02:32.478285,22
2021-12-24 16:02:32.478295,29
2021-12-24 16:02:32.478305,43
2021-12-24 16:02:32.702441,50
2021-12-24 16:02:32.702463,50
2021-12-24 16:02:32.702471,55
2021-12-24 16:02:32.702477,62
2021-12-24 16:02:32.702484,66
2021-12-24 16:02:32.702490,71
2021-12-24 16:02:32.702497,55
2021-12-24 16:02:32.702503,27
2021-12-24 16:02:32.702509,41
2021-12-24 16:02:32.702516,59
2021-12-24 16:02:32.702522,52
2021-12-24 16:02:32.702529,66
2021-12-24 16:02:32.702535,73
2021-12-24 16:02:32.702541,55
2021-12-24 16:02:32.702547,48
2021-12-24 16:02:32.702554,29
2021-12-24 16:02:32.702560,-9
2021-12-24 16:02:32.702567,-25
2021-12-24 16:02:32.702573,-29
2021-12-24 16:02:32.702579,-29
2021-12-24 16:02:32.702586,-18
2021-12-24 16:02:32.702592,-2
2021-12-24 16:02:32.702601,11
2021-12-24 16:02:32.702607,20
2021-12-24 16:02:32.702613,25
2021-12-24 16:02:32.702620,29
2021-12-24 16:02:32.702626,41
2021-12-24 16:02:32.702632,50
2021-12-24 16:02:32.702639,48
2021-12-24 16:02:32.702645,36
2021-12-24 16:02:33.061363,20
2021-12-24 16:02:33.061384,22
2021-12-24 16:02:33.061392,36
2021-12-24 16:02:33.061398,25
2021-12-24 16:02:33.061405,6
2021-12-24 16:02:33.061411,-6
2021-12-24 16:02:33.061418,-25
2021-12-24 16:02:33.061424,-34
2021-12-24 16:02:33.061431,-50
2021-12-24 16:02:33.061437,-57
2021-12-24 16:02:33.061444,-52
2021-12-24 16:02:33.061450,-73
2021-12-24 16:02:33.061457,-94
2021-12-24 16:02:33.061463,-75
2021-12-24 16:02:33.061470,-66
2021-12-24 16:02:33.061476,-82
2021-12-24 16:02:33.061483,-96
2021-12-24 16:02:33.061489,-108
2021-12-24 16:02:33.061495,-124
2021-12-24 16:02:33.061502,-112
2021-12-24 16:02:33.061508,-87
2021-12-24 16:02:33.061515,-89
2021-12-24 16:02:33.061521,-87
2021-12-24 16:02:33.061528,-71
2021-12-24 16:02:33.061538,-66
2021-12-24 16:02:33.061544,-50
2021-12-24 16:02:33.061551,-32
2021-12-24 16:02:33.061557,-29
2021-12-24 16:02:33.061564,-4
2021-12-24 16:02:33.061570,68
2021-12-24 16:02:33.152345,174
2021-12-24 16:02:33.152375,193
2021-12-24 16:02:33.152387,-2
2021-12-24 16:02:33.152397,-223
2021-12-24 16:02:33.152407,-181
2021-12-24 16:02:33.152417,-39
2021-12-24 16:02:33.152426,-13
2021-12-24 16:02:33.152436,-6
2021-12-24 16:02:33.152446,29
2021-12-24 16:02:33.152456,22
2021-12-24 16:02:33.152465,4
2021-12-24 16:02:33.152475,13
2021-12-24 16:02:33.152485,20
2021-12-24 16:02:33.152494,32
2021-12-24 16:02:33.152504,45
2021-12-24 16:02:33.152514,43
2021-12-24 16:02:33.152523,41
2021-12-24 16:02:33.152533,29
2021-12-24 16:02:33.152543,27
2021-12-24 16:02:33.152552,50
2021-12-24 16:02:33.152562,62
2021-12-24 16:02:33.152572,52
2021-12-24 16:02:33.152582,25
2021-12-24 16:02:33.152591,13
2021-12-24 16:02:33.152601,50
2021-12-24 16:02:33.152611,78
2021-12-24 16:02:33.152621,87
2021-12-24 16:02:33.152630,96
2021-12-24 16:02:33.152640,96
2021-12-24 16:02:33.152650,110
2021-12-24 16:02:33.377583,137
2021-12-24 16:02:33.377606,156
2021-12-24 16:02:33.377614,163
2021-12-24 16:02:33.377620,147
2021-12-24 16:02:33.377627,117
2021-12-24 16:02:33.377633,94
2021-12-24 16:02:33.377640,89
2021-12-24 16:02:33.377646,89
2021-12-24 16:02:33.377652,75
2021-12-24 16:02:33.377659,43
2021-12-24 16:02:33.377665,9
2021-12-24 16:02:33.377671,-2
2021-12-24 16:02:33.377678,20
2021-12-24 16:02:33.377684,32
2021-12-24 16:02:33.377691,27
2021-12-24 16:02:33.377697,22
2021-12-24 16:02:33.377703,6
2021-12-24 16:02:33.377710,13
2021-12-24 16:02:33.377716,29
2021-12-24 16:02:33.377722,13
2021-12-24 16:02:33.377729,0
2021-12-24 16:02:33.377735,0
2021-12-24 16:02:33.377741,2
2021-12-24 16:02:33.377748,9
2021-12-24 16:02:33.377754,2
2021-12-24 16:02:33.377760,0
2021-12-24 16:02:33.377767,6
2021-12-24 16:02:33.377773,-2
2021-12-24 16:02:33.377780,-13
2021-12-24 16:02:33.377787,-22
2021-12-24 16:02:33.648103,-22
2021-12-24 16:02:33.648133,-29
2021-12-24 16:02:33.648145,-55
2021-12-24 16:02:33.648155,-71
2021-12-24 16:02:33.648165,-71
2021-12-24 16:02:33.648175,-59
2021-12-24 16:02:33.648184,-48
2021-12-24 16:02:33.648194,-43
2021-12-24 16:02:33.648204,-43
2021-12-24 16:02:33.648214,-80
2021-12-24 16:02:33.648230,-105
2021-12-24 16:02:33.648240,-75
2021-12-24 16:02:33.648250,-52
2021-12-24 16:02:33.648259,-50
2021-12-24 16:02:33.648269,-55
2021-12-24 16:02:33.648279,-82
2021-12-24 16:02:33.648288,-89
2021-12-24 16:02:33.648298,-66
2021-12-24 16:02:33.648308,-50
2021-12-24 16:02:33.648317,-39
2021-12-24 16:02:33.648327,-41
2021-12-24 16:02:33.648337,-62
2021-12-24 16:02:33.648346,-68
2021-12-24 16:02:33.648356,-43
2021-12-24 16:02:33.648366,-18
2021-12-24 16:02:33.648375,-16
2021-12-24 16:02:33.648385,-6
2021-12-24 16:02:33.648395,-18
2021-12-24 16:02:33.648404,-59
2021-12-24 16:02:33.648414,-50
2021-12-24 16:02:33.872914,-13
2021-12-24 16:02:33.872945,-6
2021-12-24 16:02:33.872956,-16
2021-12-24 16:02:33.872966,-27
2021-12-24 16:02:33.872976,-13
2021-12-24 16:02:33.872986,9
2021-12-24 16:02:33.872995,20
2021-12-24 16:02:33.873005,34
2021-12-24 16:02:33.873015,11
2021-12-24 16:02:33.873025,-25
2021-12-24 16:02:33.873035,-16
2021-12-24 16:02:33.873044,9
2021-12-24 16:02:33.873054,20
2021-12-24 16:02:33.873064,27
2021-12-24 16:02:33.873073,34
2021-12-24 16:02:33.873083,39
2021-12-24 16:02:33.873093,52
2021-12-24 16:02:33.873102,80
2021-12-24 16:02:33.873112,87
2021-12-24 16:02:33.873122,71
2021-12-24 16:02:33.873132,45
2021-12-24 16:02:33.873141,18
2021-12-24 16:02:33.873151,20
2021-12-24 16:02:33.873161,25
2021-12-24 16:02:33.873170,11
2021-12-24 16:02:33.873185,27
2021-12-24 16:02:33.873195,29
2021-12-24 16:02:33.873205,16
2021-12-24 16:02:33.873215,36
2021-12-24 16:02:33.873224,75
2021-12-24 16:02:34.053081,156
2021-12-24 16:02:34.053111,262
2021-12-24 16:02:34.053122,255
2021-12-24 16:02:34.053132,62
2021-12-24 16:02:34.053142,-135
2021-12-24 16:02:34.053152,-71
2021-12-24 16:02:34.053162,94
2021-12-24 16:02:34.053171,112
2021-12-24 16:02:34.053181,85
2021-12-24 16:02:34.053191,103
2021-12-24 16:02:34.053200,121
2021-12-24 16:02:34.053210,135
2021-12-24 16:02:34.053220,142
2021-12-24 16:02:34.053229,133
2021-12-24 16:02:34.053239,96
2021-12-24 16:02:34.053249,87
2021-12-24 16:02:34.053259,112
2021-12-24 16:02:34.053268,119
2021-12-24 16:02:34.053278,117
2021-12-24 16:02:34.053288,105
2021-12-24 16:02:34.053298,80
2021-12-24 16:02:34.053308,85
2021-12-24 16:02:34.053317,105
2021-12-24 16:02:34.053327,121
2021-12-24 16:02:34.053337,131
2021-12-24 16:02:34.053346,121
2021-12-24 16:02:34.053356,117
2021-12-24 16:02:34.053366,133
2021-12-24 16:02:34.053376,142
2021-12-24 16:02:34.053386,144
2021-12-24 16:02:34.277200,144
2021-12-24 16:02:34.277218,154
2021-12-24 16:02:34.277226,137
2021-12-24 16:02:34.277232,78
2021-12-24 16:02:34.277237,43
2021-12-24 16:02:34.277242,45
2021-12-24 16:02:34.277247,20
2021-12-24 16:02:34.277253,-48
2021-12-24 16:02:34.277258,-91
2021-12-24 16:02:34.277263,-87
2021-12-24 16:02:34.277268,-96
2021-12-24 16:02:34.277273,-108
2021-12-24 16:02:34.277279,-117
2021-12-24 16:02:34.277284,-151
2021-12-24 16:02:34.277289,-158
2021-12-24 16:02:34.277294,-133
2021-12-24 16:02:34.277306,-126
2021-12-24 16:02:34.277311,-108
2021-12-24 16:02:34.277316,-89
2021-12-24 16:02:34.277322,-91
2021-12-24 16:02:34.277327,-85
2021-12-24 16:02:34.277332,-68
2021-12-24 16:02:34.277337,-57
2021-12-24 16:02:34.277342,-48
2021-12-24 16:02:34.277347,-39
2021-12-24 16:02:34.277352,-22
2021-12-24 16:02:34.277357,-29
2021-12-24 16:02:34.277362,-57
2021-12-24 16:02:34.277367,-59
2021-12-24 16:02:34.277372,-39
2021-12-24 16:02:34.502781,-25
2021-12-24 16:02:34.502803,-29
2021-12-24 16:02:34.502811,-22
2021-12-24 16:02:34.502818,-11
2021-12-24 16:02:34.502824,-11
2021-12-24 16:02:34.502830,0
2021-12-24 16:02:34.502837,-9
2021-12-24 16:02:34.502843,-36
2021-12-24 16:02:34.502850,-20
2021-12-24 16:02:34.502856,-2
2021-12-24 16:02:34.502862,-2
2021-12-24 16:02:34.502869,2
2021-12-24 16:02:34.502875,-18
2021-12-24 16:02:34.502882,-34
2021-12-24 16:02:34.502888,-16
2021-12-24 16:02:34.502894,-2
2021-12-24 16:02:34.502901,2
2021-12-24 16:02:34.502907,6
2021-12-24 16:02:34.502914,13
2021-12-24 16:02:34.502920,18
2021-12-24 16:02:34.502926,25
2021-12-24 16:02:34.502933,32
2021-12-24 16:02:34.502939,39
2021-12-24 16:02:34.502945,52
2021-12-24 16:02:34.502952,59
2021-12-24 16:02:34.502958,57
2021-12-24 16:02:34.502964,68
2021-12-24 16:02:34.502971,73
2021-12-24 16:02:34.502977,62
2021-12-24 16:02:34.502984,41
2021-12-24 16:02:34.727713,6
2021-12-24 16:02:34.727735,13
2021-12-24 16:02:34.727742,39
2021-12-24 16:02:34.727749,39
2021-12-24 16:02:34.727755,43
2021-12-24 16:02:34.727761,36
2021-12-24 16:02:34.727768,6
2021-12-24 16:02:34.727774,9
2021-12-24 16:02:34.727781,2
2021-12-24 16:02:34.727787,-48
2021-12-24 16:02:34.727793,-71
2021-12-24 16:02:34.727800,-73
2021-12-24 16:02:34.727806,-96
2021-12-24 16:02:34.727817,-96
2021-12-24 16:02:34.727823,-68
2021-12-24 16:02:34.727829,-64
2021-12-24 16:02:34.727836,-68
2021-12-24 16:02:34.727842,-50
2021-12-24 16:02:34.727848,-48
2021-12-24 16:02:34.727855,-52
2021-12-24 16:02:34.727861,-48
2021-12-24 16:02:34.727867,-55
2021-12-24 16:02:34.727874,-55
2021-12-24 16:02:34.727880,-52
2021-12-24 16:02:34.727886,-55
2021-12-24 16:02:34.727893,-45
2021-12-24 16:02:34.727899,-39
2021-12-24 16:02:34.727906,-45
2021-12-24 16:02:34.727912,-55
2021-12-24 16:02:34.727918,-52
2021-12-24 16:02:35.042120,-9
2021-12-24 16:02:35.042140,55
2021-12-24 16:02:35.042147,66
2021-12-24 16:02:35.042154,-75
2021-12-24 16:02:35.042160,-337
2021-12-24 16:02:35.042167,-397
2021-12-24 16:02:35.042173,-220
2021-12-24 16:02:35.042180,-131
2021-12-24 16:02:35.042186,-151
2021-12-24 16:02:35.042192,-142
2021-12-24 16:02:35.042199,-142
2021-12-24 16:02:35.042205,-170
2021-12-24 16:02:35.042212,-165
2021-12-24 16:02:35.042218,-131
2021-12-24 16:02:35.042224,-124
2021-12-24 16:02:35.042231,-126
2021-12-24 16:02:35.042237,-87
2021-12-24 16:02:35.042244,-29
2021-12-24 16:02:35.042250,-39
2021-12-24 16:02:35.042256,-124
2021-12-24 16:02:35.042263,-135
2021-12-24 16:02:35.042269,-87
2021-12-24 16:02:35.042275,-114
2021-12-24 16:02:35.042282,-154
2021-12-24 16:02:35.042288,-131
2021-12-24 16:02:35.042294,-124
2021-12-24 16:02:35.042301,-144
2021-12-24 16:02:35.042307,-140
2021-12-24 16:02:35.042314,-108
2021-12-24 16:02:35.042320,-87
2021-12-24 16:02:35.177491,-59
2021-12-24 16:02:35.177513,-18
2021-12-24 16:02:35.177520,-27
2021-12-24 16:02:35.177527,-101
2021-12-24 16:02:35.177534,-142
2021-12-24 16:02:35.177540,-121
2021-12-24 16:02:35.177546,-105
2021-12-24 16:02:35.177553,-119
2021-12-24 16:02:35.177559,-133
2021-12-24 16:02:35.177566,-147
2021-12-24 16:02:35.177572,-179
2021-12-24 16:02:35.177578,-186
2021-12-24 16:02:35.177585,-160
2021-12-24 16:02:35.177591,-179
2021-12-24 16:02:35.177598,-227
2021-12-24 16:02:35.177604,-266
2021-12-24 16:02:35.177610,-278
2021-12-24 16:02:35.177623,-257
2021-12-24 16:02:35.177630,-223
2021-12-24 16:02:35.177636,-197
2021-12-24 16:02:35.177643,-183
2021-12-24 16:02:35.177649,-188
2021-12-24 16:02:35.177656,-188
2021-12-24 16:02:35.177662,-163
2021-12-24 16:02:35.177668,-131
2021-12-24 16:02:35.177675,-105
2021-12-24 16:02:35.177681,-96
2021-12-24 16:02:35.177687,-98
2021-12-24 16:02:35.177694,-94
2021-12-24 16:02:35.177700,-64
2021-12-24 16:02:35.447841,-29
2021-12-24 16:02:35.447872,-13
2021-12-24 16:02:35.447884,-13
2021-12-24 16:02:35.447894,-39
2021-12-24 16:02:35.447904,-78
2021-12-24 16:02:35.447914,-87
2021-12-24 16:02:35.447924,-82
2021-12-24 16:02:35.447934,-78
2021-12-24 16:02:35.447944,-71
2021-12-24 16:02:35.447954,-94
2021-12-24 16:02:35.447964,-108
2021-12-24 16:02:35.447974,-75
2021-12-24 16:02:35.447984,-52
2021-12-24 16:02:35.447994,-52
2021-12-24 16:02:35.448004,-48
2021-12-24 16:02:35.448013,-48
2021-12-24 16:02:35.448023,-45
2021-12-24 16:02:35.448033,-20
2021-12-24 16:02:35.448043,11
2021-12-24 16:02:35.448053,22
2021-12-24 16:02:35.448063,25
2021-12-24 16:02:35.448073,27
2021-12-24 16:02:35.448082,36
2021-12-24 16:02:35.448092,57
2021-12-24 16:02:35.448102,78
2021-12-24 16:02:35.448112,96
2021-12-24 16:02:35.448122,105
2021-12-24 16:02:35.448131,91
2021-12-24 16:02:35.448141,96
2021-12-24 16:02:35.448151,124
2021-12-24 16:02:35.672766,131
2021-12-24 16:02:35.672797,135
2021-12-24 16:02:35.672808,133
2021-12-24 16:02:35.672818,121
2021-12-24 16:02:35.672828,128
2021-12-24 16:02:35.672838,149
2021-12-24 16:02:35.672848,156
2021-12-24 16:02:35.672858,128
2021-12-24 16:02:35.672868,73
2021-12-24 16:02:35.672877,43
2021-12-24 16:02:35.672887,55
2021-12-24 16:02:35.672897,71
2021-12-24 16:02:35.672907,75
2021-12-24 16:02:35.672917,73
2021-12-24 16:02:35.672927,50
2021-12-24 16:02:35.672937,16
2021-12-24 16:02:35.672946,25
2021-12-24 16:02:35.672956,59
2021-12-24 16:02:35.672966,66
2021-12-24 16:02:35.672976,45
2021-12-24 16:02:35.672986,0
2021-12-24 16:02:35.672996,-22
2021-12-24 16:02:35.673005,9
2021-12-24 16:02:35.673015,36
2021-12-24 16:02:35.673025,39
2021-12-24 16:02:35.673035,48
2021-12-24 16:02:35.673044,39
2021-12-24 16:02:35.673054,29
2021-12-24 16:02:35.673064,41
2021-12-24 16:02:35.673083,62
2021-12-24 16:02:36.032811,73
2021-12-24 16:02:36.032842,75
2021-12-24 16:02:36.032854,62
2021-12-24 16:02:36.032864,36
2021-12-24 16:02:36.032874,32
2021-12-24 16:02:36.032883,57
2021-12-24 16:02:36.032893,64
2021-12-24 16:02:36.032903,34
2021-12-24 16:02:36.032913,-22
2021-12-24 16:02:36.032923,-80
2021-12-24 16:02:36.032933,-96
2021-12-24 16:02:36.032942,-103
2021-12-24 16:02:36.032952,-110
2021-12-24 16:02:36.032962,-121
2021-12-24 16:02:36.032972,-154
2021-12-24 16:02:36.032981,-156
2021-12-24 16:02:36.032991,-126
2021-12-24 16:02:36.033001,-114
2021-12-24 16:02:36.033011,-105
2021-12-24 16:02:36.033021,-94
2021-12-24 16:02:36.033030,-96
2021-12-24 16:02:36.033040,-91
2021-12-24 16:02:36.033050,-75
2021-12-24 16:02:36.033060,-55
2021-12-24 16:02:36.033069,-43
2021-12-24 16:02:36.033079,-45
2021-12-24 16:02:36.033089,-50
2021-12-24 16:02:36.033099,-50
2021-12-24 16:02:36.033108,-43
2021-12-24 16:02:36.033118,-27
2021-12-24 16:02:36.122785,-20
2021-12-24 16:02:36.122815,-22
2021-12-24 16:02:36.122826,-25
2021-12-24 16:02:36.122836,-18
2021-12-24 16:02:36.122846,-9
2021-12-24 16:02:36.122856,0
2021-12-24 16:02:36.122866,4
2021-12-24 16:02:36.122876,2
2021-12-24 16:02:36.122886,-4
2021-12-24 16:02:36.122895,0
2021-12-24 16:02:36.122905,9
2021-12-24 16:02:36.122915,13
2021-12-24 16:02:36.122925,-16
2021-12-24 16:02:36.122935,-52
2021-12-24 16:02:36.122944,-55
2021-12-24 16:02:36.122954,-41
2021-12-24 16:02:36.122964,-29
2021-12-24 16:02:36.122974,-11
2021-12-24 16:02:36.122983,-2
2021-12-24 16:02:36.122993,2
2021-12-24 16:02:36.123003,11
2021-12-24 16:02:36.123013,43
2021-12-24 16:02:36.123022,131
2021-12-24 16:02:36.123032,250
2021-12-24 16:02:36.123042,262
2021-12-24 16:02:36.123052,29
2021-12-24 16:02:36.123061,-234
2021-12-24 16:02:36.123071,-163
2021-12-24 16:02:36.123081,29
2021-12-24 16:02:36.123091,27
2021-12-24 16:02:36.347765,-20
2021-12-24 16:02:36.347796,-6
2021-12-24 16:02:36.347808,6
2021-12-24 16:02:36.347832,4
2021-12-24 16:02:36.347839,20
2021-12-24 16:02:36.347845,36
2021-12-24 16:02:36.347852,13
2021-12-24 16:02:36.347858,-2
2021-12-24 16:02:36.347864,22
2021-12-24 16:02:36.347871,43
2021-12-24 16:02:36.347877,55
2021-12-24 16:02:36.347883,68
2021-12-24 16:02:36.347890,48
2021-12-24 16:02:36.347896,9
2021-12-24 16:02:36.347902,-6
2021-12-24 16:02:36.347909,0
2021-12-24 16:02:36.347915,6
2021-12-24 16:02:36.347921,9
2021-12-24 16:02:36.347928,11
2021-12-24 16:02:36.347934,25
2021-12-24 16:02:36.347946,50
2021-12-24 16:02:36.347953,66
2021-12-24 16:02:36.347959,68
2021-12-24 16:02:36.347966,87
2021-12-24 16:02:36.347972,105
2021-12-24 16:02:36.347979,121
2021-12-24 16:02:36.347985,140
2021-12-24 16:02:36.347991,137
2021-12-24 16:02:36.347998,124
2021-12-24 16:02:36.348004,112
2021-12-24 16:02:36.662501,82
2021-12-24 16:02:36.662528,57
2021-12-24 16:02:36.662540,48
2021-12-24 16:02:36.662550,48
2021-12-24 16:02:36.662560,55
2021-12-24 16:02:36.662570,18
2021-12-24 16:02:36.662580,-52
2021-12-24 16:02:36.662590,-71
2021-12-24 16:02:36.662600,-71
2021-12-24 16:02:36.662610,-112
2021-12-24 16:02:36.662620,-135
2021-12-24 16:02:36.662630,-133
2021-12-24 16:02:36.662640,-151
2021-12-24 16:02:36.662650,-151
2021-12-24 16:02:36.662660,-128
2021-12-24 16:02:36.662670,-147
2021-12-24 16:02:36.662680,-170
2021-12-24 16:02:36.662690,-165
2021-12-24 16:02:36.662700,-156
2021-12-24 16:02:36.662710,-140
2021-12-24 16:02:36.662720,-108
2021-12-24 16:02:36.662730,-27
2021-12-24 16:02:36.662739,87
2021-12-24 16:02:36.662749,64
2021-12-24 16:02:36.662759,-200
2021-12-24 16:02:36.662769,-459
2021-12-24 16:02:36.662779,-397
2021-12-24 16:02:36.662789,-156
2021-12-24 16:02:36.662799,-52
2021-12-24 16:02:36.662809,-27
2021-12-24 16:02:36.797840,-13
2021-12-24 16:02:36.797871,-48
2021-12-24 16:02:36.797883,-55
2021-12-24 16:02:36.797893,-29
2021-12-24 16:02:36.797902,-39
2021-12-24 16:02:36.797912,-48
2021-12-24 16:02:36.797922,-29
2021-12-24 16:02:36.797932,-9
2021-12-24 16:02:36.797942,0
2021-12-24 16:02:36.797951,4
2021-12-24 16:02:36.797961,2
2021-12-24 16:02:36.797971,-16
2021-12-24 16:02:36.797981,-11
2021-12-24 16:02:36.797991,22
2021-12-24 16:02:36.798001,34
2021-12-24 16:02:36.798011,45
2021-12-24 16:02:36.798020,75
2021-12-24 16:02:36.798030,85
2021-12-24 16:02:36.798040,78
2021-12-24 16:02:36.798050,98
2021-12-24 16:02:36.798059,135
2021-12-24 16:02:36.798069,137
2021-12-24 16:02:36.798079,108
2021-12-24 16:02:36.798088,98
2021-12-24 16:02:36.798098,121
2021-12-24 16:02:36.798108,135
2021-12-24 16:02:36.798117,131
2021-12-24 16:02:36.798127,114
2021-12-24 16:02:36.798137,98
2021-12-24 16:02:36.798147,91
2021-12-24 16:02:37.066680,96
2021-12-24 16:02:37.066711,105
2021-12-24 16:02:37.066722,103
2021-12-24 16:02:37.066732,80
2021-12-24 16:02:37.066742,36
2021-12-24 16:02:37.066752,22
2021-12-24 16:02:37.066762,57
2021-12-24 16:02:37.066771,75
2021-12-24 16:02:37.066781,73
2021-12-24 16:02:37.066791,55
2021-12-24 16:02:37.066801,11
2021-12-24 16:02:37.066810,4
2021-12-24 16:02:37.066820,34
2021-12-24 16:02:37.066830,27
2021-12-24 16:02:37.066840,9
2021-12-24 16:02:37.066849,4
2021-12-24 16:02:37.066859,6
2021-12-24 16:02:37.066869,13
2021-12-24 16:02:37.066879,29
2021-12-24 16:02:37.066888,25
2021-12-24 16:02:37.066898,-4
2021-12-24 16:02:37.066908,-11
2021-12-24 16:02:37.066923,9
2021-12-24 16:02:37.066933,25
2021-12-24 16:02:37.066943,45
2021-12-24 16:02:37.066952,57
2021-12-24 16:02:37.066962,59
2021-12-24 16:02:37.066972,55
2021-12-24 16:02:37.066982,57
2021-12-24 16:02:37.066992,78
2021-12-24 16:02:37.292773,94
2021-12-24 16:02:37.292794,96
2021-12-24 16:02:37.292802,101
2021-12-24 16:02:37.292808,78
2021-12-24 16:02:37.292815,50
2021-12-24 16:02:37.292821,55
2021-12-24 16:02:37.292827,36
2021-12-24 16:02:37.292834,11
2021-12-24 16:02:37.292840,18
2021-12-24 16:02:37.292846,0
2021-12-24 16:02:37.292853,-22
2021-12-24 16:02:37.292859,2
2021-12-24 16:02:37.292866,32
2021-12-24 16:02:37.292872,32
2021-12-24 16:02:37.292878,25
2021-12-24 16:02:37.292885,11
2021-12-24 16:02:37.292891,6
2021-12-24 16:02:37.292897,32
2021-12-24 16:02:37.292903,55
2021-12-24 16:02:37.292910,50
2021-12-24 16:02:37.292916,34
2021-12-24 16:02:37.292922,6
2021-12-24 16:02:37.292929,-32
2021-12-24 16:02:37.292935,-34
2021-12-24 16:02:37.292941,-13
2021-12-24 16:02:37.292948,0
2021-12-24 16:02:37.292954,-4
2021-12-24 16:02:37.292961,-25
2021-12-24 16:02:37.292968,-16
2021-12-24 16:02:37.292974,9
2021-12-24 16:02:37.517838,25
2021-12-24 16:02:37.517869,39
2021-12-24 16:02:37.517881,39
2021-12-24 16:02:37.517891,34
2021-12-24 16:02:37.517901,45
2021-12-24 16:02:37.517911,62
2021-12-24 16:02:37.517921,68
2021-12-24 16:02:37.517930,64
2021-12-24 16:02:37.517940,48
2021-12-24 16:02:37.517949,25
2021-12-24 16:02:37.517959,32
2021-12-24 16:02:37.517969,66
2021-12-24 16:02:37.517978,78
2021-12-24 16:02:37.517988,75
2021-12-24 16:02:37.517998,64
2021-12-24 16:02:37.518008,71
2021-12-24 16:02:37.518017,174
2021-12-24 16:02:37.518027,273
2021-12-24 16:02:37.518037,188
2021-12-24 16:02:37.518046,-41
2021-12-24 16:02:37.518056,-149
2021-12-24 16:02:37.518066,-20
2021-12-24 16:02:37.518076,96
2021-12-24 16:02:37.518085,87
2021-12-24 16:02:37.518095,82
2021-12-24 16:02:37.518105,98
2021-12-24 16:02:37.518114,82
2021-12-24 16:02:37.518124,73
2021-12-24 16:02:37.518134,89
2021-12-24 16:02:37.518143,110
2021-12-24 16:02:37.743040,117
2021-12-24 16:02:37.743071,119
2021-12-24 16:02:37.743082,117
2021-12-24 16:02:37.743092,108
2021-12-24 16:02:37.743102,121
2021-12-24 16:02:37.743112,142
2021-12-24 16:02:37.743121,147
2021-12-24 16:02:37.743131,144
2021-12-24 16:02:37.743141,126
2021-12-24 16:02:37.743151,117
2021-12-24 16:02:37.743161,135
2021-12-24 16:02:37.743170,114
2021-12-24 16:02:37.743180,82
2021-12-24 16:02:37.743190,85
2021-12-24 16:02:37.743200,80
2021-12-24 16:02:37.743210,75
2021-12-24 16:02:37.743220,101
2021-12-24 16:02:37.743229,133
2021-12-24 16:02:37.743239,149
2021-12-24 16:02:37.743249,144
2021-12-24 16:02:37.743259,142
2021-12-24 16:02:37.743268,144
2021-12-24 16:02:37.743278,147
2021-12-24 16:02:37.743288,154
2021-12-24 16:02:37.743298,149
2021-12-24 16:02:37.743307,131
2021-12-24 16:02:37.743317,89
2021-12-24 16:02:37.743327,66
2021-12-24 16:02:37.743337,85
2021-12-24 16:02:37.743347,96
2021-12-24 16:02:37.967907,96
2021-12-24 16:02:37.967938,101
2021-12-24 16:02:37.967949,101
2021-12-24 16:02:37.967959,103
2021-12-24 16:02:37.967969,112
2021-12-24 16:02:37.967984,126
2021-12-24 16:02:37.967994,133
2021-12-24 16:02:37.968004,103
2021-12-24 16:02:37.968013,87
2021-12-24 16:02:37.968023,101
2021-12-24 16:02:37.968033,112
2021-12-24 16:02:37.968042,124
2021-12-24 16:02:37.968052,119
2021-12-24 16:02:37.968062,96
2021-12-24 16:02:37.968072,85
2021-12-24 16:02:37.968081,91
2021-12-24 16:02:37.968091,103
2021-12-24 16:02:37.968100,108
2021-12-24 16:02:37.968110,105
2021-12-24 16:02:37.968120,105
2021-12-24 16:02:37.968129,98
2021-12-24 16:02:37.968139,105
2021-12-24 16:02:37.968148,119
2021-12-24 16:02:37.968158,119
2021-12-24 16:02:37.968168,119
2021-12-24 16:02:37.968177,110
2021-12-24 16:02:37.968187,103
2021-12-24 16:02:37.968197,94
2021-12-24 16:02:37.968206,71
2021-12-24 16:02:37.968216,80
2021-12-24 16:02:38.193075,96
2021-12-24 16:02:38.193106,96
2021-12-24 16:02:38.193118,110
2021-12-24 16:02:38.193128,108
2021-12-24 16:02:38.193137,98
2021-12-24 16:02:38.193147,98
2021-12-24 16:02:38.193157,73
2021-12-24 16:02:38.193166,34
2021-12-24 16:02:38.193176,13
2021-12-24 16:02:38.193186,20
2021-12-24 16:02:38.193196,36
2021-12-24 16:02:38.193205,32
2021-12-24 16:02:38.193215,-2
2021-12-24 16:02:38.193225,-39
2021-12-24 16:02:38.193235,-36
2021-12-24 16:02:38.193244,-9
2021-12-24 16:02:38.193254,22
2021-12-24 16:02:38.193264,48
2021-12-24 16:02:38.193274,-52
2021-12-24 16:02:38.193283,-275
2021-12-24 16:02:38.193293,-360
2021-12-24 16:02:38.193303,-234
2021-12-24 16:02:38.193313,-119
2021-12-24 16:02:38.193322,-114
2021-12-24 16:02:38.193332,-87
2021-12-24 16:02:38.193342,-16
2021-12-24 16:02:38.193351,-6
2021-12-24 16:02:38.193361,-6
2021-12-24 16:02:38.193371,45
2021-12-24 16:02:38.193381,32
2021-12-24 16:02:38.462749,-6
2021-12-24 16:02:38.462789,75
2021-12-24 16:02:38.462798,156
2021-12-24 16:02:38.462806,133
2021-12-24 16:02:38.462813,163
2021-12-24 16:02:38.462819,271
2021-12-24 16:02:38.462832,298
2021-12-24 16:02:38.462839,301
2021-12-24 16:02:38.462845,365
2021-12-24 16:02:38.462852,360
2021-12-24 16:02:38.462858,354
2021-12-24 16:02:38.462864,402
2021-12-24 16:02:38.462892,381
2021-12-24 16:02:38.462915,420
2021-12-24 16:02:38.462923,521
2021-12-24 16:02:38.462929,519
2021-12-24 16:02:38.462936,544
2021-12-24 16:02:38.462942,620
2021-12-24 16:02:38.462948,623
2021-12-24 16:02:38.462955,641
2021-12-24 16:02:38.462961,719
2021-12-24 16:02:38.462967,749
2021-12-24 16:02:38.462974,717
2021-12-24 16:02:38.462984,731
2021-12-24 16:02:38.462990,751
2021-12-24 16:02:38.463014,698
2021-12-24 16:02:38.463019,657
2021-12-24 16:02:38.463024,639
2021-12-24 16:02:38.463030,627
2021-12-24 16:02:38.463035,666
2021-12-24 16:02:38.732926,708
2021-12-24 16:02:38.732956,742
2021-12-24 16:02:38.732968,737
2021-12-24 16:02:38.732978,671
2021-12-24 16:02:38.732988,680
2021-12-24 16:02:38.732997,740
2021-12-24 16:02:38.733007,763
2021-12-24 16:02:38.733016,816
2021-12-24 16:02:38.733026,850
2021-12-24 16:02:38.733035,887
2021-12-24 16:02:38.733045,940
2021-12-24 16:02:38.733055,958
2021-12-24 16:02:38.733064,1006
2021-12-24 16:02:38.733074,1039
2021-12-24 16:02:38.733083,1032
2021-12-24 16:02:38.733093,1057
2021-12-24 16:02:38.733102,1050
2021-12-24 16:02:38.733112,993
2021-12-24 16:02:38.733121,990
2021-12-24 16:02:38.733131,1080
2021-12-24 16:02:38.733140,1115
2021-12-24 16:02:38.733150,956
2021-12-24 16:02:38.733160,919
2021-12-24 16:02:38.733169,1066
2021-12-24 16:02:38.733179,1062
2021-12-24 16:02:38.733188,981
2021-12-24 16:02:38.733198,928
2021-12-24 16:02:38.733207,949
2021-12-24 16:02:38.733217,1080
2021-12-24 16:02:38.733227,1144
2021-12-24 16:02:38.867755,1177
2021-12-24 16:02:38.867791,1266
2021-12-24 16:02:38.867803,1367
2021-12-24 16:02:38.867813,1411
2021-12-24 16:02:38.867823,1356
2021-12-24 16:02:38.867832,1377
2021-12-24 16:02:38.867842,1459
2021-12-24 16:02:38.867851,1434
2021-12-24 16:02:38.867861,1388
2021-12-24 16:02:38.867871,1367
2021-12-24 16:02:38.867880,1383
2021-12-24 16:02:38.867890,1397
2021-12-24 16:02:38.867899,1310
2021-12-24 16:02:38.867909,1301
2021-12-24 16:02:38.867919,1383
2021-12-24 16:02:38.867928,1374
2021-12-24 16:02:38.867938,1220
2021-12-24 16:02:38.867947,967
2021-12-24 16:02:38.867957,887
2021-12-24 16:02:38.867967,1057
2021-12-24 16:02:38.867976,1165
2021-12-24 16:02:38.867986,1101
2021-12-24 16:02:38.867996,972
2021-12-24 16:02:38.868005,942
2021-12-24 16:02:38.868015,1023
2021-12-24 16:02:38.868024,995
2021-12-24 16:02:38.868034,944
2021-12-24 16:02:38.868044,914
2021-12-24 16:02:38.868053,878
2021-12-24 16:02:38.868063,917
2021-12-24 16:02:39.226730,924
2021-12-24 16:02:39.226751,896
2021-12-24 16:02:39.226758,866
2021-12-24 16:02:39.226765,774
2021-12-24 16:02:39.226771,733
2021-12-24 16:02:39.226778,705
2021-12-24 16:02:39.226784,669
2021-12-24 16:02:39.226790,694
2021-12-24 16:02:39.226796,678
2021-12-24 16:02:39.226803,623
2021-12-24 16:02:39.226809,567
2021-12-24 16:02:39.226815,526
2021-12-24 16:02:39.226822,528
2021-12-24 16:02:39.226828,505
2021-12-24 16:02:39.226834,487
2021-12-24 16:02:39.226841,432
2021-12-24 16:02:39.226847,397
2021-12-24 16:02:39.226853,521
2021-12-24 16:02:39.226860,547
2021-12-24 16:02:39.226866,487
2021-12-24 16:02:39.226872,464
2021-12-24 16:02:39.226878,333
2021-12-24 16:02:39.226885,268
2021-12-24 16:02:39.226891,347
2021-12-24 16:02:39.226897,388
2021-12-24 16:02:39.226903,377
2021-12-24 16:02:39.226910,328
2021-12-24 16:02:39.226916,282
2021-12-24 16:02:39.226923,227
2021-12-24 16:02:39.226929,133
2021-12-24 16:02:39.362915,121
2021-12-24 16:02:39.362945,98
2021-12-24 16:02:39.362957,-20
2021-12-24 16:02:39.362967,-140
2021-12-24 16:02:39.362977,-266
2021-12-24 16:02:39.362987,-452
2021-12-24 16:02:39.362997,-728
2021-12-24 16:02:39.363007,-1029
2021-12-24 16:02:39.363016,-1241
2021-12-24 16:02:39.363026,-1363
2021-12-24 16:02:39.363036,-1416
2021-12-24 16:02:39.363046,-1487
2021-12-24 16:02:39.363055,-1632
2021-12-24 16:02:39.363065,-1800
2021-12-24 16:02:39.363075,-1928
2021-12-24 16:02:39.363085,-1917
2021-12-24 16:02:39.363095,-1875
2021-12-24 16:02:39.363104,-1967
2021-12-24 16:02:39.363114,-1949
2021-12-24 16:02:39.363124,-1797
2021-12-24 16:02:39.363134,-1781
2021-12-24 16:02:39.363144,-1802
2021-12-24 16:02:39.363153,-1673
2021-12-24 16:02:39.363163,-1498
2021-12-24 16:02:39.363173,-1434
2021-12-24 16:02:39.363183,-1418
2021-12-24 16:02:39.363192,-1372
2021-12-24 16:02:39.363202,-1326
2021-12-24 16:02:39.363212,-1271
2021-12-24 16:02:39.363222,-1197
2021-12-24 16:02:39.587593,-1131
2021-12-24 16:02:39.587622,-1052
2021-12-24 16:02:39.587634,-1011
2021-12-24 16:02:39.587644,-1013
2021-12-24 16:02:39.587654,-983
2021-12-24 16:02:39.587663,-947
2021-12-24 16:02:39.587673,-914
2021-12-24 16:02:39.587683,-898
2021-12-24 16:02:39.587693,-921
2021-12-24 16:02:39.587703,-919
2021-12-24 16:02:39.587713,-882
2021-12-24 16:02:39.587722,-834
2021-12-24 16:02:39.587732,-795
2021-12-24 16:02:39.587742,-855
2021-12-24 16:02:39.587752,-931
2021-12-24 16:02:39.587762,-910
2021-12-24 16:02:39.587772,-869
2021-12-24 16:02:39.587781,-852
2021-12-24 16:02:39.587791,-873
2021-12-24 16:02:39.587801,-1016
2021-12-24 16:02:39.587811,-1206
2021-12-24 16:02:39.587820,-1183
2021-12-24 16:02:39.587830,-983
2021-12-24 16:02:39.587840,-887
2021-12-24 16:02:39.587850,-871
2021-12-24 16:02:39.587859,-827
2021-12-24 16:02:39.587869,-797
2021-12-24 16:02:39.587879,-758
2021-12-24 16:02:39.587889,-687
2021-12-24 16:02:39.587899,-634
2021-12-24 16:02:39.902326,-611
2021-12-24 16:02:39.902342,-581
2021-12-24 16:02:39.902348,-524
2021-12-24 16:02:39.902354,-528
2021-12-24 16:02:39.902359,-563
2021-12-24 16:02:39.902364,-508
2021-12-24 16:02:39.902369,-448
2021-12-24 16:02:39.902374,-439
2021-12-24 16:02:39.902379,-420
2021-12-24 16:02:39.902384,-397
2021-12-24 16:02:39.902389,-342
2021-12-24 16:02:39.902397,-268
2021-12-24 16:02:39.902402,-243
2021-12-24 16:02:39.902407,-218
2021-12-24 16:02:39.902412,-158
2021-12-24 16:02:39.902417,-112
2021-12-24 16:02:39.902422,-73
2021-12-24 16:02:39.902427,-27
2021-12-24 16:02:39.902432,4
2021-12-24 16:02:39.902437,16
2021-12-24 16:02:39.902442,43
2021-12-24 16:02:39.902447,78
2021-12-24 16:02:39.902452,59
2021-12-24 16:02:39.902458,55
2021-12-24 16:02:39.902462,75
2021-12-24 16:02:39.902468,48
2021-12-24 16:02:39.902473,20
2021-12-24 16:02:39.902478,11
2021-12-24 16:02:39.902483,18
2021-12-24 16:02:39.902488,39
2021-12-24 16:02:40.037942,32
2021-12-24 16:02:40.037973,27
2021-12-24 16:02:40.037985,32
2021-12-24 16:02:40.037995,29
2021-12-24 16:02:40.038005,48
2021-12-24 16:02:40.038014,50
2021-12-24 16:02:40.038024,36
2021-12-24 16:02:40.038034,25
2021-12-24 16:02:40.038043,0
2021-12-24 16:02:40.038053,-16
2021-12-24 16:02:40.038063,-22
2021-12-24 16:02:40.038073,-36
2021-12-24 16:02:40.038082,-75
2021-12-24 16:02:40.038092,-149
2021-12-24 16:02:40.038102,-211
2021-12-24 16:02:40.038111,-257
2021-12-24 16:02:40.038121,-296
2021-12-24 16:02:40.038131,-305
2021-12-24 16:02:40.038140,-308
2021-12-24 16:02:40.038150,-294
2021-12-24 16:02:40.038160,-250
2021-12-24 16:02:40.038170,-225
2021-12-24 16:02:40.038179,-209
2021-12-24 16:02:40.038189,-211
2021-12-24 16:02:40.038199,-245
2021-12-24 16:02:40.038208,-245
2021-12-24 16:02:40.038218,-197
2021-12-24 16:02:40.038228,-179
2021-12-24 16:02:40.038238,-190
2021-12-24 16:02:40.038247,-183
2021-12-24 16:02:40.262935,-170
2021-12-24 16:02:40.262965,-163
2021-12-24 16:02:40.262976,-142
2021-12-24 16:02:40.262986,-126
2021-12-24 16:02:40.262996,-133
2021-12-24 16:02:40.263005,-135
2021-12-24 16:02:40.263015,-126
2021-12-24 16:02:40.263025,-50
2021-12-24 16:02:40.263035,48
2021-12-24 16:02:40.263044,-16
2021-12-24 16:02:40.263054,-273
2021-12-24 16:02:40.263064,-473
2021-12-24 16:02:40.263074,-367
2021-12-24 16:02:40.263084,-170
2021-12-24 16:02:40.263094,-156
2021-12-24 16:02:40.263103,-172
2021-12-24 16:02:40.263113,-144
2021-12-24 16:02:40.263123,-163
2021-12-24 16:02:40.263132,-154
2021-12-24 16:02:40.263142,-114
2021-12-24 16:02:40.263152,-108
2021-12-24 16:02:40.263162,-103
2021-12-24 16:02:40.263172,-98
2021-12-24 16:02:40.263181,-89
2021-12-24 16:02:40.263191,-73
2021-12-24 16:02:40.263201,-57
2021-12-24 16:02:40.263211,-39
2021-12-24 16:02:40.263221,-43
2021-12-24 16:02:40.263230,-39
2021-12-24 16:02:40.263240,-22
2021-12-24 16:02:40.577215,-18
2021-12-24 16:02:40.577238,6
2021-12-24 16:02:40.577246,32
2021-12-24 16:02:40.577252,41
2021-12-24 16:02:40.577259,41
2021-12-24 16:02:40.577266,22
2021-12-24 16:02:40.577272,41
2021-12-24 16:02:40.577279,85
2021-12-24 16:02:40.577285,85
2021-12-24 16:02:40.577291,73
2021-12-24 16:02:40.577298,59
2021-12-24 16:02:40.577304,41
2021-12-24 16:02:40.577311,32
2021-12-24 16:02:40.577317,25
2021-12-24 16:02:40.577324,25
2021-12-24 16:02:40.577330,4
2021-12-24 16:02:40.577336,-29
2021-12-24 16:02:40.577343,-50
2021-12-24 16:02:40.577349,-78
2021-12-24 16:02:40.577356,-85
2021-12-24 16:02:40.577362,-57
2021-12-24 16:02:40.577369,-45
2021-12-24 16:02:40.577375,-50
2021-12-24 16:02:40.577382,-52
2021-12-24 16:02:40.577388,-36
2021-12-24 16:02:40.577394,-13
2021-12-24 16:02:40.577401,-25
2021-12-24 16:02:40.577407,-29
2021-12-24 16:02:40.577414,-13
2021-12-24 16:02:40.577420,-2
2021-12-24 16:02:40.713135,4
2021-12-24 16:02:40.713166,11
2021-12-24 16:02:40.713178,36
2021-12-24 16:02:40.713188,45
2021-12-24 16:02:40.713198,16
2021-12-24 16:02:40.713208,11
2021-12-24 16:02:40.713217,32
2021-12-24 16:02:40.713227,39
2021-12-24 16:02:40.713237,39
2021-12-24 16:02:40.713246,20
2021-12-24 16:02:40.713256,-6
2021-12-24 16:02:40.713266,-16
2021-12-24 16:02:40.713276,9
2021-12-24 16:02:40.713319,41
2021-12-24 16:02:40.713328,39
2021-12-24 16:02:40.713338,27
2021-12-24 16:02:40.713348,11
2021-12-24 16:02:40.713357,-2
2021-12-24 16:02:40.713367,9
2021-12-24 16:02:40.713377,2
2021-12-24 16:02:40.713387,-32
2021-12-24 16:02:40.713396,-52
2021-12-24 16:02:40.713406,-55
2021-12-24 16:02:40.713416,-34
2021-12-24 16:02:40.713426,-11
2021-12-24 16:02:40.713436,4
2021-12-24 16:02:40.713445,11
2021-12-24 16:02:40.713455,-6
2021-12-24 16:02:40.713465,-9
2021-12-24 16:02:40.713475,45
2021-12-24 16:02:40.983112,140
2021-12-24 16:02:40.983132,227
2021-12-24 16:02:40.983140,163
2021-12-24 16:02:40.983146,-96
2021-12-24 16:02:40.983153,-255
2021-12-24 16:02:40.983159,-112
2021-12-24 16:02:40.983166,43
2021-12-24 16:02:40.983172,43
2021-12-24 16:02:40.983185,41
2021-12-24 16:02:40.983191,48
2021-12-24 16:02:40.983198,13
2021-12-24 16:02:40.983204,22
2021-12-24 16:02:40.983210,57
2021-12-24 16:02:40.983217,57
2021-12-24 16:02:40.983223,62
2021-12-24 16:02:40.983229,59
2021-12-24 16:02:40.983236,50
2021-12-24 16:02:40.983242,68
2021-12-24 16:02:40.983249,85
2021-12-24 16:02:40.983255,101
2021-12-24 16:02:40.983261,112
2021-12-24 16:02:40.983268,103
2021-12-24 16:02:40.983274,82
2021-12-24 16:02:40.983281,71
2021-12-24 16:02:40.983287,101
2021-12-24 16:02:40.983294,131
2021-12-24 16:02:40.983300,124
2021-12-24 16:02:40.983306,119
2021-12-24 16:02:40.983313,133
2021-12-24 16:02:40.983319,160
2021-12-24 16:02:41.251706,197
2021-12-24 16:02:41.251737,211
2021-12-24 16:02:41.251748,204
2021-12-24 16:02:41.251758,183
2021-12-24 16:02:41.251768,167
2021-12-24 16:02:41.251778,170
2021-12-24 16:02:41.251787,154
2021-12-24 16:02:41.251797,126
2021-12-24 16:02:41.251806,85
2021-12-24 16:02:41.251816,27
2021-12-24 16:02:41.251826,20
2021-12-24 16:02:41.251835,43
2021-12-24 16:02:41.251845,45
2021-12-24 16:02:41.251854,41
2021-12-24 16:02:41.251864,16
2021-12-24 16:02:41.251874,-11
2021-12-24 16:02:41.251883,-2
2021-12-24 16:02:41.251893,20
2021-12-24 16:02:41.251902,32
2021-12-24 16:02:41.251912,32
2021-12-24 16:02:41.251921,22
2021-12-24 16:02:41.251931,-2
2021-12-24 16:02:41.251941,-39
2021-12-24 16:02:41.251950,-57
2021-12-24 16:02:41.251960,-64
2021-12-24 16:02:41.251970,-68
2021-12-24 16:02:41.251980,-66
2021-12-24 16:02:41.251989,-71
2021-12-24 16:02:41.251999,-59
2021-12-24 16:02:41.252009,-39
2021-12-24 16:02:41.433063,-50
2021-12-24 16:02:41.433093,-64
2021-12-24 16:02:41.433105,-66
2021-12-24 16:02:41.433115,-68
2021-12-24 16:02:41.433125,-64
2021-12-24 16:02:41.433134,-59
2021-12-24 16:02:41.433144,-59
2021-12-24 16:02:41.433154,-82
2021-12-24 16:02:41.433163,-131
2021-12-24 16:02:41.433173,-156
2021-12-24 16:02:41.433183,-147
2021-12-24 16:02:41.433193,-121
2021-12-24 16:02:41.433202,-112
2021-12-24 16:02:41.433212,-133
2021-12-24 16:02:41.433222,-160
2021-12-24 16:02:41.433232,-163
2021-12-24 16:02:41.433241,-131
2021-12-24 16:02:41.433251,-94
2021-12-24 16:02:41.433261,-85
2021-12-24 16:02:41.433271,-89
2021-12-24 16:02:41.433280,-103
2021-12-24 16:02:41.433290,-98
2021-12-24 16:02:41.433300,-68
2021-12-24 16:02:41.433310,-57
2021-12-24 16:02:41.433319,-39
2021-12-24 16:02:41.433329,-18
2021-12-24 16:02:41.433339,-32
2021-12-24 16:02:41.433349,-48
2021-12-24 16:02:41.433359,-32
2021-12-24 16:02:41.433368,9
2021-12-24 16:02:41.658041,55
2021-12-24 16:02:41.658073,137
2021-12-24 16:02:41.658084,213
2021-12-24 16:02:41.658094,131
2021-12-24 16:02:41.658104,-98
2021-12-24 16:02:41.658114,-181
2021-12-24 16:02:41.658123,-55
2021-12-24 16:02:41.658133,18
2021-12-24 16:02:41.658142,-6
2021-12-24 16:02:41.658152,9
2021-12-24 16:02:41.658162,48
2021-12-24 16:02:41.658171,66
2021-12-24 16:02:41.658181,71
2021-12-24 16:02:41.658191,45
2021-12-24 16:02:41.658200,25
2021-12-24 16:02:41.658210,36
2021-12-24 16:02:41.658219,45
2021-12-24 16:02:41.658229,50
2021-12-24 16:02:41.658238,59
2021-12-24 16:02:41.658248,48
2021-12-24 16:02:41.658257,55
2021-12-24 16:02:41.658267,78
2021-12-24 16:02:41.658276,85
2021-12-24 16:02:41.658286,98
2021-12-24 16:02:41.658295,103
2021-12-24 16:02:41.658305,103
2021-12-24 16:02:41.658315,112
2021-12-24 16:02:41.658324,66
2021-12-24 16:02:41.658334,-2
2021-12-24 16:02:41.658344,-22
2021-12-24 16:02:41.883049,-20
2021-12-24 16:02:41.883079,-27
2021-12-24 16:02:41.883091,-39
2021-12-24 16:02:41.883101,-34
2021-12-24 16:02:41.883111,-22
2021-12-24 16:02:41.883121,2
2021-12-24 16:02:41.883130,9
2021-12-24 16:02:41.883140,-57
2021-12-24 16:02:41.883150,-110
2021-12-24 16:02:41.883159,-105
2021-12-24 16:02:41.883169,-114
2021-12-24 16:02:41.883179,-112
2021-12-24 16:02:41.883188,-87
2021-12-24 16:02:41.883198,-85
2021-12-24 16:02:41.883208,-73
2021-12-24 16:02:41.883217,-36
2021-12-24 16:02:41.883227,-6
2021-12-24 16:02:41.883237,22
2021-12-24 16:02:41.883247,57
2021-12-24 16:02:41.883256,96
2021-12-24 16:02:41.883266,96
2021-12-24 16:02:41.883276,94
2021-12-24 16:02:41.883285,149
2021-12-24 16:02:41.883295,218
2021-12-24 16:02:41.883305,271
2021-12-24 16:02:41.883315,298
2021-12-24 16:02:41.883324,335
2021-12-24 16:02:41.883334,418
2021-12-24 16:02:41.883344,496
2021-12-24 16:02:41.883354,549
2021-12-24 16:02:42.108257,554
2021-12-24 16:02:42.108288,542
2021-12-24 16:02:42.108299,606
2021-12-24 16:02:42.108309,646
2021-12-24 16:02:42.108319,627
2021-12-24 16:02:42.108328,662
2021-12-24 16:02:42.108338,754
2021-12-24 16:02:42.108348,887
2021-12-24 16:02:42.108357,981
2021-12-24 16:02:42.108367,1025
2021-12-24 16:02:42.108377,1108
2021-12-24 16:02:42.108386,1188
2021-12-24 16:02:42.108396,1234
2021-12-24 16:02:42.108405,1315
2021-12-24 16:02:42.108415,1420
2021-12-24 16:02:42.108425,1505
2021-12-24 16:02:42.108434,1554
2021-12-24 16:02:42.108444,1620
2021-12-24 16:02:42.108454,1692
2021-12-24 16:02:42.108463,1728
2021-12-24 16:02:42.108473,1797
2021-12-24 16:02:42.108483,1880
2021-12-24 16:02:42.108493,1963
2021-12-24 16:02:42.108508,2057
2021-12-24 16:02:42.108518,2080
2021-12-24 16:02:42.108528,2085
2021-12-24 16:02:42.108537,2075
2021-12-24 16:02:42.108547,2009
2021-12-24 16:02:42.108557,1977
2021-12-24 16:02:42.108566,1921
2021-12-24 16:02:42.377803,1843
2021-12-24 16:02:42.377837,1790
2021-12-24 16:02:42.377845,1698
2021-12-24 16:02:42.377852,1648
2021-12-24 16:02:42.377858,1586
2021-12-24 16:02:42.377864,1432
2021-12-24 16:02:42.377871,1420
2021-12-24 16:02:42.377877,1508
2021-12-24 16:02:42.377883,1498
2021-12-24 16:02:42.377890,1459
2021-12-24 16:02:42.377896,1418
2021-12-24 16:02:42.377902,1312
2021-12-24 16:02:42.377909,1128
2021-12-24 16:02:42.377915,1101
2021-12-24 16:02:42.377922,1239
2021-12-24 16:02:42.377928,1250
2021-12-24 16:02:42.377934,1239
2021-12-24 16:02:42.377941,1275
2021-12-24 16:02:42.377947,1275
2021-12-24 16:02:42.377953,1289
2021-12-24 16:02:42.377960,1271
2021-12-24 16:02:42.377966,1252
2021-12-24 16:02:42.377972,1218
2021-12-24 16:02:42.377979,1119
2021-12-24 16:02:42.377985,1089
2021-12-24 16:02:42.377991,1043
2021-12-24 16:02:42.377998,981
2021-12-24 16:02:42.378004,986
2021-12-24 16:02:42.378010,937
2021-12-24 16:02:42.378017,919
2021-12-24 16:02:42.647979,889
2021-12-24 16:02:42.648001,760
2021-12-24 16:02:42.648009,788
2021-12-24 16:02:42.648016,869
2021-12-24 16:02:42.648022,823
2021-12-24 16:02:42.648028,783
2021-12-24 16:02:42.648034,811
2021-12-24 16:02:42.648041,866
2021-12-24 16:02:42.648047,848
2021-12-24 16:02:42.648053,811
2021-12-24 16:02:42.648060,811
2021-12-24 16:02:42.648066,783
2021-12-24 16:02:42.648072,802
2021-12-24 16:02:42.648078,790
2021-12-24 16:02:42.648085,714
2021-12-24 16:02:42.648091,698
2021-12-24 16:02:42.648097,639
2021-12-24 16:02:42.648104,595
2021-12-24 16:02:42.648110,613
2021-12-24 16:02:42.648116,567
2021-12-24 16:02:42.648122,508
2021-12-24 16:02:42.648129,400
2021-12-24 16:02:42.648135,252
2021-12-24 16:02:42.648141,140
2021-12-24 16:02:42.648148,-48
2021-12-24 16:02:42.648154,-209
2021-12-24 16:02:42.648161,-328
2021-12-24 16:02:42.648167,-554
2021-12-24 16:02:42.648173,-809
2021-12-24 16:02:42.648180,-1046
2021-12-24 16:02:42.873019,-1236
2021-12-24 16:02:42.873049,-1390
2021-12-24 16:02:42.873061,-1524
2021-12-24 16:02:42.873071,-1572
2021-12-24 16:02:42.873080,-1593
2021-12-24 16:02:42.873090,-1655
2021-12-24 16:02:42.873100,-1738
2021-12-24 16:02:42.873110,-1818
2021-12-24 16:02:42.873119,-1880
2021-12-24 16:02:42.873129,-1928
2021-12-24 16:02:42.873139,-1848
2021-12-24 16:02:42.873149,-1675
2021-12-24 16:02:42.873159,-1669
2021-12-24 16:02:42.873168,-1666
2021-12-24 16:02:42.873178,-1563
2021-12-24 16:02:42.873188,-1558
2021-12-24 16:02:42.873198,-1528
2021-12-24 16:02:42.873207,-1411
2021-12-24 16:02:42.873217,-1340
2021-12-24 16:02:42.873227,-1296
2021-12-24 16:02:42.873237,-1285
2021-12-24 16:02:42.873247,-1282
2021-12-24 16:02:42.873256,-1229
2021-12-24 16:02:42.873266,-1170
2021-12-24 16:02:42.873276,-1119
2021-12-24 16:02:42.873285,-1078
2021-12-24 16:02:42.873295,-1034
2021-12-24 16:02:42.873305,-1002
2021-12-24 16:02:42.873315,-986
2021-12-24 16:02:42.873324,-935
2021-12-24 16:02:43.187140,-898
2021-12-24 16:02:43.187161,-857
2021-12-24 16:02:43.187169,-804
2021-12-24 16:02:43.187175,-829
2021-12-24 16:02:43.187182,-839
2021-12-24 16:02:43.187188,-777
2021-12-24 16:02:43.187195,-749
2021-12-24 16:02:43.187201,-735
2021-12-24 16:02:43.187208,-728
2021-12-24 16:02:43.187214,-710
2021-12-24 16:02:43.187221,-634
2021-12-24 16:02:43.187227,-577
2021-12-24 16:02:43.187233,-508
2021-12-24 16:02:43.187240,-432
2021-12-24 16:02:43.187246,-455
2021-12-24 16:02:43.187253,-595
2021-12-24 16:02:43.187259,-721
2021-12-24 16:02:43.187266,-629
2021-12-24 16:02:43.187272,-471
2021-12-24 16:02:43.187278,-455
2021-12-24 16:02:43.187285,-452
2021-12-24 16:02:43.187291,-446
2021-12-24 16:02:43.187298,-450
2021-12-24 16:02:43.187304,-436
2021-12-24 16:02:43.187311,-462
2021-12-24 16:02:43.187317,-494
2021-12-24 16:02:43.187323,-526
2021-12-24 16:02:43.187330,-531
2021-12-24 16:02:43.187336,-494
2021-12-24 16:02:43.187343,-510
2021-12-24 16:02:43.321623,-498
2021-12-24 16:02:43.321654,-425
2021-12-24 16:02:43.321666,-416
2021-12-24 16:02:43.321676,-404
2021-12-24 16:02:43.321686,-365
2021-12-24 16:02:43.321696,-331
2021-12-24 16:02:43.321705,-287
2021-12-24 16:02:43.321715,-298
2021-12-24 16:02:43.321725,-324
2021-12-24 16:02:43.321735,-317
2021-12-24 16:02:43.321745,-312
2021-12-24 16:02:43.321755,-298
2021-12-24 16:02:43.321764,-280
2021-12-24 16:02:43.321774,-255
2021-12-24 16:02:43.321784,-278
2021-12-24 16:02:43.321794,-340
2021-12-24 16:02:43.321803,-301
2021-12-24 16:02:43.321813,-280
2021-12-24 16:02:43.321823,-365
2021-12-24 16:02:43.321833,-489
2021-12-24 16:02:43.321842,-669
2021-12-24 16:02:43.321852,-836
2021-12-24 16:02:43.321862,-970
2021-12-24 16:02:43.321872,-1082
2021-12-24 16:02:43.321882,-1140
2021-12-24 16:02:43.321892,-1188
2021-12-24 16:02:43.321902,-1227
2021-12-24 16:02:43.321912,-1239
2021-12-24 16:02:43.321922,-1259
2021-12-24 16:02:43.321932,-1262
2021-12-24 16:02:43.503048,-1248
2021-12-24 16:02:43.503079,-1252
2021-12-24 16:02:43.503091,-1236
2021-12-24 16:02:43.503101,-1195
2021-12-24 16:02:43.503111,-1131
2021-12-24 16:02:43.503121,-1069
2021-12-24 16:02:43.503131,-1036
2021-12-24 16:02:43.503141,-1004
2021-12-24 16:02:43.503151,-979
2021-12-24 16:02:43.503161,-970
2021-12-24 16:02:43.503171,-970
2021-12-24 16:02:43.503181,-960
2021-12-24 16:02:43.503190,-949
2021-12-24 16:02:43.503201,-954
2021-12-24 16:02:43.503211,-919
2021-12-24 16:02:43.503221,-864
2021-12-24 16:02:43.503231,-827
2021-12-24 16:02:43.503240,-770
2021-12-24 16:02:43.503250,-726
2021-12-24 16:02:43.503260,-717
2021-12-24 16:02:43.503270,-671
2021-12-24 16:02:43.503280,-629
2021-12-24 16:02:43.503290,-600
2021-12-24 16:02:43.503300,-554
2021-12-24 16:02:43.503310,-526
2021-12-24 16:02:43.503320,-508
2021-12-24 16:02:43.503330,-491
2021-12-24 16:02:43.503340,-473
2021-12-24 16:02:43.503349,-436
2021-12-24 16:02:43.503365,-418
2021-12-24 16:02:43.728231,-404
2021-12-24 16:02:43.728261,-377
2021-12-24 16:02:43.728272,-354
2021-12-24 16:02:43.728282,-333
2021-12-24 16:02:43.728292,-314
2021-12-24 16:02:43.728302,-298
2021-12-24 16:02:43.728312,-305
2021-12-24 16:02:43.728321,-312
2021-12-24 16:02:43.728331,-225
2021-12-24 16:02:43.728341,-114
2021-12-24 16:02:43.728351,-101
2021-12-24 16:02:43.728361,-236
2021-12-24 16:02:43.728371,-450
2021-12-24 16:02:43.728381,-441
2021-12-24 16:02:43.728391,-280
2021-12-24 16:02:43.728400,-250
2021-12-24 16:02:43.728410,-239
2021-12-24 16:02:43.728420,-193
2021-12-24 16:02:43.728429,-179
2021-12-24 16:02:43.728439,-160
2021-12-24 16:02:43.728449,-177
2021-12-24 16:02:43.728459,-181
2021-12-24 16:02:43.728468,-133
2021-12-24 16:02:43.728478,-103
2021-12-24 16:02:43.728488,-105
2021-12-24 16:02:43.728498,-103
2021-12-24 16:02:43.728507,-73
2021-12-24 16:02:43.728517,-48
2021-12-24 16:02:43.728527,-39
2021-12-24 16:02:43.728536,-16
2021-12-24 16:02:43.953229,-4
2021-12-24 16:02:43.953259,9
2021-12-24 16:02:43.953271,39
2021-12-24 16:02:43.953281,41
2021-12-24 16:02:43.953291,43
2021-12-24 16:02:43.953301,36
2021-12-24 16:02:43.953310,16
2021-12-24 16:02:43.953320,43
2021-12-24 16:02:43.953330,68
2021-12-24 16:02:43.953339,68
2021-12-24 16:02:43.953349,85
2021-12-24 16:02:43.953359,75
2021-12-24 16:02:43.953368,50
2021-12-24 16:02:43.953378,39
2021-12-24 16:02:43.953387,36
2021-12-24 16:02:43.953397,16
2021-12-24 16:02:43.953407,-41
2021-12-24 16:02:43.953416,-85
2021-12-24 16:02:43.953426,-105
2021-12-24 16:02:43.953436,-114
2021-12-24 16:02:43.953446,-126
2021-12-24 16:02:43.953455,-183
2021-12-24 16:02:43.953465,-241
2021-12-24 16:02:43.953475,-239
2021-12-24 16:02:43.953484,-227
2021-12-24 16:02:43.953494,-209
2021-12-24 16:02:43.953504,-204
2021-12-24 16:02:43.953513,-209
2021-12-24 16:02:43.953523,-193
2021-12-24 16:02:43.953533,-220
2021-12-24 16:02:44.177318,-285
2021-12-24 16:02:44.177342,-294
2021-12-24 16:02:44.177353,-248
2021-12-24 16:02:44.177363,-213
2021-12-24 16:02:44.177373,-243
2021-12-24 16:02:44.177383,-287
2021-12-24 16:02:44.177392,-310
2021-12-24 16:02:44.177401,-303
2021-12-24 16:02:44.177410,-264
2021-12-24 16:02:44.177420,-252
2021-12-24 16:02:44.177429,-262
2021-12-24 16:02:44.177438,-273
2021-12-24 16:02:44.177447,-271
2021-12-24 16:02:44.177456,-239
2021-12-24 16:02:44.177466,-216
2021-12-24 16:02:44.177475,-220
2021-12-24 16:02:44.177485,-213
2021-12-24 16:02:44.177495,-209
2021-12-24 16:02:44.177505,-213
2021-12-24 16:02:44.177514,-204
2021-12-24 16:02:44.177523,-188
2021-12-24 16:02:44.177533,-163
2021-12-24 16:02:44.177542,-154
2021-12-24 16:02:44.177552,-144
2021-12-24 16:02:44.177561,-126
2021-12-24 16:02:44.177576,-149
2021-12-24 16:02:44.177587,-186
2021-12-24 16:02:44.177596,-181
2021-12-24 16:02:44.177605,-165
2021-12-24 16:02:44.177615,-144
2021-12-24 16:02:44.446599,-124
2021-12-24 16:02:44.446616,-96
2021-12-24 16:02:44.446622,-82
2021-12-24 16:02:44.446627,-110
2021-12-24 16:02:44.446632,-131
2021-12-24 16:02:44.446638,-117
2021-12-24 16:02:44.446643,-50
2021-12-24 16:02:44.446648,59
2021-12-24 16:02:44.446653,108
2021-12-24 16:02:44.446658,-9
2021-12-24 16:02:44.446663,-257
2021-12-24 16:02:44.446669,-340
2021-12-24 16:02:44.446674,-167
2021-12-24 16:02:44.446679,-68
2021-12-24 16:02:44.446684,-80
2021-12-24 16:02:44.446689,-55
2021-12-24 16:02:44.446695,-57
2021-12-24 16:02:44.446700,-82
2021-12-24 16:02:44.446705,-71
2021-12-24 16:02:44.446710,-68
2021-12-24 16:02:44.446715,-101
2021-12-24 16:02:44.446721,-142
2021-12-24 16:02:44.446726,-133
2021-12-24 16:02:44.446731,-103
2021-12-24 16:02:44.446736,-96
2021-12-24 16:02:44.446741,-68
2021-12-24 16:02:44.446746,-52
2021-12-24 16:02:44.446751,-62
2021-12-24 16:02:44.446757,-59
2021-12-24 16:02:44.446762,-34
2021-12-24 16:02:44.673085,0
2021-12-24 16:02:44.673114,16
2021-12-24 16:02:44.673126,25
2021-12-24 16:02:44.673136,34
2021-12-24 16:02:44.673145,36
2021-12-24 16:02:44.673155,66
2021-12-24 16:02:44.673165,101
2021-12-24 16:02:44.673174,112
2021-12-24 16:02:44.673184,121
2021-12-24 16:02:44.673194,96
2021-12-24 16:02:44.673204,71
2021-12-24 16:02:44.673213,89
2021-12-24 16:02:44.673223,87
2021-12-24 16:02:44.673233,73
2021-12-24 16:02:44.673243,59
2021-12-24 16:02:44.673252,25
2021-12-24 16:02:44.673262,9
2021-12-24 16:02:44.673272,18
2021-12-24 16:02:44.673281,36
2021-12-24 16:02:44.673291,52
2021-12-24 16:02:44.673301,43
2021-12-24 16:02:44.673311,32
2021-12-24 16:02:44.673320,16
2021-12-24 16:02:44.673330,6
2021-12-24 16:02:44.673340,6
2021-12-24 16:02:44.673350,-4
2021-12-24 16:02:44.673360,-2
2021-12-24 16:02:44.673369,-2
2021-12-24 16:02:44.673379,0
2021-12-24 16:02:44.673389,18
2021-12-24 16:02:44.898239,-18
2021-12-24 16:02:44.898270,-66
2021-12-24 16:02:44.898281,-71
2021-12-24 16:02:44.898291,-80
2021-12-24 16:02:44.898301,-64
2021-12-24 16:02:44.898311,-11
2021-12-24 16:02:44.898321,39
2021-12-24 16:02:44.898330,78
2021-12-24 16:02:44.898340,50
2021-12-24 16:02:44.898350,6
2021-12-24 16:02:44.898360,50
2021-12-24 16:02:44.898369,177
2021-12-24 16:02:44.898379,243
2021-12-24 16:02:44.898389,135
2021-12-24 16:02:44.898399,39
2021-12-24 16:02:44.898409,128
2021-12-24 16:02:44.898418,234
2021-12-24 16:02:44.898428,213
2021-12-24 16:02:44.898438,186
2021-12-24 16:02:44.898448,271
2021-12-24 16:02:44.898457,324
2021-12-24 16:02:44.898467,259
2021-12-24 16:02:44.898477,287
2021-12-24 16:02:44.898486,406
2021-12-24 16:02:44.898496,448
2021-12-24 16:02:44.898506,441
2021-12-24 16:02:44.898515,446
2021-12-24 16:02:44.898525,464
2021-12-24 16:02:44.898535,494
2021-12-24 16:02:44.898544,533
2021-12-24 16:02:45.168169,588
2021-12-24 16:02:45.168199,609
2021-12-24 16:02:45.168211,595
2021-12-24 16:02:45.168221,586
2021-12-24 16:02:45.168230,581
2021-12-24 16:02:45.168240,616
2021-12-24 16:02:45.168250,664
2021-12-24 16:02:45.168260,675
2021-12-24 16:02:45.168269,669
2021-12-24 16:02:45.168279,655
2021-12-24 16:02:45.168289,586
2021-12-24 16:02:45.168299,411
2021-12-24 16:02:45.168309,331
2021-12-24 16:02:45.168319,455
2021-12-24 16:02:45.168328,508
2021-12-24 16:02:45.168338,457
2021-12-24 16:02:45.168348,475
2021-12-24 16:02:45.168358,491
2021-12-24 16:02:45.168368,485
2021-12-24 16:02:45.168377,494
2021-12-24 16:02:45.168387,482
2021-12-24 16:02:45.168397,452
2021-12-24 16:02:45.168407,432
2021-12-24 16:02:45.168417,441
2021-12-24 16:02:45.168427,446
2021-12-24 16:02:45.168436,427
2021-12-24 16:02:45.168446,436
2021-12-24 16:02:45.168456,423
2021-12-24 16:02:45.168471,413
2021-12-24 16:02:45.168481,480
2021-12-24 16:02:45.391703,498
2021-12-24 16:02:45.391724,501
2021-12-24 16:02:45.391732,549
2021-12-24 16:02:45.391738,528
2021-12-24 16:02:45.391745,473
2021-12-24 16:02:45.391751,489
2021-12-24 16:02:45.391757,526
2021-12-24 16:02:45.391764,503
2021-12-24 16:02:45.391770,510
2021-12-24 16:02:45.391776,609
2021-12-24 16:02:45.391783,634
2021-12-24 16:02:45.391789,620
2021-12-24 16:02:45.391795,657
2021-12-24 16:02:45.391802,618
2021-12-24 16:02:45.391808,542
2021-12-24 16:02:45.391814,505
2021-12-24 16:02:45.391820,489
2021-12-24 16:02:45.391827,514
2021-12-24 16:02:45.391833,494
2021-12-24 16:02:45.391839,450
2021-12-24 16:02:45.391845,411
2021-12-24 16:02:45.391852,301
2021-12-24 16:02:45.391858,209
2021-12-24 16:02:45.391864,183
2021-12-24 16:02:45.391871,149
2021-12-24 16:02:45.391877,137
2021-12-24 16:02:45.391883,142
2021-12-24 16:02:45.391889,151
2021-12-24 16:02:45.391896,140
2021-12-24 16:02:45.391902,124
2021-12-24 16:02:45.572451,147
2021-12-24 16:02:45.572470,110
2021-12-24 16:02:45.572478,43
2021-12-24 16:02:45.572485,11
2021-12-24 16:02:45.572492,-50
2021-12-24 16:02:45.572498,-119
2021-12-24 16:02:45.572505,-206
2021-12-24 16:02:45.572512,-294
2021-12-24 16:02:45.572518,-324
2021-12-24 16:02:45.572525,-365
2021-12-24 16:02:45.572531,-432
2021-12-24 16:02:45.572538,-510
2021-12-24 16:02:45.572544,-583
2021-12-24 16:02:45.572551,-595
2021-12-24 16:02:45.572558,-590
2021-12-24 16:02:45.572564,-602
2021-12-24 16:02:45.572571,-593
2021-12-24 16:02:45.572577,-570
2021-12-24 16:02:45.572584,-551
2021-12-24 16:02:45.572591,-542
2021-12-24 16:02:45.572597,-533
2021-12-24 16:02:45.572604,-510
2021-12-24 16:02:45.572610,-494
2021-12-24 16:02:45.572617,-491
2021-12-24 16:02:45.572623,-510
2021-12-24 16:02:45.572630,-508
2021-12-24 16:02:45.572637,-462
2021-12-24 16:02:45.572643,-450
2021-12-24 16:02:45.572650,-448
2021-12-24 16:02:45.572656,-411
2021-12-24 16:02:45.798057,-402
2021-12-24 16:02:45.798088,-397
2021-12-24 16:02:45.798099,-370
2021-12-24 16:02:45.798109,-347
2021-12-24 16:02:45.798119,-337
2021-12-24 16:02:45.798128,-356
2021-12-24 16:02:45.798138,-377
2021-12-24 16:02:45.798148,-370
2021-12-24 16:02:45.798157,-358
2021-12-24 16:02:45.798167,-347
2021-12-24 16:02:45.798177,-340
2021-12-24 16:02:45.798187,-363
2021-12-24 16:02:45.798196,-400
2021-12-24 16:02:45.798206,-427
2021-12-24 16:02:45.798216,-411
2021-12-24 16:02:45.798225,-377
2021-12-24 16:02:45.798235,-358
2021-12-24 16:02:45.798245,-321
2021-12-24 16:02:45.798255,-239
2021-12-24 16:02:45.798265,-133
2021-12-24 16:02:45.798274,-163
2021-12-24 16:02:45.798284,-393
2021-12-24 16:02:45.798294,-519
2021-12-24 16:02:45.798303,-377
2021-12-24 16:02:45.798313,-239
2021-12-24 16:02:45.798323,-229
2021-12-24 16:02:45.798333,-216
2021-12-24 16:02:45.798342,-186
2021-12-24 16:02:45.798352,-193
2021-12-24 16:02:45.798362,-190
2021-12-24 16:02:46.068060,-158
2021-12-24 16:02:46.068091,-151
2021-12-24 16:02:46.068102,-160
2021-12-24 16:02:46.068112,-179
2021-12-24 16:02:46.068122,-204
2021-12-24 16:02:46.068132,-204
2021-12-24 16:02:46.068141,-197
2021-12-24 16:02:46.068151,-188
2021-12-24 16:02:46.068161,-186
2021-12-24 16:02:46.068170,-206
2021-12-24 16:02:46.068180,-204
2021-12-24 16:02:46.068190,-204
2021-12-24 16:02:46.068200,-209
2021-12-24 16:02:46.068210,-188
2021-12-24 16:02:46.068219,-190
2021-12-24 16:02:46.068229,-193
2021-12-24 16:02:46.068239,-188
2021-12-24 16:02:46.068249,-190
2021-12-24 16:02:46.068258,-156
2021-12-24 16:02:46.068268,-131
2021-12-24 16:02:46.068278,-133
2021-12-24 16:02:46.068287,-133
2021-12-24 16:02:46.068297,-142
2021-12-24 16:02:46.068307,-147
2021-12-24 16:02:46.068316,-147
2021-12-24 16:02:46.068326,-160
2021-12-24 16:02:46.068336,-165
2021-12-24 16:02:46.068346,-183
2021-12-24 16:02:46.068355,-200
2021-12-24 16:02:46.068365,-195
2021-12-24 16:02:46.248075,-186
2021-12-24 16:02:46.248106,-165
2021-12-24 16:02:46.248117,-163
2021-12-24 16:02:46.248127,-181
2021-12-24 16:02:46.248137,-181
2021-12-24 16:02:46.248147,-193
2021-12-24 16:02:46.248156,-188
2021-12-24 16:02:46.248166,-158
2021-12-24 16:02:46.248175,-149
2021-12-24 16:02:46.248185,-158
2021-12-24 16:02:46.248195,-181
2021-12-24 16:02:46.248205,-172
2021-12-24 16:02:46.248214,-131
2021-12-24 16:02:46.248224,-117
2021-12-24 16:02:46.248233,-110
2021-12-24 16:02:46.248243,-117
2021-12-24 16:02:46.248253,-147
2021-12-24 16:02:46.248262,-149
2021-12-24 16:02:46.248272,-160
2021-12-24 16:02:46.248282,-179
2021-12-24 16:02:46.248292,-163
2021-12-24 16:02:46.248301,-154
2021-12-24 16:02:46.248311,-151
2021-12-24 16:02:46.248320,-147
2021-12-24 16:02:46.248330,-128
2021-12-24 16:02:46.248340,-105
2021-12-24 16:02:46.248350,-101
2021-12-24 16:02:46.248359,-91
2021-12-24 16:02:46.248369,-82
2021-12-24 16:02:46.248379,-71
2021-12-24 16:02:46.653059,-48
2021-12-24 16:02:46.653091,-41
2021-12-24 16:02:46.653102,-43
2021-12-24 16:02:46.653113,-71
2021-12-24 16:02:46.653122,-101
2021-12-24 16:02:46.653132,-75
2021-12-24 16:02:46.653142,-62
2021-12-24 16:02:46.653152,-87
2021-12-24 16:02:46.653161,-96
2021-12-24 16:02:46.653171,-114
2021-12-24 16:02:46.653181,-119
2021-12-24 16:02:46.653191,-89
2021-12-24 16:02:46.653201,-55
2021-12-24 16:02:46.653210,11
2021-12-24 16:02:46.653220,94
2021-12-24 16:02:46.653230,98
2021-12-24 16:02:46.653240,-64
2021-12-24 16:02:46.653250,-268
2021-12-24 16:02:46.653260,-227
2021-12-24 16:02:46.653269,-55
2021-12-24 16:02:46.653279,-16
2021-12-24 16:02:46.653289,-39
2021-12-24 16:02:46.653299,-22
2021-12-24 16:02:46.653308,6
2021-12-24 16:02:46.653318,16
2021-12-24 16:02:46.653328,22
2021-12-24 16:02:46.653338,32
2021-12-24 16:02:46.653348,13
2021-12-24 16:02:46.653358,11
2021-12-24 16:02:46.653367,29
2021-12-24 16:02:46.742920,29
2021-12-24 16:02:46.742950,43
2021-12-24 16:02:46.742962,41
2021-12-24 16:02:46.742972,18
2021-12-24 16:02:46.742981,29
2021-12-24 16:02:46.742991,57
2021-12-24 16:02:46.743001,78
2021-12-24 16:02:46.743010,85
2021-12-24 16:02:46.743020,78
2021-12-24 16:02:46.743030,59
2021-12-24 16:02:46.743039,39
2021-12-24 16:02:46.743049,68
2021-12-24 16:02:46.743059,101
2021-12-24 16:02:46.743068,85
2021-12-24 16:02:46.743078,62
2021-12-24 16:02:46.743088,41
2021-12-24 16:02:46.743097,34
2021-12-24 16:02:46.743107,29
2021-12-24 16:02:46.743117,2
2021-12-24 16:02:46.743126,-13
2021-12-24 16:02:46.743136,-43
2021-12-24 16:02:46.743146,-89
2021-12-24 16:02:46.743156,-96
2021-12-24 16:02:46.743166,-112
2021-12-24 16:02:46.743175,-165
2021-12-24 16:02:46.743185,-206
2021-12-24 16:02:46.743195,-229
2021-12-24 16:02:46.743205,-232
2021-12-24 16:02:46.743214,-220
2021-12-24 16:02:46.743224,-204
2021-12-24 16:02:47.013282,-186
2021-12-24 16:02:47.013312,-190
2021-12-24 16:02:47.013323,-206
2021-12-24 16:02:47.013333,-209
2021-12-24 16:02:47.013343,-188
2021-12-24 16:02:47.013352,-158
2021-12-24 16:02:47.013362,-154
2021-12-24 16:02:47.013372,-160
2021-12-24 16:02:47.013382,-177
2021-12-24 16:02:47.013391,-195
2021-12-24 16:02:47.013401,-172
2021-12-24 16:02:47.013411,-174
2021-12-24 16:02:47.013421,-183
2021-12-24 16:02:47.013430,-172
2021-12-24 16:02:47.013440,-186
2021-12-24 16:02:47.013450,-188
2021-12-24 16:02:47.013459,-165
2021-12-24 16:02:47.013469,-147
2021-12-24 16:02:47.013479,-131
2021-12-24 16:02:47.013489,-137
2021-12-24 16:02:47.013498,-147
2021-12-24 16:02:47.013508,-137
2021-12-24 16:02:47.013518,-126
2021-12-24 16:02:47.013533,-105
2021-12-24 16:02:47.013543,-103
2021-12-24 16:02:47.013552,-121
2021-12-24 16:02:47.013562,-121
2021-12-24 16:02:47.013572,-119
2021-12-24 16:02:47.013582,-108
2021-12-24 16:02:47.013591,-94
2021-12-24 16:02:47.193309,-78
2021-12-24 16:02:47.193340,-57
2021-12-24 16:02:47.193352,-64
2021-12-24 16:02:47.193362,-64
2021-12-24 16:02:47.193373,-52
2021-12-24 16:02:47.193382,-62
2021-12-24 16:02:47.193392,-43
2021-12-24 16:02:47.193402,-39
2021-12-24 16:02:47.193412,-85
2021-12-24 16:02:47.193422,-98
2021-12-24 16:02:47.193431,-82
2021-12-24 16:02:47.193441,-73
2021-12-24 16:02:47.193451,-78
2021-12-24 16:02:47.193461,-101
2021-12-24 16:02:47.193471,-103
2021-12-24 16:02:47.193481,-87
2021-12-24 16:02:47.193491,-41
2021-12-24 16:02:47.193501,50
2021-12-24 16:02:47.193511,117
2021-12-24 16:02:47.193521,71
2021-12-24 16:02:47.193531,-147
2021-12-24 16:02:47.193541,-351
2021-12-24 16:02:47.193551,-271
2021-12-24 16:02:47.193561,-96
2021-12-24 16:02:47.193571,-66
2021-12-24 16:02:47.193581,-68
2021-12-24 16:02:47.193591,-16
2021-12-24 16:02:47.193601,25
2021-12-24 16:02:47.193611,22
2021-12-24 16:02:47.193620,25
2021-12-24 16:02:47.506353,22
2021-12-24 16:02:47.506375,-13
2021-12-24 16:02:47.506383,-43
2021-12-24 16:02:47.506389,-66
2021-12-24 16:02:47.506396,-91
2021-12-24 16:02:47.506402,-91
2021-12-24 16:02:47.506408,-105
2021-12-24 16:02:47.506415,-110
2021-12-24 16:02:47.506421,-87
2021-12-24 16:02:47.506427,-71
2021-12-24 16:02:47.506434,-55
2021-12-24 16:02:47.506440,-41
2021-12-24 16:02:47.506446,-41
2021-12-24 16:02:47.506453,-32
2021-12-24 16:02:47.506459,-18
2021-12-24 16:02:47.506465,-18
2021-12-24 16:02:47.506472,-34
2021-12-24 16:02:47.506478,-36
2021-12-24 16:02:47.506485,-22
2021-12-24 16:02:47.506491,-20
2021-12-24 16:02:47.506497,-13
2021-12-24 16:02:47.506503,-18
2021-12-24 16:02:47.506510,-57
2021-12-24 16:02:47.506516,-82
2021-12-24 16:02:47.506522,-124
2021-12-24 16:02:47.506528,-167
2021-12-24 16:02:47.506535,-174
2021-12-24 16:02:47.506541,-181
2021-12-24 16:02:47.506547,-188
2021-12-24 16:02:47.506553,-190
2021-12-24 16:02:47.688438,-193
2021-12-24 16:02:47.688469,-167
2021-12-24 16:02:47.688481,-163
2021-12-24 16:02:47.688491,-172
2021-12-24 16:02:47.688501,-160
2021-12-24 16:02:47.688511,-167
2021-12-24 16:02:47.688520,-179
2021-12-24 16:02:47.688530,-167
2021-12-24 16:02:47.688540,-144
2021-12-24 16:02:47.688550,-140
2021-12-24 16:02:47.688560,-140
2021-12-24 16:02:47.688569,-137
2021-12-24 16:02:47.688579,-156
2021-12-24 16:02:47.688589,-154
2021-12-24 16:02:47.688599,-119
2021-12-24 16:02:47.688608,-114
2021-12-24 16:02:47.688618,-112
2021-12-24 16:02:47.688628,-112
2021-12-24 16:02:47.688637,-126
2021-12-24 16:02:47.688647,-98
2021-12-24 16:02:47.688657,-80
2021-12-24 16:02:47.688667,-89
2021-12-24 16:02:47.688677,-85
2021-12-24 16:02:47.688686,-89
2021-12-24 16:02:47.688696,-82
2021-12-24 16:02:47.688706,-59
2021-12-24 16:02:47.688715,-57
2021-12-24 16:02:47.688725,-52
2021-12-24 16:02:47.688735,-43
2021-12-24 16:02:47.688745,-41
2021-12-24 16:02:47.868288,-36
2021-12-24 16:02:47.868318,-22
2021-12-24 16:02:47.868330,-2
2021-12-24 16:02:47.868340,-9
2021-12-24 16:02:47.868349,-9
2021-12-24 16:02:47.868359,-2
2021-12-24 16:02:47.868368,-39
2021-12-24 16:02:47.868378,-52
2021-12-24 16:02:47.868388,-45
2021-12-24 16:02:47.868397,-73
2021-12-24 16:02:47.868407,-85
2021-12-24 16:02:47.868416,-85
2021-12-24 16:02:47.868426,-73
2021-12-24 16:02:47.868435,-43
2021-12-24 16:02:47.868445,-20
2021-12-24 16:02:47.868455,0
2021-12-24 16:02:47.868464,-9
2021-12-24 16:02:47.868474,-41
2021-12-24 16:02:47.868484,-43
2021-12-24 16:02:47.868493,-48
2021-12-24 16:02:47.868503,-55
2021-12-24 16:02:47.868513,-48
2021-12-24 16:02:47.868523,-52
2021-12-24 16:02:47.868532,-45
2021-12-24 16:02:47.868542,-22
2021-12-24 16:02:47.868552,-6
2021-12-24 16:02:47.868561,-6
2021-12-24 16:02:47.868571,-20
2021-12-24 16:02:47.868581,0
2021-12-24 16:02:47.868591,73
2021-12-24 16:02:48.138084,179
2021-12-24 16:02:48.138115,218
2021-12-24 16:02:48.138126,48
2021-12-24 16:02:48.138136,-188
2021-12-24 16:02:48.138146,-197
2021-12-24 16:02:48.138156,-45
2021-12-24 16:02:48.138166,16
2021-12-24 16:02:48.138175,2
2021-12-24 16:02:48.138185,25
2021-12-24 16:02:48.138195,25
2021-12-24 16:02:48.138204,-18
2021-12-24 16:02:48.138214,-16
2021-12-24 16:02:48.138224,11
2021-12-24 16:02:48.138234,22
2021-12-24 16:02:48.138243,29
2021-12-24 16:02:48.138253,18
2021-12-24 16:02:48.138263,20
2021-12-24 16:02:48.138272,39
2021-12-24 16:02:48.138282,45
2021-12-24 16:02:48.138292,50
2021-12-24 16:02:48.138301,25
2021-12-24 16:02:48.138311,-20
2021-12-24 16:02:48.138321,-29
2021-12-24 16:02:48.138330,-4
2021-12-24 16:02:48.138340,20
2021-12-24 16:02:48.138350,11
2021-12-24 16:02:48.138359,-2
2021-12-24 16:02:48.138369,-4
2021-12-24 16:02:48.138379,-22
2021-12-24 16:02:48.138388,-16
2021-12-24 16:02:48.363109,16
2021-12-24 16:02:48.363140,25
2021-12-24 16:02:48.363151,25
2021-12-24 16:02:48.363161,9
2021-12-24 16:02:48.363171,-2
2021-12-24 16:02:48.363181,0
2021-12-24 16:02:48.363191,-16
2021-12-24 16:02:48.363201,-22
2021-12-24 16:02:48.363210,-43
2021-12-24 16:02:48.363220,-98
2021-12-24 16:02:48.363230,-133
2021-12-24 16:02:48.363240,-149
2021-12-24 16:02:48.363250,-170
2021-12-24 16:02:48.363260,-167
2021-12-24 16:02:48.363269,-163
2021-12-24 16:02:48.363279,-190
2021-12-24 16:02:48.363289,-204
2021-12-24 16:02:48.363299,-167
2021-12-24 16:02:48.363309,-133
2021-12-24 16:02:48.363318,-137
2021-12-24 16:02:48.363328,-126
2021-12-24 16:02:48.363338,-126
2021-12-24 16:02:48.363348,-131
2021-12-24 16:02:48.363357,-121
2021-12-24 16:02:48.363367,-121
2021-12-24 16:02:48.363377,-103
2021-12-24 16:02:48.363387,-91
2021-12-24 16:02:48.363396,-117
2021-12-24 16:02:48.363406,-96
2021-12-24 16:02:48.363416,-62
2021-12-24 16:02:48.588102,-48
2021-12-24 16:02:48.588133,-39
2021-12-24 16:02:48.588144,-39
2021-12-24 16:02:48.588155,-41
2021-12-24 16:02:48.588165,-27
2021-12-24 16:02:48.588175,-6
2021-12-24 16:02:48.588185,13
2021-12-24 16:02:48.588194,18
2021-12-24 16:02:48.588204,-2
2021-12-24 16:02:48.588214,-32
2021-12-24 16:02:48.588224,-29
2021-12-24 16:02:48.588234,9
2021-12-24 16:02:48.588243,20
2021-12-24 16:02:48.588253,20
2021-12-24 16:02:48.588263,4
2021-12-24 16:02:48.588273,-27
2021-12-24 16:02:48.588283,-13
2021-12-24 16:02:48.588293,18
2021-12-24 16:02:48.588303,22
2021-12-24 16:02:48.588312,29
2021-12-24 16:02:48.588322,18
2021-12-24 16:02:48.588332,13
2021-12-24 16:02:48.588342,34
2021-12-24 16:02:48.588351,50
2021-12-24 16:02:48.588361,62
2021-12-24 16:02:48.588371,39
2021-12-24 16:02:48.588381,2
2021-12-24 16:02:48.588390,6
2021-12-24 16:02:48.588400,25
2021-12-24 16:02:48.588410,39
2021-12-24 16:02:48.858268,50
2021-12-24 16:02:48.858299,57
2021-12-24 16:02:48.858311,55
2021-12-24 16:02:48.858321,39
2021-12-24 16:02:48.858330,59
2021-12-24 16:02:48.858340,94
2021-12-24 16:02:48.858349,89
2021-12-24 16:02:48.858359,73
2021-12-24 16:02:48.858368,39
2021-12-24 16:02:48.858378,22
2021-12-24 16:02:48.858388,48
2021-12-24 16:02:48.858397,57
2021-12-24 16:02:48.858407,62
2021-12-24 16:02:48.858416,57
2021-12-24 16:02:48.858426,29
2021-12-24 16:02:48.858435,22
2021-12-24 16:02:48.858445,6
2021-12-24 16:02:48.858454,-34
2021-12-24 16:02:48.858464,-39
2021-12-24 16:02:48.858474,-29
2021-12-24 16:02:48.858484,-41
2021-12-24 16:02:48.858493,-66
2021-12-24 16:02:48.858503,-73
2021-12-24 16:02:48.858512,-64
2021-12-24 16:02:48.858522,-75
2021-12-24 16:02:48.858532,-98
2021-12-24 16:02:48.858542,-108
2021-12-24 16:02:48.858551,-128
2021-12-24 16:02:48.858561,-140
2021-12-24 16:02:48.858571,-126
2021-12-24 16:02:49.038253,-87
2021-12-24 16:02:49.038284,-22
2021-12-24 16:02:49.038295,57
2021-12-24 16:02:49.038306,68
2021-12-24 16:02:49.038315,-101
2021-12-24 16:02:49.038325,-275
2021-12-24 16:02:49.038335,-213
2021-12-24 16:02:49.038345,-89
2021-12-24 16:02:49.038355,-80
2021-12-24 16:02:49.038365,-80
2021-12-24 16:02:49.038375,-52
2021-12-24 16:02:49.038385,-39
2021-12-24 16:02:49.038394,-39
2021-12-24 16:02:49.038404,-39
2021-12-24 16:02:49.038414,-36
2021-12-24 16:02:49.038424,-36
2021-12-24 16:02:49.038434,-22
2021-12-24 16:02:49.038449,-9
2021-12-24 16:02:49.038459,-11
2021-12-24 16:02:49.038469,-25
2021-12-24 16:02:49.038479,-34
2021-12-24 16:02:49.038489,-13
2021-12-24 16:02:49.038499,4
2021-12-24 16:02:49.038508,11
2021-12-24 16:02:49.038518,20
2021-12-24 16:02:49.038528,25
2021-12-24 16:02:49.038538,39
2021-12-24 16:02:49.038548,55
2021-12-24 16:02:49.038557,62
2021-12-24 16:02:49.038567,64
2021-12-24 16:02:49.263260,50
2021-12-24 16:02:49.263290,55
2021-12-24 16:02:49.263302,85
2021-12-24 16:02:49.263312,94
2021-12-24 16:02:49.263322,108
2021-12-24 16:02:49.263331,119
2021-12-24 16:02:49.263341,82
2021-12-24 16:02:49.263351,52
2021-12-24 16:02:49.263360,48
2021-12-24 16:02:49.263370,32
2021-12-24 16:02:49.263380,20
2021-12-24 16:02:49.263389,11
2021-12-24 16:02:49.263399,-18
2021-12-24 16:02:49.263409,-48
2021-12-24 16:02:49.263419,-36
2021-12-24 16:02:49.263428,-18
2021-12-24 16:02:49.263438,-20
2021-12-24 16:02:49.263448,-6
2021-12-24 16:02:49.263458,-4
2021-12-24 16:02:49.263467,-18
2021-12-24 16:02:49.263477,-2
2021-12-24 16:02:49.263487,4
2021-12-24 16:02:49.263496,-22
2021-12-24 16:02:49.263506,-57
2021-12-24 16:02:49.263516,-66
2021-12-24 16:02:49.263526,-41
2021-12-24 16:02:49.263535,-29
2021-12-24 16:02:49.263545,-36
2021-12-24 16:02:49.263555,-22
2021-12-24 16:02:49.263565,-18
2021-12-24 16:02:49.531803,-25
2021-12-24 16:02:49.531833,-34
2021-12-24 16:02:49.531845,-55
2021-12-24 16:02:49.531856,-55
2021-12-24 16:02:49.531866,-43
2021-12-24 16:02:49.531875,-55
2021-12-24 16:02:49.531885,-73
2021-12-24 16:02:49.531894,-66
2021-12-24 16:02:49.531904,-39
2021-12-24 16:02:49.531913,-39
2021-12-24 16:02:49.531923,-39
2021-12-24 16:02:49.531933,-36
2021-12-24 16:02:49.531942,-59
2021-12-24 16:02:49.531952,-52
2021-12-24 16:02:49.531962,-36
2021-12-24 16:02:49.531971,-59
2021-12-24 16:02:49.531981,-62
2021-12-24 16:02:49.531991,-45
2021-12-24 16:02:49.532001,-48
2021-12-24 16:02:49.532010,-52
2021-12-24 16:02:49.532020,-71
2021-12-24 16:02:49.532029,-80
2021-12-24 16:02:49.532039,-89
2021-12-24 16:02:49.532049,-112
2021-12-24 16:02:49.532058,-108
2021-12-24 16:02:49.532068,-85
2021-12-24 16:02:49.532078,-71
2021-12-24 16:02:49.532088,-75
2021-12-24 16:02:49.532098,-80
2021-12-24 16:02:49.532107,-68
2021-12-24 16:02:49.712475,-57
2021-12-24 16:02:49.712495,-55
2021-12-24 16:02:49.712503,-57
2021-12-24 16:02:49.712510,-87
2021-12-24 16:02:49.712516,-117
2021-12-24 16:02:49.712523,-131
2021-12-24 16:02:49.712529,-124
2021-12-24 16:02:49.712535,-96
2021-12-24 16:02:49.712542,-87
2021-12-24 16:02:49.712548,-87
2021-12-24 16:02:49.712554,-87
2021-12-24 16:02:49.712561,-110
2021-12-24 16:02:49.712567,-105
2021-12-24 16:02:49.712573,-78
2021-12-24 16:02:49.712580,-71
2021-12-24 16:02:49.712586,-66
2021-12-24 16:02:49.712593,-59
2021-12-24 16:02:49.712599,-41
2021-12-24 16:02:49.712605,-18
2021-12-24 16:02:49.712612,6
2021-12-24 16:02:49.712618,18
2021-12-24 16:02:49.712624,2
2021-12-24 16:02:49.712631,-6
2021-12-24 16:02:49.712637,0
2021-12-24 16:02:49.712644,9
2021-12-24 16:02:49.712650,32
2021-12-24 16:02:49.712656,45
2021-12-24 16:02:49.712663,41
2021-12-24 16:02:49.712669,27
2021-12-24 16:02:49.712675,-6
2021-12-24 16:02:49.983357,-2
2021-12-24 16:02:49.983378,29
2021-12-24 16:02:49.983386,50
2021-12-24 16:02:49.983392,103
2021-12-24 16:02:49.983399,158
2021-12-24 16:02:49.983405,105
2021-12-24 16:02:49.983412,-94
2021-12-24 16:02:49.983418,-245
2021-12-24 16:02:49.983424,-154
2021-12-24 16:02:49.983431,-39
2021-12-24 16:02:49.983437,-59
2021-12-24 16:02:49.983443,-57
2021-12-24 16:02:49.983450,-11
2021-12-24 16:02:49.983456,4
2021-12-24 16:02:49.983463,6
2021-12-24 16:02:49.983469,4
2021-12-24 16:02:49.983475,2
2021-12-24 16:02:49.983482,0
2021-12-24 16:02:49.983488,2
2021-12-24 16:02:49.983495,6
2021-12-24 16:02:49.983501,6
2021-12-24 16:02:49.983507,4
2021-12-24 16:02:49.983514,-4
2021-12-24 16:02:49.983520,-6
2021-12-24 16:02:49.983526,2
2021-12-24 16:02:49.983533,0
2021-12-24 16:02:49.983539,-13
2021-12-24 16:02:49.983545,-34
2021-12-24 16:02:49.983552,-36
2021-12-24 16:02:49.983559,-2
2021-12-24 16:02:50.253240,16
2021-12-24 16:02:50.253271,25
2021-12-24 16:02:50.253283,36
2021-12-24 16:02:50.253293,13
2021-12-24 16:02:50.253303,-11
2021-12-24 16:02:50.253312,9
2021-12-24 16:02:50.253322,39
2021-12-24 16:02:50.253332,29
2021-12-24 16:02:50.253342,-13
2021-12-24 16:02:50.253351,-48
2021-12-24 16:02:50.253361,-68
2021-12-24 16:02:50.253371,-68
2021-12-24 16:02:50.253381,-55
2021-12-24 16:02:50.253391,-62
2021-12-24 16:02:50.253400,-85
2021-12-24 16:02:50.253410,-112
2021-12-24 16:02:50.253420,-126
2021-12-24 16:02:50.253430,-101
2021-12-24 16:02:50.253439,-82
2021-12-24 16:02:50.253449,-78
2021-12-24 16:02:50.253459,-68
2021-12-24 16:02:50.253469,-78
2021-12-24 16:02:50.253479,-71
2021-12-24 16:02:50.253489,-43
2021-12-24 16:02:50.253499,-34
2021-12-24 16:02:50.253508,-29
2021-12-24 16:02:50.253518,-29
2021-12-24 16:02:50.253528,-34
2021-12-24 16:02:50.253537,-25
2021-12-24 16:02:50.253547,-4
2021-12-24 16:02:50.433083,13
2021-12-24 16:02:50.433114,25
2021-12-24 16:02:50.433126,25
2021-12-24 16:02:50.433136,4
2021-12-24 16:02:50.433145,-39
2021-12-24 16:02:50.433155,-59
2021-12-24 16:02:50.433165,-36
2021-12-24 16:02:50.433174,-20
2021-12-24 16:02:50.433184,-27
2021-12-24 16:02:50.433193,-55
2021-12-24 16:02:50.433203,-68
2021-12-24 16:02:50.433212,-48
2021-12-24 16:02:50.433222,-34
2021-12-24 16:02:50.433231,-32
2021-12-24 16:02:50.433241,-57
2021-12-24 16:02:50.433251,-91
2021-12-24 16:02:50.433260,-73
2021-12-24 16:02:50.433270,-48
2021-12-24 16:02:50.433279,-45
2021-12-24 16:02:50.433289,-43
2021-12-24 16:02:50.433298,-59
2021-12-24 16:02:50.433308,-73
2021-12-24 16:02:50.433317,-66
2021-12-24 16:02:50.433327,-52
2021-12-24 16:02:50.433336,-43
2021-12-24 16:02:50.433346,-39
2021-12-24 16:02:50.433356,-45
2021-12-24 16:02:50.433365,-50
2021-12-24 16:02:50.433375,-34
2021-12-24 16:02:50.433384,-9
2021-12-24 16:02:50.703149,2
2021-12-24 16:02:50.703172,-2
2021-12-24 16:02:50.703180,-18
2021-12-24 16:02:50.703186,-29
2021-12-24 16:02:50.703193,-9
2021-12-24 16:02:50.703199,4
2021-12-24 16:02:50.703206,4
2021-12-24 16:02:50.703212,-2
2021-12-24 16:02:50.703219,-39
2021-12-24 16:02:50.703225,-52
2021-12-24 16:02:50.703231,-32
2021-12-24 16:02:50.703238,-29
2021-12-24 16:02:50.703244,-36
2021-12-24 16:02:50.703251,-43
2021-12-24 16:02:50.703257,-73
2021-12-24 16:02:50.703263,-101
2021-12-24 16:02:50.703270,-89
2021-12-24 16:02:50.703276,-57
2021-12-24 16:02:50.703283,-55
2021-12-24 16:02:50.703289,-55
2021-12-24 16:02:50.703296,-43
2021-12-24 16:02:50.703302,-50
2021-12-24 16:02:50.703308,-41
2021-12-24 16:02:50.703315,-11
2021-12-24 16:02:50.703321,-4
2021-12-24 16:02:50.703328,6
2021-12-24 16:02:50.703334,62
2021-12-24 16:02:50.703341,137
2021-12-24 16:02:50.703347,126
2021-12-24 16:02:50.703354,-64
2021-12-24 16:02:50.928245,-236
2021-12-24 16:02:50.928276,-154
2021-12-24 16:02:50.928287,2
2021-12-24 16:02:50.928297,9
2021-12-24 16:02:50.928307,-2
2021-12-24 16:02:50.928317,45
2021-12-24 16:02:50.928327,48
2021-12-24 16:02:50.928336,6
2021-12-24 16:02:50.928346,-6
2021-12-24 16:02:50.928356,-36
2021-12-24 16:02:50.928366,-68
2021-12-24 16:02:50.928375,-50
2021-12-24 16:02:50.928385,-22
2021-12-24 16:02:50.928395,-29
2021-12-24 16:02:50.928405,-50
2021-12-24 16:02:50.928414,-41
2021-12-24 16:02:50.928424,-11
2021-12-24 16:02:50.928434,2
2021-12-24 16:02:50.928444,4
2021-12-24 16:02:50.928454,-9
2021-12-24 16:02:50.928463,-9
2021-12-24 16:02:50.928473,18
2021-12-24 16:02:50.928483,34
2021-12-24 16:02:50.928493,50
2021-12-24 16:02:50.928502,64
2021-12-24 16:02:50.928512,62
2021-12-24 16:02:50.928522,52
2021-12-24 16:02:50.928532,45
2021-12-24 16:02:50.928541,57
2021-12-24 16:02:50.928551,82
2021-12-24 16:02:51.108060,71
2021-12-24 16:02:51.108090,43
2021-12-24 16:02:51.108102,11
2021-12-24 16:02:51.108112,-29
2021-12-24 16:02:51.108122,-62
2021-12-24 16:02:51.108132,-75
2021-12-24 16:02:51.108141,-89
2021-12-24 16:02:51.108151,-105
2021-12-24 16:02:51.108161,-114
2021-12-24 16:02:51.108171,-114
2021-12-24 16:02:51.108180,-119
2021-12-24 16:02:51.108190,-128
2021-12-24 16:02:51.108200,-142
2021-12-24 16:02:51.108209,-160
2021-12-24 16:02:51.108219,-147
2021-12-24 16:02:51.108229,-149
2021-12-24 16:02:51.108238,-177
2021-12-24 16:02:51.108248,-165
2021-12-24 16:02:51.108258,-165
2021-12-24 16:02:51.108267,-172
2021-12-24 16:02:51.108277,-147
2021-12-24 16:02:51.108287,-133
2021-12-24 16:02:51.108296,-126
2021-12-24 16:02:51.108306,-114
2021-12-24 16:02:51.108315,-110
2021-12-24 16:02:51.108325,-96
2021-12-24 16:02:51.108335,-80
2021-12-24 16:02:51.108344,-68
2021-12-24 16:02:51.108354,-52
2021-12-24 16:02:51.108364,-43
2021-12-24 16:02:51.332373,-43
2021-12-24 16:02:51.332391,-43
2021-12-24 16:02:51.332399,-27
2021-12-24 16:02:51.332405,-22
2021-12-24 16:02:51.332412,-25
2021-12-24 16:02:51.332418,-29
2021-12-24 16:02:51.332424,-45
2021-12-24 16:02:51.332431,-39
2021-12-24 16:02:51.332437,-13
2021-12-24 16:02:51.332443,-22
2021-12-24 16:02:51.332450,-20
2021-12-24 16:02:51.332456,-16
2021-12-24 16:02:51.332463,-45
2021-12-24 16:02:51.332469,-36
2021-12-24 16:02:51.332479,-20
2021-12-24 16:02:51.332485,-64
2021-12-24 16:02:51.332491,-87
2021-12-24 16:02:51.332498,-68
2021-12-24 16:02:51.332504,-73
2021-12-24 16:02:51.332511,-78
2021-12-24 16:02:51.332517,-55
2021-12-24 16:02:51.332523,-41
2021-12-24 16:02:51.332530,-48
2021-12-24 16:02:51.332536,-41
2021-12-24 16:02:51.332543,-27
2021-12-24 16:02:51.332549,-20
2021-12-24 16:02:51.332555,-6
2021-12-24 16:02:51.332562,-9
2021-12-24 16:02:51.332568,-6
2021-12-24 16:02:51.332575,4
2021-12-24 16:02:51.601796,13
2021-12-24 16:02:51.601815,39
2021-12-24 16:02:51.601823,62
2021-12-24 16:02:51.601830,64
2021-12-24 16:02:51.601836,45
2021-12-24 16:02:51.601843,9
2021-12-24 16:02:51.601849,4
2021-12-24 16:02:51.601856,27
2021-12-24 16:02:51.601862,34
2021-12-24 16:02:51.601868,32
2021-12-24 16:02:51.601875,25
2021-12-24 16:02:51.601881,9
2021-12-24 16:02:51.601887,11
2021-12-24 16:02:51.601894,29
2021-12-24 16:02:51.601900,43
2021-12-24 16:02:51.601907,50
2021-12-24 16:02:51.601913,98
2021-12-24 16:02:51.601920,202
2021-12-24 16:02:51.601926,250
2021-12-24 16:02:51.601933,117
2021-12-24 16:02:51.601939,-128
2021-12-24 16:02:51.601946,-195
2021-12-24 16:02:51.601952,-62
2021-12-24 16:02:51.601958,-6
2021-12-24 16:02:51.601965,-20
2021-12-24 16:02:51.601971,6
2021-12-24 16:02:51.601978,0
2021-12-24 16:02:51.601984,-34
2021-12-24 16:02:51.601990,-43
2021-12-24 16:02:51.601997,-55
2021-12-24 16:02:51.782286,-62
2021-12-24 16:02:51.782301,-45
2021-12-24 16:02:51.782306,-34
2021-12-24 16:02:51.782311,-52
2021-12-24 16:02:51.782315,-94
2021-12-24 16:02:51.782320,-94
2021-12-24 16:02:51.782324,-66
2021-12-24 16:02:51.782329,-52
2021-12-24 16:02:51.782333,-45
2021-12-24 16:02:51.782337,-52
2021-12-24 16:02:51.782342,-71
2021-12-24 16:02:51.782346,-68
2021-12-24 16:02:51.782351,-36
2021-12-24 16:02:51.782355,0
2021-12-24 16:02:51.782360,6
2021-12-24 16:02:51.782364,2
2021-12-24 16:02:51.782369,-2
2021-12-24 16:02:51.782373,16
2021-12-24 16:02:51.782378,55
2021-12-24 16:02:51.782382,64
2021-12-24 16:02:51.782386,36
2021-12-24 16:02:51.782391,-11
2021-12-24 16:02:51.782395,-50
2021-12-24 16:02:51.782400,-39
2021-12-24 16:02:51.782404,-29
2021-12-24 16:02:51.782408,-43
2021-12-24 16:02:51.782413,-48
2021-12-24 16:02:51.782417,-66
2021-12-24 16:02:51.782422,-75
2021-12-24 16:02:51.782426,-55
2021-12-24 16:02:52.053266,-45
2021-12-24 16:02:52.053297,-45
2021-12-24 16:02:52.053308,-39
2021-12-24 16:02:52.053318,-59
2021-12-24 16:02:52.053328,-82
2021-12-24 16:02:52.053338,-64
2021-12-24 16:02:52.053347,-27
2021-12-24 16:02:52.053357,-16
2021-12-24 16:02:52.053367,-18
2021-12-24 16:02:52.053376,-36
2021-12-24 16:02:52.053386,-62
2021-12-24 16:02:52.053396,-36
2021-12-24 16:02:52.053406,2
2021-12-24 16:02:52.053416,2
2021-12-24 16:02:52.053425,9
2021-12-24 16:02:52.053435,11
2021-12-24 16:02:52.053445,2
2021-12-24 16:02:52.053454,16
2021-12-24 16:02:52.053464,34
2021-12-24 16:02:52.053474,48
2021-12-24 16:02:52.053483,52
2021-12-24 16:02:52.053493,34
2021-12-24 16:02:52.053502,34
2021-12-24 16:02:52.053512,39
2021-12-24 16:02:52.053522,20
2021-12-24 16:02:52.053531,20
2021-12-24 16:02:52.053541,29
2021-12-24 16:02:52.053551,25
2021-12-24 16:02:52.053560,25
2021-12-24 16:02:52.053570,48
2021-12-24 16:02:52.277606,66
2021-12-24 16:02:52.277627,62
2021-12-24 16:02:52.277634,59
2021-12-24 16:02:52.277639,52
2021-12-24 16:02:52.277644,55
2021-12-24 16:02:52.277649,82
2021-12-24 16:02:52.277654,96
2021-12-24 16:02:52.277659,96
2021-12-24 16:02:52.277665,80
2021-12-24 16:02:52.277670,43
2021-12-24 16:02:52.277675,50
2021-12-24 16:02:52.277680,85
2021-12-24 16:02:52.277685,89
2021-12-24 16:02:52.277690,85
2021-12-24 16:02:52.277695,66
2021-12-24 16:02:52.277700,36
2021-12-24 16:02:52.277705,39
2021-12-24 16:02:52.277710,64
2021-12-24 16:02:52.277715,85
2021-12-24 16:02:52.277720,87
2021-12-24 16:02:52.277726,85
2021-12-24 16:02:52.277731,82
2021-12-24 16:02:52.277736,85
2021-12-24 16:02:52.277741,103
2021-12-24 16:02:52.277746,101
2021-12-24 16:02:52.277751,68
2021-12-24 16:02:52.277756,25
2021-12-24 16:02:52.277761,-2
2021-12-24 16:02:52.277766,16
2021-12-24 16:02:52.277771,39
2021-12-24 16:02:52.503099,22
2021-12-24 16:02:52.503130,-6
2021-12-24 16:02:52.503142,-39
2021-12-24 16:02:52.503152,-66
2021-12-24 16:02:52.503162,-57
2021-12-24 16:02:52.503172,-39
2021-12-24 16:02:52.503182,-29
2021-12-24 16:02:52.503192,-45
2021-12-24 16:02:52.503202,-80
2021-12-24 16:02:52.503211,-82
2021-12-24 16:02:52.503221,-64
2021-12-24 16:02:52.503231,-48
2021-12-24 16:02:52.503241,-11
2021-12-24 16:02:52.503251,48
2021-12-24 16:02:52.503261,103
2021-12-24 16:02:52.503271,62
2021-12-24 16:02:52.503280,-121
2021-12-24 16:02:52.503290,-255
2021-12-24 16:02:52.503300,-158
2021-12-24 16:02:52.503310,-27
2021-12-24 16:02:52.503320,-36
2021-12-24 16:02:52.503330,-39
2021-12-24 16:02:52.503339,6
2021-12-24 16:02:52.503349,18
2021-12-24 16:02:52.503359,22
2021-12-24 16:02:52.503369,32
2021-12-24 16:02:52.503379,13
2021-12-24 16:02:52.503389,4
2021-12-24 16:02:52.503398,0
2021-12-24 16:02:52.503408,-2
2021-12-24 16:02:52.772591,11
2021-12-24 16:02:52.772613,16
2021-12-24 16:02:52.772621,16
2021-12-24 16:02:52.772627,22
2021-12-24 16:02:52.772634,34
2021-12-24 16:02:52.772640,59
2021-12-24 16:02:52.772646,62
2021-12-24 16:02:52.772653,48
2021-12-24 16:02:52.772659,43
2021-12-24 16:02:52.772666,55
2021-12-24 16:02:52.772672,80
2021-12-24 16:02:52.772679,103
2021-12-24 16:02:52.772685,112
2021-12-24 16:02:52.772692,98
2021-12-24 16:02:52.772698,89
2021-12-24 16:02:52.772705,114
2021-12-24 16:02:52.772711,131
2021-12-24 16:02:52.772718,131
2021-12-24 16:02:52.772724,137
2021-12-24 16:02:52.772731,124
2021-12-24 16:02:52.772737,96
2021-12-24 16:02:52.772744,78
2021-12-24 16:02:52.772750,68
2021-12-24 16:02:52.772757,75
2021-12-24 16:02:52.772763,66
2021-12-24 16:02:52.772770,48
2021-12-24 16:02:52.772776,48
2021-12-24 16:02:52.772783,41
2021-12-24 16:02:52.772790,39
2021-12-24 16:02:52.772796,39
2021-12-24 16:02:52.997059,11
2021-12-24 16:02:52.997089,-16
2021-12-24 16:02:52.997101,-43
2021-12-24 16:02:52.997112,-62
2021-12-24 16:02:52.997122,-50
2021-12-24 16:02:52.997132,-34
2021-12-24 16:02:52.997141,-39
2021-12-24 16:02:52.997151,-43
2021-12-24 16:02:52.997161,-27
2021-12-24 16:02:52.997171,-9
2021-12-24 16:02:52.997181,-2
2021-12-24 16:02:52.997191,11
2021-12-24 16:02:52.997202,-9
2021-12-24 16:02:52.997212,-34
2021-12-24 16:02:52.997222,-13
2021-12-24 16:02:52.997232,2
2021-12-24 16:02:52.997241,4
2021-12-24 16:02:52.997251,34
2021-12-24 16:02:52.997261,68
2021-12-24 16:02:52.997271,87
2021-12-24 16:02:52.997281,-32
2021-12-24 16:02:52.997291,-266
2021-12-24 16:02:52.997301,-275
2021-12-24 16:02:52.997311,-68
2021-12-24 16:02:52.997321,25
2021-12-24 16:02:52.997331,25
2021-12-24 16:02:52.997341,59
2021-12-24 16:02:52.997350,68
2021-12-24 16:02:52.997360,52
2021-12-24 16:02:52.997370,62
2021-12-24 16:02:53.177917,66
2021-12-24 16:02:53.177939,55
2021-12-24 16:02:53.177947,45
2021-12-24 16:02:53.177954,34
2021-12-24 16:02:53.177960,43
2021-12-24 16:02:53.177966,50
2021-12-24 16:02:53.177973,25
2021-12-24 16:02:53.177979,13
2021-12-24 16:02:53.177986,18
2021-12-24 16:02:53.177992,11
2021-12-24 16:02:53.177998,22
2021-12-24 16:02:53.178005,16
2021-12-24 16:02:53.178011,-18
2021-12-24 16:02:53.178018,-22
2021-12-24 16:02:53.178024,-4
2021-12-24 16:02:53.178031,-9
2021-12-24 16:02:53.178037,-18
2021-12-24 16:02:53.178044,-11
2021-12-24 16:02:53.178050,-4
2021-12-24 16:02:53.178057,0
2021-12-24 16:02:53.178063,13
2021-12-24 16:02:53.178070,13
2021-12-24 16:02:53.178076,-4
2021-12-24 16:02:53.178083,-22
2021-12-24 16:02:53.178089,-41
2021-12-24 16:02:53.178096,-45
2021-12-24 16:02:53.178102,-55
2021-12-24 16:02:53.178109,-75
2021-12-24 16:02:53.178115,-73
2021-12-24 16:02:53.178122,-71
2021-12-24 16:02:53.402941,-75
2021-12-24 16:02:53.402963,-59
2021-12-24 16:02:53.402970,-48
2021-12-24 16:02:53.402977,-59
2021-12-24 16:02:53.402983,-96
2021-12-24 16:02:53.402990,-128
2021-12-24 16:02:53.402996,-108
2021-12-24 16:02:53.403002,-96
2021-12-24 16:02:53.403009,-144
2021-12-24 16:02:53.403015,-179
2021-12-24 16:02:53.403022,-174
2021-12-24 16:02:53.403028,-179
2021-12-24 16:02:53.403034,-177
2021-12-24 16:02:53.403041,-144
2021-12-24 16:02:53.403047,-126
2021-12-24 16:02:53.403053,-135
2021-12-24 16:02:53.403060,-128
2021-12-24 16:02:53.403066,-114
2021-12-24 16:02:53.403072,-105
2021-12-24 16:02:53.403079,-89
2021-12-24 16:02:53.403085,-82
2021-12-24 16:02:53.403092,-82
2021-12-24 16:02:53.403098,-80
2021-12-24 16:02:53.403104,-82
2021-12-24 16:02:53.403111,-64
2021-12-24 16:02:53.403117,-48
2021-12-24 16:02:53.403124,-52
2021-12-24 16:02:53.403130,-55
2021-12-24 16:02:53.403137,-59
2021-12-24 16:02:53.403143,-62
2021-12-24 16:02:53.671852,-48
2021-12-24 16:02:53.671873,-39
2021-12-24 16:02:53.671880,-34
2021-12-24 16:02:53.671887,-52
2021-12-24 16:02:53.671894,-85
2021-12-24 16:02:53.671900,-103
2021-12-24 16:02:53.671906,-119
2021-12-24 16:02:53.671913,-124
2021-12-24 16:02:53.671919,-110
2021-12-24 16:02:53.671925,-117
2021-12-24 16:02:53.671931,-142
2021-12-24 16:02:53.671938,-147
2021-12-24 16:02:53.671944,-117
2021-12-24 16:02:53.671951,-98
2021-12-24 16:02:53.671957,-94
2021-12-24 16:02:53.671964,-91
2021-12-24 16:02:53.671970,-96
2021-12-24 16:02:53.671976,-80
2021-12-24 16:02:53.671983,-55
2021-12-24 16:02:53.671989,-50
2021-12-24 16:02:53.671996,-41
2021-12-24 16:02:53.672002,-41
2021-12-24 16:02:53.672009,-52
2021-12-24 16:02:53.672015,-34
2021-12-24 16:02:53.672021,-11
2021-12-24 16:02:53.672028,2
2021-12-24 16:02:53.672034,16
2021-12-24 16:02:53.672041,9
2021-12-24 16:02:53.672047,0
2021-12-24 16:02:53.672054,11
2021-12-24 16:02:53.942374,29
2021-12-24 16:02:53.942404,41
2021-12-24 16:02:53.942416,36
2021-12-24 16:02:53.942426,11
2021-12-24 16:02:53.942436,-16
2021-12-24 16:02:53.942445,-6
2021-12-24 16:02:53.942455,22
2021-12-24 16:02:53.942465,16
2021-12-24 16:02:53.942474,-20
2021-12-24 16:02:53.942484,-59
2021-12-24 16:02:53.942494,-73
2021-12-24 16:02:53.942504,-39
2021-12-24 16:02:53.942513,-16
2021-12-24 16:02:53.942523,-48
2021-12-24 16:02:53.942533,-91
2021-12-24 16:02:53.942542,-105
2021-12-24 16:02:53.942552,-89
2021-12-24 16:02:53.942562,-59
2021-12-24 16:02:53.942572,-34
2021-12-24 16:02:53.942587,-27
2021-12-24 16:02:53.942596,-25
2021-12-24 16:02:53.942606,22
2021-12-24 16:02:53.942616,91
2021-12-24 16:02:53.942626,124
2021-12-24 16:02:53.942635,158
2021-12-24 16:02:53.942645,262
2021-12-24 16:02:53.942655,386
2021-12-24 16:02:53.942665,386
2021-12-24 16:02:53.942674,213
2021-12-24 16:02:53.942684,112
2021-12-24 16:02:54.123250,245
2021-12-24 16:02:54.123281,372
2021-12-24 16:02:54.123293,358
2021-12-24 16:02:54.123303,358
2021-12-24 16:02:54.123313,393
2021-12-24 16:02:54.123322,402
2021-12-24 16:02:54.123332,400
2021-12-24 16:02:54.123342,434
2021-12-24 16:02:54.123351,436
2021-12-24 16:02:54.123361,360
2021-12-24 16:02:54.123371,303
2021-12-24 16:02:54.123381,317
2021-12-24 16:02:54.123391,347
2021-12-24 16:02:54.123400,328
2021-12-24 16:02:54.123410,280
2021-12-24 16:02:54.123420,266
2021-12-24 16:02:54.123429,280
2021-12-24 16:02:54.123439,278
2021-12-24 16:02:54.123449,271
2021-12-24 16:02:54.123458,278
2021-12-24 16:02:54.123468,271
2021-12-24 16:02:54.123478,266
2021-12-24 16:02:54.123487,308
2021-12-24 16:02:54.123497,342
2021-12-24 16:02:54.123507,317
2021-12-24 16:02:54.123516,317
2021-12-24 16:02:54.123526,342
2021-12-24 16:02:54.123536,340
2021-12-24 16:02:54.123546,356
2021-12-24 16:02:54.123555,381
2021-12-24 16:02:54.438072,390
2021-12-24 16:02:54.438102,381
2021-12-24 16:02:54.438114,340
2021-12-24 16:02:54.438124,319
2021-12-24 16:02:54.438133,314
2021-12-24 16:02:54.438143,312
2021-12-24 16:02:54.438153,324
2021-12-24 16:02:54.438163,296
2021-12-24 16:02:54.438172,250
2021-12-24 16:02:54.438182,248
2021-12-24 16:02:54.438192,264
2021-12-24 16:02:54.438202,268
2021-12-24 16:02:54.438212,252
2021-12-24 16:02:54.438221,239
2021-12-24 16:02:54.438231,229
2021-12-24 16:02:54.438241,216
2021-12-24 16:02:54.438251,234
2021-12-24 16:02:54.438260,248
2021-12-24 16:02:54.438270,227
2021-12-24 16:02:54.438280,200
2021-12-24 16:02:54.438290,174
2021-12-24 16:02:54.438299,179
2021-12-24 16:02:54.438309,183
2021-12-24 16:02:54.438319,167
2021-12-24 16:02:54.438329,177
2021-12-24 16:02:54.438338,174
2021-12-24 16:02:54.438348,156
2021-12-24 16:02:54.438358,158
2021-12-24 16:02:54.438368,165
2021-12-24 16:02:54.438378,172
2021-12-24 16:02:54.572453,174
2021-12-24 16:02:54.572473,170
2021-12-24 16:02:54.572481,167
2021-12-24 16:02:54.572488,158
2021-12-24 16:02:54.572494,163
2021-12-24 16:02:54.572501,179
2021-12-24 16:02:54.572507,177
2021-12-24 16:02:54.572513,165
2021-12-24 16:02:54.572520,149
2021-12-24 16:02:54.572527,151
2021-12-24 16:02:54.572533,165
2021-12-24 16:02:54.572540,167
2021-12-24 16:02:54.572546,186
2021-12-24 16:02:54.572553,190
2021-12-24 16:02:54.572559,160
2021-12-24 16:02:54.572565,142
2021-12-24 16:02:54.572572,140
2021-12-24 16:02:54.572578,147
2021-12-24 16:02:54.572585,135
2021-12-24 16:02:54.572591,101
2021-12-24 16:02:54.572598,89
2021-12-24 16:02:54.572604,96
2021-12-24 16:02:54.572610,103
2021-12-24 16:02:54.572617,112
2021-12-24 16:02:54.572623,80
2021-12-24 16:02:54.572629,43
2021-12-24 16:02:54.572636,39
2021-12-24 16:02:54.572642,39
2021-12-24 16:02:54.572649,41
2021-12-24 16:02:54.572655,48
2021-12-24 16:02:54.798088,43
2021-12-24 16:02:54.798119,22
2021-12-24 16:02:54.798130,-9
2021-12-24 16:02:54.798140,-25
2021-12-24 16:02:54.798150,-32
2021-12-24 16:02:54.798160,-43
2021-12-24 16:02:54.798169,-64
2021-12-24 16:02:54.798179,-96
2021-12-24 16:02:54.798188,-91
2021-12-24 16:02:54.798198,-78
2021-12-24 16:02:54.798208,-75
2021-12-24 16:02:54.798217,-68
2021-12-24 16:02:54.798227,-103
2021-12-24 16:02:54.798236,-140
2021-12-24 16:02:54.798246,-137
2021-12-24 16:02:54.798256,-147
2021-12-24 16:02:54.798265,-167
2021-12-24 16:02:54.798275,-179
2021-12-24 16:02:54.798285,-181
2021-12-24 16:02:54.798294,-174
2021-12-24 16:02:54.798304,-163
2021-12-24 16:02:54.798313,-147
2021-12-24 16:02:54.798323,-135
2021-12-24 16:02:54.798333,-105
2021-12-24 16:02:54.798342,-29
2021-12-24 16:02:54.798352,4
2021-12-24 16:02:54.798362,-87
2021-12-24 16:02:54.798371,-294
2021-12-24 16:02:54.798381,-404
2021-12-24 16:02:54.798391,-278
2021-12-24 16:02:55.067692,-174
2021-12-24 16:02:55.067724,-193
2021-12-24 16:02:55.067736,-193
2021-12-24 16:02:55.067746,-188
2021-12-24 16:02:55.067756,-200
2021-12-24 16:02:55.067765,-216
2021-12-24 16:02:55.067775,-245
2021-12-24 16:02:55.067785,-243
2021-12-24 16:02:55.067795,-236
2021-12-24 16:02:55.067804,-245
2021-12-24 16:02:55.067814,-245
2021-12-24 16:02:55.067824,-275
2021-12-24 16:02:55.067834,-312
2021-12-24 16:02:55.067843,-287
2021-12-24 16:02:55.067853,-262
2021-12-24 16:02:55.067863,-285
2021-12-24 16:02:55.067873,-308
2021-12-24 16:02:55.067882,-294
2021-12-24 16:02:55.067892,-298
2021-12-24 16:02:55.067902,-317
2021-12-24 16:02:55.067912,-310
2021-12-24 16:02:55.067921,-303
2021-12-24 16:02:55.067931,-285
2021-12-24 16:02:55.067941,-257
2021-12-24 16:02:55.067950,-245
2021-12-24 16:02:55.067960,-213
2021-12-24 16:02:55.067970,-188
2021-12-24 16:02:55.067979,-160
2021-12-24 16:02:55.067989,-108
2021-12-24 16:02:55.067999,-105
2021-12-24 16:02:55.248300,-135
2021-12-24 16:02:55.248331,-137
2021-12-24 16:02:55.248342,-140
2021-12-24 16:02:55.248352,-154
2021-12-24 16:02:55.248362,-172
2021-12-24 16:02:55.248372,-195
2021-12-24 16:02:55.248382,-197
2021-12-24 16:02:55.248391,-193
2021-12-24 16:02:55.248401,-209
2021-12-24 16:02:55.248411,-213
2021-12-24 16:02:55.248421,-167
2021-12-24 16:02:55.248431,-149
2021-12-24 16:02:55.248440,-174
2021-12-24 16:02:55.248450,-170
2021-12-24 16:02:55.248460,-177
2021-12-24 16:02:55.248470,-234
2021-12-24 16:02:55.248480,-262
2021-12-24 16:02:55.248489,-236
2021-12-24 16:02:55.248499,-229
2021-12-24 16:02:55.248509,-262
2021-12-24 16:02:55.248519,-248
2021-12-24 16:02:55.248528,-151
2021-12-24 16:02:55.248538,-98
2021-12-24 16:02:55.248548,-131
2021-12-24 16:02:55.248557,-183
2021-12-24 16:02:55.248567,-193
2021-12-24 16:02:55.248577,-170
2021-12-24 16:02:55.248587,-223
2021-12-24 16:02:55.248596,-296
2021-12-24 16:02:55.248606,-275
2021-12-24 16:02:55.473101,-266
2021-12-24 16:02:55.473131,-312
2021-12-24 16:02:55.473143,-317
2021-12-24 16:02:55.473153,-298
2021-12-24 16:02:55.473163,-314
2021-12-24 16:02:55.473172,-333
2021-12-24 16:02:55.473182,-303
2021-12-24 16:02:55.473192,-264
2021-12-24 16:02:55.473201,-255
2021-12-24 16:02:55.473211,-259
2021-12-24 16:02:55.473221,-271
2021-12-24 16:02:55.473230,-268
2021-12-24 16:02:55.473240,-234
2021-12-24 16:02:55.473250,-209
2021-12-24 16:02:55.473260,-202
2021-12-24 16:02:55.473269,-197
2021-12-24 16:02:55.473279,-200
2021-12-24 16:02:55.473289,-165
2021-12-24 16:02:55.473299,-128
2021-12-24 16:02:55.473308,-117
2021-12-24 16:02:55.473318,-103
2021-12-24 16:02:55.473328,-103
2021-12-24 16:02:55.473337,-124
2021-12-24 16:02:55.473347,-128
2021-12-24 16:02:55.473357,-103
2021-12-24 16:02:55.473366,-78
2021-12-24 16:02:55.473376,-75
2021-12-24 16:02:55.473386,-80
2021-12-24 16:02:55.473396,-73
2021-12-24 16:02:55.473405,-66
2021-12-24 16:02:55.787067,-50
2021-12-24 16:02:55.787088,-32
2021-12-24 16:02:55.787096,-20
2021-12-24 16:02:55.787102,-4
2021-12-24 16:02:55.787108,48
2021-12-24 16:02:55.787115,114
2021-12-24 16:02:55.787121,27
2021-12-24 16:02:55.787127,-213
2021-12-24 16:02:55.787134,-266
2021-12-24 16:02:55.787140,-110
2021-12-24 16:02:55.787146,-43
2021-12-24 16:02:55.787152,-52
2021-12-24 16:02:55.787158,-18
2021-12-24 16:02:55.787165,13
2021-12-24 16:02:55.787171,6
2021-12-24 16:02:55.787178,-11
2021-12-24 16:02:55.787184,0
2021-12-24 16:02:55.787190,18
2021-12-24 16:02:55.787196,36
2021-12-24 16:02:55.787203,50
2021-12-24 16:02:55.787209,41
2021-12-24 16:02:55.787215,29
2021-12-24 16:02:55.787221,39
2021-12-24 16:02:55.787228,57
2021-12-24 16:02:55.787234,48
2021-12-24 16:02:55.787240,27
2021-12-24 16:02:55.787246,39
2021-12-24 16:02:55.787253,50
2021-12-24 16:02:55.787259,50
2021-12-24 16:02:55.787265,75
2021-12-24 16:02:55.968297,96
2021-12-24 16:02:55.968327,112
2021-12-24 16:02:55.968339,126
2021-12-24 16:02:55.968349,108
2021-12-24 16:02:55.968359,87
2021-12-24 16:02:55.968369,80
2021-12-24 16:02:55.968378,57
2021-12-24 16:02:55.968388,32
2021-12-24 16:02:55.968398,4
2021-12-24 16:02:55.968408,-50
2021-12-24 16:02:55.968418,-94
2021-12-24 16:02:55.968427,-105
2021-12-24 16:02:55.968437,-124
2021-12-24 16:02:55.968447,-158
2021-12-24 16:02:55.968456,-200
2021-12-24 16:02:55.968466,-245
2021-12-24 16:02:55.968476,-243
2021-12-24 16:02:55.968486,-204
2021-12-24 16:02:55.968495,-195
2021-12-24 16:02:55.968505,-193
2021-12-24 16:02:55.968515,-186
2021-12-24 16:02:55.968525,-197
2021-12-24 16:02:55.968535,-179
2021-12-24 16:02:55.968544,-147
2021-12-24 16:02:55.968554,-142
2021-12-24 16:02:55.968564,-135
2021-12-24 16:02:55.968574,-142
2021-12-24 16:02:55.968584,-156
2021-12-24 16:02:55.968594,-135
2021-12-24 16:02:55.968604,-103
2021-12-24 16:02:56.193342,-87
2021-12-24 16:02:56.193372,-85
2021-12-24 16:02:56.193383,-98
2021-12-24 16:02:56.193393,-98
2021-12-24 16:02:56.193403,-78
2021-12-24 16:02:56.193413,-55
2021-12-24 16:02:56.193422,-41
2021-12-24 16:02:56.193432,-52
2021-12-24 16:02:56.193442,-80
2021-12-24 16:02:56.193451,-94
2021-12-24 16:02:56.193461,-73
2021-12-24 16:02:56.193471,-50
2021-12-24 16:02:56.193480,-45
2021-12-24 16:02:56.193490,-50
2021-12-24 16:02:56.193500,-75
2021-12-24 16:02:56.193510,-82
2021-12-24 16:02:56.193519,-59
2021-12-24 16:02:56.193529,-50
2021-12-24 16:02:56.193539,-34
2021-12-24 16:02:56.193548,-20
2021-12-24 16:02:56.193558,-36
2021-12-24 16:02:56.193568,-39
2021-12-24 16:02:56.193577,-20
2021-12-24 16:02:56.193587,-4
2021-12-24 16:02:56.193597,4
2021-12-24 16:02:56.193607,0
2021-12-24 16:02:56.193617,0
2021-12-24 16:02:56.193626,6
2021-12-24 16:02:56.193636,6
2021-12-24 16:02:56.193646,2
2021-12-24 16:02:56.417657,4
2021-12-24 16:02:56.417691,2
2021-12-24 16:02:56.417698,-6
2021-12-24 16:02:56.417704,-11
2021-12-24 16:02:56.417709,0
2021-12-24 16:02:56.417714,11
2021-12-24 16:02:56.417719,20
2021-12-24 16:02:56.417724,6
2021-12-24 16:02:56.417729,-27
2021-12-24 16:02:56.417734,-22
2021-12-24 16:02:56.417739,0
2021-12-24 16:02:56.417744,-13
2021-12-24 16:02:56.417750,-39
2021-12-24 16:02:56.417755,-13
2021-12-24 16:02:56.417760,75
2021-12-24 16:02:56.417765,80
2021-12-24 16:02:56.417770,-105
2021-12-24 16:02:56.417775,-278
2021-12-24 16:02:56.417780,-204
2021-12-24 16:02:56.417785,-52
2021-12-24 16:02:56.417790,-32
2021-12-24 16:02:56.417795,-39
2021-12-24 16:02:56.417800,0
2021-12-24 16:02:56.417805,16
2021-12-24 16:02:56.417810,6
2021-12-24 16:02:56.417815,16
2021-12-24 16:02:56.417820,27
2021-12-24 16:02:56.417825,32
2021-12-24 16:02:56.417830,41
2021-12-24 16:02:56.417835,36
2021-12-24 16:02:56.687735,32
2021-12-24 16:02:56.687765,27
2021-12-24 16:02:56.687777,36
2021-12-24 16:02:56.687788,45
2021-12-24 16:02:56.687798,50
2021-12-24 16:02:56.687808,68
2021-12-24 16:02:56.687818,62
2021-12-24 16:02:56.687828,39
2021-12-24 16:02:56.687838,57
2021-12-24 16:02:56.687848,75
2021-12-24 16:02:56.687857,85
2021-12-24 16:02:56.687867,105
2021-12-24 16:02:56.687877,98
2021-12-24 16:02:56.687887,94
2021-12-24 16:02:56.687897,114
2021-12-24 16:02:56.687907,126
2021-12-24 16:02:56.687917,126
2021-12-24 16:02:56.687928,133
2021-12-24 16:02:56.687938,137
2021-12-24 16:02:56.687948,126
2021-12-24 16:02:56.687958,105
2021-12-24 16:02:56.687968,82
2021-12-24 16:02:56.687978,59
2021-12-24 16:02:56.687988,50
2021-12-24 16:02:56.687997,18
2021-12-24 16:02:56.688008,-20
2021-12-24 16:02:56.688018,-11
2021-12-24 16:02:56.688028,-6
2021-12-24 16:02:56.688037,-18
2021-12-24 16:02:56.688047,-20
2021-12-24 16:02:56.913241,-39
2021-12-24 16:02:56.913272,-50
2021-12-24 16:02:56.913283,-82
2021-12-24 16:02:56.913293,-135
2021-12-24 16:02:56.913303,-126
2021-12-24 16:02:56.913318,-114
2021-12-24 16:02:56.913327,-149
2021-12-24 16:02:56.913337,-147
2021-12-24 16:02:56.913346,-119
2021-12-24 16:02:56.913356,-112
2021-12-24 16:02:56.913366,-112
2021-12-24 16:02:56.913375,-117
2021-12-24 16:02:56.913385,-133
2021-12-24 16:02:56.913394,-128
2021-12-24 16:02:56.913404,-103
2021-12-24 16:02:56.913414,-103
2021-12-24 16:02:56.913423,-131
2021-12-24 16:02:56.913433,-167
2021-12-24 16:02:56.913442,-186
2021-12-24 16:02:56.913452,-154
2021-12-24 16:02:56.913461,-135
2021-12-24 16:02:56.913471,-149
2021-12-24 16:02:56.913481,-137
2021-12-24 16:02:56.913490,-124
2021-12-24 16:02:56.913500,-119
2021-12-24 16:02:56.913510,-98
2021-12-24 16:02:56.913519,-85
2021-12-24 16:02:56.913529,-78
2021-12-24 16:02:56.913538,-71
2021-12-24 16:02:56.913548,-75
2021-12-24 16:02:57.093249,-66
2021-12-24 16:02:57.093281,-45
2021-12-24 16:02:57.093292,-32
2021-12-24 16:02:57.093302,-32
2021-12-24 16:02:57.093312,-45
2021-12-24 16:02:57.093322,-50
2021-12-24 16:02:57.093332,-36
2021-12-24 16:02:57.093341,-16
2021-12-24 16:02:57.093351,-4
2021-12-24 16:02:57.093361,-9
2021-12-24 16:02:57.093371,-22
2021-12-24 16:02:57.093380,-43
2021-12-24 16:02:57.093390,-41
2021-12-24 16:02:57.093400,-9
2021-12-24 16:02:57.093410,-4
2021-12-24 16:02:57.093419,-13
2021-12-24 16:02:57.093429,-16
2021-12-24 16:02:57.093439,-29
2021-12-24 16:02:57.093449,-16
2021-12-24 16:02:57.093459,16
2021-12-24 16:02:57.093469,29
2021-12-24 16:02:57.093478,27
2021-12-24 16:02:57.093488,11
2021-12-24 16:02:57.093498,2
2021-12-24 16:02:57.093508,20
2021-12-24 16:02:57.093518,36
2021-12-24 16:02:57.093527,45
2021-12-24 16:02:57.093537,41
2021-12-24 16:02:57.093547,39
2021-12-24 16:02:57.093556,50
2021-12-24 16:02:57.318435,62
2021-12-24 16:02:57.318466,80
2021-12-24 16:02:57.318478,82
2021-12-24 16:02:57.318488,80
2021-12-24 16:02:57.318497,110
2021-12-24 16:02:57.318507,181
2021-12-24 16:02:57.318517,216
2021-12-24 16:02:57.318526,64
2021-12-24 16:02:57.318536,-172
2021-12-24 16:02:57.318546,-181
2021-12-24 16:02:57.318556,-45
2021-12-24 16:02:57.318565,-13
2021-12-24 16:02:57.318575,-18
2021-12-24 16:02:57.318585,16
2021-12-24 16:02:57.318594,32
2021-12-24 16:02:57.318604,18
2021-12-24 16:02:57.318614,13
2021-12-24 16:02:57.318623,32
2021-12-24 16:02:57.318633,43
2021-12-24 16:02:57.318642,52
2021-12-24 16:02:57.318652,62
2021-12-24 16:02:57.318662,45
2021-12-24 16:02:57.318672,13
2021-12-24 16:02:57.318681,-2
2021-12-24 16:02:57.318691,22
2021-12-24 16:02:57.318701,48
2021-12-24 16:02:57.318710,45
2021-12-24 16:02:57.318720,45
2021-12-24 16:02:57.318730,52
2021-12-24 16:02:57.318739,68
2021-12-24 16:02:57.587889,101
2021-12-24 16:02:57.587912,121
2021-12-24 16:02:57.587919,131
2021-12-24 16:02:57.587926,110
2021-12-24 16:02:57.587933,82
2021-12-24 16:02:57.587939,112
2021-12-24 16:02:57.587946,151
2021-12-24 16:02:57.587952,160
2021-12-24 16:02:57.587959,147
2021-12-24 16:02:57.587965,85
2021-12-24 16:02:57.587971,52
2021-12-24 16:02:57.587979,73
2021-12-24 16:02:57.587985,73
2021-12-24 16:02:57.587992,62
2021-12-24 16:02:57.587998,52
2021-12-24 16:02:57.588005,29
2021-12-24 16:02:57.588011,22
2021-12-24 16:02:57.588018,48
2021-12-24 16:02:57.588024,75
2021-12-24 16:02:57.588031,89
2021-12-24 16:02:57.588037,87
2021-12-24 16:02:57.588043,71
2021-12-24 16:02:57.588050,59
2021-12-24 16:02:57.588056,82
2021-12-24 16:02:57.588063,103
2021-12-24 16:02:57.588069,108
2021-12-24 16:02:57.588076,96
2021-12-24 16:02:57.588082,68
2021-12-24 16:02:57.588088,64
2021-12-24 16:02:57.588095,71
2021-12-24 16:02:57.857332,73
2021-12-24 16:02:57.857362,89
2021-12-24 16:02:57.857374,89
2021-12-24 16:02:57.857384,71
2021-12-24 16:02:57.857394,80
2021-12-24 16:02:57.857403,96
2021-12-24 16:02:57.857413,105
2021-12-24 16:02:57.857423,114
2021-12-24 16:02:57.857432,98
2021-12-24 16:02:57.857442,62
2021-12-24 16:02:57.857452,45
2021-12-24 16:02:57.857462,52
2021-12-24 16:02:57.857471,57
2021-12-24 16:02:57.857481,62
2021-12-24 16:02:57.857491,50
2021-12-24 16:02:57.857501,13
2021-12-24 16:02:57.857510,16
2021-12-24 16:02:57.857520,57
2021-12-24 16:02:57.857529,82
2021-12-24 16:02:57.857539,94
2021-12-24 16:02:57.857549,82
2021-12-24 16:02:57.857559,73
2021-12-24 16:02:57.857568,101
2021-12-24 16:02:57.857578,121
2021-12-24 16:02:57.857588,126
2021-12-24 16:02:57.857597,135
2021-12-24 16:02:57.857607,128
2021-12-24 16:02:57.857617,103
2021-12-24 16:02:57.857627,66
2021-12-24 16:02:57.857636,64
2021-12-24 16:02:58.083051,94
2021-12-24 16:02:58.083079,94
2021-12-24 16:02:58.083090,75
2021-12-24 16:02:58.083100,73
2021-12-24 16:02:58.083110,87
2021-12-24 16:02:58.083120,105
2021-12-24 16:02:58.083130,103
2021-12-24 16:02:58.083140,91
2021-12-24 16:02:58.083149,91
2021-12-24 16:02:58.083159,94
2021-12-24 16:02:58.083169,108
2021-12-24 16:02:58.083179,112
2021-12-24 16:02:58.083188,94
2021-12-24 16:02:58.083198,55
2021-12-24 16:02:58.083208,13
2021-12-24 16:02:58.083218,6
2021-12-24 16:02:58.083227,25
2021-12-24 16:02:58.083237,45
2021-12-24 16:02:58.083247,68
2021-12-24 16:02:58.083257,55
2021-12-24 16:02:58.083266,25
2021-12-24 16:02:58.083276,25
2021-12-24 16:02:58.083286,43
2021-12-24 16:02:58.083296,57
2021-12-24 16:02:58.083305,48
2021-12-24 16:02:58.083315,20
2021-12-24 16:02:58.083325,20
2021-12-24 16:02:58.083335,34
2021-12-24 16:02:58.083345,39
2021-12-24 16:02:58.083354,34
2021-12-24 16:02:58.262635,20
2021-12-24 16:02:58.262655,-6
2021-12-24 16:02:58.262662,-32
2021-12-24 16:02:58.262669,-43
2021-12-24 16:02:58.262675,-50
2021-12-24 16:02:58.262681,-39
2021-12-24 16:02:58.262688,-13
2021-12-24 16:02:58.262694,-32
2021-12-24 16:02:58.262700,-68
2021-12-24 16:02:58.262707,-68
2021-12-24 16:02:58.262713,-66
2021-12-24 16:02:58.262719,-62
2021-12-24 16:02:58.262726,-62
2021-12-24 16:02:58.262732,-80
2021-12-24 16:02:58.262738,-87
2021-12-24 16:02:58.262745,-96
2021-12-24 16:02:58.262751,-103
2021-12-24 16:02:58.262757,-87
2021-12-24 16:02:58.262764,-73
2021-12-24 16:02:58.262770,-73
2021-12-24 16:02:58.262776,-32
2021-12-24 16:02:58.262783,64
2021-12-24 16:02:58.262789,103
2021-12-24 16:02:58.262796,-34
2021-12-24 16:02:58.262802,-229
2021-12-24 16:02:58.262808,-227
2021-12-24 16:02:58.262814,-82
2021-12-24 16:02:58.262821,-25
2021-12-24 16:02:58.262827,-39
2021-12-24 16:02:58.262834,-18
2021-12-24 16:02:58.487614,-4
2021-12-24 16:02:58.487632,-16
2021-12-24 16:02:58.487640,-4
2021-12-24 16:02:58.487647,-25
2021-12-24 16:02:58.487653,-80
2021-12-24 16:02:58.487660,-75
2021-12-24 16:02:58.487666,-57
2021-12-24 16:02:58.487673,-75
2021-12-24 16:02:58.487679,-75
2021-12-24 16:02:58.487686,-52
2021-12-24 16:02:58.487692,-39
2021-12-24 16:02:58.487699,-36
2021-12-24 16:02:58.487705,-48
2021-12-24 16:02:58.487711,-52
2021-12-24 16:02:58.487718,-34
2021-12-24 16:02:58.487724,-11
2021-12-24 16:02:58.487730,-6
2021-12-24 16:02:58.487737,-6
2021-12-24 16:02:58.487743,0
2021-12-24 16:02:58.487750,18
2021-12-24 16:02:58.487756,41
2021-12-24 16:02:58.487763,57
2021-12-24 16:02:58.487769,62
2021-12-24 16:02:58.487775,66
2021-12-24 16:02:58.487782,80
2021-12-24 16:02:58.487788,117
2021-12-24 16:02:58.487795,131
2021-12-24 16:02:58.487801,98
2021-12-24 16:02:58.487807,87
2021-12-24 16:02:58.487814,82
2021-12-24 16:02:58.713106,50
2021-12-24 16:02:58.713128,43
2021-12-24 16:02:58.713136,41
2021-12-24 16:02:58.713142,29
2021-12-24 16:02:58.713149,27
2021-12-24 16:02:58.713155,20
2021-12-24 16:02:58.713162,0
2021-12-24 16:02:58.713168,0
2021-12-24 16:02:58.713175,22
2021-12-24 16:02:58.713181,29
2021-12-24 16:02:58.713187,27
2021-12-24 16:02:58.713193,27
2021-12-24 16:02:58.713200,9
2021-12-24 16:02:58.713206,11
2021-12-24 16:02:58.713212,34
2021-12-24 16:02:58.713219,27
2021-12-24 16:02:58.713225,22
2021-12-24 16:02:58.713232,45
2021-12-24 16:02:58.713238,45
2021-12-24 16:02:58.713244,27
2021-12-24 16:02:58.713251,20
2021-12-24 16:02:58.713257,29
2021-12-24 16:02:58.713264,39
2021-12-24 16:02:58.713270,36
2021-12-24 16:02:58.713277,48
2021-12-24 16:02:58.713283,62
2021-12-24 16:02:58.713290,66
2021-12-24 16:02:58.713296,73
2021-12-24 16:02:58.713302,73
2021-12-24 16:02:58.713309,73
2021-12-24 16:02:58.938362,82
2021-12-24 16:02:58.938393,94
2021-12-24 16:02:58.938404,105
2021-12-24 16:02:58.938414,101
2021-12-24 16:02:58.938424,89
2021-12-24 16:02:58.938434,75
2021-12-24 16:02:58.938444,66
2021-12-24 16:02:58.938453,87
2021-12-24 16:02:58.938463,89
2021-12-24 16:02:58.938473,41
2021-12-24 16:02:58.938482,-2
2021-12-24 16:02:58.938492,-13
2021-12-24 16:02:58.938502,0
2021-12-24 16:02:58.938512,20
2021-12-24 16:02:58.938522,25
2021-12-24 16:02:58.938531,29
2021-12-24 16:02:58.938541,29
2021-12-24 16:02:58.938551,27
2021-12-24 16:02:58.938560,43
2021-12-24 16:02:58.938570,57
2021-12-24 16:02:58.938580,50
2021-12-24 16:02:58.938589,18
2021-12-24 16:02:58.938599,-2
2021-12-24 16:02:58.938609,25
2021-12-24 16:02:58.938618,62
2021-12-24 16:02:58.938628,68
2021-12-24 16:02:58.938637,66
2021-12-24 16:02:58.938647,62
2021-12-24 16:02:58.938657,62
2021-12-24 16:02:58.938667,62
2021-12-24 16:02:59.163576,68
2021-12-24 16:02:59.163607,87
2021-12-24 16:02:59.163618,78
2021-12-24 16:02:59.163629,45
2021-12-24 16:02:59.163639,6
2021-12-24 16:02:59.163648,-6
2021-12-24 16:02:59.163658,13
2021-12-24 16:02:59.163668,16
2021-12-24 16:02:59.163678,-4
2021-12-24 16:02:59.163687,-34
2021-12-24 16:02:59.163697,-78
2021-12-24 16:02:59.163707,-101
2021-12-24 16:02:59.163717,-89
2021-12-24 16:02:59.163727,-73
2021-12-24 16:02:59.163736,-71
2021-12-24 16:02:59.163746,-85
2021-12-24 16:02:59.163756,-87
2021-12-24 16:02:59.163766,-75
2021-12-24 16:02:59.163775,-64
2021-12-24 16:02:59.163785,-45
2021-12-24 16:02:59.163795,-36
2021-12-24 16:02:59.163805,-29
2021-12-24 16:02:59.163814,-20
2021-12-24 16:02:59.163824,-27
2021-12-24 16:02:59.163834,-27
2021-12-24 16:02:59.163844,-18
2021-12-24 16:02:59.163854,-18
2021-12-24 16:02:59.163863,-25
2021-12-24 16:02:59.163873,-27
2021-12-24 16:02:59.163883,-9
2021-12-24 16:02:59.433067,9
2021-12-24 16:02:59.433114,18
2021-12-24 16:02:59.433123,25
2021-12-24 16:02:59.433130,-4
2021-12-24 16:02:59.433137,-34
2021-12-24 16:02:59.433144,-9
2021-12-24 16:02:59.433150,39
2021-12-24 16:02:59.433156,117
2021-12-24 16:02:59.433163,181
2021-12-24 16:02:59.433170,89
2021-12-24 16:02:59.433181,-147
2021-12-24 16:02:59.433193,-241
2021-12-24 16:02:59.433202,-94
2021-12-24 16:02:59.433209,13
2021-12-24 16:02:59.433220,-2
2021-12-24 16:02:59.433230,-16
2021-12-24 16:02:59.433241,-41
2021-12-24 16:02:59.433253,-55
2021-12-24 16:02:59.433265,-20
2021-12-24 16:02:59.433272,-4
2021-12-24 16:02:59.433279,-9
2021-12-24 16:02:59.433285,-18
2021-12-24 16:02:59.433292,-18
2021-12-24 16:02:59.433298,4
2021-12-24 16:02:59.433305,4
2021-12-24 16:02:59.433311,-13
2021-12-24 16:02:59.433318,-25
2021-12-24 16:02:59.433324,-27
2021-12-24 16:02:59.433331,-13
2021-12-24 16:02:59.433337,4
2021-12-24 16:02:59.658031,20
2021-12-24 16:02:59.658051,36
2021-12-24 16:02:59.658058,39
2021-12-24 16:02:59.658063,29
2021-12-24 16:02:59.658069,32
2021-12-24 16:02:59.658075,43
2021-12-24 16:02:59.658080,59
2021-12-24 16:02:59.658086,62
2021-12-24 16:02:59.658091,39
2021-12-24 16:02:59.658097,4
2021-12-24 16:02:59.658102,9
2021-12-24 16:02:59.658108,39
2021-12-24 16:02:59.658113,39
2021-12-24 16:02:59.658119,29
2021-12-24 16:02:59.658124,2
2021-12-24 16:02:59.658130,-66
2021-12-24 16:02:59.658136,-85
2021-12-24 16:02:59.658141,-66
2021-12-24 16:02:59.658147,-75
2021-12-24 16:02:59.658152,-89
2021-12-24 16:02:59.658158,-105
2021-12-24 16:02:59.658164,-119
2021-12-24 16:02:59.658169,-114
2021-12-24 16:02:59.658175,-103
2021-12-24 16:02:59.658180,-87
2021-12-24 16:02:59.658186,-73
2021-12-24 16:02:59.658192,-71
2021-12-24 16:02:59.658197,-89
2021-12-24 16:02:59.658203,-103
2021-12-24 16:02:59.658209,-80
2021-12-24 16:02:59.972009,-66
2021-12-24 16:02:59.972031,-75
2021-12-24 16:02:59.972039,-78
2021-12-24 16:02:59.972046,-85
2021-12-24 16:02:59.972053,-78
2021-12-24 16:02:59.972059,-59
2021-12-24 16:02:59.972066,-55
2021-12-24 16:02:59.972072,-62
2021-12-24 16:02:59.972078,-89
2021-12-24 16:02:59.972085,-105
2021-12-24 16:02:59.972091,-78
2021-12-24 16:02:59.972098,-62
2021-12-24 16:02:59.972104,-62
2021-12-24 16:02:59.972111,-73
2021-12-24 16:02:59.972118,-108
2021-12-24 16:02:59.972124,-121
2021-12-24 16:02:59.972131,-96
2021-12-24 16:02:59.972137,-73
2021-12-24 16:02:59.972144,-85
2021-12-24 16:02:59.972150,-96
2021-12-24 16:02:59.972156,-103
2021-12-24 16:02:59.972163,-149
2021-12-24 16:02:59.972169,-172
2021-12-24 16:02:59.972176,-135
2021-12-24 16:02:59.972182,-117
2021-12-24 16:02:59.972188,-126
2021-12-24 16:02:59.972195,-126
2021-12-24 16:02:59.972201,-117
2021-12-24 16:02:59.972208,-112
2021-12-24 16:02:59.972214,-124
2021-12-24 16:03:00.108459,-128
2021-12-24 16:03:00.108490,-131
2021-12-24 16:03:00.108502,-158
2021-12-24 16:03:00.108512,-158
2021-12-24 16:03:00.108522,-133
2021-12-24 16:03:00.108532,-117
2021-12-24 16:03:00.108542,-126
2021-12-24 16:03:00.108551,-172
2021-12-24 16:03:00.108641,-202
2021-12-24 16:03:00.108653,-204
2021-12-24 16:03:00.108663,-206
2021-12-24 16:03:00.108673,-195
2021-12-24 16:03:00.108683,-188
2021-12-24 16:03:00.108693,-204
2021-12-24 16:03:00.108703,-220
2021-12-24 16:03:00.108713,-223
2021-12-24 16:03:00.108723,-204
2021-12-24 16:03:00.108733,-186
2021-12-24 16:03:00.108743,-186
2021-12-24 16:03:00.108753,-195
2021-12-24 16:03:00.108763,-193
2021-12-24 16:03:00.108773,-172
2021-12-24 16:03:00.108783,-158
2021-12-24 16:03:00.108793,-149
2021-12-24 16:03:00.108802,-137
2021-12-24 16:03:00.108812,-135
2021-12-24 16:03:00.108822,-98
2021-12-24 16:03:00.108832,-6
2021-12-24 16:03:00.108842,59
2021-12-24 16:03:00.108852,-4
2021-12-24 16:03:00.333451,-234
2021-12-24 16:03:00.333481,-367
2021-12-24 16:03:00.333492,-223
2021-12-24 16:03:00.333503,-94
2021-12-24 16:03:00.333512,-98
2021-12-24 16:03:00.333522,-85
2021-12-24 16:03:00.333532,-75
2021-12-24 16:03:00.333542,-101
2021-12-24 16:03:00.333552,-94
2021-12-24 16:03:00.333562,-66
2021-12-24 16:03:00.333572,-57
2021-12-24 16:03:00.333582,-52
2021-12-24 16:03:00.333592,-57
2021-12-24 16:03:00.333602,-71
2021-12-24 16:03:00.333612,-57
2021-12-24 16:03:00.333622,-36
2021-12-24 16:03:00.333632,-32
2021-12-24 16:03:00.333642,-16
2021-12-24 16:03:00.333651,-6
2021-12-24 16:03:00.333661,-9
2021-12-24 16:03:00.333671,11
2021-12-24 16:03:00.333681,22
2021-12-24 16:03:00.333691,32
2021-12-24 16:03:00.333701,52
2021-12-24 16:03:00.333711,64
2021-12-24 16:03:00.333721,78
2021-12-24 16:03:00.333731,71
2021-12-24 16:03:00.333741,36
2021-12-24 16:03:00.333751,43
2021-12-24 16:03:00.333761,75
2021-12-24 16:03:00.603071,85
2021-12-24 16:03:00.603095,87
2021-12-24 16:03:00.603102,80
2021-12-24 16:03:00.603109,45
2021-12-24 16:03:00.603116,13
2021-12-24 16:03:00.603123,-9
2021-12-24 16:03:00.603129,-48
2021-12-24 16:03:00.603135,-66
2021-12-24 16:03:00.603142,-52
2021-12-24 16:03:00.603148,-64
2021-12-24 16:03:00.603155,-73
2021-12-24 16:03:00.603161,-71
2021-12-24 16:03:00.603167,-94
2021-12-24 16:03:00.603174,-85
2021-12-24 16:03:00.603181,-50
2021-12-24 16:03:00.603187,-48
2021-12-24 16:03:00.603194,-45
2021-12-24 16:03:00.603200,-34
2021-12-24 16:03:00.603207,-29
2021-12-24 16:03:00.603213,-13
2021-12-24 16:03:00.603220,0
2021-12-24 16:03:00.603226,6
2021-12-24 16:03:00.603232,11
2021-12-24 16:03:00.603239,13
2021-12-24 16:03:00.603245,25
2021-12-24 16:03:00.603252,39
2021-12-24 16:03:00.603258,52
2021-12-24 16:03:00.603265,57
2021-12-24 16:03:00.603271,55
2021-12-24 16:03:00.603277,59
2021-12-24 16:03:00.783477,62
2021-12-24 16:03:00.783504,75
2021-12-24 16:03:00.783547,85
2021-12-24 16:03:00.783564,75
2021-12-24 16:03:00.783571,73
2021-12-24 16:03:00.783578,64
2021-12-24 16:03:00.783585,50
2021-12-24 16:03:00.783591,68
2021-12-24 16:03:00.783598,75
2021-12-24 16:03:00.783604,68
2021-12-24 16:03:00.783611,55
2021-12-24 16:03:00.783617,16
2021-12-24 16:03:00.783623,-6
2021-12-24 16:03:00.783630,4
2021-12-24 16:03:00.783636,18
2021-12-24 16:03:00.783643,9
2021-12-24 16:03:00.783649,-22
2021-12-24 16:03:00.783656,-52
2021-12-24 16:03:00.783662,-62
2021-12-24 16:03:00.783669,-64
2021-12-24 16:03:00.783676,-78
2021-12-24 16:03:00.783682,-91
2021-12-24 16:03:00.783689,-87
2021-12-24 16:03:00.783695,-85
2021-12-24 16:03:00.783701,-82
2021-12-24 16:03:00.783708,-62
2021-12-24 16:03:00.783714,-55
2021-12-24 16:03:00.783721,-62
2021-12-24 16:03:00.783727,-71
2021-12-24 16:03:00.783734,-73
2021-12-24 16:03:01.053595,-55
2021-12-24 16:03:01.053625,-41
2021-12-24 16:03:01.053637,-64
2021-12-24 16:03:01.053647,-110
2021-12-24 16:03:01.053657,-135
2021-12-24 16:03:01.053667,-121
2021-12-24 16:03:01.053677,-110
2021-12-24 16:03:01.053686,-135
2021-12-24 16:03:01.053696,-144
2021-12-24 16:03:01.053706,-142
2021-12-24 16:03:01.053716,-160
2021-12-24 16:03:01.053726,-160
2021-12-24 16:03:01.053736,-131
