Time,ECG
2021-12-24 15:47:26.010704,1721
2021-12-24 15:47:26.010717,1717
2021-12-24 15:47:26.010722,1680
2021-12-24 15:47:26.010726,1632
2021-12-24 15:47:26.010731,1593
2021-12-24 15:47:26.010736,1561
2021-12-24 15:47:26.010740,1547
2021-12-24 15:47:26.010744,1503
2021-12-24 15:47:26.010749,1429
2021-12-24 15:47:26.010754,1324
2021-12-24 15:47:26.010758,1209
2021-12-24 15:47:26.010763,1094
2021-12-24 15:47:26.010767,839
2021-12-24 15:47:26.010771,494
2021-12-24 15:47:26.010776,188
2021-12-24 15:47:26.010780,-128
2021-12-24 15:47:26.010785,-425
2021-12-24 15:47:26.010790,-735
2021-12-24 15:47:26.010794,-1156
2021-12-24 15:47:26.010798,-1652
2021-12-24 15:47:26.010816,-2184
2021-12-24 15:47:26.010820,-2646
2021-12-24 15:47:26.010824,-2928
2021-12-24 15:47:26.010828,-3124
2021-12-24 15:47:26.010832,-3301
2021-12-24 15:47:26.010837,-3450
2021-12-24 15:47:26.010841,-3593
2021-12-24 15:47:26.010845,-3786
2021-12-24 15:47:26.010850,-4062
2021-12-24 15:47:26.010854,-4230
2021-12-24 15:47:26.090672,-4193
2021-12-24 15:47:26.090702,-4165
2021-12-24 15:47:26.090714,-4260
2021-12-24 15:47:26.090724,-4354
2021-12-24 15:47:26.090734,-4347
2021-12-24 15:47:26.090744,-4303
2021-12-24 15:47:26.090755,-4310
2021-12-24 15:47:26.090765,-4365
2021-12-24 15:47:26.090775,-4425
2021-12-24 15:47:26.090785,-4372
2021-12-24 15:47:26.090795,-4225
2021-12-24 15:47:26.090804,-4124
2021-12-24 15:47:26.090814,-4053
2021-12-24 15:47:26.090824,-3986
2021-12-24 15:47:26.090834,-3917
2021-12-24 15:47:26.090844,-3756
2021-12-24 15:47:26.090854,-3547
2021-12-24 15:47:26.090865,-3377
2021-12-24 15:47:26.090874,-3243
2021-12-24 15:47:26.090885,-3128
2021-12-24 15:47:26.090895,-3004
2021-12-24 15:47:26.090905,-2850
2021-12-24 15:47:26.090914,-2694
2021-12-24 15:47:26.090924,-2556
2021-12-24 15:47:26.090934,-2441
2021-12-24 15:47:26.090944,-2349
2021-12-24 15:47:26.090954,-2298
2021-12-24 15:47:26.090963,-2257
2021-12-24 15:47:26.090973,-2142
2021-12-24 15:47:26.090986,-1997
2021-12-24 15:47:26.315604,-1926
2021-12-24 15:47:26.315635,-1903
2021-12-24 15:47:26.315646,-1862
2021-12-24 15:47:26.315656,-1797
2021-12-24 15:47:26.315666,-1724
2021-12-24 15:47:26.315675,-1659
2021-12-24 15:47:26.315685,-1625
2021-12-24 15:47:26.315695,-1620
2021-12-24 15:47:26.315704,-1584
2021-12-24 15:47:26.315714,-1508
2021-12-24 15:47:26.315724,-1432
2021-12-24 15:47:26.315733,-1363
2021-12-24 15:47:26.315743,-1333
2021-12-24 15:47:26.315759,-1335
2021-12-24 15:47:26.315768,-1289
2021-12-24 15:47:26.315778,-1209
2021-12-24 15:47:26.315788,-1151
2021-12-24 15:47:26.315797,-1119
2021-12-24 15:47:26.315807,-1087
2021-12-24 15:47:26.315817,-1041
2021-12-24 15:47:26.315826,-1020
2021-12-24 15:47:26.315836,-1027
2021-12-24 15:47:26.315846,-1018
2021-12-24 15:47:26.315855,-977
2021-12-24 15:47:26.315865,-940
2021-12-24 15:47:26.315875,-940
2021-12-24 15:47:26.315884,-926
2021-12-24 15:47:26.315894,-878
2021-12-24 15:47:26.315904,-846
2021-12-24 15:47:26.315916,-823
2021-12-24 15:47:26.540643,-795
2021-12-24 15:47:26.540673,-777
2021-12-24 15:47:26.540685,-747
2021-12-24 15:47:26.540695,-714
2021-12-24 15:47:26.540705,-673
2021-12-24 15:47:26.540714,-636
2021-12-24 15:47:26.540724,-639
2021-12-24 15:47:26.540734,-648
2021-12-24 15:47:26.540743,-620
2021-12-24 15:47:26.540753,-583
2021-12-24 15:47:26.540763,-556
2021-12-24 15:47:26.540772,-533
2021-12-24 15:47:26.540782,-531
2021-12-24 15:47:26.540791,-540
2021-12-24 15:47:26.540801,-526
2021-12-24 15:47:26.540811,-489
2021-12-24 15:47:26.540821,-452
2021-12-24 15:47:26.540836,-427
2021-12-24 15:47:26.540846,-423
2021-12-24 15:47:26.540856,-411
2021-12-24 15:47:26.540866,-370
2021-12-24 15:47:26.540875,-342
2021-12-24 15:47:26.540885,-333
2021-12-24 15:47:26.540895,-333
2021-12-24 15:47:26.540904,-340
2021-12-24 15:47:26.540914,-266
2021-12-24 15:47:26.540924,-140
2021-12-24 15:47:26.540934,-112
2021-12-24 15:47:26.540943,-252
2021-12-24 15:47:26.540953,-450
2021-12-24 15:47:26.765556,-441
2021-12-24 15:47:26.765575,-262
2021-12-24 15:47:26.765583,-211
2021-12-24 15:47:26.765589,-271
2021-12-24 15:47:26.765596,-266
2021-12-24 15:47:26.765602,-241
2021-12-24 15:47:26.765609,-257
2021-12-24 15:47:26.765620,-239
2021-12-24 15:47:26.765626,-193
2021-12-24 15:47:26.765633,-186
2021-12-24 15:47:26.765639,-181
2021-12-24 15:47:26.765646,-177
2021-12-24 15:47:26.765652,-200
2021-12-24 15:47:26.765658,-186
2021-12-24 15:47:26.765669,-149
2021-12-24 15:47:26.765675,-144
2021-12-24 15:47:26.765698,-133
2021-12-24 15:47:26.765703,-108
2021-12-24 15:47:26.765709,-89
2021-12-24 15:47:26.765714,-62
2021-12-24 15:47:26.765719,-39
2021-12-24 15:47:26.765724,-32
2021-12-24 15:47:26.765729,-25
2021-12-24 15:47:26.765735,-16
2021-12-24 15:47:26.765741,-2
2021-12-24 15:47:26.765746,4
2021-12-24 15:47:26.765751,0
2021-12-24 15:47:26.765777,2
2021-12-24 15:47:26.765811,6
2021-12-24 15:47:26.765840,4
2021-12-24 15:47:27.035736,20
2021-12-24 15:47:27.035766,45
2021-12-24 15:47:27.035778,36
2021-12-24 15:47:27.035788,-2
2021-12-24 15:47:27.035798,-34
2021-12-24 15:47:27.035808,-78
2021-12-24 15:47:27.035818,-114
2021-12-24 15:47:27.035827,-103
2021-12-24 15:47:27.035837,-75
2021-12-24 15:47:27.035847,-68
2021-12-24 15:47:27.035856,-87
2021-12-24 15:47:27.035866,-110
2021-12-24 15:47:27.035876,-89
2021-12-24 15:47:27.035885,-52
2021-12-24 15:47:27.035895,-52
2021-12-24 15:47:27.035904,-59
2021-12-24 15:47:27.035914,-48
2021-12-24 15:47:27.035924,-36
2021-12-24 15:47:27.035933,-32
2021-12-24 15:47:27.035943,-22
2021-12-24 15:47:27.035953,-6
2021-12-24 15:47:27.035963,-4
2021-12-24 15:47:27.035972,-16
2021-12-24 15:47:27.035982,-18
2021-12-24 15:47:27.035999,2
2021-12-24 15:47:27.036009,25
2021-12-24 15:47:27.036018,13
2021-12-24 15:47:27.036028,-39
2021-12-24 15:47:27.036038,-82
2021-12-24 15:47:27.036048,-71
2021-12-24 15:47:27.260645,-50
2021-12-24 15:47:27.260667,-71
2021-12-24 15:47:27.260675,-117
2021-12-24 15:47:27.260681,-151
2021-12-24 15:47:27.260688,-186
2021-12-24 15:47:27.260694,-223
2021-12-24 15:47:27.260700,-245
2021-12-24 15:47:27.260707,-280
2021-12-24 15:47:27.260713,-349
2021-12-24 15:47:27.260719,-420
2021-12-24 15:47:27.260725,-443
2021-12-24 15:47:27.260732,-429
2021-12-24 15:47:27.260738,-413
2021-12-24 15:47:27.260744,-413
2021-12-24 15:47:27.260751,-423
2021-12-24 15:47:27.260757,-457
2021-12-24 15:47:27.260763,-501
2021-12-24 15:47:27.260770,-517
2021-12-24 15:47:27.260776,-503
2021-12-24 15:47:27.260782,-498
2021-12-24 15:47:27.260789,-503
2021-12-24 15:47:27.260795,-505
2021-12-24 15:47:27.260803,-510
2021-12-24 15:47:27.260810,-510
2021-12-24 15:47:27.260816,-489
2021-12-24 15:47:27.260823,-427
2021-12-24 15:47:27.260829,-351
2021-12-24 15:47:27.260835,-377
2021-12-24 15:47:27.260842,-597
2021-12-24 15:47:27.260848,-820
2021-12-24 15:47:27.575503,-758
2021-12-24 15:47:27.575526,-551
2021-12-24 15:47:27.575533,-505
2021-12-24 15:47:27.575540,-567
2021-12-24 15:47:27.575546,-581
2021-12-24 15:47:27.575553,-563
2021-12-24 15:47:27.575559,-551
2021-12-24 15:47:27.575565,-528
2021-12-24 15:47:27.575572,-510
2021-12-24 15:47:27.575578,-498
2021-12-24 15:47:27.575584,-466
2021-12-24 15:47:27.575591,-429
2021-12-24 15:47:27.575597,-409
2021-12-24 15:47:27.575603,-400
2021-12-24 15:47:27.575610,-404
2021-12-24 15:47:27.575616,-427
2021-12-24 15:47:27.575622,-427
2021-12-24 15:47:27.575628,-381
2021-12-24 15:47:27.575635,-349
2021-12-24 15:47:27.575641,-337
2021-12-24 15:47:27.575647,-317
2021-12-24 15:47:27.575654,-312
2021-12-24 15:47:27.575660,-305
2021-12-24 15:47:27.575666,-264
2021-12-24 15:47:27.575678,-227
2021-12-24 15:47:27.575684,-209
2021-12-24 15:47:27.575691,-204
2021-12-24 15:47:27.575697,-209
2021-12-24 15:47:27.575704,-188
2021-12-24 15:47:27.575710,-156
2021-12-24 15:47:27.800050,-149
2021-12-24 15:47:27.800080,-179
2021-12-24 15:47:27.800091,-229
2021-12-24 15:47:27.800101,-275
2021-12-24 15:47:27.800111,-294
2021-12-24 15:47:27.800121,-282
2021-12-24 15:47:27.800131,-266
2021-12-24 15:47:27.800141,-273
2021-12-24 15:47:27.800151,-312
2021-12-24 15:47:27.800161,-349
2021-12-24 15:47:27.800171,-331
2021-12-24 15:47:27.800180,-296
2021-12-24 15:47:27.800190,-289
2021-12-24 15:47:27.800200,-271
2021-12-24 15:47:27.800210,-259
2021-12-24 15:47:27.800219,-285
2021-12-24 15:47:27.800229,-278
2021-12-24 15:47:27.800239,-232
2021-12-24 15:47:27.800249,-206
2021-12-24 15:47:27.800258,-190
2021-12-24 15:47:27.800268,-186
2021-12-24 15:47:27.800278,-195
2021-12-24 15:47:27.800288,-179
2021-12-24 15:47:27.800298,-147
2021-12-24 15:47:27.800307,-133
2021-12-24 15:47:27.800317,-140
2021-12-24 15:47:27.800327,-165
2021-12-24 15:47:27.800337,-190
2021-12-24 15:47:27.800347,-174
2021-12-24 15:47:27.800357,-147
2021-12-24 15:47:28.023957,-135
2021-12-24 15:47:28.023978,-128
2021-12-24 15:47:28.023986,-137
2021-12-24 15:47:28.023992,-167
2021-12-24 15:47:28.023999,-181
2021-12-24 15:47:28.024005,-158
2021-12-24 15:47:28.024012,-126
2021-12-24 15:47:28.024018,-126
2021-12-24 15:47:28.024024,-167
2021-12-24 15:47:28.024031,-197
2021-12-24 15:47:28.024037,-179
2021-12-24 15:47:28.024043,-151
2021-12-24 15:47:28.024050,-135
2021-12-24 15:47:28.024056,-142
2021-12-24 15:47:28.024062,-163
2021-12-24 15:47:28.024069,-165
2021-12-24 15:47:28.024075,-142
2021-12-24 15:47:28.024081,-135
2021-12-24 15:47:28.024088,-163
2021-12-24 15:47:28.024094,-183
2021-12-24 15:47:28.024101,-144
2021-12-24 15:47:28.024107,-45
2021-12-24 15:47:28.024114,29
2021-12-24 15:47:28.024120,-80
2021-12-24 15:47:28.024126,-363
2021-12-24 15:47:28.024133,-473
2021-12-24 15:47:28.024140,-333
2021-12-24 15:47:28.024146,-245
2021-12-24 15:47:28.024152,-250
2021-12-24 15:47:28.024159,-211
2021-12-24 15:47:28.295654,-179
2021-12-24 15:47:28.295684,-193
2021-12-24 15:47:28.295696,-200
2021-12-24 15:47:28.295705,-195
2021-12-24 15:47:28.295715,-190
2021-12-24 15:47:28.295725,-193
2021-12-24 15:47:28.295735,-220
2021-12-24 15:47:28.295744,-255
2021-12-24 15:47:28.295754,-257
2021-12-24 15:47:28.295764,-239
2021-12-24 15:47:28.295779,-223
2021-12-24 15:47:28.295789,-197
2021-12-24 15:47:28.295798,-183
2021-12-24 15:47:28.295808,-197
2021-12-24 15:47:28.295818,-206
2021-12-24 15:47:28.295828,-179
2021-12-24 15:47:28.295838,-144
2021-12-24 15:47:28.295848,-124
2021-12-24 15:47:28.295857,-98
2021-12-24 15:47:28.295867,-96
2021-12-24 15:47:28.295877,-131
2021-12-24 15:47:28.295886,-126
2021-12-24 15:47:28.295896,-78
2021-12-24 15:47:28.295906,-39
2021-12-24 15:47:28.295916,-27
2021-12-24 15:47:28.295925,-29
2021-12-24 15:47:28.295935,-27
2021-12-24 15:47:28.295945,-39
2021-12-24 15:47:28.295954,-71
2021-12-24 15:47:28.295964,-91
2021-12-24 15:47:28.475038,-105
2021-12-24 15:47:28.475068,-121
2021-12-24 15:47:28.475079,-126
2021-12-24 15:47:28.475089,-131
2021-12-24 15:47:28.475098,-121
2021-12-24 15:47:28.475108,-96
2021-12-24 15:47:28.475118,-103
2021-12-24 15:47:28.475127,-135
2021-12-24 15:47:28.475137,-149
2021-12-24 15:47:28.475147,-135
2021-12-24 15:47:28.475157,-121
2021-12-24 15:47:28.475166,-112
2021-12-24 15:47:28.475176,-105
2021-12-24 15:47:28.475186,-98
2021-12-24 15:47:28.475195,-96
2021-12-24 15:47:28.475205,-91
2021-12-24 15:47:28.475214,-73
2021-12-24 15:47:28.475224,-57
2021-12-24 15:47:28.475234,-80
2021-12-24 15:47:28.475243,-101
2021-12-24 15:47:28.475253,-85
2021-12-24 15:47:28.475263,-71
2021-12-24 15:47:28.475272,-64
2021-12-24 15:47:28.475282,-52
2021-12-24 15:47:28.475291,-59
2021-12-24 15:47:28.475306,-62
2021-12-24 15:47:28.475316,-50
2021-12-24 15:47:28.475325,-43
2021-12-24 15:47:28.475335,-11
2021-12-24 15:47:28.475345,62
2021-12-24 15:47:28.655630,96
2021-12-24 15:47:28.655660,-18
2021-12-24 15:47:28.655671,-257
2021-12-24 15:47:28.655681,-337
2021-12-24 15:47:28.655691,-163
2021-12-24 15:47:28.655701,-55
2021-12-24 15:47:28.655711,-94
2021-12-24 15:47:28.655720,-75
2021-12-24 15:47:28.655730,-27
2021-12-24 15:47:28.655740,-62
2021-12-24 15:47:28.655749,-105
2021-12-24 15:47:28.655759,-112
2021-12-24 15:47:28.655769,-121
2021-12-24 15:47:28.655779,-114
2021-12-24 15:47:28.655788,-94
2021-12-24 15:47:28.655798,-91
2021-12-24 15:47:28.655808,-87
2021-12-24 15:47:28.655817,-66
2021-12-24 15:47:28.655827,-55
2021-12-24 15:47:28.655837,-39
2021-12-24 15:47:28.655847,-20
2021-12-24 15:47:28.655856,-13
2021-12-24 15:47:28.655866,0
2021-12-24 15:47:28.655876,16
2021-12-24 15:47:28.655886,2
2021-12-24 15:47:28.655896,-27
2021-12-24 15:47:28.655906,-18
2021-12-24 15:47:28.655916,13
2021-12-24 15:47:28.655926,22
2021-12-24 15:47:28.655935,22
2021-12-24 15:47:28.834954,32
2021-12-24 15:47:28.834973,50
2021-12-24 15:47:28.834981,50
2021-12-24 15:47:28.834987,32
2021-12-24 15:47:28.834994,-13
2021-12-24 15:47:28.835000,-98
2021-12-24 15:47:28.835006,-147
2021-12-24 15:47:28.835013,-137
2021-12-24 15:47:28.835019,-149
2021-12-24 15:47:28.835025,-188
2021-12-24 15:47:28.835032,-206
2021-12-24 15:47:28.835038,-213
2021-12-24 15:47:28.835044,-252
2021-12-24 15:47:28.835051,-275
2021-12-24 15:47:28.835057,-252
2021-12-24 15:47:28.835063,-248
2021-12-24 15:47:28.835073,-271
2021-12-24 15:47:28.835080,-285
2021-12-24 15:47:28.835086,-266
2021-12-24 15:47:28.835092,-236
2021-12-24 15:47:28.835099,-223
2021-12-24 15:47:28.835105,-209
2021-12-24 15:47:28.835112,-193
2021-12-24 15:47:28.835118,-186
2021-12-24 15:47:28.835124,-165
2021-12-24 15:47:28.835131,-137
2021-12-24 15:47:28.835137,-131
2021-12-24 15:47:28.835143,-137
2021-12-24 15:47:28.835149,-137
2021-12-24 15:47:28.835156,-128
2021-12-24 15:47:29.150663,-110
2021-12-24 15:47:29.150693,-101
2021-12-24 15:47:29.150704,-103
2021-12-24 15:47:29.150714,-117
2021-12-24 15:47:29.150724,-142
2021-12-24 15:47:29.150734,-151
2021-12-24 15:47:29.150744,-126
2021-12-24 15:47:29.150754,-110
2021-12-24 15:47:29.150763,-112
2021-12-24 15:47:29.150773,-114
2021-12-24 15:47:29.150783,-126
2021-12-24 15:47:29.150792,-133
2021-12-24 15:47:29.150802,-112
2021-12-24 15:47:29.150812,-103
2021-12-24 15:47:29.150822,-131
2021-12-24 15:47:29.150832,-149
2021-12-24 15:47:29.150841,-142
2021-12-24 15:47:29.150851,-133
2021-12-24 15:47:29.150861,-112
2021-12-24 15:47:29.150871,-91
2021-12-24 15:47:29.150880,-85
2021-12-24 15:47:29.150890,-85
2021-12-24 15:47:29.150900,-80
2021-12-24 15:47:29.150909,-62
2021-12-24 15:47:29.150919,-39
2021-12-24 15:47:29.150929,-25
2021-12-24 15:47:29.150939,-20
2021-12-24 15:47:29.150949,-36
2021-12-24 15:47:29.150959,-52
2021-12-24 15:47:29.150968,-39
2021-12-24 15:47:29.330627,-36
2021-12-24 15:47:29.330657,-68
2021-12-24 15:47:29.330669,-89
2021-12-24 15:47:29.330679,-87
2021-12-24 15:47:29.330688,-82
2021-12-24 15:47:29.330698,-66
2021-12-24 15:47:29.330708,-45
2021-12-24 15:47:29.330717,-45
2021-12-24 15:47:29.330727,-59
2021-12-24 15:47:29.330736,-87
2021-12-24 15:47:29.330746,-108
2021-12-24 15:47:29.330756,-85
2021-12-24 15:47:29.330765,-55
2021-12-24 15:47:29.330780,-52
2021-12-24 15:47:29.330790,-45
2021-12-24 15:47:29.330800,-41
2021-12-24 15:47:29.330809,-55
2021-12-24 15:47:29.330819,-6
2021-12-24 15:47:29.330829,126
2021-12-24 15:47:29.330839,197
2021-12-24 15:47:29.330848,39
2021-12-24 15:47:29.330858,-250
2021-12-24 15:47:29.330868,-305
2021-12-24 15:47:29.330877,-110
2021-12-24 15:47:29.330887,-29
2021-12-24 15:47:29.330897,-48
2021-12-24 15:47:29.330906,-4
2021-12-24 15:47:29.330916,13
2021-12-24 15:47:29.330926,-9
2021-12-24 15:47:29.330936,9
2021-12-24 15:47:29.555681,34
2021-12-24 15:47:29.555712,39
2021-12-24 15:47:29.555723,39
2021-12-24 15:47:29.555733,29
2021-12-24 15:47:29.555743,22
2021-12-24 15:47:29.555753,39
2021-12-24 15:47:29.555762,55
2021-12-24 15:47:29.555772,66
2021-12-24 15:47:29.555782,45
2021-12-24 15:47:29.555792,6
2021-12-24 15:47:29.555801,16
2021-12-24 15:47:29.555811,48
2021-12-24 15:47:29.555821,64
2021-12-24 15:47:29.555831,73
2021-12-24 15:47:29.555840,59
2021-12-24 15:47:29.555850,27
2021-12-24 15:47:29.555860,41
2021-12-24 15:47:29.555869,64
2021-12-24 15:47:29.555879,50
2021-12-24 15:47:29.555889,48
2021-12-24 15:47:29.555899,59
2021-12-24 15:47:29.555908,52
2021-12-24 15:47:29.555918,48
2021-12-24 15:47:29.555928,45
2021-12-24 15:47:29.555938,25
2021-12-24 15:47:29.555947,-2
2021-12-24 15:47:29.555957,-52
2021-12-24 15:47:29.555967,-117
2021-12-24 15:47:29.555977,-151
2021-12-24 15:47:29.555987,-160
2021-12-24 15:47:29.780733,-183
2021-12-24 15:47:29.780754,-211
2021-12-24 15:47:29.780762,-216
2021-12-24 15:47:29.780769,-216
2021-12-24 15:47:29.780775,-218
2021-12-24 15:47:29.780783,-218
2021-12-24 15:47:29.780789,-248
2021-12-24 15:47:29.780795,-305
2021-12-24 15:47:29.780802,-333
2021-12-24 15:47:29.780808,-324
2021-12-24 15:47:29.780814,-305
2021-12-24 15:47:29.780821,-282
2021-12-24 15:47:29.780827,-262
2021-12-24 15:47:29.780833,-268
2021-12-24 15:47:29.780840,-296
2021-12-24 15:47:29.780846,-296
2021-12-24 15:47:29.780853,-239
2021-12-24 15:47:29.780864,-128
2021-12-24 15:47:29.780871,-4
2021-12-24 15:47:29.780877,-43
2021-12-24 15:47:29.780883,-360
2021-12-24 15:47:29.780890,-639
2021-12-24 15:47:29.780896,-524
2021-12-24 15:47:29.780902,-289
2021-12-24 15:47:29.780909,-229
2021-12-24 15:47:29.780915,-209
2021-12-24 15:47:29.780922,-174
2021-12-24 15:47:29.780928,-183
2021-12-24 15:47:29.780934,-181
2021-12-24 15:47:29.780941,-142
2021-12-24 15:47:30.049947,-117
2021-12-24 15:47:30.049978,-112
2021-12-24 15:47:30.049989,-98
2021-12-24 15:47:30.050000,-85
2021-12-24 15:47:30.050010,-80
2021-12-24 15:47:30.050019,-62
2021-12-24 15:47:30.050029,-43
2021-12-24 15:47:30.050039,-62
2021-12-24 15:47:30.050049,-82
2021-12-24 15:47:30.050059,-66
2021-12-24 15:47:30.050069,-39
2021-12-24 15:47:30.050079,-27
2021-12-24 15:47:30.050089,-20
2021-12-24 15:47:30.050098,-20
2021-12-24 15:47:30.050108,-20
2021-12-24 15:47:30.050118,0
2021-12-24 15:47:30.050128,29
2021-12-24 15:47:30.050138,50
2021-12-24 15:47:30.050148,59
2021-12-24 15:47:30.050158,59
2021-12-24 15:47:30.050167,68
2021-12-24 15:47:30.050177,57
2021-12-24 15:47:30.050187,9
2021-12-24 15:47:30.050197,-20
2021-12-24 15:47:30.050207,-36
2021-12-24 15:47:30.050217,-64
2021-12-24 15:47:30.050226,-80
2021-12-24 15:47:30.050236,-85
2021-12-24 15:47:30.050246,-82
2021-12-24 15:47:30.050256,-66
2021-12-24 15:47:30.230659,-57
2021-12-24 15:47:30.230689,-48
2021-12-24 15:47:30.230701,-36
2021-12-24 15:47:30.230711,-32
2021-12-24 15:47:30.230721,-32
2021-12-24 15:47:30.230730,-29
2021-12-24 15:47:30.230740,-50
2021-12-24 15:47:30.230750,-85
2021-12-24 15:47:30.230759,-82
2021-12-24 15:47:30.230769,-68
2021-12-24 15:47:30.230779,-75
2021-12-24 15:47:30.230789,-114
2021-12-24 15:47:30.230798,-177
2021-12-24 15:47:30.230808,-200
2021-12-24 15:47:30.230818,-181
2021-12-24 15:47:30.230828,-172
2021-12-24 15:47:30.230838,-156
2021-12-24 15:47:30.230847,-142
2021-12-24 15:47:30.230857,-158
2021-12-24 15:47:30.230867,-151
2021-12-24 15:47:30.230877,-126
2021-12-24 15:47:30.230886,-124
2021-12-24 15:47:30.230896,-117
2021-12-24 15:47:30.230906,-108
2021-12-24 15:47:30.230916,-114
2021-12-24 15:47:30.230925,-103
2021-12-24 15:47:30.230935,-66
2021-12-24 15:47:30.230945,-50
2021-12-24 15:47:30.230955,-50
2021-12-24 15:47:30.230972,-34
2021-12-24 15:47:30.455618,-25
2021-12-24 15:47:30.455649,-13
2021-12-24 15:47:30.455661,0
2021-12-24 15:47:30.455671,-16
2021-12-24 15:47:30.455681,-32
2021-12-24 15:47:30.455691,-39
2021-12-24 15:47:30.455701,-66
2021-12-24 15:47:30.455711,-78
2021-12-24 15:47:30.455720,-55
2021-12-24 15:47:30.455730,-43
2021-12-24 15:47:30.455740,-43
2021-12-24 15:47:30.455750,-57
2021-12-24 15:47:30.455760,-85
2021-12-24 15:47:30.455770,-75
2021-12-24 15:47:30.455780,-57
2021-12-24 15:47:30.455790,-64
2021-12-24 15:47:30.455799,-64
2021-12-24 15:47:30.455809,-52
2021-12-24 15:47:30.455819,-43
2021-12-24 15:47:30.455829,-25
2021-12-24 15:47:30.455839,-20
2021-12-24 15:47:30.455849,-41
2021-12-24 15:47:30.455858,-48
2021-12-24 15:47:30.455868,-25
2021-12-24 15:47:30.455878,-18
2021-12-24 15:47:30.455888,-20
2021-12-24 15:47:30.455898,-34
2021-12-24 15:47:30.455907,-55
2021-12-24 15:47:30.455917,-59
2021-12-24 15:47:30.455927,-68
2021-12-24 15:47:30.680294,-78
2021-12-24 15:47:30.680317,-57
2021-12-24 15:47:30.680325,-52
2021-12-24 15:47:30.680331,-66
2021-12-24 15:47:30.680338,-78
2021-12-24 15:47:30.680345,-103
2021-12-24 15:47:30.680351,-112
2021-12-24 15:47:30.680357,-80
2021-12-24 15:47:30.680364,-59
2021-12-24 15:47:30.680370,-59
2021-12-24 15:47:30.680376,-55
2021-12-24 15:47:30.680415,-66
2021-12-24 15:47:30.680421,-80
2021-12-24 15:47:30.680428,-64
2021-12-24 15:47:30.680434,-48
2021-12-24 15:47:30.680440,-43
2021-12-24 15:47:30.680447,-36
2021-12-24 15:47:30.680453,-57
2021-12-24 15:47:30.680459,-82
2021-12-24 15:47:30.680466,-55
2021-12-24 15:47:30.680472,-25
2021-12-24 15:47:30.680478,-32
2021-12-24 15:47:30.680485,-6
2021-12-24 15:47:30.680491,85
2021-12-24 15:47:30.680497,179
2021-12-24 15:47:30.680504,140
2021-12-24 15:47:30.680510,-73
2021-12-24 15:47:30.680517,-225
2021-12-24 15:47:30.680523,-142
2021-12-24 15:47:30.680529,-39
2021-12-24 15:47:30.950631,-36
2021-12-24 15:47:30.950661,-13
2021-12-24 15:47:30.950672,22
2021-12-24 15:47:30.950682,0
2021-12-24 15:47:30.950692,-48
2021-12-24 15:47:30.950702,-59
2021-12-24 15:47:30.950712,-41
2021-12-24 15:47:30.950721,-25
2021-12-24 15:47:30.950731,-29
2021-12-24 15:47:30.950740,-45
2021-12-24 15:47:30.950750,-68
2021-12-24 15:47:30.950760,-78
2021-12-24 15:47:30.950770,-57
2021-12-24 15:47:30.950779,-34
2021-12-24 15:47:30.950789,-25
2021-12-24 15:47:30.950799,-32
2021-12-24 15:47:30.950808,-41
2021-12-24 15:47:30.950818,-34
2021-12-24 15:47:30.950828,-11
2021-12-24 15:47:30.950838,6
2021-12-24 15:47:30.950856,16
2021-12-24 15:47:30.950866,13
2021-12-24 15:47:30.950876,9
2021-12-24 15:47:30.950885,27
2021-12-24 15:47:30.950895,50
2021-12-24 15:47:30.950905,59
2021-12-24 15:47:30.950915,45
2021-12-24 15:47:30.950924,9
2021-12-24 15:47:30.950934,-11
2021-12-24 15:47:30.950944,-11
2021-12-24 15:47:31.175630,-36
2021-12-24 15:47:31.175660,-80
2021-12-24 15:47:31.175672,-119
2021-12-24 15:47:31.175682,-160
2021-12-24 15:47:31.175692,-211
2021-12-24 15:47:31.175702,-227
2021-12-24 15:47:31.175712,-209
2021-12-24 15:47:31.175721,-200
2021-12-24 15:47:31.175731,-216
2021-12-24 15:47:31.175741,-250
2021-12-24 15:47:31.175751,-271
2021-12-24 15:47:31.175761,-245
2021-12-24 15:47:31.175770,-220
2021-12-24 15:47:31.175780,-216
2021-12-24 15:47:31.175790,-223
2021-12-24 15:47:31.175800,-250
2021-12-24 15:47:31.175810,-259
2021-12-24 15:47:31.175820,-223
2021-12-24 15:47:31.175830,-200
2021-12-24 15:47:31.175840,-195
2021-12-24 15:47:31.175849,-193
2021-12-24 15:47:31.175859,-202
2021-12-24 15:47:31.175869,-218
2021-12-24 15:47:31.175879,-245
2021-12-24 15:47:31.175888,-250
2021-12-24 15:47:31.175898,-225
2021-12-24 15:47:31.175908,-218
2021-12-24 15:47:31.175918,-232
2021-12-24 15:47:31.175927,-225
2021-12-24 15:47:31.175937,-193
2021-12-24 15:47:31.400656,-170
2021-12-24 15:47:31.400685,-170
2021-12-24 15:47:31.400697,-190
2021-12-24 15:47:31.400707,-216
2021-12-24 15:47:31.400717,-193
2021-12-24 15:47:31.400726,-158
2021-12-24 15:47:31.400736,-147
2021-12-24 15:47:31.400745,-135
2021-12-24 15:47:31.400755,-149
2021-12-24 15:47:31.400765,-177
2021-12-24 15:47:31.400774,-163
2021-12-24 15:47:31.400784,-137
2021-12-24 15:47:31.400794,-126
2021-12-24 15:47:31.400803,-114
2021-12-24 15:47:31.400813,-137
2021-12-24 15:47:31.400823,-181
2021-12-24 15:47:31.400833,-170
2021-12-24 15:47:31.400842,-131
2021-12-24 15:47:31.400852,-119
2021-12-24 15:47:31.400862,-114
2021-12-24 15:47:31.400871,-101
2021-12-24 15:47:31.400881,-96
2021-12-24 15:47:31.400890,-75
2021-12-24 15:47:31.400900,-48
2021-12-24 15:47:31.400910,-43
2021-12-24 15:47:31.400919,-55
2021-12-24 15:47:31.400929,-71
2021-12-24 15:47:31.400938,-80
2021-12-24 15:47:31.400948,-64
2021-12-24 15:47:31.400958,-43
2021-12-24 15:47:31.625536,-29
2021-12-24 15:47:31.625567,-20
2021-12-24 15:47:31.625578,-34
2021-12-24 15:47:31.625588,-52
2021-12-24 15:47:31.625598,-57
2021-12-24 15:47:31.625608,-57
2021-12-24 15:47:31.625617,-41
2021-12-24 15:47:31.625627,16
2021-12-24 15:47:31.625637,78
2021-12-24 15:47:31.625646,50
2021-12-24 15:47:31.625656,-110
2021-12-24 15:47:31.625665,-252
2021-12-24 15:47:31.625675,-195
2021-12-24 15:47:31.625685,-80
2021-12-24 15:47:31.625694,-85
2021-12-24 15:47:31.625704,-82
2021-12-24 15:47:31.625713,-22
2021-12-24 15:47:31.625723,-25
2021-12-24 15:47:31.625732,-52
2021-12-24 15:47:31.625742,-39
2021-12-24 15:47:31.625752,-50
2021-12-24 15:47:31.625761,-89
2021-12-24 15:47:31.625779,-78
2021-12-24 15:47:31.625789,-20
2021-12-24 15:47:31.625799,13
2021-12-24 15:47:31.625809,0
2021-12-24 15:47:31.625819,0
2021-12-24 15:47:31.625829,0
2021-12-24 15:47:31.625838,-50
2021-12-24 15:47:31.625848,-94
2021-12-24 15:47:31.850662,-73
2021-12-24 15:47:31.850692,-45
2021-12-24 15:47:31.850703,-41
2021-12-24 15:47:31.850713,-25
2021-12-24 15:47:31.850723,-22
2021-12-24 15:47:31.850733,-59
2021-12-24 15:47:31.850742,-103
2021-12-24 15:47:31.850752,-131
2021-12-24 15:47:31.850762,-142
2021-12-24 15:47:31.850771,-137
2021-12-24 15:47:31.850781,-151
2021-12-24 15:47:31.850791,-167
2021-12-24 15:47:31.850801,-167
2021-12-24 15:47:31.850810,-220
2021-12-24 15:47:31.850820,-280
2021-12-24 15:47:31.850830,-275
2021-12-24 15:47:31.850839,-271
2021-12-24 15:47:31.850849,-291
2021-12-24 15:47:31.850859,-301
2021-12-24 15:47:31.850868,-296
2021-12-24 15:47:31.850878,-287
2021-12-24 15:47:31.850888,-289
2021-12-24 15:47:31.850897,-285
2021-12-24 15:47:31.850907,-262
2021-12-24 15:47:31.850917,-250
2021-12-24 15:47:31.850927,-252
2021-12-24 15:47:31.850936,-255
2021-12-24 15:47:31.850946,-245
2021-12-24 15:47:31.850956,-220
2021-12-24 15:47:31.850965,-190
2021-12-24 15:47:32.119056,-174
2021-12-24 15:47:32.119083,-167
2021-12-24 15:47:32.119096,-174
2021-12-24 15:47:32.119106,-181
2021-12-24 15:47:32.119116,-165
2021-12-24 15:47:32.119126,-147
2021-12-24 15:47:32.119136,-167
2021-12-24 15:47:32.119146,-204
2021-12-24 15:47:32.119155,-216
2021-12-24 15:47:32.119165,-213
2021-12-24 15:47:32.119175,-204
2021-12-24 15:47:32.119185,-206
2021-12-24 15:47:32.119195,-241
2021-12-24 15:47:32.119204,-248
2021-12-24 15:47:32.119214,-213
2021-12-24 15:47:32.119224,-197
2021-12-24 15:47:32.119234,-181
2021-12-24 15:47:32.119244,-160
2021-12-24 15:47:32.119254,-163
2021-12-24 15:47:32.119264,-160
2021-12-24 15:47:32.119274,-126
2021-12-24 15:47:32.119283,-101
2021-12-24 15:47:32.119293,-101
2021-12-24 15:47:32.119303,-101
2021-12-24 15:47:32.119313,-96
2021-12-24 15:47:32.119323,-64
2021-12-24 15:47:32.119333,-25
2021-12-24 15:47:32.119343,-22
2021-12-24 15:47:32.119352,-20
2021-12-24 15:47:32.119362,-9
2021-12-24 15:47:32.300628,-16
2021-12-24 15:47:32.300658,-18
2021-12-24 15:47:32.300669,-13
2021-12-24 15:47:32.300679,-39
2021-12-24 15:47:32.300689,-85
2021-12-24 15:47:32.300699,-101
2021-12-24 15:47:32.300708,-98
2021-12-24 15:47:32.300718,-98
2021-12-24 15:47:32.300728,-94
2021-12-24 15:47:32.300737,-87
2021-12-24 15:47:32.300747,-101
2021-12-24 15:47:32.300757,-147
2021-12-24 15:47:32.300766,-167
2021-12-24 15:47:32.300776,-133
2021-12-24 15:47:32.300786,-91
2021-12-24 15:47:32.300795,-78
2021-12-24 15:47:32.300805,-59
2021-12-24 15:47:32.300815,-32
2021-12-24 15:47:32.300824,-20
2021-12-24 15:47:32.300834,-18
2021-12-24 15:47:32.300844,-13
2021-12-24 15:47:32.300853,-9
2021-12-24 15:47:32.300863,4
2021-12-24 15:47:32.300873,11
2021-12-24 15:47:32.300882,6
2021-12-24 15:47:32.300892,11
2021-12-24 15:47:32.300901,22
2021-12-24 15:47:32.300911,18
2021-12-24 15:47:32.300921,6
2021-12-24 15:47:32.300930,13
2021-12-24 15:47:32.525618,89
2021-12-24 15:47:32.525648,195
2021-12-24 15:47:32.525660,197
2021-12-24 15:47:32.525670,20
2021-12-24 15:47:32.525680,-172
2021-12-24 15:47:32.525697,-163
2021-12-24 15:47:32.525707,-39
2021-12-24 15:47:32.525717,6
2021-12-24 15:47:32.525727,11
2021-12-24 15:47:32.525737,2
2021-12-24 15:47:32.525746,-55
2021-12-24 15:47:32.525756,-119
2021-12-24 15:47:32.525766,-160
2021-12-24 15:47:32.525776,-195
2021-12-24 15:47:32.525786,-204
2021-12-24 15:47:32.525796,-200
2021-12-24 15:47:32.525805,-204
2021-12-24 15:47:32.525815,-195
2021-12-24 15:47:32.525825,-165
2021-12-24 15:47:32.525835,-147
2021-12-24 15:47:32.525844,-147
2021-12-24 15:47:32.525854,-149
2021-12-24 15:47:32.525864,-147
2021-12-24 15:47:32.525874,-135
2021-12-24 15:47:32.525883,-103
2021-12-24 15:47:32.525893,-75
2021-12-24 15:47:32.525903,-73
2021-12-24 15:47:32.525913,-68
2021-12-24 15:47:32.525922,-36
2021-12-24 15:47:32.525932,6
2021-12-24 15:47:32.750815,50
2021-12-24 15:47:32.750845,85
2021-12-24 15:47:32.750856,96
2021-12-24 15:47:32.750867,85
2021-12-24 15:47:32.750876,64
2021-12-24 15:47:32.750886,43
2021-12-24 15:47:32.750896,45
2021-12-24 15:47:32.750906,55
2021-12-24 15:47:32.750916,22
2021-12-24 15:47:32.750926,-57
2021-12-24 15:47:32.750936,-117
2021-12-24 15:47:32.750945,-121
2021-12-24 15:47:32.750955,-103
2021-12-24 15:47:32.750965,-96
2021-12-24 15:47:32.750975,-119
2021-12-24 15:47:32.750984,-142
2021-12-24 15:47:32.750994,-135
2021-12-24 15:47:32.751004,-117
2021-12-24 15:47:32.751014,-112
2021-12-24 15:47:32.751023,-101
2021-12-24 15:47:32.751033,-85
2021-12-24 15:47:32.751043,-89
2021-12-24 15:47:32.751053,-82
2021-12-24 15:47:32.751062,-50
2021-12-24 15:47:32.751072,-13
2021-12-24 15:47:32.751082,4
2021-12-24 15:47:32.751092,11
2021-12-24 15:47:32.751102,9
2021-12-24 15:47:32.751111,18
2021-12-24 15:47:32.751121,45
2021-12-24 15:47:33.065652,64
2021-12-24 15:47:33.065683,75
2021-12-24 15:47:33.065694,89
2021-12-24 15:47:33.065704,66
2021-12-24 15:47:33.065714,20
2021-12-24 15:47:33.065724,32
2021-12-24 15:47:33.065734,66
2021-12-24 15:47:33.065743,73
2021-12-24 15:47:33.065753,75
2021-12-24 15:47:33.065763,45
2021-12-24 15:47:33.065772,4
2021-12-24 15:47:33.065782,13
2021-12-24 15:47:33.065792,48
2021-12-24 15:47:33.065801,68
2021-12-24 15:47:33.065811,80
2021-12-24 15:47:33.065821,71
2021-12-24 15:47:33.065830,41
2021-12-24 15:47:33.065840,29
2021-12-24 15:47:33.065850,55
2021-12-24 15:47:33.065859,80
2021-12-24 15:47:33.065869,80
2021-12-24 15:47:33.065879,66
2021-12-24 15:47:33.065888,73
2021-12-24 15:47:33.065898,110
2021-12-24 15:47:33.065907,135
2021-12-24 15:47:33.065917,133
2021-12-24 15:47:33.065926,124
2021-12-24 15:47:33.065936,121
2021-12-24 15:47:33.065946,128
2021-12-24 15:47:33.065955,140
2021-12-24 15:47:33.245785,126
2021-12-24 15:47:33.245815,112
2021-12-24 15:47:33.245827,110
2021-12-24 15:47:33.245837,101
2021-12-24 15:47:33.245846,103
2021-12-24 15:47:33.245856,114
2021-12-24 15:47:33.245866,124
2021-12-24 15:47:33.245875,177
2021-12-24 15:47:33.245885,225
2021-12-24 15:47:33.245894,147
2021-12-24 15:47:33.245904,-52
2021-12-24 15:47:33.245914,-188
2021-12-24 15:47:33.245923,-96
2021-12-24 15:47:33.245933,48
2021-12-24 15:47:33.245942,43
2021-12-24 15:47:33.245952,2
2021-12-24 15:47:33.245961,22
2021-12-24 15:47:33.245971,41
2021-12-24 15:47:33.245980,11
2021-12-24 15:47:33.245990,-11
2021-12-24 15:47:33.245999,-22
2021-12-24 15:47:33.246009,-52
2021-12-24 15:47:33.246018,-59
2021-12-24 15:47:33.246028,-27
2021-12-24 15:47:33.246038,-4
2021-12-24 15:47:33.246048,4
2021-12-24 15:47:33.246057,11
2021-12-24 15:47:33.246067,20
2021-12-24 15:47:33.246076,48
2021-12-24 15:47:33.246086,75
2021-12-24 15:47:33.470746,94
2021-12-24 15:47:33.470771,101
2021-12-24 15:47:33.470778,108
2021-12-24 15:47:33.470785,119
2021-12-24 15:47:33.470791,137
2021-12-24 15:47:33.470798,158
2021-12-24 15:47:33.470804,179
2021-12-24 15:47:33.470811,193
2021-12-24 15:47:33.470817,174
2021-12-24 15:47:33.470823,149
2021-12-24 15:47:33.470830,160
2021-12-24 15:47:33.470836,183
2021-12-24 15:47:33.470842,188
2021-12-24 15:47:33.470849,170
2021-12-24 15:47:33.470855,135
2021-12-24 15:47:33.470861,110
2021-12-24 15:47:33.470868,98
2021-12-24 15:47:33.470874,89
2021-12-24 15:47:33.470880,87
2021-12-24 15:47:33.470887,94
2021-12-24 15:47:33.470893,78
2021-12-24 15:47:33.470900,43
2021-12-24 15:47:33.470906,52
2021-12-24 15:47:33.470912,82
2021-12-24 15:47:33.470919,85
2021-12-24 15:47:33.470925,78
2021-12-24 15:47:33.470931,87
2021-12-24 15:47:33.470938,101
2021-12-24 15:47:33.470944,117
2021-12-24 15:47:33.470950,144
2021-12-24 15:47:33.695828,156
2021-12-24 15:47:33.695858,133
2021-12-24 15:47:33.695869,117
2021-12-24 15:47:33.695879,133
2021-12-24 15:47:33.695889,149
2021-12-24 15:47:33.695898,154
2021-12-24 15:47:33.695908,160
2021-12-24 15:47:33.695918,144
2021-12-24 15:47:33.695927,108
2021-12-24 15:47:33.695937,94
2021-12-24 15:47:33.695947,87
2021-12-24 15:47:33.695956,82
2021-12-24 15:47:33.695966,82
2021-12-24 15:47:33.695976,43
2021-12-24 15:47:33.695985,4
2021-12-24 15:47:33.695995,11
2021-12-24 15:47:33.696005,4
2021-12-24 15:47:33.696015,-18
2021-12-24 15:47:33.696024,-20
2021-12-24 15:47:33.696034,-25
2021-12-24 15:47:33.696043,-50
2021-12-24 15:47:33.696053,-91
2021-12-24 15:47:33.696063,-119
2021-12-24 15:47:33.696072,-114
2021-12-24 15:47:33.696082,-103
2021-12-24 15:47:33.696092,-98
2021-12-24 15:47:33.696101,-94
2021-12-24 15:47:33.696111,-89
2021-12-24 15:47:33.696121,-82
2021-12-24 15:47:33.696130,-55
2021-12-24 15:47:33.920651,-45
2021-12-24 15:47:33.920672,-57
2021-12-24 15:47:33.920680,-52
2021-12-24 15:47:33.920687,-41
2021-12-24 15:47:33.920693,-36
2021-12-24 15:47:33.920700,-13
2021-12-24 15:47:33.920706,-13
2021-12-24 15:47:33.920712,-25
2021-12-24 15:47:33.920719,-2
2021-12-24 15:47:33.920725,9
2021-12-24 15:47:33.920731,-11
2021-12-24 15:47:33.920738,-18
2021-12-24 15:47:33.920744,-27
2021-12-24 15:47:33.920750,-43
2021-12-24 15:47:33.920757,-27
2021-12-24 15:47:33.920763,-13
2021-12-24 15:47:33.920769,-16
2021-12-24 15:47:33.920775,0
2021-12-24 15:47:33.920782,16
2021-12-24 15:47:33.920788,18
2021-12-24 15:47:33.920794,45
2021-12-24 15:47:33.920800,121
2021-12-24 15:47:33.920807,206
2021-12-24 15:47:33.920813,193
2021-12-24 15:47:33.920819,-13
2021-12-24 15:47:33.920826,-229
2021-12-24 15:47:33.920832,-163
2021-12-24 15:47:33.920838,4
2021-12-24 15:47:33.920845,18
2021-12-24 15:47:33.920851,9
2021-12-24 15:47:34.234861,45
2021-12-24 15:47:34.234890,62
2021-12-24 15:47:34.234902,57
2021-12-24 15:47:34.234912,57
2021-12-24 15:47:34.234922,62
2021-12-24 15:47:34.234932,55
2021-12-24 15:47:34.234942,43
2021-12-24 15:47:34.234951,50
2021-12-24 15:47:34.234961,66
2021-12-24 15:47:34.234971,64
2021-12-24 15:47:34.234980,59
2021-12-24 15:47:34.234990,48
2021-12-24 15:47:34.235000,27
2021-12-24 15:47:34.235009,34
2021-12-24 15:47:34.235019,55
2021-12-24 15:47:34.235028,57
2021-12-24 15:47:34.235038,71
2021-12-24 15:47:34.235048,85
2021-12-24 15:47:34.235058,85
2021-12-24 15:47:34.235067,105
2021-12-24 15:47:34.235077,137
2021-12-24 15:47:34.235087,137
2021-12-24 15:47:34.235096,124
2021-12-24 15:47:34.235106,135
2021-12-24 15:47:34.235116,163
2021-12-24 15:47:34.235125,174
2021-12-24 15:47:34.235135,142
2021-12-24 15:47:34.235145,87
2021-12-24 15:47:34.235155,55
2021-12-24 15:47:34.235164,45
2021-12-24 15:47:34.415031,27
2021-12-24 15:47:34.415061,9
2021-12-24 15:47:34.415072,-9
2021-12-24 15:47:34.415082,-36
2021-12-24 15:47:34.415092,-71
2021-12-24 15:47:34.415101,-110
2021-12-24 15:47:34.415111,-119
2021-12-24 15:47:34.415121,-91
2021-12-24 15:47:34.415130,-85
2021-12-24 15:47:34.415140,-114
2021-12-24 15:47:34.415149,-147
2021-12-24 15:47:34.415164,-151
2021-12-24 15:47:34.415174,-128
2021-12-24 15:47:34.415183,-101
2021-12-24 15:47:34.415193,-96
2021-12-24 15:47:34.415203,-105
2021-12-24 15:47:34.415212,-105
2021-12-24 15:47:34.415222,-105
2021-12-24 15:47:34.415231,-103
2021-12-24 15:47:34.415241,-87
2021-12-24 15:47:34.415251,-68
2021-12-24 15:47:34.415260,-75
2021-12-24 15:47:34.415270,-103
2021-12-24 15:47:34.415279,-110
2021-12-24 15:47:34.415289,-87
2021-12-24 15:47:34.415299,-68
2021-12-24 15:47:34.415309,-78
2021-12-24 15:47:34.415318,-117
2021-12-24 15:47:34.415328,-165
2021-12-24 15:47:34.415338,-181
2021-12-24 15:47:34.595655,-158
2021-12-24 15:47:34.595684,-137
2021-12-24 15:47:34.595696,-149
2021-12-24 15:47:34.595706,-177
2021-12-24 15:47:34.595716,-213
2021-12-24 15:47:34.595726,-250
2021-12-24 15:47:34.595735,-255
2021-12-24 15:47:34.595745,-225
2021-12-24 15:47:34.595755,-202
2021-12-24 15:47:34.595765,-213
2021-12-24 15:47:34.595774,-243
2021-12-24 15:47:34.595784,-245
2021-12-24 15:47:34.595794,-211
2021-12-24 15:47:34.595803,-177
2021-12-24 15:47:34.595813,-170
2021-12-24 15:47:34.595823,-181
2021-12-24 15:47:34.595832,-183
2021-12-24 15:47:34.595842,-165
2021-12-24 15:47:34.595852,-154
2021-12-24 15:47:34.595862,-163
2021-12-24 15:47:34.595871,-147
2021-12-24 15:47:34.595881,-119
2021-12-24 15:47:34.595891,-89
2021-12-24 15:47:34.595900,-9
2021-12-24 15:47:34.595910,64
2021-12-24 15:47:34.595920,-18
2021-12-24 15:47:34.595929,-255
2021-12-24 15:47:34.595939,-356
2021-12-24 15:47:34.595949,-202
2021-12-24 15:47:34.595959,-78
2021-12-24 15:47:34.910630,-96
2021-12-24 15:47:34.910659,-103
2021-12-24 15:47:34.910671,-96
2021-12-24 15:47:34.910681,-165
2021-12-24 15:47:34.910691,-218
2021-12-24 15:47:34.910701,-174
2021-12-24 15:47:34.910711,-137
2021-12-24 15:47:34.910720,-149
2021-12-24 15:47:34.910730,-147
2021-12-24 15:47:34.910740,-156
2021-12-24 15:47:34.910750,-172
2021-12-24 15:47:34.910760,-142
2021-12-24 15:47:34.910769,-105
2021-12-24 15:47:34.910779,-94
2021-12-24 15:47:34.910789,-89
2021-12-24 15:47:34.910799,-82
2021-12-24 15:47:34.910809,-75
2021-12-24 15:47:34.910819,-55
2021-12-24 15:47:34.910829,-9
2021-12-24 15:47:34.910839,29
2021-12-24 15:47:34.910849,20
2021-12-24 15:47:34.910859,11
2021-12-24 15:47:34.910868,48
2021-12-24 15:47:34.910878,91
2021-12-24 15:47:34.910888,119
2021-12-24 15:47:34.910898,140
2021-12-24 15:47:34.910907,135
2021-12-24 15:47:34.910917,101
2021-12-24 15:47:34.910927,91
2021-12-24 15:47:34.910937,101
2021-12-24 15:47:35.135755,68
2021-12-24 15:47:35.135776,9
2021-12-24 15:47:35.135784,-68
2021-12-24 15:47:35.135790,-119
2021-12-24 15:47:35.135797,-117
2021-12-24 15:47:35.135803,-110
2021-12-24 15:47:35.135809,-112
2021-12-24 15:47:35.135816,-101
2021-12-24 15:47:35.135822,-96
2021-12-24 15:47:35.135828,-96
2021-12-24 15:47:35.135835,-68
2021-12-24 15:47:35.135841,-29
2021-12-24 15:47:35.135847,-32
2021-12-24 15:47:35.135854,-43
2021-12-24 15:47:35.135860,-39
2021-12-24 15:47:35.135866,-43
2021-12-24 15:47:35.135873,-36
2021-12-24 15:47:35.135879,-27
2021-12-24 15:47:35.135885,-25
2021-12-24 15:47:35.135892,-4
2021-12-24 15:47:35.135898,-6
2021-12-24 15:47:35.135904,-29
2021-12-24 15:47:35.135911,-16
2021-12-24 15:47:35.135917,6
2021-12-24 15:47:35.135923,4
2021-12-24 15:47:35.135930,4
2021-12-24 15:47:35.135936,-6
2021-12-24 15:47:35.135942,-22
2021-12-24 15:47:35.135949,0
2021-12-24 15:47:35.135955,29
2021-12-24 15:47:35.315600,34
2021-12-24 15:47:35.315630,36
2021-12-24 15:47:35.315641,9
2021-12-24 15:47:35.315651,-27
2021-12-24 15:47:35.315661,-22
2021-12-24 15:47:35.315671,-18
2021-12-24 15:47:35.315681,-11
2021-12-24 15:47:35.315690,11
2021-12-24 15:47:35.315700,0
2021-12-24 15:47:35.315710,-36
2021-12-24 15:47:35.315720,-29
2021-12-24 15:47:35.315729,-6
2021-12-24 15:47:35.315739,-2
2021-12-24 15:47:35.315749,-9
2021-12-24 15:47:35.315758,-29
2021-12-24 15:47:35.315768,-36
2021-12-24 15:47:35.315778,-20
2021-12-24 15:47:35.315787,-4
2021-12-24 15:47:35.315797,0
2021-12-24 15:47:35.315806,-22
2021-12-24 15:47:35.315816,-55
2021-12-24 15:47:35.315826,-57
2021-12-24 15:47:35.315836,-43
2021-12-24 15:47:35.315845,-27
2021-12-24 15:47:35.315855,-18
2021-12-24 15:47:35.315865,-25
2021-12-24 15:47:35.315874,-22
2021-12-24 15:47:35.315884,-2
2021-12-24 15:47:35.315894,64
2021-12-24 15:47:35.315903,165
2021-12-24 15:47:35.540709,165
2021-12-24 15:47:35.540739,-34
2021-12-24 15:47:35.540751,-234
2021-12-24 15:47:35.540761,-174
2021-12-24 15:47:35.540770,-18
2021-12-24 15:47:35.540780,13
2021-12-24 15:47:35.540790,-11
2021-12-24 15:47:35.540800,-41
2021-12-24 15:47:35.540815,-73
2021-12-24 15:47:35.540825,-75
2021-12-24 15:47:35.540834,-57
2021-12-24 15:47:35.540844,-43
2021-12-24 15:47:35.540854,-48
2021-12-24 15:47:35.540864,-82
2021-12-24 15:47:35.540874,-108
2021-12-24 15:47:35.540883,-94
2021-12-24 15:47:35.540893,-66
2021-12-24 15:47:35.540903,-62
2021-12-24 15:47:35.540913,-57
2021-12-24 15:47:35.540922,-41
2021-12-24 15:47:35.540932,-34
2021-12-24 15:47:35.540942,-29
2021-12-24 15:47:35.540952,-11
2021-12-24 15:47:35.540962,18
2021-12-24 15:47:35.540972,39
2021-12-24 15:47:35.540982,43
2021-12-24 15:47:35.540992,57
2021-12-24 15:47:35.541002,82
2021-12-24 15:47:35.541012,98
2021-12-24 15:47:35.541021,121
2021-12-24 15:47:35.765599,140
2021-12-24 15:47:35.765629,149
2021-12-24 15:47:35.765641,165
2021-12-24 15:47:35.765651,165
2021-12-24 15:47:35.765661,154
2021-12-24 15:47:35.765670,142
2021-12-24 15:47:35.765680,94
2021-12-24 15:47:35.765689,34
2021-12-24 15:47:35.765699,4
2021-12-24 15:47:35.765709,-25
2021-12-24 15:47:35.765719,-34
2021-12-24 15:47:35.765728,-22
2021-12-24 15:47:35.765738,-45
2021-12-24 15:47:35.765748,-73
2021-12-24 15:47:35.765757,-71
2021-12-24 15:47:35.765767,-98
2021-12-24 15:47:35.765777,-117
2021-12-24 15:47:35.765787,-80
2021-12-24 15:47:35.765796,-71
2021-12-24 15:47:35.765806,-82
2021-12-24 15:47:35.765816,-59
2021-12-24 15:47:35.765825,-39
2021-12-24 15:47:35.765835,-41
2021-12-24 15:47:35.765845,-41
2021-12-24 15:47:35.765855,-32
2021-12-24 15:47:35.765865,-18
2021-12-24 15:47:35.765874,-22
2021-12-24 15:47:35.765884,-29
2021-12-24 15:47:35.765894,-18
2021-12-24 15:47:35.765904,-13
2021-12-24 15:47:35.990101,-18
2021-12-24 15:47:35.990122,-20
2021-12-24 15:47:35.990130,-32
2021-12-24 15:47:35.990136,-59
2021-12-24 15:47:35.990143,-75
2021-12-24 15:47:35.990149,-96
2021-12-24 15:47:35.990156,-140
2021-12-24 15:47:35.990162,-165
2021-12-24 15:47:35.990168,-188
2021-12-24 15:47:35.990175,-227
2021-12-24 15:47:35.990181,-271
2021-12-24 15:47:35.990188,-331
2021-12-24 15:47:35.990194,-370
2021-12-24 15:47:35.990200,-358
2021-12-24 15:47:35.990207,-354
2021-12-24 15:47:35.990213,-370
2021-12-24 15:47:35.990220,-370
2021-12-24 15:47:35.990226,-386
2021-12-24 15:47:35.990233,-402
2021-12-24 15:47:35.990239,-381
2021-12-24 15:47:35.990245,-356
2021-12-24 15:47:35.990252,-358
2021-12-24 15:47:35.990258,-377
2021-12-24 15:47:35.990264,-386
2021-12-24 15:47:35.990271,-374
2021-12-24 15:47:35.990277,-354
2021-12-24 15:47:35.990283,-344
2021-12-24 15:47:35.990290,-349
2021-12-24 15:47:35.990296,-347
2021-12-24 15:47:35.990302,-340
2021-12-24 15:47:36.258778,-337
2021-12-24 15:47:36.258800,-321
2021-12-24 15:47:36.258807,-303
2021-12-24 15:47:36.258814,-308
2021-12-24 15:47:36.258821,-280
2021-12-24 15:47:36.258827,-200
2021-12-24 15:47:36.258833,-163
2021-12-24 15:47:36.258840,-289
2021-12-24 15:47:36.258846,-533
2021-12-24 15:47:36.258852,-600
2021-12-24 15:47:36.258859,-439
2021-12-24 15:47:36.258865,-370
2021-12-24 15:47:36.258871,-397
2021-12-24 15:47:36.258878,-363
2021-12-24 15:47:36.258884,-331
2021-12-24 15:47:36.258891,-342
2021-12-24 15:47:36.258897,-342
2021-12-24 15:47:36.258904,-319
2021-12-24 15:47:36.258910,-298
2021-12-24 15:47:36.258916,-296
2021-12-24 15:47:36.258923,-333
2021-12-24 15:47:36.258929,-367
2021-12-24 15:47:36.258936,-344
2021-12-24 15:47:36.258942,-312
2021-12-24 15:47:36.258948,-296
2021-12-24 15:47:36.258955,-275
2021-12-24 15:47:36.258961,-248
2021-12-24 15:47:36.258967,-239
2021-12-24 15:47:36.258974,-239
2021-12-24 15:47:36.258980,-223
2021-12-24 15:47:36.440074,-190
2021-12-24 15:47:36.440095,-163
2021-12-24 15:47:36.440102,-149
2021-12-24 15:47:36.440109,-149
2021-12-24 15:47:36.440115,-163
2021-12-24 15:47:36.440122,-158
2021-12-24 15:47:36.440129,-126
2021-12-24 15:47:36.440135,-101
2021-12-24 15:47:36.440141,-87
2021-12-24 15:47:36.440148,-101
2021-12-24 15:47:36.440154,-163
2021-12-24 15:47:36.440161,-202
2021-12-24 15:47:36.440167,-177
2021-12-24 15:47:36.440174,-165
2021-12-24 15:47:36.440180,-218
2021-12-24 15:47:36.440187,-278
2021-12-24 15:47:36.440193,-289
2021-12-24 15:47:36.440199,-264
2021-12-24 15:47:36.440206,-243
2021-12-24 15:47:36.440212,-239
2021-12-24 15:47:36.440218,-234
2021-12-24 15:47:36.440225,-236
2021-12-24 15:47:36.440231,-243
2021-12-24 15:47:36.440238,-220
2021-12-24 15:47:36.440244,-186
2021-12-24 15:47:36.440250,-167
2021-12-24 15:47:36.440257,-163
2021-12-24 15:47:36.440263,-163
2021-12-24 15:47:36.440269,-160
2021-12-24 15:47:36.440276,-142
2021-12-24 15:47:36.710622,-119
2021-12-24 15:47:36.710652,-101
2021-12-24 15:47:36.710663,-96
2021-12-24 15:47:36.710673,-140
2021-12-24 15:47:36.710683,-183
2021-12-24 15:47:36.710692,-160
2021-12-24 15:47:36.710702,-105
2021-12-24 15:47:36.710712,-73
2021-12-24 15:47:36.710721,-78
2021-12-24 15:47:36.710731,-126
2021-12-24 15:47:36.710740,-165
2021-12-24 15:47:36.710750,-154
2021-12-24 15:47:36.710760,-137
2021-12-24 15:47:36.710769,-119
2021-12-24 15:47:36.710779,-94
2021-12-24 15:47:36.710788,-117
2021-12-24 15:47:36.710798,-170
2021-12-24 15:47:36.710808,-195
2021-12-24 15:47:36.710817,-190
2021-12-24 15:47:36.710827,-172
2021-12-24 15:47:36.710837,-179
2021-12-24 15:47:36.710846,-216
2021-12-24 15:47:36.710856,-234
2021-12-24 15:47:36.710870,-209
2021-12-24 15:47:36.710880,-211
2021-12-24 15:47:36.710890,-282
2021-12-24 15:47:36.710900,-342
2021-12-24 15:47:36.710910,-344
2021-12-24 15:47:36.710919,-312
2021-12-24 15:47:36.710929,-282
2021-12-24 15:47:36.980676,-273
2021-12-24 15:47:36.980697,-268
2021-12-24 15:47:36.980704,-268
2021-12-24 15:47:36.980711,-282
2021-12-24 15:47:36.980717,-280
2021-12-24 15:47:36.980723,-262
2021-12-24 15:47:36.980730,-239
2021-12-24 15:47:36.980736,-186
2021-12-24 15:47:36.980742,-121
2021-12-24 15:47:36.980748,-78
2021-12-24 15:47:36.980755,-85
2021-12-24 15:47:36.980761,-255
2021-12-24 15:47:36.980767,-457
2021-12-24 15:47:36.980773,-393
2021-12-24 15:47:36.980780,-243
2021-12-24 15:47:36.980786,-257
2021-12-24 15:47:36.980792,-250
2021-12-24 15:47:36.980799,-177
2021-12-24 15:47:36.980805,-167
2021-12-24 15:47:36.980811,-209
2021-12-24 15:47:36.980817,-220
2021-12-24 15:47:36.980824,-213
2021-12-24 15:47:36.980830,-206
2021-12-24 15:47:36.980836,-181
2021-12-24 15:47:36.980842,-137
2021-12-24 15:47:36.980849,-114
2021-12-24 15:47:36.980855,-128
2021-12-24 15:47:36.980861,-140
2021-12-24 15:47:36.980868,-119
2021-12-24 15:47:36.980874,-98
2021-12-24 15:47:37.160643,-80
2021-12-24 15:47:37.160673,-55
2021-12-24 15:47:37.160684,-57
2021-12-24 15:47:37.160694,-78
2021-12-24 15:47:37.160704,-57
2021-12-24 15:47:37.160714,-9
2021-12-24 15:47:37.160724,20
2021-12-24 15:47:37.160733,11
2021-12-24 15:47:37.160743,-25
2021-12-24 15:47:37.160753,-43
2021-12-24 15:47:37.160762,-25
2021-12-24 15:47:37.160772,11
2021-12-24 15:47:37.160781,43
2021-12-24 15:47:37.160791,22
2021-12-24 15:47:37.160801,-57
2021-12-24 15:47:37.160811,-94
2021-12-24 15:47:37.160820,-59
2021-12-24 15:47:37.160830,-66
2021-12-24 15:47:37.160840,-112
2021-12-24 15:47:37.160849,-137
2021-12-24 15:47:37.160859,-183
2021-12-24 15:47:37.160869,-239
2021-12-24 15:47:37.160878,-243
2021-12-24 15:47:37.160888,-220
2021-12-24 15:47:37.160897,-211
2021-12-24 15:47:37.160907,-195
2021-12-24 15:47:37.160917,-181
2021-12-24 15:47:37.160926,-179
2021-12-24 15:47:37.160936,-174
2021-12-24 15:47:37.160946,-160
2021-12-24 15:47:37.385849,-163
2021-12-24 15:47:37.385879,-195
2021-12-24 15:47:37.385890,-200
2021-12-24 15:47:37.385900,-174
2021-12-24 15:47:37.385910,-158
2021-12-24 15:47:37.385920,-147
2021-12-24 15:47:37.385930,-142
2021-12-24 15:47:37.385939,-174
2021-12-24 15:47:37.385949,-197
2021-12-24 15:47:37.385959,-177
2021-12-24 15:47:37.385969,-151
2021-12-24 15:47:37.385979,-135
2021-12-24 15:47:37.385989,-121
2021-12-24 15:47:37.385999,-140
2021-12-24 15:47:37.386008,-156
2021-12-24 15:47:37.386018,-151
2021-12-24 15:47:37.386028,-149
2021-12-24 15:47:37.386038,-142
2021-12-24 15:47:37.386047,-135
2021-12-24 15:47:37.386057,-124
2021-12-24 15:47:37.386067,-108
2021-12-24 15:47:37.386077,-101
2021-12-24 15:47:37.386087,-101
2021-12-24 15:47:37.386097,-110
2021-12-24 15:47:37.386107,-131
2021-12-24 15:47:37.386116,-126
2021-12-24 15:47:37.386126,-117
2021-12-24 15:47:37.386136,-117
2021-12-24 15:47:37.386146,-98
2021-12-24 15:47:37.386156,-75
2021-12-24 15:47:37.610839,-75
2021-12-24 15:47:37.610870,-75
2021-12-24 15:47:37.610881,-57
2021-12-24 15:47:37.610891,-55
2021-12-24 15:47:37.610901,-59
2021-12-24 15:47:37.610911,-50
2021-12-24 15:47:37.610921,-62
2021-12-24 15:47:37.610930,-82
2021-12-24 15:47:37.610940,-52
2021-12-24 15:47:37.610950,-36
2021-12-24 15:47:37.610959,-73
2021-12-24 15:47:37.610969,-94
2021-12-24 15:47:37.610979,-108
2021-12-24 15:47:37.610989,-133
2021-12-24 15:47:37.610998,-124
2021-12-24 15:47:37.611008,-128
2021-12-24 15:47:37.611018,-154
2021-12-24 15:47:37.611027,-156
2021-12-24 15:47:37.611037,-167
2021-12-24 15:47:37.611047,-181
2021-12-24 15:47:37.611057,-165
2021-12-24 15:47:37.611066,-154
2021-12-24 15:47:37.611076,-149
2021-12-24 15:47:37.611086,-91
2021-12-24 15:47:37.611096,16
2021-12-24 15:47:37.611105,64
2021-12-24 15:47:37.611115,-52
2021-12-24 15:47:37.611125,-294
2021-12-24 15:47:37.611135,-381
2021-12-24 15:47:37.611145,-225
2021-12-24 15:47:37.835489,-117
2021-12-24 15:47:37.835510,-124
2021-12-24 15:47:37.835518,-89
2021-12-24 15:47:37.835524,-66
2021-12-24 15:47:37.835530,-75
2021-12-24 15:47:37.835537,-78
2021-12-24 15:47:37.835543,-112
2021-12-24 15:47:37.835550,-154
2021-12-24 15:47:37.835556,-160
2021-12-24 15:47:37.835562,-158
2021-12-24 15:47:37.835568,-158
2021-12-24 15:47:37.835575,-167
2021-12-24 15:47:37.835581,-165
2021-12-24 15:47:37.835587,-124
2021-12-24 15:47:37.835593,-94
2021-12-24 15:47:37.835600,-110
2021-12-24 15:47:37.835606,-112
2021-12-24 15:47:37.835612,-98
2021-12-24 15:47:37.835619,-89
2021-12-24 15:47:37.835625,-73
2021-12-24 15:47:37.835631,-48
2021-12-24 15:47:37.835637,-29
2021-12-24 15:47:37.835644,-18
2021-12-24 15:47:37.835650,-9
2021-12-24 15:47:37.835656,20
2021-12-24 15:47:37.835663,50
2021-12-24 15:47:37.835669,50
2021-12-24 15:47:37.835675,27
2021-12-24 15:47:37.835682,2
2021-12-24 15:47:37.835688,-4
2021-12-24 15:47:38.060785,-2
2021-12-24 15:47:38.060806,-9
2021-12-24 15:47:38.060813,-34
2021-12-24 15:47:38.060820,-62
2021-12-24 15:47:38.060827,-94
2021-12-24 15:47:38.060833,-133
2021-12-24 15:47:38.060839,-140
2021-12-24 15:47:38.060846,-121
2021-12-24 15:47:38.060852,-117
2021-12-24 15:47:38.060859,-121
2021-12-24 15:47:38.060865,-135
2021-12-24 15:47:38.060871,-167
2021-12-24 15:47:38.060878,-172
2021-12-24 15:47:38.060884,-144
2021-12-24 15:47:38.060891,-137
2021-12-24 15:47:38.060897,-142
2021-12-24 15:47:38.060903,-131
2021-12-24 15:47:38.060910,-128
2021-12-24 15:47:38.060916,-131
2021-12-24 15:47:38.060923,-117
2021-12-24 15:47:38.060929,-108
2021-12-24 15:47:38.060935,-112
2021-12-24 15:47:38.060942,-117
2021-12-24 15:47:38.060948,-117
2021-12-24 15:47:38.060955,-103
2021-12-24 15:47:38.060961,-80
2021-12-24 15:47:38.060967,-89
2021-12-24 15:47:38.060974,-110
2021-12-24 15:47:38.060980,-112
2021-12-24 15:47:38.060995,-124
2021-12-24 15:47:38.374517,-135
2021-12-24 15:47:38.374540,-124
2021-12-24 15:47:38.374547,-124
2021-12-24 15:47:38.374554,-147
2021-12-24 15:47:38.374560,-177
2021-12-24 15:47:38.374567,-186
2021-12-24 15:47:38.374573,-156
2021-12-24 15:47:38.374579,-126
2021-12-24 15:47:38.374586,-128
2021-12-24 15:47:38.374592,-156
2021-12-24 15:47:38.374599,-190
2021-12-24 15:47:38.374605,-193
2021-12-24 15:47:38.374611,-183
2021-12-24 15:47:38.374618,-213
2021-12-24 15:47:38.374624,-257
2021-12-24 15:47:38.374630,-268
2021-12-24 15:47:38.374637,-278
2021-12-24 15:47:38.374643,-291
2021-12-24 15:47:38.374649,-278
2021-12-24 15:47:38.374655,-257
2021-12-24 15:47:38.374662,-262
2021-12-24 15:47:38.374668,-268
2021-12-24 15:47:38.374674,-213
2021-12-24 15:47:38.374681,-121
2021-12-24 15:47:38.374687,-163
2021-12-24 15:47:38.374693,-400
2021-12-24 15:47:38.374700,-579
2021-12-24 15:47:38.374706,-496
2021-12-24 15:47:38.374712,-360
2021-12-24 15:47:38.374718,-340
2021-12-24 15:47:38.555753,-335
2021-12-24 15:47:38.555782,-335
2021-12-24 15:47:38.555794,-356
2021-12-24 15:47:38.555804,-349
2021-12-24 15:47:38.555814,-321
2021-12-24 15:47:38.555824,-312
2021-12-24 15:47:38.555834,-305
2021-12-24 15:47:38.555843,-285
2021-12-24 15:47:38.555853,-287
2021-12-24 15:47:38.555863,-328
2021-12-24 15:47:38.555873,-335
2021-12-24 15:47:38.555883,-298
2021-12-24 15:47:38.555893,-282
2021-12-24 15:47:38.555902,-280
2021-12-24 15:47:38.555912,-266
2021-12-24 15:47:38.555922,-280
2021-12-24 15:47:38.555932,-289
2021-12-24 15:47:38.555942,-252
2021-12-24 15:47:38.555952,-211
2021-12-24 15:47:38.555962,-195
2021-12-24 15:47:38.555971,-195
2021-12-24 15:47:38.555981,-202
2021-12-24 15:47:38.555991,-190
2021-12-24 15:47:38.556001,-154
2021-12-24 15:47:38.556011,-124
2021-12-24 15:47:38.556021,-101
2021-12-24 15:47:38.556030,-96
2021-12-24 15:47:38.556040,-112
2021-12-24 15:47:38.556050,-108
2021-12-24 15:47:38.556060,-98
2021-12-24 15:47:38.780657,-114
2021-12-24 15:47:38.780687,-126
2021-12-24 15:47:38.780698,-144
2021-12-24 15:47:38.780708,-188
2021-12-24 15:47:38.780718,-204
2021-12-24 15:47:38.780728,-172
2021-12-24 15:47:38.780738,-156
2021-12-24 15:47:38.780747,-167
2021-12-24 15:47:38.780757,-193
2021-12-24 15:47:38.780767,-213
2021-12-24 15:47:38.780777,-190
2021-12-24 15:47:38.780786,-154
2021-12-24 15:47:38.780796,-142
2021-12-24 15:47:38.780806,-133
2021-12-24 15:47:38.780816,-151
2021-12-24 15:47:38.780826,-177
2021-12-24 15:47:38.780835,-158
2021-12-24 15:47:38.780845,-128
2021-12-24 15:47:38.780855,-121
2021-12-24 15:47:38.780864,-151
2021-12-24 15:47:38.780874,-183
2021-12-24 15:47:38.780884,-177
2021-12-24 15:47:38.780893,-149
2021-12-24 15:47:38.780903,-131
2021-12-24 15:47:38.780913,-124
2021-12-24 15:47:38.780923,-124
2021-12-24 15:47:38.780932,-140
2021-12-24 15:47:38.780942,-151
2021-12-24 15:47:38.780952,-133
2021-12-24 15:47:38.780961,-101
2021-12-24 15:47:39.140344,-89
2021-12-24 15:47:39.140365,-82
2021-12-24 15:47:39.140373,-87
2021-12-24 15:47:39.140379,-98
2021-12-24 15:47:39.140386,-101
2021-12-24 15:47:39.140392,-103
2021-12-24 15:47:39.140399,-112
2021-12-24 15:47:39.140405,-128
2021-12-24 15:47:39.140411,-160
2021-12-24 15:47:39.140418,-170
2021-12-24 15:47:39.140424,-137
2021-12-24 15:47:39.140430,-117
2021-12-24 15:47:39.140437,-124
2021-12-24 15:47:39.140443,-135
2021-12-24 15:47:39.140450,-156
2021-12-24 15:47:39.140456,-158
2021-12-24 15:47:39.140462,-135
2021-12-24 15:47:39.140469,-119
2021-12-24 15:47:39.140475,-117
2021-12-24 15:47:39.140482,-121
2021-12-24 15:47:39.140488,-126
2021-12-24 15:47:39.140495,-110
2021-12-24 15:47:39.140501,-80
2021-12-24 15:47:39.140507,-62
2021-12-24 15:47:39.140514,-55
2021-12-24 15:47:39.140520,-57
2021-12-24 15:47:39.140527,-66
2021-12-24 15:47:39.140533,-68
2021-12-24 15:47:39.140539,-55
2021-12-24 15:47:39.140546,-41
2021-12-24 15:47:39.230626,-59
2021-12-24 15:47:39.230656,-89
2021-12-24 15:47:39.230667,-87
2021-12-24 15:47:39.230677,-82
2021-12-24 15:47:39.230687,-89
2021-12-24 15:47:39.230697,-94
2021-12-24 15:47:39.230706,-108
2021-12-24 15:47:39.230716,-121
2021-12-24 15:47:39.230726,-85
2021-12-24 15:47:39.230736,-20
2021-12-24 15:47:39.230745,-48
2021-12-24 15:47:39.230755,-241
2021-12-24 15:47:39.230765,-420
2021-12-24 15:47:39.230775,-356
2021-12-24 15:47:39.230784,-218
2021-12-24 15:47:39.230794,-204
2021-12-24 15:47:39.230804,-197
2021-12-24 15:47:39.230814,-158
2021-12-24 15:47:39.230823,-177
2021-12-24 15:47:39.230833,-216
2021-12-24 15:47:39.230843,-209
2021-12-24 15:47:39.230852,-200
2021-12-24 15:47:39.230862,-200
2021-12-24 15:47:39.230872,-174
2021-12-24 15:47:39.230882,-174
2021-12-24 15:47:39.230891,-213
2021-12-24 15:47:39.230901,-218
2021-12-24 15:47:39.230911,-190
2021-12-24 15:47:39.230921,-167
2021-12-24 15:47:39.230930,-144
2021-12-24 15:47:39.500841,-154
2021-12-24 15:47:39.500872,-179
2021-12-24 15:47:39.500883,-167
2021-12-24 15:47:39.500893,-147
2021-12-24 15:47:39.500903,-133
2021-12-24 15:47:39.500913,-119
2021-12-24 15:47:39.500923,-124
2021-12-24 15:47:39.500932,-128
2021-12-24 15:47:39.500942,-105
2021-12-24 15:47:39.500952,-105
2021-12-24 15:47:39.500962,-126
2021-12-24 15:47:39.500971,-112
2021-12-24 15:47:39.500981,-110
2021-12-24 15:47:39.500991,-126
2021-12-24 15:47:39.501000,-114
2021-12-24 15:47:39.501010,-110
2021-12-24 15:47:39.501020,-126
2021-12-24 15:47:39.501030,-126
2021-12-24 15:47:39.501040,-124
2021-12-24 15:47:39.501049,-126
2021-12-24 15:47:39.501059,-124
2021-12-24 15:47:39.501069,-128
2021-12-24 15:47:39.501078,-128
2021-12-24 15:47:39.501088,-112
2021-12-24 15:47:39.501098,-103
2021-12-24 15:47:39.501108,-89
2021-12-24 15:47:39.501117,-57
2021-12-24 15:47:39.501127,-39
2021-12-24 15:47:39.501137,-27
2021-12-24 15:47:39.501147,-6
2021-12-24 15:47:39.725036,4
2021-12-24 15:47:39.725067,13
2021-12-24 15:47:39.725078,22
2021-12-24 15:47:39.725088,22
2021-12-24 15:47:39.725098,29
2021-12-24 15:47:39.725108,27
2021-12-24 15:47:39.725117,9
2021-12-24 15:47:39.725127,18
2021-12-24 15:47:39.725137,43
2021-12-24 15:47:39.725146,48
2021-12-24 15:47:39.725156,48
2021-12-24 15:47:39.725166,39
2021-12-24 15:47:39.725175,22
2021-12-24 15:47:39.725185,45
2021-12-24 15:47:39.725194,78
2021-12-24 15:47:39.725204,82
2021-12-24 15:47:39.725214,80
2021-12-24 15:47:39.725223,73
2021-12-24 15:47:39.725233,59
2021-12-24 15:47:39.725243,82
2021-12-24 15:47:39.725252,105
2021-12-24 15:47:39.725262,89
2021-12-24 15:47:39.725271,82
2021-12-24 15:47:39.725281,96
2021-12-24 15:47:39.725291,108
2021-12-24 15:47:39.725300,124
2021-12-24 15:47:39.725310,135
2021-12-24 15:47:39.725320,131
2021-12-24 15:47:39.725339,137
2021-12-24 15:47:39.725349,124
2021-12-24 15:47:39.905669,73
2021-12-24 15:47:39.905700,59
2021-12-24 15:47:39.905711,64
2021-12-24 15:47:39.905721,52
2021-12-24 15:47:39.905730,66
2021-12-24 15:47:39.905740,82
2021-12-24 15:47:39.905749,73
2021-12-24 15:47:39.905759,64
2021-12-24 15:47:39.905768,52
2021-12-24 15:47:39.905778,39
2021-12-24 15:47:39.905787,13
2021-12-24 15:47:39.905797,-18
2021-12-24 15:47:39.905807,-13
2021-12-24 15:47:39.905816,0
2021-12-24 15:47:39.905826,-13
2021-12-24 15:47:39.905835,-11
2021-12-24 15:47:39.905845,-6
2021-12-24 15:47:39.905854,-18
2021-12-24 15:47:39.905864,6
2021-12-24 15:47:39.905873,75
2021-12-24 15:47:39.905883,165
2021-12-24 15:47:39.905892,241
2021-12-24 15:47:39.905902,204
2021-12-24 15:47:39.905911,9
2021-12-24 15:47:39.905921,-110
2021-12-24 15:47:39.905930,18
2021-12-24 15:47:39.905939,156
2021-12-24 15:47:39.905949,156
2021-12-24 15:47:39.905958,165
2021-12-24 15:47:39.905968,197
2021-12-24 15:47:40.220199,216
2021-12-24 15:47:40.220229,243
2021-12-24 15:47:40.220241,264
2021-12-24 15:47:40.220251,248
2021-12-24 15:47:40.220261,223
2021-12-24 15:47:40.220271,229
2021-12-24 15:47:40.220281,259
2021-12-24 15:47:40.220291,275
2021-12-24 15:47:40.220300,282
2021-12-24 15:47:40.220310,282
2021-12-24 15:47:40.220320,259
2021-12-24 15:47:40.220330,257
2021-12-24 15:47:40.220340,291
2021-12-24 15:47:40.220350,314
2021-12-24 15:47:40.220360,319
2021-12-24 15:47:40.220370,296
2021-12-24 15:47:40.220380,257
2021-12-24 15:47:40.220389,278
2021-12-24 15:47:40.220399,337
2021-12-24 15:47:40.220409,367
2021-12-24 15:47:40.220419,377
2021-12-24 15:47:40.220429,381
2021-12-24 15:47:40.220439,386
2021-12-24 15:47:40.220448,402
2021-12-24 15:47:40.220458,427
2021-12-24 15:47:40.220468,450
2021-12-24 15:47:40.220478,452
2021-12-24 15:47:40.220488,413
2021-12-24 15:47:40.220498,365
2021-12-24 15:47:40.220508,351
2021-12-24 15:47:40.444268,367
2021-12-24 15:47:40.444297,374
2021-12-24 15:47:40.444309,360
2021-12-24 15:47:40.444319,319
2021-12-24 15:47:40.444328,266
2021-12-24 15:47:40.444338,239
2021-12-24 15:47:40.444348,225
2021-12-24 15:47:40.444358,232
2021-12-24 15:47:40.444367,243
2021-12-24 15:47:40.444377,234
2021-12-24 15:47:40.444387,236
2021-12-24 15:47:40.444396,257
2021-12-24 15:47:40.444406,268
2021-12-24 15:47:40.444416,282
2021-12-24 15:47:40.444425,280
2021-12-24 15:47:40.444435,239
2021-12-24 15:47:40.444445,213
2021-12-24 15:47:40.444455,211
2021-12-24 15:47:40.444464,202
2021-12-24 15:47:40.444474,213
2021-12-24 15:47:40.444484,223
2021-12-24 15:47:40.444494,193
2021-12-24 15:47:40.444503,188
2021-12-24 15:47:40.444513,225
2021-12-24 15:47:40.444523,239
2021-12-24 15:47:40.444532,232
2021-12-24 15:47:40.444542,236
2021-12-24 15:47:40.444552,232
2021-12-24 15:47:40.444561,227
2021-12-24 15:47:40.444571,245
2021-12-24 15:47:40.625627,266
2021-12-24 15:47:40.625657,273
2021-12-24 15:47:40.625669,264
2021-12-24 15:47:40.625679,252
2021-12-24 15:47:40.625689,262
2021-12-24 15:47:40.625699,278
2021-12-24 15:47:40.625708,278
2021-12-24 15:47:40.625718,278
2021-12-24 15:47:40.625728,243
2021-12-24 15:47:40.625738,181
2021-12-24 15:47:40.625747,172
2021-12-24 15:47:40.625757,200
2021-12-24 15:47:40.625767,195
2021-12-24 15:47:40.625776,158
2021-12-24 15:47:40.625786,121
2021-12-24 15:47:40.625796,89
2021-12-24 15:47:40.625806,75
2021-12-24 15:47:40.625816,82
2021-12-24 15:47:40.625826,80
2021-12-24 15:47:40.625835,48
2021-12-24 15:47:40.625845,9
2021-12-24 15:47:40.625855,-4
2021-12-24 15:47:40.625864,18
2021-12-24 15:47:40.625874,48
2021-12-24 15:47:40.625884,59
2021-12-24 15:47:40.625894,62
2021-12-24 15:47:40.625903,52
2021-12-24 15:47:40.625913,48
2021-12-24 15:47:40.625923,66
2021-12-24 15:47:40.625933,110
2021-12-24 15:47:40.850881,186
2021-12-24 15:47:40.850911,271
2021-12-24 15:47:40.850923,275
2021-12-24 15:47:40.850933,124
2021-12-24 15:47:40.850943,-59
2021-12-24 15:47:40.850953,-34
2021-12-24 15:47:40.850963,128
2021-12-24 15:47:40.850972,170
2021-12-24 15:47:40.850982,133
2021-12-24 15:47:40.850992,149
2021-12-24 15:47:40.851001,174
2021-12-24 15:47:40.851011,151
2021-12-24 15:47:40.851021,114
2021-12-24 15:47:40.851031,105
2021-12-24 15:47:40.851041,91
2021-12-24 15:47:40.851050,75
2021-12-24 15:47:40.851060,98
2021-12-24 15:47:40.851070,135
2021-12-24 15:47:40.851079,154
2021-12-24 15:47:40.851089,151
2021-12-24 15:47:40.851099,147
2021-12-24 15:47:40.851109,137
2021-12-24 15:47:40.851118,124
2021-12-24 15:47:40.851128,137
2021-12-24 15:47:40.851138,160
2021-12-24 15:47:40.851147,158
2021-12-24 15:47:40.851157,137
2021-12-24 15:47:40.851167,144
2021-12-24 15:47:40.851176,179
2021-12-24 15:47:40.851186,204
2021-12-24 15:47:41.075649,202
2021-12-24 15:47:41.075679,200
2021-12-24 15:47:41.075690,209
2021-12-24 15:47:41.075700,227
2021-12-24 15:47:41.075710,245
2021-12-24 15:47:41.075719,264
2021-12-24 15:47:41.075729,259
2021-12-24 15:47:41.075738,216
2021-12-24 15:47:41.075748,172
2021-12-24 15:47:41.075757,163
2021-12-24 15:47:41.075767,151
2021-12-24 15:47:41.075777,128
2021-12-24 15:47:41.075786,101
2021-12-24 15:47:41.075796,55
2021-12-24 15:47:41.075806,27
2021-12-24 15:47:41.075815,22
2021-12-24 15:47:41.075825,32
2021-12-24 15:47:41.075834,52
2021-12-24 15:47:41.075844,41
2021-12-24 15:47:41.075853,4
2021-12-24 15:47:41.075863,4
2021-12-24 15:47:41.075873,25
2021-12-24 15:47:41.075882,29
2021-12-24 15:47:41.075892,6
2021-12-24 15:47:41.075902,-22
2021-12-24 15:47:41.075911,-29
2021-12-24 15:47:41.075921,-13
2021-12-24 15:47:41.075931,2
2021-12-24 15:47:41.075940,9
2021-12-24 15:47:41.075950,6
2021-12-24 15:47:41.300658,0
2021-12-24 15:47:41.300688,-2
2021-12-24 15:47:41.300699,2
2021-12-24 15:47:41.300709,6
2021-12-24 15:47:41.300719,6
2021-12-24 15:47:41.300729,4
2021-12-24 15:47:41.300739,-20
2021-12-24 15:47:41.300748,-50
2021-12-24 15:47:41.300758,-39
2021-12-24 15:47:41.300768,-22
2021-12-24 15:47:41.300777,-20
2021-12-24 15:47:41.300787,-11
2021-12-24 15:47:41.300797,-22
2021-12-24 15:47:41.300806,-45
2021-12-24 15:47:41.300816,-50
2021-12-24 15:47:41.300826,-59
2021-12-24 15:47:41.300836,-78
2021-12-24 15:47:41.300845,-114
2021-12-24 15:47:41.300855,-163
2021-12-24 15:47:41.300865,-170
2021-12-24 15:47:41.300874,-156
2021-12-24 15:47:41.300884,-170
2021-12-24 15:47:41.300894,-193
2021-12-24 15:47:41.300903,-193
2021-12-24 15:47:41.300913,-193
2021-12-24 15:47:41.300923,-216
2021-12-24 15:47:41.300933,-234
2021-12-24 15:47:41.300942,-181
2021-12-24 15:47:41.300952,-75
2021-12-24 15:47:41.300962,-34
2021-12-24 15:47:41.525626,-174
2021-12-24 15:47:41.525655,-420
2021-12-24 15:47:41.525667,-457
2021-12-24 15:47:41.525677,-266
2021-12-24 15:47:41.525687,-165
2021-12-24 15:47:41.525697,-193
2021-12-24 15:47:41.525706,-188
2021-12-24 15:47:41.525716,-154
2021-12-24 15:47:41.525726,-133
2021-12-24 15:47:41.525735,-121
2021-12-24 15:47:41.525745,-105
2021-12-24 15:47:41.525755,-108
2021-12-24 15:47:41.525765,-119
2021-12-24 15:47:41.525774,-94
2021-12-24 15:47:41.525784,-73
2021-12-24 15:47:41.525794,-78
2021-12-24 15:47:41.525804,-78
2021-12-24 15:47:41.525813,-68
2021-12-24 15:47:41.525823,-50
2021-12-24 15:47:41.525833,-16
2021-12-24 15:47:41.525842,2
2021-12-24 15:47:41.525852,11
2021-12-24 15:47:41.525862,29
2021-12-24 15:47:41.525877,45
2021-12-24 15:47:41.525887,64
2021-12-24 15:47:41.525896,96
2021-12-24 15:47:41.525906,126
2021-12-24 15:47:41.525916,114
2021-12-24 15:47:41.525926,91
2021-12-24 15:47:41.525935,108
2021-12-24 15:47:41.750623,131
2021-12-24 15:47:41.750653,140
2021-12-24 15:47:41.750665,142
2021-12-24 15:47:41.750675,124
2021-12-24 15:47:41.750685,87
2021-12-24 15:47:41.750694,43
2021-12-24 15:47:41.750704,18
2021-12-24 15:47:41.750713,20
2021-12-24 15:47:41.750723,18
2021-12-24 15:47:41.750732,0
2021-12-24 15:47:41.750742,-18
2021-12-24 15:47:41.750752,-39
2021-12-24 15:47:41.750761,-45
2021-12-24 15:47:41.750771,-22
2021-12-24 15:47:41.750780,-9
2021-12-24 15:47:41.750790,-9
2021-12-24 15:47:41.750800,-6
2021-12-24 15:47:41.750809,0
2021-12-24 15:47:41.750819,18
2021-12-24 15:47:41.750829,39
2021-12-24 15:47:41.750839,52
2021-12-24 15:47:41.750848,57
2021-12-24 15:47:41.750858,50
2021-12-24 15:47:41.750867,25
2021-12-24 15:47:41.750877,25
2021-12-24 15:47:41.750886,62
2021-12-24 15:47:41.750896,71
2021-12-24 15:47:41.750906,62
2021-12-24 15:47:41.750915,62
2021-12-24 15:47:41.750925,43
2021-12-24 15:47:41.974888,25
2021-12-24 15:47:41.974904,41
2021-12-24 15:47:41.974910,57
2021-12-24 15:47:41.974916,45
2021-12-24 15:47:41.974921,20
2021-12-24 15:47:41.974926,11
2021-12-24 15:47:41.974931,29
2021-12-24 15:47:41.974936,41
2021-12-24 15:47:41.974941,34
2021-12-24 15:47:41.974946,13
2021-12-24 15:47:41.974951,-18
2021-12-24 15:47:41.974956,-16
2021-12-24 15:47:41.974962,11
2021-12-24 15:47:41.974967,25
2021-12-24 15:47:41.974972,25
2021-12-24 15:47:41.974977,29
2021-12-24 15:47:41.974982,32
2021-12-24 15:47:41.974987,20
2021-12-24 15:47:41.974992,-2
2021-12-24 15:47:41.974997,-6
2021-12-24 15:47:41.975002,-4
2021-12-24 15:47:41.975007,-22
2021-12-24 15:47:41.975013,-39
2021-12-24 15:47:41.975018,-39
2021-12-24 15:47:41.975023,-32
2021-12-24 15:47:41.975028,-39
2021-12-24 15:47:41.975033,-68
2021-12-24 15:47:41.975038,-89
2021-12-24 15:47:41.975043,-57
2021-12-24 15:47:41.975049,32
2021-12-24 15:47:42.245679,101
2021-12-24 15:47:42.245709,16
2021-12-24 15:47:42.245721,-239
2021-12-24 15:47:42.245731,-411
2021-12-24 15:47:42.245741,-310
2021-12-24 15:47:42.245751,-163
2021-12-24 15:47:42.245761,-147
2021-12-24 15:47:42.245770,-131
2021-12-24 15:47:42.245780,-105
2021-12-24 15:47:42.245789,-142
2021-12-24 15:47:42.245799,-165
2021-12-24 15:47:42.245809,-121
2021-12-24 15:47:42.245818,-85
2021-12-24 15:47:42.245828,-82
2021-12-24 15:47:42.245838,-78
2021-12-24 15:47:42.245848,-80
2021-12-24 15:47:42.245857,-85
2021-12-24 15:47:42.245867,-64
2021-12-24 15:47:42.245877,-36
2021-12-24 15:47:42.245887,-29
2021-12-24 15:47:42.245896,-32
2021-12-24 15:47:42.245906,-29
2021-12-24 15:47:42.245916,-6
2021-12-24 15:47:42.245926,20
2021-12-24 15:47:42.245935,36
2021-12-24 15:47:42.245945,57
2021-12-24 15:47:42.245955,64
2021-12-24 15:47:42.245965,48
2021-12-24 15:47:42.245974,18
2021-12-24 15:47:42.245984,-2
2021-12-24 15:47:42.514301,18
2021-12-24 15:47:42.514331,52
2021-12-24 15:47:42.514342,62
2021-12-24 15:47:42.514353,55
2021-12-24 15:47:42.514362,32
2021-12-24 15:47:42.514372,27
2021-12-24 15:47:42.514382,36
2021-12-24 15:47:42.514391,9
2021-12-24 15:47:42.514401,-57
2021-12-24 15:47:42.514411,-108
2021-12-24 15:47:42.514420,-101
2021-12-24 15:47:42.514430,-85
2021-12-24 15:47:42.514440,-87
2021-12-24 15:47:42.514449,-91
2021-12-24 15:47:42.514459,-112
2021-12-24 15:47:42.514469,-133
2021-12-24 15:47:42.514478,-108
2021-12-24 15:47:42.514488,-75
2021-12-24 15:47:42.514498,-59
2021-12-24 15:47:42.514507,-45
2021-12-24 15:47:42.514517,-57
2021-12-24 15:47:42.514527,-71
2021-12-24 15:47:42.514536,-50
2021-12-24 15:47:42.514546,-29
2021-12-24 15:47:42.514556,-18
2021-12-24 15:47:42.514566,0
2021-12-24 15:47:42.514576,2
2021-12-24 15:47:42.514585,-11
2021-12-24 15:47:42.514595,-4
2021-12-24 15:47:42.514605,27
2021-12-24 15:47:42.785034,68
2021-12-24 15:47:42.785064,149
2021-12-24 15:47:42.785076,197
2021-12-24 15:47:42.785086,45
2021-12-24 15:47:42.785096,-229
2021-12-24 15:47:42.785106,-294
2021-12-24 15:47:42.785116,-119
2021-12-24 15:47:42.785126,-18
2021-12-24 15:47:42.785135,-43
2021-12-24 15:47:42.785145,-39
2021-12-24 15:47:42.785155,-4
2021-12-24 15:47:42.785165,9
2021-12-24 15:47:42.785175,22
2021-12-24 15:47:42.785184,11
2021-12-24 15:47:42.785194,-36
2021-12-24 15:47:42.785204,-43
2021-12-24 15:47:42.785214,-11
2021-12-24 15:47:42.785224,4
2021-12-24 15:47:42.785233,13
2021-12-24 15:47:42.785243,22
2021-12-24 15:47:42.785253,25
2021-12-24 15:47:42.785262,29
2021-12-24 15:47:42.785272,45
2021-12-24 15:47:42.785282,57
2021-12-24 15:47:42.785291,64
2021-12-24 15:47:42.785301,68
2021-12-24 15:47:42.785311,73
2021-12-24 15:47:42.785320,89
2021-12-24 15:47:42.785330,103
2021-12-24 15:47:42.785340,124
2021-12-24 15:47:42.920854,151
2021-12-24 15:47:42.920883,156
2021-12-24 15:47:42.920894,137
2021-12-24 15:47:42.920904,96
2021-12-24 15:47:42.920914,36
2021-12-24 15:47:42.920923,6
2021-12-24 15:47:42.920933,2
2021-12-24 15:47:42.920942,-39
2021-12-24 15:47:42.920952,-117
2021-12-24 15:47:42.920962,-158
2021-12-24 15:47:42.920972,-158
2021-12-24 15:47:42.920981,-179
2021-12-24 15:47:42.920991,-216
2021-12-24 15:47:42.921001,-213
2021-12-24 15:47:42.921010,-197
2021-12-24 15:47:42.921020,-202
2021-12-24 15:47:42.921030,-195
2021-12-24 15:47:42.921040,-170
2021-12-24 15:47:42.921049,-177
2021-12-24 15:47:42.921059,-213
2021-12-24 15:47:42.921068,-211
2021-12-24 15:47:42.921078,-181
2021-12-24 15:47:42.921088,-170
2021-12-24 15:47:42.921098,-172
2021-12-24 15:47:42.921107,-177
2021-12-24 15:47:42.921117,-177
2021-12-24 15:47:42.921126,-158
2021-12-24 15:47:42.921136,-149
2021-12-24 15:47:42.921146,-142
2021-12-24 15:47:42.921155,-124
2021-12-24 15:47:43.190662,-119
2021-12-24 15:47:43.190692,-119
2021-12-24 15:47:43.190703,-103
2021-12-24 15:47:43.190713,-98
2021-12-24 15:47:43.190723,-108
2021-12-24 15:47:43.190733,-103
2021-12-24 15:47:43.190743,-105
2021-12-24 15:47:43.190752,-126
2021-12-24 15:47:43.190762,-119
2021-12-24 15:47:43.190772,-114
2021-12-24 15:47:43.190782,-137
2021-12-24 15:47:43.190791,-137
2021-12-24 15:47:43.190801,-149
2021-12-24 15:47:43.190811,-167
2021-12-24 15:47:43.190821,-135
2021-12-24 15:47:43.190831,-96
2021-12-24 15:47:43.190841,-94
2021-12-24 15:47:43.190851,-91
2021-12-24 15:47:43.190861,-82
2021-12-24 15:47:43.190870,-64
2021-12-24 15:47:43.190880,-39
2021-12-24 15:47:43.190890,-36
2021-12-24 15:47:43.190900,-36
2021-12-24 15:47:43.190909,-22
2021-12-24 15:47:43.190919,-13
2021-12-24 15:47:43.190929,2
2021-12-24 15:47:43.190939,16
2021-12-24 15:47:43.190949,13
2021-12-24 15:47:43.190958,20
2021-12-24 15:47:43.190968,27
2021-12-24 15:47:43.370094,20
2021-12-24 15:47:43.370112,39
2021-12-24 15:47:43.370118,64
2021-12-24 15:47:43.370123,62
2021-12-24 15:47:43.370128,62
2021-12-24 15:47:43.370134,50
2021-12-24 15:47:43.370139,22
2021-12-24 15:47:43.370146,41
2021-12-24 15:47:43.370157,50
2021-12-24 15:47:43.370166,-16
2021-12-24 15:47:43.370176,-55
2021-12-24 15:47:43.370185,-18
2021-12-24 15:47:43.370194,-16
2021-12-24 15:47:43.370202,-29
2021-12-24 15:47:43.370211,-4
2021-12-24 15:47:43.370221,4
2021-12-24 15:47:43.370229,-11
2021-12-24 15:47:43.370239,-20
2021-12-24 15:47:43.370248,0
2021-12-24 15:47:43.370257,39
2021-12-24 15:47:43.370265,45
2021-12-24 15:47:43.370274,34
2021-12-24 15:47:43.370284,52
2021-12-24 15:47:43.370293,71
2021-12-24 15:47:43.370302,71
2021-12-24 15:47:43.370310,87
2021-12-24 15:47:43.370319,108
2021-12-24 15:47:43.370328,112
2021-12-24 15:47:43.370337,114
2021-12-24 15:47:43.370346,124
2021-12-24 15:47:43.685664,154
2021-12-24 15:47:43.685695,218
2021-12-24 15:47:43.685707,275
2021-12-24 15:47:43.685717,234
2021-12-24 15:47:43.685726,25
2021-12-24 15:47:43.685736,-154
2021-12-24 15:47:43.685746,-85
2021-12-24 15:47:43.685755,32
2021-12-24 15:47:43.685765,18
2021-12-24 15:47:43.685774,-4
2021-12-24 15:47:43.685784,-11
2021-12-24 15:47:43.685794,-52
2021-12-24 15:47:43.685803,-64
2021-12-24 15:47:43.685813,-48
2021-12-24 15:47:43.685822,-71
2021-12-24 15:47:43.685832,-89
2021-12-24 15:47:43.685842,-66
2021-12-24 15:47:43.685856,-41
2021-12-24 15:47:43.685866,-32
2021-12-24 15:47:43.685876,-18
2021-12-24 15:47:43.685885,-9
2021-12-24 15:47:43.685895,-6
2021-12-24 15:47:43.685905,-9
2021-12-24 15:47:43.685914,-11
2021-12-24 15:47:43.685924,6
2021-12-24 15:47:43.685933,36
2021-12-24 15:47:43.685943,57
2021-12-24 15:47:43.685953,64
2021-12-24 15:47:43.685962,68
2021-12-24 15:47:43.685972,80
2021-12-24 15:47:43.820826,105
2021-12-24 15:47:43.820843,131
2021-12-24 15:47:43.820849,140
2021-12-24 15:47:43.820855,121
2021-12-24 15:47:43.820860,89
2021-12-24 15:47:43.820865,89
2021-12-24 15:47:43.820870,114
2021-12-24 15:47:43.820875,128
2021-12-24 15:47:43.820880,117
2021-12-24 15:47:43.820885,94
2021-12-24 15:47:43.820890,62
2021-12-24 15:47:43.820895,43
2021-12-24 15:47:43.820900,52
2021-12-24 15:47:43.820905,57
2021-12-24 15:47:43.820910,39
2021-12-24 15:47:43.820916,-29
2021-12-24 15:47:43.820921,-89
2021-12-24 15:47:43.820926,-68
2021-12-24 15:47:43.820931,-22
2021-12-24 15:47:43.820936,-13
2021-12-24 15:47:43.820941,-13
2021-12-24 15:47:43.820946,-32
2021-12-24 15:47:43.820951,-59
2021-12-24 15:47:43.820956,-41
2021-12-24 15:47:43.820961,6
2021-12-24 15:47:43.820996,25
2021-12-24 15:47:43.821014,25
2021-12-24 15:47:43.821049,16
2021-12-24 15:47:43.821055,13
2021-12-24 15:47:43.821060,34
2021-12-24 15:47:44.090613,55
2021-12-24 15:47:44.090643,59
2021-12-24 15:47:44.090654,50
2021-12-24 15:47:44.090664,25
2021-12-24 15:47:44.090673,6
2021-12-24 15:47:44.090683,27
2021-12-24 15:47:44.090692,52
2021-12-24 15:47:44.090702,52
2021-12-24 15:47:44.090711,41
2021-12-24 15:47:44.090721,4
2021-12-24 15:47:44.090730,-16
2021-12-24 15:47:44.090740,16
2021-12-24 15:47:44.090750,45
2021-12-24 15:47:44.090759,52
2021-12-24 15:47:44.090769,59
2021-12-24 15:47:44.090779,48
2021-12-24 15:47:44.090788,41
2021-12-24 15:47:44.090798,50
2021-12-24 15:47:44.090807,41
2021-12-24 15:47:44.090817,32
2021-12-24 15:47:44.090826,43
2021-12-24 15:47:44.090836,45
2021-12-24 15:47:44.090845,48
2021-12-24 15:47:44.090855,68
2021-12-24 15:47:44.090864,91
2021-12-24 15:47:44.090874,108
2021-12-24 15:47:44.090884,98
2021-12-24 15:47:44.090893,82
2021-12-24 15:47:44.090903,96
2021-12-24 15:47:44.090912,117
2021-12-24 15:47:44.315727,114
2021-12-24 15:47:44.315747,114
2021-12-24 15:47:44.315755,112
2021-12-24 15:47:44.315761,85
2021-12-24 15:47:44.315768,71
2021-12-24 15:47:44.315774,96
2021-12-24 15:47:44.315780,117
2021-12-24 15:47:44.315787,119
2021-12-24 15:47:44.315793,89
2021-12-24 15:47:44.315799,41
2021-12-24 15:47:44.315806,66
2021-12-24 15:47:44.315812,181
2021-12-24 15:47:44.315819,255
2021-12-24 15:47:44.315825,167
2021-12-24 15:47:44.315831,-87
2021-12-24 15:47:44.315838,-239
2021-12-24 15:47:44.315844,-91
2021-12-24 15:47:44.315851,41
2021-12-24 15:47:44.315857,11
2021-12-24 15:47:44.315864,4
2021-12-24 15:47:44.315870,-9
2021-12-24 15:47:44.315876,-85
2021-12-24 15:47:44.315883,-96
2021-12-24 15:47:44.315889,-68
2021-12-24 15:47:44.315896,-87
2021-12-24 15:47:44.315902,-110
2021-12-24 15:47:44.315908,-124
2021-12-24 15:47:44.315915,-142
2021-12-24 15:47:44.315921,-137
2021-12-24 15:47:44.315928,-101
2021-12-24 15:47:44.583990,-80
2021-12-24 15:47:44.584018,-94
2021-12-24 15:47:44.584030,-101
2021-12-24 15:47:44.584040,-87
2021-12-24 15:47:44.584050,-68
2021-12-24 15:47:44.584060,-52
2021-12-24 15:47:44.584070,-43
2021-12-24 15:47:44.584079,-50
2021-12-24 15:47:44.584089,-57
2021-12-24 15:47:44.584099,-43
2021-12-24 15:47:44.584108,-20
2021-12-24 15:47:44.584118,-13
2021-12-24 15:47:44.584128,-4
2021-12-24 15:47:44.584137,-2
2021-12-24 15:47:44.584147,-29
2021-12-24 15:47:44.584156,-43
2021-12-24 15:47:44.584166,-27
2021-12-24 15:47:44.584176,-11
2021-12-24 15:47:44.584185,-18
2021-12-24 15:47:44.584195,-41
2021-12-24 15:47:44.584204,-64
2021-12-24 15:47:44.584214,-89
2021-12-24 15:47:44.584223,-124
2021-12-24 15:47:44.584233,-135
2021-12-24 15:47:44.584243,-117
2021-12-24 15:47:44.584252,-117
2021-12-24 15:47:44.584262,-124
2021-12-24 15:47:44.584272,-101
2021-12-24 15:47:44.584281,-71
2021-12-24 15:47:44.584291,-64
2021-12-24 15:47:44.765730,-59
2021-12-24 15:47:44.765760,-55
2021-12-24 15:47:44.765772,-55
2021-12-24 15:47:44.765782,-41
2021-12-24 15:47:44.765791,-20
2021-12-24 15:47:44.765801,-6
2021-12-24 15:47:44.765811,-2
2021-12-24 15:47:44.765821,-20
2021-12-24 15:47:44.765831,-36
2021-12-24 15:47:44.765840,-20
2021-12-24 15:47:44.765850,-2
2021-12-24 15:47:44.765860,-2
2021-12-24 15:47:44.765870,-22
2021-12-24 15:47:44.765879,-43
2021-12-24 15:47:44.765889,-39
2021-12-24 15:47:44.765899,-25
2021-12-24 15:47:44.765909,-20
2021-12-24 15:47:44.765919,-11
2021-12-24 15:47:44.765929,-4
2021-12-24 15:47:44.765938,-11
2021-12-24 15:47:44.765948,-9
2021-12-24 15:47:44.765958,13
2021-12-24 15:47:44.765968,36
2021-12-24 15:47:44.765978,16
2021-12-24 15:47:44.765987,-34
2021-12-24 15:47:44.765998,-43
2021-12-24 15:47:44.766007,-39
2021-12-24 15:47:44.766050,-85
2021-12-24 15:47:44.766060,-105
2021-12-24 15:47:44.766069,-66
2021-12-24 15:47:44.990737,-62
2021-12-24 15:47:44.990766,-78
2021-12-24 15:47:44.990778,-55
2021-12-24 15:47:44.990788,-36
2021-12-24 15:47:44.990797,-39
2021-12-24 15:47:44.990807,-29
2021-12-24 15:47:44.990817,-39
2021-12-24 15:47:44.990827,-66
2021-12-24 15:47:44.990837,-50
2021-12-24 15:47:44.990846,-22
2021-12-24 15:47:44.990856,-16
2021-12-24 15:47:44.990866,-2
2021-12-24 15:47:44.990876,-6
2021-12-24 15:47:44.990885,-22
2021-12-24 15:47:44.990895,-9
2021-12-24 15:47:44.990905,-2
2021-12-24 15:47:44.990915,-9
2021-12-24 15:47:44.990924,0
2021-12-24 15:47:44.990934,9
2021-12-24 15:47:44.990944,16
2021-12-24 15:47:44.990954,27
2021-12-24 15:47:44.990964,34
2021-12-24 15:47:44.990973,41
2021-12-24 15:47:44.990983,45
2021-12-24 15:47:44.990993,36
2021-12-24 15:47:44.991003,36
2021-12-24 15:47:44.991012,66
2021-12-24 15:47:44.991022,142
2021-12-24 15:47:44.991032,186
2021-12-24 15:47:44.991042,20
2021-12-24 15:47:45.215699,-239
2021-12-24 15:47:45.215730,-223
2021-12-24 15:47:45.215742,-36
2021-12-24 15:47:45.215752,-2
2021-12-24 15:47:45.215762,-41
2021-12-24 15:47:45.215771,-52
2021-12-24 15:47:45.215781,-73
2021-12-24 15:47:45.215791,-82
2021-12-24 15:47:45.215800,-85
2021-12-24 15:47:45.215810,-85
2021-12-24 15:47:45.215819,-75
2021-12-24 15:47:45.215829,-89
2021-12-24 15:47:45.215839,-114
2021-12-24 15:47:45.215849,-94
2021-12-24 15:47:45.215858,-66
2021-12-24 15:47:45.215868,-68
2021-12-24 15:47:45.215878,-62
2021-12-24 15:47:45.215888,-50
2021-12-24 15:47:45.215897,-41
2021-12-24 15:47:45.215907,-2
2021-12-24 15:47:45.215917,29
2021-12-24 15:47:45.215926,18
2021-12-24 15:47:45.215936,25
2021-12-24 15:47:45.215946,59
2021-12-24 15:47:45.215955,68
2021-12-24 15:47:45.215965,75
2021-12-24 15:47:45.215975,94
2021-12-24 15:47:45.215984,85
2021-12-24 15:47:45.215994,57
2021-12-24 15:47:45.216003,59
2021-12-24 15:47:45.440647,94
2021-12-24 15:47:45.440677,108
2021-12-24 15:47:45.440689,50
2021-12-24 15:47:45.440699,-29
2021-12-24 15:47:45.440709,-64
2021-12-24 15:47:45.440719,-87
2021-12-24 15:47:45.440728,-112
2021-12-24 15:47:45.440738,-98
2021-12-24 15:47:45.440748,-89
2021-12-24 15:47:45.440757,-105
2021-12-24 15:47:45.440767,-131
2021-12-24 15:47:45.440777,-158
2021-12-24 15:47:45.440786,-156
2021-12-24 15:47:45.440796,-117
2021-12-24 15:47:45.440806,-103
2021-12-24 15:47:45.440816,-117
2021-12-24 15:47:45.440825,-114
2021-12-24 15:47:45.440835,-96
2021-12-24 15:47:45.440845,-78
2021-12-24 15:47:45.440854,-59
2021-12-24 15:47:45.440864,-57
2021-12-24 15:47:45.440874,-68
2021-12-24 15:47:45.440884,-62
2021-12-24 15:47:45.440893,-36
2021-12-24 15:47:45.440903,-27
2021-12-24 15:47:45.440913,-29
2021-12-24 15:47:45.440923,-27
2021-12-24 15:47:45.440932,-27
2021-12-24 15:47:45.440942,-41
2021-12-24 15:47:45.440952,-45
2021-12-24 15:47:45.711030,-43
2021-12-24 15:47:45.711061,-48
2021-12-24 15:47:45.711073,-55
2021-12-24 15:47:45.711083,-66
2021-12-24 15:47:45.711093,-96
2021-12-24 15:47:45.711102,-110
2021-12-24 15:47:45.711112,-78
2021-12-24 15:47:45.711122,-45
2021-12-24 15:47:45.711132,-43
2021-12-24 15:47:45.711142,-64
2021-12-24 15:47:45.711151,-101
2021-12-24 15:47:45.711161,-117
2021-12-24 15:47:45.711171,-91
2021-12-24 15:47:45.711181,-66
2021-12-24 15:47:45.711190,-57
2021-12-24 15:47:45.711200,-71
2021-12-24 15:47:45.711210,-87
2021-12-24 15:47:45.711219,-66
2021-12-24 15:47:45.711229,-34
2021-12-24 15:47:45.711239,-27
2021-12-24 15:47:45.711249,-27
2021-12-24 15:47:45.711259,-22
2021-12-24 15:47:45.711268,25
2021-12-24 15:47:45.711278,117
2021-12-24 15:47:45.711288,133
2021-12-24 15:47:45.711297,-41
2021-12-24 15:47:45.711307,-245
2021-12-24 15:47:45.711317,-218
2021-12-24 15:47:45.711327,-66
2021-12-24 15:47:45.711337,-16
2021-12-24 15:47:45.935739,2
2021-12-24 15:47:45.935769,29
2021-12-24 15:47:45.935781,-4
2021-12-24 15:47:45.935791,-52
2021-12-24 15:47:45.935800,-62
2021-12-24 15:47:45.935810,-45
2021-12-24 15:47:45.935820,-32
2021-12-24 15:47:45.935830,-20
2021-12-24 15:47:45.935839,-48
2021-12-24 15:47:45.935849,-131
2021-12-24 15:47:45.935859,-154
2021-12-24 15:47:45.935869,-114
2021-12-24 15:47:45.935878,-117
2021-12-24 15:47:45.935888,-117
2021-12-24 15:47:45.935903,-101
2021-12-24 15:47:45.935913,-131
2021-12-24 15:47:45.935923,-149
2021-12-24 15:47:45.935932,-131
2021-12-24 15:47:45.935942,-151
2021-12-24 15:47:45.935952,-160
2021-12-24 15:47:45.935962,-137
2021-12-24 15:47:45.935971,-137
2021-12-24 15:47:45.935981,-128
2021-12-24 15:47:45.935991,-80
2021-12-24 15:47:45.936000,-45
2021-12-24 15:47:45.936010,-41
2021-12-24 15:47:45.936020,-43
2021-12-24 15:47:45.936030,-55
2021-12-24 15:47:45.936040,-64
2021-12-24 15:47:45.936050,-62
2021-12-24 15:47:46.160427,-57
2021-12-24 15:47:46.160449,-59
2021-12-24 15:47:46.160456,-98
2021-12-24 15:47:46.160463,-170
2021-12-24 15:47:46.160470,-195
2021-12-24 15:47:46.160476,-172
2021-12-24 15:47:46.160483,-163
2021-12-24 15:47:46.160489,-172
2021-12-24 15:47:46.160495,-200
2021-12-24 15:47:46.160502,-213
2021-12-24 15:47:46.160508,-179
2021-12-24 15:47:46.160515,-151
2021-12-24 15:47:46.160521,-165
2021-12-24 15:47:46.160527,-167
2021-12-24 15:47:46.160534,-163
2021-12-24 15:47:46.160540,-174
2021-12-24 15:47:46.160547,-151
2021-12-24 15:47:46.160553,-110
2021-12-24 15:47:46.160559,-124
2021-12-24 15:47:46.160566,-128
2021-12-24 15:47:46.160572,-103
2021-12-24 15:47:46.160579,-108
2021-12-24 15:47:46.160585,-96
2021-12-24 15:47:46.160591,-50
2021-12-24 15:47:46.160598,-18
2021-12-24 15:47:46.160604,-20
2021-12-24 15:47:46.160611,-57
2021-12-24 15:47:46.160617,-71
2021-12-24 15:47:46.160623,-36
2021-12-24 15:47:46.160630,-2
2021-12-24 15:47:46.431049,18
2021-12-24 15:47:46.431080,29
2021-12-24 15:47:46.431092,36
2021-12-24 15:47:46.431102,34
2021-12-24 15:47:46.431112,4
2021-12-24 15:47:46.431122,-16
2021-12-24 15:47:46.431132,-16
2021-12-24 15:47:46.431142,-43
2021-12-24 15:47:46.431151,-62
2021-12-24 15:47:46.431161,-25
2021-12-24 15:47:46.431171,-20
2021-12-24 15:47:46.431181,-32
2021-12-24 15:47:46.431191,20
2021-12-24 15:47:46.431201,34
2021-12-24 15:47:46.431211,-57
2021-12-24 15:47:46.431221,-117
2021-12-24 15:47:46.431231,-96
2021-12-24 15:47:46.431241,-78
2021-12-24 15:47:46.431250,-73
2021-12-24 15:47:46.431260,-64
2021-12-24 15:47:46.431270,-71
2021-12-24 15:47:46.431280,-62
2021-12-24 15:47:46.431290,-32
2021-12-24 15:47:46.431300,-20
2021-12-24 15:47:46.431309,-9
2021-12-24 15:47:46.431319,16
2021-12-24 15:47:46.431329,91
2021-12-24 15:47:46.431339,181
2021-12-24 15:47:46.431349,144
2021-12-24 15:47:46.431359,-55
2021-12-24 15:47:46.654480,-225
2021-12-24 15:47:46.654508,-160
2021-12-24 15:47:46.654520,-11
2021-12-24 15:47:46.654530,13
2021-12-24 15:47:46.654540,25
2021-12-24 15:47:46.654550,98
2021-12-24 15:47:46.654559,137
2021-12-24 15:47:46.654569,87
2021-12-24 15:47:46.654579,11
2021-12-24 15:47:46.654589,2
2021-12-24 15:47:46.654599,32
2021-12-24 15:47:46.654608,29
2021-12-24 15:47:46.654618,-4
2021-12-24 15:47:46.654628,-50
2021-12-24 15:47:46.654638,-68
2021-12-24 15:47:46.654647,-68
2021-12-24 15:47:46.654657,-71
2021-12-24 15:47:46.654667,-57
2021-12-24 15:47:46.654676,-62
2021-12-24 15:47:46.654686,-82
2021-12-24 15:47:46.654696,-66
2021-12-24 15:47:46.654706,-57
2021-12-24 15:47:46.654715,-78
2021-12-24 15:47:46.654725,-45
2021-12-24 15:47:46.654735,16
2021-12-24 15:47:46.654745,18
2021-12-24 15:47:46.654754,11
2021-12-24 15:47:46.654764,39
2021-12-24 15:47:46.654774,48
2021-12-24 15:47:46.654783,18
2021-12-24 15:47:46.970117,2
2021-12-24 15:47:46.970137,27
2021-12-24 15:47:46.970145,29
2021-12-24 15:47:46.970151,-25
2021-12-24 15:47:46.970158,-39
2021-12-24 15:47:46.970165,-22
2021-12-24 15:47:46.970171,-73
2021-12-24 15:47:46.970177,-114
2021-12-24 15:47:46.970184,-108
2021-12-24 15:47:46.970190,-144
2021-12-24 15:47:46.970196,-174
2021-12-24 15:47:46.970202,-160
2021-12-24 15:47:46.970209,-181
2021-12-24 15:47:46.970215,-195
2021-12-24 15:47:46.970221,-151
2021-12-24 15:47:46.970228,-131
2021-12-24 15:47:46.970234,-165
2021-12-24 15:47:46.970240,-172
2021-12-24 15:47:46.970247,-128
2021-12-24 15:47:46.970253,-105
2021-12-24 15:47:46.970259,-128
2021-12-24 15:47:46.970266,-160
2021-12-24 15:47:46.970272,-160
2021-12-24 15:47:46.970278,-140
2021-12-24 15:47:46.970284,-128
2021-12-24 15:47:46.970291,-124
2021-12-24 15:47:46.970297,-117
2021-12-24 15:47:46.970303,-101
2021-12-24 15:47:46.970310,-87
2021-12-24 15:47:46.970316,-87
2021-12-24 15:47:47.061004,-78
2021-12-24 15:47:47.061034,-52
2021-12-24 15:47:47.061046,-62
2021-12-24 15:47:47.061056,-59
2021-12-24 15:47:47.061066,-20
2021-12-24 15:47:47.061076,-39
2021-12-24 15:47:47.061086,-75
2021-12-24 15:47:47.061096,-41
2021-12-24 15:47:47.061106,-4
2021-12-24 15:47:47.061116,-4
2021-12-24 15:47:47.061126,-27
2021-12-24 15:47:47.061135,-68
2021-12-24 15:47:47.061145,-96
2021-12-24 15:47:47.061155,-68
2021-12-24 15:47:47.061165,6
2021-12-24 15:47:47.061175,50
2021-12-24 15:47:47.061185,32
2021-12-24 15:47:47.061195,-9
2021-12-24 15:47:47.061205,-59
2021-12-24 15:47:47.061214,-71
2021-12-24 15:47:47.061224,-39
2021-12-24 15:47:47.061234,-25
2021-12-24 15:47:47.061244,-36
2021-12-24 15:47:47.061254,-48
2021-12-24 15:47:47.061264,-43
2021-12-24 15:47:47.061274,-34
2021-12-24 15:47:47.061284,-34
2021-12-24 15:47:47.061294,-13
2021-12-24 15:47:47.061304,34
2021-12-24 15:47:47.061314,87
2021-12-24 15:47:47.285799,133
2021-12-24 15:47:47.285829,73
2021-12-24 15:47:47.285840,-154
2021-12-24 15:47:47.285851,-289
2021-12-24 15:47:47.285861,-179
2021-12-24 15:47:47.285871,-64
2021-12-24 15:47:47.285880,-29
2021-12-24 15:47:47.285890,-2
2021-12-24 15:47:47.285900,-32
2021-12-24 15:47:47.285910,-50
2021-12-24 15:47:47.285920,-25
2021-12-24 15:47:47.285929,-62
2021-12-24 15:47:47.285939,-80
2021-12-24 15:47:47.285949,-55
2021-12-24 15:47:47.285959,-85
2021-12-24 15:47:47.285968,-119
2021-12-24 15:47:47.285978,-142
2021-12-24 15:47:47.285988,-179
2021-12-24 15:47:47.285998,-174
2021-12-24 15:47:47.286007,-131
2021-12-24 15:47:47.286017,-112
2021-12-24 15:47:47.286027,-128
2021-12-24 15:47:47.286037,-119
2021-12-24 15:47:47.286047,-80
2021-12-24 15:47:47.286056,-66
2021-12-24 15:47:47.286066,-59
2021-12-24 15:47:47.286076,-66
2021-12-24 15:47:47.286086,-117
2021-12-24 15:47:47.286096,-110
2021-12-24 15:47:47.286106,-45
2021-12-24 15:47:47.554866,-13
2021-12-24 15:47:47.554896,13
2021-12-24 15:47:47.554907,29
2021-12-24 15:47:47.554917,-34
2021-12-24 15:47:47.554927,-82
2021-12-24 15:47:47.554936,-4
2021-12-24 15:47:47.554946,45
2021-12-24 15:47:47.554956,-4
2021-12-24 15:47:47.554966,-9
2021-12-24 15:47:47.554975,-9
2021-12-24 15:47:47.554985,-82
2021-12-24 15:47:47.554995,-112
2021-12-24 15:47:47.555005,-59
2021-12-24 15:47:47.555014,-11
2021-12-24 15:47:47.555024,6
2021-12-24 15:47:47.555034,-4
2021-12-24 15:47:47.555044,-20
2021-12-24 15:47:47.555054,-6
2021-12-24 15:47:47.555063,25
2021-12-24 15:47:47.555073,50
2021-12-24 15:47:47.555083,57
2021-12-24 15:47:47.555092,25
2021-12-24 15:47:47.555102,-6
2021-12-24 15:47:47.555112,36
2021-12-24 15:47:47.555121,91
2021-12-24 15:47:47.555131,96
2021-12-24 15:47:47.555141,87
2021-12-24 15:47:47.555150,82
2021-12-24 15:47:47.555160,85
2021-12-24 15:47:47.555169,96
2021-12-24 15:47:47.780908,80
2021-12-24 15:47:47.780938,85
2021-12-24 15:47:47.780949,131
2021-12-24 15:47:47.780959,114
2021-12-24 15:47:47.780969,75
2021-12-24 15:47:47.780979,108
2021-12-24 15:47:47.780989,147
2021-12-24 15:47:47.780999,151
2021-12-24 15:47:47.781008,135
2021-12-24 15:47:47.781018,82
2021-12-24 15:47:47.781028,32
2021-12-24 15:47:47.781038,52
2021-12-24 15:47:47.781048,89
2021-12-24 15:47:47.781057,80
2021-12-24 15:47:47.781067,62
2021-12-24 15:47:47.781077,43
2021-12-24 15:47:47.781087,4
2021-12-24 15:47:47.781097,-25
2021-12-24 15:47:47.781107,-57
2021-12-24 15:47:47.781117,-96
2021-12-24 15:47:47.781127,-108
2021-12-24 15:47:47.781136,-121
2021-12-24 15:47:47.781146,-149
2021-12-24 15:47:47.781156,-144
2021-12-24 15:47:47.781166,-119
2021-12-24 15:47:47.781176,-103
2021-12-24 15:47:47.781186,-112
2021-12-24 15:47:47.781196,-137
2021-12-24 15:47:47.781206,-149
2021-12-24 15:47:47.781216,-140
2021-12-24 15:47:48.005751,-128
2021-12-24 15:47:48.005782,-144
2021-12-24 15:47:48.005793,-209
2021-12-24 15:47:48.005803,-264
2021-12-24 15:47:48.005813,-241
2021-12-24 15:47:48.005823,-197
2021-12-24 15:47:48.005832,-190
2021-12-24 15:47:48.005842,-195
2021-12-24 15:47:48.005852,-216
2021-12-24 15:47:48.005861,-209
2021-12-24 15:47:48.005871,-96
2021-12-24 15:47:48.005881,-2
2021-12-24 15:47:48.005891,-112
2021-12-24 15:47:48.005900,-372
2021-12-24 15:47:48.005910,-503
2021-12-24 15:47:48.005920,-400
2021-12-24 15:47:48.005929,-291
2021-12-24 15:47:48.005939,-296
2021-12-24 15:47:48.005949,-301
2021-12-24 15:47:48.005958,-282
2021-12-24 15:47:48.005968,-298
2021-12-24 15:47:48.005978,-317
2021-12-24 15:47:48.005987,-303
2021-12-24 15:47:48.005997,-298
2021-12-24 15:47:48.006007,-294
2021-12-24 15:47:48.006016,-280
2021-12-24 15:47:48.006026,-289
2021-12-24 15:47:48.006036,-298
2021-12-24 15:47:48.006046,-275
2021-12-24 15:47:48.006055,-255
2021-12-24 15:47:48.274906,-248
2021-12-24 15:47:48.274920,-227
2021-12-24 15:47:48.274926,-223
2021-12-24 15:47:48.274932,-252
2021-12-24 15:47:48.274937,-243
2021-12-24 15:47:48.274942,-188
2021-12-24 15:47:48.274947,-144
2021-12-24 15:47:48.274952,-147
2021-12-24 15:47:48.274957,-174
2021-12-24 15:47:48.274962,-158
2021-12-24 15:47:48.274967,-114
2021-12-24 15:47:48.274972,-112
2021-12-24 15:47:48.274977,-110
2021-12-24 15:47:48.274982,-96
2021-12-24 15:47:48.274987,-110
2021-12-24 15:47:48.274992,-131
2021-12-24 15:47:48.274997,-128
2021-12-24 15:47:48.275002,-131
2021-12-24 15:47:48.275008,-160
2021-12-24 15:47:48.275013,-190
2021-12-24 15:47:48.275018,-206
2021-12-24 15:47:48.275023,-225
2021-12-24 15:47:48.275028,-252
2021-12-24 15:47:48.275033,-252
2021-12-24 15:47:48.275038,-227
2021-12-24 15:47:48.275043,-220
2021-12-24 15:47:48.275048,-229
2021-12-24 15:47:48.275053,-223
2021-12-24 15:47:48.275059,-206
2021-12-24 15:47:48.275064,-188
2021-12-24 15:47:48.500941,-156
2021-12-24 15:47:48.500971,-137
2021-12-24 15:47:48.500983,-142
2021-12-24 15:47:48.500993,-140
2021-12-24 15:47:48.501002,-121
2021-12-24 15:47:48.501012,-101
2021-12-24 15:47:48.501022,-98
2021-12-24 15:47:48.501031,-128
2021-12-24 15:47:48.501041,-137
2021-12-24 15:47:48.501051,-110
2021-12-24 15:47:48.501061,-91
2021-12-24 15:47:48.501070,-82
2021-12-24 15:47:48.501080,-80
2021-12-24 15:47:48.501090,-103
2021-12-24 15:47:48.501099,-114
2021-12-24 15:47:48.501109,-82
2021-12-24 15:47:48.501119,-59
2021-12-24 15:47:48.501128,-68
2021-12-24 15:47:48.501138,-75
2021-12-24 15:47:48.501165,-71
2021-12-24 15:47:48.501175,-57
2021-12-24 15:47:48.501185,-43
2021-12-24 15:47:48.501195,-41
2021-12-24 15:47:48.501205,-41
2021-12-24 15:47:48.501214,-57
2021-12-24 15:47:48.501224,-73
2021-12-24 15:47:48.501234,-55
2021-12-24 15:47:48.501244,-34
2021-12-24 15:47:48.501254,-27
2021-12-24 15:47:48.501263,-9
2021-12-24 15:47:48.724210,4
2021-12-24 15:47:48.724232,6
2021-12-24 15:47:48.724239,20
2021-12-24 15:47:48.724246,66
2021-12-24 15:47:48.724252,165
2021-12-24 15:47:48.724258,229
2021-12-24 15:47:48.724265,80
2021-12-24 15:47:48.724271,-204
2021-12-24 15:47:48.724278,-248
2021-12-24 15:47:48.724284,-52
2021-12-24 15:47:48.724290,16
2021-12-24 15:47:48.724297,-29
2021-12-24 15:47:48.724303,-11
2021-12-24 15:47:48.724309,-2
2021-12-24 15:47:48.724316,-20
2021-12-24 15:47:48.724322,-22
2021-12-24 15:47:48.724328,-18
2021-12-24 15:47:48.724335,-36
2021-12-24 15:47:48.724341,-82
2021-12-24 15:47:48.724347,-108
2021-12-24 15:47:48.724354,-91
2021-12-24 15:47:48.724360,-75
2021-12-24 15:47:48.724366,-64
2021-12-24 15:47:48.724373,-64
2021-12-24 15:47:48.724379,-78
2021-12-24 15:47:48.724385,-71
2021-12-24 15:47:48.724392,-75
2021-12-24 15:47:48.724398,-98
2021-12-24 15:47:48.724404,-85
2021-12-24 15:47:48.724411,-59
2021-12-24 15:47:48.905758,-55
2021-12-24 15:47:48.905788,-22
2021-12-24 15:47:48.905799,29
2021-12-24 15:47:48.905810,48
2021-12-24 15:47:48.905819,55
2021-12-24 15:47:48.905829,59
2021-12-24 15:47:48.905839,32
2021-12-24 15:47:48.905849,29
2021-12-24 15:47:48.905858,45
2021-12-24 15:47:48.905868,39
2021-12-24 15:47:48.905878,20
2021-12-24 15:47:48.905888,-25
2021-12-24 15:47:48.905897,-96
2021-12-24 15:47:48.905907,-140
2021-12-24 15:47:48.905917,-163
2021-12-24 15:47:48.905927,-170
2021-12-24 15:47:48.905936,-170
2021-12-24 15:47:48.905946,-172
2021-12-24 15:47:48.905956,-154
2021-12-24 15:47:48.905966,-119
2021-12-24 15:47:48.905976,-103
2021-12-24 15:47:48.905986,-96
2021-12-24 15:47:48.905996,-80
2021-12-24 15:47:48.906005,-71
2021-12-24 15:47:48.906015,-64
2021-12-24 15:47:48.906025,-45
2021-12-24 15:47:48.906035,-25
2021-12-24 15:47:48.906044,-18
2021-12-24 15:47:48.906054,-39
2021-12-24 15:47:48.906064,-71
2021-12-24 15:47:49.175423,-55
2021-12-24 15:47:49.175443,-9
2021-12-24 15:47:49.175450,11
2021-12-24 15:47:49.175457,9
2021-12-24 15:47:49.175463,-4
2021-12-24 15:47:49.175470,-32
2021-12-24 15:47:49.175476,-36
2021-12-24 15:47:49.175483,-11
2021-12-24 15:47:49.175489,0
2021-12-24 15:47:49.175495,-2
2021-12-24 15:47:49.175502,-6
2021-12-24 15:47:49.175508,-16
2021-12-24 15:47:49.175514,-9
2021-12-24 15:47:49.175521,16
2021-12-24 15:47:49.175527,27
2021-12-24 15:47:49.175533,18
2021-12-24 15:47:49.175540,6
2021-12-24 15:47:49.175546,11
2021-12-24 15:47:49.175552,41
2021-12-24 15:47:49.175559,78
2021-12-24 15:47:49.175565,87
2021-12-24 15:47:49.175571,80
2021-12-24 15:47:49.175578,80
2021-12-24 15:47:49.175584,82
2021-12-24 15:47:49.175590,94
2021-12-24 15:47:49.175596,108
2021-12-24 15:47:49.175603,103
2021-12-24 15:47:49.175609,94
2021-12-24 15:47:49.175616,85
2021-12-24 15:47:49.175622,82
2021-12-24 15:47:49.355736,96
2021-12-24 15:47:49.355766,98
2021-12-24 15:47:49.355778,89
2021-12-24 15:47:49.355788,91
2021-12-24 15:47:49.355797,108
2021-12-24 15:47:49.355807,174
2021-12-24 15:47:49.355817,275
2021-12-24 15:47:49.355827,264
2021-12-24 15:47:49.355836,57
2021-12-24 15:47:49.355846,-126
2021-12-24 15:47:49.355856,-48
2021-12-24 15:47:49.355866,96
2021-12-24 15:47:49.355875,108
2021-12-24 15:47:49.355885,117
2021-12-24 15:47:49.355895,160
2021-12-24 15:47:49.355904,140
2021-12-24 15:47:49.355914,98
2021-12-24 15:47:49.355924,96
2021-12-24 15:47:49.355933,85
2021-12-24 15:47:49.355943,57
2021-12-24 15:47:49.355953,59
2021-12-24 15:47:49.355963,50
2021-12-24 15:47:49.355972,32
2021-12-24 15:47:49.355982,52
2021-12-24 15:47:49.355992,71
2021-12-24 15:47:49.356002,68
2021-12-24 15:47:49.356011,80
2021-12-24 15:47:49.356021,82
2021-12-24 15:47:49.356031,57
2021-12-24 15:47:49.356041,52
2021-12-24 15:47:49.625776,78
2021-12-24 15:47:49.625806,105
2021-12-24 15:47:49.625818,98
2021-12-24 15:47:49.625828,43
2021-12-24 15:47:49.625837,22
2021-12-24 15:47:49.625847,73
2021-12-24 15:47:49.625857,117
2021-12-24 15:47:49.625867,131
2021-12-24 15:47:49.625876,149
2021-12-24 15:47:49.625886,140
2021-12-24 15:47:49.625896,121
2021-12-24 15:47:49.625906,147
2021-12-24 15:47:49.625915,165
2021-12-24 15:47:49.625925,149
2021-12-24 15:47:49.625935,133
2021-12-24 15:47:49.625945,108
2021-12-24 15:47:49.625954,89
2021-12-24 15:47:49.625964,108
2021-12-24 15:47:49.625974,135
2021-12-24 15:47:49.625984,149
2021-12-24 15:47:49.625994,158
2021-12-24 15:47:49.626003,156
2021-12-24 15:47:49.626013,151
2021-12-24 15:47:49.626023,167
2021-12-24 15:47:49.626032,195
2021-12-24 15:47:49.626042,216
2021-12-24 15:47:49.626052,218
2021-12-24 15:47:49.626062,218
2021-12-24 15:47:49.626072,239
2021-12-24 15:47:49.626081,262
2021-12-24 15:47:49.850785,268
2021-12-24 15:47:49.850816,268
2021-12-24 15:47:49.850828,264
2021-12-24 15:47:49.850838,243
2021-12-24 15:47:49.850847,223
2021-12-24 15:47:49.850857,211
2021-12-24 15:47:49.850867,223
2021-12-24 15:47:49.850877,239
2021-12-24 15:47:49.850886,218
2021-12-24 15:47:49.850896,181
2021-12-24 15:47:49.850906,190
2021-12-24 15:47:49.850916,209
2021-12-24 15:47:49.850925,209
2021-12-24 15:47:49.850935,204
2021-12-24 15:47:49.850945,170
2021-12-24 15:47:49.850955,124
2021-12-24 15:47:49.850964,151
2021-12-24 15:47:49.850974,209
2021-12-24 15:47:49.850984,213
2021-12-24 15:47:49.850993,195
2021-12-24 15:47:49.851003,193
2021-12-24 15:47:49.851013,190
2021-12-24 15:47:49.851023,193
2021-12-24 15:47:49.851032,177
2021-12-24 15:47:49.851042,140
2021-12-24 15:47:49.851052,137
2021-12-24 15:47:49.851061,140
2021-12-24 15:47:49.851071,119
2021-12-24 15:47:49.851081,124
2021-12-24 15:47:49.851090,160
2021-12-24 15:47:50.075145,183
2021-12-24 15:47:50.075165,177
2021-12-24 15:47:50.075173,154
2021-12-24 15:47:50.075179,137
2021-12-24 15:47:50.075186,140
2021-12-24 15:47:50.075192,144
2021-12-24 15:47:50.075198,131
2021-12-24 15:47:50.075205,91
2021-12-24 15:47:50.075211,43
2021-12-24 15:47:50.075218,22
2021-12-24 15:47:50.075224,45
2021-12-24 15:47:50.075230,73
2021-12-24 15:47:50.075237,87
2021-12-24 15:47:50.075243,78
2021-12-24 15:47:50.075249,41
2021-12-24 15:47:50.075256,9
2021-12-24 15:47:50.075262,6
2021-12-24 15:47:50.075268,22
2021-12-24 15:47:50.075275,32
2021-12-24 15:47:50.075281,27
2021-12-24 15:47:50.075288,11
2021-12-24 15:47:50.075294,-4
2021-12-24 15:47:50.075300,-2
2021-12-24 15:47:50.075307,6
2021-12-24 15:47:50.075313,2
2021-12-24 15:47:50.075320,-16
2021-12-24 15:47:50.075326,-2
2021-12-24 15:47:50.075333,64
2021-12-24 15:47:50.075339,154
2021-12-24 15:47:50.075345,204
2021-12-24 15:47:50.345737,80
2021-12-24 15:47:50.345767,-174
2021-12-24 15:47:50.345778,-234
2021-12-24 15:47:50.345788,-75
2021-12-24 15:47:50.345798,-4
2021-12-24 15:47:50.345808,-29
2021-12-24 15:47:50.345818,-32
2021-12-24 15:47:50.345828,-66
2021-12-24 15:47:50.345838,-131
2021-12-24 15:47:50.345847,-147
2021-12-24 15:47:50.345857,-137
2021-12-24 15:47:50.345867,-165
2021-12-24 15:47:50.345877,-204
2021-12-24 15:47:50.345886,-234
2021-12-24 15:47:50.345896,-262
2021-12-24 15:47:50.345906,-259
2021-12-24 15:47:50.345916,-236
2021-12-24 15:47:50.345926,-218
2021-12-24 15:47:50.345936,-209
2021-12-24 15:47:50.345945,-206
2021-12-24 15:47:50.345955,-190
2021-12-24 15:47:50.345965,-160
2021-12-24 15:47:50.345975,-140
2021-12-24 15:47:50.345985,-128
2021-12-24 15:47:50.345994,-131
2021-12-24 15:47:50.346004,-135
2021-12-24 15:47:50.346014,-117
2021-12-24 15:47:50.346024,-108
2021-12-24 15:47:50.346034,-137
2021-12-24 15:47:50.346043,-137
2021-12-24 15:47:50.570311,-98
2021-12-24 15:47:50.570331,-78
2021-12-24 15:47:50.570338,-85
2021-12-24 15:47:50.570345,-91
2021-12-24 15:47:50.570351,-94
2021-12-24 15:47:50.570358,-98
2021-12-24 15:47:50.570364,-121
2021-12-24 15:47:50.570371,-154
2021-12-24 15:47:50.570377,-172
2021-12-24 15:47:50.570383,-179
2021-12-24 15:47:50.570390,-190
2021-12-24 15:47:50.570396,-218
2021-12-24 15:47:50.570403,-248
2021-12-24 15:47:50.570409,-239
2021-12-24 15:47:50.570416,-204
2021-12-24 15:47:50.570422,-195
2021-12-24 15:47:50.570429,-188
2021-12-24 15:47:50.570435,-177
2021-12-24 15:47:50.570442,-186
2021-12-24 15:47:50.570448,-188
2021-12-24 15:47:50.570455,-167
2021-12-24 15:47:50.570463,-154
2021-12-24 15:47:50.570469,-135
2021-12-24 15:47:50.570476,-121
2021-12-24 15:47:50.570483,-121
2021-12-24 15:47:50.570490,-114
2021-12-24 15:47:50.570496,-94
2021-12-24 15:47:50.570504,-59
2021-12-24 15:47:50.570511,48
2021-12-24 15:47:50.570518,195
2021-12-24 15:47:50.794954,172
2021-12-24 15:47:50.794984,-128
2021-12-24 15:47:50.794995,-427
2021-12-24 15:47:50.795005,-372
2021-12-24 15:47:50.795015,-158
2021-12-24 15:47:50.795025,-117
2021-12-24 15:47:50.795034,-142
2021-12-24 15:47:50.795044,-94
2021-12-24 15:47:50.795054,-57
2021-12-24 15:47:50.795063,-64
2021-12-24 15:47:50.795073,-66
2021-12-24 15:47:50.795083,-75
2021-12-24 15:47:50.795092,-108
2021-12-24 15:47:50.795102,-124
2021-12-24 15:47:50.795112,-112
2021-12-24 15:47:50.795121,-112
2021-12-24 15:47:50.795131,-117
2021-12-24 15:47:50.795141,-103
2021-12-24 15:47:50.795151,-82
2021-12-24 15:47:50.795160,-68
2021-12-24 15:47:50.795170,-62
2021-12-24 15:47:50.795180,-59
2021-12-24 15:47:50.795189,-52
2021-12-24 15:47:50.795199,-45
2021-12-24 15:47:50.795209,-34
2021-12-24 15:47:50.795218,-9
2021-12-24 15:47:50.795228,4
2021-12-24 15:47:50.795238,6
2021-12-24 15:47:50.795247,25
2021-12-24 15:47:50.795257,43
2021-12-24 15:47:51.065127,48
2021-12-24 15:47:51.065158,36
2021-12-24 15:47:51.065170,0
2021-12-24 15:47:51.065179,-57
2021-12-24 15:47:51.065189,-144
2021-12-24 15:47:51.065199,-218
2021-12-24 15:47:51.065208,-225
2021-12-24 15:47:51.065218,-227
2021-12-24 15:47:51.065227,-268
2021-12-24 15:47:51.065237,-305
2021-12-24 15:47:51.065247,-335
2021-12-24 15:47:51.065256,-351
2021-12-24 15:47:51.065266,-342
2021-12-24 15:47:51.065275,-342
2021-12-24 15:47:51.065285,-351
2021-12-24 15:47:51.065295,-347
2021-12-24 15:47:51.065304,-342
2021-12-24 15:47:51.065314,-342
2021-12-24 15:47:51.065324,-324
2021-12-24 15:47:51.065333,-298
2021-12-24 15:47:51.065343,-298
2021-12-24 15:47:51.065353,-301
2021-12-24 15:47:51.065362,-291
2021-12-24 15:47:51.065372,-275
2021-12-24 15:47:51.065382,-250
2021-12-24 15:47:51.065391,-218
2021-12-24 15:47:51.065401,-193
2021-12-24 15:47:51.065410,-181
2021-12-24 15:47:51.065420,-183
2021-12-24 15:47:51.065430,-181
2021-12-24 15:47:51.245725,-156
2021-12-24 15:47:51.245754,-124
2021-12-24 15:47:51.245766,-114
2021-12-24 15:47:51.245777,-117
2021-12-24 15:47:51.245787,-126
2021-12-24 15:47:51.245796,-135
2021-12-24 15:47:51.245806,-128
2021-12-24 15:47:51.245816,-114
2021-12-24 15:47:51.245825,-114
2021-12-24 15:47:51.245835,-131
2021-12-24 15:47:51.245845,-156
2021-12-24 15:47:51.245855,-149
2021-12-24 15:47:51.245864,-119
2021-12-24 15:47:51.245875,-96
2021-12-24 15:47:51.245884,-80
2021-12-24 15:47:51.245894,-66
2021-12-24 15:47:51.245904,-73
2021-12-24 15:47:51.245914,-87
2021-12-24 15:47:51.245924,-68
2021-12-24 15:47:51.245934,-34
2021-12-24 15:47:51.245943,-27
2021-12-24 15:47:51.245953,-29
2021-12-24 15:47:51.245963,-9
2021-12-24 15:47:51.245972,25
2021-12-24 15:47:51.245982,45
2021-12-24 15:47:51.245992,45
2021-12-24 15:47:51.246002,50
2021-12-24 15:47:51.246011,64
2021-12-24 15:47:51.246021,78
2021-12-24 15:47:51.246031,91
2021-12-24 15:47:51.560898,108
2021-12-24 15:47:51.560927,121
2021-12-24 15:47:51.560939,112
2021-12-24 15:47:51.560949,75
2021-12-24 15:47:51.560959,55
2021-12-24 15:47:51.560981,82
2021-12-24 15:47:51.560992,103
2021-12-24 15:47:51.561001,98
2021-12-24 15:47:51.561011,94
2021-12-24 15:47:51.561021,64
2021-12-24 15:47:51.561031,25
2021-12-24 15:47:51.561041,39
2021-12-24 15:47:51.561050,78
2021-12-24 15:47:51.561060,101
2021-12-24 15:47:51.561070,91
2021-12-24 15:47:51.561079,39
2021-12-24 15:47:51.561089,6
2021-12-24 15:47:51.561099,25
2021-12-24 15:47:51.561108,27
2021-12-24 15:47:51.561118,6
2021-12-24 15:47:51.561128,11
2021-12-24 15:47:51.561138,25
2021-12-24 15:47:51.561147,25
2021-12-24 15:47:51.561157,29
2021-12-24 15:47:51.561167,45
2021-12-24 15:47:51.561176,73
2021-12-24 15:47:51.561186,135
2021-12-24 15:47:51.561196,218
2021-12-24 15:47:51.561206,245
2021-12-24 15:47:51.561215,114
2021-12-24 15:47:51.695937,-75
2021-12-24 15:47:51.695967,-66
2021-12-24 15:47:51.695979,57
2021-12-24 15:47:51.695989,71
2021-12-24 15:47:51.695998,64
2021-12-24 15:47:51.696008,85
2021-12-24 15:47:51.696017,62
2021-12-24 15:47:51.696027,41
2021-12-24 15:47:51.696036,34
2021-12-24 15:47:51.696046,11
2021-12-24 15:47:51.696055,0
2021-12-24 15:47:51.696065,9
2021-12-24 15:47:51.696074,13
2021-12-24 15:47:51.696084,-18
2021-12-24 15:47:51.696093,-105
2021-12-24 15:47:51.696103,-147
2021-12-24 15:47:51.696113,-119
2021-12-24 15:47:51.696122,-108
2021-12-24 15:47:51.696132,-108
2021-12-24 15:47:51.696141,-80
2021-12-24 15:47:51.696151,-89
2021-12-24 15:47:51.696160,-128
2021-12-24 15:47:51.696170,-114
2021-12-24 15:47:51.696180,-82
2021-12-24 15:47:51.696189,-66
2021-12-24 15:47:51.696199,-48
2021-12-24 15:47:51.696208,-68
2021-12-24 15:47:51.696218,-96
2021-12-24 15:47:51.696227,-62
2021-12-24 15:47:51.696237,-22
2021-12-24 15:47:51.920939,-18
2021-12-24 15:47:51.920956,-18
2021-12-24 15:47:51.920962,-27
2021-12-24 15:47:51.920968,-36
2021-12-24 15:47:51.920973,-27
2021-12-24 15:47:51.920978,-16
2021-12-24 15:47:51.920983,-22
2021-12-24 15:47:51.920988,-45
2021-12-24 15:47:51.920993,-80
2021-12-24 15:47:51.920998,-101
2021-12-24 15:47:51.921003,-101
2021-12-24 15:47:51.921008,-85
2021-12-24 15:47:51.921013,-57
2021-12-24 15:47:51.921019,-52
2021-12-24 15:47:51.921024,-73
2021-12-24 15:47:51.921029,-87
2021-12-24 15:47:51.921034,-98
2021-12-24 15:47:51.921039,-119
2021-12-24 15:47:51.921044,-126
2021-12-24 15:47:51.921049,-103
2021-12-24 15:47:51.921054,-64
2021-12-24 15:47:51.921059,-45
2021-12-24 15:47:51.921064,-52
2021-12-24 15:47:51.921070,-45
2021-12-24 15:47:51.921075,-18
2021-12-24 15:47:51.921080,-18
2021-12-24 15:47:51.921085,-50
2021-12-24 15:47:51.921090,-48
2021-12-24 15:47:51.921095,-16
2021-12-24 15:47:51.921100,0
2021-12-24 15:47:52.190107,9
2021-12-24 15:47:52.190126,32
2021-12-24 15:47:52.190134,55
2021-12-24 15:47:52.190141,50
2021-12-24 15:47:52.190147,36
2021-12-24 15:47:52.190153,55
2021-12-24 15:47:52.190160,66
2021-12-24 15:47:52.190166,39
2021-12-24 15:47:52.190172,34
2021-12-24 15:47:52.190179,75
2021-12-24 15:47:52.190185,112
2021-12-24 15:47:52.190192,135
2021-12-24 15:47:52.190198,137
2021-12-24 15:47:52.190204,91
2021-12-24 15:47:52.190211,59
2021-12-24 15:47:52.190217,80
2021-12-24 15:47:52.190224,101
2021-12-24 15:47:52.190230,117
2021-12-24 15:47:52.190237,131
2021-12-24 15:47:52.190243,124
2021-12-24 15:47:52.190249,126
2021-12-24 15:47:52.190256,147
2021-12-24 15:47:52.190262,167
2021-12-24 15:47:52.190268,183
2021-12-24 15:47:52.190275,213
2021-12-24 15:47:52.190281,266
2021-12-24 15:47:52.190288,301
2021-12-24 15:47:52.190294,211
2021-12-24 15:47:52.190301,-20
2021-12-24 15:47:52.190307,-114
2021-12-24 15:47:52.370761,50
2021-12-24 15:47:52.370781,170
2021-12-24 15:47:52.370789,151
2021-12-24 15:47:52.370795,172
2021-12-24 15:47:52.370802,204
2021-12-24 15:47:52.370808,195
2021-12-24 15:47:52.370814,163
2021-12-24 15:47:52.370821,128
2021-12-24 15:47:52.370827,110
2021-12-24 15:47:52.370833,96
2021-12-24 15:47:52.370840,96
2021-12-24 15:47:52.370846,108
2021-12-24 15:47:52.370853,98
2021-12-24 15:47:52.370859,91
2021-12-24 15:47:52.370865,82
2021-12-24 15:47:52.370872,48
2021-12-24 15:47:52.370878,16
2021-12-24 15:47:52.370885,11
2021-12-24 15:47:52.370892,4
2021-12-24 15:47:52.370899,4
2021-12-24 15:47:52.370905,6
2021-12-24 15:47:52.370912,-27
2021-12-24 15:47:52.370918,-48
2021-12-24 15:47:52.370925,-18
2021-12-24 15:47:52.370932,2
2021-12-24 15:47:52.370940,9
2021-12-24 15:47:52.370947,9
2021-12-24 15:47:52.370953,-13
2021-12-24 15:47:52.370961,-16
2021-12-24 15:47:52.370968,4
2021-12-24 15:47:52.595797,-13
2021-12-24 15:47:52.595826,-36
2021-12-24 15:47:52.595838,-41
2021-12-24 15:47:52.595848,-59
2021-12-24 15:47:52.595858,-82
2021-12-24 15:47:52.595867,-105
2021-12-24 15:47:52.595877,-126
2021-12-24 15:47:52.595887,-133
2021-12-24 15:47:52.595896,-137
2021-12-24 15:47:52.595906,-131
2021-12-24 15:47:52.595915,-110
2021-12-24 15:47:52.595925,-124
2021-12-24 15:47:52.595935,-137
2021-12-24 15:47:52.595944,-101
2021-12-24 15:47:52.595954,-62
2021-12-24 15:47:52.595964,-57
2021-12-24 15:47:52.595973,-59
2021-12-24 15:47:52.595983,-59
2021-12-24 15:47:52.595993,-48
2021-12-24 15:47:52.596002,-18
2021-12-24 15:47:52.596012,-9
2021-12-24 15:47:52.596021,-9
2021-12-24 15:47:52.596031,9
2021-12-24 15:47:52.596041,20
2021-12-24 15:47:52.596050,34
2021-12-24 15:47:52.596060,55
2021-12-24 15:47:52.596069,55
2021-12-24 15:47:52.596079,34
2021-12-24 15:47:52.596088,22
2021-12-24 15:47:52.596098,20
2021-12-24 15:47:52.954405,34
2021-12-24 15:47:52.954436,55
2021-12-24 15:47:52.954448,64
2021-12-24 15:47:52.954458,62
2021-12-24 15:47:52.954468,45
2021-12-24 15:47:52.954477,16
2021-12-24 15:47:52.954487,13
2021-12-24 15:47:52.954496,50
2021-12-24 15:47:52.954506,62
2021-12-24 15:47:52.954516,36
2021-12-24 15:47:52.954526,11
2021-12-24 15:47:52.954535,-2
2021-12-24 15:47:52.954545,22
2021-12-24 15:47:52.954555,68
2021-12-24 15:47:52.954564,80
2021-12-24 15:47:52.954574,68
2021-12-24 15:47:52.954583,75
2021-12-24 15:47:52.954593,73
2021-12-24 15:47:52.954603,59
2021-12-24 15:47:52.954612,68
2021-12-24 15:47:52.954622,85
2021-12-24 15:47:52.954631,80
2021-12-24 15:47:52.954641,78
2021-12-24 15:47:52.954651,91
2021-12-24 15:47:52.954660,112
2021-12-24 15:47:52.954670,110
2021-12-24 15:47:52.954680,66
2021-12-24 15:47:52.954690,59
2021-12-24 15:47:52.954699,147
2021-12-24 15:47:52.954709,227
2021-12-24 15:47:53.090774,154
2021-12-24 15:47:53.090805,-78
2021-12-24 15:47:53.090817,-197
2021-12-24 15:47:53.090827,-64
2021-12-24 15:47:53.090837,20
2021-12-24 15:47:53.090846,-6
2021-12-24 15:47:53.090856,29
2021-12-24 15:47:53.090866,68
2021-12-24 15:47:53.090875,64
2021-12-24 15:47:53.090885,75
2021-12-24 15:47:53.090895,96
2021-12-24 15:47:53.090904,98
2021-12-24 15:47:53.090914,119
2021-12-24 15:47:53.090924,151
2021-12-24 15:47:53.090933,149
2021-12-24 15:47:53.090943,124
2021-12-24 15:47:53.090953,112
2021-12-24 15:47:53.090962,110
2021-12-24 15:47:53.090972,105
2021-12-24 15:47:53.090982,101
2021-12-24 15:47:53.090992,91
2021-12-24 15:47:53.091001,82
2021-12-24 15:47:53.091011,96
2021-12-24 15:47:53.091021,121
2021-12-24 15:47:53.091030,131
2021-12-24 15:47:53.091040,131
2021-12-24 15:47:53.091050,133
2021-12-24 15:47:53.091060,105
2021-12-24 15:47:53.091069,87
2021-12-24 15:47:53.091079,124
2021-12-24 15:47:53.315750,160
2021-12-24 15:47:53.315780,170
2021-12-24 15:47:53.315791,177
2021-12-24 15:47:53.315801,151
2021-12-24 15:47:53.315811,110
2021-12-24 15:47:53.315820,89
2021-12-24 15:47:53.315830,71
2021-12-24 15:47:53.315839,71
2021-12-24 15:47:53.315849,48
2021-12-24 15:47:53.315859,-13
2021-12-24 15:47:53.315868,-41
2021-12-24 15:47:53.315878,-22
2021-12-24 15:47:53.315888,-18
2021-12-24 15:47:53.315897,-18
2021-12-24 15:47:53.315907,-13
2021-12-24 15:47:53.315917,-43
2021-12-24 15:47:53.315927,-75
2021-12-24 15:47:53.315936,-55
2021-12-24 15:47:53.315946,-29
2021-12-24 15:47:53.315956,-18
2021-12-24 15:47:53.315965,2
2021-12-24 15:47:53.315975,2
2021-12-24 15:47:53.315985,-9
2021-12-24 15:47:53.315994,18
2021-12-24 15:47:53.316004,48
2021-12-24 15:47:53.316014,36
2021-12-24 15:47:53.316024,13
2021-12-24 15:47:53.316033,11
2021-12-24 15:47:53.316043,16
2021-12-24 15:47:53.316053,36
2021-12-24 15:47:53.540785,66
2021-12-24 15:47:53.540814,41
2021-12-24 15:47:53.540826,-22
2021-12-24 15:47:53.540836,-43
2021-12-24 15:47:53.540845,-34
2021-12-24 15:47:53.540855,-43
2021-12-24 15:47:53.540865,-43
2021-12-24 15:47:53.540874,-29
2021-12-24 15:47:53.540884,-36
2021-12-24 15:47:53.540893,-57
2021-12-24 15:47:53.540903,-43
2021-12-24 15:47:53.540913,-2
2021-12-24 15:47:53.540923,27
2021-12-24 15:47:53.540932,25
2021-12-24 15:47:53.540942,-9
2021-12-24 15:47:53.540951,-25
2021-12-24 15:47:53.540961,13
2021-12-24 15:47:53.540971,41
2021-12-24 15:47:53.540980,32
2021-12-24 15:47:53.540990,48
2021-12-24 15:47:53.540999,52
2021-12-24 15:47:53.541009,16
2021-12-24 15:47:53.541018,39
2021-12-24 15:47:53.541028,91
2021-12-24 15:47:53.541038,108
2021-12-24 15:47:53.541047,135
2021-12-24 15:47:53.541057,165
2021-12-24 15:47:53.541066,121
2021-12-24 15:47:53.541076,89
2021-12-24 15:47:53.541086,137
2021-12-24 15:47:53.810247,149
2021-12-24 15:47:53.810266,110
2021-12-24 15:47:53.810274,112
2021-12-24 15:47:53.810280,128
2021-12-24 15:47:53.810286,126
2021-12-24 15:47:53.810293,135
2021-12-24 15:47:53.810299,140
2021-12-24 15:47:53.810305,103
2021-12-24 15:47:53.810312,80
2021-12-24 15:47:53.810318,167
2021-12-24 15:47:53.810324,252
2021-12-24 15:47:53.810330,142
2021-12-24 15:47:53.810337,-91
2021-12-24 15:47:53.810343,-183
2021-12-24 15:47:53.810349,-73
2021-12-24 15:47:53.810355,11
2021-12-24 15:47:53.810362,16
2021-12-24 15:47:53.810368,45
2021-12-24 15:47:53.810374,43
2021-12-24 15:47:53.810380,-6
2021-12-24 15:47:53.810387,-18
2021-12-24 15:47:53.810393,-18
2021-12-24 15:47:53.810399,-34
2021-12-24 15:47:53.810406,-25
2021-12-24 15:47:53.810412,0
2021-12-24 15:47:53.810418,9
2021-12-24 15:47:53.810425,4
2021-12-24 15:47:53.810431,-6
2021-12-24 15:47:53.810437,-13
2021-12-24 15:47:53.810444,-11
2021-12-24 15:47:53.990749,2
2021-12-24 15:47:53.990779,18
2021-12-24 15:47:53.990791,22
2021-12-24 15:47:53.990801,25
2021-12-24 15:47:53.990811,39
2021-12-24 15:47:53.990820,68
2021-12-24 15:47:53.990830,80
2021-12-24 15:47:53.990839,48
2021-12-24 15:47:53.990849,25
2021-12-24 15:47:53.990859,29
2021-12-24 15:47:53.990868,29
2021-12-24 15:47:53.990878,43
2021-12-24 15:47:53.990888,43
2021-12-24 15:47:53.990897,6
2021-12-24 15:47:53.990907,9
2021-12-24 15:47:53.990917,48
2021-12-24 15:47:53.990926,29
2021-12-24 15:47:53.990936,-18
2021-12-24 15:47:53.990946,-36
2021-12-24 15:47:53.990956,-64
2021-12-24 15:47:53.990965,-85
2021-12-24 15:47:53.990975,-66
2021-12-24 15:47:53.990985,-39
2021-12-24 15:47:53.990994,-32
2021-12-24 15:47:53.991004,-57
2021-12-24 15:47:53.991014,-64
2021-12-24 15:47:53.991024,-36
2021-12-24 15:47:53.991034,-29
2021-12-24 15:47:53.991043,-29
2021-12-24 15:47:53.991053,-4
2021-12-24 15:47:54.305171,9
2021-12-24 15:47:54.305200,18
2021-12-24 15:47:54.305212,27
2021-12-24 15:47:54.305222,6
2021-12-24 15:47:54.305232,-4
2021-12-24 15:47:54.305242,20
2021-12-24 15:47:54.305251,20
2021-12-24 15:47:54.305261,0
2021-12-24 15:47:54.305271,11
2021-12-24 15:47:54.305280,20
2021-12-24 15:47:54.305290,4
2021-12-24 15:47:54.305300,-27
2021-12-24 15:47:54.305309,-66
2021-12-24 15:47:54.305319,-71
2021-12-24 15:47:54.305329,-45
2021-12-24 15:47:54.305339,-27
2021-12-24 15:47:54.305348,-9
2021-12-24 15:47:54.305358,-9
2021-12-24 15:47:54.305368,-20
2021-12-24 15:47:54.305378,4
2021-12-24 15:47:54.305387,39
2021-12-24 15:47:54.305397,43
2021-12-24 15:47:54.305407,57
2021-12-24 15:47:54.305416,48
2021-12-24 15:47:54.305426,27
2021-12-24 15:47:54.305436,75
2021-12-24 15:47:54.305445,126
2021-12-24 15:47:54.305455,112
2021-12-24 15:47:54.305465,98
2021-12-24 15:47:54.305474,108
2021-12-24 15:47:54.485806,117
2021-12-24 15:47:54.485836,133
2021-12-24 15:47:54.485848,156
2021-12-24 15:47:54.485858,167
2021-12-24 15:47:54.485868,167
2021-12-24 15:47:54.485877,135
2021-12-24 15:47:54.485887,101
2021-12-24 15:47:54.485897,124
2021-12-24 15:47:54.485906,181
2021-12-24 15:47:54.485916,252
2021-12-24 15:47:54.485925,303
2021-12-24 15:47:54.485935,197
2021-12-24 15:47:54.485945,-71
2021-12-24 15:47:54.485955,-197
2021-12-24 15:47:54.485964,-66
2021-12-24 15:47:54.485974,18
2021-12-24 15:47:54.485984,-25
2021-12-24 15:47:54.485994,-27
2021-12-24 15:47:54.486003,-2
2021-12-24 15:47:54.486013,0
2021-12-24 15:47:54.486023,-18
2021-12-24 15:47:54.486032,-32
2021-12-24 15:47:54.486042,-34
2021-12-24 15:47:54.486052,-52
2021-12-24 15:47:54.486061,-75
2021-12-24 15:47:54.486071,-68
2021-12-24 15:47:54.486081,-45
2021-12-24 15:47:54.486091,-32
2021-12-24 15:47:54.486100,-29
2021-12-24 15:47:54.486110,-13
2021-12-24 15:47:54.665770,9
2021-12-24 15:47:54.665800,29
2021-12-24 15:47:54.665812,43
2021-12-24 15:47:54.665822,48
2021-12-24 15:47:54.665831,43
2021-12-24 15:47:54.665841,11
2021-12-24 15:47:54.665851,11
2021-12-24 15:47:54.665860,62
2021-12-24 15:47:54.665960,96
2021-12-24 15:47:54.665971,105
2021-12-24 15:47:54.665981,110
2021-12-24 15:47:54.665991,117
2021-12-24 15:47:54.666001,133
2021-12-24 15:47:54.666010,137
2021-12-24 15:47:54.666020,124
2021-12-24 15:47:54.666030,80
2021-12-24 15:47:54.666040,13
2021-12-24 15:47:54.666049,-13
2021-12-24 15:47:54.666059,-4
2021-12-24 15:47:54.666069,-4
2021-12-24 15:47:54.666079,-11
2021-12-24 15:47:54.666088,-11
2021-12-24 15:47:54.666098,-25
2021-12-24 15:47:54.666108,-25
2021-12-24 15:47:54.666117,-4
2021-12-24 15:47:54.666127,29
2021-12-24 15:47:54.666137,52
2021-12-24 15:47:54.666147,29
2021-12-24 15:47:54.666157,-6
2021-12-24 15:47:54.666166,-9
2021-12-24 15:47:54.934431,4
2021-12-24 15:47:54.934462,25
2021-12-24 15:47:54.934473,48
2021-12-24 15:47:54.934483,32
2021-12-24 15:47:54.934493,0
2021-12-24 15:47:54.934503,6
2021-12-24 15:47:54.934513,27
2021-12-24 15:47:54.934522,29
2021-12-24 15:47:54.934532,39
2021-12-24 15:47:54.934541,27
2021-12-24 15:47:54.934551,-4
2021-12-24 15:47:54.934560,-2
2021-12-24 15:47:54.934570,25
2021-12-24 15:47:54.934580,34
2021-12-24 15:47:54.934589,36
2021-12-24 15:47:54.934599,48
2021-12-24 15:47:54.934608,48
2021-12-24 15:47:54.934618,-4
2021-12-24 15:47:54.934628,-91
2021-12-24 15:47:54.934637,-117
2021-12-24 15:47:54.934647,-80
2021-12-24 15:47:54.934656,-75
2021-12-24 15:47:54.934666,-87
2021-12-24 15:47:54.934676,-62
2021-12-24 15:47:54.934685,-36
2021-12-24 15:47:54.934695,-39
2021-12-24 15:47:54.934705,-32
2021-12-24 15:47:54.934714,-16
2021-12-24 15:47:54.934724,-16
2021-12-24 15:47:54.934733,9
2021-12-24 15:47:55.160764,91
2021-12-24 15:47:55.160793,183
2021-12-24 15:47:55.160804,167
2021-12-24 15:47:55.160815,-71
2021-12-24 15:47:55.160825,-349
2021-12-24 15:47:55.160835,-301
2021-12-24 15:47:55.160844,-59
2021-12-24 15:47:55.160854,9
2021-12-24 15:47:55.160864,-16
2021-12-24 15:47:55.160874,-11
2021-12-24 15:47:55.160883,-13
2021-12-24 15:47:55.160893,0
2021-12-24 15:47:55.160903,36
2021-12-24 15:47:55.160912,59
2021-12-24 15:47:55.160922,52
2021-12-24 15:47:55.160932,41
2021-12-24 15:47:55.160942,55
2021-12-24 15:47:55.160951,82
2021-12-24 15:47:55.160961,91
2021-12-24 15:47:55.160971,80
2021-12-24 15:47:55.160980,59
2021-12-24 15:47:55.160990,50
2021-12-24 15:47:55.161000,71
2021-12-24 15:47:55.161009,105
2021-12-24 15:47:55.161019,119
2021-12-24 15:47:55.161029,121
2021-12-24 15:47:55.161039,131
2021-12-24 15:47:55.161048,128
2021-12-24 15:47:55.161058,135
2021-12-24 15:47:55.161068,177
2021-12-24 15:47:55.385824,209
2021-12-24 15:47:55.385854,204
2021-12-24 15:47:55.385866,200
2021-12-24 15:47:55.385876,195
2021-12-24 15:47:55.385885,186
2021-12-24 15:47:55.385895,172
2021-12-24 15:47:55.385905,158
2021-12-24 15:47:55.385914,121
2021-12-24 15:47:55.385924,39
2021-12-24 15:47:55.385934,-43
2021-12-24 15:47:55.385944,-55
2021-12-24 15:47:55.385954,-43
2021-12-24 15:47:55.385963,-73
2021-12-24 15:47:55.385973,-110
2021-12-24 15:47:55.385983,-140
2021-12-24 15:47:55.385993,-179
2021-12-24 15:47:55.386003,-183
2021-12-24 15:47:55.386012,-163
2021-12-24 15:47:55.386022,-158
2021-12-24 15:47:55.386032,-160
