Time,ECG
2021-12-24 15:52:27.995013,172
2021-12-24 15:52:27.995043,186
2021-12-24 15:52:27.995055,193
2021-12-24 15:52:27.995065,174
2021-12-24 15:52:27.995074,156
2021-12-24 15:52:27.995085,181
2021-12-24 15:52:27.995095,186
2021-12-24 15:52:27.995105,135
2021-12-24 15:52:27.995114,103
2021-12-24 15:52:27.995125,98
2021-12-24 15:52:27.995135,87
2021-12-24 15:52:27.995144,96
2021-12-24 15:52:27.995154,105
2021-12-24 15:52:27.995164,87
2021-12-24 15:52:27.995173,55
2021-12-24 15:52:27.995183,29
2021-12-24 15:52:27.995193,29
2021-12-24 15:52:27.995203,45
2021-12-24 15:52:27.995213,43
2021-12-24 15:52:27.995222,34
2021-12-24 15:52:27.995232,39
2021-12-24 15:52:27.995242,48
2021-12-24 15:52:27.995251,57
2021-12-24 15:52:27.995261,48
2021-12-24 15:52:27.995271,29
2021-12-24 15:52:27.995281,32
2021-12-24 15:52:27.995291,32
2021-12-24 15:52:27.995301,13
2021-12-24 15:52:27.995311,20
2021-12-24 15:52:27.995320,45
2021-12-24 15:52:28.264947,50
2021-12-24 15:52:28.264968,45
2021-12-24 15:52:28.264975,48
2021-12-24 15:52:28.264982,52
2021-12-24 15:52:28.264988,55
2021-12-24 15:52:28.264995,45
2021-12-24 15:52:28.265002,36
2021-12-24 15:52:28.265009,25
2021-12-24 15:52:28.265015,-13
2021-12-24 15:52:28.265022,-50
2021-12-24 15:52:28.265028,-34
2021-12-24 15:52:28.265035,-20
2021-12-24 15:52:28.265041,-43
2021-12-24 15:52:28.265047,-68
2021-12-24 15:52:28.265054,-105
2021-12-24 15:52:28.265060,-144
2021-12-24 15:52:28.265067,-131
2021-12-24 15:52:28.265074,-101
2021-12-24 15:52:28.265080,-105
2021-12-24 15:52:28.265087,-124
2021-12-24 15:52:28.265093,-140
2021-12-24 15:52:28.265100,-142
2021-12-24 15:52:28.265106,-126
2021-12-24 15:52:28.265112,-114
2021-12-24 15:52:28.265119,-112
2021-12-24 15:52:28.265125,-114
2021-12-24 15:52:28.265132,-124
2021-12-24 15:52:28.265138,-126
2021-12-24 15:52:28.265144,-133
2021-12-24 15:52:28.265153,-133
2021-12-24 15:52:28.445067,-101
2021-12-24 15:52:28.445096,-87
2021-12-24 15:52:28.445108,-110
2021-12-24 15:52:28.445117,-110
2021-12-24 15:52:28.445127,-82
2021-12-24 15:52:28.445137,-66
2021-12-24 15:52:28.445147,-75
2021-12-24 15:52:28.445156,-105
2021-12-24 15:52:28.445166,-133
2021-12-24 15:52:28.445176,-140
2021-12-24 15:52:28.445186,-119
2021-12-24 15:52:28.445196,-101
2021-12-24 15:52:28.445205,-121
2021-12-24 15:52:28.445238,-172
2021-12-24 15:52:28.445248,-190
2021-12-24 15:52:28.445258,-170
2021-12-24 15:52:28.445268,-149
2021-12-24 15:52:28.445278,-126
2021-12-24 15:52:28.445288,-117
2021-12-24 15:52:28.445298,-144
2021-12-24 15:52:28.445307,-128
2021-12-24 15:52:28.445317,-34
2021-12-24 15:52:28.445327,4
2021-12-24 15:52:28.445337,-142
2021-12-24 15:52:28.445346,-340
2021-12-24 15:52:28.445356,-317
2021-12-24 15:52:28.445366,-167
2021-12-24 15:52:28.445376,-154
2021-12-24 15:52:28.445386,-186
2021-12-24 15:52:28.445399,-135
2021-12-24 15:52:28.669924,-96
2021-12-24 15:52:28.669943,-110
2021-12-24 15:52:28.669950,-114
2021-12-24 15:52:28.669957,-105
2021-12-24 15:52:28.669963,-98
2021-12-24 15:52:28.669972,-73
2021-12-24 15:52:28.669981,-71
2021-12-24 15:52:28.669988,-96
2021-12-24 15:52:28.669994,-80
2021-12-24 15:52:28.670001,-55
2021-12-24 15:52:28.670007,-62
2021-12-24 15:52:28.670013,-55
2021-12-24 15:52:28.670020,-62
2021-12-24 15:52:28.670026,-101
2021-12-24 15:52:28.670032,-91
2021-12-24 15:52:28.670039,-27
2021-12-24 15:52:28.670045,4
2021-12-24 15:52:28.670055,13
2021-12-24 15:52:28.670061,32
2021-12-24 15:52:28.670068,45
2021-12-24 15:52:28.670074,55
2021-12-24 15:52:28.670081,62
2021-12-24 15:52:28.670087,57
2021-12-24 15:52:28.670093,75
2021-12-24 15:52:28.670100,119
2021-12-24 15:52:28.670106,133
2021-12-24 15:52:28.670112,124
2021-12-24 15:52:28.670119,108
2021-12-24 15:52:28.670125,94
2021-12-24 15:52:28.670131,78
2021-12-24 15:52:28.983590,43
2021-12-24 15:52:28.983688,9
2021-12-24 15:52:28.983704,-6
2021-12-24 15:52:28.983715,0
2021-12-24 15:52:28.983725,18
2021-12-24 15:52:28.983734,4
2021-12-24 15:52:28.983744,-41
2021-12-24 15:52:28.983761,-48
2021-12-24 15:52:28.983771,-25
2021-12-24 15:52:28.983781,-16
2021-12-24 15:52:28.983795,-2
2021-12-24 15:52:28.983812,9
2021-12-24 15:52:28.983829,-20
2021-12-24 15:52:28.983893,-16
2021-12-24 15:52:28.983917,22
2021-12-24 15:52:28.983925,11
2021-12-24 15:52:28.983932,9
2021-12-24 15:52:28.983939,50
2021-12-24 15:52:28.983945,27
2021-12-24 15:52:28.983952,-20
2021-12-24 15:52:28.983958,11
2021-12-24 15:52:28.983964,36
2021-12-24 15:52:28.983971,16
2021-12-24 15:52:28.983977,13
2021-12-24 15:52:28.983984,11
2021-12-24 15:52:28.983991,-6
2021-12-24 15:52:28.983997,-34
2021-12-24 15:52:28.984004,-50
2021-12-24 15:52:28.984010,-27
2021-12-24 15:52:28.984018,0
2021-12-24 15:52:29.164516,-4
2021-12-24 15:52:29.164546,-27
2021-12-24 15:52:29.164557,-66
2021-12-24 15:52:29.164567,-105
2021-12-24 15:52:29.164577,-126
2021-12-24 15:52:29.164586,-133
2021-12-24 15:52:29.164596,-124
2021-12-24 15:52:29.164606,-117
2021-12-24 15:52:29.164616,-133
2021-12-24 15:52:29.164625,-149
2021-12-24 15:52:29.164635,-147
2021-12-24 15:52:29.164645,-156
2021-12-24 15:52:29.164654,-163
2021-12-24 15:52:29.164664,-140
2021-12-24 15:52:29.164674,-126
2021-12-24 15:52:29.164684,-137
2021-12-24 15:52:29.164693,-154
2021-12-24 15:52:29.164703,-172
2021-12-24 15:52:29.164713,-167
2021-12-24 15:52:29.164722,-119
2021-12-24 15:52:29.164732,-45
2021-12-24 15:52:29.164742,20
2021-12-24 15:52:29.164752,16
2021-12-24 15:52:29.164762,-147
2021-12-24 15:52:29.164778,-335
2021-12-24 15:52:29.164788,-271
2021-12-24 15:52:29.164798,-89
2021-12-24 15:52:29.164808,-64
2021-12-24 15:52:29.164817,-85
2021-12-24 15:52:29.164827,-43
2021-12-24 15:52:29.344453,-27
2021-12-24 15:52:29.344474,-32
2021-12-24 15:52:29.344482,-22
2021-12-24 15:52:29.344488,-45
2021-12-24 15:52:29.344495,-103
2021-12-24 15:52:29.344501,-108
2021-12-24 15:52:29.344508,-62
2021-12-24 15:52:29.344514,-50
2021-12-24 15:52:29.344520,-57
2021-12-24 15:52:29.344527,-64
2021-12-24 15:52:29.344533,-101
2021-12-24 15:52:29.344540,-121
2021-12-24 15:52:29.344546,-89
2021-12-24 15:52:29.344553,-59
2021-12-24 15:52:29.344559,-52
2021-12-24 15:52:29.344565,-39
2021-12-24 15:52:29.344572,-27
2021-12-24 15:52:29.344578,-27
2021-12-24 15:52:29.344584,0
2021-12-24 15:52:29.344591,43
2021-12-24 15:52:29.344597,57
2021-12-24 15:52:29.344604,57
2021-12-24 15:52:29.344612,62
2021-12-24 15:52:29.344619,50
2021-12-24 15:52:29.344625,16
2021-12-24 15:52:29.344632,-2
2021-12-24 15:52:29.344638,11
2021-12-24 15:52:29.344644,20
2021-12-24 15:52:29.344651,0
2021-12-24 15:52:29.344657,-18
2021-12-24 15:52:29.615015,-16
2021-12-24 15:52:29.615059,-16
2021-12-24 15:52:29.615071,-36
2021-12-24 15:52:29.615081,-68
2021-12-24 15:52:29.615091,-89
2021-12-24 15:52:29.615101,-91
2021-12-24 15:52:29.615110,-96
2021-12-24 15:52:29.615120,-87
2021-12-24 15:52:29.615130,-48
2021-12-24 15:52:29.615140,-52
2021-12-24 15:52:29.615149,-96
2021-12-24 15:52:29.615159,-80
2021-12-24 15:52:29.615169,-29
2021-12-24 15:52:29.615179,-9
2021-12-24 15:52:29.615189,0
2021-12-24 15:52:29.615198,11
2021-12-24 15:52:29.615208,25
2021-12-24 15:52:29.615218,57
2021-12-24 15:52:29.615228,75
2021-12-24 15:52:29.615237,73
2021-12-24 15:52:29.615247,80
2021-12-24 15:52:29.615257,85
2021-12-24 15:52:29.615267,82
2021-12-24 15:52:29.615276,103
2021-12-24 15:52:29.615291,131
2021-12-24 15:52:29.615301,126
2021-12-24 15:52:29.615311,108
2021-12-24 15:52:29.615321,108
2021-12-24 15:52:29.615330,112
2021-12-24 15:52:29.615340,124
2021-12-24 15:52:29.839922,128
2021-12-24 15:52:29.839952,124
2021-12-24 15:52:29.839963,117
2021-12-24 15:52:29.839973,91
2021-12-24 15:52:29.839983,52
2021-12-24 15:52:29.839993,64
2021-12-24 15:52:29.840002,103
2021-12-24 15:52:29.840012,101
2021-12-24 15:52:29.840022,52
2021-12-24 15:52:29.840031,4
2021-12-24 15:52:29.840041,0
2021-12-24 15:52:29.840051,25
2021-12-24 15:52:29.840061,43
2021-12-24 15:52:29.840071,52
2021-12-24 15:52:29.840080,48
2021-12-24 15:52:29.840090,18
2021-12-24 15:52:29.840100,6
2021-12-24 15:52:29.840110,29
2021-12-24 15:52:29.840120,52
2021-12-24 15:52:29.840129,68
2021-12-24 15:52:29.840139,73
2021-12-24 15:52:29.840149,57
2021-12-24 15:52:29.840159,55
2021-12-24 15:52:29.840168,80
2021-12-24 15:52:29.840178,105
2021-12-24 15:52:29.840188,108
2021-12-24 15:52:29.840197,98
2021-12-24 15:52:29.840207,112
2021-12-24 15:52:29.840217,142
2021-12-24 15:52:29.840227,128
2021-12-24 15:52:30.064894,85
2021-12-24 15:52:30.064925,87
2021-12-24 15:52:30.064936,98
2021-12-24 15:52:30.064946,80
2021-12-24 15:52:30.064956,82
2021-12-24 15:52:30.064966,119
2021-12-24 15:52:30.064976,140
2021-12-24 15:52:30.064985,137
2021-12-24 15:52:30.064995,105
2021-12-24 15:52:30.065005,68
2021-12-24 15:52:30.065015,55
2021-12-24 15:52:30.065025,48
2021-12-24 15:52:30.065034,71
2021-12-24 15:52:30.065044,137
2021-12-24 15:52:30.065054,204
2021-12-24 15:52:30.065064,225
2021-12-24 15:52:30.065074,144
2021-12-24 15:52:30.065083,-27
2021-12-24 15:52:30.065093,-82
2021-12-24 15:52:30.065103,43
2021-12-24 15:52:30.065113,114
2021-12-24 15:52:30.065123,96
2021-12-24 15:52:30.065133,121
2021-12-24 15:52:30.065142,172
2021-12-24 15:52:30.065152,204
2021-12-24 15:52:30.065162,211
2021-12-24 15:52:30.065172,202
2021-12-24 15:52:30.065181,206
2021-12-24 15:52:30.065191,216
2021-12-24 15:52:30.065201,211
2021-12-24 15:52:30.289938,216
2021-12-24 15:52:30.289968,229
2021-12-24 15:52:30.289980,225
2021-12-24 15:52:30.289990,209
2021-12-24 15:52:30.290000,211
2021-12-24 15:52:30.290009,241
2021-12-24 15:52:30.290019,259
2021-12-24 15:52:30.290029,234
2021-12-24 15:52:30.290039,204
2021-12-24 15:52:30.290048,211
2021-12-24 15:52:30.290065,227
2021-12-24 15:52:30.290075,225
2021-12-24 15:52:30.290085,209
2021-12-24 15:52:30.290094,181
2021-12-24 15:52:30.290104,172
2021-12-24 15:52:30.290114,193
2021-12-24 15:52:30.290123,202
2021-12-24 15:52:30.290133,202
2021-12-24 15:52:30.290143,213
2021-12-24 15:52:30.290152,220
2021-12-24 15:52:30.290162,206
2021-12-24 15:52:30.290172,177
2021-12-24 15:52:30.290182,156
2021-12-24 15:52:30.290191,160
2021-12-24 15:52:30.290201,167
2021-12-24 15:52:30.290211,137
2021-12-24 15:52:30.290220,94
2021-12-24 15:52:30.290230,80
2021-12-24 15:52:30.290240,94
2021-12-24 15:52:30.290249,103
2021-12-24 15:52:30.559330,105
2021-12-24 15:52:30.559361,110
2021-12-24 15:52:30.559372,110
2021-12-24 15:52:30.559382,110
2021-12-24 15:52:30.559392,105
2021-12-24 15:52:30.559402,71
2021-12-24 15:52:30.559411,27
2021-12-24 15:52:30.559421,13
2021-12-24 15:52:30.559431,16
2021-12-24 15:52:30.559441,13
2021-12-24 15:52:30.559451,13
2021-12-24 15:52:30.559461,20
2021-12-24 15:52:30.559470,25
2021-12-24 15:52:30.559480,4
2021-12-24 15:52:30.559490,-62
2021-12-24 15:52:30.559500,-121
2021-12-24 15:52:30.559510,-108
2021-12-24 15:52:30.559520,-82
2021-12-24 15:52:30.559530,-114
2021-12-24 15:52:30.559539,-137
2021-12-24 15:52:30.559549,-119
2021-12-24 15:52:30.559559,-108
2021-12-24 15:52:30.559570,-98
2021-12-24 15:52:30.559579,-78
2021-12-24 15:52:30.559589,-71
2021-12-24 15:52:30.559604,-82
2021-12-24 15:52:30.559614,-80
2021-12-24 15:52:30.559624,-66
2021-12-24 15:52:30.559634,-52
2021-12-24 15:52:30.559644,-45
2021-12-24 15:52:30.829343,-43
2021-12-24 15:52:30.829373,-43
2021-12-24 15:52:30.829385,-43
2021-12-24 15:52:30.829395,-43
2021-12-24 15:52:30.829405,-27
2021-12-24 15:52:30.829415,-11
2021-12-24 15:52:30.829425,-34
2021-12-24 15:52:30.829434,-57
2021-12-24 15:52:30.829444,-45
2021-12-24 15:52:30.829454,-34
2021-12-24 15:52:30.829464,-39
2021-12-24 15:52:30.829473,-52
2021-12-24 15:52:30.829483,-80
2021-12-24 15:52:30.829493,-82
2021-12-24 15:52:30.829503,-62
2021-12-24 15:52:30.829512,-62
2021-12-24 15:52:30.829522,-89
2021-12-24 15:52:30.829532,-119
2021-12-24 15:52:30.829541,-126
2021-12-24 15:52:30.829551,-112
2021-12-24 15:52:30.829561,-105
2021-12-24 15:52:30.829571,-108
2021-12-24 15:52:30.829580,-105
2021-12-24 15:52:30.829590,-94
2021-12-24 15:52:30.829600,-94
2021-12-24 15:52:30.829609,-105
2021-12-24 15:52:30.829619,-112
2021-12-24 15:52:30.829629,-101
2021-12-24 15:52:30.829639,-87
2021-12-24 15:52:30.829649,-87
2021-12-24 15:52:31.008561,-89
2021-12-24 15:52:31.008592,-80
2021-12-24 15:52:31.008603,-82
2021-12-24 15:52:31.008613,-96
2021-12-24 15:52:31.008623,-96
2021-12-24 15:52:31.008633,-110
2021-12-24 15:52:31.008642,-121
2021-12-24 15:52:31.008652,-98
2021-12-24 15:52:31.008662,-89
2021-12-24 15:52:31.008672,-124
2021-12-24 15:52:31.008682,-165
2021-12-24 15:52:31.008691,-186
2021-12-24 15:52:31.008701,-172
2021-12-24 15:52:31.008711,-142
2021-12-24 15:52:31.008721,-133
2021-12-24 15:52:31.008731,-137
2021-12-24 15:52:31.008747,-117
2021-12-24 15:52:31.008757,-98
2021-12-24 15:52:31.008767,-117
2021-12-24 15:52:31.008776,-124
2021-12-24 15:52:31.008786,-89
2021-12-24 15:52:31.008796,-68
2021-12-24 15:52:31.008806,-68
2021-12-24 15:52:31.008815,-62
2021-12-24 15:52:31.008825,-50
2021-12-24 15:52:31.008835,-34
2021-12-24 15:52:31.008845,-25
2021-12-24 15:52:31.008854,-29
2021-12-24 15:52:31.008864,-32
2021-12-24 15:52:31.008874,-18
2021-12-24 15:52:31.190018,6
2021-12-24 15:52:31.190049,27
2021-12-24 15:52:31.190060,16
2021-12-24 15:52:31.190070,2
2021-12-24 15:52:31.190080,-2
2021-12-24 15:52:31.190090,-20
2021-12-24 15:52:31.190099,-18
2021-12-24 15:52:31.190109,11
2021-12-24 15:52:31.190119,16
2021-12-24 15:52:31.190128,-6
2021-12-24 15:52:31.190138,-18
2021-12-24 15:52:31.190148,-18
2021-12-24 15:52:31.190157,-6
2021-12-24 15:52:31.190167,16
2021-12-24 15:52:31.190177,36
2021-12-24 15:52:31.190187,34
2021-12-24 15:52:31.190196,4
2021-12-24 15:52:31.190206,-4
2021-12-24 15:52:31.190216,29
2021-12-24 15:52:31.190225,39
2021-12-24 15:52:31.190235,2
2021-12-24 15:52:31.190244,-20
2021-12-24 15:52:31.190254,-16
2021-12-24 15:52:31.190264,-13
2021-12-24 15:52:31.190273,-20
2021-12-24 15:52:31.190283,-20
2021-12-24 15:52:31.190293,-11
2021-12-24 15:52:31.190302,-27
2021-12-24 15:52:31.190312,-66
2021-12-24 15:52:31.190322,-73
2021-12-24 15:52:31.415157,-48
2021-12-24 15:52:31.415186,-45
2021-12-24 15:52:31.415198,-87
2021-12-24 15:52:31.415208,-131
2021-12-24 15:52:31.415217,-147
2021-12-24 15:52:31.415227,-140
2021-12-24 15:52:31.415236,-103
2021-12-24 15:52:31.415246,-27
2021-12-24 15:52:31.415255,41
2021-12-24 15:52:31.415265,-2
2021-12-24 15:52:31.415274,-211
2021-12-24 15:52:31.415284,-379
2021-12-24 15:52:31.415294,-282
2021-12-24 15:52:31.415309,-133
2021-12-24 15:52:31.415319,-121
2021-12-24 15:52:31.415328,-135
2021-12-24 15:52:31.415338,-149
2021-12-24 15:52:31.415348,-165
2021-12-24 15:52:31.415358,-128
2021-12-24 15:52:31.415367,-89
2021-12-24 15:52:31.415377,-94
2021-12-24 15:52:31.415387,-108
2021-12-24 15:52:31.415396,-114
2021-12-24 15:52:31.415406,-110
2021-12-24 15:52:31.415416,-85
2021-12-24 15:52:31.415425,-57
2021-12-24 15:52:31.415435,-52
2021-12-24 15:52:31.415445,-62
2021-12-24 15:52:31.415454,-57
2021-12-24 15:52:31.415464,-29
2021-12-24 15:52:31.684977,-4
2021-12-24 15:52:31.685007,16
2021-12-24 15:52:31.685018,18
2021-12-24 15:52:31.685028,-9
2021-12-24 15:52:31.685038,-16
2021-12-24 15:52:31.685048,20
2021-12-24 15:52:31.685058,48
2021-12-24 15:52:31.685067,59
2021-12-24 15:52:31.685077,59
2021-12-24 15:52:31.685086,34
2021-12-24 15:52:31.685096,25
2021-12-24 15:52:31.685106,57
2021-12-24 15:52:31.685116,80
2021-12-24 15:52:31.685125,82
2021-12-24 15:52:31.685135,78
2021-12-24 15:52:31.685145,62
2021-12-24 15:52:31.685154,55
2021-12-24 15:52:31.685164,62
2021-12-24 15:52:31.685174,62
2021-12-24 15:52:31.685183,50
2021-12-24 15:52:31.685193,34
2021-12-24 15:52:31.685202,18
2021-12-24 15:52:31.685212,18
2021-12-24 15:52:31.685222,27
2021-12-24 15:52:31.685231,11
2021-12-24 15:52:31.685241,-4
2021-12-24 15:52:31.685251,-2
2021-12-24 15:52:31.685260,-6
2021-12-24 15:52:31.685270,-2
2021-12-24 15:52:31.685280,25
2021-12-24 15:52:31.910177,45
2021-12-24 15:52:31.910208,55
2021-12-24 15:52:31.910219,50
2021-12-24 15:52:31.910229,39
2021-12-24 15:52:31.910239,48
2021-12-24 15:52:31.910249,73
2021-12-24 15:52:31.910258,89
2021-12-24 15:52:31.910268,75
2021-12-24 15:52:31.910278,43
2021-12-24 15:52:31.910288,27
2021-12-24 15:52:31.910297,50
2021-12-24 15:52:31.910307,68
2021-12-24 15:52:31.910317,64
2021-12-24 15:52:31.910327,55
2021-12-24 15:52:31.910336,32
2021-12-24 15:52:31.910346,16
2021-12-24 15:52:31.910356,41
2021-12-24 15:52:31.910373,68
2021-12-24 15:52:31.910384,59
2021-12-24 15:52:31.910393,43
2021-12-24 15:52:31.910403,39
2021-12-24 15:52:31.910413,13
2021-12-24 15:52:31.910422,-20
2021-12-24 15:52:31.910432,-22
2021-12-24 15:52:31.910442,-16
2021-12-24 15:52:31.910452,-13
2021-12-24 15:52:31.910462,-25
2021-12-24 15:52:31.910472,-43
2021-12-24 15:52:31.910481,-55
2021-12-24 15:52:31.910491,-78
2021-12-24 15:52:32.135016,-98
2021-12-24 15:52:32.135037,-96
2021-12-24 15:52:32.135044,-108
2021-12-24 15:52:32.135051,-119
2021-12-24 15:52:32.135057,-96
2021-12-24 15:52:32.135063,-71
2021-12-24 15:52:32.135069,-68
2021-12-24 15:52:32.135075,-87
2021-12-24 15:52:32.135082,-110
2021-12-24 15:52:32.135088,-117
2021-12-24 15:52:32.135094,-103
2021-12-24 15:52:32.135100,-85
2021-12-24 15:52:32.135107,-66
2021-12-24 15:52:32.135113,-87
2021-12-24 15:52:32.135119,-126
2021-12-24 15:52:32.135125,-133
2021-12-24 15:52:32.135131,-89
2021-12-24 15:52:32.135138,-41
2021-12-24 15:52:32.135144,-22
2021-12-24 15:52:32.135150,-34
2021-12-24 15:52:32.135156,-29
2021-12-24 15:52:32.135163,29
2021-12-24 15:52:32.135169,114
2021-12-24 15:52:32.135175,124
2021-12-24 15:52:32.135181,-36
2021-12-24 15:52:32.135187,-223
2021-12-24 15:52:32.135194,-174
2021-12-24 15:52:32.135200,-25
2021-12-24 15:52:32.135206,-11
2021-12-24 15:52:32.135212,-25
2021-12-24 15:52:32.360102,18
2021-12-24 15:52:32.360132,27
2021-12-24 15:52:32.360143,18
2021-12-24 15:52:32.360153,34
2021-12-24 15:52:32.360163,45
2021-12-24 15:52:32.360173,50
2021-12-24 15:52:32.360182,43
2021-12-24 15:52:32.360192,22
2021-12-24 15:52:32.360202,22
2021-12-24 15:52:32.360211,41
2021-12-24 15:52:32.360221,55
2021-12-24 15:52:32.360231,64
2021-12-24 15:52:32.360241,62
2021-12-24 15:52:32.360251,48
2021-12-24 15:52:32.360261,59
2021-12-24 15:52:32.360271,80
2021-12-24 15:52:32.360280,82
2021-12-24 15:52:32.360290,94
2021-12-24 15:52:32.360300,101
2021-12-24 15:52:32.360310,105
2021-12-24 15:52:32.360319,142
2021-12-24 15:52:32.360329,174
2021-12-24 15:52:32.360339,181
2021-12-24 15:52:32.360349,193
2021-12-24 15:52:32.360358,213
2021-12-24 15:52:32.360368,220
2021-12-24 15:52:32.360378,206
2021-12-24 15:52:32.360387,163
2021-12-24 15:52:32.360397,124
2021-12-24 15:52:32.360412,126
2021-12-24 15:52:32.584371,117
2021-12-24 15:52:32.584390,82
2021-12-24 15:52:32.584398,68
2021-12-24 15:52:32.584405,57
2021-12-24 15:52:32.584411,45
2021-12-24 15:52:32.584417,27
2021-12-24 15:52:32.584424,-16
2021-12-24 15:52:32.584430,-11
2021-12-24 15:52:32.584437,39
2021-12-24 15:52:32.584443,41
2021-12-24 15:52:32.584449,34
2021-12-24 15:52:32.584456,45
2021-12-24 15:52:32.584462,34
2021-12-24 15:52:32.584468,25
2021-12-24 15:52:32.584474,41
2021-12-24 15:52:32.584481,48
2021-12-24 15:52:32.584487,59
2021-12-24 15:52:32.584493,78
2021-12-24 15:52:32.584500,73
2021-12-24 15:52:32.584506,68
2021-12-24 15:52:32.584513,87
2021-12-24 15:52:32.584519,91
2021-12-24 15:52:32.584525,94
2021-12-24 15:52:32.584532,112
2021-12-24 15:52:32.584538,126
2021-12-24 15:52:32.584544,140
2021-12-24 15:52:32.584551,137
2021-12-24 15:52:32.584557,121
2021-12-24 15:52:32.584563,126
2021-12-24 15:52:32.584570,131
2021-12-24 15:52:32.854998,128
2021-12-24 15:52:32.855028,140
2021-12-24 15:52:32.855040,114
2021-12-24 15:52:32.855050,45
2021-12-24 15:52:32.855060,22
2021-12-24 15:52:32.855070,32
2021-12-24 15:52:32.855080,27
2021-12-24 15:52:32.855089,43
2021-12-24 15:52:32.855099,66
2021-12-24 15:52:32.855109,62
2021-12-24 15:52:32.855118,59
2021-12-24 15:52:32.855128,68
2021-12-24 15:52:32.855138,68
2021-12-24 15:52:32.855147,66
2021-12-24 15:52:32.855157,45
2021-12-24 15:52:32.855167,16
2021-12-24 15:52:32.855176,9
2021-12-24 15:52:32.855186,16
2021-12-24 15:52:32.855196,22
2021-12-24 15:52:32.855206,20
2021-12-24 15:52:32.855215,2
2021-12-24 15:52:32.855225,-13
2021-12-24 15:52:32.855235,-18
2021-12-24 15:52:32.855245,-34
2021-12-24 15:52:32.855254,-25
2021-12-24 15:52:32.855264,55
2021-12-24 15:52:32.855274,149
2021-12-24 15:52:32.855283,147
2021-12-24 15:52:32.855293,-11
2021-12-24 15:52:32.855303,-229
2021-12-24 15:52:33.078678,-220
2021-12-24 15:52:33.078709,-32
2021-12-24 15:52:33.078720,-4
2021-12-24 15:52:33.078731,-66
2021-12-24 15:52:33.078741,-34
2021-12-24 15:52:33.078751,-22
2021-12-24 15:52:33.078761,-41
2021-12-24 15:52:33.078771,-4
2021-12-24 15:52:33.078781,11
2021-12-24 15:52:33.078791,-25
2021-12-24 15:52:33.078801,-41
2021-12-24 15:52:33.078811,-25
2021-12-24 15:52:33.078820,-9
2021-12-24 15:52:33.078831,4
2021-12-24 15:52:33.078841,20
2021-12-24 15:52:33.078850,16
2021-12-24 15:52:33.078860,-6
2021-12-24 15:52:33.078870,-16
2021-12-24 15:52:33.078881,11
2021-12-24 15:52:33.078891,59
2021-12-24 15:52:33.078905,75
2021-12-24 15:52:33.078915,50
2021-12-24 15:52:33.078925,50
2021-12-24 15:52:33.078934,78
2021-12-24 15:52:33.078944,87
2021-12-24 15:52:33.078954,103
2021-12-24 15:52:33.078964,133
2021-12-24 15:52:33.078973,133
2021-12-24 15:52:33.078983,131
2021-12-24 15:52:33.078993,181
2021-12-24 15:52:33.305008,218
2021-12-24 15:52:33.305038,197
2021-12-24 15:52:33.305049,144
2021-12-24 15:52:33.305059,80
2021-12-24 15:52:33.305069,41
2021-12-24 15:52:33.305079,20
2021-12-24 15:52:33.305088,-9
2021-12-24 15:52:33.305098,-32
2021-12-24 15:52:33.305108,-32
2021-12-24 15:52:33.305118,-43
2021-12-24 15:52:33.305127,-89
2021-12-24 15:52:33.305137,-103
2021-12-24 15:52:33.305147,-87
2021-12-24 15:52:33.305157,-78
2021-12-24 15:52:33.305166,-48
2021-12-24 15:52:33.305176,-27
2021-12-24 15:52:33.305186,-48
2021-12-24 15:52:33.305196,-52
2021-12-24 15:52:33.305205,-22
2021-12-24 15:52:33.305215,-2
2021-12-24 15:52:33.305225,-13
2021-12-24 15:52:33.305234,-27
2021-12-24 15:52:33.305244,-20
2021-12-24 15:52:33.305254,0
2021-12-24 15:52:33.305264,11
2021-12-24 15:52:33.305273,22
2021-12-24 15:52:33.305283,29
2021-12-24 15:52:33.305293,6
2021-12-24 15:52:33.305302,-2
2021-12-24 15:52:33.305312,16
2021-12-24 15:52:33.574485,32
2021-12-24 15:52:33.574508,64
2021-12-24 15:52:33.574515,71
2021-12-24 15:52:33.574522,6
2021-12-24 15:52:33.574528,-29
2021-12-24 15:52:33.574535,11
2021-12-24 15:52:33.574541,29
2021-12-24 15:52:33.574547,-13
2021-12-24 15:52:33.574554,-71
2021-12-24 15:52:33.574560,-94
2021-12-24 15:52:33.574567,-68
2021-12-24 15:52:33.574573,-29
2021-12-24 15:52:33.574579,-9
2021-12-24 15:52:33.574586,-2
2021-12-24 15:52:33.574592,-27
2021-12-24 15:52:33.574599,-68
2021-12-24 15:52:33.574605,-73
2021-12-24 15:52:33.574612,-29
2021-12-24 15:52:33.574618,4
2021-12-24 15:52:33.574624,11
2021-12-24 15:52:33.574631,-2
2021-12-24 15:52:33.574637,-20
2021-12-24 15:52:33.574644,-6
2021-12-24 15:52:33.574650,34
2021-12-24 15:52:33.574656,57
2021-12-24 15:52:33.574663,52
2021-12-24 15:52:33.574669,45
2021-12-24 15:52:33.574676,114
2021-12-24 15:52:33.574682,232
2021-12-24 15:52:33.574688,202
2021-12-24 15:52:33.799948,-2
2021-12-24 15:52:33.799977,-135
2021-12-24 15:52:33.799988,-66
2021-12-24 15:52:33.799998,25
2021-12-24 15:52:33.800008,39
2021-12-24 15:52:33.800018,55
2021-12-24 15:52:33.800027,73
2021-12-24 15:52:33.800037,52
2021-12-24 15:52:33.800046,0
2021-12-24 15:52:33.800056,-52
2021-12-24 15:52:33.800066,-85
2021-12-24 15:52:33.800076,-85
2021-12-24 15:52:33.800085,-59
2021-12-24 15:52:33.800095,-45
2021-12-24 15:52:33.800104,-59
2021-12-24 15:52:33.800114,-59
2021-12-24 15:52:33.800123,-39
2021-12-24 15:52:33.800133,-22
2021-12-24 15:52:33.800142,-16
2021-12-24 15:52:33.800152,-27
2021-12-24 15:52:33.800162,-50
2021-12-24 15:52:33.800171,-29
2021-12-24 15:52:33.800186,22
2021-12-24 15:52:33.800196,32
2021-12-24 15:52:33.800206,16
2021-12-24 15:52:33.800215,34
2021-12-24 15:52:33.800225,50
2021-12-24 15:52:33.800234,50
2021-12-24 15:52:33.800244,68
2021-12-24 15:52:33.800254,108
2021-12-24 15:52:34.024974,126
2021-12-24 15:52:34.025004,137
2021-12-24 15:52:34.025017,137
2021-12-24 15:52:34.025027,105
2021-12-24 15:52:34.025037,82
2021-12-24 15:52:34.025047,94
2021-12-24 15:52:34.025057,71
2021-12-24 15:52:34.025067,6
2021-12-24 15:52:34.025076,-41
2021-12-24 15:52:34.025086,-25
2021-12-24 15:52:34.025096,16
2021-12-24 15:52:34.025106,11
2021-12-24 15:52:34.025115,-27
2021-12-24 15:52:34.025125,-82
2021-12-24 15:52:34.025135,-133
2021-12-24 15:52:34.025145,-135
2021-12-24 15:52:34.025155,-101
2021-12-24 15:52:34.025164,-87
2021-12-24 15:52:34.025174,-98
2021-12-24 15:52:34.025184,-89
2021-12-24 15:52:34.025194,-55
2021-12-24 15:52:34.025203,-43
2021-12-24 15:52:34.025213,-48
2021-12-24 15:52:34.025223,-29
2021-12-24 15:52:34.025233,-39
2021-12-24 15:52:34.025243,-43
2021-12-24 15:52:34.025253,18
2021-12-24 15:52:34.025263,48
2021-12-24 15:52:34.025272,27
2021-12-24 15:52:34.025282,45
2021-12-24 15:52:34.204963,71
2021-12-24 15:52:34.204993,52
2021-12-24 15:52:34.205005,39
2021-12-24 15:52:34.205015,48
2021-12-24 15:52:34.205024,55
2021-12-24 15:52:34.205034,71
2021-12-24 15:52:34.205044,94
2021-12-24 15:52:34.205053,82
2021-12-24 15:52:34.205063,87
2021-12-24 15:52:34.205073,110
2021-12-24 15:52:34.205082,119
2021-12-24 15:52:34.205092,117
2021-12-24 15:52:34.205102,103
2021-12-24 15:52:34.205111,73
2021-12-24 15:52:34.205121,39
2021-12-24 15:52:34.205131,20
2021-12-24 15:52:34.205140,29
2021-12-24 15:52:34.205150,50
2021-12-24 15:52:34.205160,64
2021-12-24 15:52:34.205169,59
2021-12-24 15:52:34.205179,41
2021-12-24 15:52:34.205189,36
2021-12-24 15:52:34.205198,62
2021-12-24 15:52:34.205208,73
2021-12-24 15:52:34.205218,52
2021-12-24 15:52:34.205228,55
2021-12-24 15:52:34.205237,64
2021-12-24 15:52:34.205247,41
2021-12-24 15:52:34.205257,80
2021-12-24 15:52:34.205266,163
2021-12-24 15:52:34.474332,137
2021-12-24 15:52:34.474361,66
2021-12-24 15:52:34.474373,64
2021-12-24 15:52:34.474383,64
2021-12-24 15:52:34.474393,27
2021-12-24 15:52:34.474402,9
2021-12-24 15:52:34.474412,-4
2021-12-24 15:52:34.474421,-27
2021-12-24 15:52:34.474431,-27
2021-12-24 15:52:34.474441,-41
2021-12-24 15:52:34.474451,-66
2021-12-24 15:52:34.474460,-71
2021-12-24 15:52:34.474470,-80
2021-12-24 15:52:34.474480,-78
2021-12-24 15:52:34.474489,-29
2021-12-24 15:52:34.474499,39
2021-12-24 15:52:34.474508,45
2021-12-24 15:52:34.474518,-117
2021-12-24 15:52:34.474528,-324
2021-12-24 15:52:34.474538,-317
2021-12-24 15:52:34.474547,-206
2021-12-24 15:52:34.474557,-188
2021-12-24 15:52:34.474567,-179
2021-12-24 15:52:34.474576,-140
2021-12-24 15:52:34.474586,-124
2021-12-24 15:52:34.474596,-98
2021-12-24 15:52:34.474605,-78
2021-12-24 15:52:34.474615,-91
2021-12-24 15:52:34.474624,-71
2021-12-24 15:52:34.474634,-22
2021-12-24 15:52:34.654943,-16
2021-12-24 15:52:34.654965,-18
2021-12-24 15:52:34.654972,-22
2021-12-24 15:52:34.654979,-18
2021-12-24 15:52:34.654985,-2
2021-12-24 15:52:34.654995,-11
2021-12-24 15:52:34.655002,-27
2021-12-24 15:52:34.655008,9
2021-12-24 15:52:34.655014,55
2021-12-24 15:52:34.655020,52
2021-12-24 15:52:34.655027,43
2021-12-24 15:52:34.655033,50
2021-12-24 15:52:34.655039,50
2021-12-24 15:52:34.655045,64
2021-12-24 15:52:34.655052,85
2021-12-24 15:52:34.655058,96
2021-12-24 15:52:34.655064,98
2021-12-24 15:52:34.655071,96
2021-12-24 15:52:34.655077,91
2021-12-24 15:52:34.655083,96
2021-12-24 15:52:34.655089,101
2021-12-24 15:52:34.655096,87
2021-12-24 15:52:34.655102,62
2021-12-24 15:52:34.655108,62
2021-12-24 15:52:34.655114,75
2021-12-24 15:52:34.655120,64
2021-12-24 15:52:34.655127,50
2021-12-24 15:52:34.655133,52
2021-12-24 15:52:34.655139,36
2021-12-24 15:52:34.655145,32
2021-12-24 15:52:34.880174,62
2021-12-24 15:52:34.880204,73
2021-12-24 15:52:34.880215,52
2021-12-24 15:52:34.880225,55
2021-12-24 15:52:34.880235,66
2021-12-24 15:52:34.880245,55
2021-12-24 15:52:34.880255,62
2021-12-24 15:52:34.880264,91
2021-12-24 15:52:34.880274,96
2021-12-24 15:52:34.880283,91
2021-12-24 15:52:34.880293,73
2021-12-24 15:52:34.880303,41
2021-12-24 15:52:34.880312,62
2021-12-24 15:52:34.880322,108
2021-12-24 15:52:34.880332,101
2021-12-24 15:52:34.880341,98
2021-12-24 15:52:34.880351,112
2021-12-24 15:52:34.880360,105
2021-12-24 15:52:34.880370,103
2021-12-24 15:52:34.880380,121
2021-12-24 15:52:34.880389,110
2021-12-24 15:52:34.880399,64
2021-12-24 15:52:34.880409,52
2021-12-24 15:52:34.880418,78
2021-12-24 15:52:34.880428,71
2021-12-24 15:52:34.880438,29
2021-12-24 15:52:34.880447,9
2021-12-24 15:52:34.880457,20
2021-12-24 15:52:34.880467,22
2021-12-24 15:52:34.880476,29
2021-12-24 15:52:35.148653,66
2021-12-24 15:52:35.148683,101
2021-12-24 15:52:35.148695,96
2021-12-24 15:52:35.148705,48
2021-12-24 15:52:35.148715,2
2021-12-24 15:52:35.148725,16
2021-12-24 15:52:35.148735,48
2021-12-24 15:52:35.148744,52
2021-12-24 15:52:35.148754,43
2021-12-24 15:52:35.148764,22
2021-12-24 15:52:35.148773,-2
2021-12-24 15:52:35.148783,20
2021-12-24 15:52:35.148793,71
2021-12-24 15:52:35.148802,94
2021-12-24 15:52:35.148812,87
2021-12-24 15:52:35.148822,103
2021-12-24 15:52:35.148832,170
2021-12-24 15:52:35.148841,234
2021-12-24 15:52:35.148851,160
2021-12-24 15:52:35.148861,-73
2021-12-24 15:52:35.148871,-179
2021-12-24 15:52:35.148880,-16
2021-12-24 15:52:35.148890,98
2021-12-24 15:52:35.148900,55
2021-12-24 15:52:35.148909,62
2021-12-24 15:52:35.148919,98
2021-12-24 15:52:35.148929,75
2021-12-24 15:52:35.148939,50
2021-12-24 15:52:35.148948,64
2021-12-24 15:52:35.148958,71
2021-12-24 15:52:35.374677,55
2021-12-24 15:52:35.374699,50
2021-12-24 15:52:35.374706,29
2021-12-24 15:52:35.374713,-29
2021-12-24 15:52:35.374719,-48
2021-12-24 15:52:35.374726,-9
2021-12-24 15:52:35.374732,0
2021-12-24 15:52:35.374738,-6
2021-12-24 15:52:35.374745,-4
2021-12-24 15:52:35.374751,-16
2021-12-24 15:52:35.374757,-11
2021-12-24 15:52:35.374764,16
2021-12-24 15:52:35.374770,32
2021-12-24 15:52:35.374776,48
2021-12-24 15:52:35.374782,62
2021-12-24 15:52:35.374788,59
2021-12-24 15:52:35.374795,66
2021-12-24 15:52:35.374801,87
2021-12-24 15:52:35.374807,101
2021-12-24 15:52:35.374813,124
2021-12-24 15:52:35.374820,135
2021-12-24 15:52:35.374826,105
2021-12-24 15:52:35.374832,71
2021-12-24 15:52:35.374839,62
2021-12-24 15:52:35.374845,55
2021-12-24 15:52:35.374851,20
2021-12-24 15:52:35.374858,-27
2021-12-24 15:52:35.374864,-55
2021-12-24 15:52:35.374870,-55
2021-12-24 15:52:35.374877,-59
2021-12-24 15:52:35.599990,-94
2021-12-24 15:52:35.600029,-121
2021-12-24 15:52:35.600041,-119
2021-12-24 15:52:35.600052,-124
2021-12-24 15:52:35.600061,-121
2021-12-24 15:52:35.600071,-78
2021-12-24 15:52:35.600081,-48
2021-12-24 15:52:35.600090,-57
2021-12-24 15:52:35.600100,-85
2021-12-24 15:52:35.600110,-98
2021-12-24 15:52:35.600120,-85
2021-12-24 15:52:35.600129,-66
2021-12-24 15:52:35.600139,-52
2021-12-24 15:52:35.600149,-41
2021-12-24 15:52:35.600159,-59
2021-12-24 15:52:35.600168,-78
2021-12-24 15:52:35.600178,-52
2021-12-24 15:52:35.600188,-27
2021-12-24 15:52:35.600198,-25
2021-12-24 15:52:35.600207,-25
2021-12-24 15:52:35.600217,-27
2021-12-24 15:52:35.600227,-34
2021-12-24 15:52:35.600237,-22
2021-12-24 15:52:35.600247,2
2021-12-24 15:52:35.600256,18
2021-12-24 15:52:35.600266,20
2021-12-24 15:52:35.600276,6
2021-12-24 15:52:35.600286,-25
2021-12-24 15:52:35.600295,-27
2021-12-24 15:52:35.600305,4
2021-12-24 15:52:35.824486,22
2021-12-24 15:52:35.824506,9
2021-12-24 15:52:35.824514,-4
2021-12-24 15:52:35.824521,2
2021-12-24 15:52:35.824527,16
2021-12-24 15:52:35.824534,27
2021-12-24 15:52:35.824540,36
2021-12-24 15:52:35.824546,22
2021-12-24 15:52:35.824553,0
2021-12-24 15:52:35.824559,18
2021-12-24 15:52:35.824566,50
2021-12-24 15:52:35.824572,55
2021-12-24 15:52:35.824578,43
2021-12-24 15:52:35.824585,20
2021-12-24 15:52:35.824591,2
2021-12-24 15:52:35.824598,9
2021-12-24 15:52:35.824604,18
2021-12-24 15:52:35.824610,25
2021-12-24 15:52:35.824617,34
2021-12-24 15:52:35.824623,27
2021-12-24 15:52:35.824629,22
2021-12-24 15:52:35.824636,29
2021-12-24 15:52:35.824642,43
2021-12-24 15:52:35.824648,78
2021-12-24 15:52:35.824655,154
2021-12-24 15:52:35.824661,241
2021-12-24 15:52:35.824667,250
2021-12-24 15:52:35.824674,103
2021-12-24 15:52:35.824680,-110
2021-12-24 15:52:35.824686,-137
2021-12-24 15:52:36.095007,-2
2021-12-24 15:52:36.095039,52
2021-12-24 15:52:36.095051,45
2021-12-24 15:52:36.095060,78
2021-12-24 15:52:36.095070,94
2021-12-24 15:52:36.095080,80
2021-12-24 15:52:36.095089,27
2021-12-24 15:52:36.095099,-22
2021-12-24 15:52:36.095109,-6
2021-12-24 15:52:36.095118,20
2021-12-24 15:52:36.095128,22
2021-12-24 15:52:36.095138,32
2021-12-24 15:52:36.095148,25
2021-12-24 15:52:36.095157,2
2021-12-24 15:52:36.095167,11
2021-12-24 15:52:36.095177,27
2021-12-24 15:52:36.095186,36
2021-12-24 15:52:36.095196,57
2021-12-24 15:52:36.095205,66
2021-12-24 15:52:36.095215,64
2021-12-24 15:52:36.095224,82
2021-12-24 15:52:36.095234,103
2021-12-24 15:52:36.095244,108
2021-12-24 15:52:36.095253,114
2021-12-24 15:52:36.095263,121
2021-12-24 15:52:36.095272,128
2021-12-24 15:52:36.095282,135
2021-12-24 15:52:36.095292,140
2021-12-24 15:52:36.095301,154
2021-12-24 15:52:36.095311,177
2021-12-24 15:52:36.320117,186
2021-12-24 15:52:36.320147,163
2021-12-24 15:52:36.320158,114
2021-12-24 15:52:36.320168,73
2021-12-24 15:52:36.320178,71
2021-12-24 15:52:36.320188,64
2021-12-24 15:52:36.320198,18
2021-12-24 15:52:36.320208,-11
2021-12-24 15:52:36.320218,6
2021-12-24 15:52:36.320227,11
2021-12-24 15:52:36.320237,2
2021-12-24 15:52:36.320247,2
2021-12-24 15:52:36.320257,-4
2021-12-24 15:52:36.320266,-2
2021-12-24 15:52:36.320276,16
2021-12-24 15:52:36.320286,25
2021-12-24 15:52:36.320296,29
2021-12-24 15:52:36.320305,27
2021-12-24 15:52:36.320315,11
2021-12-24 15:52:36.320325,25
2021-12-24 15:52:36.320335,48
2021-12-24 15:52:36.320345,48
2021-12-24 15:52:36.320354,64
2021-12-24 15:52:36.320364,80
2021-12-24 15:52:36.320374,62
2021-12-24 15:52:36.320383,55
2021-12-24 15:52:36.320393,73
2021-12-24 15:52:36.320403,75
2021-12-24 15:52:36.320412,68
2021-12-24 15:52:36.320422,75
2021-12-24 15:52:36.589967,75
2021-12-24 15:52:36.589997,80
2021-12-24 15:52:36.590008,82
2021-12-24 15:52:36.590018,59
2021-12-24 15:52:36.590028,41
2021-12-24 15:52:36.590038,29
2021-12-24 15:52:36.590048,16
2021-12-24 15:52:36.590057,32
2021-12-24 15:52:36.590067,50
2021-12-24 15:52:36.590077,41
2021-12-24 15:52:36.590087,43
2021-12-24 15:52:36.590106,43
2021-12-24 15:52:36.590116,9
2021-12-24 15:52:36.590126,2
2021-12-24 15:52:36.590136,27
2021-12-24 15:52:36.590146,34
2021-12-24 15:52:36.590155,22
2021-12-24 15:52:36.590165,6
2021-12-24 15:52:36.590175,-11
2021-12-24 15:52:36.590185,-6
2021-12-24 15:52:36.590194,-2
2021-12-24 15:52:36.590204,-16
2021-12-24 15:52:36.590214,-20
2021-12-24 15:52:36.590224,-22
2021-12-24 15:52:36.590234,-34
2021-12-24 15:52:36.590243,-45
2021-12-24 15:52:36.590253,-66
2021-12-24 15:52:36.590263,-78
2021-12-24 15:52:36.590273,-71
2021-12-24 15:52:36.590282,-68
2021-12-24 15:52:36.724993,-64
2021-12-24 15:52:36.725023,-55
2021-12-24 15:52:36.725035,-48
2021-12-24 15:52:36.725045,-36
2021-12-24 15:52:36.725055,-32
2021-12-24 15:52:36.725065,-55
2021-12-24 15:52:36.725074,-64
2021-12-24 15:52:36.725084,-45
2021-12-24 15:52:36.725094,-41
2021-12-24 15:52:36.725104,-55
2021-12-24 15:52:36.725114,-50
2021-12-24 15:52:36.725124,-32
2021-12-24 15:52:36.725133,-20
2021-12-24 15:52:36.725143,-11
2021-12-24 15:52:36.725153,-2
2021-12-24 15:52:36.725163,-2
2021-12-24 15:52:36.725173,-29
2021-12-24 15:52:36.725182,-43
2021-12-24 15:52:36.725192,-4
2021-12-24 15:52:36.725202,78
2021-12-24 15:52:36.725212,156
2021-12-24 15:52:36.725222,133
2021-12-24 15:52:36.725231,-73
2021-12-24 15:52:36.725241,-271
2021-12-24 15:52:36.725251,-190
2021-12-24 15:52:36.725261,-22
2021-12-24 15:52:36.725271,0
2021-12-24 15:52:36.725281,-6
2021-12-24 15:52:36.725291,27
2021-12-24 15:52:36.725300,34
2021-12-24 15:52:36.994791,34
2021-12-24 15:52:36.994820,55
2021-12-24 15:52:36.994832,68
2021-12-24 15:52:36.994842,48
2021-12-24 15:52:36.994852,18
2021-12-24 15:52:36.994862,25
2021-12-24 15:52:36.994871,48
2021-12-24 15:52:36.994881,32
2021-12-24 15:52:36.994891,4
2021-12-24 15:52:36.994901,-11
2021-12-24 15:52:36.994910,-18
2021-12-24 15:52:36.994920,0
2021-12-24 15:52:36.994930,27
2021-12-24 15:52:36.994940,48
2021-12-24 15:52:36.994960,66
2021-12-24 15:52:36.994970,71
2021-12-24 15:52:36.994980,59
2021-12-24 15:52:36.994989,52
2021-12-24 15:52:36.994999,43
2021-12-24 15:52:36.995014,43
2021-12-24 15:52:36.995024,64
2021-12-24 15:52:36.995033,62
2021-12-24 15:52:36.995043,57
2021-12-24 15:52:36.995053,89
2021-12-24 15:52:36.995063,108
2021-12-24 15:52:36.995073,108
2021-12-24 15:52:36.995082,110
2021-12-24 15:52:36.995092,98
2021-12-24 15:52:36.995102,71
2021-12-24 15:52:36.995111,52
2021-12-24 15:52:37.309035,41
2021-12-24 15:52:37.309056,36
2021-12-24 15:52:37.309064,29
2021-12-24 15:52:37.309070,-11
2021-12-24 15:52:37.309077,-39
2021-12-24 15:52:37.309083,-11
2021-12-24 15:52:37.309090,13
2021-12-24 15:52:37.309096,9
2021-12-24 15:52:37.309103,9
2021-12-24 15:52:37.309109,2
2021-12-24 15:52:37.309115,-4
2021-12-24 15:52:37.309122,11
2021-12-24 15:52:37.309128,27
2021-12-24 15:52:37.309134,39
2021-12-24 15:52:37.309141,34
2021-12-24 15:52:37.309147,9
2021-12-24 15:52:37.309153,9
2021-12-24 15:52:37.309160,29
2021-12-24 15:52:37.309166,36
2021-12-24 15:52:37.309172,43
2021-12-24 15:52:37.309179,41
2021-12-24 15:52:37.309185,32
2021-12-24 15:52:37.309191,41
2021-12-24 15:52:37.309198,62
2021-12-24 15:52:37.309204,68
2021-12-24 15:52:37.309210,68
2021-12-24 15:52:37.309217,59
2021-12-24 15:52:37.309223,45
2021-12-24 15:52:37.309229,52
2021-12-24 15:52:37.309236,64
2021-12-24 15:52:37.534981,68
2021-12-24 15:52:37.535011,73
2021-12-24 15:52:37.535023,57
2021-12-24 15:52:37.535033,29
2021-12-24 15:52:37.535043,34
2021-12-24 15:52:37.535052,48
2021-12-24 15:52:37.535062,34
2021-12-24 15:52:37.535072,-2
2021-12-24 15:52:37.535082,-64
2021-12-24 15:52:37.535091,-110
2021-12-24 15:52:37.535101,-121
2021-12-24 15:52:37.535111,-147
2021-12-24 15:52:37.535120,-163
2021-12-24 15:52:37.535130,-158
2021-12-24 15:52:37.535140,-183
2021-12-24 15:52:37.535150,-211
2021-12-24 15:52:37.535159,-200
2021-12-24 15:52:37.535169,-186
2021-12-24 15:52:37.535179,-160
2021-12-24 15:52:37.535188,-73
2021-12-24 15:52:37.535198,0
2021-12-24 15:52:37.535208,-52
2021-12-24 15:52:37.535217,-255
2021-12-24 15:52:37.535227,-420
2021-12-24 15:52:37.535237,-363
2021-12-24 15:52:37.535247,-243
2021-12-24 15:52:37.535256,-236
2021-12-24 15:52:37.535266,-234
2021-12-24 15:52:37.535276,-188
2021-12-24 15:52:37.535286,-167
2021-12-24 15:52:37.714280,-158
2021-12-24 15:52:37.714299,-144
2021-12-24 15:52:37.714307,-147
2021-12-24 15:52:37.714313,-156
2021-12-24 15:52:37.714320,-147
2021-12-24 15:52:37.714326,-124
2021-12-24 15:52:37.714332,-103
2021-12-24 15:52:37.714339,-91
2021-12-24 15:52:37.714352,-85
2021-12-24 15:52:37.714359,-73
2021-12-24 15:52:37.714365,-57
2021-12-24 15:52:37.714371,-36
2021-12-24 15:52:37.714378,-27
2021-12-24 15:52:37.714384,-39
2021-12-24 15:52:37.714391,-41
2021-12-24 15:52:37.714397,-20
2021-12-24 15:52:37.714403,0
2021-12-24 15:52:37.714410,18
2021-12-24 15:52:37.714416,25
2021-12-24 15:52:37.714422,13
2021-12-24 15:52:37.714429,6
2021-12-24 15:52:37.714435,27
2021-12-24 15:52:37.714441,48
2021-12-24 15:52:37.714448,57
2021-12-24 15:52:37.714454,66
2021-12-24 15:52:37.714461,43
2021-12-24 15:52:37.714467,4
2021-12-24 15:52:37.714473,-13
2021-12-24 15:52:37.714480,-18
2021-12-24 15:52:37.714486,-20
2021-12-24 15:52:37.894970,-22
2021-12-24 15:52:37.895000,-34
2021-12-24 15:52:37.895011,-43
2021-12-24 15:52:37.895021,-48
2021-12-24 15:52:37.895030,-36
2021-12-24 15:52:37.895040,-16
2021-12-24 15:52:37.895049,-22
2021-12-24 15:52:37.895058,-45
2021-12-24 15:52:37.895068,-48
2021-12-24 15:52:37.895077,-36
2021-12-24 15:52:37.895087,-20
2021-12-24 15:52:37.895096,0
2021-12-24 15:52:37.895106,0
2021-12-24 15:52:37.895115,-4
2021-12-24 15:52:37.895125,4
2021-12-24 15:52:37.895134,2
2021-12-24 15:52:37.895144,-9
2021-12-24 15:52:37.895153,-6
2021-12-24 15:52:37.895163,-20
2021-12-24 15:52:37.895172,-41
2021-12-24 15:52:37.895181,-32
2021-12-24 15:52:37.895191,-9
2021-12-24 15:52:37.895200,-2
2021-12-24 15:52:37.895210,6
2021-12-24 15:52:37.895219,6
2021-12-24 15:52:37.895229,11
2021-12-24 15:52:37.895238,27
2021-12-24 15:52:37.895248,32
2021-12-24 15:52:37.895257,34
2021-12-24 15:52:37.895267,39
2021-12-24 15:52:38.120027,6
2021-12-24 15:52:38.120048,-25
2021-12-24 15:52:38.120056,-4
2021-12-24 15:52:38.120062,13
2021-12-24 15:52:38.120069,4
2021-12-24 15:52:38.120075,-9
2021-12-24 15:52:38.120081,-41
2021-12-24 15:52:38.120088,-68
2021-12-24 15:52:38.120094,-50
2021-12-24 15:52:38.120100,-34
2021-12-24 15:52:38.120106,-36
2021-12-24 15:52:38.120113,-59
2021-12-24 15:52:38.120119,-101
2021-12-24 15:52:38.120125,-114
2021-12-24 15:52:38.120132,-117
2021-12-24 15:52:38.120138,-135
2021-12-24 15:52:38.120144,-133
2021-12-24 15:52:38.120151,-144
2021-12-24 15:52:38.120157,-172
2021-12-24 15:52:38.120163,-156
2021-12-24 15:52:38.120170,-133
2021-12-24 15:52:38.120176,-142
2021-12-24 15:52:38.120182,-140
2021-12-24 15:52:38.120189,-119
2021-12-24 15:52:38.120195,-110
2021-12-24 15:52:38.120201,-94
2021-12-24 15:52:38.120208,-64
2021-12-24 15:52:38.120214,-57
2021-12-24 15:52:38.120220,-64
2021-12-24 15:52:38.120227,-59
2021-12-24 15:52:38.389995,-52
2021-12-24 15:52:38.390026,-45
2021-12-24 15:52:38.390037,-36
2021-12-24 15:52:38.390047,-32
2021-12-24 15:52:38.390057,-34
2021-12-24 15:52:38.390067,-48
2021-12-24 15:52:38.390076,-55
2021-12-24 15:52:38.390086,-32
2021-12-24 15:52:38.390095,-9
2021-12-24 15:52:38.390105,-4
2021-12-24 15:52:38.390114,20
2021-12-24 15:52:38.390124,82
2021-12-24 15:52:38.390134,135
2021-12-24 15:52:38.390143,80
2021-12-24 15:52:38.390153,-112
2021-12-24 15:52:38.390163,-227
2021-12-24 15:52:38.390172,-121
2021-12-24 15:52:38.390182,-18
2021-12-24 15:52:38.390191,-25
2021-12-24 15:52:38.390201,-22
2021-12-24 15:52:38.390210,-9
2021-12-24 15:52:38.390220,-16
2021-12-24 15:52:38.390229,-20
2021-12-24 15:52:38.390239,-13
2021-12-24 15:52:38.390249,0
2021-12-24 15:52:38.390258,11
2021-12-24 15:52:38.390268,22
2021-12-24 15:52:38.390277,29
2021-12-24 15:52:38.390287,36
2021-12-24 15:52:38.390297,36
2021-12-24 15:52:38.570243,45
2021-12-24 15:52:38.570264,64
2021-12-24 15:52:38.570272,71
2021-12-24 15:52:38.570279,71
2021-12-24 15:52:38.570285,73
2021-12-24 15:52:38.570292,55
2021-12-24 15:52:38.570298,27
2021-12-24 15:52:38.570305,41
2021-12-24 15:52:38.570311,71
2021-12-24 15:52:38.570318,68
2021-12-24 15:52:38.570324,48
2021-12-24 15:52:38.570331,50
2021-12-24 15:52:38.570337,73
2021-12-24 15:52:38.570344,91
2021-12-24 15:52:38.570350,103
2021-12-24 15:52:38.570357,101
2021-12-24 15:52:38.570363,78
2021-12-24 15:52:38.570370,59
2021-12-24 15:52:38.570376,68
2021-12-24 15:52:38.570382,71
2021-12-24 15:52:38.570389,45
2021-12-24 15:52:38.570395,-4
2021-12-24 15:52:38.570402,-50
2021-12-24 15:52:38.570408,-55
2021-12-24 15:52:38.570415,-41
2021-12-24 15:52:38.570421,-39
2021-12-24 15:52:38.570428,-36
2021-12-24 15:52:38.570434,-36
2021-12-24 15:52:38.570441,-34
2021-12-24 15:52:38.570447,-22
2021-12-24 15:52:38.839928,-6
2021-12-24 15:52:38.839958,2
2021-12-24 15:52:38.839970,6
2021-12-24 15:52:38.839980,-13
2021-12-24 15:52:38.839990,-41
2021-12-24 15:52:38.840000,-29
2021-12-24 15:52:38.840010,-2
2021-12-24 15:52:38.840020,0
2021-12-24 15:52:38.840029,-20
2021-12-24 15:52:38.840039,-50
2021-12-24 15:52:38.840049,-78
2021-12-24 15:52:38.840059,-68
2021-12-24 15:52:38.840068,-55
2021-12-24 15:52:38.840078,-73
2021-12-24 15:52:38.840088,-98
2021-12-24 15:52:38.840097,-117
2021-12-24 15:52:38.840107,-142
2021-12-24 15:52:38.840117,-137
2021-12-24 15:52:38.840126,-110
2021-12-24 15:52:38.840136,-105
2021-12-24 15:52:38.840146,-108
2021-12-24 15:52:38.840155,-108
2021-12-24 15:52:38.840165,-117
2021-12-24 15:52:38.840183,-133
2021-12-24 15:52:38.840194,-137
2021-12-24 15:52:38.840204,-121
2021-12-24 15:52:38.840213,-112
2021-12-24 15:52:38.840223,-124
2021-12-24 15:52:38.840233,-119
2021-12-24 15:52:38.840242,-87
2021-12-24 15:52:39.064972,-71
2021-12-24 15:52:39.064992,-66
2021-12-24 15:52:39.065000,-68
2021-12-24 15:52:39.065006,-98
2021-12-24 15:52:39.065013,-112
2021-12-24 15:52:39.065019,-80
2021-12-24 15:52:39.065026,-57
2021-12-24 15:52:39.065032,-48
2021-12-24 15:52:39.065039,-41
2021-12-24 15:52:39.065045,-45
2021-12-24 15:52:39.065052,-45
2021-12-24 15:52:39.065058,-45
2021-12-24 15:52:39.065064,-73
2021-12-24 15:52:39.065071,-82
2021-12-24 15:52:39.065077,-75
2021-12-24 15:52:39.065084,-98
2021-12-24 15:52:39.065090,-98
2021-12-24 15:52:39.065096,-62
2021-12-24 15:52:39.065103,-41
2021-12-24 15:52:39.065109,-34
2021-12-24 15:52:39.065115,-22
2021-12-24 15:52:39.065122,-29
2021-12-24 15:52:39.065128,-27
2021-12-24 15:52:39.065135,-2
2021-12-24 15:52:39.065141,13
2021-12-24 15:52:39.065148,0
2021-12-24 15:52:39.065154,-25
2021-12-24 15:52:39.065161,-32
2021-12-24 15:52:39.065167,-27
2021-12-24 15:52:39.065173,-16
2021-12-24 15:52:39.333639,4
2021-12-24 15:52:39.333660,20
2021-12-24 15:52:39.333668,18
2021-12-24 15:52:39.333674,11
2021-12-24 15:52:39.333681,34
2021-12-24 15:52:39.333687,66
2021-12-24 15:52:39.333693,75
2021-12-24 15:52:39.333700,64
2021-12-24 15:52:39.333706,32
2021-12-24 15:52:39.333712,9
2021-12-24 15:52:39.333719,20
2021-12-24 15:52:39.333725,36
2021-12-24 15:52:39.333731,45
2021-12-24 15:52:39.333738,48
2021-12-24 15:52:39.333744,20
2021-12-24 15:52:39.333751,-2
2021-12-24 15:52:39.333757,16
2021-12-24 15:52:39.333763,50
2021-12-24 15:52:39.333770,91
2021-12-24 15:52:39.333776,165
2021-12-24 15:52:39.333782,223
2021-12-24 15:52:39.333789,165
2021-12-24 15:52:39.333795,-22
2021-12-24 15:52:39.333801,-137
2021-12-24 15:52:39.333808,-27
2021-12-24 15:52:39.333814,82
2021-12-24 15:52:39.333820,59
2021-12-24 15:52:39.333827,34
2021-12-24 15:52:39.333833,41
2021-12-24 15:52:39.333839,45
2021-12-24 15:52:39.514927,55
2021-12-24 15:52:39.514957,62
2021-12-24 15:52:39.514969,57
2021-12-24 15:52:39.514979,55
2021-12-24 15:52:39.514989,66
2021-12-24 15:52:39.514998,87
2021-12-24 15:52:39.515008,94
2021-12-24 15:52:39.515017,75
2021-12-24 15:52:39.515027,48
2021-12-24 15:52:39.515037,50
2021-12-24 15:52:39.515046,73
2021-12-24 15:52:39.515056,89
2021-12-24 15:52:39.515066,96
2021-12-24 15:52:39.515075,78
2021-12-24 15:52:39.515085,50
2021-12-24 15:52:39.515094,62
2021-12-24 15:52:39.515104,87
2021-12-24 15:52:39.515114,64
2021-12-24 15:52:39.515123,25
2021-12-24 15:52:39.515133,36
2021-12-24 15:52:39.515143,73
2021-12-24 15:52:39.515152,80
2021-12-24 15:52:39.515162,78
2021-12-24 15:52:39.515172,98
2021-12-24 15:52:39.515181,110
2021-12-24 15:52:39.515191,73
2021-12-24 15:52:39.515201,39
2021-12-24 15:52:39.515210,50
2021-12-24 15:52:39.515220,41
2021-12-24 15:52:39.515230,-13
2021-12-24 15:52:39.739958,-73
2021-12-24 15:52:39.739988,-110
2021-12-24 15:52:39.740000,-124
2021-12-24 15:52:39.740010,-140
2021-12-24 15:52:39.740020,-147
2021-12-24 15:52:39.740030,-128
2021-12-24 15:52:39.740039,-133
2021-12-24 15:52:39.740049,-186
2021-12-24 15:52:39.740059,-216
2021-12-24 15:52:39.740068,-190
2021-12-24 15:52:39.740078,-163
2021-12-24 15:52:39.740088,-151
2021-12-24 15:52:39.740097,-154
2021-12-24 15:52:39.740107,-158
2021-12-24 15:52:39.740117,-140
2021-12-24 15:52:39.740126,-131
2021-12-24 15:52:39.740136,-131
2021-12-24 15:52:39.740146,-119
2021-12-24 15:52:39.740155,-119
2021-12-24 15:52:39.740165,-119
2021-12-24 15:52:39.740174,-94
2021-12-24 15:52:39.740184,-73
2021-12-24 15:52:39.740194,-71
2021-12-24 15:52:39.740203,-73
2021-12-24 15:52:39.740213,-78
2021-12-24 15:52:39.740223,-71
2021-12-24 15:52:39.740233,-64
2021-12-24 15:52:39.740242,-66
2021-12-24 15:52:39.740252,-62
2021-12-24 15:52:39.740262,-36
2021-12-24 15:52:39.964631,-11
2021-12-24 15:52:39.964653,-27
2021-12-24 15:52:39.964660,-78
2021-12-24 15:52:39.964667,-87
2021-12-24 15:52:39.964674,-55
2021-12-24 15:52:39.964680,-50
2021-12-24 15:52:39.964687,-68
2021-12-24 15:52:39.964693,-57
2021-12-24 15:52:39.964700,-32
2021-12-24 15:52:39.964706,-39
2021-12-24 15:52:39.964712,-36
2021-12-24 15:52:39.964719,-27
2021-12-24 15:52:39.964725,-45
2021-12-24 15:52:39.964732,-41
2021-12-24 15:52:39.964738,-16
2021-12-24 15:52:39.964745,-20
2021-12-24 15:52:39.964751,-22
2021-12-24 15:52:39.964758,-11
2021-12-24 15:52:39.964764,4
2021-12-24 15:52:39.964770,34
2021-12-24 15:52:39.964777,59
2021-12-24 15:52:39.964783,52
2021-12-24 15:52:39.964790,16
2021-12-24 15:52:39.964796,-29
2021-12-24 15:52:39.964802,-45
2021-12-24 15:52:39.964809,-20
2021-12-24 15:52:39.964815,-9
2021-12-24 15:52:39.964822,-9
2021-12-24 15:52:39.964828,18
2021-12-24 15:52:39.964834,43
2021-12-24 15:52:40.370035,32
2021-12-24 15:52:40.370064,36
2021-12-24 15:52:40.370076,52
2021-12-24 15:52:40.370086,52
2021-12-24 15:52:40.370096,82
2021-12-24 15:52:40.370105,163
2021-12-24 15:52:40.370115,195
2021-12-24 15:52:40.370125,68
2021-12-24 15:52:40.370134,-142
2021-12-24 15:52:40.370144,-165
2021-12-24 15:52:40.370154,-11
2021-12-24 15:52:40.370163,34
2021-12-24 15:52:40.370173,25
2021-12-24 15:52:40.370183,87
2021-12-24 15:52:40.370193,137
2021-12-24 15:52:40.370202,142
2021-12-24 15:52:40.370212,140
2021-12-24 15:52:40.370221,131
2021-12-24 15:52:40.370231,135
2021-12-24 15:52:40.370241,165
2021-12-24 15:52:40.370250,177
2021-12-24 15:52:40.370260,172
2021-12-24 15:52:40.370270,170
2021-12-24 15:52:40.370279,167
2021-12-24 15:52:40.370289,179
2021-12-24 15:52:40.370299,209
2021-12-24 15:52:40.370308,206
2021-12-24 15:52:40.370318,179
2021-12-24 15:52:40.370328,177
2021-12-24 15:52:40.370342,190
2021-12-24 15:52:40.459979,200
2021-12-24 15:52:40.460009,202
2021-12-24 15:52:40.460020,181
2021-12-24 15:52:40.460030,174
2021-12-24 15:52:40.460040,177
2021-12-24 15:52:40.460050,121
2021-12-24 15:52:40.460059,78
2021-12-24 15:52:40.460069,121
2021-12-24 15:52:40.460079,163
2021-12-24 15:52:40.460088,137
2021-12-24 15:52:40.460098,112
2021-12-24 15:52:40.460108,117
2021-12-24 15:52:40.460117,117
2021-12-24 15:52:40.460127,103
2021-12-24 15:52:40.460137,91
2021-12-24 15:52:40.460147,78
2021-12-24 15:52:40.460157,29
2021-12-24 15:52:40.460166,-20
2021-12-24 15:52:40.460176,-6
2021-12-24 15:52:40.460186,13
2021-12-24 15:52:40.460196,4
2021-12-24 15:52:40.460206,0
2021-12-24 15:52:40.460215,-2
2021-12-24 15:52:40.460225,4
2021-12-24 15:52:40.460235,29
2021-12-24 15:52:40.460244,50
2021-12-24 15:52:40.460254,68
2021-12-24 15:52:40.460264,73
2021-12-24 15:52:40.460273,36
2021-12-24 15:52:40.460283,-6
2021-12-24 15:52:40.774293,16
2021-12-24 15:52:40.774309,59
2021-12-24 15:52:40.774315,57
2021-12-24 15:52:40.774321,27
2021-12-24 15:52:40.774326,4
2021-12-24 15:52:40.774331,11
2021-12-24 15:52:40.774336,22
2021-12-24 15:52:40.774342,13
2021-12-24 15:52:40.774347,0
2021-12-24 15:52:40.774352,-16
2021-12-24 15:52:40.774358,-45
2021-12-24 15:52:40.774363,-48
2021-12-24 15:52:40.774368,-18
2021-12-24 15:52:40.774374,9
2021-12-24 15:52:40.774379,16
2021-12-24 15:52:40.774384,-9
2021-12-24 15:52:40.774390,-48
2021-12-24 15:52:40.774395,-27
2021-12-24 15:52:40.774400,25
2021-12-24 15:52:40.774406,50
2021-12-24 15:52:40.774411,50
2021-12-24 15:52:40.774416,25
2021-12-24 15:52:40.774422,6
2021-12-24 15:52:40.774427,41
2021-12-24 15:52:40.774432,80
2021-12-24 15:52:40.774437,73
2021-12-24 15:52:40.774443,68
2021-12-24 15:52:40.774448,73
2021-12-24 15:52:40.774453,68
2021-12-24 15:52:40.774458,66
2021-12-24 15:52:40.909949,94
2021-12-24 15:52:40.909979,110
2021-12-24 15:52:40.909990,101
2021-12-24 15:52:40.910000,126
2021-12-24 15:52:40.910010,163
2021-12-24 15:52:40.910020,156
2021-12-24 15:52:40.910030,144
2021-12-24 15:52:40.910039,165
2021-12-24 15:52:40.910049,160
2021-12-24 15:52:40.910058,117
2021-12-24 15:52:40.910068,94
2021-12-24 15:52:40.910078,124
2021-12-24 15:52:40.910087,154
2021-12-24 15:52:40.910097,149
2021-12-24 15:52:40.910107,128
2021-12-24 15:52:40.910116,105
2021-12-24 15:52:40.910126,101
2021-12-24 15:52:40.910136,142
2021-12-24 15:52:40.910145,227
2021-12-24 15:52:40.910155,282
2021-12-24 15:52:40.910165,211
2021-12-24 15:52:40.910175,2
2021-12-24 15:52:40.910184,-131
2021-12-24 15:52:40.910194,-20
2021-12-24 15:52:40.910204,128
2021-12-24 15:52:40.910213,156
2021-12-24 15:52:40.910223,135
2021-12-24 15:52:40.910233,101
2021-12-24 15:52:40.910242,89
2021-12-24 15:52:40.910252,121
2021-12-24 15:52:41.179980,142
2021-12-24 15:52:41.180010,140
2021-12-24 15:52:41.180021,133
2021-12-24 15:52:41.180031,98
2021-12-24 15:52:41.180041,48
2021-12-24 15:52:41.180051,18
2021-12-24 15:52:41.180061,16
2021-12-24 15:52:41.180071,18
2021-12-24 15:52:41.180080,-6
2021-12-24 15:52:41.180090,-39
2021-12-24 15:52:41.180100,-34
2021-12-24 15:52:41.180109,-48
2021-12-24 15:52:41.180119,-91
2021-12-24 15:52:41.180129,-110
2021-12-24 15:52:41.180139,-114
2021-12-24 15:52:41.180149,-124
2021-12-24 15:52:41.180158,-112
2021-12-24 15:52:41.180168,-78
2021-12-24 15:52:41.180178,-50
2021-12-24 15:52:41.180187,-43
2021-12-24 15:52:41.180197,-59
2021-12-24 15:52:41.180207,-64
2021-12-24 15:52:41.180217,-22
2021-12-24 15:52:41.180226,18
2021-12-24 15:52:41.180236,18
2021-12-24 15:52:41.180246,2
2021-12-24 15:52:41.180256,-11
2021-12-24 15:52:41.180265,-29
2021-12-24 15:52:41.180275,-52
2021-12-24 15:52:41.180285,-66
2021-12-24 15:52:41.403634,-48
2021-12-24 15:52:41.403664,-29
2021-12-24 15:52:41.403676,-55
2021-12-24 15:52:41.403686,-78
2021-12-24 15:52:41.403696,-68
2021-12-24 15:52:41.403706,-45
2021-12-24 15:52:41.403715,-34
2021-12-24 15:52:41.403725,-57
2021-12-24 15:52:41.403735,-91
2021-12-24 15:52:41.403744,-62
2021-12-24 15:52:41.403754,-6
2021-12-24 15:52:41.403764,-9
2021-12-24 15:52:41.403773,-18
2021-12-24 15:52:41.403783,-2
2021-12-24 15:52:41.403793,-20
2021-12-24 15:52:41.403803,-41
2021-12-24 15:52:41.403812,-13
2021-12-24 15:52:41.403822,13
2021-12-24 15:52:41.403832,0
2021-12-24 15:52:41.403842,-29
2021-12-24 15:52:41.403852,-25
2021-12-24 15:52:41.403861,-6
2021-12-24 15:52:41.403871,-9
2021-12-24 15:52:41.403880,4
2021-12-24 15:52:41.403890,29
2021-12-24 15:52:41.403900,20
2021-12-24 15:52:41.403909,6
2021-12-24 15:52:41.403919,11
2021-12-24 15:52:41.403929,13
2021-12-24 15:52:41.403939,27
2021-12-24 15:52:41.585143,43
2021-12-24 15:52:41.585164,32
2021-12-24 15:52:41.585171,32
2021-12-24 15:52:41.585177,50
2021-12-24 15:52:41.585184,55
2021-12-24 15:52:41.585190,55
2021-12-24 15:52:41.585197,55
2021-12-24 15:52:41.585203,36
2021-12-24 15:52:41.585209,13
2021-12-24 15:52:41.585216,-25
2021-12-24 15:52:41.585222,-66
2021-12-24 15:52:41.585229,-59
2021-12-24 15:52:41.585235,-50
2021-12-24 15:52:41.585241,-80
2021-12-24 15:52:41.585248,-85
2021-12-24 15:52:41.585254,-78
2021-12-24 15:52:41.585261,-96
2021-12-24 15:52:41.585267,-89
2021-12-24 15:52:41.585273,-62
2021-12-24 15:52:41.585280,-29
2021-12-24 15:52:41.585286,39
2021-12-24 15:52:41.585293,103
2021-12-24 15:52:41.585299,9
2021-12-24 15:52:41.585305,-234
2021-12-24 15:52:41.585312,-312
2021-12-24 15:52:41.585318,-128
2021-12-24 15:52:41.585324,-9
2021-12-24 15:52:41.585331,-27
2021-12-24 15:52:41.585337,-13
2021-12-24 15:52:41.585343,18
2021-12-24 15:52:41.809307,4
2021-12-24 15:52:41.809324,4
2021-12-24 15:52:41.809330,32
2021-12-24 15:52:41.809335,32
2021-12-24 15:52:41.809340,25
2021-12-24 15:52:41.809345,36
2021-12-24 15:52:41.809350,13
2021-12-24 15:52:41.809355,-9
2021-12-24 15:52:41.809361,13
2021-12-24 15:52:41.809366,36
2021-12-24 15:52:41.809371,36
2021-12-24 15:52:41.809376,29
2021-12-24 15:52:41.809414,11
2021-12-24 15:52:41.809422,11
2021-12-24 15:52:41.809427,39
2021-12-24 15:52:41.809432,52
2021-12-24 15:52:41.809437,57
2021-12-24 15:52:41.809443,66
2021-12-24 15:52:41.809448,59
2021-12-24 15:52:41.809453,57
2021-12-24 15:52:41.809458,78
2021-12-24 15:52:41.809463,89
2021-12-24 15:52:41.809468,91
2021-12-24 15:52:41.809474,110
2021-12-24 15:52:41.809479,121
2021-12-24 15:52:41.809484,117
2021-12-24 15:52:41.809489,105
2021-12-24 15:52:41.809494,85
2021-12-24 15:52:41.809502,64
2021-12-24 15:52:41.809508,22
2021-12-24 15:52:42.034751,-32
2021-12-24 15:52:42.034780,-50
2021-12-24 15:52:42.034792,-41
2021-12-24 15:52:42.034802,-43
2021-12-24 15:52:42.034812,-68
2021-12-24 15:52:42.034822,-112
2021-12-24 15:52:42.034832,-140
2021-12-24 15:52:42.034842,-135
2021-12-24 15:52:42.034852,-144
2021-12-24 15:52:42.034862,-165
2021-12-24 15:52:42.034872,-167
2021-12-24 15:52:42.034882,-181
2021-12-24 15:52:42.034892,-190
2021-12-24 15:52:42.034901,-165
2021-12-24 15:52:42.034911,-165
2021-12-24 15:52:42.034921,-213
2021-12-24 15:52:42.034931,-227
2021-12-24 15:52:42.034941,-206
2021-12-24 15:52:42.034951,-209
2021-12-24 15:52:42.034961,-213
2021-12-24 15:52:42.034971,-209
2021-12-24 15:52:42.034987,-211
2021-12-24 15:52:42.035015,-204
2021-12-24 15:52:42.035040,-197
2021-12-24 15:52:42.035046,-186
2021-12-24 15:52:42.035053,-163
2021-12-24 15:52:42.035059,-144
2021-12-24 15:52:42.035066,-142
2021-12-24 15:52:42.035072,-144
2021-12-24 15:52:42.035079,-137
2021-12-24 15:52:42.259946,-119
2021-12-24 15:52:42.259966,-103
2021-12-24 15:52:42.259974,-94
2021-12-24 15:52:42.259980,-87
2021-12-24 15:52:42.259987,-96
2021-12-24 15:52:42.259993,-117
2021-12-24 15:52:42.259999,-114
2021-12-24 15:52:42.260006,-94
2021-12-24 15:52:42.260012,-75
2021-12-24 15:52:42.260018,-71
2021-12-24 15:52:42.260024,-85
2021-12-24 15:52:42.260031,-89
2021-12-24 15:52:42.260037,-68
2021-12-24 15:52:42.260044,-52
2021-12-24 15:52:42.260050,-45
2021-12-24 15:52:42.260056,-34
2021-12-24 15:52:42.260062,-48
2021-12-24 15:52:42.260069,-57
2021-12-24 15:52:42.260075,-25
2021-12-24 15:52:42.260081,0
2021-12-24 15:52:42.260088,-2
2021-12-24 15:52:42.260094,-4
2021-12-24 15:52:42.260100,0
2021-12-24 15:52:42.260107,9
2021-12-24 15:52:42.260113,22
2021-12-24 15:52:42.260120,82
2021-12-24 15:52:42.260126,186
2021-12-24 15:52:42.260132,186
2021-12-24 15:52:42.260138,-2
2021-12-24 15:52:42.260145,-188
2021-12-24 15:52:42.484987,-124
2021-12-24 15:52:42.485017,36
2021-12-24 15:52:42.485029,55
2021-12-24 15:52:42.485039,25
2021-12-24 15:52:42.485049,32
2021-12-24 15:52:42.485058,43
2021-12-24 15:52:42.485068,57
2021-12-24 15:52:42.485077,78
2021-12-24 15:52:42.485087,80
2021-12-24 15:52:42.485096,50
2021-12-24 15:52:42.485106,20
2021-12-24 15:52:42.485115,32
2021-12-24 15:52:42.485125,68
2021-12-24 15:52:42.485134,96
2021-12-24 15:52:42.485144,96
2021-12-24 15:52:42.485153,75
2021-12-24 15:52:42.485163,64
2021-12-24 15:52:42.485172,73
2021-12-24 15:52:42.485182,87
2021-12-24 15:52:42.485191,103
2021-12-24 15:52:42.485201,110
2021-12-24 15:52:42.485211,75
2021-12-24 15:52:42.485220,41
2021-12-24 15:52:42.485230,48
2021-12-24 15:52:42.485239,50
2021-12-24 15:52:42.485249,50
2021-12-24 15:52:42.485258,71
2021-12-24 15:52:42.485268,52
2021-12-24 15:52:42.485277,29
2021-12-24 15:52:42.485287,57
2021-12-24 15:52:42.799300,66
2021-12-24 15:52:42.799320,36
2021-12-24 15:52:42.799328,4
2021-12-24 15:52:42.799334,-50
2021-12-24 15:52:42.799341,-110
2021-12-24 15:52:42.799347,-142
2021-12-24 15:52:42.799353,-174
2021-12-24 15:52:42.799359,-193
2021-12-24 15:52:42.799366,-218
2021-12-24 15:52:42.799372,-280
2021-12-24 15:52:42.799378,-296
2021-12-24 15:52:42.799384,-255
2021-12-24 15:52:42.799391,-245
2021-12-24 15:52:42.799397,-259
2021-12-24 15:52:42.799403,-259
2021-12-24 15:52:42.799410,-262
2021-12-24 15:52:42.799416,-252
2021-12-24 15:52:42.799422,-223
2021-12-24 15:52:42.799429,-206
2021-12-24 15:52:42.799435,-200
2021-12-24 15:52:42.799441,-200
2021-12-24 15:52:42.799447,-202
2021-12-24 15:52:42.799454,-190
2021-12-24 15:52:42.799460,-174
2021-12-24 15:52:42.799466,-160
2021-12-24 15:52:42.799472,-149
2021-12-24 15:52:42.799479,-172
2021-12-24 15:52:42.799485,-197
2021-12-24 15:52:42.799491,-174
2021-12-24 15:52:42.799498,-154
2021-12-24 15:52:42.979385,-149
2021-12-24 15:52:42.979404,-131
2021-12-24 15:52:42.979412,-133
2021-12-24 15:52:42.979418,-154
2021-12-24 15:52:42.979425,-137
2021-12-24 15:52:42.979431,-91
2021-12-24 15:52:42.979438,-80
2021-12-24 15:52:42.979444,-94
2021-12-24 15:52:42.979451,-119
2021-12-24 15:52:42.979457,-137
2021-12-24 15:52:42.979464,-121
2021-12-24 15:52:42.979470,-96
2021-12-24 15:52:42.979476,-80
2021-12-24 15:52:42.979483,-68
2021-12-24 15:52:42.979489,-68
2021-12-24 15:52:42.979496,-57
2021-12-24 15:52:42.979502,-39
2021-12-24 15:52:42.979508,-34
2021-12-24 15:52:42.979515,-29
2021-12-24 15:52:42.979521,-29
2021-12-24 15:52:42.979528,-45
2021-12-24 15:52:42.979534,-52
2021-12-24 15:52:42.979540,-34
2021-12-24 15:52:42.979547,-9
2021-12-24 15:52:42.979553,6
2021-12-24 15:52:42.979560,13
2021-12-24 15:52:42.979566,-18
2021-12-24 15:52:42.979572,-78
2021-12-24 15:52:42.979579,-101
2021-12-24 15:52:42.979585,-52
2021-12-24 15:52:43.205036,45
2021-12-24 15:52:43.205067,110
2021-12-24 15:52:43.205078,22
2021-12-24 15:52:43.205088,-206
2021-12-24 15:52:43.205098,-317
2021-12-24 15:52:43.205108,-163
2021-12-24 15:52:43.205118,-32
2021-12-24 15:52:43.205128,-62
2021-12-24 15:52:43.205137,-71
2021-12-24 15:52:43.205147,-32
2021-12-24 15:52:43.205157,-27
2021-12-24 15:52:43.205167,-22
2021-12-24 15:52:43.205177,-6
2021-12-24 15:52:43.205186,-25
2021-12-24 15:52:43.205196,-55
2021-12-24 15:52:43.205206,-43
2021-12-24 15:52:43.205216,-18
2021-12-24 15:52:43.205225,-6
2021-12-24 15:52:43.205235,4
2021-12-24 15:52:43.205245,9
2021-12-24 15:52:43.205255,9
2021-12-24 15:52:43.205265,20
2021-12-24 15:52:43.205274,36
2021-12-24 15:52:43.205284,48
2021-12-24 15:52:43.205294,62
2021-12-24 15:52:43.205303,73
2021-12-24 15:52:43.205313,78
2021-12-24 15:52:43.205323,82
2021-12-24 15:52:43.205333,96
2021-12-24 15:52:43.205342,110
2021-12-24 15:52:43.473790,98
2021-12-24 15:52:43.473821,82
2021-12-24 15:52:43.473832,98
2021-12-24 15:52:43.473842,117
2021-12-24 15:52:43.473852,114
2021-12-24 15:52:43.473861,114
2021-12-24 15:52:43.473871,98
2021-12-24 15:52:43.473881,52
2021-12-24 15:52:43.473890,18
2021-12-24 15:52:43.473900,6
2021-12-24 15:52:43.473910,-9
2021-12-24 15:52:43.473919,-25
2021-12-24 15:52:43.473929,-45
2021-12-24 15:52:43.473939,-71
2021-12-24 15:52:43.473948,-75
2021-12-24 15:52:43.473958,-62
2021-12-24 15:52:43.473968,-52
2021-12-24 15:52:43.473977,-45
2021-12-24 15:52:43.473987,-50
2021-12-24 15:52:43.473997,-55
2021-12-24 15:52:43.474007,-45
2021-12-24 15:52:43.474016,-50
2021-12-24 15:52:43.474026,-66
2021-12-24 15:52:43.474036,-57
2021-12-24 15:52:43.474046,-48
2021-12-24 15:52:43.474056,-55
2021-12-24 15:52:43.474066,-57
2021-12-24 15:52:43.474075,-68
2021-12-24 15:52:43.474085,-87
2021-12-24 15:52:43.474095,-94
2021-12-24 15:52:43.700184,-112
2021-12-24 15:52:43.700206,-137
2021-12-24 15:52:43.700217,-179
2021-12-24 15:52:43.700229,-220
2021-12-24 15:52:43.700236,-206
2021-12-24 15:52:43.700242,-195
2021-12-24 15:52:43.700249,-227
2021-12-24 15:52:43.700255,-232
2021-12-24 15:52:43.700261,-209
2021-12-24 15:52:43.700268,-213
2021-12-24 15:52:43.700274,-211
2021-12-24 15:52:43.700281,-204
2021-12-24 15:52:43.700287,-229
2021-12-24 15:52:43.700294,-236
2021-12-24 15:52:43.700300,-211
2021-12-24 15:52:43.700306,-204
2021-12-24 15:52:43.700313,-200
2021-12-24 15:52:43.700320,-174
2021-12-24 15:52:43.700331,-151
2021-12-24 15:52:43.700342,-140
2021-12-24 15:52:43.700354,-133
2021-12-24 15:52:43.700366,-135
2021-12-24 15:52:43.700376,-124
2021-12-24 15:52:43.700389,-112
2021-12-24 15:52:43.700395,-108
2021-12-24 15:52:43.700402,-89
2021-12-24 15:52:43.700408,-75
2021-12-24 15:52:43.700415,-78
2021-12-24 15:52:43.700421,-73
2021-12-24 15:52:43.700428,-64
2021-12-24 15:52:43.880091,-55
2021-12-24 15:52:43.880121,-39
2021-12-24 15:52:43.880132,0
2021-12-24 15:52:43.880142,64
2021-12-24 15:52:43.880152,114
2021-12-24 15:52:43.880162,57
2021-12-24 15:52:43.880171,-140
2021-12-24 15:52:43.880181,-273
2021-12-24 15:52:43.880191,-167
2021-12-24 15:52:43.880200,-29
2021-12-24 15:52:43.880210,-27
2021-12-24 15:52:43.880220,-43
2021-12-24 15:52:43.880237,-22
2021-12-24 15:52:43.880248,-4
2021-12-24 15:52:43.880258,2
2021-12-24 15:52:43.880267,11
2021-12-24 15:52:43.880277,9
2021-12-24 15:52:43.880287,-20
2021-12-24 15:52:43.880297,-27
2021-12-24 15:52:43.880306,4
2021-12-24 15:52:43.880316,22
2021-12-24 15:52:43.880326,27
2021-12-24 15:52:43.880335,29
2021-12-24 15:52:43.880345,27
2021-12-24 15:52:43.880354,39
2021-12-24 15:52:43.880364,64
2021-12-24 15:52:43.880374,80
2021-12-24 15:52:43.880383,80
2021-12-24 15:52:43.880393,78
2021-12-24 15:52:43.880402,91
2021-12-24 15:52:44.104744,117
2021-12-24 15:52:44.104766,140
2021-12-24 15:52:44.104773,151
2021-12-24 15:52:44.104780,149
2021-12-24 15:52:44.104786,131
2021-12-24 15:52:44.104793,103
2021-12-24 15:52:44.104799,96
2021-12-24 15:52:44.104805,98
2021-12-24 15:52:44.104812,66
2021-12-24 15:52:44.104818,4
2021-12-24 15:52:44.104825,-32
2021-12-24 15:52:44.104831,-43
2021-12-24 15:52:44.104838,-50
2021-12-24 15:52:44.104844,-48
2021-12-24 15:52:44.104851,-52
2021-12-24 15:52:44.104857,-73
2021-12-24 15:52:44.104864,-89
2021-12-24 15:52:44.104870,-82
2021-12-24 15:52:44.104876,-62
2021-12-24 15:52:44.104883,-45
2021-12-24 15:52:44.104889,-39
2021-12-24 15:52:44.104895,-39
2021-12-24 15:52:44.104902,-43
2021-12-24 15:52:44.104908,-34
2021-12-24 15:52:44.104914,-11
2021-12-24 15:52:44.104921,16
2021-12-24 15:52:44.104927,25
2021-12-24 15:52:44.104933,20
2021-12-24 15:52:44.104940,18
2021-12-24 15:52:44.104946,36
2021-12-24 15:52:44.374282,59
2021-12-24 15:52:44.374297,68
2021-12-24 15:52:44.374303,68
2021-12-24 15:52:44.374309,48
2021-12-24 15:52:44.374314,13
2021-12-24 15:52:44.374319,16
2021-12-24 15:52:44.374324,48
2021-12-24 15:52:44.374329,45
2021-12-24 15:52:44.374334,11
2021-12-24 15:52:44.374339,-32
2021-12-24 15:52:44.374344,-50
2021-12-24 15:52:44.374349,-32
2021-12-24 15:52:44.374354,-4
2021-12-24 15:52:44.374359,2
2021-12-24 15:52:44.374364,-2
2021-12-24 15:52:44.374369,-11
2021-12-24 15:52:44.374374,-6
2021-12-24 15:52:44.374379,13
2021-12-24 15:52:44.374384,20
2021-12-24 15:52:44.374389,27
2021-12-24 15:52:44.374394,39
2021-12-24 15:52:44.374399,27
2021-12-24 15:52:44.374404,20
2021-12-24 15:52:44.374409,43
2021-12-24 15:52:44.374414,62
2021-12-24 15:52:44.374419,71
2021-12-24 15:52:44.374424,73
2021-12-24 15:52:44.374429,57
2021-12-24 15:52:44.374434,52
2021-12-24 15:52:44.374439,57
2021-12-24 15:52:44.600257,43
2021-12-24 15:52:44.600287,41
2021-12-24 15:52:44.600298,45
2021-12-24 15:52:44.600308,9
2021-12-24 15:52:44.600318,-32
2021-12-24 15:52:44.600328,-36
2021-12-24 15:52:44.600337,-36
2021-12-24 15:52:44.600347,-48
2021-12-24 15:52:44.600357,-71
2021-12-24 15:52:44.600366,-98
2021-12-24 15:52:44.600376,-114
2021-12-24 15:52:44.600386,-114
2021-12-24 15:52:44.600396,-101
2021-12-24 15:52:44.600406,-110
2021-12-24 15:52:44.600416,-174
2021-12-24 15:52:44.600425,-232
2021-12-24 15:52:44.600435,-213
2021-12-24 15:52:44.600445,-172
2021-12-24 15:52:44.600454,-149
2021-12-24 15:52:44.600464,-128
2021-12-24 15:52:44.600474,-128
2021-12-24 15:52:44.600483,-144
2021-12-24 15:52:44.600493,-124
2021-12-24 15:52:44.600503,-94
2021-12-24 15:52:44.600513,-94
2021-12-24 15:52:44.600523,-91
2021-12-24 15:52:44.600532,-78
2021-12-24 15:52:44.600542,-80
2021-12-24 15:52:44.600552,-75
2021-12-24 15:52:44.600562,-50
2021-12-24 15:52:44.915267,-27
2021-12-24 15:52:44.915297,-16
2021-12-24 15:52:44.915308,-16
2021-12-24 15:52:44.915318,-20
2021-12-24 15:52:44.915328,-2
2021-12-24 15:52:44.915337,66
2021-12-24 15:52:44.915347,167
2021-12-24 15:52:44.915356,188
2021-12-24 15:52:44.915366,11
2021-12-24 15:52:44.915376,-213
2021-12-24 15:52:44.915385,-190
2021-12-24 15:52:44.915395,-41
2021-12-24 15:52:44.915405,-22
2021-12-24 15:52:44.915414,-50
2021-12-24 15:52:44.915424,-41
2021-12-24 15:52:44.915433,-57
2021-12-24 15:52:44.915443,-52
2021-12-24 15:52:44.915452,-13
2021-12-24 15:52:44.915462,2
2021-12-24 15:52:44.915471,-2
2021-12-24 15:52:44.915481,-2
2021-12-24 15:52:44.915491,4
2021-12-24 15:52:44.915500,20
2021-12-24 15:52:44.915510,39
2021-12-24 15:52:44.915519,55
2021-12-24 15:52:44.915529,59
2021-12-24 15:52:44.915538,41
2021-12-24 15:52:44.915548,36
2021-12-24 15:52:44.915557,73
2021-12-24 15:52:44.915567,91
2021-12-24 15:52:45.050061,91
2021-12-24 15:52:45.050092,121
2021-12-24 15:52:45.050104,126
2021-12-24 15:52:45.050114,85
2021-12-24 15:52:45.050124,98
2021-12-24 15:52:45.050134,154
2021-12-24 15:52:45.050144,170
2021-12-24 15:52:45.050154,147
2021-12-24 15:52:45.050164,131
2021-12-24 15:52:45.050174,137
2021-12-24 15:52:45.050184,140
2021-12-24 15:52:45.050193,135
2021-12-24 15:52:45.050203,149
2021-12-24 15:52:45.050213,156
2021-12-24 15:52:45.050223,117
2021-12-24 15:52:45.050233,64
2021-12-24 15:52:45.050243,57
2021-12-24 15:52:45.050253,73
2021-12-24 15:52:45.050263,62
2021-12-24 15:52:45.050272,11
2021-12-24 15:52:45.050282,-39
2021-12-24 15:52:45.050292,-32
2021-12-24 15:52:45.050302,11
2021-12-24 15:52:45.050312,25
2021-12-24 15:52:45.050321,9
2021-12-24 15:52:45.050331,-16
2021-12-24 15:52:45.050341,-32
2021-12-24 15:52:45.050351,-18
2021-12-24 15:52:45.050361,9
2021-12-24 15:52:45.050371,29
2021-12-24 15:52:45.409455,41
2021-12-24 15:52:45.409485,52
2021-12-24 15:52:45.409497,50
2021-12-24 15:52:45.409507,32
2021-12-24 15:52:45.409516,34
2021-12-24 15:52:45.409526,59
2021-12-24 15:52:45.409536,59
2021-12-24 15:52:45.409545,22
2021-12-24 15:52:45.409555,9
2021-12-24 15:52:45.409564,32
2021-12-24 15:52:45.409574,68
2021-12-24 15:52:45.409584,87
2021-12-24 15:52:45.409593,62
2021-12-24 15:52:45.409603,20
2021-12-24 15:52:45.409613,13
2021-12-24 15:52:45.409622,6
2021-12-24 15:52:45.409632,-36
2021-12-24 15:52:45.409642,-55
2021-12-24 15:52:45.409652,-41
2021-12-24 15:52:45.409661,-45
2021-12-24 15:52:45.409671,-52
2021-12-24 15:52:45.409681,-50
2021-12-24 15:52:45.409690,-52
2021-12-24 15:52:45.409700,-68
2021-12-24 15:52:45.409710,-87
2021-12-24 15:52:45.409719,-96
2021-12-24 15:52:45.409729,-91
2021-12-24 15:52:45.409739,-85
2021-12-24 15:52:45.409748,-68
2021-12-24 15:52:45.409758,-55
2021-12-24 15:52:45.543916,-59
2021-12-24 15:52:45.543946,-50
2021-12-24 15:52:45.543957,-25
2021-12-24 15:52:45.543967,-27
2021-12-24 15:52:45.543977,-36
2021-12-24 15:52:45.543987,-36
2021-12-24 15:52:45.543996,-62
2021-12-24 15:52:45.544006,-75
2021-12-24 15:52:45.544016,-45
2021-12-24 15:52:45.544025,-34
2021-12-24 15:52:45.544035,-41
2021-12-24 15:52:45.544045,-34
2021-12-24 15:52:45.544054,-36
2021-12-24 15:52:45.544064,-39
2021-12-24 15:52:45.544074,-25
2021-12-24 15:52:45.544083,-6
2021-12-24 15:52:45.544093,62
2021-12-24 15:52:45.544103,163
2021-12-24 15:52:45.544112,177
2021-12-24 15:52:45.544122,34
2021-12-24 15:52:45.544132,-193
2021-12-24 15:52:45.544141,-259
2021-12-24 15:52:45.544151,-98
2021-12-24 15:52:45.544161,11
2021-12-24 15:52:45.544170,-18
2021-12-24 15:52:45.544180,-29
2021-12-24 15:52:45.544190,-2
2021-12-24 15:52:45.544199,11
2021-12-24 15:52:45.544209,18
2021-12-24 15:52:45.544219,6
2021-12-24 15:52:45.725060,-4
2021-12-24 15:52:45.725090,11
2021-12-24 15:52:45.725102,25
2021-12-24 15:52:45.725112,18
2021-12-24 15:52:45.725122,9
2021-12-24 15:52:45.725131,0
2021-12-24 15:52:45.725141,-6
2021-12-24 15:52:45.725151,6
2021-12-24 15:52:45.725161,27
2021-12-24 15:52:45.725170,34
2021-12-24 15:52:45.725180,25
2021-12-24 15:52:45.725190,0
2021-12-24 15:52:45.725200,2
2021-12-24 15:52:45.725209,52
2021-12-24 15:52:45.725219,73
2021-12-24 15:52:45.725229,55
2021-12-24 15:52:45.725238,82
2021-12-24 15:52:45.725262,108
2021-12-24 15:52:45.725273,87
2021-12-24 15:52:45.725282,82
2021-12-24 15:52:45.725292,87
2021-12-24 15:52:45.725302,68
2021-12-24 15:52:45.725311,71
2021-12-24 15:52:45.725321,66
2021-12-24 15:52:45.725331,43
2021-12-24 15:52:45.725341,39
2021-12-24 15:52:45.725351,22
2021-12-24 15:52:45.725361,-20
2021-12-24 15:52:45.725370,-34
2021-12-24 15:52:45.725380,-20
2021-12-24 15:52:45.950076,-27
2021-12-24 15:52:45.950105,-45
2021-12-24 15:52:45.950117,-45
2021-12-24 15:52:45.950127,-41
2021-12-24 15:52:45.950137,-52
2021-12-24 15:52:45.950146,-62
2021-12-24 15:52:45.950156,-43
2021-12-24 15:52:45.950166,-22
2021-12-24 15:52:45.950175,-27
2021-12-24 15:52:45.950185,-29
2021-12-24 15:52:45.950194,-48
2021-12-24 15:52:45.950204,-80
2021-12-24 15:52:45.950214,-62
2021-12-24 15:52:45.950223,-11
2021-12-24 15:52:45.950233,0
2021-12-24 15:52:45.950243,-25
2021-12-24 15:52:45.950253,-36
2021-12-24 15:52:45.950262,-13
2021-12-24 15:52:45.950272,18
2021-12-24 15:52:45.950282,16
2021-12-24 15:52:45.950291,-2
2021-12-24 15:52:45.950301,0
2021-12-24 15:52:45.950311,-11
2021-12-24 15:52:45.950320,-34
2021-12-24 15:52:45.950330,-25
2021-12-24 15:52:45.950340,-2
2021-12-24 15:52:45.950349,6
2021-12-24 15:52:45.950359,20
2021-12-24 15:52:45.950368,11
2021-12-24 15:52:45.950378,-59
2021-12-24 15:52:46.174727,-126
2021-12-24 15:52:46.174749,-101
2021-12-24 15:52:46.174757,-68
2021-12-24 15:52:46.174763,-119
2021-12-24 15:52:46.174770,-174
2021-12-24 15:52:46.174776,-170
2021-12-24 15:52:46.174783,-167
2021-12-24 15:52:46.174789,-179
2021-12-24 15:52:46.174796,-167
2021-12-24 15:52:46.174802,-183
2021-12-24 15:52:46.174809,-213
2021-12-24 15:52:46.174815,-197
2021-12-24 15:52:46.174821,-181
2021-12-24 15:52:46.174828,-183
2021-12-24 15:52:46.174834,-174
2021-12-24 15:52:46.174840,-177
2021-12-24 15:52:46.174847,-186
2021-12-24 15:52:46.174853,-151
2021-12-24 15:52:46.174859,-103
2021-12-24 15:52:46.174866,-73
2021-12-24 15:52:46.174872,-78
2021-12-24 15:52:46.174878,-114
2021-12-24 15:52:46.174885,-112
2021-12-24 15:52:46.174891,-73
2021-12-24 15:52:46.174898,-94
2021-12-24 15:52:46.174904,-126
2021-12-24 15:52:46.174910,-110
2021-12-24 15:52:46.174917,-96
2021-12-24 15:52:46.174923,-96
2021-12-24 15:52:46.174929,-75
2021-12-24 15:52:46.445034,-50
2021-12-24 15:52:46.445064,-27
2021-12-24 15:52:46.445076,36
2021-12-24 15:52:46.445086,114
2021-12-24 15:52:46.445095,98
2021-12-24 15:52:46.445105,-85
2021-12-24 15:52:46.445114,-273
2021-12-24 15:52:46.445124,-234
2021-12-24 15:52:46.445134,-98
2021-12-24 15:52:46.445143,-82
2021-12-24 15:52:46.445153,-71
2021-12-24 15:52:46.445163,-11
2021-12-24 15:52:46.445172,0
2021-12-24 15:52:46.445182,4
2021-12-24 15:52:46.445191,29
2021-12-24 15:52:46.445201,18
2021-12-24 15:52:46.445211,6
2021-12-24 15:52:46.445220,43
2021-12-24 15:52:46.445230,68
2021-12-24 15:52:46.445239,66
2021-12-24 15:52:46.445249,71
2021-12-24 15:52:46.445259,68
2021-12-24 15:52:46.445268,68
2021-12-24 15:52:46.445278,87
2021-12-24 15:52:46.445288,114
2021-12-24 15:52:46.445297,126
2021-12-24 15:52:46.445307,96
2021-12-24 15:52:46.445316,59
2021-12-24 15:52:46.445326,82
2021-12-24 15:52:46.445336,135
2021-12-24 15:52:46.670078,163
2021-12-24 15:52:46.670097,174
2021-12-24 15:52:46.670104,172
2021-12-24 15:52:46.670110,158
2021-12-24 15:52:46.670117,167
2021-12-24 15:52:46.670124,172
2021-12-24 15:52:46.670134,137
2021-12-24 15:52:46.670141,108
2021-12-24 15:52:46.670147,85
2021-12-24 15:52:46.670154,48
2021-12-24 15:52:46.670160,45
2021-12-24 15:52:46.670167,64
2021-12-24 15:52:46.670173,59
2021-12-24 15:52:46.670179,43
2021-12-24 15:52:46.670186,6
2021-12-24 15:52:46.670192,-36
2021-12-24 15:52:46.670198,-43
2021-12-24 15:52:46.670205,-27
2021-12-24 15:52:46.670211,-18
2021-12-24 15:52:46.670218,-13
2021-12-24 15:52:46.670224,-18
2021-12-24 15:52:46.670231,-11
2021-12-24 15:52:46.670237,16
2021-12-24 15:52:46.670243,39
2021-12-24 15:52:46.670250,43
2021-12-24 15:52:46.670256,50
2021-12-24 15:52:46.670262,43
2021-12-24 15:52:46.670269,25
2021-12-24 15:52:46.670275,9
2021-12-24 15:52:46.670281,9
2021-12-24 15:52:46.984310,13
2021-12-24 15:52:46.984330,2
2021-12-24 15:52:46.984337,-22
2021-12-24 15:52:46.984343,-27
2021-12-24 15:52:46.984350,-6
2021-12-24 15:52:46.984356,-4
2021-12-24 15:52:46.984363,-29
2021-12-24 15:52:46.984369,-66
2021-12-24 15:52:46.984375,-108
2021-12-24 15:52:46.984381,-140
2021-12-24 15:52:46.984388,-137
2021-12-24 15:52:46.984394,-117
2021-12-24 15:52:46.984401,-112
2021-12-24 15:52:46.984407,-135
2021-12-24 15:52:46.984413,-158
2021-12-24 15:52:46.984420,-147
2021-12-24 15:52:46.984426,-114
2021-12-24 15:52:46.984432,-89
2021-12-24 15:52:46.984439,-87
2021-12-24 15:52:46.984445,-89
2021-12-24 15:52:46.984451,-85
2021-12-24 15:52:46.984458,-87
2021-12-24 15:52:46.984464,-94
2021-12-24 15:52:46.984470,-66
2021-12-24 15:52:46.984477,-41
2021-12-24 15:52:46.984483,-52
2021-12-24 15:52:46.984490,-55
2021-12-24 15:52:46.984496,-29
2021-12-24 15:52:46.984502,-9
2021-12-24 15:52:46.984509,0
2021-12-24 15:52:47.120176,-6
2021-12-24 15:52:47.120198,-41
2021-12-24 15:52:47.120206,-50
2021-12-24 15:52:47.120212,-11
2021-12-24 15:52:47.120219,9
2021-12-24 15:52:47.120225,-6
2021-12-24 15:52:47.120232,-16
2021-12-24 15:52:47.120238,13
2021-12-24 15:52:47.120245,55
2021-12-24 15:52:47.120251,59
2021-12-24 15:52:47.120258,45
2021-12-24 15:52:47.120265,39
2021-12-24 15:52:47.120271,-6
2021-12-24 15:52:47.120278,-68
2021-12-24 15:52:47.120284,-73
2021-12-24 15:52:47.120291,-45
2021-12-24 15:52:47.120297,-16
2021-12-24 15:52:47.120304,11
2021-12-24 15:52:47.120311,22
2021-12-24 15:52:47.120317,27
2021-12-24 15:52:47.120324,34
2021-12-24 15:52:47.120330,34
2021-12-24 15:52:47.120337,39
2021-12-24 15:52:47.120343,52
2021-12-24 15:52:47.120350,34
2021-12-24 15:52:47.120360,9
2021-12-24 15:52:47.120371,25
2021-12-24 15:52:47.120382,34
2021-12-24 15:52:47.120393,32
2021-12-24 15:52:47.120403,52
2021-12-24 15:52:47.390052,64
2021-12-24 15:52:47.390082,80
2021-12-24 15:52:47.390093,140
2021-12-24 15:52:47.390103,204
2021-12-24 15:52:47.390113,183
2021-12-24 15:52:47.390122,-13
2021-12-24 15:52:47.390132,-229
2021-12-24 15:52:47.390142,-186
2021-12-24 15:52:47.390151,-32
2021-12-24 15:52:47.390161,0
2021-12-24 15:52:47.390171,18
2021-12-24 15:52:47.390181,48
2021-12-24 15:52:47.390190,20
2021-12-24 15:52:47.390200,16
2021-12-24 15:52:47.390210,55
2021-12-24 15:52:47.390220,62
2021-12-24 15:52:47.390229,62
2021-12-24 15:52:47.390239,68
2021-12-24 15:52:47.390249,45
2021-12-24 15:52:47.390258,45
2021-12-24 15:52:47.390268,78
2021-12-24 15:52:47.390278,85
2021-12-24 15:52:47.390287,89
2021-12-24 15:52:47.390297,108
2021-12-24 15:52:47.390306,105
2021-12-24 15:52:47.390316,114
2021-12-24 15:52:47.390325,144
2021-12-24 15:52:47.390335,149
2021-12-24 15:52:47.390345,149
2021-12-24 15:52:47.390354,174
2021-12-24 15:52:47.613886,186
2021-12-24 15:52:47.613916,172
2021-12-24 15:52:47.613928,179
2021-12-24 15:52:47.613938,195
2021-12-24 15:52:47.613948,181
2021-12-24 15:52:47.613957,133
2021-12-24 15:52:47.613967,91
2021-12-24 15:52:47.613976,94
2021-12-24 15:52:47.613986,121
2021-12-24 15:52:47.613996,117
2021-12-24 15:52:47.614005,80
2021-12-24 15:52:47.614015,48
2021-12-24 15:52:47.614025,32
2021-12-24 15:52:47.614034,9
2021-12-24 15:52:47.614044,-55
2021-12-24 15:52:47.614054,-96
2021-12-24 15:52:47.614063,-98
2021-12-24 15:52:47.614073,-135
2021-12-24 15:52:47.614083,-200
2021-12-24 15:52:47.614092,-206
2021-12-24 15:52:47.614102,-179
2021-12-24 15:52:47.614112,-183
2021-12-24 15:52:47.614121,-193
2021-12-24 15:52:47.614131,-172
2021-12-24 15:52:47.614141,-142
2021-12-24 15:52:47.614150,-124
2021-12-24 15:52:47.614160,-124
2021-12-24 15:52:47.614170,-124
2021-12-24 15:52:47.614179,-101
2021-12-24 15:52:47.614189,-85
2021-12-24 15:52:47.794701,-78
2021-12-24 15:52:47.794723,-59
2021-12-24 15:52:47.794730,-48
2021-12-24 15:52:47.794737,-48
2021-12-24 15:52:47.794744,-59
2021-12-24 15:52:47.794750,-75
2021-12-24 15:52:47.794756,-80
2021-12-24 15:52:47.794763,-82
2021-12-24 15:52:47.794769,-87
2021-12-24 15:52:47.794775,-87
2021-12-24 15:52:47.794781,-108
2021-12-24 15:52:47.794788,-126
2021-12-24 15:52:47.794794,-94
2021-12-24 15:52:47.794800,-57
2021-12-24 15:52:47.794807,-52
2021-12-24 15:52:47.794813,-55
2021-12-24 15:52:47.794819,-55
2021-12-24 15:52:47.794826,-48
2021-12-24 15:52:47.794832,-22
2021-12-24 15:52:47.794838,-13
2021-12-24 15:52:47.794844,-11
2021-12-24 15:52:47.794851,4
2021-12-24 15:52:47.794857,16
2021-12-24 15:52:47.794863,29
2021-12-24 15:52:47.794870,43
2021-12-24 15:52:47.794876,55
2021-12-24 15:52:47.794882,73
2021-12-24 15:52:47.794889,73
2021-12-24 15:52:47.794895,59
2021-12-24 15:52:47.794901,68
2021-12-24 15:52:48.065063,101
2021-12-24 15:52:48.065094,114
2021-12-24 15:52:48.065105,108
2021-12-24 15:52:48.065115,85
2021-12-24 15:52:48.065125,57
2021-12-24 15:52:48.065135,64
2021-12-24 15:52:48.065144,82
2021-12-24 15:52:48.065154,64
2021-12-24 15:52:48.065164,41
2021-12-24 15:52:48.065174,25
2021-12-24 15:52:48.065184,-6
2021-12-24 15:52:48.065193,-6
2021-12-24 15:52:48.065203,29
2021-12-24 15:52:48.065213,50
2021-12-24 15:52:48.065235,55
2021-12-24 15:52:48.065245,50
2021-12-24 15:52:48.065255,45
2021-12-24 15:52:48.065265,59
2021-12-24 15:52:48.065275,64
2021-12-24 15:52:48.065284,57
2021-12-24 15:52:48.065294,64
2021-12-24 15:52:48.065304,62
2021-12-24 15:52:48.065314,50
2021-12-24 15:52:48.065324,41
2021-12-24 15:52:48.065333,16
2021-12-24 15:52:48.065343,4
2021-12-24 15:52:48.065353,22
2021-12-24 15:52:48.065363,50
2021-12-24 15:52:48.065373,128
2021-12-24 15:52:48.065382,223
2021-12-24 15:52:48.290046,172
2021-12-24 15:52:48.290077,-57
2021-12-24 15:52:48.290088,-227
2021-12-24 15:52:48.290098,-158
2021-12-24 15:52:48.290108,-39
2021-12-24 15:52:48.290117,-6
2021-12-24 15:52:48.290127,29
2021-12-24 15:52:48.290137,71
2021-12-24 15:52:48.290146,62
2021-12-24 15:52:48.290156,41
2021-12-24 15:52:48.290166,22
2021-12-24 15:52:48.290175,-6
2021-12-24 15:52:48.290185,-9
2021-12-24 15:52:48.290195,18
2021-12-24 15:52:48.290204,9
2021-12-24 15:52:48.290214,-34
2021-12-24 15:52:48.290223,-66
2021-12-24 15:52:48.290233,-71
2021-12-24 15:52:48.290243,-73
2021-12-24 15:52:48.290252,-85
2021-12-24 15:52:48.290262,-96
2021-12-24 15:52:48.290271,-110
2021-12-24 15:52:48.290281,-103
2021-12-24 15:52:48.290291,-59
2021-12-24 15:52:48.290300,-36
2021-12-24 15:52:48.290310,-39
2021-12-24 15:52:48.290319,-41
2021-12-24 15:52:48.290329,-39
2021-12-24 15:52:48.290338,-22
2021-12-24 15:52:48.290348,4
2021-12-24 15:52:48.515036,22
2021-12-24 15:52:48.515066,29
2021-12-24 15:52:48.515077,22
2021-12-24 15:52:48.515087,11
2021-12-24 15:52:48.515097,16
2021-12-24 15:52:48.515107,22
2021-12-24 15:52:48.515117,20
2021-12-24 15:52:48.515126,11
2021-12-24 15:52:48.515136,-29
2021-12-24 15:52:48.515146,-85
2021-12-24 15:52:48.515155,-82
2021-12-24 15:52:48.515165,-57
2021-12-24 15:52:48.515175,-80
2021-12-24 15:52:48.515185,-140
2021-12-24 15:52:48.515195,-183
2021-12-24 15:52:48.515204,-190
2021-12-24 15:52:48.515214,-172
2021-12-24 15:52:48.515224,-133
2021-12-24 15:52:48.515233,-98
2021-12-24 15:52:48.515243,-101
2021-12-24 15:52:48.515253,-114
2021-12-24 15:52:48.515262,-108
2021-12-24 15:52:48.515272,-80
2021-12-24 15:52:48.515282,-62
2021-12-24 15:52:48.515292,-64
2021-12-24 15:52:48.515301,-45
2021-12-24 15:52:48.515311,-25
2021-12-24 15:52:48.515321,-39
2021-12-24 15:52:48.515330,-43
2021-12-24 15:52:48.515340,-50
2021-12-24 15:52:48.784814,-82
2021-12-24 15:52:48.784842,-82
2021-12-24 15:52:48.784854,-62
2021-12-24 15:52:48.784864,-27
2021-12-24 15:52:48.784874,55
2021-12-24 15:52:48.784884,96
2021-12-24 15:52:48.784894,-55
2021-12-24 15:52:48.784903,-317
2021-12-24 15:52:48.784913,-365
2021-12-24 15:52:48.784923,-172
2021-12-24 15:52:48.784933,-41
2021-12-24 15:52:48.784942,-13
2021-12-24 15:52:48.784952,9
2021-12-24 15:52:48.784963,-4
2021-12-24 15:52:48.784972,-45
2021-12-24 15:52:48.784982,-45
2021-12-24 15:52:48.784992,-18
2021-12-24 15:52:48.785002,-16
2021-12-24 15:52:48.785011,-29
2021-12-24 15:52:48.785021,-18
2021-12-24 15:52:48.785031,-2
2021-12-24 15:52:48.785041,9
2021-12-24 15:52:48.785051,29
2021-12-24 15:52:48.785061,48
2021-12-24 15:52:48.785070,55
2021-12-24 15:52:48.785080,52
2021-12-24 15:52:48.785090,57
2021-12-24 15:52:48.785100,64
2021-12-24 15:52:48.785109,78
2021-12-24 15:52:48.785119,131
2021-12-24 15:52:48.965235,174
2021-12-24 15:52:48.965266,160
2021-12-24 15:52:48.965277,147
2021-12-24 15:52:48.965287,163
2021-12-24 15:52:48.965297,174
2021-12-24 15:52:48.965307,181
2021-12-24 15:52:48.965317,195
2021-12-24 15:52:48.965327,202
2021-12-24 15:52:48.965336,197
2021-12-24 15:52:48.965346,190
2021-12-24 15:52:48.965356,188
2021-12-24 15:52:48.965365,183
2021-12-24 15:52:48.965375,142
2021-12-24 15:52:48.965385,75
2021-12-24 15:52:48.965395,32
2021-12-24 15:52:48.965404,6
2021-12-24 15:52:48.965414,-9
2021-12-24 15:52:48.965424,-18
2021-12-24 15:52:48.965433,-50
2021-12-24 15:52:48.965443,-101
2021-12-24 15:52:48.965453,-119
2021-12-24 15:52:48.965463,-124
2021-12-24 15:52:48.965472,-144
2021-12-24 15:52:48.965482,-144
2021-12-24 15:52:48.965492,-135
2021-12-24 15:52:48.965502,-135
2021-12-24 15:52:48.965511,-121
2021-12-24 15:52:48.965521,-96
2021-12-24 15:52:48.965531,-80
2021-12-24 15:52:48.965540,-78
2021-12-24 15:52:49.235062,-87
2021-12-24 15:52:49.235092,-91
2021-12-24 15:52:49.235103,-82
2021-12-24 15:52:49.235113,-85
2021-12-24 15:52:49.235123,-114
2021-12-24 15:52:49.235133,-165
2021-12-24 15:52:49.235143,-193
2021-12-24 15:52:49.235152,-174
2021-12-24 15:52:49.235162,-151
2021-12-24 15:52:49.235172,-142
2021-12-24 15:52:49.235182,-128
2021-12-24 15:52:49.235191,-124
2021-12-24 15:52:49.235201,-137
2021-12-24 15:52:49.235211,-126
2021-12-24 15:52:49.235221,-96
2021-12-24 15:52:49.235230,-98
2021-12-24 15:52:49.235240,-105
2021-12-24 15:52:49.235250,-80
2021-12-24 15:52:49.235260,-64
2021-12-24 15:52:49.235270,-80
2021-12-24 15:52:49.235279,-85
2021-12-24 15:52:49.235289,-62
2021-12-24 15:52:49.235299,-39
2021-12-24 15:52:49.235309,-34
2021-12-24 15:52:49.235318,-36
2021-12-24 15:52:49.235328,-25
2021-12-24 15:52:49.235338,-11
2021-12-24 15:52:49.235348,-6
2021-12-24 15:52:49.235358,-2
2021-12-24 15:52:49.235367,0
2021-12-24 15:52:49.460149,11
2021-12-24 15:52:49.460181,32
2021-12-24 15:52:49.460193,45
2021-12-24 15:52:49.460202,59
2021-12-24 15:52:49.460212,71
2021-12-24 15:52:49.460222,52
2021-12-24 15:52:49.460231,34
2021-12-24 15:52:49.460241,39
2021-12-24 15:52:49.460250,43
2021-12-24 15:52:49.460260,39
2021-12-24 15:52:49.460270,32
2021-12-24 15:52:49.460279,20
2021-12-24 15:52:49.460289,18
2021-12-24 15:52:49.460298,41
2021-12-24 15:52:49.460308,57
2021-12-24 15:52:49.460318,50
2021-12-24 15:52:49.460327,36
2021-12-24 15:52:49.460337,29
2021-12-24 15:52:49.460346,27
2021-12-24 15:52:49.460356,36
2021-12-24 15:52:49.460366,32
2021-12-24 15:52:49.460375,-2
2021-12-24 15:52:49.460385,-11
2021-12-24 15:52:49.460395,4
2021-12-24 15:52:49.460404,11
2021-12-24 15:52:49.460414,25
2021-12-24 15:52:49.460424,39
2021-12-24 15:52:49.460433,39
2021-12-24 15:52:49.460443,43
2021-12-24 15:52:49.460453,55
2021-12-24 15:52:49.683871,64
2021-12-24 15:52:49.683902,82
2021-12-24 15:52:49.683913,91
2021-12-24 15:52:49.683923,71
2021-12-24 15:52:49.683932,39
2021-12-24 15:52:49.683942,20
2021-12-24 15:52:49.683951,29
2021-12-24 15:52:49.683961,48
2021-12-24 15:52:49.683971,50
2021-12-24 15:52:49.683980,48
2021-12-24 15:52:49.683990,29
2021-12-24 15:52:49.684000,4
2021-12-24 15:52:49.684009,66
2021-12-24 15:52:49.684019,195
2021-12-24 15:52:49.684029,213
2021-12-24 15:52:49.684039,18
2021-12-24 15:52:49.684048,-216
2021-12-24 15:52:49.684058,-204
2021-12-24 15:52:49.684068,-32
2021-12-24 15:52:49.684077,20
2021-12-24 15:52:49.684087,13
2021-12-24 15:52:49.684097,52
2021-12-24 15:52:49.684106,50
2021-12-24 15:52:49.684116,16
2021-12-24 15:52:49.684126,20
2021-12-24 15:52:49.684135,52
2021-12-24 15:52:49.684145,66
2021-12-24 15:52:49.684155,50
2021-12-24 15:52:49.684165,36
2021-12-24 15:52:49.684174,50
2021-12-24 15:52:49.865025,71
2021-12-24 15:52:49.865055,78
2021-12-24 15:52:49.865067,85
2021-12-24 15:52:49.865077,75
2021-12-24 15:52:49.865087,48
2021-12-24 15:52:49.865097,41
2021-12-24 15:52:49.865107,71
2021-12-24 15:52:49.865117,91
2021-12-24 15:52:49.865126,87
2021-12-24 15:52:49.865136,64
2021-12-24 15:52:49.865146,50
2021-12-24 15:52:49.865156,75
2021-12-24 15:52:49.865166,101
2021-12-24 15:52:49.865176,105
2021-12-24 15:52:49.865185,126
2021-12-24 15:52:49.865195,133
2021-12-24 15:52:49.865205,94
2021-12-24 15:52:49.865215,75
2021-12-24 15:52:49.865225,98
2021-12-24 15:52:49.865234,98
2021-12-24 15:52:49.865244,71
2021-12-24 15:52:49.865254,29
2021-12-24 15:52:49.865264,-9
2021-12-24 15:52:49.865274,-16
2021-12-24 15:52:49.865284,-45
2021-12-24 15:52:49.865294,-105
2021-12-24 15:52:49.865303,-135
2021-12-24 15:52:49.865313,-142
2021-12-24 15:52:49.865323,-151
2021-12-24 15:52:49.865333,-142
2021-12-24 15:52:50.225139,-119
2021-12-24 15:52:50.225169,-101
2021-12-24 15:52:50.225181,-103
2021-12-24 15:52:50.225191,-140
2021-12-24 15:52:50.225201,-158
2021-12-24 15:52:50.225212,-137
2021-12-24 15:52:50.225221,-108
2021-12-24 15:52:50.225231,-85
2021-12-24 15:52:50.225241,-91
2021-12-24 15:52:50.225251,-135
2021-12-24 15:52:50.225260,-137
2021-12-24 15:52:50.225270,-91
2021-12-24 15:52:50.225280,-64
2021-12-24 15:52:50.225290,-66
2021-12-24 15:52:50.225300,-75
2021-12-24 15:52:50.225309,-87
2021-12-24 15:52:50.225319,-103
2021-12-24 15:52:50.225329,-126
2021-12-24 15:52:50.225339,-126
2021-12-24 15:52:50.225348,-98
2021-12-24 15:52:50.225358,-96
2021-12-24 15:52:50.225368,-112
2021-12-24 15:52:50.225378,-101
2021-12-24 15:52:50.225387,-73
2021-12-24 15:52:50.225397,-64
2021-12-24 15:52:50.225407,-48
2021-12-24 15:52:50.225417,-36
2021-12-24 15:52:50.225427,-62
2021-12-24 15:52:50.225437,-68
2021-12-24 15:52:50.225447,-39
2021-12-24 15:52:50.404452,-29
2021-12-24 15:52:50.404482,-29
2021-12-24 15:52:50.404494,-22
2021-12-24 15:52:50.404504,-29
2021-12-24 15:52:50.404514,-25
2021-12-24 15:52:50.404524,0
2021-12-24 15:52:50.404533,16
2021-12-24 15:52:50.404543,13
2021-12-24 15:52:50.404553,-6
2021-12-24 15:52:50.404562,-9
2021-12-24 15:52:50.404572,11
2021-12-24 15:52:50.404582,11
2021-12-24 15:52:50.404591,2
2021-12-24 15:52:50.404601,9
2021-12-24 15:52:50.404611,6
2021-12-24 15:52:50.404620,-11
2021-12-24 15:52:50.404630,2
2021-12-24 15:52:50.404640,29
2021-12-24 15:52:50.404649,32
2021-12-24 15:52:50.404659,27
2021-12-24 15:52:50.404669,32
2021-12-24 15:52:50.404678,34
2021-12-24 15:52:50.404688,52
2021-12-24 15:52:50.404698,126
2021-12-24 15:52:50.404708,229
2021-12-24 15:52:50.404717,234
2021-12-24 15:52:50.404727,34
2021-12-24 15:52:50.404737,-209
2021-12-24 15:52:50.404746,-200
2021-12-24 15:52:50.404756,-45
2021-12-24 15:52:50.630222,-16
2021-12-24 15:52:50.630253,-18
2021-12-24 15:52:50.630265,29
2021-12-24 15:52:50.630275,32
2021-12-24 15:52:50.630285,25
2021-12-24 15:52:50.630295,62
2021-12-24 15:52:50.630305,73
2021-12-24 15:52:50.630314,36
2021-12-24 15:52:50.630324,6
2021-12-24 15:52:50.630334,9
2021-12-24 15:52:50.630344,16
2021-12-24 15:52:50.630353,32
2021-12-24 15:52:50.630363,50
2021-12-24 15:52:50.630373,50
2021-12-24 15:52:50.630382,41
2021-12-24 15:52:50.630392,45
2021-12-24 15:52:50.630402,62
2021-12-24 15:52:50.630412,89
2021-12-24 15:52:50.630421,105
2021-12-24 15:52:50.630437,94
2021-12-24 15:52:50.630447,87
2021-12-24 15:52:50.630456,87
2021-12-24 15:52:50.630466,57
2021-12-24 15:52:50.630476,43
2021-12-24 15:52:50.630485,71
2021-12-24 15:52:50.630495,80
2021-12-24 15:52:50.630505,66
2021-12-24 15:52:50.630515,55
2021-12-24 15:52:50.630524,43
2021-12-24 15:52:50.630534,41
2021-12-24 15:52:50.809859,45
2021-12-24 15:52:50.809880,13
2021-12-24 15:52:50.809887,-45
2021-12-24 15:52:50.809894,-82
2021-12-24 15:52:50.809900,-103
2021-12-24 15:52:50.809906,-137
2021-12-24 15:52:50.809913,-181
2021-12-24 15:52:50.809919,-220
2021-12-24 15:52:50.809925,-234
2021-12-24 15:52:50.809931,-220
2021-12-24 15:52:50.809938,-200
2021-12-24 15:52:50.809944,-190
2021-12-24 15:52:50.809950,-202
2021-12-24 15:52:50.809957,-209
2021-12-24 15:52:50.809963,-197
2021-12-24 15:52:50.809969,-193
2021-12-24 15:52:50.809976,-174
2021-12-24 15:52:50.809982,-144
2021-12-24 15:52:50.809988,-163
2021-12-24 15:52:50.809995,-181
2021-12-24 15:52:50.810001,-156
2021-12-24 15:52:50.810007,-140
2021-12-24 15:52:50.810014,-135
2021-12-24 15:52:50.810020,-114
2021-12-24 15:52:50.810026,-110
2021-12-24 15:52:50.810032,-112
2021-12-24 15:52:50.810039,-94
2021-12-24 15:52:50.810045,-89
2021-12-24 15:52:50.810051,-82
2021-12-24 15:52:50.810058,-62
2021-12-24 15:52:51.080010,-64
2021-12-24 15:52:51.080041,-71
2021-12-24 15:52:51.080052,-62
2021-12-24 15:52:51.080062,-68
2021-12-24 15:52:51.080072,-80
2021-12-24 15:52:51.080082,-73
2021-12-24 15:52:51.080092,-85
2021-12-24 15:52:51.080102,-96
2021-12-24 15:52:51.080112,-78
2021-12-24 15:52:51.080121,-62
2021-12-24 15:52:51.080131,-55
2021-12-24 15:52:51.080141,-55
2021-12-24 15:52:51.080151,-73
2021-12-24 15:52:51.080161,-66
2021-12-24 15:52:51.080171,-41
2021-12-24 15:52:51.080181,-36
2021-12-24 15:52:51.080191,-25
2021-12-24 15:52:51.080201,-9
2021-12-24 15:52:51.080211,-13
2021-12-24 15:52:51.080221,-2
2021-12-24 15:52:51.080231,13
2021-12-24 15:52:51.080241,6
2021-12-24 15:52:51.080250,20
2021-12-24 15:52:51.080260,52
2021-12-24 15:52:51.080270,50
2021-12-24 15:52:51.080280,48
2021-12-24 15:52:51.080290,66
2021-12-24 15:52:51.080299,59
2021-12-24 15:52:51.080309,13
2021-12-24 15:52:51.080319,-25
2021-12-24 15:52:51.260036,-2
2021-12-24 15:52:51.260067,50
2021-12-24 15:52:51.260078,71
2021-12-24 15:52:51.260088,52
2021-12-24 15:52:51.260098,48
2021-12-24 15:52:51.260108,48
2021-12-24 15:52:51.260117,34
2021-12-24 15:52:51.260127,36
2021-12-24 15:52:51.260136,48
2021-12-24 15:52:51.260146,57
2021-12-24 15:52:51.260156,59
2021-12-24 15:52:51.260165,39
2021-12-24 15:52:51.260175,25
2021-12-24 15:52:51.260184,48
2021-12-24 15:52:51.260194,57
2021-12-24 15:52:51.260203,45
2021-12-24 15:52:51.260213,68
2021-12-24 15:52:51.260223,119
2021-12-24 15:52:51.260232,190
2021-12-24 15:52:51.260242,223
2021-12-24 15:52:51.260251,80
2021-12-24 15:52:51.260261,-119
2021-12-24 15:52:51.260271,-105
2021-12-24 15:52:51.260280,36
2021-12-24 15:52:51.260290,85
2021-12-24 15:52:51.260299,87
2021-12-24 15:52:51.260309,112
2021-12-24 15:52:51.260318,124
2021-12-24 15:52:51.260328,119
2021-12-24 15:52:51.260338,108
2021-12-24 15:52:51.574713,105
2021-12-24 15:52:51.574736,128
2021-12-24 15:52:51.574743,154
2021-12-24 15:52:51.574750,151
2021-12-24 15:52:51.574756,121
2021-12-24 15:52:51.574763,103
2021-12-24 15:52:51.574769,101
2021-12-24 15:52:51.574775,91
2021-12-24 15:52:51.574781,71
2021-12-24 15:52:51.574788,66
2021-12-24 15:52:51.574794,59
2021-12-24 15:52:51.574800,43
2021-12-24 15:52:51.574807,57
2021-12-24 15:52:51.574813,68
2021-12-24 15:52:51.574819,52
2021-12-24 15:52:51.574826,50
2021-12-24 15:52:51.574832,52
2021-12-24 15:52:51.574838,57
2021-12-24 15:52:51.574845,68
2021-12-24 15:52:51.574851,71
2021-12-24 15:52:51.574857,55
2021-12-24 15:52:51.574864,32
2021-12-24 15:52:51.574870,20
2021-12-24 15:52:51.574876,34
2021-12-24 15:52:51.574883,48
2021-12-24 15:52:51.574889,43
2021-12-24 15:52:51.574896,32
2021-12-24 15:52:51.574902,-2
2021-12-24 15:52:51.574908,-41
2021-12-24 15:52:51.574915,-52
2021-12-24 15:52:51.843653,-43
2021-12-24 15:52:51.843683,-43
2021-12-24 15:52:51.843695,-50
2021-12-24 15:52:51.843705,-48
2021-12-24 15:52:51.843715,-78
2021-12-24 15:52:51.843725,-119
2021-12-24 15:52:51.843734,-103
2021-12-24 15:52:51.843744,-64
2021-12-24 15:52:51.843754,-78
2021-12-24 15:52:51.843764,-117
2021-12-24 15:52:51.843774,-114
2021-12-24 15:52:51.843783,-73
2021-12-24 15:52:51.843793,-39
2021-12-24 15:52:51.843803,-20
2021-12-24 15:52:51.843813,-20
2021-12-24 15:52:51.843822,-62
2021-12-24 15:52:51.843832,-96
2021-12-24 15:52:51.843842,-71
2021-12-24 15:52:51.843852,-43
2021-12-24 15:52:51.843861,-36
2021-12-24 15:52:51.843871,-34
2021-12-24 15:52:51.843881,-52
2021-12-24 15:52:51.843890,-78
2021-12-24 15:52:51.843900,-59
2021-12-24 15:52:51.843910,-29
2021-12-24 15:52:51.843920,-18
2021-12-24 15:52:51.843929,-16
2021-12-24 15:52:51.843939,-29
2021-12-24 15:52:51.843949,-32
2021-12-24 15:52:51.843958,-4
2021-12-24 15:52:51.980015,18
2021-12-24 15:52:51.980045,29
2021-12-24 15:52:51.980057,34
2021-12-24 15:52:51.980067,9
2021-12-24 15:52:51.980077,-6
2021-12-24 15:52:51.980086,22
2021-12-24 15:52:51.980096,48
2021-12-24 15:52:51.980106,55
2021-12-24 15:52:51.980116,57
2021-12-24 15:52:51.980126,48
2021-12-24 15:52:51.980135,34
2021-12-24 15:52:51.980145,20
2021-12-24 15:52:51.980155,13
2021-12-24 15:52:51.980165,29
2021-12-24 15:52:51.980175,18
2021-12-24 15:52:51.980185,-27
2021-12-24 15:52:51.980195,-29
2021-12-24 15:52:51.980204,9
2021-12-24 15:52:51.980214,32
2021-12-24 15:52:51.980224,36
2021-12-24 15:52:51.980234,22
2021-12-24 15:52:51.980244,-11
2021-12-24 15:52:51.980253,0
2021-12-24 15:52:51.980263,55
2021-12-24 15:52:51.980273,137
2021-12-24 15:52:51.980283,216
2021-12-24 15:52:51.980293,156
2021-12-24 15:52:51.980303,-82
2021-12-24 15:52:51.980312,-213
2021-12-24 15:52:51.980322,-66
2021-12-24 15:52:52.205016,68
2021-12-24 15:52:52.205046,64
2021-12-24 15:52:52.205058,68
2021-12-24 15:52:52.205068,85
2021-12-24 15:52:52.205078,82
2021-12-24 15:52:52.205088,103
2021-12-24 15:52:52.205098,121
2021-12-24 15:52:52.205108,117
2021-12-24 15:52:52.205117,87
2021-12-24 15:52:52.205127,41
2021-12-24 15:52:52.205137,6
2021-12-24 15:52:52.205147,4
2021-12-24 15:52:52.205156,18
2021-12-24 15:52:52.205166,-2
2021-12-24 15:52:52.205176,-55
2021-12-24 15:52:52.205186,-59
2021-12-24 15:52:52.205196,-18
2021-12-24 15:52:52.205206,6
2021-12-24 15:52:52.205216,20
2021-12-24 15:52:52.205226,39
2021-12-24 15:52:52.205235,45
2021-12-24 15:52:52.205245,55
2021-12-24 15:52:52.205255,80
2021-12-24 15:52:52.205265,98
2021-12-24 15:52:52.205275,110
2021-12-24 15:52:52.205285,131
2021-12-24 15:52:52.205294,137
2021-12-24 15:52:52.205304,135
2021-12-24 15:52:52.205314,149
2021-12-24 15:52:52.205324,170
2021-12-24 15:52:52.475004,172
2021-12-24 15:52:52.475035,147
2021-12-24 15:52:52.475046,110
2021-12-24 15:52:52.475056,82
2021-12-24 15:52:52.475066,73
2021-12-24 15:52:52.475076,66
2021-12-24 15:52:52.475085,50
2021-12-24 15:52:52.475095,16
2021-12-24 15:52:52.475104,-20
2021-12-24 15:52:52.475114,-18
2021-12-24 15:52:52.475124,0
2021-12-24 15:52:52.475134,4
2021-12-24 15:52:52.475143,2
2021-12-24 15:52:52.475153,-22
2021-12-24 15:52:52.475163,-66
2021-12-24 15:52:52.475172,-91
2021-12-24 15:52:52.475182,-94
2021-12-24 15:52:52.475191,-78
2021-12-24 15:52:52.475201,-78
2021-12-24 15:52:52.475211,-110
2021-12-24 15:52:52.475220,-124
2021-12-24 15:52:52.475230,-119
2021-12-24 15:52:52.475240,-121
2021-12-24 15:52:52.475249,-112
2021-12-24 15:52:52.475259,-101
2021-12-24 15:52:52.475269,-103
2021-12-24 15:52:52.475278,-103
2021-12-24 15:52:52.475288,-98
2021-12-24 15:52:52.475297,-96
2021-12-24 15:52:52.475307,-80
2021-12-24 15:52:52.700017,-68
2021-12-24 15:52:52.700047,-78
2021-12-24 15:52:52.700058,-75
2021-12-24 15:52:52.700069,-64
2021-12-24 15:52:52.700078,-59
2021-12-24 15:52:52.700088,-50
2021-12-24 15:52:52.700098,-57
2021-12-24 15:52:52.700108,-82
2021-12-24 15:52:52.700118,-78
2021-12-24 15:52:52.700127,-62
2021-12-24 15:52:52.700137,-62
2021-12-24 15:52:52.700147,-52
2021-12-24 15:52:52.700157,-52
2021-12-24 15:52:52.700167,-66
2021-12-24 15:52:52.700177,-57
2021-12-24 15:52:52.700186,-55
2021-12-24 15:52:52.700196,-101
2021-12-24 15:52:52.700206,-147
2021-12-24 15:52:52.700216,-160
2021-12-24 15:52:52.700226,-158
2021-12-24 15:52:52.700236,-149
2021-12-24 15:52:52.700246,-142
2021-12-24 15:52:52.700256,-135
2021-12-24 15:52:52.700266,-119
2021-12-24 15:52:52.700276,-114
2021-12-24 15:52:52.700286,-110
2021-12-24 15:52:52.700296,-91
2021-12-24 15:52:52.700306,-82
2021-12-24 15:52:52.700315,-82
2021-12-24 15:52:52.700325,-64
2021-12-24 15:52:52.880003,-43
2021-12-24 15:52:52.880034,-34
2021-12-24 15:52:52.880045,-6
2021-12-24 15:52:52.880055,52
2021-12-24 15:52:52.880065,142
2021-12-24 15:52:52.880075,163
2021-12-24 15:52:52.880085,-6
2021-12-24 15:52:52.880095,-229
2021-12-24 15:52:52.880104,-200
2021-12-24 15:52:52.880114,-25
2021-12-24 15:52:52.880124,20
2021-12-24 15:52:52.880134,2
2021-12-24 15:52:52.880143,11
2021-12-24 15:52:52.880153,6
2021-12-24 15:52:52.880163,9
2021-12-24 15:52:52.880172,27
2021-12-24 15:52:52.880182,29
2021-12-24 15:52:52.880192,18
2021-12-24 15:52:52.880201,2
2021-12-24 15:52:52.880211,-16
2021-12-24 15:52:52.880221,-27
2021-12-24 15:52:52.880231,-22
2021-12-24 15:52:52.880240,-11
2021-12-24 15:52:52.880250,-6
2021-12-24 15:52:52.880260,4
2021-12-24 15:52:52.880270,22
2021-12-24 15:52:52.880280,34
2021-12-24 15:52:52.880289,41
2021-12-24 15:52:52.880299,55
2021-12-24 15:52:52.880309,71
2021-12-24 15:52:53.148978,87
2021-12-24 15:52:53.148999,110
2021-12-24 15:52:53.149006,126
2021-12-24 15:52:53.149013,131
2021-12-24 15:52:53.149019,137
2021-12-24 15:52:53.149025,128
2021-12-24 15:52:53.149032,114
2021-12-24 15:52:53.149038,135
2021-12-24 15:52:53.149044,149
2021-12-24 15:52:53.149050,133
2021-12-24 15:52:53.149057,114
2021-12-24 15:52:53.149063,87
2021-12-24 15:52:53.149069,52
2021-12-24 15:52:53.149076,48
2021-12-24 15:52:53.149084,39
2021-12-24 15:52:53.149091,13
2021-12-24 15:52:53.149098,0
2021-12-24 15:52:53.149105,-2
2021-12-24 15:52:53.149111,0
2021-12-24 15:52:53.149117,16
2021-12-24 15:52:53.149124,18
2021-12-24 15:52:53.149130,-20
2021-12-24 15:52:53.149136,-68
2021-12-24 15:52:53.149142,-66
2021-12-24 15:52:53.149149,-36
2021-12-24 15:52:53.149155,-27
2021-12-24 15:52:53.149161,-18
2021-12-24 15:52:53.149168,-11
2021-12-24 15:52:53.149174,-13
2021-12-24 15:52:53.149180,-4
2021-12-24 15:52:53.373929,16
2021-12-24 15:52:53.373957,32
2021-12-24 15:52:53.373971,39
2021-12-24 15:52:53.373983,29
2021-12-24 15:52:53.373996,9
2021-12-24 15:52:53.374008,-9
2021-12-24 15:52:53.374020,0
2021-12-24 15:52:53.374032,22
2021-12-24 15:52:53.374044,22
2021-12-24 15:52:53.374056,-4
2021-12-24 15:52:53.374068,-41
2021-12-24 15:52:53.374080,-62
2021-12-24 15:52:53.374092,-52
2021-12-24 15:52:53.374104,-41
2021-12-24 15:52:53.374116,-57
2021-12-24 15:52:53.374196,-82
2021-12-24 15:52:53.374206,-103
2021-12-24 15:52:53.374214,-121
2021-12-24 15:52:53.374220,-128
2021-12-24 15:52:53.374227,-114
2021-12-24 15:52:53.374233,-103
2021-12-24 15:52:53.374240,-108
2021-12-24 15:52:53.374246,-119
2021-12-24 15:52:53.374252,-137
2021-12-24 15:52:53.374262,-151
2021-12-24 15:52:53.374269,-133
2021-12-24 15:52:53.374275,-114
2021-12-24 15:52:53.374294,-117
2021-12-24 15:52:53.374299,-124
2021-12-24 15:52:53.374305,-110
2021-12-24 15:52:53.599402,-82
2021-12-24 15:52:53.599431,-59
2021-12-24 15:52:53.599442,-55
2021-12-24 15:52:53.599452,-78
2021-12-24 15:52:53.599462,-103
2021-12-24 15:52:53.599478,-94
2021-12-24 15:52:53.599488,-62
2021-12-24 15:52:53.599498,-45
2021-12-24 15:52:53.599507,-45
2021-12-24 15:52:53.599517,-68
2021-12-24 15:52:53.599526,-91
2021-12-24 15:52:53.599536,-71
2021-12-24 15:52:53.599546,-43
2021-12-24 15:52:53.599555,-29
2021-12-24 15:52:53.599565,-22
2021-12-24 15:52:53.599574,-29
2021-12-24 15:52:53.599584,-39
2021-12-24 15:52:53.599593,-9
2021-12-24 15:52:53.599603,34
2021-12-24 15:52:53.599613,41
2021-12-24 15:52:53.599622,22
2021-12-24 15:52:53.599632,9
2021-12-24 15:52:53.599641,11
2021-12-24 15:52:53.599651,32
2021-12-24 15:52:53.599660,41
2021-12-24 15:52:53.599670,29
2021-12-24 15:52:53.599679,2
2021-12-24 15:52:53.599689,-39
2021-12-24 15:52:53.599699,-59
2021-12-24 15:52:53.599708,-29
2021-12-24 15:52:53.868793,9
2021-12-24 15:52:53.868823,55
2021-12-24 15:52:53.868835,135
2021-12-24 15:52:53.868845,167
2021-12-24 15:52:53.868855,64
2021-12-24 15:52:53.868865,-126
2021-12-24 15:52:53.868874,-190
2021-12-24 15:52:53.868884,-64
2021-12-24 15:52:53.868894,20
2021-12-24 15:52:53.868903,-16
2021-12-24 15:52:53.868913,-13
2021-12-24 15:52:53.868923,32
2021-12-24 15:52:53.868933,48
2021-12-24 15:52:53.868942,55
2021-12-24 15:52:53.868952,45
2021-12-24 15:52:53.868962,11
2021-12-24 15:52:53.868971,11
2021-12-24 15:52:53.868981,41
2021-12-24 15:52:53.868991,50
2021-12-24 15:52:53.869000,39
2021-12-24 15:52:53.869010,16
2021-12-24 15:52:53.869020,-6
2021-12-24 15:52:53.869029,-18
2021-12-24 15:52:53.869039,-20
2021-12-24 15:52:53.869049,-6
2021-12-24 15:52:53.869059,11
2021-12-24 15:52:53.869068,20
2021-12-24 15:52:53.869078,4
2021-12-24 15:52:53.869088,-13
2021-12-24 15:52:53.869097,2
2021-12-24 15:52:54.093894,36
2021-12-24 15:52:54.093916,52
2021-12-24 15:52:54.093924,48
2021-12-24 15:52:54.093930,45
2021-12-24 15:52:54.093937,64
2021-12-24 15:52:54.093943,89
2021-12-24 15:52:54.093950,101
2021-12-24 15:52:54.093956,96
2021-12-24 15:52:54.093962,66
2021-12-24 15:52:54.093969,29
2021-12-24 15:52:54.093975,32
2021-12-24 15:52:54.093981,39
2021-12-24 15:52:54.093988,22
2021-12-24 15:52:54.093994,2
2021-12-24 15:52:54.094001,-36
2021-12-24 15:52:54.094007,-71
2021-12-24 15:52:54.094013,-59
2021-12-24 15:52:54.094020,-29
2021-12-24 15:52:54.094026,-16
2021-12-24 15:52:54.094032,-11
2021-12-24 15:52:54.094039,-18
2021-12-24 15:52:54.094045,-18
2021-12-24 15:52:54.094052,2
2021-12-24 15:52:54.094058,22
2021-12-24 15:52:54.094064,32
2021-12-24 15:52:54.094071,32
2021-12-24 15:52:54.094077,29
2021-12-24 15:52:54.094083,29
2021-12-24 15:52:54.094090,39
2021-12-24 15:52:54.094096,34
2021-12-24 15:52:54.364400,20
2021-12-24 15:52:54.364430,20
2021-12-24 15:52:54.364442,13
2021-12-24 15:52:54.364452,-34
2021-12-24 15:52:54.364461,-64
2021-12-24 15:52:54.364471,-29
2021-12-24 15:52:54.364481,-2
2021-12-24 15:52:54.364490,-29
2021-12-24 15:52:54.364500,-57
2021-12-24 15:52:54.364510,-43
2021-12-24 15:52:54.364520,-18
2021-12-24 15:52:54.364530,-2
2021-12-24 15:52:54.364539,6
2021-12-24 15:52:54.364549,-11
2021-12-24 15:52:54.364559,-36
2021-12-24 15:52:54.364569,-25
2021-12-24 15:52:54.364579,2
2021-12-24 15:52:54.364588,20
2021-12-24 15:52:54.364598,20
2021-12-24 15:52:54.364608,11
2021-12-24 15:52:54.364617,16
2021-12-24 15:52:54.364627,32
2021-12-24 15:52:54.364637,45
2021-12-24 15:52:54.364646,57
2021-12-24 15:52:54.364656,68
2021-12-24 15:52:54.364666,68
2021-12-24 15:52:54.364675,64
2021-12-24 15:52:54.364685,64
2021-12-24 15:52:54.364695,73
2021-12-24 15:52:54.364704,85
2021-12-24 15:52:54.499968,89
2021-12-24 15:52:54.499998,78
2021-12-24 15:52:54.500010,64
2021-12-24 15:52:54.500020,64
2021-12-24 15:52:54.500030,80
2021-12-24 15:52:54.500040,89
2021-12-24 15:52:54.500050,78
2021-12-24 15:52:54.500059,57
2021-12-24 15:52:54.500069,57
2021-12-24 15:52:54.500079,73
2021-12-24 15:52:54.500088,91
2021-12-24 15:52:54.500098,110
2021-12-24 15:52:54.500108,94
2021-12-24 15:52:54.500117,57
2021-12-24 15:52:54.500127,50
2021-12-24 15:52:54.500137,59
2021-12-24 15:52:54.500147,57
2021-12-24 15:52:54.500156,62
2021-12-24 15:52:54.500166,66
2021-12-24 15:52:54.500176,57
2021-12-24 15:52:54.500186,57
2021-12-24 15:52:54.500195,68
2021-12-24 15:52:54.500205,85
2021-12-24 15:52:54.500215,96
2021-12-24 15:52:54.500224,108
2021-12-24 15:52:54.500234,167
2021-12-24 15:52:54.500244,252
2021-12-24 15:52:54.500253,220
2021-12-24 15:52:54.500263,6
2021-12-24 15:52:54.500273,-156
2021-12-24 15:52:54.770550,-66
2021-12-24 15:52:54.770573,68
2021-12-24 15:52:54.770581,75
2021-12-24 15:52:54.770588,62
2021-12-24 15:52:54.770594,66
2021-12-24 15:52:54.770601,50
2021-12-24 15:52:54.770607,29
2021-12-24 15:52:54.770613,29
2021-12-24 15:52:54.770619,13
2021-12-24 15:52:54.770626,-34
2021-12-24 15:52:54.770632,-36
2021-12-24 15:52:54.770639,-13
2021-12-24 15:52:54.770645,-36
2021-12-24 15:52:54.770651,-36
2021-12-24 15:52:54.770657,-4
2021-12-24 15:52:54.770664,0
2021-12-24 15:52:54.770670,0
2021-12-24 15:52:54.770677,13
2021-12-24 15:52:54.770683,11
2021-12-24 15:52:54.770689,16
2021-12-24 15:52:54.770696,41
2021-12-24 15:52:54.770702,57
2021-12-24 15:52:54.770709,66
2021-12-24 15:52:54.770715,64
2021-12-24 15:52:54.770722,55
2021-12-24 15:52:54.770729,71
2021-12-24 15:52:54.770735,91
2021-12-24 15:52:54.770742,91
2021-12-24 15:52:54.770749,87
2021-12-24 15:52:54.770755,75
2021-12-24 15:52:54.950001,52
2021-12-24 15:52:54.950031,32
2021-12-24 15:52:54.950042,13
2021-12-24 15:52:54.950052,-18
2021-12-24 15:52:54.950062,-50
2021-12-24 15:52:54.950072,-78
2021-12-24 15:52:54.950081,-117
2021-12-24 15:52:54.950091,-133
2021-12-24 15:52:54.950101,-121
2021-12-24 15:52:54.950110,-121
2021-12-24 15:52:54.950120,-142
2021-12-24 15:52:54.950130,-165
2021-12-24 15:52:54.950140,-167
2021-12-24 15:52:54.950150,-142
2021-12-24 15:52:54.950159,-133
2021-12-24 15:52:54.950169,-142
2021-12-24 15:52:54.950179,-142
2021-12-24 15:52:54.950189,-149
2021-12-24 15:52:54.950198,-149
2021-12-24 15:52:54.950208,-124
2021-12-24 15:52:54.950218,-112
2021-12-24 15:52:54.950227,-114
2021-12-24 15:52:54.950237,-96
2021-12-24 15:52:54.950247,-87
2021-12-24 15:52:54.950257,-87
2021-12-24 15:52:54.950267,-64
2021-12-24 15:52:54.950276,-45
2021-12-24 15:52:54.950286,-48
2021-12-24 15:52:54.950296,-55
2021-12-24 15:52:54.950306,-45
2021-12-24 15:52:55.220021,-27
2021-12-24 15:52:55.220043,-11
2021-12-24 15:52:55.220050,-9
2021-12-24 15:52:55.220057,-18
2021-12-24 15:52:55.220064,-39
2021-12-24 15:52:55.220070,-55
2021-12-24 15:52:55.220076,-41
2021-12-24 15:52:55.220083,-36
2021-12-24 15:52:55.220089,-68
2021-12-24 15:52:55.220095,-82
2021-12-24 15:52:55.220102,-78
2021-12-24 15:52:55.220108,-87
2021-12-24 15:52:55.220114,-82
2021-12-24 15:52:55.220121,-87
2021-12-24 15:52:55.220127,-135
2021-12-24 15:52:55.220134,-160
2021-12-24 15:52:55.220140,-140
2021-12-24 15:52:55.220146,-126
2021-12-24 15:52:55.220153,-110
2021-12-24 15:52:55.220159,-82
2021-12-24 15:52:55.220165,-73
2021-12-24 15:52:55.220172,-78
2021-12-24 15:52:55.220178,-68
2021-12-24 15:52:55.220184,-52
2021-12-24 15:52:55.220191,-39
2021-12-24 15:52:55.220197,-22
2021-12-24 15:52:55.220203,-13
2021-12-24 15:52:55.220210,-18
2021-12-24 15:52:55.220216,-25
2021-12-24 15:52:55.220222,-9
2021-12-24 15:52:55.400696,13
2021-12-24 15:52:55.400726,27
2021-12-24 15:52:55.400737,27
2021-12-24 15:52:55.400747,6
2021-12-24 15:52:55.400756,-25
2021-12-24 15:52:55.400766,-22
2021-12-24 15:52:55.400776,9
2021-12-24 15:52:55.400786,29
2021-12-24 15:52:55.400795,29
2021-12-24 15:52:55.400805,13
2021-12-24 15:52:55.400815,-4
2021-12-24 15:52:55.400824,2
2021-12-24 15:52:55.400834,22
2021-12-24 15:52:55.400844,32
2021-12-24 15:52:55.400854,29
2021-12-24 15:52:55.400863,6
2021-12-24 15:52:55.400873,-20
2021-12-24 15:52:55.400883,-4
2021-12-24 15:52:55.400893,22
2021-12-24 15:52:55.400902,29
2021-12-24 15:52:55.400912,34
2021-12-24 15:52:55.400922,27
2021-12-24 15:52:55.400931,18
2021-12-24 15:52:55.400941,36
2021-12-24 15:52:55.400951,57
2021-12-24 15:52:55.400960,64
2021-12-24 15:52:55.400970,64
2021-12-24 15:52:55.400980,50
2021-12-24 15:52:55.400990,48
2021-12-24 15:52:55.400999,75
2021-12-24 15:52:55.759429,94
2021-12-24 15:52:55.759449,91
2021-12-24 15:52:55.759457,78
2021-12-24 15:52:55.759463,34
2021-12-24 15:52:55.759469,-13
2021-12-24 15:52:55.759476,-9
2021-12-24 15:52:55.759482,13
2021-12-24 15:52:55.759488,13
2021-12-24 15:52:55.759494,-16
2021-12-24 15:52:55.759501,-59
2021-12-24 15:52:55.759507,-78
2021-12-24 15:52:55.759513,-82
2021-12-24 15:52:55.759520,-121
2021-12-24 15:52:55.759526,-142
2021-12-24 15:52:55.759532,-133
2021-12-24 15:52:55.759539,-147
2021-12-24 15:52:55.759545,-147
2021-12-24 15:52:55.759551,-117
2021-12-24 15:52:55.759557,-108
2021-12-24 15:52:55.759564,-135
2021-12-24 15:52:55.759570,-179
2021-12-24 15:52:55.759576,-188
2021-12-24 15:52:55.759582,-163
2021-12-24 15:52:55.759589,-140
2021-12-24 15:52:55.759595,-128
2021-12-24 15:52:55.759601,-117
2021-12-24 15:52:55.759608,-110
2021-12-24 15:52:55.759614,-112
2021-12-24 15:52:55.759620,-96
2021-12-24 15:52:55.759626,-66
2021-12-24 15:52:55.938688,-48
2021-12-24 15:52:55.938708,-45
2021-12-24 15:52:55.938716,-48
2021-12-24 15:52:55.938722,-50
2021-12-24 15:52:55.938729,-39
2021-12-24 15:52:55.938735,-25
2021-12-24 15:52:55.938742,-16
2021-12-24 15:52:55.938748,-11
2021-12-24 15:52:55.938754,-34
2021-12-24 15:52:55.938761,-55
2021-12-24 15:52:55.938767,-39
2021-12-24 15:52:55.938773,-16
2021-12-24 15:52:55.938780,-13
2021-12-24 15:52:55.938786,-9
2021-12-24 15:52:55.938793,-9
2021-12-24 15:52:55.938799,-6
2021-12-24 15:52:55.938805,4
2021-12-24 15:52:55.938812,20
2021-12-24 15:52:55.938818,27
2021-12-24 15:52:55.938824,22
2021-12-24 15:52:55.938831,6
2021-12-24 15:52:55.938837,-6
2021-12-24 15:52:55.938843,9
2021-12-24 15:52:55.938850,34
2021-12-24 15:52:55.938856,50
2021-12-24 15:52:55.938862,50
2021-12-24 15:52:55.938869,48
2021-12-24 15:52:55.938875,108
2021-12-24 15:52:55.938881,204
2021-12-24 15:52:55.938888,183
2021-12-24 15:52:56.120025,0
2021-12-24 15:52:56.120055,-135
2021-12-24 15:52:56.120067,-68
2021-12-24 15:52:56.120077,29
2021-12-24 15:52:56.120087,39
2021-12-24 15:52:56.120097,55
2021-12-24 15:52:56.120106,75
2021-12-24 15:52:56.120116,55
2021-12-24 15:52:56.120126,27
2021-12-24 15:52:56.120136,27
2021-12-24 15:52:56.120145,43
2021-12-24 15:52:56.120155,59
2021-12-24 15:52:56.120165,62
2021-12-24 15:52:56.120174,34
2021-12-24 15:52:56.120184,9
2021-12-24 15:52:56.120194,0
2021-12-24 15:52:56.120204,-13
2021-12-24 15:52:56.120214,-11
2021-12-24 15:52:56.120224,18
2021-12-24 15:52:56.120233,20
2021-12-24 15:52:56.120243,2
2021-12-24 15:52:56.120254,16
2021-12-24 15:52:56.120263,45
2021-12-24 15:52:56.120273,68
2021-12-24 15:52:56.120283,87
2021-12-24 15:52:56.120293,75
2021-12-24 15:52:56.120302,39
2021-12-24 15:52:56.120312,34
2021-12-24 15:52:56.120322,66
2021-12-24 15:52:56.120331,85
2021-12-24 15:52:56.345196,87
2021-12-24 15:52:56.345227,91
2021-12-24 15:52:56.345239,98
2021-12-24 15:52:56.345249,96
2021-12-24 15:52:56.345259,98
2021-12-24 15:52:56.345268,110
2021-12-24 15:52:56.345278,91
2021-12-24 15:52:56.345288,48
2021-12-24 15:52:56.345298,29
2021-12-24 15:52:56.345308,25
2021-12-24 15:52:56.345317,13
2021-12-24 15:52:56.345327,13
2021-12-24 15:52:56.345337,0
2021-12-24 15:52:56.345347,-27
2021-12-24 15:52:56.345357,-25
2021-12-24 15:52:56.345367,-9
2021-12-24 15:52:56.345377,-2
2021-12-24 15:52:56.345386,-4
2021-12-24 15:52:56.345396,-29
2021-12-24 15:52:56.345406,-45
2021-12-24 15:52:56.345416,-27
2021-12-24 15:52:56.345426,-16
2021-12-24 15:52:56.345436,-6
2021-12-24 15:52:56.345445,16
2021-12-24 15:52:56.345455,16
2021-12-24 15:52:56.345465,11
2021-12-24 15:52:56.345475,27
2021-12-24 15:52:56.345484,34
2021-12-24 15:52:56.345494,16
2021-12-24 15:52:56.345504,2
2021-12-24 15:52:56.569981,4
2021-12-24 15:52:56.570012,9
2021-12-24 15:52:56.570024,4
2021-12-24 15:52:56.570034,-13
2021-12-24 15:52:56.570044,-29
2021-12-24 15:52:56.570053,-48
2021-12-24 15:52:56.570063,-91
2021-12-24 15:52:56.570073,-121
2021-12-24 15:52:56.570083,-103
2021-12-24 15:52:56.570092,-91
2021-12-24 15:52:56.570102,-94
2021-12-24 15:52:56.570112,-89
2021-12-24 15:52:56.570121,-112
2021-12-24 15:52:56.570131,-121
2021-12-24 15:52:56.570141,-96
2021-12-24 15:52:56.570151,-85
2021-12-24 15:52:56.570160,-82
2021-12-24 15:52:56.570170,-80
2021-12-24 15:52:56.570180,-85
2021-12-24 15:52:56.570189,-87
2021-12-24 15:52:56.570199,-98
2021-12-24 15:52:56.570209,-108
2021-12-24 15:52:56.570218,-91
2021-12-24 15:52:56.570228,-78
2021-12-24 15:52:56.570238,-75
2021-12-24 15:52:56.570247,-59
2021-12-24 15:52:56.570257,-39
2021-12-24 15:52:56.570267,-36
2021-12-24 15:52:56.570276,-25
2021-12-24 15:52:56.570286,-13
2021-12-24 15:52:56.794993,-36
2021-12-24 15:52:56.795023,-73
2021-12-24 15:52:56.795035,-85
2021-12-24 15:52:56.795045,-71
2021-12-24 15:52:56.795054,-71
2021-12-24 15:52:56.795064,-91
2021-12-24 15:52:56.795074,-98
2021-12-24 15:52:56.795084,-68
2021-12-24 15:52:56.795187,-43
2021-12-24 15:52:56.795199,-29
2021-12-24 15:52:56.795209,-18
2021-12-24 15:52:56.795219,-41
2021-12-24 15:52:56.795229,-66
2021-12-24 15:52:56.795238,-43
2021-12-24 15:52:56.795248,-18
2021-12-24 15:52:56.795258,-18
2021-12-24 15:52:56.795268,-25
2021-12-24 15:52:56.795278,-22
2021-12-24 15:52:56.795288,-6
2021-12-24 15:52:56.795297,11
2021-12-24 15:52:56.795307,20
2021-12-24 15:52:56.795317,13
2021-12-24 15:52:56.795327,6
2021-12-24 15:52:56.795337,48
2021-12-24 15:52:56.795346,140
2021-12-24 15:52:56.795356,174
2021-12-24 15:52:56.795366,29
2021-12-24 15:52:56.795375,-186
2021-12-24 15:52:56.795385,-190
2021-12-24 15:52:56.795395,-32
2021-12-24 15:52:57.019993,27
2021-12-24 15:52:57.020014,29
2021-12-24 15:52:57.020021,78
2021-12-24 15:52:57.020028,87
2021-12-24 15:52:57.020034,45
2021-12-24 15:52:57.020041,34
2021-12-24 15:52:57.020047,57
2021-12-24 15:52:57.020054,75
2021-12-24 15:52:57.020060,78
2021-12-24 15:52:57.020066,75
2021-12-24 15:52:57.020073,59
2021-12-24 15:52:57.020079,43
2021-12-24 15:52:57.020085,62
2021-12-24 15:52:57.020092,85
2021-12-24 15:52:57.020098,78
2021-12-24 15:52:57.020105,73
2021-12-24 15:52:57.020111,82
2021-12-24 15:52:57.020117,94
2021-12-24 15:52:57.020124,112
2021-12-24 15:52:57.020130,131
2021-12-24 15:52:57.020136,142
2021-12-24 15:52:57.020143,140
2021-12-24 15:52:57.020149,133
2021-12-24 15:52:57.020155,135
2021-12-24 15:52:57.020162,133
2021-12-24 15:52:57.020168,137
2021-12-24 15:52:57.020174,158
2021-12-24 15:52:57.020181,163
2021-12-24 15:52:57.020187,158
2021-12-24 15:52:57.020194,172
2021-12-24 15:52:57.334495,177
2021-12-24 15:52:57.334526,167
2021-12-24 15:52:57.334537,156
2021-12-24 15:52:57.334547,114
2021-12-24 15:52:57.334557,45
2021-12-24 15:52:57.334566,-2
2021-12-24 15:52:57.334576,-41
2021-12-24 15:52:57.334586,-94
2021-12-24 15:52:57.334596,-121
2021-12-24 15:52:57.334606,-137
2021-12-24 15:52:57.334615,-177
2021-12-24 15:52:57.334625,-183
2021-12-24 15:52:57.334635,-165
2021-12-24 15:52:57.334645,-181
2021-12-24 15:52:57.334654,-188
2021-12-24 15:52:57.334664,-177
2021-12-24 15:52:57.334674,-183
2021-12-24 15:52:57.334684,-179
2021-12-24 15:52:57.334693,-154
2021-12-24 15:52:57.334703,-133
2021-12-24 15:52:57.334713,-126
2021-12-24 15:52:57.334723,-128
2021-12-24 15:52:57.334732,-126
2021-12-24 15:52:57.334742,-103
2021-12-24 15:52:57.334752,-80
2021-12-24 15:52:57.334762,-85
2021-12-24 15:52:57.334771,-114
2021-12-24 15:52:57.334781,-142
2021-12-24 15:52:57.334791,-135
2021-12-24 15:52:57.334801,-112
2021-12-24 15:52:57.515173,-94
2021-12-24 15:52:57.515203,-85
2021-12-24 15:52:57.515214,-91
2021-12-24 15:52:57.515224,-117
2021-12-24 15:52:57.515233,-114
2021-12-24 15:52:57.515243,-75
2021-12-24 15:52:57.515253,-57
2021-12-24 15:52:57.515262,-59
2021-12-24 15:52:57.515272,-59
2021-12-24 15:52:57.515282,-73
2021-12-24 15:52:57.515291,-73
2021-12-24 15:52:57.515301,-48
2021-12-24 15:52:57.515311,-32
2021-12-24 15:52:57.515320,-22
2021-12-24 15:52:57.515330,-34
2021-12-24 15:52:57.515340,-66
2021-12-24 15:52:57.515349,-59
2021-12-24 15:52:57.515359,-18
2021-12-24 15:52:57.515368,6
2021-12-24 15:52:57.515378,11
2021-12-24 15:52:57.515388,-4
2021-12-24 15:52:57.515397,-29
2021-12-24 15:52:57.515407,-25
2021-12-24 15:52:57.515417,-4
2021-12-24 15:52:57.515426,6
2021-12-24 15:52:57.515436,18
2021-12-24 15:52:57.515446,18
2021-12-24 15:52:57.515456,-9
2021-12-24 15:52:57.515465,-29
2021-12-24 15:52:57.515475,-20
2021-12-24 15:52:57.918806,-2
2021-12-24 15:52:57.918828,13
2021-12-24 15:52:57.918835,48
2021-12-24 15:52:57.918841,112
2021-12-24 15:52:57.918848,172
2021-12-24 15:52:57.918854,103
2021-12-24 15:52:57.918860,-112
2021-12-24 15:52:57.918866,-220
2021-12-24 15:52:57.918873,-108
2021-12-24 15:52:57.918879,-22
2021-12-24 15:52:57.918885,-20
2021-12-24 15:52:57.918892,18
2021-12-24 15:52:57.918898,25
2021-12-24 15:52:57.918904,-41
2021-12-24 15:52:57.918911,-89
2021-12-24 15:52:57.918917,-82
2021-12-24 15:52:57.918924,-64
2021-12-24 15:52:57.918930,-45
2021-12-24 15:52:57.918936,-20
2021-12-24 15:52:57.918942,-6
2021-12-24 15:52:57.918949,-18
2021-12-24 15:52:57.918955,-22
2021-12-24 15:52:57.918961,0
2021-12-24 15:52:57.918967,27
2021-12-24 15:52:57.918974,43
2021-12-24 15:52:57.918980,48
2021-12-24 15:52:57.918986,43
2021-12-24 15:52:57.918993,43
2021-12-24 15:52:57.918999,57
2021-12-24 15:52:57.919005,71
2021-12-24 15:52:58.054256,64
2021-12-24 15:52:58.054287,52
2021-12-24 15:52:58.054299,57
2021-12-24 15:52:58.054308,62
2021-12-24 15:52:58.054318,73
2021-12-24 15:52:58.054328,105
2021-12-24 15:52:58.054337,126
2021-12-24 15:52:58.054347,112
2021-12-24 15:52:58.054356,82
2021-12-24 15:52:58.054366,87
2021-12-24 15:52:58.054376,103
2021-12-24 15:52:58.054385,85
2021-12-24 15:52:58.054395,52
2021-12-24 15:52:58.054404,9
2021-12-24 15:52:58.054414,-57
