Time,ECG
2021-12-24 15:42:24.367511,57
2021-12-24 15:42:24.367533,16
2021-12-24 15:42:24.367540,9
2021-12-24 15:42:24.367547,13
2021-12-24 15:42:24.367553,-22
2021-12-24 15:42:24.367560,-32
2021-12-24 15:42:24.367567,2
2021-12-24 15:42:24.367573,16
2021-12-24 15:42:24.367580,9
2021-12-24 15:42:24.367587,4
2021-12-24 15:42:24.367593,-6
2021-12-24 15:42:24.367600,4
2021-12-24 15:42:24.367606,36
2021-12-24 15:42:24.367612,62
2021-12-24 15:42:24.367619,66
2021-12-24 15:42:24.367625,39
2021-12-24 15:42:24.367632,-2
2021-12-24 15:42:24.367638,-2
2021-12-24 15:42:24.367645,27
2021-12-24 15:42:24.367651,39
2021-12-24 15:42:24.367658,20
2021-12-24 15:42:24.367664,-16
2021-12-24 15:42:24.367671,-29
2021-12-24 15:42:24.367677,0
2021-12-24 15:42:24.367684,25
2021-12-24 15:42:24.367690,32
2021-12-24 15:42:24.367697,39
2021-12-24 15:42:24.367703,45
2021-12-24 15:42:24.367710,91
2021-12-24 15:42:24.367716,197
2021-12-24 15:42:24.638107,236
2021-12-24 15:42:24.638128,64
2021-12-24 15:42:24.638135,-190
2021-12-24 15:42:24.638142,-223
2021-12-24 15:42:24.638148,-71
2021-12-24 15:42:24.638155,-9
2021-12-24 15:42:24.638162,-2
2021-12-24 15:42:24.638169,41
2021-12-24 15:42:24.638175,41
2021-12-24 15:42:24.638181,-18
2021-12-24 15:42:24.638188,-52
2021-12-24 15:42:24.638194,-39
2021-12-24 15:42:24.638200,-43
2021-12-24 15:42:24.638207,-55
2021-12-24 15:42:24.638213,-45
2021-12-24 15:42:24.638219,-52
2021-12-24 15:42:24.638226,-55
2021-12-24 15:42:24.638233,-32
2021-12-24 15:42:24.638239,-11
2021-12-24 15:42:24.638246,-2
2021-12-24 15:42:24.638252,-4
2021-12-24 15:42:24.638258,-18
2021-12-24 15:42:24.638265,-27
2021-12-24 15:42:24.638271,-29
2021-12-24 15:42:24.638277,-16
2021-12-24 15:42:24.638284,16
2021-12-24 15:42:24.638290,32
2021-12-24 15:42:24.638297,29
2021-12-24 15:42:24.638303,48
2021-12-24 15:42:24.638311,78
2021-12-24 15:42:24.951671,96
2021-12-24 15:42:24.951701,110
2021-12-24 15:42:24.951712,108
2021-12-24 15:42:24.951722,82
2021-12-24 15:42:24.951732,64
2021-12-24 15:42:24.951742,62
2021-12-24 15:42:24.951752,25
2021-12-24 15:42:24.951761,-52
2021-12-24 15:42:24.951771,-124
2021-12-24 15:42:24.951781,-151
2021-12-24 15:42:24.951791,-142
2021-12-24 15:42:24.951800,-119
2021-12-24 15:42:24.951810,-105
2021-12-24 15:42:24.951826,-103
2021-12-24 15:42:24.951836,-126
2021-12-24 15:42:24.951846,-149
2021-12-24 15:42:24.951856,-128
2021-12-24 15:42:24.951866,-94
2021-12-24 15:42:24.951875,-78
2021-12-24 15:42:24.951885,-64
2021-12-24 15:42:24.951895,-59
2021-12-24 15:42:24.951905,-62
2021-12-24 15:42:24.951914,-45
2021-12-24 15:42:24.951924,-20
2021-12-24 15:42:24.951934,-20
2021-12-24 15:42:24.951944,-45
2021-12-24 15:42:24.951953,-62
2021-12-24 15:42:24.951963,-55
2021-12-24 15:42:24.951973,-36
2021-12-24 15:42:24.951985,-18
2021-12-24 15:42:25.132351,-2
2021-12-24 15:42:25.132381,4
2021-12-24 15:42:25.132393,0
2021-12-24 15:42:25.132405,-4
2021-12-24 15:42:25.132415,11
2021-12-24 15:42:25.132425,29
2021-12-24 15:42:25.132435,43
2021-12-24 15:42:25.132444,32
2021-12-24 15:42:25.132454,-4
2021-12-24 15:42:25.132464,-13
2021-12-24 15:42:25.132474,13
2021-12-24 15:42:25.132484,36
2021-12-24 15:42:25.132494,45
2021-12-24 15:42:25.132503,52
2021-12-24 15:42:25.132513,55
2021-12-24 15:42:25.132523,50
2021-12-24 15:42:25.132533,59
2021-12-24 15:42:25.132548,78
2021-12-24 15:42:25.132558,85
2021-12-24 15:42:25.132568,57
2021-12-24 15:42:25.132578,22
2021-12-24 15:42:25.132587,27
2021-12-24 15:42:25.132597,52
2021-12-24 15:42:25.132607,68
2021-12-24 15:42:25.132617,75
2021-12-24 15:42:25.132626,85
2021-12-24 15:42:25.132636,71
2021-12-24 15:42:25.132646,41
2021-12-24 15:42:25.132656,32
2021-12-24 15:42:25.132665,45
2021-12-24 15:42:25.312959,39
2021-12-24 15:42:25.312980,16
2021-12-24 15:42:25.312988,9
2021-12-24 15:42:25.312994,13
2021-12-24 15:42:25.313000,25
2021-12-24 15:42:25.313007,32
2021-12-24 15:42:25.313013,-4
2021-12-24 15:42:25.313025,-62
2021-12-24 15:42:25.313031,-82
2021-12-24 15:42:25.313038,-50
2021-12-24 15:42:25.313044,34
2021-12-24 15:42:25.313050,82
2021-12-24 15:42:25.313057,-85
2021-12-24 15:42:25.313063,-379
2021-12-24 15:42:25.313069,-420
2021-12-24 15:42:25.313076,-234
2021-12-24 15:42:25.313082,-156
2021-12-24 15:42:25.313089,-158
2021-12-24 15:42:25.313095,-124
2021-12-24 15:42:25.313101,-117
2021-12-24 15:42:25.313108,-126
2021-12-24 15:42:25.313114,-105
2021-12-24 15:42:25.313121,-87
2021-12-24 15:42:25.313127,-78
2021-12-24 15:42:25.313133,-75
2021-12-24 15:42:25.313140,-80
2021-12-24 15:42:25.313146,-73
2021-12-24 15:42:25.313152,-62
2021-12-24 15:42:25.313159,-68
2021-12-24 15:42:25.313166,-85
2021-12-24 15:42:25.537911,-89
2021-12-24 15:42:25.537940,-71
2021-12-24 15:42:25.537952,-43
2021-12-24 15:42:25.537962,-27
2021-12-24 15:42:25.537972,-13
2021-12-24 15:42:25.537982,0
2021-12-24 15:42:25.537992,-11
2021-12-24 15:42:25.538002,-25
2021-12-24 15:42:25.538012,0
2021-12-24 15:42:25.538022,25
2021-12-24 15:42:25.538031,39
2021-12-24 15:42:25.538041,57
2021-12-24 15:42:25.538051,48
2021-12-24 15:42:25.538061,36
2021-12-24 15:42:25.538071,59
2021-12-24 15:42:25.538080,68
2021-12-24 15:42:25.538090,52
2021-12-24 15:42:25.538100,41
2021-12-24 15:42:25.538110,25
2021-12-24 15:42:25.538120,13
2021-12-24 15:42:25.538130,16
2021-12-24 15:42:25.538139,11
2021-12-24 15:42:25.538149,4
2021-12-24 15:42:25.538159,11
2021-12-24 15:42:25.538176,13
2021-12-24 15:42:25.538186,20
2021-12-24 15:42:25.538195,34
2021-12-24 15:42:25.538205,39
2021-12-24 15:42:25.538215,43
2021-12-24 15:42:25.538224,52
2021-12-24 15:42:25.762644,41
2021-12-24 15:42:25.762665,18
2021-12-24 15:42:25.762673,16
2021-12-24 15:42:25.762679,27
2021-12-24 15:42:25.762685,29
2021-12-24 15:42:25.762692,13
2021-12-24 15:42:25.762698,-11
2021-12-24 15:42:25.762704,2
2021-12-24 15:42:25.762711,25
2021-12-24 15:42:25.762717,22
2021-12-24 15:42:25.762723,18
2021-12-24 15:42:25.762729,9
2021-12-24 15:42:25.762735,-9
2021-12-24 15:42:25.762742,2
2021-12-24 15:42:25.762748,20
2021-12-24 15:42:25.762754,20
2021-12-24 15:42:25.762760,18
2021-12-24 15:42:25.762767,9
2021-12-24 15:42:25.762773,-20
2021-12-24 15:42:25.762779,-55
2021-12-24 15:42:25.762786,-57
2021-12-24 15:42:25.762792,-39
2021-12-24 15:42:25.762801,-32
2021-12-24 15:42:25.762808,-32
2021-12-24 15:42:25.762814,-20
2021-12-24 15:42:25.762820,2
2021-12-24 15:42:25.762826,13
2021-12-24 15:42:25.762833,13
2021-12-24 15:42:25.762839,18
2021-12-24 15:42:25.762845,27
2021-12-24 15:42:26.032826,29
2021-12-24 15:42:26.032855,22
2021-12-24 15:42:26.032867,0
2021-12-24 15:42:26.032877,-32
2021-12-24 15:42:26.032886,-62
2021-12-24 15:42:26.032896,-85
2021-12-24 15:42:26.032906,-98
2021-12-24 15:42:26.032915,-98
2021-12-24 15:42:26.032925,-105
2021-12-24 15:42:26.032935,-131
2021-12-24 15:42:26.032944,-160
2021-12-24 15:42:26.032954,-174
2021-12-24 15:42:26.032963,-158
2021-12-24 15:42:26.032973,-135
2021-12-24 15:42:26.032983,-126
2021-12-24 15:42:26.032992,-128
2021-12-24 15:42:26.033002,-126
2021-12-24 15:42:26.033011,-105
2021-12-24 15:42:26.033021,-71
2021-12-24 15:42:26.033031,-45
2021-12-24 15:42:26.033040,-36
2021-12-24 15:42:26.033050,-39
2021-12-24 15:42:26.033060,-39
2021-12-24 15:42:26.033069,-34
2021-12-24 15:42:26.033084,-20
2021-12-24 15:42:26.033094,-2
2021-12-24 15:42:26.033104,11
2021-12-24 15:42:26.033114,13
2021-12-24 15:42:26.033123,22
2021-12-24 15:42:26.033133,36
2021-12-24 15:42:26.212786,55
2021-12-24 15:42:26.212807,73
2021-12-24 15:42:26.212814,87
2021-12-24 15:42:26.212820,128
2021-12-24 15:42:26.212845,213
2021-12-24 15:42:26.212855,248
2021-12-24 15:42:26.212865,124
2021-12-24 15:42:26.212874,-91
2021-12-24 15:42:26.212884,-142
2021-12-24 15:42:26.212893,-13
2021-12-24 15:42:26.212903,36
2021-12-24 15:42:26.212913,22
2021-12-24 15:42:26.212923,75
2021-12-24 15:42:26.212932,108
2021-12-24 15:42:26.212942,89
2021-12-24 15:42:26.212952,71
2021-12-24 15:42:26.212961,55
2021-12-24 15:42:26.212971,62
2021-12-24 15:42:26.212981,94
2021-12-24 15:42:26.212990,103
2021-12-24 15:42:26.213000,96
2021-12-24 15:42:26.213009,89
2021-12-24 15:42:26.213019,85
2021-12-24 15:42:26.213028,85
2021-12-24 15:42:26.213038,62
2021-12-24 15:42:26.213048,45
2021-12-24 15:42:26.213057,71
2021-12-24 15:42:26.213067,78
2021-12-24 15:42:26.213077,75
2021-12-24 15:42:26.213086,108
2021-12-24 15:42:26.571534,137
2021-12-24 15:42:26.571553,151
2021-12-24 15:42:26.571561,160
2021-12-24 15:42:26.571567,137
2021-12-24 15:42:26.571573,117
2021-12-24 15:42:26.571580,144
2021-12-24 15:42:26.571586,165
2021-12-24 15:42:26.571592,142
2021-12-24 15:42:26.571599,119
2021-12-24 15:42:26.571605,96
2021-12-24 15:42:26.571611,71
2021-12-24 15:42:26.571618,78
2021-12-24 15:42:26.571624,89
2021-12-24 15:42:26.571631,80
2021-12-24 15:42:26.571637,64
2021-12-24 15:42:26.571643,41
2021-12-24 15:42:26.571650,32
2021-12-24 15:42:26.571656,52
2021-12-24 15:42:26.571662,68
2021-12-24 15:42:26.571669,75
2021-12-24 15:42:26.571675,75
2021-12-24 15:42:26.571681,62
2021-12-24 15:42:26.571688,66
2021-12-24 15:42:26.571694,91
2021-12-24 15:42:26.571700,105
2021-12-24 15:42:26.571706,117
2021-12-24 15:42:26.571713,119
2021-12-24 15:42:26.571719,103
2021-12-24 15:42:26.571725,105
2021-12-24 15:42:26.571732,128
2021-12-24 15:42:26.798084,140
2021-12-24 15:42:26.798114,140
2021-12-24 15:42:26.798126,128
2021-12-24 15:42:26.798136,108
2021-12-24 15:42:26.798145,108
2021-12-24 15:42:26.798155,126
2021-12-24 15:42:26.798165,135
2021-12-24 15:42:26.798174,140
2021-12-24 15:42:26.798184,128
2021-12-24 15:42:26.798193,89
2021-12-24 15:42:26.798210,71
2021-12-24 15:42:26.798220,89
2021-12-24 15:42:26.798230,108
2021-12-24 15:42:26.798240,105
2021-12-24 15:42:26.798249,87
2021-12-24 15:42:26.798259,73
2021-12-24 15:42:26.798269,89
2021-12-24 15:42:26.798278,98
2021-12-24 15:42:26.798288,64
2021-12-24 15:42:26.798298,20
2021-12-24 15:42:26.798307,-16
2021-12-24 15:42:26.798317,-41
2021-12-24 15:42:26.798327,-36
2021-12-24 15:42:26.798337,-39
2021-12-24 15:42:26.798346,-62
2021-12-24 15:42:26.798356,-75
2021-12-24 15:42:26.798366,-105
2021-12-24 15:42:26.798376,-137
2021-12-24 15:42:26.798385,-126
2021-12-24 15:42:26.798395,-117
2021-12-24 15:42:27.021442,-112
2021-12-24 15:42:27.021472,-57
2021-12-24 15:42:27.021483,-52
2021-12-24 15:42:27.021503,-236
2021-12-24 15:42:27.021514,-448
2021-12-24 15:42:27.021524,-388
2021-12-24 15:42:27.021533,-188
2021-12-24 15:42:27.021572,-149
2021-12-24 15:42:27.021616,-177
2021-12-24 15:42:27.021630,-135
2021-12-24 15:42:27.021640,-121
2021-12-24 15:42:27.021650,-151
2021-12-24 15:42:27.021660,-147
2021-12-24 15:42:27.021670,-117
2021-12-24 15:42:27.021680,-112
2021-12-24 15:42:27.021690,-112
2021-12-24 15:42:27.021699,-91
2021-12-24 15:42:27.021709,-73
2021-12-24 15:42:27.021719,-68
2021-12-24 15:42:27.021729,-82
2021-12-24 15:42:27.021739,-98
2021-12-24 15:42:27.021749,-85
2021-12-24 15:42:27.021758,-55
2021-12-24 15:42:27.021768,-32
2021-12-24 15:42:27.021778,-18
2021-12-24 15:42:27.021793,-32
2021-12-24 15:42:27.021803,-43
2021-12-24 15:42:27.021813,-16
2021-12-24 15:42:27.021822,18
2021-12-24 15:42:27.021832,36
2021-12-24 15:42:27.202870,52
2021-12-24 15:42:27.202892,66
2021-12-24 15:42:27.202899,75
2021-12-24 15:42:27.202906,85
2021-12-24 15:42:27.202912,101
2021-12-24 15:42:27.202919,114
2021-12-24 15:42:27.202925,94
2021-12-24 15:42:27.202931,36
2021-12-24 15:42:27.202938,0
2021-12-24 15:42:27.202944,-9
2021-12-24 15:42:27.202951,-22
2021-12-24 15:42:27.202957,-29
2021-12-24 15:42:27.202964,-34
2021-12-24 15:42:27.202970,-52
2021-12-24 15:42:27.202976,-66
2021-12-24 15:42:27.202983,-55
2021-12-24 15:42:27.202989,-39
2021-12-24 15:42:27.202995,-29
2021-12-24 15:42:27.203002,-39
2021-12-24 15:42:27.203008,-62
2021-12-24 15:42:27.203015,-55
2021-12-24 15:42:27.203021,-32
2021-12-24 15:42:27.203027,-20
2021-12-24 15:42:27.203034,-2
2021-12-24 15:42:27.203040,6
2021-12-24 15:42:27.203046,4
2021-12-24 15:42:27.203053,13
2021-12-24 15:42:27.203059,22
2021-12-24 15:42:27.203066,29
2021-12-24 15:42:27.203072,43
2021-12-24 15:42:27.472954,45
2021-12-24 15:42:27.472975,39
2021-12-24 15:42:27.472982,43
2021-12-24 15:42:27.472989,50
2021-12-24 15:42:27.472995,50
2021-12-24 15:42:27.473002,43
2021-12-24 15:42:27.473008,4
2021-12-24 15:42:27.473014,-16
2021-12-24 15:42:27.473021,6
2021-12-24 15:42:27.473029,16
2021-12-24 15:42:27.473041,13
2021-12-24 15:42:27.473049,16
2021-12-24 15:42:27.473055,-25
2021-12-24 15:42:27.473062,-66
2021-12-24 15:42:27.473068,-59
2021-12-24 15:42:27.473074,-78
2021-12-24 15:42:27.473092,-108
2021-12-24 15:42:27.473098,-117
2021-12-24 15:42:27.473104,-151
2021-12-24 15:42:27.473111,-177
2021-12-24 15:42:27.473117,-172
2021-12-24 15:42:27.473123,-179
2021-12-24 15:42:27.473130,-174
2021-12-24 15:42:27.473136,-160
2021-12-24 15:42:27.473142,-165
2021-12-24 15:42:27.473149,-158
2021-12-24 15:42:27.473155,-142
2021-12-24 15:42:27.473161,-140
2021-12-24 15:42:27.473168,-131
2021-12-24 15:42:27.473174,-110
2021-12-24 15:42:27.607707,-96
2021-12-24 15:42:27.607728,-73
2021-12-24 15:42:27.607736,-50
2021-12-24 15:42:27.607742,-59
2021-12-24 15:42:27.607748,-66
2021-12-24 15:42:27.607755,-59
2021-12-24 15:42:27.607761,-50
2021-12-24 15:42:27.607768,-32
2021-12-24 15:42:27.607774,-18
2021-12-24 15:42:27.607780,-13
2021-12-24 15:42:27.607787,-13
2021-12-24 15:42:27.607793,-32
2021-12-24 15:42:27.607799,-48
2021-12-24 15:42:27.607806,-22
2021-12-24 15:42:27.607812,32
2021-12-24 15:42:27.607818,110
2021-12-24 15:42:27.607825,167
2021-12-24 15:42:27.607831,64
2021-12-24 15:42:27.607838,-174
2021-12-24 15:42:27.607844,-248
2021-12-24 15:42:27.607851,-87
2021-12-24 15:42:27.607857,9
2021-12-24 15:42:27.607864,-13
2021-12-24 15:42:27.607870,-13
2021-12-24 15:42:27.607876,4
2021-12-24 15:42:27.607883,18
2021-12-24 15:42:27.607889,32
2021-12-24 15:42:27.607896,36
2021-12-24 15:42:27.607902,36
2021-12-24 15:42:27.607909,34
2021-12-24 15:42:27.832956,43
2021-12-24 15:42:27.832986,66
2021-12-24 15:42:27.832997,75
2021-12-24 15:42:27.833008,71
2021-12-24 15:42:27.833017,55
2021-12-24 15:42:27.833027,32
2021-12-24 15:42:27.833036,39
2021-12-24 15:42:27.833046,71
2021-12-24 15:42:27.833056,85
2021-12-24 15:42:27.833065,82
2021-12-24 15:42:27.833075,68
2021-12-24 15:42:27.833084,29
2021-12-24 15:42:27.833094,-4
2021-12-24 15:42:27.833109,11
2021-12-24 15:42:27.833119,48
2021-12-24 15:42:27.833129,55
2021-12-24 15:42:27.833138,52
2021-12-24 15:42:27.833148,68
2021-12-24 15:42:27.833157,80
2021-12-24 15:42:27.833167,66
2021-12-24 15:42:27.833177,43
2021-12-24 15:42:27.833186,34
2021-12-24 15:42:27.833196,25
2021-12-24 15:42:27.833205,6
2021-12-24 15:42:27.833215,4
2021-12-24 15:42:27.833224,9
2021-12-24 15:42:27.833234,2
2021-12-24 15:42:27.833243,-13
2021-12-24 15:42:27.833253,-27
2021-12-24 15:42:27.833263,-13
2021-12-24 15:42:28.057908,9
2021-12-24 15:42:28.057938,20
2021-12-24 15:42:28.057950,25
2021-12-24 15:42:28.057959,9
2021-12-24 15:42:28.057969,-20
2021-12-24 15:42:28.057979,-20
2021-12-24 15:42:28.057989,11
2021-12-24 15:42:28.057999,32
2021-12-24 15:42:28.058008,34
2021-12-24 15:42:28.058018,18
2021-12-24 15:42:28.058028,-9
2021-12-24 15:42:28.058037,-6
2021-12-24 15:42:28.058047,22
2021-12-24 15:42:28.058057,36
2021-12-24 15:42:28.058067,36
2021-12-24 15:42:28.058076,27
2021-12-24 15:42:28.058086,18
2021-12-24 15:42:28.058095,29
2021-12-24 15:42:28.058105,50
2021-12-24 15:42:28.058115,57
2021-12-24 15:42:28.058124,36
2021-12-24 15:42:28.058134,-9
2021-12-24 15:42:28.058144,-29
2021-12-24 15:42:28.058154,-6
2021-12-24 15:42:28.058163,9
2021-12-24 15:42:28.058173,2
2021-12-24 15:42:28.058183,-18
2021-12-24 15:42:28.058192,-52
2021-12-24 15:42:28.058202,-75
2021-12-24 15:42:28.058212,-82
2021-12-24 15:42:28.327731,-68
2021-12-24 15:42:28.327752,-55
2021-12-24 15:42:28.327760,-66
2021-12-24 15:42:28.327767,-108
2021-12-24 15:42:28.327773,-128
2021-12-24 15:42:28.327779,-96
2021-12-24 15:42:28.327786,-66
2021-12-24 15:42:28.327792,-57
2021-12-24 15:42:28.327799,-62
2021-12-24 15:42:28.327805,-94
2021-12-24 15:42:28.327811,-108
2021-12-24 15:42:28.327818,-73
2021-12-24 15:42:28.327824,-45
2021-12-24 15:42:28.327831,-39
2021-12-24 15:42:28.327837,-39
2021-12-24 15:42:28.327843,-48
2021-12-24 15:42:28.327850,-45
2021-12-24 15:42:28.327862,-32
2021-12-24 15:42:28.327869,-57
2021-12-24 15:42:28.327875,-80
2021-12-24 15:42:28.327882,-52
2021-12-24 15:42:28.327888,-43
2021-12-24 15:42:28.327894,-62
2021-12-24 15:42:28.327901,-71
2021-12-24 15:42:28.327907,-73
2021-12-24 15:42:28.327914,-59
2021-12-24 15:42:28.327920,-52
2021-12-24 15:42:28.327927,-59
2021-12-24 15:42:28.327933,-43
2021-12-24 15:42:28.327939,-11
2021-12-24 15:42:28.552987,6
2021-12-24 15:42:28.553017,22
2021-12-24 15:42:28.553028,29
2021-12-24 15:42:28.553038,43
2021-12-24 15:42:28.553048,124
2021-12-24 15:42:28.553058,223
2021-12-24 15:42:28.553068,183
2021-12-24 15:42:28.553078,-41
2021-12-24 15:42:28.553088,-218
2021-12-24 15:42:28.553098,-137
2021-12-24 15:42:28.553108,9
2021-12-24 15:42:28.553118,41
2021-12-24 15:42:28.553127,59
2021-12-24 15:42:28.553137,89
2021-12-24 15:42:28.553147,57
2021-12-24 15:42:28.553157,18
2021-12-24 15:42:28.553167,43
2021-12-24 15:42:28.553177,80
2021-12-24 15:42:28.553187,89
2021-12-24 15:42:28.553196,96
2021-12-24 15:42:28.553206,98
2021-12-24 15:42:28.553216,91
2021-12-24 15:42:28.553226,108
2021-12-24 15:42:28.553235,137
2021-12-24 15:42:28.553245,149
2021-12-24 15:42:28.553255,128
2021-12-24 15:42:28.553265,103
2021-12-24 15:42:28.553275,110
2021-12-24 15:42:28.553284,133
2021-12-24 15:42:28.553294,154
2021-12-24 15:42:28.777725,177
2021-12-24 15:42:28.777775,195
2021-12-24 15:42:28.777787,197
2021-12-24 15:42:28.777797,200
2021-12-24 15:42:28.777820,213
2021-12-24 15:42:28.777826,241
2021-12-24 15:42:28.777833,257
2021-12-24 15:42:28.777839,241
2021-12-24 15:42:28.777846,206
2021-12-24 15:42:28.777852,204
2021-12-24 15:42:28.777858,216
2021-12-24 15:42:28.777865,206
2021-12-24 15:42:28.777871,181
2021-12-24 15:42:28.777877,133
2021-12-24 15:42:28.777884,68
2021-12-24 15:42:28.777890,45
2021-12-24 15:42:28.777897,57
2021-12-24 15:42:28.777903,62
2021-12-24 15:42:28.777909,62
2021-12-24 15:42:28.777916,64
2021-12-24 15:42:28.777922,59
2021-12-24 15:42:28.777929,64
2021-12-24 15:42:28.777935,73
2021-12-24 15:42:28.777941,57
2021-12-24 15:42:28.777948,13
2021-12-24 15:42:28.777954,-2
2021-12-24 15:42:28.777960,4
2021-12-24 15:42:28.777967,-20
2021-12-24 15:42:28.777973,-41
2021-12-24 15:42:28.777986,-9
2021-12-24 15:42:29.090861,13
2021-12-24 15:42:29.090882,2
2021-12-24 15:42:29.090889,2
2021-12-24 15:42:29.090896,18
2021-12-24 15:42:29.090902,27
2021-12-24 15:42:29.090909,39
2021-12-24 15:42:29.090915,36
2021-12-24 15:42:29.090922,6
2021-12-24 15:42:29.090928,-6
2021-12-24 15:42:29.090934,9
2021-12-24 15:42:29.090973,9
2021-12-24 15:42:29.090986,-4
2021-12-24 15:42:29.090994,-25
2021-12-24 15:42:29.091000,-48
2021-12-24 15:42:29.091007,-50
2021-12-24 15:42:29.091013,-43
2021-12-24 15:42:29.091019,-62
2021-12-24 15:42:29.091026,-78
2021-12-24 15:42:29.091032,-85
2021-12-24 15:42:29.091038,-103
2021-12-24 15:42:29.091045,-114
2021-12-24 15:42:29.091051,-108
2021-12-24 15:42:29.091057,-98
2021-12-24 15:42:29.091064,-85
2021-12-24 15:42:29.091070,-80
2021-12-24 15:42:29.091076,-80
2021-12-24 15:42:29.091083,-66
2021-12-24 15:42:29.091089,-48
2021-12-24 15:42:29.091095,-48
2021-12-24 15:42:29.091102,-78
2021-12-24 15:42:29.272008,-112
2021-12-24 15:42:29.272026,-108
2021-12-24 15:42:29.272034,-87
2021-12-24 15:42:29.272040,-85
2021-12-24 15:42:29.272047,-78
2021-12-24 15:42:29.272053,-66
2021-12-24 15:42:29.272060,-87
2021-12-24 15:42:29.272066,-101
2021-12-24 15:42:29.272073,-78
2021-12-24 15:42:29.272079,-62
2021-12-24 15:42:29.272085,-29
2021-12-24 15:42:29.272092,50
2021-12-24 15:42:29.272098,96
2021-12-24 15:42:29.272105,20
2021-12-24 15:42:29.272111,-195
2021-12-24 15:42:29.272118,-354
2021-12-24 15:42:29.272124,-223
2021-12-24 15:42:29.272130,-39
2021-12-24 15:42:29.272137,-32
2021-12-24 15:42:29.272143,-25
2021-12-24 15:42:29.272149,25
2021-12-24 15:42:29.272156,22
2021-12-24 15:42:29.272162,18
2021-12-24 15:42:29.272169,48
2021-12-24 15:42:29.272175,52
2021-12-24 15:42:29.272181,52
2021-12-24 15:42:29.272188,68
2021-12-24 15:42:29.272194,71
2021-12-24 15:42:29.272200,57
2021-12-24 15:42:29.272207,16
2021-12-24 15:42:29.452759,-18
2021-12-24 15:42:29.452780,-18
2021-12-24 15:42:29.452788,-20
2021-12-24 15:42:29.452794,-20
2021-12-24 15:42:29.452801,-4
2021-12-24 15:42:29.452807,-13
2021-12-24 15:42:29.452814,-34
2021-12-24 15:42:29.452820,-6
2021-12-24 15:42:29.452826,29
2021-12-24 15:42:29.452833,36
2021-12-24 15:42:29.452839,55
2021-12-24 15:42:29.452846,82
2021-12-24 15:42:29.452852,98
2021-12-24 15:42:29.452858,119
2021-12-24 15:42:29.452865,137
2021-12-24 15:42:29.452871,137
2021-12-24 15:42:29.452877,119
2021-12-24 15:42:29.452884,82
2021-12-24 15:42:29.452890,48
2021-12-24 15:42:29.452897,43
2021-12-24 15:42:29.452908,34
2021-12-24 15:42:29.452915,6
2021-12-24 15:42:29.452921,-6
2021-12-24 15:42:29.452927,-11
2021-12-24 15:42:29.452934,-11
2021-12-24 15:42:29.452940,2
2021-12-24 15:42:29.452947,16
2021-12-24 15:42:29.452953,16
2021-12-24 15:42:29.452959,18
2021-12-24 15:42:29.452966,20
2021-12-24 15:42:29.767933,27
2021-12-24 15:42:29.767964,45
2021-12-24 15:42:29.767975,50
2021-12-24 15:42:29.767985,18
2021-12-24 15:42:29.767995,-32
2021-12-24 15:42:29.768005,-52
2021-12-24 15:42:29.768015,-34
2021-12-24 15:42:29.768024,-29
2021-12-24 15:42:29.768034,-45
2021-12-24 15:42:29.768044,-52
2021-12-24 15:42:29.768054,-68
2021-12-24 15:42:29.768064,-96
2021-12-24 15:42:29.768073,-103
2021-12-24 15:42:29.768083,-105
2021-12-24 15:42:29.768099,-126
2021-12-24 15:42:29.768109,-147
2021-12-24 15:42:29.768118,-163
2021-12-24 15:42:29.768128,-158
2021-12-24 15:42:29.768138,-133
2021-12-24 15:42:29.768148,-112
2021-12-24 15:42:29.768158,-112
2021-12-24 15:42:29.768167,-117
2021-12-24 15:42:29.768177,-124
2021-12-24 15:42:29.768187,-126
2021-12-24 15:42:29.768197,-94
2021-12-24 15:42:29.768206,-52
2021-12-24 15:42:29.768216,-39
2021-12-24 15:42:29.768226,-27
2021-12-24 15:42:29.768236,-32
2021-12-24 15:42:29.768245,-34
2021-12-24 15:42:29.902881,-22
2021-12-24 15:42:29.902901,-20
2021-12-24 15:42:29.902908,2
2021-12-24 15:42:29.902915,43
2021-12-24 15:42:29.902922,50
2021-12-24 15:42:29.902928,22
2021-12-24 15:42:29.902934,-18
2021-12-24 15:42:29.902941,-71
2021-12-24 15:42:29.902947,-78
2021-12-24 15:42:29.902954,-64
2021-12-24 15:42:29.902960,-78
2021-12-24 15:42:29.902966,-59
2021-12-24 15:42:29.902973,-29
2021-12-24 15:42:29.902979,-27
2021-12-24 15:42:29.902985,-25
2021-12-24 15:42:29.902992,-22
2021-12-24 15:42:29.902998,-32
2021-12-24 15:42:29.903005,-11
2021-12-24 15:42:29.903011,29
2021-12-24 15:42:29.903018,52
2021-12-24 15:42:29.903024,48
2021-12-24 15:42:29.903030,32
2021-12-24 15:42:29.903037,75
2021-12-24 15:42:29.903043,167
2021-12-24 15:42:29.903050,117
2021-12-24 15:42:29.903056,-96
2021-12-24 15:42:29.903062,-172
2021-12-24 15:42:29.903069,-41
2021-12-24 15:42:29.903075,6
2021-12-24 15:42:29.903082,-25
2021-12-24 15:42:30.217744,18
2021-12-24 15:42:30.217766,66
2021-12-24 15:42:30.217774,29
2021-12-24 15:42:30.217780,-52
2021-12-24 15:42:30.217787,-73
2021-12-24 15:42:30.217793,-52
2021-12-24 15:42:30.217799,-82
2021-12-24 15:42:30.217806,-96
2021-12-24 15:42:30.217812,-71
2021-12-24 15:42:30.217819,-89
2021-12-24 15:42:30.217825,-119
2021-12-24 15:42:30.217831,-96
2021-12-24 15:42:30.217838,-73
2021-12-24 15:42:30.217844,-103
2021-12-24 15:42:30.217850,-117
2021-12-24 15:42:30.217857,-78
2021-12-24 15:42:30.217863,-45
2021-12-24 15:42:30.217870,-32
2021-12-24 15:42:30.217876,-2
2021-12-24 15:42:30.217882,11
2021-12-24 15:42:30.217889,6
2021-12-24 15:42:30.217895,6
2021-12-24 15:42:30.217905,6
2021-12-24 15:42:30.217911,34
2021-12-24 15:42:30.217918,91
2021-12-24 15:42:30.217924,128
2021-12-24 15:42:30.217930,119
2021-12-24 15:42:30.217937,75
2021-12-24 15:42:30.217943,43
2021-12-24 15:42:30.217950,50
2021-12-24 15:42:30.397756,48
2021-12-24 15:42:30.397787,34
2021-12-24 15:42:30.397798,29
2021-12-24 15:42:30.397809,13
2021-12-24 15:42:30.397818,18
2021-12-24 15:42:30.397828,62
2021-12-24 15:42:30.397838,101
2021-12-24 15:42:30.397848,101
2021-12-24 15:42:30.397858,50
2021-12-24 15:42:30.397868,2
2021-12-24 15:42:30.397878,-18
2021-12-24 15:42:30.397888,-41
2021-12-24 15:42:30.397897,-64
2021-12-24 15:42:30.397907,-52
2021-12-24 15:42:30.397917,-48
2021-12-24 15:42:30.397927,-52
2021-12-24 15:42:30.397937,-16
2021-12-24 15:42:30.397947,-4
2021-12-24 15:42:30.397957,-50
2021-12-24 15:42:30.397967,-62
2021-12-24 15:42:30.397977,-52
2021-12-24 15:42:30.397986,-62
2021-12-24 15:42:30.397996,-41
2021-12-24 15:42:30.398006,-18
2021-12-24 15:42:30.398016,-32
2021-12-24 15:42:30.398026,-45
2021-12-24 15:42:30.398036,-87
2021-12-24 15:42:30.398046,-165
2021-12-24 15:42:30.398055,-154
2021-12-24 15:42:30.398065,-78
2021-12-24 15:42:30.757216,-55
2021-12-24 15:42:30.757237,-66
2021-12-24 15:42:30.757245,-75
2021-12-24 15:42:30.757251,-68
2021-12-24 15:42:30.757258,-45
2021-12-24 15:42:30.757264,-32
2021-12-24 15:42:30.757270,-27
2021-12-24 15:42:30.757276,-39
2021-12-24 15:42:30.757282,-62
2021-12-24 15:42:30.757289,-55
2021-12-24 15:42:30.757295,-36
2021-12-24 15:42:30.757301,-71
2021-12-24 15:42:30.757307,-128
2021-12-24 15:42:30.757314,-147
2021-12-24 15:42:30.757320,-179
2021-12-24 15:42:30.757326,-225
2021-12-24 15:42:30.757332,-229
2021-12-24 15:42:30.757338,-213
2021-12-24 15:42:30.757345,-218
2021-12-24 15:42:30.757351,-227
2021-12-24 15:42:30.757357,-243
2021-12-24 15:42:30.757363,-268
2021-12-24 15:42:30.757370,-250
2021-12-24 15:42:30.757376,-209
2021-12-24 15:42:30.757382,-239
2021-12-24 15:42:30.757388,-296
2021-12-24 15:42:30.757395,-287
2021-12-24 15:42:30.757401,-266
2021-12-24 15:42:30.757407,-278
2021-12-24 15:42:30.757413,-271
2021-12-24 15:42:30.847866,-241
2021-12-24 15:42:30.847896,-234
2021-12-24 15:42:30.847908,-236
2021-12-24 15:42:30.847918,-229
2021-12-24 15:42:30.847928,-211
2021-12-24 15:42:30.847938,-144
2021-12-24 15:42:30.847948,-75
2021-12-24 15:42:30.847957,-82
2021-12-24 15:42:30.847967,-186
2021-12-24 15:42:30.847977,-347
2021-12-24 15:42:30.847987,-342
2021-12-24 15:42:30.847997,-156
2021-12-24 15:42:30.848006,-89
2021-12-24 15:42:30.848016,-142
2021-12-24 15:42:30.848026,-151
2021-12-24 15:42:30.848036,-137
2021-12-24 15:42:30.848045,-144
2021-12-24 15:42:30.848055,-186
2021-12-24 15:42:30.848065,-216
2021-12-24 15:42:30.848075,-188
2021-12-24 15:42:30.848084,-188
2021-12-24 15:42:30.848094,-216
2021-12-24 15:42:30.848104,-186
2021-12-24 15:42:30.848113,-131
2021-12-24 15:42:30.848123,-154
2021-12-24 15:42:30.848133,-202
2021-12-24 15:42:30.848143,-190
2021-12-24 15:42:30.848152,-179
2021-12-24 15:42:30.848162,-190
2021-12-24 15:42:30.848172,-160
2021-12-24 15:42:31.161271,-126
2021-12-24 15:42:31.161302,-121
2021-12-24 15:42:31.161313,-114
2021-12-24 15:42:31.161323,-105
2021-12-24 15:42:31.161333,-80
2021-12-24 15:42:31.161347,-57
2021-12-24 15:42:31.161357,-75
2021-12-24 15:42:31.161367,-101
2021-12-24 15:42:31.161377,-82
2021-12-24 15:42:31.161386,-50
2021-12-24 15:42:31.161396,-39
2021-12-24 15:42:31.161406,-43
2021-12-24 15:42:31.161415,-75
2021-12-24 15:42:31.161425,-108
2021-12-24 15:42:31.161435,-103
2021-12-24 15:42:31.161445,-142
2021-12-24 15:42:31.161454,-206
2021-12-24 15:42:31.161464,-193
2021-12-24 15:42:31.161474,-163
2021-12-24 15:42:31.161483,-160
2021-12-24 15:42:31.161493,-156
2021-12-24 15:42:31.161503,-167
2021-12-24 15:42:31.161513,-156
2021-12-24 15:42:31.161522,-112
2021-12-24 15:42:31.161532,-101
2021-12-24 15:42:31.161542,-94
2021-12-24 15:42:31.161551,-73
2021-12-24 15:42:31.161561,-64
2021-12-24 15:42:31.161571,-68
2021-12-24 15:42:31.161580,-71
2021-12-24 15:42:31.297636,-50
2021-12-24 15:42:31.297665,-25
2021-12-24 15:42:31.297676,-22
2021-12-24 15:42:31.297686,-9
2021-12-24 15:42:31.297696,18
2021-12-24 15:42:31.297706,-6
2021-12-24 15:42:31.297716,-64
2021-12-24 15:42:31.297726,-48
2021-12-24 15:42:31.297735,6
2021-12-24 15:42:31.297745,-11
2021-12-24 15:42:31.297755,-57
2021-12-24 15:42:31.297765,-50
2021-12-24 15:42:31.297774,-27
2021-12-24 15:42:31.297784,-59
2021-12-24 15:42:31.297794,-103
2021-12-24 15:42:31.297803,-80
2021-12-24 15:42:31.297813,-48
2021-12-24 15:42:31.297823,-94
2021-12-24 15:42:31.297832,-147
2021-12-24 15:42:31.297842,-142
2021-12-24 15:42:31.297852,-149
2021-12-24 15:42:31.297861,-186
2021-12-24 15:42:31.297871,-229
2021-12-24 15:42:31.297881,-268
2021-12-24 15:42:31.297891,-259
2021-12-24 15:42:31.297900,-232
2021-12-24 15:42:31.297910,-234
2021-12-24 15:42:31.297920,-225
2021-12-24 15:42:31.297930,-204
2021-12-24 15:42:31.297940,-202
2021-12-24 15:42:31.522717,-197
2021-12-24 15:42:31.522747,-172
2021-12-24 15:42:31.522758,-160
2021-12-24 15:42:31.522768,-174
2021-12-24 15:42:31.522778,-209
2021-12-24 15:42:31.522788,-236
2021-12-24 15:42:31.522798,-211
2021-12-24 15:42:31.522808,-172
2021-12-24 15:42:31.522817,-179
2021-12-24 15:42:31.522827,-186
2021-12-24 15:42:31.522837,-188
2021-12-24 15:42:31.522846,-213
2021-12-24 15:42:31.522856,-200
2021-12-24 15:42:31.522865,-156
2021-12-24 15:42:31.522875,-121
2021-12-24 15:42:31.522885,-59
2021-12-24 15:42:31.522895,2
2021-12-24 15:42:31.522904,-48
2021-12-24 15:42:31.522915,-243
2021-12-24 15:42:31.522925,-365
2021-12-24 15:42:31.522935,-257
2021-12-24 15:42:31.522944,-144
2021-12-24 15:42:31.522954,-142
2021-12-24 15:42:31.522963,-117
2021-12-24 15:42:31.522973,-68
2021-12-24 15:42:31.522983,-71
2021-12-24 15:42:31.522993,-78
2021-12-24 15:42:31.523002,-57
2021-12-24 15:42:31.523012,-52
2021-12-24 15:42:31.523022,-66
2021-12-24 15:42:31.747735,-71
2021-12-24 15:42:31.747756,-55
2021-12-24 15:42:31.747764,-25
2021-12-24 15:42:31.747771,-32
2021-12-24 15:42:31.747777,-78
2021-12-24 15:42:31.747784,-75
2021-12-24 15:42:31.747790,-20
2021-12-24 15:42:31.747796,-6
2021-12-24 15:42:31.747803,-43
2021-12-24 15:42:31.747809,-57
2021-12-24 15:42:31.747816,-39
2021-12-24 15:42:31.747822,-11
2021-12-24 15:42:31.747828,27
2021-12-24 15:42:31.747835,71
2021-12-24 15:42:31.747841,108
2021-12-24 15:42:31.747847,117
2021-12-24 15:42:31.747854,114
2021-12-24 15:42:31.747860,140
2021-12-24 15:42:31.747866,172
2021-12-24 15:42:31.747873,190
2021-12-24 15:42:31.747879,183
2021-12-24 15:42:31.747885,131
2021-12-24 15:42:31.747892,66
2021-12-24 15:42:31.747898,64
2021-12-24 15:42:31.747904,91
2021-12-24 15:42:31.747911,80
2021-12-24 15:42:31.747917,52
2021-12-24 15:42:31.747924,13
2021-12-24 15:42:31.747930,-36
2021-12-24 15:42:31.747937,-39
2021-12-24 15:42:32.152584,-4
2021-12-24 15:42:32.152607,18
2021-12-24 15:42:32.152615,4
2021-12-24 15:42:32.152622,-50
2021-12-24 15:42:32.152628,-64
2021-12-24 15:42:32.152634,-6
2021-12-24 15:42:32.152640,13
2021-12-24 15:42:32.152647,-9
2021-12-24 15:42:32.152653,-16
2021-12-24 15:42:32.152659,-36
2021-12-24 15:42:32.152666,-68
2021-12-24 15:42:32.152672,-55
2021-12-24 15:42:32.152678,-32
2021-12-24 15:42:32.152684,-45
2021-12-24 15:42:32.152691,-78
2021-12-24 15:42:32.152697,-114
2021-12-24 15:42:32.152703,-124
2021-12-24 15:42:32.152710,-124
2021-12-24 15:42:32.152716,-147
2021-12-24 15:42:32.152722,-154
2021-12-24 15:42:32.152728,-135
2021-12-24 15:42:32.152735,-133
2021-12-24 15:42:32.152741,-131
2021-12-24 15:42:32.152747,-126
2021-12-24 15:42:32.152754,-144
2021-12-24 15:42:32.152760,-124
2021-12-24 15:42:32.152766,-71
2021-12-24 15:42:32.152773,-66
2021-12-24 15:42:32.152779,-66
2021-12-24 15:42:32.152785,-43
2021-12-24 15:42:32.242640,-22
2021-12-24 15:42:32.242670,-2
2021-12-24 15:42:32.242682,-11
2021-12-24 15:42:32.242692,-27
2021-12-24 15:42:32.242701,9
2021-12-24 15:42:32.242711,43
2021-12-24 15:42:32.242721,34
2021-12-24 15:42:32.242731,13
2021-12-24 15:42:32.242741,-25
2021-12-24 15:42:32.242750,-55
2021-12-24 15:42:32.242760,-32
2021-12-24 15:42:32.242770,-9
2021-12-24 15:42:32.242780,-4
2021-12-24 15:42:32.242790,6
2021-12-24 15:42:32.242799,-18
2021-12-24 15:42:32.242809,-71
2021-12-24 15:42:32.242819,-82
2021-12-24 15:42:32.242829,-62
2021-12-24 15:42:32.242839,-45
2021-12-24 15:42:32.242848,-45
2021-12-24 15:42:32.242858,-55
2021-12-24 15:42:32.242868,-39
2021-12-24 15:42:32.242878,-13
2021-12-24 15:42:32.242887,-22
2021-12-24 15:42:32.242897,-16
2021-12-24 15:42:32.242907,22
2021-12-24 15:42:32.242917,16
2021-12-24 15:42:32.242927,11
2021-12-24 15:42:32.242936,110
2021-12-24 15:42:32.242946,193
2021-12-24 15:42:32.467382,78
2021-12-24 15:42:32.467404,-160
2021-12-24 15:42:32.467412,-236
2021-12-24 15:42:32.467419,-133
2021-12-24 15:42:32.467425,-94
2021-12-24 15:42:32.467432,-94
2021-12-24 15:42:32.467438,-41
2021-12-24 15:42:32.467444,-41
2021-12-24 15:42:32.467451,-96
2021-12-24 15:42:32.467457,-103
2021-12-24 15:42:32.467464,-64
2021-12-24 15:42:32.467470,-6
2021-12-24 15:42:32.467476,27
2021-12-24 15:42:32.467483,-4
2021-12-24 15:42:32.467489,-36
2021-12-24 15:42:32.467496,-25
2021-12-24 15:42:32.467502,-16
2021-12-24 15:42:32.467508,11
2021-12-24 15:42:32.467515,71
2021-12-24 15:42:32.467521,94
2021-12-24 15:42:32.467527,55
2021-12-24 15:42:32.467534,18
2021-12-24 15:42:32.467540,29
2021-12-24 15:42:32.467546,64
2021-12-24 15:42:32.467553,85
2021-12-24 15:42:32.467559,89
2021-12-24 15:42:32.467565,87
2021-12-24 15:42:32.467572,73
2021-12-24 15:42:32.467578,71
2021-12-24 15:42:32.467585,87
2021-12-24 15:42:32.737109,96
2021-12-24 15:42:32.737139,87
2021-12-24 15:42:32.737150,91
2021-12-24 15:42:32.737160,98
2021-12-24 15:42:32.737170,85
2021-12-24 15:42:32.737179,66
2021-12-24 15:42:32.737189,43
2021-12-24 15:42:32.737199,0
2021-12-24 15:42:32.737209,-32
2021-12-24 15:42:32.737218,-41
2021-12-24 15:42:32.737228,-34
2021-12-24 15:42:32.737237,-18
2021-12-24 15:42:32.737247,-20
2021-12-24 15:42:32.737257,-48
2021-12-24 15:42:32.737266,-45
2021-12-24 15:42:32.737276,-13
2021-12-24 15:42:32.737285,4
2021-12-24 15:42:32.737295,16
2021-12-24 15:42:32.737305,25
2021-12-24 15:42:32.737314,16
2021-12-24 15:42:32.737324,18
2021-12-24 15:42:32.737333,39
2021-12-24 15:42:32.737343,45
2021-12-24 15:42:32.737352,41
2021-12-24 15:42:32.737362,29
2021-12-24 15:42:32.737371,22
2021-12-24 15:42:32.737381,27
2021-12-24 15:42:32.737390,29
2021-12-24 15:42:32.737400,11
2021-12-24 15:42:32.737409,-36
2021-12-24 15:42:32.917854,-85
2021-12-24 15:42:32.917884,-105
2021-12-24 15:42:32.917896,-128
2021-12-24 15:42:32.917906,-144
2021-12-24 15:42:32.917916,-131
2021-12-24 15:42:32.917925,-124
2021-12-24 15:42:32.917935,-140
2021-12-24 15:42:32.917945,-154
2021-12-24 15:42:32.917954,-179
2021-12-24 15:42:32.917976,-227
2021-12-24 15:42:32.917987,-236
2021-12-24 15:42:32.918001,-216
2021-12-24 15:42:32.918011,-239
2021-12-24 15:42:32.918127,-248
2021-12-24 15:42:32.918157,-206
2021-12-24 15:42:32.918177,-179
2021-12-24 15:42:32.918195,-170
2021-12-24 15:42:32.918213,-151
2021-12-24 15:42:32.918232,-160
2021-12-24 15:42:32.918248,-174
2021-12-24 15:42:32.918265,-156
2021-12-24 15:42:32.918283,-133
2021-12-24 15:42:32.918302,-124
2021-12-24 15:42:32.918372,-114
2021-12-24 15:42:32.918381,-112
2021-12-24 15:42:32.918387,-101
2021-12-24 15:42:32.918394,-82
2021-12-24 15:42:32.918400,-71
2021-12-24 15:42:32.918406,-59
2021-12-24 15:42:32.918412,-36
2021-12-24 15:42:33.186254,16
2021-12-24 15:42:33.186284,87
2021-12-24 15:42:33.186296,85
2021-12-24 15:42:33.186306,-101
2021-12-24 15:42:33.186316,-342
2021-12-24 15:42:33.186326,-331
2021-12-24 15:42:33.186336,-144
2021-12-24 15:42:33.186345,-78
2021-12-24 15:42:33.186355,-82
2021-12-24 15:42:33.186365,-48
2021-12-24 15:42:33.186375,-29
2021-12-24 15:42:33.186384,-48
2021-12-24 15:42:33.186394,-55
2021-12-24 15:42:33.186404,-16
2021-12-24 15:42:33.186414,6
2021-12-24 15:42:33.186424,-9
2021-12-24 15:42:33.186433,-6
2021-12-24 15:42:33.186443,9
2021-12-24 15:42:33.186453,11
2021-12-24 15:42:33.186463,22
2021-12-24 15:42:33.186472,45
2021-12-24 15:42:33.186482,55
2021-12-24 15:42:33.186492,59
2021-12-24 15:42:33.186501,66
2021-12-24 15:42:33.186511,75
2021-12-24 15:42:33.186521,101
2021-12-24 15:42:33.186530,128
2021-12-24 15:42:33.186540,147
2021-12-24 15:42:33.186550,163
2021-12-24 15:42:33.186560,172
2021-12-24 15:42:33.367844,177
2021-12-24 15:42:33.367873,188
2021-12-24 15:42:33.367885,197
2021-12-24 15:42:33.367895,172
2021-12-24 15:42:33.367905,103
2021-12-24 15:42:33.367914,64
2021-12-24 15:42:33.367924,80
2021-12-24 15:42:33.367934,80
2021-12-24 15:42:33.367943,36
2021-12-24 15:42:33.367953,6
2021-12-24 15:42:33.367963,-25
2021-12-24 15:42:33.367972,-68
2021-12-24 15:42:33.367982,-68
2021-12-24 15:42:33.367992,-66
2021-12-24 15:42:33.368002,-124
2021-12-24 15:42:33.368012,-163
2021-12-24 15:42:33.368022,-140
2021-12-24 15:42:33.368098,-117
2021-12-24 15:42:33.368123,-112
2021-12-24 15:42:33.368142,-91
2021-12-24 15:42:33.368161,-62
2021-12-24 15:42:33.368178,-45
2021-12-24 15:42:33.368193,-48
2021-12-24 15:42:33.368203,-43
2021-12-24 15:42:33.368212,-25
2021-12-24 15:42:33.368222,-6
2021-12-24 15:42:33.368232,-2
2021-12-24 15:42:33.368242,-4
2021-12-24 15:42:33.368251,-9
2021-12-24 15:42:33.368261,-6
2021-12-24 15:42:33.592559,9
2021-12-24 15:42:33.592581,27
2021-12-24 15:42:33.592588,41
2021-12-24 15:42:33.592612,29
2021-12-24 15:42:33.592622,-9
2021-12-24 15:42:33.592632,-32
2021-12-24 15:42:33.592641,-36
2021-12-24 15:42:33.592651,-39
2021-12-24 15:42:33.592661,-32
2021-12-24 15:42:33.592670,-34
2021-12-24 15:42:33.592680,-41
2021-12-24 15:42:33.592690,-36
2021-12-24 15:42:33.592699,-36
2021-12-24 15:42:33.592709,-34
2021-12-24 15:42:33.592719,-29
2021-12-24 15:42:33.592729,-52
2021-12-24 15:42:33.592738,-80
2021-12-24 15:42:33.592748,-71
2021-12-24 15:42:33.592758,-66
2021-12-24 15:42:33.592767,-80
2021-12-24 15:42:33.592777,-80
2021-12-24 15:42:33.592787,-94
2021-12-24 15:42:33.592796,-114
2021-12-24 15:42:33.592806,-98
2021-12-24 15:42:33.592815,-80
2021-12-24 15:42:33.592825,-64
2021-12-24 15:42:33.592835,-50
2021-12-24 15:42:33.592845,-73
2021-12-24 15:42:33.592854,-87
2021-12-24 15:42:33.592864,-57
2021-12-24 15:42:33.862626,-43
2021-12-24 15:42:33.862656,-48
2021-12-24 15:42:33.862667,-48
2021-12-24 15:42:33.862677,-71
2021-12-24 15:42:33.862687,-73
2021-12-24 15:42:33.862697,11
2021-12-24 15:42:33.862707,124
2021-12-24 15:42:33.862717,112
2021-12-24 15:42:33.862726,-108
2021-12-24 15:42:33.862736,-337
2021-12-24 15:42:33.862746,-268
2021-12-24 15:42:33.862756,-73
2021-12-24 15:42:33.862765,-50
2021-12-24 15:42:33.862775,-57
2021-12-24 15:42:33.862785,-4
2021-12-24 15:42:33.862795,-16
2021-12-24 15:42:33.862804,-29
2021-12-24 15:42:33.862814,13
2021-12-24 15:42:33.862824,22
2021-12-24 15:42:33.862833,-25
2021-12-24 15:42:33.862843,-68
2021-12-24 15:42:33.862853,-64
2021-12-24 15:42:33.862862,-36
2021-12-24 15:42:33.862872,-11
2021-12-24 15:42:33.862882,13
2021-12-24 15:42:33.862891,39
2021-12-24 15:42:33.862901,45
2021-12-24 15:42:33.862911,34
2021-12-24 15:42:33.862921,39
2021-12-24 15:42:33.862930,68
2021-12-24 15:42:34.222497,94
2021-12-24 15:42:34.222532,101
2021-12-24 15:42:34.222540,108
2021-12-24 15:42:34.222546,114
2021-12-24 15:42:34.222553,135
2021-12-24 15:42:34.222559,167
2021-12-24 15:42:34.222565,188
2021-12-24 15:42:34.222572,195
2021-12-24 15:42:34.222581,170
2021-12-24 15:42:34.222588,119
2021-12-24 15:42:34.222594,103
2021-12-24 15:42:34.222600,112
2021-12-24 15:42:34.222606,96
2021-12-24 15:42:34.222613,50
2021-12-24 15:42:34.222619,-9
2021-12-24 15:42:34.222625,-43
2021-12-24 15:42:34.222632,-27
2021-12-24 15:42:34.222638,-6
2021-12-24 15:42:34.222644,-2
2021-12-24 15:42:34.222650,0
2021-12-24 15:42:34.222657,-4
2021-12-24 15:42:34.222663,-2
2021-12-24 15:42:34.222669,27
2021-12-24 15:42:34.222676,59
2021-12-24 15:42:34.222682,64
2021-12-24 15:42:34.222688,57
2021-12-24 15:42:34.222695,59
2021-12-24 15:42:34.222701,66
2021-12-24 15:42:34.222707,80
2021-12-24 15:42:34.222713,101
2021-12-24 15:42:34.312672,117
2021-12-24 15:42:34.312701,119
2021-12-24 15:42:34.312713,105
2021-12-24 15:42:34.312723,98
2021-12-24 15:42:34.312732,119
2021-12-24 15:42:34.312742,147
2021-12-24 15:42:34.312751,149
2021-12-24 15:42:34.312761,112
2021-12-24 15:42:34.312770,73
2021-12-24 15:42:34.312780,66
2021-12-24 15:42:34.312790,78
2021-12-24 15:42:34.312799,80
2021-12-24 15:42:34.312809,62
2021-12-24 15:42:34.312818,48
2021-12-24 15:42:34.312828,62
2021-12-24 15:42:34.312838,82
2021-12-24 15:42:34.312847,91
2021-12-24 15:42:34.312857,96
2021-12-24 15:42:34.312866,96
2021-12-24 15:42:34.312876,82
2021-12-24 15:42:34.312885,45
2021-12-24 15:42:34.312895,34
2021-12-24 15:42:34.312905,62
2021-12-24 15:42:34.312914,80
2021-12-24 15:42:34.312924,66
2021-12-24 15:42:34.312933,16
2021-12-24 15:42:34.312943,-29
2021-12-24 15:42:34.312953,-36
2021-12-24 15:42:34.312962,-57
2021-12-24 15:42:34.312972,-78
2021-12-24 15:42:34.537676,-73
2021-12-24 15:42:34.537706,-85
2021-12-24 15:42:34.537717,-85
2021-12-24 15:42:34.537728,-62
2021-12-24 15:42:34.537738,-57
2021-12-24 15:42:34.537748,-55
2021-12-24 15:42:34.537758,-59
2021-12-24 15:42:34.537768,-91
2021-12-24 15:42:34.537777,-101
2021-12-24 15:42:34.537787,-82
2021-12-24 15:42:34.537797,-68
2021-12-24 15:42:34.537807,-52
2021-12-24 15:42:34.537817,-55
2021-12-24 15:42:34.537827,-87
2021-12-24 15:42:34.537837,-108
2021-12-24 15:42:34.537847,-89
2021-12-24 15:42:34.537857,-27
2021-12-24 15:42:34.537867,64
2021-12-24 15:42:34.537877,94
2021-12-24 15:42:34.537887,-36
2021-12-24 15:42:34.537897,-232
2021-12-24 15:42:34.537906,-223
2021-12-24 15:42:34.537916,-50
2021-12-24 15:42:34.537926,13
2021-12-24 15:42:34.537936,0
2021-12-24 15:42:34.537946,32
2021-12-24 15:42:34.537956,59
2021-12-24 15:42:34.537966,62
2021-12-24 15:42:34.537976,78
2021-12-24 15:42:34.537986,98
2021-12-24 15:42:34.762554,96
2021-12-24 15:42:34.762576,89
2021-12-24 15:42:34.762583,94
2021-12-24 15:42:34.762607,96
2021-12-24 15:42:34.762617,101
2021-12-24 15:42:34.762627,110
2021-12-24 15:42:34.762637,87
2021-12-24 15:42:34.762646,73
2021-12-24 15:42:34.762656,101
2021-12-24 15:42:34.762666,119
2021-12-24 15:42:34.762676,124
2021-12-24 15:42:34.762686,131
2021-12-24 15:42:34.762695,117
2021-12-24 15:42:34.762705,112
2021-12-24 15:42:34.762715,147
2021-12-24 15:42:34.762725,163
2021-12-24 15:42:34.762735,151
2021-12-24 15:42:34.762744,131
2021-12-24 15:42:34.762754,114
2021-12-24 15:42:34.762764,128
2021-12-24 15:42:34.762774,158
2021-12-24 15:42:34.762784,163
2021-12-24 15:42:34.762793,163
2021-12-24 15:42:34.762803,154
2021-12-24 15:42:34.762813,128
2021-12-24 15:42:34.762823,114
2021-12-24 15:42:34.762832,112
2021-12-24 15:42:34.762842,101
2021-12-24 15:42:34.762852,82
2021-12-24 15:42:34.762862,75
2021-12-24 15:42:34.987592,66
2021-12-24 15:42:34.987615,29
2021-12-24 15:42:34.987622,-22
2021-12-24 15:42:34.987629,-34
2021-12-24 15:42:34.987635,-11
2021-12-24 15:42:34.987642,-36
2021-12-24 15:42:34.987648,-75
2021-12-24 15:42:34.987655,-50
2021-12-24 15:42:34.987661,-16
2021-12-24 15:42:34.987667,-18
2021-12-24 15:42:34.987674,-25
2021-12-24 15:42:34.987680,-41
2021-12-24 15:42:34.987686,-52
2021-12-24 15:42:34.987693,-20
2021-12-24 15:42:34.987699,0
2021-12-24 15:42:34.987705,-2
2021-12-24 15:42:34.987712,4
2021-12-24 15:42:34.987718,6
2021-12-24 15:42:34.987724,-18
2021-12-24 15:42:34.987731,-25
2021-12-24 15:42:34.987737,-4
2021-12-24 15:42:34.987744,2
2021-12-24 15:42:34.987750,-6
2021-12-24 15:42:34.987756,-11
2021-12-24 15:42:34.987763,-2
2021-12-24 15:42:34.987769,20
2021-12-24 15:42:34.987775,36
2021-12-24 15:42:34.987782,43
2021-12-24 15:42:34.987788,55
2021-12-24 15:42:34.987794,55
2021-12-24 15:42:35.256300,41
2021-12-24 15:42:35.256330,18
2021-12-24 15:42:35.256342,0
2021-12-24 15:42:35.256352,-9
2021-12-24 15:42:35.256362,-29
2021-12-24 15:42:35.256372,-59
2021-12-24 15:42:35.256381,-71
2021-12-24 15:42:35.256391,-68
2021-12-24 15:42:35.256401,-78
2021-12-24 15:42:35.256411,-112
2021-12-24 15:42:35.256420,-135
2021-12-24 15:42:35.256430,-91
2021-12-24 15:42:35.256440,2
2021-12-24 15:42:35.256450,32
2021-12-24 15:42:35.256459,-140
2021-12-24 15:42:35.256469,-393
2021-12-24 15:42:35.256479,-381
2021-12-24 15:42:35.256489,-167
2021-12-24 15:42:35.256499,-98
2021-12-24 15:42:35.256508,-119
2021-12-24 15:42:35.256518,-103
2021-12-24 15:42:35.256528,-114
2021-12-24 15:42:35.256538,-135
2021-12-24 15:42:35.256552,-105
2021-12-24 15:42:35.256562,-62
2021-12-24 15:42:35.256572,-62
2021-12-24 15:42:35.256582,-71
2021-12-24 15:42:35.256592,-62
2021-12-24 15:42:35.256602,-59
2021-12-24 15:42:35.256612,-43
2021-12-24 15:42:35.437696,-11
2021-12-24 15:42:35.437726,9
2021-12-24 15:42:35.437737,18
2021-12-24 15:42:35.437748,0
2021-12-24 15:42:35.437758,-43
2021-12-24 15:42:35.437767,-41
2021-12-24 15:42:35.437777,-18
2021-12-24 15:42:35.437787,-55
2021-12-24 15:42:35.437797,-87
2021-12-24 15:42:35.437806,-71
2021-12-24 15:42:35.437816,-62
2021-12-24 15:42:35.437826,-43
2021-12-24 15:42:35.437835,-6
2021-12-24 15:42:35.437845,11
2021-12-24 15:42:35.437855,22
2021-12-24 15:42:35.437865,22
2021-12-24 15:42:35.437875,6
2021-12-24 15:42:35.437884,-6
2021-12-24 15:42:35.437894,-18
2021-12-24 15:42:35.437904,-18
2021-12-24 15:42:35.437914,-6
2021-12-24 15:42:35.437923,-25
2021-12-24 15:42:35.437933,-66
2021-12-24 15:42:35.437943,-64
2021-12-24 15:42:35.437952,-22
2021-12-24 15:42:35.437962,-4
2021-12-24 15:42:35.437972,-18
2021-12-24 15:42:35.437982,-34
2021-12-24 15:42:35.437992,-25
2021-12-24 15:42:35.438001,6
2021-12-24 15:42:35.707851,41
2021-12-24 15:42:35.707882,68
2021-12-24 15:42:35.707893,71
2021-12-24 15:42:35.707903,32
2021-12-24 15:42:35.707913,16
2021-12-24 15:42:35.707922,52
2021-12-24 15:42:35.707932,71
2021-12-24 15:42:35.707942,71
2021-12-24 15:42:35.707951,75
2021-12-24 15:42:35.707961,55
2021-12-24 15:42:35.707970,43
2021-12-24 15:42:35.707980,78
2021-12-24 15:42:35.707990,98
2021-12-24 15:42:35.707999,101
2021-12-24 15:42:35.708009,105
2021-12-24 15:42:35.708019,98
2021-12-24 15:42:35.708028,103
2021-12-24 15:42:35.708038,128
2021-12-24 15:42:35.708048,149
2021-12-24 15:42:35.708057,165
2021-12-24 15:42:35.708067,163
2021-12-24 15:42:35.708077,147
2021-12-24 15:42:35.708086,156
2021-12-24 15:42:35.708096,177
2021-12-24 15:42:35.708105,158
2021-12-24 15:42:35.708115,124
2021-12-24 15:42:35.708125,112
2021-12-24 15:42:35.708134,110
2021-12-24 15:42:35.708144,119
2021-12-24 15:42:35.708153,140
2021-12-24 15:42:35.932510,158
2021-12-24 15:42:35.932531,172
2021-12-24 15:42:35.932538,174
2021-12-24 15:42:35.932545,163
2021-12-24 15:42:35.932571,167
2021-12-24 15:42:35.932581,188
2021-12-24 15:42:35.932590,188
2021-12-24 15:42:35.932600,179
2021-12-24 15:42:35.932609,154
2021-12-24 15:42:35.932619,117
2021-12-24 15:42:35.932629,119
2021-12-24 15:42:35.932638,144
2021-12-24 15:42:35.932648,131
2021-12-24 15:42:35.932658,73
2021-12-24 15:42:35.932668,25
2021-12-24 15:42:35.932677,36
2021-12-24 15:42:35.932687,124
2021-12-24 15:42:35.932697,200
2021-12-24 15:42:35.932706,124
2021-12-24 15:42:35.932716,-105
2021-12-24 15:42:35.932726,-220
2021-12-24 15:42:35.932736,-91
2021-12-24 15:42:35.932746,0
2021-12-24 15:42:35.932755,-25
2021-12-24 15:42:35.932765,0
2021-12-24 15:42:35.932775,25
2021-12-24 15:42:35.932785,-9
2021-12-24 15:42:35.932794,-29
2021-12-24 15:42:35.932804,-6
2021-12-24 15:42:35.932814,16
2021-12-24 15:42:36.157275,27
2021-12-24 15:42:36.157298,36
2021-12-24 15:42:36.157305,39
2021-12-24 15:42:36.157311,41
2021-12-24 15:42:36.157318,43
2021-12-24 15:42:36.157324,45
2021-12-24 15:42:36.157331,52
2021-12-24 15:42:36.157338,45
2021-12-24 15:42:36.157344,27
2021-12-24 15:42:36.157350,41
2021-12-24 15:42:36.157357,73
2021-12-24 15:42:36.157363,94
2021-12-24 15:42:36.157369,121
2021-12-24 15:42:36.157376,140
2021-12-24 15:42:36.157382,119
2021-12-24 15:42:36.157388,108
2021-12-24 15:42:36.157395,128
2021-12-24 15:42:36.157401,158
2021-12-24 15:42:36.157407,170
2021-12-24 15:42:36.157414,172
2021-12-24 15:42:36.157420,177
2021-12-24 15:42:36.157426,183
2021-12-24 15:42:36.157433,179
2021-12-24 15:42:36.157439,181
2021-12-24 15:42:36.157445,186
2021-12-24 15:42:36.157452,165
2021-12-24 15:42:36.157458,121
2021-12-24 15:42:36.157464,80
2021-12-24 15:42:36.157471,57
2021-12-24 15:42:36.157477,57
2021-12-24 15:42:36.382133,71
2021-12-24 15:42:36.382152,78
2021-12-24 15:42:36.382159,78
2021-12-24 15:42:36.382166,85
2021-12-24 15:42:36.382172,98
2021-12-24 15:42:36.382179,101
2021-12-24 15:42:36.382185,94
2021-12-24 15:42:36.382191,80
2021-12-24 15:42:36.382198,80
2021-12-24 15:42:36.382204,94
2021-12-24 15:42:36.382210,105
2021-12-24 15:42:36.382217,112
2021-12-24 15:42:36.382223,103
2021-12-24 15:42:36.382229,87
2021-12-24 15:42:36.382235,94
2021-12-24 15:42:36.382242,119
2021-12-24 15:42:36.382248,181
2021-12-24 15:42:36.382254,262
2021-12-24 15:42:36.382261,160
2021-12-24 15:42:36.382267,-121
2021-12-24 15:42:36.382273,-177
2021-12-24 15:42:36.382279,25
2021-12-24 15:42:36.382286,108
2021-12-24 15:42:36.382292,96
2021-12-24 15:42:36.382298,135
2021-12-24 15:42:36.382305,156
2021-12-24 15:42:36.382311,147
2021-12-24 15:42:36.382318,160
2021-12-24 15:42:36.382324,186
2021-12-24 15:42:36.382330,202
2021-12-24 15:42:36.607624,200
2021-12-24 15:42:36.607654,186
2021-12-24 15:42:36.607666,186
2021-12-24 15:42:36.607676,190
2021-12-24 15:42:36.607686,200
2021-12-24 15:42:36.607696,204
2021-12-24 15:42:36.607705,177
2021-12-24 15:42:36.607715,163
2021-12-24 15:42:36.607725,200
2021-12-24 15:42:36.607735,225
2021-12-24 15:42:36.607744,223
2021-12-24 15:42:36.607754,220
2021-12-24 15:42:36.607764,206
2021-12-24 15:42:36.607773,209
2021-12-24 15:42:36.607783,234
2021-12-24 15:42:36.607793,255
2021-12-24 15:42:36.607803,273
2021-12-24 15:42:36.607813,285
2021-12-24 15:42:36.607823,271
2021-12-24 15:42:36.607832,262
2021-12-24 15:42:36.607842,259
2021-12-24 15:42:36.607852,241
2021-12-24 15:42:36.607862,218
2021-12-24 15:42:36.607871,193
2021-12-24 15:42:36.607881,144
2021-12-24 15:42:36.607891,121
2021-12-24 15:42:36.607901,131
2021-12-24 15:42:36.607910,126
2021-12-24 15:42:36.607920,110
2021-12-24 15:42:36.607935,94
2021-12-24 15:42:36.877599,80
2021-12-24 15:42:36.877629,71
2021-12-24 15:42:36.877640,29
2021-12-24 15:42:36.877650,-16
2021-12-24 15:42:36.877660,-9
2021-12-24 15:42:36.877670,-20
2021-12-24 15:42:36.877680,-59
2021-12-24 15:42:36.877690,-52
2021-12-24 15:42:36.877700,-32
2021-12-24 15:42:36.877710,-36
2021-12-24 15:42:36.877720,-48
2021-12-24 15:42:36.877730,-71
2021-12-24 15:42:36.877740,-82
2021-12-24 15:42:36.877750,-45
2021-12-24 15:42:36.877759,-2
2021-12-24 15:42:36.877769,-4
2021-12-24 15:42:36.877780,-20
2021-12-24 15:42:36.877790,-27
2021-12-24 15:42:36.877800,-25
2021-12-24 15:42:36.877809,-9
2021-12-24 15:42:36.877819,4
2021-12-24 15:42:36.877829,0
2021-12-24 15:42:36.877839,-9
2021-12-24 15:42:36.877849,-9
2021-12-24 15:42:36.877859,-16
2021-12-24 15:42:36.877869,-59
2021-12-24 15:42:36.877878,-85
2021-12-24 15:42:36.877888,-68
2021-12-24 15:42:36.877898,-66
2021-12-24 15:42:36.877908,-68
2021-12-24 15:42:37.057726,-43
2021-12-24 15:42:37.057756,-25
2021-12-24 15:42:37.057768,-20
2021-12-24 15:42:37.057778,-16
2021-12-24 15:42:37.057788,-27
2021-12-24 15:42:37.057798,-34
2021-12-24 15:42:37.057807,-2
2021-12-24 15:42:37.057817,32
2021-12-24 15:42:37.057827,36
2021-12-24 15:42:37.057837,27
2021-12-24 15:42:37.057847,6
2021-12-24 15:42:37.057857,-16
2021-12-24 15:42:37.057867,-6
2021-12-24 15:42:37.057877,9
2021-12-24 15:42:37.057886,4
2021-12-24 15:42:37.057896,-6
2021-12-24 15:42:37.057906,-32
2021-12-24 15:42:37.057916,-52
2021-12-24 15:42:37.057926,-34
2021-12-24 15:42:37.057936,-11
2021-12-24 15:42:37.057946,-13
2021-12-24 15:42:37.057956,-29
2021-12-24 15:42:37.057966,-41
2021-12-24 15:42:37.057975,-29
2021-12-24 15:42:37.057985,-4
2021-12-24 15:42:37.057995,16
2021-12-24 15:42:37.058005,29
2021-12-24 15:42:37.058015,22
2021-12-24 15:42:37.058025,11
2021-12-24 15:42:37.058035,13
2021-12-24 15:42:37.326183,11
2021-12-24 15:42:37.326213,16
2021-12-24 15:42:37.326225,27
2021-12-24 15:42:37.326235,4
2021-12-24 15:42:37.326245,-39
2021-12-24 15:42:37.326255,-43
2021-12-24 15:42:37.326265,-34
2021-12-24 15:42:37.326275,-48
2021-12-24 15:42:37.326285,-29
2021-12-24 15:42:37.326295,27
2021-12-24 15:42:37.326305,68
2021-12-24 15:42:37.326315,22
2021-12-24 15:42:37.326325,-165
2021-12-24 15:42:37.326335,-298
2021-12-24 15:42:37.326345,-172
2021-12-24 15:42:37.326355,-57
2021-12-24 15:42:37.326364,-89
2021-12-24 15:42:37.326374,-75
2021-12-24 15:42:37.326384,-25
2021-12-24 15:42:37.326394,-27
2021-12-24 15:42:37.326404,-34
2021-12-24 15:42:37.326413,-43
2021-12-24 15:42:37.326423,-45
2021-12-24 15:42:37.326433,-25
2021-12-24 15:42:37.326443,-4
2021-12-24 15:42:37.326453,-4
2021-12-24 15:42:37.326462,-16
2021-12-24 15:42:37.326472,-25
2021-12-24 15:42:37.326482,-18
2021-12-24 15:42:37.326492,-13
2021-12-24 15:42:37.552627,-48
2021-12-24 15:42:37.552657,-85
2021-12-24 15:42:37.552670,-87
2021-12-24 15:42:37.552681,-108
2021-12-24 15:42:37.552691,-128
2021-12-24 15:42:37.552701,-110
2021-12-24 15:42:37.552711,-110
2021-12-24 15:42:37.552721,-142
2021-12-24 15:42:37.552731,-183
2021-12-24 15:42:37.552740,-234
2021-12-24 15:42:37.552750,-236
2021-12-24 15:42:37.552760,-202
2021-12-24 15:42:37.552770,-204
2021-12-24 15:42:37.552779,-211
2021-12-24 15:42:37.552789,-216
2021-12-24 15:42:37.552799,-252
2021-12-24 15:42:37.552809,-268
2021-12-24 15:42:37.552819,-250
2021-12-24 15:42:37.552829,-248
2021-12-24 15:42:37.552839,-266
2021-12-24 15:42:37.552848,-294
2021-12-24 15:42:37.552858,-321
2021-12-24 15:42:37.552868,-317
2021-12-24 15:42:37.552878,-289
2021-12-24 15:42:37.552888,-275
2021-12-24 15:42:37.552897,-264
2021-12-24 15:42:37.552907,-255
2021-12-24 15:42:37.552917,-259
2021-12-24 15:42:37.552927,-248
2021-12-24 15:42:37.552937,-223
2021-12-24 15:42:37.822540,-209
2021-12-24 15:42:37.822569,-188
2021-12-24 15:42:37.822581,-177
2021-12-24 15:42:37.822591,-186
2021-12-24 15:42:37.822601,-177
2021-12-24 15:42:37.822611,-149
2021-12-24 15:42:37.822621,-131
2021-12-24 15:42:37.822631,-135
2021-12-24 15:42:37.822641,-170
2021-12-24 15:42:37.822650,-206
2021-12-24 15:42:37.822660,-211
2021-12-24 15:42:37.822670,-216
2021-12-24 15:42:37.822680,-211
2021-12-24 15:42:37.822690,-204
2021-12-24 15:42:37.822700,-229
2021-12-24 15:42:37.822710,-248
2021-12-24 15:42:37.822720,-223
2021-12-24 15:42:37.822730,-197
2021-12-24 15:42:37.822739,-186
2021-12-24 15:42:37.822749,-172
2021-12-24 15:42:37.822759,-167
2021-12-24 15:42:37.822769,-167
2021-12-24 15:42:37.822779,-154
2021-12-24 15:42:37.822789,-128
2021-12-24 15:42:37.822798,-114
2021-12-24 15:42:37.822808,-114
2021-12-24 15:42:37.822818,-119
2021-12-24 15:42:37.822828,-103
2021-12-24 15:42:37.822838,-75
2021-12-24 15:42:37.822848,-48
2021-12-24 15:42:38.002733,-25
2021-12-24 15:42:38.002762,-29
2021-12-24 15:42:38.002773,-55
2021-12-24 15:42:38.002784,-64
2021-12-24 15:42:38.002794,-52
2021-12-24 15:42:38.002804,-75
2021-12-24 15:42:38.002814,-119
2021-12-24 15:42:38.002824,-114
2021-12-24 15:42:38.002833,-87
2021-12-24 15:42:38.002843,-82
2021-12-24 15:42:38.002853,-66
2021-12-24 15:42:38.002863,-34
2021-12-24 15:42:38.002873,-48
2021-12-24 15:42:38.002883,-68
2021-12-24 15:42:38.002893,-13
2021-12-24 15:42:38.002903,48
2021-12-24 15:42:38.002913,-48
2021-12-24 15:42:38.002923,-250
2021-12-24 15:42:38.002933,-285
2021-12-24 15:42:38.002943,-144
2021-12-24 15:42:38.002953,-85
2021-12-24 15:42:38.002963,-96
2021-12-24 15:42:38.002973,-57
2021-12-24 15:42:38.002982,-16
2021-12-24 15:42:38.002992,-11
2021-12-24 15:42:38.003002,-11
2021-12-24 15:42:38.003012,0
2021-12-24 15:42:38.003022,9
2021-12-24 15:42:38.003032,20
2021-12-24 15:42:38.003042,36
2021-12-24 15:42:38.272008,43
2021-12-24 15:42:38.272026,41
2021-12-24 15:42:38.272034,48
2021-12-24 15:42:38.272040,64
2021-12-24 15:42:38.272047,75
2021-12-24 15:42:38.272053,87
2021-12-24 15:42:38.272060,85
2021-12-24 15:42:38.272066,59
2021-12-24 15:42:38.272073,50
2021-12-24 15:42:38.272079,52
2021-12-24 15:42:38.272085,48
2021-12-24 15:42:38.272092,62
2021-12-24 15:42:38.272098,62
2021-12-24 15:42:38.272105,32
2021-12-24 15:42:38.272111,9
2021-12-24 15:42:38.272118,-9
2021-12-24 15:42:38.272124,-18
2021-12-24 15:42:38.272131,-32
2021-12-24 15:42:38.272137,-62
2021-12-24 15:42:38.272144,-71
2021-12-24 15:42:38.272150,-75
2021-12-24 15:42:38.272157,-101
2021-12-24 15:42:38.272163,-117
2021-12-24 15:42:38.272170,-121
2021-12-24 15:42:38.272176,-133
2021-12-24 15:42:38.272183,-142
2021-12-24 15:42:38.272189,-137
2021-12-24 15:42:38.272196,-131
2021-12-24 15:42:38.272205,-121
2021-12-24 15:42:38.272212,-117
2021-12-24 15:42:38.497488,-117
2021-12-24 15:42:38.497519,-101
2021-12-24 15:42:38.497531,-78
2021-12-24 15:42:38.497541,-80
2021-12-24 15:42:38.497551,-71
2021-12-24 15:42:38.497561,-48
2021-12-24 15:42:38.497571,-57
2021-12-24 15:42:38.497580,-66
2021-12-24 15:42:38.497590,-48
2021-12-24 15:42:38.497599,-39
2021-12-24 15:42:38.497609,-43
2021-12-24 15:42:38.497619,-87
2021-12-24 15:42:38.497628,-160
2021-12-24 15:42:38.497638,-158
2021-12-24 15:42:38.497648,-117
2021-12-24 15:42:38.497657,-128
2021-12-24 15:42:38.497667,-156
2021-12-24 15:42:38.497677,-167
2021-12-24 15:42:38.497687,-170
2021-12-24 15:42:38.497696,-158
2021-12-24 15:42:38.497706,-137
2021-12-24 15:42:38.497715,-121
2021-12-24 15:42:38.497725,-105
2021-12-24 15:42:38.497735,-89
2021-12-24 15:42:38.497744,-80
2021-12-24 15:42:38.497754,-55
2021-12-24 15:42:38.497764,-39
2021-12-24 15:42:38.497773,-32
2021-12-24 15:42:38.497783,-6
2021-12-24 15:42:38.497793,4
2021-12-24 15:42:38.677550,-11
2021-12-24 15:42:38.677580,-6
2021-12-24 15:42:38.677591,4
2021-12-24 15:42:38.677601,-2
2021-12-24 15:42:38.677611,-13
2021-12-24 15:42:38.677621,-18
2021-12-24 15:42:38.677630,-11
2021-12-24 15:42:38.677640,6
2021-12-24 15:42:38.677650,25
2021-12-24 15:42:38.677660,25
2021-12-24 15:42:38.677670,18
2021-12-24 15:42:38.677679,22
2021-12-24 15:42:38.677689,85
2021-12-24 15:42:38.677699,172
2021-12-24 15:42:38.677709,105
2021-12-24 15:42:38.677718,-149
2021-12-24 15:42:38.677728,-287
2021-12-24 15:42:38.677738,-144
2021-12-24 15:42:38.677748,-36
2021-12-24 15:42:38.677758,-75
2021-12-24 15:42:38.677768,-59
2021-12-24 15:42:38.677778,-2
2021-12-24 15:42:38.677787,-18
2021-12-24 15:42:38.677797,-41
2021-12-24 15:42:38.677807,-18
2021-12-24 15:42:38.677817,4
2021-12-24 15:42:38.677827,6
2021-12-24 15:42:38.677836,16
2021-12-24 15:42:38.677846,20
2021-12-24 15:42:38.677856,16
2021-12-24 15:42:38.947039,22
2021-12-24 15:42:38.947069,39
2021-12-24 15:42:38.947080,52
2021-12-24 15:42:38.947091,50
2021-12-24 15:42:38.947100,25
2021-12-24 15:42:38.947110,0
2021-12-24 15:42:38.947120,18
2021-12-24 15:42:38.947130,50
2021-12-24 15:42:38.947139,59
2021-12-24 15:42:38.947149,62
2021-12-24 15:42:38.947159,48
2021-12-24 15:42:38.947169,39
2021-12-24 15:42:38.947178,64
2021-12-24 15:42:38.947188,89
2021-12-24 15:42:38.947198,71
2021-12-24 15:42:38.947207,45
2021-12-24 15:42:38.947217,13
2021-12-24 15:42:38.947227,-34
2021-12-24 15:42:38.947237,-62
2021-12-24 15:42:38.947246,-82
2021-12-24 15:42:38.947256,-154
2021-12-24 15:42:38.947266,-241
2021-12-24 15:42:38.947275,-275
2021-12-24 15:42:38.947285,-266
2021-12-24 15:42:38.947295,-252
2021-12-24 15:42:38.947304,-243
2021-12-24 15:42:38.947314,-232
2021-12-24 15:42:38.947324,-232
2021-12-24 15:42:38.947333,-234
2021-12-24 15:42:38.947343,-223
2021-12-24 15:42:39.216932,-200
2021-12-24 15:42:39.216961,-177
2021-12-24 15:42:39.216973,-165
2021-12-24 15:42:39.216983,-181
2021-12-24 15:42:39.216993,-202
2021-12-24 15:42:39.217003,-181
2021-12-24 15:42:39.217013,-137
2021-12-24 15:42:39.217023,-114
2021-12-24 15:42:39.217032,-112
2021-12-24 15:42:39.217042,-135
2021-12-24 15:42:39.217052,-160
2021-12-24 15:42:39.217062,-137
2021-12-24 15:42:39.217072,-98
2021-12-24 15:42:39.217082,-85
2021-12-24 15:42:39.217091,-89
2021-12-24 15:42:39.217101,-101
2021-12-24 15:42:39.217112,-101
2021-12-24 15:42:39.217121,-78
2021-12-24 15:42:39.217131,-59
2021-12-24 15:42:39.217141,-45
2021-12-24 15:42:39.217151,-36
2021-12-24 15:42:39.217161,-52
2021-12-24 15:42:39.217171,-78
2021-12-24 15:42:39.217180,-78
2021-12-24 15:42:39.217190,-57
2021-12-24 15:42:39.217200,-32
2021-12-24 15:42:39.217210,-13
2021-12-24 15:42:39.217220,-11
2021-12-24 15:42:39.217230,-16
2021-12-24 15:42:39.217240,4
2021-12-24 15:42:39.531130,27
2021-12-24 15:42:39.531160,29
2021-12-24 15:42:39.531172,20
2021-12-24 15:42:39.531182,4
2021-12-24 15:42:39.531192,6
2021-12-24 15:42:39.531202,27
2021-12-24 15:42:39.531211,39
2021-12-24 15:42:39.531221,50
2021-12-24 15:42:39.531231,52
2021-12-24 15:42:39.531240,34
2021-12-24 15:42:39.531250,45
2021-12-24 15:42:39.531260,85
2021-12-24 15:42:39.531269,114
2021-12-24 15:42:39.531279,165
2021-12-24 15:42:39.531289,229
2021-12-24 15:42:39.531299,183
2021-12-24 15:42:39.531309,-9
2021-12-24 15:42:39.531318,-160
2021-12-24 15:42:39.531328,-75
2021-12-24 15:42:39.531338,78
2021-12-24 15:42:39.531347,78
2021-12-24 15:42:39.531357,41
2021-12-24 15:42:39.531367,48
2021-12-24 15:42:39.531377,20
2021-12-24 15:42:39.531386,-20
2021-12-24 15:42:39.531396,-11
2021-12-24 15:42:39.531406,-2
2021-12-24 15:42:39.531416,-6
2021-12-24 15:42:39.531425,13
2021-12-24 15:42:39.531435,48
2021-12-24 15:42:39.666885,64
2021-12-24 15:42:39.666916,73
2021-12-24 15:42:39.666928,64
2021-12-24 15:42:39.666938,45
2021-12-24 15:42:39.666947,55
2021-12-24 15:42:39.666957,89
2021-12-24 15:42:39.666967,121
2021-12-24 15:42:39.666976,140
2021-12-24 15:42:39.666986,137
2021-12-24 15:42:39.666995,133
2021-12-24 15:42:39.667005,156
2021-12-24 15:42:39.667015,190
2021-12-24 15:42:39.667024,204
2021-12-24 15:42:39.667034,202
2021-12-24 15:42:39.667043,174
2021-12-24 15:42:39.667053,149
2021-12-24 15:42:39.667062,167
2021-12-24 15:42:39.667072,188
2021-12-24 15:42:39.667082,183
2021-12-24 15:42:39.667091,160
2021-12-24 15:42:39.667101,101
2021-12-24 15:42:39.667110,50
2021-12-24 15:42:39.667120,48
2021-12-24 15:42:39.667129,52
2021-12-24 15:42:39.667139,41
2021-12-24 15:42:39.667148,18
2021-12-24 15:42:39.667158,-18
2021-12-24 15:42:39.667167,-62
2021-12-24 15:42:39.667177,-59
2021-12-24 15:42:39.667187,-34
2021-12-24 15:42:39.847699,-45
2021-12-24 15:42:39.847728,-71
2021-12-24 15:42:39.847740,-85
2021-12-24 15:42:39.847750,-103
2021-12-24 15:42:39.847760,-110
2021-12-24 15:42:39.847769,-87
2021-12-24 15:42:39.847779,-73
2021-12-24 15:42:39.847789,-94
2021-12-24 15:42:39.847798,-124
2021-12-24 15:42:39.847808,-117
2021-12-24 15:42:39.847818,-96
2021-12-24 15:42:39.847828,-82
2021-12-24 15:42:39.847837,-78
2021-12-24 15:42:39.847847,-101
2021-12-24 15:42:39.847857,-131
2021-12-24 15:42:39.847866,-114
2021-12-24 15:42:39.847876,-87
2021-12-24 15:42:39.847886,-73
2021-12-24 15:42:39.847896,-62
2021-12-24 15:42:39.847905,-64
2021-12-24 15:42:39.847915,-64
2021-12-24 15:42:39.847925,-55
2021-12-24 15:42:39.847934,-41
2021-12-24 15:42:39.847944,-27
2021-12-24 15:42:39.847954,-22
2021-12-24 15:42:39.847964,-20
2021-12-24 15:42:39.847973,-16
2021-12-24 15:42:39.847983,-6
2021-12-24 15:42:39.847993,-20
2021-12-24 15:42:39.848003,-59
2021-12-24 15:42:40.072473,-71
2021-12-24 15:42:40.072504,-45
2021-12-24 15:42:40.072515,-34
2021-12-24 15:42:40.072525,-29
2021-12-24 15:42:40.072535,-16
2021-12-24 15:42:40.072545,2
2021-12-24 15:42:40.072555,-9
2021-12-24 15:42:40.072564,-36
2021-12-24 15:42:40.072574,-22
2021-12-24 15:42:40.072584,9
2021-12-24 15:42:40.072594,32
2021-12-24 15:42:40.072603,50
2021-12-24 15:42:40.072613,39
2021-12-24 15:42:40.072623,6
2021-12-24 15:42:40.072632,9
2021-12-24 15:42:40.072642,32
2021-12-24 15:42:40.072652,43
2021-12-24 15:42:40.072662,55
2021-12-24 15:42:40.072671,64
2021-12-24 15:42:40.072681,68
2021-12-24 15:42:40.072691,82
2021-12-24 15:42:40.072700,96
2021-12-24 15:42:40.072710,110
2021-12-24 15:42:40.072725,137
2021-12-24 15:42:40.072735,186
2021-12-24 15:42:40.072744,266
2021-12-24 15:42:40.072754,312
2021-12-24 15:42:40.072764,177
2021-12-24 15:42:40.072774,-48
2021-12-24 15:42:40.072784,-36
2021-12-24 15:42:40.297508,133
2021-12-24 15:42:40.297538,154
2021-12-24 15:42:40.297549,119
2021-12-24 15:42:40.297559,163
2021-12-24 15:42:40.297569,183
2021-12-24 15:42:40.297579,160
2021-12-24 15:42:40.297589,142
2021-12-24 15:42:40.297598,142
2021-12-24 15:42:40.297608,156
2021-12-24 15:42:40.297618,156
2021-12-24 15:42:40.297627,156
2021-12-24 15:42:40.297637,151
2021-12-24 15:42:40.297647,128
2021-12-24 15:42:40.297656,124
2021-12-24 15:42:40.297666,149
2021-12-24 15:42:40.297676,151
2021-12-24 15:42:40.297685,149
2021-12-24 15:42:40.297695,158
2021-12-24 15:42:40.297705,156
2021-12-24 15:42:40.297715,154
2021-12-24 15:42:40.297724,158
2021-12-24 15:42:40.297734,149
2021-12-24 15:42:40.297744,163
2021-12-24 15:42:40.297753,193
2021-12-24 15:42:40.297763,197
2021-12-24 15:42:40.297773,190
2021-12-24 15:42:40.297782,181
2021-12-24 15:42:40.297792,165
2021-12-24 15:42:40.297802,142
2021-12-24 15:42:40.297811,121
2021-12-24 15:42:40.567419,112
2021-12-24 15:42:40.567450,98
2021-12-24 15:42:40.567461,48
2021-12-24 15:42:40.567471,-36
2021-12-24 15:42:40.567481,-121
2021-12-24 15:42:40.567491,-179
2021-12-24 15:42:40.567501,-193
2021-12-24 15:42:40.567511,-174
2021-12-24 15:42:40.567521,-158
2021-12-24 15:42:40.567530,-160
2021-12-24 15:42:40.567540,-158
2021-12-24 15:42:40.567550,-177
2021-12-24 15:42:40.567560,-179
2021-12-24 15:42:40.567570,-133
2021-12-24 15:42:40.567580,-103
2021-12-24 15:42:40.567590,-105
2021-12-24 15:42:40.567600,-94
2021-12-24 15:42:40.567609,-75
2021-12-24 15:42:40.567619,-55
2021-12-24 15:42:40.567629,-32
2021-12-24 15:42:40.567639,-18
2021-12-24 15:42:40.567649,-11
2021-12-24 15:42:40.567658,-6
2021-12-24 15:42:40.567668,-4
2021-12-24 15:42:40.567678,6
2021-12-24 15:42:40.567688,29
2021-12-24 15:42:40.567698,45
2021-12-24 15:42:40.567708,41
2021-12-24 15:42:40.567717,32
2021-12-24 15:42:40.567727,36
2021-12-24 15:42:40.837673,64
2021-12-24 15:42:40.837694,87
2021-12-24 15:42:40.837701,96
2021-12-24 15:42:40.837708,96
2021-12-24 15:42:40.837714,85
2021-12-24 15:42:40.837720,73
2021-12-24 15:42:40.837727,80
2021-12-24 15:42:40.837733,89
2021-12-24 15:42:40.837739,89
2021-12-24 15:42:40.837745,80
2021-12-24 15:42:40.837752,55
2021-12-24 15:42:40.837758,32
2021-12-24 15:42:40.837764,50
2021-12-24 15:42:40.837770,82
2021-12-24 15:42:40.837776,87
2021-12-24 15:42:40.837783,68
2021-12-24 15:42:40.837789,39
2021-12-24 15:42:40.837795,27
2021-12-24 15:42:40.837801,64
2021-12-24 15:42:40.837807,140
2021-12-24 15:42:40.837814,227
2021-12-24 15:42:40.837820,234
2021-12-24 15:42:40.837826,41
2021-12-24 15:42:40.837832,-204
2021-12-24 15:42:40.837839,-149
2021-12-24 15:42:40.837845,80
2021-12-24 15:42:40.837851,124
2021-12-24 15:42:40.837857,75
2021-12-24 15:42:40.837864,110
2021-12-24 15:42:40.837870,142
2021-12-24 15:42:41.062449,140
2021-12-24 15:42:41.062479,160
2021-12-24 15:42:41.062491,181
2021-12-24 15:42:41.062501,149
2021-12-24 15:42:41.062511,101
2021-12-24 15:42:41.062520,103
2021-12-24 15:42:41.062530,114
2021-12-24 15:42:41.062540,94
2021-12-24 15:42:41.062549,89
2021-12-24 15:42:41.062559,87
2021-12-24 15:42:41.062569,50
2021-12-24 15:42:41.062578,32
2021-12-24 15:42:41.062588,62
2021-12-24 15:42:41.062597,91
2021-12-24 15:42:41.062607,94
2021-12-24 15:42:41.062617,82
2021-12-24 15:42:41.062626,82
2021-12-24 15:42:41.062636,110
2021-12-24 15:42:41.062645,140
2021-12-24 15:42:41.062655,160
2021-12-24 15:42:41.062665,163
2021-12-24 15:42:41.062674,137
2021-12-24 15:42:41.062684,117
2021-12-24 15:42:41.062693,131
2021-12-24 15:42:41.062703,124
2021-12-24 15:42:41.062713,75
2021-12-24 15:42:41.062723,36
2021-12-24 15:42:41.062732,2
2021-12-24 15:42:41.062742,-27
2021-12-24 15:42:41.062752,-32
2021-12-24 15:42:41.287602,-50
2021-12-24 15:42:41.287623,-75
2021-12-24 15:42:41.287630,-98
2021-12-24 15:42:41.287637,-135
2021-12-24 15:42:41.287643,-151
2021-12-24 15:42:41.287649,-137
2021-12-24 15:42:41.287656,-128
2021-12-24 15:42:41.287662,-114
2021-12-24 15:42:41.287668,-117
2021-12-24 15:42:41.287674,-144
2021-12-24 15:42:41.287681,-142
2021-12-24 15:42:41.287687,-112
2021-12-24 15:42:41.287693,-98
2021-12-24 15:42:41.287700,-91
2021-12-24 15:42:41.287706,-101
2021-12-24 15:42:41.287712,-140
2021-12-24 15:42:41.287718,-142
2021-12-24 15:42:41.287725,-96
2021-12-24 15:42:41.287731,-68
2021-12-24 15:42:41.287737,-71
2021-12-24 15:42:41.287743,-101
2021-12-24 15:42:41.287750,-131
2021-12-24 15:42:41.287756,-110
2021-12-24 15:42:41.287762,-75
2021-12-24 15:42:41.287768,-66
2021-12-24 15:42:41.287775,-57
2021-12-24 15:42:41.287781,-62
2021-12-24 15:42:41.287787,-75
2021-12-24 15:42:41.287794,-55
2021-12-24 15:42:41.287800,-20
2021-12-24 15:42:41.556061,-6
2021-12-24 15:42:41.556091,-4
2021-12-24 15:42:41.556102,-4
2021-12-24 15:42:41.556112,-16
2021-12-24 15:42:41.556122,-6
2021-12-24 15:42:41.556132,13
2021-12-24 15:42:41.556142,20
2021-12-24 15:42:41.556152,29
2021-12-24 15:42:41.556161,39
2021-12-24 15:42:41.556171,36
2021-12-24 15:42:41.556181,32
2021-12-24 15:42:41.556190,18
2021-12-24 15:42:41.556200,16
2021-12-24 15:42:41.556210,25
2021-12-24 15:42:41.556219,-4
2021-12-24 15:42:41.556229,-50
2021-12-24 15:42:41.556239,-59
2021-12-24 15:42:41.556249,-41
2021-12-24 15:42:41.556259,-27
2021-12-24 15:42:41.556268,-34
2021-12-24 15:42:41.556278,-52
2021-12-24 15:42:41.556288,-57
2021-12-24 15:42:41.556297,-32
2021-12-24 15:42:41.556307,-9
2021-12-24 15:42:41.556317,-16
2021-12-24 15:42:41.556326,-41
2021-12-24 15:42:41.556336,-52
2021-12-24 15:42:41.556346,-48
2021-12-24 15:42:41.556356,-29
2021-12-24 15:42:41.556365,18
2021-12-24 15:42:41.692435,91
2021-12-24 15:42:41.692466,117
2021-12-24 15:42:41.692478,-39
2021-12-24 15:42:41.692488,-289
2021-12-24 15:42:41.692498,-291
2021-12-24 15:42:41.692508,-98
2021-12-24 15:42:41.692518,-52
2021-12-24 15:42:41.692527,-117
2021-12-24 15:42:41.692537,-121
2021-12-24 15:42:41.692547,-96
2021-12-24 15:42:41.692557,-87
2021-12-24 15:42:41.692567,-66
2021-12-24 15:42:41.692576,-52
2021-12-24 15:42:41.692586,-71
2021-12-24 15:42:41.692596,-80
2021-12-24 15:42:41.692606,-73
2021-12-24 15:42:41.692615,-82
2021-12-24 15:42:41.692625,-80
2021-12-24 15:42:41.692635,-66
2021-12-24 15:42:41.692645,-78
2021-12-24 15:42:41.692655,-89
2021-12-24 15:42:41.692664,-64
2021-12-24 15:42:41.692674,-41
2021-12-24 15:42:41.692684,-25
2021-12-24 15:42:41.692693,-2
2021-12-24 15:42:41.692703,6
2021-12-24 15:42:41.692713,11
2021-12-24 15:42:41.692723,36
2021-12-24 15:42:41.692732,64
2021-12-24 15:42:41.692742,96
2021-12-24 15:42:41.917629,128
2021-12-24 15:42:41.917659,144
2021-12-24 15:42:41.917671,158
2021-12-24 15:42:41.917681,172
2021-12-24 15:42:41.917690,179
2021-12-24 15:42:41.917700,172
2021-12-24 15:42:41.917710,124
2021-12-24 15:42:41.917720,62
2021-12-24 15:42:41.917730,45
2021-12-24 15:42:41.917739,45
2021-12-24 15:42:41.917749,36
2021-12-24 15:42:41.917759,36
2021-12-24 15:42:41.917768,18
2021-12-24 15:42:41.917778,-11
2021-12-24 15:42:41.917788,-13
2021-12-24 15:42:41.917798,-20
2021-12-24 15:42:41.917807,-32
2021-12-24 15:42:41.917817,-6
2021-12-24 15:42:41.917827,9
2021-12-24 15:42:41.917836,6
2021-12-24 15:42:41.917846,9
2021-12-24 15:42:41.917856,-20
2021-12-24 15:42:41.917865,-43
2021-12-24 15:42:41.917875,-9
2021-12-24 15:42:41.917885,9
2021-12-24 15:42:41.917894,6
2021-12-24 15:42:41.917904,27
2021-12-24 15:42:41.917914,39
2021-12-24 15:42:41.917923,41
2021-12-24 15:42:41.917933,62
2021-12-24 15:42:42.141873,75
2021-12-24 15:42:42.141893,78
2021-12-24 15:42:42.141900,80
2021-12-24 15:42:42.141907,85
2021-12-24 15:42:42.141913,101
2021-12-24 15:42:42.141919,108
2021-12-24 15:42:42.141925,78
2021-12-24 15:42:42.141932,68
2021-12-24 15:42:42.141938,96
2021-12-24 15:42:42.141945,105
2021-12-24 15:42:42.141951,105
2021-12-24 15:42:42.141957,108
2021-12-24 15:42:42.141963,91
2021-12-24 15:42:42.141970,85
2021-12-24 15:42:42.141976,103
2021-12-24 15:42:42.141982,110
2021-12-24 15:42:42.141989,101
2021-12-24 15:42:42.142028,75
2021-12-24 15:42:42.142035,55
2021-12-24 15:42:42.142041,73
2021-12-24 15:42:42.142048,96
2021-12-24 15:42:42.142054,94
2021-12-24 15:42:42.142061,101
2021-12-24 15:42:42.142067,110
2021-12-24 15:42:42.142073,112
2021-12-24 15:42:42.142080,131
2021-12-24 15:42:42.142086,144
2021-12-24 15:42:42.142092,135
2021-12-24 15:42:42.142099,131
2021-12-24 15:42:42.142105,131
2021-12-24 15:42:42.367388,131
2021-12-24 15:42:42.367419,149
2021-12-24 15:42:42.367430,165
2021-12-24 15:42:42.367440,158
2021-12-24 15:42:42.367450,149
2021-12-24 15:42:42.367459,131
2021-12-24 15:42:42.367469,112
2021-12-24 15:42:42.367478,124
2021-12-24 15:42:42.367488,137
2021-12-24 15:42:42.367498,133
2021-12-24 15:42:42.367507,124
2021-12-24 15:42:42.367517,101
2021-12-24 15:42:42.367527,94
2021-12-24 15:42:42.367536,121
2021-12-24 15:42:42.367546,135
2021-12-24 15:42:42.367556,128
2021-12-24 15:42:42.367565,117
2021-12-24 15:42:42.367575,89
2021-12-24 15:42:42.367585,55
2021-12-24 15:42:42.367595,22
2021-12-24 15:42:42.367604,2
2021-12-24 15:42:42.367614,4
2021-12-24 15:42:42.367624,-4
2021-12-24 15:42:42.367633,-32
2021-12-24 15:42:42.367643,-43
2021-12-24 15:42:42.367653,-41
2021-12-24 15:42:42.367662,-85
2021-12-24 15:42:42.367672,-154
2021-12-24 15:42:42.367682,-170
2021-12-24 15:42:42.367691,-149
2021-12-24 15:42:42.592316,-131
2021-12-24 15:42:42.592337,-105
2021-12-24 15:42:42.592345,-87
2021-12-24 15:42:42.592351,-91
2021-12-24 15:42:42.592376,-124
2021-12-24 15:42:42.592386,-149
2021-12-24 15:42:42.592396,-126
2021-12-24 15:42:42.592405,-98
2021-12-24 15:42:42.592415,-94
2021-12-24 15:42:42.592425,-91
2021-12-24 15:42:42.592434,-98
2021-12-24 15:42:42.592444,-103
2021-12-24 15:42:42.592454,-71
2021-12-24 15:42:42.592464,-39
2021-12-24 15:42:42.592474,-39
2021-12-24 15:42:42.592484,-43
2021-12-24 15:42:42.592494,-34
2021-12-24 15:42:42.592504,-22
2021-12-24 15:42:42.592514,-6
2021-12-24 15:42:42.592524,18
2021-12-24 15:42:42.592533,25
2021-12-24 15:42:42.592543,-4
2021-12-24 15:42:42.592553,-16
2021-12-24 15:42:42.592562,13
2021-12-24 15:42:42.592572,43
2021-12-24 15:42:42.592582,52
2021-12-24 15:42:42.592592,62
2021-12-24 15:42:42.592601,62
2021-12-24 15:42:42.592611,57
2021-12-24 15:42:42.592621,75
2021-12-24 15:42:42.907494,96
2021-12-24 15:42:42.907515,103
2021-12-24 15:42:42.907523,105
2021-12-24 15:42:42.907529,85
2021-12-24 15:42:42.907557,48
2021-12-24 15:42:42.907566,50
2021-12-24 15:42:42.907576,78
2021-12-24 15:42:42.907585,96
2021-12-24 15:42:42.907595,101
2021-12-24 15:42:42.907605,85
2021-12-24 15:42:42.907614,66
2021-12-24 15:42:42.907624,94
2021-12-24 15:42:42.907634,117
2021-12-24 15:42:42.907643,103
2021-12-24 15:42:42.907653,94
2021-12-24 15:42:42.907663,96
2021-12-24 15:42:42.907672,94
2021-12-24 15:42:42.907682,105
2021-12-24 15:42:42.907692,128
2021-12-24 15:42:42.907701,142
2021-12-24 15:42:42.907711,149
2021-12-24 15:42:42.907721,158
2021-12-24 15:42:42.907730,209
2021-12-24 15:42:42.907740,282
2021-12-24 15:42:42.907750,280
2021-12-24 15:42:42.907759,94
2021-12-24 15:42:42.907769,-119
2021-12-24 15:42:42.907779,-75
2021-12-24 15:42:42.907789,80
2021-12-24 15:42:42.907798,96
2021-12-24 15:42:43.087436,94
2021-12-24 15:42:43.087458,135
2021-12-24 15:42:43.087465,98
2021-12-24 15:42:43.087472,27
2021-12-24 15:42:43.087478,34
2021-12-24 15:42:43.087484,64
2021-12-24 15:42:43.087491,62
2021-12-24 15:42:43.087497,57
2021-12-24 15:42:43.087504,45
2021-12-24 15:42:43.087510,6
2021-12-24 15:42:43.087516,0
2021-12-24 15:42:43.087523,27
2021-12-24 15:42:43.087529,41
2021-12-24 15:42:43.087535,43
2021-12-24 15:42:43.087541,36
2021-12-24 15:42:43.087548,16
2021-12-24 15:42:43.087554,25
2021-12-24 15:42:43.087560,50
2021-12-24 15:42:43.087567,68
2021-12-24 15:42:43.087573,87
2021-12-24 15:42:43.087579,75
2021-12-24 15:42:43.087586,32
2021-12-24 15:42:43.087592,13
2021-12-24 15:42:43.087598,22
2021-12-24 15:42:43.087604,27
2021-12-24 15:42:43.087611,6
2021-12-24 15:42:43.087617,-36
2021-12-24 15:42:43.087623,-78
2021-12-24 15:42:43.087630,-89
2021-12-24 15:42:43.087636,-87
2021-12-24 15:42:43.312300,-110
2021-12-24 15:42:43.312330,-144
2021-12-24 15:42:43.312342,-172
2021-12-24 15:42:43.312352,-204
2021-12-24 15:42:43.312361,-213
2021-12-24 15:42:43.312371,-195
2021-12-24 15:42:43.312381,-193
2021-12-24 15:42:43.312391,-206
2021-12-24 15:42:43.312400,-232
2021-12-24 15:42:43.312410,-243
2021-12-24 15:42:43.312420,-225
2021-12-24 15:42:43.312430,-204
2021-12-24 15:42:43.312439,-195
2021-12-24 15:42:43.312449,-200
2021-12-24 15:42:43.312459,-227
2021-12-24 15:42:43.312468,-236
2021-12-24 15:42:43.312478,-204
2021-12-24 15:42:43.312488,-170
2021-12-24 15:42:43.312498,-156
2021-12-24 15:42:43.312507,-151
2021-12-24 15:42:43.312517,-149
2021-12-24 15:42:43.312527,-144
2021-12-24 15:42:43.312537,-133
2021-12-24 15:42:43.312546,-110
2021-12-24 15:42:43.312556,-91
2021-12-24 15:42:43.312566,-89
2021-12-24 15:42:43.312576,-114
2021-12-24 15:42:43.312585,-147
2021-12-24 15:42:43.312595,-147
2021-12-24 15:42:43.312605,-117
2021-12-24 15:42:43.580965,-103
2021-12-24 15:42:43.580986,-112
2021-12-24 15:42:43.580994,-114
2021-12-24 15:42:43.581000,-108
2021-12-24 15:42:43.581007,-103
2021-12-24 15:42:43.581013,-87
2021-12-24 15:42:43.581020,-80
2021-12-24 15:42:43.581026,-108
2021-12-24 15:42:43.581033,-149
2021-12-24 15:42:43.581039,-179
2021-12-24 15:42:43.581045,-172
2021-12-24 15:42:43.581052,-140
2021-12-24 15:42:43.581058,-133
2021-12-24 15:42:43.581064,-156
2021-12-24 15:42:43.581071,-165
2021-12-24 15:42:43.581077,-154
2021-12-24 15:42:43.581084,-140
2021-12-24 15:42:43.581090,-117
2021-12-24 15:42:43.581096,-94
2021-12-24 15:42:43.581103,-82
2021-12-24 15:42:43.581109,-66
2021-12-24 15:42:43.581115,-45
2021-12-24 15:42:43.581122,-39
2021-12-24 15:42:43.581128,-34
2021-12-24 15:42:43.581134,-29
2021-12-24 15:42:43.581141,-29
2021-12-24 15:42:43.581147,-16
2021-12-24 15:42:43.581154,-2
2021-12-24 15:42:43.581160,-13
2021-12-24 15:42:43.581167,-36
2021-12-24 15:42:43.762445,-36
2021-12-24 15:42:43.762475,-20
2021-12-24 15:42:43.762486,-6
2021-12-24 15:42:43.762496,9
2021-12-24 15:42:43.762506,82
2021-12-24 15:42:43.762516,179
2021-12-24 15:42:43.762525,147
2021-12-24 15:42:43.762535,-73
2021-12-24 15:42:43.762545,-250
2021-12-24 15:42:43.762554,-158
2021-12-24 15:42:43.762564,0
2021-12-24 15:42:43.762574,18
2021-12-24 15:42:43.762583,-2
2021-12-24 15:42:43.762593,-2
2021-12-24 15:42:43.762603,-2
2021-12-24 15:42:43.762612,6
2021-12-24 15:42:43.762622,22
2021-12-24 15:42:43.762632,36
2021-12-24 15:42:43.762642,43
2021-12-24 15:42:43.762651,45
2021-12-24 15:42:43.762661,45
2021-12-24 15:42:43.762670,20
2021-12-24 15:42:43.762680,4
2021-12-24 15:42:43.762690,18
2021-12-24 15:42:43.762699,11
2021-12-24 15:42:43.762709,-6
2021-12-24 15:42:43.762719,-18
2021-12-24 15:42:43.762728,-25
2021-12-24 15:42:43.762738,-27
2021-12-24 15:42:43.762748,-29
2021-12-24 15:42:43.987538,-22
2021-12-24 15:42:43.987567,-29
2021-12-24 15:42:43.987579,-48
2021-12-24 15:42:43.987589,-36
2021-12-24 15:42:43.987599,-16
2021-12-24 15:42:43.987609,-32
2021-12-24 15:42:43.987619,-62
2021-12-24 15:42:43.987629,-52
2021-12-24 15:42:43.987638,-22
2021-12-24 15:42:43.987648,-20
2021-12-24 15:42:43.987658,-25
2021-12-24 15:42:43.987668,-48
2021-12-24 15:42:43.987678,-105
2021-12-24 15:42:43.987688,-131
2021-12-24 15:42:43.987698,-154
2021-12-24 15:42:43.987708,-220
2021-12-24 15:42:43.987717,-239
2021-12-24 15:42:43.987727,-209
2021-12-24 15:42:43.987737,-206
2021-12-24 15:42:43.987746,-204
2021-12-24 15:42:43.987756,-181
2021-12-24 15:42:43.987766,-165
2021-12-24 15:42:43.987776,-156
2021-12-24 15:42:43.987785,-140
2021-12-24 15:42:43.987795,-124
2021-12-24 15:42:43.987805,-114
2021-12-24 15:42:43.987821,-91
2021-12-24 15:42:43.987844,-68
2021-12-24 15:42:43.987850,-66
2021-12-24 15:42:43.987857,-71
2021-12-24 15:42:44.257233,-57
2021-12-24 15:42:44.257253,-25
2021-12-24 15:42:44.257260,-22
2021-12-24 15:42:44.257267,-48
2021-12-24 15:42:44.257273,-64
2021-12-24 15:42:44.257280,-82
2021-12-24 15:42:44.257286,-94
2021-12-24 15:42:44.257293,-64
2021-12-24 15:42:44.257299,-36
2021-12-24 15:42:44.257305,-41
2021-12-24 15:42:44.257312,-55
2021-12-24 15:42:44.257318,-68
2021-12-24 15:42:44.257325,-59
2021-12-24 15:42:44.257331,-29
2021-12-24 15:42:44.257337,-13
2021-12-24 15:42:44.257344,-13
2021-12-24 15:42:44.257350,-9
2021-12-24 15:42:44.257357,-6
2021-12-24 15:42:44.257363,2
2021-12-24 15:42:44.257369,25
2021-12-24 15:42:44.257376,39
2021-12-24 15:42:44.257382,39
2021-12-24 15:42:44.257388,36
2021-12-24 15:42:44.257395,41
2021-12-24 15:42:44.257401,66
2021-12-24 15:42:44.257407,89
2021-12-24 15:42:44.257414,89
2021-12-24 15:42:44.257420,91
2021-12-24 15:42:44.257427,91
2021-12-24 15:42:44.257433,89
2021-12-24 15:42:44.437344,108
2021-12-24 15:42:44.437386,135
2021-12-24 15:42:44.437406,144
2021-12-24 15:42:44.437424,135
2021-12-24 15:42:44.437441,133
2021-12-24 15:42:44.437458,121
2021-12-24 15:42:44.437475,94
2021-12-24 15:42:44.437491,96
2021-12-24 15:42:44.437507,112
2021-12-24 15:42:44.437524,91
2021-12-24 15:42:44.437538,52
2021-12-24 15:42:44.437548,41
2021-12-24 15:42:44.437558,62
2021-12-24 15:42:44.437568,87
2021-12-24 15:42:44.437591,91
2021-12-24 15:42:44.437601,89
2021-12-24 15:42:44.437611,96
2021-12-24 15:42:44.437621,156
2021-12-24 15:42:44.437631,227
2021-12-24 15:42:44.437640,110
2021-12-24 15:42:44.437651,-177
2021-12-24 15:42:44.437660,-252
2021-12-24 15:42:44.437670,-78
2021-12-24 15:42:44.437680,-2
2021-12-24 15:42:44.437690,-22
2021-12-24 15:42:44.437700,11
2021-12-24 15:42:44.437710,20
2021-12-24 15:42:44.437720,-20
2021-12-24 15:42:44.437730,-36
2021-12-24 15:42:44.437739,-43
2021-12-24 15:42:44.751628,-68
2021-12-24 15:42:44.751648,-62
2021-12-24 15:42:44.751656,-45
2021-12-24 15:42:44.751662,-89
2021-12-24 15:42:44.751669,-128
2021-12-24 15:42:44.751675,-94
2021-12-24 15:42:44.751681,-85
2021-12-24 15:42:44.751688,-126
2021-12-24 15:42:44.751694,-147
2021-12-24 15:42:44.751700,-160
2021-12-24 15:42:44.751707,-179
2021-12-24 15:42:44.751713,-149
2021-12-24 15:42:44.751719,-110
2021-12-24 15:42:44.751725,-110
2021-12-24 15:42:44.751732,-117
2021-12-24 15:42:44.751738,-91
2021-12-24 15:42:44.751745,-36
2021-12-24 15:42:44.751751,4
2021-12-24 15:42:44.751757,6
2021-12-24 15:42:44.751764,27
2021-12-24 15:42:44.751770,52
2021-12-24 15:42:44.751776,25
2021-12-24 15:42:44.751782,-6
2021-12-24 15:42:44.751789,-2
2021-12-24 15:42:44.751795,20
2021-12-24 15:42:44.751801,36
2021-12-24 15:42:44.751807,6
2021-12-24 15:42:44.751814,-50
2021-12-24 15:42:44.751820,-68
2021-12-24 15:42:44.751826,-52
2021-12-24 15:42:44.932253,-25
2021-12-24 15:42:44.932284,-18
2021-12-24 15:42:44.932295,-64
2021-12-24 15:42:44.932305,-114
2021-12-24 15:42:44.932315,-94
2021-12-24 15:42:44.932324,-39
2021-12-24 15:42:44.932334,-13
2021-12-24 15:42:44.932343,-6
2021-12-24 15:42:44.932353,-9
2021-12-24 15:42:44.932363,-34
2021-12-24 15:42:44.932372,-36
2021-12-24 15:42:44.932382,-11
2021-12-24 15:42:44.932392,-11
2021-12-24 15:42:44.932401,-2
2021-12-24 15:42:44.932411,0
2021-12-24 15:42:44.932421,-41
2021-12-24 15:42:44.932431,-48
2021-12-24 15:42:44.932441,-2
2021-12-24 15:42:44.932450,82
2021-12-24 15:42:44.932477,195
2021-12-24 15:42:44.932487,163
2021-12-24 15:42:44.932497,-121
2021-12-24 15:42:44.932507,-335
2021-12-24 15:42:44.932516,-204
2021-12-24 15:42:44.932526,-32
2021-12-24 15:42:44.932536,-43
2021-12-24 15:42:44.932545,-64
2021-12-24 15:42:44.932555,-22
2021-12-24 15:42:44.932565,6
2021-12-24 15:42:44.932574,22
2021-12-24 15:42:45.201622,11
2021-12-24 15:42:45.201642,-9
2021-12-24 15:42:45.201649,22
2021-12-24 15:42:45.201654,75
2021-12-24 15:42:45.201659,78
2021-12-24 15:42:45.201664,55
2021-12-24 15:42:45.201669,50
2021-12-24 15:42:45.201675,62
2021-12-24 15:42:45.201680,64
2021-12-24 15:42:45.201685,66
2021-12-24 15:42:45.201690,78
2021-12-24 15:42:45.201695,73
2021-12-24 15:42:45.201700,71
2021-12-24 15:42:45.201705,105
2021-12-24 15:42:45.201710,117
2021-12-24 15:42:45.201716,68
2021-12-24 15:42:45.201721,57
2021-12-24 15:42:45.201726,117
2021-12-24 15:42:45.201731,151
2021-12-24 15:42:45.201736,197
2021-12-24 15:42:45.201741,271
2021-12-24 15:42:45.201746,188
2021-12-24 15:42:45.201751,45
2021-12-24 15:42:45.201756,94
2021-12-24 15:42:45.201761,186
2021-12-24 15:42:45.201766,160
2021-12-24 15:42:45.201772,124
2021-12-24 15:42:45.201777,140
2021-12-24 15:42:45.201782,174
2021-12-24 15:42:45.201787,149
2021-12-24 15:42:45.382332,85
2021-12-24 15:42:45.382353,103
2021-12-24 15:42:45.382361,133
2021-12-24 15:42:45.382367,85
2021-12-24 15:42:45.382373,96
2021-12-24 15:42:45.382380,163
2021-12-24 15:42:45.382386,149
2021-12-24 15:42:45.382392,66
2021-12-24 15:42:45.382398,-11
2021-12-24 15:42:45.382405,-34
2021-12-24 15:42:45.382411,-11
2021-12-24 15:42:45.382417,-11
2021-12-24 15:42:45.382423,-32
2021-12-24 15:42:45.382429,-48
2021-12-24 15:42:45.382436,-36
2021-12-24 15:42:45.382442,25
2021-12-24 15:42:45.382448,45
2021-12-24 15:42:45.382454,27
2021-12-24 15:42:45.382460,78
2021-12-24 15:42:45.382467,154
2021-12-24 15:42:45.382473,172
2021-12-24 15:42:45.382479,186
2021-12-24 15:42:45.382485,266
2021-12-24 15:42:45.382491,354
2021-12-24 15:42:45.382497,360
2021-12-24 15:42:45.382504,347
2021-12-24 15:42:45.382510,370
2021-12-24 15:42:45.382516,388
2021-12-24 15:42:45.382522,404
2021-12-24 15:42:45.382528,452
2021-12-24 15:42:45.695751,478
2021-12-24 15:42:45.695782,427
2021-12-24 15:42:45.695794,383
2021-12-24 15:42:45.695804,386
2021-12-24 15:42:45.695814,388
2021-12-24 15:42:45.695824,393
2021-12-24 15:42:45.695834,381
2021-12-24 15:42:45.695844,333
2021-12-24 15:42:45.695853,310
2021-12-24 15:42:45.695863,303
2021-12-24 15:42:45.695873,248
2021-12-24 15:42:45.695883,181
2021-12-24 15:42:45.695893,117
2021-12-24 15:42:45.695903,73
2021-12-24 15:42:45.695913,64
2021-12-24 15:42:45.695922,43
2021-12-24 15:42:45.695932,39
2021-12-24 15:42:45.695942,48
2021-12-24 15:42:45.695952,22
2021-12-24 15:42:45.695961,16
2021-12-24 15:42:45.695971,18
2021-12-24 15:42:45.695981,-11
2021-12-24 15:42:45.695991,-18
2021-12-24 15:42:45.696001,6
2021-12-24 15:42:45.696010,29
2021-12-24 15:42:45.696020,50
2021-12-24 15:42:45.696030,48
2021-12-24 15:42:45.696040,27
2021-12-24 15:42:45.696050,32
2021-12-24 15:42:45.696059,34
2021-12-24 15:42:45.876600,18
2021-12-24 15:42:45.876629,73
2021-12-24 15:42:45.876641,137
2021-12-24 15:42:45.876651,101
2021-12-24 15:42:45.876660,59
2021-12-24 15:42:45.876670,68
2021-12-24 15:42:45.876680,39
2021-12-24 15:42:45.876690,0
2021-12-24 15:42:45.876699,18
2021-12-24 15:42:45.876709,43
2021-12-24 15:42:45.876719,27
2021-12-24 15:42:45.876729,-4
2021-12-24 15:42:45.876738,-6
2021-12-24 15:42:45.876748,25
2021-12-24 15:42:45.876758,29
2021-12-24 15:42:45.876768,11
2021-12-24 15:42:45.876777,59
2021-12-24 15:42:45.876787,121
2021-12-24 15:42:45.876797,96
2021-12-24 15:42:45.876806,-25
2021-12-24 15:42:45.876816,-158
2021-12-24 15:42:45.876826,-98
2021-12-24 15:42:45.876836,36
2021-12-24 15:42:45.876845,36
2021-12-24 15:42:45.876855,29
2021-12-24 15:42:45.876865,94
2021-12-24 15:42:45.876874,114
2021-12-24 15:42:45.876884,80
2021-12-24 15:42:45.876894,43
2021-12-24 15:42:45.876904,25
2021-12-24 15:42:46.102414,9
2021-12-24 15:42:46.102442,-2
2021-12-24 15:42:46.102454,32
2021-12-24 15:42:46.102464,52
2021-12-24 15:42:46.102474,20
2021-12-24 15:42:46.102484,-13
2021-12-24 15:42:46.102494,-62
2021-12-24 15:42:46.102504,-131
2021-12-24 15:42:46.102514,-165
2021-12-24 15:42:46.102523,-128
2021-12-24 15:42:46.102533,-64
2021-12-24 15:42:46.102543,-73
2021-12-24 15:42:46.102553,-119
2021-12-24 15:42:46.102563,-117
2021-12-24 15:42:46.102573,-105
2021-12-24 15:42:46.102583,-124
2021-12-24 15:42:46.102593,-85
2021-12-24 15:42:46.102603,-25
2021-12-24 15:42:46.102613,-48
2021-12-24 15:42:46.102622,-91
2021-12-24 15:42:46.102632,-78
2021-12-24 15:42:46.102642,-68
2021-12-24 15:42:46.102652,-64
2021-12-24 15:42:46.102662,-29
2021-12-24 15:42:46.102672,-36
2021-12-24 15:42:46.102681,-82
2021-12-24 15:42:46.102691,-87
2021-12-24 15:42:46.102701,-98
2021-12-24 15:42:46.102711,-126
2021-12-24 15:42:46.102721,-114
2021-12-24 15:42:46.282177,-80
2021-12-24 15:42:46.282198,-82
2021-12-24 15:42:46.282205,-108
2021-12-24 15:42:46.282212,-108
2021-12-24 15:42:46.282218,-89
2021-12-24 15:42:46.282225,-62
2021-12-24 15:42:46.282231,-48
2021-12-24 15:42:46.282238,-55
2021-12-24 15:42:46.282244,-34
2021-12-24 15:42:46.282250,-18
2021-12-24 15:42:46.282257,-59
2021-12-24 15:42:46.282263,-85
2021-12-24 15:42:46.282270,-50
2021-12-24 15:42:46.282276,-25
2021-12-24 15:42:46.282282,-16
2021-12-24 15:42:46.282289,-32
2021-12-24 15:42:46.282295,-101
2021-12-24 15:42:46.282302,-91
2021-12-24 15:42:46.282308,16
2021-12-24 15:42:46.282315,43
2021-12-24 15:42:46.282321,-11
2021-12-24 15:42:46.282327,-39
2021-12-24 15:42:46.282334,-29
2021-12-24 15:42:46.282340,-16
2021-12-24 15:42:46.282347,-4
2021-12-24 15:42:46.282353,13
2021-12-24 15:42:46.282359,64
2021-12-24 15:42:46.282366,75
2021-12-24 15:42:46.282372,-2
2021-12-24 15:42:46.282378,-27
2021-12-24 15:42:46.551778,45
2021-12-24 15:42:46.551799,89
2021-12-24 15:42:46.551806,94
2021-12-24 15:42:46.551811,80
2021-12-24 15:42:46.551816,45
2021-12-24 15:42:46.551822,41
2021-12-24 15:42:46.551827,68
2021-12-24 15:42:46.551833,82
2021-12-24 15:42:46.551839,87
2021-12-24 15:42:46.551844,94
2021-12-24 15:42:46.551849,101
2021-12-24 15:42:46.551854,78
2021-12-24 15:42:46.551859,13
2021-12-24 15:42:46.551864,-20
2021-12-24 15:42:46.551869,9
2021-12-24 15:42:46.551875,11
2021-12-24 15:42:46.551880,-4
2021-12-24 15:42:46.551885,16
2021-12-24 15:42:46.551890,39
2021-12-24 15:42:46.551895,55
2021-12-24 15:42:46.551900,55
2021-12-24 15:42:46.551905,43
2021-12-24 15:42:46.551910,55
2021-12-24 15:42:46.551915,94
2021-12-24 15:42:46.551921,154
2021-12-24 15:42:46.551926,204
2021-12-24 15:42:46.551931,85
2021-12-24 15:42:46.551936,-170
2021-12-24 15:42:46.551941,-190
2021-12-24 15:42:46.551946,6
2021-12-24 15:42:46.776831,57
2021-12-24 15:42:46.776853,13
2021-12-24 15:42:46.776860,32
2021-12-24 15:42:46.776867,48
2021-12-24 15:42:46.776873,71
2021-12-24 15:42:46.776879,103
2021-12-24 15:42:46.776886,94
2021-12-24 15:42:46.776892,66
2021-12-24 15:42:46.776898,43
2021-12-24 15:42:46.776904,18
2021-12-24 15:42:46.776911,27
2021-12-24 15:42:46.776917,66
2021-12-24 15:42:46.776923,36
2021-12-24 15:42:46.776930,-50
2021-12-24 15:42:46.776936,-89
2021-12-24 15:42:46.776942,-66
2021-12-24 15:42:46.776949,-78
2021-12-24 15:42:46.776955,-114
2021-12-24 15:42:46.776961,-87
2021-12-24 15:42:46.776968,-43
2021-12-24 15:42:46.776974,-57
2021-12-24 15:42:46.776980,-73
2021-12-24 15:42:46.776987,-43
2021-12-24 15:42:46.776993,-18
2021-12-24 15:42:46.776999,-29
2021-12-24 15:42:46.777005,-50
2021-12-24 15:42:46.777012,-85
2021-12-24 15:42:46.777018,-110
2021-12-24 15:42:46.777025,-87
2021-12-24 15:42:46.777031,-59
2021-12-24 15:42:47.002462,-64
2021-12-24 15:42:47.002482,-78
2021-12-24 15:42:47.002490,-103
2021-12-24 15:42:47.002497,-147
2021-12-24 15:42:47.002503,-170
2021-12-24 15:42:47.002509,-179
2021-12-24 15:42:47.002516,-204
2021-12-24 15:42:47.002522,-211
2021-12-24 15:42:47.002528,-202
2021-12-24 15:42:47.002535,-188
2021-12-24 15:42:47.002541,-158
2021-12-24 15:42:47.002548,-124
2021-12-24 15:42:47.002554,-89
2021-12-24 15:42:47.002560,-71
2021-12-24 15:42:47.002567,-78
2021-12-24 15:42:47.002573,-66
2021-12-24 15:42:47.002579,-36
2021-12-24 15:42:47.002586,-68
2021-12-24 15:42:47.002592,-124
2021-12-24 15:42:47.002606,-101
2021-12-24 15:42:47.002613,-80
2021-12-24 15:42:47.002619,-124
2021-12-24 15:42:47.002626,-135
2021-12-24 15:42:47.002632,-98
2021-12-24 15:42:47.002638,-75
2021-12-24 15:42:47.002645,-85
2021-12-24 15:42:47.002651,-89
2021-12-24 15:42:47.002658,-64
2021-12-24 15:42:47.002664,-43
2021-12-24 15:42:47.002670,-41
2021-12-24 15:42:47.227096,-34
2021-12-24 15:42:47.227173,-41
2021-12-24 15:42:47.227190,-85
2021-12-24 15:42:47.227203,-96
2021-12-24 15:42:47.227214,-34
2021-12-24 15:42:47.227224,27
2021-12-24 15:42:47.227234,29
2021-12-24 15:42:47.227244,-2
2021-12-24 15:42:47.227255,-16
2021-12-24 15:42:47.227267,-11
2021-12-24 15:42:47.227279,2
2021-12-24 15:42:47.227290,32
2021-12-24 15:42:47.227302,45
2021-12-24 15:42:47.227313,16
2021-12-24 15:42:47.227325,-9
2021-12-24 15:42:47.227337,2
2021-12-24 15:42:47.227348,29
2021-12-24 15:42:47.227360,50
2021-12-24 15:42:47.227372,48
2021-12-24 15:42:47.227383,45
2021-12-24 15:42:47.227395,55
2021-12-24 15:42:47.227407,55
2021-12-24 15:42:47.227418,62
2021-12-24 15:42:47.227430,85
2021-12-24 15:42:47.227442,87
2021-12-24 15:42:47.227454,68
2021-12-24 15:42:47.227465,45
2021-12-24 15:42:47.227477,27
2021-12-24 15:42:47.227489,27
2021-12-24 15:42:47.227500,27
2021-12-24 15:42:47.452167,4
2021-12-24 15:42:47.452197,4
2021-12-24 15:42:47.452208,25
2021-12-24 15:42:47.452218,41
2021-12-24 15:42:47.452228,105
2021-12-24 15:42:47.452237,186
2021-12-24 15:42:47.452247,98
2021-12-24 15:42:47.452257,-158
2021-12-24 15:42:47.452266,-294
2021-12-24 15:42:47.452276,-179
2021-12-24 15:42:47.452286,-75
2021-12-24 15:42:47.452295,-91
2021-12-24 15:42:47.452305,-94
2021-12-24 15:42:47.452314,-68
2021-12-24 15:42:47.452324,-57
2021-12-24 15:42:47.452333,-57
2021-12-24 15:42:47.452343,-57
2021-12-24 15:42:47.452352,-45
2021-12-24 15:42:47.452362,-29
2021-12-24 15:42:47.452372,-27
2021-12-24 15:42:47.452381,-27
2021-12-24 15:42:47.452391,-6
2021-12-24 15:42:47.452400,0
2021-12-24 15:42:47.452410,-45
2021-12-24 15:42:47.452419,-78
2021-12-24 15:42:47.452429,-45
2021-12-24 15:42:47.452438,-2
2021-12-24 15:42:47.452448,6
2021-12-24 15:42:47.452458,18
2021-12-24 15:42:47.452467,43
2021-12-24 15:42:47.720838,52
2021-12-24 15:42:47.720859,57
2021-12-24 15:42:47.720866,50
2021-12-24 15:42:47.720873,29
2021-12-24 15:42:47.720879,29
2021-12-24 15:42:47.720885,52
2021-12-24 15:42:47.720892,34
2021-12-24 15:42:47.720898,16
2021-12-24 15:42:47.720905,45
2021-12-24 15:42:47.720911,75
2021-12-24 15:42:47.720917,68
2021-12-24 15:42:47.720924,-2
2021-12-24 15:42:47.720930,-73
2021-12-24 15:42:47.720936,-66
2021-12-24 15:42:47.720943,-71
2021-12-24 15:42:47.720949,-110
2021-12-24 15:42:47.720956,-98
2021-12-24 15:42:47.720962,-66
2021-12-24 15:42:47.720969,-78
2021-12-24 15:42:47.720975,-85
2021-12-24 15:42:47.720981,-66
2021-12-24 15:42:47.720988,-57
2021-12-24 15:42:47.720994,-68
2021-12-24 15:42:47.721000,-75
2021-12-24 15:42:47.721007,-64
2021-12-24 15:42:47.721013,-22
2021-12-24 15:42:47.721019,13
2021-12-24 15:42:47.721026,16
2021-12-24 15:42:47.721032,11
2021-12-24 15:42:47.721038,11
2021-12-24 15:42:47.902114,4
2021-12-24 15:42:47.902144,6
2021-12-24 15:42:47.902156,20
2021-12-24 15:42:47.902166,0
2021-12-24 15:42:47.902176,-48
2021-12-24 15:42:47.902186,-48
2021-12-24 15:42:47.902196,-18
2021-12-24 15:42:47.902205,-18
2021-12-24 15:42:47.902215,-43
2021-12-24 15:42:47.902225,-45
2021-12-24 15:42:47.902235,-48
2021-12-24 15:42:47.902244,-82
2021-12-24 15:42:47.902254,-89
2021-12-24 15:42:47.902264,-55
2021-12-24 15:42:47.902274,-32
2021-12-24 15:42:47.902284,-39
2021-12-24 15:42:47.902294,-62
2021-12-24 15:42:47.902303,-71
2021-12-24 15:42:47.902313,-52
2021-12-24 15:42:47.902323,-39
2021-12-24 15:42:47.902333,-29
2021-12-24 15:42:47.902342,-18
2021-12-24 15:42:47.902352,-11
2021-12-24 15:42:47.902362,4
2021-12-24 15:42:47.902372,36
2021-12-24 15:42:47.902381,66
2021-12-24 15:42:47.902391,52
2021-12-24 15:42:47.902401,-11
2021-12-24 15:42:47.902411,-96
2021-12-24 15:42:47.902421,-137
2021-12-24 15:42:48.127213,-108
2021-12-24 15:42:48.127243,-98
2021-12-24 15:42:48.127254,-124
2021-12-24 15:42:48.127264,-110
2021-12-24 15:42:48.127274,-91
2021-12-24 15:42:48.127284,-131
2021-12-24 15:42:48.127294,-135
2021-12-24 15:42:48.127304,-68
2021-12-24 15:42:48.127313,-124
2021-12-24 15:42:48.127323,-406
2021-12-24 15:42:48.127333,-574
2021-12-24 15:42:48.127343,-395
2021-12-24 15:42:48.127353,-216
2021-12-24 15:42:48.127363,-229
2021-12-24 15:42:48.127372,-236
2021-12-24 15:42:48.127382,-202
2021-12-24 15:42:48.127392,-197
2021-12-24 15:42:48.127402,-190
2021-12-24 15:42:48.127412,-160
2021-12-24 15:42:48.127422,-137
2021-12-24 15:42:48.127432,-126
2021-12-24 15:42:48.127441,-124
2021-12-24 15:42:48.127451,-137
2021-12-24 15:42:48.127461,-135
2021-12-24 15:42:48.127471,-96
2021-12-24 15:42:48.127481,-50
2021-12-24 15:42:48.127491,-36
2021-12-24 15:42:48.127500,-34
2021-12-24 15:42:48.127510,-20
2021-12-24 15:42:48.127520,4
2021-12-24 15:42:48.442135,36
2021-12-24 15:42:48.442164,57
2021-12-24 15:42:48.442176,50
2021-12-24 15:42:48.442186,16
2021-12-24 15:42:48.442196,6
2021-12-24 15:42:48.442205,62
2021-12-24 15:42:48.442215,117
2021-12-24 15:42:48.442225,112
2021-12-24 15:42:48.442235,87
2021-12-24 15:42:48.442245,57
2021-12-24 15:42:48.442254,25
2021-12-24 15:42:48.442264,22
2021-12-24 15:42:48.442274,20
2021-12-24 15:42:48.442284,-2
2021-12-24 15:42:48.442294,-27
2021-12-24 15:42:48.442304,-73
2021-12-24 15:42:48.442314,-114
2021-12-24 15:42:48.442324,-85
2021-12-24 15:42:48.442333,-43
2021-12-24 15:42:48.442343,-55
2021-12-24 15:42:48.442353,-36
2021-12-24 15:42:48.442363,-6
2021-12-24 15:42:48.442373,-68
2021-12-24 15:42:48.442383,-117
2021-12-24 15:42:48.442392,-55
2021-12-24 15:42:48.442402,-4
2021-12-24 15:42:48.442412,-27
2021-12-24 15:42:48.442422,-29
2021-12-24 15:42:48.442432,0
2021-12-24 15:42:48.442442,6
2021-12-24 15:42:48.622174,16
2021-12-24 15:42:48.622195,34
2021-12-24 15:42:48.622203,32
2021-12-24 15:42:48.622210,-9
2021-12-24 15:42:48.622217,-80
2021-12-24 15:42:48.622244,-82
2021-12-24 15:42:48.622254,-22
2021-12-24 15:42:48.622264,-16
2021-12-24 15:42:48.622274,-41
2021-12-24 15:42:48.622283,-39
2021-12-24 15:42:48.622293,-39
2021-12-24 15:42:48.622303,-43
2021-12-24 15:42:48.622313,-34
2021-12-24 15:42:48.622323,-16
2021-12-24 15:42:48.622332,-41
2021-12-24 15:42:48.622342,-87
2021-12-24 15:42:48.622352,-78
2021-12-24 15:42:48.622362,-45
2021-12-24 15:42:48.622372,-34
2021-12-24 15:42:48.622382,6
2021-12-24 15:42:48.622392,9
2021-12-24 15:42:48.622401,-78
2021-12-24 15:42:48.622411,-101
2021-12-24 15:42:48.622421,-45
2021-12-24 15:42:48.622431,-20
2021-12-24 15:42:48.622440,-6
2021-12-24 15:42:48.622450,2
2021-12-24 15:42:48.622460,0
2021-12-24 15:42:48.622470,27
2021-12-24 15:42:48.622480,57
2021-12-24 15:42:48.936700,57
2021-12-24 15:42:48.936731,64
2021-12-24 15:42:48.936742,78
2021-12-24 15:42:48.936753,73
2021-12-24 15:42:48.936762,78
2021-12-24 15:42:48.936772,91
2021-12-24 15:42:48.936782,103
2021-12-24 15:42:48.936792,98
2021-12-24 15:42:48.936801,68
2021-12-24 15:42:48.936811,64
2021-12-24 15:42:48.936821,89
2021-12-24 15:42:48.936831,59
2021-12-24 15:42:48.936841,-6
2021-12-24 15:42:48.936850,-34
2021-12-24 15:42:48.936860,-22
2021-12-24 15:42:48.936870,52
2021-12-24 15:42:48.936880,142
2021-12-24 15:42:48.936889,45
2021-12-24 15:42:48.936899,-225
2021-12-24 15:42:48.936909,-337
2021-12-24 15:42:48.936919,-234
2021-12-24 15:42:48.936946,-170
2021-12-24 15:42:48.936956,-160
2021-12-24 15:42:48.936965,-96
2021-12-24 15:42:48.936975,-41
2021-12-24 15:42:48.936985,-41
2021-12-24 15:42:48.936995,-57
2021-12-24 15:42:48.937005,-62
2021-12-24 15:42:48.937014,-91
2021-12-24 15:42:48.937024,-121
2021-12-24 15:42:49.161637,-55
2021-12-24 15:42:49.161668,16
2021-12-24 15:42:49.161679,-9
2021-12-24 15:42:49.161690,-18
2021-12-24 15:42:49.161699,13
2021-12-24 15:42:49.161709,0
2021-12-24 15:42:49.161719,-34
2021-12-24 15:42:49.161728,-39
2021-12-24 15:42:49.161738,-36
2021-12-24 15:42:49.161748,-68
2021-12-24 15:42:49.161758,-85
2021-12-24 15:42:49.161768,-22
2021-12-24 15:42:49.161777,41
2021-12-24 15:42:49.161787,32
2021-12-24 15:42:49.161797,-16
2021-12-24 15:42:49.161806,-29
2021-12-24 15:42:49.161816,6
2021-12-24 15:42:49.161826,59
2021-12-24 15:42:49.161835,78
2021-12-24 15:42:49.161845,73
2021-12-24 15:42:49.161855,78
2021-12-24 15:42:49.161864,73
2021-12-24 15:42:49.161874,36
2021-12-24 15:42:49.161884,4
2021-12-24 15:42:49.161893,0
2021-12-24 15:42:49.161903,6
2021-12-24 15:42:49.161913,20
2021-12-24 15:42:49.161923,25
2021-12-24 15:42:49.161933,25
2021-12-24 15:42:49.161942,16
2021-12-24 15:42:49.297087,6
2021-12-24 15:42:49.297117,50
2021-12-24 15:42:49.297128,82
2021-12-24 15:42:49.297138,52
2021-12-24 15:42:49.297148,55
2021-12-24 15:42:49.297158,94
2021-12-24 15:42:49.297168,73
2021-12-24 15:42:49.297177,29
2021-12-24 15:42:49.297187,52
2021-12-24 15:42:49.297196,108
2021-12-24 15:42:49.297207,119
2021-12-24 15:42:49.297216,91
2021-12-24 15:42:49.297226,87
2021-12-24 15:42:49.297235,124
2021-12-24 15:42:49.297245,172
2021-12-24 15:42:49.297255,250
2021-12-24 15:42:49.297265,305
2021-12-24 15:42:49.297275,172
2021-12-24 15:42:49.297284,-117
2021-12-24 15:42:49.297294,-183
2021-12-24 15:42:49.297304,22
2021-12-24 15:42:49.297313,137
2021-12-24 15:42:49.297323,163
2021-12-24 15:42:49.297333,225
2021-12-24 15:42:49.297342,220
2021-12-24 15:42:49.297352,158
2021-12-24 15:42:49.297362,154
2021-12-24 15:42:49.297372,170
2021-12-24 15:42:49.297381,177
2021-12-24 15:42:49.297391,190
2021-12-24 15:42:49.522058,188
2021-12-24 15:42:49.522089,195
2021-12-24 15:42:49.522100,209
2021-12-24 15:42:49.522110,206
2021-12-24 15:42:49.522120,232
2021-12-24 15:42:49.522130,239
2021-12-24 15:42:49.522140,188
2021-12-24 15:42:49.522149,167
2021-12-24 15:42:49.522159,177
2021-12-24 15:42:49.522169,193
2021-12-24 15:42:49.522179,220
2021-12-24 15:42:49.522189,204
2021-12-24 15:42:49.522199,165
2021-12-24 15:42:49.522208,197
2021-12-24 15:42:49.522218,202
2021-12-24 15:42:49.522228,142
2021-12-24 15:42:49.522238,144
2021-12-24 15:42:49.522248,170
2021-12-24 15:42:49.522258,137
2021-12-24 15:42:49.522267,137
2021-12-24 15:42:49.522277,158
2021-12-24 15:42:49.522287,101
2021-12-24 15:42:49.522297,50
2021-12-24 15:42:49.522307,57
2021-12-24 15:42:49.522316,52
2021-12-24 15:42:49.522326,29
2021-12-24 15:42:49.522336,29
2021-12-24 15:42:49.522346,59
2021-12-24 15:42:49.522355,80
2021-12-24 15:42:49.522365,55
2021-12-24 15:42:49.790719,13
2021-12-24 15:42:49.790749,6
2021-12-24 15:42:49.790761,11
2021-12-24 15:42:49.790771,-16
2021-12-24 15:42:49.790781,-43
2021-12-24 15:42:49.790791,-57
2021-12-24 15:42:49.790800,-73
2021-12-24 15:42:49.790810,-66
2021-12-24 15:42:49.790820,-55
2021-12-24 15:42:49.790830,-103
2021-12-24 15:42:49.790839,-158
2021-12-24 15:42:49.790849,-165
2021-12-24 15:42:49.790859,-140
2021-12-24 15:42:49.790868,-101
2021-12-24 15:42:49.790878,-82
2021-12-24 15:42:49.790888,-78
2021-12-24 15:42:49.790898,-57
2021-12-24 15:42:49.790908,-66
2021-12-24 15:42:49.790918,-117
2021-12-24 15:42:49.790927,-119
2021-12-24 15:42:49.790937,-66
2021-12-24 15:42:49.790947,-55
2021-12-24 15:42:49.790956,-66
2021-12-24 15:42:49.790966,-64
2021-12-24 15:42:49.790976,-71
2021-12-24 15:42:49.790986,-73
2021-12-24 15:42:49.790995,-59
2021-12-24 15:42:49.791005,-34
2021-12-24 15:42:49.791015,-18
2021-12-24 15:42:49.791025,-18
2021-12-24 15:42:49.971392,-4
2021-12-24 15:42:49.971411,20
2021-12-24 15:42:49.971419,41
2021-12-24 15:42:49.971426,32
2021-12-24 15:42:49.971432,-18
2021-12-24 15:42:49.971442,-34
2021-12-24 15:42:49.971449,13
2021-12-24 15:42:49.971455,39
2021-12-24 15:42:49.971461,29
2021-12-24 15:42:49.971468,20
2021-12-24 15:42:49.971474,4
2021-12-24 15:42:49.971481,16
2021-12-24 15:42:49.971487,34
2021-12-24 15:42:49.971493,2
2021-12-24 15:42:49.971500,-2
2021-12-24 15:42:49.971506,32
2021-12-24 15:42:49.971513,27
2021-12-24 15:42:49.971519,34
2021-12-24 15:42:49.971525,75
2021-12-24 15:42:49.971532,71
2021-12-24 15:42:49.971538,20
2021-12-24 15:42:49.971544,-9
2021-12-24 15:42:49.971551,-32
2021-12-24 15:42:49.971557,-52
2021-12-24 15:42:49.971564,-27
2021-12-24 15:42:49.971570,9
2021-12-24 15:42:49.971577,-6
2021-12-24 15:42:49.971583,-50
2021-12-24 15:42:49.971589,-50
2021-12-24 15:42:49.971596,2
2021-12-24 15:42:50.241956,34
2021-12-24 15:42:50.241978,16
2021-12-24 15:42:50.241986,-41
2021-12-24 15:42:50.241992,-108
2021-12-24 15:42:50.241999,-158
2021-12-24 15:42:50.242005,-170
2021-12-24 15:42:50.242011,-163
2021-12-24 15:42:50.242017,-144
2021-12-24 15:42:50.242024,-103
2021-12-24 15:42:50.242030,-124
2021-12-24 15:42:50.242036,-193
2021-12-24 15:42:50.242043,-142
2021-12-24 15:42:50.242049,2
2021-12-24 15:42:50.242055,78
2021-12-24 15:42:50.242061,6
2021-12-24 15:42:50.242068,-225
2021-12-24 15:42:50.242074,-367
2021-12-24 15:42:50.242080,-206
2021-12-24 15:42:50.242086,-45
2021-12-24 15:42:50.242093,-73
2021-12-24 15:42:50.242099,-82
2021-12-24 15:42:50.242105,-45
2021-12-24 15:42:50.242112,-43
2021-12-24 15:42:50.242118,-48
2021-12-24 15:42:50.242124,-50
2021-12-24 15:42:50.242131,-52
2021-12-24 15:42:50.242137,-45
2021-12-24 15:42:50.242143,-25
2021-12-24 15:42:50.242150,-13
2021-12-24 15:42:50.242156,-6
2021-12-24 15:42:50.556549,18
2021-12-24 15:42:50.556580,41
2021-12-24 15:42:50.556591,34
2021-12-24 15:42:50.556601,27
2021-12-24 15:42:50.556611,52
2021-12-24 15:42:50.556621,80
2021-12-24 15:42:50.556630,85
2021-12-24 15:42:50.556640,75
2021-12-24 15:42:50.556650,62
2021-12-24 15:42:50.556659,32
2021-12-24 15:42:50.556669,29
2021-12-24 15:42:50.556678,66
2021-12-24 15:42:50.556688,98
2021-12-24 15:42:50.556698,114
2021-12-24 15:42:50.556708,89
2021-12-24 15:42:50.556717,39
2021-12-24 15:42:50.556727,55
2021-12-24 15:42:50.556737,98
2021-12-24 15:42:50.556747,96
2021-12-24 15:42:50.556756,85
2021-12-24 15:42:50.556766,73
2021-12-24 15:42:50.556776,59
2021-12-24 15:42:50.556785,78
2021-12-24 15:42:50.556795,59
2021-12-24 15:42:50.556805,6
2021-12-24 15:42:50.556814,0
2021-12-24 15:42:50.556824,-25
2021-12-24 15:42:50.556834,-71
2021-12-24 15:42:50.556844,-57
2021-12-24 15:42:50.556853,-22
2021-12-24 15:42:50.691968,-18
2021-12-24 15:42:50.691989,-13
2021-12-24 15:42:50.691997,-13
2021-12-24 15:42:50.692004,-20
2021-12-24 15:42:50.692010,-22
2021-12-24 15:42:50.692017,-6
2021-12-24 15:42:50.692023,48
2021-12-24 15:42:50.692029,101
2021-12-24 15:42:50.692035,68
2021-12-24 15:42:50.692042,6
2021-12-24 15:42:50.692048,18
2021-12-24 15:42:50.692054,62
2021-12-24 15:42:50.692061,66
2021-12-24 15:42:50.692067,52
2021-12-24 15:42:50.692073,32
2021-12-24 15:42:50.692079,16
2021-12-24 15:42:50.692086,18
2021-12-24 15:42:50.692092,39
2021-12-24 15:42:50.692098,57
2021-12-24 15:42:50.692105,39
2021-12-24 15:42:50.692111,-11
2021-12-24 15:42:50.692117,-27
2021-12-24 15:42:50.692124,-6
2021-12-24 15:42:50.692130,9
2021-12-24 15:42:50.692136,16
2021-12-24 15:42:50.692143,11
2021-12-24 15:42:50.692149,-4
2021-12-24 15:42:50.692155,-20
2021-12-24 15:42:50.692162,-45
2021-12-24 15:42:50.692168,-57
2021-12-24 15:42:50.961506,-41
2021-12-24 15:42:50.961537,-43
2021-12-24 15:42:50.961548,-66
2021-12-24 15:42:50.961558,-64
2021-12-24 15:42:50.961568,-52
2021-12-24 15:42:50.961578,-41
2021-12-24 15:42:50.961587,-50
2021-12-24 15:42:50.961597,-85
2021-12-24 15:42:50.961606,-103
2021-12-24 15:42:50.961616,-78
2021-12-24 15:42:50.961626,-57
2021-12-24 15:42:50.961636,-66
2021-12-24 15:42:50.961645,-78
2021-12-24 15:42:50.961655,-89
2021-12-24 15:42:50.961665,-108
2021-12-24 15:42:50.961674,-135
2021-12-24 15:42:50.961684,-151
2021-12-24 15:42:50.961694,-126
2021-12-24 15:42:50.961703,-96
2021-12-24 15:42:50.961713,-108
2021-12-24 15:42:50.961723,-114
2021-12-24 15:42:50.961732,-94
2021-12-24 15:42:50.961742,-87
2021-12-24 15:42:50.961752,-85
2021-12-24 15:42:50.961762,-22
2021-12-24 15:42:50.961771,55
2021-12-24 15:42:50.961781,2
2021-12-24 15:42:50.961791,-239
2021-12-24 15:42:50.961800,-423
2021-12-24 15:42:50.961810,-342
2021-12-24 15:42:51.142230,-259
2021-12-24 15:42:51.142253,-331
2021-12-24 15:42:51.142261,-388
2021-12-24 15:42:51.142268,-406
2021-12-24 15:42:51.142274,-434
2021-12-24 15:42:51.142280,-434
2021-12-24 15:42:51.142287,-395
2021-12-24 15:42:51.142293,-363
2021-12-24 15:42:51.142300,-342
2021-12-24 15:42:51.142306,-333
2021-12-24 15:42:51.142312,-356
2021-12-24 15:42:51.142318,-379
2021-12-24 15:42:51.142325,-400
2021-12-24 15:42:51.142331,-423
2021-12-24 15:42:51.142337,-386
2021-12-24 15:42:51.142344,-319
2021-12-24 15:42:51.142350,-278
2021-12-24 15:42:51.142356,-239
2021-12-24 15:42:51.142363,-245
2021-12-24 15:42:51.142369,-287
2021-12-24 15:42:51.142375,-259
2021-12-24 15:42:51.142382,-211
2021-12-24 15:42:51.142388,-209
2021-12-24 15:42:51.142394,-186
2021-12-24 15:42:51.142401,-124
2021-12-24 15:42:51.142407,-98
2021-12-24 15:42:51.142413,-112
2021-12-24 15:42:51.142419,-94
2021-12-24 15:42:51.142426,-59
2021-12-24 15:42:51.142432,-48
2021-12-24 15:42:51.366927,-52
2021-12-24 15:42:51.366949,-85
2021-12-24 15:42:51.366956,-154
2021-12-24 15:42:51.366982,-188
2021-12-24 15:42:51.366992,-167
2021-12-24 15:42:51.367002,-179
2021-12-24 15:42:51.367012,-206
2021-12-24 15:42:51.367021,-167
2021-12-24 15:42:51.367031,-140
2021-12-24 15:42:51.367040,-165
2021-12-24 15:42:51.367050,-202
2021-12-24 15:42:51.367060,-216
2021-12-24 15:42:51.367069,-167
2021-12-24 15:42:51.367079,-98
2021-12-24 15:42:51.367089,-82
2021-12-24 15:42:51.367098,-66
2021-12-24 15:42:51.367108,-68
2021-12-24 15:42:51.367118,-147
2021-12-24 15:42:51.367127,-151
2021-12-24 15:42:51.367137,-39
2021-12-24 15:42:51.367147,18
2021-12-24 15:42:51.367156,6
2021-12-24 15:42:51.367166,0
2021-12-24 15:42:51.367176,-2
2021-12-24 15:42:51.367186,4
2021-12-24 15:42:51.367195,13
2021-12-24 15:42:51.367205,20
2021-12-24 15:42:51.367215,32
2021-12-24 15:42:51.367225,36
2021-12-24 15:42:51.367234,59
2021-12-24 15:42:51.591909,80
2021-12-24 15:42:51.591940,64
2021-12-24 15:42:51.591951,55
2021-12-24 15:42:51.591961,50
2021-12-24 15:42:51.591971,13
2021-12-24 15:42:51.591981,-39
2021-12-24 15:42:51.591990,-43
2021-12-24 15:42:51.592000,-36
2021-12-24 15:42:51.592010,-52
2021-12-24 15:42:51.592020,-59
2021-12-24 15:42:51.592029,-66
2021-12-24 15:42:51.592039,-91
2021-12-24 15:42:51.592049,-98
2021-12-24 15:42:51.592059,-82
2021-12-24 15:42:51.592068,-73
2021-12-24 15:42:51.592078,-66
2021-12-24 15:42:51.592088,-48
2021-12-24 15:42:51.592098,4
2021-12-24 15:42:51.592108,73
2021-12-24 15:42:51.592118,91
2021-12-24 15:42:51.592127,55
2021-12-24 15:42:51.592137,13
2021-12-24 15:42:51.592147,4
2021-12-24 15:42:51.592156,27
2021-12-24 15:42:51.592166,52
2021-12-24 15:42:51.592176,101
2021-12-24 15:42:51.592186,135
2021-12-24 15:42:51.592195,96
2021-12-24 15:42:51.592205,78
2021-12-24 15:42:51.592215,117
2021-12-24 15:42:51.860722,126
2021-12-24 15:42:51.860753,124
2021-12-24 15:42:51.860764,147
2021-12-24 15:42:51.860774,183
2021-12-24 15:42:51.860784,193
2021-12-24 15:42:51.860794,27
2021-12-24 15:42:51.860803,-223
2021-12-24 15:42:51.860813,-213
2021-12-24 15:42:51.860856,-59
2021-12-24 15:42:51.860866,-101
2021-12-24 15:42:51.860875,-167
2021-12-24 15:42:51.860885,-98
2021-12-24 15:42:51.860895,-59
2021-12-24 15:42:51.860905,-71
2021-12-24 15:42:51.860914,-50
2021-12-24 15:42:51.860924,-29
2021-12-24 15:42:51.860934,-32
2021-12-24 15:42:51.860944,-32
2021-12-24 15:42:51.860954,-48
2021-12-24 15:42:51.860963,-68
2021-12-24 15:42:51.860973,-27
2021-12-24 15:42:51.860983,11
2021-12-24 15:42:51.860993,-9
2021-12-24 15:42:51.861002,-6
2021-12-24 15:42:51.861012,32
2021-12-24 15:42:51.861022,43
2021-12-24 15:42:51.861032,36
2021-12-24 15:42:51.861041,11
2021-12-24 15:42:51.861051,-18
2021-12-24 15:42:51.861061,25
2021-12-24 15:42:52.087235,96
2021-12-24 15:42:52.087254,112
2021-12-24 15:42:52.087260,112
2021-12-24 15:42:52.087265,110
2021-12-24 15:42:52.087270,89
2021-12-24 15:42:52.087275,105
2021-12-24 15:42:52.087281,151
2021-12-24 15:42:52.087286,149
2021-12-24 15:42:52.087291,101
2021-12-24 15:42:52.087296,43
2021-12-24 15:42:52.087301,9
2021-12-24 15:42:52.087306,16
2021-12-24 15:42:52.087311,18
2021-12-24 15:42:52.087317,-29
2021-12-24 15:42:52.087322,-78
2021-12-24 15:42:52.087327,-103
2021-12-24 15:42:52.087332,-110
2021-12-24 15:42:52.087337,-82
2021-12-24 15:42:52.087342,-41
2021-12-24 15:42:52.087347,-18
2021-12-24 15:42:52.087353,-20
2021-12-24 15:42:52.087358,-57
2021-12-24 15:42:52.087363,-64
2021-12-24 15:42:52.087368,-22
2021-12-24 15:42:52.087373,-9
2021-12-24 15:42:52.087378,18
2021-12-24 15:42:52.087384,73
2021-12-24 15:42:52.087389,39
2021-12-24 15:42:52.087394,-32
2021-12-24 15:42:52.087399,-18
2021-12-24 15:42:52.311903,16
2021-12-24 15:42:52.311923,36
2021-12-24 15:42:52.311931,62
2021-12-24 15:42:52.311938,78
2021-12-24 15:42:52.311944,96
2021-12-24 15:42:52.311950,71
2021-12-24 15:42:52.311957,18
2021-12-24 15:42:52.311963,45
2021-12-24 15:42:52.311969,66
2021-12-24 15:42:52.311976,13
2021-12-24 15:42:52.311982,2
2021-12-24 15:42:52.311988,25
2021-12-24 15:42:52.311994,20
2021-12-24 15:42:52.312001,29
2021-12-24 15:42:52.312007,25
2021-12-24 15:42:52.312013,-34
2021-12-24 15:42:52.312020,-57
2021-12-24 15:42:52.312026,-29
2021-12-24 15:42:52.312032,0
2021-12-24 15:42:52.312039,43
2021-12-24 15:42:52.312045,62
2021-12-24 15:42:52.312051,52
2021-12-24 15:42:52.312058,57
2021-12-24 15:42:52.312064,55
2021-12-24 15:42:52.312070,50
2021-12-24 15:42:52.312077,89
2021-12-24 15:42:52.312083,66
2021-12-24 15:42:52.312089,-18
2021-12-24 15:42:52.312096,13
2021-12-24 15:42:52.312102,89
2021-12-24 15:42:52.536421,87
2021-12-24 15:42:52.536441,110
2021-12-24 15:42:52.536448,131
2021-12-24 15:42:52.536455,82
2021-12-24 15:42:52.536461,158
2021-12-24 15:42:52.536468,324
2021-12-24 15:42:52.536474,257
2021-12-24 15:42:52.536481,-11
2021-12-24 15:42:52.536487,-160
2021-12-24 15:42:52.536494,-68
2021-12-24 15:42:52.536500,66
2021-12-24 15:42:52.536507,78
2021-12-24 15:42:52.536513,9
2021-12-24 15:42:52.536519,-32
2021-12-24 15:42:52.536526,-27
2021-12-24 15:42:52.536532,-36
2021-12-24 15:42:52.536539,-27
2021-12-24 15:42:52.536545,4
2021-12-24 15:42:52.536552,-25
2021-12-24 15:42:52.536558,-110
2021-12-24 15:42:52.536565,-163
2021-12-24 15:42:52.536571,-165
2021-12-24 15:42:52.536578,-156
2021-12-24 15:42:52.536584,-137
2021-12-24 15:42:52.536590,-114
2021-12-24 15:42:52.536597,-124
2021-12-24 15:42:52.536603,-135
2021-12-24 15:42:52.536610,-96
2021-12-24 15:42:52.536616,-48
2021-12-24 15:42:52.536623,-22
2021-12-24 15:42:52.761914,-6
2021-12-24 15:42:52.761945,-25
2021-12-24 15:42:52.761956,-66
2021-12-24 15:42:52.761966,-43
2021-12-24 15:42:52.761977,25
2021-12-24 15:42:52.761986,55
2021-12-24 15:42:52.761996,50
2021-12-24 15:42:52.762006,36
2021-12-24 15:42:52.762016,36
2021-12-24 15:42:52.762025,36
2021-12-24 15:42:52.762035,-16
2021-12-24 15:42:52.762045,-50
2021-12-24 15:42:52.762055,-36
2021-12-24 15:42:52.762065,-82
2021-12-24 15:42:52.762074,-160
2021-12-24 15:42:52.762084,-160
2021-12-24 15:42:52.762094,-126
2021-12-24 15:42:52.762104,-124
2021-12-24 15:42:52.762114,-131
2021-12-24 15:42:52.762124,-133
2021-12-24 15:42:52.762133,-135
2021-12-24 15:42:52.762143,-108
2021-12-24 15:42:52.762153,-73
2021-12-24 15:42:52.762180,-62
2021-12-24 15:42:52.762190,-59
2021-12-24 15:42:52.762200,-57
2021-12-24 15:42:52.762210,-32
2021-12-24 15:42:52.762219,-2
2021-12-24 15:42:52.762229,-11
2021-12-24 15:42:52.762239,-25
2021-12-24 15:42:52.986534,-18
2021-12-24 15:42:52.986562,-6
2021-12-24 15:42:52.986576,22
2021-12-24 15:42:52.986589,41
2021-12-24 15:42:52.986601,45
2021-12-24 15:42:52.986613,57
2021-12-24 15:42:52.986625,55
2021-12-24 15:42:52.986636,36
2021-12-24 15:42:52.986646,27
2021-12-24 15:42:52.986657,13
2021-12-24 15:42:52.986668,18
2021-12-24 15:42:52.986680,50
2021-12-24 15:42:52.986691,29
2021-12-24 15:42:52.986703,-6
2021-12-24 15:42:52.986714,27
2021-12-24 15:42:52.986726,48
2021-12-24 15:42:52.986738,9
2021-12-24 15:42:52.986749,0
2021-12-24 15:42:52.986761,16
2021-12-24 15:42:52.986772,22
2021-12-24 15:42:52.986783,34
2021-12-24 15:42:52.986795,22
2021-12-24 15:42:52.986806,2
2021-12-24 15:42:52.986819,13
2021-12-24 15:42:52.986830,4
2021-12-24 15:42:52.986842,-25
2021-12-24 15:42:52.986853,-4
2021-12-24 15:42:52.986865,22
2021-12-24 15:42:52.986876,29
2021-12-24 15:42:52.986887,57
2021-12-24 15:42:53.255897,48
2021-12-24 15:42:53.255919,16
2021-12-24 15:42:53.255927,39
2021-12-24 15:42:53.255933,59
2021-12-24 15:42:53.255939,39
2021-12-24 15:42:53.255946,25
2021-12-24 15:42:53.255952,25
2021-12-24 15:42:53.255959,45
2021-12-24 15:42:53.256029,66
2021-12-24 15:42:53.256036,71
2021-12-24 15:42:53.256043,89
2021-12-24 15:42:53.256049,78
2021-12-24 15:42:53.256056,27
2021-12-24 15:42:53.256062,27
2021-12-24 15:42:53.256068,57
2021-12-24 15:42:53.256075,52
2021-12-24 15:42:53.256081,62
2021-12-24 15:42:53.256087,78
2021-12-24 15:42:53.256093,29
2021-12-24 15:42:53.256100,-16
2021-12-24 15:42:53.256106,0
2021-12-24 15:42:53.256113,-11
2021-12-24 15:42:53.256119,-45
2021-12-24 15:42:53.256125,-34
2021-12-24 15:42:53.256132,6
2021-12-24 15:42:53.256138,85
2021-12-24 15:42:53.256144,183
2021-12-24 15:42:53.256150,158
2021-12-24 15:42:53.256157,-64
2021-12-24 15:42:53.256163,-225
2021-12-24 15:42:53.436854,-119
2021-12-24 15:42:53.436884,-2
2021-12-24 15:42:53.436895,-20
2021-12-24 15:42:53.436905,2
2021-12-24 15:42:53.436915,32
2021-12-24 15:42:53.436925,-9
2021-12-24 15:42:53.436935,-16
2021-12-24 15:42:53.436945,39
2021-12-24 15:42:53.436954,43
2021-12-24 15:42:53.436964,-9
2021-12-24 15:42:53.436974,-25
2021-12-24 15:42:53.436984,-11
2021-12-24 15:42:53.436994,-6
2021-12-24 15:42:53.437003,4
2021-12-24 15:42:53.437013,9
2021-12-24 15:42:53.437023,4
2021-12-24 15:42:53.437033,4
2021-12-24 15:42:53.437043,4
2021-12-24 15:42:53.437052,18
2021-12-24 15:42:53.437062,39
2021-12-24 15:42:53.437072,27
2021-12-24 15:42:53.437081,18
2021-12-24 15:42:53.437091,45
2021-12-24 15:42:53.437101,64
2021-12-24 15:42:53.437111,73
2021-12-24 15:42:53.437120,110
2021-12-24 15:42:53.437130,149
2021-12-24 15:42:53.437140,140
2021-12-24 15:42:53.437150,119
2021-12-24 15:42:53.437160,117
2021-12-24 15:42:53.661839,89
2021-12-24 15:42:53.661870,80
2021-12-24 15:42:53.661881,98
2021-12-24 15:42:53.661891,59
2021-12-24 15:42:53.661901,-4
2021-12-24 15:42:53.661911,-20
2021-12-24 15:42:53.661921,-9
2021-12-24 15:42:53.661931,-6
2021-12-24 15:42:53.661941,2
2021-12-24 15:42:53.661951,-11
2021-12-24 15:42:53.661961,-36
2021-12-24 15:42:53.661970,-20
2021-12-24 15:42:53.661980,-2
2021-12-24 15:42:53.661990,-11
2021-12-24 15:42:53.662000,4
2021-12-24 15:42:53.662010,16
2021-12-24 15:42:53.662020,0
2021-12-24 15:42:53.662030,29
2021-12-24 15:42:53.662040,78
2021-12-24 15:42:53.662050,80
2021-12-24 15:42:53.662060,75
2021-12-24 15:42:53.662069,75
2021-12-24 15:42:53.662079,59
2021-12-24 15:42:53.662089,39
2021-12-24 15:42:53.662099,55
2021-12-24 15:42:53.662109,87
2021-12-24 15:42:53.662119,94
2021-12-24 15:42:53.662129,73
2021-12-24 15:42:53.662138,55
2021-12-24 15:42:53.662148,57
2021-12-24 15:42:53.975638,78
2021-12-24 15:42:53.975670,91
2021-12-24 15:42:53.975681,82
2021-12-24 15:42:53.975691,41
2021-12-24 15:42:53.975701,-4
2021-12-24 15:42:53.975711,6
2021-12-24 15:42:53.975720,25
2021-12-24 15:42:53.975730,13
2021-12-24 15:42:53.975740,29
2021-12-24 15:42:53.975749,36
2021-12-24 15:42:53.975759,16
2021-12-24 15:42:53.975769,45
2021-12-24 15:42:53.975778,91
2021-12-24 15:42:53.975788,94
2021-12-24 15:42:53.975798,75
2021-12-24 15:42:53.975808,59
2021-12-24 15:42:53.975817,82
2021-12-24 15:42:53.975827,137
2021-12-24 15:42:53.975837,165
2021-12-24 15:42:53.975846,170
2021-12-24 15:42:53.975856,172
2021-12-24 15:42:53.975866,170
2021-12-24 15:42:53.975875,174
2021-12-24 15:42:53.975885,165
2021-12-24 15:42:53.975894,112
2021-12-24 15:42:53.975904,62
2021-12-24 15:42:53.975914,103
2021-12-24 15:42:53.975923,197
2021-12-24 15:42:53.975933,206
2021-12-24 15:42:53.975943,52
2021-12-24 15:42:54.156756,-149
2021-12-24 15:42:54.156786,-151
2021-12-24 15:42:54.156798,-32
2021-12-24 15:42:54.156808,-39
2021-12-24 15:42:54.156817,-62
2021-12-24 15:42:54.156827,-27
2021-12-24 15:42:54.156837,-39
2021-12-24 15:42:54.156847,-68
2021-12-24 15:42:54.156857,-39
2021-12-24 15:42:54.156866,13
2021-12-24 15:42:54.156876,-9
2021-12-24 15:42:54.156886,6
2021-12-24 15:42:54.156896,87
2021-12-24 15:42:54.156906,75
2021-12-24 15:42:54.156916,-2
2021-12-24 15:42:54.156926,-22
2021-12-24 15:42:54.156936,4
2021-12-24 15:42:54.156946,29
2021-12-24 15:42:54.156955,45
2021-12-24 15:42:54.156965,68
2021-12-24 15:42:54.156975,82
2021-12-24 15:42:54.156984,82
2021-12-24 15:42:54.156994,98
2021-12-24 15:42:54.157004,135
2021-12-24 15:42:54.157014,181
2021-12-24 15:42:54.157023,218
2021-12-24 15:42:54.157033,211
2021-12-24 15:42:54.157043,167
2021-12-24 15:42:54.157053,174
2021-12-24 15:42:54.157063,223
2021-12-24 15:42:54.381904,243
2021-12-24 15:42:54.381925,239
2021-12-24 15:42:54.381933,236
2021-12-24 15:42:54.381940,220
