Time,ECG
2021-12-24 15:37:22.753741,-91
2021-12-24 15:37:22.753755,-75
2021-12-24 15:37:22.753760,-57
2021-12-24 15:37:22.753765,-52
2021-12-24 15:37:22.753769,-62
2021-12-24 15:37:22.753787,-91
2021-12-24 15:37:22.753791,-144
2021-12-24 15:37:22.753795,-160
2021-12-24 15:37:22.753799,-133
2021-12-24 15:37:22.753803,-128
2021-12-24 15:37:22.753808,-151
2021-12-24 15:37:22.753812,-186
2021-12-24 15:37:22.753816,-223
2021-12-24 15:37:22.753820,-227
2021-12-24 15:37:22.753824,-236
2021-12-24 15:37:22.753828,-271
2021-12-24 15:37:22.753832,-268
2021-12-24 15:37:22.753837,-257
2021-12-24 15:37:22.753841,-271
2021-12-24 15:37:22.753845,-273
2021-12-24 15:37:22.753849,-248
2021-12-24 15:37:22.753853,-241
2021-12-24 15:37:22.753857,-250
2021-12-24 15:37:22.753861,-250
2021-12-24 15:37:22.753865,-234
2021-12-24 15:37:22.753870,-209
2021-12-24 15:37:22.753874,-197
2021-12-24 15:37:22.753878,-223
2021-12-24 15:37:22.753882,-259
2021-12-24 15:37:22.753887,-264
2021-12-24 15:37:22.871304,-243
2021-12-24 15:37:22.871333,-218
2021-12-24 15:37:22.871345,-204
2021-12-24 15:37:22.871355,-216
2021-12-24 15:37:22.871364,-239
2021-12-24 15:37:22.871374,-257
2021-12-24 15:37:22.871385,-245
2021-12-24 15:37:22.871395,-213
2021-12-24 15:37:22.871405,-195
2021-12-24 15:37:22.871415,-163
2021-12-24 15:37:22.871425,-101
2021-12-24 15:37:22.871434,-75
2021-12-24 15:37:22.871444,-179
2021-12-24 15:37:22.871454,-381
2021-12-24 15:37:22.871464,-429
2021-12-24 15:37:22.871474,-266
2021-12-24 15:37:22.871483,-188
2021-12-24 15:37:22.871494,-209
2021-12-24 15:37:22.871504,-170
2021-12-24 15:37:22.871514,-137
2021-12-24 15:37:22.871523,-193
2021-12-24 15:37:22.871533,-243
2021-12-24 15:37:22.871543,-232
2021-12-24 15:37:22.871552,-211
2021-12-24 15:37:22.871562,-195
2021-12-24 15:37:22.871572,-165
2021-12-24 15:37:22.871582,-154
2021-12-24 15:37:22.871591,-165
2021-12-24 15:37:22.871601,-172
2021-12-24 15:37:22.871614,-183
2021-12-24 15:37:23.096054,-190
2021-12-24 15:37:23.096085,-158
2021-12-24 15:37:23.096097,-131
2021-12-24 15:37:23.096107,-154
2021-12-24 15:37:23.096116,-188
2021-12-24 15:37:23.096126,-167
2021-12-24 15:37:23.096136,-119
2021-12-24 15:37:23.096146,-87
2021-12-24 15:37:23.096155,-73
2021-12-24 15:37:23.096165,-80
2021-12-24 15:37:23.096175,-101
2021-12-24 15:37:23.096185,-89
2021-12-24 15:37:23.096194,-48
2021-12-24 15:37:23.096227,-25
2021-12-24 15:37:23.096238,-29
2021-12-24 15:37:23.096247,-57
2021-12-24 15:37:23.096257,-91
2021-12-24 15:37:23.096267,-108
2021-12-24 15:37:23.096276,-112
2021-12-24 15:37:23.096286,-119
2021-12-24 15:37:23.096296,-131
2021-12-24 15:37:23.096306,-151
2021-12-24 15:37:23.096315,-165
2021-12-24 15:37:23.096325,-142
2021-12-24 15:37:23.096334,-114
2021-12-24 15:37:23.096344,-101
2021-12-24 15:37:23.096354,-94
2021-12-24 15:37:23.096364,-108
2021-12-24 15:37:23.096373,-133
2021-12-24 15:37:23.096386,-142
2021-12-24 15:37:23.366292,-135
2021-12-24 15:37:23.366315,-147
2021-12-24 15:37:23.366322,-188
2021-12-24 15:37:23.366329,-252
2021-12-24 15:37:23.366335,-294
2021-12-24 15:37:23.366342,-282
2021-12-24 15:37:23.366348,-278
2021-12-24 15:37:23.366354,-296
2021-12-24 15:37:23.366361,-305
2021-12-24 15:37:23.366367,-331
2021-12-24 15:37:23.366374,-349
2021-12-24 15:37:23.366380,-317
2021-12-24 15:37:23.366386,-291
2021-12-24 15:37:23.366393,-294
2021-12-24 15:37:23.366399,-291
2021-12-24 15:37:23.366406,-298
2021-12-24 15:37:23.366412,-298
2021-12-24 15:37:23.366421,-271
2021-12-24 15:37:23.366428,-245
2021-12-24 15:37:23.366435,-236
2021-12-24 15:37:23.366441,-236
2021-12-24 15:37:23.366447,-239
2021-12-24 15:37:23.366454,-227
2021-12-24 15:37:23.366460,-206
2021-12-24 15:37:23.366466,-193
2021-12-24 15:37:23.366473,-209
2021-12-24 15:37:23.366479,-268
2021-12-24 15:37:23.366486,-298
2021-12-24 15:37:23.366492,-259
2021-12-24 15:37:23.366499,-225
2021-12-24 15:37:23.591046,-211
2021-12-24 15:37:23.591075,-181
2021-12-24 15:37:23.591087,-167
2021-12-24 15:37:23.591097,-206
2021-12-24 15:37:23.591107,-232
2021-12-24 15:37:23.591116,-197
2021-12-24 15:37:23.591126,-165
2021-12-24 15:37:23.591143,-167
2021-12-24 15:37:23.591153,-200
2021-12-24 15:37:23.591163,-236
2021-12-24 15:37:23.591173,-216
2021-12-24 15:37:23.591183,-167
2021-12-24 15:37:23.591192,-137
2021-12-24 15:37:23.591202,-128
2021-12-24 15:37:23.591211,-156
2021-12-24 15:37:23.591221,-186
2021-12-24 15:37:23.591231,-163
2021-12-24 15:37:23.591240,-137
2021-12-24 15:37:23.591250,-133
2021-12-24 15:37:23.591260,-121
2021-12-24 15:37:23.591269,-119
2021-12-24 15:37:23.591279,-128
2021-12-24 15:37:23.591289,-112
2021-12-24 15:37:23.591298,-80
2021-12-24 15:37:23.591308,-59
2021-12-24 15:37:23.591318,-45
2021-12-24 15:37:23.591328,-11
2021-12-24 15:37:23.591337,66
2021-12-24 15:37:23.591347,137
2021-12-24 15:37:23.591358,64
2021-12-24 15:37:23.949773,-154
2021-12-24 15:37:23.949793,-248
2021-12-24 15:37:23.949801,-114
2021-12-24 15:37:23.949808,-25
2021-12-24 15:37:23.949814,-39
2021-12-24 15:37:23.949820,-39
2021-12-24 15:37:23.949827,-41
2021-12-24 15:37:23.949833,-64
2021-12-24 15:37:23.949840,-89
2021-12-24 15:37:23.949846,-94
2021-12-24 15:37:23.949853,-75
2021-12-24 15:37:23.949864,-55
2021-12-24 15:37:23.949876,-50
2021-12-24 15:37:23.949930,-80
2021-12-24 15:37:23.949945,-108
2021-12-24 15:37:23.949958,-96
2021-12-24 15:37:23.949970,-73
2021-12-24 15:37:23.949981,-59
2021-12-24 15:37:23.949990,-50
2021-12-24 15:37:23.949996,-41
2021-12-24 15:37:23.950003,-45
2021-12-24 15:37:23.950009,-62
2021-12-24 15:37:23.950015,-66
2021-12-24 15:37:23.950022,-43
2021-12-24 15:37:23.950032,-27
2021-12-24 15:37:23.950039,-27
2021-12-24 15:37:23.950045,-29
2021-12-24 15:37:23.950052,-41
2021-12-24 15:37:23.950058,-43
2021-12-24 15:37:23.950064,-45
2021-12-24 15:37:24.040616,-82
2021-12-24 15:37:24.040637,-133
2021-12-24 15:37:24.040645,-156
2021-12-24 15:37:24.040651,-160
2021-12-24 15:37:24.040658,-177
2021-12-24 15:37:24.040664,-186
2021-12-24 15:37:24.040670,-202
2021-12-24 15:37:24.040677,-239
2021-12-24 15:37:24.040683,-273
2021-12-24 15:37:24.040690,-271
2021-12-24 15:37:24.040696,-243
2021-12-24 15:37:24.040735,-223
2021-12-24 15:37:24.040741,-234
2021-12-24 15:37:24.040747,-259
2021-12-24 15:37:24.040754,-252
2021-12-24 15:37:24.040760,-227
2021-12-24 15:37:24.040767,-213
2021-12-24 15:37:24.040773,-195
2021-12-24 15:37:24.040779,-190
2021-12-24 15:37:24.040786,-195
2021-12-24 15:37:24.040792,-179
2021-12-24 15:37:24.040798,-165
2021-12-24 15:37:24.040807,-160
2021-12-24 15:37:24.040813,-137
2021-12-24 15:37:24.040819,-131
2021-12-24 15:37:24.040826,-144
2021-12-24 15:37:24.040832,-128
2021-12-24 15:37:24.040838,-103
2021-12-24 15:37:24.040845,-87
2021-12-24 15:37:24.040851,-68
2021-12-24 15:37:24.311073,-64
2021-12-24 15:37:24.311102,-59
2021-12-24 15:37:24.311113,-52
2021-12-24 15:37:24.311123,-50
2021-12-24 15:37:24.311134,-41
2021-12-24 15:37:24.311143,-39
2021-12-24 15:37:24.311153,-73
2021-12-24 15:37:24.311163,-89
2021-12-24 15:37:24.311173,-64
2021-12-24 15:37:24.311183,-78
2021-12-24 15:37:24.311192,-119
2021-12-24 15:37:24.311202,-114
2021-12-24 15:37:24.311212,-112
2021-12-24 15:37:24.311222,-124
2021-12-24 15:37:24.311231,-101
2021-12-24 15:37:24.311241,-80
2021-12-24 15:37:24.311251,-75
2021-12-24 15:37:24.311261,-62
2021-12-24 15:37:24.311271,-55
2021-12-24 15:37:24.311280,-48
2021-12-24 15:37:24.311290,-29
2021-12-24 15:37:24.311300,-25
2021-12-24 15:37:24.311309,-27
2021-12-24 15:37:24.311319,-22
2021-12-24 15:37:24.311336,-13
2021-12-24 15:37:24.311346,9
2021-12-24 15:37:24.311356,32
2021-12-24 15:37:24.311366,36
2021-12-24 15:37:24.311376,41
2021-12-24 15:37:24.311386,45
2021-12-24 15:37:24.490824,39
2021-12-24 15:37:24.490854,43
2021-12-24 15:37:24.490866,50
2021-12-24 15:37:24.490876,48
2021-12-24 15:37:24.490886,39
2021-12-24 15:37:24.490895,20
2021-12-24 15:37:24.490905,-22
2021-12-24 15:37:24.490915,-71
2021-12-24 15:37:24.490925,-82
2021-12-24 15:37:24.490935,-59
2021-12-24 15:37:24.490944,-27
2021-12-24 15:37:24.490954,22
2021-12-24 15:37:24.490964,91
2021-12-24 15:37:24.490973,85
2021-12-24 15:37:24.490983,-98
2021-12-24 15:37:24.490993,-280
2021-12-24 15:37:24.491003,-216
2021-12-24 15:37:24.491012,-94
2021-12-24 15:37:24.491022,-91
2021-12-24 15:37:24.491032,-71
2021-12-24 15:37:24.491042,-29
2021-12-24 15:37:24.491051,-52
2021-12-24 15:37:24.491061,-82
2021-12-24 15:37:24.491071,-73
2021-12-24 15:37:24.491080,-59
2021-12-24 15:37:24.491090,-57
2021-12-24 15:37:24.491100,-71
2021-12-24 15:37:24.491110,-94
2021-12-24 15:37:24.491119,-105
2021-12-24 15:37:24.491129,-119
2021-12-24 15:37:24.715783,-119
2021-12-24 15:37:24.715811,-94
2021-12-24 15:37:24.715823,-82
2021-12-24 15:37:24.715833,-94
2021-12-24 15:37:24.715843,-119
2021-12-24 15:37:24.715853,-140
2021-12-24 15:37:24.715862,-119
2021-12-24 15:37:24.715872,-80
2021-12-24 15:37:24.715882,-64
2021-12-24 15:37:24.715891,-62
2021-12-24 15:37:24.715901,-75
2021-12-24 15:37:24.715911,-82
2021-12-24 15:37:24.715921,-57
2021-12-24 15:37:24.715930,-48
2021-12-24 15:37:24.715940,-75
2021-12-24 15:37:24.715950,-82
2021-12-24 15:37:24.715959,-78
2021-12-24 15:37:24.715969,-91
2021-12-24 15:37:24.715979,-103
2021-12-24 15:37:24.715989,-98
2021-12-24 15:37:24.715998,-105
2021-12-24 15:37:24.716008,-133
2021-12-24 15:37:24.716018,-149
2021-12-24 15:37:24.716027,-135
2021-12-24 15:37:24.716037,-117
2021-12-24 15:37:24.716047,-103
2021-12-24 15:37:24.716057,-85
2021-12-24 15:37:24.716067,-85
2021-12-24 15:37:24.716077,-94
2021-12-24 15:37:24.716086,-75
2021-12-24 15:37:24.941015,-43
2021-12-24 15:37:24.941044,-25
2021-12-24 15:37:24.941056,-25
2021-12-24 15:37:24.941066,-45
2021-12-24 15:37:24.941075,-75
2021-12-24 15:37:24.941085,-66
2021-12-24 15:37:24.941095,-25
2021-12-24 15:37:24.941105,-9
2021-12-24 15:37:24.941114,-16
2021-12-24 15:37:24.941124,-27
2021-12-24 15:37:24.941141,-52
2021-12-24 15:37:24.941151,-50
2021-12-24 15:37:24.941161,-32
2021-12-24 15:37:24.941171,-59
2021-12-24 15:37:24.941181,-103
2021-12-24 15:37:24.941190,-117
2021-12-24 15:37:24.941200,-117
2021-12-24 15:37:24.941210,-103
2021-12-24 15:37:24.941220,-73
2021-12-24 15:37:24.941229,-62
2021-12-24 15:37:24.941239,-85
2021-12-24 15:37:24.941249,-110
2021-12-24 15:37:24.941259,-108
2021-12-24 15:37:24.941268,-91
2021-12-24 15:37:24.941278,-94
2021-12-24 15:37:24.941288,-105
2021-12-24 15:37:24.941298,-110
2021-12-24 15:37:24.941307,-140
2021-12-24 15:37:24.941317,-177
2021-12-24 15:37:24.941327,-160
2021-12-24 15:37:25.211178,-128
2021-12-24 15:37:25.211208,-119
2021-12-24 15:37:25.211220,-142
2021-12-24 15:37:25.211230,-188
2021-12-24 15:37:25.211239,-202
2021-12-24 15:37:25.211249,-167
2021-12-24 15:37:25.211259,-137
2021-12-24 15:37:25.211269,-124
2021-12-24 15:37:25.211279,-131
2021-12-24 15:37:25.211288,-165
2021-12-24 15:37:25.211298,-172
2021-12-24 15:37:25.211308,-137
2021-12-24 15:37:25.211317,-117
2021-12-24 15:37:25.211327,-98
2021-12-24 15:37:25.211337,-78
2021-12-24 15:37:25.211346,-85
2021-12-24 15:37:25.211356,-89
2021-12-24 15:37:25.211366,-82
2021-12-24 15:37:25.211375,-98
2021-12-24 15:37:25.211385,-114
2021-12-24 15:37:25.211395,-114
2021-12-24 15:37:25.211405,-121
2021-12-24 15:37:25.211414,-110
2021-12-24 15:37:25.211424,-78
2021-12-24 15:37:25.211434,-59
2021-12-24 15:37:25.211449,-48
2021-12-24 15:37:25.211459,-39
2021-12-24 15:37:25.211469,-43
2021-12-24 15:37:25.211478,-29
2021-12-24 15:37:25.211488,39
2021-12-24 15:37:25.436208,144
2021-12-24 15:37:25.436237,206
2021-12-24 15:37:25.436249,96
2021-12-24 15:37:25.436259,-135
2021-12-24 15:37:25.436269,-188
2021-12-24 15:37:25.436279,-22
2021-12-24 15:37:25.436289,71
2021-12-24 15:37:25.436299,64
2021-12-24 15:37:25.436309,50
2021-12-24 15:37:25.436319,20
2021-12-24 15:37:25.436329,20
2021-12-24 15:37:25.436338,52
2021-12-24 15:37:25.436348,68
2021-12-24 15:37:25.436358,73
2021-12-24 15:37:25.436368,48
2021-12-24 15:37:25.436378,20
2021-12-24 15:37:25.436388,41
2021-12-24 15:37:25.436398,62
2021-12-24 15:37:25.436407,25
2021-12-24 15:37:25.436417,-32
2021-12-24 15:37:25.436427,-43
2021-12-24 15:37:25.436437,-18
2021-12-24 15:37:25.436447,6
2021-12-24 15:37:25.436457,29
2021-12-24 15:37:25.436467,59
2021-12-24 15:37:25.436477,73
2021-12-24 15:37:25.436486,71
2021-12-24 15:37:25.436496,87
2021-12-24 15:37:25.436506,121
2021-12-24 15:37:25.436516,156
2021-12-24 15:37:25.661030,186
2021-12-24 15:37:25.661059,200
2021-12-24 15:37:25.661071,186
2021-12-24 15:37:25.661081,174
2021-12-24 15:37:25.661091,179
2021-12-24 15:37:25.661100,181
2021-12-24 15:37:25.661110,167
2021-12-24 15:37:25.661120,124
2021-12-24 15:37:25.661129,66
2021-12-24 15:37:25.661139,36
2021-12-24 15:37:25.661149,29
2021-12-24 15:37:25.661158,36
2021-12-24 15:37:25.661168,45
2021-12-24 15:37:25.661178,25
2021-12-24 15:37:25.661187,-6
2021-12-24 15:37:25.661197,-2
2021-12-24 15:37:25.661213,16
2021-12-24 15:37:25.661223,32
2021-12-24 15:37:25.661232,45
2021-12-24 15:37:25.661242,43
2021-12-24 15:37:25.661252,29
2021-12-24 15:37:25.661261,6
2021-12-24 15:37:25.661271,-18
2021-12-24 15:37:25.661281,-11
2021-12-24 15:37:25.661291,11
2021-12-24 15:37:25.661300,13
2021-12-24 15:37:25.661310,13
2021-12-24 15:37:25.661320,20
2021-12-24 15:37:25.661329,27
2021-12-24 15:37:25.661339,45
2021-12-24 15:37:25.929653,66
2021-12-24 15:37:25.929683,75
2021-12-24 15:37:25.929694,80
2021-12-24 15:37:25.929704,80
2021-12-24 15:37:25.929714,82
2021-12-24 15:37:25.929724,98
2021-12-24 15:37:25.929734,87
2021-12-24 15:37:25.929743,50
2021-12-24 15:37:25.929753,45
2021-12-24 15:37:25.929763,62
2021-12-24 15:37:25.929772,68
2021-12-24 15:37:25.929782,75
2021-12-24 15:37:25.929791,57
2021-12-24 15:37:25.929801,20
2021-12-24 15:37:25.929811,22
2021-12-24 15:37:25.929821,39
2021-12-24 15:37:25.929830,18
2021-12-24 15:37:25.929840,0
2021-12-24 15:37:25.929849,2
2021-12-24 15:37:25.929859,2
2021-12-24 15:37:25.929869,-4
2021-12-24 15:37:25.929878,-22
2021-12-24 15:37:25.929888,-48
2021-12-24 15:37:25.929898,-73
2021-12-24 15:37:25.929907,-133
2021-12-24 15:37:25.929917,-174
2021-12-24 15:37:25.929926,-156
2021-12-24 15:37:25.929936,-147
2021-12-24 15:37:25.929946,-154
2021-12-24 15:37:25.929955,-135
2021-12-24 15:37:26.111195,-128
2021-12-24 15:37:26.111225,-140
2021-12-24 15:37:26.111236,-135
2021-12-24 15:37:26.111246,-119
2021-12-24 15:37:26.111256,-108
2021-12-24 15:37:26.111266,-110
2021-12-24 15:37:26.111276,-135
2021-12-24 15:37:26.111285,-144
2021-12-24 15:37:26.111295,-119
2021-12-24 15:37:26.111305,-105
2021-12-24 15:37:26.111315,-98
2021-12-24 15:37:26.111324,-105
2021-12-24 15:37:26.111334,-133
2021-12-24 15:37:26.111352,-128
2021-12-24 15:37:26.111362,-87
2021-12-24 15:37:26.111372,-75
2021-12-24 15:37:26.111381,-80
2021-12-24 15:37:26.111391,-71
2021-12-24 15:37:26.111401,-59
2021-12-24 15:37:26.111410,-48
2021-12-24 15:37:26.111420,-36
2021-12-24 15:37:26.111430,-29
2021-12-24 15:37:26.111439,-18
2021-12-24 15:37:26.111449,-9
2021-12-24 15:37:26.111459,-18
2021-12-24 15:37:26.111469,-25
2021-12-24 15:37:26.111478,-36
2021-12-24 15:37:26.111488,-45
2021-12-24 15:37:26.111498,-41
2021-12-24 15:37:26.111508,-34
2021-12-24 15:37:26.381006,-25
2021-12-24 15:37:26.381026,4
2021-12-24 15:37:26.381034,29
2021-12-24 15:37:26.381040,22
2021-12-24 15:37:26.381047,-2
2021-12-24 15:37:26.381053,-29
2021-12-24 15:37:26.381060,-45
2021-12-24 15:37:26.381066,-32
2021-12-24 15:37:26.381073,-29
2021-12-24 15:37:26.381079,-41
2021-12-24 15:37:26.381086,-36
2021-12-24 15:37:26.381092,-48
2021-12-24 15:37:26.381098,-59
2021-12-24 15:37:26.381105,-29
2021-12-24 15:37:26.381111,-11
2021-12-24 15:37:26.381117,-22
2021-12-24 15:37:26.381124,-27
2021-12-24 15:37:26.381130,-25
2021-12-24 15:37:26.381137,-18
2021-12-24 15:37:26.381143,0
2021-12-24 15:37:26.381149,6
2021-12-24 15:37:26.381156,-9
2021-12-24 15:37:26.381162,-18
2021-12-24 15:37:26.381169,-13
2021-12-24 15:37:26.381175,-4
2021-12-24 15:37:26.381181,11
2021-12-24 15:37:26.381188,18
2021-12-24 15:37:26.381194,-9
2021-12-24 15:37:26.381201,-48
2021-12-24 15:37:26.381207,-71
2021-12-24 15:37:26.561048,-96
2021-12-24 15:37:26.561078,-108
2021-12-24 15:37:26.561089,-82
2021-12-24 15:37:26.561099,-75
2021-12-24 15:37:26.561109,-96
2021-12-24 15:37:26.561119,-98
2021-12-24 15:37:26.561128,-68
2021-12-24 15:37:26.561138,-34
2021-12-24 15:37:26.561147,-20
2021-12-24 15:37:26.561157,-20
2021-12-24 15:37:26.561167,-22
2021-12-24 15:37:26.561177,-11
2021-12-24 15:37:26.561186,6
2021-12-24 15:37:26.561196,2
2021-12-24 15:37:26.561206,-36
2021-12-24 15:37:26.561215,-78
2021-12-24 15:37:26.561225,-98
2021-12-24 15:37:26.561242,-98
2021-12-24 15:37:26.561252,-78
2021-12-24 15:37:26.561262,-82
2021-12-24 15:37:26.561271,-98
2021-12-24 15:37:26.561281,-57
2021-12-24 15:37:26.561291,18
2021-12-24 15:37:26.561300,50
2021-12-24 15:37:26.561310,-57
2021-12-24 15:37:26.561320,-278
2021-12-24 15:37:26.561330,-317
2021-12-24 15:37:26.561339,-156
2021-12-24 15:37:26.561349,-105
2021-12-24 15:37:26.561359,-147
2021-12-24 15:37:26.831223,-128
2021-12-24 15:37:26.831253,-108
2021-12-24 15:37:26.831265,-112
2021-12-24 15:37:26.831276,-124
2021-12-24 15:37:26.831286,-147
2021-12-24 15:37:26.831296,-137
2021-12-24 15:37:26.831306,-94
2021-12-24 15:37:26.831316,-78
2021-12-24 15:37:26.831326,-87
2021-12-24 15:37:26.831336,-103
2021-12-24 15:37:26.831350,-119
2021-12-24 15:37:26.831360,-98
2021-12-24 15:37:26.831370,-59
2021-12-24 15:37:26.831380,-39
2021-12-24 15:37:26.831390,-27
2021-12-24 15:37:26.831400,-32
2021-12-24 15:37:26.831410,-32
2021-12-24 15:37:26.831420,0
2021-12-24 15:37:26.831430,34
2021-12-24 15:37:26.831440,43
2021-12-24 15:37:26.831450,48
2021-12-24 15:37:26.831460,62
2021-12-24 15:37:26.831469,75
2021-12-24 15:37:26.831479,87
2021-12-24 15:37:26.831489,108
2021-12-24 15:37:26.831499,137
2021-12-24 15:37:26.831509,140
2021-12-24 15:37:26.831519,112
2021-12-24 15:37:26.831529,103
2021-12-24 15:37:26.831539,114
2021-12-24 15:37:27.056223,110
2021-12-24 15:37:27.056254,78
2021-12-24 15:37:27.056266,20
2021-12-24 15:37:27.056276,-34
2021-12-24 15:37:27.056286,-48
2021-12-24 15:37:27.056296,-64
2021-12-24 15:37:27.056305,-114
2021-12-24 15:37:27.056315,-140
2021-12-24 15:37:27.056325,-133
2021-12-24 15:37:27.056335,-165
2021-12-24 15:37:27.056345,-181
2021-12-24 15:37:27.056355,-137
2021-12-24 15:37:27.056364,-108
2021-12-24 15:37:27.056374,-103
2021-12-24 15:37:27.056384,-112
2021-12-24 15:37:27.056394,-140
2021-12-24 15:37:27.056404,-135
2021-12-24 15:37:27.056413,-96
2021-12-24 15:37:27.056423,-80
2021-12-24 15:37:27.056433,-78
2021-12-24 15:37:27.056443,-85
2021-12-24 15:37:27.056453,-98
2021-12-24 15:37:27.056463,-89
2021-12-24 15:37:27.056473,-57
2021-12-24 15:37:27.056482,-41
2021-12-24 15:37:27.056492,-36
2021-12-24 15:37:27.056502,-34
2021-12-24 15:37:27.056512,-41
2021-12-24 15:37:27.056521,-36
2021-12-24 15:37:27.056537,-22
2021-12-24 15:37:27.281221,-11
2021-12-24 15:37:27.281251,-4
2021-12-24 15:37:27.281262,-13
2021-12-24 15:37:27.281272,-52
2021-12-24 15:37:27.281282,-82
2021-12-24 15:37:27.281292,-75
2021-12-24 15:37:27.281302,-55
2021-12-24 15:37:27.281311,-62
2021-12-24 15:37:27.281321,-103
2021-12-24 15:37:27.281331,-135
2021-12-24 15:37:27.281341,-121
2021-12-24 15:37:27.281351,-94
2021-12-24 15:37:27.281360,-82
2021-12-24 15:37:27.281370,-80
2021-12-24 15:37:27.281380,-98
2021-12-24 15:37:27.281390,-124
2021-12-24 15:37:27.281400,-117
2021-12-24 15:37:27.281410,-103
2021-12-24 15:37:27.281419,-126
2021-12-24 15:37:27.281429,-151
2021-12-24 15:37:27.281439,-160
2021-12-24 15:37:27.281449,-163
2021-12-24 15:37:27.281458,-163
2021-12-24 15:37:27.281468,-170
2021-12-24 15:37:27.281478,-190
2021-12-24 15:37:27.281488,-209
2021-12-24 15:37:27.281497,-200
2021-12-24 15:37:27.281507,-131
2021-12-24 15:37:27.281517,-71
2021-12-24 15:37:27.281526,-177
2021-12-24 15:37:27.551562,-434
2021-12-24 15:37:27.551591,-537
2021-12-24 15:37:27.551603,-386
2021-12-24 15:37:27.551613,-271
2021-12-24 15:37:27.551623,-278
2021-12-24 15:37:27.551632,-268
2021-12-24 15:37:27.551642,-285
2021-12-24 15:37:27.551652,-333
2021-12-24 15:37:27.551662,-349
2021-12-24 15:37:27.551672,-333
2021-12-24 15:37:27.551681,-335
2021-12-24 15:37:27.551691,-374
2021-12-24 15:37:27.551701,-409
2021-12-24 15:37:27.551711,-425
2021-12-24 15:37:27.551720,-436
2021-12-24 15:37:27.551730,-427
2021-12-24 15:37:27.551740,-393
2021-12-24 15:37:27.551750,-367
2021-12-24 15:37:27.551759,-351
2021-12-24 15:37:27.551769,-349
2021-12-24 15:37:27.551779,-347
2021-12-24 15:37:27.551789,-326
2021-12-24 15:37:27.551798,-289
2021-12-24 15:37:27.551808,-262
2021-12-24 15:37:27.551818,-250
2021-12-24 15:37:27.551828,-239
2021-12-24 15:37:27.551837,-218
2021-12-24 15:37:27.551847,-200
2021-12-24 15:37:27.551857,-174
2021-12-24 15:37:27.551867,-149
2021-12-24 15:37:27.731067,-144
2021-12-24 15:37:27.731097,-144
2021-12-24 15:37:27.731109,-140
2021-12-24 15:37:27.731119,-158
2021-12-24 15:37:27.731129,-186
2021-12-24 15:37:27.731138,-195
2021-12-24 15:37:27.731148,-209
2021-12-24 15:37:27.731158,-243
2021-12-24 15:37:27.731167,-285
2021-12-24 15:37:27.731177,-305
2021-12-24 15:37:27.731187,-291
2021-12-24 15:37:27.731197,-278
2021-12-24 15:37:27.731206,-308
2021-12-24 15:37:27.731216,-340
2021-12-24 15:37:27.731226,-317
2021-12-24 15:37:27.731236,-296
2021-12-24 15:37:27.731245,-301
2021-12-24 15:37:27.731255,-296
2021-12-24 15:37:27.731265,-314
2021-12-24 15:37:27.731274,-337
2021-12-24 15:37:27.731293,-312
2021-12-24 15:37:27.731303,-289
2021-12-24 15:37:27.731313,-285
2021-12-24 15:37:27.731323,-271
2021-12-24 15:37:27.731332,-264
2021-12-24 15:37:27.731342,-262
2021-12-24 15:37:27.731352,-250
2021-12-24 15:37:27.731362,-245
2021-12-24 15:37:27.731372,-236
2021-12-24 15:37:27.731382,-216
2021-12-24 15:37:28.089862,-213
2021-12-24 15:37:28.089893,-209
2021-12-24 15:37:28.089904,-193
2021-12-24 15:37:28.089914,-193
2021-12-24 15:37:28.089924,-197
2021-12-24 15:37:28.089934,-206
2021-12-24 15:37:28.089944,-236
2021-12-24 15:37:28.089954,-245
2021-12-24 15:37:28.089964,-229
2021-12-24 15:37:28.089973,-245
2021-12-24 15:37:28.089983,-280
2021-12-24 15:37:28.089993,-289
2021-12-24 15:37:28.090002,-289
2021-12-24 15:37:28.090012,-271
2021-12-24 15:37:28.090022,-239
2021-12-24 15:37:28.090032,-248
2021-12-24 15:37:28.090041,-310
2021-12-24 15:37:28.090051,-390
2021-12-24 15:37:28.090061,-409
2021-12-24 15:37:28.090070,-360
2021-12-24 15:37:28.090080,-342
2021-12-24 15:37:28.090090,-351
2021-12-24 15:37:28.090100,-354
2021-12-24 15:37:28.090109,-367
2021-12-24 15:37:28.090119,-379
2021-12-24 15:37:28.090129,-372
2021-12-24 15:37:28.090138,-333
2021-12-24 15:37:28.090148,-245
2021-12-24 15:37:28.090158,-183
2021-12-24 15:37:28.090167,-291
2021-12-24 15:37:28.181078,-528
2021-12-24 15:37:28.181100,-590
2021-12-24 15:37:28.181107,-413
2021-12-24 15:37:28.181114,-310
2021-12-24 15:37:28.181120,-340
2021-12-24 15:37:28.181127,-337
2021-12-24 15:37:28.181133,-312
2021-12-24 15:37:28.181140,-298
2021-12-24 15:37:28.181146,-273
2021-12-24 15:37:28.181152,-252
2021-12-24 15:37:28.181159,-248
2021-12-24 15:37:28.181165,-243
2021-12-24 15:37:28.181172,-241
2021-12-24 15:37:28.181178,-227
2021-12-24 15:37:28.181185,-204
2021-12-24 15:37:28.181191,-195
2021-12-24 15:37:28.181197,-206
2021-12-24 15:37:28.181204,-209
2021-12-24 15:37:28.181210,-183
2021-12-24 15:37:28.181217,-142
2021-12-24 15:37:28.181223,-121
2021-12-24 15:37:28.181230,-117
2021-12-24 15:37:28.181236,-119
2021-12-24 15:37:28.181242,-131
2021-12-24 15:37:28.181249,-117
2021-12-24 15:37:28.181255,-66
2021-12-24 15:37:28.181261,-29
2021-12-24 15:37:28.181268,-20
2021-12-24 15:37:28.181274,-11
2021-12-24 15:37:28.181280,9
2021-12-24 15:37:28.406213,34
2021-12-24 15:37:28.406243,50
2021-12-24 15:37:28.406254,43
2021-12-24 15:37:28.406264,18
2021-12-24 15:37:28.406274,-27
2021-12-24 15:37:28.406283,-68
2021-12-24 15:37:28.406293,-62
2021-12-24 15:37:28.406303,-43
2021-12-24 15:37:28.406312,-57
2021-12-24 15:37:28.406322,-85
2021-12-24 15:37:28.406332,-112
2021-12-24 15:37:28.406341,-128
2021-12-24 15:37:28.406351,-112
2021-12-24 15:37:28.406361,-101
2021-12-24 15:37:28.406370,-128
2021-12-24 15:37:28.406380,-144
2021-12-24 15:37:28.406390,-135
2021-12-24 15:37:28.406399,-117
2021-12-24 15:37:28.406409,-94
2021-12-24 15:37:28.406419,-68
2021-12-24 15:37:28.406428,-55
2021-12-24 15:37:28.406438,-64
2021-12-24 15:37:28.406457,-108
2021-12-24 15:37:28.406467,-114
2021-12-24 15:37:28.406477,-73
2021-12-24 15:37:28.406487,-52
2021-12-24 15:37:28.406496,-52
2021-12-24 15:37:28.406506,-48
2021-12-24 15:37:28.406516,-48
2021-12-24 15:37:28.406525,-34
2021-12-24 15:37:28.676060,-2
2021-12-24 15:37:28.676091,22
2021-12-24 15:37:28.676103,29
2021-12-24 15:37:28.676113,0
2021-12-24 15:37:28.676123,-39
2021-12-24 15:37:28.676133,-25
2021-12-24 15:37:28.676143,13
2021-12-24 15:37:28.676153,32
2021-12-24 15:37:28.676163,32
2021-12-24 15:37:28.676173,4
2021-12-24 15:37:28.676183,-25
2021-12-24 15:37:28.676193,-11
2021-12-24 15:37:28.676203,27
2021-12-24 15:37:28.676213,45
2021-12-24 15:37:28.676222,50
2021-12-24 15:37:28.676232,41
2021-12-24 15:37:28.676242,22
2021-12-24 15:37:28.676252,22
2021-12-24 15:37:28.676261,48
2021-12-24 15:37:28.676271,64
2021-12-24 15:37:28.676281,68
2021-12-24 15:37:28.676291,66
2021-12-24 15:37:28.676301,71
2021-12-24 15:37:28.676311,94
2021-12-24 15:37:28.676320,114
2021-12-24 15:37:28.676330,121
2021-12-24 15:37:28.676340,126
2021-12-24 15:37:28.676350,124
2021-12-24 15:37:28.676360,170
2021-12-24 15:37:28.676369,285
2021-12-24 15:37:28.991005,335
2021-12-24 15:37:28.991034,190
2021-12-24 15:37:28.991046,-48
2021-12-24 15:37:28.991057,-89
2021-12-24 15:37:28.991066,52
2021-12-24 15:37:28.991076,110
2021-12-24 15:37:28.991086,101
2021-12-24 15:37:28.991096,140
2021-12-24 15:37:28.991106,131
2021-12-24 15:37:28.991115,52
2021-12-24 15:37:28.991125,18
2021-12-24 15:37:28.991135,34
2021-12-24 15:37:28.991144,18
2021-12-24 15:37:28.991154,-22
2021-12-24 15:37:28.991164,-52
2021-12-24 15:37:28.991174,-80
2021-12-24 15:37:28.991184,-75
2021-12-24 15:37:28.991194,-57
2021-12-24 15:37:28.991204,-73
2021-12-24 15:37:28.991213,-80
2021-12-24 15:37:28.991223,-64
2021-12-24 15:37:28.991233,-66
2021-12-24 15:37:28.991243,-57
2021-12-24 15:37:28.991252,-22
2021-12-24 15:37:28.991262,0
2021-12-24 15:37:28.991272,6
2021-12-24 15:37:28.991282,9
2021-12-24 15:37:28.991292,-2
2021-12-24 15:37:28.991302,-29
2021-12-24 15:37:28.991312,-32
2021-12-24 15:37:29.125972,9
2021-12-24 15:37:29.126002,45
2021-12-24 15:37:29.126013,36
2021-12-24 15:37:29.126024,20
2021-12-24 15:37:29.126033,27
2021-12-24 15:37:29.126043,22
2021-12-24 15:37:29.126052,9
2021-12-24 15:37:29.126062,9
2021-12-24 15:37:29.126072,-22
2021-12-24 15:37:29.126082,-62
2021-12-24 15:37:29.126092,-45
2021-12-24 15:37:29.126101,-9
2021-12-24 15:37:29.126111,0
2021-12-24 15:37:29.126121,-6
2021-12-24 15:37:29.126131,-18
2021-12-24 15:37:29.126140,-20
2021-12-24 15:37:29.126150,4
2021-12-24 15:37:29.126160,34
2021-12-24 15:37:29.126169,52
2021-12-24 15:37:29.126179,55
2021-12-24 15:37:29.126189,34
2021-12-24 15:37:29.126199,20
2021-12-24 15:37:29.126208,43
2021-12-24 15:37:29.126218,71
2021-12-24 15:37:29.126228,75
2021-12-24 15:37:29.126237,59
2021-12-24 15:37:29.126247,34
2021-12-24 15:37:29.126257,29
2021-12-24 15:37:29.126266,45
2021-12-24 15:37:29.126276,59
2021-12-24 15:37:29.395394,68
2021-12-24 15:37:29.395424,64
2021-12-24 15:37:29.395435,59
2021-12-24 15:37:29.395446,68
2021-12-24 15:37:29.395455,80
2021-12-24 15:37:29.395475,94
2021-12-24 15:37:29.395485,94
2021-12-24 15:37:29.395495,59
2021-12-24 15:37:29.395505,16
2021-12-24 15:37:29.395515,22
2021-12-24 15:37:29.395525,48
2021-12-24 15:37:29.395534,52
2021-12-24 15:37:29.395544,45
2021-12-24 15:37:29.395554,29
2021-12-24 15:37:29.395564,18
2021-12-24 15:37:29.395573,29
2021-12-24 15:37:29.395583,48
2021-12-24 15:37:29.395593,57
2021-12-24 15:37:29.395603,64
2021-12-24 15:37:29.395613,62
2021-12-24 15:37:29.395622,59
2021-12-24 15:37:29.395632,41
2021-12-24 15:37:29.395642,0
2021-12-24 15:37:29.395652,-4
2021-12-24 15:37:29.395662,16
2021-12-24 15:37:29.395671,11
2021-12-24 15:37:29.395681,13
2021-12-24 15:37:29.395691,41
2021-12-24 15:37:29.395700,71
2021-12-24 15:37:29.395710,108
2021-12-24 15:37:29.576001,119
2021-12-24 15:37:29.576031,105
2021-12-24 15:37:29.576043,91
2021-12-24 15:37:29.576053,50
2021-12-24 15:37:29.576062,-2
2021-12-24 15:37:29.576072,6
2021-12-24 15:37:29.576082,18
2021-12-24 15:37:29.576092,-16
2021-12-24 15:37:29.576101,-13
2021-12-24 15:37:29.576111,16
2021-12-24 15:37:29.576121,20
2021-12-24 15:37:29.576130,16
2021-12-24 15:37:29.576140,25
2021-12-24 15:37:29.576150,75
2021-12-24 15:37:29.576159,144
2021-12-24 15:37:29.576169,75
2021-12-24 15:37:29.576179,-158
2021-12-24 15:37:29.576189,-268
2021-12-24 15:37:29.576198,-154
2021-12-24 15:37:29.576208,-78
2021-12-24 15:37:29.576218,-98
2021-12-24 15:37:29.576228,-71
2021-12-24 15:37:29.576237,-36
2021-12-24 15:37:29.576247,-57
2021-12-24 15:37:29.576257,-105
2021-12-24 15:37:29.576266,-126
2021-12-24 15:37:29.576276,-133
2021-12-24 15:37:29.576286,-160
2021-12-24 15:37:29.576296,-165
2021-12-24 15:37:29.576305,-135
2021-12-24 15:37:29.800994,-131
2021-12-24 15:37:29.801013,-131
2021-12-24 15:37:29.801020,-110
2021-12-24 15:37:29.801027,-98
2021-12-24 15:37:29.801033,-91
2021-12-24 15:37:29.801039,-85
2021-12-24 15:37:29.801046,-110
2021-12-24 15:37:29.801052,-110
2021-12-24 15:37:29.801058,-82
2021-12-24 15:37:29.801065,-73
2021-12-24 15:37:29.801071,-62
2021-12-24 15:37:29.801077,-50
2021-12-24 15:37:29.801083,-59
2021-12-24 15:37:29.801090,-43
2021-12-24 15:37:29.801096,-13
2021-12-24 15:37:29.801102,-16
2021-12-24 15:37:29.801108,-11
2021-12-24 15:37:29.801115,2
2021-12-24 15:37:29.801121,-11
2021-12-24 15:37:29.801127,-36
2021-12-24 15:37:29.801134,-64
2021-12-24 15:37:29.801140,-94
2021-12-24 15:37:29.801146,-103
2021-12-24 15:37:29.801152,-108
2021-12-24 15:37:29.801159,-119
2021-12-24 15:37:29.801165,-128
2021-12-24 15:37:29.801171,-149
2021-12-24 15:37:29.801178,-160
2021-12-24 15:37:29.801184,-142
2021-12-24 15:37:29.801190,-121
2021-12-24 15:37:30.114665,-110
2021-12-24 15:37:30.114695,-89
2021-12-24 15:37:30.114707,-75
2021-12-24 15:37:30.114716,-73
2021-12-24 15:37:30.114726,-71
2021-12-24 15:37:30.114736,-87
2021-12-24 15:37:30.114745,-94
2021-12-24 15:37:30.114755,-71
2021-12-24 15:37:30.114765,-85
2021-12-24 15:37:30.114774,-119
2021-12-24 15:37:30.114784,-78
2021-12-24 15:37:30.114793,-39
2021-12-24 15:37:30.114803,-151
2021-12-24 15:37:30.114813,-374
2021-12-24 15:37:30.114823,-436
2021-12-24 15:37:30.114832,-252
2021-12-24 15:37:30.114842,-112
2021-12-24 15:37:30.114852,-89
2021-12-24 15:37:30.114861,-48
2021-12-24 15:37:30.114871,-6
2021-12-24 15:37:30.114880,-2
2021-12-24 15:37:30.114890,6
2021-12-24 15:37:30.114899,18
2021-12-24 15:37:30.114909,20
2021-12-24 15:37:30.114918,36
2021-12-24 15:37:30.114928,62
2021-12-24 15:37:30.114937,68
2021-12-24 15:37:30.114947,55
2021-12-24 15:37:30.114957,41
2021-12-24 15:37:30.114967,45
2021-12-24 15:37:30.295411,68
2021-12-24 15:37:30.295447,85
2021-12-24 15:37:30.295459,91
2021-12-24 15:37:30.295469,87
2021-12-24 15:37:30.295479,66
2021-12-24 15:37:30.295489,57
2021-12-24 15:37:30.295499,85
2021-12-24 15:37:30.295509,121
2021-12-24 15:37:30.295519,137
2021-12-24 15:37:30.295528,137
2021-12-24 15:37:30.295538,142
2021-12-24 15:37:30.295548,165
2021-12-24 15:37:30.295558,195
2021-12-24 15:37:30.295568,209
2021-12-24 15:37:30.295578,197
2021-12-24 15:37:30.295588,156
2021-12-24 15:37:30.295598,85
2021-12-24 15:37:30.295607,41
2021-12-24 15:37:30.295617,43
2021-12-24 15:37:30.295627,34
2021-12-24 15:37:30.295637,9
2021-12-24 15:37:30.295647,-6
2021-12-24 15:37:30.295657,-20
2021-12-24 15:37:30.295667,-16
2021-12-24 15:37:30.295676,6
2021-12-24 15:37:30.295686,16
2021-12-24 15:37:30.295696,16
2021-12-24 15:37:30.295706,11
2021-12-24 15:37:30.295716,-2
2021-12-24 15:37:30.295726,-11
2021-12-24 15:37:30.520717,-25
2021-12-24 15:37:30.520738,-41
2021-12-24 15:37:30.520746,-43
2021-12-24 15:37:30.520752,-59
2021-12-24 15:37:30.520759,-91
2021-12-24 15:37:30.520765,-82
2021-12-24 15:37:30.520771,-52
2021-12-24 15:37:30.520778,-59
2021-12-24 15:37:30.520784,-85
2021-12-24 15:37:30.520790,-108
2021-12-24 15:37:30.520797,-119
2021-12-24 15:37:30.520803,-108
2021-12-24 15:37:30.520810,-105
2021-12-24 15:37:30.520816,-154
2021-12-24 15:37:30.520822,-236
2021-12-24 15:37:30.520829,-289
2021-12-24 15:37:30.520835,-285
2021-12-24 15:37:30.520841,-257
2021-12-24 15:37:30.520848,-243
2021-12-24 15:37:30.520854,-243
2021-12-24 15:37:30.520861,-248
2021-12-24 15:37:30.520867,-264
2021-12-24 15:37:30.520873,-257
2021-12-24 15:37:30.520880,-218
2021-12-24 15:37:30.520886,-190
2021-12-24 15:37:30.520892,-186
2021-12-24 15:37:30.520899,-179
2021-12-24 15:37:30.520905,-186
2021-12-24 15:37:30.520911,-181
2021-12-24 15:37:30.520918,-140
2021-12-24 15:37:30.835449,-105
2021-12-24 15:37:30.835475,-110
2021-12-24 15:37:30.835483,-144
2021-12-24 15:37:30.835490,-177
2021-12-24 15:37:30.835496,-172
2021-12-24 15:37:30.835503,-142
2021-12-24 15:37:30.835510,-121
2021-12-24 15:37:30.835516,-108
2021-12-24 15:37:30.835523,-117
2021-12-24 15:37:30.835529,-149
2021-12-24 15:37:30.835535,-144
2021-12-24 15:37:30.835542,-105
2021-12-24 15:37:30.835548,-85
2021-12-24 15:37:30.835555,-75
2021-12-24 15:37:30.835561,-96
2021-12-24 15:37:30.835567,-144
2021-12-24 15:37:30.835574,-135
2021-12-24 15:37:30.835580,-82
2021-12-24 15:37:30.835587,-64
2021-12-24 15:37:30.835593,-57
2021-12-24 15:37:30.835600,-43
2021-12-24 15:37:30.835606,-43
2021-12-24 15:37:30.835613,-34
2021-12-24 15:37:30.835619,-11
2021-12-24 15:37:30.835625,-2
2021-12-24 15:37:30.835632,0
2021-12-24 15:37:30.835638,2
2021-12-24 15:37:30.835645,-2
2021-12-24 15:37:30.835652,0
2021-12-24 15:37:30.835658,18
2021-12-24 15:37:30.970424,27
2021-12-24 15:37:30.970443,25
2021-12-24 15:37:30.970450,25
2021-12-24 15:37:30.970457,52
2021-12-24 15:37:30.970463,105
2021-12-24 15:37:30.970469,133
2021-12-24 15:37:30.970475,16
2021-12-24 15:37:30.970481,-229
2021-12-24 15:37:30.970488,-301
2021-12-24 15:37:30.970494,-144
2021-12-24 15:37:30.970500,-57
2021-12-24 15:37:30.970507,-64
2021-12-24 15:37:30.970513,-34
2021-12-24 15:37:30.970519,-29
2021-12-24 15:37:30.970525,-78
2021-12-24 15:37:30.970531,-89
2021-12-24 15:37:30.970537,-57
2021-12-24 15:37:30.970544,-39
2021-12-24 15:37:30.970550,-32
2021-12-24 15:37:30.970556,-43
2021-12-24 15:37:30.970562,-87
2021-12-24 15:37:30.970568,-101
2021-12-24 15:37:30.970574,-68
2021-12-24 15:37:30.970580,-45
2021-12-24 15:37:30.970587,-39
2021-12-24 15:37:30.970593,-36
2021-12-24 15:37:30.970599,-45
2021-12-24 15:37:30.970605,-41
2021-12-24 15:37:30.970611,-16
2021-12-24 15:37:30.970618,6
2021-12-24 15:37:31.240418,18
2021-12-24 15:37:31.240449,25
2021-12-24 15:37:31.240460,32
2021-12-24 15:37:31.240470,45
2021-12-24 15:37:31.240479,68
2021-12-24 15:37:31.240489,80
2021-12-24 15:37:31.240499,48
2021-12-24 15:37:31.240508,-9
2021-12-24 15:37:31.240518,-27
2021-12-24 15:37:31.240528,-9
2021-12-24 15:37:31.240537,0
2021-12-24 15:37:31.240552,6
2021-12-24 15:37:31.240562,-6
2021-12-24 15:37:31.240572,-62
2021-12-24 15:37:31.240581,-98
2021-12-24 15:37:31.240591,-96
2021-12-24 15:37:31.240601,-91
2021-12-24 15:37:31.240610,-87
2021-12-24 15:37:31.240620,-85
2021-12-24 15:37:31.240629,-89
2021-12-24 15:37:31.240639,-85
2021-12-24 15:37:31.240648,-68
2021-12-24 15:37:31.240658,-50
2021-12-24 15:37:31.240668,-36
2021-12-24 15:37:31.240677,-34
2021-12-24 15:37:31.240687,-29
2021-12-24 15:37:31.240696,-18
2021-12-24 15:37:31.240706,-6
2021-12-24 15:37:31.240716,4
2021-12-24 15:37:31.240726,16
2021-12-24 15:37:31.421003,20
2021-12-24 15:37:31.421033,18
2021-12-24 15:37:31.421045,20
2021-12-24 15:37:31.421055,20
2021-12-24 15:37:31.421065,18
2021-12-24 15:37:31.421074,29
2021-12-24 15:37:31.421084,18
2021-12-24 15:37:31.421093,-20
2021-12-24 15:37:31.421103,-52
2021-12-24 15:37:31.421112,-66
2021-12-24 15:37:31.421122,-62
2021-12-24 15:37:31.421131,-59
2021-12-24 15:37:31.421141,-89
2021-12-24 15:37:31.421150,-108
2021-12-24 15:37:31.421160,-87
2021-12-24 15:37:31.421170,-71
2021-12-24 15:37:31.421179,-62
2021-12-24 15:37:31.421189,-55
2021-12-24 15:37:31.421198,-62
2021-12-24 15:37:31.421208,-62
2021-12-24 15:37:31.421217,-36
2021-12-24 15:37:31.421227,-18
2021-12-24 15:37:31.421236,-9
2021-12-24 15:37:31.421246,0
2021-12-24 15:37:31.421256,-4
2021-12-24 15:37:31.421265,-32
2021-12-24 15:37:31.421275,-80
2021-12-24 15:37:31.421285,-98
2021-12-24 15:37:31.421294,-66
2021-12-24 15:37:31.421304,-43
2021-12-24 15:37:31.735505,-43
2021-12-24 15:37:31.735534,-27
2021-12-24 15:37:31.735545,-2
2021-12-24 15:37:31.735555,4
2021-12-24 15:37:31.735565,-4
2021-12-24 15:37:31.735575,-32
2021-12-24 15:37:31.735585,-66
2021-12-24 15:37:31.735594,-62
2021-12-24 15:37:31.735604,-34
2021-12-24 15:37:31.735614,-45
2021-12-24 15:37:31.735624,-78
2021-12-24 15:37:31.735633,-105
2021-12-24 15:37:31.735643,-124
2021-12-24 15:37:31.735653,-110
2021-12-24 15:37:31.735662,-75
2021-12-24 15:37:31.735672,-27
2021-12-24 15:37:31.735682,68
2021-12-24 15:37:31.735692,137
2021-12-24 15:37:31.735702,41
2021-12-24 15:37:31.735712,-177
2021-12-24 15:37:31.735721,-236
2021-12-24 15:37:31.735731,-94
2021-12-24 15:37:31.735741,-13
2021-12-24 15:37:31.735751,-29
2021-12-24 15:37:31.735760,-2
2021-12-24 15:37:31.735770,39
2021-12-24 15:37:31.735780,41
2021-12-24 15:37:31.735789,39
2021-12-24 15:37:31.735799,34
2021-12-24 15:37:31.735809,9
2021-12-24 15:37:31.870727,-18
2021-12-24 15:37:31.870748,-9
2021-12-24 15:37:31.870755,6
2021-12-24 15:37:31.870762,0
2021-12-24 15:37:31.870768,-13
2021-12-24 15:37:31.870775,-22
2021-12-24 15:37:31.870781,-32
2021-12-24 15:37:31.870787,-43
2021-12-24 15:37:31.870793,-57
2021-12-24 15:37:31.870800,-57
2021-12-24 15:37:31.870806,-57
2021-12-24 15:37:31.870812,-75
2021-12-24 15:37:31.870818,-91
2021-12-24 15:37:31.870824,-80
2021-12-24 15:37:31.870831,-55
2021-12-24 15:37:31.870837,-52
2021-12-24 15:37:31.870843,-78
2021-12-24 15:37:31.870850,-96
2021-12-24 15:37:31.870856,-66
2021-12-24 15:37:31.870862,-27
2021-12-24 15:37:31.870868,-22
2021-12-24 15:37:31.870874,-34
2021-12-24 15:37:31.870881,-52
2021-12-24 15:37:31.870887,-75
2021-12-24 15:37:31.870893,-78
2021-12-24 15:37:31.870899,-75
2021-12-24 15:37:31.870905,-87
2021-12-24 15:37:31.870912,-108
2021-12-24 15:37:31.870918,-119
2021-12-24 15:37:31.870924,-110
2021-12-24 15:37:32.184454,-114
2021-12-24 15:37:32.184484,-156
2021-12-24 15:37:32.184495,-177
2021-12-24 15:37:32.184505,-165
2021-12-24 15:37:32.184515,-188
2021-12-24 15:37:32.184525,-204
2021-12-24 15:37:32.184534,-165
2021-12-24 15:37:32.184544,-131
2021-12-24 15:37:32.184554,-126
2021-12-24 15:37:32.184564,-135
2021-12-24 15:37:32.184574,-156
2021-12-24 15:37:32.184584,-158
2021-12-24 15:37:32.184594,-121
2021-12-24 15:37:32.184603,-91
2021-12-24 15:37:32.184613,-108
2021-12-24 15:37:32.184623,-144
2021-12-24 15:37:32.184633,-137
2021-12-24 15:37:32.184643,-98
2021-12-24 15:37:32.184652,-75
2021-12-24 15:37:32.184662,-68
2021-12-24 15:37:32.184672,-66
2021-12-24 15:37:32.184682,-80
2021-12-24 15:37:32.184691,-80
2021-12-24 15:37:32.184701,-45
2021-12-24 15:37:32.184711,-11
2021-12-24 15:37:32.184721,6
2021-12-24 15:37:32.184731,16
2021-12-24 15:37:32.184740,11
2021-12-24 15:37:32.184750,6
2021-12-24 15:37:32.184760,27
2021-12-24 15:37:32.366003,59
2021-12-24 15:37:32.366033,68
2021-12-24 15:37:32.366045,55
2021-12-24 15:37:32.366054,16
2021-12-24 15:37:32.366064,-9
2021-12-24 15:37:32.366074,11
2021-12-24 15:37:32.366084,41
2021-12-24 15:37:32.366093,52
2021-12-24 15:37:32.366108,57
2021-12-24 15:37:32.366118,34
2021-12-24 15:37:32.366128,16
2021-12-24 15:37:32.366138,43
2021-12-24 15:37:32.366147,75
2021-12-24 15:37:32.366157,87
2021-12-24 15:37:32.366167,89
2021-12-24 15:37:32.366176,66
2021-12-24 15:37:32.366186,29
2021-12-24 15:37:32.366196,22
2021-12-24 15:37:32.366206,41
2021-12-24 15:37:32.366215,59
2021-12-24 15:37:32.366225,62
2021-12-24 15:37:32.366235,43
2021-12-24 15:37:32.366244,43
2021-12-24 15:37:32.366254,80
2021-12-24 15:37:32.366264,96
2021-12-24 15:37:32.366274,105
2021-12-24 15:37:32.366283,163
2021-12-24 15:37:32.366293,229
2021-12-24 15:37:32.366303,218
2021-12-24 15:37:32.366313,57
2021-12-24 15:37:32.591058,-124
2021-12-24 15:37:32.591088,-75
2021-12-24 15:37:32.591100,71
2021-12-24 15:37:32.591110,78
2021-12-24 15:37:32.591119,52
2021-12-24 15:37:32.591129,73
2021-12-24 15:37:32.591139,48
2021-12-24 15:37:32.591148,-18
2021-12-24 15:37:32.591158,-62
2021-12-24 15:37:32.591168,-91
2021-12-24 15:37:32.591178,-114
2021-12-24 15:37:32.591187,-108
2021-12-24 15:37:32.591197,-112
2021-12-24 15:37:32.591207,-144
2021-12-24 15:37:32.591216,-165
2021-12-24 15:37:32.591226,-181
2021-12-24 15:37:32.591236,-179
2021-12-24 15:37:32.591245,-158
2021-12-24 15:37:32.591255,-167
2021-12-24 15:37:32.591265,-177
2021-12-24 15:37:32.591274,-156
2021-12-24 15:37:32.591284,-140
2021-12-24 15:37:32.591294,-124
2021-12-24 15:37:32.591304,-85
2021-12-24 15:37:32.591313,-45
2021-12-24 15:37:32.591323,-27
2021-12-24 15:37:32.591333,-20
2021-12-24 15:37:32.591343,-18
2021-12-24 15:37:32.591352,-4
2021-12-24 15:37:32.591362,29
2021-12-24 15:37:32.860769,62
2021-12-24 15:37:32.860791,64
2021-12-24 15:37:32.860799,43
2021-12-24 15:37:32.860805,18
2021-12-24 15:37:32.860811,-4
2021-12-24 15:37:32.860818,-13
2021-12-24 15:37:32.860824,-16
2021-12-24 15:37:32.860830,-39
2021-12-24 15:37:32.860837,-96
2021-12-24 15:37:32.860843,-126
2021-12-24 15:37:32.860849,-87
2021-12-24 15:37:32.860856,-50
2021-12-24 15:37:32.860862,-45
2021-12-24 15:37:32.860868,-52
2021-12-24 15:37:32.860875,-71
2021-12-24 15:37:32.860881,-85
2021-12-24 15:37:32.860887,-73
2021-12-24 15:37:32.860893,-45
2021-12-24 15:37:32.860900,-20
2021-12-24 15:37:32.860906,-9
2021-12-24 15:37:32.860912,-27
2021-12-24 15:37:32.860919,-48
2021-12-24 15:37:32.860925,-32
2021-12-24 15:37:32.860931,11
2021-12-24 15:37:32.860937,96
2021-12-24 15:37:32.860944,202
2021-12-24 15:37:32.860950,154
2021-12-24 15:37:32.860957,-128
2021-12-24 15:37:32.860963,-328
2021-12-24 15:37:32.860969,-188
2021-12-24 15:37:33.085504,4
2021-12-24 15:37:33.085525,36
2021-12-24 15:37:33.085532,52
2021-12-24 15:37:33.085539,80
2021-12-24 15:37:33.085545,82
2021-12-24 15:37:33.085551,101
2021-12-24 15:37:33.085558,105
2021-12-24 15:37:33.085564,62
2021-12-24 15:37:33.085570,41
2021-12-24 15:37:33.085577,64
2021-12-24 15:37:33.085583,68
2021-12-24 15:37:33.085589,66
2021-12-24 15:37:33.085595,57
2021-12-24 15:37:33.085602,22
2021-12-24 15:37:33.085608,13
2021-12-24 15:37:33.085614,29
2021-12-24 15:37:33.085620,41
2021-12-24 15:37:33.085627,66
2021-12-24 15:37:33.085633,73
2021-12-24 15:37:33.085639,41
2021-12-24 15:37:33.085645,45
2021-12-24 15:37:33.085652,78
2021-12-24 15:37:33.085658,62
2021-12-24 15:37:33.085664,34
2021-12-24 15:37:33.085670,52
2021-12-24 15:37:33.085677,75
2021-12-24 15:37:33.085683,78
2021-12-24 15:37:33.085689,85
2021-12-24 15:37:33.085696,94
2021-12-24 15:37:33.085702,80
2021-12-24 15:37:33.266025,39
2021-12-24 15:37:33.266047,-4
2021-12-24 15:37:33.266054,-27
2021-12-24 15:37:33.266060,-43
2021-12-24 15:37:33.266067,-64
2021-12-24 15:37:33.266073,-87
2021-12-24 15:37:33.266080,-119
2021-12-24 15:37:33.266086,-149
2021-12-24 15:37:33.266093,-151
2021-12-24 15:37:33.266099,-167
2021-12-24 15:37:33.266106,-197
2021-12-24 15:37:33.266113,-206
2021-12-24 15:37:33.266119,-225
2021-12-24 15:37:33.266126,-243
2021-12-24 15:37:33.266132,-232
2021-12-24 15:37:33.266139,-225
2021-12-24 15:37:33.266146,-227
2021-12-24 15:37:33.266152,-232
2021-12-24 15:37:33.266159,-257
2021-12-24 15:37:33.266166,-264
2021-12-24 15:37:33.266172,-236
2021-12-24 15:37:33.266179,-220
2021-12-24 15:37:33.266185,-204
2021-12-24 15:37:33.266192,-190
2021-12-24 15:37:33.266198,-216
2021-12-24 15:37:33.266205,-232
2021-12-24 15:37:33.266212,-206
2021-12-24 15:37:33.266219,-197
2021-12-24 15:37:33.266226,-195
2021-12-24 15:37:33.266233,-172
2021-12-24 15:37:33.536028,-165
2021-12-24 15:37:33.536058,-174
2021-12-24 15:37:33.536070,-167
2021-12-24 15:37:33.536080,-156
2021-12-24 15:37:33.536089,-137
2021-12-24 15:37:33.536099,-140
2021-12-24 15:37:33.536109,-160
2021-12-24 15:37:33.536119,-149
2021-12-24 15:37:33.536128,-112
2021-12-24 15:37:33.536138,-110
2021-12-24 15:37:33.536148,-117
2021-12-24 15:37:33.536158,-114
2021-12-24 15:37:33.536167,-114
2021-12-24 15:37:33.536177,-94
2021-12-24 15:37:33.536187,-78
2021-12-24 15:37:33.536197,-87
2021-12-24 15:37:33.536206,-78
2021-12-24 15:37:33.536216,-71
2021-12-24 15:37:33.536226,-114
2021-12-24 15:37:33.536235,-121
2021-12-24 15:37:33.536245,-75
2021-12-24 15:37:33.536255,-66
2021-12-24 15:37:33.536265,-71
2021-12-24 15:37:33.536279,-59
2021-12-24 15:37:33.536289,-55
2021-12-24 15:37:33.536299,-50
2021-12-24 15:37:33.536309,-57
2021-12-24 15:37:33.536319,-75
2021-12-24 15:37:33.536329,-62
2021-12-24 15:37:33.536339,-41
2021-12-24 15:37:33.716227,-36
2021-12-24 15:37:33.716257,-27
2021-12-24 15:37:33.716268,-9
2021-12-24 15:37:33.716278,-16
2021-12-24 15:37:33.716288,-43
2021-12-24 15:37:33.716298,-55
2021-12-24 15:37:33.716308,-39
2021-12-24 15:37:33.716317,-20
2021-12-24 15:37:33.716327,-6
2021-12-24 15:37:33.716337,9
2021-12-24 15:37:33.716347,4
2021-12-24 15:37:33.716356,-20
2021-12-24 15:37:33.716366,-18
2021-12-24 15:37:33.716376,18
2021-12-24 15:37:33.716386,45
2021-12-24 15:37:33.716446,45
2021-12-24 15:37:33.716457,22
2021-12-24 15:37:33.716467,-2
2021-12-24 15:37:33.716476,4
2021-12-24 15:37:33.716486,29
2021-12-24 15:37:33.716496,45
2021-12-24 15:37:33.716506,55
2021-12-24 15:37:33.716515,57
2021-12-24 15:37:33.716525,55
2021-12-24 15:37:33.716535,75
2021-12-24 15:37:33.716545,128
2021-12-24 15:37:33.716554,209
2021-12-24 15:37:33.716564,287
2021-12-24 15:37:33.716574,236
2021-12-24 15:37:33.716584,22
2021-12-24 15:37:33.941031,-112
2021-12-24 15:37:33.941060,0
2021-12-24 15:37:33.941072,114
2021-12-24 15:37:33.941082,89
2021-12-24 15:37:33.941091,55
2021-12-24 15:37:33.941101,52
2021-12-24 15:37:33.941111,50
2021-12-24 15:37:33.941120,48
2021-12-24 15:37:33.941130,52
2021-12-24 15:37:33.941139,34
2021-12-24 15:37:33.941149,-6
2021-12-24 15:37:33.941158,-32
2021-12-24 15:37:33.941168,-39
2021-12-24 15:37:33.941177,-39
2021-12-24 15:37:33.941187,-48
2021-12-24 15:37:33.941197,-89
2021-12-24 15:37:33.941207,-117
2021-12-24 15:37:33.941216,-96
2021-12-24 15:37:33.941226,-71
2021-12-24 15:37:33.941236,-55
2021-12-24 15:37:33.941245,-41
2021-12-24 15:37:33.941255,-57
2021-12-24 15:37:33.941264,-80
2021-12-24 15:37:33.941274,-89
2021-12-24 15:37:33.941284,-108
2021-12-24 15:37:33.941293,-96
2021-12-24 15:37:33.941303,-55
2021-12-24 15:37:33.941313,-52
2021-12-24 15:37:33.941322,-52
2021-12-24 15:37:33.941332,-13
2021-12-24 15:37:34.254729,-6
2021-12-24 15:37:34.254760,-39
2021-12-24 15:37:34.254771,-45
2021-12-24 15:37:34.254781,-73
2021-12-24 15:37:34.254791,-114
2021-12-24 15:37:34.254801,-105
2021-12-24 15:37:34.254810,-101
2021-12-24 15:37:34.254820,-119
2021-12-24 15:37:34.254830,-124
2021-12-24 15:37:34.254840,-147
2021-12-24 15:37:34.254849,-158
2021-12-24 15:37:34.254859,-108
2021-12-24 15:37:34.254869,-64
2021-12-24 15:37:34.254879,-59
2021-12-24 15:37:34.254888,-52
2021-12-24 15:37:34.254898,-59
2021-12-24 15:37:34.254908,-59
2021-12-24 15:37:34.254918,-13
2021-12-24 15:37:34.254927,20
2021-12-24 15:37:34.254937,13
2021-12-24 15:37:34.254947,18
2021-12-24 15:37:34.254956,36
2021-12-24 15:37:34.254966,48
2021-12-24 15:37:34.254976,52
2021-12-24 15:37:34.254986,68
2021-12-24 15:37:34.254995,96
2021-12-24 15:37:34.255005,85
2021-12-24 15:37:34.255015,50
2021-12-24 15:37:34.255024,64
2021-12-24 15:37:34.255034,98
2021-12-24 15:37:34.436263,108
2021-12-24 15:37:34.436284,110
2021-12-24 15:37:34.436291,94
2021-12-24 15:37:34.436298,64
2021-12-24 15:37:34.436304,62
2021-12-24 15:37:34.436311,80
2021-12-24 15:37:34.436317,87
2021-12-24 15:37:34.436323,87
2021-12-24 15:37:34.436330,64
2021-12-24 15:37:34.436336,18
2021-12-24 15:37:34.436342,16
2021-12-24 15:37:34.436349,50
2021-12-24 15:37:34.436355,66
2021-12-24 15:37:34.436361,78
2021-12-24 15:37:34.436367,59
2021-12-24 15:37:34.436374,0
2021-12-24 15:37:34.436380,-16
2021-12-24 15:37:34.436386,22
2021-12-24 15:37:34.436393,43
2021-12-24 15:37:34.436399,41
2021-12-24 15:37:34.436405,39
2021-12-24 15:37:34.436411,39
2021-12-24 15:37:34.436417,45
2021-12-24 15:37:34.436424,59
2021-12-24 15:37:34.436430,71
2021-12-24 15:37:34.436436,78
2021-12-24 15:37:34.436442,87
2021-12-24 15:37:34.436449,135
2021-12-24 15:37:34.436455,206
2021-12-24 15:37:34.436461,179
2021-12-24 15:37:34.661105,-39
2021-12-24 15:37:34.661135,-257
2021-12-24 15:37:34.661147,-227
2021-12-24 15:37:34.661157,-80
2021-12-24 15:37:34.661166,-57
2021-12-24 15:37:34.661176,-75
2021-12-24 15:37:34.661186,-45
2021-12-24 15:37:34.661195,-59
2021-12-24 15:37:34.661205,-121
2021-12-24 15:37:34.661215,-124
2021-12-24 15:37:34.661225,-85
2021-12-24 15:37:34.661234,-68
2021-12-24 15:37:34.661244,-57
2021-12-24 15:37:34.661254,-59
2021-12-24 15:37:34.661263,-89
2021-12-24 15:37:34.661273,-98
2021-12-24 15:37:34.661283,-71
2021-12-24 15:37:34.661293,-29
2021-12-24 15:37:34.661302,-6
2021-12-24 15:37:34.661312,-13
2021-12-24 15:37:34.661322,-29
2021-12-24 15:37:34.661331,-27
2021-12-24 15:37:34.661341,-11
2021-12-24 15:37:34.661351,13
2021-12-24 15:37:34.661360,39
2021-12-24 15:37:34.661370,43
2021-12-24 15:37:34.661380,20
2021-12-24 15:37:34.661389,16
2021-12-24 15:37:34.661400,20
2021-12-24 15:37:34.661409,4
2021-12-24 15:37:34.885537,0
2021-12-24 15:37:34.885557,-6
2021-12-24 15:37:34.885564,-29
2021-12-24 15:37:34.885571,-48
2021-12-24 15:37:34.885578,-59
2021-12-24 15:37:34.885584,-80
2021-12-24 15:37:34.885591,-140
2021-12-24 15:37:34.885597,-216
2021-12-24 15:37:34.885604,-236
2021-12-24 15:37:34.885610,-229
2021-12-24 15:37:34.885616,-243
2021-12-24 15:37:34.885623,-236
2021-12-24 15:37:34.885629,-220
2021-12-24 15:37:34.885636,-239
2021-12-24 15:37:34.885643,-250
2021-12-24 15:37:34.885649,-229
2021-12-24 15:37:34.885656,-206
2021-12-24 15:37:34.885662,-183
2021-12-24 15:37:34.885669,-163
2021-12-24 15:37:34.885675,-163
2021-12-24 15:37:34.885681,-154
2021-12-24 15:37:34.885688,-133
2021-12-24 15:37:34.885694,-121
2021-12-24 15:37:34.885701,-103
2021-12-24 15:37:34.885707,-78
2021-12-24 15:37:34.885713,-71
2021-12-24 15:37:34.885720,-66
2021-12-24 15:37:34.885726,-50
2021-12-24 15:37:34.885733,-27
2021-12-24 15:37:34.885744,-11
2021-12-24 15:37:35.111225,-16
2021-12-24 15:37:35.111255,-16
2021-12-24 15:37:35.111266,2
2021-12-24 15:37:35.111277,6
2021-12-24 15:37:35.111286,-22
2021-12-24 15:37:35.111296,-73
2021-12-24 15:37:35.111306,-126
2021-12-24 15:37:35.111315,-144
2021-12-24 15:37:35.111325,-142
2021-12-24 15:37:35.111335,-151
2021-12-24 15:37:35.111344,-140
2021-12-24 15:37:35.111354,-119
2021-12-24 15:37:35.111364,-133
2021-12-24 15:37:35.111373,-144
2021-12-24 15:37:35.111383,-121
2021-12-24 15:37:35.111393,-101
2021-12-24 15:37:35.111402,-94
2021-12-24 15:37:35.111412,-96
2021-12-24 15:37:35.111422,-121
2021-12-24 15:37:35.111432,-133
2021-12-24 15:37:35.111441,-117
2021-12-24 15:37:35.111451,-108
2021-12-24 15:37:35.111461,-114
2021-12-24 15:37:35.111470,-135
2021-12-24 15:37:35.111480,-142
2021-12-24 15:37:35.111490,-142
2021-12-24 15:37:35.111499,-142
2021-12-24 15:37:35.111509,-128
2021-12-24 15:37:35.111519,-112
2021-12-24 15:37:35.111528,-103
2021-12-24 15:37:35.336063,-103
2021-12-24 15:37:35.336093,-98
2021-12-24 15:37:35.336105,-89
2021-12-24 15:37:35.336115,-85
2021-12-24 15:37:35.336125,-80
2021-12-24 15:37:35.336134,-89
2021-12-24 15:37:35.336144,-119
2021-12-24 15:37:35.336154,-110
2021-12-24 15:37:35.336164,-75
2021-12-24 15:37:35.336173,-62
2021-12-24 15:37:35.336183,-27
2021-12-24 15:37:35.336193,29
2021-12-24 15:37:35.336203,13
2021-12-24 15:37:35.336213,-140
2021-12-24 15:37:35.336223,-319
2021-12-24 15:37:35.336233,-291
2021-12-24 15:37:35.336242,-133
2021-12-24 15:37:35.336252,-87
2021-12-24 15:37:35.336262,-82
2021-12-24 15:37:35.336271,-32
2021-12-24 15:37:35.336281,-9
2021-12-24 15:37:35.336291,-13
2021-12-24 15:37:35.336301,-2
2021-12-24 15:37:35.336310,11
2021-12-24 15:37:35.336320,25
2021-12-24 15:37:35.336330,43
2021-12-24 15:37:35.336339,45
2021-12-24 15:37:35.336349,45
2021-12-24 15:37:35.336359,52
2021-12-24 15:37:35.336368,55
2021-12-24 15:37:35.561073,66
2021-12-24 15:37:35.561104,94
2021-12-24 15:37:35.561115,112
2021-12-24 15:37:35.561125,110
2021-12-24 15:37:35.561135,96
2021-12-24 15:37:35.561145,75
2021-12-24 15:37:35.561155,85
2021-12-24 15:37:35.561165,124
2021-12-24 15:37:35.561175,147
2021-12-24 15:37:35.561184,144
2021-12-24 15:37:35.561194,94
2021-12-24 15:37:35.561204,36
2021-12-24 15:37:35.561214,41
2021-12-24 15:37:35.561223,52
2021-12-24 15:37:35.561233,50
2021-12-24 15:37:35.561245,73
2021-12-24 15:37:35.561254,80
2021-12-24 15:37:35.561264,59
2021-12-24 15:37:35.561274,55
2021-12-24 15:37:35.561283,59
2021-12-24 15:37:35.561293,48
2021-12-24 15:37:35.561303,27
2021-12-24 15:37:35.561312,6
2021-12-24 15:37:35.561322,11
2021-12-24 15:37:35.561332,41
2021-12-24 15:37:35.561342,59
2021-12-24 15:37:35.561351,59
2021-12-24 15:37:35.561361,57
2021-12-24 15:37:35.561370,62
2021-12-24 15:37:35.561380,66
2021-12-24 15:37:35.786285,71
2021-12-24 15:37:35.786315,91
2021-12-24 15:37:35.786326,112
2021-12-24 15:37:35.786336,98
2021-12-24 15:37:35.786346,62
2021-12-24 15:37:35.786356,55
2021-12-24 15:37:35.786365,91
2021-12-24 15:37:35.786375,119
2021-12-24 15:37:35.786384,128
2021-12-24 15:37:35.786394,108
2021-12-24 15:37:35.786403,66
2021-12-24 15:37:35.786413,64
2021-12-24 15:37:35.786422,103
2021-12-24 15:37:35.786432,119
2021-12-24 15:37:35.786442,89
2021-12-24 15:37:35.786451,48
2021-12-24 15:37:35.786461,50
2021-12-24 15:37:35.786470,87
2021-12-24 15:37:35.786480,96
2021-12-24 15:37:35.786489,87
2021-12-24 15:37:35.786499,105
2021-12-24 15:37:35.786509,114
2021-12-24 15:37:35.786518,98
2021-12-24 15:37:35.786528,105
2021-12-24 15:37:35.786537,140
2021-12-24 15:37:35.786547,167
2021-12-24 15:37:35.786557,179
2021-12-24 15:37:35.786567,172
2021-12-24 15:37:35.786576,158
2021-12-24 15:37:35.786586,160
2021-12-24 15:37:36.056063,181
2021-12-24 15:37:36.056094,204
2021-12-24 15:37:36.056105,193
2021-12-24 15:37:36.056116,144
2021-12-24 15:37:36.056126,121
2021-12-24 15:37:36.056135,149
2021-12-24 15:37:36.056145,165
2021-12-24 15:37:36.056155,163
2021-12-24 15:37:36.056165,174
2021-12-24 15:37:36.056174,147
2021-12-24 15:37:36.056184,101
2021-12-24 15:37:36.056194,98
2021-12-24 15:37:36.056203,98
2021-12-24 15:37:36.056213,96
2021-12-24 15:37:36.056223,108
2021-12-24 15:37:36.056233,78
2021-12-24 15:37:36.056242,-6
2021-12-24 15:37:36.056252,-59
2021-12-24 15:37:36.056262,-52
2021-12-24 15:37:36.056272,-52
2021-12-24 15:37:36.056281,-73
2021-12-24 15:37:36.056291,-73
2021-12-24 15:37:36.056301,-2
2021-12-24 15:37:36.056311,105
2021-12-24 15:37:36.056320,98
2021-12-24 15:37:36.056330,-128
2021-12-24 15:37:36.056340,-354
2021-12-24 15:37:36.056350,-273
2021-12-24 15:37:36.056360,-85
2021-12-24 15:37:36.056370,-59
2021-12-24 15:37:36.325371,-55
2021-12-24 15:37:36.325402,2
2021-12-24 15:37:36.325413,4
2021-12-24 15:37:36.325423,-32
2021-12-24 15:37:36.325433,-20
2021-12-24 15:37:36.325443,16
2021-12-24 15:37:36.325453,25
2021-12-24 15:37:36.325463,25
2021-12-24 15:37:36.325472,4
2021-12-24 15:37:36.325482,-36
2021-12-24 15:37:36.325492,-36
2021-12-24 15:37:36.325502,-13
2021-12-24 15:37:36.325512,2
2021-12-24 15:37:36.325521,18
2021-12-24 15:37:36.325531,6
2021-12-24 15:37:36.325541,-20
2021-12-24 15:37:36.325551,0
2021-12-24 15:37:36.325561,25
2021-12-24 15:37:36.325571,11
2021-12-24 15:37:36.325580,-13
2021-12-24 15:37:36.325590,-18
2021-12-24 15:37:36.325600,-9
2021-12-24 15:37:36.325610,6
2021-12-24 15:37:36.325620,29
2021-12-24 15:37:36.325629,55
2021-12-24 15:37:36.325639,75
2021-12-24 15:37:36.325649,73
2021-12-24 15:37:36.325658,62
2021-12-24 15:37:36.325668,62
2021-12-24 15:37:36.325678,57
2021-12-24 15:37:36.505762,36
2021-12-24 15:37:36.505784,6
2021-12-24 15:37:36.505792,-29
2021-12-24 15:37:36.505798,-62
2021-12-24 15:37:36.505805,-68
2021-12-24 15:37:36.505811,-45
2021-12-24 15:37:36.505817,-22
2021-12-24 15:37:36.505823,-34
2021-12-24 15:37:36.505830,-71
2021-12-24 15:37:36.505836,-75
2021-12-24 15:37:36.505842,-34
2021-12-24 15:37:36.505848,-9
2021-12-24 15:37:36.505855,-18
2021-12-24 15:37:36.505861,-36
2021-12-24 15:37:36.505867,-55
2021-12-24 15:37:36.505873,-62
2021-12-24 15:37:36.505880,-43
2021-12-24 15:37:36.505886,-18
2021-12-24 15:37:36.505892,-9
2021-12-24 15:37:36.505899,-27
2021-12-24 15:37:36.505905,-68
2021-12-24 15:37:36.505911,-121
2021-12-24 15:37:36.505918,-149
2021-12-24 15:37:36.505924,-131
2021-12-24 15:37:36.505930,-98
2021-12-24 15:37:36.505936,-89
2021-12-24 15:37:36.505942,-87
2021-12-24 15:37:36.505949,-73
2021-12-24 15:37:36.505960,-55
2021-12-24 15:37:36.505966,-32
2021-12-24 15:37:36.731311,-16
2021-12-24 15:37:36.731343,-16
2021-12-24 15:37:36.731354,-20
2021-12-24 15:37:36.731364,-20
2021-12-24 15:37:36.731374,-9
2021-12-24 15:37:36.731384,13
2021-12-24 15:37:36.731394,9
2021-12-24 15:37:36.731404,-18
2021-12-24 15:37:36.731414,-22
2021-12-24 15:37:36.731424,0
2021-12-24 15:37:36.731433,20
2021-12-24 15:37:36.731443,34
2021-12-24 15:37:36.731453,22
2021-12-24 15:37:36.731463,-4
2021-12-24 15:37:36.731473,-13
2021-12-24 15:37:36.731482,-2
2021-12-24 15:37:36.731492,13
2021-12-24 15:37:36.731502,27
2021-12-24 15:37:36.731512,25
2021-12-24 15:37:36.731522,18
2021-12-24 15:37:36.731531,39
2021-12-24 15:37:36.731541,59
2021-12-24 15:37:36.731551,41
2021-12-24 15:37:36.731561,-4
2021-12-24 15:37:36.731570,-39
2021-12-24 15:37:36.731580,-39
2021-12-24 15:37:36.731590,-27
2021-12-24 15:37:36.731600,-29
2021-12-24 15:37:36.731610,-45
2021-12-24 15:37:36.731619,-59
2021-12-24 15:37:36.956151,-68
2021-12-24 15:37:36.956181,-82
2021-12-24 15:37:36.956193,-110
2021-12-24 15:37:36.956204,-128
2021-12-24 15:37:36.956215,-112
2021-12-24 15:37:36.956224,-50
2021-12-24 15:37:36.956234,20
2021-12-24 15:37:36.956244,25
2021-12-24 15:37:36.956254,-119
2021-12-24 15:37:36.956263,-333
2021-12-24 15:37:36.956273,-333
2021-12-24 15:37:36.956283,-172
2021-12-24 15:37:36.956293,-147
2021-12-24 15:37:36.956302,-167
2021-12-24 15:37:36.956312,-105
2021-12-24 15:37:36.956322,-75
2021-12-24 15:37:36.956332,-85
2021-12-24 15:37:36.956341,-64
2021-12-24 15:37:36.956351,-45
2021-12-24 15:37:36.956361,-43
2021-12-24 15:37:36.956370,-27
2021-12-24 15:37:36.956380,-4
2021-12-24 15:37:36.956390,11
2021-12-24 15:37:36.956400,29
2021-12-24 15:37:36.956409,34
2021-12-24 15:37:36.956419,13
2021-12-24 15:37:36.956429,-22
2021-12-24 15:37:36.956438,-52
2021-12-24 15:37:36.956448,-39
2021-12-24 15:37:36.956458,0
2021-12-24 15:37:37.181152,13
2021-12-24 15:37:37.181172,32
2021-12-24 15:37:37.181180,68
2021-12-24 15:37:37.181186,94
2021-12-24 15:37:37.181193,112
2021-12-24 15:37:37.181199,98
2021-12-24 15:37:37.181205,68
2021-12-24 15:37:37.181212,96
2021-12-24 15:37:37.181218,142
2021-12-24 15:37:37.181225,142
2021-12-24 15:37:37.181231,144
2021-12-24 15:37:37.181237,133
2021-12-24 15:37:37.181244,96
2021-12-24 15:37:37.181250,91
2021-12-24 15:37:37.181257,105
2021-12-24 15:37:37.181263,94
2021-12-24 15:37:37.181269,85
2021-12-24 15:37:37.181276,80
2021-12-24 15:37:37.181282,73
2021-12-24 15:37:37.181288,89
2021-12-24 15:37:37.181295,101
2021-12-24 15:37:37.181301,94
2021-12-24 15:37:37.181308,94
2021-12-24 15:37:37.181314,98
2021-12-24 15:37:37.181320,112
2021-12-24 15:37:37.181327,135
2021-12-24 15:37:37.181333,131
2021-12-24 15:37:37.181339,94
2021-12-24 15:37:37.181346,82
2021-12-24 15:37:37.181352,98
2021-12-24 15:37:37.405774,117
2021-12-24 15:37:37.405797,135
2021-12-24 15:37:37.405804,140
2021-12-24 15:37:37.405811,128
2021-12-24 15:37:37.405817,117
2021-12-24 15:37:37.405823,91
2021-12-24 15:37:37.405830,80
2021-12-24 15:37:37.405836,105
2021-12-24 15:37:37.405843,126
2021-12-24 15:37:37.405849,114
2021-12-24 15:37:37.405855,85
2021-12-24 15:37:37.405862,57
2021-12-24 15:37:37.405868,59
2021-12-24 15:37:37.405874,82
2021-12-24 15:37:37.405881,87
2021-12-24 15:37:37.405887,73
2021-12-24 15:37:37.405894,71
2021-12-24 15:37:37.405900,75
2021-12-24 15:37:37.405906,87
2021-12-24 15:37:37.405913,103
2021-12-24 15:37:37.405919,108
2021-12-24 15:37:37.405926,98
2021-12-24 15:37:37.405932,85
2021-12-24 15:37:37.405938,85
2021-12-24 15:37:37.405945,98
2021-12-24 15:37:37.405951,112
2021-12-24 15:37:37.405957,126
2021-12-24 15:37:37.405964,135
2021-12-24 15:37:37.405970,135
2021-12-24 15:37:37.405976,119
2021-12-24 15:37:37.631276,108
2021-12-24 15:37:37.631298,96
2021-12-24 15:37:37.631306,41
2021-12-24 15:37:37.631312,-39
2021-12-24 15:37:37.631319,-85
2021-12-24 15:37:37.631325,-78
2021-12-24 15:37:37.631331,-57
2021-12-24 15:37:37.631337,-41
2021-12-24 15:37:37.631343,-45
2021-12-24 15:37:37.631350,-87
2021-12-24 15:37:37.631356,-135
2021-12-24 15:37:37.631362,-110
2021-12-24 15:37:37.631368,-25
2021-12-24 15:37:37.631375,20
2021-12-24 15:37:37.631381,-85
2021-12-24 15:37:37.631387,-347
2021-12-24 15:37:37.631394,-448
2021-12-24 15:37:37.631400,-259
2021-12-24 15:37:37.631406,-126
2021-12-24 15:37:37.631412,-135
2021-12-24 15:37:37.631418,-105
2021-12-24 15:37:37.631425,-96
2021-12-24 15:37:37.631431,-128
2021-12-24 15:37:37.631437,-98
2021-12-24 15:37:37.631443,-59
2021-12-24 15:37:37.631449,-57
2021-12-24 15:37:37.631456,-57
2021-12-24 15:37:37.631462,-66
2021-12-24 15:37:37.631468,-78
2021-12-24 15:37:37.631474,-55
2021-12-24 15:37:37.900921,-45
2021-12-24 15:37:37.900942,-71
2021-12-24 15:37:37.900950,-89
2021-12-24 15:37:37.900956,-108
2021-12-24 15:37:37.900963,-119
2021-12-24 15:37:37.900969,-89
2021-12-24 15:37:37.900976,-57
2021-12-24 15:37:37.900982,-43
2021-12-24 15:37:37.900988,-39
2021-12-24 15:37:37.900995,-66
2021-12-24 15:37:37.901001,-66
2021-12-24 15:37:37.901007,-13
2021-12-24 15:37:37.901014,25
2021-12-24 15:37:37.901021,36
2021-12-24 15:37:37.901027,43
2021-12-24 15:37:37.901033,45
2021-12-24 15:37:37.901040,55
2021-12-24 15:37:37.901046,64
2021-12-24 15:37:37.901052,41
2021-12-24 15:37:37.901058,27
2021-12-24 15:37:37.901065,13
2021-12-24 15:37:37.901071,-34
2021-12-24 15:37:37.901077,-55
2021-12-24 15:37:37.901083,-32
2021-12-24 15:37:37.901090,-22
2021-12-24 15:37:37.901096,-18
2021-12-24 15:37:37.901103,-16
2021-12-24 15:37:37.901109,-39
2021-12-24 15:37:37.901115,-50
2021-12-24 15:37:37.901122,-20
2021-12-24 15:37:38.170442,11
2021-12-24 15:37:38.170460,4
2021-12-24 15:37:38.170468,-50
2021-12-24 15:37:38.170474,-98
2021-12-24 15:37:38.170481,-85
2021-12-24 15:37:38.170487,-55
2021-12-24 15:37:38.170493,-68
2021-12-24 15:37:38.170500,-142
2021-12-24 15:37:38.170506,-245
2021-12-24 15:37:38.170512,-298
2021-12-24 15:37:38.170519,-294
2021-12-24 15:37:38.170525,-285
2021-12-24 15:37:38.170531,-285
2021-12-24 15:37:38.170538,-291
2021-12-24 15:37:38.170544,-314
2021-12-24 15:37:38.170550,-335
2021-12-24 15:37:38.170557,-317
2021-12-24 15:37:38.170563,-282
2021-12-24 15:37:38.170569,-264
2021-12-24 15:37:38.170576,-252
2021-12-24 15:37:38.170582,-259
2021-12-24 15:37:38.170588,-275
2021-12-24 15:37:38.170595,-257
2021-12-24 15:37:38.170601,-220
2021-12-24 15:37:38.170607,-202
2021-12-24 15:37:38.170614,-195
2021-12-24 15:37:38.170620,-193
2021-12-24 15:37:38.170627,-183
2021-12-24 15:37:38.170633,-165
2021-12-24 15:37:38.170639,-158
2021-12-24 15:37:38.529869,-160
2021-12-24 15:37:38.529889,-154
2021-12-24 15:37:38.529896,-147
2021-12-24 15:37:38.529907,-147
2021-12-24 15:37:38.529914,-154
2021-12-24 15:37:38.529936,-165
2021-12-24 15:37:38.529942,-160
2021-12-24 15:37:38.529947,-142
2021-12-24 15:37:38.529952,-140
2021-12-24 15:37:38.529957,-147
2021-12-24 15:37:38.529962,-147
2021-12-24 15:37:38.529967,-128
2021-12-24 15:37:38.529972,-110
2021-12-24 15:37:38.529977,-131
2021-12-24 15:37:38.529983,-177
2021-12-24 15:37:38.529988,-170
2021-12-24 15:37:38.529993,-124
2021-12-24 15:37:38.529998,-101
2021-12-24 15:37:38.530003,-103
2021-12-24 15:37:38.530008,-131
2021-12-24 15:37:38.530013,-165
2021-12-24 15:37:38.530019,-167
2021-12-24 15:37:38.530024,-149
2021-12-24 15:37:38.530032,-128
2021-12-24 15:37:38.530037,-108
2021-12-24 15:37:38.530042,-101
2021-12-24 15:37:38.530047,-105
2021-12-24 15:37:38.530052,-101
2021-12-24 15:37:38.530057,-73
2021-12-24 15:37:38.530063,-11
2021-12-24 15:37:38.621159,80
2021-12-24 15:37:38.621189,142
2021-12-24 15:37:38.621201,43
2021-12-24 15:37:38.621211,-213
2021-12-24 15:37:38.621221,-310
2021-12-24 15:37:38.621231,-133
2021-12-24 15:37:38.621241,-25
2021-12-24 15:37:38.621250,-71
2021-12-24 15:37:38.621260,-62
2021-12-24 15:37:38.621270,-29
2021-12-24 15:37:38.621280,-41
2021-12-24 15:37:38.621290,-36
2021-12-24 15:37:38.621299,-34
2021-12-24 15:37:38.621309,-75
2021-12-24 15:37:38.621319,-87
2021-12-24 15:37:38.621329,-57
2021-12-24 15:37:38.621338,-50
2021-12-24 15:37:38.621348,-39
2021-12-24 15:37:38.621358,-39
2021-12-24 15:37:38.621368,-73
2021-12-24 15:37:38.621378,-78
2021-12-24 15:37:38.621388,-52
2021-12-24 15:37:38.621397,-36
2021-12-24 15:37:38.621407,-13
2021-12-24 15:37:38.621417,9
2021-12-24 15:37:38.621427,16
2021-12-24 15:37:38.621437,25
2021-12-24 15:37:38.621447,43
2021-12-24 15:37:38.621456,66
2021-12-24 15:37:38.621466,78
2021-12-24 15:37:38.891171,55
2021-12-24 15:37:38.891200,41
2021-12-24 15:37:38.891212,68
2021-12-24 15:37:38.891222,82
2021-12-24 15:37:38.891232,85
2021-12-24 15:37:38.891242,89
2021-12-24 15:37:38.891251,48
2021-12-24 15:37:38.891261,-6
2021-12-24 15:37:38.891271,-39
2021-12-24 15:37:38.891281,-87
2021-12-24 15:37:38.891291,-108
2021-12-24 15:37:38.891300,-91
2021-12-24 15:37:38.891310,-117
2021-12-24 15:37:38.891320,-156
2021-12-24 15:37:38.891330,-140
2021-12-24 15:37:38.891340,-117
2021-12-24 15:37:38.891350,-117
2021-12-24 15:37:38.891360,-117
2021-12-24 15:37:38.891370,-126
2021-12-24 15:37:38.891380,-114
2021-12-24 15:37:38.891389,-82
2021-12-24 15:37:38.891399,-75
2021-12-24 15:37:38.891409,-87
2021-12-24 15:37:38.891419,-80
2021-12-24 15:37:38.891428,-59
2021-12-24 15:37:38.891438,-39
2021-12-24 15:37:38.891448,-13
2021-12-24 15:37:38.891458,25
2021-12-24 15:37:38.891468,126
2021-12-24 15:37:38.891477,216
2021-12-24 15:37:39.070620,105
2021-12-24 15:37:39.070650,-165
2021-12-24 15:37:39.070662,-289
2021-12-24 15:37:39.070672,-177
2021-12-24 15:37:39.070682,-75
2021-12-24 15:37:39.070692,-71
2021-12-24 15:37:39.070702,-52
2021-12-24 15:37:39.070711,-20
2021-12-24 15:37:39.070721,-20
2021-12-24 15:37:39.070731,-41
2021-12-24 15:37:39.070741,-59
2021-12-24 15:37:39.070751,-94
2021-12-24 15:37:39.070760,-124
2021-12-24 15:37:39.070770,-98
2021-12-24 15:37:39.070780,-75
2021-12-24 15:37:39.070790,-85
2021-12-24 15:37:39.070799,-82
2021-12-24 15:37:39.070809,-87
2021-12-24 15:37:39.070819,-131
2021-12-24 15:37:39.070829,-135
2021-12-24 15:37:39.070838,-105
2021-12-24 15:37:39.070848,-103
2021-12-24 15:37:39.070858,-112
2021-12-24 15:37:39.070868,-121
2021-12-24 15:37:39.070877,-114
2021-12-24 15:37:39.070887,-75
2021-12-24 15:37:39.070897,-43
2021-12-24 15:37:39.070907,-32
2021-12-24 15:37:39.070916,-13
2021-12-24 15:37:39.070926,0
2021-12-24 15:37:39.251318,11
2021-12-24 15:37:39.251348,22
2021-12-24 15:37:39.251360,27
2021-12-24 15:37:39.251370,11
2021-12-24 15:37:39.251379,-29
2021-12-24 15:37:39.251389,-75
2021-12-24 15:37:39.251398,-87
2021-12-24 15:37:39.251408,-68
2021-12-24 15:37:39.251417,-68
2021-12-24 15:37:39.251427,-91
2021-12-24 15:37:39.251437,-112
2021-12-24 15:37:39.251446,-124
2021-12-24 15:37:39.251456,-124
2021-12-24 15:37:39.251465,-131
2021-12-24 15:37:39.251475,-137
2021-12-24 15:37:39.251484,-126
2021-12-24 15:37:39.251494,-121
2021-12-24 15:37:39.251504,-117
2021-12-24 15:37:39.251513,-96
2021-12-24 15:37:39.251523,-75
2021-12-24 15:37:39.251533,-66
2021-12-24 15:37:39.251542,-62
2021-12-24 15:37:39.251552,-59
2021-12-24 15:37:39.251561,-50
2021-12-24 15:37:39.251571,-25
2021-12-24 15:37:39.251581,0
2021-12-24 15:37:39.251590,18
2021-12-24 15:37:39.251600,22
2021-12-24 15:37:39.251610,9
2021-12-24 15:37:39.251620,4
2021-12-24 15:37:39.476120,29
2021-12-24 15:37:39.476149,41
2021-12-24 15:37:39.476161,4
2021-12-24 15:37:39.476171,-59
2021-12-24 15:37:39.476181,-101
2021-12-24 15:37:39.476190,-85
2021-12-24 15:37:39.476200,-45
2021-12-24 15:37:39.476210,-18
2021-12-24 15:37:39.476219,-4
2021-12-24 15:37:39.476229,-25
2021-12-24 15:37:39.476239,-57
2021-12-24 15:37:39.476248,-39
2021-12-24 15:37:39.476258,0
2021-12-24 15:37:39.476268,13
2021-12-24 15:37:39.476278,16
2021-12-24 15:37:39.476287,-13
2021-12-24 15:37:39.476297,-32
2021-12-24 15:37:39.476307,0
2021-12-24 15:37:39.476316,41
2021-12-24 15:37:39.476326,55
2021-12-24 15:37:39.476336,50
2021-12-24 15:37:39.476345,36
2021-12-24 15:37:39.476355,34
2021-12-24 15:37:39.476364,18
2021-12-24 15:37:39.476374,-9
2021-12-24 15:37:39.476384,4
2021-12-24 15:37:39.476393,29
2021-12-24 15:37:39.476403,22
2021-12-24 15:37:39.476413,29
2021-12-24 15:37:39.476422,66
2021-12-24 15:37:39.790667,91
2021-12-24 15:37:39.790697,108
2021-12-24 15:37:39.790708,117
2021-12-24 15:37:39.790718,82
2021-12-24 15:37:39.790728,50
2021-12-24 15:37:39.790737,62
2021-12-24 15:37:39.790747,73
2021-12-24 15:37:39.790757,85
2021-12-24 15:37:39.790767,89
2021-12-24 15:37:39.790776,45
2021-12-24 15:37:39.790786,6
2021-12-24 15:37:39.790796,20
2021-12-24 15:37:39.790806,36
2021-12-24 15:37:39.790816,20
2021-12-24 15:37:39.790825,2
2021-12-24 15:37:39.790835,-4
2021-12-24 15:37:39.790845,-2
2021-12-24 15:37:39.790855,-9
2021-12-24 15:37:39.790865,-16
2021-12-24 15:37:39.790875,-6
2021-12-24 15:37:39.790884,-2
2021-12-24 15:37:39.790894,-16
2021-12-24 15:37:39.790904,-6
2021-12-24 15:37:39.790914,27
2021-12-24 15:37:39.790924,50
2021-12-24 15:37:39.790933,62
2021-12-24 15:37:39.790943,59
2021-12-24 15:37:39.790953,52
2021-12-24 15:37:39.790962,108
2021-12-24 15:37:39.790972,220
2021-12-24 15:37:39.970573,275
2021-12-24 15:37:39.970593,151
2021-12-24 15:37:39.970601,-85
2021-12-24 15:37:39.970608,-137
2021-12-24 15:37:39.970614,25
2021-12-24 15:37:39.970621,117
2021-12-24 15:37:39.970627,114
2021-12-24 15:37:39.970633,147
2021-12-24 15:37:39.970639,154
2021-12-24 15:37:39.970646,119
2021-12-24 15:37:39.970652,131
2021-12-24 15:37:39.970658,167
2021-12-24 15:37:39.970664,172
2021-12-24 15:37:39.970671,167
2021-12-24 15:37:39.970677,144
2021-12-24 15:37:39.970683,112
2021-12-24 15:37:39.970690,124
2021-12-24 15:37:39.970696,151
2021-12-24 15:37:39.970702,147
2021-12-24 15:37:39.970709,117
2021-12-24 15:37:39.970715,94
2021-12-24 15:37:39.970721,94
2021-12-24 15:37:39.970727,117
2021-12-24 15:37:39.970734,140
2021-12-24 15:37:39.970740,158
2021-12-24 15:37:39.970746,172
2021-12-24 15:37:39.970752,172
2021-12-24 15:37:39.970759,172
2021-12-24 15:37:39.970765,154
2021-12-24 15:37:39.970771,126
2021-12-24 15:37:40.196316,140
2021-12-24 15:37:40.196347,172
2021-12-24 15:37:40.196358,163
2021-12-24 15:37:40.196368,154
2021-12-24 15:37:40.196378,177
2021-12-24 15:37:40.196388,195
2021-12-24 15:37:40.196398,197
2021-12-24 15:37:40.196408,163
2021-12-24 15:37:40.196418,105
2021-12-24 15:37:40.196428,85
2021-12-24 15:37:40.196437,94
2021-12-24 15:37:40.196447,98
2021-12-24 15:37:40.196457,94
2021-12-24 15:37:40.196467,68
2021-12-24 15:37:40.196477,41
2021-12-24 15:37:40.196486,50
2021-12-24 15:37:40.196496,75
2021-12-24 15:37:40.196506,91
2021-12-24 15:37:40.196516,103
2021-12-24 15:37:40.196525,105
2021-12-24 15:37:40.196535,91
2021-12-24 15:37:40.196545,68
2021-12-24 15:37:40.196554,66
2021-12-24 15:37:40.196564,91
2021-12-24 15:37:40.196574,105
2021-12-24 15:37:40.196584,98
2021-12-24 15:37:40.196594,103
2021-12-24 15:37:40.196603,112
2021-12-24 15:37:40.196613,121
2021-12-24 15:37:40.196623,135
2021-12-24 15:37:40.464937,137
2021-12-24 15:37:40.464968,126
2021-12-24 15:37:40.464980,126
2021-12-24 15:37:40.464990,131
2021-12-24 15:37:40.465000,133
2021-12-24 15:37:40.465009,142
2021-12-24 15:37:40.465019,133
2021-12-24 15:37:40.465029,98
2021-12-24 15:37:40.465038,87
2021-12-24 15:37:40.465048,101
2021-12-24 15:37:40.465058,112
2021-12-24 15:37:40.465068,117
2021-12-24 15:37:40.465077,98
2021-12-24 15:37:40.465087,62
2021-12-24 15:37:40.465097,57
2021-12-24 15:37:40.465106,68
2021-12-24 15:37:40.465116,73
2021-12-24 15:37:40.465132,82
2021-12-24 15:37:40.465142,68
2021-12-24 15:37:40.465151,41
2021-12-24 15:37:40.465161,36
2021-12-24 15:37:40.465171,34
2021-12-24 15:37:40.465181,16
2021-12-24 15:37:40.465191,-27
2021-12-24 15:37:40.465200,-68
2021-12-24 15:37:40.465210,-82
2021-12-24 15:37:40.465220,-94
2021-12-24 15:37:40.465230,-112
2021-12-24 15:37:40.465240,-103
2021-12-24 15:37:40.465249,-85
2021-12-24 15:37:40.646146,-73
2021-12-24 15:37:40.646176,-6
2021-12-24 15:37:40.646187,85
2021-12-24 15:37:40.646198,59
2021-12-24 15:37:40.646208,-179
2021-12-24 15:37:40.646218,-457
2021-12-24 15:37:40.646227,-446
2021-12-24 15:37:40.646237,-257
2021-12-24 15:37:40.646247,-209
2021-12-24 15:37:40.646257,-218
2021-12-24 15:37:40.646266,-167
2021-12-24 15:37:40.646276,-158
2021-12-24 15:37:40.646286,-209
2021-12-24 15:37:40.646296,-206
2021-12-24 15:37:40.646306,-170
2021-12-24 15:37:40.646315,-167
2021-12-24 15:37:40.646325,-165
2021-12-24 15:37:40.646335,-147
2021-12-24 15:37:40.646345,-142
2021-12-24 15:37:40.646354,-128
2021-12-24 15:37:40.646364,-94
2021-12-24 15:37:40.646374,-73
2021-12-24 15:37:40.646384,-62
2021-12-24 15:37:40.646393,-52
2021-12-24 15:37:40.646403,-55
2021-12-24 15:37:40.646413,-62
2021-12-24 15:37:40.646423,-55
2021-12-24 15:37:40.646432,-32
2021-12-24 15:37:40.646442,-11
2021-12-24 15:37:40.646452,2
2021-12-24 15:37:40.916208,18
2021-12-24 15:37:40.916229,45
2021-12-24 15:37:40.916237,68
2021-12-24 15:37:40.916243,75
2021-12-24 15:37:40.916250,73
2021-12-24 15:37:40.916256,50
2021-12-24 15:37:40.916263,25
2021-12-24 15:37:40.916269,36
2021-12-24 15:37:40.916275,32
2021-12-24 15:37:40.916282,-9
2021-12-24 15:37:40.916288,-41
2021-12-24 15:37:40.916294,-73
2021-12-24 15:37:40.916301,-98
2021-12-24 15:37:40.916307,-89
2021-12-24 15:37:40.916314,-73
2021-12-24 15:37:40.916320,-82
2021-12-24 15:37:40.916326,-85
2021-12-24 15:37:40.916333,-78
2021-12-24 15:37:40.916339,-66
2021-12-24 15:37:40.916346,-41
2021-12-24 15:37:40.916352,-22
2021-12-24 15:37:40.916358,-27
2021-12-24 15:37:40.916365,-29
2021-12-24 15:37:40.916371,-25
2021-12-24 15:37:40.916377,-4
2021-12-24 15:37:40.916384,16
2021-12-24 15:37:40.916390,13
2021-12-24 15:37:40.916397,-20
2021-12-24 15:37:40.916403,-45
2021-12-24 15:37:40.916409,-34
2021-12-24 15:37:41.096148,-9
2021-12-24 15:37:41.096178,2
2021-12-24 15:37:41.096190,2
2021-12-24 15:37:41.096200,-13
2021-12-24 15:37:41.096210,-45
2021-12-24 15:37:41.096219,-71
2021-12-24 15:37:41.096229,-59
2021-12-24 15:37:41.096239,-32
2021-12-24 15:37:41.096248,-22
2021-12-24 15:37:41.096258,-27
2021-12-24 15:37:41.096268,-62
2021-12-24 15:37:41.096277,-96
2021-12-24 15:37:41.096287,-82
2021-12-24 15:37:41.096297,-48
2021-12-24 15:37:41.096306,-43
2021-12-24 15:37:41.096316,-59
2021-12-24 15:37:41.096326,-85
2021-12-24 15:37:41.096335,-89
2021-12-24 15:37:41.096345,-59
2021-12-24 15:37:41.096355,-32
2021-12-24 15:37:41.096364,-13
2021-12-24 15:37:41.096374,-16
2021-12-24 15:37:41.096384,-36
2021-12-24 15:37:41.096393,-45
2021-12-24 15:37:41.096403,-29
2021-12-24 15:37:41.096413,-11
2021-12-24 15:37:41.096422,-9
2021-12-24 15:37:41.096432,-11
2021-12-24 15:37:41.096442,-13
2021-12-24 15:37:41.096451,-39
2021-12-24 15:37:41.321113,-75
2021-12-24 15:37:41.321142,-75
2021-12-24 15:37:41.321154,-52
2021-12-24 15:37:41.321164,-41
2021-12-24 15:37:41.321173,-4
2021-12-24 15:37:41.321183,11
2021-12-24 15:37:41.321193,-124
2021-12-24 15:37:41.321203,-356
2021-12-24 15:37:41.321213,-413
2021-12-24 15:37:41.321223,-305
2021-12-24 15:37:41.321232,-264
2021-12-24 15:37:41.321242,-257
2021-12-24 15:37:41.321252,-204
2021-12-24 15:37:41.321262,-179
2021-12-24 15:37:41.321272,-183
2021-12-24 15:37:41.321281,-186
2021-12-24 15:37:41.321291,-186
2021-12-24 15:37:41.321301,-170
2021-12-24 15:37:41.321311,-144
2021-12-24 15:37:41.321320,-126
2021-12-24 15:37:41.321330,-114
2021-12-24 15:37:41.321340,-119
2021-12-24 15:37:41.321349,-126
2021-12-24 15:37:41.321359,-108
2021-12-24 15:37:41.321369,-82
2021-12-24 15:37:41.321378,-66
2021-12-24 15:37:41.321388,-57
2021-12-24 15:37:41.321398,-64
2021-12-24 15:37:41.321409,-62
2021-12-24 15:37:41.321418,-32
2021-12-24 15:37:41.636125,-16
2021-12-24 15:37:41.636154,-32
2021-12-24 15:37:41.636166,-52
2021-12-24 15:37:41.636176,-78
2021-12-24 15:37:41.636185,-80
2021-12-24 15:37:41.636195,-48
2021-12-24 15:37:41.636205,-16
2021-12-24 15:37:41.636214,-4
2021-12-24 15:37:41.636224,-6
2021-12-24 15:37:41.636234,-43
2021-12-24 15:37:41.636243,-66
2021-12-24 15:37:41.636253,-55
2021-12-24 15:37:41.636262,-50
2021-12-24 15:37:41.636272,-57
2021-12-24 15:37:41.636282,-66
2021-12-24 15:37:41.636291,-103
2021-12-24 15:37:41.636301,-158
2021-12-24 15:37:41.636310,-163
2021-12-24 15:37:41.636320,-124
2021-12-24 15:37:41.636330,-103
2021-12-24 15:37:41.636339,-114
2021-12-24 15:37:41.636349,-126
2021-12-24 15:37:41.636358,-110
2021-12-24 15:37:41.636368,-78
2021-12-24 15:37:41.636378,-59
2021-12-24 15:37:41.636387,-48
2021-12-24 15:37:41.636397,-43
2021-12-24 15:37:41.636406,-48
2021-12-24 15:37:41.636417,-34
2021-12-24 15:37:41.636426,-6
2021-12-24 15:37:41.816297,13
2021-12-24 15:37:41.816327,29
2021-12-24 15:37:41.816339,29
2021-12-24 15:37:41.816349,-4
2021-12-24 15:37:41.816358,-20
2021-12-24 15:37:41.816368,9
2021-12-24 15:37:41.816378,29
2021-12-24 15:37:41.816387,11
2021-12-24 15:37:41.816397,-27
2021-12-24 15:37:41.816407,-55
2021-12-24 15:37:41.816416,-32
2021-12-24 15:37:41.816426,4
2021-12-24 15:37:41.816436,18
2021-12-24 15:37:41.816445,18
2021-12-24 15:37:41.816455,-2
2021-12-24 15:37:41.816465,-13
2021-12-24 15:37:41.816474,4
2021-12-24 15:37:41.816484,29
2021-12-24 15:37:41.816493,43
2021-12-24 15:37:41.816503,45
2021-12-24 15:37:41.816513,25
2021-12-24 15:37:41.816522,6
2021-12-24 15:37:41.816532,16
2021-12-24 15:37:41.816542,39
2021-12-24 15:37:41.816551,55
2021-12-24 15:37:41.816561,62
2021-12-24 15:37:41.816571,55
2021-12-24 15:37:41.816580,55
2021-12-24 15:37:41.816590,73
2021-12-24 15:37:41.816600,91
2021-12-24 15:37:42.086149,103
2021-12-24 15:37:42.086179,105
2021-12-24 15:37:42.086190,112
2021-12-24 15:37:42.086200,165
2021-12-24 15:37:42.086210,250
2021-12-24 15:37:42.086220,229
2021-12-24 15:37:42.086230,16
2021-12-24 15:37:42.086240,-232
2021-12-24 15:37:42.086250,-223
2021-12-24 15:37:42.086259,-41
2021-12-24 15:37:42.086269,25
2021-12-24 15:37:42.086279,29
2021-12-24 15:37:42.086289,71
2021-12-24 15:37:42.086298,50
2021-12-24 15:37:42.086308,-4
2021-12-24 15:37:42.086318,0
2021-12-24 15:37:42.086328,20
2021-12-24 15:37:42.086338,20
2021-12-24 15:37:42.086347,9
2021-12-24 15:37:42.086357,-6
2021-12-24 15:37:42.086367,-20
2021-12-24 15:37:42.086377,-57
2021-12-24 15:37:42.086386,-114
2021-12-24 15:37:42.086396,-114
2021-12-24 15:37:42.086406,-87
2021-12-24 15:37:42.086415,-87
2021-12-24 15:37:42.086425,-75
2021-12-24 15:37:42.086435,-45
2021-12-24 15:37:42.086445,-25
2021-12-24 15:37:42.086454,-4
2021-12-24 15:37:42.356302,16
2021-12-24 15:37:42.356332,25
2021-12-24 15:37:42.356344,41
2021-12-24 15:37:42.356354,68
2021-12-24 15:37:42.356364,91
2021-12-24 15:37:42.356374,119
2021-12-24 15:37:42.356383,137
2021-12-24 15:37:42.356393,117
2021-12-24 15:37:42.356403,91
2021-12-24 15:37:42.356412,94
2021-12-24 15:37:42.356422,94
2021-12-24 15:37:42.356431,73
2021-12-24 15:37:42.356441,34
2021-12-24 15:37:42.356451,-6
2021-12-24 15:37:42.356461,-25
2021-12-24 15:37:42.356470,-27
2021-12-24 15:37:42.356480,-22
2021-12-24 15:37:42.356490,-9
2021-12-24 15:37:42.356499,-25
2021-12-24 15:37:42.356509,-48
2021-12-24 15:37:42.356519,-32
2021-12-24 15:37:42.356529,-11
2021-12-24 15:37:42.356538,-4
2021-12-24 15:37:42.356548,11
2021-12-24 15:37:42.356558,20
2021-12-24 15:37:42.356567,22
2021-12-24 15:37:42.356577,39
2021-12-24 15:37:42.356586,50
2021-12-24 15:37:42.356596,62
2021-12-24 15:37:42.356606,78
2021-12-24 15:37:42.624761,80
2021-12-24 15:37:42.624791,85
2021-12-24 15:37:42.624803,91
2021-12-24 15:37:42.624812,87
2021-12-24 15:37:42.624822,91
2021-12-24 15:37:42.624832,94
2021-12-24 15:37:42.624842,66
2021-12-24 15:37:42.624852,52
2021-12-24 15:37:42.624863,66
2021-12-24 15:37:42.624873,41
2021-12-24 15:37:42.624882,9
2021-12-24 15:37:42.624892,16
2021-12-24 15:37:42.624902,18
2021-12-24 15:37:42.624912,20
2021-12-24 15:37:42.624922,45
2021-12-24 15:37:42.624931,68
2021-12-24 15:37:42.624941,82
2021-12-24 15:37:42.624951,78
2021-12-24 15:37:42.624961,55
2021-12-24 15:37:42.624971,59
2021-12-24 15:37:42.624980,87
2021-12-24 15:37:42.624990,91
2021-12-24 15:37:42.625000,87
2021-12-24 15:37:42.625010,71
2021-12-24 15:37:42.625019,43
2021-12-24 15:37:42.625029,52
2021-12-24 15:37:42.625039,78
2021-12-24 15:37:42.625049,55
2021-12-24 15:37:42.625059,20
2021-12-24 15:37:42.625068,68
2021-12-24 15:37:42.716132,165
2021-12-24 15:37:42.716163,147
2021-12-24 15:37:42.716174,-68
2021-12-24 15:37:42.716184,-271
2021-12-24 15:37:42.716193,-179
2021-12-24 15:37:42.716203,6
2021-12-24 15:37:42.716213,39
2021-12-24 15:37:42.716222,59
2021-12-24 15:37:42.716232,119
2021-12-24 15:37:42.716241,124
2021-12-24 15:37:42.716251,110
2021-12-24 15:37:42.716261,105
2021-12-24 15:37:42.716270,98
2021-12-24 15:37:42.716280,112
2021-12-24 15:37:42.716295,140
2021-12-24 15:37:42.716305,142
2021-12-24 15:37:42.716315,128
2021-12-24 15:37:42.716324,105
2021-12-24 15:37:42.716334,96
2021-12-24 15:37:42.716343,98
2021-12-24 15:37:42.716353,82
2021-12-24 15:37:42.716362,73
2021-12-24 15:37:42.716372,68
2021-12-24 15:37:42.716382,43
2021-12-24 15:37:42.716391,27
2021-12-24 15:37:42.716401,36
2021-12-24 15:37:42.716410,39
2021-12-24 15:37:42.716420,22
2021-12-24 15:37:42.716430,4
2021-12-24 15:37:42.716439,20
2021-12-24 15:37:43.030759,50
2021-12-24 15:37:43.030782,68
2021-12-24 15:37:43.030790,71
2021-12-24 15:37:43.030796,59
2021-12-24 15:37:43.030803,16
2021-12-24 15:37:43.030809,-32
2021-12-24 15:37:43.030816,-41
2021-12-24 15:37:43.030822,-36
2021-12-24 15:37:43.030828,-52
2021-12-24 15:37:43.030835,-82
2021-12-24 15:37:43.030841,-124
2021-12-24 15:37:43.030848,-142
2021-12-24 15:37:43.030854,-126
2021-12-24 15:37:43.030860,-131
2021-12-24 15:37:43.030867,-154
2021-12-24 15:37:43.030873,-151
2021-12-24 15:37:43.030880,-140
2021-12-24 15:37:43.030886,-128
2021-12-24 15:37:43.030892,-101
2021-12-24 15:37:43.030899,-75
2021-12-24 15:37:43.030905,-66
2021-12-24 15:37:43.030912,-73
2021-12-24 15:37:43.030918,-75
2021-12-24 15:37:43.030924,-59
2021-12-24 15:37:43.030931,-29
2021-12-24 15:37:43.030937,-2
2021-12-24 15:37:43.030943,13
2021-12-24 15:37:43.030950,11
2021-12-24 15:37:43.030956,2
2021-12-24 15:37:43.030963,16
2021-12-24 15:37:43.211223,41
2021-12-24 15:37:43.211253,55
2021-12-24 15:37:43.211265,59
2021-12-24 15:37:43.211275,29
2021-12-24 15:37:43.211284,-16
2021-12-24 15:37:43.211294,-16
2021-12-24 15:37:43.211304,16
2021-12-24 15:37:43.211314,36
2021-12-24 15:37:43.211323,48
2021-12-24 15:37:43.211333,34
2021-12-24 15:37:43.211343,0
2021-12-24 15:37:43.211353,16
2021-12-24 15:37:43.211362,55
2021-12-24 15:37:43.211372,64
2021-12-24 15:37:43.211382,59
2021-12-24 15:37:43.211391,43
2021-12-24 15:37:43.211401,27
2021-12-24 15:37:43.211411,52
2021-12-24 15:37:43.211421,82
2021-12-24 15:37:43.211431,94
2021-12-24 15:37:43.211440,101
2021-12-24 15:37:43.211450,66
2021-12-24 15:37:43.211460,22
2021-12-24 15:37:43.211469,45
2021-12-24 15:37:43.211479,82
2021-12-24 15:37:43.211489,91
2021-12-24 15:37:43.211499,94
2021-12-24 15:37:43.211508,94
2021-12-24 15:37:43.211518,94
2021-12-24 15:37:43.211528,108
2021-12-24 15:37:43.436163,119
2021-12-24 15:37:43.436184,135
2021-12-24 15:37:43.436191,160
2021-12-24 15:37:43.436197,213
2021-12-24 15:37:43.436204,291
2021-12-24 15:37:43.436210,294
2021-12-24 15:37:43.436216,117
2021-12-24 15:37:43.436223,-73
2021-12-24 15:37:43.436229,-39
2021-12-24 15:37:43.436235,66
2021-12-24 15:37:43.436242,80
2021-12-24 15:37:43.436248,105
2021-12-24 15:37:43.436254,142
2021-12-24 15:37:43.436261,140
2021-12-24 15:37:43.436267,121
2021-12-24 15:37:43.436273,91
2021-12-24 15:37:43.436280,75
2021-12-24 15:37:43.436286,73
2021-12-24 15:37:43.436292,62
2021-12-24 15:37:43.436298,66
2021-12-24 15:37:43.436305,75
2021-12-24 15:37:43.436311,59
2021-12-24 15:37:43.436317,64
2021-12-24 15:37:43.436323,91
2021-12-24 15:37:43.436330,110
2021-12-24 15:37:43.436336,119
2021-12-24 15:37:43.436342,124
2021-12-24 15:37:43.436349,121
2021-12-24 15:37:43.436355,135
2021-12-24 15:37:43.436361,163
2021-12-24 15:37:43.661049,190
2021-12-24 15:37:43.661079,206
2021-12-24 15:37:43.661090,206
2021-12-24 15:37:43.661100,204
2021-12-24 15:37:43.661110,223
2021-12-24 15:37:43.661119,248
2021-12-24 15:37:43.661129,259
2021-12-24 15:37:43.661139,236
2021-12-24 15:37:43.661148,156
2021-12-24 15:37:43.661158,55
2021-12-24 15:37:43.661168,-2
2021-12-24 15:37:43.661177,-11
2021-12-24 15:37:43.661187,-29
2021-12-24 15:37:43.661197,-89
2021-12-24 15:37:43.661206,-163
2021-12-24 15:37:43.661216,-211
2021-12-24 15:37:43.661226,-218
2021-12-24 15:37:43.661235,-202
2021-12-24 15:37:43.661245,-190
2021-12-24 15:37:43.661254,-206
2021-12-24 15:37:43.661264,-227
2021-12-24 15:37:43.661274,-218
2021-12-24 15:37:43.661283,-188
2021-12-24 15:37:43.661293,-163
2021-12-24 15:37:43.661302,-147
2021-12-24 15:37:43.661312,-140
2021-12-24 15:37:43.661321,-144
2021-12-24 15:37:43.661331,-142
2021-12-24 15:37:43.661341,-124
2021-12-24 15:37:43.661350,-98
2021-12-24 15:37:43.885468,-75
2021-12-24 15:37:43.885490,-68
2021-12-24 15:37:43.885498,-75
2021-12-24 15:37:43.885504,-75
2021-12-24 15:37:43.885510,-62
2021-12-24 15:37:43.885517,-41
2021-12-24 15:37:43.885523,-36
2021-12-24 15:37:43.885529,-64
2021-12-24 15:37:43.885536,-89
2021-12-24 15:37:43.885542,-78
2021-12-24 15:37:43.885548,-50
2021-12-24 15:37:43.885555,-32
2021-12-24 15:37:43.885561,-20
2021-12-24 15:37:43.885567,-36
2021-12-24 15:37:43.885574,-55
2021-12-24 15:37:43.885580,-39
2021-12-24 15:37:43.885586,-13
2021-12-24 15:37:43.885593,4
2021-12-24 15:37:43.885599,20
2021-12-24 15:37:43.885605,25
2021-12-24 15:37:43.885612,18
2021-12-24 15:37:43.885618,2
2021-12-24 15:37:43.885624,-9
2021-12-24 15:37:43.885631,16
2021-12-24 15:37:43.885637,43
2021-12-24 15:37:43.885643,41
2021-12-24 15:37:43.885649,48
2021-12-24 15:37:43.885656,66
2021-12-24 15:37:43.885662,78
2021-12-24 15:37:43.885669,91
2021-12-24 15:37:44.156195,105
2021-12-24 15:37:44.156225,108
2021-12-24 15:37:44.156237,110
2021-12-24 15:37:44.156247,110
2021-12-24 15:37:44.156257,108
2021-12-24 15:37:44.156266,101
2021-12-24 15:37:44.156276,59
2021-12-24 15:37:44.156286,16
2021-12-24 15:37:44.156295,20
2021-12-24 15:37:44.156305,27
2021-12-24 15:37:44.156315,11
2021-12-24 15:37:44.156325,-9
2021-12-24 15:37:44.156335,-41
2021-12-24 15:37:44.156344,-96
2021-12-24 15:37:44.156354,-158
2021-12-24 15:37:44.156364,-195
2021-12-24 15:37:44.156374,-167
2021-12-24 15:37:44.156384,-124
2021-12-24 15:37:44.156393,-121
2021-12-24 15:37:44.156403,-124
2021-12-24 15:37:44.156413,-108
2021-12-24 15:37:44.156423,-103
2021-12-24 15:37:44.156433,-103
2021-12-24 15:37:44.156442,-117
2021-12-24 15:37:44.156452,-144
2021-12-24 15:37:44.156462,-135
2021-12-24 15:37:44.156472,-103
2021-12-24 15:37:44.156482,-91
2021-12-24 15:37:44.156491,-82
2021-12-24 15:37:44.156501,-59
2021-12-24 15:37:44.336100,-52
2021-12-24 15:37:44.336129,-32
2021-12-24 15:37:44.336140,45
2021-12-24 15:37:44.336150,144
2021-12-24 15:37:44.336160,181
2021-12-24 15:37:44.336170,48
2021-12-24 15:37:44.336179,-167
2021-12-24 15:37:44.336189,-172
2021-12-24 15:37:44.336199,2
2021-12-24 15:37:44.336208,64
2021-12-24 15:37:44.336218,57
2021-12-24 15:37:44.336228,73
2021-12-24 15:37:44.336237,57
2021-12-24 15:37:44.336247,50
2021-12-24 15:37:44.336256,87
2021-12-24 15:37:44.336266,94
2021-12-24 15:37:44.336276,94
2021-12-24 15:37:44.336285,89
2021-12-24 15:37:44.336296,68
2021-12-24 15:37:44.336306,82
2021-12-24 15:37:44.336315,117
2021-12-24 15:37:44.336325,119
2021-12-24 15:37:44.336335,124
2021-12-24 15:37:44.336344,147
2021-12-24 15:37:44.336354,156
2021-12-24 15:37:44.336363,154
2021-12-24 15:37:44.336373,156
2021-12-24 15:37:44.336383,172
2021-12-24 15:37:44.336392,186
2021-12-24 15:37:44.336402,193
2021-12-24 15:37:44.604626,206
2021-12-24 15:37:44.604656,234
2021-12-24 15:37:44.604668,255
2021-12-24 15:37:44.604678,257
2021-12-24 15:37:44.604687,252
2021-12-24 15:37:44.604697,234
2021-12-24 15:37:44.604707,220
2021-12-24 15:37:44.604716,241
2021-12-24 15:37:44.604726,257
2021-12-24 15:37:44.604735,241
2021-12-24 15:37:44.604745,206
2021-12-24 15:37:44.604755,160
2021-12-24 15:37:44.604764,131
2021-12-24 15:37:44.604774,137
2021-12-24 15:37:44.604784,133
2021-12-24 15:37:44.604793,110
2021-12-24 15:37:44.604803,96
2021-12-24 15:37:44.604812,103
2021-12-24 15:37:44.604822,117
2021-12-24 15:37:44.604831,119
2021-12-24 15:37:44.604841,80
2021-12-24 15:37:44.604851,48
2021-12-24 15:37:44.604860,64
2021-12-24 15:37:44.604870,75
2021-12-24 15:37:44.604879,85
2021-12-24 15:37:44.604889,117
2021-12-24 15:37:44.604899,128
2021-12-24 15:37:44.604908,91
2021-12-24 15:37:44.604918,55
2021-12-24 15:37:44.604927,66
2021-12-24 15:37:44.786230,98
2021-12-24 15:37:44.786260,110
2021-12-24 15:37:44.786271,112
2021-12-24 15:37:44.786282,105
2021-12-24 15:37:44.786291,78
2021-12-24 15:37:44.786301,57
2021-12-24 15:37:44.786311,78
2021-12-24 15:37:44.786321,105
2021-12-24 15:37:44.786331,112
2021-12-24 15:37:44.786340,101
2021-12-24 15:37:44.786350,68
2021-12-24 15:37:44.786360,43
2021-12-24 15:37:44.786370,66
2021-12-24 15:37:44.786379,98
2021-12-24 15:37:44.786389,103
2021-12-24 15:37:44.786399,96
2021-12-24 15:37:44.786409,82
2021-12-24 15:37:44.786418,82
2021-12-24 15:37:44.786428,103
2021-12-24 15:37:44.786438,126
2021-12-24 15:37:44.786447,135
2021-12-24 15:37:44.786457,140
2021-12-24 15:37:44.786467,142
2021-12-24 15:37:44.786476,149
2021-12-24 15:37:44.786486,156
2021-12-24 15:37:44.786496,160
2021-12-24 15:37:44.786505,165
2021-12-24 15:37:44.786515,154
2021-12-24 15:37:44.786525,133
2021-12-24 15:37:44.786534,117
2021-12-24 15:37:45.055563,101
2021-12-24 15:37:45.055583,103
2021-12-24 15:37:45.055589,110
2021-12-24 15:37:45.055594,75
2021-12-24 15:37:45.055599,34
2021-12-24 15:37:45.055604,59
2021-12-24 15:37:45.055609,135
2021-12-24 15:37:45.055614,200
2021-12-24 15:37:45.055619,165
2021-12-24 15:37:45.055624,-78
2021-12-24 15:37:45.055628,-342
2021-12-24 15:37:45.055633,-287
2021-12-24 15:37:45.055638,-98
2021-12-24 15:37:45.055643,-80
2021-12-24 15:37:45.055648,-114
2021-12-24 15:37:45.055653,-103
2021-12-24 15:37:45.055658,-103
2021-12-24 15:37:45.055663,-96
2021-12-24 15:37:45.055668,-71
2021-12-24 15:37:45.055673,-59
2021-12-24 15:37:45.055677,-62
2021-12-24 15:37:45.055682,-73
2021-12-24 15:37:45.055687,-73
2021-12-24 15:37:45.055692,-55
2021-12-24 15:37:45.055697,-36
2021-12-24 15:37:45.055702,-57
2021-12-24 15:37:45.055707,-110
2021-12-24 15:37:45.055712,-135
2021-12-24 15:37:45.055717,-110
2021-12-24 15:37:45.055722,-80
2021-12-24 15:37:45.325355,-62
2021-12-24 15:37:45.325386,-59
2021-12-24 15:37:45.325398,-78
2021-12-24 15:37:45.325408,-89
2021-12-24 15:37:45.325418,-66
2021-12-24 15:37:45.325427,-29
2021-12-24 15:37:45.325437,4
2021-12-24 15:37:45.325447,29
2021-12-24 15:37:45.325457,22
2021-12-24 15:37:45.325467,-13
2021-12-24 15:37:45.325476,-13
2021-12-24 15:37:45.325486,13
2021-12-24 15:37:45.325496,13
2021-12-24 15:37:45.325506,-9
2021-12-24 15:37:45.325516,-57
2021-12-24 15:37:45.325526,-124
2021-12-24 15:37:45.325535,-140
2021-12-24 15:37:45.325545,-119
2021-12-24 15:37:45.325555,-114
2021-12-24 15:37:45.325620,-114
2021-12-24 15:37:45.325631,-117
2021-12-24 15:37:45.325641,-133
2021-12-24 15:37:45.325651,-124
2021-12-24 15:37:45.325661,-89
2021-12-24 15:37:45.325671,-71
2021-12-24 15:37:45.325681,-64
2021-12-24 15:37:45.325691,-66
2021-12-24 15:37:45.325701,-71
2021-12-24 15:37:45.325711,-62
2021-12-24 15:37:45.325720,-34
2021-12-24 15:37:45.550332,-13
2021-12-24 15:37:45.550352,-6
2021-12-24 15:37:45.550359,-25
2021-12-24 15:37:45.550366,-62
2021-12-24 15:37:45.550372,-75
2021-12-24 15:37:45.550379,-55
2021-12-24 15:37:45.550385,-32
2021-12-24 15:37:45.550391,-43
2021-12-24 15:37:45.550398,-75
2021-12-24 15:37:45.550404,-91
2021-12-24 15:37:45.550411,-71
2021-12-24 15:37:45.550417,-43
2021-12-24 15:37:45.550423,-32
2021-12-24 15:37:45.550430,-32
2021-12-24 15:37:45.550436,-48
2021-12-24 15:37:45.550442,-57
2021-12-24 15:37:45.550449,-39
2021-12-24 15:37:45.550455,-16
2021-12-24 15:37:45.550462,-6
2021-12-24 15:37:45.550468,-6
2021-12-24 15:37:45.550474,-22
2021-12-24 15:37:45.550481,-27
2021-12-24 15:37:45.550487,-6
2021-12-24 15:37:45.550493,13
2021-12-24 15:37:45.550500,16
2021-12-24 15:37:45.550506,11
2021-12-24 15:37:45.550513,4
2021-12-24 15:37:45.550519,9
2021-12-24 15:37:45.550525,25
2021-12-24 15:37:45.550532,41
2021-12-24 15:37:45.865515,52
2021-12-24 15:37:45.865545,32
2021-12-24 15:37:45.865557,-20
2021-12-24 15:37:45.865567,-36
2021-12-24 15:37:45.865577,-6
2021-12-24 15:37:45.865587,-9
2021-12-24 15:37:45.865596,-48
2021-12-24 15:37:45.865606,-75
2021-12-24 15:37:45.865616,-96
2021-12-24 15:37:45.865626,-117
2021-12-24 15:37:45.865635,-117
2021-12-24 15:37:45.865645,-94
2021-12-24 15:37:45.865655,-75
2021-12-24 15:37:45.865664,-75
2021-12-24 15:37:45.865674,-89
2021-12-24 15:37:45.865684,-108
2021-12-24 15:37:45.865694,-126
2021-12-24 15:37:45.865703,-142
2021-12-24 15:37:45.865713,-160
2021-12-24 15:37:45.865723,-186
2021-12-24 15:37:45.865732,-195
2021-12-24 15:37:45.865742,-183
2021-12-24 15:37:45.865752,-170
2021-12-24 15:37:45.865761,-154
2021-12-24 15:37:45.865771,-142
2021-12-24 15:37:45.865781,-144
2021-12-24 15:37:45.865791,-131
2021-12-24 15:37:45.865800,-71
2021-12-24 15:37:45.865810,34
2021-12-24 15:37:45.865820,94
2021-12-24 15:37:45.956026,-27
2021-12-24 15:37:45.956055,-259
2021-12-24 15:37:45.956066,-310
2021-12-24 15:37:45.956076,-165
2021-12-24 15:37:45.956085,-78
2021-12-24 15:37:45.956095,-64
2021-12-24 15:37:45.956104,-29
2021-12-24 15:37:45.956114,-34
2021-12-24 15:37:45.956124,-64
2021-12-24 15:37:45.956133,-52
2021-12-24 15:37:45.956143,-25
2021-12-24 15:37:45.956152,-20
2021-12-24 15:37:45.956162,-39
2021-12-24 15:37:45.956172,-50
2021-12-24 15:37:45.956181,-41
2021-12-24 15:37:45.956191,-29
2021-12-24 15:37:45.956201,-20
2021-12-24 15:37:45.956210,-2
2021-12-24 15:37:45.956220,11
2021-12-24 15:37:45.956229,20
2021-12-24 15:37:45.956239,34
2021-12-24 15:37:45.956248,41
2021-12-24 15:37:45.956258,52
2021-12-24 15:37:45.956267,59
2021-12-24 15:37:45.956277,29
2021-12-24 15:37:45.956286,18
2021-12-24 15:37:45.956296,50
2021-12-24 15:37:45.956306,66
2021-12-24 15:37:45.956315,75
2021-12-24 15:37:45.956325,98
2021-12-24 15:37:46.226147,103
2021-12-24 15:37:46.226176,103
2021-12-24 15:37:46.226187,119
2021-12-24 15:37:46.226197,119
2021-12-24 15:37:46.226207,101
2021-12-24 15:37:46.226217,71
2021-12-24 15:37:46.226226,16
2021-12-24 15:37:46.226236,-34
2021-12-24 15:37:46.226246,-89
2021-12-24 15:37:46.226255,-160
2021-12-24 15:37:46.226265,-188
2021-12-24 15:37:46.226275,-197
2021-12-24 15:37:46.226284,-220
2021-12-24 15:37:46.226294,-209
2021-12-24 15:37:46.226304,-170
2021-12-24 15:37:46.226313,-160
2021-12-24 15:37:46.226323,-156
2021-12-24 15:37:46.226332,-137
2021-12-24 15:37:46.226342,-126
2021-12-24 15:37:46.226352,-110
2021-12-24 15:37:46.226361,-87
2021-12-24 15:37:46.226371,-75
2021-12-24 15:37:46.226381,-64
2021-12-24 15:37:46.226390,-52
2021-12-24 15:37:46.226400,-45
2021-12-24 15:37:46.226410,-27
2021-12-24 15:37:46.226419,-9
2021-12-24 15:37:46.226429,-6
2021-12-24 15:37:46.226439,-4
2021-12-24 15:37:46.226449,-4
2021-12-24 15:37:46.405901,-2
2021-12-24 15:37:46.405931,13
2021-12-24 15:37:46.405943,27
2021-12-24 15:37:46.405953,27
2021-12-24 15:37:46.405963,18
2021-12-24 15:37:46.405973,-6
2021-12-24 15:37:46.405983,-13
2021-12-24 15:37:46.405993,11
2021-12-24 15:37:46.406002,22
2021-12-24 15:37:46.406012,20
2021-12-24 15:37:46.406022,27
2021-12-24 15:37:46.406032,9
2021-12-24 15:37:46.406042,-34
2021-12-24 15:37:46.406051,-32
2021-12-24 15:37:46.406061,-2
2021-12-24 15:37:46.406071,-11
2021-12-24 15:37:46.406081,-48
2021-12-24 15:37:46.406091,-82
2021-12-24 15:37:46.406101,-89
2021-12-24 15:37:46.406110,-87
2021-12-24 15:37:46.406120,-103
2021-12-24 15:37:46.406130,-103
2021-12-24 15:37:46.406140,-94
2021-12-24 15:37:46.406150,-91
2021-12-24 15:37:46.406159,-71
2021-12-24 15:37:46.406169,-43
2021-12-24 15:37:46.406179,-39
2021-12-24 15:37:46.406189,-48
2021-12-24 15:37:46.406199,-43
2021-12-24 15:37:46.406209,-34
2021-12-24 15:37:46.719463,-20
2021-12-24 15:37:46.719493,0
2021-12-24 15:37:46.719505,6
2021-12-24 15:37:46.719515,-11
2021-12-24 15:37:46.719525,-43
2021-12-24 15:37:46.719535,-62
2021-12-24 15:37:46.719545,-45
2021-12-24 15:37:46.719555,-16
2021-12-24 15:37:46.719565,-4
2021-12-24 15:37:46.719574,-9
2021-12-24 15:37:46.719584,-34
2021-12-24 15:37:46.719594,-41
2021-12-24 15:37:46.719604,-39
2021-12-24 15:37:46.719614,-82
2021-12-24 15:37:46.719624,-133
2021-12-24 15:37:46.719634,-126
2021-12-24 15:37:46.719643,-112
2021-12-24 15:37:46.719653,-103
2021-12-24 15:37:46.719663,-71
2021-12-24 15:37:46.719673,-34
2021-12-24 15:37:46.719683,-16
2021-12-24 15:37:46.719693,-18
2021-12-24 15:37:46.719703,-29
2021-12-24 15:37:46.719713,-25
2021-12-24 15:37:46.719722,-2
2021-12-24 15:37:46.719732,18
2021-12-24 15:37:46.719742,32
2021-12-24 15:37:46.719752,29
2021-12-24 15:37:46.719762,25
2021-12-24 15:37:46.719772,43
2021-12-24 15:37:46.901195,71
2021-12-24 15:37:46.901225,87
2021-12-24 15:37:46.901236,121
2021-12-24 15:37:46.901246,177
2021-12-24 15:37:46.901256,220
2021-12-24 15:37:46.901266,177
2021-12-24 15:37:46.901276,-25
2021-12-24 15:37:46.901286,-177
2021-12-24 15:37:46.901296,-59
2021-12-24 15:37:46.901305,50
2021-12-24 15:37:46.901315,13
2021-12-24 15:37:46.901325,50
2021-12-24 15:37:46.901334,121
2021-12-24 15:37:46.901344,119
2021-12-24 15:37:46.901354,117
2021-12-24 15:37:46.901364,117
2021-12-24 15:37:46.901373,91
2021-12-24 15:37:46.901383,94
2021-12-24 15:37:46.901393,126
2021-12-24 15:37:46.901403,140
2021-12-24 15:37:46.901412,140
2021-12-24 15:37:46.901422,128
2021-12-24 15:37:46.901432,131
2021-12-24 15:37:46.901441,158
2021-12-24 15:37:46.901451,179
2021-12-24 15:37:46.901460,188
2021-12-24 15:37:46.901470,200
2021-12-24 15:37:46.901480,197
2021-12-24 15:37:46.901490,200
2021-12-24 15:37:46.901499,218
2021-12-24 15:37:47.125912,229
2021-12-24 15:37:47.125942,239
2021-12-24 15:37:47.125954,250
2021-12-24 15:37:47.125964,239
2021-12-24 15:37:47.125974,236
2021-12-24 15:37:47.125984,268
2021-12-24 15:37:47.125994,289
2021-12-24 15:37:47.126004,291
2021-12-24 15:37:47.126013,268
2021-12-24 15:37:47.126023,213
2021-12-24 15:37:47.126033,177
2021-12-24 15:37:47.126043,156
2021-12-24 15:37:47.126053,124
2021-12-24 15:37:47.126062,94
2021-12-24 15:37:47.126072,48
2021-12-24 15:37:47.126082,-25
2021-12-24 15:37:47.126092,-68
2021-12-24 15:37:47.126102,-96
2021-12-24 15:37:47.126111,-170
2021-12-24 15:37:47.126121,-250
2021-12-24 15:37:47.126131,-273
2021-12-24 15:37:47.126141,-268
2021-12-24 15:37:47.126151,-264
2021-12-24 15:37:47.126161,-239
2021-12-24 15:37:47.126170,-204
2021-12-24 15:37:47.126180,-190
2021-12-24 15:37:47.126190,-195
2021-12-24 15:37:47.126200,-197
2021-12-24 15:37:47.126209,-188
2021-12-24 15:37:47.126219,-170
2021-12-24 15:37:47.350931,-149
2021-12-24 15:37:47.350960,-135
2021-12-24 15:37:47.350972,-147
2021-12-24 15:37:47.350982,-167
2021-12-24 15:37:47.350991,-158
2021-12-24 15:37:47.351001,-131
2021-12-24 15:37:47.351011,-112
2021-12-24 15:37:47.351021,-119
2021-12-24 15:37:47.351031,-156
2021-12-24 15:37:47.351040,-179
2021-12-24 15:37:47.351050,-158
2021-12-24 15:37:47.351060,-137
2021-12-24 15:37:47.351070,-133
2021-12-24 15:37:47.351080,-147
2021-12-24 15:37:47.351089,-186
2021-12-24 15:37:47.351099,-202
2021-12-24 15:37:47.351109,-179
2021-12-24 15:37:47.351119,-154
2021-12-24 15:37:47.351128,-140
2021-12-24 15:37:47.351138,-142
2021-12-24 15:37:47.351148,-165
2021-12-24 15:37:47.351157,-172
2021-12-24 15:37:47.351167,-151
2021-12-24 15:37:47.351177,-133
2021-12-24 15:37:47.351187,-119
2021-12-24 15:37:47.351196,-108
2021-12-24 15:37:47.351206,-105
2021-12-24 15:37:47.351216,-101
2021-12-24 15:37:47.351226,-87
2021-12-24 15:37:47.351236,-64
2021-12-24 15:37:47.575597,-48
2021-12-24 15:37:47.575619,-52
2021-12-24 15:37:47.575626,-59
2021-12-24 15:37:47.575633,-57
2021-12-24 15:37:47.575639,-45
2021-12-24 15:37:47.575646,-27
2021-12-24 15:37:47.575652,-29
2021-12-24 15:37:47.575658,-59
2021-12-24 15:37:47.575665,-78
2021-12-24 15:37:47.575671,-59
2021-12-24 15:37:47.575677,-32
2021-12-24 15:37:47.575683,-6
2021-12-24 15:37:47.575690,0
2021-12-24 15:37:47.575696,-32
2021-12-24 15:37:47.575702,-59
2021-12-24 15:37:47.575709,-45
2021-12-24 15:37:47.575715,-27
2021-12-24 15:37:47.575721,-13
2021-12-24 15:37:47.575728,-2
2021-12-24 15:37:47.575734,-4
2021-12-24 15:37:47.575740,-4
2021-12-24 15:37:47.575747,-13
2021-12-24 15:37:47.575753,-36
2021-12-24 15:37:47.575759,-34
2021-12-24 15:37:47.575765,-13
2021-12-24 15:37:47.575772,27
2021-12-24 15:37:47.575778,68
2021-12-24 15:37:47.575784,-45
2021-12-24 15:37:47.575791,-273
2021-12-24 15:37:47.575797,-294
2021-12-24 15:37:47.801165,-124
2021-12-24 15:37:47.801195,-59
2021-12-24 15:37:47.801206,-62
2021-12-24 15:37:47.801216,-22
2021-12-24 15:37:47.801226,-4
2021-12-24 15:37:47.801236,-11
2021-12-24 15:37:47.801245,-39
2021-12-24 15:37:47.801255,-89
2021-12-24 15:37:47.801265,-101
2021-12-24 15:37:47.801274,-78
2021-12-24 15:37:47.801284,-66
2021-12-24 15:37:47.801294,-71
2021-12-24 15:37:47.801303,-110
2021-12-24 15:37:47.801313,-142
2021-12-24 15:37:47.801323,-140
2021-12-24 15:37:47.801332,-151
2021-12-24 15:37:47.801342,-163
2021-12-24 15:37:47.801352,-149
2021-12-24 15:37:47.801361,-147
2021-12-24 15:37:47.801371,-144
2021-12-24 15:37:47.801381,-126
2021-12-24 15:37:47.801390,-117
2021-12-24 15:37:47.801400,-105
2021-12-24 15:37:47.801410,-94
2021-12-24 15:37:47.801419,-101
2021-12-24 15:37:47.801429,-91
2021-12-24 15:37:47.801438,-62
2021-12-24 15:37:47.801448,-50
2021-12-24 15:37:47.801458,-36
2021-12-24 15:37:47.801468,-20
2021-12-24 15:37:48.025607,-25
2021-12-24 15:37:48.025630,-32
2021-12-24 15:37:48.025637,-36
2021-12-24 15:37:48.025644,-64
2021-12-24 15:37:48.025651,-89
2021-12-24 15:37:48.025657,-112
2021-12-24 15:37:48.025663,-154
2021-12-24 15:37:48.025670,-163
2021-12-24 15:37:48.025676,-140
2021-12-24 15:37:48.025682,-142
2021-12-24 15:37:48.025689,-144
2021-12-24 15:37:48.025695,-151
2021-12-24 15:37:48.025701,-174
2021-12-24 15:37:48.025708,-160
2021-12-24 15:37:48.025714,-126
2021-12-24 15:37:48.025721,-121
2021-12-24 15:37:48.025727,-119
2021-12-24 15:37:48.025733,-108
2021-12-24 15:37:48.025740,-98
2021-12-24 15:37:48.025746,-78
2021-12-24 15:37:48.025753,-59
2021-12-24 15:37:48.025759,-52
2021-12-24 15:37:48.025765,-45
2021-12-24 15:37:48.025772,-39
2021-12-24 15:37:48.025778,-34
2021-12-24 15:37:48.025784,-36
2021-12-24 15:37:48.025791,-57
2021-12-24 15:37:48.025797,-66
2021-12-24 15:37:48.025803,-59
2021-12-24 15:37:48.025810,-85
2021-12-24 15:37:48.295942,-128
2021-12-24 15:37:48.295971,-112
2021-12-24 15:37:48.295983,-82
2021-12-24 15:37:48.295993,-87
2021-12-24 15:37:48.296002,-101
2021-12-24 15:37:48.296017,-114
2021-12-24 15:37:48.296027,-117
2021-12-24 15:37:48.296037,-89
2021-12-24 15:37:48.296047,-66
2021-12-24 15:37:48.296056,-66
2021-12-24 15:37:48.296066,-73
2021-12-24 15:37:48.296076,-87
2021-12-24 15:37:48.296085,-78
2021-12-24 15:37:48.296095,-43
2021-12-24 15:37:48.296106,-25
2021-12-24 15:37:48.296115,-20
2021-12-24 15:37:48.296125,-20
2021-12-24 15:37:48.296135,-22
2021-12-24 15:37:48.296145,-6
2021-12-24 15:37:48.296154,18
2021-12-24 15:37:48.296164,29
2021-12-24 15:37:48.296174,27
2021-12-24 15:37:48.296184,22
2021-12-24 15:37:48.296193,27
2021-12-24 15:37:48.296203,43
2021-12-24 15:37:48.296213,64
2021-12-24 15:37:48.296222,71
2021-12-24 15:37:48.296232,48
2021-12-24 15:37:48.296242,13
2021-12-24 15:37:48.296251,11
2021-12-24 15:37:48.475935,41
2021-12-24 15:37:48.475966,57
2021-12-24 15:37:48.475978,52
2021-12-24 15:37:48.475988,36
2021-12-24 15:37:48.475997,2
2021-12-24 15:37:48.476007,-13
2021-12-24 15:37:48.476017,13
2021-12-24 15:37:48.476026,43
2021-12-24 15:37:48.476036,55
2021-12-24 15:37:48.476046,64
2021-12-24 15:37:48.476055,41
2021-12-24 15:37:48.476065,-4
2021-12-24 15:37:48.476075,-18
2021-12-24 15:37:48.476085,4
2021-12-24 15:37:48.476094,18
2021-12-24 15:37:48.476104,-9
2021-12-24 15:37:48.476114,-64
2021-12-24 15:37:48.476124,-91
2021-12-24 15:37:48.476133,-85
2021-12-24 15:37:48.476143,-91
2021-12-24 15:37:48.476153,-103
2021-12-24 15:37:48.476162,-91
2021-12-24 15:37:48.476172,-34
2021-12-24 15:37:48.476182,66
2021-12-24 15:37:48.476191,85
2021-12-24 15:37:48.476201,-105
2021-12-24 15:37:48.476211,-331
2021-12-24 15:37:48.476221,-301
2021-12-24 15:37:48.476231,-133
2021-12-24 15:37:48.476240,-101
2021-12-24 15:37:48.789755,-117
2021-12-24 15:37:48.789785,-75
2021-12-24 15:37:48.789797,-52
2021-12-24 15:37:48.789806,-91
2021-12-24 15:37:48.789816,-131
2021-12-24 15:37:48.789826,-144
2021-12-24 15:37:48.789835,-156
2021-12-24 15:37:48.789845,-133
2021-12-24 15:37:48.789855,-114
2021-12-24 15:37:48.789864,-149
2021-12-24 15:37:48.789874,-167
2021-12-24 15:37:48.789884,-126
2021-12-24 15:37:48.789894,-85
2021-12-24 15:37:48.789903,-71
2021-12-24 15:37:48.789913,-59
2021-12-24 15:37:48.789923,-57
2021-12-24 15:37:48.789933,-48
2021-12-24 15:37:48.789942,-11
2021-12-24 15:37:48.789952,22
2021-12-24 15:37:48.789962,43
2021-12-24 15:37:48.789971,57
2021-12-24 15:37:48.789981,64
2021-12-24 15:37:48.789990,82
2021-12-24 15:37:48.790000,114
2021-12-24 15:37:48.790010,144
2021-12-24 15:37:48.790019,165
2021-12-24 15:37:48.790029,172
2021-12-24 15:37:48.790038,156
2021-12-24 15:37:48.790048,151
2021-12-24 15:37:48.790058,156
2021-12-24 15:37:49.015950,147
2021-12-24 15:37:49.015981,117
2021-12-24 15:37:49.015992,57
2021-12-24 15:37:49.016002,-2
2021-12-24 15:37:49.016012,-9
2021-12-24 15:37:49.016022,4
2021-12-24 15:37:49.016031,2
2021-12-24 15:37:49.016041,0
2021-12-24 15:37:49.016051,-22
2021-12-24 15:37:49.016061,-66
2021-12-24 15:37:49.016070,-66
2021-12-24 15:37:49.016080,-27
2021-12-24 15:37:49.016090,-13
2021-12-24 15:37:49.016099,-18
2021-12-24 15:37:49.016109,-45
2021-12-24 15:37:49.016119,-85
2021-12-24 15:37:49.016129,-78
2021-12-24 15:37:49.016138,-45
2021-12-24 15:37:49.016149,-36
2021-12-24 15:37:49.016159,-32
2021-12-24 15:37:49.016168,-41
2021-12-24 15:37:49.016178,-52
2021-12-24 15:37:49.016188,-41
2021-12-24 15:37:49.016197,-22
2021-12-24 15:37:49.016207,-16
2021-12-24 15:37:49.016217,-11
2021-12-24 15:37:49.016227,-20
2021-12-24 15:37:49.016236,-39
2021-12-24 15:37:49.016246,-36
2021-12-24 15:37:49.016256,-18
2021-12-24 15:37:49.241116,-6
2021-12-24 15:37:49.241147,-6
2021-12-24 15:37:49.241158,-25
2021-12-24 15:37:49.241168,-62
2021-12-24 15:37:49.241178,-94
2021-12-24 15:37:49.241188,-89
2021-12-24 15:37:49.241198,-68
2021-12-24 15:37:49.241224,-78
2021-12-24 15:37:49.241234,-105
2021-12-24 15:37:49.241244,-119
2021-12-24 15:37:49.241254,-133
2021-12-24 15:37:49.241264,-183
2021-12-24 15:37:49.241274,-213
2021-12-24 15:37:49.241284,-218
2021-12-24 15:37:49.241293,-259
2021-12-24 15:37:49.241303,-285
2021-12-24 15:37:49.241313,-255
2021-12-24 15:37:49.241323,-225
2021-12-24 15:37:49.241333,-223
2021-12-24 15:37:49.241342,-239
2021-12-24 15:37:49.241352,-262
2021-12-24 15:37:49.241363,-248
2021-12-24 15:37:49.241372,-223
2021-12-24 15:37:49.241382,-213
2021-12-24 15:37:49.241392,-209
2021-12-24 15:37:49.241402,-209
2021-12-24 15:37:49.241412,-229
2021-12-24 15:37:49.241421,-234
2021-12-24 15:37:49.241431,-209
2021-12-24 15:37:49.241441,-186
2021-12-24 15:37:49.466066,-179
2021-12-24 15:37:49.466097,-174
2021-12-24 15:37:49.466109,-170
2021-12-24 15:37:49.466119,-140
2021-12-24 15:37:49.466128,-57
2021-12-24 15:37:49.466138,20
2021-12-24 15:37:49.466148,-55
2021-12-24 15:37:49.466158,-328
2021-12-24 15:37:49.466168,-535
2021-12-24 15:37:49.466178,-436
2021-12-24 15:37:49.466188,-285
2021-12-24 15:37:49.466197,-305
2021-12-24 15:37:49.466207,-317
2021-12-24 15:37:49.466217,-259
2021-12-24 15:37:49.466227,-257
2021-12-24 15:37:49.466237,-291
2021-12-24 15:37:49.466246,-298
2021-12-24 15:37:49.466256,-298
2021-12-24 15:37:49.466266,-337
2021-12-24 15:37:49.466275,-379
2021-12-24 15:37:49.466285,-377
2021-12-24 15:37:49.466295,-360
2021-12-24 15:37:49.466305,-351
2021-12-24 15:37:49.466314,-337
2021-12-24 15:37:49.466324,-342
2021-12-24 15:37:49.466334,-349
2021-12-24 15:37:49.466344,-328
2021-12-24 15:37:49.466354,-305
2021-12-24 15:37:49.466363,-294
2021-12-24 15:37:49.466373,-271
2021-12-24 15:37:49.645896,-255
2021-12-24 15:37:49.645926,-255
2021-12-24 15:37:49.645938,-241
2021-12-24 15:37:49.645948,-216
2021-12-24 15:37:49.645957,-197
2021-12-24 15:37:49.645967,-179
2021-12-24 15:37:49.645977,-165
2021-12-24 15:37:49.645986,-160
2021-12-24 15:37:49.645996,-167
2021-12-24 15:37:49.646006,-179
2021-12-24 15:37:49.646016,-179
2021-12-24 15:37:49.646025,-183
2021-12-24 15:37:49.646035,-220
2021-12-24 15:37:49.646045,-262
2021-12-24 15:37:49.646055,-278
2021-12-24 15:37:49.646064,-289
2021-12-24 15:37:49.646074,-326
2021-12-24 15:37:49.646084,-397
2021-12-24 15:37:49.646094,-446
2021-12-24 15:37:49.646103,-418
2021-12-24 15:37:49.646113,-370
2021-12-24 15:37:49.646123,-363
2021-12-24 15:37:49.646132,-356
2021-12-24 15:37:49.646142,-337
2021-12-24 15:37:49.646152,-337
2021-12-24 15:37:49.646161,-324
2021-12-24 15:37:49.646171,-289
2021-12-24 15:37:49.646181,-280
2021-12-24 15:37:49.646191,-280
2021-12-24 15:37:49.646201,-257
2021-12-24 15:37:49.915465,-239
2021-12-24 15:37:49.915495,-223
2021-12-24 15:37:49.915507,-206
2021-12-24 15:37:49.915518,-211
2021-12-24 15:37:49.915528,-213
2021-12-24 15:37:49.915537,-216
2021-12-24 15:37:49.915547,-234
2021-12-24 15:37:49.915557,-234
2021-12-24 15:37:49.915567,-211
2021-12-24 15:37:49.915577,-218
2021-12-24 15:37:49.915587,-252
2021-12-24 15:37:49.915597,-278
2021-12-24 15:37:49.915607,-282
2021-12-24 15:37:49.915617,-255
2021-12-24 15:37:49.915627,-234
2021-12-24 15:37:49.915637,-239
2021-12-24 15:37:49.915647,-229
2021-12-24 15:37:49.915657,-213
2021-12-24 15:37:49.915667,-206
2021-12-24 15:37:49.915677,-190
2021-12-24 15:37:49.915687,-174
2021-12-24 15:37:49.915697,-170
2021-12-24 15:37:49.915707,-160
2021-12-24 15:37:49.915717,-151
2021-12-24 15:37:49.915727,-142
2021-12-24 15:37:49.915737,-121
2021-12-24 15:37:49.915747,-110
2021-12-24 15:37:49.915757,-112
2021-12-24 15:37:49.915767,-112
2021-12-24 15:37:49.915777,-124
2021-12-24 15:37:50.095943,-126
2021-12-24 15:37:50.095974,-110
2021-12-24 15:37:50.095985,-94
2021-12-24 15:37:50.095995,-101
2021-12-24 15:37:50.096005,-112
2021-12-24 15:37:50.096015,-105
2021-12-24 15:37:50.096025,-89
2021-12-24 15:37:50.096034,-73
2021-12-24 15:37:50.096044,-59
2021-12-24 15:37:50.096054,-41
2021-12-24 15:37:50.096063,-45
2021-12-24 15:37:50.096073,-105
2021-12-24 15:37:50.096083,-149
2021-12-24 15:37:50.096093,-151
2021-12-24 15:37:50.096102,-165
2021-12-24 15:37:50.096112,-188
2021-12-24 15:37:50.096122,-188
2021-12-24 15:37:50.096132,-183
2021-12-24 15:37:50.096142,-183
2021-12-24 15:37:50.096152,-188
2021-12-24 15:37:50.096161,-200
2021-12-24 15:37:50.096171,-232
2021-12-24 15:37:50.096181,-278
2021-12-24 15:37:50.096191,-229
2021-12-24 15:37:50.096201,-114
2021-12-24 15:37:50.096210,-126
2021-12-24 15:37:50.096220,-331
2021-12-24 15:37:50.096231,-517
2021-12-24 15:37:50.096241,-450
2021-12-24 15:37:50.096250,-291
2021-12-24 15:37:50.410287,-243
2021-12-24 15:37:50.410318,-220
2021-12-24 15:37:50.410330,-179
2021-12-24 15:37:50.410340,-190
2021-12-24 15:37:50.410349,-232
2021-12-24 15:37:50.410359,-232
2021-12-24 15:37:50.410368,-197
2021-12-24 15:37:50.410378,-174
2021-12-24 15:37:50.410388,-165
2021-12-24 15:37:50.410397,-179
2021-12-24 15:37:50.410407,-206
2021-12-24 15:37:50.410416,-197
2021-12-24 15:37:50.410426,-160
2021-12-24 15:37:50.410436,-163
2021-12-24 15:37:50.410445,-195
2021-12-24 15:37:50.410455,-204
2021-12-24 15:37:50.410465,-186
2021-12-24 15:37:50.410474,-160
2021-12-24 15:37:50.410484,-133
2021-12-24 15:37:50.410494,-101
2021-12-24 15:37:50.410503,-75
2021-12-24 15:37:50.410513,-68
2021-12-24 15:37:50.410522,-78
2021-12-24 15:37:50.410532,-64
2021-12-24 15:37:50.410541,-29
2021-12-24 15:37:50.410551,-2
2021-12-24 15:37:50.410561,20
2021-12-24 15:37:50.410570,25
2021-12-24 15:37:50.410580,22
2021-12-24 15:37:50.410590,41
2021-12-24 15:37:50.680299,55
2021-12-24 15:37:50.680327,48
2021-12-24 15:37:50.680338,25
2021-12-24 15:37:50.680349,-36
2021-12-24 15:37:50.680358,-98
2021-12-24 15:37:50.680368,-91
2021-12-24 15:37:50.680378,-71
2021-12-24 15:37:50.680388,-73
2021-12-24 15:37:50.680398,-75
2021-12-24 15:37:50.680408,-103
2021-12-24 15:37:50.680418,-126
2021-12-24 15:37:50.680428,-101
2021-12-24 15:37:50.680438,-68
2021-12-24 15:37:50.680448,-57
2021-12-24 15:37:50.680457,-45
2021-12-24 15:37:50.680467,-52
2021-12-24 15:37:50.680477,-73
2021-12-24 15:37:50.680487,-73
2021-12-24 15:37:50.680497,-50
2021-12-24 15:37:50.680507,-25
2021-12-24 15:37:50.680516,-22
2021-12-24 15:37:50.680526,-41
2021-12-24 15:37:50.680536,-41
2021-12-24 15:37:50.680546,-20
2021-12-24 15:37:50.680556,-9
2021-12-24 15:37:50.680565,-2
2021-12-24 15:37:50.680575,6
2021-12-24 15:37:50.680585,-32
2021-12-24 15:37:50.680595,-80
2021-12-24 15:37:50.680605,-57
2021-12-24 15:37:50.904500,-18
2021-12-24 15:37:50.904520,-27
2021-12-24 15:37:50.904527,-41
2021-12-24 15:37:50.904534,-48
2021-12-24 15:37:50.904540,-43
2021-12-24 15:37:50.904547,-20
2021-12-24 15:37:50.904553,-4
2021-12-24 15:37:50.904559,6
2021-12-24 15:37:50.904566,9
2021-12-24 15:37:50.904572,-2
2021-12-24 15:37:50.904579,0
2021-12-24 15:37:50.904585,11
2021-12-24 15:37:50.904592,25
2021-12-24 15:37:50.904598,39
2021-12-24 15:37:50.904604,20
2021-12-24 15:37:50.904611,-22
2021-12-24 15:37:50.904617,-18
2021-12-24 15:37:50.904623,6
2021-12-24 15:37:50.904630,-6
2021-12-24 15:37:50.904636,-32
2021-12-24 15:37:50.904643,-52
2021-12-24 15:37:50.904649,-75
2021-12-24 15:37:50.904656,-62
2021-12-24 15:37:50.904662,-29
2021-12-24 15:37:50.904668,-16
2021-12-24 15:37:50.904675,-13
2021-12-24 15:37:50.904681,-25
2021-12-24 15:37:50.904687,-39
2021-12-24 15:37:50.904694,-25
2021-12-24 15:37:50.904700,0
2021-12-24 15:37:51.040905,18
2021-12-24 15:37:51.040935,22
2021-12-24 15:37:51.040947,13
2021-12-24 15:37:51.040957,22
2021-12-24 15:37:51.040967,45
2021-12-24 15:37:51.040977,25
2021-12-24 15:37:51.040987,-16
2021-12-24 15:37:51.040996,-29
2021-12-24 15:37:51.041006,-45
2021-12-24 15:37:51.041016,-62
2021-12-24 15:37:51.041025,-62
2021-12-24 15:37:51.041035,-78
2021-12-24 15:37:51.041045,-98
2021-12-24 15:37:51.041055,-133
2021-12-24 15:37:51.041064,-190
2021-12-24 15:37:51.041074,-195
2021-12-24 15:37:51.041084,-121
2021-12-24 15:37:51.041093,-18
2021-12-24 15:37:51.041103,41
2021-12-24 15:37:51.041113,-66
2021-12-24 15:37:51.041123,-324
2021-12-24 15:37:51.041133,-429
2021-12-24 15:37:51.041143,-273
2021-12-24 15:37:51.041152,-147
2021-12-24 15:37:51.041162,-135
2021-12-24 15:37:51.041172,-114
2021-12-24 15:37:51.041182,-110
2021-12-24 15:37:51.041191,-124
2021-12-24 15:37:51.041201,-108
2021-12-24 15:37:51.041211,-80
2021-12-24 15:37:51.265831,-64
2021-12-24 15:37:51.265861,-62
2021-12-24 15:37:51.265872,-73
2021-12-24 15:37:51.265882,-108
2021-12-24 15:37:51.265892,-151
2021-12-24 15:37:51.265902,-140
2021-12-24 15:37:51.265911,-119
2021-12-24 15:37:51.265921,-151
2021-12-24 15:37:51.265931,-158
2021-12-24 15:37:51.265940,-119
2021-12-24 15:37:51.265950,-98
2021-12-24 15:37:51.265960,-82
2021-12-24 15:37:51.265970,-62
2021-12-24 15:37:51.265979,-68
2021-12-24 15:37:51.265989,-71
2021-12-24 15:37:51.265998,-36
2021-12-24 15:37:51.266008,0
2021-12-24 15:37:51.266018,29
2021-12-24 15:37:51.266028,52
2021-12-24 15:37:51.266038,59
2021-12-24 15:37:51.266047,66
2021-12-24 15:37:51.266057,71
2021-12-24 15:37:51.266067,57
2021-12-24 15:37:51.266076,39
2021-12-24 15:37:51.266086,34
2021-12-24 15:37:51.266096,25
2021-12-24 15:37:51.266105,16
2021-12-24 15:37:51.266115,16
2021-12-24 15:37:51.266124,20
2021-12-24 15:37:51.266134,29
2021-12-24 15:37:51.491141,25
2021-12-24 15:37:51.491165,27
2021-12-24 15:37:51.491172,39
2021-12-24 15:37:51.491179,45
2021-12-24 15:37:51.491185,57
2021-12-24 15:37:51.491191,73
2021-12-24 15:37:51.491197,55
2021-12-24 15:37:51.491204,27
2021-12-24 15:37:51.491268,45
2021-12-24 15:37:51.491275,71
2021-12-24 15:37:51.491281,71
2021-12-24 15:37:51.491288,71
2021-12-24 15:37:51.491326,57
2021-12-24 15:37:51.491332,34
2021-12-24 15:37:51.491338,45
2021-12-24 15:37:51.491344,64
2021-12-24 15:37:51.491351,73
2021-12-24 15:37:51.491357,89
2021-12-24 15:37:51.491363,85
2021-12-24 15:37:51.491369,75
2021-12-24 15:37:51.491376,98
2021-12-24 15:37:51.491382,117
2021-12-24 15:37:51.491388,124
2021-12-24 15:37:51.491394,128
2021-12-24 15:37:51.491401,114
2021-12-24 15:37:51.491407,103
2021-12-24 15:37:51.491413,121
2021-12-24 15:37:51.491419,135
2021-12-24 15:37:51.491426,131
2021-12-24 15:37:51.491432,128
2021-12-24 15:37:51.761125,135
2021-12-24 15:37:51.761155,144
2021-12-24 15:37:51.761167,151
2021-12-24 15:37:51.761177,163
2021-12-24 15:37:51.761186,172
2021-12-24 15:37:51.761196,156
2021-12-24 15:37:51.761206,124
2021-12-24 15:37:51.761215,128
2021-12-24 15:37:51.761225,147
2021-12-24 15:37:51.761235,110
2021-12-24 15:37:51.761245,50
2021-12-24 15:37:51.761255,34
2021-12-24 15:37:51.761264,39
2021-12-24 15:37:51.761274,57
2021-12-24 15:37:51.761283,73
2021-12-24 15:37:51.761293,73
2021-12-24 15:37:51.761303,73
2021-12-24 15:37:51.761313,78
2021-12-24 15:37:51.761322,82
2021-12-24 15:37:51.761332,103
2021-12-24 15:37:51.761342,112
2021-12-24 15:37:51.761351,94
2021-12-24 15:37:51.761361,78
2021-12-24 15:37:51.761371,89
2021-12-24 15:37:51.761380,117
2021-12-24 15:37:51.761390,149
2021-12-24 15:37:51.761400,188
2021-12-24 15:37:51.761409,234
2021-12-24 15:37:51.761419,193
2021-12-24 15:37:51.761429,-45
2021-12-24 15:37:51.941053,-250
2021-12-24 15:37:51.941083,-128
2021-12-24 15:37:51.941094,48
2021-12-24 15:37:51.941105,41
2021-12-24 15:37:51.941114,34
2021-12-24 15:37:51.941124,59
2021-12-24 15:37:51.941134,41
2021-12-24 15:37:51.941143,43
2021-12-24 15:37:51.941153,66
2021-12-24 15:37:51.941163,62
2021-12-24 15:37:51.941173,36
2021-12-24 15:37:51.941182,16
2021-12-24 15:37:51.941192,20
2021-12-24 15:37:51.941202,32
2021-12-24 15:37:51.941211,36
2021-12-24 15:37:51.941221,16
2021-12-24 15:37:51.941231,-50
2021-12-24 15:37:51.941241,-108
2021-12-24 15:37:51.941251,-110
2021-12-24 15:37:51.941260,-105
2021-12-24 15:37:51.941270,-117
2021-12-24 15:37:51.941280,-117
2021-12-24 15:37:51.941290,-114
2021-12-24 15:37:51.941299,-103
2021-12-24 15:37:51.941309,-71
2021-12-24 15:37:51.941319,-41
2021-12-24 15:37:51.941328,-36
2021-12-24 15:37:51.941338,-48
2021-12-24 15:37:51.941348,-66
2021-12-24 15:37:51.941358,-62
2021-12-24 15:37:52.165843,-25
2021-12-24 15:37:52.165873,-4
2021-12-24 15:37:52.165884,-16
2021-12-24 15:37:52.165894,-57
2021-12-24 15:37:52.165904,-114
2021-12-24 15:37:52.165914,-144
2021-12-24 15:37:52.165924,-144
2021-12-24 15:37:52.165933,-151
2021-12-24 15:37:52.165943,-167
2021-12-24 15:37:52.165953,-190
2021-12-24 15:37:52.165962,-220
2021-12-24 15:37:52.165972,-223
2021-12-24 15:37:52.165982,-190
2021-12-24 15:37:52.165992,-163
2021-12-24 15:37:52.166001,-179
2021-12-24 15:37:52.166011,-245
2021-12-24 15:37:52.166021,-280
2021-12-24 15:37:52.166030,-239
2021-12-24 15:37:52.166040,-195
2021-12-24 15:37:52.166050,-181
2021-12-24 15:37:52.166059,-160
2021-12-24 15:37:52.166069,-156
2021-12-24 15:37:52.166079,-154
2021-12-24 15:37:52.166088,-119
2021-12-24 15:37:52.166098,-89
2021-12-24 15:37:52.166107,-80
2021-12-24 15:37:52.166117,-64
2021-12-24 15:37:52.166127,-62
2021-12-24 15:37:52.166136,-78
2021-12-24 15:37:52.166146,-75
2021-12-24 15:37:52.525406,-80
2021-12-24 15:37:52.525436,-89
2021-12-24 15:37:52.525448,-78
2021-12-24 15:37:52.525458,-108
