Time,ECG
2021-12-27 15:42:44.029216,-132
2021-12-27 15:42:44.029231,-136
2021-12-27 15:42:44.029236,-134
2021-12-27 15:42:44.029240,-150
2021-12-27 15:42:44.029245,-177
2021-12-27 15:42:44.029249,-177
2021-12-27 15:42:44.029254,-141
2021-12-27 15:42:44.029258,-136
2021-12-27 15:42:44.029262,-161
2021-12-27 15:42:44.029280,-170
2021-12-27 15:42:44.029284,-216
2021-12-27 15:42:44.029288,-248
2021-12-27 15:42:44.029292,-209
2021-12-27 15:42:44.029296,-177
2021-12-27 15:42:44.029300,-182
2021-12-27 15:42:44.029304,-186
2021-12-27 15:42:44.029308,-180
2021-12-27 15:42:44.029313,-175
2021-12-27 15:42:44.029317,-173
2021-12-27 15:42:44.029321,-168
2021-12-27 15:42:44.029325,-191
2021-12-27 15:42:44.029329,-205
2021-12-27 15:42:44.029333,-173
2021-12-27 15:42:44.029337,-161
2021-12-27 15:42:44.029341,-157
2021-12-27 15:42:44.029345,-134
2021-12-27 15:42:44.029349,-136
2021-12-27 15:42:44.029353,-132
2021-12-27 15:42:44.029357,-107
2021-12-27 15:42:44.029361,-88
2021-12-27 15:42:44.299814,-63
2021-12-27 15:42:44.299843,-50
2021-12-27 15:42:44.299855,-47
2021-12-27 15:42:44.299864,-47
2021-12-27 15:42:44.299874,-47
2021-12-27 15:42:44.299883,-66
2021-12-27 15:42:44.299894,-111
2021-12-27 15:42:44.299903,-104
2021-12-27 15:42:44.299912,-66
2021-12-27 15:42:44.299922,-75
2021-12-27 15:42:44.299931,-70
2021-12-27 15:42:44.299941,-56
2021-12-27 15:42:44.299950,-77
2021-12-27 15:42:44.299960,-82
2021-12-27 15:42:44.299969,-54
2021-12-27 15:42:44.299979,-27
2021-12-27 15:42:44.299988,15
2021-12-27 15:42:44.299999,180
2021-12-27 15:42:44.300009,478
2021-12-27 15:42:44.300018,644
2021-12-27 15:42:44.300028,341
2021-12-27 15:42:44.300037,-378
2021-12-27 15:42:44.300047,-745
2021-12-27 15:42:44.300056,-355
2021-12-27 15:42:44.300066,-31
2021-12-27 15:42:44.300075,-93
2021-12-27 15:42:44.300085,-13
2021-12-27 15:42:44.300095,132
2021-12-27 15:42:44.300104,111
2021-12-27 15:42:44.300118,66
2021-12-27 15:42:44.543090,68
2021-12-27 15:42:44.543111,79
2021-12-27 15:42:44.543119,91
2021-12-27 15:42:44.543125,116
2021-12-27 15:42:44.543131,141
2021-12-27 15:42:44.543138,164
2021-12-27 15:42:44.543144,200
2021-12-27 15:42:44.543150,189
2021-12-27 15:42:44.543157,164
2021-12-27 15:42:44.543163,207
2021-12-27 15:42:44.543169,248
2021-12-27 15:42:44.543176,280
2021-12-27 15:42:44.543182,319
2021-12-27 15:42:44.543192,337
2021-12-27 15:42:44.543198,348
2021-12-27 15:42:44.543205,357
2021-12-27 15:42:44.543211,378
2021-12-27 15:42:44.543217,396
2021-12-27 15:42:44.543224,389
2021-12-27 15:42:44.543230,364
2021-12-27 15:42:44.543236,291
2021-12-27 15:42:44.543243,189
2021-12-27 15:42:44.543249,118
2021-12-27 15:42:44.543255,27
2021-12-27 15:42:44.543262,-61
2021-12-27 15:42:44.543268,-104
2021-12-27 15:42:44.543274,-141
2021-12-27 15:42:44.543281,-164
2021-12-27 15:42:44.543287,-154
2021-12-27 15:42:44.543294,-127
2021-12-27 15:42:44.739214,-104
2021-12-27 15:42:44.739235,-100
2021-12-27 15:42:44.739242,-95
2021-12-27 15:42:44.739248,-104
2021-12-27 15:42:44.739255,-95
2021-12-27 15:42:44.739261,-50
2021-12-27 15:42:44.739267,-36
2021-12-27 15:42:44.739273,-25
2021-12-27 15:42:44.739279,-20
2021-12-27 15:42:44.739286,-77
2021-12-27 15:42:44.739292,-104
2021-12-27 15:42:44.739298,-66
2021-12-27 15:42:44.739304,-36
2021-12-27 15:42:44.739310,-25
2021-12-27 15:42:44.739316,-36
2021-12-27 15:42:44.739322,-82
2021-12-27 15:42:44.739329,-134
2021-12-27 15:42:44.739339,-134
2021-12-27 15:42:44.739345,-118
2021-12-27 15:42:44.739351,-152
2021-12-27 15:42:44.739358,-173
2021-12-27 15:42:44.739364,-189
2021-12-27 15:42:44.739370,-230
2021-12-27 15:42:44.739376,-221
2021-12-27 15:42:44.739382,-198
2021-12-27 15:42:44.739389,-214
2021-12-27 15:42:44.739395,-230
2021-12-27 15:42:44.739401,-236
2021-12-27 15:42:44.739407,-230
2021-12-27 15:42:44.739413,-214
2021-12-27 15:42:44.983235,-189
2021-12-27 15:42:44.983265,-159
2021-12-27 15:42:44.983276,-166
2021-12-27 15:42:44.983286,-177
2021-12-27 15:42:44.983296,-177
2021-12-27 15:42:44.983306,-200
2021-12-27 15:42:44.983315,-186
2021-12-27 15:42:44.983333,-138
2021-12-27 15:42:44.983344,-111
2021-12-27 15:42:44.983353,-104
2021-12-27 15:42:44.983363,-125
2021-12-27 15:42:44.983372,-157
2021-12-27 15:42:44.983382,-154
2021-12-27 15:42:44.983391,-127
2021-12-27 15:42:44.983401,-111
2021-12-27 15:42:44.983411,-109
2021-12-27 15:42:44.983420,-104
2021-12-27 15:42:44.983430,-118
2021-12-27 15:42:44.983439,-129
2021-12-27 15:42:44.983449,-102
2021-12-27 15:42:44.983459,-77
2021-12-27 15:42:44.983468,-66
2021-12-27 15:42:44.983478,0
2021-12-27 15:42:44.983488,168
2021-12-27 15:42:44.983498,446
2021-12-27 15:42:44.983507,594
2021-12-27 15:42:44.983517,291
2021-12-27 15:42:44.983527,-375
2021-12-27 15:42:44.983536,-731
2021-12-27 15:42:44.983547,-407
2021-12-27 15:42:45.177916,-84
2021-12-27 15:42:45.177946,-104
2021-12-27 15:42:45.177957,-34
2021-12-27 15:42:45.177967,84
2021-12-27 15:42:45.177977,63
2021-12-27 15:42:45.177986,52
2021-12-27 15:42:45.177996,56
2021-12-27 15:42:45.178006,47
2021-12-27 15:42:45.178015,79
2021-12-27 15:42:45.178025,102
2021-12-27 15:42:45.178034,107
2021-12-27 15:42:45.178044,127
2021-12-27 15:42:45.178053,138
2021-12-27 15:42:45.178063,129
2021-12-27 15:42:45.178072,143
2021-12-27 15:42:45.178082,186
2021-12-27 15:42:45.178091,216
2021-12-27 15:42:45.178101,239
2021-12-27 15:42:45.178111,271
2021-12-27 15:42:45.178120,268
2021-12-27 15:42:45.178130,275
2021-12-27 15:42:45.178139,309
2021-12-27 15:42:45.178149,332
2021-12-27 15:42:45.178158,344
2021-12-27 15:42:45.178175,339
2021-12-27 15:42:45.178185,307
2021-12-27 15:42:45.178194,252
2021-12-27 15:42:45.178204,182
2021-12-27 15:42:45.178213,109
2021-12-27 15:42:45.178223,20
2021-12-27 15:42:45.372789,-82
2021-12-27 15:42:45.372816,-138
2021-12-27 15:42:45.372868,-164
2021-12-27 15:42:45.372879,-184
2021-12-27 15:42:45.372886,-173
2021-12-27 15:42:45.372892,-143
2021-12-27 15:42:45.372898,-125
2021-12-27 15:42:45.372905,-132
2021-12-27 15:42:45.372911,-157
2021-12-27 15:42:45.372917,-175
2021-12-27 15:42:45.372923,-195
2021-12-27 15:42:45.372929,-193
2021-12-27 15:42:45.372936,-152
2021-12-27 15:42:45.372942,-136
2021-12-27 15:42:45.372948,-166
2021-12-27 15:42:45.372954,-180
2021-12-27 15:42:45.372960,-141
2021-12-27 15:42:45.372967,-104
2021-12-27 15:42:45.372973,-100
2021-12-27 15:42:45.372979,-100
2021-12-27 15:42:45.372985,-125
2021-12-27 15:42:45.372991,-148
2021-12-27 15:42:45.373000,-120
2021-12-27 15:42:45.373008,-95
2021-12-27 15:42:45.373015,-86
2021-12-27 15:42:45.373021,-84
2021-12-27 15:42:45.373027,-109
2021-12-27 15:42:45.373033,-143
2021-12-27 15:42:45.373040,-152
2021-12-27 15:42:45.373046,-145
2021-12-27 15:42:45.616498,-145
2021-12-27 15:42:45.616523,-152
2021-12-27 15:42:45.616534,-182
2021-12-27 15:42:45.616545,-236
2021-12-27 15:42:45.616553,-250
2021-12-27 15:42:45.616633,-209
2021-12-27 15:42:45.616653,-182
2021-12-27 15:42:45.616662,-170
2021-12-27 15:42:45.616668,-164
2021-12-27 15:42:45.616675,-200
2021-12-27 15:42:45.616681,-223
2021-12-27 15:42:45.616687,-191
2021-12-27 15:42:45.616693,-143
2021-12-27 15:42:45.616699,-111
2021-12-27 15:42:45.616706,-102
2021-12-27 15:42:45.616712,-97
2021-12-27 15:42:45.616718,-91
2021-12-27 15:42:45.616725,-79
2021-12-27 15:42:45.616731,-72
2021-12-27 15:42:45.616737,-72
2021-12-27 15:42:45.616743,-61
2021-12-27 15:42:45.616750,-59
2021-12-27 15:42:45.616756,-75
2021-12-27 15:42:45.616762,-63
2021-12-27 15:42:45.616774,-38
2021-12-27 15:42:45.616780,-25
2021-12-27 15:42:45.616787,-20
2021-12-27 15:42:45.616793,-20
2021-12-27 15:42:45.616799,-6
2021-12-27 15:42:45.616805,38
2021-12-27 15:42:45.909145,205
2021-12-27 15:42:45.909175,503
2021-12-27 15:42:45.909186,615
2021-12-27 15:42:45.909195,273
2021-12-27 15:42:45.909205,-387
2021-12-27 15:42:45.909215,-715
2021-12-27 15:42:45.909224,-375
2021-12-27 15:42:45.909234,-47
2021-12-27 15:42:45.909243,-66
2021-12-27 15:42:45.909253,-18
2021-12-27 15:42:45.909262,88
2021-12-27 15:42:45.909272,45
2021-12-27 15:42:45.909281,9
2021-12-27 15:42:45.909291,72
2021-12-27 15:42:45.909300,111
2021-12-27 15:42:45.909310,77
2021-12-27 15:42:45.909319,47
2021-12-27 15:42:45.909329,38
2021-12-27 15:42:45.909338,45
2021-12-27 15:42:45.909348,86
2021-12-27 15:42:45.909357,129
2021-12-27 15:42:45.909367,138
2021-12-27 15:42:45.909376,152
2021-12-27 15:42:45.909386,195
2021-12-27 15:42:45.909395,236
2021-12-27 15:42:45.909405,262
2021-12-27 15:42:45.909414,307
2021-12-27 15:42:45.909424,341
2021-12-27 15:42:45.909433,339
2021-12-27 15:42:45.909443,362
2021-12-27 15:42:46.103887,380
2021-12-27 15:42:46.103910,357
2021-12-27 15:42:46.103917,334
2021-12-27 15:42:46.103924,284
2021-12-27 15:42:46.103930,184
2021-12-27 15:42:46.103936,59
2021-12-27 15:42:46.103943,-88
2021-12-27 15:42:46.103949,-180
2021-12-27 15:42:46.103955,-184
2021-12-27 15:42:46.103962,-180
2021-12-27 15:42:46.103968,-177
2021-12-27 15:42:46.103974,-141
2021-12-27 15:42:46.103980,-113
2021-12-27 15:42:46.103986,-127
2021-12-27 15:42:46.103993,-113
2021-12-27 15:42:46.103999,-72
2021-12-27 15:42:46.104005,-61
2021-12-27 15:42:46.104011,-34
2021-12-27 15:42:46.104017,-6
2021-12-27 15:42:46.104023,-43
2021-12-27 15:42:46.104030,-68
2021-12-27 15:42:46.104037,-41
2021-12-27 15:42:46.104043,-22
2021-12-27 15:42:46.104049,-2
2021-12-27 15:42:46.104055,18
2021-12-27 15:42:46.104062,25
2021-12-27 15:42:46.104068,18
2021-12-27 15:42:46.104074,13
2021-12-27 15:42:46.104080,34
2021-12-27 15:42:46.104086,50
2021-12-27 15:42:46.348274,50
2021-12-27 15:42:46.348304,45
2021-12-27 15:42:46.348315,13
2021-12-27 15:42:46.348325,-4
2021-12-27 15:42:46.348334,9
2021-12-27 15:42:46.348344,20
2021-12-27 15:42:46.348353,29
2021-12-27 15:42:46.348363,18
2021-12-27 15:42:46.348372,-38
2021-12-27 15:42:46.348381,-93
2021-12-27 15:42:46.348396,-95
2021-12-27 15:42:46.348405,-77
2021-12-27 15:42:46.348415,-79
2021-12-27 15:42:46.348424,-75
2021-12-27 15:42:46.348434,-82
2021-12-27 15:42:46.348443,-118
2021-12-27 15:42:46.348452,-113
2021-12-27 15:42:46.348462,-77
2021-12-27 15:42:46.348471,-68
2021-12-27 15:42:46.348481,-56
2021-12-27 15:42:46.348490,-54
2021-12-27 15:42:46.348500,-88
2021-12-27 15:42:46.348509,-136
2021-12-27 15:42:46.348518,-157
2021-12-27 15:42:46.348528,-111
2021-12-27 15:42:46.348537,-66
2021-12-27 15:42:46.348547,-66
2021-12-27 15:42:46.348556,-75
2021-12-27 15:42:46.348566,-68
2021-12-27 15:42:46.348575,-41
2021-12-27 15:42:46.638837,-29
2021-12-27 15:42:46.638865,-41
2021-12-27 15:42:46.638877,-38
2021-12-27 15:42:46.638887,-56
2021-12-27 15:42:46.638896,-93
2021-12-27 15:42:46.638906,-84
2021-12-27 15:42:46.638916,-52
2021-12-27 15:42:46.638925,-38
2021-12-27 15:42:46.638935,-38
2021-12-27 15:42:46.638945,-45
2021-12-27 15:42:46.638954,-54
2021-12-27 15:42:46.638964,-34
2021-12-27 15:42:46.638973,102
2021-12-27 15:42:46.638983,375
2021-12-27 15:42:46.638993,560
2021-12-27 15:42:46.639002,350
2021-12-27 15:42:46.639012,-243
2021-12-27 15:42:46.639022,-676
2021-12-27 15:42:46.639031,-460
2021-12-27 15:42:46.639041,-75
2021-12-27 15:42:46.639051,-38
2021-12-27 15:42:46.639060,-45
2021-12-27 15:42:46.639070,68
2021-12-27 15:42:46.639079,88
2021-12-27 15:42:46.639089,54
2021-12-27 15:42:46.639104,97
2021-12-27 15:42:46.639114,132
2021-12-27 15:42:46.639123,116
2021-12-27 15:42:46.639133,127
2021-12-27 15:42:46.639143,148
2021-12-27 15:42:46.884315,157
2021-12-27 15:42:46.884346,186
2021-12-27 15:42:46.884358,202
2021-12-27 15:42:46.884367,209
2021-12-27 15:42:46.884377,223
2021-12-27 15:42:46.884386,223
2021-12-27 15:42:46.884396,216
2021-12-27 15:42:46.884405,248
2021-12-27 15:42:46.884415,303
2021-12-27 15:42:46.884424,328
2021-12-27 15:42:46.884433,344
2021-12-27 15:42:46.884443,366
2021-12-27 15:42:46.884452,350
2021-12-27 15:42:46.884462,325
2021-12-27 15:42:46.884471,325
2021-12-27 15:42:46.884481,293
2021-12-27 15:42:46.884490,227
2021-12-27 15:42:46.884500,141
2021-12-27 15:42:46.884509,27
2021-12-27 15:42:46.884519,-61
2021-12-27 15:42:46.884528,-109
2021-12-27 15:42:46.884538,-145
2021-12-27 15:42:46.884547,-161
2021-12-27 15:42:46.884557,-161
2021-12-27 15:42:46.884566,-157
2021-12-27 15:42:46.884576,-161
2021-12-27 15:42:46.884595,-154
2021-12-27 15:42:46.884605,-168
2021-12-27 15:42:46.884615,-205
2021-12-27 15:42:46.884625,-184
2021-12-27 15:42:47.223914,-148
2021-12-27 15:42:47.223944,-152
2021-12-27 15:42:47.223956,-141
2021-12-27 15:42:47.223966,-116
2021-12-27 15:42:47.224034,-100
2021-12-27 15:42:47.224047,-84
2021-12-27 15:42:47.224057,-84
2021-12-27 15:42:47.224066,-107
2021-12-27 15:42:47.224076,-132
2021-12-27 15:42:47.224085,-120
2021-12-27 15:42:47.224095,-102
2021-12-27 15:42:47.224104,-102
2021-12-27 15:42:47.224114,-88
2021-12-27 15:42:47.224124,-97
2021-12-27 15:42:47.224133,-145
2021-12-27 15:42:47.224143,-164
2021-12-27 15:42:47.224160,-143
2021-12-27 15:42:47.224170,-116
2021-12-27 15:42:47.224180,-107
2021-12-27 15:42:47.224189,-134
2021-12-27 15:42:47.224199,-161
2021-12-27 15:42:47.224208,-168
2021-12-27 15:42:47.224217,-175
2021-12-27 15:42:47.224227,-173
2021-12-27 15:42:47.224236,-166
2021-12-27 15:42:47.224246,-164
2021-12-27 15:42:47.224255,-191
2021-12-27 15:42:47.224265,-225
2021-12-27 15:42:47.224274,-202
2021-12-27 15:42:47.224283,-168
2021-12-27 15:42:47.418838,-157
2021-12-27 15:42:47.418868,-143
2021-12-27 15:42:47.418879,-157
2021-12-27 15:42:47.418889,-175
2021-12-27 15:42:47.418899,-168
2021-12-27 15:42:47.418908,-152
2021-12-27 15:42:47.418975,-129
2021-12-27 15:42:47.418988,-109
2021-12-27 15:42:47.418998,-102
2021-12-27 15:42:47.419007,-123
2021-12-27 15:42:47.419017,-125
2021-12-27 15:42:47.419026,-79
2021-12-27 15:42:47.419036,-56
2021-12-27 15:42:47.419045,-63
2021-12-27 15:42:47.419055,-68
2021-12-27 15:42:47.419065,-91
2021-12-27 15:42:47.419074,-109
2021-12-27 15:42:47.419084,-107
2021-12-27 15:42:47.419093,-93
2021-12-27 15:42:47.419103,-72
2021-12-27 15:42:47.419112,-56
2021-12-27 15:42:47.419122,-61
2021-12-27 15:42:47.419131,-84
2021-12-27 15:42:47.419141,-70
2021-12-27 15:42:47.419150,-20
2021-12-27 15:42:47.419160,38
2021-12-27 15:42:47.419169,218
2021-12-27 15:42:47.419179,489
2021-12-27 15:42:47.419189,521
2021-12-27 15:42:47.419198,86
2021-12-27 15:42:47.517325,-544
2021-12-27 15:42:47.517354,-663
2021-12-27 15:42:47.517366,-239
2021-12-27 15:42:47.517376,-68
2021-12-27 15:42:47.517386,-175
2021-12-27 15:42:47.517395,-79
2021-12-27 15:42:47.517405,56
2021-12-27 15:42:47.517415,36
2021-12-27 15:42:47.517424,25
2021-12-27 15:42:47.517434,66
2021-12-27 15:42:47.517444,56
2021-12-27 15:42:47.517453,18
2021-12-27 15:42:47.517463,43
2021-12-27 15:42:47.517477,97
2021-12-27 15:42:47.517487,116
2021-12-27 15:42:47.517497,127
2021-12-27 15:42:47.517506,148
2021-12-27 15:42:47.517516,166
2021-12-27 15:42:47.517526,164
2021-12-27 15:42:47.517535,170
2021-12-27 15:42:47.517545,214
2021-12-27 15:42:47.517555,255
2021-12-27 15:42:47.517564,287
2021-12-27 15:42:47.517574,316
2021-12-27 15:42:47.517583,332
2021-12-27 15:42:47.517593,355
2021-12-27 15:42:47.517603,350
2021-12-27 15:42:47.517612,319
2021-12-27 15:42:47.517622,293
2021-12-27 15:42:47.517631,227
2021-12-27 15:42:47.809913,123
2021-12-27 15:42:47.809934,52
2021-12-27 15:42:47.809941,-2
2021-12-27 15:42:47.809948,-70
2021-12-27 15:42:47.809954,-125
2021-12-27 15:42:47.809960,-159
2021-12-27 15:42:47.809967,-198
2021-12-27 15:42:47.809973,-221
2021-12-27 15:42:47.809979,-195
2021-12-27 15:42:47.809985,-184
2021-12-27 15:42:47.809991,-182
2021-12-27 15:42:47.809998,-152
2021-12-27 15:42:47.810004,-161
2021-12-27 15:42:47.810010,-177
2021-12-27 15:42:47.810016,-143
2021-12-27 15:42:47.810022,-118
2021-12-27 15:42:47.810028,-111
2021-12-27 15:42:47.810034,-91
2021-12-27 15:42:47.810041,-82
2021-12-27 15:42:47.810047,-113
2021-12-27 15:42:47.810053,-175
2021-12-27 15:42:47.810059,-186
2021-12-27 15:42:47.810066,-143
2021-12-27 15:42:47.810072,-125
2021-12-27 15:42:47.810078,-127
2021-12-27 15:42:47.810084,-132
2021-12-27 15:42:47.810090,-145
2021-12-27 15:42:47.810097,-173
2021-12-27 15:42:47.810103,-182
2021-12-27 15:42:47.810109,-173
2021-12-27 15:42:48.004836,-177
2021-12-27 15:42:48.004866,-184
2021-12-27 15:42:48.004878,-180
2021-12-27 15:42:48.004888,-180
2021-12-27 15:42:48.004898,-164
2021-12-27 15:42:48.004907,-148
2021-12-27 15:42:48.004917,-141
2021-12-27 15:42:48.004927,-150
2021-12-27 15:42:48.004936,-195
2021-12-27 15:42:48.004946,-241
2021-12-27 15:42:48.004956,-250
2021-12-27 15:42:48.004965,-225
2021-12-27 15:42:48.004975,-184
2021-12-27 15:42:48.004985,-177
2021-12-27 15:42:48.004994,-186
2021-12-27 15:42:48.005004,-170
2021-12-27 15:42:48.005014,-145
2021-12-27 15:42:48.005032,-113
2021-12-27 15:42:48.005042,-84
2021-12-27 15:42:48.005052,-77
2021-12-27 15:42:48.005062,-93
2021-12-27 15:42:48.005071,-136
2021-12-27 15:42:48.005081,-161
2021-12-27 15:42:48.005091,-157
2021-12-27 15:42:48.005101,-148
2021-12-27 15:42:48.005110,-118
2021-12-27 15:42:48.005120,-120
2021-12-27 15:42:48.005130,-150
2021-12-27 15:42:48.005139,-127
2021-12-27 15:42:48.005149,-95
2021-12-27 15:42:48.199845,-84
2021-12-27 15:42:48.199874,-68
2021-12-27 15:42:48.199885,-54
2021-12-27 15:42:48.199895,-29
2021-12-27 15:42:48.199905,75
2021-12-27 15:42:48.199915,339
2021-12-27 15:42:48.199924,581
2021-12-27 15:42:48.199934,430
2021-12-27 15:42:48.199944,-195
2021-12-27 15:42:48.199953,-717
2021-12-27 15:42:48.199963,-512
2021-12-27 15:42:48.199972,-79
2021-12-27 15:42:48.199982,-61
2021-12-27 15:42:48.199991,-70
2021-12-27 15:42:48.200001,91
2021-12-27 15:42:48.200011,88
2021-12-27 15:42:48.200020,-4
2021-12-27 15:42:48.200030,29
2021-12-27 15:42:48.200039,102
2021-12-27 15:42:48.200049,113
2021-12-27 15:42:48.200058,107
2021-12-27 15:42:48.200068,123
2021-12-27 15:42:48.200077,118
2021-12-27 15:42:48.200087,116
2021-12-27 15:42:48.200096,132
2021-12-27 15:42:48.200106,138
2021-12-27 15:42:48.200116,164
2021-12-27 15:42:48.200125,198
2021-12-27 15:42:48.200135,207
2021-12-27 15:42:48.200144,234
2021-12-27 15:42:48.395182,280
2021-12-27 15:42:48.395205,314
2021-12-27 15:42:48.395212,334
2021-12-27 15:42:48.395219,337
2021-12-27 15:42:48.395225,337
2021-12-27 15:42:48.395231,316
2021-12-27 15:42:48.395238,291
2021-12-27 15:42:48.395244,277
2021-12-27 15:42:48.395250,207
2021-12-27 15:42:48.395256,102
2021-12-27 15:42:48.395263,18
2021-12-27 15:42:48.395269,-72
2021-12-27 15:42:48.395275,-141
2021-12-27 15:42:48.395281,-154
2021-12-27 15:42:48.395288,-177
2021-12-27 15:42:48.395294,-239
2021-12-27 15:42:48.395301,-259
2021-12-27 15:42:48.395307,-225
2021-12-27 15:42:48.395313,-221
2021-12-27 15:42:48.395319,-207
2021-12-27 15:42:48.395325,-154
2021-12-27 15:42:48.395332,-145
2021-12-27 15:42:48.395338,-150
2021-12-27 15:42:48.395344,-123
2021-12-27 15:42:48.395350,-104
2021-12-27 15:42:48.395356,-111
2021-12-27 15:42:48.395363,-143
2021-12-27 15:42:48.395369,-170
2021-12-27 15:42:48.395375,-141
2021-12-27 15:42:48.395386,-120
2021-12-27 15:42:48.686633,-125
2021-12-27 15:42:48.686663,-123
2021-12-27 15:42:48.686674,-120
2021-12-27 15:42:48.686684,-129
2021-12-27 15:42:48.686694,-141
2021-12-27 15:42:48.686703,-159
2021-12-27 15:42:48.686713,-202
2021-12-27 15:42:48.686722,-230
2021-12-27 15:42:48.686732,-200
2021-12-27 15:42:48.686741,-182
2021-12-27 15:42:48.686751,-184
2021-12-27 15:42:48.686760,-159
2021-12-27 15:42:48.686770,-166
2021-12-27 15:42:48.686779,-193
2021-12-27 15:42:48.686789,-189
2021-12-27 15:42:48.686798,-168
2021-12-27 15:42:48.686808,-152
2021-12-27 15:42:48.686817,-136
2021-12-27 15:42:48.686827,-125
2021-12-27 15:42:48.686836,-125
2021-12-27 15:42:48.686846,-127
2021-12-27 15:42:48.686856,-111
2021-12-27 15:42:48.686865,-102
2021-12-27 15:42:48.686875,-95
2021-12-27 15:42:48.686884,-77
2021-12-27 15:42:48.686894,-70
2021-12-27 15:42:48.686903,-61
2021-12-27 15:42:48.686913,-47
2021-12-27 15:42:48.686923,-61
2021-12-27 15:42:48.686932,-63
2021-12-27 15:42:48.834261,-47
2021-12-27 15:42:48.834282,-43
2021-12-27 15:42:48.834306,-63
2021-12-27 15:42:48.834316,-79
2021-12-27 15:42:48.834326,-56
2021-12-27 15:42:48.834335,-36
2021-12-27 15:42:48.834345,-29
2021-12-27 15:42:48.834354,-20
2021-12-27 15:42:48.834364,-56
2021-12-27 15:42:48.834373,-91
2021-12-27 15:42:48.834383,-63
2021-12-27 15:42:48.834392,-22
2021-12-27 15:42:48.834402,18
2021-12-27 15:42:48.834411,107
2021-12-27 15:42:48.834421,309
2021-12-27 15:42:48.834430,533
2021-12-27 15:42:48.834440,494
2021-12-27 15:42:48.834449,11
2021-12-27 15:42:48.834459,-578
2021-12-27 15:42:48.834468,-583
2021-12-27 15:42:48.834478,-186
2021-12-27 15:42:48.834487,-123
2021-12-27 15:42:48.834497,-152
2021-12-27 15:42:48.834506,29
2021-12-27 15:42:48.834516,107
2021-12-27 15:42:48.834525,59
2021-12-27 15:42:48.834535,72
2021-12-27 15:42:48.834544,93
2021-12-27 15:42:48.834554,91
2021-12-27 15:42:48.834564,107
2021-12-27 15:42:49.125868,116
2021-12-27 15:42:49.125890,113
2021-12-27 15:42:49.125898,138
2021-12-27 15:42:49.125905,138
2021-12-27 15:42:49.125911,102
2021-12-27 15:42:49.125918,136
2021-12-27 15:42:49.125925,198
2021-12-27 15:42:49.125931,216
2021-12-27 15:42:49.125937,252
2021-12-27 15:42:49.125944,277
2021-12-27 15:42:49.125950,264
2021-12-27 15:42:49.125957,287
2021-12-27 15:42:49.125964,334
2021-12-27 15:42:49.125970,362
2021-12-27 15:42:49.125977,360
2021-12-27 15:42:49.125983,341
2021-12-27 15:42:49.125989,309
2021-12-27 15:42:49.125996,248
2021-12-27 15:42:49.126002,180
2021-12-27 15:42:49.126009,109
2021-12-27 15:42:49.126019,27
2021-12-27 15:42:49.126026,-41
2021-12-27 15:42:49.126032,-104
2021-12-27 15:42:49.126039,-141
2021-12-27 15:42:49.126045,-127
2021-12-27 15:42:49.126051,-111
2021-12-27 15:42:49.126058,-104
2021-12-27 15:42:49.126064,-100
2021-12-27 15:42:49.126070,-97
2021-12-27 15:42:49.126077,-84
2021-12-27 15:42:49.370962,-66
2021-12-27 15:42:49.370981,-45
2021-12-27 15:42:49.370989,-68
2021-12-27 15:42:49.370996,-123
2021-12-27 15:42:49.371002,-120
2021-12-27 15:42:49.371009,-116
2021-12-27 15:42:49.371015,-132
2021-12-27 15:42:49.371021,-102
2021-12-27 15:42:49.371032,-84
2021-12-27 15:42:49.371038,-111
2021-12-27 15:42:49.371045,-127
2021-12-27 15:42:49.371066,-136
2021-12-27 15:42:49.371072,-164
2021-12-27 15:42:49.371077,-175
2021-12-27 15:42:49.371082,-150
2021-12-27 15:42:49.371087,-141
2021-12-27 15:42:49.371092,-143
2021-12-27 15:42:49.371097,-132
2021-12-27 15:42:49.371102,-143
2021-12-27 15:42:49.371107,-148
2021-12-27 15:42:49.371112,-120
2021-12-27 15:42:49.371116,-113
2021-12-27 15:42:49.371121,-107
2021-12-27 15:42:49.371126,-95
2021-12-27 15:42:49.371131,-107
2021-12-27 15:42:49.371136,-132
2021-12-27 15:42:49.371141,-168
2021-12-27 15:42:49.371146,-173
2021-12-27 15:42:49.371151,-134
2021-12-27 15:42:49.371156,-118
2021-12-27 15:42:49.613516,-116
2021-12-27 15:42:49.613534,-109
2021-12-27 15:42:49.613540,-102
2021-12-27 15:42:49.613545,-97
2021-12-27 15:42:49.613579,-120
2021-12-27 15:42:49.613589,-138
2021-12-27 15:42:49.613594,-136
2021-12-27 15:42:49.613599,-145
2021-12-27 15:42:49.613604,-132
2021-12-27 15:42:49.613609,-100
2021-12-27 15:42:49.613614,-82
2021-12-27 15:42:49.613619,-56
2021-12-27 15:42:49.613624,-34
2021-12-27 15:42:49.613629,-38
2021-12-27 15:42:49.613635,-61
2021-12-27 15:42:49.613639,-66
2021-12-27 15:42:49.613644,-38
2021-12-27 15:42:49.613649,-22
2021-12-27 15:42:49.613654,-18
2021-12-27 15:42:49.613659,-29
2021-12-27 15:42:49.613664,-61
2021-12-27 15:42:49.613669,-52
2021-12-27 15:42:49.613674,-25
2021-12-27 15:42:49.613679,-2
2021-12-27 15:42:49.613684,34
2021-12-27 15:42:49.613689,123
2021-12-27 15:42:49.613694,339
2021-12-27 15:42:49.613699,576
2021-12-27 15:42:49.613704,528
2021-12-27 15:42:49.613709,52
2021-12-27 15:42:49.760059,-519
2021-12-27 15:42:49.760089,-519
2021-12-27 15:42:49.760100,-104
2021-12-27 15:42:49.760110,20
2021-12-27 15:42:49.760120,-9
2021-12-27 15:42:49.760130,113
2021-12-27 15:42:49.760139,157
2021-12-27 15:42:49.760149,88
2021-12-27 15:42:49.760158,77
2021-12-27 15:42:49.760167,91
2021-12-27 15:42:49.760177,91
2021-12-27 15:42:49.760187,118
2021-12-27 15:42:49.760196,148
2021-12-27 15:42:49.760206,154
2021-12-27 15:42:49.760215,166
2021-12-27 15:42:49.760224,164
2021-12-27 15:42:49.760234,159
2021-12-27 15:42:49.760243,205
2021-12-27 15:42:49.760253,248
2021-12-27 15:42:49.760262,280
2021-12-27 15:42:49.760272,309
2021-12-27 15:42:49.760281,293
2021-12-27 15:42:49.760296,291
2021-12-27 15:42:49.760305,334
2021-12-27 15:42:49.760315,371
2021-12-27 15:42:49.760324,389
2021-12-27 15:42:49.760333,389
2021-12-27 15:42:49.760343,360
2021-12-27 15:42:49.760352,309
2021-12-27 15:42:49.760362,262
2021-12-27 15:42:50.101171,191
2021-12-27 15:42:50.101191,50
2021-12-27 15:42:50.101199,-63
2021-12-27 15:42:50.101205,-125
2021-12-27 15:42:50.101212,-195
2021-12-27 15:42:50.101218,-225
2021-12-27 15:42:50.101224,-202
2021-12-27 15:42:50.101231,-193
2021-12-27 15:42:50.101237,-205
2021-12-27 15:42:50.101243,-230
2021-12-27 15:42:50.101249,-239
2021-12-27 15:42:50.101255,-230
2021-12-27 15:42:50.101262,-209
2021-12-27 15:42:50.101268,-166
2021-12-27 15:42:50.101274,-150
2021-12-27 15:42:50.101280,-168
2021-12-27 15:42:50.101286,-166
2021-12-27 15:42:50.101293,-152
2021-12-27 15:42:50.101299,-132
2021-12-27 15:42:50.101305,-107
2021-12-27 15:42:50.101311,-102
2021-12-27 15:42:50.101317,-113
2021-12-27 15:42:50.101324,-129
2021-12-27 15:42:50.101330,-138
2021-12-27 15:42:50.101336,-150
2021-12-27 15:42:50.101342,-161
2021-12-27 15:42:50.101348,-150
2021-12-27 15:42:50.101355,-145
2021-12-27 15:42:50.101361,-145
2021-12-27 15:42:50.101367,-134
2021-12-27 15:42:50.248057,-136
2021-12-27 15:42:50.248087,-125
2021-12-27 15:42:50.248098,-118
2021-12-27 15:42:50.248108,-129
2021-12-27 15:42:50.248118,-116
2021-12-27 15:42:50.248127,-118
2021-12-27 15:42:50.248137,-143
2021-12-27 15:42:50.248146,-132
2021-12-27 15:42:50.248156,-111
2021-12-27 15:42:50.248165,-116
2021-12-27 15:42:50.248175,-134
2021-12-27 15:42:50.248184,-161
2021-12-27 15:42:50.248194,-166
2021-12-27 15:42:50.248203,-148
2021-12-27 15:42:50.248212,-120
2021-12-27 15:42:50.248222,-107
2021-12-27 15:42:50.248231,-88
2021-12-27 15:42:50.248241,-56
2021-12-27 15:42:50.248250,-68
2021-12-27 15:42:50.248260,-82
2021-12-27 15:42:50.248269,-61
2021-12-27 15:42:50.248278,-52
2021-12-27 15:42:50.248288,-31
2021-12-27 15:42:50.248297,2
2021-12-27 15:42:50.248307,6
2021-12-27 15:42:50.248317,-11
2021-12-27 15:42:50.248326,-25
2021-12-27 15:42:50.248336,-22
2021-12-27 15:42:50.248345,-18
2021-12-27 15:42:50.248354,-18
2021-12-27 15:42:50.492043,-2
2021-12-27 15:42:50.492073,-9
2021-12-27 15:42:50.492084,-20
2021-12-27 15:42:50.492094,-11
2021-12-27 15:42:50.492104,-2
2021-12-27 15:42:50.492113,9
2021-12-27 15:42:50.492123,-20
2021-12-27 15:42:50.492132,-88
2021-12-27 15:42:50.492142,-88
2021-12-27 15:42:50.492151,25
2021-12-27 15:42:50.492161,289
2021-12-27 15:42:50.492171,546
2021-12-27 15:42:50.492180,460
2021-12-27 15:42:50.492190,-79
2021-12-27 15:42:50.492200,-674
2021-12-27 15:42:50.492209,-651
2021-12-27 15:42:50.492219,-202
2021-12-27 15:42:50.492228,-68
2021-12-27 15:42:50.492238,-91
2021-12-27 15:42:50.492247,41
2021-12-27 15:42:50.492257,88
2021-12-27 15:42:50.492266,36
2021-12-27 15:42:50.492276,61
2021-12-27 15:42:50.492285,118
2021-12-27 15:42:50.492295,127
2021-12-27 15:42:50.492304,134
2021-12-27 15:42:50.492314,159
2021-12-27 15:42:50.492324,150
2021-12-27 15:42:50.492333,154
2021-12-27 15:42:50.492343,193
2021-12-27 15:42:50.782911,221
2021-12-27 15:42:50.782941,252
2021-12-27 15:42:50.782953,268
2021-12-27 15:42:50.782962,259
2021-12-27 15:42:50.782972,293
2021-12-27 15:42:50.782987,344
2021-12-27 15:42:50.782997,387
2021-12-27 15:42:50.783006,426
2021-12-27 15:42:50.783015,426
2021-12-27 15:42:50.783025,387
2021-12-27 15:42:50.783035,355
2021-12-27 15:42:50.783045,362
2021-12-27 15:42:50.783054,357
2021-12-27 15:42:50.783064,298
2021-12-27 15:42:50.783074,205
2021-12-27 15:42:50.783083,56
2021-12-27 15:42:50.783093,-72
2021-12-27 15:42:50.783103,-102
2021-12-27 15:42:50.783112,-116
2021-12-27 15:42:50.783122,-143
2021-12-27 15:42:50.783132,-150
2021-12-27 15:42:50.783141,-157
2021-12-27 15:42:50.783151,-157
2021-12-27 15:42:50.783160,-145
2021-12-27 15:42:50.783170,-118
2021-12-27 15:42:50.783179,-86
2021-12-27 15:42:50.783189,-75
2021-12-27 15:42:50.783199,-70
2021-12-27 15:42:50.783208,-84
2021-12-27 15:42:50.783218,-100
2021-12-27 15:42:50.930245,-72
2021-12-27 15:42:50.930267,-52
2021-12-27 15:42:50.930275,-52
2021-12-27 15:42:50.930281,-52
2021-12-27 15:42:50.930287,-79
2021-12-27 15:42:50.930293,-123
2021-12-27 15:42:50.930299,-136
2021-12-27 15:42:50.930305,-120
2021-12-27 15:42:50.930312,-132
2021-12-27 15:42:50.930318,-157
2021-12-27 15:42:50.930324,-134
2021-12-27 15:42:50.930330,-138
2021-12-27 15:42:50.930336,-193
2021-12-27 15:42:50.930343,-184
2021-12-27 15:42:50.930349,-148
2021-12-27 15:42:50.930355,-154
2021-12-27 15:42:50.930361,-184
2021-12-27 15:42:50.930367,-232
2021-12-27 15:42:50.930373,-239
2021-12-27 15:42:50.930380,-200
2021-12-27 15:42:50.930386,-175
2021-12-27 15:42:50.930392,-168
2021-12-27 15:42:50.930398,-157
2021-12-27 15:42:50.930404,-141
2021-12-27 15:42:50.930411,-136
2021-12-27 15:42:50.930417,-123
2021-12-27 15:42:50.930423,-91
2021-12-27 15:42:50.930429,-88
2021-12-27 15:42:50.930435,-91
2021-12-27 15:42:50.930441,-75
2021-12-27 15:42:51.318818,-70
2021-12-27 15:42:51.318847,-59
2021-12-27 15:42:51.318859,-50
2021-12-27 15:42:51.318869,-61
2021-12-27 15:42:51.318879,-52
2021-12-27 15:42:51.318888,-34
2021-12-27 15:42:51.318898,-41
2021-12-27 15:42:51.318908,-45
2021-12-27 15:42:51.318917,-22
2021-12-27 15:42:51.318927,0
2021-12-27 15:42:51.318937,2
2021-12-27 15:42:51.318947,2
2021-12-27 15:42:51.318998,-22
2021-12-27 15:42:51.319056,-75
2021-12-27 15:42:51.319071,-61
2021-12-27 15:42:51.319081,-27
2021-12-27 15:42:51.319091,-25
2021-12-27 15:42:51.319100,-4
2021-12-27 15:42:51.319110,-6
2021-12-27 15:42:51.319119,-34
2021-12-27 15:42:51.319129,-36
2021-12-27 15:42:51.319139,-18
2021-12-27 15:42:51.319148,13
2021-12-27 15:42:51.319158,70
2021-12-27 15:42:51.319168,257
2021-12-27 15:42:51.319177,546
2021-12-27 15:42:51.319187,622
2021-12-27 15:42:51.319196,275
2021-12-27 15:42:51.319206,-334
2021-12-27 15:42:51.319216,-583
2021-12-27 15:42:51.417394,-216
2021-12-27 15:42:51.417424,52
2021-12-27 15:42:51.417436,9
2021-12-27 15:42:51.417446,79
2021-12-27 15:42:51.417456,193
2021-12-27 15:42:51.417465,191
2021-12-27 15:42:51.417475,184
2021-12-27 15:42:51.417484,221
2021-12-27 15:42:51.417494,221
2021-12-27 15:42:51.417504,198
2021-12-27 15:42:51.417513,221
2021-12-27 15:42:51.417523,246
2021-12-27 15:42:51.417532,239
2021-12-27 15:42:51.417542,250
2021-12-27 15:42:51.417551,239
2021-12-27 15:42:51.417561,223
2021-12-27 15:42:51.417571,243
2021-12-27 15:42:51.417580,243
2021-12-27 15:42:51.417590,239
2021-12-27 15:42:51.417599,282
2021-12-27 15:42:51.417609,321
2021-12-27 15:42:51.417619,312
2021-12-27 15:42:51.417628,316
2021-12-27 15:42:51.417638,369
2021-12-27 15:42:51.417648,389
2021-12-27 15:42:51.417657,375
2021-12-27 15:42:51.417667,355
2021-12-27 15:42:51.417677,264
2021-12-27 15:42:51.417686,166
2021-12-27 15:42:51.417696,113
2021-12-27 15:42:51.613017,43
2021-12-27 15:42:51.613053,-20
2021-12-27 15:42:51.613064,-77
2021-12-27 15:42:51.613074,-159
2021-12-27 15:42:51.613084,-202
2021-12-27 15:42:51.613093,-182
2021-12-27 15:42:51.613102,-157
2021-12-27 15:42:51.613112,-173
2021-12-27 15:42:51.613121,-189
2021-12-27 15:42:51.613131,-189
2021-12-27 15:42:51.613140,-209
2021-12-27 15:42:51.613150,-191
2021-12-27 15:42:51.613159,-143
2021-12-27 15:42:51.613169,-143
2021-12-27 15:42:51.613178,-154
2021-12-27 15:42:51.613187,-168
2021-12-27 15:42:51.613197,-189
2021-12-27 15:42:51.613206,-191
2021-12-27 15:42:51.613216,-175
2021-12-27 15:42:51.613225,-152
2021-12-27 15:42:51.613235,-145
2021-12-27 15:42:51.613244,-145
2021-12-27 15:42:51.613254,-143
2021-12-27 15:42:51.613263,-164
2021-12-27 15:42:51.613273,-157
2021-12-27 15:42:51.613282,-123
2021-12-27 15:42:51.613292,-120
2021-12-27 15:42:51.613301,-120
2021-12-27 15:42:51.613311,-118
2021-12-27 15:42:51.613320,-123
2021-12-27 15:42:51.905566,-104
2021-12-27 15:42:51.905595,-88
2021-12-27 15:42:51.905606,-79
2021-12-27 15:42:51.905616,-82
2021-12-27 15:42:51.905626,-91
2021-12-27 15:42:51.905635,-102
2021-12-27 15:42:51.905645,-116
2021-12-27 15:42:51.905654,-91
2021-12-27 15:42:51.905664,-66
2021-12-27 15:42:51.905673,-79
2021-12-27 15:42:51.905683,-70
2021-12-27 15:42:51.905692,-77
2021-12-27 15:42:51.905702,-104
2021-12-27 15:42:51.905711,-77
2021-12-27 15:42:51.905721,-52
2021-12-27 15:42:51.905730,-54
2021-12-27 15:42:51.905740,-43
2021-12-27 15:42:51.905749,-38
2021-12-27 15:42:51.905759,-43
2021-12-27 15:42:51.905768,-34
2021-12-27 15:42:51.905778,-13
2021-12-27 15:42:51.905787,0
2021-12-27 15:42:51.905797,-6
2021-12-27 15:42:51.905806,-31
2021-12-27 15:42:51.905816,-61
2021-12-27 15:42:51.905825,-61
2021-12-27 15:42:51.905835,-59
2021-12-27 15:42:51.905844,-84
2021-12-27 15:42:51.905854,-70
2021-12-27 15:42:51.905863,-36
2021-12-27 15:42:52.148860,-41
2021-12-27 15:42:52.148889,-38
2021-12-27 15:42:52.148901,-22
2021-12-27 15:42:52.148911,-22
2021-12-27 15:42:52.148920,-15
2021-12-27 15:42:52.148930,2
2021-12-27 15:42:52.148940,11
2021-12-27 15:42:52.148949,4
2021-12-27 15:42:52.148959,63
2021-12-27 15:42:52.148968,303
2021-12-27 15:42:52.148978,608
2021-12-27 15:42:52.148987,644
2021-12-27 15:42:52.148997,148
2021-12-27 15:42:52.149006,-535
2021-12-27 15:42:52.149016,-603
2021-12-27 15:42:52.149026,-157
2021-12-27 15:42:52.149035,4
2021-12-27 15:42:52.149045,-45
2021-12-27 15:42:52.149055,66
2021-12-27 15:42:52.149065,134
2021-12-27 15:42:52.149074,61
2021-12-27 15:42:52.149084,59
2021-12-27 15:42:52.149093,116
2021-12-27 15:42:52.149103,118
2021-12-27 15:42:52.149112,134
2021-12-27 15:42:52.149122,180
2021-12-27 15:42:52.149131,170
2021-12-27 15:42:52.149141,136
2021-12-27 15:42:52.149150,148
2021-12-27 15:42:52.149160,195
2021-12-27 15:42:52.344357,230
2021-12-27 15:42:52.344387,239
2021-12-27 15:42:52.344399,246
2021-12-27 15:42:52.344409,250
2021-12-27 15:42:52.344419,282
2021-12-27 15:42:52.344429,339
2021-12-27 15:42:52.344438,369
2021-12-27 15:42:52.344448,387
2021-12-27 15:42:52.344458,387
2021-12-27 15:42:52.344467,355
2021-12-27 15:42:52.344477,341
2021-12-27 15:42:52.344487,332
2021-12-27 15:42:52.344496,287
2021-12-27 15:42:52.344506,218
2021-12-27 15:42:52.344516,116
2021-12-27 15:42:52.344525,-6
2021-12-27 15:42:52.344535,-104
2021-12-27 15:42:52.344545,-150
2021-12-27 15:42:52.344554,-159
2021-12-27 15:42:52.344564,-175
2021-12-27 15:42:52.344573,-189
2021-12-27 15:42:52.344583,-214
2021-12-27 15:42:52.344593,-236
2021-12-27 15:42:52.344602,-221
2021-12-27 15:42:52.344612,-209
2021-12-27 15:42:52.344621,-214
2021-12-27 15:42:52.344631,-223
2021-12-27 15:42:52.344641,-239
2021-12-27 15:42:52.344650,-255
2021-12-27 15:42:52.344660,-273
2021-12-27 15:42:52.538769,-264
2021-12-27 15:42:52.538789,-216
2021-12-27 15:42:52.538796,-207
2021-12-27 15:42:52.538803,-227
2021-12-27 15:42:52.538809,-227
2021-12-27 15:42:52.538815,-209
2021-12-27 15:42:52.538822,-180
2021-12-27 15:42:52.538828,-161
2021-12-27 15:42:52.538834,-152
2021-12-27 15:42:52.538841,-157
2021-12-27 15:42:52.538847,-198
2021-12-27 15:42:52.538856,-202
2021-12-27 15:42:52.538863,-166
2021-12-27 15:42:52.538869,-148
2021-12-27 15:42:52.538875,-141
2021-12-27 15:42:52.538882,-141
2021-12-27 15:42:52.538888,-154
2021-12-27 15:42:52.538894,-168
2021-12-27 15:42:52.538900,-157
2021-12-27 15:42:52.538907,-113
2021-12-27 15:42:52.538913,-107
2021-12-27 15:42:52.538919,-118
2021-12-27 15:42:52.538926,-102
2021-12-27 15:42:52.538932,-100
2021-12-27 15:42:52.538938,-88
2021-12-27 15:42:52.538945,-68
2021-12-27 15:42:52.538951,-61
2021-12-27 15:42:52.538957,-54
2021-12-27 15:42:52.538963,-54
2021-12-27 15:42:52.538970,-56
2021-12-27 15:42:52.830657,-59
2021-12-27 15:42:52.830687,-70
2021-12-27 15:42:52.830699,-50
2021-12-27 15:42:52.830709,-31
2021-12-27 15:42:52.830718,-29
2021-12-27 15:42:52.830728,-34
2021-12-27 15:42:52.830737,-66
2021-12-27 15:42:52.830746,-68
2021-12-27 15:42:52.830756,-50
2021-12-27 15:42:52.830765,-56
2021-12-27 15:42:52.830775,-45
2021-12-27 15:42:52.830784,-43
2021-12-27 15:42:52.830793,-68
2021-12-27 15:42:52.830803,-63
2021-12-27 15:42:52.830812,-43
2021-12-27 15:42:52.830822,-29
2021-12-27 15:42:52.830831,-18
2021-12-27 15:42:52.830841,0
2021-12-27 15:42:52.830850,27
2021-12-27 15:42:52.830860,134
2021-12-27 15:42:52.830869,416
2021-12-27 15:42:52.830878,660
2021-12-27 15:42:52.830888,476
2021-12-27 15:42:52.830897,-157
2021-12-27 15:42:52.830907,-617
2021-12-27 15:42:52.830916,-373
2021-12-27 15:42:52.830926,6
2021-12-27 15:42:52.830935,-9
2021-12-27 15:42:52.830945,0
2021-12-27 15:42:52.830954,157
2021-12-27 15:42:53.026020,170
2021-12-27 15:42:53.026043,127
2021-12-27 15:42:53.026051,134
2021-12-27 15:42:53.026058,127
2021-12-27 15:42:53.026064,100
2021-12-27 15:42:53.026070,77
2021-12-27 15:42:53.026077,72
2021-12-27 15:42:53.026083,63
2021-12-27 15:42:53.026089,66
2021-12-27 15:42:53.026096,97
2021-12-27 15:42:53.026102,127
2021-12-27 15:42:53.026108,166
2021-12-27 15:42:53.026114,202
2021-12-27 15:42:53.026121,207
2021-12-27 15:42:53.026127,200
2021-12-27 15:42:53.026134,216
2021-12-27 15:42:53.026140,268
2021-12-27 15:42:53.026146,309
2021-12-27 15:42:53.026153,325
2021-12-27 15:42:53.026159,337
2021-12-27 15:42:53.026165,314
2021-12-27 15:42:53.026172,277
2021-12-27 15:42:53.026178,255
2021-12-27 15:42:53.026184,202
2021-12-27 15:42:53.026191,127
2021-12-27 15:42:53.026197,47
2021-12-27 15:42:53.026203,-41
2021-12-27 15:42:53.026210,-116
2021-12-27 15:42:53.026216,-168
2021-12-27 15:42:53.026222,-189
2021-12-27 15:42:53.319331,-177
2021-12-27 15:42:53.319352,-159
2021-12-27 15:42:53.319359,-161
2021-12-27 15:42:53.319366,-177
2021-12-27 15:42:53.319372,-182
2021-12-27 15:42:53.319378,-189
2021-12-27 15:42:53.319385,-211
2021-12-27 15:42:53.319391,-200
2021-12-27 15:42:53.319397,-214
2021-12-27 15:42:53.319404,-259
2021-12-27 15:42:53.319410,-246
2021-12-27 15:42:53.319416,-202
2021-12-27 15:42:53.319422,-180
2021-12-27 15:42:53.319429,-164
2021-12-27 15:42:53.319435,-161
2021-12-27 15:42:53.319441,-186
2021-12-27 15:42:53.319447,-209
2021-12-27 15:42:53.319454,-180
2021-12-27 15:42:53.319460,-141
2021-12-27 15:42:53.319466,-138
2021-12-27 15:42:53.319472,-132
2021-12-27 15:42:53.319478,-134
2021-12-27 15:42:53.319485,-148
2021-12-27 15:42:53.319491,-123
2021-12-27 15:42:53.319497,-102
2021-12-27 15:42:53.319503,-97
2021-12-27 15:42:53.319510,-91
2021-12-27 15:42:53.319516,-102
2021-12-27 15:42:53.319522,-102
2021-12-27 15:42:53.319528,-84
2021-12-27 15:42:53.466093,-66
2021-12-27 15:42:53.466122,-45
2021-12-27 15:42:53.466133,-47
2021-12-27 15:42:53.466143,-59
2021-12-27 15:42:53.466153,-86
2021-12-27 15:42:53.466163,-102
2021-12-27 15:42:53.466172,-79
2021-12-27 15:42:53.466181,-88
2021-12-27 15:42:53.466191,-107
2021-12-27 15:42:53.466200,-100
2021-12-27 15:42:53.466210,-132
2021-12-27 15:42:53.466219,-164
2021-12-27 15:42:53.466229,-134
2021-12-27 15:42:53.466238,-84
2021-12-27 15:42:53.466248,-61
2021-12-27 15:42:53.466257,-54
2021-12-27 15:42:53.466267,-45
2021-12-27 15:42:53.466276,-45
2021-12-27 15:42:53.466285,-47
2021-12-27 15:42:53.466295,-31
2021-12-27 15:42:53.466304,-41
2021-12-27 15:42:53.466314,-52
2021-12-27 15:42:53.466323,-38
2021-12-27 15:42:53.466333,-54
2021-12-27 15:42:53.466342,-72
2021-12-27 15:42:53.466351,-54
2021-12-27 15:42:53.466361,-38
2021-12-27 15:42:53.466370,-34
2021-12-27 15:42:53.466380,-29
2021-12-27 15:42:53.466389,-11
2021-12-27 15:42:53.708958,11
2021-12-27 15:42:53.708979,120
2021-12-27 15:42:53.708987,405
2021-12-27 15:42:53.708994,651
2021-12-27 15:42:53.709000,533
2021-12-27 15:42:53.709006,-61
2021-12-27 15:42:53.709013,-640
2021-12-27 15:42:53.709019,-503
2021-12-27 15:42:53.709029,-84
2021-12-27 15:42:53.709035,-70
2021-12-27 15:42:53.709041,-93
2021-12-27 15:42:53.709048,63
2021-12-27 15:42:53.709054,79
2021-12-27 15:42:53.709060,6
2021-12-27 15:42:53.709067,38
2021-12-27 15:42:53.709073,86
2021-12-27 15:42:53.709079,82
2021-12-27 15:42:53.709085,107
2021-12-27 15:42:53.709092,141
2021-12-27 15:42:53.709098,132
2021-12-27 15:42:53.709104,148
2021-12-27 15:42:53.709110,175
2021-12-27 15:42:53.709117,191
2021-12-27 15:42:53.709123,225
2021-12-27 15:42:53.709129,250
2021-12-27 15:42:53.709136,271
2021-12-27 15:42:53.709142,293
2021-12-27 15:42:53.709148,316
2021-12-27 15:42:53.709155,355
2021-12-27 15:42:53.709161,387
2021-12-27 15:42:54.001854,405
2021-12-27 15:42:54.001875,414
2021-12-27 15:42:54.001882,396
2021-12-27 15:42:54.001888,375
2021-12-27 15:42:54.001895,344
2021-12-27 15:42:54.001901,287
2021-12-27 15:42:54.001907,218
2021-12-27 15:42:54.001913,107
2021-12-27 15:42:54.001919,-13
2021-12-27 15:42:54.001925,-91
2021-12-27 15:42:54.001932,-134
2021-12-27 15:42:54.001938,-175
2021-12-27 15:42:54.001944,-230
2021-12-27 15:42:54.001950,-264
2021-12-27 15:42:54.001956,-289
2021-12-27 15:42:54.001963,-353
2021-12-27 15:42:54.001969,-385
2021-12-27 15:42:54.001975,-334
2021-12-27 15:42:54.001981,-296
2021-12-27 15:42:54.001987,-303
2021-12-27 15:42:54.001993,-307
2021-12-27 15:42:54.002000,-303
2021-12-27 15:42:54.002006,-296
2021-12-27 15:42:54.002012,-271
2021-12-27 15:42:54.002018,-227
2021-12-27 15:42:54.002024,-214
2021-12-27 15:42:54.002031,-218
2021-12-27 15:42:54.002037,-211
2021-12-27 15:42:54.002043,-202
2021-12-27 15:42:54.002049,-175
2021-12-27 15:42:54.148056,-150
2021-12-27 15:42:54.148086,-138
2021-12-27 15:42:54.148101,-134
2021-12-27 15:42:54.148112,-143
2021-12-27 15:42:54.148122,-132
2021-12-27 15:42:54.148133,-97
2021-12-27 15:42:54.148143,-86
2021-12-27 15:42:54.148154,-75
2021-12-27 15:42:54.148165,-72
2021-12-27 15:42:54.148176,-104
2021-12-27 15:42:54.148187,-127
2021-12-27 15:42:54.148199,-109
2021-12-27 15:42:54.148210,-91
2021-12-27 15:42:54.148221,-116
2021-12-27 15:42:54.148228,-132
2021-12-27 15:42:54.148236,-111
2021-12-27 15:42:54.148246,-111
2021-12-27 15:42:54.148255,-97
2021-12-27 15:42:54.148261,-59
2021-12-27 15:42:54.148268,-47
2021-12-27 15:42:54.148274,-38
2021-12-27 15:42:54.148280,-47
2021-12-27 15:42:54.148286,-77
2021-12-27 15:42:54.148293,-79
2021-12-27 15:42:54.148299,-56
2021-12-27 15:42:54.148305,-38
2021-12-27 15:42:54.148311,-38
2021-12-27 15:42:54.148318,-41
2021-12-27 15:42:54.148324,-20
2021-12-27 15:42:54.148330,-6
2021-12-27 15:42:54.391857,9
2021-12-27 15:42:54.391887,38
2021-12-27 15:42:54.391898,43
2021-12-27 15:42:54.391908,34
2021-12-27 15:42:54.391918,2
2021-12-27 15:42:54.391927,-41
2021-12-27 15:42:54.391937,-34
2021-12-27 15:42:54.391946,-9
2021-12-27 15:42:54.391956,-2
2021-12-27 15:42:54.391966,-6
2021-12-27 15:42:54.391975,-13
2021-12-27 15:42:54.391985,-22
2021-12-27 15:42:54.391994,-38
2021-12-27 15:42:54.392004,-18
2021-12-27 15:42:54.392013,9
2021-12-27 15:42:54.392023,6
2021-12-27 15:42:54.392032,145
2021-12-27 15:42:54.392042,455
2021-12-27 15:42:54.392051,624
2021-12-27 15:42:54.392061,366
2021-12-27 15:42:54.392071,-284
2021-12-27 15:42:54.392080,-706
2021-12-27 15:42:54.392090,-426
2021-12-27 15:42:54.392099,-63
2021-12-27 15:42:54.392109,-63
2021-12-27 15:42:54.392118,-27
2021-12-27 15:42:54.392128,107
2021-12-27 15:42:54.392138,100
2021-12-27 15:42:54.392147,70
2021-12-27 15:42:54.392157,125
2021-12-27 15:42:54.634829,134
2021-12-27 15:42:54.634846,118
2021-12-27 15:42:54.634852,152
2021-12-27 15:42:54.634857,164
2021-12-27 15:42:54.634862,166
2021-12-27 15:42:54.634867,195
2021-12-27 15:42:54.634872,189
2021-12-27 15:42:54.634877,173
2021-12-27 15:42:54.634882,191
2021-12-27 15:42:54.634887,225
2021-12-27 15:42:54.634892,255
2021-12-27 15:42:54.634897,287
2021-12-27 15:42:54.634902,316
2021-12-27 15:42:54.634907,309
2021-12-27 15:42:54.634912,307
2021-12-27 15:42:54.634917,341
2021-12-27 15:42:54.634922,344
2021-12-27 15:42:54.634926,319
2021-12-27 15:42:54.634931,289
2021-12-27 15:42:54.634936,243
2021-12-27 15:42:54.634944,184
2021-12-27 15:42:54.634952,100
2021-12-27 15:42:54.634959,25
2021-12-27 15:42:54.634967,-22
2021-12-27 15:42:54.634975,-72
2021-12-27 15:42:54.634986,-113
2021-12-27 15:42:54.634996,-154
2021-12-27 15:42:54.635005,-191
2021-12-27 15:42:54.635014,-177
2021-12-27 15:42:54.635023,-154
2021-12-27 15:42:54.878124,-138
2021-12-27 15:42:54.878154,-129
2021-12-27 15:42:54.878166,-141
2021-12-27 15:42:54.878176,-154
2021-12-27 15:42:54.878185,-159
2021-12-27 15:42:54.878195,-150
2021-12-27 15:42:54.878204,-148
2021-12-27 15:42:54.878214,-166
2021-12-27 15:42:54.878223,-182
2021-12-27 15:42:54.878233,-202
2021-12-27 15:42:54.878242,-189
2021-12-27 15:42:54.878251,-148
2021-12-27 15:42:54.878261,-138
2021-12-27 15:42:54.878270,-132
2021-12-27 15:42:54.878280,-143
2021-12-27 15:42:54.878289,-186
2021-12-27 15:42:54.878299,-170
2021-12-27 15:42:54.878308,-132
2021-12-27 15:42:54.878318,-134
2021-12-27 15:42:54.878327,-152
2021-12-27 15:42:54.878337,-177
2021-12-27 15:42:54.878346,-180
2021-12-27 15:42:54.878356,-161
2021-12-27 15:42:54.878377,-141
2021-12-27 15:42:54.878388,-116
2021-12-27 15:42:54.878397,-107
2021-12-27 15:42:54.878407,-129
2021-12-27 15:42:54.878416,-182
2021-12-27 15:42:54.878426,-198
2021-12-27 15:42:54.878435,-145
2021-12-27 15:42:55.074293,-118
2021-12-27 15:42:55.074315,-116
2021-12-27 15:42:55.074342,-95
2021-12-27 15:42:55.074352,-120
2021-12-27 15:42:55.074361,-145
2021-12-27 15:42:55.074371,-118
2021-12-27 15:42:55.074380,-86
2021-12-27 15:42:55.074390,-70
2021-12-27 15:42:55.074399,-68
2021-12-27 15:42:55.074408,-79
2021-12-27 15:42:55.074418,-107
2021-12-27 15:42:55.074427,-111
2021-12-27 15:42:55.074437,-75
2021-12-27 15:42:55.074446,-61
2021-12-27 15:42:55.074456,-66
2021-12-27 15:42:55.074465,-56
2021-12-27 15:42:55.074475,-63
2021-12-27 15:42:55.074484,-56
2021-12-27 15:42:55.074494,-25
2021-12-27 15:42:55.074503,-4
2021-12-27 15:42:55.074513,-2
2021-12-27 15:42:55.074522,-38
2021-12-27 15:42:55.074531,-84
2021-12-27 15:42:55.074541,-82
2021-12-27 15:42:55.074550,-59
2021-12-27 15:42:55.074560,-34
2021-12-27 15:42:55.074569,-29
2021-12-27 15:42:55.074579,-31
2021-12-27 15:42:55.074588,-22
2021-12-27 15:42:55.074597,-27
2021-12-27 15:42:55.366846,-18
2021-12-27 15:42:55.366875,9
2021-12-27 15:42:55.366887,15
2021-12-27 15:42:55.366897,52
2021-12-27 15:42:55.366906,207
2021-12-27 15:42:55.366916,480
2021-12-27 15:42:55.366925,610
2021-12-27 15:42:55.366935,323
2021-12-27 15:42:55.366945,-282
2021-12-27 15:42:55.366954,-619
2021-12-27 15:42:55.366964,-323
2021-12-27 15:42:55.366974,-15
2021-12-27 15:42:55.366983,-66
2021-12-27 15:42:55.366993,-15
2021-12-27 15:42:55.367003,127
2021-12-27 15:42:55.367013,102
2021-12-27 15:42:55.367022,84
2021-12-27 15:42:55.367032,134
2021-12-27 15:42:55.367042,136
2021-12-27 15:42:55.367051,129
2021-12-27 15:42:55.367061,154
2021-12-27 15:42:55.367070,173
2021-12-27 15:42:55.367080,173
2021-12-27 15:42:55.367089,166
2021-12-27 15:42:55.367099,159
2021-12-27 15:42:55.367109,166
2021-12-27 15:42:55.367118,202
2021-12-27 15:42:55.367128,230
2021-12-27 15:42:55.367138,243
2021-12-27 15:42:55.367147,289
2021-12-27 15:42:55.561888,321
2021-12-27 15:42:55.561917,330
2021-12-27 15:42:55.561928,339
2021-12-27 15:42:55.561938,305
2021-12-27 15:42:55.561947,277
2021-12-27 15:42:55.561957,303
2021-12-27 15:42:55.561966,293
2021-12-27 15:42:55.561975,223
2021-12-27 15:42:55.561985,138
2021-12-27 15:42:55.561994,82
2021-12-27 15:42:55.562004,15
2021-12-27 15:42:55.562013,-75
2021-12-27 15:42:55.562023,-138
2021-12-27 15:42:55.562032,-175
2021-12-27 15:42:55.562042,-198
2021-12-27 15:42:55.562052,-200
2021-12-27 15:42:55.562061,-195
2021-12-27 15:42:55.562071,-180
2021-12-27 15:42:55.562080,-186
2021-12-27 15:42:55.562089,-221
2021-12-27 15:42:55.562099,-248
2021-12-27 15:42:55.562108,-264
2021-12-27 15:42:55.562118,-239
2021-12-27 15:42:55.562127,-202
2021-12-27 15:42:55.562137,-195
2021-12-27 15:42:55.562146,-207
2021-12-27 15:42:55.562156,-234
2021-12-27 15:42:55.562165,-232
2021-12-27 15:42:55.562175,-193
2021-12-27 15:42:55.562184,-177
2021-12-27 15:42:55.755892,-159
2021-12-27 15:42:55.755912,-141
2021-12-27 15:42:55.755919,-150
2021-12-27 15:42:55.755926,-157
2021-12-27 15:42:55.755932,-148
2021-12-27 15:42:55.755939,-120
2021-12-27 15:42:55.755945,-100
2021-12-27 15:42:55.755951,-100
2021-12-27 15:42:55.755957,-111
2021-12-27 15:42:55.755963,-152
2021-12-27 15:42:55.755969,-154
2021-12-27 15:42:55.755976,-107
2021-12-27 15:42:55.755982,-93
2021-12-27 15:42:55.755988,-84
2021-12-27 15:42:55.755994,-79
2021-12-27 15:42:55.756000,-120
2021-12-27 15:42:55.756006,-129
2021-12-27 15:42:55.756012,-95
2021-12-27 15:42:55.756019,-70
2021-12-27 15:42:55.756025,-59
2021-12-27 15:42:55.756031,-56
2021-12-27 15:42:55.756037,-63
2021-12-27 15:42:55.756043,-70
2021-12-27 15:42:55.756049,-50
2021-12-27 15:42:55.756056,-20
2021-12-27 15:42:55.756062,-18
2021-12-27 15:42:55.756068,-13
2021-12-27 15:42:55.756074,-31
2021-12-27 15:42:55.756080,-59
2021-12-27 15:42:55.756086,-31
2021-12-27 15:42:56.048357,-6
2021-12-27 15:42:56.048387,0
2021-12-27 15:42:56.048399,9
2021-12-27 15:42:56.048409,-15
2021-12-27 15:42:56.048419,-56
2021-12-27 15:42:56.048428,-61
2021-12-27 15:42:56.048438,-25
2021-12-27 15:42:56.048448,18
2021-12-27 15:42:56.048457,4
2021-12-27 15:42:56.048467,-45
2021-12-27 15:42:56.048476,-91
2021-12-27 15:42:56.048486,-97
2021-12-27 15:42:56.048496,-72
2021-12-27 15:42:56.048505,-70
2021-12-27 15:42:56.048515,-70
2021-12-27 15:42:56.048524,-54
2021-12-27 15:42:56.048534,-54
2021-12-27 15:42:56.048543,-45
2021-12-27 15:42:56.048553,-29
2021-12-27 15:42:56.048562,-13
2021-12-27 15:42:56.048572,2
2021-12-27 15:42:56.048582,-2
2021-12-27 15:42:56.048592,4
2021-12-27 15:42:56.048601,20
2021-12-27 15:42:56.048611,100
2021-12-27 15:42:56.048621,369
2021-12-27 15:42:56.048630,647
2021-12-27 15:42:56.048640,569
2021-12-27 15:42:56.048650,29
2021-12-27 15:42:56.048659,-546
2021-12-27 15:42:56.293075,-510
2021-12-27 15:42:56.293104,-93
2021-12-27 15:42:56.293116,13
2021-12-27 15:42:56.293125,-20
2021-12-27 15:42:56.293135,95
2021-12-27 15:42:56.293145,143
2021-12-27 15:42:56.293154,68
2021-12-27 15:42:56.293163,72
2021-12-27 15:42:56.293173,134
2021-12-27 15:42:56.293182,127
2021-12-27 15:42:56.293192,127
2021-12-27 15:42:56.293201,166
2021-12-27 15:42:56.293210,154
2021-12-27 15:42:56.293220,152
2021-12-27 15:42:56.293229,186
2021-12-27 15:42:56.293239,200
2021-12-27 15:42:56.293248,218
2021-12-27 15:42:56.293258,246
2021-12-27 15:42:56.293267,264
2021-12-27 15:42:56.293277,271
2021-12-27 15:42:56.293286,293
2021-12-27 15:42:56.293296,323
2021-12-27 15:42:56.293305,319
2021-12-27 15:42:56.293315,321
2021-12-27 15:42:56.293324,341
2021-12-27 15:42:56.293334,325
2021-12-27 15:42:56.293343,309
2021-12-27 15:42:56.293353,287
2021-12-27 15:42:56.293362,221
2021-12-27 15:42:56.293382,136
2021-12-27 15:42:56.488088,43
2021-12-27 15:42:56.488117,-59
2021-12-27 15:42:56.488128,-168
2021-12-27 15:42:56.488139,-232
2021-12-27 15:42:56.488148,-232
2021-12-27 15:42:56.488158,-234
2021-12-27 15:42:56.488167,-241
2021-12-27 15:42:56.488177,-250
2021-12-27 15:42:56.488186,-280
2021-12-27 15:42:56.488196,-268
2021-12-27 15:42:56.488205,-227
2021-12-27 15:42:56.488215,-205
2021-12-27 15:42:56.488224,-177
2021-12-27 15:42:56.488234,-161
2021-12-27 15:42:56.488243,-189
2021-12-27 15:42:56.488253,-223
2021-12-27 15:42:56.488262,-207
2021-12-27 15:42:56.488272,-154
2021-12-27 15:42:56.488281,-141
2021-12-27 15:42:56.488291,-143
2021-12-27 15:42:56.488301,-157
2021-12-27 15:42:56.488310,-189
2021-12-27 15:42:56.488320,-164
2021-12-27 15:42:56.488329,-123
2021-12-27 15:42:56.488339,-118
2021-12-27 15:42:56.488348,-102
2021-12-27 15:42:56.488357,-107
2021-12-27 15:42:56.488367,-125
2021-12-27 15:42:56.488376,-107
2021-12-27 15:42:56.488386,-84
2021-12-27 15:42:56.731893,-68
2021-12-27 15:42:56.731923,-61
2021-12-27 15:42:56.731935,-56
2021-12-27 15:42:56.731945,-77
2021-12-27 15:42:56.731954,-109
2021-12-27 15:42:56.731964,-86
2021-12-27 15:42:56.731973,-52
2021-12-27 15:42:56.731983,-50
2021-12-27 15:42:56.731992,-50
2021-12-27 15:42:56.732002,-84
2021-12-27 15:42:56.732011,-109
2021-12-27 15:42:56.732021,-72
2021-12-27 15:42:56.732030,-47
2021-12-27 15:42:56.732040,-36
2021-12-27 15:42:56.732049,-31
2021-12-27 15:42:56.732059,-56
2021-12-27 15:42:56.732068,-82
2021-12-27 15:42:56.732078,-70
2021-12-27 15:42:56.732087,-34
2021-12-27 15:42:56.732097,-20
2021-12-27 15:42:56.732106,-25
2021-12-27 15:42:56.732116,-22
2021-12-27 15:42:56.732126,-36
2021-12-27 15:42:56.732135,-27
2021-12-27 15:42:56.732145,4
2021-12-27 15:42:56.732154,11
2021-12-27 15:42:56.732164,13
2021-12-27 15:42:56.732173,4
2021-12-27 15:42:56.732183,-13
2021-12-27 15:42:56.732193,2
2021-12-27 15:42:56.973802,29
2021-12-27 15:42:56.973832,56
2021-12-27 15:42:56.973843,68
2021-12-27 15:42:56.973853,61
2021-12-27 15:42:56.973863,72
2021-12-27 15:42:56.973873,56
2021-12-27 15:42:56.973882,15
2021-12-27 15:42:56.973892,13
2021-12-27 15:42:56.973901,27
2021-12-27 15:42:56.973911,29
2021-12-27 15:42:56.973921,9
2021-12-27 15:42:56.973930,-18
2021-12-27 15:42:56.973940,-18
2021-12-27 15:42:56.973950,2
2021-12-27 15:42:56.973959,15
2021-12-27 15:42:56.973969,15
2021-12-27 15:42:56.973978,13
2021-12-27 15:42:56.973988,36
2021-12-27 15:42:56.973997,168
2021-12-27 15:42:56.974007,455
2021-12-27 15:42:56.974016,576
2021-12-27 15:42:56.974026,225
2021-12-27 15:42:56.974035,-394
2021-12-27 15:42:56.974045,-669
2021-12-27 15:42:56.974055,-353
2021-12-27 15:42:56.974064,-50
2021-12-27 15:42:56.974074,-66
2021-12-27 15:42:56.974083,-6
2021-12-27 15:42:56.974093,111
2021-12-27 15:42:56.974103,93
2021-12-27 15:42:57.170631,77
2021-12-27 15:42:57.170650,111
2021-12-27 15:42:57.170658,127
2021-12-27 15:42:57.170664,120
2021-12-27 15:42:57.170671,107
2021-12-27 15:42:57.170677,107
2021-12-27 15:42:57.170683,91
2021-12-27 15:42:57.170689,54
2021-12-27 15:42:57.170695,54
2021-12-27 15:42:57.170701,70
2021-12-27 15:42:57.170708,88
2021-12-27 15:42:57.170714,100
2021-12-27 15:42:57.170720,86
2021-12-27 15:42:57.170726,66
2021-12-27 15:42:57.170732,68
2021-12-27 15:42:57.170738,107
2021-12-27 15:42:57.170745,148
2021-12-27 15:42:57.170751,166
2021-12-27 15:42:57.170757,182
2021-12-27 15:42:57.170763,175
2021-12-27 15:42:57.170769,150
2021-12-27 15:42:57.170775,127
2021-12-27 15:42:57.170782,75
2021-12-27 15:42:57.170788,13
2021-12-27 15:42:57.170794,-52
2021-12-27 15:42:57.170800,-129
2021-12-27 15:42:57.170807,-186
2021-12-27 15:42:57.170813,-225
2021-12-27 15:42:57.170819,-236
2021-12-27 15:42:57.170825,-221
2021-12-27 15:42:57.365916,-211
2021-12-27 15:42:57.365947,-200
2021-12-27 15:42:57.365958,-202
2021-12-27 15:42:57.365968,-202
2021-12-27 15:42:57.365977,-175
2021-12-27 15:42:57.365987,-152
2021-12-27 15:42:57.365996,-127
2021-12-27 15:42:57.366006,-118
2021-12-27 15:42:57.366015,-152
2021-12-27 15:42:57.366025,-184
2021-12-27 15:42:57.366035,-186
2021-12-27 15:42:57.366044,-157
2021-12-27 15:42:57.366054,-120
2021-12-27 15:42:57.366063,-118
2021-12-27 15:42:57.366073,-138
2021-12-27 15:42:57.366083,-166
2021-12-27 15:42:57.366092,-150
2021-12-27 15:42:57.366102,-100
2021-12-27 15:42:57.366111,-91
2021-12-27 15:42:57.366121,-84
2021-12-27 15:42:57.366130,-79
2021-12-27 15:42:57.366140,-102
2021-12-27 15:42:57.366149,-88
2021-12-27 15:42:57.366159,-56
2021-12-27 15:42:57.366168,-66
2021-12-27 15:42:57.366178,-109
2021-12-27 15:42:57.366187,-134
2021-12-27 15:42:57.366197,-116
2021-12-27 15:42:57.366207,-102
2021-12-27 15:42:57.366216,-93
2021-12-27 15:42:57.608728,-61
2021-12-27 15:42:57.608748,-45
2021-12-27 15:42:57.608755,-50
2021-12-27 15:42:57.608762,-82
2021-12-27 15:42:57.608768,-113
2021-12-27 15:42:57.608774,-82
2021-12-27 15:42:57.608781,-50
2021-12-27 15:42:57.608787,-45
2021-12-27 15:42:57.608793,-31
2021-12-27 15:42:57.608799,-47
2021-12-27 15:42:57.608805,-82
2021-12-27 15:42:57.608811,-95
2021-12-27 15:42:57.608818,-97
2021-12-27 15:42:57.608824,-82
2021-12-27 15:42:57.608830,-68
2021-12-27 15:42:57.608836,-66
2021-12-27 15:42:57.608843,-63
2021-12-27 15:42:57.608849,-52
2021-12-27 15:42:57.608855,-25
2021-12-27 15:42:57.608861,-18
2021-12-27 15:42:57.608867,-20
2021-12-27 15:42:57.608873,-6
2021-12-27 15:42:57.608880,-2
2021-12-27 15:42:57.608886,15
2021-12-27 15:42:57.608892,38
2021-12-27 15:42:57.608898,54
2021-12-27 15:42:57.608904,70
2021-12-27 15:42:57.608910,52
2021-12-27 15:42:57.608917,29
2021-12-27 15:42:57.608923,27
2021-12-27 15:42:57.852759,29
2021-12-27 15:42:57.852788,47
2021-12-27 15:42:57.852800,50
2021-12-27 15:42:57.852809,43
2021-12-27 15:42:57.852819,41
2021-12-27 15:42:57.852828,18
2021-12-27 15:42:57.852838,6
2021-12-27 15:42:57.852847,27
2021-12-27 15:42:57.852857,45
2021-12-27 15:42:57.852866,104
2021-12-27 15:42:57.852875,305
2021-12-27 15:42:57.852885,585
2021-12-27 15:42:57.852894,624
2021-12-27 15:42:57.852904,164
2021-12-27 15:42:57.852914,-501
2021-12-27 15:42:57.852923,-642
2021-12-27 15:42:57.852933,-211
2021-12-27 15:42:57.852942,4
2021-12-27 15:42:57.852951,-72
2021-12-27 15:42:57.852961,2
2021-12-27 15:42:57.852970,95
2021-12-27 15:42:57.852980,56
2021-12-27 15:42:57.852989,66
2021-12-27 15:42:57.852999,107
2021-12-27 15:42:57.853008,97
2021-12-27 15:42:57.853017,79
2021-12-27 15:42:57.853027,75
2021-12-27 15:42:57.853036,72
2021-12-27 15:42:57.853051,68
2021-12-27 15:42:57.853060,79
2021-12-27 15:42:58.096921,77
2021-12-27 15:42:58.096952,50
2021-12-27 15:42:58.096963,72
2021-12-27 15:42:58.096973,116
2021-12-27 15:42:58.096983,134
2021-12-27 15:42:58.096992,175
2021-12-27 15:42:58.097002,202
2021-12-27 15:42:58.097011,200
2021-12-27 15:42:58.097020,209
2021-12-27 15:42:58.097030,223
2021-12-27 15:42:58.097039,243
2021-12-27 15:42:58.097049,250
2021-12-27 15:42:58.097058,225
2021-12-27 15:42:58.097067,157
2021-12-27 15:42:58.097077,59
2021-12-27 15:42:58.097086,-25
2021-12-27 15:42:58.097095,-113
2021-12-27 15:42:58.097105,-189
2021-12-27 15:42:58.097114,-214
2021-12-27 15:42:58.097124,-239
2021-12-27 15:42:58.097133,-264
2021-12-27 15:42:58.097143,-264
2021-12-27 15:42:58.097152,-255
2021-12-27 15:42:58.097161,-225
2021-12-27 15:42:58.097171,-202
2021-12-27 15:42:58.097180,-191
2021-12-27 15:42:58.097189,-184
2021-12-27 15:42:58.097199,-182
2021-12-27 15:42:58.097208,-145
2021-12-27 15:42:58.097217,-107
2021-12-27 15:42:58.291526,-102
2021-12-27 15:42:58.291548,-86
2021-12-27 15:42:58.291556,-84
2021-12-27 15:42:58.291562,-91
2021-12-27 15:42:58.291569,-68
2021-12-27 15:42:58.291575,-50
2021-12-27 15:42:58.291581,-29
2021-12-27 15:42:58.291587,-22
2021-12-27 15:42:58.291593,-56
2021-12-27 15:42:58.291600,-91
2021-12-27 15:42:58.291606,-79
2021-12-27 15:42:58.291612,-38
2021-12-27 15:42:58.291618,-31
2021-12-27 15:42:58.291624,-36
2021-12-27 15:42:58.291630,-38
2021-12-27 15:42:58.291637,-75
2021-12-27 15:42:58.291643,-86
2021-12-27 15:42:58.291649,-61
2021-12-27 15:42:58.291655,-84
2021-12-27 15:42:58.291661,-82
2021-12-27 15:42:58.291668,-59
2021-12-27 15:42:58.291674,-82
2021-12-27 15:42:58.291680,-84
2021-12-27 15:42:58.291686,-52
2021-12-27 15:42:58.291692,-27
2021-12-27 15:42:58.291698,-18
2021-12-27 15:42:58.291705,-20
2021-12-27 15:42:58.291711,-22
2021-12-27 15:42:58.291717,-31
2021-12-27 15:42:58.291723,-13
2021-12-27 15:42:58.535489,13
2021-12-27 15:42:58.535511,13
2021-12-27 15:42:58.535519,15
2021-12-27 15:42:58.535525,-6
2021-12-27 15:42:58.535532,-54
2021-12-27 15:42:58.535538,-45
2021-12-27 15:42:58.535544,-25
2021-12-27 15:42:58.535550,-50
2021-12-27 15:42:58.535556,-63
2021-12-27 15:42:58.535562,-47
2021-12-27 15:42:58.535569,-59
2021-12-27 15:42:58.535575,-93
2021-12-27 15:42:58.535581,-82
2021-12-27 15:42:58.535587,-54
2021-12-27 15:42:58.535593,-54
2021-12-27 15:42:58.535600,-50
2021-12-27 15:42:58.535606,-45
2021-12-27 15:42:58.535612,-45
2021-12-27 15:42:58.535618,-29
2021-12-27 15:42:58.535624,-36
2021-12-27 15:42:58.535630,-59
2021-12-27 15:42:58.535637,-54
2021-12-27 15:42:58.535643,-27
2021-12-27 15:42:58.535649,50
2021-12-27 15:42:58.535655,268
2021-12-27 15:42:58.535661,571
2021-12-27 15:42:58.535667,590
2021-12-27 15:42:58.535674,61
2021-12-27 15:42:58.535680,-567
2021-12-27 15:42:58.535686,-567
2021-12-27 15:42:58.778989,-129
2021-12-27 15:42:58.779012,13
2021-12-27 15:42:58.779020,-36
2021-12-27 15:42:58.779045,72
2021-12-27 15:42:58.779054,152
2021-12-27 15:42:58.779064,91
2021-12-27 15:42:58.779073,59
2021-12-27 15:42:58.779082,72
2021-12-27 15:42:58.779092,77
2021-12-27 15:42:58.779101,84
2021-12-27 15:42:58.779111,97
2021-12-27 15:42:58.779120,111
2021-12-27 15:42:58.779129,91
2021-12-27 15:42:58.779139,63
2021-12-27 15:42:58.779149,84
2021-12-27 15:42:58.779158,95
2021-12-27 15:42:58.779168,95
2021-12-27 15:42:58.779177,116
2021-12-27 15:42:58.779186,136
2021-12-27 15:42:58.779196,164
2021-12-27 15:42:58.779205,198
2021-12-27 15:42:58.779215,202
2021-12-27 15:42:58.779224,189
2021-12-27 15:42:58.779234,191
2021-12-27 15:42:58.779243,207
2021-12-27 15:42:58.779252,189
2021-12-27 15:42:58.779262,152
2021-12-27 15:42:58.779271,113
2021-12-27 15:42:58.779281,38
2021-12-27 15:42:58.779290,-36
2021-12-27 15:42:59.070383,-97
2021-12-27 15:42:59.070414,-168
2021-12-27 15:42:59.070426,-211
2021-12-27 15:42:59.070436,-234
2021-12-27 15:42:59.070445,-241
2021-12-27 15:42:59.070455,-216
2021-12-27 15:42:59.070465,-207
2021-12-27 15:42:59.070474,-223
2021-12-27 15:42:59.070484,-241
2021-12-27 15:42:59.070493,-232
2021-12-27 15:42:59.070503,-191
2021-12-27 15:42:59.070512,-166
2021-12-27 15:42:59.070522,-177
2021-12-27 15:42:59.070532,-236
2021-12-27 15:42:59.070542,-287
2021-12-27 15:42:59.070551,-241
2021-12-27 15:42:59.070561,-182
2021-12-27 15:42:59.070570,-166
2021-12-27 15:42:59.070580,-145
2021-12-27 15:42:59.070590,-141
2021-12-27 15:42:59.070599,-148
2021-12-27 15:42:59.070609,-143
2021-12-27 15:42:59.070618,-123
2021-12-27 15:42:59.070628,-107
2021-12-27 15:42:59.070637,-127
2021-12-27 15:42:59.070647,-134
2021-12-27 15:42:59.070657,-123
2021-12-27 15:42:59.070666,-138
2021-12-27 15:42:59.070676,-123
2021-12-27 15:42:59.070685,-93
2021-12-27 15:42:59.218116,-82
2021-12-27 15:42:59.218146,-66
2021-12-27 15:42:59.218158,-77
2021-12-27 15:42:59.218168,-100
2021-12-27 15:42:59.218177,-91
2021-12-27 15:42:59.218187,-63
2021-12-27 15:42:59.218197,-38
2021-12-27 15:42:59.218206,-29
2021-12-27 15:42:59.218216,-41
2021-12-27 15:42:59.218225,-77
2021-12-27 15:42:59.218235,-97
2021-12-27 15:42:59.218244,-59
2021-12-27 15:42:59.218253,-38
2021-12-27 15:42:59.218263,-38
2021-12-27 15:42:59.218272,-20
2021-12-27 15:42:59.218282,-50
2021-12-27 15:42:59.218292,-86
2021-12-27 15:42:59.218301,-61
2021-12-27 15:42:59.218311,-36
2021-12-27 15:42:59.218320,-31
2021-12-27 15:42:59.218330,-22
2021-12-27 15:42:59.218339,-6
2021-12-27 15:42:59.218349,0
2021-12-27 15:42:59.218358,6
2021-12-27 15:42:59.218368,34
2021-12-27 15:42:59.218377,27
2021-12-27 15:42:59.218387,-13
2021-12-27 15:42:59.218396,-43
2021-12-27 15:42:59.218406,-66
2021-12-27 15:42:59.218415,-52
2021-12-27 15:42:59.461858,-6
2021-12-27 15:42:59.461880,2
2021-12-27 15:42:59.461887,-2
2021-12-27 15:42:59.461894,-11
2021-12-27 15:42:59.461900,-36
2021-12-27 15:42:59.461906,-54
2021-12-27 15:42:59.461913,-36
2021-12-27 15:42:59.461919,13
2021-12-27 15:42:59.461925,82
2021-12-27 15:42:59.461931,275
2021-12-27 15:42:59.461938,553
2021-12-27 15:42:59.461944,571
2021-12-27 15:42:59.461950,138
2021-12-27 15:42:59.461957,-478
2021-12-27 15:42:59.461963,-615
2021-12-27 15:42:59.461969,-200
2021-12-27 15:42:59.461975,0
2021-12-27 15:42:59.461982,-66
2021-12-27 15:42:59.461988,4
2021-12-27 15:42:59.461994,52
2021-12-27 15:42:59.462000,20
2021-12-27 15:42:59.462007,43
2021-12-27 15:42:59.462013,75
2021-12-27 15:42:59.462019,75
2021-12-27 15:42:59.462026,84
2021-12-27 15:42:59.462032,123
2021-12-27 15:42:59.462038,138
2021-12-27 15:42:59.462044,107
2021-12-27 15:42:59.462050,84
2021-12-27 15:42:59.462057,86
2021-12-27 15:42:59.705743,109
2021-12-27 15:42:59.705773,141
2021-12-27 15:42:59.705785,161
2021-12-27 15:42:59.705795,177
2021-12-27 15:42:59.705805,186
2021-12-27 15:42:59.705815,200
2021-12-27 15:42:59.705824,195
2021-12-27 15:42:59.705834,173
2021-12-27 15:42:59.705843,198
2021-12-27 15:42:59.705853,223
2021-12-27 15:42:59.705863,200
2021-12-27 15:42:59.705872,186
2021-12-27 15:42:59.705882,129
2021-12-27 15:42:59.705891,20
2021-12-27 15:42:59.705901,-54
2021-12-27 15:42:59.705910,-120
2021-12-27 15:42:59.705920,-184
2021-12-27 15:42:59.705929,-221
2021-12-27 15:42:59.705939,-248
2021-12-27 15:42:59.705948,-266
2021-12-27 15:42:59.705958,-268
2021-12-27 15:42:59.705967,-255
2021-12-27 15:42:59.705977,-232
2021-12-27 15:42:59.705994,-211
2021-12-27 15:42:59.706003,-184
2021-12-27 15:42:59.706013,-180
2021-12-27 15:42:59.706022,-177
2021-12-27 15:42:59.706032,-154
2021-12-27 15:42:59.706041,-141
2021-12-27 15:42:59.706051,-132
2021-12-27 15:42:59.947926,-138
2021-12-27 15:42:59.947947,-145
2021-12-27 15:42:59.947954,-129
2021-12-27 15:42:59.947960,-123
2021-12-27 15:42:59.947966,-111
2021-12-27 15:42:59.947973,-86
2021-12-27 15:42:59.947979,-77
2021-12-27 15:42:59.947985,-82
2021-12-27 15:42:59.947991,-111
2021-12-27 15:42:59.947997,-120
2021-12-27 15:42:59.948003,-86
2021-12-27 15:42:59.948009,-70
2021-12-27 15:42:59.948015,-59
2021-12-27 15:42:59.948022,-56
2021-12-27 15:42:59.948028,-95
2021-12-27 15:42:59.948034,-123
2021-12-27 15:42:59.948040,-97
2021-12-27 15:42:59.948046,-66
2021-12-27 15:42:59.948052,-56
2021-12-27 15:42:59.948059,-47
2021-12-27 15:42:59.948065,-43
2021-12-27 15:42:59.948071,-63
2021-12-27 15:42:59.948077,-59
2021-12-27 15:42:59.948083,-45
2021-12-27 15:42:59.948089,-93
2021-12-27 15:42:59.948095,-113
2021-12-27 15:42:59.948101,-84
2021-12-27 15:42:59.948108,-93
2021-12-27 15:42:59.948114,-88
2021-12-27 15:42:59.948120,-56
2021-12-27 15:43:00.144443,-36
2021-12-27 15:43:00.144464,-43
2021-12-27 15:43:00.144471,-77
2021-12-27 15:43:00.144478,-113
2021-12-27 15:43:00.144484,-118
2021-12-27 15:43:00.144491,-88
2021-12-27 15:43:00.144497,-54
2021-12-27 15:43:00.144503,-36
2021-12-27 15:43:00.144509,-6
2021-12-27 15:43:00.144515,-27
2021-12-27 15:43:00.144522,-68
2021-12-27 15:43:00.144528,-31
2021-12-27 15:43:00.144534,-9
2021-12-27 15:43:00.144540,-29
2021-12-27 15:43:00.144547,-34
2021-12-27 15:43:00.144553,-45
2021-12-27 15:43:00.144559,-54
2021-12-27 15:43:00.144566,-45
2021-12-27 15:43:00.144572,-15
2021-12-27 15:43:00.144578,9
2021-12-27 15:43:00.144584,2
2021-12-27 15:43:00.144591,-4
2021-12-27 15:43:00.144597,-2
2021-12-27 15:43:00.144603,4
2021-12-27 15:43:00.144609,70
2021-12-27 15:43:00.144616,241
2021-12-27 15:43:00.144622,514
2021-12-27 15:43:00.144628,651
2021-12-27 15:43:00.144634,378
2021-12-27 15:43:00.144641,-221
2021-12-27 15:43:00.388499,-576
2021-12-27 15:43:00.388529,-291
2021-12-27 15:43:00.388541,47
2021-12-27 15:43:00.388551,6
2021-12-27 15:43:00.388561,-6
2021-12-27 15:43:00.388571,63
2021-12-27 15:43:00.388581,45
2021-12-27 15:43:00.388591,59
2021-12-27 15:43:00.388600,107
2021-12-27 15:43:00.388610,109
2021-12-27 15:43:00.388620,111
2021-12-27 15:43:00.388630,109
2021-12-27 15:43:00.388639,109
2021-12-27 15:43:00.388649,127
2021-12-27 15:43:00.388659,150
2021-12-27 15:43:00.388669,166
2021-12-27 15:43:00.388678,184
2021-12-27 15:43:00.388688,211
2021-12-27 15:43:00.388698,234
2021-12-27 15:43:00.388708,257
2021-12-27 15:43:00.388718,287
2021-12-27 15:43:00.388727,287
2021-12-27 15:43:00.388737,312
2021-12-27 15:43:00.388746,353
2021-12-27 15:43:00.388756,348
2021-12-27 15:43:00.388766,353
2021-12-27 15:43:00.388776,355
2021-12-27 15:43:00.388785,305
2021-12-27 15:43:00.388795,241
2021-12-27 15:43:00.388805,157
2021-12-27 15:43:00.680418,11
2021-12-27 15:43:00.680441,-111
2021-12-27 15:43:00.680449,-166
2021-12-27 15:43:00.680455,-211
2021-12-27 15:43:00.680461,-266
2021-12-27 15:43:00.680468,-282
2021-12-27 15:43:00.680474,-321
2021-12-27 15:43:00.680480,-387
2021-12-27 15:43:00.680486,-357
2021-12-27 15:43:00.680493,-305
2021-12-27 15:43:00.680499,-300
2021-12-27 15:43:00.680505,-271
2021-12-27 15:43:00.680511,-259
2021-12-27 15:43:00.680518,-287
2021-12-27 15:43:00.680524,-280
2021-12-27 15:43:00.680530,-236
2021-12-27 15:43:00.680536,-205
2021-12-27 15:43:00.680542,-195
2021-12-27 15:43:00.680549,-170
2021-12-27 15:43:00.680555,-152
2021-12-27 15:43:00.680561,-168
2021-12-27 15:43:00.680568,-154
2021-12-27 15:43:00.680574,-132
2021-12-27 15:43:00.680580,-111
2021-12-27 15:43:00.680586,-82
2021-12-27 15:43:00.680593,-91
2021-12-27 15:43:00.680599,-104
2021-12-27 15:43:00.680605,-91
2021-12-27 15:43:00.680611,-82
2021-12-27 15:43:00.680618,-68
2021-12-27 15:43:00.874941,-54
2021-12-27 15:43:00.874962,-50
2021-12-27 15:43:00.874970,-52
2021-12-27 15:43:00.874977,-63
2021-12-27 15:43:00.874983,-54
2021-12-27 15:43:00.874989,-31
2021-12-27 15:43:00.874996,-13
2021-12-27 15:43:00.875002,-11
2021-12-27 15:43:00.875008,-47
2021-12-27 15:43:00.875015,-68
2021-12-27 15:43:00.875021,-41
2021-12-27 15:43:00.875027,-20
2021-12-27 15:43:00.875034,-2
2021-12-27 15:43:00.875040,2
2021-12-27 15:43:00.875047,-18
2021-12-27 15:43:00.875053,-52
2021-12-27 15:43:00.875059,-59
2021-12-27 15:43:00.875066,-22
2021-12-27 15:43:00.875072,-4
2021-12-27 15:43:00.875078,-2
2021-12-27 15:43:00.875085,4
2021-12-27 15:43:00.875091,-36
2021-12-27 15:43:00.875097,-59
2021-12-27 15:43:00.875104,-27
2021-12-27 15:43:00.875110,-11
2021-12-27 15:43:00.875116,6
2021-12-27 15:43:00.875122,29
2021-12-27 15:43:00.875129,27
2021-12-27 15:43:00.875135,22
2021-12-27 15:43:00.875141,43
2021-12-27 15:43:01.166112,70
2021-12-27 15:43:01.166131,61
2021-12-27 15:43:01.166137,38
2021-12-27 15:43:01.166142,13
2021-12-27 15:43:01.166148,-25
2021-12-27 15:43:01.166153,-27
2021-12-27 15:43:01.166158,-41
2021-12-27 15:43:01.166163,-84
2021-12-27 15:43:01.166168,-63
2021-12-27 15:43:01.166174,-41
2021-12-27 15:43:01.166179,-75
2021-12-27 15:43:01.166184,-72
2021-12-27 15:43:01.166189,-29
2021-12-27 15:43:01.166194,54
2021-12-27 15:43:01.166199,259
2021-12-27 15:43:01.166204,533
2021-12-27 15:43:01.166209,562
2021-12-27 15:43:01.166214,134
2021-12-27 15:43:01.166220,-464
2021-12-27 15:43:01.166225,-610
2021-12-27 15:43:01.166230,-246
2021-12-27 15:43:01.166235,-15
2021-12-27 15:43:01.166240,-47
2021-12-27 15:43:01.166245,22
2021-12-27 15:43:01.166250,116
2021-12-27 15:43:01.166255,86
2021-12-27 15:43:01.166260,93
2021-12-27 15:43:01.166265,136
2021-12-27 15:43:01.166270,127
2021-12-27 15:43:01.166275,127
2021-12-27 15:43:01.362755,152
2021-12-27 15:43:01.362785,175
2021-12-27 15:43:01.362797,189
2021-12-27 15:43:01.362807,182
2021-12-27 15:43:01.362817,195
2021-12-27 15:43:01.362827,205
2021-12-27 15:43:01.362836,198
2021-12-27 15:43:01.362846,221
2021-12-27 15:43:01.362855,264
2021-12-27 15:43:01.362865,305
2021-12-27 15:43:01.362875,328
2021-12-27 15:43:01.362885,346
2021-12-27 15:43:01.362894,350
2021-12-27 15:43:01.362904,328
2021-12-27 15:43:01.362914,332
2021-12-27 15:43:01.362923,339
2021-12-27 15:43:01.362933,300
2021-12-27 15:43:01.362943,252
2021-12-27 15:43:01.362952,148
2021-12-27 15:43:01.362962,2
2021-12-27 15:43:01.362972,-86
2021-12-27 15:43:01.362982,-164
2021-12-27 15:43:01.362992,-243
2021-12-27 15:43:01.363002,-271
2021-12-27 15:43:01.363012,-280
2021-12-27 15:43:01.363021,-282
2021-12-27 15:43:01.363031,-280
2021-12-27 15:43:01.363041,-271
2021-12-27 15:43:01.363050,-250
2021-12-27 15:43:01.363060,-227
2021-12-27 15:43:01.655411,-214
2021-12-27 15:43:01.655434,-216
2021-12-27 15:43:01.655442,-205
2021-12-27 15:43:01.655448,-180
2021-12-27 15:43:01.655455,-164
2021-12-27 15:43:01.655461,-136
2021-12-27 15:43:01.655467,-127
2021-12-27 15:43:01.655473,-161
2021-12-27 15:43:01.655480,-168
2021-12-27 15:43:01.655486,-145
2021-12-27 15:43:01.655492,-127
2021-12-27 15:43:01.655498,-118
2021-12-27 15:43:01.655504,-143
2021-12-27 15:43:01.655511,-173
2021-12-27 15:43:01.655517,-191
2021-12-27 15:43:01.655523,-202
2021-12-27 15:43:01.655529,-180
2021-12-27 15:43:01.655535,-150
2021-12-27 15:43:01.655542,-129
2021-12-27 15:43:01.655548,-138
2021-12-27 15:43:01.655554,-173
2021-12-27 15:43:01.655560,-170
2021-12-27 15:43:01.655567,-148
2021-12-27 15:43:01.655573,-123
2021-12-27 15:43:01.655579,-93
2021-12-27 15:43:01.655585,-88
2021-12-27 15:43:01.655591,-97
2021-12-27 15:43:01.655597,-104
2021-12-27 15:43:01.655603,-86
2021-12-27 15:43:01.655610,-50
2021-12-27 15:43:01.752812,-41
2021-12-27 15:43:01.752842,-41
2021-12-27 15:43:01.752854,-45
2021-12-27 15:43:01.752864,-56
2021-12-27 15:43:01.752874,-25
2021-12-27 15:43:01.752883,-6
2021-12-27 15:43:01.752893,-9
2021-12-27 15:43:01.752902,6
2021-12-27 15:43:01.752912,0
2021-12-27 15:43:01.752922,-27
2021-12-27 15:43:01.752931,-34
2021-12-27 15:43:01.752941,-2
2021-12-27 15:43:01.752951,25
2021-12-27 15:43:01.752960,13
2021-12-27 15:43:01.752970,11
2021-12-27 15:43:01.752979,13
2021-12-27 15:43:01.752989,-4
2021-12-27 15:43:01.753004,-11
2021-12-27 15:43:01.753014,13
2021-12-27 15:43:01.753024,45
2021-12-27 15:43:01.753033,45
2021-12-27 15:43:01.753043,9
2021-12-27 15:43:01.753053,-18
2021-12-27 15:43:01.753062,-18
2021-12-27 15:43:01.753072,-11
2021-12-27 15:43:01.753082,4
2021-12-27 15:43:01.753092,9
2021-12-27 15:43:01.753101,-4
2021-12-27 15:43:01.753111,-36
2021-12-27 15:43:01.753121,-43
2021-12-27 15:43:01.997047,-4
2021-12-27 15:43:01.997078,15
2021-12-27 15:43:01.997090,18
2021-12-27 15:43:01.997099,11
2021-12-27 15:43:01.997109,0
2021-12-27 15:43:01.997119,138
2021-12-27 15:43:01.997129,464
2021-12-27 15:43:01.997139,660
2021-12-27 15:43:01.997148,419
2021-12-27 15:43:01.997158,-205
2021-12-27 15:43:01.997168,-638
2021-12-27 15:43:01.997177,-423
2021-12-27 15:43:01.997187,-59
2021-12-27 15:43:01.997197,-18
2021-12-27 15:43:01.997206,-6
2021-12-27 15:43:01.997216,107
2021-12-27 15:43:01.997225,111
2021-12-27 15:43:01.997235,52
2021-12-27 15:43:01.997245,52
2021-12-27 15:43:01.997254,52
2021-12-27 15:43:01.997264,56
2021-12-27 15:43:01.997273,86
2021-12-27 15:43:01.997283,97
2021-12-27 15:43:01.997293,111
2021-12-27 15:43:01.997302,134
2021-12-27 15:43:01.997312,152
2021-12-27 15:43:01.997321,161
2021-12-27 15:43:01.997331,150
2021-12-27 15:43:01.997340,173
2021-12-27 15:43:01.997350,218
2021-12-27 15:43:02.288903,232
2021-12-27 15:43:02.288934,264
2021-12-27 15:43:02.288946,298
2021-12-27 15:43:02.288956,291
2021-12-27 15:43:02.288966,293
2021-12-27 15:43:02.288975,284
2021-12-27 15:43:02.288985,232
2021-12-27 15:43:02.288994,202
2021-12-27 15:43:02.289004,189
2021-12-27 15:43:02.289014,134
2021-12-27 15:43:02.289023,43
2021-12-27 15:43:02.289033,-45
2021-12-27 15:43:02.289042,-141
2021-12-27 15:43:02.289052,-227
2021-12-27 15:43:02.289062,-248
2021-12-27 15:43:02.289072,-259
2021-12-27 15:43:02.289081,-277
2021-12-27 15:43:02.289091,-255
2021-12-27 15:43:02.289101,-250
2021-12-27 15:43:02.289110,-255
2021-12-27 15:43:02.289120,-252
2021-12-27 15:43:02.289129,-264
2021-12-27 15:43:02.289139,-246
2021-12-27 15:43:02.289149,-205
2021-12-27 15:43:02.289158,-186
2021-12-27 15:43:02.289168,-175
2021-12-27 15:43:02.289178,-166
2021-12-27 15:43:02.289187,-141
2021-12-27 15:43:02.289197,-120
2021-12-27 15:43:02.289206,-107
2021-12-27 15:43:02.435818,-86
2021-12-27 15:43:02.435849,-84
2021-12-27 15:43:02.435861,-86
2021-12-27 15:43:02.435871,-75
2021-12-27 15:43:02.435881,-68
2021-12-27 15:43:02.435890,-61
2021-12-27 15:43:02.435900,-50
2021-12-27 15:43:02.435909,-54
2021-12-27 15:43:02.435918,-77
2021-12-27 15:43:02.435928,-88
2021-12-27 15:43:02.435938,-63
2021-12-27 15:43:02.435947,-47
2021-12-27 15:43:02.435957,-52
2021-12-27 15:43:02.435966,-45
2021-12-27 15:43:02.435975,-79
2021-12-27 15:43:02.435985,-111
2021-12-27 15:43:02.435994,-79
2021-12-27 15:43:02.436004,-54
2021-12-27 15:43:02.436013,-43
2021-12-27 15:43:02.436023,-27
2021-12-27 15:43:02.436032,-43
2021-12-27 15:43:02.436042,-75
2021-12-27 15:43:02.436051,-100
2021-12-27 15:43:02.436061,-136
2021-12-27 15:43:02.436070,-166
2021-12-27 15:43:02.436079,-141
2021-12-27 15:43:02.436089,-116
2021-12-27 15:43:02.436098,-145
2021-12-27 15:43:02.436108,-134
2021-12-27 15:43:02.436117,-84
2021-12-27 15:43:02.728035,-70
2021-12-27 15:43:02.728064,-56
2021-12-27 15:43:02.728072,-63
2021-12-27 15:43:02.728078,-107
2021-12-27 15:43:02.728085,-116
2021-12-27 15:43:02.728091,-86
2021-12-27 15:43:02.728097,-59
2021-12-27 15:43:02.728103,-45
2021-12-27 15:43:02.728109,-36
2021-12-27 15:43:02.728115,-50
2021-12-27 15:43:02.728122,-82
2021-12-27 15:43:02.728128,-50
2021-12-27 15:43:02.728134,2
2021-12-27 15:43:02.728140,-6
2021-12-27 15:43:02.728146,-20
2021-12-27 15:43:02.728153,-34
2021-12-27 15:43:02.728159,-50
2021-12-27 15:43:02.728165,-31
2021-12-27 15:43:02.728171,-9
2021-12-27 15:43:02.728177,4
2021-12-27 15:43:02.728183,6
2021-12-27 15:43:02.728190,-2
2021-12-27 15:43:02.728196,2
2021-12-27 15:43:02.728202,9
2021-12-27 15:43:02.728208,13
2021-12-27 15:43:02.728214,41
2021-12-27 15:43:02.728221,175
2021-12-27 15:43:02.728227,464
2021-12-27 15:43:02.728233,656
2021-12-27 15:43:02.728239,426
2021-12-27 15:43:02.971041,-207
2021-12-27 15:43:02.971072,-631
2021-12-27 15:43:02.971084,-366
2021-12-27 15:43:02.971094,-9
2021-12-27 15:43:02.971103,-36
2021-12-27 15:43:02.971113,-38
2021-12-27 15:43:02.971122,104
2021-12-27 15:43:02.971132,141
2021-12-27 15:43:02.971141,111
2021-12-27 15:43:02.971151,125
2021-12-27 15:43:02.971161,141
2021-12-27 15:43:02.971170,88
2021-12-27 15:43:02.971180,54
2021-12-27 15:43:02.971189,100
2021-12-27 15:43:02.971199,125
2021-12-27 15:43:02.971208,125
2021-12-27 15:43:02.971218,141
2021-12-27 15:43:02.971227,136
2021-12-27 15:43:02.971237,116
2021-12-27 15:43:02.971247,123
2021-12-27 15:43:02.971256,152
2021-12-27 15:43:02.971266,161
2021-12-27 15:43:02.971275,182
2021-12-27 15:43:02.971285,234
2021-12-27 15:43:02.971295,259
2021-12-27 15:43:02.971304,264
2021-12-27 15:43:02.971314,259
2021-12-27 15:43:02.971323,218
2021-12-27 15:43:02.971333,198
2021-12-27 15:43:02.971342,150
2021-12-27 15:43:03.213686,25
2021-12-27 15:43:03.213701,-59
2021-12-27 15:43:03.213706,-107
2021-12-27 15:43:03.213711,-184
2021-12-27 15:43:03.213715,-239
2021-12-27 15:43:03.213720,-262
2021-12-27 15:43:03.213724,-296
2021-12-27 15:43:03.213729,-332
2021-12-27 15:43:03.213733,-321
2021-12-27 15:43:03.213738,-296
2021-12-27 15:43:03.213742,-284
2021-12-27 15:43:03.213746,-250
2021-12-27 15:43:03.213751,-241
2021-12-27 15:43:03.213755,-275
2021-12-27 15:43:03.213760,-264
2021-12-27 15:43:03.213764,-225
2021-12-27 15:43:03.213769,-200
2021-12-27 15:43:03.213773,-170
2021-12-27 15:43:03.213777,-157
2021-12-27 15:43:03.213782,-145
2021-12-27 15:43:03.213786,-136
2021-12-27 15:43:03.213790,-127
2021-12-27 15:43:03.213795,-109
2021-12-27 15:43:03.213799,-93
2021-12-27 15:43:03.213803,-75
2021-12-27 15:43:03.213808,-75
2021-12-27 15:43:03.213812,-93
2021-12-27 15:43:03.213816,-86
2021-12-27 15:43:03.213821,-93
2021-12-27 15:43:03.213825,-111
2021-12-27 15:43:03.410074,-97
2021-12-27 15:43:03.410094,-84
2021-12-27 15:43:03.410104,-88
2021-12-27 15:43:03.410112,-95
2021-12-27 15:43:03.410120,-84
2021-12-27 15:43:03.410128,-59
2021-12-27 15:43:03.410136,-50
2021-12-27 15:43:03.410145,-52
2021-12-27 15:43:03.410152,-79
2021-12-27 15:43:03.410160,-104
2021-12-27 15:43:03.410168,-75
2021-12-27 15:43:03.410176,-52
2021-12-27 15:43:03.410183,-36
2021-12-27 15:43:03.410191,-18
2021-12-27 15:43:03.410199,-56
2021-12-27 15:43:03.410206,-97
2021-12-27 15:43:03.410213,-72
2021-12-27 15:43:03.410220,-36
2021-12-27 15:43:03.410227,-29
2021-12-27 15:43:03.410234,-27
2021-12-27 15:43:03.410241,-20
2021-12-27 15:43:03.410421,-27
2021-12-27 15:43:03.410427,0
2021-12-27 15:43:03.410432,47
2021-12-27 15:43:03.410436,38
2021-12-27 15:43:03.410441,36
2021-12-27 15:43:03.410445,54
2021-12-27 15:43:03.410449,22
2021-12-27 15:43:03.410454,2
2021-12-27 15:43:03.410458,27
2021-12-27 15:43:03.605237,34
2021-12-27 15:43:03.605259,9
2021-12-27 15:43:03.605268,-15
2021-12-27 15:43:03.605275,-18
2021-12-27 15:43:03.605283,-45
2021-12-27 15:43:03.605290,-86
2021-12-27 15:43:03.605298,-68
2021-12-27 15:43:03.605306,-27
2021-12-27 15:43:03.605314,-9
2021-12-27 15:43:03.605322,41
2021-12-27 15:43:03.605330,221
2021-12-27 15:43:03.605338,512
2021-12-27 15:43:03.605345,551
2021-12-27 15:43:03.605353,75
2021-12-27 15:43:03.605361,-537
2021-12-27 15:43:03.605369,-610
2021-12-27 15:43:03.605377,-218
2021-12-27 15:43:03.605386,-66
2021-12-27 15:43:03.605393,-97
2021-12-27 15:43:03.605401,34
2021-12-27 15:43:03.605410,109
2021-12-27 15:43:03.605417,70
2021-12-27 15:43:03.605426,97
2021-12-27 15:43:03.605433,129
2021-12-27 15:43:03.605441,134
2021-12-27 15:43:03.605449,150
2021-12-27 15:43:03.605457,168
2021-12-27 15:43:03.605465,164
2021-12-27 15:43:03.605474,136
2021-12-27 15:43:03.605481,132
2021-12-27 15:43:03.945999,145
2021-12-27 15:43:03.946021,166
2021-12-27 15:43:03.946029,205
2021-12-27 15:43:03.946035,202
2021-12-27 15:43:03.946042,191
2021-12-27 15:43:03.946048,193
2021-12-27 15:43:03.946054,191
2021-12-27 15:43:03.946061,218
2021-12-27 15:43:03.946067,239
2021-12-27 15:43:03.946073,236
2021-12-27 15:43:03.946079,252
2021-12-27 15:43:03.946118,225
2021-12-27 15:43:03.946124,157
2021-12-27 15:43:03.946130,111
2021-12-27 15:43:03.946136,50
2021-12-27 15:43:03.946143,-36
2021-12-27 15:43:03.946149,-118
2021-12-27 15:43:03.946155,-175
2021-12-27 15:43:03.946161,-223
2021-12-27 15:43:03.946168,-257
2021-12-27 15:43:03.946174,-246
2021-12-27 15:43:03.946180,-239
2021-12-27 15:43:03.946187,-239
2021-12-27 15:43:03.946193,-214
2021-12-27 15:43:03.946199,-207
2021-12-27 15:43:03.946205,-205
2021-12-27 15:43:03.946212,-177
2021-12-27 15:43:03.946218,-166
2021-12-27 15:43:03.946224,-148
2021-12-27 15:43:03.946231,-116
2021-12-27 15:43:04.092773,-97
2021-12-27 15:43:04.092795,-86
2021-12-27 15:43:04.092803,-88
2021-12-27 15:43:04.092809,-86
2021-12-27 15:43:04.092816,-93
2021-12-27 15:43:04.092822,-109
2021-12-27 15:43:04.092829,-109
2021-12-27 15:43:04.092835,-125
2021-12-27 15:43:04.092841,-132
2021-12-27 15:43:04.092848,-118
2021-12-27 15:43:04.092854,-129
2021-12-27 15:43:04.092860,-157
2021-12-27 15:43:04.092867,-161
2021-12-27 15:43:04.092873,-145
2021-12-27 15:43:04.092883,-129
2021-12-27 15:43:04.092889,-123
2021-12-27 15:43:04.092896,-100
2021-12-27 15:43:04.092902,-82
2021-12-27 15:43:04.092908,-77
2021-12-27 15:43:04.092915,-75
2021-12-27 15:43:04.092921,-93
2021-12-27 15:43:04.092928,-95
2021-12-27 15:43:04.092934,-75
2021-12-27 15:43:04.092940,-63
2021-12-27 15:43:04.092947,-43
2021-12-27 15:43:04.092953,-38
2021-12-27 15:43:04.092960,-56
2021-12-27 15:43:04.092966,-59
2021-12-27 15:43:04.092973,-41
2021-12-27 15:43:04.092979,-15
2021-12-27 15:43:04.385293,-9
2021-12-27 15:43:04.385313,-15
2021-12-27 15:43:04.385321,-20
2021-12-27 15:43:04.385328,-34
2021-12-27 15:43:04.385334,-11
2021-12-27 15:43:04.385340,22
2021-12-27 15:43:04.385347,13
2021-12-27 15:43:04.385353,-2
2021-12-27 15:43:04.385360,-27
2021-12-27 15:43:04.385366,-56
2021-12-27 15:43:04.385373,-47
2021-12-27 15:43:04.385379,-34
2021-12-27 15:43:04.385385,-29
2021-12-27 15:43:04.385392,-13
2021-12-27 15:43:04.385398,-20
2021-12-27 15:43:04.385405,-56
2021-12-27 15:43:04.385411,-72
2021-12-27 15:43:04.385418,-36
2021-12-27 15:43:04.385424,-11
2021-12-27 15:43:04.385431,-11
2021-12-27 15:43:04.385437,11
2021-12-27 15:43:04.385443,29
2021-12-27 15:43:04.385450,125
2021-12-27 15:43:04.385456,407
2021-12-27 15:43:04.385463,651
2021-12-27 15:43:04.385469,540
2021-12-27 15:43:04.385503,-6
2021-12-27 15:43:04.385562,-574
2021-12-27 15:43:04.385569,-508
2021-12-27 15:43:04.385579,-77
2021-12-27 15:43:04.580465,34
2021-12-27 15:43:04.580487,13
2021-12-27 15:43:04.580495,138
2021-12-27 15:43:04.580501,173
2021-12-27 15:43:04.580507,84
2021-12-27 15:43:04.580514,88
2021-12-27 15:43:04.580520,154
2021-12-27 15:43:04.580526,154
2021-12-27 15:43:04.580532,143
2021-12-27 15:43:04.580538,127
2021-12-27 15:43:04.580545,84
2021-12-27 15:43:04.580551,93
2021-12-27 15:43:04.580557,136
2021-12-27 15:43:04.580563,170
2021-12-27 15:43:04.580570,189
2021-12-27 15:43:04.580576,202
2021-12-27 15:43:04.580582,209
2021-12-27 15:43:04.580588,177
2021-12-27 15:43:04.580595,182
2021-12-27 15:43:04.580601,257
2021-12-27 15:43:04.580607,293
2021-12-27 15:43:04.580613,296
2021-12-27 15:43:04.580620,305
2021-12-27 15:43:04.580626,282
2021-12-27 15:43:04.580632,243
2021-12-27 15:43:04.580638,207
2021-12-27 15:43:04.580644,136
2021-12-27 15:43:04.580651,34
2021-12-27 15:43:04.580657,-61
2021-12-27 15:43:04.580663,-134
2021-12-27 15:43:04.823418,-207
2021-12-27 15:43:04.823440,-246
2021-12-27 15:43:04.823448,-255
2021-12-27 15:43:04.823455,-277
2021-12-27 15:43:04.823462,-271
2021-12-27 15:43:04.823468,-246
2021-12-27 15:43:04.823474,-239
2021-12-27 15:43:04.823480,-218
2021-12-27 15:43:04.823487,-200
2021-12-27 15:43:04.823493,-195
2021-12-27 15:43:04.823500,-193
2021-12-27 15:43:04.823506,-225
2021-12-27 15:43:04.823512,-252
2021-12-27 15:43:04.823518,-227
2021-12-27 15:43:04.823525,-193
2021-12-27 15:43:04.823531,-182
2021-12-27 15:43:04.823537,-168
2021-12-27 15:43:04.823544,-143
2021-12-27 15:43:04.823550,-159
2021-12-27 15:43:04.823556,-189
2021-12-27 15:43:04.823563,-161
2021-12-27 15:43:04.823569,-141
2021-12-27 15:43:04.823575,-150
2021-12-27 15:43:04.823582,-143
2021-12-27 15:43:04.823588,-143
2021-12-27 15:43:04.823595,-150
2021-12-27 15:43:04.823601,-154
2021-12-27 15:43:04.823607,-159
2021-12-27 15:43:04.823614,-145
2021-12-27 15:43:04.823620,-134
2021-12-27 15:43:05.018851,-127
2021-12-27 15:43:05.018867,-127
2021-12-27 15:43:05.018872,-141
2021-12-27 15:43:05.018877,-141
2021-12-27 15:43:05.018881,-129
2021-12-27 15:43:05.018886,-111
2021-12-27 15:43:05.018890,-86
2021-12-27 15:43:05.018895,-100
2021-12-27 15:43:05.018899,-111
2021-12-27 15:43:05.018903,-79
2021-12-27 15:43:05.018908,-29
2021-12-27 15:43:05.018912,9
2021-12-27 15:43:05.018917,13
2021-12-27 15:43:05.018921,-22
2021-12-27 15:43:05.018925,-68
2021-12-27 15:43:05.018930,-70
2021-12-27 15:43:05.018934,-38
2021-12-27 15:43:05.018939,-41
2021-12-27 15:43:05.018943,-38
2021-12-27 15:43:05.018947,-11
2021-12-27 15:43:05.018952,-11
2021-12-27 15:43:05.018956,-20
2021-12-27 15:43:05.018961,-52
2021-12-27 15:43:05.018965,-79
2021-12-27 15:43:05.018969,-41
2021-12-27 15:43:05.018974,-18
2021-12-27 15:43:05.018978,-50
2021-12-27 15:43:05.018982,-79
2021-12-27 15:43:05.018987,-61
2021-12-27 15:43:05.018991,-22
2021-12-27 15:43:05.310029,-15
2021-12-27 15:43:05.310046,-6
2021-12-27 15:43:05.310052,-2
2021-12-27 15:43:05.310057,-36
2021-12-27 15:43:05.310061,-29
2021-12-27 15:43:05.310065,11
2021-12-27 15:43:05.310070,43
2021-12-27 15:43:05.310074,118
2021-12-27 15:43:05.310078,293
2021-12-27 15:43:05.310083,519
2021-12-27 15:43:05.310087,567
2021-12-27 15:43:05.310092,241
2021-12-27 15:43:05.310096,-332
2021-12-27 15:43:05.310100,-603
2021-12-27 15:43:05.310105,-293
2021-12-27 15:43:05.310109,-56
2021-12-27 15:43:05.310114,-134
2021-12-27 15:43:05.310118,-43
2021-12-27 15:43:05.310122,104
2021-12-27 15:43:05.310127,70
2021-12-27 15:43:05.310131,68
2021-12-27 15:43:05.310165,109
2021-12-27 15:43:05.310170,97
2021-12-27 15:43:05.310174,97
2021-12-27 15:43:05.310178,132
2021-12-27 15:43:05.310183,168
2021-12-27 15:43:05.310187,177
2021-12-27 15:43:05.310191,177
2021-12-27 15:43:05.310196,184
2021-12-27 15:43:05.310200,195
2021-12-27 15:43:05.457604,236
2021-12-27 15:43:05.457620,280
2021-12-27 15:43:05.457626,298
2021-12-27 15:43:05.457630,316
2021-12-27 15:43:05.457635,314
2021-12-27 15:43:05.457639,319
2021-12-27 15:43:05.457644,355
2021-12-27 15:43:05.457648,378
2021-12-27 15:43:05.457652,364
2021-12-27 15:43:05.457657,328
2021-12-27 15:43:05.457661,293
2021-12-27 15:43:05.457665,239
2021-12-27 15:43:05.457670,150
2021-12-27 15:43:05.457674,75
2021-12-27 15:43:05.457679,-15
2021-12-27 15:43:05.457683,-127
2021-12-27 15:43:05.457688,-198
2021-12-27 15:43:05.457692,-266
2021-12-27 15:43:05.457696,-307
2021-12-27 15:43:05.457701,-284
2021-12-27 15:43:05.457705,-277
2021-12-27 15:43:05.457709,-277
2021-12-27 15:43:05.457714,-257
2021-12-27 15:43:05.457718,-236
2021-12-27 15:43:05.457723,-223
2021-12-27 15:43:05.457727,-207
2021-12-27 15:43:05.457731,-186
2021-12-27 15:43:05.457736,-189
2021-12-27 15:43:05.457740,-223
2021-12-27 15:43:05.457745,-241
2021-12-27 15:43:05.701613,-236
2021-12-27 15:43:05.701631,-211
2021-12-27 15:43:05.701638,-182
2021-12-27 15:43:05.701643,-166
2021-12-27 15:43:05.701648,-141
2021-12-27 15:43:05.701653,-138
2021-12-27 15:43:05.701658,-173
2021-12-27 15:43:05.701663,-177
2021-12-27 15:43:05.701668,-152
2021-12-27 15:43:05.701673,-136
2021-12-27 15:43:05.701678,-127
2021-12-27 15:43:05.701684,-113
2021-12-27 15:43:05.701689,-120
2021-12-27 15:43:05.701694,-159
2021-12-27 15:43:05.701699,-148
2021-12-27 15:43:05.701704,-111
2021-12-27 15:43:05.701709,-109
2021-12-27 15:43:05.701714,-93
2021-12-27 15:43:05.701719,-93
2021-12-27 15:43:05.701724,-118
2021-12-27 15:43:05.701729,-104
2021-12-27 15:43:05.701734,-86
2021-12-27 15:43:05.701739,-75
2021-12-27 15:43:05.701744,-59
2021-12-27 15:43:05.701749,-45
2021-12-27 15:43:05.701754,-34
2021-12-27 15:43:05.701759,-41
2021-12-27 15:43:05.701764,-38
2021-12-27 15:43:05.701769,-18
2021-12-27 15:43:05.701774,-2
2021-12-27 15:43:06.042670,20
2021-12-27 15:43:06.042689,9
2021-12-27 15:43:06.042697,-18
2021-12-27 15:43:06.042704,-13
2021-12-27 15:43:06.042710,-4
2021-12-27 15:43:06.042717,11
2021-12-27 15:43:06.042723,41
2021-12-27 15:43:06.042729,38
2021-12-27 15:43:06.042736,0
2021-12-27 15:43:06.042742,-25
2021-12-27 15:43:06.042748,2
2021-12-27 15:43:06.042755,22
2021-12-27 15:43:06.042761,13
2021-12-27 15:43:06.042767,2
2021-12-27 15:43:06.042773,-38
2021-12-27 15:43:06.042780,-72
2021-12-27 15:43:06.042786,-43
2021-12-27 15:43:06.042793,-18
2021-12-27 15:43:06.042799,-31
2021-12-27 15:43:06.042805,-41
2021-12-27 15:43:06.042811,-56
2021-12-27 15:43:06.042818,-77
2021-12-27 15:43:06.042824,-77
2021-12-27 15:43:06.042830,-25
2021-12-27 15:43:06.042837,138
2021-12-27 15:43:06.042843,426
2021-12-27 15:43:06.042849,578
2021-12-27 15:43:06.042855,298
2021-12-27 15:43:06.042862,-307
2021-12-27 15:43:06.042868,-667
2021-12-27 15:43:06.140300,-414
2021-12-27 15:43:06.140317,-59
2021-12-27 15:43:06.140323,-36
2021-12-27 15:43:06.140328,-61
2021-12-27 15:43:06.140333,4
2021-12-27 15:43:06.140339,22
2021-12-27 15:43:06.140344,29
2021-12-27 15:43:06.140349,68
2021-12-27 15:43:06.140354,68
2021-12-27 15:43:06.140359,36
2021-12-27 15:43:06.140364,15
2021-12-27 15:43:06.140369,43
2021-12-27 15:43:06.140374,88
2021-12-27 15:43:06.140379,100
2021-12-27 15:43:06.140384,111
2021-12-27 15:43:06.140389,125
2021-12-27 15:43:06.140394,120
2021-12-27 15:43:06.140399,145
2021-12-27 15:43:06.140404,200
2021-12-27 15:43:06.140409,243
2021-12-27 15:43:06.140414,275
2021-12-27 15:43:06.140419,300
2021-12-27 15:43:06.140424,321
2021-12-27 15:43:06.140429,328
2021-12-27 15:43:06.140434,330
2021-12-27 15:43:06.140439,348
2021-12-27 15:43:06.140444,337
2021-12-27 15:43:06.140449,282
2021-12-27 15:43:06.140454,191
2021-12-27 15:43:06.140459,54
2021-12-27 15:43:06.433092,-50
2021-12-27 15:43:06.433163,-97
2021-12-27 15:43:06.433173,-161
2021-12-27 15:43:06.433209,-218
2021-12-27 15:43:06.433220,-255
2021-12-27 15:43:06.433230,-307
2021-12-27 15:43:06.433241,-344
2021-12-27 15:43:06.433261,-323
2021-12-27 15:43:06.433269,-307
2021-12-27 15:43:06.433289,-332
2021-12-27 15:43:06.433303,-330
2021-12-27 15:43:06.433311,-316
2021-12-27 15:43:06.433319,-328
2021-12-27 15:43:06.433326,-296
2021-12-27 15:43:06.433348,-259
2021-12-27 15:43:06.433356,-257
2021-12-27 15:43:06.433364,-241
2021-12-27 15:43:06.433371,-225
2021-12-27 15:43:06.433379,-223
2021-12-27 15:43:06.433386,-205
2021-12-27 15:43:06.433394,-186
2021-12-27 15:43:06.433401,-177
2021-12-27 15:43:06.433409,-166
2021-12-27 15:43:06.433417,-148
2021-12-27 15:43:06.433425,-141
2021-12-27 15:43:06.433432,-164
2021-12-27 15:43:06.433440,-168
2021-12-27 15:43:06.433448,-152
2021-12-27 15:43:06.433455,-141
2021-12-27 15:43:06.433463,-127
2021-12-27 15:43:06.628058,-123
2021-12-27 15:43:06.628081,-123
2021-12-27 15:43:06.628088,-111
2021-12-27 15:43:06.628095,-107
2021-12-27 15:43:06.628101,-93
2021-12-27 15:43:06.628108,-82
2021-12-27 15:43:06.628114,-93
2021-12-27 15:43:06.628120,-116
2021-12-27 15:43:06.628126,-125
2021-12-27 15:43:06.628132,-145
2021-12-27 15:43:06.628139,-177
2021-12-27 15:43:06.628145,-154
2021-12-27 15:43:06.628151,-111
2021-12-27 15:43:06.628158,-116
2021-12-27 15:43:06.628196,-118
2021-12-27 15:43:06.628202,-102
2021-12-27 15:43:06.628208,-93
2021-12-27 15:43:06.628215,-72
2021-12-27 15:43:06.628221,-68
2021-12-27 15:43:06.628231,-95
2021-12-27 15:43:06.628237,-111
2021-12-27 15:43:06.628244,-84
2021-12-27 15:43:06.628250,-38
2021-12-27 15:43:06.628256,-18
2021-12-27 15:43:06.628263,-4
2021-12-27 15:43:06.628269,2
2021-12-27 15:43:06.628275,-36
2021-12-27 15:43:06.628281,-84
2021-12-27 15:43:06.628287,-91
2021-12-27 15:43:06.628294,-61
2021-12-27 15:43:06.870874,-36
2021-12-27 15:43:06.870889,-43
2021-12-27 15:43:06.870895,-56
2021-12-27 15:43:06.870899,-50
2021-12-27 15:43:06.870904,-38
2021-12-27 15:43:06.870908,-15
2021-12-27 15:43:06.870912,4
2021-12-27 15:43:06.870917,22
2021-12-27 15:43:06.870921,50
2021-12-27 15:43:06.870925,191
2021-12-27 15:43:06.870930,501
2021-12-27 15:43:06.870934,642
2021-12-27 15:43:06.870938,259
2021-12-27 15:43:06.870943,-416
2021-12-27 15:43:06.870947,-669
2021-12-27 15:43:06.870952,-321
2021-12-27 15:43:06.870956,-41
2021-12-27 15:43:06.870960,-43
2021-12-27 15:43:06.870964,36
2021-12-27 15:43:06.870969,136
2021-12-27 15:43:06.870973,104
2021-12-27 15:43:06.870978,88
2021-12-27 15:43:06.870982,120
2021-12-27 15:43:06.870986,143
2021-12-27 15:43:06.870990,161
2021-12-27 15:43:06.870995,177
2021-12-27 15:43:06.870999,189
2021-12-27 15:43:06.871003,180
2021-12-27 15:43:06.871008,180
2021-12-27 15:43:06.871012,189
2021-12-27 15:43:07.066748,191
2021-12-27 15:43:07.066768,223
2021-12-27 15:43:07.066774,262
2021-12-27 15:43:07.066779,255
2021-12-27 15:43:07.066786,250
2021-12-27 15:43:07.066793,284
2021-12-27 15:43:07.066798,337
2021-12-27 15:43:07.066833,371
2021-12-27 15:43:07.066841,382
2021-12-27 15:43:07.066846,385
2021-12-27 15:43:07.066850,353
2021-12-27 15:43:07.066855,316
2021-12-27 15:43:07.066859,277
2021-12-27 15:43:07.066863,184
2021-12-27 15:43:07.066868,50
2021-12-27 15:43:07.066872,-82
2021-12-27 15:43:07.066876,-189
2021-12-27 15:43:07.066881,-248
2021-12-27 15:43:07.066885,-271
2021-12-27 15:43:07.066889,-289
2021-12-27 15:43:07.066894,-316
2021-12-27 15:43:07.066898,-337
2021-12-27 15:43:07.066903,-344
2021-12-27 15:43:07.066907,-346
2021-12-27 15:43:07.066911,-323
2021-12-27 15:43:07.066916,-284
2021-12-27 15:43:07.066920,-271
2021-12-27 15:43:07.066924,-257
2021-12-27 15:43:07.066929,-239
2021-12-27 15:43:07.066933,-232
2021-12-27 15:43:07.406462,-225
2021-12-27 15:43:07.406480,-227
2021-12-27 15:43:07.406486,-236
2021-12-27 15:43:07.406492,-218
2021-12-27 15:43:07.406497,-198
2021-12-27 15:43:07.406502,-202
2021-12-27 15:43:07.406507,-207
2021-12-27 15:43:07.406512,-182
2021-12-27 15:43:07.406517,-164
2021-12-27 15:43:07.406522,-173
2021-12-27 15:43:07.406527,-161
2021-12-27 15:43:07.406532,-159
2021-12-27 15:43:07.406537,-191
2021-12-27 15:43:07.406542,-182
2021-12-27 15:43:07.406547,-150
2021-12-27 15:43:07.406552,-141
2021-12-27 15:43:07.406557,-134
2021-12-27 15:43:07.406562,-120
2021-12-27 15:43:07.406567,-111
2021-12-27 15:43:07.406572,-107
2021-12-27 15:43:07.406577,-93
2021-12-27 15:43:07.406582,-82
2021-12-27 15:43:07.406587,-82
2021-12-27 15:43:07.406592,-59
2021-12-27 15:43:07.406597,-50
2021-12-27 15:43:07.406602,-66
2021-12-27 15:43:07.406607,-59
2021-12-27 15:43:07.406613,-54
2021-12-27 15:43:07.406618,-54
2021-12-27 15:43:07.406623,-25
2021-12-27 15:43:07.554027,2
2021-12-27 15:43:07.554044,6
2021-12-27 15:43:07.554049,0
2021-12-27 15:43:07.554054,-18
2021-12-27 15:43:07.554058,-25
2021-12-27 15:43:07.554062,-15
2021-12-27 15:43:07.554067,-22
2021-12-27 15:43:07.554071,-61
2021-12-27 15:43:07.554076,-84
2021-12-27 15:43:07.554080,-56
2021-12-27 15:43:07.554084,-34
2021-12-27 15:43:07.554089,-25
2021-12-27 15:43:07.554093,-6
2021-12-27 15:43:07.554097,-20
2021-12-27 15:43:07.554102,-56
2021-12-27 15:43:07.554106,-61
2021-12-27 15:43:07.554110,-22
2021-12-27 15:43:07.554115,41
2021-12-27 15:43:07.554119,184
2021-12-27 15:43:07.554124,462
2021-12-27 15:43:07.554128,612
2021-12-27 15:43:07.554132,303
2021-12-27 15:43:07.554137,-355
2021-12-27 15:43:07.554141,-692
2021-12-27 15:43:07.554145,-360
2021-12-27 15:43:07.554150,-20
2021-12-27 15:43:07.554154,-61
2021-12-27 15:43:07.554158,-43
2021-12-27 15:43:07.554163,102
2021-12-27 15:43:07.554167,127
2021-12-27 15:43:07.748958,109
2021-12-27 15:43:07.748982,141
2021-12-27 15:43:07.748989,145
2021-12-27 15:43:07.748996,125
2021-12-27 15:43:07.749003,134
2021-12-27 15:43:07.749009,143
2021-12-27 15:43:07.749015,132
2021-12-27 15:43:07.749022,157
2021-12-27 15:43:07.749028,184
2021-12-27 15:43:07.749035,152
2021-12-27 15:43:07.749041,154
2021-12-27 15:43:07.749047,214
2021-12-27 15:43:07.749054,259
2021-12-27 15:43:07.749060,296
2021-12-27 15:43:07.749067,323
2021-12-27 15:43:07.749073,316
2021-12-27 15:43:07.749079,307
2021-12-27 15:43:07.749086,344
2021-12-27 15:43:07.749092,371
2021-12-27 15:43:07.749098,353
2021-12-27 15:43:07.749104,330
2021-12-27 15:43:07.749111,284
2021-12-27 15:43:07.749117,191
2021-12-27 15:43:07.749123,109
2021-12-27 15:43:07.749130,43
2021-12-27 15:43:07.749136,-38
2021-12-27 15:43:07.749143,-123
2021-12-27 15:43:07.749149,-186
2021-12-27 15:43:07.749155,-207
2021-12-27 15:43:07.749162,-200
2021-12-27 15:43:07.992636,-189
2021-12-27 15:43:07.992652,-180
2021-12-27 15:43:07.992658,-195
2021-12-27 15:43:07.992663,-221
2021-12-27 15:43:07.992669,-246
2021-12-27 15:43:07.992674,-273
2021-12-27 15:43:07.992679,-255
2021-12-27 15:43:07.992684,-243
2021-12-27 15:43:07.992689,-266
2021-12-27 15:43:07.992694,-252
2021-12-27 15:43:07.992699,-241
2021-12-27 15:43:07.992704,-266
2021-12-27 15:43:07.992709,-252
2021-12-27 15:43:07.992714,-209
2021-12-27 15:43:07.992719,-191
2021-12-27 15:43:07.992724,-189
2021-12-27 15:43:07.992729,-182
2021-12-27 15:43:07.992734,-175
2021-12-27 15:43:07.992739,-166
2021-12-27 15:43:07.992744,-141
2021-12-27 15:43:07.992749,-129
2021-12-27 15:43:07.992754,-132
2021-12-27 15:43:07.992759,-127
2021-12-27 15:43:07.992764,-125
2021-12-27 15:43:07.992769,-134
2021-12-27 15:43:07.992774,-166
2021-12-27 15:43:07.992779,-193
2021-12-27 15:43:07.992784,-170
2021-12-27 15:43:07.992789,-145
2021-12-27 15:43:07.992794,-145
2021-12-27 15:43:08.236425,-141
2021-12-27 15:43:08.236441,-123
2021-12-27 15:43:08.236446,-104
2021-12-27 15:43:08.236450,-109
2021-12-27 15:43:08.236455,-113
2021-12-27 15:43:08.236460,-111
2021-12-27 15:43:08.236464,-138
2021-12-27 15:43:08.236468,-143
2021-12-27 15:43:08.236473,-111
2021-12-27 15:43:08.236477,-116
2021-12-27 15:43:08.236481,-123
2021-12-27 15:43:08.236486,-95
2021-12-27 15:43:08.236490,-97
2021-12-27 15:43:08.236495,-138
2021-12-27 15:43:08.236499,-141
2021-12-27 15:43:08.236503,-102
2021-12-27 15:43:08.236508,-82
2021-12-27 15:43:08.236512,-72
2021-12-27 15:43:08.236516,-56
2021-12-27 15:43:08.236521,-56
2021-12-27 15:43:08.236525,-54
2021-12-27 15:43:08.236529,-43
2021-12-27 15:43:08.236534,-27
2021-12-27 15:43:08.236538,2
2021-12-27 15:43:08.236542,34
2021-12-27 15:43:08.236547,113
2021-12-27 15:43:08.236551,348
2021-12-27 15:43:08.236556,617
2021-12-27 15:43:08.236560,578
2021-12-27 15:43:08.236564,47
2021-12-27 15:43:08.431420,-560
2021-12-27 15:43:08.431435,-551
2021-12-27 15:43:08.431441,-123
2021-12-27 15:43:08.431445,4
2021-12-27 15:43:08.431450,-20
2021-12-27 15:43:08.431454,113
2021-12-27 15:43:08.431459,186
2021-12-27 15:43:08.431463,123
2021-12-27 15:43:08.431467,95
2021-12-27 15:43:08.431472,120
2021-12-27 15:43:08.431476,127
2021-12-27 15:43:08.431481,123
2021-12-27 15:43:08.431485,120
2021-12-27 15:43:08.431489,127
2021-12-27 15:43:08.431494,118
2021-12-27 15:43:08.431498,102
2021-12-27 15:43:08.431502,138
2021-12-27 15:43:08.431507,189
2021-12-27 15:43:08.431511,211
2021-12-27 15:43:08.431516,246
2021-12-27 15:43:08.431520,271
2021-12-27 15:43:08.431524,282
2021-12-27 15:43:08.431529,321
2021-12-27 15:43:08.431533,364
2021-12-27 15:43:08.431537,387
2021-12-27 15:43:08.431542,403
2021-12-27 15:43:08.431546,398
2021-12-27 15:43:08.431550,369
2021-12-27 15:43:08.431555,330
2021-12-27 15:43:08.431559,289
2021-12-27 15:43:08.723914,205
2021-12-27 15:43:08.723929,56
2021-12-27 15:43:08.723935,-79
2021-12-27 15:43:08.723940,-173
2021-12-27 15:43:08.723944,-221
2021-12-27 15:43:08.723949,-216
2021-12-27 15:43:08.723953,-202
2021-12-27 15:43:08.723957,-193
2021-12-27 15:43:08.723962,-191
2021-12-27 15:43:08.723966,-216
2021-12-27 15:43:08.723970,-239
2021-12-27 15:43:08.723975,-232
2021-12-27 15:43:08.723979,-211
2021-12-27 15:43:08.723984,-209
2021-12-27 15:43:08.723988,-225
2021-12-27 15:43:08.723992,-216
2021-12-27 15:43:08.723997,-207
2021-12-27 15:43:08.724001,-211
2021-12-27 15:43:08.724005,-207
2021-12-27 15:43:08.724010,-198
2021-12-27 15:43:08.724014,-202
2021-12-27 15:43:08.724019,-221
2021-12-27 15:43:08.724023,-223
2021-12-27 15:43:08.724027,-195
2021-12-27 15:43:08.724032,-177
2021-12-27 15:43:08.724036,-161
2021-12-27 15:43:08.724040,-150
2021-12-27 15:43:08.724045,-159
2021-12-27 15:43:08.724049,-164
2021-12-27 15:43:08.724054,-152
2021-12-27 15:43:09.016317,-136
2021-12-27 15:43:09.016339,-120
2021-12-27 15:43:09.016347,-116
2021-12-27 15:43:09.016353,-118
2021-12-27 15:43:09.016359,-138
2021-12-27 15:43:09.016366,-164
2021-12-27 15:43:09.016372,-141
2021-12-27 15:43:09.016378,-107
2021-12-27 15:43:09.016384,-102
2021-12-27 15:43:09.016391,-100
2021-12-27 15:43:09.016397,-93
2021-12-27 15:43:09.016403,-102
2021-12-27 15:43:09.016409,-111
2021-12-27 15:43:09.016416,-93
2021-12-27 15:43:09.016422,-79
2021-12-27 15:43:09.016428,-113
2021-12-27 15:43:09.016434,-136
2021-12-27 15:43:09.016440,-132
2021-12-27 15:43:09.016447,-132
2021-12-27 15:43:09.016453,-111
2021-12-27 15:43:09.016459,-77
2021-12-27 15:43:09.016465,-63
2021-12-27 15:43:09.016472,-56
2021-12-27 15:43:09.016478,-66
2021-12-27 15:43:09.016484,-77
2021-12-27 15:43:09.016490,-66
2021-12-27 15:43:09.016496,-47
2021-12-27 15:43:09.016503,-41
2021-12-27 15:43:09.016509,-31
2021-12-27 15:43:09.016515,-15
2021-12-27 15:43:09.259407,-15
2021-12-27 15:43:09.259429,-13
2021-12-27 15:43:09.259437,11
2021-12-27 15:43:09.259443,18
2021-12-27 15:43:09.259450,52
2021-12-27 15:43:09.259456,202
2021-12-27 15:43:09.259462,464
2021-12-27 15:43:09.259469,617
2021-12-27 15:43:09.259475,398
2021-12-27 15:43:09.259481,-180
2021-12-27 15:43:09.259488,-631
2021-12-27 15:43:09.259494,-453
2021-12-27 15:43:09.259500,-61
2021-12-27 15:43:09.259507,-27
2021-12-27 15:43:09.259513,-38
2021-12-27 15:43:09.259519,100
2021-12-27 15:43:09.259526,118
2021-12-27 15:43:09.259532,61
2021-12-27 15:43:09.259539,75
2021-12-27 15:43:09.259545,70
2021-12-27 15:43:09.259551,41
2021-12-27 15:43:09.259558,59
2021-12-27 15:43:09.259564,100
2021-12-27 15:43:09.259570,125
2021-12-27 15:43:09.259576,145
2021-12-27 15:43:09.259583,152
2021-12-27 15:43:09.259589,127
2021-12-27 15:43:09.259595,132
2021-12-27 15:43:09.259602,193
2021-12-27 15:43:09.259608,230
2021-12-27 15:43:09.405043,262
2021-12-27 15:43:09.405061,316
2021-12-27 15:43:09.405070,332
2021-12-27 15:43:09.405078,325
2021-12-27 15:43:09.405086,353
2021-12-27 15:43:09.405094,389
2021-12-27 15:43:09.405102,389
2021-12-27 15:43:09.405111,364
2021-12-27 15:43:09.405119,325
2021-12-27 15:43:09.405127,243
2021-12-27 15:43:09.405136,148
2021-12-27 15:43:09.405144,84
2021-12-27 15:43:09.405152,20
2021-12-27 15:43:09.405160,-41
2021-12-27 15:43:09.405168,-102
2021-12-27 15:43:09.405176,-164
2021-12-27 15:43:09.405184,-177
2021-12-27 15:43:09.405192,-148
2021-12-27 15:43:09.405199,-127
2021-12-27 15:43:09.405207,-138
2021-12-27 15:43:09.405215,-182
2021-12-27 15:43:09.405223,-205
2021-12-27 15:43:09.405231,-175
2021-12-27 15:43:09.405238,-138
2021-12-27 15:43:09.405246,-118
2021-12-27 15:43:09.405253,-95
2021-12-27 15:43:09.405261,-82
2021-12-27 15:43:09.405269,-111
2021-12-27 15:43:09.405276,-134
2021-12-27 15:43:09.405284,-100
2021-12-27 15:43:09.601815,-63
2021-12-27 15:43:09.601837,-56
2021-12-27 15:43:09.601844,-63
2021-12-27 15:43:09.601851,-111
2021-12-27 15:43:09.601858,-154
2021-12-27 15:43:09.601868,-145
2021-12-27 15:43:09.601875,-143
2021-12-27 15:43:09.601881,-157
2021-12-27 15:43:09.601887,-145
2021-12-27 15:43:09.601893,-154
2021-12-27 15:43:09.601900,-198
2021-12-27 15:43:09.601906,-209
2021-12-27 15:43:09.601912,-209
2021-12-27 15:43:09.601919,-243
2021-12-27 15:43:09.601925,-234
2021-12-27 15:43:09.601931,-202
2021-12-27 15:43:09.601938,-211
2021-12-27 15:43:09.601944,-202
2021-12-27 15:43:09.601950,-164
2021-12-27 15:43:09.601956,-148
2021-12-27 15:43:09.601963,-143
2021-12-27 15:43:09.601969,-157
2021-12-27 15:43:09.601975,-184
2021-12-27 15:43:09.601982,-184
2021-12-27 15:43:09.601988,-159
2021-12-27 15:43:09.601994,-141
2021-12-27 15:43:09.602000,-136
2021-12-27 15:43:09.602007,-120
2021-12-27 15:43:09.602013,-100
2021-12-27 15:43:09.602019,-91
2021-12-27 15:43:09.991522,-61
2021-12-27 15:43:09.991541,-22
2021-12-27 15:43:09.991549,-25
2021-12-27 15:43:09.991556,-54
2021-12-27 15:43:09.991562,-70
2021-12-27 15:43:09.991568,-75
2021-12-27 15:43:09.991575,-79
2021-12-27 15:43:09.991581,-68
2021-12-27 15:43:09.991588,-50
2021-12-27 15:43:09.991594,-52
2021-12-27 15:43:09.991601,-45
2021-12-27 15:43:09.991607,-41
2021-12-27 15:43:09.991613,-66
2021-12-27 15:43:09.991620,-52
2021-12-27 15:43:09.991626,2
2021-12-27 15:43:09.991633,93
2021-12-27 15:43:09.991639,341
2021-12-27 15:43:09.991646,590
2021-12-27 15:43:09.991652,483
2021-12-27 15:43:09.991658,-34
2021-12-27 15:43:09.991665,-555
2021-12-27 15:43:09.991671,-526
2021-12-27 15:43:09.991677,-118
2021-12-27 15:43:09.991684,6
2021-12-27 15:43:09.991690,-47
2021-12-27 15:43:09.991697,50
2021-12-27 15:43:09.991703,123
2021-12-27 15:43:09.991709,84
2021-12-27 15:43:09.991716,95
2021-12-27 15:43:09.991722,150
2021-12-27 15:43:10.088855,152
2021-12-27 15:43:10.088869,148
2021-12-27 15:43:10.088874,168
2021-12-27 15:43:10.088879,168
2021-12-27 15:43:10.088883,184
2021-12-27 15:43:10.088887,225
2021-12-27 15:43:10.088892,232
2021-12-27 15:43:10.088896,214
2021-12-27 15:43:10.088900,221
2021-12-27 15:43:10.088905,257
2021-12-27 15:43:10.088909,287
2021-12-27 15:43:10.088913,319
2021-12-27 15:43:10.088918,373
2021-12-27 15:43:10.088922,389
2021-12-27 15:43:10.088926,380
2021-12-27 15:43:10.088931,394
2021-12-27 15:43:10.088935,403
2021-12-27 15:43:10.088939,387
2021-12-27 15:43:10.088944,325
2021-12-27 15:43:10.088948,227
2021-12-27 15:43:10.088952,145
2021-12-27 15:43:10.088957,66
2021-12-27 15:43:10.088961,-15
2021-12-27 15:43:10.088966,-75
2021-12-27 15:43:10.088970,-116
2021-12-27 15:43:10.088974,-148
2021-12-27 15:43:10.088978,-189
2021-12-27 15:43:10.088983,-205
2021-12-27 15:43:10.088987,-166
2021-12-27 15:43:10.088991,-129
2021-12-27 15:43:10.332660,-113
2021-12-27 15:43:10.332675,-109
2021-12-27 15:43:10.332681,-125
2021-12-27 15:43:10.332685,-141
2021-12-27 15:43:10.332690,-120
2021-12-27 15:43:10.332694,-86
2021-12-27 15:43:10.332699,-59
2021-12-27 15:43:10.332703,-41
2021-12-27 15:43:10.332707,-59
2021-12-27 15:43:10.332711,-107
2021-12-27 15:43:10.332716,-100
2021-12-27 15:43:10.332720,-63
2021-12-27 15:43:10.332724,-82
2021-12-27 15:43:10.332728,-93
2021-12-27 15:43:10.332733,-79
2021-12-27 15:43:10.332737,-111
2021-12-27 15:43:10.332742,-136
2021-12-27 15:43:10.332746,-111
2021-12-27 15:43:10.332751,-104
2021-12-27 15:43:10.332758,-118
2021-12-27 15:43:10.332763,-129
2021-12-27 15:43:10.332768,-159
2021-12-27 15:43:10.332772,-186
2021-12-27 15:43:10.332777,-164
2021-12-27 15:43:10.332781,-138
2021-12-27 15:43:10.332785,-134
2021-12-27 15:43:10.332790,-120
2021-12-27 15:43:10.332794,-143
2021-12-27 15:43:10.332798,-177
2021-12-27 15:43:10.332803,-145
2021-12-27 15:43:10.527807,-109
2021-12-27 15:43:10.527822,-107
2021-12-27 15:43:10.527827,-100
2021-12-27 15:43:10.527832,-100
2021-12-27 15:43:10.527836,-107
2021-12-27 15:43:10.527840,-97
2021-12-27 15:43:10.527845,-77
2021-12-27 15:43:10.527849,-63
2021-12-27 15:43:10.527853,-59
2021-12-27 15:43:10.527858,-70
2021-12-27 15:43:10.527862,-102
2021-12-27 15:43:10.527866,-127
2021-12-27 15:43:10.527871,-93
2021-12-27 15:43:10.527875,-47
2021-12-27 15:43:10.527879,-31
2021-12-27 15:43:10.527883,-27
2021-12-27 15:43:10.527888,-36
2021-12-27 15:43:10.527892,-54
2021-12-27 15:43:10.527896,-59
2021-12-27 15:43:10.527901,-45
2021-12-27 15:43:10.527905,-41
2021-12-27 15:43:10.527909,-43
2021-12-27 15:43:10.527914,-27
2021-12-27 15:43:10.527918,-31
2021-12-27 15:43:10.527922,-75
2021-12-27 15:43:10.527927,-82
2021-12-27 15:43:10.527931,-52
2021-12-27 15:43:10.527935,-43
2021-12-27 15:43:10.527940,-38
2021-12-27 15:43:10.527944,-29
2021-12-27 15:43:10.771282,2
2021-12-27 15:43:10.771303,168
2021-12-27 15:43:10.771311,469
2021-12-27 15:43:10.771317,599
2021-12-27 15:43:10.771323,296
2021-12-27 15:43:10.771330,-332
2021-12-27 15:43:10.771336,-701
2021-12-27 15:43:10.771342,-405
2021-12-27 15:43:10.771349,-38
2021-12-27 15:43:10.771355,-50
2021-12-27 15:43:10.771361,-15
2021-12-27 15:43:10.771367,118
2021-12-27 15:43:10.771374,79
2021-12-27 15:43:10.771380,27
2021-12-27 15:43:10.771386,88
2021-12-27 15:43:10.771392,116
2021-12-27 15:43:10.771398,109
2021-12-27 15:43:10.771404,138
2021-12-27 15:43:10.771410,159
2021-12-27 15:43:10.771416,157
2021-12-27 15:43:10.771423,168
2021-12-27 15:43:10.771429,193
2021-12-27 15:43:10.771435,207
2021-12-27 15:43:10.771441,236
2021-12-27 15:43:10.771447,271
2021-12-27 15:43:10.771453,282
2021-12-27 15:43:10.771460,309
2021-12-27 15:43:10.771466,344
2021-12-27 15:43:10.771472,373
2021-12-27 15:43:10.771478,407
2021-12-27 15:43:11.015709,428
2021-12-27 15:43:11.015731,426
2021-12-27 15:43:11.015738,391
2021-12-27 15:43:11.015745,350
2021-12-27 15:43:11.015751,328
2021-12-27 15:43:11.015757,280
2021-12-27 15:43:11.015763,193
2021-12-27 15:43:11.015769,82
2021-12-27 15:43:11.015776,-38
2021-12-27 15:43:11.015782,-107
2021-12-27 15:43:11.015788,-127
2021-12-27 15:43:11.015794,-138
2021-12-27 15:43:11.015801,-136
2021-12-27 15:43:11.015807,-148
2021-12-27 15:43:11.015813,-184
2021-12-27 15:43:11.015819,-191
2021-12-27 15:43:11.015825,-150
2021-12-27 15:43:11.015831,-113
2021-12-27 15:43:11.015838,-95
2021-12-27 15:43:11.015844,-68
2021-12-27 15:43:11.015850,-77
2021-12-27 15:43:11.015856,-120
2021-12-27 15:43:11.015863,-107
2021-12-27 15:43:11.015869,-68
2021-12-27 15:43:11.015875,-59
2021-12-27 15:43:11.015881,-45
2021-12-27 15:43:11.015887,-54
2021-12-27 15:43:11.015894,-91
2021-12-27 15:43:11.015900,-113
2021-12-27 15:43:11.015906,-145
2021-12-27 15:43:11.259438,-193
2021-12-27 15:43:11.259459,-205
2021-12-27 15:43:11.259467,-180
2021-12-27 15:43:11.259473,-200
2021-12-27 15:43:11.259480,-241
2021-12-27 15:43:11.259486,-218
2021-12-27 15:43:11.259492,-180
2021-12-27 15:43:11.259499,-173
2021-12-27 15:43:11.259505,-180
2021-12-27 15:43:11.259511,-214
2021-12-27 15:43:11.259517,-230
2021-12-27 15:43:11.259524,-191
2021-12-27 15:43:11.259530,-164
2021-12-27 15:43:11.259536,-150
2021-12-27 15:43:11.259542,-143
2021-12-27 15:43:11.259549,-166
2021-12-27 15:43:11.259555,-191
2021-12-27 15:43:11.259561,-170
2021-12-27 15:43:11.259568,-134
2021-12-27 15:43:11.259578,-120
2021-12-27 15:43:11.259584,-111
2021-12-27 15:43:11.259591,-104
2021-12-27 15:43:11.259597,-118
2021-12-27 15:43:11.259603,-109
2021-12-27 15:43:11.259609,-82
2021-12-27 15:43:11.259615,-77
2021-12-27 15:43:11.259622,-75
2021-12-27 15:43:11.259628,-72
2021-12-27 15:43:11.259634,-68
2021-12-27 15:43:11.259640,-36
2021-12-27 15:43:11.501973,-4
2021-12-27 15:43:11.502002,15
2021-12-27 15:43:11.502014,20
2021-12-27 15:43:11.502024,4
2021-12-27 15:43:11.502034,-13
2021-12-27 15:43:11.502043,-29
2021-12-27 15:43:11.502053,-38
2021-12-27 15:43:11.502062,-36
2021-12-27 15:43:11.502072,-36
2021-12-27 15:43:11.502081,-31
2021-12-27 15:43:11.502091,-31
2021-12-27 15:43:11.502100,-43
2021-12-27 15:43:11.502110,-50
2021-12-27 15:43:11.502119,-36
2021-12-27 15:43:11.502129,-11
2021-12-27 15:43:11.502139,9
2021-12-27 15:43:11.502148,97
2021-12-27 15:43:11.502158,344
2021-12-27 15:43:11.502167,590
2021-12-27 15:43:11.502177,528
2021-12-27 15:43:11.502186,9
2021-12-27 15:43:11.502202,-587
2021-12-27 15:43:11.502215,-558
2021-12-27 15:43:11.502238,-113
2021-12-27 15:43:11.502244,4
2021-12-27 15:43:11.502250,-34
2021-12-27 15:43:11.502257,91
2021-12-27 15:43:11.502263,152
2021-12-27 15:43:11.502269,111
2021-12-27 15:43:11.502275,125
2021-12-27 15:43:11.697899,161
2021-12-27 15:43:11.697921,157
2021-12-27 15:43:11.697928,166
2021-12-27 15:43:11.697934,184
2021-12-27 15:43:11.697941,168
2021-12-27 15:43:11.697947,132
2021-12-27 15:43:11.697953,102
2021-12-27 15:43:11.697959,100
2021-12-27 15:43:11.697965,104
2021-12-27 15:43:11.697972,111
2021-12-27 15:43:11.697978,161
2021-12-27 15:43:11.697984,221
2021-12-27 15:43:11.697990,239
2021-12-27 15:43:11.697996,239
2021-12-27 15:43:11.698002,268
2021-12-27 15:43:11.698009,303
2021-12-27 15:43:11.698015,314
2021-12-27 15:43:11.698021,325
2021-12-27 15:43:11.698027,330
2021-12-27 15:43:11.698033,296
2021-12-27 15:43:11.698039,236
2021-12-27 15:43:11.698046,166
2021-12-27 15:43:11.698052,82
2021-12-27 15:43:11.698058,13
2021-12-27 15:43:11.698064,-45
2021-12-27 15:43:11.698071,-111
2021-12-27 15:43:11.698077,-152
2021-12-27 15:43:11.698083,-170
2021-12-27 15:43:11.698089,-189
2021-12-27 15:43:11.698095,-193
2021-12-27 15:43:11.990065,-177
2021-12-27 15:43:11.990087,-157
2021-12-27 15:43:11.990094,-157
2021-12-27 15:43:11.990101,-152
2021-12-27 15:43:11.990107,-129
2021-12-27 15:43:11.990113,-136
2021-12-27 15:43:11.990120,-145
2021-12-27 15:43:11.990126,-157
2021-12-27 15:43:11.990132,-207
2021-12-27 15:43:11.990138,-236
2021-12-27 15:43:11.990144,-230
2021-12-27 15:43:11.990151,-216
2021-12-27 15:43:11.990157,-193
2021-12-27 15:43:11.990163,-177
2021-12-27 15:43:11.990169,-205
2021-12-27 15:43:11.990176,-250
2021-12-27 15:43:11.990182,-230
2021-12-27 15:43:11.990220,-177
2021-12-27 15:43:11.990226,-168
2021-12-27 15:43:11.990233,-161
2021-12-27 15:43:11.990239,-150
2021-12-27 15:43:11.990245,-166
2021-12-27 15:43:11.990251,-159
2021-12-27 15:43:11.990258,-129
2021-12-27 15:43:11.990264,-118
2021-12-27 15:43:11.990270,-107
2021-12-27 15:43:11.990276,-100
2021-12-27 15:43:11.990283,-109
2021-12-27 15:43:11.990289,-109
2021-12-27 15:43:11.990295,-84
2021-12-27 15:43:12.186134,-56
2021-12-27 15:43:12.186163,-50
2021-12-27 15:43:12.186174,-56
2021-12-27 15:43:12.186184,-100
2021-12-27 15:43:12.186194,-136
2021-12-27 15:43:12.186203,-107
2021-12-27 15:43:12.186213,-72
2021-12-27 15:43:12.186222,-61
2021-12-27 15:43:12.186232,-38
2021-12-27 15:43:12.186241,-34
2021-12-27 15:43:12.186251,-61
2021-12-27 15:43:12.186260,-91
2021-12-27 15:43:12.186270,-109
2021-12-27 15:43:12.186279,-113
2021-12-27 15:43:12.186289,-97
2021-12-27 15:43:12.186298,-93
2021-12-27 15:43:12.186308,-125
2021-12-27 15:43:12.186317,-132
2021-12-27 15:43:12.186327,-88
2021-12-27 15:43:12.186336,-66
2021-12-27 15:43:12.186346,-68
2021-12-27 15:43:12.186355,-56
2021-12-27 15:43:12.186365,-52
2021-12-27 15:43:12.186374,-38
2021-12-27 15:43:12.186384,29
2021-12-27 15:43:12.186393,234
2021-12-27 15:43:12.186403,540
2021-12-27 15:43:12.186412,612
2021-12-27 15:43:12.186422,166
2021-12-27 15:43:12.186431,-526
2021-12-27 15:43:12.381082,-656
2021-12-27 15:43:12.381112,-182
2021-12-27 15:43:12.381123,29
2021-12-27 15:43:12.381133,-43
2021-12-27 15:43:12.381143,52
2021-12-27 15:43:12.381152,136
2021-12-27 15:43:12.381162,100
2021-12-27 15:43:12.381171,116
2021-12-27 15:43:12.381181,159
2021-12-27 15:43:12.381190,161
2021-12-27 15:43:12.381200,159
2021-12-27 15:43:12.381209,150
2021-12-27 15:43:12.381218,132
2021-12-27 15:43:12.381228,138
2021-12-27 15:43:12.381237,145
2021-12-27 15:43:12.381247,136
2021-12-27 15:43:12.381256,166
2021-12-27 15:43:12.381266,193
2021-12-27 15:43:12.381275,180
2021-12-27 15:43:12.381285,209
2021-12-27 15:43:12.381294,273
2021-12-27 15:43:12.381304,305
2021-12-27 15:43:12.381313,330
2021-12-27 15:43:12.381323,364
2021-12-27 15:43:12.381333,380
2021-12-27 15:43:12.381342,373
2021-12-27 15:43:12.381352,355
2021-12-27 15:43:12.381361,325
2021-12-27 15:43:12.381371,273
2021-12-27 15:43:12.381380,209
2021-12-27 15:43:12.625012,118
2021-12-27 15:43:12.625043,9
2021-12-27 15:43:12.625054,-54
2021-12-27 15:43:12.625064,-95
2021-12-27 15:43:12.625073,-127
2021-12-27 15:43:12.625083,-127
2021-12-27 15:43:12.625093,-138
2021-12-27 15:43:12.625102,-182
2021-12-27 15:43:12.625111,-209
2021-12-27 15:43:12.625121,-195
2021-12-27 15:43:12.625131,-159
2021-12-27 15:43:12.625140,-138
2021-12-27 15:43:12.625150,-150
2021-12-27 15:43:12.625160,-161
2021-12-27 15:43:12.625169,-170
2021-12-27 15:43:12.625179,-198
2021-12-27 15:43:12.625189,-246
2021-12-27 15:43:12.625198,-275
2021-12-27 15:43:12.625208,-264
2021-12-27 15:43:12.625217,-248
2021-12-27 15:43:12.625227,-243
2021-12-27 15:43:12.625237,-234
2021-12-27 15:43:12.625246,-221
2021-12-27 15:43:12.625256,-195
2021-12-27 15:43:12.625265,-173
2021-12-27 15:43:12.625275,-173
2021-12-27 15:43:12.625285,-182
2021-12-27 15:43:12.625294,-184
2021-12-27 15:43:12.625304,-159
2021-12-27 15:43:12.625313,-134
2021-12-27 15:43:12.819563,-129
2021-12-27 15:43:12.819586,-129
2021-12-27 15:43:12.819593,-138
2021-12-27 15:43:12.819599,-138
2021-12-27 15:43:12.819606,-118
2021-12-27 15:43:12.819612,-97
2021-12-27 15:43:12.819618,-84
2021-12-27 15:43:12.819624,-79
2021-12-27 15:43:12.819689,-107
2021-12-27 15:43:12.819697,-141
2021-12-27 15:43:12.819703,-134
2021-12-27 15:43:12.819709,-97
2021-12-27 15:43:12.819716,-82
2021-12-27 15:43:12.819722,-77
2021-12-27 15:43:12.819728,-82
2021-12-27 15:43:12.819734,-102
2021-12-27 15:43:12.819740,-82
2021-12-27 15:43:12.819746,-41
2021-12-27 15:43:12.819753,-56
2021-12-27 15:43:12.819759,-86
2021-12-27 15:43:12.819765,-88
2021-12-27 15:43:12.819771,-88
2021-12-27 15:43:12.819777,-86
2021-12-27 15:43:12.819783,-68
2021-12-27 15:43:12.819790,-43
2021-12-27 15:43:12.819796,-29
2021-12-27 15:43:12.819802,-27
2021-12-27 15:43:12.819808,-34
2021-12-27 15:43:12.819814,-41
2021-12-27 15:43:12.819821,-6
2021-12-27 15:43:13.064042,38
2021-12-27 15:43:13.064072,113
2021-12-27 15:43:13.064084,357
2021-12-27 15:43:13.064094,633
2021-12-27 15:43:13.064104,565
2021-12-27 15:43:13.064114,15
2021-12-27 15:43:13.064124,-592
2021-12-27 15:43:13.064133,-581
2021-12-27 15:43:13.064143,-141
2021-12-27 15:43:13.064153,-20
2021-12-27 15:43:13.064163,-91
2021-12-27 15:43:13.064173,20
2021-12-27 15:43:13.064182,116
2021-12-27 15:43:13.064192,93
2021-12-27 15:43:13.064202,102
2021-12-27 15:43:13.064212,134
2021-12-27 15:43:13.064221,118
2021-12-27 15:43:13.064231,118
2021-12-27 15:43:13.064241,157
2021-12-27 15:43:13.064250,168
2021-12-27 15:43:13.064260,152
2021-12-27 15:43:13.064270,132
2021-12-27 15:43:13.064279,104
2021-12-27 15:43:13.064289,95
2021-12-27 15:43:13.064298,127
2021-12-27 15:43:13.064308,182
2021-12-27 15:43:13.064318,221
2021-12-27 15:43:13.064328,250
2021-12-27 15:43:13.064337,289
2021-12-27 15:43:13.064347,314
2021-12-27 15:43:13.307371,323
2021-12-27 15:43:13.307400,350
2021-12-27 15:43:13.307411,362
2021-12-27 15:43:13.307421,355
2021-12-27 15:43:13.307431,385
2021-12-27 15:43:13.307440,394
2021-12-27 15:43:13.307450,287
2021-12-27 15:43:13.307459,150
2021-12-27 15:43:13.307468,91
2021-12-27 15:43:13.307478,18
2021-12-27 15:43:13.307487,-77
2021-12-27 15:43:13.307497,-134
2021-12-27 15:43:13.307506,-200
2021-12-27 15:43:13.307516,-248
2021-12-27 15:43:13.307525,-230
2021-12-27 15:43:13.307535,-209
2021-12-27 15:43:13.307544,-191
2021-12-27 15:43:13.307554,-168
2021-12-27 15:43:13.307563,-177
2021-12-27 15:43:13.307573,-184
2021-12-27 15:43:13.307583,-166
2021-12-27 15:43:13.307592,-159
2021-12-27 15:43:13.307602,-175
2021-12-27 15:43:13.307611,-175
2021-12-27 15:43:13.307621,-164
2021-12-27 15:43:13.307630,-177
2021-12-27 15:43:13.307640,-193
2021-12-27 15:43:13.307649,-191
2021-12-27 15:43:13.307659,-202
2021-12-27 15:43:13.307668,-186
2021-12-27 15:43:13.598529,-166
2021-12-27 15:43:13.598559,-175
2021-12-27 15:43:13.598570,-173
