Time,ECG
2021-12-27 15:57:48.848477,-576
2021-12-27 15:57:48.848492,-141
2021-12-27 15:57:48.848497,-75
2021-12-27 15:57:48.848502,-123
2021-12-27 15:57:48.848506,-4
2021-12-27 15:57:48.848511,29
2021-12-27 15:57:48.848515,-2
2021-12-27 15:57:48.848519,36
2021-12-27 15:57:48.848524,59
2021-12-27 15:57:48.848528,29
2021-12-27 15:57:48.848532,31
2021-12-27 15:57:48.848537,82
2021-12-27 15:57:48.848541,109
2021-12-27 15:57:48.848545,132
2021-12-27 15:57:48.848550,136
2021-12-27 15:57:48.848554,104
2021-12-27 15:57:48.848558,132
2021-12-27 15:57:48.848563,209
2021-12-27 15:57:48.848567,246
2021-12-27 15:57:48.848571,280
2021-12-27 15:57:48.848576,321
2021-12-27 15:57:48.848580,332
2021-12-27 15:57:48.848584,312
2021-12-27 15:57:48.848588,314
2021-12-27 15:57:48.848593,360
2021-12-27 15:57:48.848597,362
2021-12-27 15:57:48.848602,287
2021-12-27 15:57:48.848606,173
2021-12-27 15:57:48.848610,34
2021-12-27 15:57:48.848615,-63
2021-12-27 15:57:48.922607,-111
2021-12-27 15:57:48.922624,-138
2021-12-27 15:57:48.922630,-164
2021-12-27 15:57:48.922635,-232
2021-12-27 15:57:48.922640,-289
2021-12-27 15:57:48.922645,-275
2021-12-27 15:57:48.922650,-271
2021-12-27 15:57:48.922655,-277
2021-12-27 15:57:48.922660,-259
2021-12-27 15:57:48.922665,-262
2021-12-27 15:57:48.922670,-273
2021-12-27 15:57:48.922674,-257
2021-12-27 15:57:48.922679,-200
2021-12-27 15:57:48.922684,-159
2021-12-27 15:57:48.922689,-145
2021-12-27 15:57:48.922693,-129
2021-12-27 15:57:48.922698,-127
2021-12-27 15:57:48.922704,-125
2021-12-27 15:57:48.922709,-93
2021-12-27 15:57:48.922713,-72
2021-12-27 15:57:48.922718,-66
2021-12-27 15:57:48.922723,-61
2021-12-27 15:57:48.922728,-59
2021-12-27 15:57:48.922732,-54
2021-12-27 15:57:48.922737,-45
2021-12-27 15:57:48.922742,-11
2021-12-27 15:57:48.922747,4
2021-12-27 15:57:48.922751,-11
2021-12-27 15:57:48.922756,-2
2021-12-27 15:57:48.922764,0
2021-12-27 15:57:49.165807,-2
2021-12-27 15:57:49.165826,18
2021-12-27 15:57:49.165831,15
2021-12-27 15:57:49.165836,6
2021-12-27 15:57:49.165841,20
2021-12-27 15:57:49.165846,9
2021-12-27 15:57:49.165851,-9
2021-12-27 15:57:49.165856,-13
2021-12-27 15:57:49.165860,-34
2021-12-27 15:57:49.165865,-52
2021-12-27 15:57:49.165870,-38
2021-12-27 15:57:49.165875,-41
2021-12-27 15:57:49.165880,-75
2021-12-27 15:57:49.165888,-52
2021-12-27 15:57:49.165893,-2
2021-12-27 15:57:49.165898,4
2021-12-27 15:57:49.165903,15
2021-12-27 15:57:49.165907,34
2021-12-27 15:57:49.165912,20
2021-12-27 15:57:49.165917,6
2021-12-27 15:57:49.165922,4
2021-12-27 15:57:49.165926,9
2021-12-27 15:57:49.165931,27
2021-12-27 15:57:49.165936,41
2021-12-27 15:57:49.165941,50
2021-12-27 15:57:49.165945,45
2021-12-27 15:57:49.165950,43
2021-12-27 15:57:49.165955,9
2021-12-27 15:57:49.165959,-54
2021-12-27 15:57:49.165965,-36
2021-12-27 15:57:49.456573,70
2021-12-27 15:57:49.456587,277
2021-12-27 15:57:49.456593,546
2021-12-27 15:57:49.456597,540
2021-12-27 15:57:49.456602,47
2021-12-27 15:57:49.456606,-590
2021-12-27 15:57:49.456610,-697
2021-12-27 15:57:49.456615,-293
2021-12-27 15:57:49.456619,-127
2021-12-27 15:57:49.456624,-180
2021-12-27 15:57:49.456628,-72
2021-12-27 15:57:49.456632,2
2021-12-27 15:57:49.456637,-27
2021-12-27 15:57:49.456641,-34
2021-12-27 15:57:49.456645,-36
2021-12-27 15:57:49.456650,-31
2021-12-27 15:57:49.456654,-2
2021-12-27 15:57:49.456661,34
2021-12-27 15:57:49.456666,63
2021-12-27 15:57:49.456673,84
2021-12-27 15:57:49.456681,95
2021-12-27 15:57:49.456688,100
2021-12-27 15:57:49.456696,134
2021-12-27 15:57:49.456704,189
2021-12-27 15:57:49.456712,225
2021-12-27 15:57:49.456720,266
2021-12-27 15:57:49.456727,298
2021-12-27 15:57:49.456732,316
2021-12-27 15:57:49.456739,366
2021-12-27 15:57:49.456744,407
2021-12-27 15:57:49.604779,416
2021-12-27 15:57:49.604796,407
2021-12-27 15:57:49.604803,350
2021-12-27 15:57:49.604808,243
2021-12-27 15:57:49.604813,120
2021-12-27 15:57:49.604818,20
2021-12-27 15:57:49.604823,-45
2021-12-27 15:57:49.604832,-91
2021-12-27 15:57:49.604838,-143
2021-12-27 15:57:49.604845,-200
2021-12-27 15:57:49.604850,-191
2021-12-27 15:57:49.604855,-134
2021-12-27 15:57:49.604860,-141
2021-12-27 15:57:49.604865,-159
2021-12-27 15:57:49.604870,-143
2021-12-27 15:57:49.604875,-170
2021-12-27 15:57:49.604880,-184
2021-12-27 15:57:49.604885,-138
2021-12-27 15:57:49.604890,-104
2021-12-27 15:57:49.604895,-88
2021-12-27 15:57:49.604900,-75
2021-12-27 15:57:49.604905,-75
2021-12-27 15:57:49.604910,-79
2021-12-27 15:57:49.604914,-66
2021-12-27 15:57:49.604919,-38
2021-12-27 15:57:49.604924,-25
2021-12-27 15:57:49.604929,-9
2021-12-27 15:57:49.604935,-6
2021-12-27 15:57:49.604940,-22
2021-12-27 15:57:49.604945,-2
2021-12-27 15:57:49.848651,20
2021-12-27 15:57:49.848667,15
2021-12-27 15:57:49.848673,2
2021-12-27 15:57:49.848678,-63
2021-12-27 15:57:49.848683,-125
2021-12-27 15:57:49.848689,-118
2021-12-27 15:57:49.848694,-88
2021-12-27 15:57:49.848699,-68
2021-12-27 15:57:49.848704,-63
2021-12-27 15:57:49.848709,-56
2021-12-27 15:57:49.848714,-63
2021-12-27 15:57:49.848719,-86
2021-12-27 15:57:49.848724,-68
2021-12-27 15:57:49.848729,-38
2021-12-27 15:57:49.848734,-59
2021-12-27 15:57:49.848739,-77
2021-12-27 15:57:49.848744,-72
2021-12-27 15:57:49.848749,-61
2021-12-27 15:57:49.848754,-56
2021-12-27 15:57:49.848761,-45
2021-12-27 15:57:49.848767,-29
2021-12-27 15:57:49.848772,-36
2021-12-27 15:57:49.848777,-27
2021-12-27 15:57:49.848782,-6
2021-12-27 15:57:49.848792,-2
2021-12-27 15:57:49.848797,25
2021-12-27 15:57:49.848802,54
2021-12-27 15:57:49.848807,54
2021-12-27 15:57:49.848812,45
2021-12-27 15:57:49.848817,6
2021-12-27 15:57:50.140932,-15
2021-12-27 15:57:50.140947,4
2021-12-27 15:57:50.140954,15
2021-12-27 15:57:50.140959,9
2021-12-27 15:57:50.140964,9
2021-12-27 15:57:50.140969,-2
2021-12-27 15:57:50.140974,-43
2021-12-27 15:57:50.140979,-70
2021-12-27 15:57:50.140984,-56
2021-12-27 15:57:50.140989,-47
2021-12-27 15:57:50.140994,54
2021-12-27 15:57:50.140999,337
2021-12-27 15:57:50.141004,546
2021-12-27 15:57:50.141009,362
2021-12-27 15:57:50.141014,-232
2021-12-27 15:57:50.141019,-754
2021-12-27 15:57:50.141024,-622
2021-12-27 15:57:50.141029,-202
2021-12-27 15:57:50.141034,-111
2021-12-27 15:57:50.141039,-111
2021-12-27 15:57:50.141044,6
2021-12-27 15:57:50.141049,43
2021-12-27 15:57:50.141056,9
2021-12-27 15:57:50.141061,50
2021-12-27 15:57:50.141066,95
2021-12-27 15:57:50.141071,77
2021-12-27 15:57:50.141076,86
2021-12-27 15:57:50.141081,118
2021-12-27 15:57:50.141086,132
2021-12-27 15:57:50.141091,161
2021-12-27 15:57:50.287317,191
2021-12-27 15:57:50.287332,205
2021-12-27 15:57:50.287338,223
2021-12-27 15:57:50.287342,243
2021-12-27 15:57:50.287347,280
2021-12-27 15:57:50.287351,325
2021-12-27 15:57:50.287356,364
2021-12-27 15:57:50.287360,389
2021-12-27 15:57:50.287364,366
2021-12-27 15:57:50.287369,341
2021-12-27 15:57:50.287373,364
2021-12-27 15:57:50.287377,375
2021-12-27 15:57:50.287382,353
2021-12-27 15:57:50.287386,275
2021-12-27 15:57:50.287390,141
2021-12-27 15:57:50.287395,15
2021-12-27 15:57:50.287399,-59
2021-12-27 15:57:50.287404,-102
2021-12-27 15:57:50.287408,-166
2021-12-27 15:57:50.287412,-223
2021-12-27 15:57:50.287417,-243
2021-12-27 15:57:50.287421,-268
2021-12-27 15:57:50.287426,-252
2021-12-27 15:57:50.287430,-205
2021-12-27 15:57:50.287439,-186
2021-12-27 15:57:50.287443,-161
2021-12-27 15:57:50.287447,-145
2021-12-27 15:57:50.287452,-154
2021-12-27 15:57:50.287456,-138
2021-12-27 15:57:50.287461,-107
2021-12-27 15:57:50.531024,-79
2021-12-27 15:57:50.531045,-59
2021-12-27 15:57:50.531054,-63
2021-12-27 15:57:50.531063,-100
2021-12-27 15:57:50.531071,-118
2021-12-27 15:57:50.531079,-77
2021-12-27 15:57:50.531088,-50
2021-12-27 15:57:50.531096,-54
2021-12-27 15:57:50.531105,-45
2021-12-27 15:57:50.531113,-72
2021-12-27 15:57:50.531120,-107
2021-12-27 15:57:50.531128,-75
2021-12-27 15:57:50.531136,-47
2021-12-27 15:57:50.531144,-41
2021-12-27 15:57:50.531152,-34
2021-12-27 15:57:50.531161,-43
2021-12-27 15:57:50.531169,-47
2021-12-27 15:57:50.531178,-36
2021-12-27 15:57:50.531187,-9
2021-12-27 15:57:50.531196,2
2021-12-27 15:57:50.531204,-29
2021-12-27 15:57:50.531211,-56
2021-12-27 15:57:50.531219,-54
2021-12-27 15:57:50.531227,-34
2021-12-27 15:57:50.531236,-13
2021-12-27 15:57:50.531244,-9
2021-12-27 15:57:50.531252,-15
2021-12-27 15:57:50.531260,-34
2021-12-27 15:57:50.531269,-47
2021-12-27 15:57:50.531277,-31
2021-12-27 15:57:50.823651,-18
2021-12-27 15:57:50.823670,-11
2021-12-27 15:57:50.823678,-15
2021-12-27 15:57:50.823684,-54
2021-12-27 15:57:50.823691,-95
2021-12-27 15:57:50.823697,-129
2021-12-27 15:57:50.823703,-143
2021-12-27 15:57:50.823710,-116
2021-12-27 15:57:50.823716,-91
2021-12-27 15:57:50.823722,-77
2021-12-27 15:57:50.823728,-75
2021-12-27 15:57:50.823734,-107
2021-12-27 15:57:50.823740,-134
2021-12-27 15:57:50.823747,-138
2021-12-27 15:57:50.823753,-161
2021-12-27 15:57:50.823759,-191
2021-12-27 15:57:50.823765,-177
2021-12-27 15:57:50.823771,-148
2021-12-27 15:57:50.823778,-152
2021-12-27 15:57:50.823784,-138
2021-12-27 15:57:50.823791,-104
2021-12-27 15:57:50.823797,-104
2021-12-27 15:57:50.823803,-97
2021-12-27 15:57:50.823809,4
2021-12-27 15:57:50.823816,271
2021-12-27 15:57:50.823822,510
2021-12-27 15:57:50.823828,330
2021-12-27 15:57:50.823835,-293
2021-12-27 15:57:50.823841,-733
2021-12-27 15:57:50.823847,-492
2021-12-27 15:57:51.018355,-93
2021-12-27 15:57:51.018370,-59
2021-12-27 15:57:51.018375,-34
2021-12-27 15:57:51.018380,100
2021-12-27 15:57:51.018384,109
2021-12-27 15:57:51.018388,91
2021-12-27 15:57:51.018393,136
2021-12-27 15:57:51.018397,145
2021-12-27 15:57:51.018401,150
2021-12-27 15:57:51.018406,168
2021-12-27 15:57:51.018413,186
2021-12-27 15:57:51.018417,211
2021-12-27 15:57:51.018421,216
2021-12-27 15:57:51.018426,207
2021-12-27 15:57:51.018430,216
2021-12-27 15:57:51.018434,248
2021-12-27 15:57:51.018439,284
2021-12-27 15:57:51.018443,319
2021-12-27 15:57:51.018447,355
2021-12-27 15:57:51.018452,362
2021-12-27 15:57:51.018456,353
2021-12-27 15:57:51.018460,387
2021-12-27 15:57:51.018465,414
2021-12-27 15:57:51.018469,414
2021-12-27 15:57:51.018473,391
2021-12-27 15:57:51.018478,319
2021-12-27 15:57:51.018482,236
2021-12-27 15:57:51.018486,150
2021-12-27 15:57:51.018490,56
2021-12-27 15:57:51.018495,-11
2021-12-27 15:57:51.213507,-68
2021-12-27 15:57:51.213522,-118
2021-12-27 15:57:51.213527,-154
2021-12-27 15:57:51.213532,-173
2021-12-27 15:57:51.213537,-157
2021-12-27 15:57:51.213541,-138
2021-12-27 15:57:51.213545,-120
2021-12-27 15:57:51.213550,-104
2021-12-27 15:57:51.213554,-132
2021-12-27 15:57:51.213558,-150
2021-12-27 15:57:51.213563,-118
2021-12-27 15:57:51.213567,-84
2021-12-27 15:57:51.213571,-66
2021-12-27 15:57:51.213575,-56
2021-12-27 15:57:51.213580,-68
2021-12-27 15:57:51.213584,-97
2021-12-27 15:57:51.213589,-93
2021-12-27 15:57:51.213593,-52
2021-12-27 15:57:51.213597,-45
2021-12-27 15:57:51.213601,-75
2021-12-27 15:57:51.213606,-113
2021-12-27 15:57:51.213610,-127
2021-12-27 15:57:51.213615,-102
2021-12-27 15:57:51.213619,-79
2021-12-27 15:57:51.213623,-72
2021-12-27 15:57:51.213632,-54
2021-12-27 15:57:51.213637,-77
2021-12-27 15:57:51.213641,-129
2021-12-27 15:57:51.213645,-145
2021-12-27 15:57:51.213650,-125
2021-12-27 15:57:51.650730,-102
2021-12-27 15:57:51.650746,-95
2021-12-27 15:57:51.650752,-91
2021-12-27 15:57:51.650758,-113
2021-12-27 15:57:51.650763,-166
2021-12-27 15:57:51.650768,-170
2021-12-27 15:57:51.650773,-150
2021-12-27 15:57:51.650778,-168
2021-12-27 15:57:51.650783,-175
2021-12-27 15:57:51.650788,-177
2021-12-27 15:57:51.650793,-200
2021-12-27 15:57:51.650798,-200
2021-12-27 15:57:51.650803,-168
2021-12-27 15:57:51.650808,-141
2021-12-27 15:57:51.650813,-148
2021-12-27 15:57:51.650818,-154
2021-12-27 15:57:51.650823,-148
2021-12-27 15:57:51.650827,-141
2021-12-27 15:57:51.650832,-116
2021-12-27 15:57:51.650876,-100
2021-12-27 15:57:51.650882,-102
2021-12-27 15:57:51.650887,-95
2021-12-27 15:57:51.650892,-84
2021-12-27 15:57:51.650897,-66
2021-12-27 15:57:51.650901,-38
2021-12-27 15:57:51.650906,-18
2021-12-27 15:57:51.650911,6
2021-12-27 15:57:51.650916,-6
2021-12-27 15:57:51.650945,-45
2021-12-27 15:57:51.650972,-59
2021-12-27 15:57:51.749384,-43
2021-12-27 15:57:51.749403,-15
2021-12-27 15:57:51.749411,-6
2021-12-27 15:57:51.749417,-15
2021-12-27 15:57:51.749423,-15
2021-12-27 15:57:51.749429,-41
2021-12-27 15:57:51.749436,-54
2021-12-27 15:57:51.749442,-11
2021-12-27 15:57:51.749448,34
2021-12-27 15:57:51.749454,109
2021-12-27 15:57:51.749460,355
2021-12-27 15:57:51.749466,638
2021-12-27 15:57:51.749472,533
2021-12-27 15:57:51.749478,-84
2021-12-27 15:57:51.749485,-642
2021-12-27 15:57:51.749491,-526
2021-12-27 15:57:51.749502,-86
2021-12-27 15:57:51.749509,20
2021-12-27 15:57:51.749515,-18
2021-12-27 15:57:51.749521,109
2021-12-27 15:57:51.749527,177
2021-12-27 15:57:51.749533,129
2021-12-27 15:57:51.749540,154
2021-12-27 15:57:51.749546,202
2021-12-27 15:57:51.749552,184
2021-12-27 15:57:51.749558,157
2021-12-27 15:57:51.749564,152
2021-12-27 15:57:51.749571,177
2021-12-27 15:57:51.749577,207
2021-12-27 15:57:51.749583,230
2021-12-27 15:57:51.945179,248
2021-12-27 15:57:51.945198,246
2021-12-27 15:57:51.945205,271
2021-12-27 15:57:51.945210,316
2021-12-27 15:57:51.945215,337
2021-12-27 15:57:51.945220,380
2021-12-27 15:57:51.945225,421
2021-12-27 15:57:51.945230,410
2021-12-27 15:57:51.945235,401
2021-12-27 15:57:51.945240,410
2021-12-27 15:57:51.945245,416
2021-12-27 15:57:51.945250,389
2021-12-27 15:57:51.945255,323
2021-12-27 15:57:51.945260,218
2021-12-27 15:57:51.945265,82
2021-12-27 15:57:51.945270,-11
2021-12-27 15:57:51.945275,-52
2021-12-27 15:57:51.945280,-95
2021-12-27 15:57:51.945285,-118
2021-12-27 15:57:51.945290,-132
2021-12-27 15:57:51.945295,-157
2021-12-27 15:57:51.945300,-159
2021-12-27 15:57:51.945305,-141
2021-12-27 15:57:51.945310,-120
2021-12-27 15:57:51.945315,-104
2021-12-27 15:57:51.945320,-91
2021-12-27 15:57:51.945325,-82
2021-12-27 15:57:51.945330,-82
2021-12-27 15:57:51.945335,-61
2021-12-27 15:57:51.945340,-36
2021-12-27 15:57:52.188870,-52
2021-12-27 15:57:52.188900,-61
2021-12-27 15:57:52.188911,-68
2021-12-27 15:57:52.188921,-97
2021-12-27 15:57:52.188930,-93
2021-12-27 15:57:52.188940,-66
2021-12-27 15:57:52.188950,-59
2021-12-27 15:57:52.188959,-77
2021-12-27 15:57:52.188969,-120
2021-12-27 15:57:52.188978,-173
2021-12-27 15:57:52.188988,-191
2021-12-27 15:57:52.188997,-166
2021-12-27 15:57:52.189007,-150
2021-12-27 15:57:52.189022,-150
2021-12-27 15:57:52.189031,-148
2021-12-27 15:57:52.189041,-184
2021-12-27 15:57:52.189050,-202
2021-12-27 15:57:52.189060,-164
2021-12-27 15:57:52.189070,-143
2021-12-27 15:57:52.189079,-134
2021-12-27 15:57:52.189089,-123
2021-12-27 15:57:52.189098,-136
2021-12-27 15:57:52.189108,-134
2021-12-27 15:57:52.189117,-109
2021-12-27 15:57:52.189127,-93
2021-12-27 15:57:52.189136,-91
2021-12-27 15:57:52.189146,-93
2021-12-27 15:57:52.189155,-88
2021-12-27 15:57:52.189165,-86
2021-12-27 15:57:52.189174,-68
2021-12-27 15:57:52.480861,-52
2021-12-27 15:57:52.480891,-86
2021-12-27 15:57:52.480902,-95
2021-12-27 15:57:52.480912,-82
2021-12-27 15:57:52.480922,-111
2021-12-27 15:57:52.480931,-129
2021-12-27 15:57:52.480941,-109
2021-12-27 15:57:52.480950,-82
2021-12-27 15:57:52.480960,-72
2021-12-27 15:57:52.480969,-84
2021-12-27 15:57:52.480979,-100
2021-12-27 15:57:52.480988,-109
2021-12-27 15:57:52.480998,-93
2021-12-27 15:57:52.481007,-50
2021-12-27 15:57:52.481017,-22
2021-12-27 15:57:52.481026,47
2021-12-27 15:57:52.481036,262
2021-12-27 15:57:52.481045,535
2021-12-27 15:57:52.481055,514
2021-12-27 15:57:52.481064,-50
2021-12-27 15:57:52.481074,-667
2021-12-27 15:57:52.481083,-571
2021-12-27 15:57:52.481093,-113
2021-12-27 15:57:52.481102,-25
2021-12-27 15:57:52.481112,-63
2021-12-27 15:57:52.481121,77
2021-12-27 15:57:52.481131,152
2021-12-27 15:57:52.481140,109
2021-12-27 15:57:52.481150,129
2021-12-27 15:57:52.481159,161
2021-12-27 15:57:52.677262,148
2021-12-27 15:57:52.677292,170
2021-12-27 15:57:52.677303,205
2021-12-27 15:57:52.677313,207
2021-12-27 15:57:52.677323,225
2021-12-27 15:57:52.677332,255
2021-12-27 15:57:52.677342,271
2021-12-27 15:57:52.677352,268
2021-12-27 15:57:52.677361,284
2021-12-27 15:57:52.677371,330
2021-12-27 15:57:52.677381,362
2021-12-27 15:57:52.677390,391
2021-12-27 15:57:52.677400,401
2021-12-27 15:57:52.677409,389
2021-12-27 15:57:52.677419,410
2021-12-27 15:57:52.677429,421
2021-12-27 15:57:52.677438,398
2021-12-27 15:57:52.677457,362
2021-12-27 15:57:52.677467,264
2021-12-27 15:57:52.677476,138
2021-12-27 15:57:52.677486,50
2021-12-27 15:57:52.677496,-25
2021-12-27 15:57:52.677506,-88
2021-12-27 15:57:52.677516,-123
2021-12-27 15:57:52.677526,-141
2021-12-27 15:57:52.677535,-168
2021-12-27 15:57:52.677545,-175
2021-12-27 15:57:52.677555,-154
2021-12-27 15:57:52.677564,-148
2021-12-27 15:57:52.677574,-132
2021-12-27 15:57:52.871533,-109
2021-12-27 15:57:52.871556,-109
2021-12-27 15:57:52.871564,-102
2021-12-27 15:57:52.871571,-88
2021-12-27 15:57:52.871577,-79
2021-12-27 15:57:52.871583,-72
2021-12-27 15:57:52.871590,-107
2021-12-27 15:57:52.871596,-145
2021-12-27 15:57:52.871602,-145
2021-12-27 15:57:52.871609,-150
2021-12-27 15:57:52.871615,-141
2021-12-27 15:57:52.871621,-113
2021-12-27 15:57:52.871627,-116
2021-12-27 15:57:52.871634,-148
2021-12-27 15:57:52.871640,-198
2021-12-27 15:57:52.871646,-216
2021-12-27 15:57:52.871653,-214
2021-12-27 15:57:52.871659,-205
2021-12-27 15:57:52.871666,-184
2021-12-27 15:57:52.871672,-189
2021-12-27 15:57:52.871678,-218
2021-12-27 15:57:52.871684,-234
2021-12-27 15:57:52.871691,-216
2021-12-27 15:57:52.871697,-182
2021-12-27 15:57:52.871703,-170
2021-12-27 15:57:52.871709,-161
2021-12-27 15:57:52.871716,-157
2021-12-27 15:57:52.871722,-173
2021-12-27 15:57:52.871728,-161
2021-12-27 15:57:52.871734,-136
2021-12-27 15:57:53.115271,-129
2021-12-27 15:57:53.115293,-111
2021-12-27 15:57:53.115301,-107
2021-12-27 15:57:53.115308,-118
2021-12-27 15:57:53.115315,-97
2021-12-27 15:57:53.115321,-63
2021-12-27 15:57:53.115327,-36
2021-12-27 15:57:53.115334,-34
2021-12-27 15:57:53.115340,-61
2021-12-27 15:57:53.115346,-100
2021-12-27 15:57:53.115353,-134
2021-12-27 15:57:53.115359,-132
2021-12-27 15:57:53.115366,-113
2021-12-27 15:57:53.115372,-97
2021-12-27 15:57:53.115378,-84
2021-12-27 15:57:53.115385,-113
2021-12-27 15:57:53.115391,-136
2021-12-27 15:57:53.115397,-93
2021-12-27 15:57:53.115404,-45
2021-12-27 15:57:53.115410,43
2021-12-27 15:57:53.115416,282
2021-12-27 15:57:53.115423,574
2021-12-27 15:57:53.115429,553
2021-12-27 15:57:53.115435,4
2021-12-27 15:57:53.115442,-617
2021-12-27 15:57:53.115448,-590
2021-12-27 15:57:53.115454,-143
2021-12-27 15:57:53.115461,-20
2021-12-27 15:57:53.115467,-70
2021-12-27 15:57:53.115477,70
2021-12-27 15:57:53.310631,154
2021-12-27 15:57:53.310654,111
2021-12-27 15:57:53.310662,132
2021-12-27 15:57:53.310668,164
2021-12-27 15:57:53.310674,132
2021-12-27 15:57:53.310681,116
2021-12-27 15:57:53.310687,143
2021-12-27 15:57:53.310693,180
2021-12-27 15:57:53.310700,193
2021-12-27 15:57:53.310706,205
2021-12-27 15:57:53.310712,232
2021-12-27 15:57:53.310719,223
2021-12-27 15:57:53.310725,195
2021-12-27 15:57:53.310731,214
2021-12-27 15:57:53.310738,257
2021-12-27 15:57:53.310744,300
2021-12-27 15:57:53.310750,328
2021-12-27 15:57:53.310756,332
2021-12-27 15:57:53.310763,332
2021-12-27 15:57:53.310769,344
2021-12-27 15:57:53.310775,348
2021-12-27 15:57:53.310781,307
2021-12-27 15:57:53.310788,230
2021-12-27 15:57:53.310794,138
2021-12-27 15:57:53.310800,31
2021-12-27 15:57:53.310806,-45
2021-12-27 15:57:53.310813,-97
2021-12-27 15:57:53.310819,-157
2021-12-27 15:57:53.310832,-175
2021-12-27 15:57:53.310838,-170
2021-12-27 15:57:53.601448,-180
2021-12-27 15:57:53.601466,-164
2021-12-27 15:57:53.601473,-148
2021-12-27 15:57:53.601479,-141
2021-12-27 15:57:53.601485,-125
2021-12-27 15:57:53.601491,-113
2021-12-27 15:57:53.601498,-127
2021-12-27 15:57:53.601504,-143
2021-12-27 15:57:53.601510,-116
2021-12-27 15:57:53.601516,-91
2021-12-27 15:57:53.601522,-86
2021-12-27 15:57:53.601528,-63
2021-12-27 15:57:53.601534,-63
2021-12-27 15:57:53.601540,-93
2021-12-27 15:57:53.601547,-97
2021-12-27 15:57:53.601553,-120
2021-12-27 15:57:53.601559,-145
2021-12-27 15:57:53.601565,-134
2021-12-27 15:57:53.601571,-125
2021-12-27 15:57:53.601577,-125
2021-12-27 15:57:53.601583,-127
2021-12-27 15:57:53.601589,-123
2021-12-27 15:57:53.601595,-123
2021-12-27 15:57:53.601602,-138
2021-12-27 15:57:53.601608,-138
2021-12-27 15:57:53.601614,-152
2021-12-27 15:57:53.601620,-180
2021-12-27 15:57:53.601626,-170
2021-12-27 15:57:53.601632,-152
2021-12-27 15:57:53.601638,-138
2021-12-27 15:57:53.749724,-127
2021-12-27 15:57:53.749754,-127
2021-12-27 15:57:53.749765,-134
2021-12-27 15:57:53.749775,-141
2021-12-27 15:57:53.749785,-134
2021-12-27 15:57:53.749794,-113
2021-12-27 15:57:53.749804,-102
2021-12-27 15:57:53.749813,-97
2021-12-27 15:57:53.749823,-113
2021-12-27 15:57:53.749832,-118
2021-12-27 15:57:53.749842,-77
2021-12-27 15:57:53.749851,-61
2021-12-27 15:57:53.749861,-77
2021-12-27 15:57:53.749871,-88
2021-12-27 15:57:53.749880,-109
2021-12-27 15:57:53.749890,-125
2021-12-27 15:57:53.749899,-136
2021-12-27 15:57:53.749909,-154
2021-12-27 15:57:53.749918,-148
2021-12-27 15:57:53.749928,-120
2021-12-27 15:57:53.749942,-113
2021-12-27 15:57:53.749952,-120
2021-12-27 15:57:53.749962,-88
2021-12-27 15:57:53.749971,9
2021-12-27 15:57:53.749981,214
2021-12-27 15:57:53.749991,526
2021-12-27 15:57:53.750000,619
2021-12-27 15:57:53.750010,180
2021-12-27 15:57:53.750019,-499
2021-12-27 15:57:53.750029,-676
2021-12-27 15:57:53.993076,-248
2021-12-27 15:57:53.993106,20
2021-12-27 15:57:53.993117,-29
2021-12-27 15:57:53.993128,25
2021-12-27 15:57:53.993138,100
2021-12-27 15:57:53.993148,77
2021-12-27 15:57:53.993157,104
2021-12-27 15:57:53.993167,150
2021-12-27 15:57:53.993176,154
2021-12-27 15:57:53.993186,136
2021-12-27 15:57:53.993195,118
2021-12-27 15:57:53.993205,143
2021-12-27 15:57:53.993214,184
2021-12-27 15:57:53.993224,209
2021-12-27 15:57:53.993233,234
2021-12-27 15:57:53.993243,246
2021-12-27 15:57:53.993253,262
2021-12-27 15:57:53.993262,296
2021-12-27 15:57:53.993272,328
2021-12-27 15:57:53.993281,346
2021-12-27 15:57:53.993291,362
2021-12-27 15:57:53.993300,394
2021-12-27 15:57:53.993309,412
2021-12-27 15:57:53.993319,410
2021-12-27 15:57:53.993328,421
2021-12-27 15:57:53.993338,405
2021-12-27 15:57:53.993347,334
2021-12-27 15:57:53.993357,239
2021-12-27 15:57:53.993366,120
2021-12-27 15:57:53.993376,22
2021-12-27 15:57:54.285942,-43
2021-12-27 15:57:54.285963,-91
2021-12-27 15:57:54.285971,-118
2021-12-27 15:57:54.285977,-143
2021-12-27 15:57:54.285983,-159
2021-12-27 15:57:54.285990,-173
2021-12-27 15:57:54.285996,-182
2021-12-27 15:57:54.286002,-148
2021-12-27 15:57:54.286008,-125
2021-12-27 15:57:54.286014,-127
2021-12-27 15:57:54.286021,-113
2021-12-27 15:57:54.286027,-118
2021-12-27 15:57:54.286033,-134
2021-12-27 15:57:54.286039,-109
2021-12-27 15:57:54.286046,-82
2021-12-27 15:57:54.286052,-75
2021-12-27 15:57:54.286058,-68
2021-12-27 15:57:54.286064,-50
2021-12-27 15:57:54.286070,-45
2021-12-27 15:57:54.286077,-43
2021-12-27 15:57:54.286083,-36
2021-12-27 15:57:54.286089,-86
2021-12-27 15:57:54.286095,-148
2021-12-27 15:57:54.286101,-136
2021-12-27 15:57:54.286108,-113
2021-12-27 15:57:54.286114,-109
2021-12-27 15:57:54.286120,-97
2021-12-27 15:57:54.286126,-88
2021-12-27 15:57:54.286132,-88
2021-12-27 15:57:54.286138,-102
2021-12-27 15:57:54.529519,-111
2021-12-27 15:57:54.529540,-100
2021-12-27 15:57:54.529548,-93
2021-12-27 15:57:54.529554,-91
2021-12-27 15:57:54.529561,-82
2021-12-27 15:57:54.529567,-82
2021-12-27 15:57:54.529573,-109
2021-12-27 15:57:54.529579,-145
2021-12-27 15:57:54.529586,-161
2021-12-27 15:57:54.529592,-173
2021-12-27 15:57:54.529598,-168
2021-12-27 15:57:54.529604,-141
2021-12-27 15:57:54.529610,-141
2021-12-27 15:57:54.529617,-161
2021-12-27 15:57:54.529623,-157
2021-12-27 15:57:54.529629,-129
2021-12-27 15:57:54.529635,-107
2021-12-27 15:57:54.529641,-104
2021-12-27 15:57:54.529647,-113
2021-12-27 15:57:54.529654,-129
2021-12-27 15:57:54.529660,-154
2021-12-27 15:57:54.529666,-150
2021-12-27 15:57:54.529676,-134
2021-12-27 15:57:54.529683,-150
2021-12-27 15:57:54.529689,-145
2021-12-27 15:57:54.529695,-127
2021-12-27 15:57:54.529701,-125
2021-12-27 15:57:54.529707,-113
2021-12-27 15:57:54.529714,-66
2021-12-27 15:57:54.529720,82
2021-12-27 15:57:54.676232,366
2021-12-27 15:57:54.676263,597
2021-12-27 15:57:54.676274,419
2021-12-27 15:57:54.676284,-225
2021-12-27 15:57:54.676294,-715
2021-12-27 15:57:54.676304,-492
2021-12-27 15:57:54.676313,-68
2021-12-27 15:57:54.676323,-18
2021-12-27 15:57:54.676332,-27
2021-12-27 15:57:54.676342,84
2021-12-27 15:57:54.676352,113
2021-12-27 15:57:54.676361,93
2021-12-27 15:57:54.676371,138
2021-12-27 15:57:54.676380,164
2021-12-27 15:57:54.676390,148
2021-12-27 15:57:54.676399,145
2021-12-27 15:57:54.676409,161
2021-12-27 15:57:54.676418,191
2021-12-27 15:57:54.676427,218
2021-12-27 15:57:54.676437,239
2021-12-27 15:57:54.676447,259
2021-12-27 15:57:54.676456,246
2021-12-27 15:57:54.676466,243
2021-12-27 15:57:54.676475,298
2021-12-27 15:57:54.676485,339
2021-12-27 15:57:54.676494,348
2021-12-27 15:57:54.676504,353
2021-12-27 15:57:54.676513,328
2021-12-27 15:57:54.676523,307
2021-12-27 15:57:54.676532,328
2021-12-27 15:57:54.919115,344
2021-12-27 15:57:54.919131,300
2021-12-27 15:57:54.919137,214
2021-12-27 15:57:54.919142,93
2021-12-27 15:57:54.919147,-47
2021-12-27 15:57:54.919152,-134
2021-12-27 15:57:54.919157,-161
2021-12-27 15:57:54.919162,-191
2021-12-27 15:57:54.919167,-211
2021-12-27 15:57:54.919172,-225
2021-12-27 15:57:54.919177,-250
2021-12-27 15:57:54.919182,-248
2021-12-27 15:57:54.919187,-216
2021-12-27 15:57:54.919192,-186
2021-12-27 15:57:54.919197,-173
2021-12-27 15:57:54.919202,-166
2021-12-27 15:57:54.919207,-152
2021-12-27 15:57:54.919212,-141
2021-12-27 15:57:54.919216,-116
2021-12-27 15:57:54.919221,-84
2021-12-27 15:57:54.919226,-75
2021-12-27 15:57:54.919231,-63
2021-12-27 15:57:54.919236,-54
2021-12-27 15:57:54.919241,-52
2021-12-27 15:57:54.919246,-36
2021-12-27 15:57:54.919251,-20
2021-12-27 15:57:54.919256,-20
2021-12-27 15:57:54.919261,-45
2021-12-27 15:57:54.919266,-68
2021-12-27 15:57:54.919271,-50
2021-12-27 15:57:55.163291,-38
2021-12-27 15:57:55.163313,-31
2021-12-27 15:57:55.163320,-18
2021-12-27 15:57:55.163327,-25
2021-12-27 15:57:55.163333,-22
2021-12-27 15:57:55.163339,-34
2021-12-27 15:57:55.163346,-61
2021-12-27 15:57:55.163352,-50
2021-12-27 15:57:55.163358,-31
2021-12-27 15:57:55.163364,-34
2021-12-27 15:57:55.163370,-22
2021-12-27 15:57:55.163377,-22
2021-12-27 15:57:55.163383,-47
2021-12-27 15:57:55.163389,-59
2021-12-27 15:57:55.163395,-43
2021-12-27 15:57:55.163401,-54
2021-12-27 15:57:55.163408,-75
2021-12-27 15:57:55.163414,-56
2021-12-27 15:57:55.163420,-56
2021-12-27 15:57:55.163426,-77
2021-12-27 15:57:55.163432,-61
2021-12-27 15:57:55.163439,-54
2021-12-27 15:57:55.163445,-63
2021-12-27 15:57:55.163451,-50
2021-12-27 15:57:55.163457,-56
2021-12-27 15:57:55.163464,-75
2021-12-27 15:57:55.163470,-75
2021-12-27 15:57:55.163476,-82
2021-12-27 15:57:55.163482,-104
2021-12-27 15:57:55.163488,-127
2021-12-27 15:57:55.455585,-132
2021-12-27 15:57:55.455605,-129
2021-12-27 15:57:55.455613,-157
2021-12-27 15:57:55.455619,-193
2021-12-27 15:57:55.455625,-191
2021-12-27 15:57:55.455635,-148
2021-12-27 15:57:55.455642,-136
2021-12-27 15:57:55.455648,-159
2021-12-27 15:57:55.455654,-136
2021-12-27 15:57:55.455661,2
2021-12-27 15:57:55.455667,296
2021-12-27 15:57:55.455673,544
2021-12-27 15:57:55.455680,364
2021-12-27 15:57:55.455686,-287
2021-12-27 15:57:55.455692,-799
2021-12-27 15:57:55.455699,-585
2021-12-27 15:57:55.455705,-148
2021-12-27 15:57:55.455711,-102
2021-12-27 15:57:55.455717,-84
2021-12-27 15:57:55.455724,66
2021-12-27 15:57:55.455730,63
2021-12-27 15:57:55.455736,20
2021-12-27 15:57:55.455742,70
2021-12-27 15:57:55.455748,109
2021-12-27 15:57:55.455755,118
2021-12-27 15:57:55.455761,134
2021-12-27 15:57:55.455767,152
2021-12-27 15:57:55.455773,150
2021-12-27 15:57:55.455779,168
2021-12-27 15:57:55.455786,216
2021-12-27 15:57:55.698944,234
2021-12-27 15:57:55.698973,232
2021-12-27 15:57:55.698985,236
2021-12-27 15:57:55.698995,255
2021-12-27 15:57:55.699004,303
2021-12-27 15:57:55.699014,353
2021-12-27 15:57:55.699024,391
2021-12-27 15:57:55.699033,426
2021-12-27 15:57:55.699043,432
2021-12-27 15:57:55.699052,410
2021-12-27 15:57:55.699062,382
2021-12-27 15:57:55.699072,353
2021-12-27 15:57:55.699081,289
2021-12-27 15:57:55.699091,184
2021-12-27 15:57:55.699100,75
2021-12-27 15:57:55.699110,-41
2021-12-27 15:57:55.699120,-143
2021-12-27 15:57:55.699129,-164
2021-12-27 15:57:55.699139,-157
2021-12-27 15:57:55.699149,-161
2021-12-27 15:57:55.699158,-157
2021-12-27 15:57:55.699168,-170
2021-12-27 15:57:55.699178,-180
2021-12-27 15:57:55.699187,-152
2021-12-27 15:57:55.699197,-123
2021-12-27 15:57:55.699206,-102
2021-12-27 15:57:55.699216,-93
2021-12-27 15:57:55.699226,-93
2021-12-27 15:57:55.699235,-88
2021-12-27 15:57:55.699245,-75
2021-12-27 15:57:55.846297,-43
2021-12-27 15:57:55.846319,-22
2021-12-27 15:57:55.846326,-25
2021-12-27 15:57:55.846333,-45
2021-12-27 15:57:55.846339,-72
2021-12-27 15:57:55.846345,-54
2021-12-27 15:57:55.846351,-25
2021-12-27 15:57:55.846357,-43
2021-12-27 15:57:55.846363,-84
2021-12-27 15:57:55.846369,-104
2021-12-27 15:57:55.846375,-109
2021-12-27 15:57:55.846381,-120
2021-12-27 15:57:55.846387,-118
2021-12-27 15:57:55.846393,-84
2021-12-27 15:57:55.846400,-72
2021-12-27 15:57:55.846406,-79
2021-12-27 15:57:55.846412,-77
2021-12-27 15:57:55.846418,-100
2021-12-27 15:57:55.846424,-109
2021-12-27 15:57:55.846430,-77
2021-12-27 15:57:55.846436,-72
2021-12-27 15:57:55.846442,-93
2021-12-27 15:57:55.846448,-107
2021-12-27 15:57:55.846455,-95
2021-12-27 15:57:55.846461,-84
2021-12-27 15:57:55.846467,-82
2021-12-27 15:57:55.846473,-75
2021-12-27 15:57:55.846479,-93
2021-12-27 15:57:55.846485,-113
2021-12-27 15:57:55.846491,-107
2021-12-27 15:57:56.089695,-113
2021-12-27 15:57:56.089727,-113
2021-12-27 15:57:56.089739,-93
2021-12-27 15:57:56.089749,-93
2021-12-27 15:57:56.089758,-104
2021-12-27 15:57:56.089768,-150
2021-12-27 15:57:56.089778,-209
2021-12-27 15:57:56.089787,-207
2021-12-27 15:57:56.089797,-180
2021-12-27 15:57:56.089806,-166
2021-12-27 15:57:56.089816,-150
2021-12-27 15:57:56.089825,-136
2021-12-27 15:57:56.089835,-145
2021-12-27 15:57:56.089844,-164
2021-12-27 15:57:56.089854,-143
2021-12-27 15:57:56.089864,-118
2021-12-27 15:57:56.089873,-95
2021-12-27 15:57:56.089883,25
2021-12-27 15:57:56.089893,298
2021-12-27 15:57:56.089902,565
2021-12-27 15:57:56.089912,473
2021-12-27 15:57:56.089922,-123
2021-12-27 15:57:56.089931,-688
2021-12-27 15:57:56.089941,-567
2021-12-27 15:57:56.089951,-129
2021-12-27 15:57:56.089960,-38
2021-12-27 15:57:56.090002,-59
2021-12-27 15:57:56.090012,77
2021-12-27 15:57:56.090022,127
2021-12-27 15:57:56.090031,91
2021-12-27 15:57:56.381548,127
2021-12-27 15:57:56.381586,152
2021-12-27 15:57:56.381599,136
2021-12-27 15:57:56.381609,148
2021-12-27 15:57:56.381618,170
2021-12-27 15:57:56.381627,195
2021-12-27 15:57:56.381637,216
2021-12-27 15:57:56.381646,195
2021-12-27 15:57:56.381655,157
2021-12-27 15:57:56.381665,166
2021-12-27 15:57:56.381674,227
2021-12-27 15:57:56.381684,277
2021-12-27 15:57:56.381693,307
2021-12-27 15:57:56.381703,316
2021-12-27 15:57:56.381712,271
2021-12-27 15:57:56.381722,257
2021-12-27 15:57:56.381731,314
2021-12-27 15:57:56.381741,334
2021-12-27 15:57:56.381750,323
2021-12-27 15:57:56.381759,303
2021-12-27 15:57:56.381769,221
2021-12-27 15:57:56.381778,95
2021-12-27 15:57:56.381788,-4
2021-12-27 15:57:56.381797,-66
2021-12-27 15:57:56.381807,-118
2021-12-27 15:57:56.381816,-157
2021-12-27 15:57:56.381826,-175
2021-12-27 15:57:56.381835,-205
2021-12-27 15:57:56.381845,-207
2021-12-27 15:57:56.381854,-170
2021-12-27 15:57:56.577391,-154
2021-12-27 15:57:56.577413,-138
2021-12-27 15:57:56.577420,-134
2021-12-27 15:57:56.577427,-166
2021-12-27 15:57:56.577433,-173
2021-12-27 15:57:56.577439,-134
2021-12-27 15:57:56.577445,-97
2021-12-27 15:57:56.577451,-82
2021-12-27 15:57:56.577458,-79
2021-12-27 15:57:56.577464,-93
2021-12-27 15:57:56.577470,-102
2021-12-27 15:57:56.577476,-75
2021-12-27 15:57:56.577483,-41
2021-12-27 15:57:56.577489,-34
2021-12-27 15:57:56.577495,-25
2021-12-27 15:57:56.577501,-41
2021-12-27 15:57:56.577507,-79
2021-12-27 15:57:56.577513,-68
2021-12-27 15:57:56.577519,-41
2021-12-27 15:57:56.577526,-29
2021-12-27 15:57:56.577532,-22
2021-12-27 15:57:56.577538,-34
2021-12-27 15:57:56.577544,-47
2021-12-27 15:57:56.577550,-47
2021-12-27 15:57:56.577556,-31
2021-12-27 15:57:56.577563,-34
2021-12-27 15:57:56.577569,-59
2021-12-27 15:57:56.577575,-56
2021-12-27 15:57:56.577581,-52
2021-12-27 15:57:56.577587,-63
2021-12-27 15:57:56.821325,-50
2021-12-27 15:57:56.821348,-43
2021-12-27 15:57:56.821356,-68
2021-12-27 15:57:56.821363,-86
2021-12-27 15:57:56.821369,-113
2021-12-27 15:57:56.821375,-157
2021-12-27 15:57:56.821381,-170
2021-12-27 15:57:56.821387,-150
2021-12-27 15:57:56.821394,-136
2021-12-27 15:57:56.821400,-136
2021-12-27 15:57:56.821406,-111
2021-12-27 15:57:56.821412,-100
2021-12-27 15:57:56.821418,-113
2021-12-27 15:57:56.821425,-88
2021-12-27 15:57:56.821431,-68
2021-12-27 15:57:56.821437,-86
2021-12-27 15:57:56.821443,-97
2021-12-27 15:57:56.821449,-111
2021-12-27 15:57:56.821455,-132
2021-12-27 15:57:56.821462,-154
2021-12-27 15:57:56.821468,-182
2021-12-27 15:57:56.821474,-177
2021-12-27 15:57:56.821481,-152
2021-12-27 15:57:56.821487,-136
2021-12-27 15:57:56.821493,-134
2021-12-27 15:57:56.821499,-120
2021-12-27 15:57:56.821505,-79
2021-12-27 15:57:56.821512,4
2021-12-27 15:57:56.821518,259
2021-12-27 15:57:56.821524,587
2021-12-27 15:57:57.065312,569
2021-12-27 15:57:57.065342,34
2021-12-27 15:57:57.065353,-587
2021-12-27 15:57:57.065363,-606
2021-12-27 15:57:57.065373,-168
2021-12-27 15:57:57.065382,-13
2021-12-27 15:57:57.065392,-59
2021-12-27 15:57:57.065402,31
2021-12-27 15:57:57.065412,91
2021-12-27 15:57:57.065421,68
2021-12-27 15:57:57.065431,86
2021-12-27 15:57:57.065440,129
2021-12-27 15:57:57.065450,141
2021-12-27 15:57:57.065459,127
2021-12-27 15:57:57.065469,129
2021-12-27 15:57:57.065478,145
2021-12-27 15:57:57.065488,170
2021-12-27 15:57:57.065497,205
2021-12-27 15:57:57.065507,221
2021-12-27 15:57:57.065517,223
2021-12-27 15:57:57.065526,230
2021-12-27 15:57:57.065536,262
2021-12-27 15:57:57.065545,316
2021-12-27 15:57:57.065589,360
2021-12-27 15:57:57.065599,401
2021-12-27 15:57:57.065609,432
2021-12-27 15:57:57.065618,437
2021-12-27 15:57:57.065628,444
2021-12-27 15:57:57.065637,446
2021-12-27 15:57:57.065647,414
2021-12-27 15:57:57.211552,355
2021-12-27 15:57:57.211583,252
2021-12-27 15:57:57.211595,125
2021-12-27 15:57:57.211605,13
2021-12-27 15:57:57.211614,-52
2021-12-27 15:57:57.211624,-77
2021-12-27 15:57:57.211634,-102
2021-12-27 15:57:57.211643,-123
2021-12-27 15:57:57.211653,-152
2021-12-27 15:57:57.211662,-189
2021-12-27 15:57:57.211672,-168
2021-12-27 15:57:57.211693,-129
2021-12-27 15:57:57.211703,-123
2021-12-27 15:57:57.211712,-102
2021-12-27 15:57:57.211722,-91
2021-12-27 15:57:57.211731,-107
2021-12-27 15:57:57.211741,-118
2021-12-27 15:57:57.211750,-93
2021-12-27 15:57:57.211760,-50
2021-12-27 15:57:57.211769,-38
2021-12-27 15:57:57.211779,-47
2021-12-27 15:57:57.211789,-68
2021-12-27 15:57:57.211798,-77
2021-12-27 15:57:57.211808,-43
2021-12-27 15:57:57.211817,-29
2021-12-27 15:57:57.211827,-70
2021-12-27 15:57:57.211836,-107
2021-12-27 15:57:57.211846,-113
2021-12-27 15:57:57.211855,-102
2021-12-27 15:57:57.211865,-104
2021-12-27 15:57:57.504036,-120
2021-12-27 15:57:57.504066,-104
2021-12-27 15:57:57.504077,-95
2021-12-27 15:57:57.504087,-129
2021-12-27 15:57:57.504097,-159
2021-12-27 15:57:57.504107,-154
2021-12-27 15:57:57.504116,-143
2021-12-27 15:57:57.504126,-150
2021-12-27 15:57:57.504136,-157
2021-12-27 15:57:57.504145,-182
2021-12-27 15:57:57.504155,-223
2021-12-27 15:57:57.504165,-214
2021-12-27 15:57:57.504174,-180
2021-12-27 15:57:57.504184,-173
2021-12-27 15:57:57.504193,-161
2021-12-27 15:57:57.504203,-157
2021-12-27 15:57:57.504212,-161
2021-12-27 15:57:57.504222,-170
2021-12-27 15:57:57.504232,-180
2021-12-27 15:57:57.504241,-148
2021-12-27 15:57:57.504251,-111
2021-12-27 15:57:57.504260,-109
2021-12-27 15:57:57.504270,-104
2021-12-27 15:57:57.504280,-97
2021-12-27 15:57:57.504289,-86
2021-12-27 15:57:57.504299,-79
2021-12-27 15:57:57.504308,-84
2021-12-27 15:57:57.504318,-72
2021-12-27 15:57:57.504328,-66
2021-12-27 15:57:57.504337,-72
2021-12-27 15:57:57.745870,-61
2021-12-27 15:57:57.745887,-45
2021-12-27 15:57:57.745895,-31
2021-12-27 15:57:57.745901,-34
2021-12-27 15:57:57.745907,-31
2021-12-27 15:57:57.745914,-29
2021-12-27 15:57:57.745920,-6
2021-12-27 15:57:57.745926,191
2021-12-27 15:57:57.745932,542
2021-12-27 15:57:57.745939,672
2021-12-27 15:57:57.745945,300
2021-12-27 15:57:57.745951,-391
2021-12-27 15:57:57.745957,-681
2021-12-27 15:57:57.745964,-293
2021-12-27 15:57:57.745970,0
2021-12-27 15:57:57.745976,-36
2021-12-27 15:57:57.745982,43
2021-12-27 15:57:57.745989,154
2021-12-27 15:57:57.745995,104
2021-12-27 15:57:57.746001,52
2021-12-27 15:57:57.746007,84
2021-12-27 15:57:57.746013,102
2021-12-27 15:57:57.746019,102
2021-12-27 15:57:57.746026,136
2021-12-27 15:57:57.746032,154
2021-12-27 15:57:57.746038,164
2021-12-27 15:57:57.746044,198
2021-12-27 15:57:57.746050,221
2021-12-27 15:57:57.746056,243
2021-12-27 15:57:57.746063,287
2021-12-27 15:57:57.943182,312
2021-12-27 15:57:57.943212,312
2021-12-27 15:57:57.943223,319
2021-12-27 15:57:57.943233,364
2021-12-27 15:57:57.943243,407
2021-12-27 15:57:57.943253,428
2021-12-27 15:57:57.943262,446
2021-12-27 15:57:57.943272,416
2021-12-27 15:57:57.943282,357
2021-12-27 15:57:57.943292,309
2021-12-27 15:57:57.943301,230
2021-12-27 15:57:57.943311,132
2021-12-27 15:57:57.943320,38
2021-12-27 15:57:57.943330,-70
2021-12-27 15:57:57.943340,-157
2021-12-27 15:57:57.943350,-193
2021-12-27 15:57:57.943359,-189
2021-12-27 15:57:57.943369,-175
2021-12-27 15:57:57.943379,-168
2021-12-27 15:57:57.943388,-161
2021-12-27 15:57:57.943398,-166
2021-12-27 15:57:57.943408,-182
2021-12-27 15:57:57.943417,-177
2021-12-27 15:57:57.943427,-152
2021-12-27 15:57:57.943436,-120
2021-12-27 15:57:57.943446,-107
2021-12-27 15:57:57.943456,-116
2021-12-27 15:57:57.943465,-104
2021-12-27 15:57:57.943475,-79
2021-12-27 15:57:57.943485,-56
2021-12-27 15:57:58.185623,-41
2021-12-27 15:57:58.185653,-25
2021-12-27 15:57:58.185664,-18
2021-12-27 15:57:58.185674,-36
2021-12-27 15:57:58.185684,-41
2021-12-27 15:57:58.185694,-31
2021-12-27 15:57:58.185703,-34
2021-12-27 15:57:58.185713,-27
2021-12-27 15:57:58.185723,-45
2021-12-27 15:57:58.185732,-95
2021-12-27 15:57:58.185742,-97
2021-12-27 15:57:58.185751,-86
2021-12-27 15:57:58.185761,-102
2021-12-27 15:57:58.185771,-109
2021-12-27 15:57:58.185780,-134
2021-12-27 15:57:58.185790,-184
2021-12-27 15:57:58.185799,-193
2021-12-27 15:57:58.185809,-152
2021-12-27 15:57:58.185818,-129
2021-12-27 15:57:58.185828,-134
2021-12-27 15:57:58.185838,-123
2021-12-27 15:57:58.185847,-129
2021-12-27 15:57:58.185857,-148
2021-12-27 15:57:58.185866,-148
2021-12-27 15:57:58.185876,-157
2021-12-27 15:57:58.185885,-152
2021-12-27 15:57:58.185895,-132
2021-12-27 15:57:58.185905,-145
2021-12-27 15:57:58.185914,-145
2021-12-27 15:57:58.185924,-109
2021-12-27 15:57:58.478052,-75
2021-12-27 15:57:58.478082,-52
2021-12-27 15:57:58.478093,-36
2021-12-27 15:57:58.478103,-45
2021-12-27 15:57:58.478112,-91
2021-12-27 15:57:58.478122,-123
2021-12-27 15:57:58.478131,-111
2021-12-27 15:57:58.478141,-138
2021-12-27 15:57:58.478162,-157
2021-12-27 15:57:58.478172,-127
2021-12-27 15:57:58.478181,-143
2021-12-27 15:57:58.478191,-166
2021-12-27 15:57:58.478200,-138
2021-12-27 15:57:58.478210,-102
2021-12-27 15:57:58.478219,-84
2021-12-27 15:57:58.478229,-63
2021-12-27 15:57:58.478239,4
2021-12-27 15:57:58.478248,225
2021-12-27 15:57:58.478258,549
2021-12-27 15:57:58.478267,608
2021-12-27 15:57:58.478277,75
2021-12-27 15:57:58.478287,-612
2021-12-27 15:57:58.478297,-628
2021-12-27 15:57:58.478307,-173
2021-12-27 15:57:58.478316,-29
2021-12-27 15:57:58.478326,-84
2021-12-27 15:57:58.478335,13
2021-12-27 15:57:58.478345,91
2021-12-27 15:57:58.478354,68
2021-12-27 15:57:58.478364,88
2021-12-27 15:57:58.624550,125
2021-12-27 15:57:58.624573,127
2021-12-27 15:57:58.624581,148
2021-12-27 15:57:58.624587,164
2021-12-27 15:57:58.624593,175
2021-12-27 15:57:58.624600,198
2021-12-27 15:57:58.624606,205
2021-12-27 15:57:58.624612,230
2021-12-27 15:57:58.624618,271
2021-12-27 15:57:58.624624,300
2021-12-27 15:57:58.624631,337
2021-12-27 15:57:58.624637,366
2021-12-27 15:57:58.624643,382
2021-12-27 15:57:58.624649,398
2021-12-27 15:57:58.624655,426
2021-12-27 15:57:58.624661,455
2021-12-27 15:57:58.624668,460
2021-12-27 15:57:58.624674,455
2021-12-27 15:57:58.624680,419
2021-12-27 15:57:58.624686,325
2021-12-27 15:57:58.624692,230
2021-12-27 15:57:58.624698,129
2021-12-27 15:57:58.624705,25
2021-12-27 15:57:58.624711,-29
2021-12-27 15:57:58.624717,-72
2021-12-27 15:57:58.624723,-125
2021-12-27 15:57:58.624729,-145
2021-12-27 15:57:58.624735,-159
2021-12-27 15:57:58.624741,-177
2021-12-27 15:57:58.624748,-166
2021-12-27 15:57:58.965358,-145
2021-12-27 15:57:58.965378,-141
2021-12-27 15:57:58.965386,-138
2021-12-27 15:57:58.965393,-118
2021-12-27 15:57:58.965399,-97
2021-12-27 15:57:58.965405,-72
2021-12-27 15:57:58.965412,-50
2021-12-27 15:57:58.965418,-61
2021-12-27 15:57:58.965425,-91
2021-12-27 15:57:58.965431,-84
2021-12-27 15:57:58.965437,-56
2021-12-27 15:57:58.965444,-56
2021-12-27 15:57:58.965450,-93
2021-12-27 15:57:58.965456,-120
2021-12-27 15:57:58.965463,-136
2021-12-27 15:57:58.965469,-161
2021-12-27 15:57:58.965475,-150
2021-12-27 15:57:58.965481,-120
2021-12-27 15:57:58.965488,-120
2021-12-27 15:57:58.965494,-109
2021-12-27 15:57:58.965500,-113
2021-12-27 15:57:58.965507,-150
2021-12-27 15:57:58.965513,-157
2021-12-27 15:57:58.965519,-141
2021-12-27 15:57:58.965525,-150
2021-12-27 15:57:58.965532,-168
2021-12-27 15:57:58.965538,-154
2021-12-27 15:57:58.965544,-145
2021-12-27 15:57:58.965551,-159
2021-12-27 15:57:58.965557,-170
2021-12-27 15:57:59.063762,-182
2021-12-27 15:57:59.063793,-175
2021-12-27 15:57:59.063804,-150
2021-12-27 15:57:59.063814,-159
2021-12-27 15:57:59.063823,-150
2021-12-27 15:57:59.063833,-93
2021-12-27 15:57:59.063842,-70
2021-12-27 15:57:59.063852,-72
2021-12-27 15:57:59.063861,-86
2021-12-27 15:57:59.063871,-109
2021-12-27 15:57:59.063880,-113
2021-12-27 15:57:59.063890,-86
2021-12-27 15:57:59.063899,-56
2021-12-27 15:57:59.063909,-50
2021-12-27 15:57:59.063918,-54
2021-12-27 15:57:59.063928,-70
2021-12-27 15:57:59.063937,-100
2021-12-27 15:57:59.063947,-72
2021-12-27 15:57:59.063958,-11
2021-12-27 15:57:59.063968,50
2021-12-27 15:57:59.063978,257
2021-12-27 15:57:59.063987,574
2021-12-27 15:57:59.063997,606
2021-12-27 15:57:59.064007,84
2021-12-27 15:57:59.064016,-597
2021-12-27 15:57:59.064026,-622
2021-12-27 15:57:59.064036,-138
2021-12-27 15:57:59.064045,0
2021-12-27 15:57:59.064055,-84
2021-12-27 15:57:59.064064,31
2021-12-27 15:57:59.307911,141
2021-12-27 15:57:59.307934,104
2021-12-27 15:57:59.307941,75
2021-12-27 15:57:59.307947,100
2021-12-27 15:57:59.307953,93
2021-12-27 15:57:59.307959,72
2021-12-27 15:57:59.307966,100
2021-12-27 15:57:59.307972,138
2021-12-27 15:57:59.307978,164
2021-12-27 15:57:59.307984,184
2021-12-27 15:57:59.307990,191
2021-12-27 15:57:59.307996,198
2021-12-27 15:57:59.308002,223
2021-12-27 15:57:59.308008,277
2021-12-27 15:57:59.308014,330
2021-12-27 15:57:59.308020,357
2021-12-27 15:57:59.308026,398
2021-12-27 15:57:59.308032,423
2021-12-27 15:57:59.308038,401
2021-12-27 15:57:59.308045,382
2021-12-27 15:57:59.308051,385
2021-12-27 15:57:59.308057,348
2021-12-27 15:57:59.308063,266
2021-12-27 15:57:59.308069,166
2021-12-27 15:57:59.308075,63
2021-12-27 15:57:59.308081,-25
2021-12-27 15:57:59.308087,-84
2021-12-27 15:57:59.308094,-127
2021-12-27 15:57:59.308100,-150
2021-12-27 15:57:59.308106,-150
2021-12-27 15:57:59.600548,-159
2021-12-27 15:57:59.600577,-157
2021-12-27 15:57:59.600588,-132
2021-12-27 15:57:59.600598,-148
2021-12-27 15:57:59.600608,-170
2021-12-27 15:57:59.600618,-150
2021-12-27 15:57:59.600628,-148
2021-12-27 15:57:59.600637,-161
2021-12-27 15:57:59.600647,-148
2021-12-27 15:57:59.600656,-118
2021-12-27 15:57:59.600666,-100
2021-12-27 15:57:59.600675,-84
2021-12-27 15:57:59.600685,-82
2021-12-27 15:57:59.600695,-95
2021-12-27 15:57:59.600704,-93
2021-12-27 15:57:59.600714,-70
2021-12-27 15:57:59.600723,-56
2021-12-27 15:57:59.600733,-38
2021-12-27 15:57:59.600743,-22
2021-12-27 15:57:59.600752,-29
2021-12-27 15:57:59.600762,-29
2021-12-27 15:57:59.600771,-27
2021-12-27 15:57:59.600781,-27
2021-12-27 15:57:59.600801,-29
2021-12-27 15:57:59.600811,-43
2021-12-27 15:57:59.600820,-43
2021-12-27 15:57:59.600830,-47
2021-12-27 15:57:59.600839,-56
2021-12-27 15:57:59.600849,-45
2021-12-27 15:57:59.600858,-43
2021-12-27 15:57:59.793368,-63
2021-12-27 15:57:59.793385,-84
2021-12-27 15:57:59.793393,-113
2021-12-27 15:57:59.793399,-134
2021-12-27 15:57:59.793406,-125
2021-12-27 15:57:59.793412,-120
2021-12-27 15:57:59.793418,-129
2021-12-27 15:57:59.793424,-125
2021-12-27 15:57:59.793430,-111
2021-12-27 15:57:59.793436,-118
2021-12-27 15:57:59.793442,-132
2021-12-27 15:57:59.793449,-118
2021-12-27 15:57:59.793455,-100
2021-12-27 15:57:59.793461,-93
2021-12-27 15:57:59.793467,-116
2021-12-27 15:57:59.793473,-150
2021-12-27 15:57:59.793479,-132
2021-12-27 15:57:59.793485,-97
2021-12-27 15:57:59.793492,-86
2021-12-27 15:57:59.793498,-66
2021-12-27 15:57:59.793504,-59
2021-12-27 15:57:59.793510,-52
2021-12-27 15:57:59.793516,95
2021-12-27 15:57:59.793523,412
2021-12-27 15:57:59.793529,619
2021-12-27 15:57:59.793535,364
2021-12-27 15:57:59.793541,-334
2021-12-27 15:57:59.793547,-797
2021-12-27 15:57:59.793553,-505
2021-12-27 15:57:59.793560,-107
2021-12-27 15:57:59.989707,-118
2021-12-27 15:57:59.989729,-88
2021-12-27 15:57:59.989736,66
2021-12-27 15:57:59.989743,36
2021-12-27 15:57:59.989749,-27
2021-12-27 15:57:59.989755,34
2021-12-27 15:57:59.989761,77
2021-12-27 15:57:59.989767,68
2021-12-27 15:57:59.989774,61
2021-12-27 15:57:59.989780,50
2021-12-27 15:57:59.989786,41
2021-12-27 15:57:59.989792,66
2021-12-27 15:57:59.989798,120
2021-12-27 15:57:59.989805,154
2021-12-27 15:57:59.989811,180
2021-12-27 15:57:59.989817,218
2021-12-27 15:57:59.989823,241
2021-12-27 15:57:59.989829,284
2021-12-27 15:57:59.989835,348
2021-12-27 15:57:59.989841,389
2021-12-27 15:57:59.989847,414
2021-12-27 15:57:59.989854,419
2021-12-27 15:57:59.989860,410
2021-12-27 15:57:59.989866,389
2021-12-27 15:57:59.989872,339
2021-12-27 15:57:59.989878,259
2021-12-27 15:57:59.989884,150
2021-12-27 15:57:59.989891,45
2021-12-27 15:57:59.989897,-34
2021-12-27 15:57:59.989903,-97
2021-12-27 15:58:00.234624,-127
2021-12-27 15:58:00.234655,-125
2021-12-27 15:58:00.234666,-134
2021-12-27 15:58:00.234676,-141
2021-12-27 15:58:00.234685,-143
2021-12-27 15:58:00.234695,-161
2021-12-27 15:58:00.234705,-161
2021-12-27 15:58:00.234714,-134
2021-12-27 15:58:00.234724,-113
2021-12-27 15:58:00.234733,-127
2021-12-27 15:58:00.234743,-148
2021-12-27 15:58:00.234753,-154
2021-12-27 15:58:00.234762,-161
2021-12-27 15:58:00.234772,-136
2021-12-27 15:58:00.234782,-104
2021-12-27 15:58:00.234791,-100
2021-12-27 15:58:00.234801,-82
2021-12-27 15:58:00.234810,-63
2021-12-27 15:58:00.234820,-63
2021-12-27 15:58:00.234829,-50
2021-12-27 15:58:00.234839,-31
2021-12-27 15:58:00.234849,-22
2021-12-27 15:58:00.234858,-18
2021-12-27 15:58:00.234868,-11
2021-12-27 15:58:00.234877,-4
2021-12-27 15:58:00.234887,-6
2021-12-27 15:58:00.234897,2
2021-12-27 15:58:00.234906,4
2021-12-27 15:58:00.234916,-6
2021-12-27 15:58:00.234926,-27
2021-12-27 15:58:00.528041,-70
2021-12-27 15:58:00.528068,-70
2021-12-27 15:58:00.528081,-43
2021-12-27 15:58:00.528092,-75
2021-12-27 15:58:00.528103,-97
2021-12-27 15:58:00.528114,-75
2021-12-27 15:58:00.528124,-82
2021-12-27 15:58:00.528134,-111
2021-12-27 15:58:00.528144,-113
2021-12-27 15:58:00.528155,-100
2021-12-27 15:58:00.528166,-102
2021-12-27 15:58:00.528177,-104
2021-12-27 15:58:00.528187,-127
2021-12-27 15:58:00.528197,-198
2021-12-27 15:58:00.528208,-227
2021-12-27 15:58:00.528220,-200
2021-12-27 15:58:00.528230,-184
2021-12-27 15:58:00.528240,-170
2021-12-27 15:58:00.528250,-150
2021-12-27 15:58:00.528260,-150
2021-12-27 15:58:00.528270,-152
2021-12-27 15:58:00.528280,-145
2021-12-27 15:58:00.528289,-123
2021-12-27 15:58:00.528299,-86
2021-12-27 15:58:00.528308,-43
2021-12-27 15:58:00.528318,56
2021-12-27 15:58:00.528329,289
2021-12-27 15:58:00.528340,571
2021-12-27 15:58:00.528351,569
2021-12-27 15:58:00.528361,52
2021-12-27 15:58:00.722234,-592
2021-12-27 15:58:00.722265,-622
2021-12-27 15:58:00.722277,-182
2021-12-27 15:58:00.722287,-41
2021-12-27 15:58:00.722297,-77
2021-12-27 15:58:00.722307,66
2021-12-27 15:58:00.722316,150
2021-12-27 15:58:00.722326,102
2021-12-27 15:58:00.722336,97
2021-12-27 15:58:00.722346,95
2021-12-27 15:58:00.722355,91
2021-12-27 15:58:00.722365,132
2021-12-27 15:58:00.722375,161
2021-12-27 15:58:00.722384,166
2021-12-27 15:58:00.722394,152
2021-12-27 15:58:00.722404,145
2021-12-27 15:58:00.722414,184
2021-12-27 15:58:00.722423,227
2021-12-27 15:58:00.722433,262
2021-12-27 15:58:00.722443,309
2021-12-27 15:58:00.722453,341
2021-12-27 15:58:00.722463,346
2021-12-27 15:58:00.722473,353
2021-12-27 15:58:00.722482,398
2021-12-27 15:58:00.722492,444
2021-12-27 15:58:00.722502,446
2021-12-27 15:58:00.722511,439
2021-12-27 15:58:00.722521,391
2021-12-27 15:58:00.722531,296
2021-12-27 15:58:00.722540,202
2021-12-27 15:58:00.916454,104
2021-12-27 15:58:00.916476,13
2021-12-27 15:58:00.916482,-56
2021-12-27 15:58:00.916487,-134
2021-12-27 15:58:00.916492,-207
2021-12-27 15:58:00.916497,-259
2021-12-27 15:58:00.916502,-275
2021-12-27 15:58:00.916507,-241
2021-12-27 15:58:00.916512,-216
2021-12-27 15:58:00.916517,-207
2021-12-27 15:58:00.916522,-195
2021-12-27 15:58:00.916527,-177
2021-12-27 15:58:00.916532,-150
2021-12-27 15:58:00.916537,-129
2021-12-27 15:58:00.916542,-113
2021-12-27 15:58:00.916547,-113
2021-12-27 15:58:00.916552,-159
2021-12-27 15:58:00.916556,-182
2021-12-27 15:58:00.916561,-148
2021-12-27 15:58:00.916566,-111
2021-12-27 15:58:00.916571,-97
2021-12-27 15:58:00.916576,-91
2021-12-27 15:58:00.916581,-72
2021-12-27 15:58:00.916586,-66
2021-12-27 15:58:00.916591,-61
2021-12-27 15:58:00.916596,-43
2021-12-27 15:58:00.916600,-34
2021-12-27 15:58:00.916605,-27
2021-12-27 15:58:00.916610,-20
2021-12-27 15:58:00.916619,-22
2021-12-27 15:58:01.258158,-15
2021-12-27 15:58:01.258188,0
2021-12-27 15:58:01.258200,4
2021-12-27 15:58:01.258210,4
2021-12-27 15:58:01.258220,13
2021-12-27 15:58:01.258230,11
2021-12-27 15:58:01.258239,-25
2021-12-27 15:58:01.258249,-29
2021-12-27 15:58:01.258259,2
2021-12-27 15:58:01.258269,-2
2021-12-27 15:58:01.258279,-6
2021-12-27 15:58:01.258288,2
2021-12-27 15:58:01.258298,-38
2021-12-27 15:58:01.258308,-77
2021-12-27 15:58:01.258317,-66
2021-12-27 15:58:01.258327,-56
2021-12-27 15:58:01.258336,-56
2021-12-27 15:58:01.258346,-50
2021-12-27 15:58:01.258356,-63
2021-12-27 15:58:01.258366,-82
2021-12-27 15:58:01.258375,-70
2021-12-27 15:58:01.258385,-63
2021-12-27 15:58:01.258395,-91
2021-12-27 15:58:01.258404,-107
2021-12-27 15:58:01.258414,-97
2021-12-27 15:58:01.258424,-104
2021-12-27 15:58:01.258434,-97
2021-12-27 15:58:01.258443,-84
2021-12-27 15:58:01.258453,-86
2021-12-27 15:58:01.258463,-72
2021-12-27 15:58:01.404001,-54
2021-12-27 15:58:01.404024,-52
2021-12-27 15:58:01.404031,-45
2021-12-27 15:58:01.404037,-31
2021-12-27 15:58:01.404044,43
2021-12-27 15:58:01.404050,266
2021-12-27 15:58:01.404056,583
2021-12-27 15:58:01.404062,660
2021-12-27 15:58:01.404068,223
2021-12-27 15:58:01.404075,-473
2021-12-27 15:58:01.404081,-692
2021-12-27 15:58:01.404087,-303
2021-12-27 15:58:01.404093,-88
2021-12-27 15:58:01.404099,-159
2021-12-27 15:58:01.404106,-59
2021-12-27 15:58:01.404112,56
2021-12-27 15:58:01.404118,25
2021-12-27 15:58:01.404124,41
2021-12-27 15:58:01.404130,102
2021-12-27 15:58:01.404137,107
2021-12-27 15:58:01.404143,88
2021-12-27 15:58:01.404149,86
2021-12-27 15:58:01.404155,118
2021-12-27 15:58:01.404161,157
2021-12-27 15:58:01.404167,182
2021-12-27 15:58:01.404174,209
2021-12-27 15:58:01.404180,207
2021-12-27 15:58:01.404186,195
2021-12-27 15:58:01.404192,241
2021-12-27 15:58:01.404198,307
2021-12-27 15:58:01.745660,355
2021-12-27 15:58:01.745690,394
2021-12-27 15:58:01.745701,421
2021-12-27 15:58:01.745711,423
2021-12-27 15:58:01.745721,432
2021-12-27 15:58:01.745731,453
2021-12-27 15:58:01.745741,432
2021-12-27 15:58:01.745750,366
2021-12-27 15:58:01.745760,271
2021-12-27 15:58:01.745770,120
2021-12-27 15:58:01.745780,-9
2021-12-27 15:58:01.745790,-63
2021-12-27 15:58:01.745799,-107
2021-12-27 15:58:01.745809,-134
2021-12-27 15:58:01.745819,-150
2021-12-27 15:58:01.745829,-193
2021-12-27 15:58:01.745838,-218
2021-12-27 15:58:01.745848,-189
2021-12-27 15:58:01.745858,-148
2021-12-27 15:58:01.745868,-138
2021-12-27 15:58:01.745877,-132
2021-12-27 15:58:01.745887,-123
2021-12-27 15:58:01.745897,-134
2021-12-27 15:58:01.745907,-127
2021-12-27 15:58:01.745916,-93
2021-12-27 15:58:01.745926,-72
2021-12-27 15:58:01.745936,-59
2021-12-27 15:58:01.745946,-56
2021-12-27 15:58:01.745955,-59
2021-12-27 15:58:01.745965,-43
2021-12-27 15:58:01.890856,-20
2021-12-27 15:58:01.890886,2
2021-12-27 15:58:01.890898,9
2021-12-27 15:58:01.890908,0
2021-12-27 15:58:01.890918,-22
2021-12-27 15:58:01.890928,-43
2021-12-27 15:58:01.890937,-25
2021-12-27 15:58:01.890947,-2
2021-12-27 15:58:01.890956,-6
2021-12-27 15:58:01.890966,-4
2021-12-27 15:58:01.890975,-4
2021-12-27 15:58:01.890985,-20
2021-12-27 15:58:01.890995,-13
2021-12-27 15:58:01.891004,2
2021-12-27 15:58:01.891014,6
2021-12-27 15:58:01.891023,6
2021-12-27 15:58:01.891033,13
2021-12-27 15:58:01.891042,-4
2021-12-27 15:58:01.891052,-52
2021-12-27 15:58:01.891061,-47
2021-12-27 15:58:01.891071,-20
2021-12-27 15:58:01.891081,-36
2021-12-27 15:58:01.891090,-47
2021-12-27 15:58:01.891100,-43
2021-12-27 15:58:01.891109,-47
2021-12-27 15:58:01.891119,-38
2021-12-27 15:58:01.891128,-27
2021-12-27 15:58:01.891138,-34
2021-12-27 15:58:01.891147,-66
2021-12-27 15:58:01.891157,-95
2021-12-27 15:58:02.086093,-116
2021-12-27 15:58:02.086116,-136
2021-12-27 15:58:02.086123,-143
2021-12-27 15:58:02.086130,-145
2021-12-27 15:58:02.086136,-138
2021-12-27 15:58:02.086142,-129
2021-12-27 15:58:02.086149,-154
2021-12-27 15:58:02.086155,-164
2021-12-27 15:58:02.086161,-118
2021-12-27 15:58:02.086167,-47
2021-12-27 15:58:02.086173,157
2021-12-27 15:58:02.086180,496
2021-12-27 15:58:02.086186,592
2021-12-27 15:58:02.086192,118
2021-12-27 15:58:02.086198,-619
2021-12-27 15:58:02.086205,-772
2021-12-27 15:58:02.086211,-309
2021-12-27 15:58:02.086217,-91
2021-12-27 15:58:02.086224,-152
2021-12-27 15:58:02.086230,-52
2021-12-27 15:58:02.086236,56
2021-12-27 15:58:02.086242,29
2021-12-27 15:58:02.086248,27
2021-12-27 15:58:02.086255,82
2021-12-27 15:58:02.086261,100
2021-12-27 15:58:02.086267,97
2021-12-27 15:58:02.086273,102
2021-12-27 15:58:02.086280,95
2021-12-27 15:58:02.086286,118
2021-12-27 15:58:02.086292,161
2021-12-27 15:58:02.282277,180
2021-12-27 15:58:02.282308,202
2021-12-27 15:58:02.282319,230
2021-12-27 15:58:02.282329,259
2021-12-27 15:58:02.282339,305
2021-12-27 15:58:02.282348,348
2021-12-27 15:58:02.282358,391
2021-12-27 15:58:02.282367,419
2021-12-27 15:58:02.282377,401
2021-12-27 15:58:02.282387,382
2021-12-27 15:58:02.282396,385
2021-12-27 15:58:02.282406,369
2021-12-27 15:58:02.282416,305
2021-12-27 15:58:02.282425,198
2021-12-27 15:58:02.282435,68
2021-12-27 15:58:02.282445,-61
2021-12-27 15:58:02.282454,-125
2021-12-27 15:58:02.282464,-143
2021-12-27 15:58:02.282474,-168
2021-12-27 15:58:02.282484,-170
2021-12-27 15:58:02.282493,-168
2021-12-27 15:58:02.282503,-191
2021-12-27 15:58:02.282512,-177
2021-12-27 15:58:02.282522,-170
2021-12-27 15:58:02.282532,-202
2021-12-27 15:58:02.282542,-195
2021-12-27 15:58:02.282551,-166
2021-12-27 15:58:02.282561,-175
2021-12-27 15:58:02.282570,-200
2021-12-27 15:58:02.282580,-189
2021-12-27 15:58:02.574547,-143
2021-12-27 15:58:02.574579,-118
2021-12-27 15:58:02.574591,-116
2021-12-27 15:58:02.574601,-145
2021-12-27 15:58:02.574610,-164
2021-12-27 15:58:02.574620,-123
2021-12-27 15:58:02.574630,-93
2021-12-27 15:58:02.574639,-84
2021-12-27 15:58:02.574649,-70
2021-12-27 15:58:02.574659,-93
2021-12-27 15:58:02.574668,-123
2021-12-27 15:58:02.574678,-107
2021-12-27 15:58:02.574688,-75
2021-12-27 15:58:02.574697,-61
2021-12-27 15:58:02.574707,-61
2021-12-27 15:58:02.574716,-66
2021-12-27 15:58:02.574726,-70
2021-12-27 15:58:02.574736,-61
2021-12-27 15:58:02.574745,-34
2021-12-27 15:58:02.574755,-22
2021-12-27 15:58:02.574765,-20
2021-12-27 15:58:02.574774,-13
2021-12-27 15:58:02.574784,-22
2021-12-27 15:58:02.574794,-18
2021-12-27 15:58:02.574803,-6
2021-12-27 15:58:02.574813,-15
2021-12-27 15:58:02.574823,-27
2021-12-27 15:58:02.574832,-29
2021-12-27 15:58:02.574846,-27
2021-12-27 15:58:02.574856,-38
2021-12-27 15:58:02.769565,-68
2021-12-27 15:58:02.769587,-86
2021-12-27 15:58:02.769595,-104
2021-12-27 15:58:02.769602,-118
2021-12-27 15:58:02.769608,-127
2021-12-27 15:58:02.769614,-154
2021-12-27 15:58:02.769621,-143
2021-12-27 15:58:02.769627,-97
2021-12-27 15:58:02.769633,-84
2021-12-27 15:58:02.769640,-93
2021-12-27 15:58:02.769646,-113
2021-12-27 15:58:02.769652,-120
2021-12-27 15:58:02.769659,-113
2021-12-27 15:58:02.769665,-100
2021-12-27 15:58:02.769671,-84
2021-12-27 15:58:02.769678,-86
2021-12-27 15:58:02.769684,-86
2021-12-27 15:58:02.769690,-86
2021-12-27 15:58:02.769697,-107
2021-12-27 15:58:02.769703,-91
2021-12-27 15:58:02.769709,-47
2021-12-27 15:58:02.769716,2
2021-12-27 15:58:02.769722,180
2021-12-27 15:58:02.769728,485
2021-12-27 15:58:02.769735,624
2021-12-27 15:58:02.769741,339
2021-12-27 15:58:02.769747,-305
2021-12-27 15:58:02.769754,-685
2021-12-27 15:58:02.769760,-369
2021-12-27 15:58:02.769766,-36
2021-12-27 15:58:03.012401,-107
2021-12-27 15:58:03.012425,-93
2021-12-27 15:58:03.012432,31
2021-12-27 15:58:03.012439,-2
2021-12-27 15:58:03.012445,-20
2021-12-27 15:58:03.012452,59
2021-12-27 15:58:03.012458,54
2021-12-27 15:58:03.012464,13
2021-12-27 15:58:03.012471,43
2021-12-27 15:58:03.012477,77
2021-12-27 15:58:03.012483,93
2021-12-27 15:58:03.012489,123
2021-12-27 15:58:03.012496,143
2021-12-27 15:58:03.012502,143
2021-12-27 15:58:03.012508,154
2021-12-27 15:58:03.012515,200
2021-12-27 15:58:03.012521,246
2021-12-27 15:58:03.012527,287
2021-12-27 15:58:03.012533,337
2021-12-27 15:58:03.012540,366
2021-12-27 15:58:03.012546,380
2021-12-27 15:58:03.012552,396
2021-12-27 15:58:03.012559,401
2021-12-27 15:58:03.012565,398
2021-12-27 15:58:03.012571,360
2021-12-27 15:58:03.012577,271
2021-12-27 15:58:03.012584,161
2021-12-27 15:58:03.012590,52
2021-12-27 15:58:03.012596,-25
2021-12-27 15:58:03.012603,-72
2021-12-27 15:58:03.208142,-104
2021-12-27 15:58:03.208163,-120
2021-12-27 15:58:03.208171,-148
2021-12-27 15:58:03.208177,-175
2021-12-27 15:58:03.208183,-186
2021-12-27 15:58:03.208190,-189
2021-12-27 15:58:03.208196,-159
2021-12-27 15:58:03.208202,-138
2021-12-27 15:58:03.208208,-161
2021-12-27 15:58:03.208215,-180
2021-12-27 15:58:03.208221,-157
2021-12-27 15:58:03.208227,-116
2021-12-27 15:58:03.208234,-97
2021-12-27 15:58:03.208240,-84
2021-12-27 15:58:03.208246,-84
2021-12-27 15:58:03.208253,-116
2021-12-27 15:58:03.208259,-109
2021-12-27 15:58:03.208265,-63
2021-12-27 15:58:03.208272,-54
2021-12-27 15:58:03.208278,-41
2021-12-27 15:58:03.208284,-27
2021-12-27 15:58:03.208291,-43
2021-12-27 15:58:03.208297,-45
2021-12-27 15:58:03.208303,-15
2021-12-27 15:58:03.208310,6
2021-12-27 15:58:03.208316,9
2021-12-27 15:58:03.208322,4
2021-12-27 15:58:03.208329,-15
2021-12-27 15:58:03.208335,-50
2021-12-27 15:58:03.208341,-45
2021-12-27 15:58:03.500675,-18
2021-12-27 15:58:03.500706,-18
2021-12-27 15:58:03.500718,-15
2021-12-27 15:58:03.500728,-45
2021-12-27 15:58:03.500738,-104
2021-12-27 15:58:03.500747,-145
2021-12-27 15:58:03.500757,-195
2021-12-27 15:58:03.500767,-234
2021-12-27 15:58:03.500776,-218
2021-12-27 15:58:03.500786,-216
2021-12-27 15:58:03.500796,-248
2021-12-27 15:58:03.500806,-250
2021-12-27 15:58:03.500815,-207
2021-12-27 15:58:03.500825,-180
2021-12-27 15:58:03.500835,-182
2021-12-27 15:58:03.500844,-170
2021-12-27 15:58:03.500854,-166
2021-12-27 15:58:03.500864,-166
2021-12-27 15:58:03.500873,-150
2021-12-27 15:58:03.500883,-136
2021-12-27 15:58:03.500893,-120
2021-12-27 15:58:03.500902,-102
2021-12-27 15:58:03.500912,-91
2021-12-27 15:58:03.500921,-72
2021-12-27 15:58:03.500931,-52
2021-12-27 15:58:03.500941,-31
2021-12-27 15:58:03.500950,-29
2021-12-27 15:58:03.500960,-47
2021-12-27 15:58:03.500970,-47
2021-12-27 15:58:03.500979,-38
2021-12-27 15:58:03.696139,-34
2021-12-27 15:58:03.696169,-13
2021-12-27 15:58:03.696181,-4
2021-12-27 15:58:03.696191,-6
2021-12-27 15:58:03.696200,-6
2021-12-27 15:58:03.696210,-22
2021-12-27 15:58:03.696220,-36
2021-12-27 15:58:03.696229,-11
2021-12-27 15:58:03.696239,25
2021-12-27 15:58:03.696249,132
2021-12-27 15:58:03.696259,419
2021-12-27 15:58:03.696268,656
2021-12-27 15:58:03.696278,448
2021-12-27 15:58:03.696288,-182
2021-12-27 15:58:03.696297,-644
2021-12-27 15:58:03.696307,-430
2021-12-27 15:58:03.696317,-20
2021-12-27 15:58:03.696327,4
2021-12-27 15:58:03.696336,-20
2021-12-27 15:58:03.696346,100
2021-12-27 15:58:03.696356,123
2021-12-27 15:58:03.696365,93
2021-12-27 15:58:03.696375,134
2021-12-27 15:58:03.696385,166
2021-12-27 15:58:03.696394,164
2021-12-27 15:58:03.696404,170
2021-12-27 15:58:03.696414,191
2021-12-27 15:58:03.696423,207
2021-12-27 15:58:03.696433,218
2021-12-27 15:58:03.696443,255
2021-12-27 15:58:03.986763,284
2021-12-27 15:58:03.986781,287
2021-12-27 15:58:03.986788,312
2021-12-27 15:58:03.986795,339
2021-12-27 15:58:03.986801,371
2021-12-27 15:58:03.986807,423
2021-12-27 15:58:03.986813,451
2021-12-27 15:58:03.986820,442
2021-12-27 15:58:03.986826,423
2021-12-27 15:58:03.986832,426
2021-12-27 15:58:03.986838,401
2021-12-27 15:58:03.986845,293
2021-12-27 15:58:03.986851,182
2021-12-27 15:58:03.986858,84
2021-12-27 15:58:03.986864,-41
2021-12-27 15:58:03.986870,-134
2021-12-27 15:58:03.986877,-175
2021-12-27 15:58:03.986883,-202
2021-12-27 15:58:03.986889,-216
2021-12-27 15:58:03.986895,-223
2021-12-27 15:58:03.986902,-232
2021-12-27 15:58:03.986908,-230
2021-12-27 15:58:03.986914,-205
2021-12-27 15:58:03.986920,-168
2021-12-27 15:58:03.986927,-150
2021-12-27 15:58:03.986933,-136
2021-12-27 15:58:03.986939,-132
2021-12-27 15:58:03.986946,-132
2021-12-27 15:58:03.986952,-104
2021-12-27 15:58:03.986958,-79
2021-12-27 15:58:04.230976,-75
2021-12-27 15:58:04.231002,-75
2021-12-27 15:58:04.231014,-97
2021-12-27 15:58:04.231024,-107
2021-12-27 15:58:04.231033,-84
2021-12-27 15:58:04.231043,-63
2021-12-27 15:58:04.231052,-47
2021-12-27 15:58:04.231062,-54
2021-12-27 15:58:04.231071,-93
2021-12-27 15:58:04.231081,-141
2021-12-27 15:58:04.231091,-161
2021-12-27 15:58:04.231100,-154
2021-12-27 15:58:04.231110,-173
2021-12-27 15:58:04.231119,-191
2021-12-27 15:58:04.231129,-189
2021-12-27 15:58:04.231138,-205
2021-12-27 15:58:04.231148,-209
2021-12-27 15:58:04.231158,-177
2021-12-27 15:58:04.231167,-159
2021-12-27 15:58:04.231177,-148
2021-12-27 15:58:04.231186,-141
2021-12-27 15:58:04.231196,-159
2021-12-27 15:58:04.231206,-175
2021-12-27 15:58:04.231215,-157
2021-12-27 15:58:04.231225,-120
2021-12-27 15:58:04.231234,-109
2021-12-27 15:58:04.231244,-104
2021-12-27 15:58:04.231253,-100
2021-12-27 15:58:04.231263,-109
2021-12-27 15:58:04.231272,-93
2021-12-27 15:58:04.378347,-61
2021-12-27 15:58:04.378378,-52
2021-12-27 15:58:04.378389,-50
2021-12-27 15:58:04.378399,-59
2021-12-27 15:58:04.378409,-68
2021-12-27 15:58:04.378419,-66
2021-12-27 15:58:04.378428,-59
2021-12-27 15:58:04.378438,-38
2021-12-27 15:58:04.378448,-20
2021-12-27 15:58:04.378457,-9
2021-12-27 15:58:04.378467,-15
2021-12-27 15:58:04.378476,-38
2021-12-27 15:58:04.378486,-22
2021-12-27 15:58:04.378496,4
2021-12-27 15:58:04.378505,-27
2021-12-27 15:58:04.378515,-84
2021-12-27 15:58:04.378525,-141
2021-12-27 15:58:04.378534,-189
2021-12-27 15:58:04.378544,-175
2021-12-27 15:58:04.378553,-132
2021-12-27 15:58:04.378563,-113
2021-12-27 15:58:04.378573,-118
2021-12-27 15:58:04.378582,-104
2021-12-27 15:58:04.378597,-93
2021-12-27 15:58:04.378606,-93
2021-12-27 15:58:04.378616,-56
2021-12-27 15:58:04.378626,2
2021-12-27 15:58:04.378635,150
2021-12-27 15:58:04.378645,460
2021-12-27 15:58:04.378655,642
2021-12-27 15:58:04.621620,373
2021-12-27 15:58:04.621642,-257
2021-12-27 15:58:04.621650,-651
2021-12-27 15:58:04.621656,-371
2021-12-27 15:58:04.621663,-9
2021-12-27 15:58:04.621669,-11
2021-12-27 15:58:04.621675,-2
2021-12-27 15:58:04.621682,100
2021-12-27 15:58:04.621688,107
2021-12-27 15:58:04.621694,93
2021-12-27 15:58:04.621700,129
2021-12-27 15:58:04.621707,157
2021-12-27 15:58:04.621713,132
2021-12-27 15:58:04.621719,125
2021-12-27 15:58:04.621726,157
2021-12-27 15:58:04.621732,170
2021-12-27 15:58:04.621738,166
2021-12-27 15:58:04.621744,168
2021-12-27 15:58:04.621750,186
2021-12-27 15:58:04.621756,214
2021-12-27 15:58:04.621763,234
2021-12-27 15:58:04.621769,273
2021-12-27 15:58:04.621775,316
2021-12-27 15:58:04.621781,360
2021-12-27 15:58:04.621788,401
2021-12-27 15:58:04.621794,416
2021-12-27 15:58:04.621800,426
2021-12-27 15:58:04.621806,435
2021-12-27 15:58:04.621812,421
2021-12-27 15:58:04.621818,396
2021-12-27 15:58:04.816872,330
2021-12-27 15:58:04.816902,218
2021-12-27 15:58:04.816914,107
2021-12-27 15:58:04.816924,13
2021-12-27 15:58:04.816934,-45
2021-12-27 15:58:04.816943,-82
2021-12-27 15:58:04.816953,-109
2021-12-27 15:58:04.816962,-138
2021-12-27 15:58:04.816972,-182
2021-12-27 15:58:04.816981,-193
2021-12-27 15:58:04.816991,-177
2021-12-27 15:58:04.817000,-180
2021-12-27 15:58:04.817010,-164
2021-12-27 15:58:04.817019,-152
2021-12-27 15:58:04.817029,-182
2021-12-27 15:58:04.817038,-191
2021-12-27 15:58:04.817048,-168
2021-12-27 15:58:04.817058,-161
2021-12-27 15:58:04.817067,-189
2021-12-27 15:58:04.817077,-216
2021-12-27 15:58:04.817086,-234
2021-12-27 15:58:04.817096,-262
2021-12-27 15:58:04.817105,-287
2021-12-27 15:58:04.817115,-282
2021-12-27 15:58:04.817125,-255
2021-12-27 15:58:04.817134,-227
2021-12-27 15:58:04.817143,-232
2021-12-27 15:58:04.817153,-241
2021-12-27 15:58:04.817162,-221
2021-12-27 15:58:04.817172,-193
2021-12-27 15:58:05.060223,-175
2021-12-27 15:58:05.060254,-159
2021-12-27 15:58:05.060265,-166
2021-12-27 15:58:05.060276,-198
2021-12-27 15:58:05.060285,-207
2021-12-27 15:58:05.060295,-175
2021-12-27 15:58:05.060304,-145
2021-12-27 15:58:05.060314,-138
2021-12-27 15:58:05.060323,-129
2021-12-27 15:58:05.060333,-150
2021-12-27 15:58:05.060342,-173
2021-12-27 15:58:05.060352,-141
2021-12-27 15:58:05.060361,-113
2021-12-27 15:58:05.060371,-109
2021-12-27 15:58:05.060381,-95
2021-12-27 15:58:05.060391,-95
2021-12-27 15:58:05.060400,-93
2021-12-27 15:58:05.060410,-77
2021-12-27 15:58:05.060419,-54
2021-12-27 15:58:05.060429,-41
2021-12-27 15:58:05.060438,-56
2021-12-27 15:58:05.060448,-84
2021-12-27 15:58:05.060457,-97
2021-12-27 15:58:05.060467,-84
2021-12-27 15:58:05.060476,-63
2021-12-27 15:58:05.060486,-59
2021-12-27 15:58:05.060496,-47
2021-12-27 15:58:05.060505,-29
2021-12-27 15:58:05.060514,-18
2021-12-27 15:58:05.060524,2
2021-12-27 15:58:05.304131,18
2021-12-27 15:58:05.304154,38
2021-12-27 15:58:05.304161,56
2021-12-27 15:58:05.304168,34
2021-12-27 15:58:05.304174,-2
2021-12-27 15:58:05.304180,-31
2021-12-27 15:58:05.304186,-25
2021-12-27 15:58:05.304193,9
2021-12-27 15:58:05.304199,9
2021-12-27 15:58:05.304205,4
2021-12-27 15:58:05.304211,9
2021-12-27 15:58:05.304218,-11
2021-12-27 15:58:05.304224,-18
2021-12-27 15:58:05.304230,11
2021-12-27 15:58:05.304236,31
2021-12-27 15:58:05.304242,70
2021-12-27 15:58:05.304249,252
2021-12-27 15:58:05.304255,569
2021-12-27 15:58:05.304261,694
2021-12-27 15:58:05.304267,344
2021-12-27 15:58:05.304274,-314
2021-12-27 15:58:05.304280,-603
2021-12-27 15:58:05.304286,-257
2021-12-27 15:58:05.304293,11
2021-12-27 15:58:05.304299,-31
2021-12-27 15:58:05.304305,59
2021-12-27 15:58:05.304311,175
2021-12-27 15:58:05.304317,118
2021-12-27 15:58:05.304324,68
2021-12-27 15:58:05.304330,91
2021-12-27 15:58:05.547895,107
2021-12-27 15:58:05.547917,116
2021-12-27 15:58:05.547925,138
2021-12-27 15:58:05.547931,161
2021-12-27 15:58:05.547937,168
2021-12-27 15:58:05.547944,193
2021-12-27 15:58:05.547950,200
2021-12-27 15:58:05.547956,184
2021-12-27 15:58:05.547963,211
2021-12-27 15:58:05.547969,255
2021-12-27 15:58:05.547975,284
2021-12-27 15:58:05.547982,332
2021-12-27 15:58:05.547988,360
2021-12-27 15:58:05.547994,360
2021-12-27 15:58:05.548000,366
2021-12-27 15:58:05.548007,366
2021-12-27 15:58:05.548013,357
2021-12-27 15:58:05.548019,348
2021-12-27 15:58:05.548026,321
2021-12-27 15:58:05.548032,236
2021-12-27 15:58:05.548038,120
2021-12-27 15:58:05.548044,18
2021-12-27 15:58:05.548051,-86
2021-12-27 15:58:05.548057,-168
2021-12-27 15:58:05.548064,-225
2021-12-27 15:58:05.548070,-300
2021-12-27 15:58:05.548077,-332
2021-12-27 15:58:05.548083,-314
2021-12-27 15:58:05.548089,-298
2021-12-27 15:58:05.548096,-275
2021-12-27 15:58:05.791886,-250
2021-12-27 15:58:05.791909,-236
2021-12-27 15:58:05.791916,-232
2021-12-27 15:58:05.791923,-230
2021-12-27 15:58:05.791929,-202
2021-12-27 15:58:05.791935,-175
2021-12-27 15:58:05.791942,-157
2021-12-27 15:58:05.791948,-143
2021-12-27 15:58:05.791954,-168
2021-12-27 15:58:05.791960,-184
2021-12-27 15:58:05.791967,-157
2021-12-27 15:58:05.791973,-127
2021-12-27 15:58:05.791979,-111
2021-12-27 15:58:05.791986,-102
2021-12-27 15:58:05.791992,-116
2021-12-27 15:58:05.791998,-145
2021-12-27 15:58:05.792004,-138
2021-12-27 15:58:05.792011,-100
2021-12-27 15:58:05.792017,-88
2021-12-27 15:58:05.792023,-82
2021-12-27 15:58:05.792029,-68
2021-12-27 15:58:05.792036,-88
2021-12-27 15:58:05.792042,-86
2021-12-27 15:58:05.792048,-54
2021-12-27 15:58:05.792054,-38
2021-12-27 15:58:05.792061,-29
2021-12-27 15:58:05.792067,-41
2021-12-27 15:58:05.792073,-66
2021-12-27 15:58:05.792079,-61
2021-12-27 15:58:05.792086,-41
2021-12-27 15:58:06.033508,-20
2021-12-27 15:58:06.033525,-6
2021-12-27 15:58:06.033531,-13
2021-12-27 15:58:06.033537,-56
2021-12-27 15:58:06.033542,-91
2021-12-27 15:58:06.033547,-54
2021-12-27 15:58:06.033552,-22
2021-12-27 15:58:06.033557,-25
2021-12-27 15:58:06.033562,-11
2021-12-27 15:58:06.033567,-27
2021-12-27 15:58:06.033572,-61
2021-12-27 15:58:06.033577,-52
2021-12-27 15:58:06.033582,-25
2021-12-27 15:58:06.033587,-9
2021-12-27 15:58:06.033592,-4
2021-12-27 15:58:06.033597,-18
2021-12-27 15:58:06.033602,-47
2021-12-27 15:58:06.033608,-63
2021-12-27 15:58:06.033613,-25
2021-12-27 15:58:06.033618,20
2021-12-27 15:58:06.033623,31
2021-12-27 15:58:06.033628,36
2021-12-27 15:58:06.033633,36
2021-12-27 15:58:06.033638,34
2021-12-27 15:58:06.033643,36
2021-12-27 15:58:06.033648,31
2021-12-27 15:58:06.033653,31
2021-12-27 15:58:06.033658,34
2021-12-27 15:58:06.033663,22
2021-12-27 15:58:06.033668,9
2021-12-27 15:58:06.230584,9
2021-12-27 15:58:06.230606,34
2021-12-27 15:58:06.230614,43
2021-12-27 15:58:06.230621,29
2021-12-27 15:58:06.230627,34
2021-12-27 15:58:06.230634,34
2021-12-27 15:58:06.230640,120
2021-12-27 15:58:06.230647,423
2021-12-27 15:58:06.230653,697
2021-12-27 15:58:06.230660,544
2021-12-27 15:58:06.230666,-84
2021-12-27 15:58:06.230672,-626
2021-12-27 15:58:06.230679,-483
2021-12-27 15:58:06.230685,-63
2021-12-27 15:58:06.230692,15
2021-12-27 15:58:06.230698,11
2021-12-27 15:58:06.230704,138
2021-12-27 15:58:06.230711,180
2021-12-27 15:58:06.230717,132
2021-12-27 15:58:06.230723,159
2021-12-27 15:58:06.230730,209
2021-12-27 15:58:06.230736,198
2021-12-27 15:58:06.230742,202
2021-12-27 15:58:06.230749,234
2021-12-27 15:58:06.230755,241
2021-12-27 15:58:06.230761,243
2021-12-27 15:58:06.230768,259
2021-12-27 15:58:06.230774,273
2021-12-27 15:58:06.230780,273
2021-12-27 15:58:06.230787,293
2021-12-27 15:58:06.523176,325
2021-12-27 15:58:06.523206,330
2021-12-27 15:58:06.523217,344
2021-12-27 15:58:06.523227,378
2021-12-27 15:58:06.523237,382
2021-12-27 15:58:06.523247,378
2021-12-27 15:58:06.523256,373
2021-12-27 15:58:06.523266,319
2021-12-27 15:58:06.523276,248
2021-12-27 15:58:06.523285,161
2021-12-27 15:58:06.523295,45
2021-12-27 15:58:06.523305,-47
2021-12-27 15:58:06.523314,-129
2021-12-27 15:58:06.523324,-227
2021-12-27 15:58:06.523334,-305
2021-12-27 15:58:06.523344,-321
2021-12-27 15:58:06.523353,-312
2021-12-27 15:58:06.523368,-309
2021-12-27 15:58:06.523378,-293
2021-12-27 15:58:06.523388,-280
2021-12-27 15:58:06.523397,-282
2021-12-27 15:58:06.523407,-264
2021-12-27 15:58:06.523417,-243
2021-12-27 15:58:06.523427,-216
2021-12-27 15:58:06.523436,-182
2021-12-27 15:58:06.523446,-164
2021-12-27 15:58:06.523455,-161
2021-12-27 15:58:06.523465,-159
2021-12-27 15:58:06.523475,-134
2021-12-27 15:58:06.523484,-104
2021-12-27 15:58:06.767193,-91
2021-12-27 15:58:06.767224,-72
2021-12-27 15:58:06.767236,-77
2021-12-27 15:58:06.767246,-109
2021-12-27 15:58:06.767256,-107
2021-12-27 15:58:06.767266,-82
2021-12-27 15:58:06.767276,-68
2021-12-27 15:58:06.767285,-59
2021-12-27 15:58:06.767295,-56
2021-12-27 15:58:06.767305,-63
2021-12-27 15:58:06.767315,-59
2021-12-27 15:58:06.767325,-43
2021-12-27 15:58:06.767335,-27
2021-12-27 15:58:06.767344,-27
2021-12-27 15:58:06.767354,-29
2021-12-27 15:58:06.767364,-54
2021-12-27 15:58:06.767374,-77
2021-12-27 15:58:06.767383,-45
2021-12-27 15:58:06.767393,-22
2021-12-27 15:58:06.767403,-22
2021-12-27 15:58:06.767413,-27
2021-12-27 15:58:06.767422,-59
2021-12-27 15:58:06.767432,-75
2021-12-27 15:58:06.767442,-43
2021-12-27 15:58:06.767451,-13
2021-12-27 15:58:06.767461,-11
2021-12-27 15:58:06.767471,-13
2021-12-27 15:58:06.767481,-18
2021-12-27 15:58:06.767490,-29
2021-12-27 15:58:06.767500,-15
2021-12-27 15:58:06.961730,13
2021-12-27 15:58:06.961761,18
2021-12-27 15:58:06.961773,18
2021-12-27 15:58:06.961783,27
2021-12-27 15:58:06.961793,6
2021-12-27 15:58:06.961803,-18
2021-12-27 15:58:06.961812,-13
2021-12-27 15:58:06.961822,29
2021-12-27 15:58:06.961832,52
2021-12-27 15:58:06.961841,29
2021-12-27 15:58:06.961851,6
2021-12-27 15:58:06.961861,-4
2021-12-27 15:58:06.961871,0
2021-12-27 15:58:06.961881,9
2021-12-27 15:58:06.961890,-11
2021-12-27 15:58:06.961900,-54
2021-12-27 15:58:06.961909,-86
2021-12-27 15:58:06.961919,-79
2021-12-27 15:58:06.961928,-52
2021-12-27 15:58:06.961938,-43
2021-12-27 15:58:06.961947,-31
2021-12-27 15:58:06.961957,-13
2021-12-27 15:58:06.961966,-15
2021-12-27 15:58:06.961976,-9
2021-12-27 15:58:06.961985,86
2021-12-27 15:58:06.961995,348
2021-12-27 15:58:06.962005,626
2021-12-27 15:58:06.962014,514
2021-12-27 15:58:06.962024,-123
2021-12-27 15:58:06.962034,-683
2021-12-27 15:58:07.156637,-512
2021-12-27 15:58:07.156659,-61
2021-12-27 15:58:07.156667,-2
2021-12-27 15:58:07.156673,-36
2021-12-27 15:58:07.156680,107
2021-12-27 15:58:07.156686,161
2021-12-27 15:58:07.156692,120
2021-12-27 15:58:07.156699,120
2021-12-27 15:58:07.156705,134
2021-12-27 15:58:07.156711,143
2021-12-27 15:58:07.156718,161
2021-12-27 15:58:07.156724,175
2021-12-27 15:58:07.156730,157
2021-12-27 15:58:07.156736,145
2021-12-27 15:58:07.156743,175
2021-12-27 15:58:07.156749,184
2021-12-27 15:58:07.156755,186
2021-12-27 15:58:07.156762,232
2021-12-27 15:58:07.156768,250
2021-12-27 15:58:07.156774,246
2021-12-27 15:58:07.156781,280
2021-12-27 15:58:07.156787,312
2021-12-27 15:58:07.156793,316
2021-12-27 15:58:07.156800,319
2021-12-27 15:58:07.156806,305
2021-12-27 15:58:07.156812,266
2021-12-27 15:58:07.156818,232
2021-12-27 15:58:07.156825,182
2021-12-27 15:58:07.156831,95
2021-12-27 15:58:07.156838,0
2021-12-27 15:58:07.400707,-84
2021-12-27 15:58:07.400729,-164
2021-12-27 15:58:07.400737,-216
2021-12-27 15:58:07.400744,-252
2021-12-27 15:58:07.400750,-268
2021-12-27 15:58:07.400756,-252
2021-12-27 15:58:07.400763,-243
2021-12-27 15:58:07.400769,-264
2021-12-27 15:58:07.400775,-289
2021-12-27 15:58:07.400782,-303
2021-12-27 15:58:07.400788,-289
2021-12-27 15:58:07.400794,-259
2021-12-27 15:58:07.400801,-227
2021-12-27 15:58:07.400807,-218
2021-12-27 15:58:07.400813,-243
2021-12-27 15:58:07.400820,-241
2021-12-27 15:58:07.400826,-202
2021-12-27 15:58:07.400832,-170
2021-12-27 15:58:07.400839,-148
2021-12-27 15:58:07.400845,-132
2021-12-27 15:58:07.400851,-132
2021-12-27 15:58:07.400858,-170
2021-12-27 15:58:07.400864,-195
2021-12-27 15:58:07.400870,-154
2021-12-27 15:58:07.400877,-123
2021-12-27 15:58:07.400883,-127
2021-12-27 15:58:07.400889,-127
2021-12-27 15:58:07.400896,-134
2021-12-27 15:58:07.400902,-120
2021-12-27 15:58:07.400908,-95
2021-12-27 15:58:07.595236,-86
2021-12-27 15:58:07.595266,-68
2021-12-27 15:58:07.595277,-61
2021-12-27 15:58:07.595288,-77
2021-12-27 15:58:07.595297,-72
2021-12-27 15:58:07.595307,-54
2021-12-27 15:58:07.595317,-36
2021-12-27 15:58:07.595327,-25
2021-12-27 15:58:07.595336,-29
2021-12-27 15:58:07.595346,-61
2021-12-27 15:58:07.595356,-95
2021-12-27 15:58:07.595366,-88
2021-12-27 15:58:07.595375,-79
2021-12-27 15:58:07.595385,-75
2021-12-27 15:58:07.595395,-68
2021-12-27 15:58:07.595404,-102
2021-12-27 15:58:07.595414,-127
2021-12-27 15:58:07.595424,-84
2021-12-27 15:58:07.595433,-41
2021-12-27 15:58:07.595443,-22
2021-12-27 15:58:07.595453,-11
2021-12-27 15:58:07.595463,-11
2021-12-27 15:58:07.595472,-22
2021-12-27 15:58:07.595482,-31
2021-12-27 15:58:07.595492,-20
2021-12-27 15:58:07.595502,-6
2021-12-27 15:58:07.595511,0
2021-12-27 15:58:07.595521,4
2021-12-27 15:58:07.595531,-2
2021-12-27 15:58:07.595541,0
2021-12-27 15:58:07.839449,20
2021-12-27 15:58:07.839480,27
2021-12-27 15:58:07.839491,38
2021-12-27 15:58:07.839501,54
2021-12-27 15:58:07.839511,75
2021-12-27 15:58:07.839520,211
2021-12-27 15:58:07.839530,512
2021-12-27 15:58:07.839540,688
2021-12-27 15:58:07.839550,341
2021-12-27 15:58:07.839559,-389
2021-12-27 15:58:07.839569,-674
2021-12-27 15:58:07.839579,-293
2021-12-27 15:58:07.839589,-31
2021-12-27 15:58:07.839599,-86
2021-12-27 15:58:07.839608,-22
2021-12-27 15:58:07.839618,102
2021-12-27 15:58:07.839628,84
2021-12-27 15:58:07.839637,63
2021-12-27 15:58:07.839647,116
2021-12-27 15:58:07.839657,136
2021-12-27 15:58:07.839666,136
2021-12-27 15:58:07.839676,159
2021-12-27 15:58:07.839686,175
2021-12-27 15:58:07.839695,189
2021-12-27 15:58:07.839705,202
2021-12-27 15:58:07.839714,230
2021-12-27 15:58:07.839724,250
2021-12-27 15:58:07.839734,230
2021-12-27 15:58:07.839744,218
2021-12-27 15:58:07.839753,266
2021-12-27 15:58:08.180136,312
2021-12-27 15:58:08.180167,344
2021-12-27 15:58:08.180178,373
2021-12-27 15:58:08.180220,375
2021-12-27 15:58:08.180230,369
2021-12-27 15:58:08.180240,371
2021-12-27 15:58:08.180250,330
2021-12-27 15:58:08.180259,246
2021-12-27 15:58:08.180269,166
2021-12-27 15:58:08.180278,66
2021-12-27 15:58:08.180288,-63
2021-12-27 15:58:08.180298,-154
2021-12-27 15:58:08.180308,-246
2021-12-27 15:58:08.180317,-332
2021-12-27 15:58:08.180327,-348
2021-12-27 15:58:08.180337,-369
2021-12-27 15:58:08.180346,-382
2021-12-27 15:58:08.180356,-346
2021-12-27 15:58:08.180366,-328
2021-12-27 15:58:08.180375,-330
2021-12-27 15:58:08.180385,-314
2021-12-27 15:58:08.180395,-291
2021-12-27 15:58:08.180404,-266
2021-12-27 15:58:08.180414,-246
2021-12-27 15:58:08.180423,-227
2021-12-27 15:58:08.180433,-216
2021-12-27 15:58:08.180443,-209
2021-12-27 15:58:08.180452,-189
2021-12-27 15:58:08.180462,-166
2021-12-27 15:58:08.180472,-145
2021-12-27 15:58:08.327308,-127
2021-12-27 15:58:08.327339,-127
2021-12-27 15:58:08.327350,-123
2021-12-27 15:58:08.327360,-120
2021-12-27 15:58:08.327370,-107
2021-12-27 15:58:08.327379,-82
2021-12-27 15:58:08.327389,-72
2021-12-27 15:58:08.327398,-72
2021-12-27 15:58:08.327407,-91
2021-12-27 15:58:08.327417,-102
2021-12-27 15:58:08.327426,-75
2021-12-27 15:58:08.327435,-56
2021-12-27 15:58:08.327445,-50
2021-12-27 15:58:08.327454,-31
2021-12-27 15:58:08.327464,-41
2021-12-27 15:58:08.327473,-50
2021-12-27 15:58:08.327482,-47
2021-12-27 15:58:08.327492,-59
2021-12-27 15:58:08.327501,-66
2021-12-27 15:58:08.327510,-50
2021-12-27 15:58:08.327520,-59
2021-12-27 15:58:08.327529,-102
2021-12-27 15:58:08.327538,-102
2021-12-27 15:58:08.327548,-63
2021-12-27 15:58:08.327557,-61
2021-12-27 15:58:08.327566,-56
2021-12-27 15:58:08.327576,-41
2021-12-27 15:58:08.327585,-61
2021-12-27 15:58:08.327594,-56
2021-12-27 15:58:08.327604,-15
2021-12-27 15:58:08.570783,11
2021-12-27 15:58:08.570813,20
2021-12-27 15:58:08.570825,-11
2021-12-27 15:58:08.570835,-70
2021-12-27 15:58:08.570845,-84
2021-12-27 15:58:08.570855,-50
2021-12-27 15:58:08.570864,-20
2021-12-27 15:58:08.570874,-15
2021-12-27 15:58:08.570884,-13
2021-12-27 15:58:08.570893,-31
2021-12-27 15:58:08.570903,-66
2021-12-27 15:58:08.570913,-45
2021-12-27 15:58:08.570922,2
2021-12-27 15:58:08.570932,52
2021-12-27 15:58:08.570942,207
2021-12-27 15:58:08.570952,496
2021-12-27 15:58:08.570961,674
2021-12-27 15:58:08.570971,410
2021-12-27 15:58:08.570981,-287
2021-12-27 15:58:08.570990,-729
2021-12-27 15:58:08.571000,-439
2021-12-27 15:58:08.571010,-66
2021-12-27 15:58:08.571020,-79
2021-12-27 15:58:08.571029,-47
2021-12-27 15:58:08.571039,111
2021-12-27 15:58:08.571048,125
2021-12-27 15:58:08.571058,93
2021-12-27 15:58:08.571068,134
2021-12-27 15:58:08.571078,145
2021-12-27 15:58:08.571087,141
2021-12-27 15:58:08.813651,170
2021-12-27 15:58:08.813672,195
2021-12-27 15:58:08.813679,207
2021-12-27 15:58:08.813686,216
2021-12-27 15:58:08.813692,225
2021-12-27 15:58:08.813698,223
2021-12-27 15:58:08.813705,225
2021-12-27 15:58:08.813711,275
2021-12-27 15:58:08.813717,321
2021-12-27 15:58:08.813723,346
2021-12-27 15:58:08.813730,382
2021-12-27 15:58:08.813736,401
2021-12-27 15:58:08.813742,405
2021-12-27 15:58:08.813749,435
2021-12-27 15:58:08.813758,446
2021-12-27 15:58:08.813765,423
2021-12-27 15:58:08.813771,380
2021-12-27 15:58:08.813777,298
2021-12-27 15:58:08.813783,166
2021-12-27 15:58:08.813790,52
2021-12-27 15:58:08.813796,-22
2021-12-27 15:58:08.813802,-134
2021-12-27 15:58:08.813809,-232
2021-12-27 15:58:08.813815,-239
2021-12-27 15:58:08.813821,-236
2021-12-27 15:58:08.813828,-246
2021-12-27 15:58:08.813834,-230
2021-12-27 15:58:08.813840,-225
2021-12-27 15:58:08.813846,-234
2021-12-27 15:58:08.813853,-234
2021-12-27 15:58:09.009215,-234
2021-12-27 15:58:09.009238,-243
2021-12-27 15:58:09.009245,-241
2021-12-27 15:58:09.009252,-221
2021-12-27 15:58:09.009258,-207
2021-12-27 15:58:09.009265,-191
2021-12-27 15:58:09.009271,-182
2021-12-27 15:58:09.009277,-214
2021-12-27 15:58:09.009283,-255
2021-12-27 15:58:09.009290,-264
2021-12-27 15:58:09.009296,-234
2021-12-27 15:58:09.009302,-200
2021-12-27 15:58:09.009309,-202
2021-12-27 15:58:09.009315,-225
2021-12-27 15:58:09.009322,-227
2021-12-27 15:58:09.009328,-214
2021-12-27 15:58:09.009334,-189
2021-12-27 15:58:09.009340,-166
2021-12-27 15:58:09.009347,-154
2021-12-27 15:58:09.009353,-154
2021-12-27 15:58:09.009359,-166
2021-12-27 15:58:09.009366,-157
2021-12-27 15:58:09.009372,-141
2021-12-27 15:58:09.009378,-152
2021-12-27 15:58:09.009384,-159
2021-12-27 15:58:09.009391,-145
2021-12-27 15:58:09.009397,-145
2021-12-27 15:58:09.009403,-141
2021-12-27 15:58:09.009409,-123
2021-12-27 15:58:09.009416,-97
2021-12-27 15:58:09.301593,-84
2021-12-27 15:58:09.301624,-79
2021-12-27 15:58:09.301635,-86
2021-12-27 15:58:09.301645,-104
2021-12-27 15:58:09.301655,-88
2021-12-27 15:58:09.301665,-52
2021-12-27 15:58:09.301674,-31
2021-12-27 15:58:09.301684,-11
2021-12-27 15:58:09.301693,-20
2021-12-27 15:58:09.301703,-50
2021-12-27 15:58:09.301713,-47
2021-12-27 15:58:09.301722,-31
2021-12-27 15:58:09.301732,-25
2021-12-27 15:58:09.301742,-13
2021-12-27 15:58:09.301751,-20
2021-12-27 15:58:09.301761,-50
2021-12-27 15:58:09.301770,-52
2021-12-27 15:58:09.301780,-18
2021-12-27 15:58:09.301789,4
2021-12-27 15:58:09.301799,9
2021-12-27 15:58:09.301808,27
2021-12-27 15:58:09.301818,41
2021-12-27 15:58:09.301827,125
2021-12-27 15:58:09.301837,387
2021-12-27 15:58:09.301847,667
2021-12-27 15:58:09.301856,617
2021-12-27 15:58:09.301866,75
2021-12-27 15:58:09.301875,-571
2021-12-27 15:58:09.301885,-597
2021-12-27 15:58:09.301895,-138
2021-12-27 15:58:09.448268,34
2021-12-27 15:58:09.448290,6
2021-12-27 15:58:09.448298,120
2021-12-27 15:58:09.448304,164
2021-12-27 15:58:09.448310,82
2021-12-27 15:58:09.448317,93
2021-12-27 15:58:09.448323,159
2021-12-27 15:58:09.448329,164
2021-12-27 15:58:09.448335,170
2021-12-27 15:58:09.448341,191
2021-12-27 15:58:09.448347,191
2021-12-27 15:58:09.448354,211
2021-12-27 15:58:09.448360,241
2021-12-27 15:58:09.448366,259
2021-12-27 15:58:09.448372,246
2021-12-27 15:58:09.448378,221
2021-12-27 15:58:09.448384,250
2021-12-27 15:58:09.448391,303
2021-12-27 15:58:09.448397,341
2021-12-27 15:58:09.448403,387
2021-12-27 15:58:09.448409,421
2021-12-27 15:58:09.448415,437
2021-12-27 15:58:09.448421,430
2021-12-27 15:58:09.448428,394
2021-12-27 15:58:09.448434,364
2021-12-27 15:58:09.448440,325
2021-12-27 15:58:09.448446,232
2021-12-27 15:58:09.448452,95
2021-12-27 15:58:09.448459,-31
2021-12-27 15:58:09.448465,-102
2021-12-27 15:58:09.885745,-148
2021-12-27 15:58:09.885776,-173
2021-12-27 15:58:09.885788,-177
2021-12-27 15:58:09.885798,-189
2021-12-27 15:58:09.885807,-184
2021-12-27 15:58:09.885817,-189
2021-12-27 15:58:09.885827,-211
2021-12-27 15:58:09.885836,-186
2021-12-27 15:58:09.885846,-154
2021-12-27 15:58:09.885856,-150
2021-12-27 15:58:09.885865,-132
2021-12-27 15:58:09.885875,-127
2021-12-27 15:58:09.885885,-161
2021-12-27 15:58:09.885894,-168
2021-12-27 15:58:09.885904,-129
2021-12-27 15:58:09.885913,-109
2021-12-27 15:58:09.885923,-111
2021-12-27 15:58:09.885933,-93
2021-12-27 15:58:09.885942,-102
2021-12-27 15:58:09.885952,-132
2021-12-27 15:58:09.885961,-127
2021-12-27 15:58:09.885971,-136
2021-12-27 15:58:09.885980,-154
2021-12-27 15:58:09.885990,-134
2021-12-27 15:58:09.886000,-127
2021-12-27 15:58:09.886009,-138
2021-12-27 15:58:09.886019,-134
2021-12-27 15:58:09.886028,-125
2021-12-27 15:58:09.886038,-123
2021-12-27 15:58:09.886048,-136
2021-12-27 15:58:10.032894,-152
2021-12-27 15:58:10.032924,-152
2021-12-27 15:58:10.032935,-145
2021-12-27 15:58:10.032945,-138
2021-12-27 15:58:10.032955,-129
2021-12-27 15:58:10.032965,-109
2021-12-27 15:58:10.032974,-88
2021-12-27 15:58:10.032984,-88
2021-12-27 15:58:10.032993,-86
2021-12-27 15:58:10.033003,-82
2021-12-27 15:58:10.033012,-68
2021-12-27 15:58:10.033022,-47
2021-12-27 15:58:10.033031,-45
2021-12-27 15:58:10.033041,-70
2021-12-27 15:58:10.033050,-107
2021-12-27 15:58:10.033060,-113
2021-12-27 15:58:10.033069,-77
2021-12-27 15:58:10.033079,-47
2021-12-27 15:58:10.033089,-25
2021-12-27 15:58:10.033098,-11
2021-12-27 15:58:10.033108,-47
2021-12-27 15:58:10.033118,-77
2021-12-27 15:58:10.033127,-63
2021-12-27 15:58:10.033137,-50
2021-12-27 15:58:10.033146,-50
2021-12-27 15:58:10.033156,-43
2021-12-27 15:58:10.033166,-47
2021-12-27 15:58:10.033175,-66
2021-12-27 15:58:10.033185,-56
2021-12-27 15:58:10.033194,-22
2021-12-27 15:58:10.226347,-20
2021-12-27 15:58:10.226365,-38
2021-12-27 15:58:10.226373,-59
2021-12-27 15:58:10.226379,-56
2021-12-27 15:58:10.226386,11
2021-12-27 15:58:10.226392,193
2021-12-27 15:58:10.226398,494
2021-12-27 15:58:10.226404,663
2021-12-27 15:58:10.226410,357
2021-12-27 15:58:10.226417,-341
2021-12-27 15:58:10.226423,-726
2021-12-27 15:58:10.226429,-382
2021-12-27 15:58:10.226435,-15
2021-12-27 15:58:10.226442,-36
2021-12-27 15:58:10.226448,6
2021-12-27 15:58:10.226454,118
2021-12-27 15:58:10.226460,84
2021-12-27 15:58:10.226467,79
2021-12-27 15:58:10.226473,145
2021-12-27 15:58:10.226479,161
2021-12-27 15:58:10.226485,159
2021-12-27 15:58:10.226491,150
2021-12-27 15:58:10.226497,129
2021-12-27 15:58:10.226504,148
2021-12-27 15:58:10.226510,189
2021-12-27 15:58:10.226516,218
2021-12-27 15:58:10.226522,241
2021-12-27 15:58:10.226528,257
2021-12-27 15:58:10.226535,268
2021-12-27 15:58:10.226541,293
2021-12-27 15:58:10.374452,348
2021-12-27 15:58:10.374475,394
2021-12-27 15:58:10.374482,416
2021-12-27 15:58:10.374489,412
2021-12-27 15:58:10.374495,373
2021-12-27 15:58:10.374501,366
2021-12-27 15:58:10.374507,385
2021-12-27 15:58:10.374513,353
2021-12-27 15:58:10.374519,280
2021-12-27 15:58:10.374526,177
2021-12-27 15:58:10.374532,52
2021-12-27 15:58:10.374538,-63
2021-12-27 15:58:10.374545,-127
2021-12-27 15:58:10.374551,-148
2021-12-27 15:58:10.374557,-170
2021-12-27 15:58:10.374563,-191
2021-12-27 15:58:10.374569,-195
2021-12-27 15:58:10.374575,-216
2021-12-27 15:58:10.374582,-218
2021-12-27 15:58:10.374588,-182
2021-12-27 15:58:10.374594,-161
2021-12-27 15:58:10.374600,-154
2021-12-27 15:58:10.374606,-138
2021-12-27 15:58:10.374613,-125
2021-12-27 15:58:10.374619,-109
2021-12-27 15:58:10.374625,-109
2021-12-27 15:58:10.374631,-136
2021-12-27 15:58:10.374637,-159
2021-12-27 15:58:10.374643,-134
2021-12-27 15:58:10.374649,-116
2021-12-27 15:58:10.667113,-148
2021-12-27 15:58:10.667144,-150
2021-12-27 15:58:10.667155,-118
2021-12-27 15:58:10.667165,-118
2021-12-27 15:58:10.667175,-118
2021-12-27 15:58:10.667185,-138
2021-12-27 15:58:10.667194,-207
2021-12-27 15:58:10.667204,-236
2021-12-27 15:58:10.667213,-214
2021-12-27 15:58:10.667223,-221
2021-12-27 15:58:10.667233,-236
2021-12-27 15:58:10.667242,-221
2021-12-27 15:58:10.667252,-225
2021-12-27 15:58:10.667262,-252
2021-12-27 15:58:10.667271,-234
2021-12-27 15:58:10.667281,-209
2021-12-27 15:58:10.667291,-207
2021-12-27 15:58:10.667300,-182
2021-12-27 15:58:10.667310,-170
2021-12-27 15:58:10.667320,-180
2021-12-27 15:58:10.667329,-166
2021-12-27 15:58:10.667339,-154
2021-12-27 15:58:10.667349,-148
2021-12-27 15:58:10.667358,-127
2021-12-27 15:58:10.667400,-113
2021-12-27 15:58:10.667410,-113
2021-12-27 15:58:10.667420,-120
2021-12-27 15:58:10.667429,-116
2021-12-27 15:58:10.667439,-95
2021-12-27 15:58:10.667448,-66
2021-12-27 15:58:10.861959,-36
2021-12-27 15:58:10.861980,-29
2021-12-27 15:58:10.861987,-34
2021-12-27 15:58:10.861993,-25
2021-12-27 15:58:10.862000,-20
2021-12-27 15:58:10.862006,-18
2021-12-27 15:58:10.862012,-20
2021-12-27 15:58:10.862018,-38
2021-12-27 15:58:10.862024,-52
2021-12-27 15:58:10.862030,-52
2021-12-27 15:58:10.862036,-31
2021-12-27 15:58:10.862042,-13
2021-12-27 15:58:10.862049,-11
2021-12-27 15:58:10.862055,-4
2021-12-27 15:58:10.862061,-25
2021-12-27 15:58:10.862067,-43
2021-12-27 15:58:10.862073,15
2021-12-27 15:58:10.862079,184
2021-12-27 15:58:10.862086,483
2021-12-27 15:58:10.862092,681
2021-12-27 15:58:10.862098,403
2021-12-27 15:58:10.862104,-296
2021-12-27 15:58:10.862111,-715
2021-12-27 15:58:10.862117,-401
2021-12-27 15:58:10.862123,-18
2021-12-27 15:58:10.862129,-13
2021-12-27 15:58:10.862136,22
2021-12-27 15:58:10.862142,138
2021-12-27 15:58:10.862148,127
2021-12-27 15:58:10.862154,120
2021-12-27 15:58:11.105421,154
2021-12-27 15:58:11.105443,129
2021-12-27 15:58:11.105450,82
2021-12-27 15:58:11.105457,72
2021-12-27 15:58:11.105463,84
2021-12-27 15:58:11.105470,109
2021-12-27 15:58:11.105476,150
2021-12-27 15:58:11.105482,186
2021-12-27 15:58:11.105489,202
2021-12-27 15:58:11.105495,211
2021-12-27 15:58:11.105501,218
2021-12-27 15:58:11.105507,257
2021-12-27 15:58:11.105514,312
2021-12-27 15:58:11.105520,346
2021-12-27 15:58:11.105527,382
2021-12-27 15:58:11.105533,403
2021-12-27 15:58:11.105539,375
2021-12-27 15:58:11.105545,371
2021-12-27 15:58:11.105551,382
2021-12-27 15:58:11.105558,362
2021-12-27 15:58:11.105564,296
2021-12-27 15:58:11.105570,191
2021-12-27 15:58:11.105577,72
2021-12-27 15:58:11.105583,-22
2021-12-27 15:58:11.105589,-77
2021-12-27 15:58:11.105596,-104
2021-12-27 15:58:11.105602,-138
2021-12-27 15:58:11.105608,-164
2021-12-27 15:58:11.105615,-166
2021-12-27 15:58:11.105621,-159
2021-12-27 15:58:11.398062,-134
2021-12-27 15:58:11.398084,-109
2021-12-27 15:58:11.398091,-104
2021-12-27 15:58:11.398098,-100
2021-12-27 15:58:11.398104,-107
2021-12-27 15:58:11.398110,-120
2021-12-27 15:58:11.398117,-118
2021-12-27 15:58:11.398123,-84
2021-12-27 15:58:11.398129,-52
2021-12-27 15:58:11.398135,-61
2021-12-27 15:58:11.398141,-75
2021-12-27 15:58:11.398148,-91
2021-12-27 15:58:11.398154,-111
2021-12-27 15:58:11.398160,-95
2021-12-27 15:58:11.398166,-79
2021-12-27 15:58:11.398172,-77
2021-12-27 15:58:11.398178,-75
2021-12-27 15:58:11.398185,-109
2021-12-27 15:58:11.398191,-154
2021-12-27 15:58:11.398200,-152
2021-12-27 15:58:11.398207,-159
2021-12-27 15:58:11.398213,-175
2021-12-27 15:58:11.398219,-164
2021-12-27 15:58:11.398225,-148
2021-12-27 15:58:11.398232,-154
2021-12-27 15:58:11.398238,-152
2021-12-27 15:58:11.398244,-132
2021-12-27 15:58:11.398250,-132
2021-12-27 15:58:11.398256,-129
2021-12-27 15:58:11.398262,-109
2021-12-27 15:58:11.593527,-109
2021-12-27 15:58:11.593549,-109
2021-12-27 15:58:11.593556,-97
2021-12-27 15:58:11.593563,-97
2021-12-27 15:58:11.593569,-93
2021-12-27 15:58:11.593576,-66
2021-12-27 15:58:11.593582,-52
2021-12-27 15:58:11.593588,-93
2021-12-27 15:58:11.593595,-141
2021-12-27 15:58:11.593601,-123
2021-12-27 15:58:11.593607,-91
2021-12-27 15:58:11.593614,-82
2021-12-27 15:58:11.593620,-61
2021-12-27 15:58:11.593626,-50
2021-12-27 15:58:11.593633,-59
2021-12-27 15:58:11.593639,-59
2021-12-27 15:58:11.593645,-43
2021-12-27 15:58:11.593651,-34
2021-12-27 15:58:11.593660,-50
2021-12-27 15:58:11.593670,-77
2021-12-27 15:58:11.593680,-95
2021-12-27 15:58:11.593691,-77
2021-12-27 15:58:11.593701,-52
2021-12-27 15:58:11.593712,-50
2021-12-27 15:58:11.593722,-43
2021-12-27 15:58:11.593733,-43
2021-12-27 15:58:11.593743,-70
2021-12-27 15:58:11.593751,-59
2021-12-27 15:58:11.593758,-11
2021-12-27 15:58:11.593764,70
2021-12-27 15:58:11.739603,303
2021-12-27 15:58:11.739641,626
2021-12-27 15:58:11.739653,649
2021-12-27 15:58:11.739663,107
2021-12-27 15:58:11.739673,-574
2021-12-27 15:58:11.739683,-594
2021-12-27 15:58:11.739692,-123
2021-12-27 15:58:11.739702,29
2021-12-27 15:58:11.739712,-56
2021-12-27 15:58:11.739721,25
2021-12-27 15:58:11.739731,129
2021-12-27 15:58:11.739740,125
2021-12-27 15:58:11.739750,129
2021-12-27 15:58:11.739759,168
2021-12-27 15:58:11.739769,173
2021-12-27 15:58:11.739778,157
2021-12-27 15:58:11.739788,157
2021-12-27 15:58:11.739797,180
2021-12-27 15:58:11.739807,216
2021-12-27 15:58:11.739816,239
2021-12-27 15:58:11.739826,248
2021-12-27 15:58:11.739835,246
2021-12-27 15:58:11.739845,255
2021-12-27 15:58:11.739855,303
2021-12-27 15:58:11.739864,348
2021-12-27 15:58:11.739874,391
2021-12-27 15:58:11.739883,437
2021-12-27 15:58:11.739893,446
2021-12-27 15:58:11.739902,442
2021-12-27 15:58:11.739912,462
2021-12-27 15:58:11.982674,464
2021-12-27 15:58:11.982703,435
2021-12-27 15:58:11.982714,382
2021-12-27 15:58:11.982724,271
2021-12-27 15:58:11.982734,127
2021-12-27 15:58:11.982743,29
2021-12-27 15:58:11.982753,-20
2021-12-27 15:58:11.982763,-70
2021-12-27 15:58:11.982772,-113
2021-12-27 15:58:11.982782,-157
2021-12-27 15:58:11.982792,-202
2021-12-27 15:58:11.982801,-198
2021-12-27 15:58:11.982811,-177
2021-12-27 15:58:11.982820,-211
2021-12-27 15:58:11.982830,-225
2021-12-27 15:58:11.982839,-195
2021-12-27 15:58:11.982849,-189
2021-12-27 15:58:11.982859,-205
2021-12-27 15:58:11.982868,-200
2021-12-27 15:58:11.982878,-182
2021-12-27 15:58:11.982887,-180
2021-12-27 15:58:11.982897,-189
2021-12-27 15:58:11.982907,-173
2021-12-27 15:58:11.982916,-157
2021-12-27 15:58:11.982926,-138
2021-12-27 15:58:11.982935,-118
2021-12-27 15:58:11.982945,-127
2021-12-27 15:58:11.982954,-148
2021-12-27 15:58:11.982964,-152
2021-12-27 15:58:11.982974,-166
2021-12-27 15:58:12.273812,-173
2021-12-27 15:58:12.273830,-159
2021-12-27 15:58:12.273837,-148
2021-12-27 15:58:12.273844,-152
2021-12-27 15:58:12.273850,-161
2021-12-27 15:58:12.273856,-177
2021-12-27 15:58:12.273863,-193
2021-12-27 15:58:12.273869,-175
2021-12-27 15:58:12.273875,-152
2021-12-27 15:58:12.273881,-152
2021-12-27 15:58:12.273887,-143
2021-12-27 15:58:12.273893,-143
2021-12-27 15:58:12.273899,-168
2021-12-27 15:58:12.273906,-157
2021-12-27 15:58:12.273912,-132
2021-12-27 15:58:12.273918,-132
2021-12-27 15:58:12.273924,-123
2021-12-27 15:58:12.273931,-113
2021-12-27 15:58:12.273937,-123
2021-12-27 15:58:12.273943,-132
2021-12-27 15:58:12.273949,-123
2021-12-27 15:58:12.273955,-102
2021-12-27 15:58:12.273961,-82
2021-12-27 15:58:12.273967,-61
2021-12-27 15:58:12.273973,-61
2021-12-27 15:58:12.273979,-72
2021-12-27 15:58:12.273986,-66
2021-12-27 15:58:12.273992,-66
2021-12-27 15:58:12.273998,-56
2021-12-27 15:58:12.274004,-36
2021-12-27 15:58:12.470339,-31
2021-12-27 15:58:12.470361,-31
2021-12-27 15:58:12.470369,-27
2021-12-27 15:58:12.470375,-22
2021-12-27 15:58:12.470381,-11
2021-12-27 15:58:12.470387,11
2021-12-27 15:58:12.470394,31
2021-12-27 15:58:12.470400,63
2021-12-27 15:58:12.470406,252
2021-12-27 15:58:12.470412,571
2021-12-27 15:58:12.470418,644
2021-12-27 15:58:12.470425,170
2021-12-27 15:58:12.470431,-526
2021-12-27 15:58:12.470437,-651
2021-12-27 15:58:12.470443,-209
2021-12-27 15:58:12.470449,-22
2021-12-27 15:58:12.470455,-72
2021-12-27 15:58:12.470461,36
2021-12-27 15:58:12.470467,95
2021-12-27 15:58:12.470473,15
2021-12-27 15:58:12.470480,-2
2021-12-27 15:58:12.470486,25
2021-12-27 15:58:12.470492,18
2021-12-27 15:58:12.470498,27
2021-12-27 15:58:12.470504,77
2021-12-27 15:58:12.470510,104
2021-12-27 15:58:12.470516,100
2021-12-27 15:58:12.470523,111
2021-12-27 15:58:12.470529,150
2021-12-27 15:58:12.470535,195
2021-12-27 15:58:12.665692,234
2021-12-27 15:58:12.665721,271
2021-12-27 15:58:12.665732,307
2021-12-27 15:58:12.665742,325
2021-12-27 15:58:12.665751,353
2021-12-27 15:58:12.665761,403
2021-12-27 15:58:12.665770,428
2021-12-27 15:58:12.665780,432
2021-12-27 15:58:12.665789,416
2021-12-27 15:58:12.665798,346
2021-12-27 15:58:12.665808,264
2021-12-27 15:58:12.665818,200
2021-12-27 15:58:12.665827,123
2021-12-27 15:58:12.665837,27
2021-12-27 15:58:12.665847,-82
2021-12-27 15:58:12.665856,-177
2021-12-27 15:58:12.665866,-214
2021-12-27 15:58:12.665876,-186
2021-12-27 15:58:12.665885,-159
2021-12-27 15:58:12.665895,-157
2021-12-27 15:58:12.665904,-157
2021-12-27 15:58:12.665914,-166
2021-12-27 15:58:12.665923,-177
2021-12-27 15:58:12.665933,-164
2021-12-27 15:58:12.665942,-161
2021-12-27 15:58:12.665952,-154
2021-12-27 15:58:12.665961,-125
2021-12-27 15:58:12.665971,-125
2021-12-27 15:58:12.665980,-145
2021-12-27 15:58:12.665990,-136
2021-12-27 15:58:12.909433,-111
2021-12-27 15:58:12.909456,-91
2021-12-27 15:58:12.909463,-82
2021-12-27 15:58:12.909470,-95
2021-12-27 15:58:12.909476,-141
2021-12-27 15:58:12.909482,-170
2021-12-27 15:58:12.909489,-150
2021-12-27 15:58:12.909495,-145
2021-12-27 15:58:12.909501,-175
2021-12-27 15:58:12.909508,-184
2021-12-27 15:58:12.909514,-193
2021-12-27 15:58:12.909520,-209
2021-12-27 15:58:12.909527,-200
2021-12-27 15:58:12.909533,-175
2021-12-27 15:58:12.909539,-166
2021-12-27 15:58:12.909545,-168
2021-12-27 15:58:12.909552,-161
2021-12-27 15:58:12.909558,-159
2021-12-27 15:58:12.909564,-152
2021-12-27 15:58:12.909571,-123
2021-12-27 15:58:12.909577,-116
2021-12-27 15:58:12.909583,-123
2021-12-27 15:58:12.909589,-107
2021-12-27 15:58:12.909596,-116
2021-12-27 15:58:12.909602,-152
2021-12-27 15:58:12.909608,-166
2021-12-27 15:58:12.909614,-175
2021-12-27 15:58:12.909621,-184
2021-12-27 15:58:12.909627,-164
2021-12-27 15:58:12.909633,-129
2021-12-27 15:58:13.250214,-109
2021-12-27 15:58:13.250244,-93
2021-12-27 15:58:13.250256,-70
2021-12-27 15:58:13.250266,-68
2021-12-27 15:58:13.250275,-75
2021-12-27 15:58:13.250285,-86
2021-12-27 15:58:13.250294,-116
2021-12-27 15:58:13.250304,-109
2021-12-27 15:58:13.250313,-79
2021-12-27 15:58:13.250322,-82
2021-12-27 15:58:13.250332,-77
2021-12-27 15:58:13.250341,-61
2021-12-27 15:58:13.250351,-72
2021-12-27 15:58:13.250360,-86
2021-12-27 15:58:13.250370,-63
2021-12-27 15:58:13.250379,-15
2021-12-27 15:58:13.250389,95
2021-12-27 15:58:13.250399,371
2021-12-27 15:58:13.250408,647
2021-12-27 15:58:13.250418,542
2021-12-27 15:58:13.250427,-56
2021-12-27 15:58:13.250437,-653
2021-12-27 15:58:13.250446,-567
2021-12-27 15:58:13.250456,-102
2021-12-27 15:58:13.250465,-2
2021-12-27 15:58:13.250475,-31
2021-12-27 15:58:13.250484,111
2021-12-27 15:58:13.250494,150
2021-12-27 15:58:13.250503,82
2021-12-27 15:58:13.250513,100
2021-12-27 15:58:13.445387,148
2021-12-27 15:58:13.445411,145
2021-12-27 15:58:13.445419,143
2021-12-27 15:58:13.445425,168
2021-12-27 15:58:13.445432,186
2021-12-27 15:58:13.445438,209
2021-12-27 15:58:13.445444,241
2021-12-27 15:58:13.445450,236
2021-12-27 15:58:13.445456,221
2021-12-27 15:58:13.445462,248
2021-12-27 15:58:13.445469,293
2021-12-27 15:58:13.445475,339
2021-12-27 15:58:13.445481,380
2021-12-27 15:58:13.445487,407
2021-12-27 15:58:13.445494,403
2021-12-27 15:58:13.445500,394
2021-12-27 15:58:13.445506,419
2021-12-27 15:58:13.445512,426
2021-12-27 15:58:13.445518,389
2021-12-27 15:58:13.445524,328
2021-12-27 15:58:13.445531,216
2021-12-27 15:58:13.445537,88
2021-12-27 15:58:13.445544,0
2021-12-27 15:58:13.445550,-59
2021-12-27 15:58:13.445556,-97
2021-12-27 15:58:13.445562,-123
2021-12-27 15:58:13.445568,-152
2021-12-27 15:58:13.445575,-180
2021-12-27 15:58:13.445581,-205
2021-12-27 15:58:13.445587,-239
2021-12-27 15:58:13.640364,-262
2021-12-27 15:58:13.640386,-239
2021-12-27 15:58:13.640393,-214
2021-12-27 15:58:13.640400,-223
2021-12-27 15:58:13.640406,-207
2021-12-27 15:58:13.640412,-159
2021-12-27 15:58:13.640418,-138
2021-12-27 15:58:13.640425,-120
2021-12-27 15:58:13.640431,-97
2021-12-27 15:58:13.640437,-100
2021-12-27 15:58:13.640443,-107
2021-12-27 15:58:13.640449,-102
2021-12-27 15:58:13.640455,-93
2021-12-27 15:58:13.640461,-77
2021-12-27 15:58:13.640468,-72
2021-12-27 15:58:13.640474,-97
2021-12-27 15:58:13.640480,-136
2021-12-27 15:58:13.640486,-141
2021-12-27 15:58:13.640492,-134
2021-12-27 15:58:13.640498,-141
2021-12-27 15:58:13.640504,-154
2021-12-27 15:58:13.640511,-191
2021-12-27 15:58:13.640517,-223
2021-12-27 15:58:13.640523,-202
2021-12-27 15:58:13.640529,-175
2021-12-27 15:58:13.640535,-166
2021-12-27 15:58:13.640541,-157
2021-12-27 15:58:13.640548,-157
2021-12-27 15:58:13.640554,-161
2021-12-27 15:58:13.640560,-154
2021-12-27 15:58:13.835695,-136
2021-12-27 15:58:13.835717,-132
2021-12-27 15:58:13.835725,-159
2021-12-27 15:58:13.835731,-175
2021-12-27 15:58:13.835737,-166
2021-12-27 15:58:13.835744,-164
2021-12-27 15:58:13.835750,-152
2021-12-27 15:58:13.835756,-120
2021-12-27 15:58:13.835762,-91
2021-12-27 15:58:13.835768,-77
2021-12-27 15:58:13.835775,-86
2021-12-27 15:58:13.835781,-100
2021-12-27 15:58:13.835787,-97
2021-12-27 15:58:13.835794,-84
2021-12-27 15:58:13.835800,-82
2021-12-27 15:58:13.835806,-86
2021-12-27 15:58:13.835812,-79
2021-12-27 15:58:13.835818,-88
2021-12-27 15:58:13.835825,-97
2021-12-27 15:58:13.835831,-72
2021-12-27 15:58:13.835837,-61
2021-12-27 15:58:13.835843,-70
2021-12-27 15:58:13.835849,-52
2021-12-27 15:58:13.835856,-22
2021-12-27 15:58:13.835862,11
2021-12-27 15:58:13.835868,127
2021-12-27 15:58:13.835874,394
2021-12-27 15:58:13.835881,624
2021-12-27 15:58:13.835887,499
2021-12-27 15:58:13.835893,-50
2021-12-27 15:58:14.078166,-612
2021-12-27 15:58:14.078181,-569
2021-12-27 15:58:14.078188,-129
2021-12-27 15:58:14.078193,-15
2021-12-27 15:58:14.078198,-70
2021-12-27 15:58:14.078203,29
2021-12-27 15:58:14.078208,72
2021-12-27 15:58:14.078213,27
2021-12-27 15:58:14.078219,54
2021-12-27 15:58:14.078224,102
2021-12-27 15:58:14.078229,104
2021-12-27 15:58:14.078234,113
2021-12-27 15:58:14.078239,129
2021-12-27 15:58:14.078244,111
2021-12-27 15:58:14.078249,116
2021-12-27 15:58:14.078254,157
2021-12-27 15:58:14.078259,191
2021-12-27 15:58:14.078265,234
2021-12-27 15:58:14.078270,277
2021-12-27 15:58:14.078275,300
2021-12-27 15:58:14.078280,332
2021-12-27 15:58:14.078285,382
2021-12-27 15:58:14.078290,428
2021-12-27 15:58:14.078295,462
2021-12-27 15:58:14.078300,480
2021-12-27 15:58:14.078305,480
2021-12-27 15:58:14.078310,453
2021-12-27 15:58:14.078316,410
2021-12-27 15:58:14.078321,350
2021-12-27 15:58:14.078326,268
2021-12-27 15:58:14.467974,164
2021-12-27 15:58:14.468004,52
2021-12-27 15:58:14.468016,-54
2021-12-27 15:58:14.468026,-138
2021-12-27 15:58:14.468036,-189
2021-12-27 15:58:14.468069,-214
2021-12-27 15:58:14.468079,-216
2021-12-27 15:58:14.468089,-207
2021-12-27 15:58:14.468098,-232
2021-12-27 15:58:14.468108,-248
2021-12-27 15:58:14.468117,-202
2021-12-27 15:58:14.468127,-166
2021-12-27 15:58:14.468137,-170
2021-12-27 15:58:14.468146,-154
2021-12-27 15:58:14.468156,-138
2021-12-27 15:58:14.468165,-157
2021-12-27 15:58:14.468175,-154
2021-12-27 15:58:14.468184,-113
2021-12-27 15:58:14.468194,-66
2021-12-27 15:58:14.468204,-25
2021-12-27 15:58:14.468213,-41
2021-12-27 15:58:14.468223,-72
2021-12-27 15:58:14.468232,-63
2021-12-27 15:58:14.468242,-63
2021-12-27 15:58:14.468252,-86
2021-12-27 15:58:14.468261,-72
2021-12-27 15:58:14.468271,-34
2021-12-27 15:58:14.468280,-43
2021-12-27 15:58:14.468290,-61
2021-12-27 15:58:14.468299,-27
2021-12-27 15:58:14.565962,-20
2021-12-27 15:58:14.565988,-54
2021-12-27 15:58:14.565999,-70
2021-12-27 15:58:14.566009,-93
2021-12-27 15:58:14.566019,-127
2021-12-27 15:58:14.566028,-129
2021-12-27 15:58:14.566038,-109
2021-12-27 15:58:14.566047,-102
2021-12-27 15:58:14.566057,-145
2021-12-27 15:58:14.566066,-211
2021-12-27 15:58:14.566076,-218
2021-12-27 15:58:14.566085,-159
2021-12-27 15:58:14.566095,-118
2021-12-27 15:58:14.566104,-127
2021-12-27 15:58:14.566114,-127
2021-12-27 15:58:14.566123,-132
2021-12-27 15:58:14.566133,-173
2021-12-27 15:58:14.566142,-182
2021-12-27 15:58:14.566152,-136
2021-12-27 15:58:14.566161,-95
2021-12-27 15:58:14.566171,-72
2021-12-27 15:58:14.566181,-70
2021-12-27 15:58:14.566190,-75
2021-12-27 15:58:14.566200,-63
2021-12-27 15:58:14.566209,-50
2021-12-27 15:58:14.566219,-50
2021-12-27 15:58:14.566228,-54
2021-12-27 15:58:14.566238,-52
2021-12-27 15:58:14.566247,-61
2021-12-27 15:58:14.566257,-91
2021-12-27 15:58:14.810054,-82
2021-12-27 15:58:14.810084,-47
2021-12-27 15:58:14.810096,-38
2021-12-27 15:58:14.810105,-38
2021-12-27 15:58:14.810115,-29
2021-12-27 15:58:14.810124,-27
2021-12-27 15:58:14.810133,15
2021-12-27 15:58:14.810143,205
2021-12-27 15:58:14.810152,508
2021-12-27 15:58:14.810162,631
2021-12-27 15:58:14.810171,312
2021-12-27 15:58:14.810181,-357
2021-12-27 15:58:14.810190,-761
2021-12-27 15:58:14.810199,-448
2021-12-27 15:58:14.810209,-63
2021-12-27 15:58:14.810218,-70
2021-12-27 15:58:14.810228,-34
2021-12-27 15:58:14.810237,100
2021-12-27 15:58:14.810247,86
2021-12-27 15:58:14.810256,66
2021-12-27 15:58:14.810266,125
2021-12-27 15:58:14.810275,143
2021-12-27 15:58:14.810285,136
2021-12-27 15:58:14.810294,164
2021-12-27 15:58:14.810304,182
2021-12-27 15:58:14.810313,184
2021-12-27 15:58:14.810333,211
2021-12-27 15:58:14.810343,239
2021-12-27 15:58:14.810353,252
2021-12-27 15:58:14.810363,291
2021-12-27 15:58:15.005670,325
2021-12-27 15:58:15.005693,344
2021-12-27 15:58:15.005700,380
2021-12-27 15:58:15.005707,416
2021-12-27 15:58:15.005713,451
2021-12-27 15:58:15.005719,485
2021-12-27 15:58:15.005725,489
2021-12-27 15:58:15.005732,458
2021-12-27 15:58:15.005738,426
2021-12-27 15:58:15.005744,398
2021-12-27 15:58:15.005750,332
2021-12-27 15:58:15.005757,218
2021-12-27 15:58:15.005763,86
2021-12-27 15:58:15.005769,-56
2021-12-27 15:58:15.005776,-170
2021-12-27 15:58:15.005782,-250
2021-12-27 15:58:15.005788,-284
2021-12-27 15:58:15.005794,-264
2021-12-27 15:58:15.005801,-248
2021-12-27 15:58:15.005807,-250
2021-12-27 15:58:15.005813,-236
2021-12-27 15:58:15.005819,-221
2021-12-27 15:58:15.005826,-202
2021-12-27 15:58:15.005832,-177
2021-12-27 15:58:15.005838,-152
2021-12-27 15:58:15.005844,-138
2021-12-27 15:58:15.005851,-143
2021-12-27 15:58:15.005857,-143
2021-12-27 15:58:15.005863,-111
2021-12-27 15:58:15.005869,-79
2021-12-27 15:58:15.297743,-59
2021-12-27 15:58:15.297774,-47
2021-12-27 15:58:15.297785,-56
2021-12-27 15:58:15.297795,-63
2021-12-27 15:58:15.297804,-59
2021-12-27 15:58:15.297814,-52
2021-12-27 15:58:15.297823,-61
2021-12-27 15:58:15.297833,-61
2021-12-27 15:58:15.297842,-72
2021-12-27 15:58:15.297851,-113
2021-12-27 15:58:15.297861,-111
2021-12-27 15:58:15.297870,-79
2021-12-27 15:58:15.297879,-95
2021-12-27 15:58:15.297889,-123
2021-12-27 15:58:15.297898,-161
2021-12-27 15:58:15.297908,-227
2021-12-27 15:58:15.297917,-225
2021-12-27 15:58:15.297927,-180
2021-12-27 15:58:15.297936,-166
2021-12-27 15:58:15.297946,-159
2021-12-27 15:58:15.297955,-150
2021-12-27 15:58:15.297964,-159
2021-12-27 15:58:15.297974,-164
2021-12-27 15:58:15.297983,-136
2021-12-27 15:58:15.297992,-104
2021-12-27 15:58:15.298002,-100
2021-12-27 15:58:15.298011,-97
2021-12-27 15:58:15.298021,-111
2021-12-27 15:58:15.298030,-127
2021-12-27 15:58:15.298039,-102
2021-12-27 15:58:15.444122,-66
2021-12-27 15:58:15.444144,-34
2021-12-27 15:58:15.444152,-15
2021-12-27 15:58:15.444158,-36
2021-12-27 15:58:15.444164,-61
2021-12-27 15:58:15.444170,-61
2021-12-27 15:58:15.444177,-47
2021-12-27 15:58:15.444183,-47
2021-12-27 15:58:15.444189,-50
2021-12-27 15:58:15.444195,-50
2021-12-27 15:58:15.444201,-59
2021-12-27 15:58:15.444207,-61
2021-12-27 15:58:15.444213,-38
2021-12-27 15:58:15.444220,-18
2021-12-27 15:58:15.444226,-6
2021-12-27 15:58:15.444232,-6
2021-12-27 15:58:15.444238,-20
2021-12-27 15:58:15.444244,4
2021-12-27 15:58:15.444250,143
2021-12-27 15:58:15.444256,442
2021-12-27 15:58:15.444263,697
2021-12-27 15:58:15.444269,492
2021-12-27 15:58:15.444275,-227
2021-12-27 15:58:15.444281,-770
2021-12-27 15:58:15.444287,-546
2021-12-27 15:58:15.444294,-107
2021-12-27 15:58:15.444300,-72
2021-12-27 15:58:15.444306,-82
2021-12-27 15:58:15.444312,72
2021-12-27 15:58:15.444318,109
2021-12-27 15:58:15.687905,68
2021-12-27 15:58:15.687927,109
2021-12-27 15:58:15.687935,145
2021-12-27 15:58:15.687941,136
2021-12-27 15:58:15.687947,145
2021-12-27 15:58:15.687953,161
2021-12-27 15:58:15.687959,145
2021-12-27 15:58:15.687966,166
2021-12-27 15:58:15.687972,223
2021-12-27 15:58:15.687978,236
2021-12-27 15:58:15.687984,243
2021-12-27 15:58:15.687990,280
2021-12-27 15:58:15.687996,298
2021-12-27 15:58:15.688003,316
2021-12-27 15:58:15.688009,364
2021-12-27 15:58:15.688015,403
2021-12-27 15:58:15.688021,432
2021-12-27 15:58:15.688027,458
2021-12-27 15:58:15.688033,458
2021-12-27 15:58:15.688039,430
2021-12-27 15:58:15.688045,389
2021-12-27 15:58:15.688052,323
2021-12-27 15:58:15.688058,227
2021-12-27 15:58:15.688064,136
2021-12-27 15:58:15.688070,47
2021-12-27 15:58:15.688077,-38
2021-12-27 15:58:15.688083,-93
2021-12-27 15:58:15.688089,-123
2021-12-27 15:58:15.688095,-132
2021-12-27 15:58:15.688101,-116
2021-12-27 15:58:16.029545,-116
2021-12-27 15:58:16.029569,-125
2021-12-27 15:58:16.029576,-113
2021-12-27 15:58:16.029583,-102
2021-12-27 15:58:16.029589,-91
2021-12-27 15:58:16.029595,-66
2021-12-27 15:58:16.029602,-47
2021-12-27 15:58:16.029608,-68
2021-12-27 15:58:16.029614,-95
2021-12-27 15:58:16.029620,-75
2021-12-27 15:58:16.029626,-45
2021-12-27 15:58:16.029633,-34
2021-12-27 15:58:16.029639,-18
2021-12-27 15:58:16.029645,-36
2021-12-27 15:58:16.029651,-84
2021-12-27 15:58:16.029658,-88
2021-12-27 15:58:16.029664,-59
2021-12-27 15:58:16.029670,-41
2021-12-27 15:58:16.029676,-38
2021-12-27 15:58:16.029682,-45
2021-12-27 15:58:16.029689,-86
2021-12-27 15:58:16.029695,-125
2021-12-27 15:58:16.029701,-113
2021-12-27 15:58:16.029707,-118
2021-12-27 15:58:16.029714,-132
2021-12-27 15:58:16.029720,-109
2021-12-27 15:58:16.029726,-127
2021-12-27 15:58:16.029732,-186
2021-12-27 15:58:16.029738,-189
2021-12-27 15:58:16.029744,-145
2021-12-27 15:58:16.174861,-129
2021-12-27 15:58:16.174883,-134
2021-12-27 15:58:16.174889,-138
2021-12-27 15:58:16.174894,-148
2021-12-27 15:58:16.174899,-145
2021-12-27 15:58:16.174903,-113
2021-12-27 15:58:16.174908,-93
2021-12-27 15:58:16.174913,-77
2021-12-27 15:58:16.174917,-66
2021-12-27 15:58:16.174922,-91
2021-12-27 15:58:16.174926,-102
2021-12-27 15:58:16.174931,-82
2021-12-27 15:58:16.174935,-79
2021-12-27 15:58:16.174940,-75
2021-12-27 15:58:16.174944,-70
2021-12-27 15:58:16.174949,-91
2021-12-27 15:58:16.174953,-100
2021-12-27 15:58:16.174958,-72
2021-12-27 15:58:16.174962,-47
2021-12-27 15:58:16.174967,-43
2021-12-27 15:58:16.174971,-36
2021-12-27 15:58:16.174975,-20
2021-12-27 15:58:16.174980,-11
2021-12-27 15:58:16.174984,86
2021-12-27 15:58:16.174989,382
2021-12-27 15:58:16.174993,681
2021-12-27 15:58:16.174997,555
2021-12-27 15:58:16.175002,-136
2021-12-27 15:58:16.175006,-733
2021-12-27 15:58:16.175011,-540
2021-12-27 15:58:16.418094,-93
2021-12-27 15:58:16.418112,-54
2021-12-27 15:58:16.418119,-77
2021-12-27 15:58:16.418125,47
2021-12-27 15:58:16.418132,68
2021-12-27 15:58:16.418138,25
2021-12-27 15:58:16.418144,66
2021-12-27 15:58:16.418150,109
2021-12-27 15:58:16.418156,113
2021-12-27 15:58:16.418162,127
2021-12-27 15:58:16.418168,138
2021-12-27 15:58:16.418174,148
2021-12-27 15:58:16.418180,175
2021-12-27 15:58:16.418186,200
2021-12-27 15:58:16.418193,216
2021-12-27 15:58:16.418199,236
2021-12-27 15:58:16.418205,268
2021-12-27 15:58:16.418211,293
2021-12-27 15:58:16.418217,309
2021-12-27 15:58:16.418223,360
2021-12-27 15:58:16.418229,414
2021-12-27 15:58:16.418235,428
2021-12-27 15:58:16.418241,439
2021-12-27 15:58:16.418247,448
2021-12-27 15:58:16.418253,412
2021-12-27 15:58:16.418259,346
2021-12-27 15:58:16.418265,271
2021-12-27 15:58:16.418271,177
2021-12-27 15:58:16.418277,70
2021-12-27 15:58:16.418284,-22
2021-12-27 15:58:16.614129,-88
2021-12-27 15:58:16.614151,-136
2021-12-27 15:58:16.614159,-191
2021-12-27 15:58:16.614165,-257
2021-12-27 15:58:16.614171,-264
2021-12-27 15:58:16.614177,-230
2021-12-27 15:58:16.614184,-241
2021-12-27 15:58:16.614190,-248
2021-12-27 15:58:16.614196,-207
2021-12-27 15:58:16.614202,-184
2021-12-27 15:58:16.614208,-168
2021-12-27 15:58:16.614214,-141
2021-12-27 15:58:16.614220,-154
2021-12-27 15:58:16.614226,-173
2021-12-27 15:58:16.614233,-152
2021-12-27 15:58:16.614239,-132
2021-12-27 15:58:16.614245,-120
2021-12-27 15:58:16.614251,-100
2021-12-27 15:58:16.614257,-93
2021-12-27 15:58:16.614263,-111
2021-12-27 15:58:16.614269,-104
2021-12-27 15:58:16.614275,-86
2021-12-27 15:58:16.614282,-104
2021-12-27 15:58:16.614288,-113
2021-12-27 15:58:16.614294,-97
2021-12-27 15:58:16.614300,-107
2021-12-27 15:58:16.614306,-143
2021-12-27 15:58:16.614312,-166
2021-12-27 15:58:16.614318,-161
2021-12-27 15:58:16.614325,-161
2021-12-27 15:58:16.809487,-170
2021-12-27 15:58:16.809516,-180
2021-12-27 15:58:16.809528,-200
2021-12-27 15:58:16.809538,-202
2021-12-27 15:58:16.809547,-182
2021-12-27 15:58:16.809557,-175
2021-12-27 15:58:16.809566,-170
2021-12-27 15:58:16.809576,-182
2021-12-27 15:58:16.809585,-218
2021-12-27 15:58:16.809595,-230
2021-12-27 15:58:16.809604,-202
2021-12-27 15:58:16.809613,-166
2021-12-27 15:58:16.809623,-132
2021-12-27 15:58:16.809632,-116
2021-12-27 15:58:16.809642,-148
2021-12-27 15:58:16.809651,-191
2021-12-27 15:58:16.809661,-175
2021-12-27 15:58:16.809670,-132
2021-12-27 15:58:16.809679,-123
2021-12-27 15:58:16.809689,-113
2021-12-27 15:58:16.809698,-104
2021-12-27 15:58:16.809708,-109
2021-12-27 15:58:16.809717,-95
2021-12-27 15:58:16.809727,-70
2021-12-27 15:58:16.809736,-50
2021-12-27 15:58:16.809746,-13
2021-12-27 15:58:16.809755,43
2021-12-27 15:58:16.809765,182
2021-12-27 15:58:16.809774,446
2021-12-27 15:58:16.809784,619
2021-12-27 15:58:17.053239,362
2021-12-27 15:58:17.053269,-323
2021-12-27 15:58:17.053281,-781
2021-12-27 15:58:17.053290,-533
2021-12-27 15:58:17.053300,-161
2021-12-27 15:58:17.053310,-109
2021-12-27 15:58:17.053319,-50
2021-12-27 15:58:17.053329,86
2021-12-27 15:58:17.053338,63
2021-12-27 15:58:17.053348,-38
2021-12-27 15:58:17.053357,-38
2021-12-27 15:58:17.053367,15
2021-12-27 15:58:17.053376,43
2021-12-27 15:58:17.053386,63
2021-12-27 15:58:17.053395,93
2021-12-27 15:58:17.053405,107
2021-12-27 15:58:17.053414,116
2021-12-27 15:58:17.053424,143
2021-12-27 15:58:17.053433,191
2021-12-27 15:58:17.053442,223
2021-12-27 15:58:17.053452,252
2021-12-27 15:58:17.053462,287
2021-12-27 15:58:17.053471,316
2021-12-27 15:58:17.053481,350
2021-12-27 15:58:17.053490,391
2021-12-27 15:58:17.053500,426
2021-12-27 15:58:17.053509,446
2021-12-27 15:58:17.053519,439
2021-12-27 15:58:17.053528,414
2021-12-27 15:58:17.053538,366
2021-12-27 15:58:17.346117,268
2021-12-27 15:58:17.346147,145
2021-12-27 15:58:17.346159,34
2021-12-27 15:58:17.346169,-52
2021-12-27 15:58:17.346178,-134
2021-12-27 15:58:17.346188,-207
2021-12-27 15:58:17.346197,-230
2021-12-27 15:58:17.346207,-211
2021-12-27 15:58:17.346217,-202
2021-12-27 15:58:17.346226,-202
2021-12-27 15:58:17.346236,-198
2021-12-27 15:58:17.346246,-202
2021-12-27 15:58:17.346255,-209
2021-12-27 15:58:17.346265,-186
2021-12-27 15:58:17.346275,-159
2021-12-27 15:58:17.346284,-154
2021-12-27 15:58:17.346294,-138
2021-12-27 15:58:17.346303,-113
2021-12-27 15:58:17.346313,-113
2021-12-27 15:58:17.346322,-95
2021-12-27 15:58:17.346332,-70
2021-12-27 15:58:17.346342,-70
2021-12-27 15:58:17.346351,-59
2021-12-27 15:58:17.346361,-45
2021-12-27 15:58:17.346370,-47
2021-12-27 15:58:17.346380,-38
2021-12-27 15:58:17.346390,-13
2021-12-27 15:58:17.346399,-4
2021-12-27 15:58:17.346409,-11
2021-12-27 15:58:17.346419,-4
2021-12-27 15:58:17.588788,-9
2021-12-27 15:58:17.588808,-45
2021-12-27 15:58:17.588816,-82
2021-12-27 15:58:17.588822,-104
2021-12-27 15:58:17.588828,-97
2021-12-27 15:58:17.588837,-70
2021-12-27 15:58:17.588847,-86
2021-12-27 15:58:17.588858,-129
2021-12-27 15:58:17.588918,-150
2021-12-27 15:58:17.588925,-154
2021-12-27 15:58:17.588932,-168
2021-12-27 15:58:17.588938,-180
2021-12-27 15:58:17.588944,-159
2021-12-27 15:58:17.588950,-154
2021-12-27 15:58:17.588957,-200
2021-12-27 15:58:17.588963,-200
2021-12-27 15:58:17.588969,-136
2021-12-27 15:58:17.588976,-116
2021-12-27 15:58:17.588982,-150
2021-12-27 15:58:17.588988,-177
2021-12-27 15:58:17.588995,-175
2021-12-27 15:58:17.589001,-166
2021-12-27 15:58:17.589007,-154
2021-12-27 15:58:17.589014,-125
2021-12-27 15:58:17.589020,-107
2021-12-27 15:58:17.589026,-113
2021-12-27 15:58:17.589032,-116
2021-12-27 15:58:17.589039,-102
2021-12-27 15:58:17.589045,-72
2021-12-27 15:58:17.589051,-9
2021-12-27 15:58:17.735767,166
2021-12-27 15:58:17.735797,469
2021-12-27 15:58:17.735809,619
2021-12-27 15:58:17.735818,334
2021-12-27 15:58:17.735828,-314
2021-12-27 15:58:17.735838,-754
2021-12-27 15:58:17.735847,-492
2021-12-27 15:58:17.735857,-93
2021-12-27 15:58:17.735867,-97
2021-12-27 15:58:17.735877,-88
2021-12-27 15:58:17.735886,70
2021-12-27 15:58:17.735896,102
2021-12-27 15:58:17.735905,77
2021-12-27 15:58:17.735915,120
2021-12-27 15:58:17.735924,118
2021-12-27 15:58:17.735934,59
2021-12-27 15:58:17.735943,72
2021-12-27 15:58:17.735953,129
2021-12-27 15:58:17.735962,157
2021-12-27 15:58:17.735972,191
2021-12-27 15:58:17.735981,214
2021-12-27 15:58:17.735991,198
2021-12-27 15:58:17.736001,207
2021-12-27 15:58:17.736010,268
2021-12-27 15:58:17.736020,328
2021-12-27 15:58:17.736029,371
2021-12-27 15:58:17.736039,416
2021-12-27 15:58:17.736048,432
2021-12-27 15:58:17.736058,432
2021-12-27 15:58:17.736068,460
2021-12-27 15:58:18.028038,480
2021-12-27 15:58:18.028061,469
2021-12-27 15:58:18.028069,435
2021-12-27 15:58:18.028075,328
2021-12-27 15:58:18.028081,175
2021-12-27 15:58:18.028087,66
2021-12-27 15:58:18.028094,-22
2021-12-27 15:58:18.028100,-107
2021-12-27 15:58:18.028106,-159
2021-12-27 15:58:18.028112,-200
2021-12-27 15:58:18.028118,-232
2021-12-27 15:58:18.028125,-227
2021-12-27 15:58:18.028131,-189
2021-12-27 15:58:18.028137,-164
2021-12-27 15:58:18.028143,-161
2021-12-27 15:58:18.028149,-152
2021-12-27 15:58:18.028156,-141
2021-12-27 15:58:18.028162,-127
2021-12-27 15:58:18.028168,-100
2021-12-27 15:58:18.028174,-91
2021-12-27 15:58:18.028180,-120
2021-12-27 15:58:18.028187,-143
2021-12-27 15:58:18.028193,-127
2021-12-27 15:58:18.028199,-104
2021-12-27 15:58:18.028206,-93
2021-12-27 15:58:18.028212,-66
2021-12-27 15:58:18.028218,-45
2021-12-27 15:58:18.028224,-47
2021-12-27 15:58:18.028230,-41
2021-12-27 15:58:18.028237,-31
