Time,ECG
2021-12-27 15:37:42.528706,4
2021-12-27 15:37:42.528727,-27
2021-12-27 15:37:42.528735,-27
2021-12-27 15:37:42.528743,-20
2021-12-27 15:37:42.528751,-20
2021-12-27 15:37:42.528760,2
2021-12-27 15:37:42.528766,-22
2021-12-27 15:37:42.528771,-54
2021-12-27 15:37:42.528775,-41
2021-12-27 15:37:42.528780,-29
2021-12-27 15:37:42.528784,-9
2021-12-27 15:37:42.528789,6
2021-12-27 15:37:42.528793,77
2021-12-27 15:37:42.528797,282
2021-12-27 15:37:42.528802,412
2021-12-27 15:37:42.528806,170
2021-12-27 15:37:42.528811,-364
2021-12-27 15:37:42.528815,-631
2021-12-27 15:37:42.528820,-360
2021-12-27 15:37:42.528824,-84
2021-12-27 15:37:42.528828,-68
2021-12-27 15:37:42.528833,-27
2021-12-27 15:37:42.528837,70
2021-12-27 15:37:42.528841,97
2021-12-27 15:37:42.528846,72
2021-12-27 15:37:42.528850,68
2021-12-27 15:37:42.528855,31
2021-12-27 15:37:42.528859,-13
2021-12-27 15:37:42.528864,41
2021-12-27 15:37:42.528868,84
2021-12-27 15:37:42.582029,82
2021-12-27 15:37:42.582058,104
2021-12-27 15:37:42.582069,79
2021-12-27 15:37:42.582079,63
2021-12-27 15:37:42.582089,93
2021-12-27 15:37:42.582098,100
2021-12-27 15:37:42.582109,111
2021-12-27 15:37:42.582119,127
2021-12-27 15:37:42.582128,118
2021-12-27 15:37:42.582138,100
2021-12-27 15:37:42.582147,111
2021-12-27 15:37:42.582157,154
2021-12-27 15:37:42.582166,150
2021-12-27 15:37:42.582176,127
2021-12-27 15:37:42.582185,88
2021-12-27 15:37:42.582195,-43
2021-12-27 15:37:42.582205,-148
2021-12-27 15:37:42.582215,-175
2021-12-27 15:37:42.582225,-209
2021-12-27 15:37:42.582234,-227
2021-12-27 15:37:42.582244,-259
2021-12-27 15:37:42.582254,-289
2021-12-27 15:37:42.582263,-273
2021-12-27 15:37:42.582273,-252
2021-12-27 15:37:42.582283,-218
2021-12-27 15:37:42.582292,-198
2021-12-27 15:37:42.582302,-195
2021-12-27 15:37:42.582311,-184
2021-12-27 15:37:42.582321,-182
2021-12-27 15:37:42.582334,-148
2021-12-27 15:37:42.825493,-109
2021-12-27 15:37:42.825513,-104
2021-12-27 15:37:42.825523,-93
2021-12-27 15:37:42.825531,-125
2021-12-27 15:37:42.825539,-161
2021-12-27 15:37:42.825547,-123
2021-12-27 15:37:42.825554,-93
2021-12-27 15:37:42.825561,-75
2021-12-27 15:37:42.825568,-68
2021-12-27 15:37:42.825576,-97
2021-12-27 15:37:42.825584,-123
2021-12-27 15:37:42.825592,-125
2021-12-27 15:37:42.825601,-84
2021-12-27 15:37:42.825613,-61
2021-12-27 15:37:42.825622,-82
2021-12-27 15:37:42.825630,-75
2021-12-27 15:37:42.825638,-86
2021-12-27 15:37:42.825646,-120
2021-12-27 15:37:42.825654,-143
2021-12-27 15:37:42.825662,-154
2021-12-27 15:37:42.825670,-118
2021-12-27 15:37:42.825679,-88
2021-12-27 15:37:42.825686,-84
2021-12-27 15:37:42.825694,-61
2021-12-27 15:37:42.825702,-56
2021-12-27 15:37:42.825709,-43
2021-12-27 15:37:42.825717,-34
2021-12-27 15:37:42.825725,-52
2021-12-27 15:37:42.825733,-38
2021-12-27 15:37:42.825743,-38
2021-12-27 15:37:43.068957,-34
2021-12-27 15:37:43.068977,-6
2021-12-27 15:37:43.068985,-20
2021-12-27 15:37:43.068991,-13
2021-12-27 15:37:43.068997,4
2021-12-27 15:37:43.069004,0
2021-12-27 15:37:43.069010,72
2021-12-27 15:37:43.069017,287
2021-12-27 15:37:43.069023,478
2021-12-27 15:37:43.069030,316
2021-12-27 15:37:43.069036,-175
2021-12-27 15:37:43.069042,-546
2021-12-27 15:37:43.069049,-462
2021-12-27 15:37:43.069055,-127
2021-12-27 15:37:43.069062,2
2021-12-27 15:37:43.069068,-15
2021-12-27 15:37:43.069074,79
2021-12-27 15:37:43.069085,127
2021-12-27 15:37:43.069091,75
2021-12-27 15:37:43.069098,79
2021-12-27 15:37:43.069104,70
2021-12-27 15:37:43.069110,50
2021-12-27 15:37:43.069117,86
2021-12-27 15:37:43.069124,109
2021-12-27 15:37:43.069130,113
2021-12-27 15:37:43.069136,111
2021-12-27 15:37:43.069143,116
2021-12-27 15:37:43.069149,120
2021-12-27 15:37:43.069155,113
2021-12-27 15:37:43.069162,154
2021-12-27 15:37:43.361508,182
2021-12-27 15:37:43.361528,191
2021-12-27 15:37:43.361536,246
2021-12-27 15:37:43.361542,236
2021-12-27 15:37:43.361549,202
2021-12-27 15:37:43.361555,214
2021-12-27 15:37:43.361562,184
2021-12-27 15:37:43.361574,113
2021-12-27 15:37:43.361581,47
2021-12-27 15:37:43.361587,11
2021-12-27 15:37:43.361594,-34
2021-12-27 15:37:43.361600,-109
2021-12-27 15:37:43.361606,-150
2021-12-27 15:37:43.361613,-216
2021-12-27 15:37:43.361619,-293
2021-12-27 15:37:43.361625,-280
2021-12-27 15:37:43.361631,-255
2021-12-27 15:37:43.361638,-234
2021-12-27 15:37:43.361644,-202
2021-12-27 15:37:43.361650,-211
2021-12-27 15:37:43.361657,-216
2021-12-27 15:37:43.361663,-225
2021-12-27 15:37:43.361669,-234
2021-12-27 15:37:43.361675,-239
2021-12-27 15:37:43.361682,-268
2021-12-27 15:37:43.361688,-255
2021-12-27 15:37:43.361694,-232
2021-12-27 15:37:43.361700,-236
2021-12-27 15:37:43.361706,-200
2021-12-27 15:37:43.361714,-161
2021-12-27 15:37:43.604335,-138
2021-12-27 15:37:43.604365,-123
2021-12-27 15:37:43.604376,-143
2021-12-27 15:37:43.604386,-148
2021-12-27 15:37:43.604395,-127
2021-12-27 15:37:43.604405,-95
2021-12-27 15:37:43.604415,-84
2021-12-27 15:37:43.604424,-93
2021-12-27 15:37:43.604434,-95
2021-12-27 15:37:43.604443,-136
2021-12-27 15:37:43.604452,-159
2021-12-27 15:37:43.604462,-91
2021-12-27 15:37:43.604472,-66
2021-12-27 15:37:43.604481,-70
2021-12-27 15:37:43.604491,-72
2021-12-27 15:37:43.604500,-120
2021-12-27 15:37:43.604510,-109
2021-12-27 15:37:43.604519,-54
2021-12-27 15:37:43.604529,-38
2021-12-27 15:37:43.604538,-34
2021-12-27 15:37:43.604548,-61
2021-12-27 15:37:43.604557,-113
2021-12-27 15:37:43.604567,-132
2021-12-27 15:37:43.604576,-104
2021-12-27 15:37:43.604593,-91
2021-12-27 15:37:43.604603,-111
2021-12-27 15:37:43.604612,-86
2021-12-27 15:37:43.604622,-79
2021-12-27 15:37:43.604631,-113
2021-12-27 15:37:43.604641,-70
2021-12-27 15:37:43.751625,6
2021-12-27 15:37:43.751655,141
2021-12-27 15:37:43.751666,401
2021-12-27 15:37:43.751676,458
2021-12-27 15:37:43.751686,70
2021-12-27 15:37:43.751696,-473
2021-12-27 15:37:43.751705,-656
2021-12-27 15:37:43.751715,-334
2021-12-27 15:37:43.751725,-41
2021-12-27 15:37:43.751734,-31
2021-12-27 15:37:43.751744,-9
2021-12-27 15:37:43.751754,66
2021-12-27 15:37:43.751763,68
2021-12-27 15:37:43.751773,56
2021-12-27 15:37:43.751783,95
2021-12-27 15:37:43.751793,123
2021-12-27 15:37:43.751802,84
2021-12-27 15:37:43.751812,59
2021-12-27 15:37:43.751821,86
2021-12-27 15:37:43.751831,123
2021-12-27 15:37:43.751841,145
2021-12-27 15:37:43.751850,143
2021-12-27 15:37:43.751863,164
2021-12-27 15:37:43.751872,189
2021-12-27 15:37:43.751882,195
2021-12-27 15:37:43.751891,230
2021-12-27 15:37:43.751901,225
2021-12-27 15:37:43.751911,207
2021-12-27 15:37:43.751920,216
2021-12-27 15:37:43.751930,159
2021-12-27 15:37:43.995051,123
2021-12-27 15:37:43.995071,157
2021-12-27 15:37:43.995078,143
2021-12-27 15:37:43.995085,88
2021-12-27 15:37:43.995091,34
2021-12-27 15:37:43.995097,-56
2021-12-27 15:37:43.995104,-186
2021-12-27 15:37:43.995110,-266
2021-12-27 15:37:43.995116,-287
2021-12-27 15:37:43.995122,-323
2021-12-27 15:37:43.995128,-325
2021-12-27 15:37:43.995135,-298
2021-12-27 15:37:43.995141,-321
2021-12-27 15:37:43.995147,-332
2021-12-27 15:37:43.995153,-293
2021-12-27 15:37:43.995159,-262
2021-12-27 15:37:43.995166,-227
2021-12-27 15:37:43.995172,-207
2021-12-27 15:37:43.995178,-198
2021-12-27 15:37:43.995184,-193
2021-12-27 15:37:43.995191,-198
2021-12-27 15:37:43.995197,-177
2021-12-27 15:37:43.995203,-152
2021-12-27 15:37:43.995209,-129
2021-12-27 15:37:43.995221,-109
2021-12-27 15:37:43.995228,-100
2021-12-27 15:37:43.995234,-95
2021-12-27 15:37:43.995240,-113
2021-12-27 15:37:43.995247,-132
2021-12-27 15:37:43.995253,-104
2021-12-27 15:37:44.288273,-88
2021-12-27 15:37:44.288302,-100
2021-12-27 15:37:44.288314,-107
2021-12-27 15:37:44.288324,-100
2021-12-27 15:37:44.288334,-77
2021-12-27 15:37:44.288343,-61
2021-12-27 15:37:44.288353,-54
2021-12-27 15:37:44.288362,-70
2021-12-27 15:37:44.288372,-123
2021-12-27 15:37:44.288382,-120
2021-12-27 15:37:44.288391,-75
2021-12-27 15:37:44.288401,-52
2021-12-27 15:37:44.288411,-50
2021-12-27 15:37:44.288420,-61
2021-12-27 15:37:44.288430,-66
2021-12-27 15:37:44.288439,-52
2021-12-27 15:37:44.288449,-41
2021-12-27 15:37:44.288458,-27
2021-12-27 15:37:44.288468,-22
2021-12-27 15:37:44.288478,-25
2021-12-27 15:37:44.288487,-31
2021-12-27 15:37:44.288497,-38
2021-12-27 15:37:44.288506,-11
2021-12-27 15:37:44.288516,15
2021-12-27 15:37:44.288526,20
2021-12-27 15:37:44.288535,38
2021-12-27 15:37:44.288545,31
2021-12-27 15:37:44.288555,15
2021-12-27 15:37:44.288564,66
2021-12-27 15:37:44.288574,221
2021-12-27 15:37:44.434489,467
2021-12-27 15:37:44.434510,549
2021-12-27 15:37:44.434517,195
2021-12-27 15:37:44.434524,-412
2021-12-27 15:37:44.434530,-647
2021-12-27 15:37:44.434536,-314
2021-12-27 15:37:44.434542,-54
2021-12-27 15:37:44.434549,-72
2021-12-27 15:37:44.434555,-18
2021-12-27 15:37:44.434561,36
2021-12-27 15:37:44.434567,-9
2021-12-27 15:37:44.434573,13
2021-12-27 15:37:44.434580,68
2021-12-27 15:37:44.434586,77
2021-12-27 15:37:44.434592,75
2021-12-27 15:37:44.434598,79
2021-12-27 15:37:44.434604,91
2021-12-27 15:37:44.434610,118
2021-12-27 15:37:44.434616,152
2021-12-27 15:37:44.434623,180
2021-12-27 15:37:44.434629,180
2021-12-27 15:37:44.434635,148
2021-12-27 15:37:44.434641,107
2021-12-27 15:37:44.434647,138
2021-12-27 15:37:44.434653,207
2021-12-27 15:37:44.434659,209
2021-12-27 15:37:44.434665,166
2021-12-27 15:37:44.434672,143
2021-12-27 15:37:44.434678,134
2021-12-27 15:37:44.434684,136
2021-12-27 15:37:44.726688,148
2021-12-27 15:37:44.726709,116
2021-12-27 15:37:44.726717,15
2021-12-27 15:37:44.726723,-111
2021-12-27 15:37:44.726730,-230
2021-12-27 15:37:44.726736,-291
2021-12-27 15:37:44.726742,-291
2021-12-27 15:37:44.726748,-312
2021-12-27 15:37:44.726754,-334
2021-12-27 15:37:44.726760,-303
2021-12-27 15:37:44.726771,-280
2021-12-27 15:37:44.726777,-257
2021-12-27 15:37:44.726783,-180
2021-12-27 15:37:44.726790,-132
2021-12-27 15:37:44.726796,-141
2021-12-27 15:37:44.726802,-143
2021-12-27 15:37:44.726809,-123
2021-12-27 15:37:44.726815,-113
2021-12-27 15:37:44.726821,-132
2021-12-27 15:37:44.726827,-102
2021-12-27 15:37:44.726833,-36
2021-12-27 15:37:44.726840,-27
2021-12-27 15:37:44.726846,-29
2021-12-27 15:37:44.726852,-29
2021-12-27 15:37:44.726858,-104
2021-12-27 15:37:44.726864,-164
2021-12-27 15:37:44.726871,-116
2021-12-27 15:37:44.726877,-79
2021-12-27 15:37:44.726883,-91
2021-12-27 15:37:44.726889,-54
2021-12-27 15:37:44.922310,-9
2021-12-27 15:37:44.922340,-22
2021-12-27 15:37:44.922351,-4
2021-12-27 15:37:44.922361,27
2021-12-27 15:37:44.922371,-6
2021-12-27 15:37:44.922380,-45
2021-12-27 15:37:44.922390,-72
2021-12-27 15:37:44.922399,-91
2021-12-27 15:37:44.922409,-61
2021-12-27 15:37:44.922418,-66
2021-12-27 15:37:44.922428,-111
2021-12-27 15:37:44.922437,-120
2021-12-27 15:37:44.922447,-111
2021-12-27 15:37:44.922456,-107
2021-12-27 15:37:44.922465,-97
2021-12-27 15:37:44.922475,-68
2021-12-27 15:37:44.922484,-38
2021-12-27 15:37:44.922494,-38
2021-12-27 15:37:44.922503,-47
2021-12-27 15:37:44.922513,-82
2021-12-27 15:37:44.922522,-100
2021-12-27 15:37:44.922532,-54
2021-12-27 15:37:44.922541,-27
2021-12-27 15:37:44.922551,-18
2021-12-27 15:37:44.922560,2
2021-12-27 15:37:44.922575,-6
2021-12-27 15:37:44.922585,-11
2021-12-27 15:37:44.922594,2
2021-12-27 15:37:44.922604,41
2021-12-27 15:37:44.922613,189
2021-12-27 15:37:45.117247,446
2021-12-27 15:37:45.117277,562
2021-12-27 15:37:45.117289,250
2021-12-27 15:37:45.117299,-305
2021-12-27 15:37:45.117309,-530
2021-12-27 15:37:45.117319,-259
2021-12-27 15:37:45.117328,-27
2021-12-27 15:37:45.117338,-61
2021-12-27 15:37:45.117347,-66
2021-12-27 15:37:45.117357,-9
2021-12-27 15:37:45.117367,-13
2021-12-27 15:37:45.117376,-2
2021-12-27 15:37:45.117386,45
2021-12-27 15:37:45.117396,54
2021-12-27 15:37:45.117405,45
2021-12-27 15:37:45.117415,50
2021-12-27 15:37:45.117425,79
2021-12-27 15:37:45.117435,125
2021-12-27 15:37:45.117444,134
2021-12-27 15:37:45.117454,166
2021-12-27 15:37:45.117463,202
2021-12-27 15:37:45.117473,168
2021-12-27 15:37:45.117483,161
2021-12-27 15:37:45.117492,202
2021-12-27 15:37:45.117502,223
2021-12-27 15:37:45.117512,252
2021-12-27 15:37:45.117522,273
2021-12-27 15:37:45.117532,273
2021-12-27 15:37:45.117542,264
2021-12-27 15:37:45.117551,243
2021-12-27 15:37:45.360736,223
2021-12-27 15:37:45.360757,145
2021-12-27 15:37:45.360764,38
2021-12-27 15:37:45.360771,-72
2021-12-27 15:37:45.360777,-180
2021-12-27 15:37:45.360784,-202
2021-12-27 15:37:45.360790,-205
2021-12-27 15:37:45.360796,-236
2021-12-27 15:37:45.360803,-271
2021-12-27 15:37:45.360809,-337
2021-12-27 15:37:45.360815,-357
2021-12-27 15:37:45.360822,-296
2021-12-27 15:37:45.360828,-262
2021-12-27 15:37:45.360834,-257
2021-12-27 15:37:45.360840,-225
2021-12-27 15:37:45.360847,-200
2021-12-27 15:37:45.360859,-227
2021-12-27 15:37:45.360866,-255
2021-12-27 15:37:45.360872,-202
2021-12-27 15:37:45.360878,-154
2021-12-27 15:37:45.360885,-152
2021-12-27 15:37:45.360891,-132
2021-12-27 15:37:45.360897,-145
2021-12-27 15:37:45.360904,-152
2021-12-27 15:37:45.360910,-100
2021-12-27 15:37:45.360916,-63
2021-12-27 15:37:45.360923,-70
2021-12-27 15:37:45.360929,-77
2021-12-27 15:37:45.360935,-59
2021-12-27 15:37:45.360942,-45
2021-12-27 15:37:45.700030,-68
2021-12-27 15:37:45.700047,-56
2021-12-27 15:37:45.700055,-25
2021-12-27 15:37:45.700061,-25
2021-12-27 15:37:45.700067,-34
2021-12-27 15:37:45.700074,-61
2021-12-27 15:37:45.700080,-66
2021-12-27 15:37:45.700086,-31
2021-12-27 15:37:45.700092,-31
2021-12-27 15:37:45.700098,-45
2021-12-27 15:37:45.700105,-68
2021-12-27 15:37:45.700111,-102
2021-12-27 15:37:45.700117,-95
2021-12-27 15:37:45.700123,-66
2021-12-27 15:37:45.700130,-47
2021-12-27 15:37:45.700136,-50
2021-12-27 15:37:45.700142,-52
2021-12-27 15:37:45.700148,-38
2021-12-27 15:37:45.700154,-41
2021-12-27 15:37:45.700160,-20
2021-12-27 15:37:45.700167,18
2021-12-27 15:37:45.700173,25
2021-12-27 15:37:45.700179,29
2021-12-27 15:37:45.700185,22
2021-12-27 15:37:45.700191,-2
2021-12-27 15:37:45.700198,2
2021-12-27 15:37:45.700204,22
2021-12-27 15:37:45.700210,34
2021-12-27 15:37:45.700216,45
2021-12-27 15:37:45.700223,52
2021-12-27 15:37:45.848090,56
2021-12-27 15:37:45.848120,50
2021-12-27 15:37:45.848132,63
2021-12-27 15:37:45.848142,86
2021-12-27 15:37:45.848151,123
2021-12-27 15:37:45.848161,291
2021-12-27 15:37:45.848171,569
2021-12-27 15:37:45.848181,667
2021-12-27 15:37:45.848190,344
2021-12-27 15:37:45.848200,-255
2021-12-27 15:37:45.848210,-485
2021-12-27 15:37:45.848220,-145
2021-12-27 15:37:45.848230,52
2021-12-27 15:37:45.848245,-66
2021-12-27 15:37:45.848255,-38
2021-12-27 15:37:45.848265,68
2021-12-27 15:37:45.848274,34
2021-12-27 15:37:45.848284,13
2021-12-27 15:37:45.848294,72
2021-12-27 15:37:45.848303,61
2021-12-27 15:37:45.848313,22
2021-12-27 15:37:45.848323,45
2021-12-27 15:37:45.848332,22
2021-12-27 15:37:45.848342,-38
2021-12-27 15:37:45.848352,-27
2021-12-27 15:37:45.848361,2
2021-12-27 15:37:45.848371,-2
2021-12-27 15:37:45.848381,6
2021-12-27 15:37:45.848391,61
2021-12-27 15:37:45.848400,116
2021-12-27 15:37:46.043311,145
2021-12-27 15:37:46.043335,177
2021-12-27 15:37:46.043342,191
2021-12-27 15:37:46.043349,182
2021-12-27 15:37:46.043355,195
2021-12-27 15:37:46.043361,200
2021-12-27 15:37:46.043368,180
2021-12-27 15:37:46.043374,138
2021-12-27 15:37:46.043412,54
2021-12-27 15:37:46.043418,-45
2021-12-27 15:37:46.043425,-102
2021-12-27 15:37:46.043431,-127
2021-12-27 15:37:46.043437,-157
2021-12-27 15:37:46.043444,-205
2021-12-27 15:37:46.043450,-268
2021-12-27 15:37:46.043456,-316
2021-12-27 15:37:46.043463,-284
2021-12-27 15:37:46.043469,-218
2021-12-27 15:37:46.043475,-211
2021-12-27 15:37:46.043481,-202
2021-12-27 15:37:46.043488,-177
2021-12-27 15:37:46.043494,-200
2021-12-27 15:37:46.043500,-209
2021-12-27 15:37:46.043506,-175
2021-12-27 15:37:46.043512,-141
2021-12-27 15:37:46.043519,-118
2021-12-27 15:37:46.043525,-118
2021-12-27 15:37:46.043531,-132
2021-12-27 15:37:46.043537,-141
2021-12-27 15:37:46.043544,-113
2021-12-27 15:37:46.286307,-75
2021-12-27 15:37:46.286326,-68
2021-12-27 15:37:46.286333,-66
2021-12-27 15:37:46.286339,-88
2021-12-27 15:37:46.286346,-127
2021-12-27 15:37:46.286352,-109
2021-12-27 15:37:46.286358,-86
2021-12-27 15:37:46.286364,-88
2021-12-27 15:37:46.286370,-79
2021-12-27 15:37:46.286376,-84
2021-12-27 15:37:46.286383,-111
2021-12-27 15:37:46.286389,-118
2021-12-27 15:37:46.286395,-84
2021-12-27 15:37:46.286401,-45
2021-12-27 15:37:46.286407,-56
2021-12-27 15:37:46.286413,-84
2021-12-27 15:37:46.286420,-97
2021-12-27 15:37:46.286431,-97
2021-12-27 15:37:46.286437,-66
2021-12-27 15:37:46.286444,-47
2021-12-27 15:37:46.286450,-43
2021-12-27 15:37:46.286456,-31
2021-12-27 15:37:46.286462,-22
2021-12-27 15:37:46.286468,-2
2021-12-27 15:37:46.286475,6
2021-12-27 15:37:46.286481,11
2021-12-27 15:37:46.286487,18
2021-12-27 15:37:46.286493,-2
2021-12-27 15:37:46.286500,-43
2021-12-27 15:37:46.286506,-84
2021-12-27 15:37:46.530710,-88
2021-12-27 15:37:46.530739,-45
2021-12-27 15:37:46.530751,-22
2021-12-27 15:37:46.530761,-27
2021-12-27 15:37:46.530770,-25
2021-12-27 15:37:46.530780,-36
2021-12-27 15:37:46.530789,-22
2021-12-27 15:37:46.530799,102
2021-12-27 15:37:46.530809,353
2021-12-27 15:37:46.530818,508
2021-12-27 15:37:46.530828,287
2021-12-27 15:37:46.530838,-264
2021-12-27 15:37:46.530847,-649
2021-12-27 15:37:46.530857,-448
2021-12-27 15:37:46.530866,-100
2021-12-27 15:37:46.530876,-88
2021-12-27 15:37:46.530885,-97
2021-12-27 15:37:46.530895,2
2021-12-27 15:37:46.530904,-20
2021-12-27 15:37:46.530914,-84
2021-12-27 15:37:46.530923,-59
2021-12-27 15:37:46.530933,-31
2021-12-27 15:37:46.530942,-22
2021-12-27 15:37:46.530952,4
2021-12-27 15:37:46.530962,22
2021-12-27 15:37:46.530971,18
2021-12-27 15:37:46.530981,27
2021-12-27 15:37:46.530990,56
2021-12-27 15:37:46.531000,77
2021-12-27 15:37:46.531009,107
2021-12-27 15:37:46.774148,138
2021-12-27 15:37:46.774178,150
2021-12-27 15:37:46.774190,161
2021-12-27 15:37:46.774200,184
2021-12-27 15:37:46.774210,209
2021-12-27 15:37:46.774220,243
2021-12-27 15:37:46.774230,252
2021-12-27 15:37:46.774239,211
2021-12-27 15:37:46.774249,161
2021-12-27 15:37:46.774259,127
2021-12-27 15:37:46.774268,84
2021-12-27 15:37:46.774278,20
2021-12-27 15:37:46.774287,-31
2021-12-27 15:37:46.774297,-111
2021-12-27 15:37:46.774307,-207
2021-12-27 15:37:46.774317,-216
2021-12-27 15:37:46.774326,-189
2021-12-27 15:37:46.774336,-195
2021-12-27 15:37:46.774346,-189
2021-12-27 15:37:46.774355,-154
2021-12-27 15:37:46.774365,-150
2021-12-27 15:37:46.774374,-175
2021-12-27 15:37:46.774384,-154
2021-12-27 15:37:46.774393,-102
2021-12-27 15:37:46.774403,-86
2021-12-27 15:37:46.774413,-79
2021-12-27 15:37:46.774422,-70
2021-12-27 15:37:46.774432,-86
2021-12-27 15:37:46.774441,-72
2021-12-27 15:37:46.774457,-34
2021-12-27 15:37:46.969537,-22
2021-12-27 15:37:46.969566,-34
2021-12-27 15:37:46.969578,-63
2021-12-27 15:37:46.969588,-100
2021-12-27 15:37:46.969597,-127
2021-12-27 15:37:46.969607,-125
2021-12-27 15:37:46.969616,-88
2021-12-27 15:37:46.969626,-75
2021-12-27 15:37:46.969635,-97
2021-12-27 15:37:46.969645,-127
2021-12-27 15:37:46.969655,-129
2021-12-27 15:37:46.969664,-77
2021-12-27 15:37:46.969674,-45
2021-12-27 15:37:46.969683,-47
2021-12-27 15:37:46.969693,-43
2021-12-27 15:37:46.969702,-79
2021-12-27 15:37:46.969712,-102
2021-12-27 15:37:46.969721,-66
2021-12-27 15:37:46.969731,-38
2021-12-27 15:37:46.969740,-29
2021-12-27 15:37:46.969750,-25
2021-12-27 15:37:46.969759,-31
2021-12-27 15:37:46.969769,-45
2021-12-27 15:37:46.969778,-70
2021-12-27 15:37:46.969788,-59
2021-12-27 15:37:46.969797,-41
2021-12-27 15:37:46.969807,-36
2021-12-27 15:37:46.969816,-25
2021-12-27 15:37:46.969832,-38
2021-12-27 15:37:46.969857,-27
2021-12-27 15:37:47.213253,25
2021-12-27 15:37:47.213292,41
2021-12-27 15:37:47.213303,36
2021-12-27 15:37:47.213313,2
2021-12-27 15:37:47.213323,-54
2021-12-27 15:37:47.213333,-79
2021-12-27 15:37:47.213342,-61
2021-12-27 15:37:47.213352,-25
2021-12-27 15:37:47.213361,-25
2021-12-27 15:37:47.213370,-43
2021-12-27 15:37:47.213380,-50
2021-12-27 15:37:47.213390,-107
2021-12-27 15:37:47.213399,-109
2021-12-27 15:37:47.213409,-56
2021-12-27 15:37:47.213418,-50
2021-12-27 15:37:47.213428,97
2021-12-27 15:37:47.213437,355
2021-12-27 15:37:47.213447,396
2021-12-27 15:37:47.213456,59
2021-12-27 15:37:47.213466,-471
2021-12-27 15:37:47.213475,-626
2021-12-27 15:37:47.213485,-312
2021-12-27 15:37:47.213494,-93
2021-12-27 15:37:47.213504,-75
2021-12-27 15:37:47.213513,-25
2021-12-27 15:37:47.213523,31
2021-12-27 15:37:47.213532,20
2021-12-27 15:37:47.213542,-2
2021-12-27 15:37:47.213551,45
2021-12-27 15:37:47.213561,59
2021-12-27 15:37:47.505695,38
2021-12-27 15:37:47.505735,75
2021-12-27 15:37:47.505746,75
2021-12-27 15:37:47.505756,84
2021-12-27 15:37:47.505765,120
2021-12-27 15:37:47.505775,129
2021-12-27 15:37:47.505784,132
2021-12-27 15:37:47.505793,113
2021-12-27 15:37:47.505803,136
2021-12-27 15:37:47.505812,154
2021-12-27 15:37:47.505822,113
2021-12-27 15:37:47.505831,154
2021-12-27 15:37:47.505840,177
2021-12-27 15:37:47.505850,143
2021-12-27 15:37:47.505859,182
2021-12-27 15:37:47.505869,193
2021-12-27 15:37:47.505878,175
2021-12-27 15:37:47.505888,161
2021-12-27 15:37:47.505897,102
2021-12-27 15:37:47.505907,41
2021-12-27 15:37:47.505924,-45
2021-12-27 15:37:47.505934,-111
2021-12-27 15:37:47.505944,-125
2021-12-27 15:37:47.505953,-157
2021-12-27 15:37:47.505962,-157
2021-12-27 15:37:47.505972,-157
2021-12-27 15:37:47.505982,-184
2021-12-27 15:37:47.505991,-191
2021-12-27 15:37:47.506001,-186
2021-12-27 15:37:47.506010,-143
2021-12-27 15:37:47.746973,-111
2021-12-27 15:37:47.746989,-129
2021-12-27 15:37:47.746996,-118
2021-12-27 15:37:47.747003,-118
2021-12-27 15:37:47.747009,-100
2021-12-27 15:37:47.747015,-47
2021-12-27 15:37:47.747022,-38
2021-12-27 15:37:47.747028,-45
2021-12-27 15:37:47.747034,-79
2021-12-27 15:37:47.747040,-102
2021-12-27 15:37:47.747047,-59
2021-12-27 15:37:47.747053,-38
2021-12-27 15:37:47.747059,-25
2021-12-27 15:37:47.747065,-11
2021-12-27 15:37:47.747071,-43
2021-12-27 15:37:47.747078,-50
2021-12-27 15:37:47.747084,-38
2021-12-27 15:37:47.747090,-25
2021-12-27 15:37:47.747096,-9
2021-12-27 15:37:47.747103,-13
2021-12-27 15:37:47.747109,-27
2021-12-27 15:37:47.747115,-72
2021-12-27 15:37:47.747121,-63
2021-12-27 15:37:47.747127,-2
2021-12-27 15:37:47.747134,-9
2021-12-27 15:37:47.747140,-6
2021-12-27 15:37:47.747146,-2
2021-12-27 15:37:47.747152,-45
2021-12-27 15:37:47.747159,-52
2021-12-27 15:37:47.747165,-61
2021-12-27 15:37:47.896261,-66
2021-12-27 15:37:47.896283,-31
2021-12-27 15:37:47.896291,-43
2021-12-27 15:37:47.896297,-107
2021-12-27 15:37:47.896303,-154
2021-12-27 15:37:47.896309,-129
2021-12-27 15:37:47.896316,-88
2021-12-27 15:37:47.896322,-100
2021-12-27 15:37:47.896328,-91
2021-12-27 15:37:47.896334,-95
2021-12-27 15:37:47.896341,-127
2021-12-27 15:37:47.896347,-100
2021-12-27 15:37:47.896353,-95
2021-12-27 15:37:47.896359,-113
2021-12-27 15:37:47.896365,-134
2021-12-27 15:37:47.896372,-216
2021-12-27 15:37:47.896378,-264
2021-12-27 15:37:47.896384,-225
2021-12-27 15:37:47.896391,-184
2021-12-27 15:37:47.896397,-161
2021-12-27 15:37:47.896403,-159
2021-12-27 15:37:47.896409,-164
2021-12-27 15:37:47.896416,-168
2021-12-27 15:37:47.896422,-143
2021-12-27 15:37:47.896428,-75
2021-12-27 15:37:47.896434,31
2021-12-27 15:37:47.896441,275
2021-12-27 15:37:47.896447,473
2021-12-27 15:37:47.896453,252
2021-12-27 15:37:47.896459,-287
2021-12-27 15:37:48.139153,-663
2021-12-27 15:37:48.139175,-501
2021-12-27 15:37:48.139183,-161
2021-12-27 15:37:48.139189,-113
2021-12-27 15:37:48.139196,-116
2021-12-27 15:37:48.139202,-45
2021-12-27 15:37:48.139208,-50
2021-12-27 15:37:48.139214,-25
2021-12-27 15:37:48.139220,13
2021-12-27 15:37:48.139226,13
2021-12-27 15:37:48.139232,6
2021-12-27 15:37:48.139238,-6
2021-12-27 15:37:48.139245,18
2021-12-27 15:37:48.139251,56
2021-12-27 15:37:48.139257,72
2021-12-27 15:37:48.139263,91
2021-12-27 15:37:48.139269,95
2021-12-27 15:37:48.139275,113
2021-12-27 15:37:48.139281,134
2021-12-27 15:37:48.139287,145
2021-12-27 15:37:48.139293,200
2021-12-27 15:37:48.139299,232
2021-12-27 15:37:48.139312,252
2021-12-27 15:37:48.139319,287
2021-12-27 15:37:48.139325,271
2021-12-27 15:37:48.139331,275
2021-12-27 15:37:48.139337,284
2021-12-27 15:37:48.139343,239
2021-12-27 15:37:48.139350,198
2021-12-27 15:37:48.139356,132
2021-12-27 15:37:48.382771,50
2021-12-27 15:37:48.382800,-18
2021-12-27 15:37:48.382812,-100
2021-12-27 15:37:48.382822,-157
2021-12-27 15:37:48.382831,-180
2021-12-27 15:37:48.382841,-157
2021-12-27 15:37:48.382851,-161
2021-12-27 15:37:48.382860,-209
2021-12-27 15:37:48.382870,-182
2021-12-27 15:37:48.382879,-143
2021-12-27 15:37:48.382889,-136
2021-12-27 15:37:48.382899,-95
2021-12-27 15:37:48.382908,-97
2021-12-27 15:37:48.382918,-127
2021-12-27 15:37:48.382928,-116
2021-12-27 15:37:48.382937,-97
2021-12-27 15:37:48.382947,-72
2021-12-27 15:37:48.382956,-56
2021-12-27 15:37:48.382966,-34
2021-12-27 15:37:48.382975,-25
2021-12-27 15:37:48.382985,-77
2021-12-27 15:37:48.382995,-120
2021-12-27 15:37:48.383004,-125
2021-12-27 15:37:48.383014,-93
2021-12-27 15:37:48.383024,-52
2021-12-27 15:37:48.383033,-72
2021-12-27 15:37:48.383043,-82
2021-12-27 15:37:48.383052,-59
2021-12-27 15:37:48.383062,-52
2021-12-27 15:37:48.383071,-27
2021-12-27 15:37:48.577775,-20
2021-12-27 15:37:48.577805,-25
2021-12-27 15:37:48.577816,-43
2021-12-27 15:37:48.577826,-95
2021-12-27 15:37:48.577836,-104
2021-12-27 15:37:48.577846,-109
2021-12-27 15:37:48.577855,-116
2021-12-27 15:37:48.577865,-88
2021-12-27 15:37:48.577875,-125
2021-12-27 15:37:48.577884,-177
2021-12-27 15:37:48.577894,-161
2021-12-27 15:37:48.577903,-152
2021-12-27 15:37:48.577913,-161
2021-12-27 15:37:48.577923,-164
2021-12-27 15:37:48.577933,-173
2021-12-27 15:37:48.577942,-209
2021-12-27 15:37:48.577952,-232
2021-12-27 15:37:48.577962,-182
2021-12-27 15:37:48.577971,-143
2021-12-27 15:37:48.577981,-138
2021-12-27 15:37:48.577990,-118
2021-12-27 15:37:48.578000,-120
2021-12-27 15:37:48.578010,-102
2021-12-27 15:37:48.578019,-72
2021-12-27 15:37:48.578029,-86
2021-12-27 15:37:48.578039,-72
2021-12-27 15:37:48.578048,-66
2021-12-27 15:37:48.578058,-86
2021-12-27 15:37:48.578068,-75
2021-12-27 15:37:48.578077,-54
2021-12-27 15:37:48.822007,-36
2021-12-27 15:37:48.822030,-34
2021-12-27 15:37:48.822038,-45
2021-12-27 15:37:48.822044,-54
2021-12-27 15:37:48.822050,-77
2021-12-27 15:37:48.822056,-18
2021-12-27 15:37:48.822062,164
2021-12-27 15:37:48.822069,403
2021-12-27 15:37:48.822075,496
2021-12-27 15:37:48.822081,138
2021-12-27 15:37:48.822087,-492
2021-12-27 15:37:48.822094,-681
2021-12-27 15:37:48.822100,-312
2021-12-27 15:37:48.822106,-54
2021-12-27 15:37:48.822112,-91
2021-12-27 15:37:48.822119,-38
2021-12-27 15:37:48.822125,63
2021-12-27 15:37:48.822131,20
2021-12-27 15:37:48.822137,18
2021-12-27 15:37:48.822143,91
2021-12-27 15:37:48.822149,95
2021-12-27 15:37:48.822156,93
2021-12-27 15:37:48.822162,100
2021-12-27 15:37:48.822168,102
2021-12-27 15:37:48.822174,127
2021-12-27 15:37:48.822180,150
2021-12-27 15:37:48.822187,168
2021-12-27 15:37:48.822193,125
2021-12-27 15:37:48.822199,95
2021-12-27 15:37:48.822205,164
2021-12-27 15:37:49.065406,202
2021-12-27 15:37:49.065506,232
2021-12-27 15:37:49.065525,280
2021-12-27 15:37:49.065536,280
2021-12-27 15:37:49.065543,287
2021-12-27 15:37:49.065556,271
2021-12-27 15:37:49.065562,234
2021-12-27 15:37:49.065569,234
2021-12-27 15:37:49.065575,191
2021-12-27 15:37:49.065581,102
2021-12-27 15:37:49.065587,31
2021-12-27 15:37:49.065594,-45
2021-12-27 15:37:49.065600,-123
2021-12-27 15:37:49.065606,-175
2021-12-27 15:37:49.065612,-175
2021-12-27 15:37:49.065618,-186
2021-12-27 15:37:49.065625,-209
2021-12-27 15:37:49.065631,-177
2021-12-27 15:37:49.065637,-168
2021-12-27 15:37:49.065643,-168
2021-12-27 15:37:49.065649,-129
2021-12-27 15:37:49.065655,-120
2021-12-27 15:37:49.065662,-104
2021-12-27 15:37:49.065668,-82
2021-12-27 15:37:49.065674,-84
2021-12-27 15:37:49.065680,-59
2021-12-27 15:37:49.065686,-47
2021-12-27 15:37:49.065692,-54
2021-12-27 15:37:49.065699,-36
2021-12-27 15:37:49.065705,-20
2021-12-27 15:37:49.309463,-9
2021-12-27 15:37:49.309493,-31
2021-12-27 15:37:49.309504,-47
2021-12-27 15:37:49.309514,-27
2021-12-27 15:37:49.309523,-22
2021-12-27 15:37:49.309533,-4
2021-12-27 15:37:49.309542,-6
2021-12-27 15:37:49.309552,-61
2021-12-27 15:37:49.309561,-91
2021-12-27 15:37:49.309571,-116
2021-12-27 15:37:49.309580,-118
2021-12-27 15:37:49.309590,-116
2021-12-27 15:37:49.309599,-148
2021-12-27 15:37:49.309608,-152
2021-12-27 15:37:49.309618,-175
2021-12-27 15:37:49.309627,-195
2021-12-27 15:37:49.309637,-168
2021-12-27 15:37:49.309646,-180
2021-12-27 15:37:49.309655,-193
2021-12-27 15:37:49.309665,-182
2021-12-27 15:37:49.309674,-198
2021-12-27 15:37:49.309684,-189
2021-12-27 15:37:49.309693,-173
2021-12-27 15:37:49.309703,-159
2021-12-27 15:37:49.309712,-145
2021-12-27 15:37:49.309722,-152
2021-12-27 15:37:49.309731,-154
2021-12-27 15:37:49.309741,-159
2021-12-27 15:37:49.309750,-138
2021-12-27 15:37:49.309760,-88
2021-12-27 15:37:49.504796,-70
2021-12-27 15:37:49.504826,-56
2021-12-27 15:37:49.504837,-100
2021-12-27 15:37:49.504847,-177
2021-12-27 15:37:49.504856,-150
2021-12-27 15:37:49.504866,-104
2021-12-27 15:37:49.504876,-102
2021-12-27 15:37:49.504885,-88
2021-12-27 15:37:49.504894,-104
2021-12-27 15:37:49.504904,-136
2021-12-27 15:37:49.504913,-145
2021-12-27 15:37:49.504923,-107
2021-12-27 15:37:49.504932,-77
2021-12-27 15:37:49.504941,-104
2021-12-27 15:37:49.504951,-9
2021-12-27 15:37:49.504960,236
2021-12-27 15:37:49.504970,389
2021-12-27 15:37:49.504979,227
2021-12-27 15:37:49.504989,-282
2021-12-27 15:37:49.504998,-644
2021-12-27 15:37:49.505007,-448
2021-12-27 15:37:49.505017,-145
2021-12-27 15:37:49.505026,-93
2021-12-27 15:37:49.505036,-54
2021-12-27 15:37:49.505045,38
2021-12-27 15:37:49.505054,68
2021-12-27 15:37:49.505064,66
2021-12-27 15:37:49.505073,79
2021-12-27 15:37:49.505082,72
2021-12-27 15:37:49.505092,82
2021-12-27 15:37:49.843761,132
2021-12-27 15:37:49.843777,136
2021-12-27 15:37:49.843785,141
2021-12-27 15:37:49.843791,154
2021-12-27 15:37:49.843798,123
2021-12-27 15:37:49.843804,129
2021-12-27 15:37:49.843810,164
2021-12-27 15:37:49.843816,186
2021-12-27 15:37:49.843823,234
2021-12-27 15:37:49.843829,257
2021-12-27 15:37:49.843835,241
2021-12-27 15:37:49.843841,223
2021-12-27 15:37:49.843848,246
2021-12-27 15:37:49.843854,291
2021-12-27 15:37:49.843860,268
2021-12-27 15:37:49.843867,221
2021-12-27 15:37:49.843873,193
2021-12-27 15:37:49.843879,141
2021-12-27 15:37:49.843885,91
2021-12-27 15:37:49.843892,31
2021-12-27 15:37:49.843898,-31
2021-12-27 15:37:49.843904,-63
2021-12-27 15:37:49.843910,-120
2021-12-27 15:37:49.843917,-150
2021-12-27 15:37:49.843923,-113
2021-12-27 15:37:49.843929,-77
2021-12-27 15:37:49.843936,-72
2021-12-27 15:37:49.843942,-100
2021-12-27 15:37:49.843948,-79
2021-12-27 15:37:49.843954,-36
2021-12-27 15:37:49.992253,-56
2021-12-27 15:37:49.992288,-45
2021-12-27 15:37:49.992299,-15
2021-12-27 15:37:49.992309,-25
2021-12-27 15:37:49.992319,-13
2021-12-27 15:37:49.992328,11
2021-12-27 15:37:49.992337,18
2021-12-27 15:37:49.992347,-9
2021-12-27 15:37:49.992356,-54
2021-12-27 15:37:49.992366,-56
2021-12-27 15:37:49.992375,-68
2021-12-27 15:37:49.992385,-95
2021-12-27 15:37:49.992394,-111
2021-12-27 15:37:49.992403,-116
2021-12-27 15:37:49.992413,-79
2021-12-27 15:37:49.992422,-70
2021-12-27 15:37:49.992432,-111
2021-12-27 15:37:49.992441,-143
2021-12-27 15:37:49.992450,-186
2021-12-27 15:37:49.992460,-214
2021-12-27 15:37:49.992469,-214
2021-12-27 15:37:49.992479,-211
2021-12-27 15:37:49.992488,-195
2021-12-27 15:37:49.992497,-182
2021-12-27 15:37:49.992507,-159
2021-12-27 15:37:49.992516,-150
2021-12-27 15:37:49.992525,-166
2021-12-27 15:37:49.992535,-145
2021-12-27 15:37:49.992544,-123
2021-12-27 15:37:49.992554,-107
2021-12-27 15:37:50.282919,-75
2021-12-27 15:37:50.282941,-86
2021-12-27 15:37:50.282949,-111
2021-12-27 15:37:50.282955,-116
2021-12-27 15:37:50.282961,-109
2021-12-27 15:37:50.282967,-77
2021-12-27 15:37:50.282973,-59
2021-12-27 15:37:50.282979,-70
2021-12-27 15:37:50.282986,-107
2021-12-27 15:37:50.282992,-104
2021-12-27 15:37:50.282998,-47
2021-12-27 15:37:50.283004,-34
2021-12-27 15:37:50.283010,-41
2021-12-27 15:37:50.283016,-27
2021-12-27 15:37:50.283022,-68
2021-12-27 15:37:50.283029,-100
2021-12-27 15:37:50.283035,-72
2021-12-27 15:37:50.283041,-54
2021-12-27 15:37:50.283047,-43
2021-12-27 15:37:50.283053,-66
2021-12-27 15:37:50.283059,-93
2021-12-27 15:37:50.283065,-91
2021-12-27 15:37:50.283072,-72
2021-12-27 15:37:50.283078,56
2021-12-27 15:37:50.283084,348
2021-12-27 15:37:50.283090,558
2021-12-27 15:37:50.283096,344
2021-12-27 15:37:50.283102,-248
2021-12-27 15:37:50.283109,-597
2021-12-27 15:37:50.283115,-348
2021-12-27 15:37:50.431270,-25
2021-12-27 15:37:50.431291,13
2021-12-27 15:37:50.431299,22
2021-12-27 15:37:50.431305,97
2021-12-27 15:37:50.431312,100
2021-12-27 15:37:50.431318,66
2021-12-27 15:37:50.431324,107
2021-12-27 15:37:50.431330,166
2021-12-27 15:37:50.431336,170
2021-12-27 15:37:50.431343,118
2021-12-27 15:37:50.431349,79
2021-12-27 15:37:50.431355,141
2021-12-27 15:37:50.431361,202
2021-12-27 15:37:50.431367,180
2021-12-27 15:37:50.431374,141
2021-12-27 15:37:50.431380,109
2021-12-27 15:37:50.431386,111
2021-12-27 15:37:50.431392,164
2021-12-27 15:37:50.431398,200
2021-12-27 15:37:50.431404,234
2021-12-27 15:37:50.431411,257
2021-12-27 15:37:50.431417,227
2021-12-27 15:37:50.431423,205
2021-12-27 15:37:50.431429,214
2021-12-27 15:37:50.431435,236
2021-12-27 15:37:50.431442,234
2021-12-27 15:37:50.431448,189
2021-12-27 15:37:50.431454,127
2021-12-27 15:37:50.431460,38
2021-12-27 15:37:50.431466,-36
2021-12-27 15:37:50.674010,-56
2021-12-27 15:37:50.674040,-82
2021-12-27 15:37:50.674051,-104
2021-12-27 15:37:50.674061,-127
2021-12-27 15:37:50.674071,-161
2021-12-27 15:37:50.674080,-168
2021-12-27 15:37:50.674090,-148
2021-12-27 15:37:50.674099,-113
2021-12-27 15:37:50.674109,-91
2021-12-27 15:37:50.674118,-86
2021-12-27 15:37:50.674128,-77
2021-12-27 15:37:50.674137,-95
2021-12-27 15:37:50.674146,-95
2021-12-27 15:37:50.674156,-50
2021-12-27 15:37:50.674165,-36
2021-12-27 15:37:50.674175,-36
2021-12-27 15:37:50.674184,-29
2021-12-27 15:37:50.674194,-29
2021-12-27 15:37:50.674203,-36
2021-12-27 15:37:50.674213,-70
2021-12-27 15:37:50.674222,-86
2021-12-27 15:37:50.674231,-45
2021-12-27 15:37:50.674241,-25
2021-12-27 15:37:50.674250,-63
2021-12-27 15:37:50.674259,-111
2021-12-27 15:37:50.674269,-104
2021-12-27 15:37:50.674278,-91
2021-12-27 15:37:50.674288,-132
2021-12-27 15:37:50.674297,-189
2021-12-27 15:37:50.674307,-236
2021-12-27 15:37:50.918512,-189
2021-12-27 15:37:50.918533,-75
2021-12-27 15:37:50.918540,-88
2021-12-27 15:37:50.918547,-127
2021-12-27 15:37:50.918553,-86
2021-12-27 15:37:50.918559,-77
2021-12-27 15:37:50.918565,-111
2021-12-27 15:37:50.918572,-136
2021-12-27 15:37:50.918578,-118
2021-12-27 15:37:50.918584,-97
2021-12-27 15:37:50.918590,-109
2021-12-27 15:37:50.918600,-100
2021-12-27 15:37:50.918606,-109
2021-12-27 15:37:50.918613,-145
2021-12-27 15:37:50.918619,-123
2021-12-27 15:37:50.918625,-88
2021-12-27 15:37:50.918631,-68
2021-12-27 15:37:50.918637,-34
2021-12-27 15:37:50.918644,-20
2021-12-27 15:37:50.918650,-66
2021-12-27 15:37:50.918656,-191
2021-12-27 15:37:50.918662,-257
2021-12-27 15:37:50.918669,-184
2021-12-27 15:37:50.918675,-118
2021-12-27 15:37:50.918681,-104
2021-12-27 15:37:50.918687,-93
2021-12-27 15:37:50.918693,-93
2021-12-27 15:37:50.918700,-86
2021-12-27 15:37:50.918706,-38
2021-12-27 15:37:50.918712,18
2021-12-27 15:37:51.113216,31
2021-12-27 15:37:51.113235,77
2021-12-27 15:37:51.113243,309
2021-12-27 15:37:51.113249,578
2021-12-27 15:37:51.113256,489
2021-12-27 15:37:51.113262,-27
2021-12-27 15:37:51.113269,-494
2021-12-27 15:37:51.113275,-410
2021-12-27 15:37:51.113281,-88
2021-12-27 15:37:51.113288,-36
2021-12-27 15:37:51.113294,-22
2021-12-27 15:37:51.113300,93
2021-12-27 15:37:51.113306,125
2021-12-27 15:37:51.113313,95
2021-12-27 15:37:51.113319,82
2021-12-27 15:37:51.113325,68
2021-12-27 15:37:51.113332,68
2021-12-27 15:37:51.113338,102
2021-12-27 15:37:51.113344,132
2021-12-27 15:37:51.113351,143
2021-12-27 15:37:51.113357,150
2021-12-27 15:37:51.113363,141
2021-12-27 15:37:51.113369,145
2021-12-27 15:37:51.113376,191
2021-12-27 15:37:51.113382,232
2021-12-27 15:37:51.113388,259
2021-12-27 15:37:51.113395,264
2021-12-27 15:37:51.113401,243
2021-12-27 15:37:51.113407,271
2021-12-27 15:37:51.113414,321
2021-12-27 15:37:51.356973,337
2021-12-27 15:37:51.357002,339
2021-12-27 15:37:51.357014,330
2021-12-27 15:37:51.357023,268
2021-12-27 15:37:51.357033,182
2021-12-27 15:37:51.357043,134
2021-12-27 15:37:51.357052,97
2021-12-27 15:37:51.357062,18
2021-12-27 15:37:51.357072,-41
2021-12-27 15:37:51.357081,-91
2021-12-27 15:37:51.357091,-157
2021-12-27 15:37:51.357101,-161
2021-12-27 15:37:51.357110,-127
2021-12-27 15:37:51.357120,-118
2021-12-27 15:37:51.357130,-107
2021-12-27 15:37:51.357140,-104
2021-12-27 15:37:51.357149,-104
2021-12-27 15:37:51.357159,-88
2021-12-27 15:37:51.357168,-63
2021-12-27 15:37:51.357178,-34
2021-12-27 15:37:51.357188,-27
2021-12-27 15:37:51.357197,-29
2021-12-27 15:37:51.357207,-27
2021-12-27 15:37:51.357217,-31
2021-12-27 15:37:51.357226,-20
2021-12-27 15:37:51.357236,-47
2021-12-27 15:37:51.357245,-95
2021-12-27 15:37:51.357255,-84
2021-12-27 15:37:51.357264,-82
2021-12-27 15:37:51.357274,-127
2021-12-27 15:37:51.600372,-136
2021-12-27 15:37:51.600398,-102
2021-12-27 15:37:51.600406,-86
2021-12-27 15:37:51.600413,-102
2021-12-27 15:37:51.600419,-109
2021-12-27 15:37:51.600426,-141
2021-12-27 15:37:51.600432,-177
2021-12-27 15:37:51.600438,-161
2021-12-27 15:37:51.600444,-161
2021-12-27 15:37:51.600450,-182
2021-12-27 15:37:51.600457,-161
2021-12-27 15:37:51.600463,-175
2021-12-27 15:37:51.600469,-202
2021-12-27 15:37:51.600475,-175
2021-12-27 15:37:51.600481,-145
2021-12-27 15:37:51.600488,-143
2021-12-27 15:37:51.600494,-136
2021-12-27 15:37:51.600501,-120
2021-12-27 15:37:51.600507,-123
2021-12-27 15:37:51.600513,-132
2021-12-27 15:37:51.600519,-116
2021-12-27 15:37:51.600525,-116
2021-12-27 15:37:51.600532,-116
2021-12-27 15:37:51.600538,-82
2021-12-27 15:37:51.600544,-66
2021-12-27 15:37:51.600550,-56
2021-12-27 15:37:51.600556,-27
2021-12-27 15:37:51.600563,-15
2021-12-27 15:37:51.600569,-22
2021-12-27 15:37:51.600575,-31
2021-12-27 15:37:51.940049,-29
2021-12-27 15:37:51.940066,-36
2021-12-27 15:37:51.940073,-54
2021-12-27 15:37:51.940080,-38
2021-12-27 15:37:51.940086,-22
2021-12-27 15:37:51.940092,-18
2021-12-27 15:37:51.940099,-20
2021-12-27 15:37:51.940105,-56
2021-12-27 15:37:51.940111,-56
2021-12-27 15:37:51.940117,0
2021-12-27 15:37:51.940124,154
2021-12-27 15:37:51.940130,458
2021-12-27 15:37:51.940136,617
2021-12-27 15:37:51.940142,289
2021-12-27 15:37:51.940149,-357
2021-12-27 15:37:51.940155,-633
2021-12-27 15:37:51.940161,-287
2021-12-27 15:37:51.940168,0
2021-12-27 15:37:51.940174,-27
2021-12-27 15:37:51.940180,20
2021-12-27 15:37:51.940186,102
2021-12-27 15:37:51.940193,86
2021-12-27 15:37:51.940199,79
2021-12-27 15:37:51.940205,116
2021-12-27 15:37:51.940211,141
2021-12-27 15:37:51.940217,138
2021-12-27 15:37:51.940224,141
2021-12-27 15:37:51.940230,150
2021-12-27 15:37:51.940236,161
2021-12-27 15:37:51.940242,200
2021-12-27 15:37:52.039582,207
2021-12-27 15:37:52.039614,164
2021-12-27 15:37:52.039625,166
2021-12-27 15:37:52.039635,175
2021-12-27 15:37:52.039645,180
2021-12-27 15:37:52.039654,225
2021-12-27 15:37:52.039664,273
2021-12-27 15:37:52.039674,296
2021-12-27 15:37:52.039689,296
2021-12-27 15:37:52.039699,296
2021-12-27 15:37:52.039708,300
2021-12-27 15:37:52.039718,300
2021-12-27 15:37:52.039727,289
2021-12-27 15:37:52.039737,236
2021-12-27 15:37:52.039746,136
2021-12-27 15:37:52.039756,29
2021-12-27 15:37:52.039765,-45
2021-12-27 15:37:52.039775,-66
2021-12-27 15:37:52.039784,-79
2021-12-27 15:37:52.039794,-95
2021-12-27 15:37:52.039804,-100
2021-12-27 15:37:52.039813,-152
2021-12-27 15:37:52.039823,-177
2021-12-27 15:37:52.039832,-127
2021-12-27 15:37:52.039842,-97
2021-12-27 15:37:52.039852,-88
2021-12-27 15:37:52.039861,-75
2021-12-27 15:37:52.039871,-77
2021-12-27 15:37:52.039881,-70
2021-12-27 15:37:52.039890,-50
2021-12-27 15:37:52.332017,-25
2021-12-27 15:37:52.332048,-9
2021-12-27 15:37:52.332059,-11
2021-12-27 15:37:52.332069,-45
2021-12-27 15:37:52.332078,-154
2021-12-27 15:37:52.332088,-234
2021-12-27 15:37:52.332097,-200
2021-12-27 15:37:52.332107,-145
2021-12-27 15:37:52.332117,-79
2021-12-27 15:37:52.332126,-61
2021-12-27 15:37:52.332136,-143
2021-12-27 15:37:52.332145,-211
2021-12-27 15:37:52.332154,-195
2021-12-27 15:37:52.332164,-95
2021-12-27 15:37:52.332173,-38
2021-12-27 15:37:52.332183,-86
2021-12-27 15:37:52.332192,-125
2021-12-27 15:37:52.332202,-127
2021-12-27 15:37:52.332211,-141
2021-12-27 15:37:52.332221,-161
2021-12-27 15:37:52.332230,-170
2021-12-27 15:37:52.332240,-159
2021-12-27 15:37:52.332249,-152
2021-12-27 15:37:52.332259,-148
2021-12-27 15:37:52.332268,-129
2021-12-27 15:37:52.332278,-109
2021-12-27 15:37:52.332287,-86
2021-12-27 15:37:52.332297,-72
2021-12-27 15:37:52.332306,-79
2021-12-27 15:37:52.332316,-93
2021-12-27 15:37:52.526706,-95
2021-12-27 15:37:52.526730,-72
2021-12-27 15:37:52.526738,-52
2021-12-27 15:37:52.526746,-68
2021-12-27 15:37:52.526754,-61
2021-12-27 15:37:52.526761,-54
2021-12-27 15:37:52.526768,-109
2021-12-27 15:37:52.526775,-161
2021-12-27 15:37:52.526783,-150
2021-12-27 15:37:52.526790,-104
2021-12-27 15:37:52.526797,-43
2021-12-27 15:37:52.526804,123
2021-12-27 15:37:52.526811,369
2021-12-27 15:37:52.526818,385
2021-12-27 15:37:52.526825,-61
2021-12-27 15:37:52.526832,-622
2021-12-27 15:37:52.526839,-615
2021-12-27 15:37:52.526846,-186
2021-12-27 15:37:52.526853,-95
2021-12-27 15:37:52.526860,-186
2021-12-27 15:37:52.526867,-45
2021-12-27 15:37:52.526874,52
2021-12-27 15:37:52.526881,11
2021-12-27 15:37:52.526888,27
2021-12-27 15:37:52.526895,59
2021-12-27 15:37:52.526902,50
2021-12-27 15:37:52.526909,54
2021-12-27 15:37:52.526916,82
2021-12-27 15:37:52.526923,102
2021-12-27 15:37:52.526930,113
2021-12-27 15:37:52.770436,143
2021-12-27 15:37:52.770466,159
2021-12-27 15:37:52.770478,159
2021-12-27 15:37:52.770488,186
2021-12-27 15:37:52.770497,225
2021-12-27 15:37:52.770507,252
2021-12-27 15:37:52.770517,259
2021-12-27 15:37:52.770526,241
2021-12-27 15:37:52.770536,230
2021-12-27 15:37:52.770546,209
2021-12-27 15:37:52.770555,216
2021-12-27 15:37:52.770565,250
2021-12-27 15:37:52.770575,209
2021-12-27 15:37:52.770584,111
2021-12-27 15:37:52.770594,18
2021-12-27 15:37:52.770604,-54
2021-12-27 15:37:52.770614,-97
2021-12-27 15:37:52.770623,-141
2021-12-27 15:37:52.770633,-166
2021-12-27 15:37:52.770642,-168
2021-12-27 15:37:52.770652,-186
2021-12-27 15:37:52.770661,-200
2021-12-27 15:37:52.770671,-184
2021-12-27 15:37:52.770681,-152
2021-12-27 15:37:52.770690,-120
2021-12-27 15:37:52.770700,-118
2021-12-27 15:37:52.770709,-120
2021-12-27 15:37:52.770719,-116
2021-12-27 15:37:52.770728,-100
2021-12-27 15:37:52.770738,-68
2021-12-27 15:37:52.965759,-52
2021-12-27 15:37:52.965789,-43
2021-12-27 15:37:52.965801,-41
2021-12-27 15:37:52.965811,-56
2021-12-27 15:37:52.965821,-41
2021-12-27 15:37:52.965831,-15
2021-12-27 15:37:52.965841,-13
2021-12-27 15:37:52.965850,0
2021-12-27 15:37:52.965860,-4
2021-12-27 15:37:52.965870,-52
2021-12-27 15:37:52.965879,-77
2021-12-27 15:37:52.965889,-82
2021-12-27 15:37:52.965902,-109
2021-12-27 15:37:52.965912,-116
2021-12-27 15:37:52.965921,-88
2021-12-27 15:37:52.965930,-107
2021-12-27 15:37:52.965940,-145
2021-12-27 15:37:52.965949,-132
2021-12-27 15:37:52.965959,-125
2021-12-27 15:37:52.965968,-132
2021-12-27 15:37:52.965977,-120
2021-12-27 15:37:52.965987,-134
2021-12-27 15:37:52.965996,-141
2021-12-27 15:37:52.966006,-120
2021-12-27 15:37:52.966015,-123
2021-12-27 15:37:52.966024,-123
2021-12-27 15:37:52.966034,-104
2021-12-27 15:37:52.966043,-123
2021-12-27 15:37:52.966053,-164
2021-12-27 15:37:52.966062,-164
2021-12-27 15:37:53.209236,-125
2021-12-27 15:37:53.209257,-118
2021-12-27 15:37:53.209265,-127
2021-12-27 15:37:53.209271,-113
2021-12-27 15:37:53.209277,-143
2021-12-27 15:37:53.209283,-182
2021-12-27 15:37:53.209290,-159
2021-12-27 15:37:53.209296,-113
2021-12-27 15:37:53.209302,-95
2021-12-27 15:37:53.209308,-86
2021-12-27 15:37:53.209314,-18
2021-12-27 15:37:53.209321,182
2021-12-27 15:37:53.209327,394
2021-12-27 15:37:53.209333,291
2021-12-27 15:37:53.209339,-239
2021-12-27 15:37:53.209346,-701
2021-12-27 15:37:53.209352,-571
2021-12-27 15:37:53.209358,-221
2021-12-27 15:37:53.209364,-150
2021-12-27 15:37:53.209371,-134
2021-12-27 15:37:53.209377,-13
2021-12-27 15:37:53.209383,13
2021-12-27 15:37:53.209389,-18
2021-12-27 15:37:53.209399,13
2021-12-27 15:37:53.209405,43
2021-12-27 15:37:53.209412,38
2021-12-27 15:37:53.209418,61
2021-12-27 15:37:53.209425,84
2021-12-27 15:37:53.209431,86
2021-12-27 15:37:53.209437,104
2021-12-27 15:37:53.453442,120
2021-12-27 15:37:53.453471,148
2021-12-27 15:37:53.453482,173
2021-12-27 15:37:53.453492,175
2021-12-27 15:37:53.453502,200
2021-12-27 15:37:53.453511,230
2021-12-27 15:37:53.453521,232
2021-12-27 15:37:53.453530,234
2021-12-27 15:37:53.453540,257
2021-12-27 15:37:53.453550,271
2021-12-27 15:37:53.453559,259
2021-12-27 15:37:53.453569,252
2021-12-27 15:37:53.453578,216
2021-12-27 15:37:53.453588,127
2021-12-27 15:37:53.453598,61
2021-12-27 15:37:53.453607,-11
2021-12-27 15:37:53.453617,-129
2021-12-27 15:37:53.453627,-216
2021-12-27 15:37:53.453636,-262
2021-12-27 15:37:53.453646,-273
2021-12-27 15:37:53.453655,-259
2021-12-27 15:37:53.453665,-252
2021-12-27 15:37:53.453674,-221
2021-12-27 15:37:53.453684,-184
2021-12-27 15:37:53.453693,-173
2021-12-27 15:37:53.453703,-166
2021-12-27 15:37:53.453712,-164
2021-12-27 15:37:53.453722,-145
2021-12-27 15:37:53.453731,-113
2021-12-27 15:37:53.453741,-95
2021-12-27 15:37:53.647625,-72
2021-12-27 15:37:53.647644,-66
2021-12-27 15:37:53.647651,-75
2021-12-27 15:37:53.647658,-68
2021-12-27 15:37:53.647664,-56
2021-12-27 15:37:53.647671,-38
2021-12-27 15:37:53.647677,-25
2021-12-27 15:37:53.647683,-36
2021-12-27 15:37:53.647689,-63
2021-12-27 15:37:53.647696,-75
2021-12-27 15:37:53.647702,-47
2021-12-27 15:37:53.647708,-36
2021-12-27 15:37:53.647715,-50
2021-12-27 15:37:53.647721,-36
2021-12-27 15:37:53.647727,-66
2021-12-27 15:37:53.647734,-95
2021-12-27 15:37:53.647740,-66
2021-12-27 15:37:53.647747,-75
2021-12-27 15:37:53.647753,-107
2021-12-27 15:37:53.647759,-93
2021-12-27 15:37:53.647765,-86
2021-12-27 15:37:53.647772,-107
2021-12-27 15:37:53.647778,-84
2021-12-27 15:37:53.647784,-22
2021-12-27 15:37:53.647791,-6
2021-12-27 15:37:53.647797,-15
2021-12-27 15:37:53.647803,-25
2021-12-27 15:37:53.647810,-70
2021-12-27 15:37:53.647816,-84
2021-12-27 15:37:53.647822,-52
2021-12-27 15:37:53.988359,-43
2021-12-27 15:37:53.988390,-22
2021-12-27 15:37:53.988401,-29
2021-12-27 15:37:53.988411,-102
2021-12-27 15:37:53.988421,-132
2021-12-27 15:37:53.988431,-104
2021-12-27 15:37:53.988440,-88
2021-12-27 15:37:53.988450,-25
2021-12-27 15:37:53.988460,186
2021-12-27 15:37:53.988469,375
2021-12-27 15:37:53.988479,239
2021-12-27 15:37:53.988488,-205
2021-12-27 15:37:53.988498,-606
2021-12-27 15:37:53.988508,-558
2021-12-27 15:37:53.988518,-207
2021-12-27 15:37:53.988527,-102
2021-12-27 15:37:53.988537,-136
2021-12-27 15:37:53.988546,-27
2021-12-27 15:37:53.988556,25
2021-12-27 15:37:53.988566,-31
2021-12-27 15:37:53.988575,-41
2021-12-27 15:37:53.988585,-20
2021-12-27 15:37:53.988594,-29
2021-12-27 15:37:53.988604,-66
2021-12-27 15:37:53.988613,-45
2021-12-27 15:37:53.988623,22
2021-12-27 15:37:53.988633,38
2021-12-27 15:37:53.988642,45
2021-12-27 15:37:53.988652,59
2021-12-27 15:37:53.988661,75
2021-12-27 15:37:54.134808,118
2021-12-27 15:37:54.134830,157
2021-12-27 15:37:54.134837,177
2021-12-27 15:37:54.134844,200
2021-12-27 15:37:54.134850,223
2021-12-27 15:37:54.134856,250
2021-12-27 15:37:54.134862,257
2021-12-27 15:37:54.134869,264
2021-12-27 15:37:54.134875,271
2021-12-27 15:37:54.134881,230
2021-12-27 15:37:54.134887,164
2021-12-27 15:37:54.134893,75
2021-12-27 15:37:54.134899,-25
2021-12-27 15:37:54.134905,-75
2021-12-27 15:37:54.134911,-134
2021-12-27 15:37:54.134918,-211
2021-12-27 15:37:54.134924,-239
2021-12-27 15:37:54.134930,-252
2021-12-27 15:37:54.134936,-275
2021-12-27 15:37:54.134942,-257
2021-12-27 15:37:54.134948,-211
2021-12-27 15:37:54.134955,-211
2021-12-27 15:37:54.134961,-227
2021-12-27 15:37:54.134967,-205
2021-12-27 15:37:54.134973,-200
2021-12-27 15:37:54.134979,-198
2021-12-27 15:37:54.134985,-157
2021-12-27 15:37:54.134991,-138
2021-12-27 15:37:54.134998,-132
2021-12-27 15:37:54.135004,-93
2021-12-27 15:37:54.427734,-77
2021-12-27 15:37:54.427763,-82
2021-12-27 15:37:54.427775,-79
2021-12-27 15:37:54.427785,-70
2021-12-27 15:37:54.427794,-52
2021-12-27 15:37:54.427804,-43
2021-12-27 15:37:54.427813,-61
2021-12-27 15:37:54.427823,-82
2021-12-27 15:37:54.427832,-75
2021-12-27 15:37:54.427841,-59
2021-12-27 15:37:54.427851,-54
2021-12-27 15:37:54.427861,-11
2021-12-27 15:37:54.427870,18
2021-12-27 15:37:54.427880,-27
2021-12-27 15:37:54.427890,-47
2021-12-27 15:37:54.427899,-31
2021-12-27 15:37:54.427909,-22
2021-12-27 15:37:54.427918,0
2021-12-27 15:37:54.427928,0
2021-12-27 15:37:54.427937,-13
2021-12-27 15:37:54.427947,-18
2021-12-27 15:37:54.427956,-25
2021-12-27 15:37:54.427966,-15
2021-12-27 15:37:54.427976,-13
2021-12-27 15:37:54.427985,-20
2021-12-27 15:37:54.427995,-9
2021-12-27 15:37:54.428005,-4
2021-12-27 15:37:54.428014,-9
2021-12-27 15:37:54.428024,-38
2021-12-27 15:37:54.428033,-79
2021-12-27 15:37:54.574107,-75
2021-12-27 15:37:54.574137,-59
2021-12-27 15:37:54.574148,-59
2021-12-27 15:37:54.574158,-56
2021-12-27 15:37:54.574168,-54
2021-12-27 15:37:54.574177,-61
2021-12-27 15:37:54.574187,-61
2021-12-27 15:37:54.574197,-34
2021-12-27 15:37:54.574206,-13
2021-12-27 15:37:54.574216,75
2021-12-27 15:37:54.574225,355
2021-12-27 15:37:54.574235,521
2021-12-27 15:37:54.574244,252
2021-12-27 15:37:54.574254,-319
2021-12-27 15:37:54.574264,-713
2021-12-27 15:37:54.574273,-524
2021-12-27 15:37:54.574283,-170
2021-12-27 15:37:54.574292,-143
2021-12-27 15:37:54.574302,-129
2021-12-27 15:37:54.574311,-15
2021-12-27 15:37:54.574321,-18
2021-12-27 15:37:54.574331,-70
2021-12-27 15:37:54.574340,-43
2021-12-27 15:37:54.574350,15
2021-12-27 15:37:54.574359,15
2021-12-27 15:37:54.574369,2
2021-12-27 15:37:54.574379,4
2021-12-27 15:37:54.574388,-9
2021-12-27 15:37:54.574398,2
2021-12-27 15:37:54.574414,47
2021-12-27 15:37:54.818359,75
2021-12-27 15:37:54.818389,107
2021-12-27 15:37:54.818400,132
2021-12-27 15:37:54.818410,127
2021-12-27 15:37:54.818420,127
2021-12-27 15:37:54.818429,159
2021-12-27 15:37:54.818439,214
2021-12-27 15:37:54.818448,232
2021-12-27 15:37:54.818458,234
2021-12-27 15:37:54.818467,225
2021-12-27 15:37:54.818477,168
2021-12-27 15:37:54.818486,127
2021-12-27 15:37:54.818495,107
2021-12-27 15:37:54.818505,36
2021-12-27 15:37:54.818515,-43
2021-12-27 15:37:54.818524,-111
2021-12-27 15:37:54.818534,-168
2021-12-27 15:37:54.818544,-202
2021-12-27 15:37:54.818553,-211
2021-12-27 15:37:54.818563,-184
2021-12-27 15:37:54.818572,-170
2021-12-27 15:37:54.818582,-182
2021-12-27 15:37:54.818592,-164
2021-12-27 15:37:54.818601,-145
2021-12-27 15:37:54.818611,-129
2021-12-27 15:37:54.818621,-107
2021-12-27 15:37:54.818630,-86
2021-12-27 15:37:54.818640,-84
2021-12-27 15:37:54.818650,-125
2021-12-27 15:37:54.818659,-134
2021-12-27 15:37:55.110867,-93
2021-12-27 15:37:55.110897,-75
2021-12-27 15:37:55.110908,-75
2021-12-27 15:37:55.110918,-75
2021-12-27 15:37:55.110928,-100
2021-12-27 15:37:55.110937,-161
2021-12-27 15:37:55.110947,-207
2021-12-27 15:37:55.110956,-159
2021-12-27 15:37:55.110966,-104
2021-12-27 15:37:55.110975,-109
2021-12-27 15:37:55.110985,-102
2021-12-27 15:37:55.110994,-109
2021-12-27 15:37:55.111004,-141
2021-12-27 15:37:55.111013,-127
2021-12-27 15:37:55.111023,-104
2021-12-27 15:37:55.111032,-102
2021-12-27 15:37:55.111042,-97
2021-12-27 15:37:55.111051,-86
2021-12-27 15:37:55.111060,-82
2021-12-27 15:37:55.111070,-77
2021-12-27 15:37:55.111079,-59
2021-12-27 15:37:55.111089,-59
2021-12-27 15:37:55.111098,-75
2021-12-27 15:37:55.111108,-61
2021-12-27 15:37:55.111117,-70
2021-12-27 15:37:55.111127,-79
2021-12-27 15:37:55.111136,-50
2021-12-27 15:37:55.111145,-45
2021-12-27 15:37:55.111155,-38
2021-12-27 15:37:55.111164,-31
2021-12-27 15:37:55.305855,-66
2021-12-27 15:37:55.305885,-88
2021-12-27 15:37:55.305896,-86
2021-12-27 15:37:55.305906,-86
2021-12-27 15:37:55.305916,-77
2021-12-27 15:37:55.305926,-56
2021-12-27 15:37:55.305935,-50
2021-12-27 15:37:55.305945,-75
2021-12-27 15:37:55.305955,-82
2021-12-27 15:37:55.305964,-61
2021-12-27 15:37:55.305974,-59
2021-12-27 15:37:55.305983,-43
2021-12-27 15:37:55.305993,4
2021-12-27 15:37:55.306003,109
2021-12-27 15:37:55.306012,316
2021-12-27 15:37:55.306022,419
2021-12-27 15:37:55.306032,154
2021-12-27 15:37:55.306041,-364
2021-12-27 15:37:55.306051,-612
2021-12-27 15:37:55.306060,-346
2021-12-27 15:37:55.306070,-129
2021-12-27 15:37:55.306080,-186
2021-12-27 15:37:55.306089,-148
2021-12-27 15:37:55.306099,-63
2021-12-27 15:37:55.306109,-68
2021-12-27 15:37:55.306118,-61
2021-12-27 15:37:55.306128,-47
2021-12-27 15:37:55.306137,-54
2021-12-27 15:37:55.306147,-52
2021-12-27 15:37:55.306157,-20
2021-12-27 15:37:55.549560,22
2021-12-27 15:37:55.549588,20
2021-12-27 15:37:55.549600,-22
2021-12-27 15:37:55.549610,-27
2021-12-27 15:37:55.549620,25
2021-12-27 15:37:55.549629,63
2021-12-27 15:37:55.549639,75
2021-12-27 15:37:55.549648,127
2021-12-27 15:37:55.549658,173
2021-12-27 15:37:55.549667,134
2021-12-27 15:37:55.549677,91
2021-12-27 15:37:55.549687,104
2021-12-27 15:37:55.549696,152
2021-12-27 15:37:55.549706,177
2021-12-27 15:37:55.549716,150
2021-12-27 15:37:55.549725,86
2021-12-27 15:37:55.549735,18
2021-12-27 15:37:55.549744,-15
2021-12-27 15:37:55.549754,-47
2021-12-27 15:37:55.549764,-104
2021-12-27 15:37:55.549773,-141
2021-12-27 15:37:55.549783,-164
2021-12-27 15:37:55.549793,-170
2021-12-27 15:37:55.549802,-141
2021-12-27 15:37:55.549812,-127
2021-12-27 15:37:55.549822,-113
2021-12-27 15:37:55.549831,-91
2021-12-27 15:37:55.549841,-104
2021-12-27 15:37:55.549851,-102
2021-12-27 15:37:55.549861,-75
2021-12-27 15:37:55.841139,-50
2021-12-27 15:37:55.841166,-27
2021-12-27 15:37:55.841177,-22
2021-12-27 15:37:55.841187,-38
2021-12-27 15:37:55.841197,-63
2021-12-27 15:37:55.841206,-54
2021-12-27 15:37:55.841216,-15
2021-12-27 15:37:55.841225,-9
2021-12-27 15:37:55.841235,-2
2021-12-27 15:37:55.841244,2
2021-12-27 15:37:55.841254,-34
2021-12-27 15:37:55.841263,-56
2021-12-27 15:37:55.841273,-43
2021-12-27 15:37:55.841282,-27
2021-12-27 15:37:55.841292,-13
2021-12-27 15:37:55.841301,-13
2021-12-27 15:37:55.841311,-27
2021-12-27 15:37:55.841320,-54
2021-12-27 15:37:55.841330,-61
2021-12-27 15:37:55.841339,-20
2021-12-27 15:37:55.841349,-29
2021-12-27 15:37:55.841358,-86
2021-12-27 15:37:55.841368,-75
2021-12-27 15:37:55.841377,-11
2021-12-27 15:37:55.841387,22
2021-12-27 15:37:55.841396,20
2021-12-27 15:37:55.841406,29
2021-12-27 15:37:55.841415,38
2021-12-27 15:37:55.841425,27
2021-12-27 15:37:55.841434,11
2021-12-27 15:37:56.133300,-4
2021-12-27 15:37:56.133323,6
2021-12-27 15:37:56.133330,52
2021-12-27 15:37:56.133337,50
2021-12-27 15:37:56.133343,43
2021-12-27 15:37:56.133349,72
2021-12-27 15:37:56.133355,63
2021-12-27 15:37:56.133362,47
2021-12-27 15:37:56.133368,50
2021-12-27 15:37:56.133374,34
2021-12-27 15:37:56.133380,31
2021-12-27 15:37:56.133386,36
2021-12-27 15:37:56.133393,11
2021-12-27 15:37:56.133399,-11
2021-12-27 15:37:56.133405,-20
2021-12-27 15:37:56.133411,-61
2021-12-27 15:37:56.133418,-118
2021-12-27 15:37:56.133424,-104
2021-12-27 15:37:56.133430,-91
2021-12-27 15:37:56.133437,-91
2021-12-27 15:37:56.133443,91
2021-12-27 15:37:56.133449,375
2021-12-27 15:37:56.133456,407
2021-12-27 15:37:56.133462,4
2021-12-27 15:37:56.133468,-581
2021-12-27 15:37:56.133474,-697
2021-12-27 15:37:56.133481,-303
2021-12-27 15:37:56.133487,-118
2021-12-27 15:37:56.133493,-168
2021-12-27 15:37:56.133499,-77
2021-12-27 15:37:56.280742,4
2021-12-27 15:37:56.280772,-38
2021-12-27 15:37:56.280784,-50
2021-12-27 15:37:56.280793,-6
2021-12-27 15:37:56.280803,2
2021-12-27 15:37:56.280813,15
2021-12-27 15:37:56.280822,50
2021-12-27 15:37:56.280831,43
2021-12-27 15:37:56.280841,25
2021-12-27 15:37:56.280850,36
2021-12-27 15:37:56.280860,70
2021-12-27 15:37:56.280869,109
2021-12-27 15:37:56.280879,134
2021-12-27 15:37:56.280888,150
2021-12-27 15:37:56.280898,145
2021-12-27 15:37:56.280907,148
2021-12-27 15:37:56.280917,198
2021-12-27 15:37:56.280926,241
2021-12-27 15:37:56.280936,252
2021-12-27 15:37:56.280945,262
2021-12-27 15:37:56.280955,223
2021-12-27 15:37:56.280964,161
2021-12-27 15:37:56.280974,141
2021-12-27 15:37:56.280983,109
2021-12-27 15:37:56.280993,45
2021-12-27 15:37:56.281002,-20
2021-12-27 15:37:56.281012,-95
2021-12-27 15:37:56.281021,-168
2021-12-27 15:37:56.281036,-189
2021-12-27 15:37:56.281046,-161
2021-12-27 15:37:56.523683,-152
2021-12-27 15:37:56.523712,-148
2021-12-27 15:37:56.523724,-138
2021-12-27 15:37:56.523734,-168
2021-12-27 15:37:56.523743,-168
2021-12-27 15:37:56.523753,-123
2021-12-27 15:37:56.523763,-97
2021-12-27 15:37:56.523773,-79
2021-12-27 15:37:56.523782,-66
2021-12-27 15:37:56.523792,-82
2021-12-27 15:37:56.523802,-100
2021-12-27 15:37:56.523811,-82
2021-12-27 15:37:56.523821,-47
2021-12-27 15:37:56.523831,-38
2021-12-27 15:37:56.523840,-41
2021-12-27 15:37:56.523850,-56
2021-12-27 15:37:56.523860,-93
2021-12-27 15:37:56.523869,-75
2021-12-27 15:37:56.523879,-34
2021-12-27 15:37:56.523889,-36
2021-12-27 15:37:56.523898,-56
2021-12-27 15:37:56.523908,-123
2021-12-27 15:37:56.523918,-173
2021-12-27 15:37:56.523928,-136
2021-12-27 15:37:56.523938,-100
2021-12-27 15:37:56.523947,-88
2021-12-27 15:37:56.523957,-77
2021-12-27 15:37:56.523967,-79
2021-12-27 15:37:56.523977,-86
2021-12-27 15:37:56.523986,-82
2021-12-27 15:37:56.670330,-56
2021-12-27 15:37:56.670360,-31
2021-12-27 15:37:56.670371,-31
2021-12-27 15:37:56.670381,-34
2021-12-27 15:37:56.670392,-45
2021-12-27 15:37:56.670401,-54
2021-12-27 15:37:56.670411,-36
2021-12-27 15:37:56.670421,-18
2021-12-27 15:37:56.670430,-13
2021-12-27 15:37:56.670440,-29
2021-12-27 15:37:56.670449,-34
2021-12-27 15:37:56.670459,-25
2021-12-27 15:37:56.670468,-52
2021-12-27 15:37:56.670478,-68
2021-12-27 15:37:56.670488,-66
2021-12-27 15:37:56.670497,-63
2021-12-27 15:37:56.670507,-38
2021-12-27 15:37:56.670517,-47
2021-12-27 15:37:56.670526,-84
2021-12-27 15:37:56.670536,-75
2021-12-27 15:37:56.670545,-82
2021-12-27 15:37:56.670555,-113
2021-12-27 15:37:56.670564,-113
2021-12-27 15:37:56.670574,-129
2021-12-27 15:37:56.670583,-159
2021-12-27 15:37:56.670593,-148
2021-12-27 15:37:56.670603,-113
2021-12-27 15:37:56.670612,-107
2021-12-27 15:37:56.670622,-107
2021-12-27 15:37:56.670631,-86
2021-12-27 15:37:56.914539,-36
2021-12-27 15:37:56.914569,161
2021-12-27 15:37:56.914581,460
2021-12-27 15:37:56.914591,469
2021-12-27 15:37:56.914601,29
2021-12-27 15:37:56.914611,-519
2021-12-27 15:37:56.914620,-599
2021-12-27 15:37:56.914630,-239
2021-12-27 15:37:56.914640,-77
2021-12-27 15:37:56.914649,-116
2021-12-27 15:37:56.914659,-25
2021-12-27 15:37:56.914668,47
2021-12-27 15:37:56.914678,2
2021-12-27 15:37:56.914688,-41
2021-12-27 15:37:56.914697,-43
2021-12-27 15:37:56.914707,-29
2021-12-27 15:37:56.914716,-11
2021-12-27 15:37:56.914726,31
2021-12-27 15:37:56.914736,54
2021-12-27 15:37:56.914745,52
2021-12-27 15:37:56.914755,66
2021-12-27 15:37:56.914764,82
2021-12-27 15:37:56.914774,104
2021-12-27 15:37:56.914784,148
2021-12-27 15:37:56.914793,184
2021-12-27 15:37:56.914803,202
2021-12-27 15:37:56.914812,186
2021-12-27 15:37:56.914822,154
2021-12-27 15:37:56.914831,170
2021-12-27 15:37:56.914841,214
2021-12-27 15:37:57.109391,236
2021-12-27 15:37:57.109414,227
2021-12-27 15:37:57.109421,195
2021-12-27 15:37:57.109428,159
2021-12-27 15:37:57.109434,104
2021-12-27 15:37:57.109440,43
2021-12-27 15:37:57.109446,-13
2021-12-27 15:37:57.109453,-86
2021-12-27 15:37:57.109459,-166
2021-12-27 15:37:57.109465,-225
2021-12-27 15:37:57.109471,-221
2021-12-27 15:37:57.109477,-202
2021-12-27 15:37:57.109484,-209
2021-12-27 15:37:57.109490,-202
2021-12-27 15:37:57.109496,-218
2021-12-27 15:37:57.109503,-264
2021-12-27 15:37:57.109509,-266
2021-12-27 15:37:57.109515,-239
2021-12-27 15:37:57.109521,-207
2021-12-27 15:37:57.109527,-175
2021-12-27 15:37:57.109533,-175
2021-12-27 15:37:57.109539,-180
2021-12-27 15:37:57.109545,-159
2021-12-27 15:37:57.109552,-123
2021-12-27 15:37:57.109558,-91
2021-12-27 15:37:57.109564,-79
2021-12-27 15:37:57.109570,-75
2021-12-27 15:37:57.109576,-86
2021-12-27 15:37:57.109582,-91
2021-12-27 15:37:57.109588,-59
2021-12-27 15:37:57.352834,-43
2021-12-27 15:37:57.352864,-43
2021-12-27 15:37:57.352875,-36
2021-12-27 15:37:57.352885,-75
2021-12-27 15:37:57.352894,-116
2021-12-27 15:37:57.352904,-91
2021-12-27 15:37:57.352913,-59
2021-12-27 15:37:57.352923,-54
2021-12-27 15:37:57.352932,-54
2021-12-27 15:37:57.352941,-72
2021-12-27 15:37:57.352951,-120
2021-12-27 15:37:57.352960,-136
2021-12-27 15:37:57.352970,-107
2021-12-27 15:37:57.352979,-88
2021-12-27 15:37:57.352988,-84
2021-12-27 15:37:57.352998,-86
2021-12-27 15:37:57.353007,-107
2021-12-27 15:37:57.353017,-136
2021-12-27 15:37:57.353026,-168
2021-12-27 15:37:57.353035,-177
2021-12-27 15:37:57.353045,-180
2021-12-27 15:37:57.353054,-205
2021-12-27 15:37:57.353064,-209
2021-12-27 15:37:57.353073,-195
2021-12-27 15:37:57.353083,-184
2021-12-27 15:37:57.353092,-157
2021-12-27 15:37:57.353102,-136
2021-12-27 15:37:57.353111,-134
2021-12-27 15:37:57.353121,-125
2021-12-27 15:37:57.353130,-104
2021-12-27 15:37:57.597564,-82
2021-12-27 15:37:57.597585,-82
2021-12-27 15:37:57.597593,-113
2021-12-27 15:37:57.597599,-159
2021-12-27 15:37:57.597605,-198
2021-12-27 15:37:57.597611,-200
2021-12-27 15:37:57.597618,-184
2021-12-27 15:37:57.597624,-164
2021-12-27 15:37:57.597630,-141
2021-12-27 15:37:57.597636,-150
2021-12-27 15:37:57.597642,-148
2021-12-27 15:37:57.597649,-120
2021-12-27 15:37:57.597655,-72
2021-12-27 15:37:57.597661,120
2021-12-27 15:37:57.597667,403
2021-12-27 15:37:57.597673,416
2021-12-27 15:37:57.597680,-13
2021-12-27 15:37:57.597686,-590
2021-12-27 15:37:57.597692,-656
2021-12-27 15:37:57.597698,-243
2021-12-27 15:37:57.597705,-86
2021-12-27 15:37:57.597711,-161
2021-12-27 15:37:57.597717,-56
2021-12-27 15:37:57.597723,47
2021-12-27 15:37:57.597729,9
2021-12-27 15:37:57.597736,11
2021-12-27 15:37:57.597742,70
2021-12-27 15:37:57.597748,72
2021-12-27 15:37:57.597755,70
2021-12-27 15:37:57.597761,111
2021-12-27 15:37:57.986506,127
2021-12-27 15:37:57.986535,118
2021-12-27 15:37:57.986546,136
2021-12-27 15:37:57.986556,161
2021-12-27 15:37:57.986566,189
2021-12-27 15:37:57.986575,225
2021-12-27 15:37:57.986585,241
2021-12-27 15:37:57.986594,232
2021-12-27 15:37:57.986604,241
2021-12-27 15:37:57.986613,284
2021-12-27 15:37:57.986623,307
2021-12-27 15:37:57.986632,314
2021-12-27 15:37:57.986642,319
2021-12-27 15:37:57.986651,280
2021-12-27 15:37:57.986661,225
2021-12-27 15:37:57.986670,193
2021-12-27 15:37:57.986680,148
2021-12-27 15:37:57.986689,82
2021-12-27 15:37:57.986698,15
2021-12-27 15:37:57.986708,-45
2021-12-27 15:37:57.986718,-102
2021-12-27 15:37:57.986727,-150
2021-12-27 15:37:57.986737,-182
2021-12-27 15:37:57.986746,-189
2021-12-27 15:37:57.986756,-164
2021-12-27 15:37:57.986766,-143
2021-12-27 15:37:57.986775,-154
2021-12-27 15:37:57.986785,-152
2021-12-27 15:37:57.986794,-118
2021-12-27 15:37:57.986804,-93
2021-12-27 15:37:58.180675,-72
2021-12-27 15:37:58.180704,-56
2021-12-27 15:37:58.180716,-63
2021-12-27 15:37:58.180725,-72
2021-12-27 15:37:58.180735,-56
2021-12-27 15:37:58.180744,-27
2021-12-27 15:37:58.180754,-13
2021-12-27 15:37:58.180763,-20
2021-12-27 15:37:58.180772,-52
2021-12-27 15:37:58.180782,-91
2021-12-27 15:37:58.180791,-70
2021-12-27 15:37:58.180801,-31
2021-12-27 15:37:58.180810,-50
2021-12-27 15:37:58.180820,-70
2021-12-27 15:37:58.180829,-79
2021-12-27 15:37:58.180839,-104
2021-12-27 15:37:58.180848,-100
2021-12-27 15:37:58.180857,-59
2021-12-27 15:37:58.180867,-34
2021-12-27 15:37:58.180876,-47
2021-12-27 15:37:58.180886,-59
2021-12-27 15:37:58.180895,-56
2021-12-27 15:37:58.180904,-72
2021-12-27 15:37:58.180929,-75
2021-12-27 15:37:58.180939,-82
2021-12-27 15:37:58.180949,-109
2021-12-27 15:37:58.180958,-104
2021-12-27 15:37:58.180968,-129
2021-12-27 15:37:58.180977,-177
2021-12-27 15:37:58.180987,-166
2021-12-27 15:37:58.327286,-152
2021-12-27 15:37:58.327309,-161
2021-12-27 15:37:58.327316,-150
2021-12-27 15:37:58.327323,-145
2021-12-27 15:37:58.327329,-168
2021-12-27 15:37:58.327335,-159
2021-12-27 15:37:58.327341,-97
2021-12-27 15:37:58.327347,-63
2021-12-27 15:37:58.327354,-77
2021-12-27 15:37:58.327360,-84
2021-12-27 15:37:58.327366,-111
2021-12-27 15:37:58.327372,-132
2021-12-27 15:37:58.327379,-102
2021-12-27 15:37:58.327385,-82
2021-12-27 15:37:58.327391,-72
2021-12-27 15:37:58.327398,-68
2021-12-27 15:37:58.327404,-50
2021-12-27 15:37:58.327410,102
2021-12-27 15:37:58.327416,391
2021-12-27 15:37:58.327422,503
2021-12-27 15:37:58.327429,150
2021-12-27 15:37:58.327435,-460
2021-12-27 15:37:58.327441,-651
2021-12-27 15:37:58.327447,-316
2021-12-27 15:37:58.327453,-111
2021-12-27 15:37:58.327460,-143
2021-12-27 15:37:58.327466,-91
2021-12-27 15:37:58.327472,-11
2021-12-27 15:37:58.327478,-4
2021-12-27 15:37:58.327484,6
2021-12-27 15:37:58.572358,47
2021-12-27 15:37:58.572387,75
2021-12-27 15:37:58.572399,93
2021-12-27 15:37:58.572409,102
2021-12-27 15:37:58.572418,107
2021-12-27 15:37:58.572428,107
2021-12-27 15:37:58.572437,86
2021-12-27 15:37:58.572447,107
2021-12-27 15:37:58.572456,157
2021-12-27 15:37:58.572465,168
2021-12-27 15:37:58.572475,189
2021-12-27 15:37:58.572485,221
2021-12-27 15:37:58.572494,216
2021-12-27 15:37:58.572504,218
2021-12-27 15:37:58.572513,207
2021-12-27 15:37:58.572523,157
2021-12-27 15:37:58.572532,107
2021-12-27 15:37:58.572541,82
2021-12-27 15:37:58.572551,141
2021-12-27 15:37:58.572560,195
2021-12-27 15:37:58.572570,118
2021-12-27 15:37:58.572579,20
2021-12-27 15:37:58.572589,-18
2021-12-27 15:37:58.572599,-52
2021-12-27 15:37:58.572608,-109
2021-12-27 15:37:58.572618,-145
2021-12-27 15:37:58.572627,-138
2021-12-27 15:37:58.572637,-152
2021-12-27 15:37:58.572646,-175
2021-12-27 15:37:58.572656,-166
2021-12-27 15:37:58.766585,-152
2021-12-27 15:37:58.766616,-138
2021-12-27 15:37:58.766628,-120
2021-12-27 15:37:58.766638,-102
2021-12-27 15:37:58.766647,-82
2021-12-27 15:37:58.766657,-61
2021-12-27 15:37:58.766667,-43
2021-12-27 15:37:58.766676,-50
2021-12-27 15:37:58.766686,-70
2021-12-27 15:37:58.766696,-52
2021-12-27 15:37:58.766705,-29
2021-12-27 15:37:58.766714,-13
2021-12-27 15:37:58.766724,2
2021-12-27 15:37:58.766734,-18
2021-12-27 15:37:58.766743,-50
2021-12-27 15:37:58.766753,-66
2021-12-27 15:37:58.766763,-75
2021-12-27 15:37:58.766773,-72
2021-12-27 15:37:58.766782,-50
2021-12-27 15:37:58.766792,-41
2021-12-27 15:37:58.766801,-88
2021-12-27 15:37:58.766811,-116
2021-12-27 15:37:58.766820,-91
2021-12-27 15:37:58.766830,-102
2021-12-27 15:37:58.766840,-120
2021-12-27 15:37:58.766849,-116
2021-12-27 15:37:58.766859,-154
2021-12-27 15:37:58.766869,-184
2021-12-27 15:37:58.766878,-161
2021-12-27 15:37:58.766888,-148
2021-12-27 15:37:59.010224,-159
2021-12-27 15:37:59.010255,-170
2021-12-27 15:37:59.010266,-166
2021-12-27 15:37:59.010276,-175
2021-12-27 15:37:59.010285,-170
2021-12-27 15:37:59.010295,-138
2021-12-27 15:37:59.010304,-132
2021-12-27 15:37:59.010314,-116
2021-12-27 15:37:59.010323,-100
2021-12-27 15:37:59.010332,-132
2021-12-27 15:37:59.010342,-134
2021-12-27 15:37:59.010351,-97
2021-12-27 15:37:59.010361,-88
2021-12-27 15:37:59.010371,-93
2021-12-27 15:37:59.010380,-97
2021-12-27 15:37:59.010390,-120
2021-12-27 15:37:59.010399,-127
2021-12-27 15:37:59.010409,-88
2021-12-27 15:37:59.010418,-50
2021-12-27 15:37:59.010427,-72
2021-12-27 15:37:59.010437,-125
2021-12-27 15:37:59.010446,-157
2021-12-27 15:37:59.010456,-152
2021-12-27 15:37:59.010465,-86
2021-12-27 15:37:59.010475,100
2021-12-27 15:37:59.010485,403
2021-12-27 15:37:59.010495,526
2021-12-27 15:37:59.010504,166
2021-12-27 15:37:59.010514,-421
2021-12-27 15:37:59.010523,-599
2021-12-27 15:37:59.254134,-252
2021-12-27 15:37:59.254164,-22
2021-12-27 15:37:59.254175,-100
2021-12-27 15:37:59.254185,-86
2021-12-27 15:37:59.254194,-9
2021-12-27 15:37:59.254204,-38
2021-12-27 15:37:59.254213,-27
2021-12-27 15:37:59.254223,27
2021-12-27 15:37:59.254232,43
2021-12-27 15:37:59.254241,56
2021-12-27 15:37:59.254251,50
2021-12-27 15:37:59.254260,34
2021-12-27 15:37:59.254270,50
2021-12-27 15:37:59.254279,84
2021-12-27 15:37:59.254288,107
2021-12-27 15:37:59.254298,116
2021-12-27 15:37:59.254307,148
2021-12-27 15:37:59.254317,180
2021-12-27 15:37:59.254326,198
2021-12-27 15:37:59.254336,250
2021-12-27 15:37:59.254345,296
2021-12-27 15:37:59.254354,298
2021-12-27 15:37:59.254364,309
2021-12-27 15:37:59.254373,305
2021-12-27 15:37:59.254383,289
2021-12-27 15:37:59.254392,282
2021-12-27 15:37:59.254402,266
2021-12-27 15:37:59.254411,227
2021-12-27 15:37:59.254421,143
2021-12-27 15:37:59.254430,52
2021-12-27 15:37:59.449551,-6
2021-12-27 15:37:59.449581,-52
2021-12-27 15:37:59.449592,-79
2021-12-27 15:37:59.449602,-111
2021-12-27 15:37:59.449611,-148
2021-12-27 15:37:59.449621,-154
2021-12-27 15:37:59.449630,-161
2021-12-27 15:37:59.449640,-150
2021-12-27 15:37:59.449649,-107
2021-12-27 15:37:59.449659,-84
2021-12-27 15:37:59.449669,-75
2021-12-27 15:37:59.449678,-66
2021-12-27 15:37:59.449687,-82
2021-12-27 15:37:59.449697,-93
2021-12-27 15:37:59.449707,-70
2021-12-27 15:37:59.449717,-47
2021-12-27 15:37:59.449726,-47
2021-12-27 15:37:59.449736,-29
2021-12-27 15:37:59.449745,-20
2021-12-27 15:37:59.449755,-54
2021-12-27 15:37:59.449764,-61
2021-12-27 15:37:59.449774,-41
2021-12-27 15:37:59.449783,-41
2021-12-27 15:37:59.449793,-50
2021-12-27 15:37:59.449802,-66
2021-12-27 15:37:59.449812,-86
2021-12-27 15:37:59.449821,-129
2021-12-27 15:37:59.449831,-170
2021-12-27 15:37:59.449841,-141
2021-12-27 15:37:59.449850,-113
2021-12-27 15:37:59.643327,-145
2021-12-27 15:37:59.643343,-157
2021-12-27 15:37:59.643350,-173
2021-12-27 15:37:59.643355,-198
2021-12-27 15:37:59.643360,-182
2021-12-27 15:37:59.643365,-161
2021-12-27 15:37:59.643370,-177
2021-12-27 15:37:59.643375,-221
2021-12-27 15:37:59.643380,-246
2021-12-27 15:37:59.643385,-230
2021-12-27 15:37:59.643390,-202
2021-12-27 15:37:59.643395,-177
2021-12-27 15:37:59.643400,-164
2021-12-27 15:37:59.643405,-168
2021-12-27 15:37:59.643410,-191
2021-12-27 15:37:59.643415,-211
2021-12-27 15:37:59.643420,-175
2021-12-27 15:37:59.643425,-123
2021-12-27 15:37:59.643430,-102
2021-12-27 15:37:59.643435,-77
2021-12-27 15:37:59.643441,-77
2021-12-27 15:37:59.643446,-104
2021-12-27 15:37:59.643451,-100
2021-12-27 15:37:59.643456,-77
2021-12-27 15:37:59.643461,-54
2021-12-27 15:37:59.643466,-41
2021-12-27 15:37:59.643471,-43
2021-12-27 15:37:59.643476,-52
2021-12-27 15:37:59.643481,-47
2021-12-27 15:37:59.643486,-20
2021-12-27 15:37:59.936480,0
2021-12-27 15:37:59.936501,2
2021-12-27 15:37:59.936509,45
2021-12-27 15:37:59.936516,195
2021-12-27 15:37:59.936522,453
2021-12-27 15:37:59.936528,537
2021-12-27 15:37:59.936535,157
2021-12-27 15:37:59.936541,-412
2021-12-27 15:37:59.936547,-546
2021-12-27 15:37:59.936553,-250
2021-12-27 15:37:59.936560,-100
2021-12-27 15:37:59.936566,-116
2021-12-27 15:37:59.936572,-9
2021-12-27 15:37:59.936578,75
2021-12-27 15:37:59.936585,43
2021-12-27 15:37:59.936591,45
2021-12-27 15:37:59.936597,66
2021-12-27 15:37:59.936604,72
2021-12-27 15:37:59.936610,104
2021-12-27 15:37:59.936616,129
2021-12-27 15:37:59.936622,143
2021-12-27 15:37:59.936628,148
2021-12-27 15:37:59.936634,152
2021-12-27 15:37:59.936641,180
2021-12-27 15:37:59.936647,209
2021-12-27 15:37:59.936653,234
2021-12-27 15:37:59.936659,259
2021-12-27 15:37:59.936666,275
2021-12-27 15:37:59.936672,296
2021-12-27 15:37:59.936678,314
2021-12-27 15:38:00.179459,339
2021-12-27 15:38:00.179479,355
2021-12-27 15:38:00.179487,305
2021-12-27 15:38:00.179494,248
2021-12-27 15:38:00.179500,230
2021-12-27 15:38:00.179506,177
2021-12-27 15:38:00.179512,102
2021-12-27 15:38:00.179519,47
2021-12-27 15:38:00.179525,-4
2021-12-27 15:38:00.179531,-72
2021-12-27 15:38:00.179537,-154
2021-12-27 15:38:00.179543,-227
2021-12-27 15:38:00.179550,-250
2021-12-27 15:38:00.179556,-209
2021-12-27 15:38:00.179562,-170
2021-12-27 15:38:00.179568,-175
2021-12-27 15:38:00.179574,-164
2021-12-27 15:38:00.179587,-148
2021-12-27 15:38:00.179593,-159
2021-12-27 15:38:00.179600,-134
2021-12-27 15:38:00.179606,-97
2021-12-27 15:38:00.179612,-86
2021-12-27 15:38:00.179618,-70
2021-12-27 15:38:00.179624,-59
2021-12-27 15:38:00.179631,-56
2021-12-27 15:38:00.179637,-47
2021-12-27 15:38:00.179643,-29
2021-12-27 15:38:00.179650,-20
2021-12-27 15:38:00.179656,-20
2021-12-27 15:38:00.179662,-2
2021-12-27 15:38:00.473312,0
2021-12-27 15:38:00.473334,-6
2021-12-27 15:38:00.473342,9
2021-12-27 15:38:00.473348,2
2021-12-27 15:38:00.473355,-27
2021-12-27 15:38:00.473361,-31
2021-12-27 15:38:00.473367,-47
2021-12-27 15:38:00.473374,-75
2021-12-27 15:38:00.473380,-79
2021-12-27 15:38:00.473386,-68
2021-12-27 15:38:00.473393,-75
2021-12-27 15:38:00.473399,-100
2021-12-27 15:38:00.473405,-138
2021-12-27 15:38:00.473412,-209
2021-12-27 15:38:00.473418,-239
2021-12-27 15:38:00.473424,-193
2021-12-27 15:38:00.473431,-175
2021-12-27 15:38:00.473437,-168
2021-12-27 15:38:00.473443,-141
2021-12-27 15:38:00.473449,-145
2021-12-27 15:38:00.473456,-152
2021-12-27 15:38:00.473462,-138
2021-12-27 15:38:00.473468,-120
2021-12-27 15:38:00.473475,-104
2021-12-27 15:38:00.473481,-104
2021-12-27 15:38:00.473487,-107
2021-12-27 15:38:00.473493,-118
2021-12-27 15:38:00.473500,-118
2021-12-27 15:38:00.473506,-84
2021-12-27 15:38:00.473512,-52
2021-12-27 15:38:00.667334,-27
2021-12-27 15:38:00.667369,-11
2021-12-27 15:38:00.667378,-29
2021-12-27 15:38:00.667385,-47
2021-12-27 15:38:00.667391,-45
2021-12-27 15:38:00.667397,-29
2021-12-27 15:38:00.667403,-9
2021-12-27 15:38:00.667409,-13
2021-12-27 15:38:00.667415,-56
2021-12-27 15:38:00.667421,-95
2021-12-27 15:38:00.667428,-75
2021-12-27 15:38:00.667434,-31
2021-12-27 15:38:00.667440,-29
2021-12-27 15:38:00.667447,-13
2021-12-27 15:38:00.667453,43
2021-12-27 15:38:00.667459,214
2021-12-27 15:38:00.667465,505
2021-12-27 15:38:00.667472,544
2021-12-27 15:38:00.667477,109
2021-12-27 15:38:00.667482,-423
2021-12-27 15:38:00.667488,-501
2021-12-27 15:38:00.667493,-186
2021-12-27 15:38:00.667498,-47
2021-12-27 15:38:00.667503,-61
2021-12-27 15:38:00.667508,45
2021-12-27 15:38:00.667513,102
2021-12-27 15:38:00.667518,63
2021-12-27 15:38:00.667523,41
2021-12-27 15:38:00.667529,31
2021-12-27 15:38:00.667534,61
2021-12-27 15:38:00.814597,100
2021-12-27 15:38:00.814627,120
2021-12-27 15:38:00.814639,136
2021-12-27 15:38:00.814649,111
2021-12-27 15:38:00.814658,84
2021-12-27 15:38:00.814668,116
2021-12-27 15:38:00.814677,161
2021-12-27 15:38:00.814687,191
2021-12-27 15:38:00.814696,211
2021-12-27 15:38:00.814706,218
2021-12-27 15:38:00.814715,207
2021-12-27 15:38:00.814725,216
2021-12-27 15:38:00.814735,273
2021-12-27 15:38:00.814744,307
2021-12-27 15:38:00.814754,300
2021-12-27 15:38:00.814763,293
2021-12-27 15:38:00.814773,255
2021-12-27 15:38:00.814782,198
2021-12-27 15:38:00.814792,148
2021-12-27 15:38:00.814801,88
2021-12-27 15:38:00.814811,25
2021-12-27 15:38:00.814821,-41
2021-12-27 15:38:00.814830,-95
2021-12-27 15:38:00.814840,-127
2021-12-27 15:38:00.814849,-134
2021-12-27 15:38:00.814859,-113
2021-12-27 15:38:00.814868,-107
2021-12-27 15:38:00.814878,-116
2021-12-27 15:38:00.814888,-100
2021-12-27 15:38:00.814897,-93
2021-12-27 15:38:01.058287,-77
2021-12-27 15:38:01.058317,-50
2021-12-27 15:38:01.058329,-38
2021-12-27 15:38:01.058339,-34
2021-12-27 15:38:01.058348,-31
2021-12-27 15:38:01.058358,-47
2021-12-27 15:38:01.058368,-63
2021-12-27 15:38:01.058378,-47
2021-12-27 15:38:01.058387,-13
2021-12-27 15:38:01.058397,-15
2021-12-27 15:38:01.058406,-18
2021-12-27 15:38:01.058416,-13
2021-12-27 15:38:01.058425,-47
2021-12-27 15:38:01.058435,-54
2021-12-27 15:38:01.058445,-61
2021-12-27 15:38:01.058454,-129
2021-12-27 15:38:01.058464,-148
2021-12-27 15:38:01.058473,-120
2021-12-27 15:38:01.058483,-129
2021-12-27 15:38:01.058492,-150
2021-12-27 15:38:01.058502,-143
2021-12-27 15:38:01.058511,-123
2021-12-27 15:38:01.058521,-134
2021-12-27 15:38:01.058531,-154
2021-12-27 15:38:01.058540,-154
2021-12-27 15:38:01.058550,-175
2021-12-27 15:38:01.058559,-184
2021-12-27 15:38:01.058569,-175
2021-12-27 15:38:01.058578,-168
2021-12-27 15:38:01.058588,-148
2021-12-27 15:38:01.301720,-143
2021-12-27 15:38:01.301744,-145
2021-12-27 15:38:01.301751,-132
2021-12-27 15:38:01.301758,-127
2021-12-27 15:38:01.301764,-113
2021-12-27 15:38:01.301770,-95
2021-12-27 15:38:01.301777,-102
2021-12-27 15:38:01.301783,-127
2021-12-27 15:38:01.301789,-157
2021-12-27 15:38:01.301795,-148
2021-12-27 15:38:01.301801,-127
2021-12-27 15:38:01.301807,-118
2021-12-27 15:38:01.301814,-95
2021-12-27 15:38:01.301820,-104
2021-12-27 15:38:01.301826,-129
2021-12-27 15:38:01.301832,-102
2021-12-27 15:38:01.301838,-70
2021-12-27 15:38:01.301844,-56
2021-12-27 15:38:01.301851,-52
2021-12-27 15:38:01.301857,-50
2021-12-27 15:38:01.301863,-59
2021-12-27 15:38:01.301869,-91
2021-12-27 15:38:01.301875,-79
2021-12-27 15:38:01.301882,-38
2021-12-27 15:38:01.301888,-34
2021-12-27 15:38:01.301894,-25
2021-12-27 15:38:01.301900,-29
2021-12-27 15:38:01.301907,-41
2021-12-27 15:38:01.301913,-9
2021-12-27 15:38:01.301919,104
2021-12-27 15:38:01.544810,371
2021-12-27 15:38:01.544830,612
2021-12-27 15:38:01.544838,471
2021-12-27 15:38:01.544844,-75
2021-12-27 15:38:01.544851,-528
2021-12-27 15:38:01.544857,-380
2021-12-27 15:38:01.544864,-18
2021-12-27 15:38:01.544870,20
2021-12-27 15:38:01.544876,-11
2021-12-27 15:38:01.544883,54
2021-12-27 15:38:01.544889,68
2021-12-27 15:38:01.544896,66
2021-12-27 15:38:01.544902,93
2021-12-27 15:38:01.544908,123
2021-12-27 15:38:01.544915,120
2021-12-27 15:38:01.544921,86
2021-12-27 15:38:01.544927,84
2021-12-27 15:38:01.544934,118
2021-12-27 15:38:01.544940,150
2021-12-27 15:38:01.544946,166
2021-12-27 15:38:01.544953,148
2021-12-27 15:38:01.544959,118
2021-12-27 15:38:01.544965,118
2021-12-27 15:38:01.544972,145
2021-12-27 15:38:01.544978,184
2021-12-27 15:38:01.544984,223
2021-12-27 15:38:01.544991,259
2021-12-27 15:38:01.544997,266
2021-12-27 15:38:01.545004,259
2021-12-27 15:38:01.545010,282
2021-12-27 15:38:01.789420,289
2021-12-27 15:38:01.789450,268
2021-12-27 15:38:01.789462,230
2021-12-27 15:38:01.789472,145
2021-12-27 15:38:01.789482,45
2021-12-27 15:38:01.789491,-25
2021-12-27 15:38:01.789501,-59
2021-12-27 15:38:01.789511,-75
2021-12-27 15:38:01.789520,-104
2021-12-27 15:38:01.789530,-123
2021-12-27 15:38:01.789539,-145
2021-12-27 15:38:01.789549,-166
2021-12-27 15:38:01.789558,-138
2021-12-27 15:38:01.789568,-102
2021-12-27 15:38:01.789578,-86
2021-12-27 15:38:01.789587,-72
2021-12-27 15:38:01.789597,-72
2021-12-27 15:38:01.789607,-70
2021-12-27 15:38:01.789616,-50
2021-12-27 15:38:01.789626,-25
2021-12-27 15:38:01.789635,-34
2021-12-27 15:38:01.789645,-70
2021-12-27 15:38:01.789655,-61
2021-12-27 15:38:01.789664,-47
2021-12-27 15:38:01.789674,-82
2021-12-27 15:38:01.789683,-97
2021-12-27 15:38:01.789693,-95
2021-12-27 15:38:01.789703,-107
2021-12-27 15:38:01.789712,-116
2021-12-27 15:38:01.789722,-127
2021-12-27 15:38:01.984383,-141
2021-12-27 15:38:01.984412,-136
2021-12-27 15:38:01.984424,-118
2021-12-27 15:38:01.984434,-111
2021-12-27 15:38:01.984444,-113
2021-12-27 15:38:01.984453,-116
2021-12-27 15:38:01.984463,-154
2021-12-27 15:38:01.984472,-170
2021-12-27 15:38:01.984482,-127
2021-12-27 15:38:01.984491,-120
2021-12-27 15:38:01.984501,-118
2021-12-27 15:38:01.984510,-88
2021-12-27 15:38:01.984519,-100
2021-12-27 15:38:01.984529,-104
2021-12-27 15:38:01.984538,-86
2021-12-27 15:38:01.984548,-95
2021-12-27 15:38:01.984557,-91
2021-12-27 15:38:01.984567,-66
2021-12-27 15:38:01.984576,-75
2021-12-27 15:38:01.984585,-111
2021-12-27 15:38:01.984595,-111
2021-12-27 15:38:01.984604,-86
2021-12-27 15:38:01.984614,-86
2021-12-27 15:38:01.984623,-68
2021-12-27 15:38:01.984633,-38
2021-12-27 15:38:01.984642,-50
2021-12-27 15:38:01.984652,-75
2021-12-27 15:38:01.984661,-102
2021-12-27 15:38:01.984671,-88
2021-12-27 15:38:01.984680,-50
2021-12-27 15:38:02.275130,-54
2021-12-27 15:38:02.275147,-66
2021-12-27 15:38:02.275155,-63
2021-12-27 15:38:02.275161,-68
2021-12-27 15:38:02.275168,-45
2021-12-27 15:38:02.275174,-20
2021-12-27 15:38:02.275181,-13
2021-12-27 15:38:02.275187,-38
2021-12-27 15:38:02.275193,-77
2021-12-27 15:38:02.275200,-61
2021-12-27 15:38:02.275206,-13
2021-12-27 15:38:02.275212,100
2021-12-27 15:38:02.275219,373
2021-12-27 15:38:02.275225,578
2021-12-27 15:38:02.275231,360
2021-12-27 15:38:02.275238,-248
2021-12-27 15:38:02.275244,-626
2021-12-27 15:38:02.275250,-364
2021-12-27 15:38:02.275257,-22
2021-12-27 15:38:02.275263,-15
2021-12-27 15:38:02.275269,-20
2021-12-27 15:38:02.275276,59
2021-12-27 15:38:02.275282,82
2021-12-27 15:38:02.275288,82
2021-12-27 15:38:02.275295,113
2021-12-27 15:38:02.275301,136
2021-12-27 15:38:02.275307,118
2021-12-27 15:38:02.275313,118
2021-12-27 15:38:02.275319,125
2021-12-27 15:38:02.275326,113
2021-12-27 15:38:02.423544,132
2021-12-27 15:38:02.423587,164
2021-12-27 15:38:02.423598,170
2021-12-27 15:38:02.423608,173
2021-12-27 15:38:02.423618,200
2021-12-27 15:38:02.423627,248
2021-12-27 15:38:02.423637,282
2021-12-27 15:38:02.423647,307
2021-12-27 15:38:02.423656,332
2021-12-27 15:38:02.423666,303
2021-12-27 15:38:02.423676,271
2021-12-27 15:38:02.423685,291
2021-12-27 15:38:02.423695,300
2021-12-27 15:38:02.423705,275
2021-12-27 15:38:02.423726,221
2021-12-27 15:38:02.423736,113
2021-12-27 15:38:02.423746,-4
2021-12-27 15:38:02.423756,-56
2021-12-27 15:38:02.423765,-66
2021-12-27 15:38:02.423775,-102
2021-12-27 15:38:02.423785,-127
2021-12-27 15:38:02.423795,-129
2021-12-27 15:38:02.423804,-148
2021-12-27 15:38:02.423814,-132
2021-12-27 15:38:02.423824,-93
2021-12-27 15:38:02.423834,-84
2021-12-27 15:38:02.423844,-79
2021-12-27 15:38:02.423853,-95
2021-12-27 15:38:02.423863,-127
2021-12-27 15:38:02.423873,-113
2021-12-27 15:38:02.666693,-102
2021-12-27 15:38:02.666725,-129
2021-12-27 15:38:02.666737,-177
2021-12-27 15:38:02.666747,-223
2021-12-27 15:38:02.666757,-246
2021-12-27 15:38:02.666766,-266
2021-12-27 15:38:02.666776,-266
2021-12-27 15:38:02.666786,-243
2021-12-27 15:38:02.666795,-236
2021-12-27 15:38:02.666805,-225
2021-12-27 15:38:02.666815,-227
2021-12-27 15:38:02.666824,-248
2021-12-27 15:38:02.666834,-246
2021-12-27 15:38:02.666844,-216
2021-12-27 15:38:02.666854,-195
2021-12-27 15:38:02.666863,-200
2021-12-27 15:38:02.666873,-189
2021-12-27 15:38:02.666883,-170
2021-12-27 15:38:02.666892,-177
2021-12-27 15:38:02.666902,-164
2021-12-27 15:38:02.666912,-138
2021-12-27 15:38:02.666921,-138
2021-12-27 15:38:02.666931,-127
2021-12-27 15:38:02.666941,-118
2021-12-27 15:38:02.666950,-118
2021-12-27 15:38:02.666960,-95
2021-12-27 15:38:02.666970,-88
2021-12-27 15:38:02.666979,-97
2021-12-27 15:38:02.666989,-91
2021-12-27 15:38:02.666999,-84
2021-12-27 15:38:02.959141,-84
2021-12-27 15:38:02.959171,-82
2021-12-27 15:38:02.959183,-72
2021-12-27 15:38:02.959193,-93
2021-12-27 15:38:02.959203,-88
2021-12-27 15:38:02.959212,-43
2021-12-27 15:38:02.959222,-63
2021-12-27 15:38:02.959231,-118
2021-12-27 15:38:02.959241,-100
2021-12-27 15:38:02.959251,-77
2021-12-27 15:38:02.959261,-70
2021-12-27 15:38:02.959271,-54
2021-12-27 15:38:02.959280,-66
2021-12-27 15:38:02.959290,-86
2021-12-27 15:38:02.959300,-86
2021-12-27 15:38:02.959310,-63
2021-12-27 15:38:02.959320,-47
2021-12-27 15:38:02.959330,-31
2021-12-27 15:38:02.959339,13
2021-12-27 15:38:02.959349,141
2021-12-27 15:38:02.959359,398
2021-12-27 15:38:02.959369,565
2021-12-27 15:38:02.959378,303
2021-12-27 15:38:02.959388,-268
2021-12-27 15:38:02.959398,-553
2021-12-27 15:38:02.959408,-273
2021-12-27 15:38:02.959417,2
2021-12-27 15:38:02.959427,-29
2021-12-27 15:38:02.959437,6
2021-12-27 15:38:02.959447,127
2021-12-27 15:38:03.154815,120
2021-12-27 15:38:03.154845,95
2021-12-27 15:38:03.154857,109
2021-12-27 15:38:03.154867,104
2021-12-27 15:38:03.154876,102
2021-12-27 15:38:03.154886,95
2021-12-27 15:38:03.154895,109
2021-12-27 15:38:03.154905,118
2021-12-27 15:38:03.154914,79
2021-12-27 15:38:03.154924,66
2021-12-27 15:38:03.154933,102
2021-12-27 15:38:03.154943,145
2021-12-27 15:38:03.154953,180
2021-12-27 15:38:03.154962,205
2021-12-27 15:38:03.154972,209
2021-12-27 15:38:03.154981,193
2021-12-27 15:38:03.154991,218
2021-12-27 15:38:03.155001,266
2021-12-27 15:38:03.155010,266
2021-12-27 15:38:03.155020,268
2021-12-27 15:38:03.155029,246
2021-12-27 15:38:03.155039,161
2021-12-27 15:38:03.155049,102
2021-12-27 15:38:03.155058,63
2021-12-27 15:38:03.155068,0
2021-12-27 15:38:03.155078,-54
2021-12-27 15:38:03.155087,-93
2021-12-27 15:38:03.155097,-136
2021-12-27 15:38:03.155106,-166
2021-12-27 15:38:03.155116,-154
2021-12-27 15:38:03.445625,-120
2021-12-27 15:38:03.445642,-102
2021-12-27 15:38:03.445650,-95
2021-12-27 15:38:03.445656,-111
2021-12-27 15:38:03.445663,-118
2021-12-27 15:38:03.445669,-91
2021-12-27 15:38:03.445675,-111
2021-12-27 15:38:03.445682,-154
2021-12-27 15:38:03.445688,-145
2021-12-27 15:38:03.445694,-141
2021-12-27 15:38:03.445701,-152
2021-12-27 15:38:03.445707,-141
2021-12-27 15:38:03.445713,-123
2021-12-27 15:38:03.445719,-123
2021-12-27 15:38:03.445726,-136
2021-12-27 15:38:03.445732,-157
2021-12-27 15:38:03.445738,-205
2021-12-27 15:38:03.445744,-216
2021-12-27 15:38:03.445751,-168
2021-12-27 15:38:03.445757,-157
2021-12-27 15:38:03.445763,-166
2021-12-27 15:38:03.445769,-161
2021-12-27 15:38:03.445775,-175
2021-12-27 15:38:03.445782,-157
2021-12-27 15:38:03.445788,-118
2021-12-27 15:38:03.445794,-116
2021-12-27 15:38:03.445800,-118
2021-12-27 15:38:03.445806,-102
2021-12-27 15:38:03.445813,-82
2021-12-27 15:38:03.445819,-102
2021-12-27 15:38:03.593349,-132
2021-12-27 15:38:03.593380,-107
2021-12-27 15:38:03.593392,-86
2021-12-27 15:38:03.593401,-86
2021-12-27 15:38:03.593411,-77
2021-12-27 15:38:03.593421,-75
2021-12-27 15:38:03.593430,-75
2021-12-27 15:38:03.593440,-72
2021-12-27 15:38:03.593449,-100
2021-12-27 15:38:03.593459,-129
2021-12-27 15:38:03.593469,-118
2021-12-27 15:38:03.593478,-88
2021-12-27 15:38:03.593487,-84
2021-12-27 15:38:03.593497,-100
2021-12-27 15:38:03.593507,-120
2021-12-27 15:38:03.593516,-136
2021-12-27 15:38:03.593526,-120
2021-12-27 15:38:03.593568,-111
2021-12-27 15:38:03.593578,-138
2021-12-27 15:38:03.593588,-129
2021-12-27 15:38:03.593597,-100
2021-12-27 15:38:03.593607,-95
2021-12-27 15:38:03.593617,-95
2021-12-27 15:38:03.593626,-82
2021-12-27 15:38:03.593636,-66
2021-12-27 15:38:03.593645,-70
2021-12-27 15:38:03.593655,-70
2021-12-27 15:38:03.593665,-9
2021-12-27 15:38:03.593674,173
2021-12-27 15:38:03.593684,467
2021-12-27 15:38:03.837158,583
2021-12-27 15:38:03.837180,243
2021-12-27 15:38:03.837188,-330
2021-12-27 15:38:03.837194,-562
2021-12-27 15:38:03.837201,-250
2021-12-27 15:38:03.837207,20
2021-12-27 15:38:03.837214,-34
2021-12-27 15:38:03.837220,-36
2021-12-27 15:38:03.837226,56
2021-12-27 15:38:03.837232,63
2021-12-27 15:38:03.837239,45
2021-12-27 15:38:03.837245,43
2021-12-27 15:38:03.837251,47
2021-12-27 15:38:03.837257,38
2021-12-27 15:38:03.837263,15
2021-12-27 15:38:03.837270,43
2021-12-27 15:38:03.837276,68
2021-12-27 15:38:03.837282,84
2021-12-27 15:38:03.837288,141
2021-12-27 15:38:03.837295,166
2021-12-27 15:38:03.837301,152
2021-12-27 15:38:03.837307,175
2021-12-27 15:38:03.837313,232
2021-12-27 15:38:03.837320,280
2021-12-27 15:38:03.837326,293
2021-12-27 15:38:03.837332,300
2021-12-27 15:38:03.837338,300
2021-12-27 15:38:03.837345,284
2021-12-27 15:38:03.837351,305
2021-12-27 15:38:03.837357,321
2021-12-27 15:38:04.177168,296
2021-12-27 15:38:04.177199,248
2021-12-27 15:38:04.177211,132
2021-12-27 15:38:04.177221,20
2021-12-27 15:38:04.177231,-13
2021-12-27 15:38:04.177241,-47
2021-12-27 15:38:04.177250,-86
2021-12-27 15:38:04.177260,-84
2021-12-27 15:38:04.177270,-107
2021-12-27 15:38:04.177280,-157
2021-12-27 15:38:04.177290,-154
2021-12-27 15:38:04.177299,-102
2021-12-27 15:38:04.177309,-95
2021-12-27 15:38:04.177319,-127
2021-12-27 15:38:04.177329,-132
2021-12-27 15:38:04.177339,-141
2021-12-27 15:38:04.177349,-132
2021-12-27 15:38:04.177358,-109
2021-12-27 15:38:04.177368,-145
2021-12-27 15:38:04.177378,-195
2021-12-27 15:38:04.177387,-198
2021-12-27 15:38:04.177397,-195
2021-12-27 15:38:04.177407,-200
2021-12-27 15:38:04.177416,-170
2021-12-27 15:38:04.177426,-143
2021-12-27 15:38:04.177435,-159
2021-12-27 15:38:04.177445,-175
2021-12-27 15:38:04.177455,-182
2021-12-27 15:38:04.177464,-207
2021-12-27 15:38:04.177474,-193
2021-12-27 15:38:04.324015,-159
2021-12-27 15:38:04.324037,-152
2021-12-27 15:38:04.324045,-150
2021-12-27 15:38:04.324052,-175
2021-12-27 15:38:04.324058,-216
2021-12-27 15:38:04.324064,-205
2021-12-27 15:38:04.324071,-170
2021-12-27 15:38:04.324077,-150
2021-12-27 15:38:04.324083,-150
2021-12-27 15:38:04.324089,-157
2021-12-27 15:38:04.324096,-161
2021-12-27 15:38:04.324102,-164
2021-12-27 15:38:04.324108,-143
2021-12-27 15:38:04.324115,-120
2021-12-27 15:38:04.324121,-132
2021-12-27 15:38:04.324127,-166
2021-12-27 15:38:04.324134,-200
2021-12-27 15:38:04.324140,-198
2021-12-27 15:38:04.324146,-168
2021-12-27 15:38:04.324153,-148
2021-12-27 15:38:04.324159,-132
2021-12-27 15:38:04.324165,-116
2021-12-27 15:38:04.324172,-100
2021-12-27 15:38:04.324178,-75
2021-12-27 15:38:04.324185,-59
2021-12-27 15:38:04.324191,-54
2021-12-27 15:38:04.324197,-59
2021-12-27 15:38:04.324204,-70
2021-12-27 15:38:04.324210,-61
2021-12-27 15:38:04.324216,-68
2021-12-27 15:38:04.519636,-72
2021-12-27 15:38:04.519657,-45
2021-12-27 15:38:04.519664,-36
2021-12-27 15:38:04.519671,-45
2021-12-27 15:38:04.519677,-31
2021-12-27 15:38:04.519684,-41
2021-12-27 15:38:04.519690,-56
2021-12-27 15:38:04.519696,54
2021-12-27 15:38:04.519703,355
2021-12-27 15:38:04.519709,581
2021-12-27 15:38:04.519715,419
2021-12-27 15:38:04.519722,-127
2021-12-27 15:38:04.519728,-581
2021-12-27 15:38:04.519734,-416
2021-12-27 15:38:04.519741,-38
2021-12-27 15:38:04.519747,-22
2021-12-27 15:38:04.519753,-54
2021-12-27 15:38:04.519760,36
2021-12-27 15:38:04.519766,15
2021-12-27 15:38:04.519772,-20
2021-12-27 15:38:04.519779,31
2021-12-27 15:38:04.519785,54
2021-12-27 15:38:04.519791,52
2021-12-27 15:38:04.519797,84
2021-12-27 15:38:04.519804,93
2021-12-27 15:38:04.519810,59
2021-12-27 15:38:04.519817,72
2021-12-27 15:38:04.519823,116
2021-12-27 15:38:04.519829,123
2021-12-27 15:38:04.519835,150
2021-12-27 15:38:04.762868,195
2021-12-27 15:38:04.762899,211
2021-12-27 15:38:04.762910,234
2021-12-27 15:38:04.762920,266
2021-12-27 15:38:04.762930,296
2021-12-27 15:38:04.762940,332
2021-12-27 15:38:04.762949,346
2021-12-27 15:38:04.762959,319
2021-12-27 15:38:04.762968,268
2021-12-27 15:38:04.762978,239
2021-12-27 15:38:04.762987,214
2021-12-27 15:38:04.762997,143
2021-12-27 15:38:04.763006,63
2021-12-27 15:38:04.763016,-20
2021-12-27 15:38:04.763025,-118
2021-12-27 15:38:04.763035,-166
2021-12-27 15:38:04.763044,-161
2021-12-27 15:38:04.763054,-150
2021-12-27 15:38:04.763063,-152
2021-12-27 15:38:04.763073,-180
2021-12-27 15:38:04.763082,-195
2021-12-27 15:38:04.763092,-177
2021-12-27 15:38:04.763101,-148
2021-12-27 15:38:04.763111,-118
2021-12-27 15:38:04.763121,-97
2021-12-27 15:38:04.763130,-75
2021-12-27 15:38:04.763140,-77
2021-12-27 15:38:04.763149,-88
2021-12-27 15:38:04.763159,-59
2021-12-27 15:38:04.763168,-31
2021-12-27 15:38:05.006779,-27
2021-12-27 15:38:05.006810,-13
2021-12-27 15:38:05.006822,-20
2021-12-27 15:38:05.006832,-54
2021-12-27 15:38:05.006841,-61
2021-12-27 15:38:05.006851,-34
2021-12-27 15:38:05.006861,-18
2021-12-27 15:38:05.006870,-20
2021-12-27 15:38:05.006880,-27
2021-12-27 15:38:05.006889,-88
2021-12-27 15:38:05.006899,-141
2021-12-27 15:38:05.006909,-116
2021-12-27 15:38:05.006918,-113
2021-12-27 15:38:05.006928,-136
2021-12-27 15:38:05.006937,-129
2021-12-27 15:38:05.006947,-154
2021-12-27 15:38:05.006956,-182
2021-12-27 15:38:05.006966,-157
2021-12-27 15:38:05.006975,-127
2021-12-27 15:38:05.006990,-120
2021-12-27 15:38:05.006999,-125
2021-12-27 15:38:05.007009,-161
2021-12-27 15:38:05.007019,-191
2021-12-27 15:38:05.007028,-166
2021-12-27 15:38:05.007038,-129
2021-12-27 15:38:05.007048,-134
2021-12-27 15:38:05.007057,-127
2021-12-27 15:38:05.007067,-111
2021-12-27 15:38:05.007076,-113
2021-12-27 15:38:05.007086,-107
2021-12-27 15:38:05.201636,-116
2021-12-27 15:38:05.201659,-138
2021-12-27 15:38:05.201666,-118
2021-12-27 15:38:05.201673,-116
2021-12-27 15:38:05.201679,-132
2021-12-27 15:38:05.201685,-120
2021-12-27 15:38:05.201691,-97
2021-12-27 15:38:05.201698,-82
2021-12-27 15:38:05.201704,-75
2021-12-27 15:38:05.201710,-70
2021-12-27 15:38:05.201716,-75
2021-12-27 15:38:05.201723,-104
2021-12-27 15:38:05.201729,-91
2021-12-27 15:38:05.201735,-43
2021-12-27 15:38:05.201741,15
2021-12-27 15:38:05.201748,209
2021-12-27 15:38:05.201754,480
2021-12-27 15:38:05.201761,485
2021-12-27 15:38:05.201767,18
2021-12-27 15:38:05.201773,-555
2021-12-27 15:38:05.201779,-576
2021-12-27 15:38:05.201786,-173
2021-12-27 15:38:05.201792,-34
2021-12-27 15:38:05.201798,-100
2021-12-27 15:38:05.201804,-20
2021-12-27 15:38:05.201811,72
2021-12-27 15:38:05.201817,52
2021-12-27 15:38:05.201823,43
2021-12-27 15:38:05.201829,86
2021-12-27 15:38:05.201836,95
2021-12-27 15:38:05.494553,95
2021-12-27 15:38:05.494584,123
2021-12-27 15:38:05.494596,141
2021-12-27 15:38:05.494605,150
2021-12-27 15:38:05.494615,164
2021-12-27 15:38:05.494625,173
2021-12-27 15:38:05.494634,159
2021-12-27 15:38:05.494644,152
2021-12-27 15:38:05.494653,195
2021-12-27 15:38:05.494663,230
2021-12-27 15:38:05.494705,243
2021-12-27 15:38:05.494715,284
2021-12-27 15:38:05.494725,291
2021-12-27 15:38:05.494734,266
2021-12-27 15:38:05.494744,275
2021-12-27 15:38:05.494753,277
2021-12-27 15:38:05.494763,252
2021-12-27 15:38:05.494772,216
2021-12-27 15:38:05.494782,154
2021-12-27 15:38:05.494792,68
2021-12-27 15:38:05.494801,-13
2021-12-27 15:38:05.494811,-59
2021-12-27 15:38:05.494821,-88
2021-12-27 15:38:05.494830,-107
2021-12-27 15:38:05.494840,-109
2021-12-27 15:38:05.494850,-129
2021-12-27 15:38:05.494859,-145
2021-12-27 15:38:05.494869,-129
2021-12-27 15:38:05.494878,-113
2021-12-27 15:38:05.494888,-91
2021-12-27 15:38:05.640723,-75
2021-12-27 15:38:05.640752,-70
2021-12-27 15:38:05.640764,-70
2021-12-27 15:38:05.640774,-70
2021-12-27 15:38:05.640784,-56
2021-12-27 15:38:05.640794,-75
2021-12-27 15:38:05.640804,-111
2021-12-27 15:38:05.640813,-100
2021-12-27 15:38:05.640823,-93
2021-12-27 15:38:05.640833,-107
2021-12-27 15:38:05.640842,-84
2021-12-27 15:38:05.640852,-54
2021-12-27 15:38:05.640861,-38
2021-12-27 15:38:05.640871,-45
2021-12-27 15:38:05.640880,-91
2021-12-27 15:38:05.640890,-136
2021-12-27 15:38:05.640900,-120
2021-12-27 15:38:05.640909,-84
2021-12-27 15:38:05.640919,-79
2021-12-27 15:38:05.640928,-82
2021-12-27 15:38:05.640938,-102
2021-12-27 15:38:05.640947,-166
2021-12-27 15:38:05.640957,-177
2021-12-27 15:38:05.640966,-148
2021-12-27 15:38:05.640975,-161
2021-12-27 15:38:05.640985,-161
2021-12-27 15:38:05.640995,-145
2021-12-27 15:38:05.641004,-180
2021-12-27 15:38:05.641014,-198
2021-12-27 15:38:05.641023,-166
2021-12-27 15:38:05.932963,-132
2021-12-27 15:38:05.932986,-127
2021-12-27 15:38:05.932994,-141
2021-12-27 15:38:05.933000,-186
2021-12-27 15:38:05.933006,-218
2021-12-27 15:38:05.933013,-175
2021-12-27 15:38:05.933019,-129
2021-12-27 15:38:05.933025,-120
2021-12-27 15:38:05.933031,-97
2021-12-27 15:38:05.933038,-104
2021-12-27 15:38:05.933044,-138
2021-12-27 15:38:05.933050,-120
2021-12-27 15:38:05.933057,-100
2021-12-27 15:38:05.933063,-95
2021-12-27 15:38:05.933069,-84
2021-12-27 15:38:05.933075,-84
2021-12-27 15:38:05.933082,-91
2021-12-27 15:38:05.933088,-86
2021-12-27 15:38:05.933094,-61
2021-12-27 15:38:05.933100,-41
2021-12-27 15:38:05.933106,-41
2021-12-27 15:38:05.933113,-34
2021-12-27 15:38:05.933119,-18
2021-12-27 15:38:05.933125,107
2021-12-27 15:38:05.933132,396
2021-12-27 15:38:05.933138,574
2021-12-27 15:38:05.933144,357
2021-12-27 15:38:05.933151,-184
2021-12-27 15:38:05.933157,-546
2021-12-27 15:38:05.933163,-350
2021-12-27 15:38:06.127922,-56
2021-12-27 15:38:06.127946,-38
2021-12-27 15:38:06.127953,-9
2021-12-27 15:38:06.127960,79
2021-12-27 15:38:06.127966,63
2021-12-27 15:38:06.127972,11
2021-12-27 15:38:06.127979,27
2021-12-27 15:38:06.127985,72
2021-12-27 15:38:06.127991,77
2021-12-27 15:38:06.127997,82
2021-12-27 15:38:06.128003,102
2021-12-27 15:38:06.128010,86
2021-12-27 15:38:06.128016,59
2021-12-27 15:38:06.128022,84
2021-12-27 15:38:06.128028,129
2021-12-27 15:38:06.128035,143
2021-12-27 15:38:06.128041,154
2021-12-27 15:38:06.128047,175
2021-12-27 15:38:06.128053,173
2021-12-27 15:38:06.128059,198
2021-12-27 15:38:06.128066,255
2021-12-27 15:38:06.128072,264
2021-12-27 15:38:06.128078,271
2021-12-27 15:38:06.128084,287
2021-12-27 15:38:06.128091,262
2021-12-27 15:38:06.128097,232
2021-12-27 15:38:06.128103,195
2021-12-27 15:38:06.128109,123
2021-12-27 15:38:06.128116,45
2021-12-27 15:38:06.128122,-11
2021-12-27 15:38:06.419364,-54
2021-12-27 15:38:06.419394,-116
2021-12-27 15:38:06.419405,-166
2021-12-27 15:38:06.419415,-161
2021-12-27 15:38:06.419425,-145
2021-12-27 15:38:06.419434,-132
2021-12-27 15:38:06.419444,-138
2021-12-27 15:38:06.419454,-164
2021-12-27 15:38:06.419463,-150
2021-12-27 15:38:06.419473,-125
2021-12-27 15:38:06.419482,-109
2021-12-27 15:38:06.419492,-82
2021-12-27 15:38:06.419502,-82
2021-12-27 15:38:06.419511,-107
2021-12-27 15:38:06.419521,-111
2021-12-27 15:38:06.419531,-88
2021-12-27 15:38:06.419540,-66
2021-12-27 15:38:06.419550,-56
2021-12-27 15:38:06.419559,-38
2021-12-27 15:38:06.419569,-36
2021-12-27 15:38:06.419578,-47
2021-12-27 15:38:06.419588,-43
2021-12-27 15:38:06.419598,-52
2021-12-27 15:38:06.419607,-63
2021-12-27 15:38:06.419616,-45
2021-12-27 15:38:06.419626,-45
2021-12-27 15:38:06.419636,-59
2021-12-27 15:38:06.419645,-63
2021-12-27 15:38:06.419655,-61
2021-12-27 15:38:06.419664,-70
2021-12-27 15:38:06.566106,-84
2021-12-27 15:38:06.566122,-95
2021-12-27 15:38:06.566129,-136
2021-12-27 15:38:06.566134,-189
2021-12-27 15:38:06.566139,-184
2021-12-27 15:38:06.566144,-154
2021-12-27 15:38:06.566149,-136
2021-12-27 15:38:06.566154,-132
2021-12-27 15:38:06.566159,-161
2021-12-27 15:38:06.566164,-191
2021-12-27 15:38:06.566170,-170
2021-12-27 15:38:06.566175,-136
2021-12-27 15:38:06.566180,-125
2021-12-27 15:38:06.566185,-125
2021-12-27 15:38:06.566190,-143
2021-12-27 15:38:06.566195,-191
2021-12-27 15:38:06.566200,-223
2021-12-27 15:38:06.566205,-218
2021-12-27 15:38:06.566210,-191
2021-12-27 15:38:06.566215,-143
2021-12-27 15:38:06.566220,-118
2021-12-27 15:38:06.566225,-136
2021-12-27 15:38:06.566230,-136
2021-12-27 15:38:06.566235,-113
2021-12-27 15:38:06.566240,-100
2021-12-27 15:38:06.566245,-79
2021-12-27 15:38:06.566250,-75
2021-12-27 15:38:06.566255,-86
2021-12-27 15:38:06.566260,-88
2021-12-27 15:38:06.566265,-66
2021-12-27 15:38:06.810815,-38
2021-12-27 15:38:06.810846,-31
2021-12-27 15:38:06.810857,-25
2021-12-27 15:38:06.810867,-11
2021-12-27 15:38:06.810877,91
2021-12-27 15:38:06.810887,355
2021-12-27 15:38:06.810897,499
2021-12-27 15:38:06.810907,225
2021-12-27 15:38:06.810916,-330
2021-12-27 15:38:06.810926,-633
2021-12-27 15:38:06.810936,-380
2021-12-27 15:38:06.810945,-100
2021-12-27 15:38:06.810955,-102
2021-12-27 15:38:06.810964,-52
2021-12-27 15:38:06.810974,43
2021-12-27 15:38:06.810983,25
2021-12-27 15:38:06.810993,9
2021-12-27 15:38:06.811003,41
2021-12-27 15:38:06.811012,70
2021-12-27 15:38:06.811022,86
2021-12-27 15:38:06.811032,100
2021-12-27 15:38:06.811041,111
2021-12-27 15:38:06.811050,113
2021-12-27 15:38:06.811060,127
2021-12-27 15:38:06.811069,157
2021-12-27 15:38:06.811079,182
2021-12-27 15:38:06.811089,209
2021-12-27 15:38:06.811098,223
2021-12-27 15:38:06.811108,243
2021-12-27 15:38:06.811118,271
2021-12-27 15:38:07.054481,293
2021-12-27 15:38:07.054512,328
2021-12-27 15:38:07.054524,350
2021-12-27 15:38:07.054534,344
2021-12-27 15:38:07.054543,339
2021-12-27 15:38:07.054553,303
2021-12-27 15:38:07.054563,232
2021-12-27 15:38:07.054572,161
2021-12-27 15:38:07.054582,72
2021-12-27 15:38:07.054592,-9
2021-12-27 15:38:07.054602,-61
2021-12-27 15:38:07.054612,-123
2021-12-27 15:38:07.054621,-184
2021-12-27 15:38:07.054631,-202
2021-12-27 15:38:07.054641,-177
2021-12-27 15:38:07.054650,-173
2021-12-27 15:38:07.054660,-168
2021-12-27 15:38:07.054670,-136
2021-12-27 15:38:07.054680,-136
2021-12-27 15:38:07.054689,-132
2021-12-27 15:38:07.054699,-102
2021-12-27 15:38:07.054709,-95
2021-12-27 15:38:07.054719,-116
2021-12-27 15:38:07.054728,-145
2021-12-27 15:38:07.054738,-138
2021-12-27 15:38:07.054748,-107
2021-12-27 15:38:07.054758,-97
2021-12-27 15:38:07.054767,-93
2021-12-27 15:38:07.054777,-75
2021-12-27 15:38:07.054786,-54
2021-12-27 15:38:07.298060,-52
2021-12-27 15:38:07.298089,-82
2021-12-27 15:38:07.298101,-97
2021-12-27 15:38:07.298111,-84
2021-12-27 15:38:07.298120,-77
2021-12-27 15:38:07.298130,-59
2021-12-27 15:38:07.298139,-63
2021-12-27 15:38:07.298149,-116
2021-12-27 15:38:07.298158,-166
2021-12-27 15:38:07.298168,-198
2021-12-27 15:38:07.298178,-223
2021-12-27 15:38:07.298187,-225
2021-12-27 15:38:07.298197,-200
2021-12-27 15:38:07.298206,-202
2021-12-27 15:38:07.298216,-239
2021-12-27 15:38:07.298225,-232
2021-12-27 15:38:07.298235,-193
2021-12-27 15:38:07.298244,-180
2021-12-27 15:38:07.298254,-161
2021-12-27 15:38:07.298263,-152
2021-12-27 15:38:07.298273,-164
2021-12-27 15:38:07.298282,-157
2021-12-27 15:38:07.298292,-138
2021-12-27 15:38:07.298302,-118
2021-12-27 15:38:07.298311,-102
2021-12-27 15:38:07.298320,-93
2021-12-27 15:38:07.298330,-93
2021-12-27 15:38:07.298339,-107
2021-12-27 15:38:07.298349,-100
2021-12-27 15:38:07.298358,-77
2021-12-27 15:38:07.493408,-70
2021-12-27 15:38:07.493438,-61
2021-12-27 15:38:07.493450,-61
2021-12-27 15:38:07.493460,-70
2021-12-27 15:38:07.493470,-41
2021-12-27 15:38:07.493480,-6
2021-12-27 15:38:07.493489,13
2021-12-27 15:38:07.493499,18
2021-12-27 15:38:07.493509,-13
2021-12-27 15:38:07.493518,-61
2021-12-27 15:38:07.493528,-70
2021-12-27 15:38:07.493538,-56
2021-12-27 15:38:07.493548,-70
2021-12-27 15:38:07.493558,-68
2021-12-27 15:38:07.493568,-47
2021-12-27 15:38:07.493578,-84
2021-12-27 15:38:07.493587,-111
2021-12-27 15:38:07.493597,-63
2021-12-27 15:38:07.493607,-29
2021-12-27 15:38:07.493616,15
2021-12-27 15:38:07.493626,209
2021-12-27 15:38:07.493636,480
2021-12-27 15:38:07.493645,530
2021-12-27 15:38:07.493655,173
2021-12-27 15:38:07.493665,-369
2021-12-27 15:38:07.493674,-512
2021-12-27 15:38:07.493684,-168
2021-12-27 15:38:07.493694,31
2021-12-27 15:38:07.493704,-45
2021-12-27 15:38:07.493713,-27
2021-12-27 15:38:07.785775,52
2021-12-27 15:38:07.785805,50
2021-12-27 15:38:07.785816,59
2021-12-27 15:38:07.785826,72
2021-12-27 15:38:07.785836,38
2021-12-27 15:38:07.785846,34
2021-12-27 15:38:07.785855,75
2021-12-27 15:38:07.785865,102
2021-12-27 15:38:07.785875,111
2021-12-27 15:38:07.785884,123
2021-12-27 15:38:07.785894,123
2021-12-27 15:38:07.785904,111
2021-12-27 15:38:07.785913,134
2021-12-27 15:38:07.785923,166
2021-12-27 15:38:07.785933,157
2021-12-27 15:38:07.785943,177
2021-12-27 15:38:07.785953,225
2021-12-27 15:38:07.785963,241
2021-12-27 15:38:07.785972,259
2021-12-27 15:38:07.785982,284
2021-12-27 15:38:07.785992,289
2021-12-27 15:38:07.786002,271
2021-12-27 15:38:07.786011,236
2021-12-27 15:38:07.786021,182
2021-12-27 15:38:07.786030,104
2021-12-27 15:38:07.786040,41
2021-12-27 15:38:07.786050,-9
2021-12-27 15:38:07.786059,-66
2021-12-27 15:38:07.786069,-97
2021-12-27 15:38:07.786079,-107
2021-12-27 15:38:08.029875,-120
2021-12-27 15:38:08.029905,-107
2021-12-27 15:38:08.029917,-95
2021-12-27 15:38:08.029927,-100
2021-12-27 15:38:08.029937,-86
2021-12-27 15:38:08.029952,-75
2021-12-27 15:38:08.029962,-79
2021-12-27 15:38:08.029972,-70
2021-12-27 15:38:08.029982,-47
2021-12-27 15:38:08.029991,-41
2021-12-27 15:38:08.030001,-61
2021-12-27 15:38:08.030011,-70
2021-12-27 15:38:08.030020,-91
2021-12-27 15:38:08.030030,-111
2021-12-27 15:38:08.030040,-91
2021-12-27 15:38:08.030050,-100
2021-12-27 15:38:08.030059,-143
2021-12-27 15:38:08.030069,-152
2021-12-27 15:38:08.030079,-170
2021-12-27 15:38:08.030089,-211
2021-12-27 15:38:08.030099,-227
2021-12-27 15:38:08.030108,-214
2021-12-27 15:38:08.030118,-191
2021-12-27 15:38:08.030128,-180
2021-12-27 15:38:08.030137,-173
2021-12-27 15:38:08.030147,-173
2021-12-27 15:38:08.030157,-173
2021-12-27 15:38:08.030167,-159
2021-12-27 15:38:08.030176,-150
2021-12-27 15:38:08.030186,-134
2021-12-27 15:38:08.176144,-116
2021-12-27 15:38:08.176174,-123
2021-12-27 15:38:08.176186,-123
2021-12-27 15:38:08.176195,-120
2021-12-27 15:38:08.176205,-150
2021-12-27 15:38:08.176215,-182
2021-12-27 15:38:08.176224,-170
2021-12-27 15:38:08.176234,-166
2021-12-27 15:38:08.176244,-202
2021-12-27 15:38:08.176253,-207
2021-12-27 15:38:08.176263,-157
2021-12-27 15:38:08.176273,-134
2021-12-27 15:38:08.176282,-123
2021-12-27 15:38:08.176292,-109
2021-12-27 15:38:08.176301,-134
2021-12-27 15:38:08.176311,-150
2021-12-27 15:38:08.176320,-132
2021-12-27 15:38:08.176330,-129
2021-12-27 15:38:08.176339,-132
2021-12-27 15:38:08.176349,-113
2021-12-27 15:38:08.176359,-109
2021-12-27 15:38:08.176368,-136
2021-12-27 15:38:08.176378,-116
2021-12-27 15:38:08.176387,-70
2021-12-27 15:38:08.176397,-72
2021-12-27 15:38:08.176407,-77
2021-12-27 15:38:08.176416,-70
2021-12-27 15:38:08.176426,-86
2021-12-27 15:38:08.176436,-77
2021-12-27 15:38:08.176445,-45
2021-12-27 15:38:08.467235,-34
2021-12-27 15:38:08.467266,-20
2021-12-27 15:38:08.467278,-31
2021-12-27 15:38:08.467288,-72
2021-12-27 15:38:08.467297,-79
2021-12-27 15:38:08.467307,-27
2021-12-27 15:38:08.467317,111
2021-12-27 15:38:08.467327,378
2021-12-27 15:38:08.467336,585
2021-12-27 15:38:08.467346,371
2021-12-27 15:38:08.467356,-232
2021-12-27 15:38:08.467366,-599
2021-12-27 15:38:08.467375,-355
2021-12-27 15:38:08.467385,-29
2021-12-27 15:38:08.467395,-20
2021-12-27 15:38:08.467404,-31
2021-12-27 15:38:08.467414,59
2021-12-27 15:38:08.467424,84
2021-12-27 15:38:08.467434,70
2021-12-27 15:38:08.467443,88
2021-12-27 15:38:08.467453,75
2021-12-27 15:38:08.467463,56
2021-12-27 15:38:08.467472,77
2021-12-27 15:38:08.467482,97
2021-12-27 15:38:08.467492,125
2021-12-27 15:38:08.467501,154
2021-12-27 15:38:08.467511,168
2021-12-27 15:38:08.467520,182
2021-12-27 15:38:08.467530,189
2021-12-27 15:38:08.467540,209
2021-12-27 15:38:08.662816,250
2021-12-27 15:38:08.662847,284
2021-12-27 15:38:08.662858,314
2021-12-27 15:38:08.662868,325
2021-12-27 15:38:08.662878,316
2021-12-27 15:38:08.662888,300
2021-12-27 15:38:08.662897,296
2021-12-27 15:38:08.662907,314
2021-12-27 15:38:08.662916,293
2021-12-27 15:38:08.662926,198
2021-12-27 15:38:08.662936,68
2021-12-27 15:38:08.662946,-47
2021-12-27 15:38:08.662955,-107
2021-12-27 15:38:08.662965,-127
2021-12-27 15:38:08.662975,-161
2021-12-27 15:38:08.662985,-186
2021-12-27 15:38:08.662994,-186
2021-12-27 15:38:08.663004,-193
2021-12-27 15:38:08.663013,-211
2021-12-27 15:38:08.663023,-200
2021-12-27 15:38:08.663033,-168
2021-12-27 15:38:08.663043,-182
2021-12-27 15:38:08.663052,-207
2021-12-27 15:38:08.663062,-189
2021-12-27 15:38:08.663071,-195
2021-12-27 15:38:08.663081,-205
2021-12-27 15:38:08.663091,-184
2021-12-27 15:38:08.663101,-193
2021-12-27 15:38:08.663110,-198
2021-12-27 15:38:08.663120,-173
2021-12-27 15:38:08.907088,-166
2021-12-27 15:38:08.907118,-159
2021-12-27 15:38:08.907130,-148
2021-12-27 15:38:08.907140,-141
2021-12-27 15:38:08.907149,-134
2021-12-27 15:38:08.907159,-123
2021-12-27 15:38:08.907169,-136
2021-12-27 15:38:08.907178,-170
2021-12-27 15:38:08.907188,-154
2021-12-27 15:38:08.907198,-127
2021-12-27 15:38:08.907207,-132
2021-12-27 15:38:08.907217,-113
2021-12-27 15:38:08.907227,-113
2021-12-27 15:38:08.907236,-148
2021-12-27 15:38:08.907246,-145
2021-12-27 15:38:08.907256,-123
2021-12-27 15:38:08.907265,-109
2021-12-27 15:38:08.907275,-93
2021-12-27 15:38:08.907285,-84
2021-12-27 15:38:08.907294,-82
2021-12-27 15:38:08.907304,-86
2021-12-27 15:38:08.907314,-77
2021-12-27 15:38:08.907323,-61
2021-12-27 15:38:08.907333,-68
2021-12-27 15:38:08.907342,-86
2021-12-27 15:38:08.907352,-93
2021-12-27 15:38:08.907362,-84
2021-12-27 15:38:08.907371,-72
2021-12-27 15:38:08.907381,-61
2021-12-27 15:38:08.907390,-38
2021-12-27 15:38:09.102384,-29
2021-12-27 15:38:09.102414,-43
2021-12-27 15:38:09.102425,-56
2021-12-27 15:38:09.102435,-56
2021-12-27 15:38:09.102445,-29
2021-12-27 15:38:09.102455,6
2021-12-27 15:38:09.102465,27
2021-12-27 15:38:09.102474,34
2021-12-27 15:38:09.102484,-2
2021-12-27 15:38:09.102494,-36
2021-12-27 15:38:09.102503,-15
2021-12-27 15:38:09.102513,-2
2021-12-27 15:38:09.102522,-2
2021-12-27 15:38:09.102532,6
2021-12-27 15:38:09.102542,-15
2021-12-27 15:38:09.102551,-75
2021-12-27 15:38:09.102561,-118
2021-12-27 15:38:09.102571,-109
2021-12-27 15:38:09.102580,-77
2021-12-27 15:38:09.102590,-61
2021-12-27 15:38:09.102600,-54
2021-12-27 15:38:09.102609,-54
2021-12-27 15:38:09.102619,52
2021-12-27 15:38:09.102629,346
2021-12-27 15:38:09.102638,578
2021-12-27 15:38:09.102648,410
2021-12-27 15:38:09.102657,-173
2021-12-27 15:38:09.102667,-626
2021-12-27 15:38:09.102677,-430
2021-12-27 15:38:09.102686,-66
2021-12-27 15:38:09.345051,-34
2021-12-27 15:38:09.345071,-27
2021-12-27 15:38:09.345079,79
2021-12-27 15:38:09.345085,54
2021-12-27 15:38:09.345092,-18
2021-12-27 15:38:09.345098,29
2021-12-27 15:38:09.345104,88
2021-12-27 15:38:09.345110,82
2021-12-27 15:38:09.345117,97
2021-12-27 15:38:09.345123,100
2021-12-27 15:38:09.345129,61
2021-12-27 15:38:09.345135,79
2021-12-27 15:38:09.345142,132
2021-12-27 15:38:09.345148,157
2021-12-27 15:38:09.345154,175
2021-12-27 15:38:09.345161,191
2021-12-27 15:38:09.345167,205
2021-12-27 15:38:09.345173,232
2021-12-27 15:38:09.345179,273
2021-12-27 15:38:09.345186,314
2021-12-27 15:38:09.345192,325
2021-12-27 15:38:09.345198,328
2021-12-27 15:38:09.345204,323
2021-12-27 15:38:09.345211,307
2021-12-27 15:38:09.345217,300
2021-12-27 15:38:09.345224,266
2021-12-27 15:38:09.345230,170
2021-12-27 15:38:09.345236,45
2021-12-27 15:38:09.345242,-66
2021-12-27 15:38:09.345249,-123
2021-12-27 15:38:09.589550,-145
2021-12-27 15:38:09.589580,-159
2021-12-27 15:38:09.589591,-173
2021-12-27 15:38:09.589601,-207
2021-12-27 15:38:09.589611,-223
2021-12-27 15:38:09.589621,-246
2021-12-27 15:38:09.589630,-280
2021-12-27 15:38:09.589640,-248
2021-12-27 15:38:09.589649,-209
2021-12-27 15:38:09.589659,-209
2021-12-27 15:38:09.589668,-195
2021-12-27 15:38:09.589678,-198
2021-12-27 15:38:09.589688,-218
2021-12-27 15:38:09.589697,-193
2021-12-27 15:38:09.589706,-157
2021-12-27 15:38:09.589716,-150
2021-12-27 15:38:09.589725,-145
2021-12-27 15:38:09.589735,-125
2021-12-27 15:38:09.589744,-123
2021-12-27 15:38:09.589754,-120
2021-12-27 15:38:09.589763,-113
2021-12-27 15:38:09.589773,-164
2021-12-27 15:38:09.589782,-195
2021-12-27 15:38:09.589792,-152
2021-12-27 15:38:09.589801,-136
2021-12-27 15:38:09.589811,-138
2021-12-27 15:38:09.589820,-123
2021-12-27 15:38:09.589830,-116
2021-12-27 15:38:09.589839,-109
2021-12-27 15:38:09.589849,-109
2021-12-27 15:38:09.833215,-132
2021-12-27 15:38:09.833245,-143
2021-12-27 15:38:09.833257,-127
2021-12-27 15:38:09.833268,-109
2021-12-27 15:38:09.833278,-104
2021-12-27 15:38:09.833288,-79
2021-12-27 15:38:09.833298,-72
2021-12-27 15:38:09.833308,-113
2021-12-27 15:38:09.833318,-120
2021-12-27 15:38:09.833327,-93
2021-12-27 15:38:09.833337,-79
2021-12-27 15:38:09.833347,-54
2021-12-27 15:38:09.833357,-43
2021-12-27 15:38:09.833367,-75
2021-12-27 15:38:09.833377,-107
2021-12-27 15:38:09.833386,-100
2021-12-27 15:38:09.833396,-77
2021-12-27 15:38:09.833406,-59
2021-12-27 15:38:09.833416,-31
2021-12-27 15:38:09.833425,-11
2021-12-27 15:38:09.833435,-18
2021-12-27 15:38:09.833445,-6
2021-12-27 15:38:09.833455,18
2021-12-27 15:38:09.833465,20
2021-12-27 15:38:09.833474,15
2021-12-27 15:38:09.833484,15
2021-12-27 15:38:09.833494,11
2021-12-27 15:38:09.833504,2
2021-12-27 15:38:09.833514,9
2021-12-27 15:38:09.833523,36
2021-12-27 15:38:10.077002,47
2021-12-27 15:38:10.077032,38
2021-12-27 15:38:10.077044,15
2021-12-27 15:38:10.077054,-2
2021-12-27 15:38:10.077064,29
2021-12-27 15:38:10.077073,136
2021-12-27 15:38:10.077083,382
2021-12-27 15:38:10.077093,658
2021-12-27 15:38:10.077102,546
2021-12-27 15:38:10.077112,-59
2021-12-27 15:38:10.077121,-571
2021-12-27 15:38:10.077131,-421
2021-12-27 15:38:10.077141,-20
2021-12-27 15:38:10.077150,34
2021-12-27 15:38:10.077160,-13
2021-12-27 15:38:10.077170,59
2021-12-27 15:38:10.077179,79
2021-12-27 15:38:10.077189,72
2021-12-27 15:38:10.077198,111
2021-12-27 15:38:10.077208,138
2021-12-27 15:38:10.077217,138
2021-12-27 15:38:10.077227,123
2021-12-27 15:38:10.077237,129
2021-12-27 15:38:10.077246,164
2021-12-27 15:38:10.077256,186
2021-12-27 15:38:10.077265,211
2021-12-27 15:38:10.077275,218
2021-12-27 15:38:10.077284,170
2021-12-27 15:38:10.077294,138
2021-12-27 15:38:10.077303,189
2021-12-27 15:38:10.369143,259
2021-12-27 15:38:10.369165,287
2021-12-27 15:38:10.369172,305
2021-12-27 15:38:10.369179,316
2021-12-27 15:38:10.369185,293
2021-12-27 15:38:10.369191,291
2021-12-27 15:38:10.369198,309
2021-12-27 15:38:10.369204,266
2021-12-27 15:38:10.369210,191
2021-12-27 15:38:10.369216,113
2021-12-27 15:38:10.369222,11
2021-12-27 15:38:10.369228,-88
2021-12-27 15:38:10.369235,-136
2021-12-27 15:38:10.369241,-159
2021-12-27 15:38:10.369247,-211
2021-12-27 15:38:10.369253,-257
2021-12-27 15:38:10.369259,-287
2021-12-27 15:38:10.369265,-323
2021-12-27 15:38:10.369271,-298
2021-12-27 15:38:10.369277,-250
2021-12-27 15:38:10.369284,-248
2021-12-27 15:38:10.369290,-241
2021-12-27 15:38:10.369296,-221
2021-12-27 15:38:10.369302,-211
2021-12-27 15:38:10.369308,-191
2021-12-27 15:38:10.369314,-164
2021-12-27 15:38:10.369320,-148
2021-12-27 15:38:10.369327,-145
2021-12-27 15:38:10.369333,-136
2021-12-27 15:38:10.369339,-118
2021-12-27 15:38:10.611323,-120
2021-12-27 15:38:10.611340,-111
2021-12-27 15:38:10.611347,-88
2021-12-27 15:38:10.611354,-91
2021-12-27 15:38:10.611360,-79
2021-12-27 15:38:10.611366,-70
2021-12-27 15:38:10.611372,-97
2021-12-27 15:38:10.611378,-100
2021-12-27 15:38:10.611384,-79
2021-12-27 15:38:10.611390,-79
2021-12-27 15:38:10.611397,-79
2021-12-27 15:38:10.611403,-72
2021-12-27 15:38:10.611409,-93
2021-12-27 15:38:10.611415,-118
2021-12-27 15:38:10.611421,-88
2021-12-27 15:38:10.611427,-66
2021-12-27 15:38:10.611434,-72
2021-12-27 15:38:10.611440,-56
2021-12-27 15:38:10.611446,-70
2021-12-27 15:38:10.611452,-100
2021-12-27 15:38:10.611458,-84
2021-12-27 15:38:10.611464,-75
2021-12-27 15:38:10.611470,-70
2021-12-27 15:38:10.611476,-47
2021-12-27 15:38:10.611482,-59
2021-12-27 15:38:10.611489,-75
2021-12-27 15:38:10.611495,-50
2021-12-27 15:38:10.611501,-25
2021-12-27 15:38:10.611507,-25
2021-12-27 15:38:10.611514,-29
2021-12-27 15:38:10.856700,-25
2021-12-27 15:38:10.856722,-38
2021-12-27 15:38:10.856730,-79
2021-12-27 15:38:10.856736,-113
2021-12-27 15:38:10.856743,-102
2021-12-27 15:38:10.856749,-59
2021-12-27 15:38:10.856755,-41
2021-12-27 15:38:10.856761,-50
2021-12-27 15:38:10.856768,-59
2021-12-27 15:38:10.856774,-63
2021-12-27 15:38:10.856780,6
2021-12-27 15:38:10.856786,232
2021-12-27 15:38:10.856793,514
2021-12-27 15:38:10.856799,533
2021-12-27 15:38:10.856805,43
2021-12-27 15:38:10.856812,-574
2021-12-27 15:38:10.856818,-578
2021-12-27 15:38:10.856824,-143
2021-12-27 15:38:10.856830,-9
2021-12-27 15:38:10.856837,-77
2021-12-27 15:38:10.856843,-9
2021-12-27 15:38:10.856849,38
2021-12-27 15:38:10.856855,15
2021-12-27 15:38:10.856862,52
2021-12-27 15:38:10.856868,93
2021-12-27 15:38:10.856874,88
2021-12-27 15:38:10.856880,91
2021-12-27 15:38:10.856887,93
2021-12-27 15:38:10.856893,102
2021-12-27 15:38:10.856899,141
2021-12-27 15:38:10.954828,170
2021-12-27 15:38:10.954858,193
2021-12-27 15:38:10.954869,202
2021-12-27 15:38:10.954879,193
2021-12-27 15:38:10.954888,221
2021-12-27 15:38:10.954898,271
2021-12-27 15:38:10.954907,309
2021-12-27 15:38:10.954917,339
2021-12-27 15:38:10.954927,357
2021-12-27 15:38:10.954936,353
2021-12-27 15:38:10.954946,323
2021-12-27 15:38:10.954956,303
2021-12-27 15:38:10.954965,300
2021-12-27 15:38:10.954975,262
2021-12-27 15:38:10.954985,182
2021-12-27 15:38:10.954995,63
2021-12-27 15:38:10.955005,-50
2021-12-27 15:38:10.955014,-86
2021-12-27 15:38:10.955024,-102
2021-12-27 15:38:10.955034,-127
2021-12-27 15:38:10.955043,-129
2021-12-27 15:38:10.955053,-150
2021-12-27 15:38:10.955063,-184
2021-12-27 15:38:10.955072,-195
2021-12-27 15:38:10.955082,-177
2021-12-27 15:38:10.955092,-145
2021-12-27 15:38:10.955101,-136
2021-12-27 15:38:10.955111,-145
2021-12-27 15:38:10.955121,-168
2021-12-27 15:38:10.955130,-193
2021-12-27 15:38:11.198575,-182
2021-12-27 15:38:11.198604,-166
2021-12-27 15:38:11.198616,-180
2021-12-27 15:38:11.198626,-200
2021-12-27 15:38:11.198635,-223
2021-12-27 15:38:11.198645,-232
2021-12-27 15:38:11.198654,-211
2021-12-27 15:38:11.198664,-211
2021-12-27 15:38:11.198753,-255
2021-12-27 15:38:11.198764,-273
2021-12-27 15:38:11.198774,-257
2021-12-27 15:38:11.198783,-287
2021-12-27 15:38:11.198793,-321
2021-12-27 15:38:11.198802,-282
2021-12-27 15:38:11.198812,-248
2021-12-27 15:38:11.198821,-250
2021-12-27 15:38:11.198831,-239
2021-12-27 15:38:11.198840,-230
2021-12-27 15:38:11.198850,-214
2021-12-27 15:38:11.198859,-186
2021-12-27 15:38:11.198868,-173
2021-12-27 15:38:11.198878,-164
2021-12-27 15:38:11.198887,-152
2021-12-27 15:38:11.198897,-143
2021-12-27 15:38:11.198906,-145
2021-12-27 15:38:11.198916,-143
2021-12-27 15:38:11.198925,-123
2021-12-27 15:38:11.198935,-123
2021-12-27 15:38:11.198945,-111
2021-12-27 15:38:11.198954,-82
2021-12-27 15:38:11.490879,-72
2021-12-27 15:38:11.490943,-50
2021-12-27 15:38:11.490954,-29
2021-12-27 15:38:11.490964,-36
2021-12-27 15:38:11.490974,-41
2021-12-27 15:38:11.490984,-52
2021-12-27 15:38:11.490994,-86
2021-12-27 15:38:11.491004,-100
2021-12-27 15:38:11.491013,-77
2021-12-27 15:38:11.491023,-56
2021-12-27 15:38:11.491032,-52
2021-12-27 15:38:11.491042,-38
2021-12-27 15:38:11.491051,-50
2021-12-27 15:38:11.491061,-95
2021-12-27 15:38:11.491070,-104
2021-12-27 15:38:11.491080,-56
2021-12-27 15:38:11.491089,104
2021-12-27 15:38:11.491099,403
2021-12-27 15:38:11.491109,551
2021-12-27 15:38:11.491118,271
2021-12-27 15:38:11.491128,-316
2021-12-27 15:38:11.491137,-619
2021-12-27 15:38:11.491147,-319
2021-12-27 15:38:11.491156,-20
2021-12-27 15:38:11.491166,-47
2021-12-27 15:38:11.491175,-18
2021-12-27 15:38:11.491185,84
2021-12-27 15:38:11.491194,72
2021-12-27 15:38:11.491204,54
2021-12-27 15:38:11.491213,95
2021-12-27 15:38:11.637066,120
2021-12-27 15:38:11.637096,109
2021-12-27 15:38:11.637107,113
2021-12-27 15:38:11.637117,132
2021-12-27 15:38:11.637127,145
2021-12-27 15:38:11.637136,175
2021-12-27 15:38:11.637146,198
2021-12-27 15:38:11.637155,200
2021-12-27 15:38:11.637165,189
2021-12-27 15:38:11.637174,182
2021-12-27 15:38:11.637184,225
2021-12-27 15:38:11.637193,275
2021-12-27 15:38:11.637203,303
2021-12-27 15:38:11.637212,323
2021-12-27 15:38:11.637222,293
2021-12-27 15:38:11.637231,246
2021-12-27 15:38:11.637241,236
2021-12-27 15:38:11.637250,227
2021-12-27 15:38:11.637259,207
2021-12-27 15:38:11.637269,164
2021-12-27 15:38:11.637278,63
2021-12-27 15:38:11.637288,-56
2021-12-27 15:38:11.637298,-120
2021-12-27 15:38:11.637307,-129
2021-12-27 15:38:11.637317,-145
2021-12-27 15:38:11.637326,-164
2021-12-27 15:38:11.637336,-161
2021-12-27 15:38:11.637345,-177
2021-12-27 15:38:11.637355,-170
2021-12-27 15:38:11.637364,-129
2021-12-27 15:38:11.880755,-111
2021-12-27 15:38:11.880785,-95
2021-12-27 15:38:11.880796,-93
2021-12-27 15:38:11.880806,-129
