Time,ECG
2021-12-27 15:32:41.008518,-312
2021-12-27 15:32:41.008549,-414
2021-12-27 15:32:41.008561,-549
2021-12-27 15:32:41.008570,-665
2021-12-27 15:32:41.008580,-651
2021-12-27 15:32:41.008591,-524
2021-12-27 15:32:41.008600,-387
2021-12-27 15:32:41.008610,-248
2021-12-27 15:32:41.008619,-138
2021-12-27 15:32:41.008630,-54
2021-12-27 15:32:41.008639,129
2021-12-27 15:32:41.008649,357
2021-12-27 15:32:41.008659,471
2021-12-27 15:32:41.008668,530
2021-12-27 15:32:41.008678,403
2021-12-27 15:32:41.008688,291
2021-12-27 15:32:41.008697,558
2021-12-27 15:32:41.008707,526
2021-12-27 15:32:41.008717,54
2021-12-27 15:32:41.008727,-123
2021-12-27 15:32:41.008736,-93
2021-12-27 15:32:41.008746,-168
2021-12-27 15:32:41.008756,-173
2021-12-27 15:32:41.008765,-118
2021-12-27 15:32:41.008775,-198
2021-12-27 15:32:41.008784,-321
2021-12-27 15:32:41.008795,-414
2021-12-27 15:32:41.008805,-503
2021-12-27 15:32:41.008814,-524
2021-12-27 15:32:41.008824,-485
2021-12-27 15:32:41.155563,-462
2021-12-27 15:32:41.155593,-446
2021-12-27 15:32:41.155605,-458
2021-12-27 15:32:41.155614,-535
2021-12-27 15:32:41.155624,-574
2021-12-27 15:32:41.155634,-510
2021-12-27 15:32:41.155644,-423
2021-12-27 15:32:41.155654,-391
2021-12-27 15:32:41.155663,-394
2021-12-27 15:32:41.155673,-282
2021-12-27 15:32:41.155682,-54
2021-12-27 15:32:41.155692,27
2021-12-27 15:32:41.155701,-127
2021-12-27 15:32:41.155711,-328
2021-12-27 15:32:41.155721,-451
2021-12-27 15:32:41.155730,-526
2021-12-27 15:32:41.155740,-587
2021-12-27 15:32:41.155750,-610
2021-12-27 15:32:41.155760,-585
2021-12-27 15:32:41.155769,-672
2021-12-27 15:32:41.155779,-1027
2021-12-27 15:32:41.155788,-1462
2021-12-27 15:32:41.155797,-1572
2021-12-27 15:32:41.155807,-1271
2021-12-27 15:32:41.155817,-1013
2021-12-27 15:32:41.155826,-1050
2021-12-27 15:32:41.155835,-1121
2021-12-27 15:32:41.155845,-1159
2021-12-27 15:32:41.155854,-1248
2021-12-27 15:32:41.155868,-1235
2021-12-27 15:32:41.399537,-1057
2021-12-27 15:32:41.399567,-854
2021-12-27 15:32:41.399578,-309
2021-12-27 15:32:41.399588,1385
2021-12-27 15:32:41.399756,-1629
2021-12-27 15:32:41.739732,-7241
2021-12-27 15:32:41.739761,-10133
2021-12-27 15:32:41.739772,-11532
2021-12-27 15:32:41.739782,-12183
2021-12-27 15:32:41.739792,-12354
2021-12-27 15:32:41.739801,-12038
2021-12-27 15:32:41.739811,-12388
2021-12-27 15:32:41.739820,-12550
2021-12-27 15:32:41.739837,-11434
2021-12-27 15:32:41.739846,-10566
2021-12-27 15:32:41.739856,-10515
2021-12-27 15:32:41.739865,-10324
2021-12-27 15:32:41.739875,-9802
2021-12-27 15:32:41.739885,-9429
2021-12-27 15:32:41.739894,-9050
2021-12-27 15:32:41.739904,-8376
2021-12-27 15:32:41.739913,-7783
2021-12-27 15:32:41.739922,-7462
2021-12-27 15:32:41.739932,-7291
2021-12-27 15:32:41.739941,-7186
2021-12-27 15:32:41.739951,-7116
2021-12-27 15:32:41.739960,-6970
2021-12-27 15:32:41.739970,-6710
2021-12-27 15:32:41.739979,-6555
2021-12-27 15:32:41.739990,-6482
2021-12-27 15:32:41.740000,-6348
2021-12-27 15:32:41.740009,-6122
2021-12-27 15:32:41.740019,-5849
2021-12-27 15:32:41.740028,-5682
2021-12-27 15:32:41.740038,-5637
2021-12-27 15:32:41.837442,-5628
2021-12-27 15:32:41.837471,-5534
2021-12-27 15:32:41.837483,-5304
2021-12-27 15:32:41.837492,-5129
2021-12-27 15:32:41.837502,-5079
2021-12-27 15:32:41.837511,-5092
2021-12-27 15:32:41.837521,-5104
2021-12-27 15:32:41.837531,-4951
2021-12-27 15:32:41.837540,-4730
2021-12-27 15:32:41.837549,-4555
2021-12-27 15:32:41.837559,-4343
2021-12-27 15:32:41.837569,-4397
2021-12-27 15:32:41.837601,-4926
2021-12-27 15:32:41.837611,-5329
2021-12-27 15:32:41.837621,-5177
2021-12-27 15:32:41.837630,-4876
2021-12-27 15:32:41.837640,-4748
2021-12-27 15:32:41.837649,-4639
2021-12-27 15:32:41.837659,-4520
2021-12-27 15:32:41.837669,-4482
2021-12-27 15:32:41.837678,-4475
2021-12-27 15:32:41.837688,-4454
2021-12-27 15:32:41.837697,-4434
2021-12-27 15:32:41.837707,-4457
2021-12-27 15:32:41.837716,-4541
2021-12-27 15:32:41.837726,-4582
2021-12-27 15:32:41.837735,-4703
2021-12-27 15:32:41.837745,-4985
2021-12-27 15:32:41.837754,-5138
2021-12-27 15:32:41.837764,-5224
2021-12-27 15:32:42.080922,-5236
2021-12-27 15:32:42.080942,-4887
2021-12-27 15:32:42.080955,-4591
2021-12-27 15:32:42.080962,-4616
2021-12-27 15:32:42.080968,-4409
2021-12-27 15:32:42.080975,-4103
2021-12-27 15:32:42.080981,-4172
2021-12-27 15:32:42.080988,-4270
2021-12-27 15:32:42.080994,-4336
2021-12-27 15:32:42.081001,-4694
2021-12-27 15:32:42.081007,-5300
2021-12-27 15:32:42.081013,-5858
2021-12-27 15:32:42.081020,-6152
2021-12-27 15:32:42.081026,-6252
2021-12-27 15:32:42.081033,-6127
2021-12-27 15:32:42.081039,-5947
2021-12-27 15:32:42.081045,-6154
2021-12-27 15:32:42.081052,-6177
2021-12-27 15:32:42.081058,-5523
2021-12-27 15:32:42.081065,-4924
2021-12-27 15:32:42.081072,-4582
2021-12-27 15:32:42.081078,-4286
2021-12-27 15:32:42.081084,-4138
2021-12-27 15:32:42.081091,-4081
2021-12-27 15:32:42.081098,-4172
2021-12-27 15:32:42.081104,-4347
2021-12-27 15:32:42.081111,-4577
2021-12-27 15:32:42.081117,-4698
2021-12-27 15:32:42.081124,-4406
2021-12-27 15:32:42.081130,-4215
2021-12-27 15:32:42.325840,-4445
2021-12-27 15:32:42.325871,-4737
2021-12-27 15:32:42.325883,-4958
2021-12-27 15:32:42.325893,-4987
2021-12-27 15:32:42.325902,-5350
2021-12-27 15:32:42.325912,-6813
2021-12-27 15:32:42.325921,-7911
2021-12-27 15:32:42.325931,-7157
2021-12-27 15:32:42.325940,-5753
2021-12-27 15:32:42.325950,-4762
2021-12-27 15:32:42.325960,-4044
2021-12-27 15:32:42.325969,-3417
2021-12-27 15:32:42.325979,-2588
2021-12-27 15:32:42.325988,-1866
2021-12-27 15:32:42.325998,-2308
2021-12-27 15:32:42.326008,-4147
2021-12-27 15:32:42.326018,-7437
2021-12-27 15:32:42.326028,-12482
2021-12-27 15:32:42.326037,-17447
2021-12-27 15:32:42.326054,-18666
2021-12-27 15:32:42.326064,-18666
2021-12-27 15:32:42.326074,-18666
2021-12-27 15:32:42.326084,-16729
2021-12-27 15:32:42.326093,-10613
2021-12-27 15:32:42.326103,-3249
2021-12-27 15:32:42.326113,3825
2021-12-27 15:32:42.664505,765
2021-12-27 15:32:42.664518,-3103
2021-12-27 15:32:42.664525,-2285
2021-12-27 15:32:42.664532,2638
2021-12-27 15:32:42.664561,3921
2021-12-27 15:32:42.664567,701
2021-12-27 15:32:42.664574,-811
2021-12-27 15:32:42.664580,-1348
2021-12-27 15:32:42.664586,-1446
2021-12-27 15:32:42.664592,-1385
2021-12-27 15:32:42.664599,-1262
2021-12-27 15:32:42.664605,-1116
2021-12-27 15:32:42.664611,-1045
2021-12-27 15:32:42.664618,-961
2021-12-27 15:32:42.664624,-1025
2021-12-27 15:32:42.664630,-1280
2021-12-27 15:32:42.664637,-1096
2021-12-27 15:32:42.664643,-665
2021-12-27 15:32:42.664649,-549
2021-12-27 15:32:42.957770,-444
2021-12-27 15:32:42.957800,-344
2021-12-27 15:32:42.957814,-300
2021-12-27 15:32:42.957825,66
2021-12-27 15:32:42.957835,494
2021-12-27 15:32:42.957844,551
2021-12-27 15:32:42.957854,467
2021-12-27 15:32:42.957864,362
2021-12-27 15:32:42.957873,36
2021-12-27 15:32:42.957883,-341
2021-12-27 15:32:42.957892,-521
2021-12-27 15:32:42.957902,-610
2021-12-27 15:32:42.957911,-740
2021-12-27 15:32:42.957921,-847
2021-12-27 15:32:42.957931,-918
2021-12-27 15:32:42.957940,-1009
2021-12-27 15:32:42.957950,-970
2021-12-27 15:32:42.957959,-681
2021-12-27 15:32:42.957969,-505
2021-12-27 15:32:42.957979,-663
2021-12-27 15:32:42.957988,-811
2021-12-27 15:32:42.957998,-818
2021-12-27 15:32:42.958008,-970
2021-12-27 15:32:42.958017,-1264
2021-12-27 15:32:42.958027,-1171
2021-12-27 15:32:42.958036,-804
2021-12-27 15:32:42.958046,-922
2021-12-27 15:32:42.958055,-1412
2021-12-27 15:32:42.958065,-2000
2021-12-27 15:32:42.958075,-2898
2021-12-27 15:32:43.056045,-3572
2021-12-27 15:32:43.056076,-3495
2021-12-27 15:32:43.056087,-3242
2021-12-27 15:32:43.056098,-3381
2021-12-27 15:32:43.056114,-3301
2021-12-27 15:32:43.056124,-2504
2021-12-27 15:32:43.056133,-1936
2021-12-27 15:32:43.056143,-1950
2021-12-27 15:32:43.056153,-1834
2021-12-27 15:32:43.056162,-1613
2021-12-27 15:32:43.056172,-1581
2021-12-27 15:32:43.056182,-1526
2021-12-27 15:32:43.056191,-1266
2021-12-27 15:32:43.056201,-995
2021-12-27 15:32:43.056211,-820
2021-12-27 15:32:43.056220,-665
2021-12-27 15:32:43.056231,-622
2021-12-27 15:32:43.056240,-587
2021-12-27 15:32:43.056250,-366
2021-12-27 15:32:43.056259,-284
2021-12-27 15:32:43.056269,-656
2021-12-27 15:32:43.056279,-1034
2021-12-27 15:32:43.056289,-977
2021-12-27 15:32:43.056298,-861
2021-12-27 15:32:43.056308,-975
2021-12-27 15:32:43.056317,-1027
2021-12-27 15:32:43.056327,-1020
2021-12-27 15:32:43.056337,-1127
2021-12-27 15:32:43.056346,-1166
2021-12-27 15:32:43.056356,-1029
2021-12-27 15:32:43.251635,-909
2021-12-27 15:32:43.251666,-936
2021-12-27 15:32:43.251677,-970
2021-12-27 15:32:43.251687,-868
2021-12-27 15:32:43.251697,-679
2021-12-27 15:32:43.251706,-519
2021-12-27 15:32:43.251716,-464
2021-12-27 15:32:43.251725,-471
2021-12-27 15:32:43.251735,-410
2021-12-27 15:32:43.251745,-262
2021-12-27 15:32:43.251757,-95
2021-12-27 15:32:43.251767,4
2021-12-27 15:32:43.251776,-31
2021-12-27 15:32:43.251786,-113
2021-12-27 15:32:43.251795,-104
2021-12-27 15:32:43.251805,-61
2021-12-27 15:32:43.251815,-22
2021-12-27 15:32:43.251824,45
2021-12-27 15:32:43.251834,88
2021-12-27 15:32:43.251843,141
2021-12-27 15:32:43.251853,309
2021-12-27 15:32:43.251862,494
2021-12-27 15:32:43.251872,653
2021-12-27 15:32:43.251881,922
2021-12-27 15:32:43.251891,1346
2021-12-27 15:32:43.251900,1829
2021-12-27 15:32:43.251910,2228
2021-12-27 15:32:43.251919,2606
2021-12-27 15:32:43.251929,2989
2021-12-27 15:32:43.251938,3165
2021-12-27 15:32:43.495401,3149
2021-12-27 15:32:43.495423,3174
2021-12-27 15:32:43.495430,3308
2021-12-27 15:32:43.495436,3436
2021-12-27 15:32:43.495443,3288
2021-12-27 15:32:43.495449,2905
2021-12-27 15:32:43.495455,2700
2021-12-27 15:32:43.495461,2661
2021-12-27 15:32:43.495468,2444
2021-12-27 15:32:43.495474,2219
2021-12-27 15:32:43.495480,2280
2021-12-27 15:32:43.495487,2447
2021-12-27 15:32:43.495493,2554
2021-12-27 15:32:43.495499,2622
2021-12-27 15:32:43.495505,2483
2021-12-27 15:32:43.495512,2105
2021-12-27 15:32:43.495518,1847
2021-12-27 15:32:43.495524,1941
2021-12-27 15:32:43.495530,2135
2021-12-27 15:32:43.495537,2176
2021-12-27 15:32:43.495547,2198
2021-12-27 15:32:43.495553,2107
2021-12-27 15:32:43.495560,1827
2021-12-27 15:32:43.495566,1697
2021-12-27 15:32:43.495572,1640
2021-12-27 15:32:43.495578,1538
2021-12-27 15:32:43.495584,1551
2021-12-27 15:32:43.495591,1412
2021-12-27 15:32:43.495597,925
2021-12-27 15:32:43.495603,412
2021-12-27 15:32:43.690400,-41
2021-12-27 15:32:43.690431,-528
2021-12-27 15:32:43.690442,-984
2021-12-27 15:32:43.690452,-1430
2021-12-27 15:32:43.690461,-1841
2021-12-27 15:32:43.690471,-2075
2021-12-27 15:32:43.690481,-2132
2021-12-27 15:32:43.690490,-2098
2021-12-27 15:32:43.690499,-2137
2021-12-27 15:32:43.690509,-2406
2021-12-27 15:32:43.690518,-2707
2021-12-27 15:32:43.690528,-2620
2021-12-27 15:32:43.690537,-2271
2021-12-27 15:32:43.690546,-2073
2021-12-27 15:32:43.690556,-1991
2021-12-27 15:32:43.690565,-1925
2021-12-27 15:32:43.690575,-1957
2021-12-27 15:32:43.690585,-1936
2021-12-27 15:32:43.690594,-1765
2021-12-27 15:32:43.690604,-1658
2021-12-27 15:32:43.690613,-1663
2021-12-27 15:32:43.690623,-1649
2021-12-27 15:32:43.690632,-1638
2021-12-27 15:32:43.690641,-1601
2021-12-27 15:32:43.690651,-1487
2021-12-27 15:32:43.690660,-1424
2021-12-27 15:32:43.690670,-1440
2021-12-27 15:32:43.690679,-1426
2021-12-27 15:32:43.690689,-1392
2021-12-27 15:32:43.690698,-1358
2021-12-27 15:32:43.934221,-1296
2021-12-27 15:32:43.934242,-1225
2021-12-27 15:32:43.934250,-1180
2021-12-27 15:32:43.934256,-1152
2021-12-27 15:32:43.934262,-1125
2021-12-27 15:32:43.934272,-1121
2021-12-27 15:32:43.934279,-1102
2021-12-27 15:32:43.934285,-1045
2021-12-27 15:32:43.934291,-1048
2021-12-27 15:32:43.934297,-1102
2021-12-27 15:32:43.934303,-1077
2021-12-27 15:32:43.934310,-1059
2021-12-27 15:32:43.934316,-1127
2021-12-27 15:32:43.934322,-1107
2021-12-27 15:32:43.934328,-1004
2021-12-27 15:32:43.934334,-982
2021-12-27 15:32:43.934341,-984
2021-12-27 15:32:43.934347,-943
2021-12-27 15:32:43.934353,-902
2021-12-27 15:32:43.934359,-854
2021-12-27 15:32:43.934365,-818
2021-12-27 15:32:43.934372,-827
2021-12-27 15:32:43.934378,-777
2021-12-27 15:32:43.934384,-656
2021-12-27 15:32:43.934390,-612
2021-12-27 15:32:43.934397,-628
2021-12-27 15:32:43.934403,-622
2021-12-27 15:32:43.934409,-622
2021-12-27 15:32:43.934415,-644
2021-12-27 15:32:43.934422,-665
2021-12-27 15:32:44.322782,-701
2021-12-27 15:32:44.322803,-749
2021-12-27 15:32:44.322810,-758
2021-12-27 15:32:44.322817,-751
2021-12-27 15:32:44.322823,-765
2021-12-27 15:32:44.322830,-774
2021-12-27 15:32:44.322836,-815
2021-12-27 15:32:44.322842,-918
2021-12-27 15:32:44.322848,-977
2021-12-27 15:32:44.322855,-979
2021-12-27 15:32:44.322861,-1029
2021-12-27 15:32:44.322867,-1068
2021-12-27 15:32:44.322873,-1045
2021-12-27 15:32:44.322880,-1073
2021-12-27 15:32:44.322886,-1098
2021-12-27 15:32:44.322892,-1034
2021-12-27 15:32:44.322898,-986
2021-12-27 15:32:44.322905,-988
2021-12-27 15:32:44.322911,-970
2021-12-27 15:32:44.322917,-977
2021-12-27 15:32:44.322924,-1013
2021-12-27 15:32:44.322930,-991
2021-12-27 15:32:44.322936,-927
2021-12-27 15:32:44.322942,-847
2021-12-27 15:32:44.322949,-681
2021-12-27 15:32:44.322955,-519
2021-12-27 15:32:44.322966,-624
2021-12-27 15:32:44.322973,-1029
2021-12-27 15:32:44.322979,-1344
2021-12-27 15:32:44.322985,-1146
2021-12-27 15:32:44.420625,-765
2021-12-27 15:32:44.420655,-740
2021-12-27 15:32:44.420667,-813
2021-12-27 15:32:44.420677,-722
2021-12-27 15:32:44.420719,-644
2021-12-27 15:32:44.420729,-640
2021-12-27 15:32:44.420738,-638
2021-12-27 15:32:44.420748,-615
2021-12-27 15:32:44.420757,-628
2021-12-27 15:32:44.420766,-663
2021-12-27 15:32:44.420776,-635
2021-12-27 15:32:44.420785,-608
2021-12-27 15:32:44.420794,-635
2021-12-27 15:32:44.420804,-617
2021-12-27 15:32:44.420813,-592
2021-12-27 15:32:44.420822,-633
2021-12-27 15:32:44.420832,-610
2021-12-27 15:32:44.420841,-512
2021-12-27 15:32:44.420850,-476
2021-12-27 15:32:44.420860,-473
2021-12-27 15:32:44.420869,-512
2021-12-27 15:32:44.420879,-628
2021-12-27 15:32:44.420888,-658
2021-12-27 15:32:44.420897,-558
2021-12-27 15:32:44.420907,-530
2021-12-27 15:32:44.420916,-606
2021-12-27 15:32:44.420926,-704
2021-12-27 15:32:44.420935,-811
2021-12-27 15:32:44.420944,-843
2021-12-27 15:32:44.420954,-804
2021-12-27 15:32:44.664345,-781
2021-12-27 15:32:44.664368,-774
2021-12-27 15:32:44.664376,-783
2021-12-27 15:32:44.664382,-831
2021-12-27 15:32:44.664388,-849
2021-12-27 15:32:44.664394,-806
2021-12-27 15:32:44.664400,-763
2021-12-27 15:32:44.664406,-722
2021-12-27 15:32:44.664412,-681
2021-12-27 15:32:44.664419,-690
2021-12-27 15:32:44.664425,-733
2021-12-27 15:32:44.664431,-724
2021-12-27 15:32:44.664437,-667
2021-12-27 15:32:44.664443,-651
2021-12-27 15:32:44.664449,-685
2021-12-27 15:32:44.664455,-694
2021-12-27 15:32:44.664461,-663
2021-12-27 15:32:44.664468,-638
2021-12-27 15:32:44.664474,-606
2021-12-27 15:32:44.664480,-571
2021-12-27 15:32:44.664486,-574
2021-12-27 15:32:44.664492,-592
2021-12-27 15:32:44.664498,-590
2021-12-27 15:32:44.664510,-581
2021-12-27 15:32:44.664516,-560
2021-12-27 15:32:44.664523,-530
2021-12-27 15:32:44.664529,-528
2021-12-27 15:32:44.664535,-535
2021-12-27 15:32:44.664541,-521
2021-12-27 15:32:44.664547,-514
2021-12-27 15:32:44.908872,-512
2021-12-27 15:32:44.908893,-485
2021-12-27 15:32:44.908900,-483
2021-12-27 15:32:44.908907,-514
2021-12-27 15:32:44.908913,-517
2021-12-27 15:32:44.908919,-517
2021-12-27 15:32:44.908925,-535
2021-12-27 15:32:44.908932,-519
2021-12-27 15:32:44.908938,-496
2021-12-27 15:32:44.908944,-501
2021-12-27 15:32:44.908950,-485
2021-12-27 15:32:44.908956,-469
2021-12-27 15:32:44.908963,-462
2021-12-27 15:32:44.908969,-362
2021-12-27 15:32:44.908975,-164
2021-12-27 15:32:44.908981,-136
2021-12-27 15:32:44.908988,-428
2021-12-27 15:32:44.908994,-847
2021-12-27 15:32:44.909000,-998
2021-12-27 15:32:44.909007,-724
2021-12-27 15:32:44.909013,-460
2021-12-27 15:32:44.909019,-453
2021-12-27 15:32:44.909025,-416
2021-12-27 15:32:44.909031,-341
2021-12-27 15:32:44.909038,-378
2021-12-27 15:32:44.909044,-407
2021-12-27 15:32:44.909050,-373
2021-12-27 15:32:44.909056,-366
2021-12-27 15:32:44.909062,-364
2021-12-27 15:32:44.909069,-325
2021-12-27 15:32:45.103917,-305
2021-12-27 15:32:45.103937,-328
2021-12-27 15:32:45.103945,-382
2021-12-27 15:32:45.103951,-419
2021-12-27 15:32:45.103957,-353
2021-12-27 15:32:45.103963,-264
2021-12-27 15:32:45.103970,-264
2021-12-27 15:32:45.103976,-282
2021-12-27 15:32:45.103982,-271
2021-12-27 15:32:45.103988,-250
2021-12-27 15:32:45.103995,-230
2021-12-27 15:32:45.104001,-214
2021-12-27 15:32:45.104007,-209
2021-12-27 15:32:45.104013,-232
2021-12-27 15:32:45.104020,-287
2021-12-27 15:32:45.104026,-325
2021-12-27 15:32:45.104032,-339
2021-12-27 15:32:45.104038,-380
2021-12-27 15:32:45.104045,-432
2021-12-27 15:32:45.104051,-471
2021-12-27 15:32:45.104057,-496
2021-12-27 15:32:45.104063,-503
2021-12-27 15:32:45.104069,-469
2021-12-27 15:32:45.104076,-401
2021-12-27 15:32:45.104082,-350
2021-12-27 15:32:45.104088,-337
2021-12-27 15:32:45.104094,-339
2021-12-27 15:32:45.104108,-344
2021-12-27 15:32:45.104114,-323
2021-12-27 15:32:45.104120,-287
2021-12-27 15:32:45.299474,-268
2021-12-27 15:32:45.299503,-266
2021-12-27 15:32:45.299515,-275
2021-12-27 15:32:45.299525,-271
2021-12-27 15:32:45.299534,-243
2021-12-27 15:32:45.299544,-227
2021-12-27 15:32:45.299554,-232
2021-12-27 15:32:45.299563,-221
2021-12-27 15:32:45.299573,-230
2021-12-27 15:32:45.299582,-289
2021-12-27 15:32:45.299592,-298
2021-12-27 15:32:45.299601,-239
2021-12-27 15:32:45.299611,-232
2021-12-27 15:32:45.299620,-250
2021-12-27 15:32:45.299629,-250
2021-12-27 15:32:45.299639,-303
2021-12-27 15:32:45.299648,-346
2021-12-27 15:32:45.299658,-287
2021-12-27 15:32:45.299667,-232
2021-12-27 15:32:45.299677,-246
2021-12-27 15:32:45.299686,-309
2021-12-27 15:32:45.299696,-366
2021-12-27 15:32:45.299705,-334
2021-12-27 15:32:45.299715,-303
2021-12-27 15:32:45.299724,-323
2021-12-27 15:32:45.299734,-312
2021-12-27 15:32:45.299743,-264
2021-12-27 15:32:45.299753,-239
2021-12-27 15:32:45.299762,-248
2021-12-27 15:32:45.299771,-252
2021-12-27 15:32:45.542819,-232
2021-12-27 15:32:45.542849,-200
2021-12-27 15:32:45.542860,-198
2021-12-27 15:32:45.542870,-175
2021-12-27 15:32:45.542879,-45
2021-12-27 15:32:45.542889,20
2021-12-27 15:32:45.542899,-186
2021-12-27 15:32:45.542908,-587
2021-12-27 15:32:45.542918,-836
2021-12-27 15:32:45.542927,-599
2021-12-27 15:32:45.542937,-264
2021-12-27 15:32:45.542946,-266
2021-12-27 15:32:45.542956,-284
2021-12-27 15:32:45.542965,-175
2021-12-27 15:32:45.542975,-164
2021-12-27 15:32:45.542985,-195
2021-12-27 15:32:45.542994,-154
2021-12-27 15:32:45.543004,-132
2021-12-27 15:32:45.543013,-148
2021-12-27 15:32:45.543023,-134
2021-12-27 15:32:45.543032,-138
2021-12-27 15:32:45.543042,-166
2021-12-27 15:32:45.543051,-164
2021-12-27 15:32:45.543061,-173
2021-12-27 15:32:45.543070,-182
2021-12-27 15:32:45.543080,-129
2021-12-27 15:32:45.543090,-82
2021-12-27 15:32:45.543099,-52
2021-12-27 15:32:45.543109,-9
2021-12-27 15:32:45.543118,9
2021-12-27 15:32:45.787036,6
2021-12-27 15:32:45.787066,25
2021-12-27 15:32:45.787077,25
2021-12-27 15:32:45.787087,-11
2021-12-27 15:32:45.787096,-31
2021-12-27 15:32:45.787106,-66
2021-12-27 15:32:45.787115,-177
2021-12-27 15:32:45.787125,-257
2021-12-27 15:32:45.787135,-223
2021-12-27 15:32:45.787150,-200
2021-12-27 15:32:45.787160,-250
2021-12-27 15:32:45.787170,-287
2021-12-27 15:32:45.787180,-309
2021-12-27 15:32:45.787189,-319
2021-12-27 15:32:45.787199,-280
2021-12-27 15:32:45.787208,-241
2021-12-27 15:32:45.787218,-225
2021-12-27 15:32:45.787227,-214
2021-12-27 15:32:45.787237,-207
2021-12-27 15:32:45.787247,-216
2021-12-27 15:32:45.787256,-223
2021-12-27 15:32:45.787266,-218
2021-12-27 15:32:45.787276,-193
2021-12-27 15:32:45.787285,-180
2021-12-27 15:32:45.787295,-218
2021-12-27 15:32:45.787304,-268
2021-12-27 15:32:45.787314,-255
2021-12-27 15:32:45.787324,-216
2021-12-27 15:32:45.787333,-202
2021-12-27 15:32:45.787343,-193
2021-12-27 15:32:45.981672,-186
2021-12-27 15:32:45.981693,-195
2021-12-27 15:32:45.981701,-211
2021-12-27 15:32:45.981707,-232
2021-12-27 15:32:45.981714,-248
2021-12-27 15:32:45.981720,-239
2021-12-27 15:32:45.981726,-221
2021-12-27 15:32:45.981733,-236
2021-12-27 15:32:45.981739,-282
2021-12-27 15:32:45.981745,-280
2021-12-27 15:32:45.981752,-230
2021-12-27 15:32:45.981758,-195
2021-12-27 15:32:45.981764,-209
2021-12-27 15:32:45.981770,-273
2021-12-27 15:32:45.981777,-346
2021-12-27 15:32:45.981783,-344
2021-12-27 15:32:45.981789,-287
2021-12-27 15:32:45.981795,-250
2021-12-27 15:32:45.981802,-234
2021-12-27 15:32:45.981808,-195
2021-12-27 15:32:45.981814,-177
2021-12-27 15:32:45.981821,-202
2021-12-27 15:32:45.981827,-198
2021-12-27 15:32:45.981833,-161
2021-12-27 15:32:45.981839,-150
2021-12-27 15:32:45.981846,-134
2021-12-27 15:32:45.981852,-45
2021-12-27 15:32:45.981858,97
2021-12-27 15:32:45.981864,123
2021-12-27 15:32:45.981871,-132
2021-12-27 15:32:46.225525,-537
2021-12-27 15:32:46.225556,-665
2021-12-27 15:32:46.225568,-403
2021-12-27 15:32:46.225578,-246
2021-12-27 15:32:46.225588,-300
2021-12-27 15:32:46.225598,-236
2021-12-27 15:32:46.225608,-157
2021-12-27 15:32:46.225617,-186
2021-12-27 15:32:46.225627,-191
2021-12-27 15:32:46.225637,-195
2021-12-27 15:32:46.225647,-225
2021-12-27 15:32:46.225656,-177
2021-12-27 15:32:46.225666,-113
2021-12-27 15:32:46.225676,-104
2021-12-27 15:32:46.225685,-88
2021-12-27 15:32:46.225695,-66
2021-12-27 15:32:46.225705,-75
2021-12-27 15:32:46.225714,-84
2021-12-27 15:32:46.225724,-68
2021-12-27 15:32:46.225734,-43
2021-12-27 15:32:46.225743,-9
2021-12-27 15:32:46.225753,11
2021-12-27 15:32:46.225763,-4
2021-12-27 15:32:46.225773,0
2021-12-27 15:32:46.225783,25
2021-12-27 15:32:46.225792,25
2021-12-27 15:32:46.225802,22
2021-12-27 15:32:46.225812,31
2021-12-27 15:32:46.225822,-2
2021-12-27 15:32:46.225831,-70
2021-12-27 15:32:46.468888,-102
2021-12-27 15:32:46.468909,-111
2021-12-27 15:32:46.468916,-157
2021-12-27 15:32:46.468922,-209
2021-12-27 15:32:46.468929,-250
2021-12-27 15:32:46.468935,-275
2021-12-27 15:32:46.468941,-250
2021-12-27 15:32:46.468947,-200
2021-12-27 15:32:46.468953,-189
2021-12-27 15:32:46.468960,-195
2021-12-27 15:32:46.468966,-193
2021-12-27 15:32:46.468972,-214
2021-12-27 15:32:46.468978,-225
2021-12-27 15:32:46.468984,-182
2021-12-27 15:32:46.468990,-161
2021-12-27 15:32:46.468996,-182
2021-12-27 15:32:46.469003,-177
2021-12-27 15:32:46.469009,-173
2021-12-27 15:32:46.469015,-218
2021-12-27 15:32:46.469021,-275
2021-12-27 15:32:46.469027,-262
2021-12-27 15:32:46.469033,-216
2021-12-27 15:32:46.469039,-209
2021-12-27 15:32:46.469045,-225
2021-12-27 15:32:46.469052,-223
2021-12-27 15:32:46.469058,-191
2021-12-27 15:32:46.469064,-175
2021-12-27 15:32:46.469070,-186
2021-12-27 15:32:46.469076,-189
2021-12-27 15:32:46.469082,-168
2021-12-27 15:32:46.759927,-170
2021-12-27 15:32:46.759956,-207
2021-12-27 15:32:46.759968,-200
2021-12-27 15:32:46.759978,-164
2021-12-27 15:32:46.759988,-154
2021-12-27 15:32:46.759997,-154
2021-12-27 15:32:46.760007,-175
2021-12-27 15:32:46.760016,-218
2021-12-27 15:32:46.760026,-214
2021-12-27 15:32:46.760035,-182
2021-12-27 15:32:46.760045,-177
2021-12-27 15:32:46.760054,-168
2021-12-27 15:32:46.760064,-175
2021-12-27 15:32:46.760073,-214
2021-12-27 15:32:46.760083,-218
2021-12-27 15:32:46.760092,-189
2021-12-27 15:32:46.760102,-175
2021-12-27 15:32:46.760111,-143
2021-12-27 15:32:46.760121,-45
2021-12-27 15:32:46.760130,120
2021-12-27 15:32:46.760140,166
2021-12-27 15:32:46.760149,-113
2021-12-27 15:32:46.760159,-542
2021-12-27 15:32:46.760168,-653
2021-12-27 15:32:46.760178,-360
2021-12-27 15:32:46.760187,-148
2021-12-27 15:32:46.760197,-164
2021-12-27 15:32:46.760206,-118
2021-12-27 15:32:46.760216,-43
2021-12-27 15:32:46.760225,-63
2021-12-27 15:32:46.956647,-75
2021-12-27 15:32:46.956678,-41
2021-12-27 15:32:46.956690,-61
2021-12-27 15:32:46.956699,-118
2021-12-27 15:32:46.956709,-109
2021-12-27 15:32:46.956719,-61
2021-12-27 15:32:46.956728,-50
2021-12-27 15:32:46.956737,-63
2021-12-27 15:32:46.956747,-95
2021-12-27 15:32:46.956756,-123
2021-12-27 15:32:46.956766,-84
2021-12-27 15:32:46.956808,-27
2021-12-27 15:32:46.956818,-15
2021-12-27 15:32:46.956828,-13
2021-12-27 15:32:46.956837,-34
2021-12-27 15:32:46.956847,-82
2021-12-27 15:32:46.956856,-70
2021-12-27 15:32:46.956865,-29
2021-12-27 15:32:46.956875,-27
2021-12-27 15:32:46.956884,-41
2021-12-27 15:32:46.956894,-56
2021-12-27 15:32:46.956903,-109
2021-12-27 15:32:46.956913,-154
2021-12-27 15:32:46.956922,-161
2021-12-27 15:32:46.956932,-209
2021-12-27 15:32:46.956941,-296
2021-12-27 15:32:46.956951,-319
2021-12-27 15:32:46.956960,-300
2021-12-27 15:32:46.956970,-293
2021-12-27 15:32:46.956979,-257
2021-12-27 15:32:47.151724,-218
2021-12-27 15:32:47.151753,-214
2021-12-27 15:32:47.151770,-211
2021-12-27 15:32:47.151780,-202
2021-12-27 15:32:47.151790,-200
2021-12-27 15:32:47.151799,-211
2021-12-27 15:32:47.151808,-214
2021-12-27 15:32:47.151818,-191
2021-12-27 15:32:47.151827,-170
2021-12-27 15:32:47.151837,-184
2021-12-27 15:32:47.151846,-211
2021-12-27 15:32:47.151856,-200
2021-12-27 15:32:47.151865,-159
2021-12-27 15:32:47.151875,-150
2021-12-27 15:32:47.151884,-168
2021-12-27 15:32:47.151894,-191
2021-12-27 15:32:47.151903,-227
2021-12-27 15:32:47.151913,-241
2021-12-27 15:32:47.151922,-200
2021-12-27 15:32:47.151932,-173
2021-12-27 15:32:47.151941,-184
2021-12-27 15:32:47.151951,-193
2021-12-27 15:32:47.151960,-189
2021-12-27 15:32:47.151969,-170
2021-12-27 15:32:47.151979,-148
2021-12-27 15:32:47.151989,-134
2021-12-27 15:32:47.151998,-132
2021-12-27 15:32:47.152008,-141
2021-12-27 15:32:47.152017,-157
2021-12-27 15:32:47.152026,-164
2021-12-27 15:32:47.395562,-150
2021-12-27 15:32:47.395594,-129
2021-12-27 15:32:47.395605,-129
2021-12-27 15:32:47.395615,-134
2021-12-27 15:32:47.395625,-134
2021-12-27 15:32:47.395635,-164
2021-12-27 15:32:47.395644,-202
2021-12-27 15:32:47.395654,-173
2021-12-27 15:32:47.395664,-34
2021-12-27 15:32:47.395673,154
2021-12-27 15:32:47.395683,161
2021-12-27 15:32:47.395693,-193
2021-12-27 15:32:47.395703,-631
2021-12-27 15:32:47.395713,-644
2021-12-27 15:32:47.395722,-287
2021-12-27 15:32:47.395765,-104
2021-12-27 15:32:47.395774,-120
2021-12-27 15:32:47.395784,-52
2021-12-27 15:32:47.395794,-20
2021-12-27 15:32:47.395803,-66
2021-12-27 15:32:47.395813,-61
2021-12-27 15:32:47.395823,-41
2021-12-27 15:32:47.395832,-41
2021-12-27 15:32:47.395842,-29
2021-12-27 15:32:47.395851,-25
2021-12-27 15:32:47.395861,-25
2021-12-27 15:32:47.395871,-6
2021-12-27 15:32:47.395880,2
2021-12-27 15:32:47.395890,4
2021-12-27 15:32:47.395899,25
2021-12-27 15:32:47.638720,20
2021-12-27 15:32:47.638749,-29
2021-12-27 15:32:47.638760,-34
2021-12-27 15:32:47.638770,4
2021-12-27 15:32:47.638780,25
2021-12-27 15:32:47.638789,47
2021-12-27 15:32:47.638799,54
2021-12-27 15:32:47.638809,9
2021-12-27 15:32:47.638818,-43
2021-12-27 15:32:47.638828,-70
2021-12-27 15:32:47.638837,-84
2021-12-27 15:32:47.638847,-100
2021-12-27 15:32:47.638856,-134
2021-12-27 15:32:47.638866,-200
2021-12-27 15:32:47.638876,-259
2021-12-27 15:32:47.638885,-255
2021-12-27 15:32:47.638895,-218
2021-12-27 15:32:47.638905,-205
2021-12-27 15:32:47.638914,-198
2021-12-27 15:32:47.638924,-193
2021-12-27 15:32:47.638933,-205
2021-12-27 15:32:47.638943,-207
2021-12-27 15:32:47.638952,-184
2021-12-27 15:32:47.638962,-154
2021-12-27 15:32:47.638972,-141
2021-12-27 15:32:47.638981,-138
2021-12-27 15:32:47.638991,-154
2021-12-27 15:32:47.639000,-166
2021-12-27 15:32:47.639010,-150
2021-12-27 15:32:47.639019,-129
2021-12-27 15:32:47.834206,-120
2021-12-27 15:32:47.834236,-116
2021-12-27 15:32:47.834247,-129
2021-12-27 15:32:47.834257,-152
2021-12-27 15:32:47.834267,-134
2021-12-27 15:32:47.834276,-97
2021-12-27 15:32:47.834286,-93
2021-12-27 15:32:47.834295,-100
2021-12-27 15:32:47.834305,-129
2021-12-27 15:32:47.834314,-189
2021-12-27 15:32:47.834324,-211
2021-12-27 15:32:47.834333,-198
2021-12-27 15:32:47.834343,-175
2021-12-27 15:32:47.834352,-136
2021-12-27 15:32:47.834362,-143
2021-12-27 15:32:47.834376,-200
2021-12-27 15:32:47.834386,-205
2021-12-27 15:32:47.834396,-161
2021-12-27 15:32:47.834405,-152
2021-12-27 15:32:47.834415,-157
2021-12-27 15:32:47.834425,-154
2021-12-27 15:32:47.834434,-177
2021-12-27 15:32:47.834444,-191
2021-12-27 15:32:47.834453,-159
2021-12-27 15:32:47.834463,-134
2021-12-27 15:32:47.834473,-120
2021-12-27 15:32:47.834482,-95
2021-12-27 15:32:47.834492,-68
2021-12-27 15:32:47.834502,56
2021-12-27 15:32:47.834511,230
2021-12-27 15:32:48.077930,109
2021-12-27 15:32:48.077951,-330
2021-12-27 15:32:48.077959,-608
2021-12-27 15:32:48.077966,-448
2021-12-27 15:32:48.077973,-195
2021-12-27 15:32:48.077979,-157
2021-12-27 15:32:48.077985,-168
2021-12-27 15:32:48.077991,-127
2021-12-27 15:32:48.077997,-107
2021-12-27 15:32:48.078004,-118
2021-12-27 15:32:48.078010,-145
2021-12-27 15:32:48.078016,-150
2021-12-27 15:32:48.078022,-134
2021-12-27 15:32:48.078028,-136
2021-12-27 15:32:48.078035,-136
2021-12-27 15:32:48.078041,-109
2021-12-27 15:32:48.078047,-97
2021-12-27 15:32:48.078053,-97
2021-12-27 15:32:48.078060,-66
2021-12-27 15:32:48.078066,-31
2021-12-27 15:32:48.078072,-18
2021-12-27 15:32:48.078078,-11
2021-12-27 15:32:48.078085,-6
2021-12-27 15:32:48.078091,-9
2021-12-27 15:32:48.078097,-9
2021-12-27 15:32:48.078103,11
2021-12-27 15:32:48.078109,15
2021-12-27 15:32:48.078116,-2
2021-12-27 15:32:48.078122,-13
2021-12-27 15:32:48.078128,-27
2021-12-27 15:32:48.322256,-68
2021-12-27 15:32:48.322285,-100
2021-12-27 15:32:48.322296,-123
2021-12-27 15:32:48.322306,-161
2021-12-27 15:32:48.322316,-189
2021-12-27 15:32:48.322325,-211
2021-12-27 15:32:48.322335,-257
2021-12-27 15:32:48.322344,-252
2021-12-27 15:32:48.322354,-214
2021-12-27 15:32:48.322363,-211
2021-12-27 15:32:48.322373,-205
2021-12-27 15:32:48.322382,-184
2021-12-27 15:32:48.322392,-214
2021-12-27 15:32:48.322402,-232
2021-12-27 15:32:48.322411,-214
2021-12-27 15:32:48.322421,-232
2021-12-27 15:32:48.322430,-241
2021-12-27 15:32:48.322440,-195
2021-12-27 15:32:48.322449,-189
2021-12-27 15:32:48.322459,-211
2021-12-27 15:32:48.322468,-195
2021-12-27 15:32:48.322478,-182
2021-12-27 15:32:48.322488,-182
2021-12-27 15:32:48.322497,-166
2021-12-27 15:32:48.322507,-161
2021-12-27 15:32:48.322516,-180
2021-12-27 15:32:48.322526,-184
2021-12-27 15:32:48.322535,-177
2021-12-27 15:32:48.322545,-173
2021-12-27 15:32:48.322554,-161
2021-12-27 15:32:48.565364,-159
2021-12-27 15:32:48.565392,-180
2021-12-27 15:32:48.565400,-189
2021-12-27 15:32:48.565407,-175
2021-12-27 15:32:48.565413,-157
2021-12-27 15:32:48.565420,-141
2021-12-27 15:32:48.565426,-136
2021-12-27 15:32:48.565432,-184
2021-12-27 15:32:48.565439,-239
2021-12-27 15:32:48.565445,-223
2021-12-27 15:32:48.565452,-184
2021-12-27 15:32:48.565458,-191
2021-12-27 15:32:48.565464,-241
2021-12-27 15:32:48.565471,-312
2021-12-27 15:32:48.565477,-341
2021-12-27 15:32:48.565483,-307
2021-12-27 15:32:48.565490,-282
2021-12-27 15:32:48.565496,-275
2021-12-27 15:32:48.565503,-164
2021-12-27 15:32:48.565509,52
2021-12-27 15:32:48.565516,59
2021-12-27 15:32:48.565522,-312
2021-12-27 15:32:48.565529,-715
2021-12-27 15:32:48.565535,-708
2021-12-27 15:32:48.565542,-371
2021-12-27 15:32:48.565548,-186
2021-12-27 15:32:48.565554,-207
2021-12-27 15:32:48.565561,-175
2021-12-27 15:32:48.565567,-113
2021-12-27 15:32:48.565573,-116
2021-12-27 15:32:48.904288,-118
2021-12-27 15:32:48.904305,-95
2021-12-27 15:32:48.904312,-104
2021-12-27 15:32:48.904319,-132
2021-12-27 15:32:48.904325,-113
2021-12-27 15:32:48.904331,-75
2021-12-27 15:32:48.904338,-63
2021-12-27 15:32:48.904344,-54
2021-12-27 15:32:48.904350,-54
2021-12-27 15:32:48.904356,-100
2021-12-27 15:32:48.904363,-118
2021-12-27 15:32:48.904372,-61
2021-12-27 15:32:48.904378,-25
2021-12-27 15:32:48.904385,-27
2021-12-27 15:32:48.904391,-18
2021-12-27 15:32:48.904397,-52
2021-12-27 15:32:48.904403,-104
2021-12-27 15:32:48.904410,-88
2021-12-27 15:32:48.904416,-77
2021-12-27 15:32:48.904422,-129
2021-12-27 15:32:48.904428,-168
2021-12-27 15:32:48.904435,-191
2021-12-27 15:32:48.904441,-239
2021-12-27 15:32:48.904447,-266
2021-12-27 15:32:48.904453,-264
2021-12-27 15:32:48.904459,-271
2021-12-27 15:32:48.904466,-282
2021-12-27 15:32:48.904472,-300
2021-12-27 15:32:48.904478,-314
2021-12-27 15:32:48.904485,-291
2021-12-27 15:32:49.003867,-257
2021-12-27 15:32:49.003891,-243
2021-12-27 15:32:49.003898,-243
2021-12-27 15:32:49.003905,-252
2021-12-27 15:32:49.003911,-264
2021-12-27 15:32:49.003918,-259
2021-12-27 15:32:49.003924,-243
2021-12-27 15:32:49.003930,-230
2021-12-27 15:32:49.003937,-227
2021-12-27 15:32:49.003943,-234
2021-12-27 15:32:49.003949,-266
2021-12-27 15:32:49.003955,-300
2021-12-27 15:32:49.003962,-293
2021-12-27 15:32:49.003968,-259
2021-12-27 15:32:49.003974,-259
2021-12-27 15:32:49.003980,-277
2021-12-27 15:32:49.003987,-264
2021-12-27 15:32:49.003993,-262
2021-12-27 15:32:49.003999,-314
2021-12-27 15:32:49.004006,-344
2021-12-27 15:32:49.004012,-321
2021-12-27 15:32:49.004018,-353
2021-12-27 15:32:49.004024,-387
2021-12-27 15:32:49.004031,-371
2021-12-27 15:32:49.004037,-373
2021-12-27 15:32:49.004043,-357
2021-12-27 15:32:49.004050,-323
2021-12-27 15:32:49.004056,-325
2021-12-27 15:32:49.004062,-323
2021-12-27 15:32:49.004068,-309
2021-12-27 15:32:49.295411,-325
2021-12-27 15:32:49.295428,-332
2021-12-27 15:32:49.295436,-319
2021-12-27 15:32:49.295442,-325
2021-12-27 15:32:49.295448,-330
2021-12-27 15:32:49.295454,-330
2021-12-27 15:32:49.295460,-362
2021-12-27 15:32:49.295466,-371
2021-12-27 15:32:49.295473,-314
2021-12-27 15:32:49.295479,-216
2021-12-27 15:32:49.295485,-31
2021-12-27 15:32:49.295491,75
2021-12-27 15:32:49.295498,-227
2021-12-27 15:32:49.295504,-751
2021-12-27 15:32:49.295510,-852
2021-12-27 15:32:49.295516,-501
2021-12-27 15:32:49.295522,-284
2021-12-27 15:32:49.295529,-293
2021-12-27 15:32:49.295535,-241
2021-12-27 15:32:49.295541,-177
2021-12-27 15:32:49.295547,-205
2021-12-27 15:32:49.295554,-225
2021-12-27 15:32:49.295560,-218
2021-12-27 15:32:49.295566,-239
2021-12-27 15:32:49.295572,-252
2021-12-27 15:32:49.295578,-230
2021-12-27 15:32:49.295585,-218
2021-12-27 15:32:49.295591,-211
2021-12-27 15:32:49.295597,-186
2021-12-27 15:32:49.295603,-166
2021-12-27 15:32:49.491322,-159
2021-12-27 15:32:49.491353,-150
2021-12-27 15:32:49.491365,-157
2021-12-27 15:32:49.491374,-161
2021-12-27 15:32:49.491384,-129
2021-12-27 15:32:49.491394,-104
2021-12-27 15:32:49.491403,-111
2021-12-27 15:32:49.491413,-138
2021-12-27 15:32:49.491422,-189
2021-12-27 15:32:49.491431,-223
2021-12-27 15:32:49.491441,-202
2021-12-27 15:32:49.491450,-191
2021-12-27 15:32:49.491460,-225
2021-12-27 15:32:49.491469,-277
2021-12-27 15:32:49.491479,-357
2021-12-27 15:32:49.491488,-430
2021-12-27 15:32:49.491498,-414
2021-12-27 15:32:49.491507,-366
2021-12-27 15:32:49.491517,-371
2021-12-27 15:32:49.491526,-380
2021-12-27 15:32:49.491536,-387
2021-12-27 15:32:49.491545,-403
2021-12-27 15:32:49.491555,-380
2021-12-27 15:32:49.491564,-344
2021-12-27 15:32:49.491573,-394
2021-12-27 15:32:49.491583,-464
2021-12-27 15:32:49.491592,-430
2021-12-27 15:32:49.491601,-385
2021-12-27 15:32:49.491611,-380
2021-12-27 15:32:49.491620,-357
2021-12-27 15:32:49.686716,-332
2021-12-27 15:32:49.686746,-316
2021-12-27 15:32:49.686757,-309
2021-12-27 15:32:49.686767,-353
2021-12-27 15:32:49.686777,-389
2021-12-27 15:32:49.686786,-355
2021-12-27 15:32:49.686796,-332
2021-12-27 15:32:49.686805,-348
2021-12-27 15:32:49.686815,-355
2021-12-27 15:32:49.686824,-371
2021-12-27 15:32:49.686834,-398
2021-12-27 15:32:49.686843,-410
2021-12-27 15:32:49.686853,-410
2021-12-27 15:32:49.686862,-403
2021-12-27 15:32:49.686872,-401
2021-12-27 15:32:49.686881,-437
2021-12-27 15:32:49.686891,-492
2021-12-27 15:32:49.686900,-501
2021-12-27 15:32:49.686910,-476
2021-12-27 15:32:49.686919,-469
2021-12-27 15:32:49.686928,-483
2021-12-27 15:32:49.686943,-501
2021-12-27 15:32:49.686953,-510
2021-12-27 15:32:49.686962,-499
2021-12-27 15:32:49.686972,-467
2021-12-27 15:32:49.686982,-437
2021-12-27 15:32:49.686991,-428
2021-12-27 15:32:49.687001,-430
2021-12-27 15:32:49.687010,-339
2021-12-27 15:32:49.687020,-118
2021-12-27 15:32:49.930483,-27
2021-12-27 15:32:49.930513,-319
2021-12-27 15:32:49.930525,-770
2021-12-27 15:32:49.930535,-852
2021-12-27 15:32:49.930544,-537
2021-12-27 15:32:49.930554,-378
2021-12-27 15:32:49.930563,-412
2021-12-27 15:32:49.930573,-319
2021-12-27 15:32:49.930583,-239
2021-12-27 15:32:49.930592,-287
2021-12-27 15:32:49.930602,-289
2021-12-27 15:32:49.930611,-268
2021-12-27 15:32:49.930620,-289
2021-12-27 15:32:49.930630,-257
2021-12-27 15:32:49.930640,-207
2021-12-27 15:32:49.930649,-202
2021-12-27 15:32:49.930659,-186
2021-12-27 15:32:49.930668,-154
2021-12-27 15:32:49.930677,-141
2021-12-27 15:32:49.930687,-107
2021-12-27 15:32:49.930696,-68
2021-12-27 15:32:49.930706,-54
2021-12-27 15:32:49.930715,-41
2021-12-27 15:32:49.930725,-34
2021-12-27 15:32:49.930734,-47
2021-12-27 15:32:49.930743,-41
2021-12-27 15:32:49.930753,-13
2021-12-27 15:32:49.930762,-15
2021-12-27 15:32:49.930772,-50
2021-12-27 15:32:49.930781,-116
2021-12-27 15:32:50.174325,-205
2021-12-27 15:32:50.174355,-243
2021-12-27 15:32:50.174366,-236
2021-12-27 15:32:50.174376,-273
2021-12-27 15:32:50.174386,-303
2021-12-27 15:32:50.174396,-282
2021-12-27 15:32:50.174406,-305
2021-12-27 15:32:50.174415,-362
2021-12-27 15:32:50.174425,-346
2021-12-27 15:32:50.174434,-305
2021-12-27 15:32:50.174444,-305
2021-12-27 15:32:50.174453,-293
2021-12-27 15:32:50.174463,-282
2021-12-27 15:32:50.174472,-316
2021-12-27 15:32:50.174482,-334
2021-12-27 15:32:50.174492,-303
2021-12-27 15:32:50.174501,-280
2021-12-27 15:32:50.174511,-273
2021-12-27 15:32:50.174520,-264
2021-12-27 15:32:50.174530,-271
2021-12-27 15:32:50.174539,-289
2021-12-27 15:32:50.174549,-305
2021-12-27 15:32:50.174558,-309
2021-12-27 15:32:50.174568,-293
2021-12-27 15:32:50.174577,-289
2021-12-27 15:32:50.174587,-305
2021-12-27 15:32:50.174596,-328
2021-12-27 15:32:50.174606,-357
2021-12-27 15:32:50.174615,-378
2021-12-27 15:32:50.174625,-371
2021-12-27 15:32:50.369019,-387
2021-12-27 15:32:50.369049,-446
2021-12-27 15:32:50.369060,-462
2021-12-27 15:32:50.369070,-426
2021-12-27 15:32:50.369079,-396
2021-12-27 15:32:50.369089,-373
2021-12-27 15:32:50.369098,-357
2021-12-27 15:32:50.369108,-369
2021-12-27 15:32:50.369117,-423
2021-12-27 15:32:50.369127,-453
2021-12-27 15:32:50.369136,-401
2021-12-27 15:32:50.369146,-366
2021-12-27 15:32:50.369155,-371
2021-12-27 15:32:50.369165,-364
2021-12-27 15:32:50.369174,-387
2021-12-27 15:32:50.369184,-410
2021-12-27 15:32:50.369193,-346
2021-12-27 15:32:50.369203,-236
2021-12-27 15:32:50.369212,-77
2021-12-27 15:32:50.369222,50
2021-12-27 15:32:50.369231,-157
2021-12-27 15:32:50.369241,-669
2021-12-27 15:32:50.369250,-904
2021-12-27 15:32:50.369260,-610
2021-12-27 15:32:50.369269,-316
2021-12-27 15:32:50.369279,-303
2021-12-27 15:32:50.369288,-328
2021-12-27 15:32:50.369298,-321
2021-12-27 15:32:50.369307,-282
2021-12-27 15:32:50.369317,-241
2021-12-27 15:32:50.660886,-319
2021-12-27 15:32:50.660908,-389
2021-12-27 15:32:50.660915,-341
2021-12-27 15:32:50.660921,-375
2021-12-27 15:32:50.660927,-464
2021-12-27 15:32:50.660933,-416
2021-12-27 15:32:50.660940,-319
2021-12-27 15:32:50.660946,-330
2021-12-27 15:32:50.660952,-378
2021-12-27 15:32:50.660958,-348
2021-12-27 15:32:50.660964,-319
2021-12-27 15:32:50.660970,-264
2021-12-27 15:32:50.660976,-123
2021-12-27 15:32:50.660983,-107
2021-12-27 15:32:50.660989,-211
2021-12-27 15:32:50.660995,-246
2021-12-27 15:32:50.661001,-264
2021-12-27 15:32:50.661008,-303
2021-12-27 15:32:50.661014,-252
2021-12-27 15:32:50.661020,-216
2021-12-27 15:32:50.661026,-264
2021-12-27 15:32:50.661032,-298
2021-12-27 15:32:50.661038,-334
2021-12-27 15:32:50.661044,-401
2021-12-27 15:32:50.661051,-446
2021-12-27 15:32:50.661057,-428
2021-12-27 15:32:50.661063,-385
2021-12-27 15:32:50.661069,-346
2021-12-27 15:32:50.661075,-339
2021-12-27 15:32:50.661081,-369
2021-12-27 15:32:50.952275,-350
2021-12-27 15:32:50.952305,-366
2021-12-27 15:32:50.952317,-430
2021-12-27 15:32:50.952327,-357
2021-12-27 15:32:50.952336,-262
2021-12-27 15:32:50.952346,-303
2021-12-27 15:32:50.952355,-341
2021-12-27 15:32:50.952365,-325
2021-12-27 15:32:50.952374,-366
2021-12-27 15:32:50.952384,-394
2021-12-27 15:32:50.952393,-337
2021-12-27 15:32:50.952403,-401
2021-12-27 15:32:50.952412,-567
2021-12-27 15:32:50.952422,-546
2021-12-27 15:32:50.952431,-448
2021-12-27 15:32:50.952441,-455
2021-12-27 15:32:50.952450,-476
2021-12-27 15:32:50.952460,-492
2021-12-27 15:32:50.952482,-551
2021-12-27 15:32:50.952492,-587
2021-12-27 15:32:50.952501,-578
2021-12-27 15:32:50.952511,-562
2021-12-27 15:32:50.952520,-533
2021-12-27 15:32:50.952530,-499
2021-12-27 15:32:50.952539,-487
2021-12-27 15:32:50.952549,-483
2021-12-27 15:32:50.952558,-487
2021-12-27 15:32:50.952568,-510
2021-12-27 15:32:50.952577,-505
2021-12-27 15:32:50.952587,-471
2021-12-27 15:32:51.197902,-469
2021-12-27 15:32:51.197932,-485
2021-12-27 15:32:51.197943,-480
2021-12-27 15:32:51.197953,-478
2021-12-27 15:32:51.197962,-469
2021-12-27 15:32:51.197972,-437
2021-12-27 15:32:51.197981,-416
2021-12-27 15:32:51.197991,-371
2021-12-27 15:32:51.198000,-198
2021-12-27 15:32:51.198010,-61
2021-12-27 15:32:51.198019,-305
2021-12-27 15:32:51.198029,-863
2021-12-27 15:32:51.198038,-1150
2021-12-27 15:32:51.198047,-875
2021-12-27 15:32:51.198057,-571
2021-12-27 15:32:51.198066,-537
2021-12-27 15:32:51.198075,-476
2021-12-27 15:32:51.198085,-375
2021-12-27 15:32:51.198094,-387
2021-12-27 15:32:51.198103,-428
2021-12-27 15:32:51.198113,-448
2021-12-27 15:32:51.198122,-451
2021-12-27 15:32:51.198132,-412
2021-12-27 15:32:51.198141,-373
2021-12-27 15:32:51.198150,-357
2021-12-27 15:32:51.198159,-344
2021-12-27 15:32:51.198169,-341
2021-12-27 15:32:51.198178,-344
2021-12-27 15:32:51.198188,-314
2021-12-27 15:32:51.198197,-271
2021-12-27 15:32:51.392405,-246
2021-12-27 15:32:51.392427,-225
2021-12-27 15:32:51.392434,-230
2021-12-27 15:32:51.392441,-250
2021-12-27 15:32:51.392447,-234
2021-12-27 15:32:51.392453,-202
2021-12-27 15:32:51.392459,-202
2021-12-27 15:32:51.392465,-209
2021-12-27 15:32:51.392471,-234
2021-12-27 15:32:51.392478,-307
2021-12-27 15:32:51.392484,-366
2021-12-27 15:32:51.392490,-373
2021-12-27 15:32:51.392496,-389
2021-12-27 15:32:51.392502,-416
2021-12-27 15:32:51.392509,-446
2021-12-27 15:32:51.392515,-510
2021-12-27 15:32:51.392521,-537
2021-12-27 15:32:51.392527,-483
2021-12-27 15:32:51.392533,-442
2021-12-27 15:32:51.392539,-437
2021-12-27 15:32:51.392546,-426
2021-12-27 15:32:51.392552,-444
2021-12-27 15:32:51.392558,-458
2021-12-27 15:32:51.392564,-423
2021-12-27 15:32:51.392570,-389
2021-12-27 15:32:51.392577,-382
2021-12-27 15:32:51.392583,-378
2021-12-27 15:32:51.392589,-401
2021-12-27 15:32:51.392595,-442
2021-12-27 15:32:51.392602,-446
2021-12-27 15:32:51.587816,-432
2021-12-27 15:32:51.587845,-423
2021-12-27 15:32:51.587857,-414
2021-12-27 15:32:51.587867,-430
2021-12-27 15:32:51.587877,-478
2021-12-27 15:32:51.587886,-494
2021-12-27 15:32:51.587896,-471
2021-12-27 15:32:51.587905,-467
2021-12-27 15:32:51.587914,-473
2021-12-27 15:32:51.587924,-485
2021-12-27 15:32:51.587933,-496
2021-12-27 15:32:51.587943,-503
2021-12-27 15:32:51.587952,-510
2021-12-27 15:32:51.587962,-476
2021-12-27 15:32:51.587971,-432
2021-12-27 15:32:51.587980,-430
2021-12-27 15:32:51.587990,-432
2021-12-27 15:32:51.587999,-451
2021-12-27 15:32:51.588009,-501
2021-12-27 15:32:51.588018,-487
2021-12-27 15:32:51.588028,-439
2021-12-27 15:32:51.588037,-442
2021-12-27 15:32:51.588046,-451
2021-12-27 15:32:51.588056,-458
2021-12-27 15:32:51.588065,-467
2021-12-27 15:32:51.588075,-435
2021-12-27 15:32:51.588084,-401
2021-12-27 15:32:51.588093,-394
2021-12-27 15:32:51.588103,-344
2021-12-27 15:32:51.588113,-182
2021-12-27 15:32:51.782872,13
2021-12-27 15:32:51.782901,-20
2021-12-27 15:32:51.782913,-442
2021-12-27 15:32:51.782924,-895
2021-12-27 15:32:51.782933,-847
2021-12-27 15:32:51.782943,-478
2021-12-27 15:32:51.782952,-364
2021-12-27 15:32:51.782962,-385
2021-12-27 15:32:51.782971,-273
2021-12-27 15:32:51.782981,-232
2021-12-27 15:32:51.782990,-271
2021-12-27 15:32:51.783000,-241
2021-12-27 15:32:51.783010,-218
2021-12-27 15:32:51.783019,-257
2021-12-27 15:32:51.783029,-277
2021-12-27 15:32:51.783039,-248
2021-12-27 15:32:51.783048,-218
2021-12-27 15:32:51.783058,-202
2021-12-27 15:32:51.783068,-209
2021-12-27 15:32:51.783077,-230
2021-12-27 15:32:51.783087,-209
2021-12-27 15:32:51.783096,-166
2021-12-27 15:32:51.783106,-145
2021-12-27 15:32:51.783116,-125
2021-12-27 15:32:51.783125,-107
2021-12-27 15:32:51.783134,-113
2021-12-27 15:32:51.783144,-120
2021-12-27 15:32:51.783154,-113
2021-12-27 15:32:51.783163,-113
2021-12-27 15:32:51.783172,-118
2021-12-27 15:32:52.026607,-129
2021-12-27 15:32:52.026627,-175
2021-12-27 15:32:52.026635,-234
2021-12-27 15:32:52.026641,-273
2021-12-27 15:32:52.026648,-293
2021-12-27 15:32:52.026654,-307
2021-12-27 15:32:52.026660,-319
2021-12-27 15:32:52.026666,-348
2021-12-27 15:32:52.026673,-391
2021-12-27 15:32:52.026679,-389
2021-12-27 15:32:52.026685,-348
2021-12-27 15:32:52.026691,-316
2021-12-27 15:32:52.026697,-300
2021-12-27 15:32:52.026704,-305
2021-12-27 15:32:52.026710,-350
2021-12-27 15:32:52.026716,-391
2021-12-27 15:32:52.026722,-375
2021-12-27 15:32:52.026729,-328
2021-12-27 15:32:52.026735,-305
2021-12-27 15:32:52.026741,-307
2021-12-27 15:32:52.026748,-339
2021-12-27 15:32:52.026754,-375
2021-12-27 15:32:52.026760,-382
2021-12-27 15:32:52.026766,-403
2021-12-27 15:32:52.026773,-412
2021-12-27 15:32:52.026779,-369
2021-12-27 15:32:52.026785,-369
2021-12-27 15:32:52.026791,-421
2021-12-27 15:32:52.026797,-419
2021-12-27 15:32:52.026804,-396
2021-12-27 15:32:52.221671,-412
2021-12-27 15:32:52.221701,-405
2021-12-27 15:32:52.221712,-394
2021-12-27 15:32:52.221735,-430
2021-12-27 15:32:52.221745,-442
2021-12-27 15:32:52.221754,-398
2021-12-27 15:32:52.221764,-373
2021-12-27 15:32:52.221774,-373
2021-12-27 15:32:52.221784,-380
2021-12-27 15:32:52.221793,-416
2021-12-27 15:32:52.221803,-426
2021-12-27 15:32:52.221812,-366
2021-12-27 15:32:52.221822,-323
2021-12-27 15:32:52.221831,-328
2021-12-27 15:32:52.221841,-337
2021-12-27 15:32:52.221850,-369
2021-12-27 15:32:52.221860,-414
2021-12-27 15:32:52.221869,-421
2021-12-27 15:32:52.221879,-401
2021-12-27 15:32:52.221888,-373
2021-12-27 15:32:52.221898,-348
2021-12-27 15:32:52.221907,-353
2021-12-27 15:32:52.221917,-357
2021-12-27 15:32:52.221926,-321
2021-12-27 15:32:52.221936,-239
2021-12-27 15:32:52.221946,-61
2021-12-27 15:32:52.221955,134
2021-12-27 15:32:52.221965,29
2021-12-27 15:32:52.221974,-453
2021-12-27 15:32:52.221984,-838
2021-12-27 15:32:52.464293,-690
2021-12-27 15:32:52.464314,-328
2021-12-27 15:32:52.464321,-236
2021-12-27 15:32:52.464328,-255
2021-12-27 15:32:52.464334,-195
2021-12-27 15:32:52.464340,-207
2021-12-27 15:32:52.464346,-234
2021-12-27 15:32:52.464352,-186
2021-12-27 15:32:52.464358,-168
2021-12-27 15:32:52.464364,-193
2021-12-27 15:32:52.464371,-198
2021-12-27 15:32:52.464377,-207
2021-12-27 15:32:52.464383,-214
2021-12-27 15:32:52.464389,-170
2021-12-27 15:32:52.464396,-136
2021-12-27 15:32:52.464402,-138
2021-12-27 15:32:52.464408,-125
2021-12-27 15:32:52.464414,-109
2021-12-27 15:32:52.464420,-113
2021-12-27 15:32:52.464426,-120
2021-12-27 15:32:52.464432,-125
2021-12-27 15:32:52.464439,-116
2021-12-27 15:32:52.464445,-93
2021-12-27 15:32:52.464451,-88
2021-12-27 15:32:52.464457,-104
2021-12-27 15:32:52.464463,-107
2021-12-27 15:32:52.464470,-109
2021-12-27 15:32:52.464476,-159
2021-12-27 15:32:52.464482,-257
2021-12-27 15:32:52.464488,-337
2021-12-27 15:32:52.757403,-346
2021-12-27 15:32:52.757433,-334
2021-12-27 15:32:52.757444,-348
2021-12-27 15:32:52.757454,-360
2021-12-27 15:32:52.757463,-344
2021-12-27 15:32:52.757473,-321
2021-12-27 15:32:52.757482,-341
2021-12-27 15:32:52.757491,-369
2021-12-27 15:32:52.757501,-337
2021-12-27 15:32:52.757510,-305
2021-12-27 15:32:52.757520,-300
2021-12-27 15:32:52.757529,-296
2021-12-27 15:32:52.757538,-330
2021-12-27 15:32:52.757548,-373
2021-12-27 15:32:52.757557,-353
2021-12-27 15:32:52.757566,-319
2021-12-27 15:32:52.757576,-314
2021-12-27 15:32:52.757585,-305
2021-12-27 15:32:52.757594,-314
2021-12-27 15:32:52.757604,-353
2021-12-27 15:32:52.757613,-380
2021-12-27 15:32:52.757623,-412
2021-12-27 15:32:52.757632,-435
2021-12-27 15:32:52.757642,-391
2021-12-27 15:32:52.757651,-357
2021-12-27 15:32:52.757661,-375
2021-12-27 15:32:52.757670,-387
2021-12-27 15:32:52.757679,-373
2021-12-27 15:32:52.757689,-355
2021-12-27 15:32:52.757698,-341
2021-12-27 15:32:53.000731,-328
2021-12-27 15:32:53.000762,-332
2021-12-27 15:32:53.000773,-350
2021-12-27 15:32:53.000783,-362
2021-12-27 15:32:53.000793,-353
2021-12-27 15:32:53.000802,-339
2021-12-27 15:32:53.000812,-316
2021-12-27 15:32:53.000821,-305
2021-12-27 15:32:53.000831,-344
2021-12-27 15:32:53.000840,-373
2021-12-27 15:32:53.000850,-330
2021-12-27 15:32:53.000859,-291
2021-12-27 15:32:53.000869,-284
2021-12-27 15:32:53.000878,-271
2021-12-27 15:32:53.000888,-284
2021-12-27 15:32:53.000897,-316
2021-12-27 15:32:53.000907,-293
2021-12-27 15:32:53.000916,-250
2021-12-27 15:32:53.000926,-243
2021-12-27 15:32:53.000935,-239
2021-12-27 15:32:53.000945,-241
2021-12-27 15:32:53.000954,-241
2021-12-27 15:32:53.000964,-88
2021-12-27 15:32:53.000973,127
2021-12-27 15:32:53.000983,34
2021-12-27 15:32:53.000993,-412
2021-12-27 15:32:53.001002,-795
2021-12-27 15:32:53.001012,-729
2021-12-27 15:32:53.001021,-389
2021-12-27 15:32:53.001031,-234
2021-12-27 15:32:53.147850,-223
2021-12-27 15:32:53.147879,-141
2021-12-27 15:32:53.147890,-111
2021-12-27 15:32:53.147900,-186
2021-12-27 15:32:53.147910,-243
2021-12-27 15:32:53.147920,-221
2021-12-27 15:32:53.147929,-170
2021-12-27 15:32:53.147939,-152
2021-12-27 15:32:53.147948,-145
2021-12-27 15:32:53.147958,-161
2021-12-27 15:32:53.147967,-193
2021-12-27 15:32:53.147977,-173
2021-12-27 15:32:53.147986,-113
2021-12-27 15:32:53.147996,-88
2021-12-27 15:32:53.148006,-88
2021-12-27 15:32:53.148015,-88
2021-12-27 15:32:53.148025,-116
2021-12-27 15:32:53.148035,-123
2021-12-27 15:32:53.148044,-75
2021-12-27 15:32:53.148054,-43
2021-12-27 15:32:53.148063,-54
2021-12-27 15:32:53.148073,-70
2021-12-27 15:32:53.148082,-86
2021-12-27 15:32:53.148092,-107
2021-12-27 15:32:53.148101,-127
2021-12-27 15:32:53.148111,-184
2021-12-27 15:32:53.148121,-262
2021-12-27 15:32:53.148130,-293
2021-12-27 15:32:53.148140,-300
2021-12-27 15:32:53.148149,-325
2021-12-27 15:32:53.391138,-344
2021-12-27 15:32:53.391168,-341
2021-12-27 15:32:53.391180,-334
2021-12-27 15:32:53.391189,-330
2021-12-27 15:32:53.391199,-328
2021-12-27 15:32:53.391209,-344
2021-12-27 15:32:53.391219,-360
2021-12-27 15:32:53.391228,-348
2021-12-27 15:32:53.391238,-339
2021-12-27 15:32:53.391247,-355
2021-12-27 15:32:53.391257,-369
2021-12-27 15:32:53.391266,-380
2021-12-27 15:32:53.391276,-391
2021-12-27 15:32:53.391285,-369
2021-12-27 15:32:53.391295,-339
2021-12-27 15:32:53.391304,-339
2021-12-27 15:32:53.391313,-337
2021-12-27 15:32:53.391323,-321
2021-12-27 15:32:53.391332,-321
2021-12-27 15:32:53.391342,-314
2021-12-27 15:32:53.391351,-296
2021-12-27 15:32:53.391361,-296
2021-12-27 15:32:53.391370,-293
2021-12-27 15:32:53.391380,-280
2021-12-27 15:32:53.391389,-284
2021-12-27 15:32:53.391398,-287
2021-12-27 15:32:53.391408,-273
2021-12-27 15:32:53.391417,-298
2021-12-27 15:32:53.391427,-334
2021-12-27 15:32:53.391436,-305
2021-12-27 15:32:53.635383,-282
2021-12-27 15:32:53.635419,-296
2021-12-27 15:32:53.635431,-289
2021-12-27 15:32:53.635440,-273
2021-12-27 15:32:53.635450,-273
2021-12-27 15:32:53.635459,-255
2021-12-27 15:32:53.635469,-243
2021-12-27 15:32:53.635478,-273
2021-12-27 15:32:53.635488,-293
2021-12-27 15:32:53.635511,-319
2021-12-27 15:32:53.635521,-360
2021-12-27 15:32:53.635531,-332
2021-12-27 15:32:53.635540,-289
2021-12-27 15:32:53.635550,-323
2021-12-27 15:32:53.635559,-350
2021-12-27 15:32:53.635568,-312
2021-12-27 15:32:53.635578,-277
2021-12-27 15:32:53.635587,-266
2021-12-27 15:32:53.635597,-246
2021-12-27 15:32:53.635606,-232
2021-12-27 15:32:53.635616,-225
2021-12-27 15:32:53.635625,-118
2021-12-27 15:32:53.635635,109
2021-12-27 15:32:53.635644,191
2021-12-27 15:32:53.635654,-123
2021-12-27 15:32:53.635664,-615
2021-12-27 15:32:53.635673,-745
2021-12-27 15:32:53.635683,-435
2021-12-27 15:32:53.635692,-202
2021-12-27 15:32:53.635702,-211
2021-12-27 15:32:53.830441,-182
2021-12-27 15:32:53.830461,-116
2021-12-27 15:32:53.830469,-143
2021-12-27 15:32:53.830475,-177
2021-12-27 15:32:53.830482,-145
2021-12-27 15:32:53.830488,-113
2021-12-27 15:32:53.830494,-111
2021-12-27 15:32:53.830500,-100
2021-12-27 15:32:53.830506,-113
2021-12-27 15:32:53.830512,-159
2021-12-27 15:32:53.830518,-141
2021-12-27 15:32:53.830525,-75
2021-12-27 15:32:53.830531,-52
2021-12-27 15:32:53.830537,-41
2021-12-27 15:32:53.830543,-34
2021-12-27 15:32:53.830549,-63
2021-12-27 15:32:53.830555,-68
2021-12-27 15:32:53.830562,-18
2021-12-27 15:32:53.830568,6
2021-12-27 15:32:53.830574,-15
2021-12-27 15:32:53.830580,-50
2021-12-27 15:32:53.830586,-88
2021-12-27 15:32:53.830592,-109
2021-12-27 15:32:53.830599,-107
2021-12-27 15:32:53.830605,-123
2021-12-27 15:32:53.830611,-170
2021-12-27 15:32:53.830617,-234
2021-12-27 15:32:53.830623,-307
2021-12-27 15:32:53.830629,-350
2021-12-27 15:32:53.830635,-360
2021-12-27 15:32:54.074150,-357
2021-12-27 15:32:54.074180,-364
2021-12-27 15:32:54.074191,-387
2021-12-27 15:32:54.074200,-407
2021-12-27 15:32:54.074210,-421
2021-12-27 15:32:54.074219,-403
2021-12-27 15:32:54.074229,-350
2021-12-27 15:32:54.074239,-319
2021-12-27 15:32:54.074248,-307
2021-12-27 15:32:54.074258,-309
2021-12-27 15:32:54.074267,-334
2021-12-27 15:32:54.074277,-348
2021-12-27 15:32:54.074287,-312
2021-12-27 15:32:54.074296,-289
2021-12-27 15:32:54.074306,-339
2021-12-27 15:32:54.074315,-391
2021-12-27 15:32:54.074325,-369
2021-12-27 15:32:54.074335,-328
2021-12-27 15:32:54.074344,-319
2021-12-27 15:32:54.074353,-300
2021-12-27 15:32:54.074363,-284
2021-12-27 15:32:54.074372,-289
2021-12-27 15:32:54.074382,-289
2021-12-27 15:32:54.074392,-284
2021-12-27 15:32:54.074401,-280
2021-12-27 15:32:54.074411,-262
2021-12-27 15:32:54.074421,-248
2021-12-27 15:32:54.074430,-248
2021-12-27 15:32:54.074440,-243
2021-12-27 15:32:54.074449,-239
2021-12-27 15:32:54.415668,-236
2021-12-27 15:32:54.415699,-221
2021-12-27 15:32:54.415711,-218
2021-12-27 15:32:54.415721,-257
2021-12-27 15:32:54.415730,-287
2021-12-27 15:32:54.415740,-291
2021-12-27 15:32:54.415749,-296
2021-12-27 15:32:54.415758,-268
2021-12-27 15:32:54.415768,-223
2021-12-27 15:32:54.415777,-216
2021-12-27 15:32:54.415787,-216
2021-12-27 15:32:54.415796,-218
2021-12-27 15:32:54.415806,-257
2021-12-27 15:32:54.415815,-266
2021-12-27 15:32:54.415825,-230
2021-12-27 15:32:54.415834,-221
2021-12-27 15:32:54.415843,-221
2021-12-27 15:32:54.415853,-195
2021-12-27 15:32:54.415862,-189
2021-12-27 15:32:54.415871,-191
2021-12-27 15:32:54.415881,-170
2021-12-27 15:32:54.415890,-116
2021-12-27 15:32:54.415900,41
2021-12-27 15:32:54.415909,248
2021-12-27 15:32:54.415918,177
2021-12-27 15:32:54.415928,-287
2021-12-27 15:32:54.415937,-697
2021-12-27 15:32:54.415947,-608
2021-12-27 15:32:54.415956,-257
2021-12-27 15:32:54.415966,-134
2021-12-27 15:32:54.608764,-148
2021-12-27 15:32:54.608781,-75
2021-12-27 15:32:54.608789,-52
2021-12-27 15:32:54.608795,-93
2021-12-27 15:32:54.608801,-88
2021-12-27 15:32:54.608808,-79
2021-12-27 15:32:54.608814,-113
2021-12-27 15:32:54.608820,-143
2021-12-27 15:32:54.608827,-143
2021-12-27 15:32:54.608833,-136
2021-12-27 15:32:54.608839,-136
2021-12-27 15:32:54.608846,-116
2021-12-27 15:32:54.608852,-75
2021-12-27 15:32:54.608858,-63
2021-12-27 15:32:54.608865,-68
2021-12-27 15:32:54.608871,-59
2021-12-27 15:32:54.608877,-52
2021-12-27 15:32:54.608884,-59
2021-12-27 15:32:54.608890,-54
2021-12-27 15:32:54.608896,-68
2021-12-27 15:32:54.608903,-127
2021-12-27 15:32:54.608909,-180
2021-12-27 15:32:54.608915,-161
2021-12-27 15:32:54.608921,-136
2021-12-27 15:32:54.608928,-161
2021-12-27 15:32:54.608934,-207
2021-12-27 15:32:54.608940,-282
2021-12-27 15:32:54.608947,-357
2021-12-27 15:32:54.608953,-355
2021-12-27 15:32:54.608959,-325
2021-12-27 15:32:54.756635,-325
2021-12-27 15:32:54.756666,-325
2021-12-27 15:32:54.756677,-328
2021-12-27 15:32:54.756687,-348
2021-12-27 15:32:54.756697,-330
2021-12-27 15:32:54.756706,-287
2021-12-27 15:32:54.756716,-266
2021-12-27 15:32:54.756725,-275
2021-12-27 15:32:54.756734,-314
2021-12-27 15:32:54.756744,-355
2021-12-27 15:32:54.756753,-341
2021-12-27 15:32:54.756763,-284
2021-12-27 15:32:54.756772,-255
2021-12-27 15:32:54.756782,-246
2021-12-27 15:32:54.756791,-241
2021-12-27 15:32:54.756801,-282
2021-12-27 15:32:54.756810,-319
2021-12-27 15:32:54.756819,-277
2021-12-27 15:32:54.756829,-232
2021-12-27 15:32:54.756838,-232
2021-12-27 15:32:54.756848,-230
2021-12-27 15:32:54.756857,-241
2021-12-27 15:32:54.756866,-264
2021-12-27 15:32:54.756876,-248
2021-12-27 15:32:54.756885,-214
2021-12-27 15:32:54.756895,-202
2021-12-27 15:32:54.756904,-202
2021-12-27 15:32:54.756914,-209
2021-12-27 15:32:54.756923,-223
2021-12-27 15:32:54.756933,-211
2021-12-27 15:32:55.048154,-184
2021-12-27 15:32:55.048184,-170
2021-12-27 15:32:55.048196,-177
2021-12-27 15:32:55.048205,-195
2021-12-27 15:32:55.048215,-234
2021-12-27 15:32:55.048225,-257
2021-12-27 15:32:55.048235,-223
2021-12-27 15:32:55.048245,-186
2021-12-27 15:32:55.048254,-180
2021-12-27 15:32:55.048264,-198
2021-12-27 15:32:55.048274,-243
2021-12-27 15:32:55.048283,-273
2021-12-27 15:32:55.048293,-246
2021-12-27 15:32:55.048303,-214
2021-12-27 15:32:55.048313,-214
2021-12-27 15:32:55.048322,-209
2021-12-27 15:32:55.048332,-198
2021-12-27 15:32:55.048341,-200
2021-12-27 15:32:55.048351,-198
2021-12-27 15:32:55.048361,-173
2021-12-27 15:32:55.048370,-159
2021-12-27 15:32:55.048380,-164
2021-12-27 15:32:55.048390,-138
2021-12-27 15:32:55.048399,-43
2021-12-27 15:32:55.048419,152
2021-12-27 15:32:55.048430,273
2021-12-27 15:32:55.048439,-15
2021-12-27 15:32:55.048449,-574
2021-12-27 15:32:55.048459,-761
2021-12-27 15:32:55.048468,-451
2021-12-27 15:32:55.341944,-207
2021-12-27 15:32:55.341974,-214
2021-12-27 15:32:55.341987,-180
2021-12-27 15:32:55.341997,-107
2021-12-27 15:32:55.342006,-120
2021-12-27 15:32:55.342016,-143
2021-12-27 15:32:55.342026,-152
2021-12-27 15:32:55.342035,-182
2021-12-27 15:32:55.342050,-193
2021-12-27 15:32:55.342060,-186
2021-12-27 15:32:55.342069,-189
2021-12-27 15:32:55.342079,-214
2021-12-27 15:32:55.342088,-259
2021-12-27 15:32:55.342098,-264
2021-12-27 15:32:55.342108,-211
2021-12-27 15:32:55.342117,-177
2021-12-27 15:32:55.342127,-164
2021-12-27 15:32:55.342136,-125
2021-12-27 15:32:55.342146,-100
2021-12-27 15:32:55.342156,-95
2021-12-27 15:32:55.342165,-86
2021-12-27 15:32:55.342175,-77
2021-12-27 15:32:55.342184,-70
2021-12-27 15:32:55.342194,-61
2021-12-27 15:32:55.342203,-70
2021-12-27 15:32:55.342213,-109
2021-12-27 15:32:55.342222,-152
2021-12-27 15:32:55.342232,-193
2021-12-27 15:32:55.342241,-223
2021-12-27 15:32:55.342251,-241
2021-12-27 15:32:55.536606,-255
2021-12-27 15:32:55.536628,-275
2021-12-27 15:32:55.536636,-291
2021-12-27 15:32:55.536642,-293
2021-12-27 15:32:55.536648,-273
2021-12-27 15:32:55.536654,-241
2021-12-27 15:32:55.536660,-221
2021-12-27 15:32:55.536667,-236
2021-12-27 15:32:55.536673,-282
2021-12-27 15:32:55.536679,-282
2021-12-27 15:32:55.536685,-232
2021-12-27 15:32:55.536691,-200
2021-12-27 15:32:55.536697,-193
2021-12-27 15:32:55.536704,-200
2021-12-27 15:32:55.536710,-234
2021-12-27 15:32:55.536716,-243
2021-12-27 15:32:55.536722,-202
2021-12-27 15:32:55.536728,-180
2021-12-27 15:32:55.536734,-175
2021-12-27 15:32:55.536740,-161
2021-12-27 15:32:55.536747,-170
2021-12-27 15:32:55.536753,-193
2021-12-27 15:32:55.536759,-182
2021-12-27 15:32:55.536765,-154
2021-12-27 15:32:55.536771,-148
2021-12-27 15:32:55.536777,-145
2021-12-27 15:32:55.536784,-164
2021-12-27 15:32:55.536790,-211
2021-12-27 15:32:55.536796,-214
2021-12-27 15:32:55.536802,-170
2021-12-27 15:32:55.682916,-154
2021-12-27 15:32:55.682946,-161
2021-12-27 15:32:55.682957,-216
2021-12-27 15:32:55.682967,-305
2021-12-27 15:32:55.682977,-300
2021-12-27 15:32:55.682986,-223
2021-12-27 15:32:55.682996,-205
2021-12-27 15:32:55.683006,-209
2021-12-27 15:32:55.683015,-198
2021-12-27 15:32:55.683025,-234
2021-12-27 15:32:55.683034,-282
2021-12-27 15:32:55.683044,-243
2021-12-27 15:32:55.683053,-182
2021-12-27 15:32:55.683062,-168
2021-12-27 15:32:55.683072,-168
2021-12-27 15:32:55.683081,-184
2021-12-27 15:32:55.683091,-225
2021-12-27 15:32:55.683100,-225
2021-12-27 15:32:55.683109,-182
2021-12-27 15:32:55.683119,-166
2021-12-27 15:32:55.683128,-173
2021-12-27 15:32:55.683137,-184
2021-12-27 15:32:55.683147,-214
2021-12-27 15:32:55.683156,-225
2021-12-27 15:32:55.683166,-186
2021-12-27 15:32:55.683175,-152
2021-12-27 15:32:55.683185,-143
2021-12-27 15:32:55.683194,-84
2021-12-27 15:32:55.683204,91
2021-12-27 15:32:55.683213,214
2021-12-27 15:32:56.024279,-4
2021-12-27 15:32:56.024310,-487
2021-12-27 15:32:56.024322,-717
2021-12-27 15:32:56.024332,-485
2021-12-27 15:32:56.024341,-264
2021-12-27 15:32:56.024351,-289
2021-12-27 15:32:56.024361,-271
2021-12-27 15:32:56.024370,-177
2021-12-27 15:32:56.024380,-168
2021-12-27 15:32:56.024390,-184
2021-12-27 15:32:56.024399,-168
2021-12-27 15:32:56.024409,-191
2021-12-27 15:32:56.024419,-216
2021-12-27 15:32:56.024428,-177
2021-12-27 15:32:56.024438,-141
2021-12-27 15:32:56.024448,-141
2021-12-27 15:32:56.024458,-113
2021-12-27 15:32:56.024467,-77
2021-12-27 15:32:56.024477,-86
2021-12-27 15:32:56.024486,-84
2021-12-27 15:32:56.024496,-38
2021-12-27 15:32:56.024506,-13
2021-12-27 15:32:56.024515,-6
2021-12-27 15:32:56.024525,13
2021-12-27 15:32:56.024535,15
2021-12-27 15:32:56.024544,11
2021-12-27 15:32:56.024554,22
2021-12-27 15:32:56.024564,13
2021-12-27 15:32:56.024606,4
2021-12-27 15:32:56.024616,2
2021-12-27 15:32:56.170341,-38
2021-12-27 15:32:56.170370,-95
2021-12-27 15:32:56.170381,-118
2021-12-27 15:32:56.170391,-136
2021-12-27 15:32:56.170401,-159
2021-12-27 15:32:56.170411,-161
2021-12-27 15:32:56.170421,-161
2021-12-27 15:32:56.170430,-191
2021-12-27 15:32:56.170440,-232
2021-12-27 15:32:56.170450,-214
2021-12-27 15:32:56.170459,-152
2021-12-27 15:32:56.170469,-127
2021-12-27 15:32:56.170478,-143
2021-12-27 15:32:56.170488,-173
2021-12-27 15:32:56.170498,-182
2021-12-27 15:32:56.170508,-154
2021-12-27 15:32:56.170518,-113
2021-12-27 15:32:56.170527,-82
2021-12-27 15:32:56.170537,-66
2021-12-27 15:32:56.170547,-63
2021-12-27 15:32:56.170556,-91
2021-12-27 15:32:56.170566,-107
2021-12-27 15:32:56.170576,-77
2021-12-27 15:32:56.170585,-50
2021-12-27 15:32:56.170595,-47
2021-12-27 15:32:56.170605,-75
2021-12-27 15:32:56.170614,-113
2021-12-27 15:32:56.170624,-104
2021-12-27 15:32:56.170634,-70
2021-12-27 15:32:56.170643,-63
2021-12-27 15:32:56.365243,-59
2021-12-27 15:32:56.365273,-52
2021-12-27 15:32:56.365284,-70
2021-12-27 15:32:56.365294,-91
2021-12-27 15:32:56.365304,-77
2021-12-27 15:32:56.365313,-54
2021-12-27 15:32:56.365323,-43
2021-12-27 15:32:56.365332,-43
2021-12-27 15:32:56.365342,-91
2021-12-27 15:32:56.365351,-143
2021-12-27 15:32:56.365361,-113
2021-12-27 15:32:56.365370,-61
2021-12-27 15:32:56.365380,-52
2021-12-27 15:32:56.365389,-36
2021-12-27 15:32:56.365399,-41
2021-12-27 15:32:56.365408,-111
2021-12-27 15:32:56.365418,-123
2021-12-27 15:32:56.365427,-63
2021-12-27 15:32:56.365437,-43
2021-12-27 15:32:56.365446,-52
2021-12-27 15:32:56.365456,-45
2021-12-27 15:32:56.365465,-66
2021-12-27 15:32:56.365475,-107
2021-12-27 15:32:56.365484,-107
2021-12-27 15:32:56.365493,-86
2021-12-27 15:32:56.365503,-70
2021-12-27 15:32:56.365512,29
2021-12-27 15:32:56.365522,225
2021-12-27 15:32:56.365531,305
2021-12-27 15:32:56.365541,34
2021-12-27 15:32:56.608919,-462
2021-12-27 15:32:56.608941,-660
2021-12-27 15:32:56.608948,-373
2021-12-27 15:32:56.608955,-170
2021-12-27 15:32:56.608961,-232
2021-12-27 15:32:56.608967,-166
2021-12-27 15:32:56.608974,-43
2021-12-27 15:32:56.608980,-68
2021-12-27 15:32:56.608986,-97
2021-12-27 15:32:56.608992,-88
2021-12-27 15:32:56.608999,-125
2021-12-27 15:32:56.609005,-127
2021-12-27 15:32:56.609011,-66
2021-12-27 15:32:56.609017,-56
2021-12-27 15:32:56.609024,-123
2021-12-27 15:32:56.609030,-150
2021-12-27 15:32:56.609036,-113
2021-12-27 15:32:56.609042,-84
2021-12-27 15:32:56.609049,-56
2021-12-27 15:32:56.609055,-20
2021-12-27 15:32:56.609061,-6
2021-12-27 15:32:56.609067,2
2021-12-27 15:32:56.609074,11
2021-12-27 15:32:56.609080,0
2021-12-27 15:32:56.609086,-20
2021-12-27 15:32:56.609092,-22
2021-12-27 15:32:56.609099,-20
2021-12-27 15:32:56.609105,-47
2021-12-27 15:32:56.609111,-77
2021-12-27 15:32:56.609117,-111
2021-12-27 15:32:56.852959,-154
2021-12-27 15:32:56.852989,-177
2021-12-27 15:32:56.853000,-191
2021-12-27 15:32:56.853010,-230
2021-12-27 15:32:56.853019,-252
2021-12-27 15:32:56.853029,-275
2021-12-27 15:32:56.853038,-300
2021-12-27 15:32:56.853048,-264
2021-12-27 15:32:56.853057,-225
2021-12-27 15:32:56.853067,-234
2021-12-27 15:32:56.853076,-223
2021-12-27 15:32:56.853085,-205
2021-12-27 15:32:56.853095,-218
2021-12-27 15:32:56.853104,-211
2021-12-27 15:32:56.853114,-182
2021-12-27 15:32:56.853123,-170
2021-12-27 15:32:56.853132,-154
2021-12-27 15:32:56.853142,-143
2021-12-27 15:32:56.853151,-150
2021-12-27 15:32:56.853161,-134
2021-12-27 15:32:56.853170,-118
2021-12-27 15:32:56.853180,-136
2021-12-27 15:32:56.853189,-132
2021-12-27 15:32:56.853199,-97
2021-12-27 15:32:56.853208,-107
2021-12-27 15:32:56.853217,-148
2021-12-27 15:32:56.853227,-164
2021-12-27 15:32:56.853236,-157
2021-12-27 15:32:56.853246,-138
2021-12-27 15:32:56.853255,-116
2021-12-27 15:32:57.143544,-109
2021-12-27 15:32:57.143562,-123
2021-12-27 15:32:57.143569,-120
2021-12-27 15:32:57.143579,-109
2021-12-27 15:32:57.143586,-102
2021-12-27 15:32:57.143592,-91
2021-12-27 15:32:57.143598,-88
2021-12-27 15:32:57.143604,-116
2021-12-27 15:32:57.143611,-118
2021-12-27 15:32:57.143617,-88
2021-12-27 15:32:57.143623,-79
2021-12-27 15:32:57.143629,-88
2021-12-27 15:32:57.143635,-88
2021-12-27 15:32:57.143641,-102
2021-12-27 15:32:57.143648,-136
2021-12-27 15:32:57.143654,-143
2021-12-27 15:32:57.143660,-113
2021-12-27 15:32:57.143667,-91
2021-12-27 15:32:57.143673,-93
2021-12-27 15:32:57.143679,-134
2021-12-27 15:32:57.143685,-177
2021-12-27 15:32:57.143692,-141
2021-12-27 15:32:57.143698,-4
2021-12-27 15:32:57.143704,189
2021-12-27 15:32:57.143710,275
2021-12-27 15:32:57.143716,22
2021-12-27 15:32:57.143723,-496
2021-12-27 15:32:57.143729,-733
2021-12-27 15:32:57.143735,-448
2021-12-27 15:32:57.143742,-195
2021-12-27 15:32:57.340513,-221
2021-12-27 15:32:57.340534,-198
2021-12-27 15:32:57.340541,-123
2021-12-27 15:32:57.340548,-173
2021-12-27 15:32:57.340554,-207
2021-12-27 15:32:57.340560,-150
2021-12-27 15:32:57.340566,-116
2021-12-27 15:32:57.340572,-118
2021-12-27 15:32:57.340579,-127
2021-12-27 15:32:57.340585,-152
2021-12-27 15:32:57.340591,-148
2021-12-27 15:32:57.340597,-100
2021-12-27 15:32:57.340603,-72
2021-12-27 15:32:57.340610,-59
2021-12-27 15:32:57.340616,-41
2021-12-27 15:32:57.340622,-70
2021-12-27 15:32:57.340628,-79
2021-12-27 15:32:57.340634,-9
2021-12-27 15:32:57.340641,36
2021-12-27 15:32:57.340647,29
2021-12-27 15:32:57.340653,29
2021-12-27 15:32:57.340659,6
2021-12-27 15:32:57.340666,-25
2021-12-27 15:32:57.340672,-25
2021-12-27 15:32:57.340678,-43
2021-12-27 15:32:57.340684,-88
2021-12-27 15:32:57.340690,-129
2021-12-27 15:32:57.340696,-186
2021-12-27 15:32:57.340703,-239
2021-12-27 15:32:57.340709,-250
2021-12-27 15:32:57.535684,-275
2021-12-27 15:32:57.535714,-293
2021-12-27 15:32:57.535725,-252
2021-12-27 15:32:57.535735,-252
2021-12-27 15:32:57.535744,-312
2021-12-27 15:32:57.535754,-307
2021-12-27 15:32:57.535763,-243
2021-12-27 15:32:57.535773,-223
2021-12-27 15:32:57.535782,-227
2021-12-27 15:32:57.535792,-207
2021-12-27 15:32:57.535801,-191
2021-12-27 15:32:57.535811,-175
2021-12-27 15:32:57.535820,-150
2021-12-27 15:32:57.535830,-145
2021-12-27 15:32:57.535839,-154
2021-12-27 15:32:57.535849,-143
2021-12-27 15:32:57.535859,-145
2021-12-27 15:32:57.535868,-193
2021-12-27 15:32:57.535878,-195
2021-12-27 15:32:57.535887,-138
2021-12-27 15:32:57.535897,-129
2021-12-27 15:32:57.535906,-159
2021-12-27 15:32:57.535916,-157
2021-12-27 15:32:57.535925,-143
2021-12-27 15:32:57.535935,-180
2021-12-27 15:32:57.535944,-236
2021-12-27 15:32:57.535954,-234
2021-12-27 15:32:57.535963,-193
2021-12-27 15:32:57.535973,-180
2021-12-27 15:32:57.535982,-191
2021-12-27 15:32:57.779230,-186
2021-12-27 15:32:57.779260,-166
2021-12-27 15:32:57.779272,-175
2021-12-27 15:32:57.779282,-200
2021-12-27 15:32:57.779291,-186
2021-12-27 15:32:57.779301,-186
2021-12-27 15:32:57.779310,-232
2021-12-27 15:32:57.779320,-230
2021-12-27 15:32:57.779329,-189
2021-12-27 15:32:57.779339,-189
2021-12-27 15:32:57.779348,-200
2021-12-27 15:32:57.779358,-186
2021-12-27 15:32:57.779367,-209
2021-12-27 15:32:57.779377,-230
2021-12-27 15:32:57.779386,-186
2021-12-27 15:32:57.779396,-141
2021-12-27 15:32:57.779405,-27
2021-12-27 15:32:57.779414,200
2021-12-27 15:32:57.779424,250
2021-12-27 15:32:57.779433,-84
2021-12-27 15:32:57.779443,-560
2021-12-27 15:32:57.779453,-667
2021-12-27 15:32:57.779462,-325
2021-12-27 15:32:57.779472,-82
2021-12-27 15:32:57.779481,-125
2021-12-27 15:32:57.779491,-116
2021-12-27 15:32:57.779500,-36
2021-12-27 15:32:57.779510,-66
2021-12-27 15:32:57.779519,-113
2021-12-27 15:32:57.779528,-88
2021-12-27 15:32:58.023288,-93
2021-12-27 15:32:58.023309,-136
2021-12-27 15:32:58.023317,-116
2021-12-27 15:32:58.023323,-102
2021-12-27 15:32:58.023329,-186
2021-12-27 15:32:58.023335,-205
2021-12-27 15:32:58.023342,-100
2021-12-27 15:32:58.023348,-82
2021-12-27 15:32:58.023354,-182
2021-12-27 15:32:58.023360,-223
2021-12-27 15:32:58.023367,-173
2021-12-27 15:32:58.023373,-161
2021-12-27 15:32:58.023379,-225
2021-12-27 15:32:58.023385,-291
2021-12-27 15:32:58.023392,-364
2021-12-27 15:32:58.023398,-489
2021-12-27 15:32:58.023404,-701
2021-12-27 15:32:58.023410,-950
2021-12-27 15:32:58.023416,-1184
2021-12-27 15:32:58.023423,-1492
2021-12-27 15:32:58.023429,-1898
2021-12-27 15:32:58.023435,-2271
2021-12-27 15:32:58.023441,-2588
2021-12-27 15:32:58.023447,-3016
2021-12-27 15:32:58.023454,-3522
2021-12-27 15:32:58.023460,-3805
2021-12-27 15:32:58.023466,-4040
2021-12-27 15:32:58.023472,-4482
2021-12-27 15:32:58.023479,-4627
2021-12-27 15:32:58.023485,-4463
2021-12-27 15:32:58.266034,-4586
2021-12-27 15:32:58.266064,-4812
2021-12-27 15:32:58.266075,-4830
2021-12-27 15:32:58.266085,-4807
2021-12-27 15:32:58.266094,-4621
2021-12-27 15:32:58.266104,-4308
2021-12-27 15:32:58.266114,-4108
2021-12-27 15:32:58.266123,-3796
2021-12-27 15:32:58.266132,-3354
2021-12-27 15:32:58.266142,-3041
2021-12-27 15:32:58.266151,-2855
2021-12-27 15:32:58.266161,-2643
2021-12-27 15:32:58.266170,-2321
2021-12-27 15:32:58.266180,-1982
2021-12-27 15:32:58.266189,-1813
2021-12-27 15:32:58.266199,-1843
2021-12-27 15:32:58.266208,-1989
2021-12-27 15:32:58.266218,-2258
2021-12-27 15:32:58.266227,-2590
2021-12-27 15:32:58.266237,-2686
2021-12-27 15:32:58.266246,-2547
2021-12-27 15:32:58.266256,-2515
2021-12-27 15:32:58.266265,-2383
2021-12-27 15:32:58.266275,-1816
2021-12-27 15:32:58.266284,-1255
2021-12-27 15:32:58.266294,-1043
2021-12-27 15:32:58.266304,-849
2021-12-27 15:32:58.266313,-471
2021-12-27 15:32:58.266323,-9
2021-12-27 15:32:58.266333,353
2021-12-27 15:32:58.509733,521
2021-12-27 15:32:58.509754,733
2021-12-27 15:32:58.509762,1137
2021-12-27 15:32:58.509769,1408
2021-12-27 15:32:58.509775,1430
2021-12-27 15:32:58.509781,1554
2021-12-27 15:32:58.509787,1850
2021-12-27 15:32:58.509793,2121
2021-12-27 15:32:58.509800,2342
2021-12-27 15:32:58.509806,2586
2021-12-27 15:32:58.509812,2859
2021-12-27 15:32:58.509818,3142
2021-12-27 15:32:58.509825,3440
2021-12-27 15:32:58.509831,3595
2021-12-27 15:32:58.509837,3472
2021-12-27 15:32:58.509843,3183
2021-12-27 15:32:58.509849,3144
2021-12-27 15:32:58.509855,3484
2021-12-27 15:32:58.509862,3693
2021-12-27 15:32:58.509868,3666
2021-12-27 15:32:58.509874,3725
2021-12-27 15:32:58.509880,3766
2021-12-27 15:32:58.509886,3709
2021-12-27 15:32:58.509893,3673
2021-12-27 15:32:58.509899,3632
2021-12-27 15:32:58.509905,3611
2021-12-27 15:32:58.509911,3597
2021-12-27 15:32:58.509918,3509
2021-12-27 15:32:58.509924,3452
2021-12-27 15:32:58.509930,3474
2021-12-27 15:32:58.802203,3436
2021-12-27 15:32:58.802233,3354
2021-12-27 15:32:58.802244,3315
2021-12-27 15:32:58.802254,3267
2021-12-27 15:32:58.802264,3210
2021-12-27 15:32:58.802273,3194
2021-12-27 15:32:58.802283,3137
2021-12-27 15:32:58.802292,3010
2021-12-27 15:32:58.802302,2950
2021-12-27 15:32:58.802311,2950
2021-12-27 15:32:58.802321,2859
2021-12-27 15:32:58.802330,2736
2021-12-27 15:32:58.802340,2677
2021-12-27 15:32:58.802349,2556
2021-12-27 15:32:58.802359,2390
2021-12-27 15:32:58.802368,2335
2021-12-27 15:32:58.802378,2315
2021-12-27 15:32:58.802387,2223
2021-12-27 15:32:58.802397,2164
2021-12-27 15:32:58.802406,2130
2021-12-27 15:32:58.802416,2041
2021-12-27 15:32:58.802425,1968
2021-12-27 15:32:58.802435,1986
2021-12-27 15:32:58.802444,2025
2021-12-27 15:32:58.802454,1984
2021-12-27 15:32:58.802463,1898
2021-12-27 15:32:58.802473,1845
2021-12-27 15:32:58.802482,1825
2021-12-27 15:32:58.802492,1802
2021-12-27 15:32:58.802501,1756
2021-12-27 15:32:58.900608,1731
2021-12-27 15:32:58.900638,1722
2021-12-27 15:32:58.900650,1661
2021-12-27 15:32:58.900660,1588
2021-12-27 15:32:58.900669,1565
2021-12-27 15:32:58.900679,1581
2021-12-27 15:32:58.900688,1585
2021-12-27 15:32:58.900698,1540
2021-12-27 15:32:58.900707,1474
2021-12-27 15:32:58.900716,1437
2021-12-27 15:32:58.900726,1428
2021-12-27 15:32:58.900735,1424
2021-12-27 15:32:58.900745,1380
2021-12-27 15:32:58.900754,1301
2021-12-27 15:32:58.900764,1264
2021-12-27 15:32:58.900773,1255
2021-12-27 15:32:58.900782,1219
2021-12-27 15:32:58.900792,1230
2021-12-27 15:32:58.900801,1271
2021-12-27 15:32:58.900810,1228
2021-12-27 15:32:58.900820,1157
2021-12-27 15:32:58.900829,1105
2021-12-27 15:32:58.900838,1066
2021-12-27 15:32:58.900848,1082
2021-12-27 15:32:58.900857,1098
2021-12-27 15:32:58.900867,1064
2021-12-27 15:32:58.900876,1020
2021-12-27 15:32:58.900890,977
2021-12-27 15:32:58.900899,936
2021-12-27 15:32:58.900909,934
2021-12-27 15:32:59.191397,957
2021-12-27 15:32:59.191426,975
2021-12-27 15:32:59.191438,957
2021-12-27 15:32:59.191448,879
2021-12-27 15:32:59.191458,833
2021-12-27 15:32:59.191468,890
2021-12-27 15:32:59.191478,1023
2021-12-27 15:32:59.191487,1187
2021-12-27 15:32:59.191497,1257
2021-12-27 15:32:59.191507,950
2021-12-27 15:32:59.191516,382
2021-12-27 15:32:59.191526,241
2021-12-27 15:32:59.191536,585
2021-12-27 15:32:59.191545,722
2021-12-27 15:32:59.191555,626
2021-12-27 15:32:59.191565,626
2021-12-27 15:32:59.191575,683
2021-12-27 15:32:59.191585,722
2021-12-27 15:32:59.191595,710
2021-12-27 15:32:59.191605,667
2021-12-27 15:32:59.191614,679
2021-12-27 15:32:59.191624,667
2021-12-27 15:32:59.191634,610
2021-12-27 15:32:59.191644,633
2021-12-27 15:32:59.191654,710
2021-12-27 15:32:59.191663,736
2021-12-27 15:32:59.191673,715
2021-12-27 15:32:59.191683,701
2021-12-27 15:32:59.191693,715
2021-12-27 15:32:59.191702,722
2021-12-27 15:32:59.387724,713
2021-12-27 15:32:59.387754,770
2021-12-27 15:32:59.387765,863
2021-12-27 15:32:59.387775,861
2021-12-27 15:32:59.387784,783
2021-12-27 15:32:59.387794,713
2021-12-27 15:32:59.387803,631
2021-12-27 15:32:59.387813,601
2021-12-27 15:32:59.387822,612
2021-12-27 15:32:59.387832,489
2021-12-27 15:32:59.387841,348
2021-12-27 15:32:59.387851,330
2021-12-27 15:32:59.387860,291
2021-12-27 15:32:59.387870,257
2021-12-27 15:32:59.387880,289
2021-12-27 15:32:59.387889,275
2021-12-27 15:32:59.387899,227
2021-12-27 15:32:59.387908,243
2021-12-27 15:32:59.387918,284
2021-12-27 15:32:59.387927,282
2021-12-27 15:32:59.387937,284
2021-12-27 15:32:59.387946,303
2021-12-27 15:32:59.387956,309
2021-12-27 15:32:59.387965,334
2021-12-27 15:32:59.387975,357
2021-12-27 15:32:59.387984,337
2021-12-27 15:32:59.387994,332
2021-12-27 15:32:59.388004,344
2021-12-27 15:32:59.388013,341
2021-12-27 15:32:59.388023,350
2021-12-27 15:32:59.679849,357
2021-12-27 15:32:59.679872,339
2021-12-27 15:32:59.679880,332
2021-12-27 15:32:59.679886,330
2021-12-27 15:32:59.679892,321
2021-12-27 15:32:59.679899,325
2021-12-27 15:32:59.679905,312
2021-12-27 15:32:59.679911,271
2021-12-27 15:32:59.679917,259
2021-12-27 15:32:59.679923,273
2021-12-27 15:32:59.679930,271
2021-12-27 15:32:59.679936,268
2021-12-27 15:32:59.679942,264
2021-12-27 15:32:59.679948,218
2021-12-27 15:32:59.679955,186
2021-12-27 15:32:59.679961,218
2021-12-27 15:32:59.679967,250
2021-12-27 15:32:59.679973,252
2021-12-27 15:32:59.679980,209
2021-12-27 15:32:59.679986,134
2021-12-27 15:32:59.679992,102
2021-12-27 15:32:59.679998,116
2021-12-27 15:32:59.680005,132
2021-12-27 15:32:59.680011,148
2021-12-27 15:32:59.680020,168
2021-12-27 15:32:59.680031,159
2021-12-27 15:32:59.680041,118
2021-12-27 15:32:59.680089,95
2021-12-27 15:32:59.680134,109
2021-12-27 15:32:59.680147,123
2021-12-27 15:32:59.826641,125
2021-12-27 15:32:59.826671,161
2021-12-27 15:32:59.826683,300
2021-12-27 15:32:59.826693,476
2021-12-27 15:32:59.826703,471
2021-12-27 15:32:59.826713,152
2021-12-27 15:32:59.826722,-277
2021-12-27 15:32:59.826732,-337
2021-12-27 15:32:59.826742,-59
2021-12-27 15:32:59.826751,11
2021-12-27 15:32:59.826761,-41
2021-12-27 15:32:59.826771,75
2021-12-27 15:32:59.826780,143
2021-12-27 15:32:59.826790,93
2021-12-27 15:32:59.826799,82
2021-12-27 15:32:59.826809,75
2021-12-27 15:32:59.826819,56
2021-12-27 15:32:59.826828,91
2021-12-27 15:32:59.826838,138
2021-12-27 15:32:59.826847,143
2021-12-27 15:32:59.826857,97
2021-12-27 15:32:59.826898,22
2021-12-27 15:32:59.826908,27
2021-12-27 15:32:59.826918,113
2021-12-27 15:32:59.826927,154
2021-12-27 15:32:59.826936,157
2021-12-27 15:32:59.826946,200
2021-12-27 15:32:59.826955,218
2021-12-27 15:32:59.826965,166
2021-12-27 15:32:59.826974,141
2021-12-27 15:33:00.070210,168
2021-12-27 15:33:00.070241,191
2021-12-27 15:33:00.070253,177
2021-12-27 15:33:00.070263,111
2021-12-27 15:33:00.070272,18
2021-12-27 15:33:00.070282,-50
2021-12-27 15:33:00.070292,-91
2021-12-27 15:33:00.070301,-118
2021-12-27 15:33:00.070311,-159
2021-12-27 15:33:00.070320,-207
2021-12-27 15:33:00.070330,-239
2021-12-27 15:33:00.070339,-239
2021-12-27 15:33:00.070349,-195
2021-12-27 15:33:00.070359,-154
2021-12-27 15:33:00.070368,-132
2021-12-27 15:33:00.070378,-120
2021-12-27 15:33:00.070387,-129
2021-12-27 15:33:00.070397,-123
2021-12-27 15:33:00.070406,-100
2021-12-27 15:33:00.070416,-61
2021-12-27 15:33:00.070425,-20
2021-12-27 15:33:00.070435,-34
2021-12-27 15:33:00.070444,-88
2021-12-27 15:33:00.070454,-120
2021-12-27 15:33:00.070463,-138
2021-12-27 15:33:00.070473,-159
2021-12-27 15:33:00.070482,-136
2021-12-27 15:33:00.070492,-84
2021-12-27 15:33:00.070501,-56
2021-12-27 15:33:00.070511,-68
2021-12-27 15:33:00.314015,-50
2021-12-27 15:33:00.314078,0
2021-12-27 15:33:00.314090,-11
2021-12-27 15:33:00.314100,-45
2021-12-27 15:33:00.314109,-15
2021-12-27 15:33:00.314119,-25
2021-12-27 15:33:00.314129,-93
2021-12-27 15:33:00.314138,-75
2021-12-27 15:33:00.314148,-2
2021-12-27 15:33:00.314157,-15
2021-12-27 15:33:00.314167,-29
2021-12-27 15:33:00.314176,-2
2021-12-27 15:33:00.314186,-22
2021-12-27 15:33:00.314195,-47
2021-12-27 15:33:00.314205,-31
2021-12-27 15:33:00.314215,-13
2021-12-27 15:33:00.314224,25
2021-12-27 15:33:00.314234,54
2021-12-27 15:33:00.314243,18
2021-12-27 15:33:00.314253,-2
2021-12-27 15:33:00.314263,41
2021-12-27 15:33:00.314272,63
2021-12-27 15:33:00.314282,45
2021-12-27 15:33:00.314291,47
2021-12-27 15:33:00.314301,47
2021-12-27 15:33:00.314310,29
2021-12-27 15:33:00.314320,38
2021-12-27 15:33:00.314329,52
2021-12-27 15:33:00.314339,63
2021-12-27 15:33:00.314348,116
2021-12-27 15:33:00.557314,227
2021-12-27 15:33:00.557346,391
2021-12-27 15:33:00.557357,492
2021-12-27 15:33:00.557367,307
2021-12-27 15:33:00.557377,-152
2021-12-27 15:33:00.557386,-414
2021-12-27 15:33:00.557396,-166
2021-12-27 15:33:00.557438,79
2021-12-27 15:33:00.557448,25
2021-12-27 15:33:00.557457,56
2021-12-27 15:33:00.557467,184
2021-12-27 15:33:00.557476,175
2021-12-27 15:33:00.557486,134
2021-12-27 15:33:00.557495,145
2021-12-27 15:33:00.557505,116
2021-12-27 15:33:00.557514,84
2021-12-27 15:33:00.557524,123
2021-12-27 15:33:00.557533,173
2021-12-27 15:33:00.557543,200
2021-12-27 15:33:00.557552,200
2021-12-27 15:33:00.557562,175
2021-12-27 15:33:00.557571,173
2021-12-27 15:33:00.557580,225
2021-12-27 15:33:00.557590,271
2021-12-27 15:33:00.557600,259
2021-12-27 15:33:00.557609,234
2021-12-27 15:33:00.557619,225
2021-12-27 15:33:00.557628,202
2021-12-27 15:33:00.557638,202
2021-12-27 15:33:00.557647,243
2021-12-27 15:33:00.801063,214
2021-12-27 15:33:00.801094,95
2021-12-27 15:33:00.801106,20
2021-12-27 15:33:00.801116,-20
2021-12-27 15:33:00.801125,-102
2021-12-27 15:33:00.801135,-136
2021-12-27 15:33:00.801145,-107
2021-12-27 15:33:00.801155,-113
2021-12-27 15:33:00.801164,-168
2021-12-27 15:33:00.801174,-214
2021-12-27 15:33:00.801184,-202
2021-12-27 15:33:00.801193,-136
2021-12-27 15:33:00.801203,-123
2021-12-27 15:33:00.801213,-150
2021-12-27 15:33:00.801223,-100
2021-12-27 15:33:00.801233,-61
2021-12-27 15:33:00.801242,-125
2021-12-27 15:33:00.801252,-132
2021-12-27 15:33:00.801262,-59
2021-12-27 15:33:00.801271,-31
2021-12-27 15:33:00.801281,-47
2021-12-27 15:33:00.801291,-68
2021-12-27 15:33:00.801300,-66
2021-12-27 15:33:00.801310,-31
2021-12-27 15:33:00.801319,-6
2021-12-27 15:33:00.801329,13
2021-12-27 15:33:00.801339,15
2021-12-27 15:33:00.801349,-13
2021-12-27 15:33:00.801359,-43
2021-12-27 15:33:00.801368,-61
2021-12-27 15:33:01.044917,-50
2021-12-27 15:33:01.044939,-11
2021-12-27 15:33:01.044947,2
2021-12-27 15:33:01.044954,-13
2021-12-27 15:33:01.044960,-52
2021-12-27 15:33:01.044966,-86
2021-12-27 15:33:01.044973,-56
2021-12-27 15:33:01.044979,-9
2021-12-27 15:33:01.044985,-20
2021-12-27 15:33:01.044991,-43
2021-12-27 15:33:01.044998,-54
2021-12-27 15:33:01.045004,-86
2021-12-27 15:33:01.045010,-70
2021-12-27 15:33:01.045017,-9
2021-12-27 15:33:01.045023,0
2021-12-27 15:33:01.045030,-11
2021-12-27 15:33:01.045036,-20
2021-12-27 15:33:01.045042,-54
2021-12-27 15:33:01.045048,-47
2021-12-27 15:33:01.045055,-4
2021-12-27 15:33:01.045061,-6
2021-12-27 15:33:01.045067,0
2021-12-27 15:33:01.045074,34
2021-12-27 15:33:01.045080,18
2021-12-27 15:33:01.045086,2
2021-12-27 15:33:01.045092,36
2021-12-27 15:33:01.045099,43
2021-12-27 15:33:01.045105,18
2021-12-27 15:33:01.045111,13
2021-12-27 15:33:01.045117,31
2021-12-27 15:33:01.287133,22
2021-12-27 15:33:01.287151,-18
2021-12-27 15:33:01.287159,-18
2021-12-27 15:33:01.287166,20
2021-12-27 15:33:01.287172,18
2021-12-27 15:33:01.287179,6
2021-12-27 15:33:01.287185,15
2021-12-27 15:33:01.287191,72
2021-12-27 15:33:01.287197,268
2021-12-27 15:33:01.287204,414
2021-12-27 15:33:01.287210,225
2021-12-27 15:33:01.287216,-209
2021-12-27 15:33:01.287222,-508
2021-12-27 15:33:01.287229,-362
2021-12-27 15:33:01.287235,-47
2021-12-27 15:33:01.287241,13
2021-12-27 15:33:01.287248,9
2021-12-27 15:33:01.287254,91
2021-12-27 15:33:01.287260,68
2021-12-27 15:33:01.287267,-22
2021-12-27 15:33:01.287273,-11
2021-12-27 15:33:01.287279,41
2021-12-27 15:33:01.287285,41
2021-12-27 15:33:01.287291,43
2021-12-27 15:33:01.287308,47
2021-12-27 15:33:01.287315,36
2021-12-27 15:33:01.287321,27
2021-12-27 15:33:01.287327,20
2021-12-27 15:33:01.287334,15
2021-12-27 15:33:01.287340,52
2021-12-27 15:33:01.484372,95
2021-12-27 15:33:01.484402,104
2021-12-27 15:33:01.484414,84
2021-12-27 15:33:01.484424,54
2021-12-27 15:33:01.484434,88
2021-12-27 15:33:01.484443,154
2021-12-27 15:33:01.484453,152
2021-12-27 15:33:01.484463,100
2021-12-27 15:33:01.484472,50
2021-12-27 15:33:01.484482,27
2021-12-27 15:33:01.484491,9
2021-12-27 15:33:01.484501,-43
2021-12-27 15:33:01.484511,-86
2021-12-27 15:33:01.484520,-93
2021-12-27 15:33:01.484530,-159
2021-12-27 15:33:01.484539,-243
2021-12-27 15:33:01.484549,-198
2021-12-27 15:33:01.484558,-127
2021-12-27 15:33:01.484568,-138
2021-12-27 15:33:01.484578,-138
2021-12-27 15:33:01.484587,-125
2021-12-27 15:33:01.484597,-129
2021-12-27 15:33:01.484606,-120
2021-12-27 15:33:01.484616,-86
2021-12-27 15:33:01.484625,-63
2021-12-27 15:33:01.484635,-52
2021-12-27 15:33:01.484644,-63
2021-12-27 15:33:01.484654,-86
2021-12-27 15:33:01.484663,-63
2021-12-27 15:33:01.484673,-13
2021-12-27 15:33:01.727120,-9
2021-12-27 15:33:01.727151,-22
2021-12-27 15:33:01.727162,-25
2021-12-27 15:33:01.727173,-72
2021-12-27 15:33:01.727182,-123
2021-12-27 15:33:01.727192,-100
2021-12-27 15:33:01.727202,-59
2021-12-27 15:33:01.727211,-47
2021-12-27 15:33:01.727221,-38
2021-12-27 15:33:01.727231,-70
2021-12-27 15:33:01.727240,-134
2021-12-27 15:33:01.727250,-157
2021-12-27 15:33:01.727259,-161
2021-12-27 15:33:01.727269,-150
2021-12-27 15:33:01.727279,-111
2021-12-27 15:33:01.727288,-125
2021-12-27 15:33:01.727298,-161
2021-12-27 15:33:01.727307,-120
2021-12-27 15:33:01.727317,-75
2021-12-27 15:33:01.727326,-88
2021-12-27 15:33:01.727336,-93
2021-12-27 15:33:01.727345,-88
2021-12-27 15:33:01.727355,-84
2021-12-27 15:33:01.727364,-70
2021-12-27 15:33:01.727374,-47
2021-12-27 15:33:01.727384,-29
2021-12-27 15:33:01.727393,-38
2021-12-27 15:33:01.727403,-59
2021-12-27 15:33:01.727413,-66
2021-12-27 15:33:01.727422,-66
2021-12-27 15:33:01.922809,-45
2021-12-27 15:33:01.922839,-11
2021-12-27 15:33:01.922851,6
2021-12-27 15:33:01.922861,2
2021-12-27 15:33:01.922871,-20
2021-12-27 15:33:01.922881,-66
2021-12-27 15:33:01.922891,-102
2021-12-27 15:33:01.922900,-102
2021-12-27 15:33:01.922910,-86
2021-12-27 15:33:01.922920,-75
2021-12-27 15:33:01.922930,-75
2021-12-27 15:33:01.922939,-86
2021-12-27 15:33:01.922949,-102
2021-12-27 15:33:01.922959,-97
2021-12-27 15:33:01.922969,-91
2021-12-27 15:33:01.922978,-82
2021-12-27 15:33:01.922988,0
2021-12-27 15:33:01.922998,180
2021-12-27 15:33:01.923008,319
2021-12-27 15:33:01.923017,177
2021-12-27 15:33:01.923027,-266
2021-12-27 15:33:01.923037,-606
2021-12-27 15:33:01.923046,-467
2021-12-27 15:33:01.923056,-182
2021-12-27 15:33:01.923065,-143
2021-12-27 15:33:01.923075,-129
2021-12-27 15:33:01.923085,-27
2021-12-27 15:33:01.923094,-25
2021-12-27 15:33:01.923104,-63
2021-12-27 15:33:01.923114,-31
2021-12-27 15:33:02.166547,-15
2021-12-27 15:33:02.166577,-27
2021-12-27 15:33:02.166588,-18
2021-12-27 15:33:02.166598,-20
2021-12-27 15:33:02.166608,-13
2021-12-27 15:33:02.166617,20
2021-12-27 15:33:02.166627,6
2021-12-27 15:33:02.166636,-22
2021-12-27 15:33:02.166646,-6
2021-12-27 15:33:02.166655,4
2021-12-27 15:33:02.166665,4
2021-12-27 15:33:02.166674,34
2021-12-27 15:33:02.166684,59
2021-12-27 15:33:02.166694,61
2021-12-27 15:33:02.166703,54
2021-12-27 15:33:02.166713,52
2021-12-27 15:33:02.166723,66
2021-12-27 15:33:02.166732,43
2021-12-27 15:33:02.166742,-45
2021-12-27 15:33:02.166751,-113
2021-12-27 15:33:02.166761,-134
2021-12-27 15:33:02.166771,-161
2021-12-27 15:33:02.166780,-173
2021-12-27 15:33:02.166790,-161
2021-12-27 15:33:02.166799,-168
2021-12-27 15:33:02.166809,-189
2021-12-27 15:33:02.166819,-198
2021-12-27 15:33:02.166828,-202
2021-12-27 15:33:02.166838,-180
2021-12-27 15:33:02.166847,-129
2021-12-27 15:33:02.360678,-95
2021-12-27 15:33:02.360700,-102
2021-12-27 15:33:02.360707,-118
2021-12-27 15:33:02.360714,-109
2021-12-27 15:33:02.360720,-84
2021-12-27 15:33:02.360727,-68
2021-12-27 15:33:02.360733,-68
2021-12-27 15:33:02.360739,-61
2021-12-27 15:33:02.360745,-84
2021-12-27 15:33:02.360752,-132
2021-12-27 15:33:02.360758,-134
2021-12-27 15:33:02.360764,-125
2021-12-27 15:33:02.360771,-123
2021-12-27 15:33:02.360777,-93
2021-12-27 15:33:02.360783,-113
2021-12-27 15:33:02.360789,-184
2021-12-27 15:33:02.360796,-159
2021-12-27 15:33:02.360802,-86
2021-12-27 15:33:02.360808,-77
2021-12-27 15:33:02.360814,-75
2021-12-27 15:33:02.360821,-70
2021-12-27 15:33:02.360827,-104
2021-12-27 15:33:02.360833,-113
2021-12-27 15:33:02.360839,-86
2021-12-27 15:33:02.360846,-77
2021-12-27 15:33:02.360852,-61
2021-12-27 15:33:02.360858,-29
2021-12-27 15:33:02.360865,-47
2021-12-27 15:33:02.360871,-84
2021-12-27 15:33:02.360877,-72
2021-12-27 15:33:02.605746,-52
2021-12-27 15:33:02.605778,-52
2021-12-27 15:33:02.605790,-59
2021-12-27 15:33:02.605799,-93
2021-12-27 15:33:02.605809,-111
2021-12-27 15:33:02.605819,-72
2021-12-27 15:33:02.605829,-31
2021-12-27 15:33:02.605839,-36
2021-12-27 15:33:02.605848,-70
2021-12-27 15:33:02.605857,-129
2021-12-27 15:33:02.605900,-173
2021-12-27 15:33:02.605909,-148
2021-12-27 15:33:02.605919,-118
2021-12-27 15:33:02.605928,-157
2021-12-27 15:33:02.605938,-177
2021-12-27 15:33:02.605947,-150
2021-12-27 15:33:02.605957,-166
2021-12-27 15:33:02.605966,-200
2021-12-27 15:33:02.605976,-186
2021-12-27 15:33:02.605985,-138
2021-12-27 15:33:02.605995,-27
2021-12-27 15:33:02.606005,173
2021-12-27 15:33:02.606014,223
2021-12-27 15:33:02.606024,-113
2021-12-27 15:33:02.606033,-581
2021-12-27 15:33:02.606043,-669
2021-12-27 15:33:02.606053,-353
2021-12-27 15:33:02.606062,-138
2021-12-27 15:33:02.606072,-152
2021-12-27 15:33:02.606081,-111
2021-12-27 15:33:02.849074,-41
2021-12-27 15:33:02.849105,-45
2021-12-27 15:33:02.849117,-59
2021-12-27 15:33:02.849127,-56
2021-12-27 15:33:02.849137,-47
2021-12-27 15:33:02.849146,-68
2021-12-27 15:33:02.849156,-95
2021-12-27 15:33:02.849166,-61
2021-12-27 15:33:02.849175,-11
2021-12-27 15:33:02.849185,-2
2021-12-27 15:33:02.849195,4
2021-12-27 15:33:02.849205,0
2021-12-27 15:33:02.849215,-25
2021-12-27 15:33:02.849224,15
2021-12-27 15:33:02.849234,59
2021-12-27 15:33:02.849244,20
2021-12-27 15:33:02.849254,25
2021-12-27 15:33:02.849263,72
2021-12-27 15:33:02.849273,68
2021-12-27 15:33:02.849283,61
2021-12-27 15:33:02.849292,72
2021-12-27 15:33:02.849302,47
2021-12-27 15:33:02.849312,25
2021-12-27 15:33:02.849321,-6
2021-12-27 15:33:02.849331,-84
2021-12-27 15:33:02.849341,-136
2021-12-27 15:33:02.849351,-157
2021-12-27 15:33:02.849361,-195
2021-12-27 15:33:02.849370,-209
2021-12-27 15:33:02.849380,-184
2021-12-27 15:33:03.093247,-170
2021-12-27 15:33:03.093268,-168
2021-12-27 15:33:03.093276,-173
2021-12-27 15:33:03.093283,-168
2021-12-27 15:33:03.093289,-145
2021-12-27 15:33:03.093296,-132
2021-12-27 15:33:03.093302,-143
2021-12-27 15:33:03.093308,-180
2021-12-27 15:33:03.093315,-184
2021-12-27 15:33:03.093321,-145
2021-12-27 15:33:03.093327,-132
2021-12-27 15:33:03.093334,-129
2021-12-27 15:33:03.093340,-111
2021-12-27 15:33:03.093346,-148
2021-12-27 15:33:03.093353,-202
2021-12-27 15:33:03.093359,-175
2021-12-27 15:33:03.093365,-150
2021-12-27 15:33:03.093372,-195
2021-12-27 15:33:03.093378,-207
2021-12-27 15:33:03.093384,-170
2021-12-27 15:33:03.093391,-177
2021-12-27 15:33:03.093397,-202
2021-12-27 15:33:03.093404,-186
2021-12-27 15:33:03.093410,-148
2021-12-27 15:33:03.093416,-141
2021-12-27 15:33:03.093422,-164
2021-12-27 15:33:03.093429,-184
2021-12-27 15:33:03.093435,-177
2021-12-27 15:33:03.093441,-175
2021-12-27 15:33:03.093448,-234
2021-12-27 15:33:03.335332,-264
2021-12-27 15:33:03.335363,-209
2021-12-27 15:33:03.335375,-193
2021-12-27 15:33:03.335385,-241
2021-12-27 15:33:03.335395,-262
2021-12-27 15:33:03.335405,-248
2021-12-27 15:33:03.335415,-236
2021-12-27 15:33:03.335424,-209
2021-12-27 15:33:03.335434,-205
2021-12-27 15:33:03.335444,-255
2021-12-27 15:33:03.335454,-289
2021-12-27 15:33:03.335464,-271
2021-12-27 15:33:03.335473,-255
2021-12-27 15:33:03.335483,-275
2021-12-27 15:33:03.335493,-330
2021-12-27 15:33:03.335503,-366
2021-12-27 15:33:03.335513,-346
2021-12-27 15:33:03.335523,-296
2021-12-27 15:33:03.335532,-300
2021-12-27 15:33:03.335542,-332
2021-12-27 15:33:03.335552,-323
2021-12-27 15:33:03.335562,-316
2021-12-27 15:33:03.335572,-293
2021-12-27 15:33:03.335581,-168
2021-12-27 15:33:03.335591,45
2021-12-27 15:33:03.335601,161
2021-12-27 15:33:03.335611,-82
2021-12-27 15:33:03.335621,-628
2021-12-27 15:33:03.335631,-827
2021-12-27 15:33:03.335640,-455
2021-12-27 15:33:03.531604,-205
2021-12-27 15:33:03.531634,-266
2021-12-27 15:33:03.531645,-232
2021-12-27 15:33:03.531655,-175
2021-12-27 15:33:03.531665,-230
2021-12-27 15:33:03.531675,-214
2021-12-27 15:33:03.531684,-148
2021-12-27 15:33:03.531694,-161
2021-12-27 15:33:03.531704,-177
2021-12-27 15:33:03.531713,-157
2021-12-27 15:33:03.531723,-182
2021-12-27 15:33:03.531733,-216
2021-12-27 15:33:03.531742,-154
2021-12-27 15:33:03.531752,-77
2021-12-27 15:33:03.531762,-93
2021-12-27 15:33:03.531771,-109
2021-12-27 15:33:03.531781,-75
2021-12-27 15:33:03.531791,-61
2021-12-27 15:33:03.531800,-52
2021-12-27 15:33:03.531810,-9
2021-12-27 15:33:03.531819,15
2021-12-27 15:33:03.531829,-29
2021-12-27 15:33:03.531839,-70
2021-12-27 15:33:03.531848,-70
2021-12-27 15:33:03.531858,-82
2021-12-27 15:33:03.531868,-113
2021-12-27 15:33:03.531877,-168
2021-12-27 15:33:03.531887,-214
2021-12-27 15:33:03.531896,-230
2021-12-27 15:33:03.531906,-282
2021-12-27 15:33:03.775317,-323
2021-12-27 15:33:03.775338,-298
2021-12-27 15:33:03.775345,-303
2021-12-27 15:33:03.775352,-339
2021-12-27 15:33:03.775358,-350
2021-12-27 15:33:03.775365,-387
2021-12-27 15:33:03.775371,-423
2021-12-27 15:33:03.775377,-378
2021-12-27 15:33:03.775383,-332
2021-12-27 15:33:03.775390,-330
2021-12-27 15:33:03.775396,-319
2021-12-27 15:33:03.775402,-309
2021-12-27 15:33:03.775409,-332
2021-12-27 15:33:03.775415,-323
2021-12-27 15:33:03.775421,-289
2021-12-27 15:33:03.775427,-289
2021-12-27 15:33:03.775434,-284
2021-12-27 15:33:03.775440,-257
2021-12-27 15:33:03.775446,-252
2021-12-27 15:33:03.775452,-266
2021-12-27 15:33:03.775459,-264
2021-12-27 15:33:03.775465,-255
2021-12-27 15:33:03.775471,-264
2021-12-27 15:33:03.775477,-296
2021-12-27 15:33:03.775484,-305
2021-12-27 15:33:03.775490,-280
2021-12-27 15:33:03.775496,-266
2021-12-27 15:33:03.775502,-266
2021-12-27 15:33:03.775508,-257
2021-12-27 15:33:03.775523,-250
2021-12-27 15:33:04.116246,-246
2021-12-27 15:33:04.116277,-252
2021-12-27 15:33:04.116288,-280
2021-12-27 15:33:04.116299,-296
2021-12-27 15:33:04.116309,-271
2021-12-27 15:33:04.116318,-230
2021-12-27 15:33:04.116328,-225
2021-12-27 15:33:04.116338,-268
2021-12-27 15:33:04.116348,-325
2021-12-27 15:33:04.116358,-348
2021-12-27 15:33:04.116367,-332
2021-12-27 15:33:04.116377,-316
2021-12-27 15:33:04.116387,-332
2021-12-27 15:33:04.116397,-360
2021-12-27 15:33:04.116407,-382
2021-12-27 15:33:04.116416,-378
2021-12-27 15:33:04.116426,-344
2021-12-27 15:33:04.116436,-303
2021-12-27 15:33:04.116446,-271
2021-12-27 15:33:04.116456,-232
2021-12-27 15:33:04.116466,-132
2021-12-27 15:33:04.116475,50
2021-12-27 15:33:04.116485,107
2021-12-27 15:33:04.116495,-205
2021-12-27 15:33:04.116505,-701
2021-12-27 15:33:04.116515,-795
2021-12-27 15:33:04.116525,-451
2021-12-27 15:33:04.116535,-289
2021-12-27 15:33:04.116545,-334
2021-12-27 15:33:04.116554,-246
2021-12-27 15:33:04.213518,-148
2021-12-27 15:33:04.213549,-168
2021-12-27 15:33:04.213561,-191
2021-12-27 15:33:04.213571,-189
2021-12-27 15:33:04.213581,-186
2021-12-27 15:33:04.213591,-157
2021-12-27 15:33:04.213600,-120
2021-12-27 15:33:04.213610,-116
2021-12-27 15:33:04.213620,-123
2021-12-27 15:33:04.213630,-123
2021-12-27 15:33:04.213639,-136
2021-12-27 15:33:04.213649,-148
2021-12-27 15:33:04.213659,-97
2021-12-27 15:33:04.213669,-31
2021-12-27 15:33:04.213678,-25
2021-12-27 15:33:04.213688,-54
2021-12-27 15:33:04.213698,-56
2021-12-27 15:33:04.213707,-13
2021-12-27 15:33:04.213717,11
2021-12-27 15:33:04.213727,0
2021-12-27 15:33:04.213736,-13
2021-12-27 15:33:04.213746,-79
2021-12-27 15:33:04.213756,-182
2021-12-27 15:33:04.213765,-193
2021-12-27 15:33:04.213775,-177
2021-12-27 15:33:04.213785,-236
2021-12-27 15:33:04.213795,-296
2021-12-27 15:33:04.213805,-334
2021-12-27 15:33:04.213814,-366
2021-12-27 15:33:04.213824,-346
2021-12-27 15:33:04.505861,-298
2021-12-27 15:33:04.505891,-275
2021-12-27 15:33:04.505903,-268
2021-12-27 15:33:04.505913,-282
2021-12-27 15:33:04.505923,-314
2021-12-27 15:33:04.505932,-314
2021-12-27 15:33:04.505942,-259
2021-12-27 15:33:04.505952,-225
2021-12-27 15:33:04.505962,-223
2021-12-27 15:33:04.505971,-214
2021-12-27 15:33:04.505981,-225
2021-12-27 15:33:04.505991,-257
2021-12-27 15:33:04.506001,-239
2021-12-27 15:33:04.506010,-193
2021-12-27 15:33:04.506020,-198
2021-12-27 15:33:04.506030,-200
2021-12-27 15:33:04.506040,-177
2021-12-27 15:33:04.506050,-180
2021-12-27 15:33:04.506059,-184
2021-12-27 15:33:04.506069,-166
2021-12-27 15:33:04.506079,-161
2021-12-27 15:33:04.506088,-168
2021-12-27 15:33:04.506098,-159
2021-12-27 15:33:04.506107,-154
2021-12-27 15:33:04.506117,-152
2021-12-27 15:33:04.506126,-132
2021-12-27 15:33:04.506136,-132
2021-12-27 15:33:04.506146,-166
2021-12-27 15:33:04.506155,-177
2021-12-27 15:33:04.506165,-177
2021-12-27 15:33:04.700769,-186
2021-12-27 15:33:04.700786,-170
2021-12-27 15:33:04.700792,-141
2021-12-27 15:33:04.700797,-141
2021-12-27 15:33:04.700802,-143
2021-12-27 15:33:04.700807,-136
2021-12-27 15:33:04.700812,-164
2021-12-27 15:33:04.700818,-182
2021-12-27 15:33:04.700823,-154
2021-12-27 15:33:04.700828,-173
2021-12-27 15:33:04.700833,-216
2021-12-27 15:33:04.700838,-191
2021-12-27 15:33:04.700843,-184
2021-12-27 15:33:04.700848,-230
2021-12-27 15:33:04.700853,-221
2021-12-27 15:33:04.700858,-211
2021-12-27 15:33:04.700863,-248
2021-12-27 15:33:04.700868,-129
2021-12-27 15:33:04.700873,132
2021-12-27 15:33:04.700878,143
2021-12-27 15:33:04.700883,-243
2021-12-27 15:33:04.700889,-701
2021-12-27 15:33:04.700894,-738
2021-12-27 15:33:04.700899,-380
2021-12-27 15:33:04.700904,-209
2021-12-27 15:33:04.700909,-275
2021-12-27 15:33:04.700914,-216
2021-12-27 15:33:04.700919,-132
2021-12-27 15:33:04.700924,-164
2021-12-27 15:33:04.700929,-166
2021-12-27 15:33:04.945630,-118
2021-12-27 15:33:04.945661,-145
2021-12-27 15:33:04.945673,-193
2021-12-27 15:33:04.945683,-161
2021-12-27 15:33:04.945693,-116
2021-12-27 15:33:04.945703,-104
2021-12-27 15:33:04.945713,-84
2021-12-27 15:33:04.945722,-79
2021-12-27 15:33:04.945732,-97
2021-12-27 15:33:04.945742,-88
2021-12-27 15:33:04.945751,-31
2021-12-27 15:33:04.945761,13
2021-12-27 15:33:04.945771,38
2021-12-27 15:33:04.945780,59
2021-12-27 15:33:04.945790,25
2021-12-27 15:33:04.945800,-36
2021-12-27 15:33:04.945809,-9
2021-12-27 15:33:04.945819,41
2021-12-27 15:33:04.945828,11
2021-12-27 15:33:04.945838,-43
2021-12-27 15:33:04.945848,-102
2021-12-27 15:33:04.945857,-186
2021-12-27 15:33:04.945867,-216
2021-12-27 15:33:04.945877,-193
2021-12-27 15:33:04.945886,-209
2021-12-27 15:33:04.945896,-230
2021-12-27 15:33:04.945906,-223
2021-12-27 15:33:04.945915,-216
2021-12-27 15:33:04.945925,-209
2021-12-27 15:33:04.945935,-195
2021-12-27 15:33:05.188970,-177
2021-12-27 15:33:05.188991,-150
2021-12-27 15:33:05.188999,-152
2021-12-27 15:33:05.189006,-191
2021-12-27 15:33:05.189012,-191
2021-12-27 15:33:05.189019,-148
2021-12-27 15:33:05.189025,-123
2021-12-27 15:33:05.189032,-123
2021-12-27 15:33:05.189038,-125
2021-12-27 15:33:05.189044,-161
2021-12-27 15:33:05.189051,-195
2021-12-27 15:33:05.189057,-154
2021-12-27 15:33:05.189064,-104
2021-12-27 15:33:05.189070,-109
2021-12-27 15:33:05.189076,-120
2021-12-27 15:33:05.189083,-148
2021-12-27 15:33:05.189089,-195
2021-12-27 15:33:05.189096,-195
2021-12-27 15:33:05.189102,-157
2021-12-27 15:33:05.189109,-141
2021-12-27 15:33:05.189115,-180
2021-12-27 15:33:05.189122,-234
2021-12-27 15:33:05.189128,-230
2021-12-27 15:33:05.189134,-200
2021-12-27 15:33:05.189140,-195
2021-12-27 15:33:05.189147,-177
2021-12-27 15:33:05.189153,-161
2021-12-27 15:33:05.189160,-170
2021-12-27 15:33:05.189166,-173
2021-12-27 15:33:05.189173,-154
2021-12-27 15:33:05.528206,-127
2021-12-27 15:33:05.528224,-100
2021-12-27 15:33:05.528231,-104
2021-12-27 15:33:05.528238,-138
2021-12-27 15:33:05.528244,-154
2021-12-27 15:33:05.528250,-166
2021-12-27 15:33:05.528256,-170
2021-12-27 15:33:05.528263,-141
2021-12-27 15:33:05.528269,-127
2021-12-27 15:33:05.528275,-138
2021-12-27 15:33:05.528281,-134
2021-12-27 15:33:05.528288,-143
2021-12-27 15:33:05.528294,-152
2021-12-27 15:33:05.528300,-66
2021-12-27 15:33:05.528306,113
2021-12-27 15:33:05.528313,312
2021-12-27 15:33:05.528319,348
2021-12-27 15:33:05.528325,18
2021-12-27 15:33:05.528332,-512
2021-12-27 15:33:05.528338,-640
2021-12-27 15:33:05.528344,-282
2021-12-27 15:33:05.528350,-104
2021-12-27 15:33:05.528357,-200
2021-12-27 15:33:05.528363,-157
2021-12-27 15:33:05.528369,-59
2021-12-27 15:33:05.528375,-82
2021-12-27 15:33:05.528381,-127
2021-12-27 15:33:05.528388,-120
2021-12-27 15:33:05.528394,-113
2021-12-27 15:33:05.528400,-127
2021-12-27 15:33:05.676094,-86
2021-12-27 15:33:05.676125,-66
2021-12-27 15:33:05.676136,-148
2021-12-27 15:33:05.676146,-182
2021-12-27 15:33:05.676156,-111
2021-12-27 15:33:05.676165,-70
2021-12-27 15:33:05.676175,-77
2021-12-27 15:33:05.676184,-75
2021-12-27 15:33:05.676194,-43
2021-12-27 15:33:05.676203,4
2021-12-27 15:33:05.676213,36
2021-12-27 15:33:05.676223,52
2021-12-27 15:33:05.676232,45
2021-12-27 15:33:05.676242,-6
2021-12-27 15:33:05.676251,-43
2021-12-27 15:33:05.676261,0
2021-12-27 15:33:05.676271,18
2021-12-27 15:33:05.676280,-45
2021-12-27 15:33:05.676290,-111
2021-12-27 15:33:05.676299,-202
2021-12-27 15:33:05.676309,-300
2021-12-27 15:33:05.676318,-275
2021-12-27 15:33:05.676328,-227
2021-12-27 15:33:05.676337,-273
2021-12-27 15:33:05.676347,-271
2021-12-27 15:33:05.676356,-232
2021-12-27 15:33:05.676366,-271
2021-12-27 15:33:05.676375,-287
2021-12-27 15:33:05.676385,-227
2021-12-27 15:33:05.676394,-202
2021-12-27 15:33:05.871465,-255
2021-12-27 15:33:05.871496,-293
2021-12-27 15:33:05.871508,-284
2021-12-27 15:33:05.871518,-280
2021-12-27 15:33:05.871528,-266
2021-12-27 15:33:05.871537,-223
2021-12-27 15:33:05.871547,-195
2021-12-27 15:33:05.871557,-193
2021-12-27 15:33:05.871566,-189
2021-12-27 15:33:05.871576,-198
2021-12-27 15:33:05.871585,-214
2021-12-27 15:33:05.871595,-191
2021-12-27 15:33:05.871604,-161
2021-12-27 15:33:05.871614,-161
2021-12-27 15:33:05.871623,-186
2021-12-27 15:33:05.871633,-230
2021-12-27 15:33:05.871642,-230
2021-12-27 15:33:05.871652,-186
2021-12-27 15:33:05.871661,-168
2021-12-27 15:33:05.871671,-168
2021-12-27 15:33:05.871680,-175
2021-12-27 15:33:05.871690,-225
2021-12-27 15:33:05.871699,-250
2021-12-27 15:33:05.871709,-209
2021-12-27 15:33:05.871718,-184
2021-12-27 15:33:05.871728,-186
2021-12-27 15:33:05.871738,-182
2021-12-27 15:33:05.871747,-180
2021-12-27 15:33:05.871756,-157
2021-12-27 15:33:05.871766,-113
2021-12-27 15:33:06.115717,-111
2021-12-27 15:33:06.115749,-113
2021-12-27 15:33:06.115760,-68
2021-12-27 15:33:06.115770,-54
2021-12-27 15:33:06.115780,-116
2021-12-27 15:33:06.115790,-132
2021-12-27 15:33:06.115800,-77
2021-12-27 15:33:06.115810,-68
2021-12-27 15:33:06.115819,-91
2021-12-27 15:33:06.115829,-93
2021-12-27 15:33:06.115839,-93
2021-12-27 15:33:06.115848,-104
2021-12-27 15:33:06.115858,-66
2021-12-27 15:33:06.115868,118
2021-12-27 15:33:06.115878,312
2021-12-27 15:33:06.115887,214
2021-12-27 15:33:06.115897,-211
2021-12-27 15:33:06.115907,-633
2021-12-27 15:33:06.115917,-585
2021-12-27 15:33:06.115926,-221
2021-12-27 15:33:06.115969,-109
2021-12-27 15:33:06.115979,-159
2021-12-27 15:33:06.115988,-116
2021-12-27 15:33:06.115998,-104
2021-12-27 15:33:06.116007,-129
2021-12-27 15:33:06.116017,-111
2021-12-27 15:33:06.116026,-104
2021-12-27 15:33:06.116036,-148
2021-12-27 15:33:06.116046,-218
2021-12-27 15:33:06.116055,-275
2021-12-27 15:33:06.310397,-264
2021-12-27 15:33:06.310427,-255
2021-12-27 15:33:06.310439,-319
2021-12-27 15:33:06.310449,-350
2021-12-27 15:33:06.310459,-277
2021-12-27 15:33:06.310469,-218
2021-12-27 15:33:06.310478,-209
2021-12-27 15:33:06.310488,-173
2021-12-27 15:33:06.310498,-138
2021-12-27 15:33:06.310507,-134
2021-12-27 15:33:06.310517,-86
2021-12-27 15:33:06.310527,-45
2021-12-27 15:33:06.310536,-100
2021-12-27 15:33:06.310546,-175
2021-12-27 15:33:06.310556,-205
2021-12-27 15:33:06.310566,-236
2021-12-27 15:33:06.310575,-287
2021-12-27 15:33:06.310585,-348
2021-12-27 15:33:06.310595,-423
2021-12-27 15:33:06.310605,-462
2021-12-27 15:33:06.310615,-442
2021-12-27 15:33:06.310624,-432
2021-12-27 15:33:06.310634,-428
2021-12-27 15:33:06.310644,-398
2021-12-27 15:33:06.310654,-389
2021-12-27 15:33:06.310664,-396
2021-12-27 15:33:06.310673,-380
2021-12-27 15:33:06.310683,-364
2021-12-27 15:33:06.310693,-355
2021-12-27 15:33:06.310703,-328
2021-12-27 15:33:06.601511,-309
2021-12-27 15:33:06.601529,-312
2021-12-27 15:33:06.601537,-307
2021-12-27 15:33:06.601543,-293
2021-12-27 15:33:06.601549,-277
2021-12-27 15:33:06.601555,-252
2021-12-27 15:33:06.601562,-250
2021-12-27 15:33:06.601568,-289
2021-12-27 15:33:06.601574,-314
2021-12-27 15:33:06.601581,-282
2021-12-27 15:33:06.601587,-252
2021-12-27 15:33:06.601593,-246
2021-12-27 15:33:06.601599,-230
2021-12-27 15:33:06.601606,-252
2021-12-27 15:33:06.601612,-323
2021-12-27 15:33:06.601618,-355
2021-12-27 15:33:06.601625,-323
2021-12-27 15:33:06.601631,-275
2021-12-27 15:33:06.601637,-259
2021-12-27 15:33:06.601644,-264
2021-12-27 15:33:06.601650,-273
2021-12-27 15:33:06.601656,-275
2021-12-27 15:33:06.601662,-262
2021-12-27 15:33:06.601669,-241
2021-12-27 15:33:06.601675,-223
2021-12-27 15:33:06.601681,-202
2021-12-27 15:33:06.601688,-205
2021-12-27 15:33:06.601694,-223
2021-12-27 15:33:06.601700,-205
2021-12-27 15:33:06.601707,-180
2021-12-27 15:33:06.749085,-177
2021-12-27 15:33:06.749106,-173
2021-12-27 15:33:06.749114,-175
2021-12-27 15:33:06.749120,-205
2021-12-27 15:33:06.749127,-200
2021-12-27 15:33:06.749133,-164
2021-12-27 15:33:06.749139,-150
2021-12-27 15:33:06.749145,-159
2021-12-27 15:33:06.749151,-216
2021-12-27 15:33:06.749158,-289
2021-12-27 15:33:06.749164,-211
2021-12-27 15:33:06.749170,31
2021-12-27 15:33:06.749176,232
2021-12-27 15:33:06.749183,164
2021-12-27 15:33:06.749189,-227
2021-12-27 15:33:06.749199,-690
2021-12-27 15:33:06.749205,-717
2021-12-27 15:33:06.749211,-362
2021-12-27 15:33:06.749218,-214
2021-12-27 15:33:06.749224,-225
2021-12-27 15:33:06.749230,-141
2021-12-27 15:33:06.749236,-134
2021-12-27 15:33:06.749242,-200
2021-12-27 15:33:06.749248,-168
2021-12-27 15:33:06.749254,-123
2021-12-27 15:33:06.749261,-145
2021-12-27 15:33:06.749267,-173
2021-12-27 15:33:06.749273,-166
2021-12-27 15:33:06.749279,-164
2021-12-27 15:33:06.749285,-157
2021-12-27 15:33:07.041855,-132
2021-12-27 15:33:07.041885,-132
2021-12-27 15:33:07.041897,-161
2021-12-27 15:33:07.041907,-173
2021-12-27 15:33:07.041917,-157
2021-12-27 15:33:07.041927,-136
2021-12-27 15:33:07.041936,-100
2021-12-27 15:33:07.041946,-54
2021-12-27 15:33:07.041955,-47
2021-12-27 15:33:07.041965,-66
2021-12-27 15:33:07.041975,-97
2021-12-27 15:33:07.041984,-141
2021-12-27 15:33:07.041994,-154
2021-12-27 15:33:07.042003,-168
2021-12-27 15:33:07.042013,-223
2021-12-27 15:33:07.042023,-287
2021-12-27 15:33:07.042032,-328
2021-12-27 15:33:07.042042,-360
2021-12-27 15:33:07.042052,-380
2021-12-27 15:33:07.042061,-398
2021-12-27 15:33:07.042071,-421
2021-12-27 15:33:07.042080,-414
2021-12-27 15:33:07.042090,-389
2021-12-27 15:33:07.042100,-380
2021-12-27 15:33:07.042109,-371
2021-12-27 15:33:07.042119,-344
2021-12-27 15:33:07.042128,-328
2021-12-27 15:33:07.042138,-334
2021-12-27 15:33:07.042147,-319
2021-12-27 15:33:07.042157,-303
2021-12-27 15:33:07.236565,-309
2021-12-27 15:33:07.236596,-298
2021-12-27 15:33:07.236608,-284
2021-12-27 15:33:07.236618,-296
2021-12-27 15:33:07.236628,-298
2021-12-27 15:33:07.236638,-303
2021-12-27 15:33:07.236648,-344
2021-12-27 15:33:07.236657,-350
2021-12-27 15:33:07.236667,-312
2021-12-27 15:33:07.236677,-309
2021-12-27 15:33:07.236687,-316
2021-12-27 15:33:07.236696,-296
2021-12-27 15:33:07.236706,-305
2021-12-27 15:33:07.236715,-362
2021-12-27 15:33:07.236725,-407
2021-12-27 15:33:07.236735,-389
2021-12-27 15:33:07.236744,-353
2021-12-27 15:33:07.236754,-344
2021-12-27 15:33:07.236764,-362
2021-12-27 15:33:07.236773,-394
2021-12-27 15:33:07.236783,-403
2021-12-27 15:33:07.236793,-416
2021-12-27 15:33:07.236802,-435
2021-12-27 15:33:07.236812,-403
2021-12-27 15:33:07.236821,-380
2021-12-27 15:33:07.236831,-401
2021-12-27 15:33:07.236841,-410
2021-12-27 15:33:07.236850,-398
2021-12-27 15:33:07.236860,-391
2021-12-27 15:33:07.236870,-382
2021-12-27 15:33:07.479456,-375
2021-12-27 15:33:07.479487,-391
2021-12-27 15:33:07.479498,-410
2021-12-27 15:33:07.479508,-410
2021-12-27 15:33:07.479518,-396
2021-12-27 15:33:07.479527,-373
2021-12-27 15:33:07.479537,-362
2021-12-27 15:33:07.479547,-382
2021-12-27 15:33:07.479556,-412
2021-12-27 15:33:07.479566,-423
2021-12-27 15:33:07.479575,-437
2021-12-27 15:33:07.479585,-453
2021-12-27 15:33:07.479595,-437
2021-12-27 15:33:07.479605,-430
2021-12-27 15:33:07.479615,-471
2021-12-27 15:33:07.479624,-489
2021-12-27 15:33:07.479634,-442
2021-12-27 15:33:07.479644,-401
2021-12-27 15:33:07.479654,-394
2021-12-27 15:33:07.479663,-378
2021-12-27 15:33:07.479673,-369
2021-12-27 15:33:07.479683,-373
2021-12-27 15:33:07.479692,-337
2021-12-27 15:33:07.479702,-198
2021-12-27 15:33:07.479712,2
2021-12-27 15:33:07.479721,-4
2021-12-27 15:33:07.479731,-403
2021-12-27 15:33:07.479741,-868
2021-12-27 15:33:07.479751,-870
2021-12-27 15:33:07.479760,-524
2021-12-27 15:33:07.675465,-375
2021-12-27 15:33:07.675495,-401
2021-12-27 15:33:07.675506,-362
2021-12-27 15:33:07.675516,-371
2021-12-27 15:33:07.675526,-412
2021-12-27 15:33:07.675535,-360
2021-12-27 15:33:07.675545,-312
2021-12-27 15:33:07.675555,-309
2021-12-27 15:33:07.675564,-305
2021-12-27 15:33:07.675574,-328
2021-12-27 15:33:07.675584,-346
2021-12-27 15:33:07.675593,-289
2021-12-27 15:33:07.675603,-225
2021-12-27 15:33:07.675613,-202
2021-12-27 15:33:07.675622,-189
2021-12-27 15:33:07.675632,-182
2021-12-27 15:33:07.675642,-177
2021-12-27 15:33:07.675651,-136
2021-12-27 15:33:07.675661,-91
2021-12-27 15:33:07.675670,-107
2021-12-27 15:33:07.675680,-152
2021-12-27 15:33:07.675690,-148
2021-12-27 15:33:07.675699,-118
2021-12-27 15:33:07.675709,-107
2021-12-27 15:33:07.675718,-100
2021-12-27 15:33:07.675728,-129
2021-12-27 15:33:07.675738,-205
2021-12-27 15:33:07.675747,-259
2021-12-27 15:33:07.675757,-296
2021-12-27 15:33:07.675767,-332
2021-12-27 15:33:07.919241,-334
2021-12-27 15:33:07.919264,-319
2021-12-27 15:33:07.919272,-319
2021-12-27 15:33:07.919278,-325
2021-12-27 15:33:07.919285,-334
2021-12-27 15:33:07.919291,-350
2021-12-27 15:33:07.919298,-332
2021-12-27 15:33:07.919304,-287
2021-12-27 15:33:07.919310,-268
2021-12-27 15:33:07.919317,-264
2021-12-27 15:33:07.919323,-255
2021-12-27 15:33:07.919331,-268
2021-12-27 15:33:07.919343,-280
2021-12-27 15:33:07.919368,-243
2021-12-27 15:33:07.919378,-211
2021-12-27 15:33:07.919388,-216
2021-12-27 15:33:07.919398,-209
2021-12-27 15:33:07.919407,-202
2021-12-27 15:33:07.919417,-214
2021-12-27 15:33:07.919427,-198
2021-12-27 15:33:07.919436,-177
2021-12-27 15:33:07.919446,-189
2021-12-27 15:33:07.919456,-189
2021-12-27 15:33:07.919465,-177
2021-12-27 15:33:07.919475,-193
2021-12-27 15:33:07.919485,-191
2021-12-27 15:33:07.919494,-182
2021-12-27 15:33:07.919504,-218
2021-12-27 15:33:07.919513,-248
2021-12-27 15:33:07.919523,-223
2021-12-27 15:33:08.162620,-211
2021-12-27 15:33:08.162642,-214
2021-12-27 15:33:08.162650,-195
2021-12-27 15:33:08.162656,-195
2021-12-27 15:33:08.162663,-200
2021-12-27 15:33:08.162669,-184
2021-12-27 15:33:08.162675,-209
2021-12-27 15:33:08.162681,-243
2021-12-27 15:33:08.162687,-223
2021-12-27 15:33:08.162694,-207
2021-12-27 15:33:08.162700,-211
2021-12-27 15:33:08.162706,-193
2021-12-27 15:33:08.162712,-202
2021-12-27 15:33:08.162718,-236
2021-12-27 15:33:08.162725,-230
2021-12-27 15:33:08.162731,-202
2021-12-27 15:33:08.162737,-191
2021-12-27 15:33:08.162743,-184
2021-12-27 15:33:08.162750,-195
2021-12-27 15:33:08.162756,-239
2021-12-27 15:33:08.162762,-264
2021-12-27 15:33:08.162768,-250
2021-12-27 15:33:08.162775,-236
2021-12-27 15:33:08.162781,-225
2021-12-27 15:33:08.162787,-221
2021-12-27 15:33:08.162793,-282
2021-12-27 15:33:08.162799,-357
2021-12-27 15:33:08.162806,-339
2021-12-27 15:33:08.162812,-303
2021-12-27 15:33:08.162818,-300
2021-12-27 15:33:08.357574,-148
2021-12-27 15:33:08.357605,93
2021-12-27 15:33:08.357617,15
2021-12-27 15:33:08.357627,-460
2021-12-27 15:33:08.357637,-865
2021-12-27 15:33:08.357646,-733
2021-12-27 15:33:08.357656,-371
2021-12-27 15:33:08.357666,-305
2021-12-27 15:33:08.357676,-380
2021-12-27 15:33:08.357685,-323
2021-12-27 15:33:08.357695,-257
2021-12-27 15:33:08.357705,-257
2021-12-27 15:33:08.357714,-248
2021-12-27 15:33:08.357724,-225
2021-12-27 15:33:08.357734,-252
2021-12-27 15:33:08.357744,-291
2021-12-27 15:33:08.357753,-262
2021-12-27 15:33:08.357763,-209
2021-12-27 15:33:08.357773,-189
2021-12-27 15:33:08.357782,-168
2021-12-27 15:33:08.357792,-159
2021-12-27 15:33:08.357802,-175
2021-12-27 15:33:08.357811,-157
2021-12-27 15:33:08.357821,-104
2021-12-27 15:33:08.357831,-72
2021-12-27 15:33:08.357840,-50
2021-12-27 15:33:08.357850,-34
2021-12-27 15:33:08.357859,-59
2021-12-27 15:33:08.357869,-75
2021-12-27 15:33:08.357879,-52
2021-12-27 15:33:08.650304,-59
2021-12-27 15:33:08.650336,-123
2021-12-27 15:33:08.650348,-200
2021-12-27 15:33:08.650357,-291
2021-12-27 15:33:08.650367,-371
2021-12-27 15:33:08.650377,-380
2021-12-27 15:33:08.650386,-366
2021-12-27 15:33:08.650396,-378
2021-12-27 15:33:08.650406,-385
2021-12-27 15:33:08.650415,-398
2021-12-27 15:33:08.650425,-430
2021-12-27 15:33:08.650434,-419
2021-12-27 15:33:08.650444,-364
2021-12-27 15:33:08.650454,-337
2021-12-27 15:33:08.650463,-332
2021-12-27 15:33:08.650473,-330
2021-12-27 15:33:08.650482,-337
2021-12-27 15:33:08.650492,-325
2021-12-27 15:33:08.650501,-289
2021-12-27 15:33:08.650511,-271
2021-12-27 15:33:08.650521,-273
2021-12-27 15:33:08.650530,-273
2021-12-27 15:33:08.650540,-275
2021-12-27 15:33:08.650550,-273
2021-12-27 15:33:08.650559,-255
2021-12-27 15:33:08.650569,-243
2021-12-27 15:33:08.650579,-246
2021-12-27 15:33:08.650588,-243
2021-12-27 15:33:08.650598,-246
2021-12-27 15:33:08.650607,-275
2021-12-27 15:33:08.845087,-328
2021-12-27 15:33:08.845110,-346
2021-12-27 15:33:08.845118,-321
2021-12-27 15:33:08.845124,-337
2021-12-27 15:33:08.845131,-378
2021-12-27 15:33:08.845137,-357
2021-12-27 15:33:08.845143,-323
2021-12-27 15:33:08.845150,-312
2021-12-27 15:33:08.845156,-307
2021-12-27 15:33:08.845162,-305
2021-12-27 15:33:08.845169,-298
2021-12-27 15:33:08.845175,-309
2021-12-27 15:33:08.845181,-330
2021-12-27 15:33:08.845187,-303
2021-12-27 15:33:08.845194,-271
2021-12-27 15:33:08.845200,-298
2021-12-27 15:33:08.845206,-334
2021-12-27 15:33:08.845213,-355
2021-12-27 15:33:08.845219,-373
2021-12-27 15:33:08.845225,-362
2021-12-27 15:33:08.845231,-332
2021-12-27 15:33:08.845238,-328
2021-12-27 15:33:08.845244,-332
2021-12-27 15:33:08.845250,-341
2021-12-27 15:33:08.845257,-357
2021-12-27 15:33:08.845263,-360
2021-12-27 15:33:08.845269,-325
2021-12-27 15:33:08.845275,-195
2021-12-27 15:33:08.845282,36
2021-12-27 15:33:08.845288,107
2021-12-27 15:33:09.186648,-236
2021-12-27 15:33:09.186672,-761
2021-12-27 15:33:09.186680,-852
2021-12-27 15:33:09.186686,-494
2021-12-27 15:33:09.186692,-314
2021-12-27 15:33:09.186699,-366
2021-12-27 15:33:09.186705,-341
2021-12-27 15:33:09.186711,-307
2021-12-27 15:33:09.186717,-325
2021-12-27 15:33:09.186724,-298
2021-12-27 15:33:09.186730,-250
2021-12-27 15:33:09.186736,-239
2021-12-27 15:33:09.186742,-239
2021-12-27 15:33:09.186748,-255
2021-12-27 15:33:09.186755,-268
2021-12-27 15:33:09.186761,-234
2021-12-27 15:33:09.186767,-189
2021-12-27 15:33:09.186773,-166
2021-12-27 15:33:09.186779,-138
2021-12-27 15:33:09.186786,-118
2021-12-27 15:33:09.186792,-116
2021-12-27 15:33:09.186798,-102
2021-12-27 15:33:09.186804,-66
2021-12-27 15:33:09.186810,-31
2021-12-27 15:33:09.186816,-18
2021-12-27 15:33:09.186823,-22
2021-12-27 15:33:09.186829,-47
2021-12-27 15:33:09.186835,-75
2021-12-27 15:33:09.186841,-88
2021-12-27 15:33:09.186848,-113
2021-12-27 15:33:09.283916,-166
2021-12-27 15:33:09.283939,-221
2021-12-27 15:33:09.283947,-273
2021-12-27 15:33:09.283953,-314
2021-12-27 15:33:09.283960,-321
2021-12-27 15:33:09.283966,-314
2021-12-27 15:33:09.283972,-357
2021-12-27 15:33:09.283978,-432
2021-12-27 15:33:09.283984,-455
2021-12-27 15:33:09.283990,-430
2021-12-27 15:33:09.283997,-389
2021-12-27 15:33:09.284003,-348
2021-12-27 15:33:09.284009,-314
2021-12-27 15:33:09.284015,-291
2021-12-27 15:33:09.284022,-303
2021-12-27 15:33:09.284028,-344
2021-12-27 15:33:09.284034,-341
2021-12-27 15:33:09.284040,-282
2021-12-27 15:33:09.284047,-252
2021-12-27 15:33:09.284053,-252
2021-12-27 15:33:09.284059,-243
2021-12-27 15:33:09.284065,-248
2021-12-27 15:33:09.284072,-252
2021-12-27 15:33:09.284078,-225
2021-12-27 15:33:09.284084,-205
2021-12-27 15:33:09.284090,-200
2021-12-27 15:33:09.284097,-202
2021-12-27 15:33:09.284103,-239
2021-12-27 15:33:09.284109,-280
2021-12-27 15:33:09.284115,-255
2021-12-27 15:33:09.624444,-214
2021-12-27 15:33:09.624475,-211
2021-12-27 15:33:09.624487,-216
2021-12-27 15:33:09.624497,-239
2021-12-27 15:33:09.624506,-289
2021-12-27 15:33:09.624516,-293
2021-12-27 15:33:09.624525,-246
2021-12-27 15:33:09.624535,-225
2021-12-27 15:33:09.624544,-241
2021-12-27 15:33:09.624554,-275
2021-12-27 15:33:09.624563,-328
2021-12-27 15:33:09.624573,-330
2021-12-27 15:33:09.624582,-271
2021-12-27 15:33:09.624592,-239
2021-12-27 15:33:09.624601,-257
2021-12-27 15:33:09.624611,-293
2021-12-27 15:33:09.624620,-312
2021-12-27 15:33:09.624629,-296
2021-12-27 15:33:09.624639,-273
2021-12-27 15:33:09.624648,-257
2021-12-27 15:33:09.624658,-259
2021-12-27 15:33:09.624667,-284
2021-12-27 15:33:09.624677,-312
2021-12-27 15:33:09.624686,-314
2021-12-27 15:33:09.624696,-309
2021-12-27 15:33:09.624705,-277
2021-12-27 15:33:09.624715,-152
2021-12-27 15:33:09.624724,52
2021-12-27 15:33:09.624734,129
2021-12-27 15:33:09.624744,-134
2021-12-27 15:33:09.868470,-622
2021-12-27 15:33:09.868493,-829
2021-12-27 15:33:09.868501,-551
2021-12-27 15:33:09.868507,-289
2021-12-27 15:33:09.868513,-291
2021-12-27 15:33:09.868520,-266
2021-12-27 15:33:09.868526,-221
2021-12-27 15:33:09.868532,-239
2021-12-27 15:33:09.868539,-230
2021-12-27 15:33:09.868545,-205
2021-12-27 15:33:09.868551,-202
2021-12-27 15:33:09.868557,-207
2021-12-27 15:33:09.868564,-241
2021-12-27 15:33:09.868570,-252
2021-12-27 15:33:09.868576,-202
2021-12-27 15:33:09.868582,-173
2021-12-27 15:33:09.868588,-164
2021-12-27 15:33:09.868595,-134
2021-12-27 15:33:09.868601,-145
2021-12-27 15:33:09.868607,-177
2021-12-27 15:33:09.868613,-143
2021-12-27 15:33:09.868620,-102
2021-12-27 15:33:09.868626,-88
2021-12-27 15:33:09.868632,-61
2021-12-27 15:33:09.868638,-54
2021-12-27 15:33:09.868645,-77
2021-12-27 15:33:09.868651,-86
2021-12-27 15:33:09.868658,-95
2021-12-27 15:33:09.868664,-123
2021-12-27 15:33:09.868670,-159
2021-12-27 15:33:10.064202,-205
2021-12-27 15:33:10.064233,-262
2021-12-27 15:33:10.064244,-300
2021-12-27 15:33:10.064254,-319
2021-12-27 15:33:10.064264,-319
2021-12-27 15:33:10.064273,-300
2021-12-27 15:33:10.064283,-287
2021-12-27 15:33:10.064292,-287
2021-12-27 15:33:10.064302,-289
2021-12-27 15:33:10.064311,-280
2021-12-27 15:33:10.064321,-259
2021-12-27 15:33:10.064330,-236
2021-12-27 15:33:10.064340,-223
2021-12-27 15:33:10.064349,-230
2021-12-27 15:33:10.064358,-255
2021-12-27 15:33:10.064368,-252
2021-12-27 15:33:10.064377,-218
2021-12-27 15:33:10.064387,-193
2021-12-27 15:33:10.064477,-182
2021-12-27 15:33:10.064488,-186
2021-12-27 15:33:10.064498,-227
2021-12-27 15:33:10.064507,-257
2021-12-27 15:33:10.064517,-223
2021-12-27 15:33:10.064526,-186
2021-12-27 15:33:10.064536,-180
2021-12-27 15:33:10.064545,-175
2021-12-27 15:33:10.064555,-205
2021-12-27 15:33:10.064564,-252
2021-12-27 15:33:10.064573,-232
2021-12-27 15:33:10.064583,-182
2021-12-27 15:33:10.210494,-175
2021-12-27 15:33:10.210524,-170
2021-12-27 15:33:10.210536,-175
2021-12-27 15:33:10.210545,-207
2021-12-27 15:33:10.210555,-211
