Time,ECG
2021-12-24 14:32:39.600239,-102
2021-12-24 14:32:39.600260,-102
2021-12-24 14:32:39.600270,-114
2021-12-24 14:32:39.600296,-123
2021-12-24 14:32:39.600305,-121
2021-12-24 14:32:39.600312,-100
2021-12-24 14:32:39.600319,-76
2021-12-24 14:32:39.600326,-58
2021-12-24 14:32:39.600333,-58
2021-12-24 14:32:39.600341,-83
2021-12-24 14:32:39.600349,-102
2021-12-24 14:32:39.600357,-76
2021-12-24 14:32:39.600364,-44
2021-12-24 14:32:39.600371,-37
2021-12-24 14:32:39.600378,-37
2021-12-24 14:32:39.600385,-62
2021-12-24 14:32:39.600392,-81
2021-12-24 14:32:39.600400,-51
2021-12-24 14:32:39.600408,-20
2021-12-24 14:32:39.600416,-13
2021-12-24 14:32:39.600423,-6
2021-12-24 14:32:39.600431,-11
2021-12-24 14:32:39.600438,-16
2021-12-24 14:32:39.600446,-2
2021-12-24 14:32:39.600453,6
2021-12-24 14:32:39.600460,16
2021-12-24 14:32:39.600468,46
2021-12-24 14:32:39.600476,60
2021-12-24 14:32:39.600483,58
2021-12-24 14:32:39.600490,69
2021-12-24 14:32:39.773330,90
2021-12-24 14:32:39.773347,93
2021-12-24 14:32:39.773353,83
2021-12-24 14:32:39.773358,67
2021-12-24 14:32:39.773363,48
2021-12-24 14:32:39.773368,51
2021-12-24 14:32:39.773374,69
2021-12-24 14:32:39.773379,79
2021-12-24 14:32:39.773384,60
2021-12-24 14:32:39.773389,25
2021-12-24 14:32:39.773394,27
2021-12-24 14:32:39.773399,58
2021-12-24 14:32:39.773404,53
2021-12-24 14:32:39.773409,32
2021-12-24 14:32:39.773414,139
2021-12-24 14:32:39.773419,509
2021-12-24 14:32:39.773424,1072
2021-12-24 14:32:39.773429,1133
2021-12-24 14:32:39.773434,23
2021-12-24 14:32:39.773439,-1047
2021-12-24 14:32:39.773445,-663
2021-12-24 14:32:39.773450,27
2021-12-24 14:32:39.773455,-60
2021-12-24 14:32:39.773459,-125
2021-12-24 14:32:39.773464,83
2021-12-24 14:32:39.773469,86
2021-12-24 14:32:39.773475,0
2021-12-24 14:32:39.773480,27
2021-12-24 14:32:39.773485,65
2021-12-24 14:32:39.773491,65
2021-12-24 14:32:39.998896,79
2021-12-24 14:32:39.998917,83
2021-12-24 14:32:39.998925,67
2021-12-24 14:32:39.998931,53
2021-12-24 14:32:39.998937,65
2021-12-24 14:32:39.998944,88
2021-12-24 14:32:39.998950,104
2021-12-24 14:32:39.998956,130
2021-12-24 14:32:39.998962,172
2021-12-24 14:32:39.998968,209
2021-12-24 14:32:39.998974,251
2021-12-24 14:32:39.998981,293
2021-12-24 14:32:39.998987,314
2021-12-24 14:32:39.998999,297
2021-12-24 14:32:39.999005,244
2021-12-24 14:32:39.999011,179
2021-12-24 14:32:39.999018,121
2021-12-24 14:32:39.999024,53
2021-12-24 14:32:39.999030,-18
2021-12-24 14:32:39.999037,-88
2021-12-24 14:32:39.999043,-158
2021-12-24 14:32:39.999049,-202
2021-12-24 14:32:39.999055,-211
2021-12-24 14:32:39.999062,-209
2021-12-24 14:32:39.999068,-204
2021-12-24 14:32:39.999074,-207
2021-12-24 14:32:39.999080,-211
2021-12-24 14:32:39.999087,-202
2021-12-24 14:32:39.999093,-186
2021-12-24 14:32:39.999100,-165
2021-12-24 14:32:40.179692,-141
2021-12-24 14:32:40.179722,-128
2021-12-24 14:32:40.179734,-125
2021-12-24 14:32:40.179744,-118
2021-12-24 14:32:40.179753,-93
2021-12-24 14:32:40.179763,-67
2021-12-24 14:32:40.179773,-55
2021-12-24 14:32:40.179782,-53
2021-12-24 14:32:40.179792,-72
2021-12-24 14:32:40.179802,-81
2021-12-24 14:32:40.179811,-58
2021-12-24 14:32:40.179821,-30
2021-12-24 14:32:40.179830,-34
2021-12-24 14:32:40.179840,-62
2021-12-24 14:32:40.179850,-81
2021-12-24 14:32:40.179859,-67
2021-12-24 14:32:40.179869,-46
2021-12-24 14:32:40.179882,-34
2021-12-24 14:32:40.179892,-37
2021-12-24 14:32:40.179902,-55
2021-12-24 14:32:40.179912,-65
2021-12-24 14:32:40.179922,-48
2021-12-24 14:32:40.179932,-30
2021-12-24 14:32:40.179941,-46
2021-12-24 14:32:40.179951,-100
2021-12-24 14:32:40.179961,-123
2021-12-24 14:32:40.179970,-100
2021-12-24 14:32:40.179980,-86
2021-12-24 14:32:40.179990,-60
2021-12-24 14:32:40.179999,-11
2021-12-24 14:32:40.494041,0
2021-12-24 14:32:40.494071,-11
2021-12-24 14:32:40.494083,0
2021-12-24 14:32:40.494093,0
2021-12-24 14:32:40.494103,-13
2021-12-24 14:32:40.494113,-6
2021-12-24 14:32:40.494122,-6
2021-12-24 14:32:40.494140,-34
2021-12-24 14:32:40.494150,-32
2021-12-24 14:32:40.494160,-25
2021-12-24 14:32:40.494169,-51
2021-12-24 14:32:40.494179,-55
2021-12-24 14:32:40.494189,-51
2021-12-24 14:32:40.494198,-69
2021-12-24 14:32:40.494208,-86
2021-12-24 14:32:40.494218,-74
2021-12-24 14:32:40.494227,79
2021-12-24 14:32:40.494237,514
2021-12-24 14:32:40.494246,1068
2021-12-24 14:32:40.494256,1017
2021-12-24 14:32:40.494266,-88
2021-12-24 14:32:40.494275,-979
2021-12-24 14:32:40.494285,-493
2021-12-24 14:32:40.494295,134
2021-12-24 14:32:40.494304,-13
2021-12-24 14:32:40.494314,-81
2021-12-24 14:32:40.494323,118
2021-12-24 14:32:40.494333,109
2021-12-24 14:32:40.494342,55
2021-12-24 14:32:40.494353,123
2021-12-24 14:32:40.719049,146
2021-12-24 14:32:40.719077,130
2021-12-24 14:32:40.719089,160
2021-12-24 14:32:40.719099,179
2021-12-24 14:32:40.719109,186
2021-12-24 14:32:40.719118,207
2021-12-24 14:32:40.719128,204
2021-12-24 14:32:40.719137,218
2021-12-24 14:32:40.719147,272
2021-12-24 14:32:40.719156,316
2021-12-24 14:32:40.719166,342
2021-12-24 14:32:40.719176,367
2021-12-24 14:32:40.719185,381
2021-12-24 14:32:40.719195,400
2021-12-24 14:32:40.719204,409
2021-12-24 14:32:40.719214,377
2021-12-24 14:32:40.719223,321
2021-12-24 14:32:40.719233,246
2021-12-24 14:32:40.719242,128
2021-12-24 14:32:40.719252,23
2021-12-24 14:32:40.719262,-44
2021-12-24 14:32:40.719271,-114
2021-12-24 14:32:40.719281,-176
2021-12-24 14:32:40.719290,-225
2021-12-24 14:32:40.719306,-263
2021-12-24 14:32:40.719316,-263
2021-12-24 14:32:40.719326,-251
2021-12-24 14:32:40.719335,-258
2021-12-24 14:32:40.719345,-265
2021-12-24 14:32:40.719354,-283
2021-12-24 14:32:40.854521,-300
2021-12-24 14:32:40.854543,-269
2021-12-24 14:32:40.854551,-242
2021-12-24 14:32:40.854558,-242
2021-12-24 14:32:40.854564,-237
2021-12-24 14:32:40.854570,-230
2021-12-24 14:32:40.854577,-225
2021-12-24 14:32:40.854583,-197
2021-12-24 14:32:40.854589,-172
2021-12-24 14:32:40.854595,-169
2021-12-24 14:32:40.854601,-176
2021-12-24 14:32:40.854608,-193
2021-12-24 14:32:40.854614,-186
2021-12-24 14:32:40.854620,-167
2021-12-24 14:32:40.854626,-181
2021-12-24 14:32:40.854633,-193
2021-12-24 14:32:40.854639,-179
2021-12-24 14:32:40.854645,-176
2021-12-24 14:32:40.854651,-169
2021-12-24 14:32:40.854658,-139
2021-12-24 14:32:40.854664,-123
2021-12-24 14:32:40.854670,-123
2021-12-24 14:32:40.854679,-118
2021-12-24 14:32:40.854685,-116
2021-12-24 14:32:40.854692,-102
2021-12-24 14:32:40.854698,-72
2021-12-24 14:32:40.854704,-53
2021-12-24 14:32:40.854710,-51
2021-12-24 14:32:40.854717,-62
2021-12-24 14:32:40.854723,-65
2021-12-24 14:32:41.124012,-55
2021-12-24 14:32:41.124031,-39
2021-12-24 14:32:41.124039,-11
2021-12-24 14:32:41.124046,9
2021-12-24 14:32:41.124052,-4
2021-12-24 14:32:41.124059,-23
2021-12-24 14:32:41.124065,-2
2021-12-24 14:32:41.124071,18
2021-12-24 14:32:41.124078,6
2021-12-24 14:32:41.124084,-11
2021-12-24 14:32:41.124090,-27
2021-12-24 14:32:41.124097,-32
2021-12-24 14:32:41.124103,-16
2021-12-24 14:32:41.124109,2
2021-12-24 14:32:41.124116,4
2021-12-24 14:32:41.124122,2
2021-12-24 14:32:41.124129,-9
2021-12-24 14:32:41.124135,-9
2021-12-24 14:32:41.124141,-4
2021-12-24 14:32:41.124148,-4
2021-12-24 14:32:41.124154,102
2021-12-24 14:32:41.124160,474
2021-12-24 14:32:41.124167,1019
2021-12-24 14:32:41.124173,1112
2021-12-24 14:32:41.124186,179
2021-12-24 14:32:41.124193,-802
2021-12-24 14:32:41.124199,-507
2021-12-24 14:32:41.124205,146
2021-12-24 14:32:41.124212,51
2021-12-24 14:32:41.124218,-65
2021-12-24 14:32:41.349079,125
2021-12-24 14:32:41.349098,144
2021-12-24 14:32:41.349105,79
2021-12-24 14:32:41.349112,107
2021-12-24 14:32:41.349118,88
2021-12-24 14:32:41.349125,32
2021-12-24 14:32:41.349131,39
2021-12-24 14:32:41.349138,83
2021-12-24 14:32:41.349145,104
2021-12-24 14:32:41.349151,114
2021-12-24 14:32:41.349157,141
2021-12-24 14:32:41.349164,186
2021-12-24 14:32:41.349170,230
2021-12-24 14:32:41.349177,279
2021-12-24 14:32:41.349183,321
2021-12-24 14:32:41.349189,335
2021-12-24 14:32:41.349195,344
2021-12-24 14:32:41.349202,377
2021-12-24 14:32:41.349208,384
2021-12-24 14:32:41.349214,365
2021-12-24 14:32:41.349221,344
2021-12-24 14:32:41.349227,288
2021-12-24 14:32:41.349233,209
2021-12-24 14:32:41.349239,141
2021-12-24 14:32:41.349245,76
2021-12-24 14:32:41.349252,11
2021-12-24 14:32:41.349258,-44
2021-12-24 14:32:41.349264,-95
2021-12-24 14:32:41.349271,-118
2021-12-24 14:32:41.349277,-111
2021-12-24 14:32:41.618452,-102
2021-12-24 14:32:41.618471,-100
2021-12-24 14:32:41.618478,-118
2021-12-24 14:32:41.618485,-153
2021-12-24 14:32:41.618492,-153
2021-12-24 14:32:41.618499,-123
2021-12-24 14:32:41.618505,-116
2021-12-24 14:32:41.618512,-134
2021-12-24 14:32:41.618518,-167
2021-12-24 14:32:41.618524,-218
2021-12-24 14:32:41.618531,-244
2021-12-24 14:32:41.618537,-216
2021-12-24 14:32:41.618544,-188
2021-12-24 14:32:41.618550,-195
2021-12-24 14:32:41.618557,-218
2021-12-24 14:32:41.618563,-246
2021-12-24 14:32:41.618569,-235
2021-12-24 14:32:41.618576,-204
2021-12-24 14:32:41.618582,-190
2021-12-24 14:32:41.618589,-188
2021-12-24 14:32:41.618595,-197
2021-12-24 14:32:41.618601,-209
2021-12-24 14:32:41.618608,-190
2021-12-24 14:32:41.618614,-160
2021-12-24 14:32:41.618620,-144
2021-12-24 14:32:41.618627,-134
2021-12-24 14:32:41.618633,-134
2021-12-24 14:32:41.618639,-139
2021-12-24 14:32:41.618646,-123
2021-12-24 14:32:41.618652,-100
2021-12-24 14:32:41.842881,-86
2021-12-24 14:32:41.842898,-69
2021-12-24 14:32:41.842903,-72
2021-12-24 14:32:41.842908,-86
2021-12-24 14:32:41.842912,-72
2021-12-24 14:32:41.842917,-44
2021-12-24 14:32:41.842921,-32
2021-12-24 14:32:41.842925,-32
2021-12-24 14:32:41.842930,-46
2021-12-24 14:32:41.842934,-60
2021-12-24 14:32:41.842944,-58
2021-12-24 14:32:41.842949,-86
2021-12-24 14:32:41.842953,-128
2021-12-24 14:32:41.842957,-130
2021-12-24 14:32:41.842962,-130
2021-12-24 14:32:41.842966,-125
2021-12-24 14:32:41.842970,-88
2021-12-24 14:32:41.842975,-60
2021-12-24 14:32:41.842979,-53
2021-12-24 14:32:41.842983,-51
2021-12-24 14:32:41.842988,-69
2021-12-24 14:32:41.842992,-93
2021-12-24 14:32:41.842996,-104
2021-12-24 14:32:41.843000,-95
2021-12-24 14:32:41.843005,-72
2021-12-24 14:32:41.843009,-65
2021-12-24 14:32:41.843013,-67
2021-12-24 14:32:41.843018,-58
2021-12-24 14:32:41.843022,-34
2021-12-24 14:32:41.843026,-18
2021-12-24 14:32:42.024155,-20
2021-12-24 14:32:42.024174,-39
2021-12-24 14:32:42.024179,20
2021-12-24 14:32:42.024184,325
2021-12-24 14:32:42.024189,858
2021-12-24 14:32:42.024193,1131
2021-12-24 14:32:42.024198,439
2021-12-24 14:32:42.024202,-695
2021-12-24 14:32:42.024207,-737
2021-12-24 14:32:42.024211,2
2021-12-24 14:32:42.024216,88
2021-12-24 14:32:42.024220,-116
2021-12-24 14:32:42.024224,30
2021-12-24 14:32:42.024229,83
2021-12-24 14:32:42.024233,-20
2021-12-24 14:32:42.024238,18
2021-12-24 14:32:42.024242,88
2021-12-24 14:32:42.024246,83
2021-12-24 14:32:42.024251,93
2021-12-24 14:32:42.024255,114
2021-12-24 14:32:42.024260,118
2021-12-24 14:32:42.024264,137
2021-12-24 14:32:42.024268,174
2021-12-24 14:32:42.024273,202
2021-12-24 14:32:42.024277,204
2021-12-24 14:32:42.024287,214
2021-12-24 14:32:42.024292,260
2021-12-24 14:32:42.024296,311
2021-12-24 14:32:42.024301,349
2021-12-24 14:32:42.024305,381
2021-12-24 14:32:42.294306,397
2021-12-24 14:32:42.294326,397
2021-12-24 14:32:42.294332,386
2021-12-24 14:32:42.294337,349
2021-12-24 14:32:42.294342,297
2021-12-24 14:32:42.294347,244
2021-12-24 14:32:42.294353,146
2021-12-24 14:32:42.294358,34
2021-12-24 14:32:42.294363,-18
2021-12-24 14:32:42.294368,-46
2021-12-24 14:32:42.294373,-79
2021-12-24 14:32:42.294378,-97
2021-12-24 14:32:42.294383,-123
2021-12-24 14:32:42.294388,-146
2021-12-24 14:32:42.294393,-139
2021-12-24 14:32:42.294398,-130
2021-12-24 14:32:42.294403,-141
2021-12-24 14:32:42.294408,-169
2021-12-24 14:32:42.294413,-200
2021-12-24 14:32:42.294418,-183
2021-12-24 14:32:42.294423,-162
2021-12-24 14:32:42.294428,-179
2021-12-24 14:32:42.294433,-188
2021-12-24 14:32:42.294438,-179
2021-12-24 14:32:42.294443,-174
2021-12-24 14:32:42.294448,-183
2021-12-24 14:32:42.294453,-211
2021-12-24 14:32:42.294458,-249
2021-12-24 14:32:42.294463,-246
2021-12-24 14:32:42.294468,-244
2021-12-24 14:32:42.651870,-265
2021-12-24 14:32:42.651885,-263
2021-12-24 14:32:42.651891,-242
2021-12-24 14:32:42.651895,-239
2021-12-24 14:32:42.651900,-232
2021-12-24 14:32:42.651904,-221
2021-12-24 14:32:42.651909,-225
2021-12-24 14:32:42.651913,-218
2021-12-24 14:32:42.651917,-195
2021-12-24 14:32:42.651922,-186
2021-12-24 14:32:42.651926,-183
2021-12-24 14:32:42.651930,-188
2021-12-24 14:32:42.651934,-200
2021-12-24 14:32:42.651939,-186
2021-12-24 14:32:42.651943,-160
2021-12-24 14:32:42.651947,-158
2021-12-24 14:32:42.651954,-148
2021-12-24 14:32:42.651959,-153
2021-12-24 14:32:42.651963,-176
2021-12-24 14:32:42.651967,-160
2021-12-24 14:32:42.651972,-130
2021-12-24 14:32:42.651976,-134
2021-12-24 14:32:42.651980,-139
2021-12-24 14:32:42.651984,-123
2021-12-24 14:32:42.651989,-104
2021-12-24 14:32:42.651993,-67
2021-12-24 14:32:42.651997,-34
2021-12-24 14:32:42.652001,-44
2021-12-24 14:32:42.652006,-74
2021-12-24 14:32:42.652010,-88
2021-12-24 14:32:42.743923,-83
2021-12-24 14:32:42.743952,-72
2021-12-24 14:32:42.743964,-60
2021-12-24 14:32:42.743974,-53
2021-12-24 14:32:42.743984,-48
2021-12-24 14:32:42.743994,-48
2021-12-24 14:32:42.744003,-44
2021-12-24 14:32:42.744013,-20
2021-12-24 14:32:42.744023,-9
2021-12-24 14:32:42.744032,-16
2021-12-24 14:32:42.744042,-30
2021-12-24 14:32:42.744052,-69
2021-12-24 14:32:42.744061,-44
2021-12-24 14:32:42.744071,223
2021-12-24 14:32:42.744081,735
2021-12-24 14:32:42.744091,1077
2021-12-24 14:32:42.744100,549
2021-12-24 14:32:42.744110,-593
2021-12-24 14:32:42.744119,-835
2021-12-24 14:32:42.744129,-95
2021-12-24 14:32:42.744139,148
2021-12-24 14:32:42.744148,-74
2021-12-24 14:32:42.744158,-13
2021-12-24 14:32:42.744167,69
2021-12-24 14:32:42.744177,25
2021-12-24 14:32:42.744187,65
2021-12-24 14:32:42.744196,114
2021-12-24 14:32:42.744206,100
2021-12-24 14:32:42.744215,76
2021-12-24 14:32:42.744225,72
2021-12-24 14:32:42.968593,81
2021-12-24 14:32:42.968610,90
2021-12-24 14:32:42.968616,102
2021-12-24 14:32:42.968621,114
2021-12-24 14:32:42.968626,116
2021-12-24 14:32:42.968631,151
2021-12-24 14:32:42.968636,235
2021-12-24 14:32:42.968641,295
2021-12-24 14:32:42.968646,325
2021-12-24 14:32:42.968651,351
2021-12-24 14:32:42.968656,337
2021-12-24 14:32:42.968661,307
2021-12-24 14:32:42.968666,309
2021-12-24 14:32:42.968674,300
2021-12-24 14:32:42.968679,246
2021-12-24 14:32:42.968684,160
2021-12-24 14:32:42.968689,83
2021-12-24 14:32:42.968693,34
2021-12-24 14:32:42.968698,-11
2021-12-24 14:32:42.968703,-48
2021-12-24 14:32:42.968708,-74
2021-12-24 14:32:42.968713,-109
2021-12-24 14:32:42.968718,-125
2021-12-24 14:32:42.968723,-116
2021-12-24 14:32:42.968728,-111
2021-12-24 14:32:42.968733,-90
2021-12-24 14:32:42.968738,-62
2021-12-24 14:32:42.968742,-76
2021-12-24 14:32:42.968747,-81
2021-12-24 14:32:42.968752,-46
2021-12-24 14:32:43.239007,-23
2021-12-24 14:32:43.239033,-32
2021-12-24 14:32:43.239076,-51
2021-12-24 14:32:43.239091,-95
2021-12-24 14:32:43.239099,-137
2021-12-24 14:32:43.239106,-130
2021-12-24 14:32:43.239112,-109
2021-12-24 14:32:43.239118,-104
2021-12-24 14:32:43.239125,-107
2021-12-24 14:32:43.239131,-141
2021-12-24 14:32:43.239137,-190
2021-12-24 14:32:43.239143,-193
2021-12-24 14:32:43.239149,-179
2021-12-24 14:32:43.239156,-186
2021-12-24 14:32:43.239162,-204
2021-12-24 14:32:43.239168,-225
2021-12-24 14:32:43.239174,-232
2021-12-24 14:32:43.239181,-207
2021-12-24 14:32:43.239187,-186
2021-12-24 14:32:43.239193,-176
2021-12-24 14:32:43.239199,-174
2021-12-24 14:32:43.239206,-188
2021-12-24 14:32:43.239212,-176
2021-12-24 14:32:43.239218,-130
2021-12-24 14:32:43.239224,-116
2021-12-24 14:32:43.239231,-121
2021-12-24 14:32:43.239237,-109
2021-12-24 14:32:43.239243,-114
2021-12-24 14:32:43.239249,-155
2021-12-24 14:32:43.239256,-183
2021-12-24 14:32:43.463556,-158
2021-12-24 14:32:43.463573,-134
2021-12-24 14:32:43.463581,-155
2021-12-24 14:32:43.463586,-176
2021-12-24 14:32:43.463591,-165
2021-12-24 14:32:43.463596,-139
2021-12-24 14:32:43.463601,-118
2021-12-24 14:32:43.463606,-97
2021-12-24 14:32:43.463611,-109
2021-12-24 14:32:43.463616,-155
2021-12-24 14:32:43.463621,-151
2021-12-24 14:32:43.463626,-104
2021-12-24 14:32:43.463631,-95
2021-12-24 14:32:43.463636,-90
2021-12-24 14:32:43.463641,-74
2021-12-24 14:32:43.463646,-93
2021-12-24 14:32:43.463651,-100
2021-12-24 14:32:43.463659,-69
2021-12-24 14:32:43.463664,-44
2021-12-24 14:32:43.463669,-34
2021-12-24 14:32:43.463674,-72
2021-12-24 14:32:43.463680,-100
2021-12-24 14:32:43.463685,95
2021-12-24 14:32:43.463692,584
2021-12-24 14:32:43.463697,1033
2021-12-24 14:32:43.463702,765
2021-12-24 14:32:43.463707,-344
2021-12-24 14:32:43.463712,-935
2021-12-24 14:32:43.463717,-314
2021-12-24 14:32:43.463723,146
2021-12-24 14:32:43.777968,-37
2021-12-24 14:32:43.777986,-23
2021-12-24 14:32:43.777992,116
2021-12-24 14:32:43.777997,58
2021-12-24 14:32:43.778001,51
2021-12-24 14:32:43.778006,125
2021-12-24 14:32:43.778011,104
2021-12-24 14:32:43.778015,53
2021-12-24 14:32:43.778020,62
2021-12-24 14:32:43.778024,86
2021-12-24 14:32:43.778029,104
2021-12-24 14:32:43.778033,132
2021-12-24 14:32:43.778038,169
2021-12-24 14:32:43.778043,211
2021-12-24 14:32:43.778047,230
2021-12-24 14:32:43.778052,251
2021-12-24 14:32:43.778057,304
2021-12-24 14:32:43.778061,365
2021-12-24 14:32:43.778066,402
2021-12-24 14:32:43.778070,414
2021-12-24 14:32:43.778075,404
2021-12-24 14:32:43.778079,388
2021-12-24 14:32:43.778084,374
2021-12-24 14:32:43.778088,332
2021-12-24 14:32:43.778093,263
2021-12-24 14:32:43.778098,186
2021-12-24 14:32:43.778102,97
2021-12-24 14:32:43.778107,27
2021-12-24 14:32:43.778111,0
2021-12-24 14:32:43.778116,-9
2021-12-24 14:32:43.869147,-30
2021-12-24 14:32:43.869166,-53
2021-12-24 14:32:43.869172,-69
2021-12-24 14:32:43.869178,-100
2021-12-24 14:32:43.869183,-141
2021-12-24 14:32:43.869188,-146
2021-12-24 14:32:43.869193,-111
2021-12-24 14:32:43.869198,-100
2021-12-24 14:32:43.869203,-116
2021-12-24 14:32:43.869208,-128
2021-12-24 14:32:43.869213,-114
2021-12-24 14:32:43.869218,-88
2021-12-24 14:32:43.869223,-81
2021-12-24 14:32:43.869228,-100
2021-12-24 14:32:43.869233,-114
2021-12-24 14:32:43.869238,-111
2021-12-24 14:32:43.869242,-118
2021-12-24 14:32:43.869247,-114
2021-12-24 14:32:43.869252,-107
2021-12-24 14:32:43.869257,-137
2021-12-24 14:32:43.869262,-179
2021-12-24 14:32:43.869267,-183
2021-12-24 14:32:43.869272,-176
2021-12-24 14:32:43.869277,-188
2021-12-24 14:32:43.869282,-204
2021-12-24 14:32:43.869287,-209
2021-12-24 14:32:43.869292,-207
2021-12-24 14:32:43.869297,-197
2021-12-24 14:32:43.869302,-176
2021-12-24 14:32:43.869309,-158
2021-12-24 14:32:44.183467,-158
2021-12-24 14:32:44.183484,-160
2021-12-24 14:32:44.183490,-153
2021-12-24 14:32:44.183495,-139
2021-12-24 14:32:44.183501,-134
2021-12-24 14:32:44.183506,-132
2021-12-24 14:32:44.183511,-139
2021-12-24 14:32:44.183516,-146
2021-12-24 14:32:44.183521,-141
2021-12-24 14:32:44.183526,-153
2021-12-24 14:32:44.183530,-179
2021-12-24 14:32:44.183536,-172
2021-12-24 14:32:44.183541,-148
2021-12-24 14:32:44.183545,-144
2021-12-24 14:32:44.183551,-139
2021-12-24 14:32:44.183555,-128
2021-12-24 14:32:44.183561,-114
2021-12-24 14:32:44.183566,-104
2021-12-24 14:32:44.183571,-121
2021-12-24 14:32:44.183576,-116
2021-12-24 14:32:44.183581,-74
2021-12-24 14:32:44.183586,-62
2021-12-24 14:32:44.183591,-76
2021-12-24 14:32:44.183596,-53
2021-12-24 14:32:44.183601,-30
2021-12-24 14:32:44.183606,-34
2021-12-24 14:32:44.183611,-30
2021-12-24 14:32:44.183616,-11
2021-12-24 14:32:44.183621,-13
2021-12-24 14:32:44.183626,0
2021-12-24 14:32:44.363936,174
2021-12-24 14:32:44.363952,607
2021-12-24 14:32:44.363959,1019
2021-12-24 14:32:44.363964,693
2021-12-24 14:32:44.363969,-379
2021-12-24 14:32:44.363975,-828
2021-12-24 14:32:44.363980,-216
2021-12-24 14:32:44.363985,132
2021-12-24 14:32:44.363990,-74
2021-12-24 14:32:44.363995,-79
2021-12-24 14:32:44.364000,30
2021-12-24 14:32:44.364005,0
2021-12-24 14:32:44.364010,-9
2021-12-24 14:32:44.364015,27
2021-12-24 14:32:44.364020,37
2021-12-24 14:32:44.364025,46
2021-12-24 14:32:44.364030,69
2021-12-24 14:32:44.364035,90
2021-12-24 14:32:44.364041,118
2021-12-24 14:32:44.364045,153
2021-12-24 14:32:44.364050,181
2021-12-24 14:32:44.364055,209
2021-12-24 14:32:44.364060,246
2021-12-24 14:32:44.364065,276
2021-12-24 14:32:44.364070,293
2021-12-24 14:32:44.364075,337
2021-12-24 14:32:44.364080,384
2021-12-24 14:32:44.364085,400
2021-12-24 14:32:44.364090,397
2021-12-24 14:32:44.364095,388
2021-12-24 14:32:44.677643,363
2021-12-24 14:32:44.677664,323
2021-12-24 14:32:44.677672,256
2021-12-24 14:32:44.677679,174
2021-12-24 14:32:44.677687,102
2021-12-24 14:32:44.677695,41
2021-12-24 14:32:44.677703,-6
2021-12-24 14:32:44.677728,-25
2021-12-24 14:32:44.677737,-34
2021-12-24 14:32:44.677742,-48
2021-12-24 14:32:44.677747,-69
2021-12-24 14:32:44.677751,-95
2021-12-24 14:32:44.677755,-102
2021-12-24 14:32:44.677760,-83
2021-12-24 14:32:44.677764,-90
2021-12-24 14:32:44.677769,-128
2021-12-24 14:32:44.677773,-148
2021-12-24 14:32:44.677777,-162
2021-12-24 14:32:44.677781,-167
2021-12-24 14:32:44.677786,-137
2021-12-24 14:32:44.677792,-123
2021-12-24 14:32:44.677796,-144
2021-12-24 14:32:44.677801,-160
2021-12-24 14:32:44.677805,-167
2021-12-24 14:32:44.677810,-174
2021-12-24 14:32:44.677814,-181
2021-12-24 14:32:44.677818,-183
2021-12-24 14:32:44.677823,-176
2021-12-24 14:32:44.677827,-179
2021-12-24 14:32:44.677832,-176
2021-12-24 14:32:44.768890,-155
2021-12-24 14:32:44.768905,-134
2021-12-24 14:32:44.768910,-132
2021-12-24 14:32:44.768915,-141
2021-12-24 14:32:44.768919,-141
2021-12-24 14:32:44.768923,-125
2021-12-24 14:32:44.768928,-104
2021-12-24 14:32:44.768932,-95
2021-12-24 14:32:44.768936,-88
2021-12-24 14:32:44.768941,-95
2021-12-24 14:32:44.768945,-114
2021-12-24 14:32:44.768949,-123
2021-12-24 14:32:44.768953,-97
2021-12-24 14:32:44.768958,-76
2021-12-24 14:32:44.768962,-97
2021-12-24 14:32:44.768974,-144
2021-12-24 14:32:44.768979,-160
2021-12-24 14:32:44.768983,-153
2021-12-24 14:32:44.768987,-148
2021-12-24 14:32:44.768992,-137
2021-12-24 14:32:44.768996,-121
2021-12-24 14:32:44.769000,-123
2021-12-24 14:32:44.769052,-128
2021-12-24 14:32:44.769073,-102
2021-12-24 14:32:44.769078,-69
2021-12-24 14:32:44.769082,-60
2021-12-24 14:32:44.769087,-53
2021-12-24 14:32:44.769102,-55
2021-12-24 14:32:44.769110,-72
2021-12-24 14:32:44.769119,-65
2021-12-24 14:32:45.038599,-34
2021-12-24 14:32:45.038616,-18
2021-12-24 14:32:45.038622,-16
2021-12-24 14:32:45.038627,-39
2021-12-24 14:32:45.038632,-65
2021-12-24 14:32:45.038637,-44
2021-12-24 14:32:45.038642,-11
2021-12-24 14:32:45.038647,-11
2021-12-24 14:32:45.038653,-34
2021-12-24 14:32:45.038658,-11
2021-12-24 14:32:45.038663,202
2021-12-24 14:32:45.038668,654
2021-12-24 14:32:45.038673,912
2021-12-24 14:32:45.038679,342
2021-12-24 14:32:45.038684,-635
2021-12-24 14:32:45.038689,-695
2021-12-24 14:32:45.038694,-23
2021-12-24 14:32:45.038700,111
2021-12-24 14:32:45.038705,-86
2021-12-24 14:32:45.038710,9
2021-12-24 14:32:45.038715,90
2021-12-24 14:32:45.038720,20
2021-12-24 14:32:45.038725,37
2021-12-24 14:32:45.038730,104
2021-12-24 14:32:45.038735,116
2021-12-24 14:32:45.038741,130
2021-12-24 14:32:45.038746,153
2021-12-24 14:32:45.038751,151
2021-12-24 14:32:45.038756,167
2021-12-24 14:32:45.038761,214
2021-12-24 14:32:45.397924,246
2021-12-24 14:32:45.397940,276
2021-12-24 14:32:45.397946,314
2021-12-24 14:32:45.397951,337
2021-12-24 14:32:45.397956,367
2021-12-24 14:32:45.397961,418
2021-12-24 14:32:45.397966,453
2021-12-24 14:32:45.397971,463
2021-12-24 14:32:45.397976,446
2021-12-24 14:32:45.397981,400
2021-12-24 14:32:45.397986,356
2021-12-24 14:32:45.397991,325
2021-12-24 14:32:45.397996,267
2021-12-24 14:32:45.398001,190
2021-12-24 14:32:45.398006,111
2021-12-24 14:32:45.398011,18
2021-12-24 14:32:45.398016,-34
2021-12-24 14:32:45.398021,-34
2021-12-24 14:32:45.398026,-41
2021-12-24 14:32:45.398031,-79
2021-12-24 14:32:45.398036,-148
2021-12-24 14:32:45.398041,-211
2021-12-24 14:32:45.398048,-216
2021-12-24 14:32:45.398053,-193
2021-12-24 14:32:45.398058,-181
2021-12-24 14:32:45.398063,-176
2021-12-24 14:32:45.398068,-195
2021-12-24 14:32:45.398073,-216
2021-12-24 14:32:45.398078,-207
2021-12-24 14:32:45.398083,-204
2021-12-24 14:32:45.489234,-209
2021-12-24 14:32:45.489253,-188
2021-12-24 14:32:45.489259,-183
2021-12-24 14:32:45.489264,-207
2021-12-24 14:32:45.489269,-197
2021-12-24 14:32:45.489275,-160
2021-12-24 14:32:45.489280,-146
2021-12-24 14:32:45.489285,-155
2021-12-24 14:32:45.489291,-169
2021-12-24 14:32:45.489296,-165
2021-12-24 14:32:45.489301,-141
2021-12-24 14:32:45.489306,-125
2021-12-24 14:32:45.489311,-116
2021-12-24 14:32:45.489316,-109
2021-12-24 14:32:45.489321,-118
2021-12-24 14:32:45.489326,-128
2021-12-24 14:32:45.489331,-114
2021-12-24 14:32:45.489337,-90
2021-12-24 14:32:45.489342,-69
2021-12-24 14:32:45.489347,-67
2021-12-24 14:32:45.489352,-88
2021-12-24 14:32:45.489357,-90
2021-12-24 14:32:45.489362,-81
2021-12-24 14:32:45.489367,-93
2021-12-24 14:32:45.489372,-88
2021-12-24 14:32:45.489377,-72
2021-12-24 14:32:45.489381,-81
2021-12-24 14:32:45.489387,-86
2021-12-24 14:32:45.489391,-65
2021-12-24 14:32:45.489397,-30
2021-12-24 14:32:45.758370,0
2021-12-24 14:32:45.758385,9
2021-12-24 14:32:45.758390,-2
2021-12-24 14:32:45.758395,-6
2021-12-24 14:32:45.758399,0
2021-12-24 14:32:45.758403,4
2021-12-24 14:32:45.758408,6
2021-12-24 14:32:45.758412,-9
2021-12-24 14:32:45.758416,-34
2021-12-24 14:32:45.758420,-32
2021-12-24 14:32:45.758425,-16
2021-12-24 14:32:45.758429,-2
2021-12-24 14:32:45.758433,4
2021-12-24 14:32:45.758438,-11
2021-12-24 14:32:45.758442,-27
2021-12-24 14:32:45.758446,-27
2021-12-24 14:32:45.758451,-18
2021-12-24 14:32:45.758455,93
2021-12-24 14:32:45.758459,411
2021-12-24 14:32:45.758464,793
2021-12-24 14:32:45.758468,730
2021-12-24 14:32:45.758472,-93
2021-12-24 14:32:45.758477,-756
2021-12-24 14:32:45.758481,-356
2021-12-24 14:32:45.758485,151
2021-12-24 14:32:45.758490,-20
2021-12-24 14:32:45.758494,-144
2021-12-24 14:32:45.758499,16
2021-12-24 14:32:45.758503,41
2021-12-24 14:32:45.758508,2
2021-12-24 14:32:45.983096,51
2021-12-24 14:32:45.983116,76
2021-12-24 14:32:45.983124,67
2021-12-24 14:32:45.983130,81
2021-12-24 14:32:45.983137,114
2021-12-24 14:32:45.983143,146
2021-12-24 14:32:45.983149,174
2021-12-24 14:32:45.983156,197
2021-12-24 14:32:45.983162,223
2021-12-24 14:32:45.983168,258
2021-12-24 14:32:45.983175,307
2021-12-24 14:32:45.983181,353
2021-12-24 14:32:45.983187,363
2021-12-24 14:32:45.983193,358
2021-12-24 14:32:45.983200,381
2021-12-24 14:32:45.983206,397
2021-12-24 14:32:45.983212,386
2021-12-24 14:32:45.983219,365
2021-12-24 14:32:45.983225,311
2021-12-24 14:32:45.983231,228
2021-12-24 14:32:45.983237,158
2021-12-24 14:32:45.983244,93
2021-12-24 14:32:45.983250,34
2021-12-24 14:32:45.983256,-4
2021-12-24 14:32:45.983263,-39
2021-12-24 14:32:45.983269,-72
2021-12-24 14:32:45.983275,-102
2021-12-24 14:32:45.983282,-134
2021-12-24 14:32:45.983288,-144
2021-12-24 14:32:45.983294,-123
2021-12-24 14:32:46.164123,-114
2021-12-24 14:32:46.164142,-109
2021-12-24 14:32:46.164150,-95
2021-12-24 14:32:46.164156,-100
2021-12-24 14:32:46.164163,-118
2021-12-24 14:32:46.164172,-132
2021-12-24 14:32:46.164179,-151
2021-12-24 14:32:46.164185,-148
2021-12-24 14:32:46.164192,-139
2021-12-24 14:32:46.164198,-160
2021-12-24 14:32:46.164204,-174
2021-12-24 14:32:46.164211,-195
2021-12-24 14:32:46.164217,-242
2021-12-24 14:32:46.164224,-239
2021-12-24 14:32:46.164230,-204
2021-12-24 14:32:46.164237,-202
2021-12-24 14:32:46.164243,-204
2021-12-24 14:32:46.164249,-204
2021-12-24 14:32:46.164256,-202
2021-12-24 14:32:46.164262,-186
2021-12-24 14:32:46.164269,-176
2021-12-24 14:32:46.164275,-179
2021-12-24 14:32:46.164281,-162
2021-12-24 14:32:46.164288,-158
2021-12-24 14:32:46.164294,-160
2021-12-24 14:32:46.164301,-132
2021-12-24 14:32:46.164307,-107
2021-12-24 14:32:46.164313,-111
2021-12-24 14:32:46.164320,-121
2021-12-24 14:32:46.164326,-137
2021-12-24 14:32:46.388524,-162
2021-12-24 14:32:46.388537,-195
2021-12-24 14:32:46.388543,-216
2021-12-24 14:32:46.388548,-200
2021-12-24 14:32:46.388552,-174
2021-12-24 14:32:46.388556,-174
2021-12-24 14:32:46.388561,-169
2021-12-24 14:32:46.388565,-137
2021-12-24 14:32:46.388570,-125
2021-12-24 14:32:46.388575,-134
2021-12-24 14:32:46.388579,-141
2021-12-24 14:32:46.388583,-151
2021-12-24 14:32:46.388588,-146
2021-12-24 14:32:46.388592,-118
2021-12-24 14:32:46.388597,-97
2021-12-24 14:32:46.388601,-95
2021-12-24 14:32:46.388605,-95
2021-12-24 14:32:46.388610,-83
2021-12-24 14:32:46.388614,-67
2021-12-24 14:32:46.388618,-46
2021-12-24 14:32:46.388623,-37
2021-12-24 14:32:46.388627,-30
2021-12-24 14:32:46.388631,88
2021-12-24 14:32:46.388636,409
2021-12-24 14:32:46.388640,765
2021-12-24 14:32:46.388644,600
2021-12-24 14:32:46.388649,-246
2021-12-24 14:32:46.388655,-737
2021-12-24 14:32:46.388659,-256
2021-12-24 14:32:46.388663,144
2021-12-24 14:32:46.748168,-6
2021-12-24 14:32:46.748185,-34
2021-12-24 14:32:46.748190,86
2021-12-24 14:32:46.748195,65
2021-12-24 14:32:46.748199,30
2021-12-24 14:32:46.748204,51
2021-12-24 14:32:46.748208,72
2021-12-24 14:32:46.748213,97
2021-12-24 14:32:46.748217,125
2021-12-24 14:32:46.748221,130
2021-12-24 14:32:46.748225,114
2021-12-24 14:32:46.748251,121
2021-12-24 14:32:46.748257,169
2021-12-24 14:32:46.748261,216
2021-12-24 14:32:46.748265,246
2021-12-24 14:32:46.748270,276
2021-12-24 14:32:46.748274,311
2021-12-24 14:32:46.748278,346
2021-12-24 14:32:46.748283,386
2021-12-24 14:32:46.748287,411
2021-12-24 14:32:46.748291,411
2021-12-24 14:32:46.748296,393
2021-12-24 14:32:46.748300,358
2021-12-24 14:32:46.748304,318
2021-12-24 14:32:46.748308,274
2021-12-24 14:32:46.748312,211
2021-12-24 14:32:46.748317,144
2021-12-24 14:32:46.748321,79
2021-12-24 14:32:46.748325,16
2021-12-24 14:32:46.748329,-16
2021-12-24 14:32:46.928968,-27
2021-12-24 14:32:46.928985,-34
2021-12-24 14:32:46.928990,-58
2021-12-24 14:32:46.928995,-118
2021-12-24 14:32:46.928999,-162
2021-12-24 14:32:46.929004,-146
2021-12-24 14:32:46.929008,-155
2021-12-24 14:32:46.929013,-195
2021-12-24 14:32:46.929017,-183
2021-12-24 14:32:46.929021,-181
2021-12-24 14:32:46.929026,-214
2021-12-24 14:32:46.929030,-195
2021-12-24 14:32:46.929034,-148
2021-12-24 14:32:46.929038,-144
2021-12-24 14:32:46.929043,-165
2021-12-24 14:32:46.929047,-176
2021-12-24 14:32:46.929051,-169
2021-12-24 14:32:46.929056,-151
2021-12-24 14:32:46.929060,-151
2021-12-24 14:32:46.929064,-165
2021-12-24 14:32:46.929068,-174
2021-12-24 14:32:46.929073,-197
2021-12-24 14:32:46.929077,-214
2021-12-24 14:32:46.929082,-188
2021-12-24 14:32:46.929086,-172
2021-12-24 14:32:46.929090,-169
2021-12-24 14:32:46.929094,-165
2021-12-24 14:32:46.929099,-174
2021-12-24 14:32:46.929103,-172
2021-12-24 14:32:46.929107,-146
2021-12-24 14:32:47.153967,-125
2021-12-24 14:32:47.153989,-118
2021-12-24 14:32:47.153998,-121
2021-12-24 14:32:47.154006,-139
2021-12-24 14:32:47.154026,-151
2021-12-24 14:32:47.154034,-146
2021-12-24 14:32:47.154042,-123
2021-12-24 14:32:47.154050,-86
2021-12-24 14:32:47.154058,-81
2021-12-24 14:32:47.154066,-111
2021-12-24 14:32:47.154074,-109
2021-12-24 14:32:47.154082,-81
2021-12-24 14:32:47.154090,-76
2021-12-24 14:32:47.154098,-74
2021-12-24 14:32:47.154106,-81
2021-12-24 14:32:47.154114,-111
2021-12-24 14:32:47.154122,-109
2021-12-24 14:32:47.154131,-72
2021-12-24 14:32:47.154139,-60
2021-12-24 14:32:47.154147,-62
2021-12-24 14:32:47.154155,-72
2021-12-24 14:32:47.154163,-97
2021-12-24 14:32:47.154179,-109
2021-12-24 14:32:47.154188,-90
2021-12-24 14:32:47.154196,32
2021-12-24 14:32:47.154204,377
2021-12-24 14:32:47.154212,805
2021-12-24 14:32:47.154221,728
2021-12-24 14:32:47.154229,-176
2021-12-24 14:32:47.154237,-879
2021-12-24 14:32:47.378271,-453
2021-12-24 14:32:47.378285,104
2021-12-24 14:32:47.378290,6
2021-12-24 14:32:47.378295,-67
2021-12-24 14:32:47.378299,100
2021-12-24 14:32:47.378303,116
2021-12-24 14:32:47.378308,67
2021-12-24 14:32:47.378312,86
2021-12-24 14:32:47.378316,74
2021-12-24 14:32:47.378320,55
2021-12-24 14:32:47.378325,86
2021-12-24 14:32:47.378329,95
2021-12-24 14:32:47.378333,62
2021-12-24 14:32:47.378338,65
2021-12-24 14:32:47.378342,81
2021-12-24 14:32:47.378346,93
2021-12-24 14:32:47.378350,141
2021-12-24 14:32:47.378355,204
2021-12-24 14:32:47.378359,253
2021-12-24 14:32:47.378363,286
2021-12-24 14:32:47.378368,293
2021-12-24 14:32:47.378372,295
2021-12-24 14:32:47.378376,314
2021-12-24 14:32:47.378380,325
2021-12-24 14:32:47.378385,314
2021-12-24 14:32:47.378389,265
2021-12-24 14:32:47.378393,183
2021-12-24 14:32:47.378398,104
2021-12-24 14:32:47.378402,46
2021-12-24 14:32:47.378406,-9
2021-12-24 14:32:47.603373,-58
2021-12-24 14:32:47.603390,-90
2021-12-24 14:32:47.603396,-118
2021-12-24 14:32:47.603401,-139
2021-12-24 14:32:47.603407,-134
2021-12-24 14:32:47.603412,-118
2021-12-24 14:32:47.603417,-114
2021-12-24 14:32:47.603422,-137
2021-12-24 14:32:47.603426,-174
2021-12-24 14:32:47.603431,-190
2021-12-24 14:32:47.603436,-172
2021-12-24 14:32:47.603441,-151
2021-12-24 14:32:47.603446,-141
2021-12-24 14:32:47.603451,-148
2021-12-24 14:32:47.603456,-158
2021-12-24 14:32:47.603461,-148
2021-12-24 14:32:47.603466,-123
2021-12-24 14:32:47.603471,-104
2021-12-24 14:32:47.603476,-97
2021-12-24 14:32:47.603481,-95
2021-12-24 14:32:47.603486,-90
2021-12-24 14:32:47.603491,-81
2021-12-24 14:32:47.603496,-79
2021-12-24 14:32:47.603501,-83
2021-12-24 14:32:47.603505,-93
2021-12-24 14:32:47.603510,-93
2021-12-24 14:32:47.603515,-90
2021-12-24 14:32:47.603520,-102
2021-12-24 14:32:47.603525,-123
2021-12-24 14:32:47.603530,-128
2021-12-24 14:32:47.874016,-141
2021-12-24 14:32:47.874036,-160
2021-12-24 14:32:47.874044,-144
2021-12-24 14:32:47.874051,-111
2021-12-24 14:32:47.874057,-100
2021-12-24 14:32:47.874064,-100
2021-12-24 14:32:47.874070,-118
2021-12-24 14:32:47.874076,-153
2021-12-24 14:32:47.874082,-160
2021-12-24 14:32:47.874089,-141
2021-12-24 14:32:47.874095,-139
2021-12-24 14:32:47.874101,-155
2021-12-24 14:32:47.874107,-165
2021-12-24 14:32:47.874114,-151
2021-12-24 14:32:47.874120,-134
2021-12-24 14:32:47.874126,-125
2021-12-24 14:32:47.874133,-111
2021-12-24 14:32:47.874139,-123
2021-12-24 14:32:47.874145,-209
2021-12-24 14:32:47.874151,-258
2021-12-24 14:32:47.874157,-81
2021-12-24 14:32:47.874164,349
2021-12-24 14:32:47.874170,858
2021-12-24 14:32:47.874176,782
2021-12-24 14:32:47.874183,-323
2021-12-24 14:32:47.874189,-1154
2021-12-24 14:32:47.874195,-628
2021-12-24 14:32:47.874201,-18
2021-12-24 14:32:47.874208,-125
2021-12-24 14:32:47.874214,-144
2021-12-24 14:32:48.054157,32
2021-12-24 14:32:48.054177,18
2021-12-24 14:32:48.054185,-6
2021-12-24 14:32:48.054192,58
2021-12-24 14:32:48.054198,76
2021-12-24 14:32:48.054205,62
2021-12-24 14:32:48.054211,67
2021-12-24 14:32:48.054217,83
2021-12-24 14:32:48.054224,114
2021-12-24 14:32:48.054230,148
2021-12-24 14:32:48.054236,183
2021-12-24 14:32:48.054247,211
2021-12-24 14:32:48.054253,223
2021-12-24 14:32:48.054260,239
2021-12-24 14:32:48.054266,286
2021-12-24 14:32:48.054272,339
2021-12-24 14:32:48.054279,377
2021-12-24 14:32:48.054285,386
2021-12-24 14:32:48.054291,367
2021-12-24 14:32:48.054297,353
2021-12-24 14:32:48.054304,339
2021-12-24 14:32:48.054310,279
2021-12-24 14:32:48.054316,195
2021-12-24 14:32:48.054323,114
2021-12-24 14:32:48.054329,32
2021-12-24 14:32:48.054335,-25
2021-12-24 14:32:48.054342,-65
2021-12-24 14:32:48.054348,-97
2021-12-24 14:32:48.054354,-114
2021-12-24 14:32:48.054360,-121
2021-12-24 14:32:48.233606,-128
2021-12-24 14:32:48.233624,-121
2021-12-24 14:32:48.233632,-104
2021-12-24 14:32:48.233638,-102
2021-12-24 14:32:48.233644,-109
2021-12-24 14:32:48.233650,-121
2021-12-24 14:32:48.233657,-121
2021-12-24 14:32:48.233663,-93
2021-12-24 14:32:48.233669,-74
2021-12-24 14:32:48.233675,-76
2021-12-24 14:32:48.233681,-69
2021-12-24 14:32:48.233687,-65
2021-12-24 14:32:48.233694,-60
2021-12-24 14:32:48.233700,-37
2021-12-24 14:32:48.233706,-32
2021-12-24 14:32:48.233712,-62
2021-12-24 14:32:48.233718,-88
2021-12-24 14:32:48.233724,-93
2021-12-24 14:32:48.233731,-83
2021-12-24 14:32:48.233737,-67
2021-12-24 14:32:48.233743,-55
2021-12-24 14:32:48.233749,-60
2021-12-24 14:32:48.233755,-67
2021-12-24 14:32:48.233761,-88
2021-12-24 14:32:48.233768,-97
2021-12-24 14:32:48.233774,-65
2021-12-24 14:32:48.233780,-30
2021-12-24 14:32:48.233786,-34
2021-12-24 14:32:48.233792,-41
2021-12-24 14:32:48.233799,-37
2021-12-24 14:32:48.459290,-39
2021-12-24 14:32:48.459311,-51
2021-12-24 14:32:48.459319,-58
2021-12-24 14:32:48.459326,-60
2021-12-24 14:32:48.459332,-83
2021-12-24 14:32:48.459339,-118
2021-12-24 14:32:48.459345,-125
2021-12-24 14:32:48.459351,-111
2021-12-24 14:32:48.459357,-121
2021-12-24 14:32:48.459364,-153
2021-12-24 14:32:48.459370,-181
2021-12-24 14:32:48.459376,-207
2021-12-24 14:32:48.459382,-174
2021-12-24 14:32:48.459421,55
2021-12-24 14:32:48.459428,551
2021-12-24 14:32:48.459434,968
2021-12-24 14:32:48.459440,526
2021-12-24 14:32:48.459446,-672
2021-12-24 14:32:48.459453,-1059
2021-12-24 14:32:48.459459,-316
2021-12-24 14:32:48.459465,16
2021-12-24 14:32:48.459471,-216
2021-12-24 14:32:48.459478,-153
2021-12-24 14:32:48.459484,0
2021-12-24 14:32:48.459490,-41
2021-12-24 14:32:48.459496,-32
2021-12-24 14:32:48.459502,37
2021-12-24 14:32:48.459509,25
2021-12-24 14:32:48.459515,13
2021-12-24 14:32:48.459521,58
2021-12-24 14:32:48.907241,97
2021-12-24 14:32:48.907262,114
2021-12-24 14:32:48.907270,144
2021-12-24 14:32:48.907277,155
2021-12-24 14:32:48.907283,155
2021-12-24 14:32:48.907289,202
2021-12-24 14:32:48.907296,279
2021-12-24 14:32:48.907302,332
2021-12-24 14:32:48.907308,370
2021-12-24 14:32:48.907314,381
2021-12-24 14:32:48.907320,367
2021-12-24 14:32:48.907326,372
2021-12-24 14:32:48.907333,377
2021-12-24 14:32:48.907339,339
2021-12-24 14:32:48.907345,263
2021-12-24 14:32:48.907351,165
2021-12-24 14:32:48.907357,76
2021-12-24 14:32:48.907373,20
2021-12-24 14:32:48.907380,-30
2021-12-24 14:32:48.907386,-95
2021-12-24 14:32:48.907393,-146
2021-12-24 14:32:48.907399,-167
2021-12-24 14:32:48.907405,-172
2021-12-24 14:32:48.907411,-158
2021-12-24 14:32:48.907417,-139
2021-12-24 14:32:48.907423,-123
2021-12-24 14:32:48.907430,-118
2021-12-24 14:32:48.907436,-125
2021-12-24 14:32:48.907442,-130
2021-12-24 14:32:48.907448,-144
2021-12-24 14:32:49.043653,-165
2021-12-24 14:32:49.043674,-144
2021-12-24 14:32:49.043682,-118
2021-12-24 14:32:49.043689,-132
2021-12-24 14:32:49.043696,-121
2021-12-24 14:32:49.043702,-81
2021-12-24 14:32:49.043708,-62
2021-12-24 14:32:49.043715,-51
2021-12-24 14:32:49.043721,-53
2021-12-24 14:32:49.043727,-81
2021-12-24 14:32:49.043733,-83
2021-12-24 14:32:49.043739,-48
2021-12-24 14:32:49.043746,-30
2021-12-24 14:32:49.043752,-25
2021-12-24 14:32:49.043758,-39
2021-12-24 14:32:49.043764,-69
2021-12-24 14:32:49.043771,-69
2021-12-24 14:32:49.043777,-41
2021-12-24 14:32:49.043783,-34
2021-12-24 14:32:49.043789,-32
2021-12-24 14:32:49.043796,-27
2021-12-24 14:32:49.043802,-32
2021-12-24 14:32:49.043808,-20
2021-12-24 14:32:49.043815,13
2021-12-24 14:32:49.043821,32
2021-12-24 14:32:49.043827,32
2021-12-24 14:32:49.043834,25
2021-12-24 14:32:49.043840,9
2021-12-24 14:32:49.043846,9
2021-12-24 14:32:49.043852,30
2021-12-24 14:32:49.312841,44
2021-12-24 14:32:49.312855,51
2021-12-24 14:32:49.312861,46
2021-12-24 14:32:49.312866,34
2021-12-24 14:32:49.312870,44
2021-12-24 14:32:49.312874,67
2021-12-24 14:32:49.312879,81
2021-12-24 14:32:49.312883,72
2021-12-24 14:32:49.312892,18
2021-12-24 14:32:49.312897,6
2021-12-24 14:32:49.312901,218
2021-12-24 14:32:49.312906,688
2021-12-24 14:32:49.312910,1093
2021-12-24 14:32:49.312914,698
2021-12-24 14:32:49.312919,-479
2021-12-24 14:32:49.312923,-942
2021-12-24 14:32:49.312927,-269
2021-12-24 14:32:49.312931,69
2021-12-24 14:32:49.312936,-165
2021-12-24 14:32:49.312940,-139
2021-12-24 14:32:49.312944,-37
2021-12-24 14:32:49.312949,-111
2021-12-24 14:32:49.312953,-111
2021-12-24 14:32:49.312957,-55
2021-12-24 14:32:49.312962,-74
2021-12-24 14:32:49.312966,-81
2021-12-24 14:32:49.312970,-58
2021-12-24 14:32:49.312975,-48
2021-12-24 14:32:49.312979,-25
2021-12-24 14:32:49.312983,18
2021-12-24 14:32:49.449048,62
2021-12-24 14:32:49.449063,100
2021-12-24 14:32:49.449069,134
2021-12-24 14:32:49.449074,169
2021-12-24 14:32:49.449080,193
2021-12-24 14:32:49.449084,202
2021-12-24 14:32:49.449112,232
2021-12-24 14:32:49.449121,256
2021-12-24 14:32:49.449126,237
2021-12-24 14:32:49.449130,221
2021-12-24 14:32:49.449134,211
2021-12-24 14:32:49.449139,162
2021-12-24 14:32:49.449143,83
2021-12-24 14:32:49.449147,-2
2021-12-24 14:32:49.449152,-86
2021-12-24 14:32:49.449156,-146
2021-12-24 14:32:49.449160,-176
2021-12-24 14:32:49.449165,-186
2021-12-24 14:32:49.449169,-204
2021-12-24 14:32:49.449173,-239
2021-12-24 14:32:49.449178,-253
2021-12-24 14:32:49.449182,-237
2021-12-24 14:32:49.449186,-216
2021-12-24 14:32:49.449190,-193
2021-12-24 14:32:49.449195,-176
2021-12-24 14:32:49.449199,-186
2021-12-24 14:32:49.449203,-190
2021-12-24 14:32:49.449208,-165
2021-12-24 14:32:49.449212,-141
2021-12-24 14:32:49.449216,-130
2021-12-24 14:32:49.673451,-123
2021-12-24 14:32:49.673466,-118
2021-12-24 14:32:49.673471,-109
2021-12-24 14:32:49.673476,-97
2021-12-24 14:32:49.673480,-83
2021-12-24 14:32:49.673485,-67
2021-12-24 14:32:49.673489,-69
2021-12-24 14:32:49.673493,-93
2021-12-24 14:32:49.673498,-83
2021-12-24 14:32:49.673502,-58
2021-12-24 14:32:49.673506,-53
2021-12-24 14:32:49.673511,-46
2021-12-24 14:32:49.673515,-27
2021-12-24 14:32:49.673519,-23
2021-12-24 14:32:49.673523,-18
2021-12-24 14:32:49.673528,-4
2021-12-24 14:32:49.673532,6
2021-12-24 14:32:49.673536,13
2021-12-24 14:32:49.673541,-2
2021-12-24 14:32:49.673545,-20
2021-12-24 14:32:49.673549,-9
2021-12-24 14:32:49.673553,4
2021-12-24 14:32:49.673558,9
2021-12-24 14:32:49.673562,25
2021-12-24 14:32:49.673566,27
2021-12-24 14:32:49.673571,27
2021-12-24 14:32:49.673575,34
2021-12-24 14:32:49.673579,18
2021-12-24 14:32:49.673584,-2
2021-12-24 14:32:49.673588,11
2021-12-24 14:32:49.853999,13
2021-12-24 14:32:49.854021,4
2021-12-24 14:32:49.854032,9
2021-12-24 14:32:49.854042,16
2021-12-24 14:32:49.854051,37
2021-12-24 14:32:49.854059,62
2021-12-24 14:32:49.854068,44
2021-12-24 14:32:49.854076,27
2021-12-24 14:32:49.854085,48
2021-12-24 14:32:49.854094,32
2021-12-24 14:32:49.854103,-34
2021-12-24 14:32:49.854112,-62
2021-12-24 14:32:49.854122,-32
2021-12-24 14:32:49.854131,-9
2021-12-24 14:32:49.854140,-11
2021-12-24 14:32:49.854149,-13
2021-12-24 14:32:49.854158,-2
2021-12-24 14:32:49.854167,-9
2021-12-24 14:32:49.854176,-46
2021-12-24 14:32:49.854185,-58
2021-12-24 14:32:49.854195,-48
2021-12-24 14:32:49.854204,-76
2021-12-24 14:32:49.854213,-41
2021-12-24 14:32:49.854222,223
2021-12-24 14:32:49.854231,719
2021-12-24 14:32:49.854240,1014
2021-12-24 14:32:49.854249,384
2021-12-24 14:32:49.854259,-754
2021-12-24 14:32:49.854268,-870
2021-12-24 14:32:49.854278,-158
2021-12-24 14:32:50.168012,-44
2021-12-24 14:32:50.168032,-244
2021-12-24 14:32:50.168040,-93
2021-12-24 14:32:50.168046,-6
2021-12-24 14:32:50.168053,-95
2021-12-24 14:32:50.168059,-93
2021-12-24 14:32:50.168065,-53
2021-12-24 14:32:50.168071,-44
2021-12-24 14:32:50.168078,-23
2021-12-24 14:32:50.168084,0
2021-12-24 14:32:50.168090,6
2021-12-24 14:32:50.168097,6
2021-12-24 14:32:50.168103,23
2021-12-24 14:32:50.168109,67
2021-12-24 14:32:50.168115,109
2021-12-24 14:32:50.168121,146
2021-12-24 14:32:50.168128,193
2021-12-24 14:32:50.168134,232
2021-12-24 14:32:50.168140,269
2021-12-24 14:32:50.168146,311
2021-12-24 14:32:50.168152,339
2021-12-24 14:32:50.168159,337
2021-12-24 14:32:50.168165,325
2021-12-24 14:32:50.168171,297
2021-12-24 14:32:50.168177,253
2021-12-24 14:32:50.168183,202
2021-12-24 14:32:50.168189,139
2021-12-24 14:32:50.168196,65
2021-12-24 14:32:50.168202,0
2021-12-24 14:32:50.168208,-37
2021-12-24 14:32:50.439162,-62
2021-12-24 14:32:50.439183,-90
2021-12-24 14:32:50.439190,-121
2021-12-24 14:32:50.439197,-134
2021-12-24 14:32:50.439203,-155
2021-12-24 14:32:50.439209,-181
2021-12-24 14:32:50.439215,-160
2021-12-24 14:32:50.439221,-125
2021-12-24 14:32:50.439227,-114
2021-12-24 14:32:50.439233,-116
2021-12-24 14:32:50.439239,-121
2021-12-24 14:32:50.439245,-114
2021-12-24 14:32:50.439252,-88
2021-12-24 14:32:50.439258,-69
2021-12-24 14:32:50.439264,-62
2021-12-24 14:32:50.439270,-76
2021-12-24 14:32:50.439276,-114
2021-12-24 14:32:50.439282,-128
2021-12-24 14:32:50.439288,-95
2021-12-24 14:32:50.439294,-69
2021-12-24 14:32:50.439301,-67
2021-12-24 14:32:50.439307,-67
2021-12-24 14:32:50.439313,-72
2021-12-24 14:32:50.439323,-69
2021-12-24 14:32:50.439329,-51
2021-12-24 14:32:50.439336,-32
2021-12-24 14:32:50.439373,-18
2021-12-24 14:32:50.439380,-20
2021-12-24 14:32:50.439386,-30
2021-12-24 14:32:50.439392,-18
2021-12-24 14:32:50.529144,4
2021-12-24 14:32:50.529165,20
2021-12-24 14:32:50.529172,20
2021-12-24 14:32:50.529178,-4
2021-12-24 14:32:50.529185,-23
2021-12-24 14:32:50.529191,-4
2021-12-24 14:32:50.529197,20
2021-12-24 14:32:50.529204,30
2021-12-24 14:32:50.529210,32
2021-12-24 14:32:50.529216,16
2021-12-24 14:32:50.529222,2
2021-12-24 14:32:50.529228,20
2021-12-24 14:32:50.529235,46
2021-12-24 14:32:50.529241,55
2021-12-24 14:32:50.529247,53
2021-12-24 14:32:50.529253,27
2021-12-24 14:32:50.529259,-2
2021-12-24 14:32:50.529266,9
2021-12-24 14:32:50.529272,37
2021-12-24 14:32:50.529278,46
2021-12-24 14:32:50.529284,44
2021-12-24 14:32:50.529290,30
2021-12-24 14:32:50.529297,13
2021-12-24 14:32:50.529303,6
2021-12-24 14:32:50.529309,-2
2021-12-24 14:32:50.529315,-9
2021-12-24 14:32:50.529354,-9
2021-12-24 14:32:50.529360,-25
2021-12-24 14:32:50.529366,-46
2021-12-24 14:32:50.529373,-46
2021-12-24 14:32:50.932985,-48
2021-12-24 14:32:50.933006,-67
2021-12-24 14:32:50.933013,-95
2021-12-24 14:32:50.933020,-139
2021-12-24 14:32:50.933027,-165
2021-12-24 14:32:50.933033,-158
2021-12-24 14:32:50.933039,-162
2021-12-24 14:32:50.933045,-165
2021-12-24 14:32:50.933052,-165
2021-12-24 14:32:50.933058,-188
2021-12-24 14:32:50.933064,-193
2021-12-24 14:32:50.933071,-155
2021-12-24 14:32:50.933077,-132
2021-12-24 14:32:50.933083,-134
2021-12-24 14:32:50.933089,-151
2021-12-24 14:32:50.933096,-76
2021-12-24 14:32:50.933102,246
2021-12-24 14:32:50.933108,756
2021-12-24 14:32:50.933115,926
2021-12-24 14:32:50.933121,181
2021-12-24 14:32:50.933127,-805
2021-12-24 14:32:50.933133,-719
2021-12-24 14:32:50.933139,-83
2021-12-24 14:32:50.933146,-65
2021-12-24 14:32:50.933152,-197
2021-12-24 14:32:50.933158,-34
2021-12-24 14:32:50.933165,6
2021-12-24 14:32:50.933171,-67
2021-12-24 14:32:50.933177,-18
2021-12-24 14:32:50.933183,44
2021-12-24 14:32:51.024171,44
2021-12-24 14:32:51.024191,62
2021-12-24 14:32:51.024199,86
2021-12-24 14:32:51.024205,83
2021-12-24 14:32:51.024212,107
2021-12-24 14:32:51.024218,155
2021-12-24 14:32:51.024224,186
2021-12-24 14:32:51.024231,193
2021-12-24 14:32:51.024237,176
2021-12-24 14:32:51.024243,190
2021-12-24 14:32:51.024249,253
2021-12-24 14:32:51.024256,304
2021-12-24 14:32:51.024262,332
2021-12-24 14:32:51.024268,344
2021-12-24 14:32:51.024274,316
2021-12-24 14:32:51.024281,279
2021-12-24 14:32:51.024287,265
2021-12-24 14:32:51.024325,232
2021-12-24 14:32:51.024332,176
2021-12-24 14:32:51.024338,109
2021-12-24 14:32:51.024344,30
2021-12-24 14:32:51.024351,-39
2021-12-24 14:32:51.024357,-67
2021-12-24 14:32:51.024363,-79
2021-12-24 14:32:51.024370,-95
2021-12-24 14:32:51.024376,-109
2021-12-24 14:32:51.024382,-128
2021-12-24 14:32:51.024389,-134
2021-12-24 14:32:51.024395,-118
2021-12-24 14:32:51.024401,-95
2021-12-24 14:32:51.294609,-81
2021-12-24 14:32:51.294630,-86
2021-12-24 14:32:51.294641,-102
2021-12-24 14:32:51.294652,-97
2021-12-24 14:32:51.294668,-79
2021-12-24 14:32:51.294677,-60
2021-12-24 14:32:51.294683,-55
2021-12-24 14:32:51.294690,-72
2021-12-24 14:32:51.294708,-102
2021-12-24 14:32:51.294719,-121
2021-12-24 14:32:51.294769,-128
2021-12-24 14:32:51.294791,-109
2021-12-24 14:32:51.294804,-95
2021-12-24 14:32:51.294816,-125
2021-12-24 14:32:51.294826,-141
2021-12-24 14:32:51.294836,-121
2021-12-24 14:32:51.294847,-100
2021-12-24 14:32:51.294859,-88
2021-12-24 14:32:51.294874,-76
2021-12-24 14:32:51.294881,-72
2021-12-24 14:32:51.294888,-65
2021-12-24 14:32:51.294894,-55
2021-12-24 14:32:51.294900,-41
2021-12-24 14:32:51.294906,-25
2021-12-24 14:32:51.294912,-23
2021-12-24 14:32:51.294919,-55
2021-12-24 14:32:51.294925,-116
2021-12-24 14:32:51.294932,-155
2021-12-24 14:32:51.294938,-141
2021-12-24 14:32:51.294944,-128
2021-12-24 14:32:51.474297,-148
2021-12-24 14:32:51.474327,-167
2021-12-24 14:32:51.474339,-172
2021-12-24 14:32:51.474349,-188
2021-12-24 14:32:51.474359,-181
2021-12-24 14:32:51.474368,-155
2021-12-24 14:32:51.474378,-169
2021-12-24 14:32:51.474387,-204
2021-12-24 14:32:51.474397,-202
2021-12-24 14:32:51.474406,-179
2021-12-24 14:32:51.474416,-169
2021-12-24 14:32:51.474426,-181
2021-12-24 14:32:51.474436,-214
2021-12-24 14:32:51.474445,-228
2021-12-24 14:32:51.474455,-207
2021-12-24 14:32:51.474465,-188
2021-12-24 14:32:51.474474,-160
2021-12-24 14:32:51.474484,-123
2021-12-24 14:32:51.474493,-134
2021-12-24 14:32:51.474503,-162
2021-12-24 14:32:51.474513,-144
2021-12-24 14:32:51.474522,-125
2021-12-24 14:32:51.474532,-132
2021-12-24 14:32:51.474542,-121
2021-12-24 14:32:51.474551,-104
2021-12-24 14:32:51.474561,-95
2021-12-24 14:32:51.474570,-83
2021-12-24 14:32:51.474580,-79
2021-12-24 14:32:51.474590,-69
2021-12-24 14:32:51.474599,-55
2021-12-24 14:32:51.698982,-39
2021-12-24 14:32:51.699004,-23
2021-12-24 14:32:51.699011,-30
2021-12-24 14:32:51.699018,-60
2021-12-24 14:32:51.699024,34
2021-12-24 14:32:51.699031,379
2021-12-24 14:32:51.699037,896
2021-12-24 14:32:51.699043,1086
2021-12-24 14:32:51.699049,244
2021-12-24 14:32:51.699056,-898
2021-12-24 14:32:51.699062,-768
2021-12-24 14:32:51.699068,-16
2021-12-24 14:32:51.699074,-9
2021-12-24 14:32:51.699081,-183
2021-12-24 14:32:51.699087,-13
2021-12-24 14:32:51.699093,37
2021-12-24 14:32:51.699099,-30
2021-12-24 14:32:51.699106,16
2021-12-24 14:32:51.699112,62
2021-12-24 14:32:51.699118,62
2021-12-24 14:32:51.699124,88
2021-12-24 14:32:51.699131,116
2021-12-24 14:32:51.699137,134
2021-12-24 14:32:51.699143,160
2021-12-24 14:32:51.699149,186
2021-12-24 14:32:51.699155,225
2021-12-24 14:32:51.699161,272
2021-12-24 14:32:51.699168,307
2021-12-24 14:32:51.699174,349
2021-12-24 14:32:51.699184,400
2021-12-24 14:32:51.924768,432
2021-12-24 14:32:51.924797,430
2021-12-24 14:32:51.924809,404
2021-12-24 14:32:51.924819,388
2021-12-24 14:32:51.924828,379
2021-12-24 14:32:51.924838,321
2021-12-24 14:32:51.924848,235
2021-12-24 14:32:51.924857,174
2021-12-24 14:32:51.924867,114
2021-12-24 14:32:51.924876,23
2021-12-24 14:32:51.924886,-53
2021-12-24 14:32:51.924896,-111
2021-12-24 14:32:51.924906,-146
2021-12-24 14:32:51.924915,-148
2021-12-24 14:32:51.924925,-158
2021-12-24 14:32:51.924935,-190
2021-12-24 14:32:51.924944,-216
2021-12-24 14:32:51.924954,-216
2021-12-24 14:32:51.924964,-195
2021-12-24 14:32:51.924973,-167
2021-12-24 14:32:51.924983,-151
2021-12-24 14:32:51.924992,-160
2021-12-24 14:32:51.925002,-174
2021-12-24 14:32:51.925011,-169
2021-12-24 14:32:51.925021,-151
2021-12-24 14:32:51.925031,-137
2021-12-24 14:32:51.925040,-144
2021-12-24 14:32:51.925050,-158
2021-12-24 14:32:51.925060,-162
2021-12-24 14:32:51.925069,-169
2021-12-24 14:32:52.149403,-169
2021-12-24 14:32:52.149424,-155
2021-12-24 14:32:52.149431,-146
2021-12-24 14:32:52.149438,-153
2021-12-24 14:32:52.149444,-172
2021-12-24 14:32:52.149450,-190
2021-12-24 14:32:52.149457,-176
2021-12-24 14:32:52.149463,-146
2021-12-24 14:32:52.149469,-134
2021-12-24 14:32:52.149475,-144
2021-12-24 14:32:52.149481,-165
2021-12-24 14:32:52.149488,-179
2021-12-24 14:32:52.149494,-165
2021-12-24 14:32:52.149500,-146
2021-12-24 14:32:52.149506,-141
2021-12-24 14:32:52.149512,-132
2021-12-24 14:32:52.149518,-104
2021-12-24 14:32:52.149525,-90
2021-12-24 14:32:52.149531,-95
2021-12-24 14:32:52.149537,-86
2021-12-24 14:32:52.149543,-74
2021-12-24 14:32:52.149549,-121
2021-12-24 14:32:52.149556,-169
2021-12-24 14:32:52.149562,-121
2021-12-24 14:32:52.149568,-39
2021-12-24 14:32:52.149574,-20
2021-12-24 14:32:52.149580,-39
2021-12-24 14:32:52.149587,-93
2021-12-24 14:32:52.149593,-130
2021-12-24 14:32:52.149599,-69
2021-12-24 14:32:52.374734,-4
2021-12-24 14:32:52.374754,-9
2021-12-24 14:32:52.374761,-18
2021-12-24 14:32:52.374768,-62
2021-12-24 14:32:52.374774,-76
2021-12-24 14:32:52.374781,209
2021-12-24 14:32:52.374787,802
2021-12-24 14:32:52.374793,1231
2021-12-24 14:32:52.374799,707
2021-12-24 14:32:52.374806,-670
2021-12-24 14:32:52.374812,-1212
2021-12-24 14:32:52.374818,-456
2021-12-24 14:32:52.374824,-20
2021-12-24 14:32:52.374831,-202
2021-12-24 14:32:52.374837,-125
2021-12-24 14:32:52.374843,18
2021-12-24 14:32:52.374849,-51
2021-12-24 14:32:52.374856,-46
2021-12-24 14:32:52.374862,34
2021-12-24 14:32:52.374868,27
2021-12-24 14:32:52.374875,2
2021-12-24 14:32:52.374881,27
2021-12-24 14:32:52.374887,65
2021-12-24 14:32:52.374893,100
2021-12-24 14:32:52.374900,144
2021-12-24 14:32:52.374906,193
2021-12-24 14:32:52.374912,232
2021-12-24 14:32:52.374918,269
2021-12-24 14:32:52.374924,321
2021-12-24 14:32:52.374931,384
2021-12-24 14:32:52.689813,435
2021-12-24 14:32:52.689842,474
2021-12-24 14:32:52.689854,481
2021-12-24 14:32:52.689864,446
2021-12-24 14:32:52.689873,409
2021-12-24 14:32:52.689883,411
2021-12-24 14:32:52.689892,397
2021-12-24 14:32:52.689902,321
2021-12-24 14:32:52.689911,204
2021-12-24 14:32:52.689921,90
2021-12-24 14:32:52.689930,13
2021-12-24 14:32:52.689940,-25
2021-12-24 14:32:52.689950,-58
2021-12-24 14:32:52.689959,-114
2021-12-24 14:32:52.689969,-197
2021-12-24 14:32:52.689978,-209
2021-12-24 14:32:52.689988,-114
2021-12-24 14:32:52.689997,-69
2021-12-24 14:32:52.690007,-111
2021-12-24 14:32:52.690033,-121
2021-12-24 14:32:52.690043,-111
2021-12-24 14:32:52.690052,-153
2021-12-24 14:32:52.690062,-200
2021-12-24 14:32:52.690071,-197
2021-12-24 14:32:52.690081,-174
2021-12-24 14:32:52.690091,-144
2021-12-24 14:32:52.690100,-125
2021-12-24 14:32:52.690109,-137
2021-12-24 14:32:52.690119,-130
2021-12-24 14:32:52.690128,-100
2021-12-24 14:32:52.912270,-83
2021-12-24 14:32:52.912287,-81
2021-12-24 14:32:52.912293,-86
2021-12-24 14:32:52.912299,-95
2021-12-24 14:32:52.912305,-86
2021-12-24 14:32:52.912310,-67
2021-12-24 14:32:52.912316,-55
2021-12-24 14:32:52.912321,-53
2021-12-24 14:32:52.912327,-65
2021-12-24 14:32:52.912332,-81
2021-12-24 14:32:52.912338,-72
2021-12-24 14:32:52.912343,-58
2021-12-24 14:32:52.912349,-67
2021-12-24 14:32:52.912359,-109
2021-12-24 14:32:52.912369,-155
2021-12-24 14:32:52.912376,-144
2021-12-24 14:32:52.912382,-97
2021-12-24 14:32:52.912387,-83
2021-12-24 14:32:52.912393,-72
2021-12-24 14:32:52.912398,-72
2021-12-24 14:32:52.912404,-111
2021-12-24 14:32:52.912409,-130
2021-12-24 14:32:52.912415,-104
2021-12-24 14:32:52.912420,-125
2021-12-24 14:32:52.912426,-174
2021-12-24 14:32:52.912431,-167
2021-12-24 14:32:52.912437,-144
2021-12-24 14:32:52.912442,-137
2021-12-24 14:32:52.912448,-102
2021-12-24 14:32:52.912453,-44
2021-12-24 14:32:53.183301,-32
2021-12-24 14:32:53.183323,-62
2021-12-24 14:32:53.183330,23
2021-12-24 14:32:53.183336,397
2021-12-24 14:32:53.183343,1005
2021-12-24 14:32:53.183349,1249
2021-12-24 14:32:53.183355,363
2021-12-24 14:32:53.183362,-875
2021-12-24 14:32:53.183368,-791
2021-12-24 14:32:53.183374,16
2021-12-24 14:32:53.183380,53
2021-12-24 14:32:53.183386,-132
2021-12-24 14:32:53.183392,46
2021-12-24 14:32:53.183399,81
2021-12-24 14:32:53.183405,-25
2021-12-24 14:32:53.183411,23
2021-12-24 14:32:53.183417,93
2021-12-24 14:32:53.183424,83
2021-12-24 14:32:53.183430,102
2021-12-24 14:32:53.183436,130
2021-12-24 14:32:53.183442,130
2021-12-24 14:32:53.183449,153
2021-12-24 14:32:53.183455,197
2021-12-24 14:32:53.183461,235
2021-12-24 14:32:53.183467,279
2021-12-24 14:32:53.183474,323
2021-12-24 14:32:53.183480,346
2021-12-24 14:32:53.183486,374
2021-12-24 14:32:53.183492,430
2021-12-24 14:32:53.183498,479
2021-12-24 14:32:53.319407,486
2021-12-24 14:32:53.319429,467
2021-12-24 14:32:53.319436,449
2021-12-24 14:32:53.319443,402
2021-12-24 14:32:53.319449,323
2021-12-24 14:32:53.319455,239
2021-12-24 14:32:53.319462,141
2021-12-24 14:32:53.319468,37
2021-12-24 14:32:53.319474,-25
2021-12-24 14:32:53.319481,-58
2021-12-24 14:32:53.319487,-88
2021-12-24 14:32:53.319493,-118
2021-12-24 14:32:53.319500,-151
2021-12-24 14:32:53.319506,-167
2021-12-24 14:32:53.319512,-160
2021-12-24 14:32:53.319519,-169
2021-12-24 14:32:53.319525,-193
2021-12-24 14:32:53.319531,-197
2021-12-24 14:32:53.319538,-225
2021-12-24 14:32:53.319544,-293
2021-12-24 14:32:53.319551,-330
2021-12-24 14:32:53.319557,-318
2021-12-24 14:32:53.319563,-293
2021-12-24 14:32:53.319570,-279
2021-12-24 14:32:53.319576,-276
2021-12-24 14:32:53.319582,-269
2021-12-24 14:32:53.319589,-253
2021-12-24 14:32:53.319595,-253
2021-12-24 14:32:53.319609,-265
2021-12-24 14:32:53.319616,-253
2021-12-24 14:32:53.544813,-237
2021-12-24 14:32:53.544833,-221
2021-12-24 14:32:53.544841,-200
2021-12-24 14:32:53.544848,-195
2021-12-24 14:32:53.544854,-195
2021-12-24 14:32:53.544860,-197
2021-12-24 14:32:53.544867,-218
2021-12-24 14:32:53.544873,-211
2021-12-24 14:32:53.544879,-160
2021-12-24 14:32:53.544886,-128
2021-12-24 14:32:53.544892,-123
2021-12-24 14:32:53.544898,-123
2021-12-24 14:32:53.544905,-134
2021-12-24 14:32:53.544911,-139
2021-12-24 14:32:53.544917,-125
2021-12-24 14:32:53.544924,-111
2021-12-24 14:32:53.544930,-102
2021-12-24 14:32:53.544936,-95
2021-12-24 14:32:53.544942,-88
2021-12-24 14:32:53.544949,-72
2021-12-24 14:32:53.544955,-60
2021-12-24 14:32:53.544961,-53
2021-12-24 14:32:53.544968,-37
2021-12-24 14:32:53.544974,-25
2021-12-24 14:32:53.544980,-44
2021-12-24 14:32:53.544987,-53
2021-12-24 14:32:53.544993,83
2021-12-24 14:32:53.545000,498
2021-12-24 14:32:53.545006,1063
2021-12-24 14:32:53.545012,1084
2021-12-24 14:32:53.769642,20
2021-12-24 14:32:53.769672,-944
2021-12-24 14:32:53.769683,-535
2021-12-24 14:32:53.769693,125
2021-12-24 14:32:53.769703,4
2021-12-24 14:32:53.769713,-111
2021-12-24 14:32:53.769723,55
2021-12-24 14:32:53.769732,74
2021-12-24 14:32:53.769742,34
2021-12-24 14:32:53.769751,90
2021-12-24 14:32:53.769761,109
2021-12-24 14:32:53.769770,74
2021-12-24 14:32:53.769780,83
2021-12-24 14:32:53.769789,132
2021-12-24 14:32:53.769799,155
2021-12-24 14:32:53.769808,172
2021-12-24 14:32:53.769818,202
2021-12-24 14:32:53.769827,232
2021-12-24 14:32:53.769837,272
2021-12-24 14:32:53.769847,332
2021-12-24 14:32:53.769856,386
2021-12-24 14:32:53.769866,428
2021-12-24 14:32:53.769875,465
2021-12-24 14:32:53.769885,488
2021-12-24 14:32:53.769894,498
2021-12-24 14:32:53.769904,472
2021-12-24 14:32:53.769914,393
2021-12-24 14:32:53.769923,311
2021-12-24 14:32:53.769933,237
2021-12-24 14:32:53.769943,144
2021-12-24 14:32:54.084011,60
2021-12-24 14:32:54.084035,-9
2021-12-24 14:32:54.084046,-88
2021-12-24 14:32:54.084057,-148
2021-12-24 14:32:54.084171,-188
2021-12-24 14:32:54.084181,-214
2021-12-24 14:32:54.084188,-204
2021-12-24 14:32:54.084194,-181
2021-12-24 14:32:54.084201,-176
2021-12-24 14:32:54.084207,-179
2021-12-24 14:32:54.084213,-190
2021-12-24 14:32:54.084219,-197
2021-12-24 14:32:54.084225,-172
2021-12-24 14:32:54.084232,-139
2021-12-24 14:32:54.084238,-128
2021-12-24 14:32:54.084244,-130
2021-12-24 14:32:54.084278,-128
2021-12-24 14:32:54.084314,-116
2021-12-24 14:32:54.084369,-95
2021-12-24 14:32:54.084388,-74
2021-12-24 14:32:54.084395,-62
2021-12-24 14:32:54.084401,-65
2021-12-24 14:32:54.084408,-65
2021-12-24 14:32:54.084414,-58
2021-12-24 14:32:54.084420,-65
2021-12-24 14:32:54.084426,-67
2021-12-24 14:32:54.084432,-55
2021-12-24 14:32:54.084438,-60
2021-12-24 14:32:54.084444,-88
2021-12-24 14:32:54.084453,-102
2021-12-24 14:32:54.219452,-100
2021-12-24 14:32:54.219473,-111
2021-12-24 14:32:54.219481,-134
2021-12-24 14:32:54.219487,-153
2021-12-24 14:32:54.219493,-162
2021-12-24 14:32:54.219500,-146
2021-12-24 14:32:54.219506,-109
2021-12-24 14:32:54.219512,-90
2021-12-24 14:32:54.219518,-90
2021-12-24 14:32:54.219525,-114
2021-12-24 14:32:54.219531,-148
2021-12-24 14:32:54.219537,-151
2021-12-24 14:32:54.219543,-125
2021-12-24 14:32:54.219550,-107
2021-12-24 14:32:54.219556,-104
2021-12-24 14:32:54.219563,-118
2021-12-24 14:32:54.219569,-128
2021-12-24 14:32:54.219575,-104
2021-12-24 14:32:54.219581,-81
2021-12-24 14:32:54.219588,-72
2021-12-24 14:32:54.219594,-67
2021-12-24 14:32:54.219600,-107
2021-12-24 14:32:54.219606,-151
2021-12-24 14:32:54.219613,-53
2021-12-24 14:32:54.219619,295
2021-12-24 14:32:54.219625,849
2021-12-24 14:32:54.219632,1063
2021-12-24 14:32:54.219638,223
2021-12-24 14:32:54.219645,-896
2021-12-24 14:32:54.219651,-763
2021-12-24 14:32:54.534755,-25
2021-12-24 14:32:54.534785,-37
2021-12-24 14:32:54.534796,-246
2021-12-24 14:32:54.534806,-109
2021-12-24 14:32:54.534815,-62
2021-12-24 14:32:54.534825,-123
2021-12-24 14:32:54.534834,-86
2021-12-24 14:32:54.534844,-32
2021-12-24 14:32:54.534853,-32
2021-12-24 14:32:54.534863,-97
2021-12-24 14:32:54.534872,-179
2021-12-24 14:32:54.534882,-139
2021-12-24 14:32:54.534891,9
2021-12-24 14:32:54.534901,128
2021-12-24 14:32:54.534911,155
2021-12-24 14:32:54.534920,155
2021-12-24 14:32:54.534930,207
2021-12-24 14:32:54.534939,286
2021-12-24 14:32:54.534949,293
2021-12-24 14:32:54.534958,253
2021-12-24 14:32:54.534968,300
2021-12-24 14:32:54.534978,384
2021-12-24 14:32:54.534987,407
2021-12-24 14:32:54.534997,425
2021-12-24 14:32:54.535006,423
2021-12-24 14:32:54.535016,339
2021-12-24 14:32:54.535025,223
2021-12-24 14:32:54.535035,130
2021-12-24 14:32:54.535044,83
2021-12-24 14:32:54.535054,53
2021-12-24 14:32:54.714350,2
2021-12-24 14:32:54.714379,-30
2021-12-24 14:32:54.714391,-44
2021-12-24 14:32:54.714401,-65
2021-12-24 14:32:54.714410,-74
2021-12-24 14:32:54.714420,-60
2021-12-24 14:32:54.714429,-44
2021-12-24 14:32:54.714439,-39
2021-12-24 14:32:54.714449,-48
2021-12-24 14:32:54.714458,-65
2021-12-24 14:32:54.714468,-65
2021-12-24 14:32:54.714477,-39
2021-12-24 14:32:54.714487,-4
2021-12-24 14:32:54.714497,-4
2021-12-24 14:32:54.714506,-37
2021-12-24 14:32:54.714516,-55
2021-12-24 14:32:54.714526,-41
2021-12-24 14:32:54.714535,-25
2021-12-24 14:32:54.714545,-4
2021-12-24 14:32:54.714555,-2
2021-12-24 14:32:54.714564,-55
2021-12-24 14:32:54.714574,-83
2021-12-24 14:32:54.714583,-32
2021-12-24 14:32:54.714593,13
2021-12-24 14:32:54.714602,2
2021-12-24 14:32:54.714612,-2
2021-12-24 14:32:54.714621,6
2021-12-24 14:32:54.714631,0
2021-12-24 14:32:54.714641,-2
2021-12-24 14:32:54.714650,13
2021-12-24 14:32:55.028019,18
2021-12-24 14:32:55.028050,13
2021-12-24 14:32:55.028061,20
2021-12-24 14:32:55.028071,37
2021-12-24 14:32:55.028081,58
2021-12-24 14:32:55.028091,65
2021-12-24 14:32:55.028100,32
2021-12-24 14:32:55.028110,-30
2021-12-24 14:32:55.028119,-74
2021-12-24 14:32:55.028129,-79
2021-12-24 14:32:55.028139,-88
2021-12-24 14:32:55.028149,-90
2021-12-24 14:32:55.028158,-76
2021-12-24 14:32:55.028168,-88
2021-12-24 14:32:55.028178,-114
2021-12-24 14:32:55.028187,-100
2021-12-24 14:32:55.028197,-81
2021-12-24 14:32:55.028206,-95
2021-12-24 14:32:55.028216,-104
2021-12-24 14:32:55.028225,-116
2021-12-24 14:32:55.028235,-58
2021-12-24 14:32:55.028245,242
2021-12-24 14:32:55.028255,784
2021-12-24 14:32:55.028265,996
2021-12-24 14:32:55.028274,146
2021-12-24 14:32:55.028284,-975
2021-12-24 14:32:55.028293,-830
2021-12-24 14:32:55.028303,-86
2021-12-24 14:32:55.028313,-79
2021-12-24 14:32:55.028322,-246
2021-12-24 14:32:55.209463,-69
2021-12-24 14:32:55.209484,-25
2021-12-24 14:32:55.209492,-104
2021-12-24 14:32:55.209499,-55
2021-12-24 14:32:55.209507,0
2021-12-24 14:32:55.209513,-6
2021-12-24 14:32:55.209519,-9
2021-12-24 14:32:55.209525,-6
2021-12-24 14:32:55.209532,2
2021-12-24 14:32:55.209538,34
2021-12-24 14:32:55.209544,69
2021-12-24 14:32:55.209550,104
2021-12-24 14:32:55.209557,130
2021-12-24 14:32:55.209563,160
2021-12-24 14:32:55.209569,216
2021-12-24 14:32:55.209575,274
2021-12-24 14:32:55.209582,318
2021-12-24 14:32:55.209588,349
2021-12-24 14:32:55.209594,339
2021-12-24 14:32:55.209600,304
2021-12-24 14:32:55.209606,290
2021-12-24 14:32:55.209612,265
2021-12-24 14:32:55.209619,195
2021-12-24 14:32:55.209629,114
2021-12-24 14:32:55.209635,39
2021-12-24 14:32:55.209642,-32
2021-12-24 14:32:55.209648,-81
2021-12-24 14:32:55.209654,-114
2021-12-24 14:32:55.209660,-134
2021-12-24 14:32:55.209666,-139
2021-12-24 14:32:55.388857,-146
2021-12-24 14:32:55.388876,-144
2021-12-24 14:32:55.388883,-132
2021-12-24 14:32:55.388890,-130
2021-12-24 14:32:55.388896,-123
2021-12-24 14:32:55.388902,-121
2021-12-24 14:32:55.388908,-139
2021-12-24 14:32:55.388915,-139
2021-12-24 14:32:55.388921,-114
2021-12-24 14:32:55.388927,-102
2021-12-24 14:32:55.388935,-97
2021-12-24 14:32:55.388945,-93
2021-12-24 14:32:55.389032,-123
2021-12-24 14:32:55.389046,-146
2021-12-24 14:32:55.389053,-146
2021-12-24 14:32:55.389059,-155
2021-12-24 14:32:55.389066,-148
2021-12-24 14:32:55.389072,-144
2021-12-24 14:32:55.389078,-165
2021-12-24 14:32:55.389084,-151
2021-12-24 14:32:55.389091,-125
2021-12-24 14:32:55.389097,-128
2021-12-24 14:32:55.389103,-121
2021-12-24 14:32:55.389109,-102
2021-12-24 14:32:55.389116,-95
2021-12-24 14:32:55.389122,-76
2021-12-24 14:32:55.389128,-58
2021-12-24 14:32:55.389134,-55
2021-12-24 14:32:55.389141,-53
2021-12-24 14:32:55.389181,-55
2021-12-24 14:32:55.658830,-65
2021-12-24 14:32:55.658852,-39
2021-12-24 14:32:55.658860,2
2021-12-24 14:32:55.658866,20
2021-12-24 14:32:55.658873,18
2021-12-24 14:32:55.658879,0
2021-12-24 14:32:55.658886,-20
2021-12-24 14:32:55.658892,-6
2021-12-24 14:32:55.658899,2
2021-12-24 14:32:55.658905,-6
2021-12-24 14:32:55.658911,-11
2021-12-24 14:32:55.658917,-25
2021-12-24 14:32:55.658924,-32
2021-12-24 14:32:55.658930,-9
2021-12-24 14:32:55.658936,2
2021-12-24 14:32:55.658943,-13
2021-12-24 14:32:55.658949,-34
2021-12-24 14:32:55.658955,-51
2021-12-24 14:32:55.658962,-58
2021-12-24 14:32:55.658968,-53
2021-12-24 14:32:55.658974,69
2021-12-24 14:32:55.658981,456
2021-12-24 14:32:55.658987,961
2021-12-24 14:32:55.658993,919
2021-12-24 14:32:55.659000,-76
2021-12-24 14:32:55.659006,-879
2021-12-24 14:32:55.659012,-428
2021-12-24 14:32:55.659019,153
2021-12-24 14:32:55.659025,11
2021-12-24 14:32:55.659031,-62
2021-12-24 14:32:55.884389,121
2021-12-24 14:32:55.884407,132
2021-12-24 14:32:55.884413,86
2021-12-24 14:32:55.884418,128
2021-12-24 14:32:55.884423,130
2021-12-24 14:32:55.884428,88
2021-12-24 14:32:55.884433,93
2021-12-24 14:32:55.884438,121
2021-12-24 14:32:55.884446,132
2021-12-24 14:32:55.884454,137
2021-12-24 14:32:55.884461,125
2021-12-24 14:32:55.884469,114
2021-12-24 14:32:55.884477,146
2021-12-24 14:32:55.884486,188
2021-12-24 14:32:55.884494,209
2021-12-24 14:32:55.884503,244
2021-12-24 14:32:55.884512,258
2021-12-24 14:32:55.884520,228
2021-12-24 14:32:55.884528,183
2021-12-24 14:32:55.884536,158
2021-12-24 14:32:55.884544,141
2021-12-24 14:32:55.884720,86
2021-12-24 14:32:55.884728,2
2021-12-24 14:32:55.884733,-65
2021-12-24 14:32:55.884738,-111
2021-12-24 14:32:55.884743,-165
2021-12-24 14:32:55.884748,-216
2021-12-24 14:32:55.884753,-258
2021-12-24 14:32:55.884758,-279
2021-12-24 14:32:55.884763,-272
2021-12-24 14:32:56.064741,-256
2021-12-24 14:32:56.064762,-239
2021-12-24 14:32:56.064770,-235
2021-12-24 14:32:56.064778,-256
2021-12-24 14:32:56.064785,-279
2021-12-24 14:32:56.064791,-251
2021-12-24 14:32:56.064798,-207
2021-12-24 14:32:56.064804,-188
2021-12-24 14:32:56.064810,-181
2021-12-24 14:32:56.064844,-188
2021-12-24 14:32:56.064866,-195
2021-12-24 14:32:56.064874,-169
2021-12-24 14:32:56.064881,-137
2021-12-24 14:32:56.064887,-118
2021-12-24 14:32:56.064894,-121
2021-12-24 14:32:56.064900,-146
2021-12-24 14:32:56.064906,-160
2021-12-24 14:32:56.064912,-132
2021-12-24 14:32:56.064918,-102
2021-12-24 14:32:56.064924,-100
2021-12-24 14:32:56.064931,-125
2021-12-24 14:32:56.064937,-158
2021-12-24 14:32:56.064943,-155
2021-12-24 14:32:56.064949,-121
2021-12-24 14:32:56.064956,-104
2021-12-24 14:32:56.064962,-88
2021-12-24 14:32:56.064982,-74
2021-12-24 14:32:56.064995,-88
2021-12-24 14:32:56.065004,-86
2021-12-24 14:32:56.065016,-51
2021-12-24 14:32:56.334323,-32
2021-12-24 14:32:56.334344,-32
2021-12-24 14:32:56.334352,-41
2021-12-24 14:32:56.334358,-81
2021-12-24 14:32:56.334365,-95
2021-12-24 14:32:56.334371,-39
2021-12-24 14:32:56.334378,9
2021-12-24 14:32:56.334384,18
2021-12-24 14:32:56.334391,6
2021-12-24 14:32:56.334397,-20
2021-12-24 14:32:56.334403,-32
2021-12-24 14:32:56.334410,-13
2021-12-24 14:32:56.334416,-2
2021-12-24 14:32:56.334424,4
2021-12-24 14:32:56.334430,6
2021-12-24 14:32:56.334436,-9
2021-12-24 14:32:56.334443,-6
2021-12-24 14:32:56.334449,18
2021-12-24 14:32:56.334455,32
2021-12-24 14:32:56.334461,37
2021-12-24 14:32:56.334468,39
2021-12-24 14:32:56.334474,9
2021-12-24 14:32:56.334480,-41
2021-12-24 14:32:56.334487,-6
2021-12-24 14:32:56.334493,269
2021-12-24 14:32:56.334499,765
2021-12-24 14:32:56.334505,898
2021-12-24 14:32:56.334512,79
2021-12-24 14:32:56.334518,-847
2021-12-24 14:32:56.334524,-598
2021-12-24 14:32:56.559390,76
2021-12-24 14:32:56.559410,37
2021-12-24 14:32:56.559417,-121
2021-12-24 14:32:56.559424,27
2021-12-24 14:32:56.559430,72
2021-12-24 14:32:56.559436,23
2021-12-24 14:32:56.559443,51
2021-12-24 14:32:56.559449,62
2021-12-24 14:32:56.559455,23
2021-12-24 14:32:56.559461,9
2021-12-24 14:32:56.559468,30
2021-12-24 14:32:56.559474,41
2021-12-24 14:32:56.559480,55
2021-12-24 14:32:56.559486,60
2021-12-24 14:32:56.559493,37
2021-12-24 14:32:56.559499,41
2021-12-24 14:32:56.559505,104
2021-12-24 14:32:56.559511,167
2021-12-24 14:32:56.559517,214
2021-12-24 14:32:56.559524,260
2021-12-24 14:32:56.559530,281
2021-12-24 14:32:56.559548,279
2021-12-24 14:32:56.559554,288
2021-12-24 14:32:56.559560,286
2021-12-24 14:32:56.559566,228
2021-12-24 14:32:56.559572,128
2021-12-24 14:32:56.559579,37
2021-12-24 14:32:56.559585,-41
2021-12-24 14:32:56.559591,-109
2021-12-24 14:32:56.559597,-155
2021-12-24 14:32:56.829196,-188
2021-12-24 14:32:56.829226,-218
2021-12-24 14:32:56.829237,-246
2021-12-24 14:32:56.829247,-256
2021-12-24 14:32:56.829257,-242
2021-12-24 14:32:56.829266,-225
2021-12-24 14:32:56.829276,-218
2021-12-24 14:32:56.829285,-228
2021-12-24 14:32:56.829295,-242
2021-12-24 14:32:56.829305,-225
2021-12-24 14:32:56.829314,-200
2021-12-24 14:32:56.829324,-183
2021-12-24 14:32:56.829334,-174
2021-12-24 14:32:56.829343,-188
2021-12-24 14:32:56.829353,-200
2021-12-24 14:32:56.829363,-181
2021-12-24 14:32:56.829372,-162
2021-12-24 14:32:56.829382,-148
2021-12-24 14:32:56.829392,-128
2021-12-24 14:32:56.829401,-121
2021-12-24 14:32:56.829411,-121
2021-12-24 14:32:56.829421,-104
2021-12-24 14:32:56.829430,-88
2021-12-24 14:32:56.829440,-74
2021-12-24 14:32:56.829450,-62
2021-12-24 14:32:56.829459,-65
2021-12-24 14:32:56.829469,-83
2021-12-24 14:32:56.829479,-102
2021-12-24 14:32:56.829488,-111
2021-12-24 14:32:56.829498,-141
2021-12-24 14:32:57.187844,-176
2021-12-24 14:32:57.187864,-158
2021-12-24 14:32:57.187872,-114
2021-12-24 14:32:57.187879,-93
2021-12-24 14:32:57.187885,-76
2021-12-24 14:32:57.187891,-53
2021-12-24 14:32:57.187898,-53
2021-12-24 14:32:57.187980,-76
2021-12-24 14:32:57.187998,-74
2021-12-24 14:32:57.188006,-55
2021-12-24 14:32:57.188013,-39
2021-12-24 14:32:57.188023,-25
2021-12-24 14:32:57.188034,-34
2021-12-24 14:32:57.188041,-55
2021-12-24 14:32:57.188047,-46
2021-12-24 14:32:57.188054,-25
2021-12-24 14:32:57.188060,-18
2021-12-24 14:32:57.188066,-6
2021-12-24 14:32:57.188072,-25
2021-12-24 14:32:57.188078,-46
2021-12-24 14:32:57.188085,116
2021-12-24 14:32:57.188091,560
2021-12-24 14:32:57.188097,1056
2021-12-24 14:32:57.188103,865
2021-12-24 14:32:57.188110,-276
2021-12-24 14:32:57.188116,-958
2021-12-24 14:32:57.188122,-351
2021-12-24 14:32:57.188128,155
2021-12-24 14:32:57.188138,-23
2021-12-24 14:32:57.188146,-39
2021-12-24 14:32:57.323172,121
2021-12-24 14:32:57.323193,88
2021-12-24 14:32:57.323200,60
2021-12-24 14:32:57.323207,109
2021-12-24 14:32:57.323213,100
2021-12-24 14:32:57.323219,86
2021-12-24 14:32:57.323226,118
2021-12-24 14:32:57.323232,139
2021-12-24 14:32:57.323238,134
2021-12-24 14:32:57.323244,139
2021-12-24 14:32:57.323250,162
2021-12-24 14:32:57.323256,167
2021-12-24 14:32:57.323263,146
2021-12-24 14:32:57.323269,172
2021-12-24 14:32:57.323275,239
2021-12-24 14:32:57.323281,274
2021-12-24 14:32:57.323287,295
2021-12-24 14:32:57.323297,311
2021-12-24 14:32:57.323304,288
2021-12-24 14:32:57.323310,263
2021-12-24 14:32:57.323316,249
2021-12-24 14:32:57.323322,186
2021-12-24 14:32:57.323328,102
2021-12-24 14:32:57.323335,30
2021-12-24 14:32:57.323341,-44
2021-12-24 14:32:57.323347,-102
2021-12-24 14:32:57.323354,-134
2021-12-24 14:32:57.323360,-160
2021-12-24 14:32:57.323366,-172
2021-12-24 14:32:57.323372,-167
2021-12-24 14:32:57.459815,-169
2021-12-24 14:32:57.459853,-179
2021-12-24 14:32:57.459865,-174
2021-12-24 14:32:57.459875,-176
2021-12-24 14:32:57.459884,-207
2021-12-24 14:32:57.459894,-249
2021-12-24 14:32:57.459903,-258
2021-12-24 14:32:57.459913,-214
2021-12-24 14:32:57.459922,-188
2021-12-24 14:32:57.459932,-186
2021-12-24 14:32:57.459941,-167
2021-12-24 14:32:57.459951,-144
2021-12-24 14:32:57.459960,-128
2021-12-24 14:32:57.459970,-109
2021-12-24 14:32:57.459979,-100
2021-12-24 14:32:57.459989,-97
2021-12-24 14:32:57.459998,-95
2021-12-24 14:32:57.460007,-111
2021-12-24 14:32:57.460017,-121
2021-12-24 14:32:57.460026,-97
2021-12-24 14:32:57.460036,-81
2021-12-24 14:32:57.460045,-79
2021-12-24 14:32:57.460055,-74
2021-12-24 14:32:57.460064,-81
2021-12-24 14:32:57.460073,-86
2021-12-24 14:32:57.460083,-67
2021-12-24 14:32:57.460092,-51
2021-12-24 14:32:57.460102,-39
2021-12-24 14:32:57.460111,-18
2021-12-24 14:32:57.460122,0
2021-12-24 14:32:57.729366,13
2021-12-24 14:32:57.729396,30
2021-12-24 14:32:57.729407,16
2021-12-24 14:32:57.729417,-30
2021-12-24 14:32:57.729427,-65
2021-12-24 14:32:57.729436,-74
2021-12-24 14:32:57.729446,-60
2021-12-24 14:32:57.729455,-27
2021-12-24 14:32:57.729465,-11
2021-12-24 14:32:57.729475,-18
2021-12-24 14:32:57.729484,-37
2021-12-24 14:32:57.729494,-51
2021-12-24 14:32:57.729503,-37
2021-12-24 14:32:57.729513,-25
2021-12-24 14:32:57.729523,-39
2021-12-24 14:32:57.729532,13
2021-12-24 14:32:57.729542,307
2021-12-24 14:32:57.729552,833
2021-12-24 14:32:57.729561,1059
2021-12-24 14:32:57.729571,300
2021-12-24 14:32:57.729580,-761
2021-12-24 14:32:57.729590,-663
2021-12-24 14:32:57.729599,58
2021-12-24 14:32:57.729609,90
2021-12-24 14:32:57.729619,-74
2021-12-24 14:32:57.729629,97
2021-12-24 14:32:57.729638,151
2021-12-24 14:32:57.729648,51
2021-12-24 14:32:57.729657,62
2021-12-24 14:32:57.729667,109
2021-12-24 14:32:57.954941,111
2021-12-24 14:32:57.954971,118
2021-12-24 14:32:57.954982,123
2021-12-24 14:32:57.954992,109
2021-12-24 14:32:57.955002,102
2021-12-24 14:32:57.955012,93
2021-12-24 14:32:57.955021,104
2021-12-24 14:32:57.955030,158
2021-12-24 14:32:57.955040,202
2021-12-24 14:32:57.955049,209
2021-12-24 14:32:57.955059,202
2021-12-24 14:32:57.955068,202
2021-12-24 14:32:57.955077,225
2021-12-24 14:32:57.955087,246
2021-12-24 14:32:57.955096,230
2021-12-24 14:32:57.955106,195
2021-12-24 14:32:57.955115,158
2021-12-24 14:32:57.955124,90
2021-12-24 14:32:57.955134,-6
2021-12-24 14:32:57.955144,-62
2021-12-24 14:32:57.955153,-95
2021-12-24 14:32:57.955162,-186
2021-12-24 14:32:57.955172,-246
2021-12-24 14:32:57.955181,-209
2021-12-24 14:32:57.955191,-195
2021-12-24 14:32:57.955200,-216
2021-12-24 14:32:57.955210,-195
2021-12-24 14:32:57.955219,-179
2021-12-24 14:32:57.955228,-188
2021-12-24 14:32:57.955238,-167
2021-12-24 14:32:58.224470,-144
2021-12-24 14:32:58.224492,-137
2021-12-24 14:32:58.224500,-144
2021-12-24 14:32:58.224506,-169
2021-12-24 14:32:58.224513,-176
2021-12-24 14:32:58.224519,-144
2021-12-24 14:32:58.224526,-139
2021-12-24 14:32:58.224532,-162
2021-12-24 14:32:58.224538,-139
2021-12-24 14:32:58.224544,-111
2021-12-24 14:32:58.224551,-121
2021-12-24 14:32:58.224557,-88
2021-12-24 14:32:58.224563,-27
2021-12-24 14:32:58.224569,-32
2021-12-24 14:32:58.224576,-62
2021-12-24 14:32:58.224582,-67
2021-12-24 14:32:58.224588,-72
2021-12-24 14:32:58.224594,-51
2021-12-24 14:32:58.224601,-23
2021-12-24 14:32:58.224607,-18
2021-12-24 14:32:58.224613,-18
2021-12-24 14:32:58.224620,-11
2021-12-24 14:32:58.224626,13
2021-12-24 14:32:58.224632,48
2021-12-24 14:32:58.224638,72
2021-12-24 14:32:58.224645,67
2021-12-24 14:32:58.224652,51
2021-12-24 14:32:58.224658,41
2021-12-24 14:32:58.224664,41
2021-12-24 14:32:58.224670,53
2021-12-24 14:32:58.404441,74
2021-12-24 14:32:58.404462,83
2021-12-24 14:32:58.404469,65
2021-12-24 14:32:58.404476,51
2021-12-24 14:32:58.404482,69
2021-12-24 14:32:58.404488,81
2021-12-24 14:32:58.404494,79
2021-12-24 14:32:58.404500,93
2021-12-24 14:32:58.404507,83
2021-12-24 14:32:58.404513,44
2021-12-24 14:32:58.404519,114
2021-12-24 14:32:58.404525,374
2021-12-24 14:32:58.404531,728
2021-12-24 14:32:58.404537,805
2021-12-24 14:32:58.404544,121
2021-12-24 14:32:58.404550,-740
2021-12-24 14:32:58.404556,-602
2021-12-24 14:32:58.404562,-6
2021-12-24 14:32:58.404568,0
2021-12-24 14:32:58.404575,-114
2021-12-24 14:32:58.404581,16
2021-12-24 14:32:58.404587,25
2021-12-24 14:32:58.404593,-2
2021-12-24 14:32:58.404600,74
2021-12-24 14:32:58.404606,81
2021-12-24 14:32:58.404612,23
2021-12-24 14:32:58.404618,13
2021-12-24 14:32:58.404625,39
2021-12-24 14:32:58.404631,83
2021-12-24 14:32:58.404637,128
2021-12-24 14:32:58.674443,130
2021-12-24 14:32:58.674466,134
2021-12-24 14:32:58.674473,158
2021-12-24 14:32:58.674480,176
2021-12-24 14:32:58.674487,207
2021-12-24 14:32:58.674493,253
2021-12-24 14:32:58.674499,274
2021-12-24 14:32:58.674505,258
2021-12-24 14:32:58.674512,239
2021-12-24 14:32:58.674518,244
2021-12-24 14:32:58.674524,218
2021-12-24 14:32:58.674530,144
2021-12-24 14:32:58.674536,76
2021-12-24 14:32:58.674543,18
2021-12-24 14:32:58.674549,-53
2021-12-24 14:32:58.674555,-118
2021-12-24 14:32:58.674561,-137
2021-12-24 14:32:58.674567,-172
2021-12-24 14:32:58.674574,-218
2021-12-24 14:32:58.674580,-202
2021-12-24 14:32:58.674586,-186
2021-12-24 14:32:58.674592,-204
2021-12-24 14:32:58.674598,-190
2021-12-24 14:32:58.674604,-162
2021-12-24 14:32:58.674610,-158
2021-12-24 14:32:58.674617,-155
2021-12-24 14:32:58.674623,-139
2021-12-24 14:32:58.674629,-128
2021-12-24 14:32:58.674635,-114
2021-12-24 14:32:58.674641,-95
2021-12-24 14:32:58.899363,-88
2021-12-24 14:32:58.899393,-86
2021-12-24 14:32:58.899405,-81
2021-12-24 14:32:58.899415,-81
2021-12-24 14:32:58.899424,-62
2021-12-24 14:32:58.899434,-25
2021-12-24 14:32:58.899443,-37
2021-12-24 14:32:58.899453,-79
2021-12-24 14:32:58.899462,-74
2021-12-24 14:32:58.899472,-53
2021-12-24 14:32:58.899481,-67
2021-12-24 14:32:58.899491,-60
2021-12-24 14:32:58.899501,-46
2021-12-24 14:32:58.899510,-72
2021-12-24 14:32:58.899520,-83
2021-12-24 14:32:58.899529,-32
2021-12-24 14:32:58.899539,25
2021-12-24 14:32:58.899548,39
2021-12-24 14:32:58.899558,6
2021-12-24 14:32:58.899567,-37
2021-12-24 14:32:58.899577,-41
2021-12-24 14:32:58.899587,-48
2021-12-24 14:32:58.899596,-95
2021-12-24 14:32:58.899605,-104
2021-12-24 14:32:58.899615,-83
2021-12-24 14:32:58.899625,-83
2021-12-24 14:32:58.899634,-90
2021-12-24 14:32:58.899644,-76
2021-12-24 14:32:58.899653,-58
2021-12-24 14:32:58.899663,-44
2021-12-24 14:32:59.212849,-39
2021-12-24 14:32:59.212879,-37
2021-12-24 14:32:59.212890,-32
2021-12-24 14:32:59.212900,30
2021-12-24 14:32:59.212909,267
2021-12-24 14:32:59.212918,609
2021-12-24 14:32:59.212928,593
2021-12-24 14:32:59.212937,-128
2021-12-24 14:32:59.212947,-805
2021-12-24 14:32:59.212956,-532
2021-12-24 14:32:59.212966,16
2021-12-24 14:32:59.212975,4
2021-12-24 14:32:59.212984,-97
2021-12-24 14:32:59.212994,30
2021-12-24 14:32:59.213003,51
2021-12-24 14:32:59.213012,-25
2021-12-24 14:32:59.213022,4
2021-12-24 14:32:59.213031,34
2021-12-24 14:32:59.213041,-2
2021-12-24 14:32:59.213050,18
2021-12-24 14:32:59.213060,72
2021-12-24 14:32:59.213069,65
2021-12-24 14:32:59.213078,53
2021-12-24 14:32:59.213088,93
2021-12-24 14:32:59.213097,128
2021-12-24 14:32:59.213106,151
2021-12-24 14:32:59.213116,176
2021-12-24 14:32:59.213125,195
2021-12-24 14:32:59.213135,218
2021-12-24 14:32:59.213144,230
2021-12-24 14:32:59.304364,228
2021-12-24 14:32:59.304385,237
2021-12-24 14:32:59.304392,230
2021-12-24 14:32:59.304399,195
2021-12-24 14:32:59.304405,144
2021-12-24 14:32:59.304412,58
2021-12-24 14:32:59.304418,-37
2021-12-24 14:32:59.304424,-86
2021-12-24 14:32:59.304430,-121
2021-12-24 14:32:59.304436,-172
2021-12-24 14:32:59.304442,-204
2021-12-24 14:32:59.304448,-239
2021-12-24 14:32:59.304455,-286
2021-12-24 14:32:59.304461,-279
2021-12-24 14:32:59.304467,-242
2021-12-24 14:32:59.304473,-230
2021-12-24 14:32:59.304479,-246
2021-12-24 14:32:59.304485,-274
2021-12-24 14:32:59.304492,-249
2021-12-24 14:32:59.304498,-186
2021-12-24 14:32:59.304504,-167
2021-12-24 14:32:59.304510,-167
2021-12-24 14:32:59.304516,-153
2021-12-24 14:32:59.304522,-148
2021-12-24 14:32:59.304528,-141
2021-12-24 14:32:59.304534,-116
2021-12-24 14:32:59.304541,-116
2021-12-24 14:32:59.304547,-160
2021-12-24 14:32:59.304553,-193
2021-12-24 14:32:59.304559,-176
2021-12-24 14:32:59.574793,-139
2021-12-24 14:32:59.574823,-114
2021-12-24 14:32:59.574835,-111
2021-12-24 14:32:59.574845,-123
2021-12-24 14:32:59.574855,-146
2021-12-24 14:32:59.574864,-181
2021-12-24 14:32:59.574873,-158
2021-12-24 14:32:59.574883,-93
2021-12-24 14:32:59.574892,-76
2021-12-24 14:32:59.574902,-81
2021-12-24 14:32:59.574911,-74
2021-12-24 14:32:59.574921,-90
2021-12-24 14:32:59.574930,-97
2021-12-24 14:32:59.574940,-81
2021-12-24 14:32:59.574954,-79
2021-12-24 14:32:59.574964,-79
2021-12-24 14:32:59.574973,-67
2021-12-24 14:32:59.574982,-65
2021-12-24 14:32:59.574992,-62
2021-12-24 14:32:59.575001,-60
2021-12-24 14:32:59.575011,-69
2021-12-24 14:32:59.575020,-65
2021-12-24 14:32:59.575030,-53
2021-12-24 14:32:59.575039,-48
2021-12-24 14:32:59.575049,-34
2021-12-24 14:32:59.575058,62
2021-12-24 14:32:59.575068,323
2021-12-24 14:32:59.575077,670
2021-12-24 14:32:59.575087,661
2021-12-24 14:32:59.575096,-44
2021-12-24 14:32:59.844375,-705
2021-12-24 14:32:59.844404,-416
2021-12-24 14:32:59.844416,118
2021-12-24 14:32:59.844426,62
2021-12-24 14:32:59.844436,-39
2021-12-24 14:32:59.844446,107
2021-12-24 14:32:59.844455,137
2021-12-24 14:32:59.844465,95
2021-12-24 14:32:59.844475,144
2021-12-24 14:32:59.844484,146
2021-12-24 14:32:59.844494,97
2021-12-24 14:32:59.844503,121
2021-12-24 14:32:59.844513,162
2021-12-24 14:32:59.844523,176
2021-12-24 14:32:59.844532,207
2021-12-24 14:32:59.844542,209
2021-12-24 14:32:59.844552,179
2021-12-24 14:32:59.844561,221
2021-12-24 14:32:59.844571,300
2021-12-24 14:32:59.844581,337
2021-12-24 14:32:59.844590,346
2021-12-24 14:32:59.844600,325
2021-12-24 14:32:59.844609,295
2021-12-24 14:32:59.844619,314
2021-12-24 14:32:59.844628,335
2021-12-24 14:32:59.844638,293
2021-12-24 14:32:59.844647,207
2021-12-24 14:32:59.844657,123
2021-12-24 14:32:59.844666,37
2021-12-24 14:32:59.844676,-39
2021-12-24 14:33:00.113226,-81
2021-12-24 14:33:00.113246,-114
2021-12-24 14:33:00.113253,-176
2021-12-24 14:33:00.113260,-253
2021-12-24 14:33:00.113266,-286
2021-12-24 14:33:00.113272,-260
2021-12-24 14:33:00.113279,-251
2021-12-24 14:33:00.113285,-253
2021-12-24 14:33:00.113291,-237
2021-12-24 14:33:00.113297,-251
2021-12-24 14:33:00.113304,-260
2021-12-24 14:33:00.113310,-204
2021-12-24 14:33:00.113316,-167
2021-12-24 14:33:00.113323,-179
2021-12-24 14:33:00.113329,-193
2021-12-24 14:33:00.113335,-202
2021-12-24 14:33:00.113342,-207
2021-12-24 14:33:00.113348,-183
2021-12-24 14:33:00.113354,-153
2021-12-24 14:33:00.113361,-139
2021-12-24 14:33:00.113367,-158
2021-12-24 14:33:00.113373,-186
2021-12-24 14:33:00.113379,-181
2021-12-24 14:33:00.113385,-167
2021-12-24 14:33:00.113392,-188
2021-12-24 14:33:00.113398,-190
2021-12-24 14:33:00.113404,-167
2021-12-24 14:33:00.113411,-174
2021-12-24 14:33:00.113417,-155
2021-12-24 14:33:00.113423,-90
2021-12-24 14:33:00.339599,-62
2021-12-24 14:33:00.339649,-72
2021-12-24 14:33:00.339659,-76
2021-12-24 14:33:00.339666,-83
2021-12-24 14:33:00.339672,-76
2021-12-24 14:33:00.339679,-53
2021-12-24 14:33:00.339685,-48
2021-12-24 14:33:00.339691,-48
2021-12-24 14:33:00.339697,-44
2021-12-24 14:33:00.339704,-34
2021-12-24 14:33:00.339710,-23
2021-12-24 14:33:00.339716,-9
2021-12-24 14:33:00.339723,4
2021-12-24 14:33:00.339729,16
2021-12-24 14:33:00.339735,-9
2021-12-24 14:33:00.339741,-58
2021-12-24 14:33:00.339747,4
2021-12-24 14:33:00.339754,246
2021-12-24 14:33:00.339760,588
2021-12-24 14:33:00.339766,693
2021-12-24 14:33:00.339772,137
2021-12-24 14:33:00.339778,-614
2021-12-24 14:33:00.339785,-523
2021-12-24 14:33:00.339791,39
2021-12-24 14:33:00.339797,76
2021-12-24 14:33:00.339803,-93
2021-12-24 14:33:00.339810,-4
2021-12-24 14:33:00.339816,48
2021-12-24 14:33:00.339822,4
2021-12-24 14:33:00.339828,46
2021-12-24 14:33:00.473818,97
2021-12-24 14:33:00.473838,86
2021-12-24 14:33:00.473846,81
2021-12-24 14:33:00.473853,100
2021-12-24 14:33:00.473859,125
2021-12-24 14:33:00.473865,155
2021-12-24 14:33:00.473871,183
2021-12-24 14:33:00.473878,209
2021-12-24 14:33:00.473884,216
2021-12-24 14:33:00.473890,200
2021-12-24 14:33:00.473896,225
2021-12-24 14:33:00.473903,288
2021-12-24 14:33:00.473909,314
2021-12-24 14:33:00.473915,302
2021-12-24 14:33:00.473921,288
2021-12-24 14:33:00.473927,286
2021-12-24 14:33:00.473934,276
2021-12-24 14:33:00.473940,260
2021-12-24 14:33:00.473946,221
2021-12-24 14:33:00.473952,141
2021-12-24 14:33:00.473959,83
2021-12-24 14:33:00.473965,51
2021-12-24 14:33:00.473971,4
2021-12-24 14:33:00.473989,-34
2021-12-24 14:33:00.473996,-67
2021-12-24 14:33:00.474003,-125
2021-12-24 14:33:00.474009,-183
2021-12-24 14:33:00.474016,-202
2021-12-24 14:33:00.474022,-193
2021-12-24 14:33:00.474028,-195
2021-12-24 14:33:00.699345,-209
2021-12-24 14:33:00.699375,-230
2021-12-24 14:33:00.699387,-251
2021-12-24 14:33:00.699397,-244
2021-12-24 14:33:00.699407,-221
2021-12-24 14:33:00.699417,-214
2021-12-24 14:33:00.699426,-225
2021-12-24 14:33:00.699436,-246
2021-12-24 14:33:00.699446,-251
2021-12-24 14:33:00.699456,-230
2021-12-24 14:33:00.699465,-204
2021-12-24 14:33:00.699475,-193
2021-12-24 14:33:00.699485,-207
2021-12-24 14:33:00.699494,-225
2021-12-24 14:33:00.699504,-218
2021-12-24 14:33:00.699514,-195
2021-12-24 14:33:00.699524,-183
2021-12-24 14:33:00.699533,-183
2021-12-24 14:33:00.699543,-190
2021-12-24 14:33:00.699553,-183
2021-12-24 14:33:00.699563,-153
2021-12-24 14:33:00.699572,-123
2021-12-24 14:33:00.699582,-97
2021-12-24 14:33:00.699591,-79
2021-12-24 14:33:00.699601,-72
2021-12-24 14:33:00.699611,-69
2021-12-24 14:33:00.699621,-72
2021-12-24 14:33:00.699630,-81
2021-12-24 14:33:00.699640,-86
2021-12-24 14:33:00.699650,-100
2021-12-24 14:33:00.969391,-104
2021-12-24 14:33:00.969421,-86
2021-12-24 14:33:00.969433,-72
2021-12-24 14:33:00.969443,-83
2021-12-24 14:33:00.969453,-81
2021-12-24 14:33:00.969463,-55
2021-12-24 14:33:00.969472,-58
2021-12-24 14:33:00.969482,-76
2021-12-24 14:33:00.969492,-37
2021-12-24 14:33:00.969501,104
2021-12-24 14:33:00.969511,395
2021-12-24 14:33:00.969520,605
2021-12-24 14:33:00.969530,228
2021-12-24 14:33:00.969540,-579
2021-12-24 14:33:00.969549,-770
2021-12-24 14:33:00.969559,-228
2021-12-24 14:33:00.969569,-2
2021-12-24 14:33:00.969578,-155
2021-12-24 14:33:00.969588,-97
2021-12-24 14:33:00.969597,0
2021-12-24 14:33:00.969607,-39
2021-12-24 14:33:00.969617,-32
2021-12-24 14:33:00.969626,18
2021-12-24 14:33:00.969636,20
2021-12-24 14:33:00.969645,32
2021-12-24 14:33:00.969655,79
2021-12-24 14:33:00.969665,97
2021-12-24 14:33:00.969674,97
2021-12-24 14:33:00.969684,130
2021-12-24 14:33:00.969694,169
2021-12-24 14:33:01.193011,176
2021-12-24 14:33:01.193031,176
2021-12-24 14:33:01.193039,193
2021-12-24 14:33:01.193045,218
2021-12-24 14:33:01.193051,249
2021-12-24 14:33:01.193058,253
2021-12-24 14:33:01.193064,244
2021-12-24 14:33:01.193070,251
2021-12-24 14:33:01.193076,249
2021-12-24 14:33:01.193083,209
2021-12-24 14:33:01.193089,148
2021-12-24 14:33:01.193095,69
2021-12-24 14:33:01.193102,-9
2021-12-24 14:33:01.193108,-58
2021-12-24 14:33:01.193114,-102
2021-12-24 14:33:01.193121,-155
2021-12-24 14:33:01.193127,-193
2021-12-24 14:33:01.193134,-204
2021-12-24 14:33:01.193140,-193
2021-12-24 14:33:01.193146,-186
2021-12-24 14:33:01.193152,-190
2021-12-24 14:33:01.193158,-207
2021-12-24 14:33:01.193165,-218
2021-12-24 14:33:01.193171,-211
2021-12-24 14:33:01.193177,-202
2021-12-24 14:33:01.193183,-195
2021-12-24 14:33:01.193189,-202
2021-12-24 14:33:01.193196,-221
2021-12-24 14:33:01.193202,-232
2021-12-24 14:33:01.193208,-237
2021-12-24 14:33:01.374187,-235
2021-12-24 14:33:01.374207,-218
2021-12-24 14:33:01.374215,-218
2021-12-24 14:33:01.374222,-253
2021-12-24 14:33:01.374228,-297
2021-12-24 14:33:01.374234,-316
2021-12-24 14:33:01.374241,-309
2021-12-24 14:33:01.374247,-295
2021-12-24 14:33:01.374253,-263
2021-12-24 14:33:01.374260,-249
2021-12-24 14:33:01.374266,-293
2021-12-24 14:33:01.374272,-311
2021-12-24 14:33:01.374279,-267
2021-12-24 14:33:01.374285,-244
2021-12-24 14:33:01.374292,-235
2021-12-24 14:33:01.374298,-197
2021-12-24 14:33:01.374304,-174
2021-12-24 14:33:01.374311,-174
2021-12-24 14:33:01.374318,-165
2021-12-24 14:33:01.374324,-183
2021-12-24 14:33:01.374331,-246
2021-12-24 14:33:01.374337,-269
2021-12-24 14:33:01.374343,-235
2021-12-24 14:33:01.374350,-211
2021-12-24 14:33:01.374356,-193
2021-12-24 14:33:01.374363,-162
2021-12-24 14:33:01.374369,-153
2021-12-24 14:33:01.374375,-160
2021-12-24 14:33:01.374381,-155
2021-12-24 14:33:01.374388,-137
2021-12-24 14:33:01.599357,-169
2021-12-24 14:33:01.599386,-239
2021-12-24 14:33:01.599398,-139
2021-12-24 14:33:01.599408,246
2021-12-24 14:33:01.599418,751
2021-12-24 14:33:01.599428,756
2021-12-24 14:33:01.599438,-214
2021-12-24 14:33:01.599448,-1077
2021-12-24 14:33:01.599458,-684
2021-12-24 14:33:01.599468,-65
2021-12-24 14:33:01.599477,-158
2021-12-24 14:33:01.599487,-235
2021-12-24 14:33:01.599497,-32
2021-12-24 14:33:01.599507,6
2021-12-24 14:33:01.599516,-34
2021-12-24 14:33:01.599526,0
2021-12-24 14:33:01.599536,16
2021-12-24 14:33:01.599546,20
2021-12-24 14:33:01.599555,60
2021-12-24 14:33:01.599565,88
2021-12-24 14:33:01.599575,97
2021-12-24 14:33:01.599585,109
2021-12-24 14:33:01.599594,146
2021-12-24 14:33:01.599604,197
2021-12-24 14:33:01.599614,228
2021-12-24 14:33:01.599624,276
2021-12-24 14:33:01.599633,337
2021-12-24 14:33:01.599643,365
2021-12-24 14:33:01.599653,379
2021-12-24 14:33:01.599663,409
2021-12-24 14:33:01.914351,432
2021-12-24 14:33:01.914380,437
2021-12-24 14:33:01.914392,397
2021-12-24 14:33:01.914402,295
2021-12-24 14:33:01.914412,186
2021-12-24 14:33:01.914422,130
2021-12-24 14:33:01.914432,76
2021-12-24 14:33:01.914442,-11
2021-12-24 14:33:01.914451,-97
2021-12-24 14:33:01.914461,-158
2021-12-24 14:33:01.914471,-183
2021-12-24 14:33:01.914480,-181
2021-12-24 14:33:01.914490,-172
2021-12-24 14:33:01.914500,-155
2021-12-24 14:33:01.914509,-137
2021-12-24 14:33:01.914519,-153
2021-12-24 14:33:01.914529,-167
2021-12-24 14:33:01.914538,-155
2021-12-24 14:33:01.914548,-144
2021-12-24 14:33:01.914558,-137
2021-12-24 14:33:01.914567,-146
2021-12-24 14:33:01.914577,-167
2021-12-24 14:33:01.914587,-165
2021-12-24 14:33:01.914596,-155
2021-12-24 14:33:01.914606,-190
2021-12-24 14:33:01.914616,-244
2021-12-24 14:33:01.914625,-267
2021-12-24 14:33:01.914635,-274
2021-12-24 14:33:01.914645,-258
2021-12-24 14:33:01.914654,-221
2021-12-24 14:33:02.139538,-214
2021-12-24 14:33:02.139560,-230
2021-12-24 14:33:02.139568,-242
2021-12-24 14:33:02.139574,-232
2021-12-24 14:33:02.139580,-216
2021-12-24 14:33:02.139587,-202
2021-12-24 14:33:02.139593,-158
2021-12-24 14:33:02.139599,-102
2021-12-24 14:33:02.139606,-102
2021-12-24 14:33:02.139612,-148
2021-12-24 14:33:02.139618,-197
2021-12-24 14:33:02.139624,-183
2021-12-24 14:33:02.139630,-109
2021-12-24 14:33:02.139636,-95
2021-12-24 14:33:02.139643,-160
2021-12-24 14:33:02.139649,-179
2021-12-24 14:33:02.139655,-130
2021-12-24 14:33:02.139661,-102
2021-12-24 14:33:02.139667,-109
2021-12-24 14:33:02.139677,-111
2021-12-24 14:33:02.139684,-121
2021-12-24 14:33:02.139690,-144
2021-12-24 14:33:02.139696,-139
2021-12-24 14:33:02.139703,-23
2021-12-24 14:33:02.139709,339
2021-12-24 14:33:02.139715,868
2021-12-24 14:33:02.139722,914
2021-12-24 14:33:02.139728,-27
2021-12-24 14:33:02.139734,-947
2021-12-24 14:33:02.139740,-619
2021-12-24 14:33:02.363679,58
2021-12-24 14:33:02.363697,25
2021-12-24 14:33:02.363705,-90
2021-12-24 14:33:02.363712,51
2021-12-24 14:33:02.363719,76
2021-12-24 14:33:02.363725,41
2021-12-24 14:33:02.363731,100
2021-12-24 14:33:02.363738,139
2021-12-24 14:33:02.363744,123
2021-12-24 14:33:02.363750,137
2021-12-24 14:33:02.363757,165
2021-12-24 14:33:02.363763,158
2021-12-24 14:33:02.363769,151
2021-12-24 14:33:02.363776,165
2021-12-24 14:33:02.363782,162
2021-12-24 14:33:02.363789,181
2021-12-24 14:33:02.363795,267
2021-12-24 14:33:02.363802,351
2021-12-24 14:33:02.363808,367
2021-12-24 14:33:02.363816,363
2021-12-24 14:33:02.363822,379
2021-12-24 14:33:02.363829,388
2021-12-24 14:33:02.363835,370
2021-12-24 14:33:02.363842,344
2021-12-24 14:33:02.363848,290
2021-12-24 14:33:02.363854,209
2021-12-24 14:33:02.363861,139
2021-12-24 14:33:02.363867,55
2021-12-24 14:33:02.363873,-18
2021-12-24 14:33:02.363880,-51
2021-12-24 14:33:02.679971,-109
2021-12-24 14:33:02.680001,-200
2021-12-24 14:33:02.680013,-221
2021-12-24 14:33:02.680023,-174
2021-12-24 14:33:02.680032,-169
2021-12-24 14:33:02.680041,-190
2021-12-24 14:33:02.680051,-183
2021-12-24 14:33:02.680061,-186
2021-12-24 14:33:02.680070,-195
2021-12-24 14:33:02.680080,-176
2021-12-24 14:33:02.680089,-141
2021-12-24 14:33:02.680099,-132
2021-12-24 14:33:02.680108,-155
2021-12-24 14:33:02.680118,-179
2021-12-24 14:33:02.680127,-183
2021-12-24 14:33:02.680137,-181
2021-12-24 14:33:02.680146,-188
2021-12-24 14:33:02.680156,-200
2021-12-24 14:33:02.680165,-223
2021-12-24 14:33:02.680175,-265
2021-12-24 14:33:02.680184,-265
2021-12-24 14:33:02.680194,-249
2021-12-24 14:33:02.680203,-244
2021-12-24 14:33:02.680213,-223
2021-12-24 14:33:02.680222,-193
2021-12-24 14:33:02.680232,-176
2021-12-24 14:33:02.680241,-167
2021-12-24 14:33:02.680251,-165
2021-12-24 14:33:02.680260,-172
2021-12-24 14:33:02.680270,-174
2021-12-24 14:33:02.859847,-162
2021-12-24 14:33:02.859876,-146
2021-12-24 14:33:02.859888,-132
2021-12-24 14:33:02.859898,-121
2021-12-24 14:33:02.859907,-111
2021-12-24 14:33:02.859917,-102
2021-12-24 14:33:02.859926,-93
2021-12-24 14:33:02.859936,-81
2021-12-24 14:33:02.859945,-60
2021-12-24 14:33:02.859955,-55
2021-12-24 14:33:02.859964,-62
2021-12-24 14:33:02.859974,93
2021-12-24 14:33:02.859984,539
2021-12-24 14:33:02.859993,1031
2021-12-24 14:33:02.860003,837
2021-12-24 14:33:02.860013,-288
2021-12-24 14:33:02.860022,-991
2021-12-24 14:33:02.860032,-428
2021-12-24 14:33:02.860041,60
2021-12-24 14:33:02.860051,-125
2021-12-24 14:33:02.860061,-128
2021-12-24 14:33:02.860070,41
2021-12-24 14:33:02.860080,20
2021-12-24 14:33:02.860090,0
2021-12-24 14:33:02.860099,48
2021-12-24 14:33:02.860109,53
2021-12-24 14:33:02.860119,55
2021-12-24 14:33:02.860128,90
2021-12-24 14:33:02.860138,123
2021-12-24 14:33:02.860147,125
2021-12-24 14:33:02.994538,125
2021-12-24 14:33:02.994567,160
2021-12-24 14:33:02.994579,204
2021-12-24 14:33:02.994589,235
2021-12-24 14:33:02.994598,281
2021-12-24 14:33:02.994608,321
2021-12-24 14:33:02.994618,318
2021-12-24 14:33:02.994627,328
2021-12-24 14:33:02.994637,360
2021-12-24 14:33:02.994646,353
2021-12-24 14:33:02.994656,316
2021-12-24 14:33:02.994665,269
2021-12-24 14:33:02.994675,204
2021-12-24 14:33:02.994685,139
2021-12-24 14:33:02.994695,69
2021-12-24 14:33:02.994704,-9
2021-12-24 14:33:02.994714,-65
2021-12-24 14:33:02.994724,-114
2021-12-24 14:33:02.994733,-160
2021-12-24 14:33:02.994743,-162
2021-12-24 14:33:02.994753,-146
2021-12-24 14:33:02.994762,-169
2021-12-24 14:33:02.994772,-181
2021-12-24 14:33:02.994782,-165
2021-12-24 14:33:02.994792,-165
2021-12-24 14:33:02.994801,-158
2021-12-24 14:33:02.994811,-132
2021-12-24 14:33:02.994821,-139
2021-12-24 14:33:02.994830,-148
2021-12-24 14:33:02.994840,-118
2021-12-24 14:33:03.262750,-81
2021-12-24 14:33:03.262767,-74
2021-12-24 14:33:03.262775,-74
2021-12-24 14:33:03.262781,-76
2021-12-24 14:33:03.262788,-107
2021-12-24 14:33:03.262794,-146
2021-12-24 14:33:03.262801,-139
2021-12-24 14:33:03.262807,-104
2021-12-24 14:33:03.262813,-114
2021-12-24 14:33:03.262820,-165
2021-12-24 14:33:03.262826,-197
2021-12-24 14:33:03.262832,-200
2021-12-24 14:33:03.262838,-179
2021-12-24 14:33:03.262845,-155
2021-12-24 14:33:03.262851,-165
2021-12-24 14:33:03.262857,-176
2021-12-24 14:33:03.262863,-183
2021-12-24 14:33:03.262870,-190
2021-12-24 14:33:03.262876,-179
2021-12-24 14:33:03.262882,-176
2021-12-24 14:33:03.262888,-200
2021-12-24 14:33:03.262895,-202
2021-12-24 14:33:03.262901,-188
2021-12-24 14:33:03.262907,-181
2021-12-24 14:33:03.262914,-167
2021-12-24 14:33:03.262920,-141
2021-12-24 14:33:03.262926,-125
2021-12-24 14:33:03.262932,-144
2021-12-24 14:33:03.262939,-165
2021-12-24 14:33:03.262945,-37
2021-12-24 14:33:03.489266,363
2021-12-24 14:33:03.489296,877
2021-12-24 14:33:03.489307,844
2021-12-24 14:33:03.489317,-186
2021-12-24 14:33:03.489327,-1040
2021-12-24 14:33:03.489337,-574
2021-12-24 14:33:03.489346,46
2021-12-24 14:33:03.489356,-90
2021-12-24 14:33:03.489366,-172
2021-12-24 14:33:03.489375,-16
2021-12-24 14:33:03.489385,-74
2021-12-24 14:33:03.489394,-162
2021-12-24 14:33:03.489404,-102
2021-12-24 14:33:03.489414,-53
2021-12-24 14:33:03.489424,-60
2021-12-24 14:33:03.489433,-48
2021-12-24 14:33:03.489443,-18
2021-12-24 14:33:03.489453,11
2021-12-24 14:33:03.489462,58
2021-12-24 14:33:03.489472,121
2021-12-24 14:33:03.489481,151
2021-12-24 14:33:03.489491,155
2021-12-24 14:33:03.489501,179
2021-12-24 14:33:03.489510,232
2021-12-24 14:33:03.489520,288
2021-12-24 14:33:03.489530,318
2021-12-24 14:33:03.489539,332
2021-12-24 14:33:03.489549,328
2021-12-24 14:33:03.489558,304
2021-12-24 14:33:03.489568,293
2021-12-24 14:33:03.714515,269
2021-12-24 14:33:03.714545,202
2021-12-24 14:33:03.714557,107
2021-12-24 14:33:03.714567,6
2021-12-24 14:33:03.714577,-67
2021-12-24 14:33:03.714587,-100
2021-12-24 14:33:03.714597,-111
2021-12-24 14:33:03.714606,-125
2021-12-24 14:33:03.714616,-158
2021-12-24 14:33:03.714626,-200
2021-12-24 14:33:03.714635,-188
2021-12-24 14:33:03.714645,-141
2021-12-24 14:33:03.714655,-125
2021-12-24 14:33:03.714664,-125
2021-12-24 14:33:03.714674,-128
2021-12-24 14:33:03.714684,-146
2021-12-24 14:33:03.714694,-139
2021-12-24 14:33:03.714703,-90
2021-12-24 14:33:03.714713,-69
2021-12-24 14:33:03.714723,-83
2021-12-24 14:33:03.714732,-95
2021-12-24 14:33:03.714742,-88
2021-12-24 14:33:03.714752,-74
2021-12-24 14:33:03.714761,-88
2021-12-24 14:33:03.714771,-95
2021-12-24 14:33:03.714780,-74
2021-12-24 14:33:03.714790,-95
2021-12-24 14:33:03.714800,-153
2021-12-24 14:33:03.714809,-155
2021-12-24 14:33:03.714819,-125
2021-12-24 14:33:03.984519,-93
2021-12-24 14:33:03.984550,-65
2021-12-24 14:33:03.984562,-100
2021-12-24 14:33:03.984572,-155
2021-12-24 14:33:03.984581,-160
2021-12-24 14:33:03.984591,-158
2021-12-24 14:33:03.984601,-169
2021-12-24 14:33:03.984610,-172
2021-12-24 14:33:03.984620,-188
2021-12-24 14:33:03.984629,-216
2021-12-24 14:33:03.984639,-202
2021-12-24 14:33:03.984648,-174
2021-12-24 14:33:03.984658,-169
2021-12-24 14:33:03.984667,-174
2021-12-24 14:33:03.984677,-193
2021-12-24 14:33:03.984686,-214
2021-12-24 14:33:03.984696,-223
2021-12-24 14:33:03.984705,-223
2021-12-24 14:33:03.984715,-41
2021-12-24 14:33:03.984725,465
2021-12-24 14:33:03.984734,851
2021-12-24 14:33:03.984744,314
2021-12-24 14:33:03.984753,-821
2021-12-24 14:33:03.984763,-1033
2021-12-24 14:33:03.984773,-304
2021-12-24 14:33:03.984782,-67
2021-12-24 14:33:03.984792,-279
2021-12-24 14:33:03.984801,-186
2021-12-24 14:33:03.984811,-58
2021-12-24 14:33:03.984821,-107
2021-12-24 14:33:04.164126,-74
2021-12-24 14:33:04.164144,2
2021-12-24 14:33:04.164152,-11
2021-12-24 14:33:04.164158,-23
2021-12-24 14:33:04.164165,18
2021-12-24 14:33:04.164171,51
2021-12-24 14:33:04.164177,74
2021-12-24 14:33:04.164184,100
2021-12-24 14:33:04.164190,118
2021-12-24 14:33:04.164196,148
2021-12-24 14:33:04.164203,200
2021-12-24 14:33:04.164209,260
2021-12-24 14:33:04.164215,307
2021-12-24 14:33:04.164221,316
2021-12-24 14:33:04.164228,304
2021-12-24 14:33:04.164234,309
2021-12-24 14:33:04.164240,328
2021-12-24 14:33:04.164246,316
2021-12-24 14:33:04.164253,267
2021-12-24 14:33:04.164259,181
2021-12-24 14:33:04.164265,72
2021-12-24 14:33:04.164271,-6
2021-12-24 14:33:04.164278,-58
2021-12-24 14:33:04.164284,-102
2021-12-24 14:33:04.164291,-139
2021-12-24 14:33:04.164297,-165
2021-12-24 14:33:04.164303,-188
2021-12-24 14:33:04.164309,-218
2021-12-24 14:33:04.164316,-235
2021-12-24 14:33:04.164322,-221
2021-12-24 14:33:04.434511,-204
2021-12-24 14:33:04.434532,-207
2021-12-24 14:33:04.434540,-197
2021-12-24 14:33:04.434547,-204
2021-12-24 14:33:04.434553,-232
2021-12-24 14:33:04.434560,-209
2021-12-24 14:33:04.434566,-153
2021-12-24 14:33:04.434573,-141
2021-12-24 14:33:04.434580,-155
2021-12-24 14:33:04.434586,-146
2021-12-24 14:33:04.434592,-123
2021-12-24 14:33:04.434599,-111
2021-12-24 14:33:04.434605,-125
2021-12-24 14:33:04.434612,-148
2021-12-24 14:33:04.434618,-141
2021-12-24 14:33:04.434624,-121
2021-12-24 14:33:04.434631,-116
2021-12-24 14:33:04.434637,-125
2021-12-24 14:33:04.434643,-144
2021-12-24 14:33:04.434650,-139
2021-12-24 14:33:04.434656,-104
2021-12-24 14:33:04.434663,-104
2021-12-24 14:33:04.434669,-158
2021-12-24 14:33:04.434675,-202
2021-12-24 14:33:04.434681,-218
2021-12-24 14:33:04.434699,-239
2021-12-24 14:33:04.434706,-253
2021-12-24 14:33:04.434712,-239
2021-12-24 14:33:04.434719,-225
2021-12-24 14:33:04.434725,-237
2021-12-24 14:33:04.659809,-263
2021-12-24 14:33:04.659839,-258
2021-12-24 14:33:04.659851,-232
2021-12-24 14:33:04.659861,-218
2021-12-24 14:33:04.659871,-209
2021-12-24 14:33:04.659880,-223
2021-12-24 14:33:04.659890,-251
2021-12-24 14:33:04.659899,-102
2021-12-24 14:33:04.659909,365
2021-12-24 14:33:04.659918,879
2021-12-24 14:33:04.659928,656
2021-12-24 14:33:04.659937,-514
2021-12-24 14:33:04.659947,-1163
2021-12-24 14:33:04.659957,-526
2021-12-24 14:33:04.659967,-20
2021-12-24 14:33:04.659976,-188
2021-12-24 14:33:04.659986,-167
2021-12-24 14:33:04.659995,2
2021-12-24 14:33:04.660005,-55
2021-12-24 14:33:04.660015,-83
2021-12-24 14:33:04.660024,-2
2021-12-24 14:33:04.660034,11
2021-12-24 14:33:04.660043,-13
2021-12-24 14:33:04.660053,-39
2021-12-24 14:33:04.660063,-69
2021-12-24 14:33:04.660072,-46
2021-12-24 14:33:04.660082,-2
2021-12-24 14:33:04.660092,20
2021-12-24 14:33:04.660101,58
2021-12-24 14:33:04.660111,109
2021-12-24 14:33:04.840013,153
2021-12-24 14:33:04.840044,186
2021-12-24 14:33:04.840056,202
2021-12-24 14:33:04.840066,214
2021-12-24 14:33:04.840076,237
2021-12-24 14:33:04.840085,246
2021-12-24 14:33:04.840095,228
2021-12-24 14:33:04.840104,204
2021-12-24 14:33:04.840114,165
2021-12-24 14:33:04.840124,93
2021-12-24 14:33:04.840133,9
2021-12-24 14:33:04.840143,-74
2021-12-24 14:33:04.840153,-141
2021-12-24 14:33:04.840162,-162
2021-12-24 14:33:04.840172,-167
2021-12-24 14:33:04.840182,-186
2021-12-24 14:33:04.840191,-200
2021-12-24 14:33:04.840201,-216
2021-12-24 14:33:04.840211,-223
2021-12-24 14:33:04.840220,-195
2021-12-24 14:33:04.840230,-169
2021-12-24 14:33:04.840239,-167
2021-12-24 14:33:04.840249,-158
2021-12-24 14:33:04.840258,-144
2021-12-24 14:33:04.840268,-132
2021-12-24 14:33:04.840277,-109
2021-12-24 14:33:04.840287,-90
2021-12-24 14:33:04.840296,-93
2021-12-24 14:33:04.840306,-128
2021-12-24 14:33:04.840316,-162
2021-12-24 14:33:05.064193,-146
2021-12-24 14:33:05.064216,-114
2021-12-24 14:33:05.064223,-114
2021-12-24 14:33:05.064230,-137
2021-12-24 14:33:05.064237,-176
2021-12-24 14:33:05.064247,-202
2021-12-24 14:33:05.064254,-188
2021-12-24 14:33:05.064260,-172
2021-12-24 14:33:05.064267,-165
2021-12-24 14:33:05.064273,-158
2021-12-24 14:33:05.064279,-167
2021-12-24 14:33:05.064286,-176
2021-12-24 14:33:05.064292,-158
2021-12-24 14:33:05.064299,-132
2021-12-24 14:33:05.064305,-144
2021-12-24 14:33:05.064311,-176
2021-12-24 14:33:05.064318,-195
2021-12-24 14:33:05.064324,-200
2021-12-24 14:33:05.064330,-183
2021-12-24 14:33:05.064337,-102
2021-12-24 14:33:05.064343,-4
2021-12-24 14:33:05.064350,-6
2021-12-24 14:33:05.064356,-51
2021-12-24 14:33:05.064362,-32
2021-12-24 14:33:05.064368,-2
2021-12-24 14:33:05.064375,-23
2021-12-24 14:33:05.064381,-41
2021-12-24 14:33:05.064387,55
2021-12-24 14:33:05.064394,421
2021-12-24 14:33:05.064400,970
2021-12-24 14:33:05.378428,1014
2021-12-24 14:33:05.378449,13
2021-12-24 14:33:05.378457,-903
2021-12-24 14:33:05.378463,-519
2021-12-24 14:33:05.378470,86
2021-12-24 14:33:05.378476,-58
2021-12-24 14:33:05.378482,-165
2021-12-24 14:33:05.378489,23
2021-12-24 14:33:05.378495,34
2021-12-24 14:33:05.378501,-41
2021-12-24 14:33:05.378508,-18
2021-12-24 14:33:05.378514,16
2021-12-24 14:33:05.378520,34
2021-12-24 14:33:05.378527,65
2021-12-24 14:33:05.378533,88
2021-12-24 14:33:05.378539,90
2021-12-24 14:33:05.378545,104
2021-12-24 14:33:05.378552,146
2021-12-24 14:33:05.378558,197
2021-12-24 14:33:05.378564,244
2021-12-24 14:33:05.378570,290
2021-12-24 14:33:05.378577,318
2021-12-24 14:33:05.378583,342
2021-12-24 14:33:05.378589,384
2021-12-24 14:33:05.378595,411
2021-12-24 14:33:05.378602,416
2021-12-24 14:33:05.378608,407
2021-12-24 14:33:05.378614,367
2021-12-24 14:33:05.378620,300
2021-12-24 14:33:05.378627,232
2021-12-24 14:33:05.649435,165
2021-12-24 14:33:05.649465,95
2021-12-24 14:33:05.649477,23
2021-12-24 14:33:05.649486,-65
2021-12-24 14:33:05.649496,-146
2021-12-24 14:33:05.649506,-188
2021-12-24 14:33:05.649515,-188
2021-12-24 14:33:05.649525,-193
2021-12-24 14:33:05.649534,-225
2021-12-24 14:33:05.649544,-239
2021-12-24 14:33:05.649554,-211
2021-12-24 14:33:05.649563,-179
2021-12-24 14:33:05.649573,-158
2021-12-24 14:33:05.649583,-137
2021-12-24 14:33:05.649592,-141
2021-12-24 14:33:05.649602,-176
2021-12-24 14:33:05.649611,-174
2021-12-24 14:33:05.649621,-134
2021-12-24 14:33:05.649630,-121
2021-12-24 14:33:05.649640,-116
2021-12-24 14:33:05.649649,-109
2021-12-24 14:33:05.649659,-111
2021-12-24 14:33:05.649668,-104
2021-12-24 14:33:05.649678,-83
2021-12-24 14:33:05.649687,-67
2021-12-24 14:33:05.649697,-58
2021-12-24 14:33:05.649706,-58
2021-12-24 14:33:05.649716,-65
2021-12-24 14:33:05.649726,-60
2021-12-24 14:33:05.649735,-46
2021-12-24 14:33:05.874233,-44
2021-12-24 14:33:05.874263,-46
2021-12-24 14:33:05.874275,-41
2021-12-24 14:33:05.874285,-44
2021-12-24 14:33:05.874295,-44
2021-12-24 14:33:05.874305,-30
2021-12-24 14:33:05.874315,-13
2021-12-24 14:33:05.874325,-18
2021-12-24 14:33:05.874335,-65
2021-12-24 14:33:05.874344,-130
2021-12-24 14:33:05.874354,-158
2021-12-24 14:33:05.874364,-165
2021-12-24 14:33:05.874373,-162
2021-12-24 14:33:05.874383,-158
2021-12-24 14:33:05.874392,-172
2021-12-24 14:33:05.874402,-186
2021-12-24 14:33:05.874412,-169
2021-12-24 14:33:05.874421,-151
2021-12-24 14:33:05.874431,-158
2021-12-24 14:33:05.874441,-188
2021-12-24 14:33:05.874450,-158
2021-12-24 14:33:05.874460,137
2021-12-24 14:33:05.874470,693
2021-12-24 14:33:05.874479,889
2021-12-24 14:33:05.874489,58
2021-12-24 14:33:05.874499,-970
2021-12-24 14:33:05.874509,-798
2021-12-24 14:33:05.874518,-107
2021-12-24 14:33:05.874528,-102
2021-12-24 14:33:05.874538,-230
2021-12-24 14:33:06.054805,-55
2021-12-24 14:33:06.054836,-16
2021-12-24 14:33:06.054847,-88
2021-12-24 14:33:06.054857,-37
2021-12-24 14:33:06.054867,20
2021-12-24 14:33:06.054877,13
2021-12-24 14:33:06.054886,13
2021-12-24 14:33:06.054896,30
2021-12-24 14:33:06.054905,55
2021-12-24 14:33:06.054915,65
2021-12-24 14:33:06.054925,30
2021-12-24 14:33:06.054934,27
2021-12-24 14:33:06.054944,67
2021-12-24 14:33:06.054954,76
2021-12-24 14:33:06.054963,81
2021-12-24 14:33:06.054973,125
2021-12-24 14:33:06.054983,172
2021-12-24 14:33:06.054992,195
2021-12-24 14:33:06.055002,207
2021-12-24 14:33:06.055011,207
2021-12-24 14:33:06.055021,190
2021-12-24 14:33:06.055030,148
2021-12-24 14:33:06.055040,97
2021-12-24 14:33:06.055049,62
2021-12-24 14:33:06.055059,18
2021-12-24 14:33:06.055069,-53
2021-12-24 14:33:06.055078,-109
2021-12-24 14:33:06.055088,-121
2021-12-24 14:33:06.055097,-118
2021-12-24 14:33:06.055107,-116
2021-12-24 14:33:06.234400,-121
2021-12-24 14:33:06.234440,-134
2021-12-24 14:33:06.234452,-128
2021-12-24 14:33:06.234462,-97
2021-12-24 14:33:06.234472,-88
2021-12-24 14:33:06.234481,-97
2021-12-24 14:33:06.234491,-86
2021-12-24 14:33:06.234500,-86
2021-12-24 14:33:06.234510,-97
2021-12-24 14:33:06.234520,-74
2021-12-24 14:33:06.234529,-62
2021-12-24 14:33:06.234539,-53
2021-12-24 14:33:06.234549,-18
2021-12-24 14:33:06.234558,-13
2021-12-24 14:33:06.234568,-48
2021-12-24 14:33:06.234577,-55
2021-12-24 14:33:06.234587,-25
2021-12-24 14:33:06.234596,-13
2021-12-24 14:33:06.234606,-44
2021-12-24 14:33:06.234615,-67
2021-12-24 14:33:06.234625,-44
2021-12-24 14:33:06.234635,-39
2021-12-24 14:33:06.234644,-46
2021-12-24 14:33:06.234654,-13
2021-12-24 14:33:06.234663,-16
2021-12-24 14:33:06.234673,-74
2021-12-24 14:33:06.234682,-90
2021-12-24 14:33:06.234692,-65
2021-12-24 14:33:06.234701,-41
2021-12-24 14:33:06.234711,-18
2021-12-24 14:33:06.459191,-27
2021-12-24 14:33:06.459211,-55
2021-12-24 14:33:06.459218,-74
2021-12-24 14:33:06.459225,-81
2021-12-24 14:33:06.459231,-90
2021-12-24 14:33:06.459237,-114
2021-12-24 14:33:06.459244,-139
2021-12-24 14:33:06.459250,-132
2021-12-24 14:33:06.459256,-118
2021-12-24 14:33:06.459262,-137
2021-12-24 14:33:06.459269,-137
2021-12-24 14:33:06.459275,-116
2021-12-24 14:33:06.459281,-130
2021-12-24 14:33:06.459287,-146
2021-12-24 14:33:06.459293,-155
2021-12-24 14:33:06.459300,-176
2021-12-24 14:33:06.459306,-90
2021-12-24 14:33:06.459312,181
2021-12-24 14:33:06.459318,477
2021-12-24 14:33:06.459325,325
2021-12-24 14:33:06.459331,-446
2021-12-24 14:33:06.459337,-907
2021-12-24 14:33:06.459343,-439
2021-12-24 14:33:06.459350,-25
2021-12-24 14:33:06.459356,-160
2021-12-24 14:33:06.459362,-160
2021-12-24 14:33:06.459368,-2
2021-12-24 14:33:06.459375,-18
2021-12-24 14:33:06.459381,-16
2021-12-24 14:33:06.459387,74
2021-12-24 14:33:06.684590,90
2021-12-24 14:33:06.684620,88
2021-12-24 14:33:06.684632,125
2021-12-24 14:33:06.684642,144
2021-12-24 14:33:06.684651,144
2021-12-24 14:33:06.684661,148
2021-12-24 14:33:06.684670,153
2021-12-24 14:33:06.684680,186
2021-12-24 14:33:06.684689,232
2021-12-24 14:33:06.684699,258
2021-12-24 14:33:06.684709,281
2021-12-24 14:33:06.684718,293
2021-12-24 14:33:06.684728,281
2021-12-24 14:33:06.684737,293
2021-12-24 14:33:06.684747,314
2021-12-24 14:33:06.684756,293
2021-12-24 14:33:06.684766,274
2021-12-24 14:33:06.684775,269
2021-12-24 14:33:06.684785,202
2021-12-24 14:33:06.684794,118
2021-12-24 14:33:06.684804,81
2021-12-24 14:33:06.684813,37
2021-12-24 14:33:06.684823,-23
2021-12-24 14:33:06.684833,-53
2021-12-24 14:33:06.684842,-65
2021-12-24 14:33:06.684852,-69
2021-12-24 14:33:06.684861,-72
2021-12-24 14:33:06.684870,-74
2021-12-24 14:33:06.684880,-79
2021-12-24 14:33:06.684889,-74
2021-12-24 14:33:06.909861,-55
2021-12-24 14:33:06.909892,-39
2021-12-24 14:33:06.909903,-37
2021-12-24 14:33:06.909913,-39
2021-12-24 14:33:06.909923,-55
2021-12-24 14:33:06.909933,-86
2021-12-24 14:33:06.909942,-81
2021-12-24 14:33:06.909952,-55
2021-12-24 14:33:06.909961,-51
2021-12-24 14:33:06.909971,-53
2021-12-24 14:33:06.909980,-76
2021-12-24 14:33:06.909990,-111
2021-12-24 14:33:06.910000,-121
2021-12-24 14:33:06.910009,-121
2021-12-24 14:33:06.910019,-125
2021-12-24 14:33:06.910029,-121
2021-12-24 14:33:06.910038,-134
2021-12-24 14:33:06.910048,-165
2021-12-24 14:33:06.910058,-176
2021-12-24 14:33:06.910067,-193
2021-12-24 14:33:06.910077,-237
2021-12-24 14:33:06.910086,-249
2021-12-24 14:33:06.910096,-239
2021-12-24 14:33:06.910106,-258
2021-12-24 14:33:06.910116,-251
2021-12-24 14:33:06.910125,-223
2021-12-24 14:33:06.910135,-230
2021-12-24 14:33:06.910144,-246
2021-12-24 14:33:06.910154,-237
2021-12-24 14:33:06.910163,-218
2021-12-24 14:33:07.179885,-209
2021-12-24 14:33:07.179915,-193
2021-12-24 14:33:07.179927,-174
2021-12-24 14:33:07.179938,-186
2021-12-24 14:33:07.179948,-214
2021-12-24 14:33:07.179957,-207
2021-12-24 14:33:07.179967,-174
2021-12-24 14:33:07.179977,-172
2021-12-24 14:33:07.179986,-174
2021-12-24 14:33:07.179996,-48
2021-12-24 14:33:07.180006,307
2021-12-24 14:33:07.180016,695
2021-12-24 14:33:07.180025,451
2021-12-24 14:33:07.180035,-558
2021-12-24 14:33:07.180045,-1052
2021-12-24 14:33:07.180054,-460
2021-12-24 14:33:07.180064,-23
2021-12-24 14:33:07.180074,-144
2021-12-24 14:33:07.180083,-104
2021-12-24 14:33:07.180093,51
2021-12-24 14:33:07.180103,23
2021-12-24 14:33:07.180113,-6
2021-12-24 14:33:07.180122,30
2021-12-24 14:33:07.180132,37
2021-12-24 14:33:07.180142,53
2021-12-24 14:33:07.180151,88
2021-12-24 14:33:07.180161,104
2021-12-24 14:33:07.180171,102
2021-12-24 14:33:07.180180,123
2021-12-24 14:33:07.180190,169
2021-12-24 14:33:07.582885,223
2021-12-24 14:33:07.582906,267
2021-12-24 14:33:07.582913,300
2021-12-24 14:33:07.582920,321
2021-12-24 14:33:07.582926,349
2021-12-24 14:33:07.582933,388
2021-12-24 14:33:07.582939,407
2021-12-24 14:33:07.582945,395
2021-12-24 14:33:07.582951,370
2021-12-24 14:33:07.582958,307
2021-12-24 14:33:07.582964,228
2021-12-24 14:33:07.582970,172
2021-12-24 14:33:07.582976,116
2021-12-24 14:33:07.582983,58
2021-12-24 14:33:07.582989,-9
2021-12-24 14:33:07.582995,-88
2021-12-24 14:33:07.583001,-125
2021-12-24 14:33:07.583008,-114
2021-12-24 14:33:07.583014,-104
2021-12-24 14:33:07.583020,-111
2021-12-24 14:33:07.583026,-114
2021-12-24 14:33:07.583032,-121
2021-12-24 14:33:07.583038,-116
2021-12-24 14:33:07.583045,-100
2021-12-24 14:33:07.583051,-109
2021-12-24 14:33:07.583057,-114
2021-12-24 14:33:07.583063,-95
2021-12-24 14:33:07.583070,-114
2021-12-24 14:33:07.583076,-153
2021-12-24 14:33:07.583082,-141
2021-12-24 14:33:07.674232,-123
2021-12-24 14:33:07.674262,-139
2021-12-24 14:33:07.674274,-153
2021-12-24 14:33:07.674285,-151
2021-12-24 14:33:07.674294,-153
2021-12-24 14:33:07.674304,-153
2021-12-24 14:33:07.674314,-153
2021-12-24 14:33:07.674323,-158
2021-12-24 14:33:07.674333,-193
2021-12-24 14:33:07.674343,-218
2021-12-24 14:33:07.674352,-202
2021-12-24 14:33:07.674362,-179
2021-12-24 14:33:07.674372,-162
2021-12-24 14:33:07.674382,-146
2021-12-24 14:33:07.674391,-162
2021-12-24 14:33:07.674401,-183
2021-12-24 14:33:07.674411,-165
2021-12-24 14:33:07.674420,-139
2021-12-24 14:33:07.674430,-141
2021-12-24 14:33:07.674440,-139
2021-12-24 14:33:07.674449,-139
2021-12-24 14:33:07.674459,-139
2021-12-24 14:33:07.674469,-121
2021-12-24 14:33:07.674479,-102
2021-12-24 14:33:07.674488,-88
2021-12-24 14:33:07.674498,-81
2021-12-24 14:33:07.674508,-95
2021-12-24 14:33:07.674518,-109
2021-12-24 14:33:07.674527,-104
2021-12-24 14:33:07.674537,-83
2021-12-24 14:33:07.854576,67
2021-12-24 14:33:07.854598,456
2021-12-24 14:33:07.854606,861
2021-12-24 14:33:07.854612,628
2021-12-24 14:33:07.854619,-400
2021-12-24 14:33:07.854626,-947
2021-12-24 14:33:07.854632,-349
2021-12-24 14:33:07.854639,74
2021-12-24 14:33:07.854645,-144
2021-12-24 14:33:07.854652,-141
2021-12-24 14:33:07.854658,34
2021-12-24 14:33:07.854665,6
2021-12-24 14:33:07.854671,-13
2021-12-24 14:33:07.854678,32
2021-12-24 14:33:07.854684,11
2021-12-24 14:33:07.854690,2
2021-12-24 14:33:07.854697,48
2021-12-24 14:33:07.854703,83
2021-12-24 14:33:07.854710,100
2021-12-24 14:33:07.854716,116
2021-12-24 14:33:07.854722,137
2021-12-24 14:33:07.854729,172
2021-12-24 14:33:07.854735,218
2021-12-24 14:33:07.854742,269
2021-12-24 14:33:07.854748,314
2021-12-24 14:33:07.854754,342
2021-12-24 14:33:07.854761,363
2021-12-24 14:33:07.854767,370
2021-12-24 14:33:07.854774,346
2021-12-24 14:33:07.854780,311
2021-12-24 14:33:08.123937,286
2021-12-24 14:33:08.123968,232
2021-12-24 14:33:08.123979,144
2021-12-24 14:33:08.123989,32
2021-12-24 14:33:08.123999,-72
2021-12-24 14:33:08.124008,-130
2021-12-24 14:33:08.124018,-160
2021-12-24 14:33:08.124028,-214
2021-12-24 14:33:08.124037,-249
2021-12-24 14:33:08.124047,-237
2021-12-24 14:33:08.124057,-218
2021-12-24 14:33:08.124066,-209
2021-12-24 14:33:08.124076,-221
2021-12-24 14:33:08.124086,-235
2021-12-24 14:33:08.124096,-218
2021-12-24 14:33:08.124105,-200
2021-12-24 14:33:08.124115,-188
2021-12-24 14:33:08.124125,-172
2021-12-24 14:33:08.124135,-165
2021-12-24 14:33:08.124144,-172
2021-12-24 14:33:08.124154,-181
2021-12-24 14:33:08.124164,-183
2021-12-24 14:33:08.124173,-172
2021-12-24 14:33:08.124183,-160
2021-12-24 14:33:08.124192,-179
2021-12-24 14:33:08.124202,-195
2021-12-24 14:33:08.124211,-197
2021-12-24 14:33:08.124221,-214
2021-12-24 14:33:08.124230,-214
2021-12-24 14:33:08.124240,-197
2021-12-24 14:33:08.304912,-216
2021-12-24 14:33:08.304943,-242
2021-12-24 14:33:08.304955,-228
2021-12-24 14:33:08.304965,-197
2021-12-24 14:33:08.304975,-169
2021-12-24 14:33:08.304985,-155
2021-12-24 14:33:08.304994,-174
2021-12-24 14:33:08.305004,-193
2021-12-24 14:33:08.305094,-181
2021-12-24 14:33:08.305106,-176
2021-12-24 14:33:08.305116,-172
2021-12-24 14:33:08.305126,-153
2021-12-24 14:33:08.305135,-155
2021-12-24 14:33:08.305145,-153
2021-12-24 14:33:08.305155,-130
2021-12-24 14:33:08.305165,-125
2021-12-24 14:33:08.305175,-123
2021-12-24 14:33:08.305184,-111
2021-12-24 14:33:08.305194,-116
2021-12-24 14:33:08.305204,-139
2021-12-24 14:33:08.305213,-107
2021-12-24 14:33:08.305223,95
2021-12-24 14:33:08.305233,530
2021-12-24 14:33:08.305243,891
2021-12-24 14:33:08.305252,481
2021-12-24 14:33:08.305262,-572
2021-12-24 14:33:08.305272,-861
2021-12-24 14:33:08.305281,-169
2021-12-24 14:33:08.305291,109
2021-12-24 14:33:08.305301,-97
2021-12-24 14:33:08.664551,-27
2021-12-24 14:33:08.664574,95
2021-12-24 14:33:08.664581,13
2021-12-24 14:33:08.664588,-11
2021-12-24 14:33:08.664594,46
2021-12-24 14:33:08.664601,41
2021-12-24 14:33:08.664607,16
2021-12-24 14:33:08.664613,58
2021-12-24 14:33:08.664620,88
2021-12-24 14:33:08.664626,62
2021-12-24 14:33:08.664632,39
2021-12-24 14:33:08.664639,55
2021-12-24 14:33:08.664645,88
2021-12-24 14:33:08.664651,141
2021-12-24 14:33:08.664658,200
2021-12-24 14:33:08.664664,235
2021-12-24 14:33:08.664670,260
2021-12-24 14:33:08.664677,288
2021-12-24 14:33:08.664683,302
2021-12-24 14:33:08.664689,311
2021-12-24 14:33:08.664695,300
2021-12-24 14:33:08.664701,253
2021-12-24 14:33:08.664708,193
2021-12-24 14:33:08.664714,121
2021-12-24 14:33:08.664720,51
2021-12-24 14:33:08.664726,4
2021-12-24 14:33:08.664733,-39
2021-12-24 14:33:08.664739,-81
2021-12-24 14:33:08.664745,-104
2021-12-24 14:33:08.664752,-111
2021-12-24 14:33:08.754396,-114
2021-12-24 14:33:08.754416,-107
2021-12-24 14:33:08.754424,-100
2021-12-24 14:33:08.754430,-102
2021-12-24 14:33:08.754437,-114
2021-12-24 14:33:08.754443,-114
2021-12-24 14:33:08.754449,-93
2021-12-24 14:33:08.754455,-74
2021-12-24 14:33:08.754462,-83
2021-12-24 14:33:08.754468,-107
2021-12-24 14:33:08.754474,-109
2021-12-24 14:33:08.754480,-93
2021-12-24 14:33:08.754487,-86
2021-12-24 14:33:08.754493,-95
2021-12-24 14:33:08.754500,-107
2021-12-24 14:33:08.754506,-130
2021-12-24 14:33:08.754512,-181
2021-12-24 14:33:08.754518,-214
2021-12-24 14:33:08.754525,-193
2021-12-24 14:33:08.754531,-167
2021-12-24 14:33:08.754537,-169
2021-12-24 14:33:08.754543,-174
2021-12-24 14:33:08.754550,-172
2021-12-24 14:33:08.754561,-169
2021-12-24 14:33:08.754572,-160
2021-12-24 14:33:08.754583,-139
2021-12-24 14:33:08.754594,-114
2021-12-24 14:33:08.754605,-102
2021-12-24 14:33:08.754615,-118
2021-12-24 14:33:08.754627,-118
2021-12-24 14:33:09.069447,-95
2021-12-24 14:33:09.069478,-86
