Time,ECG
2021-12-24 14:47:43.943159,237
2021-12-24 14:47:43.943174,200
2021-12-24 14:47:43.943179,134
2021-12-24 14:47:43.943184,72
2021-12-24 14:47:43.943188,4
2021-12-24 14:47:43.943193,-69
2021-12-24 14:47:43.943197,-118
2021-12-24 14:47:43.943201,-121
2021-12-24 14:47:43.943206,-125
2021-12-24 14:47:43.943210,-162
2021-12-24 14:47:43.943215,-188
2021-12-24 14:47:43.943219,-174
2021-12-24 14:47:43.943223,-146
2021-12-24 14:47:43.943228,-123
2021-12-24 14:47:43.943232,-107
2021-12-24 14:47:43.943236,-130
2021-12-24 14:47:43.943241,-160
2021-12-24 14:47:43.943245,-137
2021-12-24 14:47:43.943250,-90
2021-12-24 14:47:43.943254,-79
2021-12-24 14:47:43.943259,-88
2021-12-24 14:47:43.943263,-111
2021-12-24 14:47:43.943267,-121
2021-12-24 14:47:43.943272,-100
2021-12-24 14:47:43.943276,-79
2021-12-24 14:47:43.943280,-72
2021-12-24 14:47:43.943285,-62
2021-12-24 14:47:43.943290,-60
2021-12-24 14:47:43.943294,-58
2021-12-24 14:47:43.943298,-37
2021-12-24 14:47:44.143405,-25
2021-12-24 14:47:44.143434,-32
2021-12-24 14:47:44.143446,-44
2021-12-24 14:47:44.143456,-69
2021-12-24 14:47:44.143465,-74
2021-12-24 14:47:44.143475,-30
2021-12-24 14:47:44.143486,16
2021-12-24 14:47:44.143495,34
2021-12-24 14:47:44.143505,30
2021-12-24 14:47:44.143514,-4
2021-12-24 14:47:44.143524,-44
2021-12-24 14:47:44.143534,-32
2021-12-24 14:47:44.143543,-6
2021-12-24 14:47:44.143553,-13
2021-12-24 14:47:44.143562,-44
2021-12-24 14:47:44.143572,-74
2021-12-24 14:47:44.143581,-93
2021-12-24 14:47:44.143592,-100
2021-12-24 14:47:44.143601,-90
2021-12-24 14:47:44.143611,-74
2021-12-24 14:47:44.143620,-90
2021-12-24 14:47:44.143630,-130
2021-12-24 14:47:44.143640,-65
2021-12-24 14:47:44.143649,267
2021-12-24 14:47:44.143659,807
2021-12-24 14:47:44.143668,979
2021-12-24 14:47:44.143678,107
2021-12-24 14:47:44.143687,-1010
2021-12-24 14:47:44.143697,-858
2021-12-24 14:47:44.143710,-69
2021-12-24 14:47:44.367510,-6
2021-12-24 14:47:44.367525,-162
2021-12-24 14:47:44.367532,2
2021-12-24 14:47:44.367537,51
2021-12-24 14:47:44.367542,-16
2021-12-24 14:47:44.367547,41
2021-12-24 14:47:44.367552,93
2021-12-24 14:47:44.367557,74
2021-12-24 14:47:44.367562,60
2021-12-24 14:47:44.367567,58
2021-12-24 14:47:44.367572,53
2021-12-24 14:47:44.367577,44
2021-12-24 14:47:44.367582,67
2021-12-24 14:47:44.367591,114
2021-12-24 14:47:44.367596,121
2021-12-24 14:47:44.367601,125
2021-12-24 14:47:44.367606,186
2021-12-24 14:47:44.367611,249
2021-12-24 14:47:44.367616,281
2021-12-24 14:47:44.367621,304
2021-12-24 14:47:44.367627,318
2021-12-24 14:47:44.367632,314
2021-12-24 14:47:44.367637,304
2021-12-24 14:47:44.367642,295
2021-12-24 14:47:44.367647,260
2021-12-24 14:47:44.367652,181
2021-12-24 14:47:44.367657,83
2021-12-24 14:47:44.367662,13
2021-12-24 14:47:44.367667,-25
2021-12-24 14:47:44.367673,-55
2021-12-24 14:47:44.593344,-72
2021-12-24 14:47:44.593374,-90
2021-12-24 14:47:44.593385,-114
2021-12-24 14:47:44.593395,-125
2021-12-24 14:47:44.593405,-118
2021-12-24 14:47:44.593414,-102
2021-12-24 14:47:44.593424,-86
2021-12-24 14:47:44.593433,-93
2021-12-24 14:47:44.593443,-114
2021-12-24 14:47:44.593452,-114
2021-12-24 14:47:44.593462,-83
2021-12-24 14:47:44.593471,-55
2021-12-24 14:47:44.593481,-46
2021-12-24 14:47:44.593491,-67
2021-12-24 14:47:44.593500,-107
2021-12-24 14:47:44.593510,-109
2021-12-24 14:47:44.593519,-76
2021-12-24 14:47:44.593533,-67
2021-12-24 14:47:44.593542,-74
2021-12-24 14:47:44.593552,-76
2021-12-24 14:47:44.593561,-72
2021-12-24 14:47:44.593571,-60
2021-12-24 14:47:44.593586,-41
2021-12-24 14:47:44.593596,-16
2021-12-24 14:47:44.593605,4
2021-12-24 14:47:44.593615,4
2021-12-24 14:47:44.593624,-20
2021-12-24 14:47:44.593634,-60
2021-12-24 14:47:44.593643,-76
2021-12-24 14:47:44.593653,-48
2021-12-24 14:47:44.817228,-41
2021-12-24 14:47:44.817247,-72
2021-12-24 14:47:44.817255,-88
2021-12-24 14:47:44.817262,-72
2021-12-24 14:47:44.817268,-55
2021-12-24 14:47:44.817274,-60
2021-12-24 14:47:44.817281,-76
2021-12-24 14:47:44.817292,-104
2021-12-24 14:47:44.817299,-125
2021-12-24 14:47:44.817305,-121
2021-12-24 14:47:44.817311,-102
2021-12-24 14:47:44.817317,-86
2021-12-24 14:47:44.817324,-97
2021-12-24 14:47:44.817330,-125
2021-12-24 14:47:44.817336,-125
2021-12-24 14:47:44.817342,-111
2021-12-24 14:47:44.817348,-139
2021-12-24 14:47:44.817355,-181
2021-12-24 14:47:44.817361,-186
2021-12-24 14:47:44.817367,-190
2021-12-24 14:47:44.817373,-144
2021-12-24 14:47:44.817379,146
2021-12-24 14:47:44.817386,677
2021-12-24 14:47:44.817392,947
2021-12-24 14:47:44.817398,265
2021-12-24 14:47:44.817405,-854
2021-12-24 14:47:44.817411,-905
2021-12-24 14:47:44.817417,-146
2021-12-24 14:47:44.817423,4
2021-12-24 14:47:44.817430,-197
2021-12-24 14:47:45.043000,-79
2021-12-24 14:47:45.043023,18
2021-12-24 14:47:45.043031,-39
2021-12-24 14:47:45.043037,-11
2021-12-24 14:47:45.043044,55
2021-12-24 14:47:45.043050,55
2021-12-24 14:47:45.043056,39
2021-12-24 14:47:45.043062,53
2021-12-24 14:47:45.043068,86
2021-12-24 14:47:45.043074,114
2021-12-24 14:47:45.043080,151
2021-12-24 14:47:45.043087,186
2021-12-24 14:47:45.043093,193
2021-12-24 14:47:45.043099,183
2021-12-24 14:47:45.043105,162
2021-12-24 14:47:45.043111,176
2021-12-24 14:47:45.043117,307
2021-12-24 14:47:45.043124,407
2021-12-24 14:47:45.043130,374
2021-12-24 14:47:45.043136,342
2021-12-24 14:47:45.043142,349
2021-12-24 14:47:45.043148,346
2021-12-24 14:47:45.043154,318
2021-12-24 14:47:45.043161,249
2021-12-24 14:47:45.043174,160
2021-12-24 14:47:45.043180,69
2021-12-24 14:47:45.043186,-16
2021-12-24 14:47:45.043192,-60
2021-12-24 14:47:45.043199,-58
2021-12-24 14:47:45.043205,-48
2021-12-24 14:47:45.356167,-46
2021-12-24 14:47:45.356183,-62
2021-12-24 14:47:45.356189,-74
2021-12-24 14:47:45.356194,-55
2021-12-24 14:47:45.356199,-32
2021-12-24 14:47:45.356204,-48
2021-12-24 14:47:45.356209,-72
2021-12-24 14:47:45.356214,-51
2021-12-24 14:47:45.356219,-30
2021-12-24 14:47:45.356224,-30
2021-12-24 14:47:45.356229,-30
2021-12-24 14:47:45.356234,-41
2021-12-24 14:47:45.356239,-60
2021-12-24 14:47:45.356244,-69
2021-12-24 14:47:45.356249,-74
2021-12-24 14:47:45.356254,-79
2021-12-24 14:47:45.356259,-79
2021-12-24 14:47:45.356264,-86
2021-12-24 14:47:45.356268,-107
2021-12-24 14:47:45.356273,-116
2021-12-24 14:47:45.356278,-128
2021-12-24 14:47:45.356283,-169
2021-12-24 14:47:45.356290,-216
2021-12-24 14:47:45.356295,-230
2021-12-24 14:47:45.356300,-216
2021-12-24 14:47:45.356305,-204
2021-12-24 14:47:45.356310,-197
2021-12-24 14:47:45.356315,-179
2021-12-24 14:47:45.356320,-167
2021-12-24 14:47:45.356325,-176
2021-12-24 14:47:45.536965,-165
2021-12-24 14:47:45.537019,-134
2021-12-24 14:47:45.537032,-102
2021-12-24 14:47:45.537047,-95
2021-12-24 14:47:45.537082,-158
2021-12-24 14:47:45.537090,-202
2021-12-24 14:47:45.537100,-174
2021-12-24 14:47:45.537129,-148
2021-12-24 14:47:45.537137,-146
2021-12-24 14:47:45.537144,-116
2021-12-24 14:47:45.537150,-100
2021-12-24 14:47:45.537156,-121
2021-12-24 14:47:45.537163,-116
2021-12-24 14:47:45.537169,-83
2021-12-24 14:47:45.537175,-79
2021-12-24 14:47:45.537182,-100
2021-12-24 14:47:45.537188,-123
2021-12-24 14:47:45.537194,-128
2021-12-24 14:47:45.537200,-107
2021-12-24 14:47:45.537207,-83
2021-12-24 14:47:45.537213,-79
2021-12-24 14:47:45.537219,-72
2021-12-24 14:47:45.537225,-65
2021-12-24 14:47:45.537231,-62
2021-12-24 14:47:45.537243,-46
2021-12-24 14:47:45.537249,-41
2021-12-24 14:47:45.537255,-23
2021-12-24 14:47:45.537262,179
2021-12-24 14:47:45.537268,670
2021-12-24 14:47:45.537274,1124
2021-12-24 14:47:45.717789,751
2021-12-24 14:47:45.717818,-465
2021-12-24 14:47:45.717830,-977
2021-12-24 14:47:45.717840,-286
2021-12-24 14:47:45.717850,100
2021-12-24 14:47:45.717860,-125
2021-12-24 14:47:45.717869,-76
2021-12-24 14:47:45.717879,102
2021-12-24 14:47:45.717888,51
2021-12-24 14:47:45.717898,11
2021-12-24 14:47:45.717907,55
2021-12-24 14:47:45.717917,69
2021-12-24 14:47:45.717927,86
2021-12-24 14:47:45.717936,125
2021-12-24 14:47:45.717946,139
2021-12-24 14:47:45.717955,137
2021-12-24 14:47:45.717965,148
2021-12-24 14:47:45.717975,186
2021-12-24 14:47:45.717984,228
2021-12-24 14:47:45.717994,269
2021-12-24 14:47:45.718004,311
2021-12-24 14:47:45.718014,339
2021-12-24 14:47:45.718023,360
2021-12-24 14:47:45.718033,393
2021-12-24 14:47:45.718042,416
2021-12-24 14:47:45.718052,421
2021-12-24 14:47:45.718061,411
2021-12-24 14:47:45.718071,358
2021-12-24 14:47:45.718080,279
2021-12-24 14:47:45.718090,239
2021-12-24 14:47:46.032911,209
2021-12-24 14:47:46.032942,148
2021-12-24 14:47:46.032954,72
2021-12-24 14:47:46.032964,-23
2021-12-24 14:47:46.032974,-100
2021-12-24 14:47:46.032983,-116
2021-12-24 14:47:46.032993,-125
2021-12-24 14:47:46.033002,-176
2021-12-24 14:47:46.033012,-237
2021-12-24 14:47:46.033021,-276
2021-12-24 14:47:46.033031,-300
2021-12-24 14:47:46.033040,-288
2021-12-24 14:47:46.033049,-258
2021-12-24 14:47:46.033059,-246
2021-12-24 14:47:46.033069,-249
2021-12-24 14:47:46.033078,-251
2021-12-24 14:47:46.033088,-237
2021-12-24 14:47:46.033098,-211
2021-12-24 14:47:46.033107,-195
2021-12-24 14:47:46.033117,-181
2021-12-24 14:47:46.033127,-169
2021-12-24 14:47:46.033136,-172
2021-12-24 14:47:46.033146,-162
2021-12-24 14:47:46.033155,-139
2021-12-24 14:47:46.033165,-130
2021-12-24 14:47:46.033175,-121
2021-12-24 14:47:46.033184,-111
2021-12-24 14:47:46.033194,-121
2021-12-24 14:47:46.033204,-114
2021-12-24 14:47:46.033214,-90
2021-12-24 14:47:46.212919,-76
2021-12-24 14:47:46.212948,-67
2021-12-24 14:47:46.212960,-65
2021-12-24 14:47:46.212970,-74
2021-12-24 14:47:46.212979,-67
2021-12-24 14:47:46.212989,-44
2021-12-24 14:47:46.212999,-30
2021-12-24 14:47:46.213008,-16
2021-12-24 14:47:46.213018,-4
2021-12-24 14:47:46.213027,-25
2021-12-24 14:47:46.213042,-48
2021-12-24 14:47:46.213052,-39
2021-12-24 14:47:46.213062,-25
2021-12-24 14:47:46.213071,-25
2021-12-24 14:47:46.213081,-25
2021-12-24 14:47:46.213091,-20
2021-12-24 14:47:46.213100,-6
2021-12-24 14:47:46.213110,11
2021-12-24 14:47:46.213119,20
2021-12-24 14:47:46.213129,9
2021-12-24 14:47:46.213139,-25
2021-12-24 14:47:46.213148,-46
2021-12-24 14:47:46.213158,-23
2021-12-24 14:47:46.213168,0
2021-12-24 14:47:46.213190,6
2021-12-24 14:47:46.213201,11
2021-12-24 14:47:46.213210,11
2021-12-24 14:47:46.213220,11
2021-12-24 14:47:46.213297,25
2021-12-24 14:47:46.213344,37
2021-12-24 14:47:46.527754,23
2021-12-24 14:47:46.527783,67
2021-12-24 14:47:46.527795,349
2021-12-24 14:47:46.527805,875
2021-12-24 14:47:46.527815,1177
2021-12-24 14:47:46.527825,472
2021-12-24 14:47:46.527834,-798
2021-12-24 14:47:46.527844,-965
2021-12-24 14:47:46.527854,-176
2021-12-24 14:47:46.527863,37
2021-12-24 14:47:46.527873,-139
2021-12-24 14:47:46.527883,-4
2021-12-24 14:47:46.527893,81
2021-12-24 14:47:46.527902,-9
2021-12-24 14:47:46.527912,-6
2021-12-24 14:47:46.527921,34
2021-12-24 14:47:46.527931,27
2021-12-24 14:47:46.527940,53
2021-12-24 14:47:46.527950,104
2021-12-24 14:47:46.527959,121
2021-12-24 14:47:46.527969,125
2021-12-24 14:47:46.527978,151
2021-12-24 14:47:46.527988,188
2021-12-24 14:47:46.527998,207
2021-12-24 14:47:46.528007,221
2021-12-24 14:47:46.528022,256
2021-12-24 14:47:46.528031,295
2021-12-24 14:47:46.528041,321
2021-12-24 14:47:46.528050,330
2021-12-24 14:47:46.528060,337
2021-12-24 14:47:46.663816,328
2021-12-24 14:47:46.663835,286
2021-12-24 14:47:46.663843,249
2021-12-24 14:47:46.663849,223
2021-12-24 14:47:46.663855,172
2021-12-24 14:47:46.663862,102
2021-12-24 14:47:46.663868,25
2021-12-24 14:47:46.663874,-53
2021-12-24 14:47:46.663881,-114
2021-12-24 14:47:46.663887,-153
2021-12-24 14:47:46.663893,-169
2021-12-24 14:47:46.663900,-169
2021-12-24 14:47:46.663906,-172
2021-12-24 14:47:46.663912,-200
2021-12-24 14:47:46.663918,-221
2021-12-24 14:47:46.663924,-186
2021-12-24 14:47:46.663931,-155
2021-12-24 14:47:46.663937,-155
2021-12-24 14:47:46.663943,-160
2021-12-24 14:47:46.663949,-165
2021-12-24 14:47:46.663955,-160
2021-12-24 14:47:46.663962,-137
2021-12-24 14:47:46.663968,-111
2021-12-24 14:47:46.663974,-97
2021-12-24 14:47:46.663980,-95
2021-12-24 14:47:46.663986,-88
2021-12-24 14:47:46.663993,-69
2021-12-24 14:47:46.663999,-65
2021-12-24 14:47:46.664005,-60
2021-12-24 14:47:46.664011,-39
2021-12-24 14:47:46.887864,-30
2021-12-24 14:47:46.887894,-25
2021-12-24 14:47:46.887905,-13
2021-12-24 14:47:46.887915,-4
2021-12-24 14:47:46.887924,6
2021-12-24 14:47:46.887934,16
2021-12-24 14:47:46.887943,0
2021-12-24 14:47:46.887953,-11
2021-12-24 14:47:46.887962,-4
2021-12-24 14:47:46.887972,-32
2021-12-24 14:47:46.887981,-58
2021-12-24 14:47:46.887990,-34
2021-12-24 14:47:46.888000,-32
2021-12-24 14:47:46.888009,-44
2021-12-24 14:47:46.888019,-20
2021-12-24 14:47:46.888028,-20
2021-12-24 14:47:46.888045,-55
2021-12-24 14:47:46.888055,-60
2021-12-24 14:47:46.888064,-41
2021-12-24 14:47:46.888074,-16
2021-12-24 14:47:46.888083,23
2021-12-24 14:47:46.888092,58
2021-12-24 14:47:46.888102,69
2021-12-24 14:47:46.888111,67
2021-12-24 14:47:46.888120,67
2021-12-24 14:47:46.888130,65
2021-12-24 14:47:46.888139,60
2021-12-24 14:47:46.888148,65
2021-12-24 14:47:46.888158,74
2021-12-24 14:47:46.888167,79
2021-12-24 14:47:47.157790,86
2021-12-24 14:47:47.157810,107
2021-12-24 14:47:47.157818,116
2021-12-24 14:47:47.157824,104
2021-12-24 14:47:47.157831,104
2021-12-24 14:47:47.157837,88
2021-12-24 14:47:47.157843,48
2021-12-24 14:47:47.157850,148
2021-12-24 14:47:47.157856,519
2021-12-24 14:47:47.157862,1028
2021-12-24 14:47:47.157869,1135
2021-12-24 14:47:47.157875,239
2021-12-24 14:47:47.157881,-854
2021-12-24 14:47:47.157888,-686
2021-12-24 14:47:47.157894,60
2021-12-24 14:47:47.157900,81
2021-12-24 14:47:47.157907,-58
2021-12-24 14:47:47.157913,109
2021-12-24 14:47:47.157919,114
2021-12-24 14:47:47.157926,18
2021-12-24 14:47:47.157932,67
2021-12-24 14:47:47.157938,95
2021-12-24 14:47:47.157944,58
2021-12-24 14:47:47.157951,67
2021-12-24 14:47:47.157957,102
2021-12-24 14:47:47.157963,125
2021-12-24 14:47:47.157969,141
2021-12-24 14:47:47.157976,151
2021-12-24 14:47:47.157982,162
2021-12-24 14:47:47.157988,190
2021-12-24 14:47:47.382041,228
2021-12-24 14:47:47.382070,274
2021-12-24 14:47:47.382082,318
2021-12-24 14:47:47.382092,356
2021-12-24 14:47:47.382102,372
2021-12-24 14:47:47.382112,367
2021-12-24 14:47:47.382122,365
2021-12-24 14:47:47.382131,360
2021-12-24 14:47:47.382141,330
2021-12-24 14:47:47.382151,283
2021-12-24 14:47:47.382161,204
2021-12-24 14:47:47.382171,102
2021-12-24 14:47:47.382180,39
2021-12-24 14:47:47.382196,13
2021-12-24 14:47:47.382206,-51
2021-12-24 14:47:47.382216,-146
2021-12-24 14:47:47.382225,-197
2021-12-24 14:47:47.382235,-204
2021-12-24 14:47:47.382245,-204
2021-12-24 14:47:47.382254,-214
2021-12-24 14:47:47.382264,-221
2021-12-24 14:47:47.382274,-209
2021-12-24 14:47:47.382283,-200
2021-12-24 14:47:47.382293,-195
2021-12-24 14:47:47.382303,-172
2021-12-24 14:47:47.382312,-144
2021-12-24 14:47:47.382322,-141
2021-12-24 14:47:47.382332,-144
2021-12-24 14:47:47.382341,-125
2021-12-24 14:47:47.382351,-104
2021-12-24 14:47:47.608323,-86
2021-12-24 14:47:47.608344,-58
2021-12-24 14:47:47.608351,-41
2021-12-24 14:47:47.608358,-65
2021-12-24 14:47:47.608365,-93
2021-12-24 14:47:47.608372,-83
2021-12-24 14:47:47.608379,-53
2021-12-24 14:47:47.608385,-46
2021-12-24 14:47:47.608391,-41
2021-12-24 14:47:47.608397,-41
2021-12-24 14:47:47.608404,-67
2021-12-24 14:47:47.608410,-76
2021-12-24 14:47:47.608416,-58
2021-12-24 14:47:47.608422,-44
2021-12-24 14:47:47.608428,-30
2021-12-24 14:47:47.608434,-20
2021-12-24 14:47:47.608440,-27
2021-12-24 14:47:47.608446,-30
2021-12-24 14:47:47.608453,-25
2021-12-24 14:47:47.608459,-9
2021-12-24 14:47:47.608465,11
2021-12-24 14:47:47.608471,0
2021-12-24 14:47:47.608478,-25
2021-12-24 14:47:47.608484,-20
2021-12-24 14:47:47.608490,-4
2021-12-24 14:47:47.608496,6
2021-12-24 14:47:47.608503,27
2021-12-24 14:47:47.608509,39
2021-12-24 14:47:47.608515,34
2021-12-24 14:47:47.608521,55
2021-12-24 14:47:47.832852,79
2021-12-24 14:47:47.832882,74
2021-12-24 14:47:47.832893,62
2021-12-24 14:47:47.832903,51
2021-12-24 14:47:47.832913,25
2021-12-24 14:47:47.832922,16
2021-12-24 14:47:47.832932,32
2021-12-24 14:47:47.832942,44
2021-12-24 14:47:47.832951,27
2021-12-24 14:47:47.832961,-20
2021-12-24 14:47:47.832971,-58
2021-12-24 14:47:47.832980,-51
2021-12-24 14:47:47.832990,-62
2021-12-24 14:47:47.832999,-55
2021-12-24 14:47:47.833009,109
2021-12-24 14:47:47.833019,474
2021-12-24 14:47:47.833028,830
2021-12-24 14:47:47.833047,586
2021-12-24 14:47:47.833057,-425
2021-12-24 14:47:47.833066,-965
2021-12-24 14:47:47.833076,-409
2021-12-24 14:47:47.833086,-25
2021-12-24 14:47:47.833096,-207
2021-12-24 14:47:47.833105,-174
2021-12-24 14:47:47.833115,-34
2021-12-24 14:47:47.833125,-76
2021-12-24 14:47:47.833134,-90
2021-12-24 14:47:47.833144,-51
2021-12-24 14:47:47.833153,-48
2021-12-24 14:47:47.833163,-32
2021-12-24 14:47:48.057937,6
2021-12-24 14:47:48.057966,44
2021-12-24 14:47:48.057978,55
2021-12-24 14:47:48.057988,55
2021-12-24 14:47:48.057997,88
2021-12-24 14:47:48.058007,141
2021-12-24 14:47:48.058016,179
2021-12-24 14:47:48.058026,211
2021-12-24 14:47:48.058035,232
2021-12-24 14:47:48.058045,239
2021-12-24 14:47:48.058054,260
2021-12-24 14:47:48.058064,295
2021-12-24 14:47:48.058074,316
2021-12-24 14:47:48.058083,318
2021-12-24 14:47:48.058093,281
2021-12-24 14:47:48.058103,232
2021-12-24 14:47:48.058112,209
2021-12-24 14:47:48.058122,172
2021-12-24 14:47:48.058132,107
2021-12-24 14:47:48.058142,58
2021-12-24 14:47:48.058151,13
2021-12-24 14:47:48.058161,-46
2021-12-24 14:47:48.058170,-74
2021-12-24 14:47:48.058180,-76
2021-12-24 14:47:48.058189,-81
2021-12-24 14:47:48.058199,-95
2021-12-24 14:47:48.058209,-116
2021-12-24 14:47:48.058218,-123
2021-12-24 14:47:48.058228,-97
2021-12-24 14:47:48.058237,-72
2021-12-24 14:47:48.282868,-53
2021-12-24 14:47:48.282888,-32
2021-12-24 14:47:48.282896,-25
2021-12-24 14:47:48.282902,-48
2021-12-24 14:47:48.282909,-46
2021-12-24 14:47:48.282915,11
2021-12-24 14:47:48.282922,25
2021-12-24 14:47:48.282928,-20
2021-12-24 14:47:48.282934,-37
2021-12-24 14:47:48.282941,-27
2021-12-24 14:47:48.282947,-13
2021-12-24 14:47:48.282954,0
2021-12-24 14:47:48.282960,6
2021-12-24 14:47:48.282966,-4
2021-12-24 14:47:48.282973,-27
2021-12-24 14:47:48.282979,-30
2021-12-24 14:47:48.282985,-13
2021-12-24 14:47:48.282992,-2
2021-12-24 14:47:48.282998,0
2021-12-24 14:47:48.283004,-4
2021-12-24 14:47:48.283011,-11
2021-12-24 14:47:48.283017,-6
2021-12-24 14:47:48.283023,4
2021-12-24 14:47:48.283030,20
2021-12-24 14:47:48.283036,25
2021-12-24 14:47:48.283042,0
2021-12-24 14:47:48.283049,-25
2021-12-24 14:47:48.283055,-37
2021-12-24 14:47:48.283061,-83
2021-12-24 14:47:48.283074,-109
2021-12-24 14:47:48.508354,-53
2021-12-24 14:47:48.508384,-25
2021-12-24 14:47:48.508395,-34
2021-12-24 14:47:48.508405,-37
2021-12-24 14:47:48.508415,-67
2021-12-24 14:47:48.508425,-90
2021-12-24 14:47:48.508435,-111
2021-12-24 14:47:48.508444,-151
2021-12-24 14:47:48.508454,-146
2021-12-24 14:47:48.508463,-116
2021-12-24 14:47:48.508473,-118
2021-12-24 14:47:48.508482,-116
2021-12-24 14:47:48.508492,-109
2021-12-24 14:47:48.508502,-139
2021-12-24 14:47:48.508511,-153
2021-12-24 14:47:48.508521,-137
2021-12-24 14:47:48.508530,-130
2021-12-24 14:47:48.508540,-44
2021-12-24 14:47:48.508550,216
2021-12-24 14:47:48.508559,560
2021-12-24 14:47:48.508569,567
2021-12-24 14:47:48.508579,-118
2021-12-24 14:47:48.508588,-821
2021-12-24 14:47:48.508598,-574
2021-12-24 14:47:48.508608,0
2021-12-24 14:47:48.508617,-16
2021-12-24 14:47:48.508627,-125
2021-12-24 14:47:48.508637,16
2021-12-24 14:47:48.508646,37
2021-12-24 14:47:48.508656,-32
2021-12-24 14:47:48.732918,-16
2021-12-24 14:47:48.732947,9
2021-12-24 14:47:48.732959,27
2021-12-24 14:47:48.732969,65
2021-12-24 14:47:48.732979,86
2021-12-24 14:47:48.732989,95
2021-12-24 14:47:48.732998,100
2021-12-24 14:47:48.733008,102
2021-12-24 14:47:48.733018,116
2021-12-24 14:47:48.733027,139
2021-12-24 14:47:48.733037,186
2021-12-24 14:47:48.733047,235
2021-12-24 14:47:48.733056,246
2021-12-24 14:47:48.733066,258
2021-12-24 14:47:48.733075,281
2021-12-24 14:47:48.733085,276
2021-12-24 14:47:48.733095,304
2021-12-24 14:47:48.733104,372
2021-12-24 14:47:48.733114,365
2021-12-24 14:47:48.733123,274
2021-12-24 14:47:48.733133,195
2021-12-24 14:47:48.733142,155
2021-12-24 14:47:48.733152,144
2021-12-24 14:47:48.733161,111
2021-12-24 14:47:48.733171,58
2021-12-24 14:47:48.733180,18
2021-12-24 14:47:48.733190,-4
2021-12-24 14:47:48.733200,-27
2021-12-24 14:47:48.733209,-39
2021-12-24 14:47:48.733219,-46
2021-12-24 14:47:48.958348,-58
2021-12-24 14:47:48.958378,-60
2021-12-24 14:47:48.958389,-86
2021-12-24 14:47:48.958399,-121
2021-12-24 14:47:48.958409,-97
2021-12-24 14:47:48.958419,-74
2021-12-24 14:47:48.958429,-111
2021-12-24 14:47:48.958439,-102
2021-12-24 14:47:48.958449,-62
2021-12-24 14:47:48.958458,-83
2021-12-24 14:47:48.958468,-88
2021-12-24 14:47:48.958478,-62
2021-12-24 14:47:48.958488,-81
2021-12-24 14:47:48.958498,-83
2021-12-24 14:47:48.958508,-53
2021-12-24 14:47:48.958518,-58
2021-12-24 14:47:48.958527,-72
2021-12-24 14:47:48.958537,-60
2021-12-24 14:47:48.958547,-46
2021-12-24 14:47:48.958557,-30
2021-12-24 14:47:48.958574,-18
2021-12-24 14:47:48.958585,-9
2021-12-24 14:47:48.958595,-2
2021-12-24 14:47:48.958605,-4
2021-12-24 14:47:48.958615,0
2021-12-24 14:47:48.958625,4
2021-12-24 14:47:48.958635,-23
2021-12-24 14:47:48.958644,-39
2021-12-24 14:47:48.958654,-9
2021-12-24 14:47:48.958664,23
2021-12-24 14:47:49.183304,16
2021-12-24 14:47:49.183334,-11
2021-12-24 14:47:49.183345,-41
2021-12-24 14:47:49.183355,-86
2021-12-24 14:47:49.183365,-146
2021-12-24 14:47:49.183375,-183
2021-12-24 14:47:49.183384,-183
2021-12-24 14:47:49.183394,-162
2021-12-24 14:47:49.183404,-151
2021-12-24 14:47:49.183413,-158
2021-12-24 14:47:49.183423,-172
2021-12-24 14:47:49.183432,-176
2021-12-24 14:47:49.183442,-162
2021-12-24 14:47:49.183451,-153
2021-12-24 14:47:49.183461,-155
2021-12-24 14:47:49.183470,-128
2021-12-24 14:47:49.183480,32
2021-12-24 14:47:49.183490,367
2021-12-24 14:47:49.183499,656
2021-12-24 14:47:49.183509,335
2021-12-24 14:47:49.183518,-586
2021-12-24 14:47:49.183528,-944
2021-12-24 14:47:49.183537,-349
2021-12-24 14:47:49.183547,34
2021-12-24 14:47:49.183557,-107
2021-12-24 14:47:49.183566,-69
2021-12-24 14:47:49.183576,74
2021-12-24 14:47:49.183585,39
2021-12-24 14:47:49.183595,18
2021-12-24 14:47:49.183604,53
2021-12-24 14:47:49.451567,51
2021-12-24 14:47:49.451597,72
2021-12-24 14:47:49.451609,130
2021-12-24 14:47:49.451619,118
2021-12-24 14:47:49.451629,69
2021-12-24 14:47:49.451638,81
2021-12-24 14:47:49.451648,116
2021-12-24 14:47:49.451657,116
2021-12-24 14:47:49.451667,107
2021-12-24 14:47:49.451676,102
2021-12-24 14:47:49.451686,107
2021-12-24 14:47:49.451696,141
2021-12-24 14:47:49.451705,195
2021-12-24 14:47:49.451715,230
2021-12-24 14:47:49.451725,251
2021-12-24 14:47:49.451734,249
2021-12-24 14:47:49.451744,216
2021-12-24 14:47:49.451753,183
2021-12-24 14:47:49.451763,165
2021-12-24 14:47:49.451773,125
2021-12-24 14:47:49.451782,51
2021-12-24 14:47:49.451792,-9
2021-12-24 14:47:49.451801,-48
2021-12-24 14:47:49.451811,-86
2021-12-24 14:47:49.451820,-97
2021-12-24 14:47:49.451830,-83
2021-12-24 14:47:49.451839,-93
2021-12-24 14:47:49.451849,-134
2021-12-24 14:47:49.451858,-144
2021-12-24 14:47:49.451868,-107
2021-12-24 14:47:49.723072,-83
2021-12-24 14:47:49.723094,-72
2021-12-24 14:47:49.723101,-62
2021-12-24 14:47:49.723108,-93
2021-12-24 14:47:49.723114,-123
2021-12-24 14:47:49.723121,-95
2021-12-24 14:47:49.723127,-55
2021-12-24 14:47:49.723133,-51
2021-12-24 14:47:49.723139,-90
2021-12-24 14:47:49.723146,-144
2021-12-24 14:47:49.723152,-153
2021-12-24 14:47:49.723158,-107
2021-12-24 14:47:49.723165,-51
2021-12-24 14:47:49.723171,-58
2021-12-24 14:47:49.723177,-102
2021-12-24 14:47:49.723184,-83
2021-12-24 14:47:49.723190,-37
2021-12-24 14:47:49.723196,-25
2021-12-24 14:47:49.723203,-16
2021-12-24 14:47:49.723209,-9
2021-12-24 14:47:49.723215,-16
2021-12-24 14:47:49.723222,-16
2021-12-24 14:47:49.723232,11
2021-12-24 14:47:49.723239,51
2021-12-24 14:47:49.723245,60
2021-12-24 14:47:49.723251,48
2021-12-24 14:47:49.723258,39
2021-12-24 14:47:49.723264,25
2021-12-24 14:47:49.723270,20
2021-12-24 14:47:49.723276,39
2021-12-24 14:47:49.903108,60
2021-12-24 14:47:49.903137,67
2021-12-24 14:47:49.903149,27
2021-12-24 14:47:49.903159,-23
2021-12-24 14:47:49.903169,-11
2021-12-24 14:47:49.903179,20
2021-12-24 14:47:49.903188,11
2021-12-24 14:47:49.903198,-16
2021-12-24 14:47:49.903207,-53
2021-12-24 14:47:49.903217,-90
2021-12-24 14:47:49.903226,32
2021-12-24 14:47:49.903236,367
2021-12-24 14:47:49.903246,563
2021-12-24 14:47:49.903255,125
2021-12-24 14:47:49.903265,-714
2021-12-24 14:47:49.903275,-893
2021-12-24 14:47:49.903284,-314
2021-12-24 14:47:49.903294,-72
2021-12-24 14:47:49.903303,-209
2021-12-24 14:47:49.903312,-118
2021-12-24 14:47:49.903322,-32
2021-12-24 14:47:49.903331,-121
2021-12-24 14:47:49.903341,-111
2021-12-24 14:47:49.903350,-32
2021-12-24 14:47:49.903360,-9
2021-12-24 14:47:49.903370,11
2021-12-24 14:47:49.903379,34
2021-12-24 14:47:49.903389,32
2021-12-24 14:47:49.903398,58
2021-12-24 14:47:49.903408,111
2021-12-24 14:47:50.217926,144
2021-12-24 14:47:50.217955,162
2021-12-24 14:47:50.217967,179
2021-12-24 14:47:50.217977,193
2021-12-24 14:47:50.217986,235
2021-12-24 14:47:50.217996,281
2021-12-24 14:47:50.218005,302
2021-12-24 14:47:50.218015,290
2021-12-24 14:47:50.218024,256
2021-12-24 14:47:50.218034,235
2021-12-24 14:47:50.218043,239
2021-12-24 14:47:50.218053,211
2021-12-24 14:47:50.218063,137
2021-12-24 14:47:50.218072,65
2021-12-24 14:47:50.218082,0
2021-12-24 14:47:50.218091,-60
2021-12-24 14:47:50.218101,-88
2021-12-24 14:47:50.218111,-102
2021-12-24 14:47:50.218120,-134
2021-12-24 14:47:50.218130,-158
2021-12-24 14:47:50.218139,-162
2021-12-24 14:47:50.218149,-167
2021-12-24 14:47:50.218158,-151
2021-12-24 14:47:50.218168,-118
2021-12-24 14:47:50.218177,-102
2021-12-24 14:47:50.218187,-86
2021-12-24 14:47:50.218196,-65
2021-12-24 14:47:50.218206,-55
2021-12-24 14:47:50.218215,-55
2021-12-24 14:47:50.218225,-53
2021-12-24 14:47:50.353339,-48
2021-12-24 14:47:50.353370,-51
2021-12-24 14:47:50.353381,-51
2021-12-24 14:47:50.353391,-37
2021-12-24 14:47:50.353400,-30
2021-12-24 14:47:50.353410,-4
2021-12-24 14:47:50.353420,13
2021-12-24 14:47:50.353429,-9
2021-12-24 14:47:50.353439,-23
2021-12-24 14:47:50.353448,-41
2021-12-24 14:47:50.353458,-41
2021-12-24 14:47:50.353468,0
2021-12-24 14:47:50.353478,2
2021-12-24 14:47:50.353487,-18
2021-12-24 14:47:50.353497,-25
2021-12-24 14:47:50.353507,-39
2021-12-24 14:47:50.353516,-32
2021-12-24 14:47:50.353526,-4
2021-12-24 14:47:50.353535,-2
2021-12-24 14:47:50.353545,-27
2021-12-24 14:47:50.353554,-62
2021-12-24 14:47:50.353564,-65
2021-12-24 14:47:50.353573,-46
2021-12-24 14:47:50.353583,-27
2021-12-24 14:47:50.353592,-39
2021-12-24 14:47:50.353602,-69
2021-12-24 14:47:50.353611,-53
2021-12-24 14:47:50.353621,-20
2021-12-24 14:47:50.353630,-46
2021-12-24 14:47:50.353640,-39
2021-12-24 14:47:50.667721,132
2021-12-24 14:47:50.667749,444
2021-12-24 14:47:50.667761,684
2021-12-24 14:47:50.667771,444
2021-12-24 14:47:50.667780,-318
2021-12-24 14:47:50.667798,-716
2021-12-24 14:47:50.667808,-297
2021-12-24 14:47:50.667818,30
2021-12-24 14:47:50.667828,-81
2021-12-24 14:47:50.667837,-53
2021-12-24 14:47:50.667849,69
2021-12-24 14:47:50.667859,16
2021-12-24 14:47:50.667869,-41
2021-12-24 14:47:50.667878,-18
2021-12-24 14:47:50.667888,-20
2021-12-24 14:47:50.667898,-51
2021-12-24 14:47:50.667907,-60
2021-12-24 14:47:50.667917,-55
2021-12-24 14:47:50.667926,-34
2021-12-24 14:47:50.667936,-4
2021-12-24 14:47:50.667946,30
2021-12-24 14:47:50.667955,69
2021-12-24 14:47:50.667965,100
2021-12-24 14:47:50.667975,116
2021-12-24 14:47:50.667984,151
2021-12-24 14:47:50.667994,193
2021-12-24 14:47:50.668003,211
2021-12-24 14:47:50.668013,221
2021-12-24 14:47:50.668023,230
2021-12-24 14:47:50.668032,242
2021-12-24 14:47:50.802940,249
2021-12-24 14:47:50.802970,223
2021-12-24 14:47:50.802982,181
2021-12-24 14:47:50.802991,146
2021-12-24 14:47:50.803001,107
2021-12-24 14:47:50.803010,41
2021-12-24 14:47:50.803020,-16
2021-12-24 14:47:50.803029,-34
2021-12-24 14:47:50.803038,-34
2021-12-24 14:47:50.803048,-53
2021-12-24 14:47:50.803057,-81
2021-12-24 14:47:50.803066,-102
2021-12-24 14:47:50.803076,-114
2021-12-24 14:47:50.803085,-93
2021-12-24 14:47:50.803095,-72
2021-12-24 14:47:50.803104,-67
2021-12-24 14:47:50.803113,-41
2021-12-24 14:47:50.803123,-34
2021-12-24 14:47:50.803132,-65
2021-12-24 14:47:50.803141,-67
2021-12-24 14:47:50.803151,-46
2021-12-24 14:47:50.803160,-41
2021-12-24 14:47:50.803170,-39
2021-12-24 14:47:50.803179,-44
2021-12-24 14:47:50.803188,-60
2021-12-24 14:47:50.803198,-79
2021-12-24 14:47:50.803207,-116
2021-12-24 14:47:50.803216,-132
2021-12-24 14:47:50.803226,-121
2021-12-24 14:47:50.803235,-114
2021-12-24 14:47:51.027928,-76
2021-12-24 14:47:51.027947,-27
2021-12-24 14:47:51.027955,-18
2021-12-24 14:47:51.027962,-30
2021-12-24 14:47:51.027968,-41
2021-12-24 14:47:51.027975,-67
2021-12-24 14:47:51.027981,-86
2021-12-24 14:47:51.027987,-60
2021-12-24 14:47:51.027994,-34
2021-12-24 14:47:51.028000,-32
2021-12-24 14:47:51.028006,-55
2021-12-24 14:47:51.028013,-83
2021-12-24 14:47:51.028019,-51
2021-12-24 14:47:51.028025,-2
2021-12-24 14:47:51.028032,6
2021-12-24 14:47:51.028038,6
2021-12-24 14:47:51.028045,0
2021-12-24 14:47:51.028051,9
2021-12-24 14:47:51.028057,102
2021-12-24 14:47:51.028063,295
2021-12-24 14:47:51.028070,530
2021-12-24 14:47:51.028076,572
2021-12-24 14:47:51.028082,79
2021-12-24 14:47:51.028089,-581
2021-12-24 14:47:51.028095,-505
2021-12-24 14:47:51.028101,39
2021-12-24 14:47:51.028107,114
2021-12-24 14:47:51.028114,-44
2021-12-24 14:47:51.028120,58
2021-12-24 14:47:51.028126,139
2021-12-24 14:47:51.253434,93
2021-12-24 14:47:51.253464,111
2021-12-24 14:47:51.253476,155
2021-12-24 14:47:51.253486,148
2021-12-24 14:47:51.253495,123
2021-12-24 14:47:51.253505,123
2021-12-24 14:47:51.253515,148
2021-12-24 14:47:51.253524,176
2021-12-24 14:47:51.253534,200
2021-12-24 14:47:51.253543,202
2021-12-24 14:47:51.253553,195
2021-12-24 14:47:51.253563,218
2021-12-24 14:47:51.253572,251
2021-12-24 14:47:51.253582,258
2021-12-24 14:47:51.253592,256
2021-12-24 14:47:51.253601,256
2021-12-24 14:47:51.253611,249
2021-12-24 14:47:51.253621,249
2021-12-24 14:47:51.253630,246
2021-12-24 14:47:51.253640,221
2021-12-24 14:47:51.253650,176
2021-12-24 14:47:51.253660,125
2021-12-24 14:47:51.253669,58
2021-12-24 14:47:51.253679,4
2021-12-24 14:47:51.253688,-23
2021-12-24 14:47:51.253698,-67
2021-12-24 14:47:51.253708,-116
2021-12-24 14:47:51.253717,-139
2021-12-24 14:47:51.253727,-144
2021-12-24 14:47:51.253736,-148
2021-12-24 14:47:51.566772,-151
2021-12-24 14:47:51.566800,-160
2021-12-24 14:47:51.566808,-197
2021-12-24 14:47:51.566815,-246
2021-12-24 14:47:51.566821,-258
2021-12-24 14:47:51.566827,-232
2021-12-24 14:47:51.566833,-209
2021-12-24 14:47:51.566839,-193
2021-12-24 14:47:51.566845,-183
2021-12-24 14:47:51.566852,-209
2021-12-24 14:47:51.566858,-225
2021-12-24 14:47:51.566864,-193
2021-12-24 14:47:51.566870,-160
2021-12-24 14:47:51.566876,-153
2021-12-24 14:47:51.566882,-160
2021-12-24 14:47:51.566889,-181
2021-12-24 14:47:51.566895,-181
2021-12-24 14:47:51.566901,-134
2021-12-24 14:47:51.566907,-86
2021-12-24 14:47:51.566913,-65
2021-12-24 14:47:51.566919,-76
2021-12-24 14:47:51.566926,-109
2021-12-24 14:47:51.566932,-90
2021-12-24 14:47:51.566938,-39
2021-12-24 14:47:51.566944,-48
2021-12-24 14:47:51.566950,-62
2021-12-24 14:47:51.566957,-51
2021-12-24 14:47:51.566963,-58
2021-12-24 14:47:51.566969,-46
2021-12-24 14:47:51.566975,-16
2021-12-24 14:47:51.793098,-9
2021-12-24 14:47:51.793118,-18
2021-12-24 14:47:51.793126,-18
2021-12-24 14:47:51.793132,-23
2021-12-24 14:47:51.793138,-34
2021-12-24 14:47:51.793145,13
2021-12-24 14:47:51.793151,202
2021-12-24 14:47:51.793157,495
2021-12-24 14:47:51.793163,593
2021-12-24 14:47:51.793170,111
2021-12-24 14:47:51.793176,-607
2021-12-24 14:47:51.793183,-616
2021-12-24 14:47:51.793189,-51
2021-12-24 14:47:51.793195,93
2021-12-24 14:47:51.793201,-86
2021-12-24 14:47:51.793207,-23
2021-12-24 14:47:51.793214,88
2021-12-24 14:47:51.793220,51
2021-12-24 14:47:51.793226,58
2021-12-24 14:47:51.793232,111
2021-12-24 14:47:51.793239,97
2021-12-24 14:47:51.793245,88
2021-12-24 14:47:51.793251,132
2021-12-24 14:47:51.793257,160
2021-12-24 14:47:51.793263,174
2021-12-24 14:47:51.793270,209
2021-12-24 14:47:51.793276,221
2021-12-24 14:47:51.793282,211
2021-12-24 14:47:51.793288,239
2021-12-24 14:47:51.793294,286
2021-12-24 14:47:52.017520,309
2021-12-24 14:47:52.017550,335
2021-12-24 14:47:52.017562,344
2021-12-24 14:47:52.017573,318
2021-12-24 14:47:52.017583,309
2021-12-24 14:47:52.017592,321
2021-12-24 14:47:52.017602,297
2021-12-24 14:47:52.017612,235
2021-12-24 14:47:52.017621,155
2021-12-24 14:47:52.017631,102
2021-12-24 14:47:52.017641,79
2021-12-24 14:47:52.017650,44
2021-12-24 14:47:52.017660,-6
2021-12-24 14:47:52.017669,-58
2021-12-24 14:47:52.017679,-97
2021-12-24 14:47:52.017689,-107
2021-12-24 14:47:52.017699,-88
2021-12-24 14:47:52.017708,-76
2021-12-24 14:47:52.017718,-86
2021-12-24 14:47:52.017728,-102
2021-12-24 14:47:52.017737,-137
2021-12-24 14:47:52.017746,-153
2021-12-24 14:47:52.017756,-118
2021-12-24 14:47:52.017765,-97
2021-12-24 14:47:52.017775,-121
2021-12-24 14:47:52.017784,-139
2021-12-24 14:47:52.017794,-155
2021-12-24 14:47:52.017803,-186
2021-12-24 14:47:52.017813,-209
2021-12-24 14:47:52.017822,-223
2021-12-24 14:47:52.198441,-223
2021-12-24 14:47:52.198471,-230
2021-12-24 14:47:52.198482,-237
2021-12-24 14:47:52.198492,-211
2021-12-24 14:47:52.198502,-176
2021-12-24 14:47:52.198512,-153
2021-12-24 14:47:52.198521,-148
2021-12-24 14:47:52.198531,-151
2021-12-24 14:47:52.198540,-155
2021-12-24 14:47:52.198550,-155
2021-12-24 14:47:52.198559,-144
2021-12-24 14:47:52.198569,-141
2021-12-24 14:47:52.198578,-151
2021-12-24 14:47:52.198588,-148
2021-12-24 14:47:52.198598,-146
2021-12-24 14:47:52.198607,-151
2021-12-24 14:47:52.198617,-134
2021-12-24 14:47:52.198626,-107
2021-12-24 14:47:52.198636,-88
2021-12-24 14:47:52.198645,-88
2021-12-24 14:47:52.198655,-132
2021-12-24 14:47:52.198665,-172
2021-12-24 14:47:52.198674,-67
2021-12-24 14:47:52.198684,267
2021-12-24 14:47:52.198693,658
2021-12-24 14:47:52.198703,546
2021-12-24 14:47:52.198712,-314
2021-12-24 14:47:52.198722,-958
2021-12-24 14:47:52.198731,-505
2021-12-24 14:47:52.198741,100
2021-12-24 14:47:52.423442,-25
2021-12-24 14:47:52.423472,-144
2021-12-24 14:47:52.423483,55
2021-12-24 14:47:52.423493,86
2021-12-24 14:47:52.423503,-2
2021-12-24 14:47:52.423512,34
2021-12-24 14:47:52.423522,86
2021-12-24 14:47:52.423532,72
2021-12-24 14:47:52.423541,86
2021-12-24 14:47:52.423551,55
2021-12-24 14:47:52.423561,39
2021-12-24 14:47:52.423581,169
2021-12-24 14:47:52.423591,186
2021-12-24 14:47:52.423600,62
2021-12-24 14:47:52.423610,86
2021-12-24 14:47:52.423619,202
2021-12-24 14:47:52.423629,218
2021-12-24 14:47:52.423638,216
2021-12-24 14:47:52.423648,260
2021-12-24 14:47:52.423658,230
2021-12-24 14:47:52.423667,111
2021-12-24 14:47:52.423677,62
2021-12-24 14:47:52.423687,123
2021-12-24 14:47:52.423696,207
2021-12-24 14:47:52.423706,239
2021-12-24 14:47:52.423715,172
2021-12-24 14:47:52.423725,97
2021-12-24 14:47:52.423734,90
2021-12-24 14:47:52.423744,18
2021-12-24 14:47:52.423753,-93
2021-12-24 14:47:52.692354,-114
2021-12-24 14:47:52.692373,-90
2021-12-24 14:47:52.692381,-67
2021-12-24 14:47:52.692388,-79
2021-12-24 14:47:52.692394,-130
2021-12-24 14:47:52.692400,-204
2021-12-24 14:47:52.692406,-265
2021-12-24 14:47:52.692413,-193
2021-12-24 14:47:52.692419,-83
2021-12-24 14:47:52.692425,-62
2021-12-24 14:47:52.692431,-62
2021-12-24 14:47:52.692438,-102
2021-12-24 14:47:52.692444,-172
2021-12-24 14:47:52.692450,-111
2021-12-24 14:47:52.692456,-58
2021-12-24 14:47:52.692462,-169
2021-12-24 14:47:52.692469,-283
2021-12-24 14:47:52.692475,-293
2021-12-24 14:47:52.692481,-230
2021-12-24 14:47:52.692487,-158
2021-12-24 14:47:52.692494,-116
2021-12-24 14:47:52.692500,-102
2021-12-24 14:47:52.692506,-90
2021-12-24 14:47:52.692512,-41
2021-12-24 14:47:52.692518,16
2021-12-24 14:47:52.692524,-4
2021-12-24 14:47:52.692530,-60
2021-12-24 14:47:52.692537,-72
2021-12-24 14:47:52.692543,-97
2021-12-24 14:47:52.692549,-165
2021-12-24 14:47:52.873506,-221
2021-12-24 14:47:52.873537,-202
2021-12-24 14:47:52.873548,-107
2021-12-24 14:47:52.873558,-118
2021-12-24 14:47:52.873568,-253
2021-12-24 14:47:52.873577,-274
2021-12-24 14:47:52.873587,-244
2021-12-24 14:47:52.873597,-267
2021-12-24 14:47:52.873606,-114
2021-12-24 14:47:52.873616,304
2021-12-24 14:47:52.873626,679
2021-12-24 14:47:52.873636,418
2021-12-24 14:47:52.873646,-591
2021-12-24 14:47:52.873655,-1154
2021-12-24 14:47:52.873665,-584
2021-12-24 14:47:52.873675,-100
2021-12-24 14:47:52.873684,-267
2021-12-24 14:47:52.873694,-288
2021-12-24 14:47:52.873703,-134
2021-12-24 14:47:52.873713,-190
2021-12-24 14:47:52.873723,-235
2021-12-24 14:47:52.873732,-158
2021-12-24 14:47:52.873742,-151
2021-12-24 14:47:52.873751,-176
2021-12-24 14:47:52.873761,-123
2021-12-24 14:47:52.873770,-51
2021-12-24 14:47:52.873780,-25
2021-12-24 14:47:52.873790,-16
2021-12-24 14:47:52.873799,13
2021-12-24 14:47:52.873809,55
2021-12-24 14:47:53.098073,102
2021-12-24 14:47:53.098094,151
2021-12-24 14:47:53.098102,200
2021-12-24 14:47:53.098108,225
2021-12-24 14:47:53.098114,225
2021-12-24 14:47:53.098121,221
2021-12-24 14:47:53.098127,221
2021-12-24 14:47:53.098133,204
2021-12-24 14:47:53.098139,186
2021-12-24 14:47:53.098146,151
2021-12-24 14:47:53.098152,74
2021-12-24 14:47:53.098158,4
2021-12-24 14:47:53.098164,-46
2021-12-24 14:47:53.098170,-97
2021-12-24 14:47:53.098177,-144
2021-12-24 14:47:53.098183,-181
2021-12-24 14:47:53.098189,-221
2021-12-24 14:47:53.098195,-239
2021-12-24 14:47:53.098201,-225
2021-12-24 14:47:53.098208,-204
2021-12-24 14:47:53.098214,-188
2021-12-24 14:47:53.098220,-186
2021-12-24 14:47:53.098226,-176
2021-12-24 14:47:53.098232,-151
2021-12-24 14:47:53.098238,-134
2021-12-24 14:47:53.098244,-125
2021-12-24 14:47:53.098251,-107
2021-12-24 14:47:53.098257,-107
2021-12-24 14:47:53.098263,-111
2021-12-24 14:47:53.098269,-90
2021-12-24 14:47:53.457122,-72
2021-12-24 14:47:53.457142,-74
2021-12-24 14:47:53.457149,-83
2021-12-24 14:47:53.457156,-107
2021-12-24 14:47:53.457162,-116
2021-12-24 14:47:53.457168,-72
2021-12-24 14:47:53.457174,-32
2021-12-24 14:47:53.457181,-32
2021-12-24 14:47:53.457187,-62
2021-12-24 14:47:53.457193,-121
2021-12-24 14:47:53.457199,-160
2021-12-24 14:47:53.457205,-139
2021-12-24 14:47:53.457211,-104
2021-12-24 14:47:53.457218,-79
2021-12-24 14:47:53.457224,-74
2021-12-24 14:47:53.457230,-93
2021-12-24 14:47:53.457236,-97
2021-12-24 14:47:53.457242,-72
2021-12-24 14:47:53.457248,-51
2021-12-24 14:47:53.457255,-41
2021-12-24 14:47:53.457261,-41
2021-12-24 14:47:53.457267,-88
2021-12-24 14:47:53.457273,-109
2021-12-24 14:47:53.457279,88
2021-12-24 14:47:53.457286,549
2021-12-24 14:47:53.457292,989
2021-12-24 14:47:53.457298,700
2021-12-24 14:47:53.457304,-519
2021-12-24 14:47:53.457311,-1228
2021-12-24 14:47:53.457317,-612
2021-12-24 14:47:53.637084,-76
2021-12-24 14:47:53.637113,-239
2021-12-24 14:47:53.637125,-249
2021-12-24 14:47:53.637135,-90
2021-12-24 14:47:53.637144,-123
2021-12-24 14:47:53.637154,-134
2021-12-24 14:47:53.637163,-51
2021-12-24 14:47:53.637173,-41
2021-12-24 14:47:53.637190,-72
2021-12-24 14:47:53.637200,-60
2021-12-24 14:47:53.637210,-46
2021-12-24 14:47:53.637219,-41
2021-12-24 14:47:53.637229,-9
2021-12-24 14:47:53.637238,32
2021-12-24 14:47:53.637248,46
2021-12-24 14:47:53.637258,65
2021-12-24 14:47:53.637267,123
2021-12-24 14:47:53.637277,186
2021-12-24 14:47:53.637286,225
2021-12-24 14:47:53.637296,246
2021-12-24 14:47:53.637306,237
2021-12-24 14:47:53.637315,211
2021-12-24 14:47:53.637325,211
2021-12-24 14:47:53.637335,211
2021-12-24 14:47:53.637344,179
2021-12-24 14:47:53.637354,128
2021-12-24 14:47:53.637363,51
2021-12-24 14:47:53.637373,-27
2021-12-24 14:47:53.637382,-76
2021-12-24 14:47:53.637392,-111
2021-12-24 14:47:53.862668,-137
2021-12-24 14:47:53.862691,-158
2021-12-24 14:47:53.862699,-181
2021-12-24 14:47:53.862706,-197
2021-12-24 14:47:53.862712,-188
2021-12-24 14:47:53.862718,-167
2021-12-24 14:47:53.862725,-153
2021-12-24 14:47:53.862731,-162
2021-12-24 14:47:53.862737,-188
2021-12-24 14:47:53.862744,-186
2021-12-24 14:47:53.862750,-153
2021-12-24 14:47:53.862756,-134
2021-12-24 14:47:53.862763,-144
2021-12-24 14:47:53.862769,-181
2021-12-24 14:47:53.862775,-207
2021-12-24 14:47:53.862782,-202
2021-12-24 14:47:53.862788,-195
2021-12-24 14:47:53.862794,-181
2021-12-24 14:47:53.862801,-153
2021-12-24 14:47:53.862807,-128
2021-12-24 14:47:53.862813,-114
2021-12-24 14:47:53.862819,-107
2021-12-24 14:47:53.862826,-97
2021-12-24 14:47:53.862832,-88
2021-12-24 14:47:53.862838,-88
2021-12-24 14:47:53.862845,-100
2021-12-24 14:47:53.862851,-114
2021-12-24 14:47:53.862857,-109
2021-12-24 14:47:53.862864,-86
2021-12-24 14:47:53.862870,-72
2021-12-24 14:47:54.042838,-86
2021-12-24 14:47:54.042858,-128
2021-12-24 14:47:54.042866,-144
2021-12-24 14:47:54.042873,-116
2021-12-24 14:47:54.042879,-97
2021-12-24 14:47:54.042885,-107
2021-12-24 14:47:54.042892,-121
2021-12-24 14:47:54.042898,-2
2021-12-24 14:47:54.042904,402
2021-12-24 14:47:54.042911,942
2021-12-24 14:47:54.042917,896
2021-12-24 14:47:54.042924,-190
2021-12-24 14:47:54.042930,-1103
2021-12-24 14:47:54.042936,-684
2021-12-24 14:47:54.042943,-58
2021-12-24 14:47:54.042949,-183
2021-12-24 14:47:54.042955,-267
2021-12-24 14:47:54.042961,-67
2021-12-24 14:47:54.042967,-74
2021-12-24 14:47:54.042974,-176
2021-12-24 14:47:54.042980,-148
2021-12-24 14:47:54.042986,-123
2021-12-24 14:47:54.042993,-144
2021-12-24 14:47:54.042999,-134
2021-12-24 14:47:54.043005,-107
2021-12-24 14:47:54.043011,-95
2021-12-24 14:47:54.043018,-67
2021-12-24 14:47:54.043024,-23
2021-12-24 14:47:54.043030,13
2021-12-24 14:47:54.043036,60
2021-12-24 14:47:54.268273,109
2021-12-24 14:47:54.268288,146
2021-12-24 14:47:54.268294,186
2021-12-24 14:47:54.268300,216
2021-12-24 14:47:54.268305,235
2021-12-24 14:47:54.268310,246
2021-12-24 14:47:54.268315,221
2021-12-24 14:47:54.268320,172
2021-12-24 14:47:54.268325,139
2021-12-24 14:47:54.268329,93
2021-12-24 14:47:54.268334,18
2021-12-24 14:47:54.268339,-51
2021-12-24 14:47:54.268345,-132
2021-12-24 14:47:54.268350,-209
2021-12-24 14:47:54.268355,-242
2021-12-24 14:47:54.268360,-258
2021-12-24 14:47:54.268364,-286
2021-12-24 14:47:54.268369,-304
2021-12-24 14:47:54.268374,-309
2021-12-24 14:47:54.268380,-300
2021-12-24 14:47:54.268385,-283
2021-12-24 14:47:54.268390,-267
2021-12-24 14:47:54.268395,-239
2021-12-24 14:47:54.268399,-216
2021-12-24 14:47:54.268404,-211
2021-12-24 14:47:54.268409,-197
2021-12-24 14:47:54.268414,-174
2021-12-24 14:47:54.268420,-162
2021-12-24 14:47:54.268425,-151
2021-12-24 14:47:54.268430,-139
2021-12-24 14:47:54.492913,-144
2021-12-24 14:47:54.492943,-137
2021-12-24 14:47:54.492955,-111
2021-12-24 14:47:54.492965,-88
2021-12-24 14:47:54.492975,-65
2021-12-24 14:47:54.492984,-65
2021-12-24 14:47:54.492994,-100
2021-12-24 14:47:54.493003,-139
2021-12-24 14:47:54.493013,-148
2021-12-24 14:47:54.493022,-146
2021-12-24 14:47:54.493032,-144
2021-12-24 14:47:54.493041,-151
2021-12-24 14:47:54.493051,-160
2021-12-24 14:47:54.493060,-146
2021-12-24 14:47:54.493070,-128
2021-12-24 14:47:54.493079,-125
2021-12-24 14:47:54.493089,-114
2021-12-24 14:47:54.493099,-102
2021-12-24 14:47:54.493108,-114
2021-12-24 14:47:54.493118,-134
2021-12-24 14:47:54.493128,-151
2021-12-24 14:47:54.493137,-83
2021-12-24 14:47:54.493147,244
2021-12-24 14:47:54.493157,833
2021-12-24 14:47:54.493166,1100
2021-12-24 14:47:54.493176,300
2021-12-24 14:47:54.493186,-891
2021-12-24 14:47:54.493195,-875
2021-12-24 14:47:54.493205,-83
2021-12-24 14:47:54.493215,27
2021-12-24 14:47:54.718010,-146
2021-12-24 14:47:54.718040,30
2021-12-24 14:47:54.718052,114
2021-12-24 14:47:54.718062,30
2021-12-24 14:47:54.718072,46
2021-12-24 14:47:54.718082,55
2021-12-24 14:47:54.718091,9
2021-12-24 14:47:54.718101,39
2021-12-24 14:47:54.718111,86
2021-12-24 14:47:54.718121,79
2021-12-24 14:47:54.718130,60
2021-12-24 14:47:54.718140,62
2021-12-24 14:47:54.718150,79
2021-12-24 14:47:54.718160,102
2021-12-24 14:47:54.718170,141
2021-12-24 14:47:54.718180,188
2021-12-24 14:47:54.718190,223
2021-12-24 14:47:54.718200,251
2021-12-24 14:47:54.718210,276
2021-12-24 14:47:54.718220,286
2021-12-24 14:47:54.718230,267
2021-12-24 14:47:54.718240,218
2021-12-24 14:47:54.718249,167
2021-12-24 14:47:54.718264,116
2021-12-24 14:47:54.718274,55
2021-12-24 14:47:54.718284,-11
2021-12-24 14:47:54.718294,-79
2021-12-24 14:47:54.718303,-137
2021-12-24 14:47:54.718313,-181
2021-12-24 14:47:54.718323,-207
2021-12-24 14:47:54.943405,-211
2021-12-24 14:47:54.943435,-204
2021-12-24 14:47:54.943446,-204
2021-12-24 14:47:54.943457,-223
2021-12-24 14:47:54.943466,-246
2021-12-24 14:47:54.943476,-246
2021-12-24 14:47:54.943485,-216
2021-12-24 14:47:54.943495,-188
2021-12-24 14:47:54.943504,-174
2021-12-24 14:47:54.943514,-176
2021-12-24 14:47:54.943523,-190
2021-12-24 14:47:54.943533,-186
2021-12-24 14:47:54.943542,-186
2021-12-24 14:47:54.943551,-209
2021-12-24 14:47:54.943561,-209
2021-12-24 14:47:54.943570,-183
2021-12-24 14:47:54.943580,-183
2021-12-24 14:47:54.943589,-181
2021-12-24 14:47:54.943599,-160
2021-12-24 14:47:54.943608,-148
2021-12-24 14:47:54.943617,-134
2021-12-24 14:47:54.943627,-104
2021-12-24 14:47:54.943636,-86
2021-12-24 14:47:54.943646,-86
2021-12-24 14:47:54.943655,-83
2021-12-24 14:47:54.943665,-65
2021-12-24 14:47:54.943674,-55
2021-12-24 14:47:54.943684,-72
2021-12-24 14:47:54.943693,-79
2021-12-24 14:47:54.943703,-53
2021-12-24 14:47:55.213557,-32
2021-12-24 14:47:55.213579,-23
2021-12-24 14:47:55.213587,-20
2021-12-24 14:47:55.213593,-51
2021-12-24 14:47:55.213599,-76
2021-12-24 14:47:55.213605,-46
2021-12-24 14:47:55.213612,-11
2021-12-24 14:47:55.213618,-16
2021-12-24 14:47:55.213624,-41
2021-12-24 14:47:55.213631,6
2021-12-24 14:47:55.213637,311
2021-12-24 14:47:55.213643,886
2021-12-24 14:47:55.213650,1149
2021-12-24 14:47:55.213656,363
2021-12-24 14:47:55.213662,-802
2021-12-24 14:47:55.213668,-777
2021-12-24 14:47:55.213675,4
2021-12-24 14:47:55.213681,104
2021-12-24 14:47:55.213687,-79
2021-12-24 14:47:55.213693,83
2021-12-24 14:47:55.213700,158
2021-12-24 14:47:55.213706,67
2021-12-24 14:47:55.213712,97
2021-12-24 14:47:55.213718,155
2021-12-24 14:47:55.213725,128
2021-12-24 14:47:55.213731,109
2021-12-24 14:47:55.213737,125
2021-12-24 14:47:55.213743,125
2021-12-24 14:47:55.213749,121
2021-12-24 14:47:55.213756,134
2021-12-24 14:47:55.482840,162
2021-12-24 14:47:55.482870,186
2021-12-24 14:47:55.482881,200
2021-12-24 14:47:55.482891,221
2021-12-24 14:47:55.482901,265
2021-12-24 14:47:55.482910,311
2021-12-24 14:47:55.482920,337
2021-12-24 14:47:55.482929,342
2021-12-24 14:47:55.482939,316
2021-12-24 14:47:55.482948,265
2021-12-24 14:47:55.482957,228
2021-12-24 14:47:55.482967,197
2021-12-24 14:47:55.482976,132
2021-12-24 14:47:55.482986,53
2021-12-24 14:47:55.482995,-37
2021-12-24 14:47:55.483005,-130
2021-12-24 14:47:55.483014,-174
2021-12-24 14:47:55.483023,-190
2021-12-24 14:47:55.483033,-237
2021-12-24 14:47:55.483042,-281
2021-12-24 14:47:55.483054,-279
2021-12-24 14:47:55.483063,-265
2021-12-24 14:47:55.483073,-253
2021-12-24 14:47:55.483082,-228
2021-12-24 14:47:55.483092,-204
2021-12-24 14:47:55.483101,-183
2021-12-24 14:47:55.483111,-183
2021-12-24 14:47:55.483120,-200
2021-12-24 14:47:55.483130,-193
2021-12-24 14:47:55.483139,-160
2021-12-24 14:47:55.707281,-137
2021-12-24 14:47:55.707310,-128
2021-12-24 14:47:55.707322,-128
2021-12-24 14:47:55.707333,-128
2021-12-24 14:47:55.707344,-111
2021-12-24 14:47:55.707354,-88
2021-12-24 14:47:55.707361,-74
2021-12-24 14:47:55.707367,-79
2021-12-24 14:47:55.707373,-102
2021-12-24 14:47:55.707379,-114
2021-12-24 14:47:55.707386,-90
2021-12-24 14:47:55.707392,-72
2021-12-24 14:47:55.707398,-62
2021-12-24 14:47:55.707404,-67
2021-12-24 14:47:55.707410,-83
2021-12-24 14:47:55.707416,-83
2021-12-24 14:47:55.707423,-62
2021-12-24 14:47:55.707429,-48
2021-12-24 14:47:55.707435,-44
2021-12-24 14:47:55.707441,-46
2021-12-24 14:47:55.707447,-46
2021-12-24 14:47:55.707453,-16
2021-12-24 14:47:55.707460,23
2021-12-24 14:47:55.707466,39
2021-12-24 14:47:55.707472,44
2021-12-24 14:47:55.707478,44
2021-12-24 14:47:55.707484,37
2021-12-24 14:47:55.707490,34
2021-12-24 14:47:55.707496,27
2021-12-24 14:47:55.707503,13
2021-12-24 14:47:55.887989,11
2021-12-24 14:47:55.888018,18
2021-12-24 14:47:55.888029,18
2021-12-24 14:47:55.888039,18
2021-12-24 14:47:55.888049,27
2021-12-24 14:47:55.888059,46
2021-12-24 14:47:55.888068,46
2021-12-24 14:47:55.888077,2
2021-12-24 14:47:55.888087,-13
2021-12-24 14:47:55.888097,169
2021-12-24 14:47:55.888106,626
2021-12-24 14:47:55.888116,1086
2021-12-24 14:47:55.888125,842
2021-12-24 14:47:55.888135,-325
2021-12-24 14:47:55.888145,-1017
2021-12-24 14:47:55.888154,-414
2021-12-24 14:47:55.888164,67
2021-12-24 14:47:55.888173,-144
2021-12-24 14:47:55.888183,-160
2021-12-24 14:47:55.888193,-6
2021-12-24 14:47:55.888203,-48
2021-12-24 14:47:55.888212,-72
2021-12-24 14:47:55.888222,-11
2021-12-24 14:47:55.888231,-20
2021-12-24 14:47:55.888241,-74
2021-12-24 14:47:55.888250,-65
2021-12-24 14:47:55.888260,-25
2021-12-24 14:47:55.888269,-4
2021-12-24 14:47:55.888279,20
2021-12-24 14:47:55.888288,65
2021-12-24 14:47:56.113465,102
2021-12-24 14:47:56.113485,123
2021-12-24 14:47:56.113493,151
2021-12-24 14:47:56.113499,193
2021-12-24 14:47:56.113505,235
2021-12-24 14:47:56.113512,267
2021-12-24 14:47:56.113518,267
2021-12-24 14:47:56.113524,249
2021-12-24 14:47:56.113530,246
2021-12-24 14:47:56.113536,242
2021-12-24 14:47:56.113543,216
2021-12-24 14:47:56.113549,172
2021-12-24 14:47:56.113555,95
2021-12-24 14:47:56.113561,11
2021-12-24 14:47:56.113567,-34
2021-12-24 14:47:56.113574,-74
2021-12-24 14:47:56.113581,-111
2021-12-24 14:47:56.113587,-132
2021-12-24 14:47:56.113593,-148
2021-12-24 14:47:56.113599,-153
2021-12-24 14:47:56.113605,-144
2021-12-24 14:47:56.113612,-137
2021-12-24 14:47:56.113618,-130
2021-12-24 14:47:56.113624,-114
2021-12-24 14:47:56.113630,-102
2021-12-24 14:47:56.113636,-90
2021-12-24 14:47:56.113643,-74
2021-12-24 14:47:56.113649,-62
2021-12-24 14:47:56.113655,-53
2021-12-24 14:47:56.113665,-41
2021-12-24 14:47:56.383109,-39
2021-12-24 14:47:56.383139,-30
2021-12-24 14:47:56.383151,-27
2021-12-24 14:47:56.383161,-53
2021-12-24 14:47:56.383171,-65
2021-12-24 14:47:56.383180,-65
2021-12-24 14:47:56.383190,-83
2021-12-24 14:47:56.383200,-86
2021-12-24 14:47:56.383209,-62
2021-12-24 14:47:56.383219,-62
2021-12-24 14:47:56.383229,-65
2021-12-24 14:47:56.383239,-69
2021-12-24 14:47:56.383249,-83
2021-12-24 14:47:56.383258,-74
2021-12-24 14:47:56.383268,-53
2021-12-24 14:47:56.383278,-53
2021-12-24 14:47:56.383287,-48
2021-12-24 14:47:56.383297,-37
2021-12-24 14:47:56.383306,-32
2021-12-24 14:47:56.383316,-23
2021-12-24 14:47:56.383326,-9
2021-12-24 14:47:56.383335,-4
2021-12-24 14:47:56.383345,4
2021-12-24 14:47:56.383355,9
2021-12-24 14:47:56.383364,9
2021-12-24 14:47:56.383374,25
2021-12-24 14:47:56.383383,39
2021-12-24 14:47:56.383393,25
2021-12-24 14:47:56.383403,-9
2021-12-24 14:47:56.383412,-44
2021-12-24 14:47:56.562587,-53
2021-12-24 14:47:56.562609,-41
2021-12-24 14:47:56.562617,-51
2021-12-24 14:47:56.562623,-76
2021-12-24 14:47:56.562629,-88
2021-12-24 14:47:56.562636,-111
2021-12-24 14:47:56.562642,-125
2021-12-24 14:47:56.562648,-104
2021-12-24 14:47:56.562654,-90
2021-12-24 14:47:56.562660,-104
2021-12-24 14:47:56.562666,-125
2021-12-24 14:47:56.562672,-148
2021-12-24 14:47:56.562679,-134
2021-12-24 14:47:56.562685,-86
2021-12-24 14:47:56.562691,-53
2021-12-24 14:47:56.562697,-55
2021-12-24 14:47:56.562703,-83
2021-12-24 14:47:56.562709,-107
2021-12-24 14:47:56.562715,-100
2021-12-24 14:47:56.562722,-81
2021-12-24 14:47:56.562728,-76
2021-12-24 14:47:56.562734,-72
2021-12-24 14:47:56.562740,-67
2021-12-24 14:47:56.562746,-65
2021-12-24 14:47:56.562752,-48
2021-12-24 14:47:56.562759,-25
2021-12-24 14:47:56.562765,-11
2021-12-24 14:47:56.562771,-11
2021-12-24 14:47:56.562777,-23
2021-12-24 14:47:56.562783,-44
2021-12-24 14:47:56.832623,4
2021-12-24 14:47:56.832645,274
2021-12-24 14:47:56.832652,777
2021-12-24 14:47:56.832659,1133
2021-12-24 14:47:56.832665,623
2021-12-24 14:47:56.832671,-560
2021-12-24 14:47:56.832677,-886
2021-12-24 14:47:56.832684,-167
2021-12-24 14:47:56.832690,86
2021-12-24 14:47:56.832696,-155
2021-12-24 14:47:56.832702,-81
2021-12-24 14:47:56.832708,39
2021-12-24 14:47:56.832714,-13
2021-12-24 14:47:56.832721,6
2021-12-24 14:47:56.832727,72
2021-12-24 14:47:56.832733,60
2021-12-24 14:47:56.832739,53
2021-12-24 14:47:56.832745,95
2021-12-24 14:47:56.832751,130
2021-12-24 14:47:56.832758,153
2021-12-24 14:47:56.832764,179
2021-12-24 14:47:56.832770,202
2021-12-24 14:47:56.832776,221
2021-12-24 14:47:56.832782,258
2021-12-24 14:47:56.832788,304
2021-12-24 14:47:56.832794,342
2021-12-24 14:47:56.832801,367
2021-12-24 14:47:56.832807,374
2021-12-24 14:47:56.832813,372
2021-12-24 14:47:56.832819,374
2021-12-24 14:47:57.057491,374
2021-12-24 14:47:57.057517,363
2021-12-24 14:47:57.057525,335
2021-12-24 14:47:57.057532,269
2021-12-24 14:47:57.057538,172
2021-12-24 14:47:57.057545,88
2021-12-24 14:47:57.057551,37
2021-12-24 14:47:57.057557,4
2021-12-24 14:47:57.057564,-39
2021-12-24 14:47:57.057570,-102
2021-12-24 14:47:57.057576,-134
2021-12-24 14:47:57.057583,-125
2021-12-24 14:47:57.057589,-121
2021-12-24 14:47:57.057595,-130
2021-12-24 14:47:57.057602,-148
2021-12-24 14:47:57.057608,-176
2021-12-24 14:47:57.057614,-186
2021-12-24 14:47:57.057620,-167
2021-12-24 14:47:57.057627,-167
2021-12-24 14:47:57.057633,-176
2021-12-24 14:47:57.057639,-176
2021-12-24 14:47:57.057645,-195
2021-12-24 14:47:57.057651,-200
2021-12-24 14:47:57.057657,-174
2021-12-24 14:47:57.057664,-160
2021-12-24 14:47:57.057670,-158
2021-12-24 14:47:57.057676,-155
2021-12-24 14:47:57.057682,-162
2021-12-24 14:47:57.057688,-155
2021-12-24 14:47:57.057695,-137
2021-12-24 14:47:57.372851,-123
2021-12-24 14:47:57.372881,-114
2021-12-24 14:47:57.372892,-118
2021-12-24 14:47:57.372902,-128
2021-12-24 14:47:57.372912,-121
2021-12-24 14:47:57.372921,-97
2021-12-24 14:47:57.372931,-83
2021-12-24 14:47:57.372940,-76
2021-12-24 14:47:57.372950,-90
2021-12-24 14:47:57.372959,-116
2021-12-24 14:47:57.372969,-116
2021-12-24 14:47:57.372979,-111
2021-12-24 14:47:57.372988,-116
2021-12-24 14:47:57.372998,-104
2021-12-24 14:47:57.373007,-111
2021-12-24 14:47:57.373017,-144
2021-12-24 14:47:57.373026,-128
2021-12-24 14:47:57.373035,-86
2021-12-24 14:47:57.373045,-72
2021-12-24 14:47:57.373054,-69
2021-12-24 14:47:57.373064,-67
2021-12-24 14:47:57.373074,-72
2021-12-24 14:47:57.373083,-60
2021-12-24 14:47:57.373092,-32
2021-12-24 14:47:57.373102,-18
2021-12-24 14:47:57.373111,-11
2021-12-24 14:47:57.373121,-9
2021-12-24 14:47:57.373130,-6
2021-12-24 14:47:57.373140,6
2021-12-24 14:47:57.373150,23
2021-12-24 14:47:57.553426,30
2021-12-24 14:47:57.553455,30
2021-12-24 14:47:57.553466,32
2021-12-24 14:47:57.553476,46
2021-12-24 14:47:57.553486,81
2021-12-24 14:47:57.553495,104
2021-12-24 14:47:57.553505,102
2021-12-24 14:47:57.553514,102
2021-12-24 14:47:57.553523,97
2021-12-24 14:47:57.553533,79
2021-12-24 14:47:57.553543,72
2021-12-24 14:47:57.553553,53
2021-12-24 14:47:57.553562,16
2021-12-24 14:47:57.553572,-16
2021-12-24 14:47:57.553581,-46
2021-12-24 14:47:57.553591,-46
2021-12-24 14:47:57.553600,-20
2021-12-24 14:47:57.553610,-4
2021-12-24 14:47:57.553619,-4
2021-12-24 14:47:57.553629,-44
2021-12-24 14:47:57.553638,-58
2021-12-24 14:47:57.553648,162
2021-12-24 14:47:57.553657,663
2021-12-24 14:47:57.553667,1089
2021-12-24 14:47:57.553676,726
2021-12-24 14:47:57.553686,-439
2021-12-24 14:47:57.553696,-935
2021-12-24 14:47:57.553705,-246
2021-12-24 14:47:57.553715,125
2021-12-24 14:47:57.553724,-118
2021-12-24 14:47:57.775970,-67
2021-12-24 14:47:57.775994,95
2021-12-24 14:47:57.776005,13
2021-12-24 14:47:57.776014,-30
2021-12-24 14:47:57.776023,23
2021-12-24 14:47:57.776032,23
2021-12-24 14:47:57.776041,-6
2021-12-24 14:47:57.776050,-16
2021-12-24 14:47:57.776059,-23
2021-12-24 14:47:57.776067,-6
2021-12-24 14:47:57.776076,32
2021-12-24 14:47:57.776085,69
2021-12-24 14:47:57.776093,100
2021-12-24 14:47:57.776101,132
2021-12-24 14:47:57.776110,162
2021-12-24 14:47:57.776119,172
2021-12-24 14:47:57.776129,181
2021-12-24 14:47:57.776138,221
2021-12-24 14:47:57.776147,239
2021-12-24 14:47:57.776156,209
2021-12-24 14:47:57.776165,186
2021-12-24 14:47:57.776174,174
2021-12-24 14:47:57.776183,148
2021-12-24 14:47:57.776191,121
2021-12-24 14:47:57.776199,88
2021-12-24 14:47:57.776206,34
2021-12-24 14:47:57.776214,-16
2021-12-24 14:47:57.776222,-53
2021-12-24 14:47:57.776234,-86
2021-12-24 14:47:57.776242,-109
2021-12-24 14:47:58.002808,-125
2021-12-24 14:47:58.002829,-141
2021-12-24 14:47:58.002836,-144
2021-12-24 14:47:58.002843,-139
2021-12-24 14:47:58.002849,-132
2021-12-24 14:47:58.002855,-118
2021-12-24 14:47:58.002862,-123
2021-12-24 14:47:58.002868,-141
2021-12-24 14:47:58.002874,-128
2021-12-24 14:47:58.002880,-107
2021-12-24 14:47:58.002887,-95
2021-12-24 14:47:58.002893,-88
2021-12-24 14:47:58.002899,-102
2021-12-24 14:47:58.002905,-111
2021-12-24 14:47:58.002912,-90
2021-12-24 14:47:58.002918,-86
2021-12-24 14:47:58.002924,-125
2021-12-24 14:47:58.002930,-179
2021-12-24 14:47:58.002936,-195
2021-12-24 14:47:58.002943,-167
2021-12-24 14:47:58.002949,-146
2021-12-24 14:47:58.002955,-144
2021-12-24 14:47:58.002961,-130
2021-12-24 14:47:58.002967,-109
2021-12-24 14:47:58.002974,-107
2021-12-24 14:47:58.002980,-97
2021-12-24 14:47:58.002986,-76
2021-12-24 14:47:58.002992,-67
2021-12-24 14:47:58.002998,-58
2021-12-24 14:47:58.003005,-41
2021-12-24 14:47:58.183407,-37
2021-12-24 14:47:58.183436,-27
2021-12-24 14:47:58.183448,-9
2021-12-24 14:47:58.183458,-4
2021-12-24 14:47:58.183468,-2
2021-12-24 14:47:58.183477,9
2021-12-24 14:47:58.183487,16
2021-12-24 14:47:58.183496,23
2021-12-24 14:47:58.183506,37
2021-12-24 14:47:58.183515,41
2021-12-24 14:47:58.183525,39
2021-12-24 14:47:58.183534,16
2021-12-24 14:47:58.183544,-27
2021-12-24 14:47:58.183553,-39
2021-12-24 14:47:58.183563,0
2021-12-24 14:47:58.183573,30
2021-12-24 14:47:58.183582,25
2021-12-24 14:47:58.183592,-6
2021-12-24 14:47:58.183601,-51
2021-12-24 14:47:58.183611,-83
2021-12-24 14:47:58.183620,-125
2021-12-24 14:47:58.183630,-146
2021-12-24 14:47:58.183640,-132
2021-12-24 14:47:58.183649,-128
2021-12-24 14:47:58.183659,-132
2021-12-24 14:47:58.183668,-116
2021-12-24 14:47:58.183678,-97
2021-12-24 14:47:58.183687,-95
2021-12-24 14:47:58.183696,-90
2021-12-24 14:47:58.183706,-97
2021-12-24 14:47:58.407541,-121
2021-12-24 14:47:58.407562,-76
2021-12-24 14:47:58.407568,174
2021-12-24 14:47:58.407573,667
2021-12-24 14:47:58.407578,1038
2021-12-24 14:47:58.407583,532
2021-12-24 14:47:58.407588,-663
2021-12-24 14:47:58.407593,-989
2021-12-24 14:47:58.407599,-237
2021-12-24 14:47:58.407604,65
2021-12-24 14:47:58.407609,-165
2021-12-24 14:47:58.407614,-97
2021-12-24 14:47:58.407619,39
2021-12-24 14:47:58.407624,-6
2021-12-24 14:47:58.407629,4
2021-12-24 14:47:58.407634,62
2021-12-24 14:47:58.407639,53
2021-12-24 14:47:58.407644,53
2021-12-24 14:47:58.407649,97
2021-12-24 14:47:58.407654,130
2021-12-24 14:47:58.407659,141
2021-12-24 14:47:58.407664,139
2021-12-24 14:47:58.407669,118
2021-12-24 14:47:58.407674,139
2021-12-24 14:47:58.407679,202
2021-12-24 14:47:58.407684,251
2021-12-24 14:47:58.407689,288
2021-12-24 14:47:58.407694,325
2021-12-24 14:47:58.407699,346
2021-12-24 14:47:58.407704,353
2021-12-24 14:47:58.722913,363
2021-12-24 14:47:58.722942,365
2021-12-24 14:47:58.722954,344
2021-12-24 14:47:58.722964,300
2021-12-24 14:47:58.722973,223
2021-12-24 14:47:58.722983,146
2021-12-24 14:47:58.722992,95
2021-12-24 14:47:58.723002,51
2021-12-24 14:47:58.723011,2
2021-12-24 14:47:58.723021,-48
2021-12-24 14:47:58.723031,-102
2021-12-24 14:47:58.723041,-128
2021-12-24 14:47:58.723050,-116
2021-12-24 14:47:58.723060,-104
2021-12-24 14:47:58.723069,-102
2021-12-24 14:47:58.723079,-104
2021-12-24 14:47:58.723088,-107
2021-12-24 14:47:58.723098,-86
2021-12-24 14:47:58.723107,-62
2021-12-24 14:47:58.723117,-48
2021-12-24 14:47:58.723126,-37
2021-12-24 14:47:58.723136,-37
2021-12-24 14:47:58.723145,-46
2021-12-24 14:47:58.723155,-55
2021-12-24 14:47:58.723164,-58
2021-12-24 14:47:58.723173,-41
2021-12-24 14:47:58.723183,-39
2021-12-24 14:47:58.723193,-67
2021-12-24 14:47:58.723202,-86
2021-12-24 14:47:58.723212,-67
2021-12-24 14:47:58.903002,-51
2021-12-24 14:47:58.903033,-65
2021-12-24 14:47:58.903044,-83
2021-12-24 14:47:58.903054,-104
2021-12-24 14:47:58.903064,-128
2021-12-24 14:47:58.903073,-132
2021-12-24 14:47:58.903082,-116
2021-12-24 14:47:58.903092,-104
2021-12-24 14:47:58.903101,-109
2021-12-24 14:47:58.903111,-134
2021-12-24 14:47:58.903120,-158
2021-12-24 14:47:58.903130,-141
2021-12-24 14:47:58.903139,-111
2021-12-24 14:47:58.903149,-102
2021-12-24 14:47:58.903158,-104
2021-12-24 14:47:58.903168,-128
2021-12-24 14:47:58.903177,-139
2021-12-24 14:47:58.903187,-111
2021-12-24 14:47:58.903196,-90
2021-12-24 14:47:58.903205,-93
2021-12-24 14:47:58.903215,-93
2021-12-24 14:47:58.903224,-104
2021-12-24 14:47:58.903234,-102
2021-12-24 14:47:58.903243,-53
2021-12-24 14:47:58.903253,-13
2021-12-24 14:47:58.903262,-30
2021-12-24 14:47:58.903271,-53
2021-12-24 14:47:58.903281,-65
2021-12-24 14:47:58.903290,-100
2021-12-24 14:47:58.903300,-118
2021-12-24 14:47:59.173450,-90
2021-12-24 14:47:59.173478,-65
2021-12-24 14:47:59.173490,-72
2021-12-24 14:47:59.173499,-81
2021-12-24 14:47:59.173509,-67
2021-12-24 14:47:59.173518,-41
2021-12-24 14:47:59.173528,-23
2021-12-24 14:47:59.173537,-9
2021-12-24 14:47:59.173547,-34
2021-12-24 14:47:59.173557,-93
2021-12-24 14:47:59.173566,-58
2021-12-24 14:47:59.173576,216
2021-12-24 14:47:59.173586,716
2021-12-24 14:47:59.173595,1056
2021-12-24 14:47:59.173605,516
2021-12-24 14:47:59.173614,-658
2021-12-24 14:47:59.173624,-917
2021-12-24 14:47:59.173633,-151
2021-12-24 14:47:59.173643,121
2021-12-24 14:47:59.173652,-93
2021-12-24 14:47:59.173662,4
2021-12-24 14:47:59.173672,116
2021-12-24 14:47:59.173681,51
2021-12-24 14:47:59.173690,79
2021-12-24 14:47:59.173700,146
2021-12-24 14:47:59.173709,139
2021-12-24 14:47:59.173719,130
2021-12-24 14:47:59.173728,132
2021-12-24 14:47:59.173738,125
2021-12-24 14:47:59.173747,153
2021-12-24 14:47:59.398117,197
2021-12-24 14:47:59.398147,225
2021-12-24 14:47:59.398160,246
2021-12-24 14:47:59.398172,279
2021-12-24 14:47:59.398183,321
2021-12-24 14:47:59.398194,367
2021-12-24 14:47:59.398205,407
2021-12-24 14:47:59.398216,421
2021-12-24 14:47:59.398227,395
2021-12-24 14:47:59.398235,370
2021-12-24 14:47:59.398242,367
2021-12-24 14:47:59.398248,358
2021-12-24 14:47:59.398255,323
2021-12-24 14:47:59.398261,265
2021-12-24 14:47:59.398267,172
2021-12-24 14:47:59.398273,74
2021-12-24 14:47:59.398280,9
2021-12-24 14:47:59.398286,-30
2021-12-24 14:47:59.398293,-65
2021-12-24 14:47:59.398300,-121
2021-12-24 14:47:59.398311,-183
2021-12-24 14:47:59.398345,-214
2021-12-24 14:47:59.398355,-225
2021-12-24 14:47:59.398362,-237
2021-12-24 14:47:59.398368,-223
2021-12-24 14:47:59.398374,-209
2021-12-24 14:47:59.398381,-216
2021-12-24 14:47:59.398387,-211
2021-12-24 14:47:59.398393,-195
2021-12-24 14:47:59.398400,-200
2021-12-24 14:47:59.577518,-214
2021-12-24 14:47:59.577535,-207
2021-12-24 14:47:59.577541,-195
2021-12-24 14:47:59.577546,-211
2021-12-24 14:47:59.577551,-242
2021-12-24 14:47:59.577556,-242
2021-12-24 14:47:59.577561,-223
2021-12-24 14:47:59.577566,-228
2021-12-24 14:47:59.577571,-230
2021-12-24 14:47:59.577576,-209
2021-12-24 14:47:59.577581,-190
2021-12-24 14:47:59.577586,-172
2021-12-24 14:47:59.577591,-165
2021-12-24 14:47:59.577595,-186
2021-12-24 14:47:59.577600,-195
2021-12-24 14:47:59.577605,-174
2021-12-24 14:47:59.577610,-146
2021-12-24 14:47:59.577615,-130
2021-12-24 14:47:59.577620,-132
2021-12-24 14:47:59.577625,-146
2021-12-24 14:47:59.577630,-141
2021-12-24 14:47:59.577635,-121
2021-12-24 14:47:59.577640,-104
2021-12-24 14:47:59.577647,-90
2021-12-24 14:47:59.577653,-83
2021-12-24 14:47:59.577657,-88
2021-12-24 14:47:59.577662,-83
2021-12-24 14:47:59.577667,-53
2021-12-24 14:47:59.577672,-13
2021-12-24 14:47:59.577677,11
2021-12-24 14:47:59.892108,20
2021-12-24 14:47:59.892138,9
2021-12-24 14:47:59.892150,-4
2021-12-24 14:47:59.892160,-13
2021-12-24 14:47:59.892170,-13
2021-12-24 14:47:59.892179,6
2021-12-24 14:47:59.892189,-2
2021-12-24 14:47:59.892198,-41
2021-12-24 14:47:59.892208,-34
2021-12-24 14:47:59.892218,-4
2021-12-24 14:47:59.892228,2
2021-12-24 14:47:59.892238,6
2021-12-24 14:47:59.892247,0
2021-12-24 14:47:59.892257,-30
2021-12-24 14:47:59.892267,-30
2021-12-24 14:47:59.892277,128
2021-12-24 14:47:59.892286,535
2021-12-24 14:47:59.892296,993
2021-12-24 14:47:59.892306,847
2021-12-24 14:47:59.892316,-186
2021-12-24 14:47:59.892325,-891
2021-12-24 14:47:59.892335,-377
2021-12-24 14:47:59.892345,162
2021-12-24 14:47:59.892354,16
2021-12-24 14:47:59.892364,-18
2021-12-24 14:47:59.892374,151
2021-12-24 14:47:59.892383,137
2021-12-24 14:47:59.892393,102
2021-12-24 14:47:59.892403,167
2021-12-24 14:47:59.892412,183
2021-12-24 14:48:00.073158,160
2021-12-24 14:48:00.073180,190
2021-12-24 14:48:00.073188,225
2021-12-24 14:48:00.073195,211
2021-12-24 14:48:00.073201,200
2021-12-24 14:48:00.073208,214
2021-12-24 14:48:00.073214,223
2021-12-24 14:48:00.073221,249
2021-12-24 14:48:00.073227,297
2021-12-24 14:48:00.073235,309
2021-12-24 14:48:00.073241,288
2021-12-24 14:48:00.073248,297
2021-12-24 14:48:00.073254,318
2021-12-24 14:48:00.073261,318
2021-12-24 14:48:00.073267,307
2021-12-24 14:48:00.073274,279
2021-12-24 14:48:00.073280,239
2021-12-24 14:48:00.073287,181
2021-12-24 14:48:00.073293,90
2021-12-24 14:48:00.073299,9
2021-12-24 14:48:00.073306,-53
2021-12-24 14:48:00.073312,-125
2021-12-24 14:48:00.073319,-190
2021-12-24 14:48:00.073325,-225
2021-12-24 14:48:00.073331,-242
2021-12-24 14:48:00.073338,-246
2021-12-24 14:48:00.073344,-242
2021-12-24 14:48:00.073350,-246
2021-12-24 14:48:00.073357,-244
2021-12-24 14:48:00.073363,-235
2021-12-24 14:48:00.252957,-221
2021-12-24 14:48:00.252988,-197
2021-12-24 14:48:00.252999,-183
2021-12-24 14:48:00.253009,-181
2021-12-24 14:48:00.253019,-169
2021-12-24 14:48:00.253029,-162
2021-12-24 14:48:00.253038,-176
2021-12-24 14:48:00.253048,-165
2021-12-24 14:48:00.253057,-137
2021-12-24 14:48:00.253067,-137
2021-12-24 14:48:00.253076,-155
2021-12-24 14:48:00.253086,-174
2021-12-24 14:48:00.253096,-167
2021-12-24 14:48:00.253105,-134
2021-12-24 14:48:00.253115,-121
2021-12-24 14:48:00.253124,-132
2021-12-24 14:48:00.253134,-144
2021-12-24 14:48:00.253143,-151
2021-12-24 14:48:00.253153,-137
2021-12-24 14:48:00.253162,-118
2021-12-24 14:48:00.253172,-111
2021-12-24 14:48:00.253182,-107
2021-12-24 14:48:00.253191,-93
2021-12-24 14:48:00.253200,-86
2021-12-24 14:48:00.253210,-81
2021-12-24 14:48:00.253220,-67
2021-12-24 14:48:00.253229,-58
2021-12-24 14:48:00.253238,-62
2021-12-24 14:48:00.253248,-48
2021-12-24 14:48:00.253257,-16
2021-12-24 14:48:00.568098,16
2021-12-24 14:48:00.568118,34
2021-12-24 14:48:00.568126,34
2021-12-24 14:48:00.568133,9
2021-12-24 14:48:00.568139,-23
2021-12-24 14:48:00.568146,-39
2021-12-24 14:48:00.568152,-27
2021-12-24 14:48:00.568158,-18
2021-12-24 14:48:00.568165,-37
2021-12-24 14:48:00.568172,-58
2021-12-24 14:48:00.568178,-69
2021-12-24 14:48:00.568186,-69
2021-12-24 14:48:00.568197,-55
2021-12-24 14:48:00.568208,-34
2021-12-24 14:48:00.568220,-32
2021-12-24 14:48:00.568243,-65
2021-12-24 14:48:00.568286,-44
2021-12-24 14:48:00.568311,204
2021-12-24 14:48:00.568362,656
2021-12-24 14:48:00.568400,851
2021-12-24 14:48:00.568425,216
2021-12-24 14:48:00.568446,-756
2021-12-24 14:48:00.568467,-737
2021-12-24 14:48:00.568480,-32
2021-12-24 14:48:00.568491,76
2021-12-24 14:48:00.568545,-95
2021-12-24 14:48:00.568594,41
2021-12-24 14:48:00.568606,114
2021-12-24 14:48:00.568615,44
2021-12-24 14:48:00.568623,81
2021-12-24 14:48:00.748432,137
2021-12-24 14:48:00.748462,132
2021-12-24 14:48:00.748475,141
2021-12-24 14:48:00.748485,148
2021-12-24 14:48:00.748495,141
2021-12-24 14:48:00.748504,172
2021-12-24 14:48:00.748514,216
2021-12-24 14:48:00.748523,246
2021-12-24 14:48:00.748533,276
2021-12-24 14:48:00.748543,290
2021-12-24 14:48:00.748552,297
2021-12-24 14:48:00.748562,335
2021-12-24 14:48:00.748572,384
2021-12-24 14:48:00.748582,407
2021-12-24 14:48:00.748591,404
2021-12-24 14:48:00.748601,370
2021-12-24 14:48:00.748610,328
2021-12-24 14:48:00.748620,318
2021-12-24 14:48:00.748630,302
2021-12-24 14:48:00.748639,244
2021-12-24 14:48:00.748649,172
2021-12-24 14:48:00.748658,93
2021-12-24 14:48:00.748668,18
2021-12-24 14:48:00.748678,-13
2021-12-24 14:48:00.748687,-37
2021-12-24 14:48:00.748697,-65
2021-12-24 14:48:00.748707,-83
2021-12-24 14:48:00.748716,-102
2021-12-24 14:48:00.748726,-109
2021-12-24 14:48:00.748736,-93
2021-12-24 14:48:01.017560,-69
2021-12-24 14:48:01.017580,-53
2021-12-24 14:48:01.017588,-53
2021-12-24 14:48:01.017594,-65
2021-12-24 14:48:01.017601,-58
2021-12-24 14:48:01.017607,-39
2021-12-24 14:48:01.017613,-46
2021-12-24 14:48:01.017620,-60
2021-12-24 14:48:01.017626,-76
2021-12-24 14:48:01.017633,-107
2021-12-24 14:48:01.017639,-125
2021-12-24 14:48:01.017645,-141
2021-12-24 14:48:01.017652,-172
2021-12-24 14:48:01.017658,-197
2021-12-24 14:48:01.017664,-230
2021-12-24 14:48:01.017671,-260
2021-12-24 14:48:01.017677,-249
2021-12-24 14:48:01.017683,-223
2021-12-24 14:48:01.017690,-214
2021-12-24 14:48:01.017696,-207
2021-12-24 14:48:01.017702,-211
2021-12-24 14:48:01.017709,-249
2021-12-24 14:48:01.017715,-276
2021-12-24 14:48:01.017722,-265
2021-12-24 14:48:01.017728,-246
2021-12-24 14:48:01.017734,-239
2021-12-24 14:48:01.017741,-239
2021-12-24 14:48:01.017747,-221
2021-12-24 14:48:01.017753,-172
2021-12-24 14:48:01.017760,-130
2021-12-24 14:48:01.198442,-116
2021-12-24 14:48:01.198472,-111
2021-12-24 14:48:01.198483,-118
2021-12-24 14:48:01.198493,-134
2021-12-24 14:48:01.198503,-128
2021-12-24 14:48:01.198513,-95
2021-12-24 14:48:01.198523,-76
2021-12-24 14:48:01.198532,-79
2021-12-24 14:48:01.198542,-104
2021-12-24 14:48:01.198551,-118
2021-12-24 14:48:01.198561,-93
2021-12-24 14:48:01.198571,-67
2021-12-24 14:48:01.198581,-55
2021-12-24 14:48:01.198590,-62
2021-12-24 14:48:01.198600,-95
2021-12-24 14:48:01.198610,-53
2021-12-24 14:48:01.198619,202
2021-12-24 14:48:01.198629,626
2021-12-24 14:48:01.198639,812
2021-12-24 14:48:01.198649,207
2021-12-24 14:48:01.198658,-756
2021-12-24 14:48:01.198668,-761
2021-12-24 14:48:01.198678,-55
2021-12-24 14:48:01.198687,67
2021-12-24 14:48:01.198697,-111
2021-12-24 14:48:01.198707,16
2021-12-24 14:48:01.198716,93
2021-12-24 14:48:01.198726,25
2021-12-24 14:48:01.198736,65
2021-12-24 14:48:01.198746,125
2021-12-24 14:48:01.423044,121
2021-12-24 14:48:01.423065,125
2021-12-24 14:48:01.423072,148
2021-12-24 14:48:01.423077,162
2021-12-24 14:48:01.423082,183
2021-12-24 14:48:01.423087,223
2021-12-24 14:48:01.423092,251
2021-12-24 14:48:01.423097,251
2021-12-24 14:48:01.423102,263
2021-12-24 14:48:01.423107,307
2021-12-24 14:48:01.423112,351
2021-12-24 14:48:01.423117,379
2021-12-24 14:48:01.423123,397
2021-12-24 14:48:01.423127,384
2021-12-24 14:48:01.423133,353
2021-12-24 14:48:01.423137,330
2021-12-24 14:48:01.423142,288
2021-12-24 14:48:01.423147,242
2021-12-24 14:48:01.423152,204
2021-12-24 14:48:01.423157,139
2021-12-24 14:48:01.423162,69
2021-12-24 14:48:01.423167,23
2021-12-24 14:48:01.423172,-16
2021-12-24 14:48:01.423177,-44
2021-12-24 14:48:01.423182,-62
2021-12-24 14:48:01.423187,-83
2021-12-24 14:48:01.423192,-95
2021-12-24 14:48:01.423196,-123
2021-12-24 14:48:01.423201,-158
2021-12-24 14:48:01.423206,-148
2021-12-24 14:48:01.693480,-123
2021-12-24 14:48:01.693501,-118
2021-12-24 14:48:01.693509,-114
2021-12-24 14:48:01.693516,-102
2021-12-24 14:48:01.693522,-88
2021-12-24 14:48:01.693528,-74
2021-12-24 14:48:01.693535,-86
2021-12-24 14:48:01.693541,-109
2021-12-24 14:48:01.693547,-102
2021-12-24 14:48:01.693554,-86
2021-12-24 14:48:01.693560,-79
2021-12-24 14:48:01.693566,-74
2021-12-24 14:48:01.693573,-88
2021-12-24 14:48:01.693579,-107
2021-12-24 14:48:01.693585,-97
2021-12-24 14:48:01.693591,-81
2021-12-24 14:48:01.693598,-76
2021-12-24 14:48:01.693607,-69
2021-12-24 14:48:01.693614,-76
2021-12-24 14:48:01.693620,-81
2021-12-24 14:48:01.693627,-60
2021-12-24 14:48:01.693634,-48
2021-12-24 14:48:01.693640,-51
2021-12-24 14:48:01.693646,-46
2021-12-24 14:48:01.693652,-48
2021-12-24 14:48:01.693659,-55
2021-12-24 14:48:01.693665,-46
2021-12-24 14:48:01.693671,-32
2021-12-24 14:48:01.693677,-11
2021-12-24 14:48:01.693684,0
2021-12-24 14:48:01.916664,-20
2021-12-24 14:48:01.916693,-46
2021-12-24 14:48:01.916705,-69
2021-12-24 14:48:01.916715,-100
2021-12-24 14:48:01.916724,-116
2021-12-24 14:48:01.916734,-118
2021-12-24 14:48:01.916744,-137
2021-12-24 14:48:01.916753,-146
2021-12-24 14:48:01.916763,-128
2021-12-24 14:48:01.916772,-118
2021-12-24 14:48:01.916782,-114
2021-12-24 14:48:01.916792,-109
2021-12-24 14:48:01.916801,-128
2021-12-24 14:48:01.916811,-134
2021-12-24 14:48:01.916820,-39
2021-12-24 14:48:01.916830,246
2021-12-24 14:48:01.916840,661
2021-12-24 14:48:01.916850,702
2021-12-24 14:48:01.916859,-102
2021-12-24 14:48:01.916869,-942
2021-12-24 14:48:01.916878,-686
2021-12-24 14:48:01.916888,-62
2021-12-24 14:48:01.916898,-93
2021-12-24 14:48:01.916907,-211
2021-12-24 14:48:01.916917,-44
2021-12-24 14:48:01.916926,4
2021-12-24 14:48:01.916936,-48
2021-12-24 14:48:01.916946,0
2021-12-24 14:48:01.916955,41
2021-12-24 14:48:01.916965,27
2021-12-24 14:48:02.141804,46
2021-12-24 14:48:02.141823,95
2021-12-24 14:48:02.141829,102
2021-12-24 14:48:02.141835,67
2021-12-24 14:48:02.141840,62
2021-12-24 14:48:02.141846,86
2021-12-24 14:48:02.141851,109
2021-12-24 14:48:02.141856,155
2021-12-24 14:48:02.141862,214
2021-12-24 14:48:02.141867,244
2021-12-24 14:48:02.141873,263
2021-12-24 14:48:02.141878,258
2021-12-24 14:48:02.141883,251
2021-12-24 14:48:02.141889,269
2021-12-24 14:48:02.141894,269
2021-12-24 14:48:02.141899,235
2021-12-24 14:48:02.141904,193
2021-12-24 14:48:02.141910,146
2021-12-24 14:48:02.141915,90
2021-12-24 14:48:02.141920,44
2021-12-24 14:48:02.141926,2
2021-12-24 14:48:02.141931,-53
2021-12-24 14:48:02.141936,-121
2021-12-24 14:48:02.141942,-153
2021-12-24 14:48:02.141947,-141
2021-12-24 14:48:02.141952,-132
2021-12-24 14:48:02.141957,-134
2021-12-24 14:48:02.141963,-130
2021-12-24 14:48:02.141968,-118
2021-12-24 14:48:02.141973,-107
2021-12-24 14:48:02.323172,-83
2021-12-24 14:48:02.323203,-60
2021-12-24 14:48:02.323215,-51
2021-12-24 14:48:02.323225,-60
2021-12-24 14:48:02.323234,-81
2021-12-24 14:48:02.323244,-95
2021-12-24 14:48:02.323254,-79
2021-12-24 14:48:02.323264,-53
2021-12-24 14:48:02.323273,-46
2021-12-24 14:48:02.323283,-62
2021-12-24 14:48:02.323293,-88
2021-12-24 14:48:02.323302,-90
2021-12-24 14:48:02.323312,-72
2021-12-24 14:48:02.323322,-58
2021-12-24 14:48:02.323331,-55
2021-12-24 14:48:02.323341,-55
2021-12-24 14:48:02.323351,-62
2021-12-24 14:48:02.323360,-58
2021-12-24 14:48:02.323370,-37
2021-12-24 14:48:02.323380,-23
2021-12-24 14:48:02.323389,-20
2021-12-24 14:48:02.323399,-23
2021-12-24 14:48:02.323408,-25
2021-12-24 14:48:02.323418,-20
2021-12-24 14:48:02.323427,-30
2021-12-24 14:48:02.323437,-46
2021-12-24 14:48:02.323447,-41
2021-12-24 14:48:02.323456,-44
2021-12-24 14:48:02.323466,-46
2021-12-24 14:48:02.323475,-11
2021-12-24 14:48:02.637627,34
2021-12-24 14:48:02.637654,51
2021-12-24 14:48:02.637665,46
2021-12-24 14:48:02.637672,11
2021-12-24 14:48:02.637678,-25
2021-12-24 14:48:02.637685,-23
2021-12-24 14:48:02.637691,-2
2021-12-24 14:48:02.637698,-13
2021-12-24 14:48:02.637704,-55
2021-12-24 14:48:02.637710,-121
2021-12-24 14:48:02.637717,-160
2021-12-24 14:48:02.637726,-146
2021-12-24 14:48:02.637779,-137
2021-12-24 14:48:02.637799,-144
2021-12-24 14:48:02.637808,-160
2021-12-24 14:48:02.637814,-204
2021-12-24 14:48:02.637821,-195
2021-12-24 14:48:02.637827,-11
2021-12-24 14:48:02.637833,363
2021-12-24 14:48:02.637839,695
2021-12-24 14:48:02.637846,418
2021-12-24 14:48:02.637852,-546
2021-12-24 14:48:02.637858,-970
2021-12-24 14:48:02.637865,-349
2021-12-24 14:48:02.637871,41
2021-12-24 14:48:02.637877,-148
2021-12-24 14:48:02.637884,-144
2021-12-24 14:48:02.637890,-23
2021-12-24 14:48:02.637896,-65
2021-12-24 14:48:02.637903,-60
2021-12-24 14:48:02.863008,11
2021-12-24 14:48:02.863027,30
2021-12-24 14:48:02.863035,27
2021-12-24 14:48:02.863041,41
2021-12-24 14:48:02.863048,60
2021-12-24 14:48:02.863054,88
2021-12-24 14:48:02.863060,123
2021-12-24 14:48:02.863067,153
2021-12-24 14:48:02.863073,169
2021-12-24 14:48:02.863079,172
2021-12-24 14:48:02.863086,202
2021-12-24 14:48:02.863092,263
2021-12-24 14:48:02.863098,302
2021-12-24 14:48:02.863105,325
2021-12-24 14:48:02.863111,330
2021-12-24 14:48:02.863117,304
2021-12-24 14:48:02.863124,293
2021-12-24 14:48:02.863130,295
2021-12-24 14:48:02.863136,272
2021-12-24 14:48:02.863143,225
2021-12-24 14:48:02.863149,162
2021-12-24 14:48:02.863156,86
2021-12-24 14:48:02.863162,30
2021-12-24 14:48:02.863168,2
2021-12-24 14:48:02.863175,-25
2021-12-24 14:48:02.863181,-51
2021-12-24 14:48:02.863187,-81
2021-12-24 14:48:02.863194,-118
2021-12-24 14:48:02.863200,-141
2021-12-24 14:48:02.863206,-137
2021-12-24 14:48:03.043661,-109
2021-12-24 14:48:03.043690,-90
2021-12-24 14:48:03.043702,-102
2021-12-24 14:48:03.043712,-109
2021-12-24 14:48:03.043722,-88
2021-12-24 14:48:03.043732,-62
2021-12-24 14:48:03.043741,-51
2021-12-24 14:48:03.043751,-48
2021-12-24 14:48:03.043760,-74
2021-12-24 14:48:03.043770,-93
2021-12-24 14:48:03.043779,-74
2021-12-24 14:48:03.043789,-51
2021-12-24 14:48:03.043798,-44
2021-12-24 14:48:03.043808,-37
2021-12-24 14:48:03.043817,-51
2021-12-24 14:48:03.043827,-100
2021-12-24 14:48:03.043837,-125
2021-12-24 14:48:03.043846,-97
2021-12-24 14:48:03.043856,-72
2021-12-24 14:48:03.043865,-90
2021-12-24 14:48:03.043875,-121
2021-12-24 14:48:03.043884,-118
2021-12-24 14:48:03.043894,-93
2021-12-24 14:48:03.043903,-69
2021-12-24 14:48:03.043913,-55
2021-12-24 14:48:03.043922,-55
2021-12-24 14:48:03.043932,-62
2021-12-24 14:48:03.043941,-48
2021-12-24 14:48:03.043951,-30
2021-12-24 14:48:03.043961,-27
2021-12-24 14:48:03.267649,-46
2021-12-24 14:48:03.267664,-60
2021-12-24 14:48:03.267671,-55
2021-12-24 14:48:03.267676,-48
2021-12-24 14:48:03.267681,-37
2021-12-24 14:48:03.267686,-16
2021-12-24 14:48:03.267691,-11
2021-12-24 14:48:03.267696,-34
2021-12-24 14:48:03.267701,-53
2021-12-24 14:48:03.267707,-51
2021-12-24 14:48:03.267712,-39
2021-12-24 14:48:03.267717,-27
2021-12-24 14:48:03.267722,-13
2021-12-24 14:48:03.267727,-11
2021-12-24 14:48:03.267732,-9
2021-12-24 14:48:03.267737,-2
2021-12-24 14:48:03.267742,-18
2021-12-24 14:48:03.267747,-37
2021-12-24 14:48:03.267752,-37
2021-12-24 14:48:03.267757,-46
2021-12-24 14:48:03.267762,-67
2021-12-24 14:48:03.267767,-76
2021-12-24 14:48:03.267772,-76
2021-12-24 14:48:03.267777,-83
2021-12-24 14:48:03.267782,-100
2021-12-24 14:48:03.267787,-109
2021-12-24 14:48:03.267792,-100
2021-12-24 14:48:03.267797,-90
2021-12-24 14:48:03.267802,-93
2021-12-24 14:48:03.267807,-100
2021-12-24 14:48:03.538058,-27
2021-12-24 14:48:03.538096,251
2021-12-24 14:48:03.538108,691
2021-12-24 14:48:03.538118,812
2021-12-24 14:48:03.538128,62
2021-12-24 14:48:03.538137,-898
2021-12-24 14:48:03.538147,-786
2021-12-24 14:48:03.538156,-109
2021-12-24 14:48:03.538166,-62
2021-12-24 14:48:03.538175,-214
2021-12-24 14:48:03.538185,-53
2021-12-24 14:48:03.538194,11
2021-12-24 14:48:03.538204,-74
2021-12-24 14:48:03.538214,-60
2021-12-24 14:48:03.538223,-4
2021-12-24 14:48:03.538233,0
2021-12-24 14:48:03.538243,16
2021-12-24 14:48:03.538252,55
2021-12-24 14:48:03.538262,72
2021-12-24 14:48:03.538271,88
2021-12-24 14:48:03.538281,121
2021-12-24 14:48:03.538290,121
2021-12-24 14:48:03.538300,109
2021-12-24 14:48:03.538310,151
2021-12-24 14:48:03.538319,202
2021-12-24 14:48:03.538329,230
2021-12-24 14:48:03.538338,269
2021-12-24 14:48:03.538348,304
2021-12-24 14:48:03.538358,309
2021-12-24 14:48:03.538367,307
2021-12-24 14:48:03.718060,297
2021-12-24 14:48:03.718085,279
2021-12-24 14:48:03.718129,253
2021-12-24 14:48:03.718141,200
2021-12-24 14:48:03.718148,118
2021-12-24 14:48:03.718155,44
2021-12-24 14:48:03.718169,0
2021-12-24 14:48:03.718207,-32
2021-12-24 14:48:03.718218,-67
2021-12-24 14:48:03.718245,-95
2021-12-24 14:48:03.718253,-107
2021-12-24 14:48:03.718259,-125
2021-12-24 14:48:03.718265,-158
2021-12-24 14:48:03.718272,-148
2021-12-24 14:48:03.718278,-118
2021-12-24 14:48:03.718284,-111
2021-12-24 14:48:03.718290,-104
2021-12-24 14:48:03.718297,-109
2021-12-24 14:48:03.718303,-128
2021-12-24 14:48:03.718309,-111
2021-12-24 14:48:03.718315,-76
2021-12-24 14:48:03.718322,-74
2021-12-24 14:48:03.718328,-74
2021-12-24 14:48:03.718334,-65
2021-12-24 14:48:03.718340,-62
2021-12-24 14:48:03.718347,-48
2021-12-24 14:48:03.718353,-27
2021-12-24 14:48:03.718359,-27
2021-12-24 14:48:03.718365,-32
2021-12-24 14:48:03.718372,-27
2021-12-24 14:48:03.986666,-23
2021-12-24 14:48:03.986696,-6
2021-12-24 14:48:03.986708,6
2021-12-24 14:48:03.986718,2
2021-12-24 14:48:03.986727,-6
2021-12-24 14:48:03.986737,-30
2021-12-24 14:48:03.986747,-67
2021-12-24 14:48:03.986757,-74
2021-12-24 14:48:03.986766,-53
2021-12-24 14:48:03.986776,-44
2021-12-24 14:48:03.986786,-58
2021-12-24 14:48:03.986795,-74
2021-12-24 14:48:03.986805,-67
2021-12-24 14:48:03.986815,-41
2021-12-24 14:48:03.986834,-25
2021-12-24 14:48:03.986844,-27
2021-12-24 14:48:03.986854,-25
2021-12-24 14:48:03.986864,-25
2021-12-24 14:48:03.986873,-27
2021-12-24 14:48:03.986883,-18
2021-12-24 14:48:03.986893,-25
2021-12-24 14:48:03.986903,-37
2021-12-24 14:48:03.986912,-16
2021-12-24 14:48:03.986922,11
2021-12-24 14:48:03.986932,11
2021-12-24 14:48:03.986941,-6
2021-12-24 14:48:03.986951,-34
2021-12-24 14:48:03.986960,-97
2021-12-24 14:48:03.986970,-169
2021-12-24 14:48:03.986980,-172
2021-12-24 14:48:04.213457,-139
2021-12-24 14:48:04.213477,-130
2021-12-24 14:48:04.213485,-130
2021-12-24 14:48:04.213492,-134
2021-12-24 14:48:04.213498,-155
2021-12-24 14:48:04.213504,-165
2021-12-24 14:48:04.213511,-137
2021-12-24 14:48:04.213517,-123
2021-12-24 14:48:04.213523,-169
2021-12-24 14:48:04.213529,-186
2021-12-24 14:48:04.213536,-9
2021-12-24 14:48:04.213542,416
2021-12-24 14:48:04.213548,802
2021-12-24 14:48:04.213555,460
2021-12-24 14:48:04.213561,-609
2021-12-24 14:48:04.213567,-1024
2021-12-24 14:48:04.213574,-351
2021-12-24 14:48:04.213580,18
2021-12-24 14:48:04.213587,-172
2021-12-24 14:48:04.213593,-109
2021-12-24 14:48:04.213599,44
2021-12-24 14:48:04.213605,-11
2021-12-24 14:48:04.213612,-25
2021-12-24 14:48:04.213618,37
2021-12-24 14:48:04.213624,48
2021-12-24 14:48:04.213630,62
2021-12-24 14:48:04.213637,100
2021-12-24 14:48:04.213643,107
2021-12-24 14:48:04.213649,116
2021-12-24 14:48:04.213656,155
2021-12-24 14:48:04.437813,195
2021-12-24 14:48:04.437830,228
2021-12-24 14:48:04.437836,267
2021-12-24 14:48:04.437842,283
2021-12-24 14:48:04.437847,283
2021-12-24 14:48:04.437852,323
2021-12-24 14:48:04.437857,370
2021-12-24 14:48:04.437862,388
2021-12-24 14:48:04.437867,393
2021-12-24 14:48:04.437872,384
2021-12-24 14:48:04.437878,344
2021-12-24 14:48:04.437883,293
2021-12-24 14:48:04.437888,251
2021-12-24 14:48:04.437893,204
2021-12-24 14:48:04.437898,137
2021-12-24 14:48:04.437903,46
2021-12-24 14:48:04.437908,-30
2021-12-24 14:48:04.437913,-53
2021-12-24 14:48:04.437918,-62
2021-12-24 14:48:04.437923,-72
2021-12-24 14:48:04.437928,-83
2021-12-24 14:48:04.437933,-104
2021-12-24 14:48:04.437938,-114
2021-12-24 14:48:04.437943,-90
2021-12-24 14:48:04.437948,-62
2021-12-24 14:48:04.437953,-46
2021-12-24 14:48:04.437958,-39
2021-12-24 14:48:04.437964,-51
2021-12-24 14:48:04.437969,-46
2021-12-24 14:48:04.437974,-18
2021-12-24 14:48:04.707723,-4
2021-12-24 14:48:04.707757,2
2021-12-24 14:48:04.707764,2
2021-12-24 14:48:04.707771,-39
2021-12-24 14:48:04.707777,-72
2021-12-24 14:48:04.707783,-37
2021-12-24 14:48:04.707790,-4
2021-12-24 14:48:04.707796,-13
2021-12-24 14:48:04.707803,-34
2021-12-24 14:48:04.707809,-60
2021-12-24 14:48:04.707816,-60
2021-12-24 14:48:04.707822,-39
2021-12-24 14:48:04.707828,-53
2021-12-24 14:48:04.707835,-79
2021-12-24 14:48:04.707841,-88
2021-12-24 14:48:04.707847,-107
2021-12-24 14:48:04.707853,-104
2021-12-24 14:48:04.707860,-74
2021-12-24 14:48:04.707866,-51
2021-12-24 14:48:04.707872,-44
2021-12-24 14:48:04.707878,-48
2021-12-24 14:48:04.707885,-67
2021-12-24 14:48:04.707891,-79
2021-12-24 14:48:04.707897,-69
2021-12-24 14:48:04.707903,-46
2021-12-24 14:48:04.707909,-44
2021-12-24 14:48:04.707916,-69
2021-12-24 14:48:04.707922,-93
2021-12-24 14:48:04.707928,-88
2021-12-24 14:48:04.707934,-88
2021-12-24 14:48:04.888042,-97
2021-12-24 14:48:04.888072,-93
2021-12-24 14:48:04.888083,-100
2021-12-24 14:48:04.888093,-116
2021-12-24 14:48:04.888103,-104
2021-12-24 14:48:04.888112,-81
2021-12-24 14:48:04.888122,-76
2021-12-24 14:48:04.888132,-83
2021-12-24 14:48:04.888141,-109
2021-12-24 14:48:04.888151,-134
2021-12-24 14:48:04.888160,-114
2021-12-24 14:48:04.888170,-76
2021-12-24 14:48:04.888179,-46
2021-12-24 14:48:04.888189,-25
2021-12-24 14:48:04.888198,-34
2021-12-24 14:48:04.888208,-65
2021-12-24 14:48:04.888217,-65
2021-12-24 14:48:04.888227,-51
2021-12-24 14:48:04.888236,-51
2021-12-24 14:48:04.888246,-55
2021-12-24 14:48:04.888256,-69
2021-12-24 14:48:04.888265,-83
2021-12-24 14:48:04.888275,-65
2021-12-24 14:48:04.888284,-41
2021-12-24 14:48:04.888294,-23
2021-12-24 14:48:04.888303,-16
2021-12-24 14:48:04.888313,-30
2021-12-24 14:48:04.888322,-39
2021-12-24 14:48:04.888332,-25
2021-12-24 14:48:04.888341,72
2021-12-24 14:48:05.113397,363
2021-12-24 14:48:05.113416,789
2021-12-24 14:48:05.113424,924
2021-12-24 14:48:05.113430,230
2021-12-24 14:48:05.113437,-716
2021-12-24 14:48:05.113443,-588
2021-12-24 14:48:05.113449,104
2021-12-24 14:48:05.113456,83
2021-12-24 14:48:05.113462,-141
2021-12-24 14:48:05.113468,-13
2021-12-24 14:48:05.113475,32
2021-12-24 14:48:05.113481,-23
2021-12-24 14:48:05.113487,23
2021-12-24 14:48:05.113493,34
2021-12-24 14:48:05.113500,2
2021-12-24 14:48:05.113506,20
2021-12-24 14:48:05.113512,44
2021-12-24 14:48:05.113518,37
2021-12-24 14:48:05.113524,51
2021-12-24 14:48:05.113531,90
2021-12-24 14:48:05.113537,123
2021-12-24 14:48:05.113543,151
2021-12-24 14:48:05.113550,193
2021-12-24 14:48:05.113556,244
2021-12-24 14:48:05.113562,286
2021-12-24 14:48:05.113569,307
2021-12-24 14:48:05.113575,328
2021-12-24 14:48:05.113581,346
2021-12-24 14:48:05.113587,346
2021-12-24 14:48:05.113594,335
2021-12-24 14:48:05.337969,323
2021-12-24 14:48:05.338000,290
2021-12-24 14:48:05.338012,244
2021-12-24 14:48:05.338022,195
2021-12-24 14:48:05.338031,144
2021-12-24 14:48:05.338041,95
2021-12-24 14:48:05.338050,39
2021-12-24 14:48:05.338060,-32
2021-12-24 14:48:05.338070,-67
2021-12-24 14:48:05.338079,-72
2021-12-24 14:48:05.338089,-81
2021-12-24 14:48:05.338098,-90
2021-12-24 14:48:05.338108,-111
2021-12-24 14:48:05.338117,-130
2021-12-24 14:48:05.338127,-107
2021-12-24 14:48:05.338137,-81
2021-12-24 14:48:05.338146,-86
2021-12-24 14:48:05.338156,-86
2021-12-24 14:48:05.338166,-74
2021-12-24 14:48:05.338175,-69
2021-12-24 14:48:05.338185,-69
2021-12-24 14:48:05.338194,-81
2021-12-24 14:48:05.338204,-93
2021-12-24 14:48:05.338213,-86
2021-12-24 14:48:05.338223,-86
2021-12-24 14:48:05.338232,-97
2021-12-24 14:48:05.338242,-116
2021-12-24 14:48:05.338252,-134
2021-12-24 14:48:05.338261,-148
2021-12-24 14:48:05.338271,-153
2021-12-24 14:48:05.563570,-148
2021-12-24 14:48:05.563593,-139
2021-12-24 14:48:05.563601,-139
2021-12-24 14:48:05.563608,-146
2021-12-24 14:48:05.563614,-137
2021-12-24 14:48:05.563621,-134
2021-12-24 14:48:05.563627,-158
2021-12-24 14:48:05.563633,-165
2021-12-24 14:48:05.563640,-141
2021-12-24 14:48:05.563646,-125
2021-12-24 14:48:05.563653,-128
2021-12-24 14:48:05.563659,-137
2021-12-24 14:48:05.563666,-146
2021-12-24 14:48:05.563672,-141
2021-12-24 14:48:05.563678,-153
2021-12-24 14:48:05.563685,-209
2021-12-24 14:48:05.563692,-225
2021-12-24 14:48:05.563698,-165
2021-12-24 14:48:05.563704,-134
2021-12-24 14:48:05.563710,-160
2021-12-24 14:48:05.563717,-188
2021-12-24 14:48:05.563723,-183
2021-12-24 14:48:05.563729,-125
2021-12-24 14:48:05.563736,-86
2021-12-24 14:48:05.563742,-81
2021-12-24 14:48:05.563748,-51
2021-12-24 14:48:05.563755,-48
2021-12-24 14:48:05.563761,-72
2021-12-24 14:48:05.563767,-72
2021-12-24 14:48:05.563774,-53
2021-12-24 14:48:05.788090,-34
2021-12-24 14:48:05.788111,-20
2021-12-24 14:48:05.788119,-9
2021-12-24 14:48:05.788125,-4
2021-12-24 14:48:05.788132,-13
2021-12-24 14:48:05.788138,-32
2021-12-24 14:48:05.788144,-34
2021-12-24 14:48:05.788151,-18
2021-12-24 14:48:05.788157,-9
2021-12-24 14:48:05.788163,-4
2021-12-24 14:48:05.788170,58
2021-12-24 14:48:05.788176,279
2021-12-24 14:48:05.788182,635
2021-12-24 14:48:05.788189,747
2021-12-24 14:48:05.788195,107
2021-12-24 14:48:05.788201,-707
2021-12-24 14:48:05.788208,-535
2021-12-24 14:48:05.788215,88
2021-12-24 14:48:05.788221,93
2021-12-24 14:48:05.788228,-41
2021-12-24 14:48:05.788234,114
2021-12-24 14:48:05.788240,151
2021-12-24 14:48:05.788247,62
2021-12-24 14:48:05.788253,86
2021-12-24 14:48:05.788259,137
2021-12-24 14:48:05.788266,139
2021-12-24 14:48:05.788272,144
2021-12-24 14:48:05.788278,165
2021-12-24 14:48:05.788284,176
2021-12-24 14:48:05.788291,186
2021-12-24 14:48:06.056786,216
2021-12-24 14:48:06.056816,263
2021-12-24 14:48:06.056828,283
2021-12-24 14:48:06.056838,295
2021-12-24 14:48:06.056848,318
2021-12-24 14:48:06.056857,339
2021-12-24 14:48:06.056867,372
2021-12-24 14:48:06.056877,409
2021-12-24 14:48:06.056886,411
2021-12-24 14:48:06.056896,388
2021-12-24 14:48:06.056906,351
2021-12-24 14:48:06.056915,314
2021-12-24 14:48:06.056925,286
2021-12-24 14:48:06.056935,253
2021-12-24 14:48:06.056945,207
2021-12-24 14:48:06.056954,146
2021-12-24 14:48:06.056964,90
2021-12-24 14:48:06.056974,53
2021-12-24 14:48:06.056983,27
2021-12-24 14:48:06.056993,-11
2021-12-24 14:48:06.057003,-90
2021-12-24 14:48:06.057012,-162
2021-12-24 14:48:06.057022,-167
2021-12-24 14:48:06.057032,-144
2021-12-24 14:48:06.057041,-172
2021-12-24 14:48:06.057051,-211
2021-12-24 14:48:06.057060,-214
2021-12-24 14:48:06.057070,-221
2021-12-24 14:48:06.057079,-244
2021-12-24 14:48:06.057089,-230
2021-12-24 14:48:06.328490,-202
2021-12-24 14:48:06.328520,-193
2021-12-24 14:48:06.328532,-186
2021-12-24 14:48:06.328542,-200
2021-12-24 14:48:06.328551,-230
2021-12-24 14:48:06.328561,-211
2021-12-24 14:48:06.328571,-165
2021-12-24 14:48:06.328580,-160
2021-12-24 14:48:06.328590,-174
2021-12-24 14:48:06.328599,-188
2021-12-24 14:48:06.328609,-204
2021-12-24 14:48:06.328619,-193
2021-12-24 14:48:06.328628,-162
2021-12-24 14:48:06.328638,-146
2021-12-24 14:48:06.328648,-139
2021-12-24 14:48:06.328657,-141
2021-12-24 14:48:06.328667,-144
2021-12-24 14:48:06.328676,-118
2021-12-24 14:48:06.328686,-88
2021-12-24 14:48:06.328696,-76
2021-12-24 14:48:06.328705,-79
2021-12-24 14:48:06.328715,-97
2021-12-24 14:48:06.328725,-95
2021-12-24 14:48:06.328734,-65
2021-12-24 14:48:06.328744,-44
2021-12-24 14:48:06.328753,-48
2021-12-24 14:48:06.328763,-51
2021-12-24 14:48:06.328772,-46
2021-12-24 14:48:06.328782,-41
2021-12-24 14:48:06.328791,-41
2021-12-24 14:48:06.552816,-30
2021-12-24 14:48:06.552846,2
2021-12-24 14:48:06.552858,34
2021-12-24 14:48:06.552868,44
2021-12-24 14:48:06.552878,48
2021-12-24 14:48:06.552887,62
2021-12-24 14:48:06.552897,67
2021-12-24 14:48:06.552907,65
2021-12-24 14:48:06.552916,53
2021-12-24 14:48:06.552926,34
2021-12-24 14:48:06.552935,32
2021-12-24 14:48:06.552945,51
2021-12-24 14:48:06.552955,67
2021-12-24 14:48:06.552964,79
2021-12-24 14:48:06.552974,69
2021-12-24 14:48:06.552983,41
2021-12-24 14:48:06.552993,41
2021-12-24 14:48:06.553002,62
2021-12-24 14:48:06.553012,65
2021-12-24 14:48:06.553026,83
2021-12-24 14:48:06.553036,195
2021-12-24 14:48:06.553046,458
2021-12-24 14:48:06.553056,754
2021-12-24 14:48:06.553065,519
2021-12-24 14:48:06.553075,-365
2021-12-24 14:48:06.553084,-728
2021-12-24 14:48:06.553094,-155
2021-12-24 14:48:06.553104,128
2021-12-24 14:48:06.553113,-83
2021-12-24 14:48:06.553123,-46
2021-12-24 14:48:06.822884,93
2021-12-24 14:48:06.822905,55
2021-12-24 14:48:06.822913,34
2021-12-24 14:48:06.822919,67
2021-12-24 14:48:06.822926,74
2021-12-24 14:48:06.822932,95
2021-12-24 14:48:06.822938,137
2021-12-24 14:48:06.822944,151
2021-12-24 14:48:06.822951,141
2021-12-24 14:48:06.822957,148
2021-12-24 14:48:06.822963,186
2021-12-24 14:48:06.822970,228
2021-12-24 14:48:06.822976,260
2021-12-24 14:48:06.822983,283
2021-12-24 14:48:06.822989,286
2021-12-24 14:48:06.822995,297
2021-12-24 14:48:06.823001,330
2021-12-24 14:48:06.823008,351
2021-12-24 14:48:06.823014,351
2021-12-24 14:48:06.823020,335
2021-12-24 14:48:06.823027,300
2021-12-24 14:48:06.823033,263
2021-12-24 14:48:06.823039,218
2021-12-24 14:48:06.823045,153
2021-12-24 14:48:06.823052,90
2021-12-24 14:48:06.823058,39
2021-12-24 14:48:06.823064,-32
2021-12-24 14:48:06.823071,-104
2021-12-24 14:48:06.823077,-146
2021-12-24 14:48:06.823083,-172
2021-12-24 14:48:06.958699,-218
2021-12-24 14:48:06.958727,-267
2021-12-24 14:48:06.958739,-276
2021-12-24 14:48:06.958751,-265
2021-12-24 14:48:06.958762,-253
2021-12-24 14:48:06.958771,-237
2021-12-24 14:48:06.958783,-228
2021-12-24 14:48:06.958793,-251
2021-12-24 14:48:06.958803,-269
2021-12-24 14:48:06.958814,-253
2021-12-24 14:48:06.958823,-237
2021-12-24 14:48:06.958835,-225
2021-12-24 14:48:06.958847,-211
2021-12-24 14:48:06.958859,-228
2021-12-24 14:48:06.958871,-253
2021-12-24 14:48:06.958883,-235
2021-12-24 14:48:06.958895,-204
2021-12-24 14:48:06.958907,-195
2021-12-24 14:48:06.958919,-183
2021-12-24 14:48:06.958931,-167
2021-12-24 14:48:06.958943,-158
2021-12-24 14:48:06.958955,-151
2021-12-24 14:48:06.958968,-141
2021-12-24 14:48:06.958980,-121
2021-12-24 14:48:06.958992,-107
2021-12-24 14:48:06.959004,-114
2021-12-24 14:48:06.959015,-116
2021-12-24 14:48:06.959026,-95
2021-12-24 14:48:06.959039,-69
2021-12-24 14:48:06.959051,-51
2021-12-24 14:48:07.272187,-41
2021-12-24 14:48:07.272209,-62
2021-12-24 14:48:07.272217,-125
2021-12-24 14:48:07.272224,-188
2021-12-24 14:48:07.272230,-179
2021-12-24 14:48:07.272236,-132
2021-12-24 14:48:07.272243,-121
2021-12-24 14:48:07.272249,-125
2021-12-24 14:48:07.272255,-107
2021-12-24 14:48:07.272261,-93
2021-12-24 14:48:07.272268,-95
2021-12-24 14:48:07.272274,-93
2021-12-24 14:48:07.272280,-109
2021-12-24 14:48:07.272286,-128
2021-12-24 14:48:07.272293,-111
2021-12-24 14:48:07.272299,-93
2021-12-24 14:48:07.272305,-83
2021-12-24 14:48:07.272312,-67
2021-12-24 14:48:07.272318,-62
2021-12-24 14:48:07.272324,-62
2021-12-24 14:48:07.272330,-44
2021-12-24 14:48:07.272337,-34
2021-12-24 14:48:07.272343,-44
2021-12-24 14:48:07.272349,-18
2021-12-24 14:48:07.272355,155
2021-12-24 14:48:07.272361,551
2021-12-24 14:48:07.272368,944
2021-12-24 14:48:07.272374,674
2021-12-24 14:48:07.272380,-384
2021-12-24 14:48:07.272387,-933
2021-12-24 14:48:07.407972,-318
2021-12-24 14:48:07.408002,151
2021-12-24 14:48:07.408014,-16
2021-12-24 14:48:07.408024,-9
2021-12-24 14:48:07.408034,139
2021-12-24 14:48:07.408043,67
2021-12-24 14:48:07.408053,13
2021-12-24 14:48:07.408063,88
2021-12-24 14:48:07.408072,111
2021-12-24 14:48:07.408082,95
2021-12-24 14:48:07.408091,128
2021-12-24 14:48:07.408101,158
2021-12-24 14:48:07.408111,162
2021-12-24 14:48:07.408120,190
2021-12-24 14:48:07.408130,237
2021-12-24 14:48:07.408139,269
2021-12-24 14:48:07.408149,309
2021-12-24 14:48:07.408158,356
2021-12-24 14:48:07.408168,386
2021-12-24 14:48:07.408177,416
2021-12-24 14:48:07.408187,460
2021-12-24 14:48:07.408197,493
2021-12-24 14:48:07.408206,502
2021-12-24 14:48:07.408216,486
2021-12-24 14:48:07.408225,465
2021-12-24 14:48:07.408235,444
2021-12-24 14:48:07.408244,393
2021-12-24 14:48:07.408254,323
2021-12-24 14:48:07.408264,258
2021-12-24 14:48:07.408273,188
2021-12-24 14:48:07.678496,104
2021-12-24 14:48:07.678525,41
2021-12-24 14:48:07.678536,2
2021-12-24 14:48:07.678546,-53
2021-12-24 14:48:07.678556,-104
2021-12-24 14:48:07.678566,-128
2021-12-24 14:48:07.678575,-167
2021-12-24 14:48:07.678585,-218
2021-12-24 14:48:07.678594,-253
2021-12-24 14:48:07.678604,-251
2021-12-24 14:48:07.678613,-246
2021-12-24 14:48:07.678623,-274
2021-12-24 14:48:07.678633,-302
2021-12-24 14:48:07.678642,-304
2021-12-24 14:48:07.678652,-309
2021-12-24 14:48:07.678662,-309
2021-12-24 14:48:07.678671,-295
2021-12-24 14:48:07.678680,-279
2021-12-24 14:48:07.678690,-258
2021-12-24 14:48:07.678700,-242
2021-12-24 14:48:07.678709,-228
2021-12-24 14:48:07.678719,-211
2021-12-24 14:48:07.678728,-186
2021-12-24 14:48:07.678738,-167
2021-12-24 14:48:07.678747,-160
2021-12-24 14:48:07.678757,-141
2021-12-24 14:48:07.678766,-118
2021-12-24 14:48:07.678776,-114
2021-12-24 14:48:07.678785,-118
2021-12-24 14:48:07.678795,-111
2021-12-24 14:48:07.858038,-90
2021-12-24 14:48:07.858058,-62
2021-12-24 14:48:07.858065,-30
2021-12-24 14:48:07.858072,-6
2021-12-24 14:48:07.858078,-25
2021-12-24 14:48:07.858084,-46
2021-12-24 14:48:07.858091,-27
2021-12-24 14:48:07.858097,-11
2021-12-24 14:48:07.858103,-27
2021-12-24 14:48:07.858109,-55
2021-12-24 14:48:07.858116,-76
2021-12-24 14:48:07.858122,-76
2021-12-24 14:48:07.858128,-58
2021-12-24 14:48:07.858135,-39
2021-12-24 14:48:07.858141,-27
2021-12-24 14:48:07.858147,-30
2021-12-24 14:48:07.858153,-44
2021-12-24 14:48:07.858160,-46
2021-12-24 14:48:07.858166,-51
2021-12-24 14:48:07.858172,-46
2021-12-24 14:48:07.858179,137
2021-12-24 14:48:07.858185,612
2021-12-24 14:48:07.858191,1112
2021-12-24 14:48:07.858197,861
2021-12-24 14:48:07.858204,-360
2021-12-24 14:48:07.858210,-1059
2021-12-24 14:48:07.858216,-407
2021-12-24 14:48:07.858222,137
2021-12-24 14:48:07.858229,-30
2021-12-24 14:48:07.858235,-18
2021-12-24 14:48:08.172195,172
2021-12-24 14:48:08.172225,141
2021-12-24 14:48:08.172237,107
2021-12-24 14:48:08.172247,146
2021-12-24 14:48:08.172257,128
2021-12-24 14:48:08.172267,118
2021-12-24 14:48:08.172276,162
2021-12-24 14:48:08.172286,186
2021-12-24 14:48:08.172296,188
2021-12-24 14:48:08.172305,183
2021-12-24 14:48:08.172315,179
2021-12-24 14:48:08.172325,195
2021-12-24 14:48:08.172334,237
2021-12-24 14:48:08.172344,269
2021-12-24 14:48:08.172354,276
2021-12-24 14:48:08.172363,295
2021-12-24 14:48:08.172373,332
2021-12-24 14:48:08.172383,363
2021-12-24 14:48:08.172392,374
2021-12-24 14:48:08.172402,377
2021-12-24 14:48:08.172411,353
2021-12-24 14:48:08.172421,295
2021-12-24 14:48:08.172431,232
2021-12-24 14:48:08.172440,174
2021-12-24 14:48:08.172450,107
2021-12-24 14:48:08.172459,44
2021-12-24 14:48:08.172469,-11
2021-12-24 14:48:08.172479,-67
2021-12-24 14:48:08.172489,-97
2021-12-24 14:48:08.172499,-104
2021-12-24 14:48:08.487095,-100
2021-12-24 14:48:08.487124,-86
2021-12-24 14:48:08.487136,-86
2021-12-24 14:48:08.487147,-107
2021-12-24 14:48:08.487156,-100
2021-12-24 14:48:08.487166,-67
2021-12-24 14:48:08.487176,-51
2021-12-24 14:48:08.487185,-41
2021-12-24 14:48:08.487194,-53
2021-12-24 14:48:08.487204,-88
2021-12-24 14:48:08.487214,-79
2021-12-24 14:48:08.487223,-32
2021-12-24 14:48:08.487233,-32
2021-12-24 14:48:08.487243,-60
2021-12-24 14:48:08.487252,-88
2021-12-24 14:48:08.487261,-130
2021-12-24 14:48:08.487271,-148
2021-12-24 14:48:08.487280,-128
2021-12-24 14:48:08.487290,-107
2021-12-24 14:48:08.487299,-118
2021-12-24 14:48:08.487309,-155
2021-12-24 14:48:08.487318,-197
2021-12-24 14:48:08.487328,-223
2021-12-24 14:48:08.487337,-230
2021-12-24 14:48:08.487347,-207
2021-12-24 14:48:08.487356,-165
2021-12-24 14:48:08.487366,-151
2021-12-24 14:48:08.487375,-160
2021-12-24 14:48:08.487385,-148
2021-12-24 14:48:08.487394,-125
2021-12-24 14:48:08.622486,-118
2021-12-24 14:48:08.622535,-118
2021-12-24 14:48:08.622560,-116
2021-12-24 14:48:08.622568,-118
2021-12-24 14:48:08.622575,-100
2021-12-24 14:48:08.622582,-76
2021-12-24 14:48:08.622589,-62
2021-12-24 14:48:08.622595,-60
2021-12-24 14:48:08.622604,-69
2021-12-24 14:48:08.622613,-79
2021-12-24 14:48:08.622654,-62
2021-12-24 14:48:08.622671,-58
2021-12-24 14:48:08.622679,-51
2021-12-24 14:48:08.622689,118
2021-12-24 14:48:08.622696,572
2021-12-24 14:48:08.622702,1079
2021-12-24 14:48:08.622708,951
2021-12-24 14:48:08.622714,-160
2021-12-24 14:48:08.622721,-1000
2021-12-24 14:48:08.622727,-516
2021-12-24 14:48:08.622734,53
2021-12-24 14:48:08.622740,-104
2021-12-24 14:48:08.622746,-141
2021-12-24 14:48:08.622752,51
2021-12-24 14:48:08.622759,39
2021-12-24 14:48:08.622765,-11
2021-12-24 14:48:08.622771,23
2021-12-24 14:48:08.622777,34
2021-12-24 14:48:08.622783,37
2021-12-24 14:48:08.622790,76
2021-12-24 14:48:08.981793,111
2021-12-24 14:48:08.981823,116
2021-12-24 14:48:08.981835,123
2021-12-24 14:48:08.981845,155
2021-12-24 14:48:08.981855,200
2021-12-24 14:48:08.981864,246
2021-12-24 14:48:08.981874,300
2021-12-24 14:48:08.981884,344
2021-12-24 14:48:08.981893,372
2021-12-24 14:48:08.981903,407
2021-12-24 14:48:08.981991,444
2021-12-24 14:48:08.982016,463
2021-12-24 14:48:08.982028,451
2021-12-24 14:48:08.982038,397
2021-12-24 14:48:08.982048,325
2021-12-24 14:48:08.982057,258
2021-12-24 14:48:08.982067,179
2021-12-24 14:48:08.982077,74
2021-12-24 14:48:08.982086,-16
2021-12-24 14:48:08.982096,-81
2021-12-24 14:48:08.982105,-130
2021-12-24 14:48:08.982115,-160
2021-12-24 14:48:08.982124,-172
2021-12-24 14:48:08.982134,-169
2021-12-24 14:48:08.982143,-167
2021-12-24 14:48:08.982153,-167
2021-12-24 14:48:08.982162,-155
2021-12-24 14:48:08.982172,-141
2021-12-24 14:48:08.982181,-130
2021-12-24 14:48:08.982191,-111
2021-12-24 14:48:09.072942,-100
2021-12-24 14:48:09.072963,-93
2021-12-24 14:48:09.072971,-81
2021-12-24 14:48:09.072977,-74
2021-12-24 14:48:09.072984,-62
2021-12-24 14:48:09.072990,-44
2021-12-24 14:48:09.072996,-53
2021-12-24 14:48:09.073003,-79
2021-12-24 14:48:09.073009,-72
2021-12-24 14:48:09.073015,-53
2021-12-24 14:48:09.073021,-48
2021-12-24 14:48:09.073028,-39
2021-12-24 14:48:09.073034,-51
2021-12-24 14:48:09.073040,-81
2021-12-24 14:48:09.073047,-81
2021-12-24 14:48:09.073053,-74
2021-12-24 14:48:09.073059,-74
2021-12-24 14:48:09.073066,-44
2021-12-24 14:48:09.073072,-9
2021-12-24 14:48:09.073078,-11
2021-12-24 14:48:09.073084,-25
2021-12-24 14:48:09.073091,-20
2021-12-24 14:48:09.073097,-9
2021-12-24 14:48:09.073103,-4
2021-12-24 14:48:09.073110,-13
2021-12-24 14:48:09.073116,-41
2021-12-24 14:48:09.073122,-67
2021-12-24 14:48:09.073128,-58
2021-12-24 14:48:09.073135,-39
2021-12-24 14:48:09.073141,-37
2021-12-24 14:48:09.298553,-41
2021-12-24 14:48:09.298584,-37
2021-12-24 14:48:09.298596,-18
2021-12-24 14:48:09.298606,-11
2021-12-24 14:48:09.298616,-25
2021-12-24 14:48:09.298626,-65
2021-12-24 14:48:09.298635,0
2021-12-24 14:48:09.298645,372
2021-12-24 14:48:09.298655,937
2021-12-24 14:48:09.298665,1003
2021-12-24 14:48:09.298674,4
2021-12-24 14:48:09.298684,-1063
2021-12-24 14:48:09.298694,-826
2021-12-24 14:48:09.298703,-114
2021-12-24 14:48:09.298713,-137
2021-12-24 14:48:09.298723,-272
2021-12-24 14:48:09.298732,-90
2021-12-24 14:48:09.298742,-60
2021-12-24 14:48:09.298751,-137
2021-12-24 14:48:09.298761,-81
2021-12-24 14:48:09.298771,-41
2021-12-24 14:48:09.298780,-83
2021-12-24 14:48:09.298790,-83
2021-12-24 14:48:09.298799,-44
2021-12-24 14:48:09.298809,-25
2021-12-24 14:48:09.298818,2
2021-12-24 14:48:09.298828,48
2021-12-24 14:48:09.298837,86
2021-12-24 14:48:09.298847,128
2021-12-24 14:48:09.298857,179
2021-12-24 14:48:09.477907,228
2021-12-24 14:48:09.477933,283
2021-12-24 14:48:09.477941,335
2021-12-24 14:48:09.477947,353
2021-12-24 14:48:09.477954,351
2021-12-24 14:48:09.477964,330
2021-12-24 14:48:09.477971,300
2021-12-24 14:48:09.477977,274
2021-12-24 14:48:09.477983,225
2021-12-24 14:48:09.477990,141
2021-12-24 14:48:09.477996,53
2021-12-24 14:48:09.478003,-27
2021-12-24 14:48:09.478009,-88
2021-12-24 14:48:09.478016,-116
2021-12-24 14:48:09.478022,-139
2021-12-24 14:48:09.478028,-162
2021-12-24 14:48:09.478034,-181
2021-12-24 14:48:09.478041,-202
2021-12-24 14:48:09.478047,-202
2021-12-24 14:48:09.478053,-174
2021-12-24 14:48:09.478060,-158
2021-12-24 14:48:09.478066,-151
2021-12-24 14:48:09.478072,-141
2021-12-24 14:48:09.478078,-144
2021-12-24 14:48:09.478085,-141
2021-12-24 14:48:09.478091,-114
2021-12-24 14:48:09.478097,-95
2021-12-24 14:48:09.478104,-97
2021-12-24 14:48:09.478110,-95
2021-12-24 14:48:09.478116,-83
2021-12-24 14:48:09.748485,-81
2021-12-24 14:48:09.748528,-107
2021-12-24 14:48:09.748539,-132
2021-12-24 14:48:09.748549,-125
2021-12-24 14:48:09.748559,-134
2021-12-24 14:48:09.748569,-158
2021-12-24 14:48:09.748578,-141
2021-12-24 14:48:09.748588,-111
2021-12-24 14:48:09.748598,-104
2021-12-24 14:48:09.748607,-114
2021-12-24 14:48:09.748617,-128
2021-12-24 14:48:09.748627,-134
2021-12-24 14:48:09.748636,-109
2021-12-24 14:48:09.748646,-81
2021-12-24 14:48:09.748656,-76
2021-12-24 14:48:09.748665,-79
2021-12-24 14:48:09.748675,-76
2021-12-24 14:48:09.748684,-65
2021-12-24 14:48:09.748694,-48
2021-12-24 14:48:09.748704,-39
2021-12-24 14:48:09.748714,-37
2021-12-24 14:48:09.748723,-25
2021-12-24 14:48:09.748733,0
2021-12-24 14:48:09.748743,30
2021-12-24 14:48:09.748753,41
2021-12-24 14:48:09.748762,16
2021-12-24 14:48:09.748772,-9
2021-12-24 14:48:09.748781,-11
2021-12-24 14:48:09.748791,-16
2021-12-24 14:48:09.748801,-13
2021-12-24 14:48:09.972946,9
2021-12-24 14:48:09.972975,23
2021-12-24 14:48:09.972987,23
2021-12-24 14:48:09.972998,4
2021-12-24 14:48:09.973008,-25
2021-12-24 14:48:09.973018,-18
2021-12-24 14:48:09.973028,16
2021-12-24 14:48:09.973037,27
2021-12-24 14:48:09.973047,11
2021-12-24 14:48:09.973057,-18
2021-12-24 14:48:09.973067,58
2021-12-24 14:48:09.973077,409
2021-12-24 14:48:09.973087,961
2021-12-24 14:48:09.973097,1128
2021-12-24 14:48:09.973107,274
2021-12-24 14:48:09.973116,-856
2021-12-24 14:48:09.973126,-758
2021-12-24 14:48:09.973136,-4
2021-12-24 14:48:09.973146,32
2021-12-24 14:48:09.973155,-137
2021-12-24 14:48:09.973165,23
2021-12-24 14:48:09.973175,39
2021-12-24 14:48:09.973185,-58
2021-12-24 14:48:09.973194,-18
2021-12-24 14:48:09.973204,16
2021-12-24 14:48:09.973214,-4
2021-12-24 14:48:09.973224,9
2021-12-24 14:48:09.973234,16
2021-12-24 14:48:09.973243,9
2021-12-24 14:48:09.973253,44
2021-12-24 14:48:10.286474,90
2021-12-24 14:48:10.286495,118
2021-12-24 14:48:10.286503,141
2021-12-24 14:48:10.286510,153
2021-12-24 14:48:10.286516,186
2021-12-24 14:48:10.286522,242
2021-12-24 14:48:10.286529,253
2021-12-24 14:48:10.286535,232
2021-12-24 14:48:10.286541,228
2021-12-24 14:48:10.286547,204
2021-12-24 14:48:10.286554,174
2021-12-24 14:48:10.286560,174
2021-12-24 14:48:10.286566,155
2021-12-24 14:48:10.286573,93
2021-12-24 14:48:10.286579,13
2021-12-24 14:48:10.286585,-62
2021-12-24 14:48:10.286592,-114
2021-12-24 14:48:10.286598,-144
2021-12-24 14:48:10.286604,-167
2021-12-24 14:48:10.286610,-179
2021-12-24 14:48:10.286617,-193
2021-12-24 14:48:10.286623,-214
2021-12-24 14:48:10.286629,-207
2021-12-24 14:48:10.286635,-176
2021-12-24 14:48:10.286642,-158
2021-12-24 14:48:10.286648,-148
2021-12-24 14:48:10.286654,-141
2021-12-24 14:48:10.286660,-141
2021-12-24 14:48:10.286667,-134
2021-12-24 14:48:10.286673,-134
2021-12-24 14:48:10.468107,-137
2021-12-24 14:48:10.468133,-118
2021-12-24 14:48:10.468141,-114
2021-12-24 14:48:10.468148,-125
2021-12-24 14:48:10.468154,-114
2021-12-24 14:48:10.468161,-86
2021-12-24 14:48:10.468167,-69
2021-12-24 14:48:10.468173,-62
2021-12-24 14:48:10.468180,-58
2021-12-24 14:48:10.468186,-53
2021-12-24 14:48:10.468192,-46
2021-12-24 14:48:10.468199,-30
2021-12-24 14:48:10.468205,-16
2021-12-24 14:48:10.468211,-25
2021-12-24 14:48:10.468218,-58
2021-12-24 14:48:10.468224,-74
2021-12-24 14:48:10.468231,-55
2021-12-24 14:48:10.468237,-34
2021-12-24 14:48:10.468244,-25
2021-12-24 14:48:10.468250,-32
2021-12-24 14:48:10.468256,-62
2021-12-24 14:48:10.468263,-74
2021-12-24 14:48:10.468269,-46
2021-12-24 14:48:10.468275,-23
2021-12-24 14:48:10.468281,-18
2021-12-24 14:48:10.468287,-20
2021-12-24 14:48:10.468294,-27
2021-12-24 14:48:10.468300,-30
2021-12-24 14:48:10.468306,-16
2021-12-24 14:48:10.468313,6
2021-12-24 14:48:10.693401,18
2021-12-24 14:48:10.693422,2
2021-12-24 14:48:10.693430,-16
2021-12-24 14:48:10.693436,-9
2021-12-24 14:48:10.693443,9
2021-12-24 14:48:10.693449,20
2021-12-24 14:48:10.693455,23
2021-12-24 14:48:10.693462,9
2021-12-24 14:48:10.693468,-16
2021-12-24 14:48:10.693474,-20
2021-12-24 14:48:10.693480,4
2021-12-24 14:48:10.693486,11
2021-12-24 14:48:10.693493,-23
2021-12-24 14:48:10.693499,-79
2021-12-24 14:48:10.693505,-93
2021-12-24 14:48:10.693511,-62
2021-12-24 14:48:10.693517,-30
2021-12-24 14:48:10.693523,-4
2021-12-24 14:48:10.693530,2
2021-12-24 14:48:10.693536,-18
2021-12-24 14:48:10.693542,-34
2021-12-24 14:48:10.693548,-30
2021-12-24 14:48:10.693554,-30
2021-12-24 14:48:10.693561,-23
2021-12-24 14:48:10.693567,-4
2021-12-24 14:48:10.693573,-18
2021-12-24 14:48:10.693579,-46
2021-12-24 14:48:10.693585,-46
2021-12-24 14:48:10.693591,-23
2021-12-24 14:48:10.693597,-20
2021-12-24 14:48:10.963553,-44
2021-12-24 14:48:10.963573,-65
2021-12-24 14:48:10.963581,-93
2021-12-24 14:48:10.963587,-137
2021-12-24 14:48:10.963593,-34
2021-12-24 14:48:10.963600,386
2021-12-24 14:48:10.963606,912
2021-12-24 14:48:10.963612,896
2021-12-24 14:48:10.963619,-95
2021-12-24 14:48:10.963625,-1024
2021-12-24 14:48:10.963631,-654
2021-12-24 14:48:10.963637,-6
2021-12-24 14:48:10.963644,-148
2021-12-24 14:48:10.963650,-279
2021-12-24 14:48:10.963656,-83
2021-12-24 14:48:10.963662,-65
2021-12-24 14:48:10.963668,-116
2021-12-24 14:48:10.963674,-41
2021-12-24 14:48:10.963680,-20
2021-12-24 14:48:10.963687,-55
2021-12-24 14:48:10.963693,-20
2021-12-24 14:48:10.963699,23
2021-12-24 14:48:10.963706,34
2021-12-24 14:48:10.963712,67
2021-12-24 14:48:10.963718,102
2021-12-24 14:48:10.963724,125
2021-12-24 14:48:10.963730,162
2021-12-24 14:48:10.963736,204
2021-12-24 14:48:10.963742,244
2021-12-24 14:48:10.963748,293
2021-12-24 14:48:11.143174,325
2021-12-24 14:48:11.143204,342
2021-12-24 14:48:11.143216,356
2021-12-24 14:48:11.143226,353
2021-12-24 14:48:11.143236,335
2021-12-24 14:48:11.143247,297
2021-12-24 14:48:11.143256,237
2021-12-24 14:48:11.143266,188
2021-12-24 14:48:11.143275,148
2021-12-24 14:48:11.143285,83
2021-12-24 14:48:11.143294,27
2021-12-24 14:48:11.143304,-18
2021-12-24 14:48:11.143314,-83
2021-12-24 14:48:11.143323,-116
2021-12-24 14:48:11.143333,-111
2021-12-24 14:48:11.143343,-121
2021-12-24 14:48:11.143352,-128
2021-12-24 14:48:11.143362,-121
2021-12-24 14:48:11.143371,-146
2021-12-24 14:48:11.143381,-162
2021-12-24 14:48:11.143390,-137
2021-12-24 14:48:11.143400,-116
2021-12-24 14:48:11.143410,-116
2021-12-24 14:48:11.143419,-123
2021-12-24 14:48:11.143428,-130
2021-12-24 14:48:11.143438,-116
2021-12-24 14:48:11.143448,-95
2021-12-24 14:48:11.143457,-93
2021-12-24 14:48:11.143467,-83
2021-12-24 14:48:11.143476,-76
2021-12-24 14:48:11.368186,-76
2021-12-24 14:48:11.368209,-65
2021-12-24 14:48:11.368216,-51
2021-12-24 14:48:11.368223,-51
2021-12-24 14:48:11.368229,-55
2021-12-24 14:48:11.368236,-74
2021-12-24 14:48:11.368242,-93
2021-12-24 14:48:11.368248,-90
2021-12-24 14:48:11.368254,-97
2021-12-24 14:48:11.368260,-104
2021-12-24 14:48:11.368267,-100
2021-12-24 14:48:11.368273,-104
2021-12-24 14:48:11.368279,-102
2021-12-24 14:48:11.368286,-76
2021-12-24 14:48:11.368292,-60
2021-12-24 14:48:11.368298,-62
2021-12-24 14:48:11.368304,-67
2021-12-24 14:48:11.368310,-76
2021-12-24 14:48:11.368316,-76
2021-12-24 14:48:11.368323,-62
2021-12-24 14:48:11.368329,-51
2021-12-24 14:48:11.368335,-44
2021-12-24 14:48:11.368341,-37
2021-12-24 14:48:11.368348,-34
2021-12-24 14:48:11.368354,-18
2021-12-24 14:48:11.368360,-2
2021-12-24 14:48:11.368366,2
2021-12-24 14:48:11.368372,2
2021-12-24 14:48:11.368379,4
2021-12-24 14:48:11.368385,-6
2021-12-24 14:48:11.592879,-27
2021-12-24 14:48:11.592909,-32
2021-12-24 14:48:11.592920,-30
2021-12-24 14:48:11.592930,-60
2021-12-24 14:48:11.592940,-107
2021-12-24 14:48:11.592949,-132
2021-12-24 14:48:11.592959,-141
2021-12-24 14:48:11.592968,-160
2021-12-24 14:48:11.592977,-165
2021-12-24 14:48:11.592987,-167
2021-12-24 14:48:11.592996,-190
2021-12-24 14:48:11.593006,-204
2021-12-24 14:48:11.593015,-188
2021-12-24 14:48:11.593024,-172
2021-12-24 14:48:11.593034,-176
2021-12-24 14:48:11.593043,-193
2021-12-24 14:48:11.593052,-211
2021-12-24 14:48:11.593061,-209
2021-12-24 14:48:11.593071,-183
2021-12-24 14:48:11.593080,-158
2021-12-24 14:48:11.593090,-153
2021-12-24 14:48:11.593099,-158
2021-12-24 14:48:11.593108,-169
2021-12-24 14:48:11.593118,-186
2021-12-24 14:48:11.593127,-202
2021-12-24 14:48:11.593136,-200
2021-12-24 14:48:11.593146,-186
2021-12-24 14:48:11.593155,-53
2021-12-24 14:48:11.593164,337
2021-12-24 14:48:11.593174,844
2021-12-24 14:48:11.862917,854
2021-12-24 14:48:11.862936,-97
2021-12-24 14:48:11.862944,-984
2021-12-24 14:48:11.862950,-612
2021-12-24 14:48:11.862957,-2
2021-12-24 14:48:11.862963,-125
2021-12-24 14:48:11.862969,-200
2021-12-24 14:48:11.862976,4
2021-12-24 14:48:11.862982,11
2021-12-24 14:48:11.862988,-67
2021-12-24 14:48:11.862995,-37
2021-12-24 14:48:11.863001,-13
2021-12-24 14:48:11.863007,-27
2021-12-24 14:48:11.863013,-2
2021-12-24 14:48:11.863020,44
2021-12-24 14:48:11.863026,44
2021-12-24 14:48:11.863032,41
2021-12-24 14:48:11.863038,90
2021-12-24 14:48:11.863044,144
2021-12-24 14:48:11.863051,176
2021-12-24 14:48:11.863057,214
2021-12-24 14:48:11.863063,253
2021-12-24 14:48:11.863069,286
2021-12-24 14:48:11.863080,325
2021-12-24 14:48:11.863087,365
2021-12-24 14:48:11.863093,386
2021-12-24 14:48:11.863099,379
2021-12-24 14:48:11.863105,358
2021-12-24 14:48:11.863112,335
2021-12-24 14:48:11.863118,311
2021-12-24 14:48:12.043591,272
2021-12-24 14:48:12.043614,214
2021-12-24 14:48:12.043622,151
2021-12-24 14:48:12.043629,83
2021-12-24 14:48:12.043635,34
2021-12-24 14:48:12.043641,20
2021-12-24 14:48:12.043647,6
2021-12-24 14:48:12.043654,-6
2021-12-24 14:48:12.043660,-27
2021-12-24 14:48:12.043666,-65
2021-12-24 14:48:12.043673,-79
2021-12-24 14:48:12.043679,-48
2021-12-24 14:48:12.043685,-23
2021-12-24 14:48:12.043691,-30
2021-12-24 14:48:12.043697,-48
2021-12-24 14:48:12.043703,-53
2021-12-24 14:48:12.043710,-37
2021-12-24 14:48:12.043716,-16
2021-12-24 14:48:12.043722,0
2021-12-24 14:48:12.043728,11
2021-12-24 14:48:12.043735,6
2021-12-24 14:48:12.043741,-18
2021-12-24 14:48:12.043747,-18
2021-12-24 14:48:12.043753,9
2021-12-24 14:48:12.043759,20
2021-12-24 14:48:12.043765,4
2021-12-24 14:48:12.043772,-13
2021-12-24 14:48:12.043778,-16
2021-12-24 14:48:12.043784,-11
2021-12-24 14:48:12.043790,-48
2021-12-24 14:48:12.312127,-111
2021-12-24 14:48:12.312157,-130
2021-12-24 14:48:12.312168,-130
2021-12-24 14:48:12.312178,-167
2021-12-24 14:48:12.312188,-181
2021-12-24 14:48:12.312198,-160
2021-12-24 14:48:12.312208,-155
2021-12-24 14:48:12.312217,-179
2021-12-24 14:48:12.312227,-221
2021-12-24 14:48:12.312236,-244
2021-12-24 14:48:12.312246,-207
2021-12-24 14:48:12.312255,-167
2021-12-24 14:48:12.312265,-158
2021-12-24 14:48:12.312275,-160
2021-12-24 14:48:12.312284,-186
2021-12-24 14:48:12.312294,-223
2021-12-24 14:48:12.312304,-225
2021-12-24 14:48:12.312313,-197
2021-12-24 14:48:12.312323,-179
2021-12-24 14:48:12.312333,-179
2021-12-24 14:48:12.312342,-176
2021-12-24 14:48:12.312352,-172
2021-12-24 14:48:12.312361,-160
2021-12-24 14:48:12.312371,-137
2021-12-24 14:48:12.312380,-116
2021-12-24 14:48:12.312390,-109
2021-12-24 14:48:12.312400,-111
2021-12-24 14:48:12.312409,-109
2021-12-24 14:48:12.312419,-100
2021-12-24 14:48:12.312428,-83
2021-12-24 14:48:12.537293,-55
2021-12-24 14:48:12.537322,-25
2021-12-24 14:48:12.537334,-18
2021-12-24 14:48:12.537344,-25
2021-12-24 14:48:12.537353,-30
2021-12-24 14:48:12.537363,-20
2021-12-24 14:48:12.537373,-20
2021-12-24 14:48:12.537382,-46
2021-12-24 14:48:12.537392,-69
2021-12-24 14:48:12.537402,-60
2021-12-24 14:48:12.537412,-34
2021-12-24 14:48:12.537422,-20
2021-12-24 14:48:12.537431,-16
2021-12-24 14:48:12.537441,-34
2021-12-24 14:48:12.537450,-55
2021-12-24 14:48:12.537461,-44
2021-12-24 14:48:12.537470,-27
2021-12-24 14:48:12.537480,-55
2021-12-24 14:48:12.537489,-44
2021-12-24 14:48:12.537499,183
2021-12-24 14:48:12.537509,644
2021-12-24 14:48:12.537519,989
2021-12-24 14:48:12.537528,572
2021-12-24 14:48:12.537538,-512
2021-12-24 14:48:12.537548,-856
2021-12-24 14:48:12.537557,-158
2021-12-24 14:48:12.537567,132
2021-12-24 14:48:12.537577,-102
2021-12-24 14:48:12.537586,-20
2021-12-24 14:48:12.537596,132
2021-12-24 14:48:12.718096,72
2021-12-24 14:48:12.718125,65
2021-12-24 14:48:12.718137,123
2021-12-24 14:48:12.718147,114
2021-12-24 14:48:12.718157,93
2021-12-24 14:48:12.718166,88
2021-12-24 14:48:12.718176,79
2021-12-24 14:48:12.718185,86
2021-12-24 14:48:12.718273,114
2021-12-24 14:48:12.718285,144
2021-12-24 14:48:12.718294,181
2021-12-24 14:48:12.718304,228
2021-12-24 14:48:12.718313,246
2021-12-24 14:48:12.718323,256
2021-12-24 14:48:12.718333,297
2021-12-24 14:48:12.718342,337
2021-12-24 14:48:12.718352,356
2021-12-24 14:48:12.718361,363
2021-12-24 14:48:12.718371,330
2021-12-24 14:48:12.718380,263
2021-12-24 14:48:12.718390,202
2021-12-24 14:48:12.718399,155
2021-12-24 14:48:12.718409,97
2021-12-24 14:48:12.718418,18
2021-12-24 14:48:12.718428,-67
2021-12-24 14:48:12.718437,-137
2021-12-24 14:48:12.718448,-190
2021-12-24 14:48:12.718458,-235
2021-12-24 14:48:12.718467,-251
2021-12-24 14:48:12.718477,-253
2021-12-24 14:48:12.988067,-260
2021-12-24 14:48:12.988097,-258
2021-12-24 14:48:12.988109,-246
2021-12-24 14:48:12.988118,-246
2021-12-24 14:48:12.988128,-228
2021-12-24 14:48:12.988137,-211
2021-12-24 14:48:12.988147,-232
2021-12-24 14:48:12.988156,-237
2021-12-24 14:48:12.988166,-207
2021-12-24 14:48:12.988175,-193
2021-12-24 14:48:12.988185,-186
2021-12-24 14:48:12.988194,-186
2021-12-24 14:48:12.988203,-197
2021-12-24 14:48:12.988213,-190
2021-12-24 14:48:12.988222,-162
2021-12-24 14:48:12.988232,-155
2021-12-24 14:48:12.988241,-155
2021-12-24 14:48:12.988251,-146
2021-12-24 14:48:12.988260,-134
2021-12-24 14:48:12.988270,-121
2021-12-24 14:48:12.988279,-114
2021-12-24 14:48:12.988289,-128
2021-12-24 14:48:12.988298,-141
2021-12-24 14:48:12.988308,-148
2021-12-24 14:48:12.988317,-137
2021-12-24 14:48:12.988326,-102
2021-12-24 14:48:12.988336,-95
2021-12-24 14:48:12.988345,-107
2021-12-24 14:48:12.988355,-76
2021-12-24 14:48:12.988364,-39
2021-12-24 14:48:13.213430,-46
2021-12-24 14:48:13.213450,-46
2021-12-24 14:48:13.213458,-18
2021-12-24 14:48:13.213465,-9
2021-12-24 14:48:13.213472,-11
2021-12-24 14:48:13.213478,-18
2021-12-24 14:48:13.213484,-30
2021-12-24 14:48:13.213490,-13
2021-12-24 14:48:13.213497,9
2021-12-24 14:48:13.213503,6
2021-12-24 14:48:13.213509,0
2021-12-24 14:48:13.213515,-11
2021-12-24 14:48:13.213521,-30
2021-12-24 14:48:13.213528,-16
2021-12-24 14:48:13.213534,0
2021-12-24 14:48:13.213540,-9
2021-12-24 14:48:13.213546,-9
2021-12-24 14:48:13.213552,-23
2021-12-24 14:48:13.213559,-46
2021-12-24 14:48:13.213565,-9
2021-12-24 14:48:13.213571,48
2021-12-24 14:48:13.213577,67
2021-12-24 14:48:13.213583,67
2021-12-24 14:48:13.213589,60
2021-12-24 14:48:13.213595,37
2021-12-24 14:48:13.213602,41
2021-12-24 14:48:13.213608,53
2021-12-24 14:48:13.213614,20
2021-12-24 14:48:13.213620,0
2021-12-24 14:48:13.213626,18
2021-12-24 14:48:13.438082,34
2021-12-24 14:48:13.438113,48
2021-12-24 14:48:13.438124,62
2021-12-24 14:48:13.438133,60
2021-12-24 14:48:13.438143,53
2021-12-24 14:48:13.438152,44
2021-12-24 14:48:13.438162,34
2021-12-24 14:48:13.438171,65
2021-12-24 14:48:13.438181,239
2021-12-24 14:48:13.438190,614
2021-12-24 14:48:13.438200,942
2021-12-24 14:48:13.438209,651
2021-12-24 14:48:13.438219,-335
2021-12-24 14:48:13.438228,-833
2021-12-24 14:48:13.438237,-265
2021-12-24 14:48:13.438247,125
