Time,ECG
2021-12-24 14:17:34.464295,-62
2021-12-24 14:17:34.464325,-76
2021-12-24 14:17:34.464337,-58
2021-12-24 14:17:34.464347,-23
2021-12-24 14:17:34.464356,-25
2021-12-24 14:17:34.464367,-62
2021-12-24 14:17:34.464376,-51
2021-12-24 14:17:34.464386,-2
2021-12-24 14:17:34.464395,4
2021-12-24 14:17:34.464406,-27
2021-12-24 14:17:34.464416,-44
2021-12-24 14:17:34.464425,-58
2021-12-24 14:17:34.464435,-67
2021-12-24 14:17:34.464445,-30
2021-12-24 14:17:34.464454,-2
2021-12-24 14:17:34.464463,-46
2021-12-24 14:17:34.464473,-97
2021-12-24 14:17:34.464483,-74
2021-12-24 14:17:34.464492,-11
2021-12-24 14:17:34.464502,18
2021-12-24 14:17:34.464511,-44
2021-12-24 14:17:34.464521,-137
2021-12-24 14:17:34.464530,9
2021-12-24 14:17:34.464540,470
2021-12-24 14:17:34.464549,1038
2021-12-24 14:17:34.464558,940
2021-12-24 14:17:34.464569,-404
2021-12-24 14:17:34.464578,-1396
2021-12-24 14:17:34.464588,-700
2021-12-24 14:17:34.464597,6
2021-12-24 14:17:34.689181,-179
2021-12-24 14:17:34.689200,-176
2021-12-24 14:17:34.689208,37
2021-12-24 14:17:34.689214,-44
2021-12-24 14:17:34.689221,-134
2021-12-24 14:17:34.689227,-60
2021-12-24 14:17:34.689234,-13
2021-12-24 14:17:34.689241,-20
2021-12-24 14:17:34.689247,-20
2021-12-24 14:17:34.689253,-67
2021-12-24 14:17:34.689260,-118
2021-12-24 14:17:34.689266,-69
2021-12-24 14:17:34.689272,2
2021-12-24 14:17:34.689278,27
2021-12-24 14:17:34.689285,55
2021-12-24 14:17:34.689291,86
2021-12-24 14:17:34.689297,109
2021-12-24 14:17:34.689304,172
2021-12-24 14:17:34.689310,244
2021-12-24 14:17:34.689317,288
2021-12-24 14:17:34.689323,321
2021-12-24 14:17:34.689329,330
2021-12-24 14:17:34.689335,318
2021-12-24 14:17:34.689341,311
2021-12-24 14:17:34.689347,290
2021-12-24 14:17:34.689354,230
2021-12-24 14:17:34.689360,137
2021-12-24 14:17:34.689366,18
2021-12-24 14:17:34.689373,-69
2021-12-24 14:17:34.689381,-116
2021-12-24 14:17:35.004241,-179
2021-12-24 14:17:35.004270,-221
2021-12-24 14:17:35.004282,-221
2021-12-24 14:17:35.004292,-274
2021-12-24 14:17:35.004302,-328
2021-12-24 14:17:35.004311,-274
2021-12-24 14:17:35.004321,-202
2021-12-24 14:17:35.004330,-202
2021-12-24 14:17:35.004340,-235
2021-12-24 14:17:35.004349,-249
2021-12-24 14:17:35.004359,-225
2021-12-24 14:17:35.004369,-176
2021-12-24 14:17:35.004378,-151
2021-12-24 14:17:35.004394,-139
2021-12-24 14:17:35.004404,-130
2021-12-24 14:17:35.004413,-139
2021-12-24 14:17:35.004423,-134
2021-12-24 14:17:35.004433,-83
2021-12-24 14:17:35.004442,-46
2021-12-24 14:17:35.004452,-55
2021-12-24 14:17:35.004461,-67
2021-12-24 14:17:35.004471,-55
2021-12-24 14:17:35.004481,-41
2021-12-24 14:17:35.004490,-23
2021-12-24 14:17:35.004500,-11
2021-12-24 14:17:35.004509,-25
2021-12-24 14:17:35.004519,-23
2021-12-24 14:17:35.004528,-11
2021-12-24 14:17:35.004538,-20
2021-12-24 14:17:35.004567,-6
2021-12-24 14:17:35.183846,25
2021-12-24 14:17:35.183874,13
2021-12-24 14:17:35.183889,-23
2021-12-24 14:17:35.183902,-39
2021-12-24 14:17:35.183914,-13
2021-12-24 14:17:35.183926,23
2021-12-24 14:17:35.183938,34
2021-12-24 14:17:35.183950,32
2021-12-24 14:17:35.183962,9
2021-12-24 14:17:35.183975,-27
2021-12-24 14:17:35.183988,-23
2021-12-24 14:17:35.184001,-4
2021-12-24 14:17:35.184013,-32
2021-12-24 14:17:35.184025,-69
2021-12-24 14:17:35.184037,-102
2021-12-24 14:17:35.184049,-137
2021-12-24 14:17:35.184058,-141
2021-12-24 14:17:35.184077,-134
2021-12-24 14:17:35.184083,-130
2021-12-24 14:17:35.184089,-151
2021-12-24 14:17:35.184096,-230
2021-12-24 14:17:35.184102,-265
2021-12-24 14:17:35.184108,-79
2021-12-24 14:17:35.184115,374
2021-12-24 14:17:35.184121,926
2021-12-24 14:17:35.184127,896
2021-12-24 14:17:35.184133,-325
2021-12-24 14:17:35.184140,-1333
2021-12-24 14:17:35.184146,-674
2021-12-24 14:17:35.184152,81
2021-12-24 14:17:35.452828,-144
2021-12-24 14:17:35.452849,-214
2021-12-24 14:17:35.452857,-2
2021-12-24 14:17:35.452864,-81
2021-12-24 14:17:35.452870,-162
2021-12-24 14:17:35.452876,-74
2021-12-24 14:17:35.452882,-48
2021-12-24 14:17:35.452895,-86
2021-12-24 14:17:35.452901,-86
2021-12-24 14:17:35.452907,-76
2021-12-24 14:17:35.452914,-48
2021-12-24 14:17:35.452920,4
2021-12-24 14:17:35.452926,30
2021-12-24 14:17:35.452932,13
2021-12-24 14:17:35.452939,18
2021-12-24 14:17:35.452945,55
2021-12-24 14:17:35.452951,107
2021-12-24 14:17:35.452957,179
2021-12-24 14:17:35.452963,230
2021-12-24 14:17:35.452970,232
2021-12-24 14:17:35.452976,267
2021-12-24 14:17:35.452982,318
2021-12-24 14:17:35.452988,316
2021-12-24 14:17:35.452994,300
2021-12-24 14:17:35.453000,276
2021-12-24 14:17:35.453007,197
2021-12-24 14:17:35.453013,100
2021-12-24 14:17:35.453019,27
2021-12-24 14:17:35.453025,-23
2021-12-24 14:17:35.453032,-76
2021-12-24 14:17:35.634283,-128
2021-12-24 14:17:35.634312,-155
2021-12-24 14:17:35.634324,-153
2021-12-24 14:17:35.634334,-151
2021-12-24 14:17:35.634343,-155
2021-12-24 14:17:35.634353,-155
2021-12-24 14:17:35.634362,-183
2021-12-24 14:17:35.634372,-237
2021-12-24 14:17:35.634381,-225
2021-12-24 14:17:35.634391,-160
2021-12-24 14:17:35.634400,-148
2021-12-24 14:17:35.634410,-158
2021-12-24 14:17:35.634419,-144
2021-12-24 14:17:35.634429,-158
2021-12-24 14:17:35.634438,-174
2021-12-24 14:17:35.634448,-153
2021-12-24 14:17:35.634457,-132
2021-12-24 14:17:35.634467,-118
2021-12-24 14:17:35.634477,-111
2021-12-24 14:17:35.634487,-134
2021-12-24 14:17:35.634496,-176
2021-12-24 14:17:35.634506,-179
2021-12-24 14:17:35.634516,-144
2021-12-24 14:17:35.634526,-123
2021-12-24 14:17:35.634541,-123
2021-12-24 14:17:35.634550,-114
2021-12-24 14:17:35.634560,-102
2021-12-24 14:17:35.634570,-93
2021-12-24 14:17:35.634579,-72
2021-12-24 14:17:35.634589,-51
2021-12-24 14:17:35.859017,-55
2021-12-24 14:17:35.859034,-51
2021-12-24 14:17:35.859040,-16
2021-12-24 14:17:35.859045,-11
2021-12-24 14:17:35.859050,-32
2021-12-24 14:17:35.859055,-30
2021-12-24 14:17:35.859060,-44
2021-12-24 14:17:35.859065,-86
2021-12-24 14:17:35.859070,-123
2021-12-24 14:17:35.859075,-128
2021-12-24 14:17:35.859080,-93
2021-12-24 14:17:35.859085,-97
2021-12-24 14:17:35.859090,-137
2021-12-24 14:17:35.859095,-125
2021-12-24 14:17:35.859100,-123
2021-12-24 14:17:35.859105,-174
2021-12-24 14:17:35.859110,-176
2021-12-24 14:17:35.859115,-167
2021-12-24 14:17:35.859120,-207
2021-12-24 14:17:35.859125,-207
2021-12-24 14:17:35.859130,-155
2021-12-24 14:17:35.859135,-151
2021-12-24 14:17:35.859141,-165
2021-12-24 14:17:35.859146,-151
2021-12-24 14:17:35.859151,-146
2021-12-24 14:17:35.859156,-139
2021-12-24 14:17:35.859161,-139
2021-12-24 14:17:35.859166,-100
2021-12-24 14:17:35.859171,190
2021-12-24 14:17:35.859176,772
2021-12-24 14:17:36.083728,1119
2021-12-24 14:17:36.083749,360
2021-12-24 14:17:36.083756,-984
2021-12-24 14:17:36.083763,-1014
2021-12-24 14:17:36.083769,-55
2021-12-24 14:17:36.083775,51
2021-12-24 14:17:36.083782,-258
2021-12-24 14:17:36.083788,-74
2021-12-24 14:17:36.083794,55
2021-12-24 14:17:36.083800,-62
2021-12-24 14:17:36.083806,-83
2021-12-24 14:17:36.083812,-48
2021-12-24 14:17:36.083819,-62
2021-12-24 14:17:36.083825,-60
2021-12-24 14:17:36.083831,-27
2021-12-24 14:17:36.083837,0
2021-12-24 14:17:36.083843,23
2021-12-24 14:17:36.083849,48
2021-12-24 14:17:36.083856,65
2021-12-24 14:17:36.083862,88
2021-12-24 14:17:36.083868,148
2021-12-24 14:17:36.083874,202
2021-12-24 14:17:36.083880,230
2021-12-24 14:17:36.083887,251
2021-12-24 14:17:36.083898,267
2021-12-24 14:17:36.083905,267
2021-12-24 14:17:36.083911,242
2021-12-24 14:17:36.083917,242
2021-12-24 14:17:36.083924,263
2021-12-24 14:17:36.083930,246
2021-12-24 14:17:36.309239,207
2021-12-24 14:17:36.309268,172
2021-12-24 14:17:36.309280,90
2021-12-24 14:17:36.309290,-23
2021-12-24 14:17:36.309299,-111
2021-12-24 14:17:36.309309,-176
2021-12-24 14:17:36.309319,-204
2021-12-24 14:17:36.309328,-188
2021-12-24 14:17:36.309338,-167
2021-12-24 14:17:36.309347,-190
2021-12-24 14:17:36.309357,-223
2021-12-24 14:17:36.309366,-230
2021-12-24 14:17:36.309376,-232
2021-12-24 14:17:36.309385,-232
2021-12-24 14:17:36.309395,-207
2021-12-24 14:17:36.309404,-186
2021-12-24 14:17:36.309414,-188
2021-12-24 14:17:36.309423,-176
2021-12-24 14:17:36.309433,-146
2021-12-24 14:17:36.309442,-132
2021-12-24 14:17:36.309452,-121
2021-12-24 14:17:36.309461,-109
2021-12-24 14:17:36.309471,-114
2021-12-24 14:17:36.309480,-97
2021-12-24 14:17:36.309490,-62
2021-12-24 14:17:36.309499,-39
2021-12-24 14:17:36.309509,-32
2021-12-24 14:17:36.309518,-27
2021-12-24 14:17:36.309528,-37
2021-12-24 14:17:36.309538,-46
2021-12-24 14:17:36.534710,-30
2021-12-24 14:17:36.534739,9
2021-12-24 14:17:36.534751,25
2021-12-24 14:17:36.534761,-11
2021-12-24 14:17:36.534771,-55
2021-12-24 14:17:36.534780,-48
2021-12-24 14:17:36.534790,-13
2021-12-24 14:17:36.534799,-23
2021-12-24 14:17:36.534809,-79
2021-12-24 14:17:36.534818,-111
2021-12-24 14:17:36.534827,-104
2021-12-24 14:17:36.534837,-95
2021-12-24 14:17:36.534846,-116
2021-12-24 14:17:36.534856,-137
2021-12-24 14:17:36.534866,-162
2021-12-24 14:17:36.534875,-225
2021-12-24 14:17:36.534885,-239
2021-12-24 14:17:36.534894,-188
2021-12-24 14:17:36.534903,-165
2021-12-24 14:17:36.534913,-162
2021-12-24 14:17:36.534922,-139
2021-12-24 14:17:36.534932,-148
2021-12-24 14:17:36.534941,-165
2021-12-24 14:17:36.534950,-125
2021-12-24 14:17:36.534960,-97
2021-12-24 14:17:36.534970,-109
2021-12-24 14:17:36.534979,-111
2021-12-24 14:17:36.534988,-97
2021-12-24 14:17:36.534998,-83
2021-12-24 14:17:36.535008,-69
2021-12-24 14:17:36.804764,-79
2021-12-24 14:17:36.804794,-125
2021-12-24 14:17:36.804806,-160
2021-12-24 14:17:36.804816,-174
2021-12-24 14:17:36.804826,-200
2021-12-24 14:17:36.804836,-181
2021-12-24 14:17:36.804845,-130
2021-12-24 14:17:36.804855,-104
2021-12-24 14:17:36.804865,-121
2021-12-24 14:17:36.804874,-169
2021-12-24 14:17:36.804891,-162
2021-12-24 14:17:36.804901,-95
2021-12-24 14:17:36.804910,-60
2021-12-24 14:17:36.804920,-65
2021-12-24 14:17:36.804930,-88
2021-12-24 14:17:36.804939,-114
2021-12-24 14:17:36.804949,-102
2021-12-24 14:17:36.804958,-72
2021-12-24 14:17:36.804968,-67
2021-12-24 14:17:36.804978,-62
2021-12-24 14:17:36.804987,-39
2021-12-24 14:17:36.804997,-46
2021-12-24 14:17:36.805006,-58
2021-12-24 14:17:36.805016,-37
2021-12-24 14:17:36.805025,-16
2021-12-24 14:17:36.805035,13
2021-12-24 14:17:36.805045,6
2021-12-24 14:17:36.805054,-32
2021-12-24 14:17:36.805064,-13
2021-12-24 14:17:36.805074,25
2021-12-24 14:17:37.119409,30
2021-12-24 14:17:37.119430,30
2021-12-24 14:17:37.119438,0
2021-12-24 14:17:37.119445,13
2021-12-24 14:17:37.119451,293
2021-12-24 14:17:37.119457,861
2021-12-24 14:17:37.119463,1319
2021-12-24 14:17:37.119470,744
2021-12-24 14:17:37.119476,-723
2021-12-24 14:17:37.119483,-1061
2021-12-24 14:17:37.119489,-86
2021-12-24 14:17:37.119496,190
2021-12-24 14:17:37.119502,-128
2021-12-24 14:17:37.119508,9
2021-12-24 14:17:37.119514,116
2021-12-24 14:17:37.119520,-25
2021-12-24 14:17:37.119527,6
2021-12-24 14:17:37.119533,104
2021-12-24 14:17:37.119539,53
2021-12-24 14:17:37.119545,6
2021-12-24 14:17:37.119551,39
2021-12-24 14:17:37.119558,69
2021-12-24 14:17:37.119564,90
2021-12-24 14:17:37.119570,107
2021-12-24 14:17:37.119576,125
2021-12-24 14:17:37.119587,169
2021-12-24 14:17:37.119593,200
2021-12-24 14:17:37.119599,202
2021-12-24 14:17:37.119605,225
2021-12-24 14:17:37.119612,286
2021-12-24 14:17:37.254749,337
2021-12-24 14:17:37.254779,344
2021-12-24 14:17:37.254791,328
2021-12-24 14:17:37.254801,335
2021-12-24 14:17:37.254811,356
2021-12-24 14:17:37.254820,346
2021-12-24 14:17:37.254830,290
2021-12-24 14:17:37.254840,190
2021-12-24 14:17:37.254849,83
2021-12-24 14:17:37.254859,11
2021-12-24 14:17:37.254869,-46
2021-12-24 14:17:37.254879,-93
2021-12-24 14:17:37.254888,-130
2021-12-24 14:17:37.254898,-211
2021-12-24 14:17:37.254908,-300
2021-12-24 14:17:37.254917,-288
2021-12-24 14:17:37.254927,-242
2021-12-24 14:17:37.254937,-263
2021-12-24 14:17:37.254946,-283
2021-12-24 14:17:37.254956,-269
2021-12-24 14:17:37.254966,-295
2021-12-24 14:17:37.254975,-316
2021-12-24 14:17:37.254985,-269
2021-12-24 14:17:37.254995,-244
2021-12-24 14:17:37.255004,-276
2021-12-24 14:17:37.255014,-300
2021-12-24 14:17:37.255024,-293
2021-12-24 14:17:37.255034,-281
2021-12-24 14:17:37.255044,-265
2021-12-24 14:17:37.255053,-228
2021-12-24 14:17:37.612938,-204
2021-12-24 14:17:37.612968,-211
2021-12-24 14:17:37.612979,-221
2021-12-24 14:17:37.612990,-204
2021-12-24 14:17:37.613000,-162
2021-12-24 14:17:37.613010,-144
2021-12-24 14:17:37.613019,-165
2021-12-24 14:17:37.613029,-193
2021-12-24 14:17:37.613039,-190
2021-12-24 14:17:37.613048,-174
2021-12-24 14:17:37.613058,-151
2021-12-24 14:17:37.613067,-118
2021-12-24 14:17:37.613077,-139
2021-12-24 14:17:37.613086,-195
2021-12-24 14:17:37.613096,-183
2021-12-24 14:17:37.613106,-132
2021-12-24 14:17:37.613120,-104
2021-12-24 14:17:37.613130,-88
2021-12-24 14:17:37.613139,-83
2021-12-24 14:17:37.613149,-93
2021-12-24 14:17:37.613158,-88
2021-12-24 14:17:37.613168,-65
2021-12-24 14:17:37.613177,-67
2021-12-24 14:17:37.613187,-116
2021-12-24 14:17:37.613196,-132
2021-12-24 14:17:37.613206,-109
2021-12-24 14:17:37.613216,-93
2021-12-24 14:17:37.613225,-65
2021-12-24 14:17:37.613235,-18
2021-12-24 14:17:37.613244,-2
2021-12-24 14:17:37.704805,-16
2021-12-24 14:17:37.704835,0
2021-12-24 14:17:37.704847,39
2021-12-24 14:17:37.704857,39
2021-12-24 14:17:37.704866,-4
2021-12-24 14:17:37.704876,-27
2021-12-24 14:17:37.704885,-39
2021-12-24 14:17:37.704895,-44
2021-12-24 14:17:37.704904,-23
2021-12-24 14:17:37.704914,-4
2021-12-24 14:17:37.704923,-4
2021-12-24 14:17:37.704933,9
2021-12-24 14:17:37.704942,11
2021-12-24 14:17:37.704952,-34
2021-12-24 14:17:37.704961,-65
2021-12-24 14:17:37.704971,-51
2021-12-24 14:17:37.704980,-48
2021-12-24 14:17:37.704990,-9
2021-12-24 14:17:37.705000,239
2021-12-24 14:17:37.705009,777
2021-12-24 14:17:37.705019,1138
2021-12-24 14:17:37.705028,425
2021-12-24 14:17:37.705038,-868
2021-12-24 14:17:37.705047,-900
2021-12-24 14:17:37.705057,-2
2021-12-24 14:17:37.705066,95
2021-12-24 14:17:37.705076,-148
2021-12-24 14:17:37.705086,41
2021-12-24 14:17:37.705095,104
2021-12-24 14:17:37.705105,-20
2021-12-24 14:17:37.929342,46
2021-12-24 14:17:37.929372,128
2021-12-24 14:17:37.929384,95
2021-12-24 14:17:37.929394,95
2021-12-24 14:17:37.929404,121
2021-12-24 14:17:37.929413,95
2021-12-24 14:17:37.929423,76
2021-12-24 14:17:37.929433,116
2021-12-24 14:17:37.929442,158
2021-12-24 14:17:37.929452,165
2021-12-24 14:17:37.929461,172
2021-12-24 14:17:37.929471,183
2021-12-24 14:17:37.929481,204
2021-12-24 14:17:37.929496,251
2021-12-24 14:17:37.929506,311
2021-12-24 14:17:37.929515,353
2021-12-24 14:17:37.929525,363
2021-12-24 14:17:37.929534,351
2021-12-24 14:17:37.929544,325
2021-12-24 14:17:37.929553,300
2021-12-24 14:17:37.929563,265
2021-12-24 14:17:37.929573,190
2021-12-24 14:17:37.929582,67
2021-12-24 14:17:37.929592,-60
2021-12-24 14:17:37.929602,-128
2021-12-24 14:17:37.929611,-167
2021-12-24 14:17:37.929621,-267
2021-12-24 14:17:37.929630,-346
2021-12-24 14:17:37.929640,-335
2021-12-24 14:17:37.929650,-316
2021-12-24 14:17:38.153540,-314
2021-12-24 14:17:38.153556,-286
2021-12-24 14:17:38.153562,-263
2021-12-24 14:17:38.153568,-272
2021-12-24 14:17:38.153573,-302
2021-12-24 14:17:38.153578,-316
2021-12-24 14:17:38.153583,-281
2021-12-24 14:17:38.153588,-235
2021-12-24 14:17:38.153593,-235
2021-12-24 14:17:38.153598,-232
2021-12-24 14:17:38.153604,-221
2021-12-24 14:17:38.153609,-235
2021-12-24 14:17:38.153614,-218
2021-12-24 14:17:38.153619,-172
2021-12-24 14:17:38.153624,-174
2021-12-24 14:17:38.153629,-190
2021-12-24 14:17:38.153634,-169
2021-12-24 14:17:38.153639,-144
2021-12-24 14:17:38.153644,-146
2021-12-24 14:17:38.153649,-181
2021-12-24 14:17:38.153654,-214
2021-12-24 14:17:38.153659,-207
2021-12-24 14:17:38.153664,-195
2021-12-24 14:17:38.153669,-197
2021-12-24 14:17:38.153674,-162
2021-12-24 14:17:38.153679,-116
2021-12-24 14:17:38.153684,-111
2021-12-24 14:17:38.153689,-109
2021-12-24 14:17:38.153694,-95
2021-12-24 14:17:38.153699,-118
2021-12-24 14:17:38.379760,-123
2021-12-24 14:17:38.379789,-81
2021-12-24 14:17:38.379801,-65
2021-12-24 14:17:38.379811,-97
2021-12-24 14:17:38.379820,-134
2021-12-24 14:17:38.379830,-123
2021-12-24 14:17:38.379840,-90
2021-12-24 14:17:38.379849,-69
2021-12-24 14:17:38.379859,-72
2021-12-24 14:17:38.379869,-109
2021-12-24 14:17:38.379878,-144
2021-12-24 14:17:38.379888,-128
2021-12-24 14:17:38.379898,-97
2021-12-24 14:17:38.379907,-76
2021-12-24 14:17:38.379917,-41
2021-12-24 14:17:38.379927,-18
2021-12-24 14:17:38.379936,-30
2021-12-24 14:17:38.379953,-23
2021-12-24 14:17:38.379963,2
2021-12-24 14:17:38.379973,9
2021-12-24 14:17:38.379983,-2
2021-12-24 14:17:38.379992,-16
2021-12-24 14:17:38.380002,-20
2021-12-24 14:17:38.380011,2
2021-12-24 14:17:38.380021,30
2021-12-24 14:17:38.380031,44
2021-12-24 14:17:38.380040,41
2021-12-24 14:17:38.380050,20
2021-12-24 14:17:38.380059,13
2021-12-24 14:17:38.380069,25
2021-12-24 14:17:38.649798,-9
2021-12-24 14:17:38.649828,9
2021-12-24 14:17:38.649840,288
2021-12-24 14:17:38.649850,789
2021-12-24 14:17:38.649860,1075
2021-12-24 14:17:38.649870,372
2021-12-24 14:17:38.649880,-905
2021-12-24 14:17:38.649890,-951
2021-12-24 14:17:38.649900,-51
2021-12-24 14:17:38.649909,65
2021-12-24 14:17:38.649919,-193
2021-12-24 14:17:38.649929,4
2021-12-24 14:17:38.649939,130
2021-12-24 14:17:38.649949,32
2021-12-24 14:17:38.649958,48
2021-12-24 14:17:38.649968,88
2021-12-24 14:17:38.649978,67
2021-12-24 14:17:38.649988,100
2021-12-24 14:17:38.649997,139
2021-12-24 14:17:38.650007,114
2021-12-24 14:17:38.650017,90
2021-12-24 14:17:38.650027,104
2021-12-24 14:17:38.650037,123
2021-12-24 14:17:38.650046,144
2021-12-24 14:17:38.650056,153
2021-12-24 14:17:38.650066,121
2021-12-24 14:17:38.650075,76
2021-12-24 14:17:38.650085,79
2021-12-24 14:17:38.650095,137
2021-12-24 14:17:38.650105,193
2021-12-24 14:17:38.874483,223
2021-12-24 14:17:38.874511,242
2021-12-24 14:17:38.874523,225
2021-12-24 14:17:38.874533,167
2021-12-24 14:17:38.874542,121
2021-12-24 14:17:38.874552,83
2021-12-24 14:17:38.874561,9
2021-12-24 14:17:38.874571,-81
2021-12-24 14:17:38.874581,-172
2021-12-24 14:17:38.874590,-258
2021-12-24 14:17:38.874600,-286
2021-12-24 14:17:38.874610,-283
2021-12-24 14:17:38.874619,-286
2021-12-24 14:17:38.874629,-286
2021-12-24 14:17:38.874638,-314
2021-12-24 14:17:38.874648,-335
2021-12-24 14:17:38.874658,-295
2021-12-24 14:17:38.874667,-256
2021-12-24 14:17:38.874677,-244
2021-12-24 14:17:38.874687,-225
2021-12-24 14:17:38.874697,-202
2021-12-24 14:17:38.874706,-172
2021-12-24 14:17:38.874716,-130
2021-12-24 14:17:38.874725,-102
2021-12-24 14:17:38.874735,-95
2021-12-24 14:17:38.874745,-86
2021-12-24 14:17:38.874754,-79
2021-12-24 14:17:38.874764,-88
2021-12-24 14:17:38.874774,-79
2021-12-24 14:17:38.874789,-51
2021-12-24 14:17:39.189987,-32
2021-12-24 14:17:39.190025,-30
2021-12-24 14:17:39.190037,-37
2021-12-24 14:17:39.190047,-51
2021-12-24 14:17:39.190056,-65
2021-12-24 14:17:39.190066,-74
2021-12-24 14:17:39.190095,-67
2021-12-24 14:17:39.190105,-76
2021-12-24 14:17:39.190114,-118
2021-12-24 14:17:39.190124,-125
2021-12-24 14:17:39.190133,-83
2021-12-24 14:17:39.190143,-51
2021-12-24 14:17:39.190152,-53
2021-12-24 14:17:39.190162,-86
2021-12-24 14:17:39.190171,-111
2021-12-24 14:17:39.190181,-93
2021-12-24 14:17:39.190190,-51
2021-12-24 14:17:39.190199,-18
2021-12-24 14:17:39.190209,-11
2021-12-24 14:17:39.190218,-25
2021-12-24 14:17:39.190228,-23
2021-12-24 14:17:39.190237,-9
2021-12-24 14:17:39.190247,-6
2021-12-24 14:17:39.190256,-2
2021-12-24 14:17:39.190266,9
2021-12-24 14:17:39.190275,6
2021-12-24 14:17:39.190285,4
2021-12-24 14:17:39.190294,11
2021-12-24 14:17:39.190304,11
2021-12-24 14:17:39.190313,18
2021-12-24 14:17:39.324816,44
2021-12-24 14:17:39.324845,32
2021-12-24 14:17:39.324857,-46
2021-12-24 14:17:39.324867,-86
2021-12-24 14:17:39.324877,76
2021-12-24 14:17:39.324887,493
2021-12-24 14:17:39.324896,1000
2021-12-24 14:17:39.324906,921
2021-12-24 14:17:39.324916,-260
2021-12-24 14:17:39.324925,-1182
2021-12-24 14:17:39.324935,-581
2021-12-24 14:17:39.324945,125
2021-12-24 14:17:39.324954,-37
2021-12-24 14:17:39.324964,-107
2021-12-24 14:17:39.324973,107
2021-12-24 14:17:39.324983,79
2021-12-24 14:17:39.324992,11
2021-12-24 14:17:39.325002,90
2021-12-24 14:17:39.325011,100
2021-12-24 14:17:39.325021,39
2021-12-24 14:17:39.325030,37
2021-12-24 14:17:39.325040,60
2021-12-24 14:17:39.325049,72
2021-12-24 14:17:39.325059,86
2021-12-24 14:17:39.325068,60
2021-12-24 14:17:39.325078,25
2021-12-24 14:17:39.325087,39
2021-12-24 14:17:39.325097,58
2021-12-24 14:17:39.325106,86
2021-12-24 14:17:39.325116,139
2021-12-24 14:17:39.592699,167
2021-12-24 14:17:39.592718,190
2021-12-24 14:17:39.592726,237
2021-12-24 14:17:39.592733,253
2021-12-24 14:17:39.592739,244
2021-12-24 14:17:39.592746,221
2021-12-24 14:17:39.592752,148
2021-12-24 14:17:39.592758,60
2021-12-24 14:17:39.592764,-23
2021-12-24 14:17:39.592771,-134
2021-12-24 14:17:39.592777,-214
2021-12-24 14:17:39.592783,-258
2021-12-24 14:17:39.592789,-323
2021-12-24 14:17:39.592795,-349
2021-12-24 14:17:39.592802,-325
2021-12-24 14:17:39.592808,-325
2021-12-24 14:17:39.592814,-325
2021-12-24 14:17:39.592820,-297
2021-12-24 14:17:39.592827,-279
2021-12-24 14:17:39.592833,-258
2021-12-24 14:17:39.592843,-228
2021-12-24 14:17:39.592849,-214
2021-12-24 14:17:39.592855,-200
2021-12-24 14:17:39.592862,-181
2021-12-24 14:17:39.592868,-169
2021-12-24 14:17:39.592874,-153
2021-12-24 14:17:39.592880,-125
2021-12-24 14:17:39.592886,-111
2021-12-24 14:17:39.592893,-102
2021-12-24 14:17:39.592899,-93
2021-12-24 14:17:39.774793,-83
2021-12-24 14:17:39.774822,-62
2021-12-24 14:17:39.774834,-48
2021-12-24 14:17:39.774844,-58
2021-12-24 14:17:39.774853,-60
2021-12-24 14:17:39.774863,-76
2021-12-24 14:17:39.774872,-128
2021-12-24 14:17:39.774882,-162
2021-12-24 14:17:39.774891,-162
2021-12-24 14:17:39.774901,-146
2021-12-24 14:17:39.774910,-174
2021-12-24 14:17:39.774919,-237
2021-12-24 14:17:39.774929,-237
2021-12-24 14:17:39.774938,-174
2021-12-24 14:17:39.774948,-158
2021-12-24 14:17:39.774957,-181
2021-12-24 14:17:39.774967,-165
2021-12-24 14:17:39.774976,-121
2021-12-24 14:17:39.774986,-88
2021-12-24 14:17:39.774995,-65
2021-12-24 14:17:39.775005,-55
2021-12-24 14:17:39.775014,-55
2021-12-24 14:17:39.775023,-53
2021-12-24 14:17:39.775033,-55
2021-12-24 14:17:39.775042,-48
2021-12-24 14:17:39.775052,-25
2021-12-24 14:17:39.775061,-11
2021-12-24 14:17:39.775071,-18
2021-12-24 14:17:39.775080,-18
2021-12-24 14:17:39.775090,-11
2021-12-24 14:17:39.999481,0
2021-12-24 14:17:39.999510,25
2021-12-24 14:17:39.999522,44
2021-12-24 14:17:39.999532,23
2021-12-24 14:17:39.999542,-34
2021-12-24 14:17:39.999552,4
2021-12-24 14:17:39.999562,344
2021-12-24 14:17:39.999571,891
2021-12-24 14:17:39.999581,1052
2021-12-24 14:17:39.999591,155
2021-12-24 14:17:39.999601,-963
2021-12-24 14:17:39.999611,-714
2021-12-24 14:17:39.999621,90
2021-12-24 14:17:39.999630,18
2021-12-24 14:17:39.999640,-183
2021-12-24 14:17:39.999650,18
2021-12-24 14:17:39.999660,48
2021-12-24 14:17:39.999670,-37
2021-12-24 14:17:39.999680,34
2021-12-24 14:17:39.999690,97
2021-12-24 14:17:39.999699,79
2021-12-24 14:17:39.999709,83
2021-12-24 14:17:39.999719,97
2021-12-24 14:17:39.999729,104
2021-12-24 14:17:39.999738,121
2021-12-24 14:17:39.999748,114
2021-12-24 14:17:39.999758,109
2021-12-24 14:17:39.999767,144
2021-12-24 14:17:39.999777,174
2021-12-24 14:17:39.999787,179
2021-12-24 14:17:40.224863,183
2021-12-24 14:17:40.224892,207
2021-12-24 14:17:40.224904,232
2021-12-24 14:17:40.224914,211
2021-12-24 14:17:40.224924,172
2021-12-24 14:17:40.224933,183
2021-12-24 14:17:40.224943,193
2021-12-24 14:17:40.224953,169
2021-12-24 14:17:40.224963,146
2021-12-24 14:17:40.224972,51
2021-12-24 14:17:40.224982,-107
2021-12-24 14:17:40.224992,-200
2021-12-24 14:17:40.225001,-267
2021-12-24 14:17:40.225011,-325
2021-12-24 14:17:40.225021,-346
2021-12-24 14:17:40.225030,-395
2021-12-24 14:17:40.225040,-418
2021-12-24 14:17:40.225050,-363
2021-12-24 14:17:40.225059,-328
2021-12-24 14:17:40.225069,-325
2021-12-24 14:17:40.225079,-302
2021-12-24 14:17:40.225088,-307
2021-12-24 14:17:40.225103,-302
2021-12-24 14:17:40.225113,-218
2021-12-24 14:17:40.225122,-169
2021-12-24 14:17:40.225132,-188
2021-12-24 14:17:40.225141,-176
2021-12-24 14:17:40.225151,-176
2021-12-24 14:17:40.225161,-188
2021-12-24 14:17:40.225170,-158
2021-12-24 14:17:40.539707,-121
2021-12-24 14:17:40.539736,-100
2021-12-24 14:17:40.539748,-107
2021-12-24 14:17:40.539757,-155
2021-12-24 14:17:40.539767,-153
2021-12-24 14:17:40.539777,-88
2021-12-24 14:17:40.539786,-60
2021-12-24 14:17:40.539796,-53
2021-12-24 14:17:40.539806,-60
2021-12-24 14:17:40.539815,-102
2021-12-24 14:17:40.539825,-102
2021-12-24 14:17:40.539834,-48
2021-12-24 14:17:40.539844,-27
2021-12-24 14:17:40.539854,-34
2021-12-24 14:17:40.539863,-41
2021-12-24 14:17:40.539873,-46
2021-12-24 14:17:40.539882,-55
2021-12-24 14:17:40.539892,-67
2021-12-24 14:17:40.539901,-60
2021-12-24 14:17:40.539911,-41
2021-12-24 14:17:40.539921,-39
2021-12-24 14:17:40.539930,-34
2021-12-24 14:17:40.539940,-2
2021-12-24 14:17:40.539949,34
2021-12-24 14:17:40.539959,51
2021-12-24 14:17:40.539968,51
2021-12-24 14:17:40.539978,39
2021-12-24 14:17:40.539988,16
2021-12-24 14:17:40.539997,9
2021-12-24 14:17:40.540007,46
2021-12-24 14:17:40.808664,83
2021-12-24 14:17:40.808693,76
2021-12-24 14:17:40.808704,48
2021-12-24 14:17:40.808714,41
2021-12-24 14:17:40.808723,60
2021-12-24 14:17:40.808733,83
2021-12-24 14:17:40.808742,90
2021-12-24 14:17:40.808752,74
2021-12-24 14:17:40.808761,51
2021-12-24 14:17:40.808771,158
2021-12-24 14:17:40.808780,530
2021-12-24 14:17:40.808790,1005
2021-12-24 14:17:40.808799,933
2021-12-24 14:17:40.808809,-88
2021-12-24 14:17:40.808819,-886
2021-12-24 14:17:40.808828,-377
2021-12-24 14:17:40.808838,230
2021-12-24 14:17:40.808847,34
2021-12-24 14:17:40.808857,-123
2021-12-24 14:17:40.808866,-23
2021-12-24 14:17:40.808876,-67
2021-12-24 14:17:40.808886,-111
2021-12-24 14:17:40.808895,-32
2021-12-24 14:17:40.808905,13
2021-12-24 14:17:40.808914,13
2021-12-24 14:17:40.808924,32
2021-12-24 14:17:40.808933,32
2021-12-24 14:17:40.808943,34
2021-12-24 14:17:40.808953,76
2021-12-24 14:17:40.808962,118
2021-12-24 14:17:40.989691,139
2021-12-24 14:17:40.989721,155
2021-12-24 14:17:40.989733,181
2021-12-24 14:17:40.989743,218
2021-12-24 14:17:40.989752,253
2021-12-24 14:17:40.989762,290
2021-12-24 14:17:40.989771,335
2021-12-24 14:17:40.989781,346
2021-12-24 14:17:40.989790,323
2021-12-24 14:17:40.989800,314
2021-12-24 14:17:40.989809,325
2021-12-24 14:17:40.989819,309
2021-12-24 14:17:40.989829,258
2021-12-24 14:17:40.989838,188
2021-12-24 14:17:40.989848,104
2021-12-24 14:17:40.989857,27
2021-12-24 14:17:40.989867,-20
2021-12-24 14:17:40.989876,-44
2021-12-24 14:17:40.989886,-74
2021-12-24 14:17:40.989895,-125
2021-12-24 14:17:40.989905,-176
2021-12-24 14:17:40.989915,-200
2021-12-24 14:17:40.989924,-181
2021-12-24 14:17:40.989934,-148
2021-12-24 14:17:40.989943,-144
2021-12-24 14:17:40.989953,-137
2021-12-24 14:17:40.989963,-111
2021-12-24 14:17:40.989972,-104
2021-12-24 14:17:40.989982,-97
2021-12-24 14:17:40.989991,-65
2021-12-24 14:17:41.213648,-67
2021-12-24 14:17:41.213677,-107
2021-12-24 14:17:41.213689,-118
2021-12-24 14:17:41.213699,-104
2021-12-24 14:17:41.213709,-95
2021-12-24 14:17:41.213726,-100
2021-12-24 14:17:41.213736,-141
2021-12-24 14:17:41.213746,-195
2021-12-24 14:17:41.213755,-211
2021-12-24 14:17:41.213765,-209
2021-12-24 14:17:41.213775,-193
2021-12-24 14:17:41.213784,-179
2021-12-24 14:17:41.213794,-202
2021-12-24 14:17:41.213803,-230
2021-12-24 14:17:41.213813,-214
2021-12-24 14:17:41.213822,-186
2021-12-24 14:17:41.213832,-176
2021-12-24 14:17:41.213842,-165
2021-12-24 14:17:41.213851,-179
2021-12-24 14:17:41.213861,-200
2021-12-24 14:17:41.213871,-176
2021-12-24 14:17:41.213880,-158
2021-12-24 14:17:41.213890,-181
2021-12-24 14:17:41.213899,-209
2021-12-24 14:17:41.213909,-232
2021-12-24 14:17:41.213918,-235
2021-12-24 14:17:41.213927,-209
2021-12-24 14:17:41.213937,-174
2021-12-24 14:17:41.213947,-132
2021-12-24 14:17:41.213956,-90
2021-12-24 14:17:41.394314,-74
2021-12-24 14:17:41.394345,-62
2021-12-24 14:17:41.394356,-51
2021-12-24 14:17:41.394366,-62
2021-12-24 14:17:41.394375,-72
2021-12-24 14:17:41.394385,-67
2021-12-24 14:17:41.394394,-81
2021-12-24 14:17:41.394404,-83
2021-12-24 14:17:41.394413,-53
2021-12-24 14:17:41.394423,-53
2021-12-24 14:17:41.394432,-65
2021-12-24 14:17:41.394442,-46
2021-12-24 14:17:41.394451,-53
2021-12-24 14:17:41.394461,-58
2021-12-24 14:17:41.394470,-37
2021-12-24 14:17:41.394480,-34
2021-12-24 14:17:41.394489,-13
2021-12-24 14:17:41.394499,81
2021-12-24 14:17:41.394509,397
2021-12-24 14:17:41.394518,886
2021-12-24 14:17:41.394528,789
2021-12-24 14:17:41.394538,-256
2021-12-24 14:17:41.394547,-872
2021-12-24 14:17:41.394557,-260
2021-12-24 14:17:41.394566,169
2021-12-24 14:17:41.394576,-83
2021-12-24 14:17:41.394586,-88
2021-12-24 14:17:41.394595,69
2021-12-24 14:17:41.394605,20
2021-12-24 14:17:41.394614,16
2021-12-24 14:17:41.709056,76
2021-12-24 14:17:41.709086,86
2021-12-24 14:17:41.709098,104
2021-12-24 14:17:41.709108,114
2021-12-24 14:17:41.709117,93
2021-12-24 14:17:41.709127,69
2021-12-24 14:17:41.709137,67
2021-12-24 14:17:41.709146,123
2021-12-24 14:17:41.709156,174
2021-12-24 14:17:41.709165,165
2021-12-24 14:17:41.709175,169
2021-12-24 14:17:41.709184,195
2021-12-24 14:17:41.709194,209
2021-12-24 14:17:41.709203,237
2021-12-24 14:17:41.709213,297
2021-12-24 14:17:41.709223,344
2021-12-24 14:17:41.709232,339
2021-12-24 14:17:41.709242,332
2021-12-24 14:17:41.709251,356
2021-12-24 14:17:41.709261,339
2021-12-24 14:17:41.709270,274
2021-12-24 14:17:41.709280,197
2021-12-24 14:17:41.709289,109
2021-12-24 14:17:41.709299,23
2021-12-24 14:17:41.709308,-13
2021-12-24 14:17:41.709318,-20
2021-12-24 14:17:41.709328,-53
2021-12-24 14:17:41.709337,-109
2021-12-24 14:17:41.709347,-137
2021-12-24 14:17:41.709356,-153
2021-12-24 14:17:41.844736,-174
2021-12-24 14:17:41.844765,-162
2021-12-24 14:17:41.844777,-146
2021-12-24 14:17:41.844787,-158
2021-12-24 14:17:41.844797,-172
2021-12-24 14:17:41.844806,-158
2021-12-24 14:17:41.844816,-111
2021-12-24 14:17:41.844825,-88
2021-12-24 14:17:41.844835,-114
2021-12-24 14:17:41.844844,-116
2021-12-24 14:17:41.844854,-104
2021-12-24 14:17:41.844864,-102
2021-12-24 14:17:41.844873,-60
2021-12-24 14:17:41.844883,-27
2021-12-24 14:17:41.844892,-67
2021-12-24 14:17:41.844902,-123
2021-12-24 14:17:41.844911,-125
2021-12-24 14:17:41.844921,-100
2021-12-24 14:17:41.844931,-97
2021-12-24 14:17:41.844940,-116
2021-12-24 14:17:41.844950,-134
2021-12-24 14:17:41.844959,-176
2021-12-24 14:17:41.844969,-237
2021-12-24 14:17:41.844978,-228
2021-12-24 14:17:41.844988,-160
2021-12-24 14:17:41.844998,-153
2021-12-24 14:17:41.845007,-181
2021-12-24 14:17:41.845017,-174
2021-12-24 14:17:41.845027,-169
2021-12-24 14:17:41.845036,-195
2021-12-24 14:17:42.158175,-200
2021-12-24 14:17:42.158197,-174
2021-12-24 14:17:42.158205,-165
2021-12-24 14:17:42.158211,-174
2021-12-24 14:17:42.158217,-190
2021-12-24 14:17:42.158223,-183
2021-12-24 14:17:42.158230,-139
2021-12-24 14:17:42.158236,-109
2021-12-24 14:17:42.158242,-125
2021-12-24 14:17:42.158248,-179
2021-12-24 14:17:42.158254,-200
2021-12-24 14:17:42.158261,-165
2021-12-24 14:17:42.158267,-137
2021-12-24 14:17:42.158273,-114
2021-12-24 14:17:42.158279,-97
2021-12-24 14:17:42.158285,-123
2021-12-24 14:17:42.158292,-132
2021-12-24 14:17:42.158298,-83
2021-12-24 14:17:42.158304,-39
2021-12-24 14:17:42.158310,-46
2021-12-24 14:17:42.158316,-69
2021-12-24 14:17:42.158323,74
2021-12-24 14:17:42.158329,516
2021-12-24 14:17:42.158335,984
2021-12-24 14:17:42.158341,640
2021-12-24 14:17:42.158347,-595
2021-12-24 14:17:42.158354,-1084
2021-12-24 14:17:42.158360,-318
2021-12-24 14:17:42.158366,139
2021-12-24 14:17:42.158372,-41
2021-12-24 14:17:42.339769,-25
2021-12-24 14:17:42.339799,90
2021-12-24 14:17:42.339811,41
2021-12-24 14:17:42.339821,20
2021-12-24 14:17:42.339830,34
2021-12-24 14:17:42.339840,2
2021-12-24 14:17:42.339849,4
2021-12-24 14:17:42.339859,39
2021-12-24 14:17:42.339869,32
2021-12-24 14:17:42.339878,16
2021-12-24 14:17:42.339888,48
2021-12-24 14:17:42.339897,83
2021-12-24 14:17:42.339907,107
2021-12-24 14:17:42.339917,162
2021-12-24 14:17:42.339926,179
2021-12-24 14:17:42.339936,123
2021-12-24 14:17:42.339945,148
2021-12-24 14:17:42.339955,249
2021-12-24 14:17:42.339965,302
2021-12-24 14:17:42.339975,321
2021-12-24 14:17:42.339984,297
2021-12-24 14:17:42.339994,263
2021-12-24 14:17:42.340003,281
2021-12-24 14:17:42.340013,281
2021-12-24 14:17:42.340023,200
2021-12-24 14:17:42.340032,102
2021-12-24 14:17:42.340042,25
2021-12-24 14:17:42.340051,-51
2021-12-24 14:17:42.340061,-95
2021-12-24 14:17:42.340071,-88
2021-12-24 14:17:42.564457,-88
2021-12-24 14:17:42.564479,-123
2021-12-24 14:17:42.564486,-153
2021-12-24 14:17:42.564493,-158
2021-12-24 14:17:42.564499,-158
2021-12-24 14:17:42.564505,-160
2021-12-24 14:17:42.564512,-109
2021-12-24 14:17:42.564518,-60
2021-12-24 14:17:42.564524,-123
2021-12-24 14:17:42.564530,-167
2021-12-24 14:17:42.564537,-114
2021-12-24 14:17:42.564543,-83
2021-12-24 14:17:42.564549,-93
2021-12-24 14:17:42.564555,-95
2021-12-24 14:17:42.564561,-109
2021-12-24 14:17:42.564567,-109
2021-12-24 14:17:42.564574,-72
2021-12-24 14:17:42.564580,-44
2021-12-24 14:17:42.564586,-46
2021-12-24 14:17:42.564592,-53
2021-12-24 14:17:42.564599,-62
2021-12-24 14:17:42.564605,-67
2021-12-24 14:17:42.564611,-37
2021-12-24 14:17:42.564617,-6
2021-12-24 14:17:42.564623,0
2021-12-24 14:17:42.564630,4
2021-12-24 14:17:42.564636,-13
2021-12-24 14:17:42.564642,-44
2021-12-24 14:17:42.564649,-23
2021-12-24 14:17:42.564655,-11
2021-12-24 14:17:42.834737,-55
2021-12-24 14:17:42.834767,-69
2021-12-24 14:17:42.834778,-44
2021-12-24 14:17:42.834788,-37
2021-12-24 14:17:42.834798,-67
2021-12-24 14:17:42.834808,-125
2021-12-24 14:17:42.834818,-172
2021-12-24 14:17:42.834827,-197
2021-12-24 14:17:42.834837,-221
2021-12-24 14:17:42.834847,-246
2021-12-24 14:17:42.834857,-281
2021-12-24 14:17:42.834866,-290
2021-12-24 14:17:42.834876,-263
2021-12-24 14:17:42.834885,-272
2021-12-24 14:17:42.834895,-316
2021-12-24 14:17:42.834905,-297
2021-12-24 14:17:42.834914,-225
2021-12-24 14:17:42.834924,-193
2021-12-24 14:17:42.834933,-237
2021-12-24 14:17:42.834943,-232
2021-12-24 14:17:42.834952,-18
2021-12-24 14:17:42.834962,404
2021-12-24 14:17:42.834972,807
2021-12-24 14:17:42.834981,537
2021-12-24 14:17:42.834991,-572
2021-12-24 14:17:42.835000,-1061
2021-12-24 14:17:42.835010,-297
2021-12-24 14:17:42.835020,102
2021-12-24 14:17:42.835029,-167
2021-12-24 14:17:42.835039,-100
2021-12-24 14:17:43.014302,65
2021-12-24 14:17:43.014333,-30
2021-12-24 14:17:43.014344,-58
2021-12-24 14:17:43.014354,16
2021-12-24 14:17:43.014363,37
2021-12-24 14:17:43.014373,58
2021-12-24 14:17:43.014382,65
2021-12-24 14:17:43.014391,48
2021-12-24 14:17:43.014401,60
2021-12-24 14:17:43.014410,79
2021-12-24 14:17:43.014420,83
2021-12-24 14:17:43.014434,116
2021-12-24 14:17:43.014443,134
2021-12-24 14:17:43.014453,128
2021-12-24 14:17:43.014462,160
2021-12-24 14:17:43.014472,204
2021-12-24 14:17:43.014481,239
2021-12-24 14:17:43.014491,283
2021-12-24 14:17:43.014500,274
2021-12-24 14:17:43.014509,263
2021-12-24 14:17:43.014519,304
2021-12-24 14:17:43.014528,288
2021-12-24 14:17:43.014538,228
2021-12-24 14:17:43.014547,195
2021-12-24 14:17:43.014557,123
2021-12-24 14:17:43.014566,25
2021-12-24 14:17:43.014575,-32
2021-12-24 14:17:43.014585,-72
2021-12-24 14:17:43.014595,-102
2021-12-24 14:17:43.014604,-123
2021-12-24 14:17:43.284294,-125
2021-12-24 14:17:43.284324,-100
2021-12-24 14:17:43.284336,-83
2021-12-24 14:17:43.284345,-88
2021-12-24 14:17:43.284355,-79
2021-12-24 14:17:43.284364,-79
2021-12-24 14:17:43.284374,-125
2021-12-24 14:17:43.284383,-139
2021-12-24 14:17:43.284393,-90
2021-12-24 14:17:43.284402,-86
2021-12-24 14:17:43.284412,-128
2021-12-24 14:17:43.284421,-155
2021-12-24 14:17:43.284431,-165
2021-12-24 14:17:43.284440,-132
2021-12-24 14:17:43.284450,-109
2021-12-24 14:17:43.284459,-172
2021-12-24 14:17:43.284468,-204
2021-12-24 14:17:43.284478,-148
2021-12-24 14:17:43.284487,-148
2021-12-24 14:17:43.284497,-174
2021-12-24 14:17:43.284506,-118
2021-12-24 14:17:43.284516,-67
2021-12-24 14:17:43.284525,-86
2021-12-24 14:17:43.284535,-97
2021-12-24 14:17:43.284544,-76
2021-12-24 14:17:43.284553,-58
2021-12-24 14:17:43.284563,-58
2021-12-24 14:17:43.284573,-74
2021-12-24 14:17:43.284582,-58
2021-12-24 14:17:43.284591,-41
2021-12-24 14:17:43.464301,-53
2021-12-24 14:17:43.464330,-41
2021-12-24 14:17:43.464342,-30
2021-12-24 14:17:43.464352,-39
2021-12-24 14:17:43.464362,-55
2021-12-24 14:17:43.464371,-102
2021-12-24 14:17:43.464380,-139
2021-12-24 14:17:43.464390,-137
2021-12-24 14:17:43.464399,-134
2021-12-24 14:17:43.464409,-158
2021-12-24 14:17:43.464418,-193
2021-12-24 14:17:43.464428,-207
2021-12-24 14:17:43.464437,-200
2021-12-24 14:17:43.464447,-181
2021-12-24 14:17:43.464456,-141
2021-12-24 14:17:43.464466,-132
2021-12-24 14:17:43.464475,-188
2021-12-24 14:17:43.464485,-228
2021-12-24 14:17:43.464494,-169
2021-12-24 14:17:43.464504,72
2021-12-24 14:17:43.464513,539
2021-12-24 14:17:43.464523,856
2021-12-24 14:17:43.464532,267
2021-12-24 14:17:43.464542,-877
2021-12-24 14:17:43.464551,-947
2021-12-24 14:17:43.464561,-74
2021-12-24 14:17:43.464570,95
2021-12-24 14:17:43.464580,-188
2021-12-24 14:17:43.464589,-72
2021-12-24 14:17:43.464599,46
2021-12-24 14:17:43.823427,-27
2021-12-24 14:17:43.823457,4
2021-12-24 14:17:43.823468,69
2021-12-24 14:17:43.823479,32
2021-12-24 14:17:43.823489,-6
2021-12-24 14:17:43.823499,11
2021-12-24 14:17:43.823508,48
2021-12-24 14:17:43.823518,83
2021-12-24 14:17:43.823528,97
2021-12-24 14:17:43.823537,79
2021-12-24 14:17:43.823547,51
2021-12-24 14:17:43.823557,81
2021-12-24 14:17:43.823566,148
2021-12-24 14:17:43.823576,153
2021-12-24 14:17:43.823586,148
2021-12-24 14:17:43.823596,190
2021-12-24 14:17:43.823605,216
2021-12-24 14:17:43.823615,242
2021-12-24 14:17:43.823625,283
2021-12-24 14:17:43.823635,293
2021-12-24 14:17:43.823644,239
2021-12-24 14:17:43.823654,137
2021-12-24 14:17:43.823664,41
2021-12-24 14:17:43.823674,-16
2021-12-24 14:17:43.823683,-76
2021-12-24 14:17:43.823693,-128
2021-12-24 14:17:43.823703,-137
2021-12-24 14:17:43.823712,-144
2021-12-24 14:17:43.823722,-179
2021-12-24 14:17:43.823732,-190
2021-12-24 14:17:43.959570,-158
2021-12-24 14:17:43.959600,-130
2021-12-24 14:17:43.959611,-148
2021-12-24 14:17:43.959621,-188
2021-12-24 14:17:43.959631,-183
2021-12-24 14:17:43.959641,-128
2021-12-24 14:17:43.959651,-90
2021-12-24 14:17:43.959660,-88
2021-12-24 14:17:43.959670,-88
2021-12-24 14:17:43.959680,-107
2021-12-24 14:17:43.959690,-125
2021-12-24 14:17:43.959699,-100
2021-12-24 14:17:43.959709,-76
2021-12-24 14:17:43.959719,-58
2021-12-24 14:17:43.959728,-41
2021-12-24 14:17:43.959737,-81
2021-12-24 14:17:43.959747,-97
2021-12-24 14:17:43.959757,-39
2021-12-24 14:17:43.959766,-11
2021-12-24 14:17:43.959776,-18
2021-12-24 14:17:43.959785,-23
2021-12-24 14:17:43.959794,-60
2021-12-24 14:17:43.959804,-86
2021-12-24 14:17:43.959813,-51
2021-12-24 14:17:43.959823,-23
2021-12-24 14:17:43.959832,-23
2021-12-24 14:17:43.959842,-16
2021-12-24 14:17:43.959851,-23
2021-12-24 14:17:43.959861,-32
2021-12-24 14:17:43.959870,0
2021-12-24 14:17:44.183644,30
2021-12-24 14:17:44.183667,23
2021-12-24 14:17:44.183678,-6
2021-12-24 14:17:44.183687,-51
2021-12-24 14:17:44.183696,-60
2021-12-24 14:17:44.183705,-30
2021-12-24 14:17:44.183714,11
2021-12-24 14:17:44.183723,37
2021-12-24 14:17:44.183735,-25
2021-12-24 14:17:44.183744,-121
2021-12-24 14:17:44.183753,-141
2021-12-24 14:17:44.183762,-134
2021-12-24 14:17:44.183771,-132
2021-12-24 14:17:44.183780,-121
2021-12-24 14:17:44.183789,-153
2021-12-24 14:17:44.183798,-216
2021-12-24 14:17:44.183807,-207
2021-12-24 14:17:44.183816,-158
2021-12-24 14:17:44.183825,-162
2021-12-24 14:17:44.183834,-167
2021-12-24 14:17:44.183843,-158
2021-12-24 14:17:44.183852,-186
2021-12-24 14:17:44.183860,-204
2021-12-24 14:17:44.183869,-104
2021-12-24 14:17:44.183878,232
2021-12-24 14:17:44.183887,747
2021-12-24 14:17:44.183896,770
2021-12-24 14:17:44.183906,-279
2021-12-24 14:17:44.183915,-1207
2021-12-24 14:17:44.183924,-702
2021-12-24 14:17:44.409987,46
2021-12-24 14:17:44.410007,-60
2021-12-24 14:17:44.410015,-202
2021-12-24 14:17:44.410021,-32
2021-12-24 14:17:44.410028,-16
2021-12-24 14:17:44.410034,-62
2021-12-24 14:17:44.410040,11
2021-12-24 14:17:44.410046,18
2021-12-24 14:17:44.410052,-48
2021-12-24 14:17:44.410058,-51
2021-12-24 14:17:44.410064,-13
2021-12-24 14:17:44.410071,27
2021-12-24 14:17:44.410077,76
2021-12-24 14:17:44.410083,76
2021-12-24 14:17:44.410089,30
2021-12-24 14:17:44.410095,41
2021-12-24 14:17:44.410101,111
2021-12-24 14:17:44.410108,153
2021-12-24 14:17:44.410114,165
2021-12-24 14:17:44.410120,162
2021-12-24 14:17:44.410126,160
2021-12-24 14:17:44.410132,181
2021-12-24 14:17:44.410138,211
2021-12-24 14:17:44.410145,237
2021-12-24 14:17:44.410151,258
2021-12-24 14:17:44.410157,235
2021-12-24 14:17:44.410163,172
2021-12-24 14:17:44.410169,116
2021-12-24 14:17:44.410175,67
2021-12-24 14:17:44.410181,11
2021-12-24 14:17:44.634280,-46
2021-12-24 14:17:44.634309,-86
2021-12-24 14:17:44.634320,-100
2021-12-24 14:17:44.634330,-132
2021-12-24 14:17:44.634340,-146
2021-12-24 14:17:44.634350,-114
2021-12-24 14:17:44.634359,-109
2021-12-24 14:17:44.634369,-132
2021-12-24 14:17:44.634378,-125
2021-12-24 14:17:44.634387,-116
2021-12-24 14:17:44.634397,-114
2021-12-24 14:17:44.634406,-76
2021-12-24 14:17:44.634416,-58
2021-12-24 14:17:44.634425,-102
2021-12-24 14:17:44.634435,-123
2021-12-24 14:17:44.634444,-90
2021-12-24 14:17:44.634453,-65
2021-12-24 14:17:44.634463,-53
2021-12-24 14:17:44.634472,-41
2021-12-24 14:17:44.634482,-46
2021-12-24 14:17:44.634491,-60
2021-12-24 14:17:44.634501,-88
2021-12-24 14:17:44.634510,-93
2021-12-24 14:17:44.634520,-46
2021-12-24 14:17:44.634529,-34
2021-12-24 14:17:44.634539,-65
2021-12-24 14:17:44.634548,-53
2021-12-24 14:17:44.634558,-25
2021-12-24 14:17:44.634567,-16
2021-12-24 14:17:44.634576,-2
2021-12-24 14:17:44.904115,11
2021-12-24 14:17:44.904145,-13
2021-12-24 14:17:44.904157,-72
2021-12-24 14:17:44.904166,-88
2021-12-24 14:17:44.904176,-55
2021-12-24 14:17:44.904185,-34
2021-12-24 14:17:44.904195,-72
2021-12-24 14:17:44.904204,-134
2021-12-24 14:17:44.904214,-148
2021-12-24 14:17:44.904223,-121
2021-12-24 14:17:44.904233,-83
2021-12-24 14:17:44.904242,-74
2021-12-24 14:17:44.904252,-116
2021-12-24 14:17:44.904261,-160
2021-12-24 14:17:44.904271,-179
2021-12-24 14:17:44.904280,-195
2021-12-24 14:17:44.904289,-188
2021-12-24 14:17:44.904299,-165
2021-12-24 14:17:44.904308,-160
2021-12-24 14:17:44.904318,-169
2021-12-24 14:17:44.904327,-165
2021-12-24 14:17:44.904337,-144
2021-12-24 14:17:44.904346,-141
2021-12-24 14:17:44.904356,-172
2021-12-24 14:17:44.904365,-183
2021-12-24 14:17:44.904375,-167
2021-12-24 14:17:44.904384,-176
2021-12-24 14:17:44.904394,-148
2021-12-24 14:17:44.904403,100
2021-12-24 14:17:44.904413,584
2021-12-24 14:17:45.084254,856
2021-12-24 14:17:45.084284,216
2021-12-24 14:17:45.084295,-872
2021-12-24 14:17:45.084305,-870
2021-12-24 14:17:45.084315,-46
2021-12-24 14:17:45.084324,51
2021-12-24 14:17:45.084334,-235
2021-12-24 14:17:45.084344,-88
2021-12-24 14:17:45.084353,44
2021-12-24 14:17:45.084363,-41
2021-12-24 14:17:45.084372,-25
2021-12-24 14:17:45.084382,16
2021-12-24 14:17:45.084391,-46
2021-12-24 14:17:45.084401,-37
2021-12-24 14:17:45.084410,32
2021-12-24 14:17:45.084420,41
2021-12-24 14:17:45.084429,39
2021-12-24 14:17:45.084439,58
2021-12-24 14:17:45.084448,69
2021-12-24 14:17:45.084458,100
2021-12-24 14:17:45.084467,139
2021-12-24 14:17:45.084477,167
2021-12-24 14:17:45.084486,223
2021-12-24 14:17:45.084496,256
2021-12-24 14:17:45.084505,249
2021-12-24 14:17:45.084515,246
2021-12-24 14:17:45.084524,249
2021-12-24 14:17:45.084533,256
2021-12-24 14:17:45.084543,260
2021-12-24 14:17:45.084552,239
2021-12-24 14:17:45.309738,204
2021-12-24 14:17:45.309767,167
2021-12-24 14:17:45.309779,95
2021-12-24 14:17:45.309789,16
2021-12-24 14:17:45.309798,-44
2021-12-24 14:17:45.309808,-121
2021-12-24 14:17:45.309817,-195
2021-12-24 14:17:45.309827,-230
2021-12-24 14:17:45.309837,-265
2021-12-24 14:17:45.309846,-276
2021-12-24 14:17:45.309856,-260
2021-12-24 14:17:45.309865,-265
2021-12-24 14:17:45.309875,-256
2021-12-24 14:17:45.309884,-214
2021-12-24 14:17:45.309894,-197
2021-12-24 14:17:45.309903,-200
2021-12-24 14:17:45.309912,-186
2021-12-24 14:17:45.309922,-167
2021-12-24 14:17:45.309931,-146
2021-12-24 14:17:45.309941,-125
2021-12-24 14:17:45.309950,-121
2021-12-24 14:17:45.309960,-107
2021-12-24 14:17:45.309969,-90
2021-12-24 14:17:45.309988,-93
2021-12-24 14:17:45.309998,-88
2021-12-24 14:17:45.310007,-55
2021-12-24 14:17:45.310016,-39
2021-12-24 14:17:45.310026,-81
2021-12-24 14:17:45.310036,-132
2021-12-24 14:17:45.310045,-121
2021-12-24 14:17:45.534405,-72
2021-12-24 14:17:45.534426,-44
2021-12-24 14:17:45.534434,-53
2021-12-24 14:17:45.534441,-83
2021-12-24 14:17:45.534447,-100
2021-12-24 14:17:45.534453,-97
2021-12-24 14:17:45.534459,-76
2021-12-24 14:17:45.534466,-46
2021-12-24 14:17:45.534472,-34
2021-12-24 14:17:45.534478,-67
2021-12-24 14:17:45.534484,-118
2021-12-24 14:17:45.534490,-118
2021-12-24 14:17:45.534496,-51
2021-12-24 14:17:45.534503,2
2021-12-24 14:17:45.534509,-2
2021-12-24 14:17:45.534515,-48
2021-12-24 14:17:45.534522,-88
2021-12-24 14:17:45.534528,-93
2021-12-24 14:17:45.534534,-79
2021-12-24 14:17:45.534540,-74
2021-12-24 14:17:45.534546,-90
2021-12-24 14:17:45.534553,-109
2021-12-24 14:17:45.534559,-132
2021-12-24 14:17:45.534565,-137
2021-12-24 14:17:45.534571,-116
2021-12-24 14:17:45.534577,-100
2021-12-24 14:17:45.534584,-90
2021-12-24 14:17:45.534590,-107
2021-12-24 14:17:45.534596,-162
2021-12-24 14:17:45.534602,-172
2021-12-24 14:17:45.847985,25
2021-12-24 14:17:45.848038,488
2021-12-24 14:17:45.848045,930
2021-12-24 14:17:45.848052,505
2021-12-24 14:17:45.848058,-814
2021-12-24 14:17:45.848064,-1254
2021-12-24 14:17:45.848070,-395
2021-12-24 14:17:45.848077,32
2021-12-24 14:17:45.848083,-190
2021-12-24 14:17:45.848089,-148
2021-12-24 14:17:45.848095,-25
2021-12-24 14:17:45.848101,-97
2021-12-24 14:17:45.848108,-134
2021-12-24 14:17:45.848114,-111
2021-12-24 14:17:45.848120,-86
2021-12-24 14:17:45.848126,-67
2021-12-24 14:17:45.848132,-76
2021-12-24 14:17:45.848139,-51
2021-12-24 14:17:45.848145,11
2021-12-24 14:17:45.848151,48
2021-12-24 14:17:45.848158,65
2021-12-24 14:17:45.848164,74
2021-12-24 14:17:45.848170,88
2021-12-24 14:17:45.848176,139
2021-12-24 14:17:45.848182,195
2021-12-24 14:17:45.848189,225
2021-12-24 14:17:45.848195,253
2021-12-24 14:17:45.848201,288
2021-12-24 14:17:45.848207,323
2021-12-24 14:17:45.848213,337
2021-12-24 14:17:46.028715,328
2021-12-24 14:17:46.028734,302
2021-12-24 14:17:46.028741,232
2021-12-24 14:17:46.028748,137
2021-12-24 14:17:46.028754,65
2021-12-24 14:17:46.028760,2
2021-12-24 14:17:46.028767,-60
2021-12-24 14:17:46.028773,-88
2021-12-24 14:17:46.028779,-139
2021-12-24 14:17:46.028786,-232
2021-12-24 14:17:46.028792,-237
2021-12-24 14:17:46.028798,-165
2021-12-24 14:17:46.028805,-146
2021-12-24 14:17:46.028811,-158
2021-12-24 14:17:46.028817,-165
2021-12-24 14:17:46.028824,-200
2021-12-24 14:17:46.028830,-207
2021-12-24 14:17:46.028836,-148
2021-12-24 14:17:46.028843,-107
2021-12-24 14:17:46.028849,-102
2021-12-24 14:17:46.028855,-109
2021-12-24 14:17:46.028861,-116
2021-12-24 14:17:46.028868,-100
2021-12-24 14:17:46.028874,-55
2021-12-24 14:17:46.028880,-23
2021-12-24 14:17:46.028887,-18
2021-12-24 14:17:46.028893,-27
2021-12-24 14:17:46.028899,-39
2021-12-24 14:17:46.028906,-39
2021-12-24 14:17:46.028912,-30
2021-12-24 14:17:46.254791,-11
2021-12-24 14:17:46.254821,13
2021-12-24 14:17:46.254833,11
2021-12-24 14:17:46.254843,-18
2021-12-24 14:17:46.254853,-23
2021-12-24 14:17:46.254862,0
2021-12-24 14:17:46.254872,4
2021-12-24 14:17:46.254882,-23
2021-12-24 14:17:46.254892,-69
2021-12-24 14:17:46.254901,-90
2021-12-24 14:17:46.254911,-65
2021-12-24 14:17:46.254921,-11
2021-12-24 14:17:46.254930,27
2021-12-24 14:17:46.254940,13
2021-12-24 14:17:46.254950,-25
2021-12-24 14:17:46.254959,-25
2021-12-24 14:17:46.254969,-16
2021-12-24 14:17:46.254978,-58
2021-12-24 14:17:46.254988,-134
2021-12-24 14:17:46.254997,-167
2021-12-24 14:17:46.255007,-151
2021-12-24 14:17:46.255016,-148
2021-12-24 14:17:46.255026,-151
2021-12-24 14:17:46.255035,-139
2021-12-24 14:17:46.255045,-134
2021-12-24 14:17:46.255055,-151
2021-12-24 14:17:46.255064,-195
2021-12-24 14:17:46.255074,-225
2021-12-24 14:17:46.255083,-128
2021-12-24 14:17:46.255093,195
2021-12-24 14:17:46.523726,728
2021-12-24 14:17:46.523746,919
2021-12-24 14:17:46.523754,-20
2021-12-24 14:17:46.523761,-1180
2021-12-24 14:17:46.523767,-872
2021-12-24 14:17:46.523773,-11
2021-12-24 14:17:46.523780,-86
2021-12-24 14:17:46.523786,-330
2021-12-24 14:17:46.523792,-153
2021-12-24 14:17:46.523799,-83
2021-12-24 14:17:46.523805,-144
2021-12-24 14:17:46.523811,-104
2021-12-24 14:17:46.523817,-72
2021-12-24 14:17:46.523824,-93
2021-12-24 14:17:46.523830,-69
2021-12-24 14:17:46.523836,-30
2021-12-24 14:17:46.523842,-23
2021-12-24 14:17:46.523850,-2
2021-12-24 14:17:46.523893,39
2021-12-24 14:17:46.523907,51
2021-12-24 14:17:46.523915,62
2021-12-24 14:17:46.523922,104
2021-12-24 14:17:46.523928,155
2021-12-24 14:17:46.523934,204
2021-12-24 14:17:46.523940,239
2021-12-24 14:17:46.523946,253
2021-12-24 14:17:46.523953,297
2021-12-24 14:17:46.523959,351
2021-12-24 14:17:46.523965,346
2021-12-24 14:17:46.523972,323
2021-12-24 14:17:46.704749,295
2021-12-24 14:17:46.704779,253
2021-12-24 14:17:46.704791,183
2021-12-24 14:17:46.704801,67
2021-12-24 14:17:46.704810,-16
2021-12-24 14:17:46.704820,-23
2021-12-24 14:17:46.704829,-44
2021-12-24 14:17:46.704839,-118
2021-12-24 14:17:46.704848,-169
2021-12-24 14:17:46.704858,-155
2021-12-24 14:17:46.704867,-130
2021-12-24 14:17:46.704877,-141
2021-12-24 14:17:46.704886,-179
2021-12-24 14:17:46.704896,-190
2021-12-24 14:17:46.704905,-134
2021-12-24 14:17:46.704915,-102
2021-12-24 14:17:46.704924,-114
2021-12-24 14:17:46.704934,-107
2021-12-24 14:17:46.704943,-116
2021-12-24 14:17:46.704953,-134
2021-12-24 14:17:46.704962,-111
2021-12-24 14:17:46.704972,-86
2021-12-24 14:17:46.704981,-86
2021-12-24 14:17:46.704991,-123
2021-12-24 14:17:46.705000,-181
2021-12-24 14:17:46.705010,-160
2021-12-24 14:17:46.705019,-107
2021-12-24 14:17:46.705029,-123
2021-12-24 14:17:46.705039,-125
2021-12-24 14:17:46.705063,-76
2021-12-24 14:17:46.974812,-60
2021-12-24 14:17:46.974842,-81
2021-12-24 14:17:46.974853,-90
2021-12-24 14:17:46.974863,-67
2021-12-24 14:17:46.974873,-23
2021-12-24 14:17:46.974882,-39
2021-12-24 14:17:46.974892,-109
2021-12-24 14:17:46.974901,-102
2021-12-24 14:17:46.974911,-41
2021-12-24 14:17:46.974920,-55
2021-12-24 14:17:46.974930,-83
2021-12-24 14:17:46.974939,-88
2021-12-24 14:17:46.974949,-134
2021-12-24 14:17:46.974958,-125
2021-12-24 14:17:46.974968,-53
2021-12-24 14:17:46.974977,-74
2021-12-24 14:17:46.974986,-123
2021-12-24 14:17:46.974996,-90
2021-12-24 14:17:46.975006,-60
2021-12-24 14:17:46.975015,-81
2021-12-24 14:17:46.975025,-76
2021-12-24 14:17:46.975034,-55
2021-12-24 14:17:46.975044,-83
2021-12-24 14:17:46.975053,-128
2021-12-24 14:17:46.975063,-139
2021-12-24 14:17:46.975072,-165
2021-12-24 14:17:46.975082,-111
2021-12-24 14:17:46.975091,228
2021-12-24 14:17:46.975101,795
2021-12-24 14:17:46.975110,924
2021-12-24 14:17:47.154124,-97
2021-12-24 14:17:47.154154,-1187
2021-12-24 14:17:47.154165,-800
2021-12-24 14:17:47.154175,2
2021-12-24 14:17:47.154185,-76
2021-12-24 14:17:47.154194,-246
2021-12-24 14:17:47.154204,-67
2021-12-24 14:17:47.154213,-25
2021-12-24 14:17:47.154223,-88
2021-12-24 14:17:47.154232,-46
2021-12-24 14:17:47.154242,-13
2021-12-24 14:17:47.154251,-32
2021-12-24 14:17:47.154261,-18
2021-12-24 14:17:47.154270,18
2021-12-24 14:17:47.154279,18
2021-12-24 14:17:47.154289,11
2021-12-24 14:17:47.154299,32
2021-12-24 14:17:47.154308,44
2021-12-24 14:17:47.154318,65
2021-12-24 14:17:47.154327,114
2021-12-24 14:17:47.154337,155
2021-12-24 14:17:47.154346,172
2021-12-24 14:17:47.154356,195
2021-12-24 14:17:47.154365,232
2021-12-24 14:17:47.154375,274
2021-12-24 14:17:47.154384,311
2021-12-24 14:17:47.154394,330
2021-12-24 14:17:47.154403,314
2021-12-24 14:17:47.154413,246
2021-12-24 14:17:47.154422,141
2021-12-24 14:17:47.469107,55
2021-12-24 14:17:47.469136,0
2021-12-24 14:17:47.469147,-76
2021-12-24 14:17:47.469157,-151
2021-12-24 14:17:47.469167,-207
2021-12-24 14:17:47.469176,-244
2021-12-24 14:17:47.469186,-230
2021-12-24 14:17:47.469195,-209
2021-12-24 14:17:47.469205,-209
2021-12-24 14:17:47.469215,-214
2021-12-24 14:17:47.469224,-235
2021-12-24 14:17:47.469234,-239
2021-12-24 14:17:47.469244,-193
2021-12-24 14:17:47.469253,-188
2021-12-24 14:17:47.469263,-218
2021-12-24 14:17:47.469272,-207
2021-12-24 14:17:47.469282,-190
2021-12-24 14:17:47.469291,-174
2021-12-24 14:17:47.469301,-132
2021-12-24 14:17:47.469310,-107
2021-12-24 14:17:47.469320,-121
2021-12-24 14:17:47.469329,-130
2021-12-24 14:17:47.469339,-107
2021-12-24 14:17:47.469348,-62
2021-12-24 14:17:47.469358,-44
2021-12-24 14:17:47.469367,-46
2021-12-24 14:17:47.469377,-37
2021-12-24 14:17:47.469386,-41
2021-12-24 14:17:47.469396,-55
2021-12-24 14:17:47.469405,-34
2021-12-24 14:17:47.649052,-4
2021-12-24 14:17:47.649070,-9
2021-12-24 14:17:47.649078,-32
2021-12-24 14:17:47.649085,-41
2021-12-24 14:17:47.649091,-46
2021-12-24 14:17:47.649098,-41
2021-12-24 14:17:47.649104,-16
2021-12-24 14:17:47.649110,11
2021-12-24 14:17:47.649117,-2
2021-12-24 14:17:47.649123,-58
2021-12-24 14:17:47.649129,-90
2021-12-24 14:17:47.649135,-62
2021-12-24 14:17:47.649141,-27
2021-12-24 14:17:47.649148,16
2021-12-24 14:17:47.649154,51
2021-12-24 14:17:47.649160,2
2021-12-24 14:17:47.649167,-67
2021-12-24 14:17:47.649173,-58
2021-12-24 14:17:47.649179,-30
2021-12-24 14:17:47.649186,-44
2021-12-24 14:17:47.649192,-81
2021-12-24 14:17:47.649198,-109
2021-12-24 14:17:47.649205,-102
2021-12-24 14:17:47.649211,-97
2021-12-24 14:17:47.649217,-109
2021-12-24 14:17:47.649224,-97
2021-12-24 14:17:47.649230,-104
2021-12-24 14:17:47.649237,-130
2021-12-24 14:17:47.649243,-125
2021-12-24 14:17:47.649249,-123
2021-12-24 14:17:47.962511,-65
2021-12-24 14:17:47.962534,239
2021-12-24 14:17:47.962541,754
2021-12-24 14:17:47.962548,944
2021-12-24 14:17:47.962554,111
2021-12-24 14:17:47.962561,-1059
2021-12-24 14:17:47.962567,-912
2021-12-24 14:17:47.962573,-41
2021-12-24 14:17:47.962579,-58
2021-12-24 14:17:47.962586,-346
2021-12-24 14:17:47.962592,-128
2021-12-24 14:17:47.962601,2
2021-12-24 14:17:47.962612,-97
2021-12-24 14:17:47.962624,-67
2021-12-24 14:17:47.962636,-32
2021-12-24 14:17:47.962647,-97
2021-12-24 14:17:47.962660,-93
2021-12-24 14:17:47.962672,-55
2021-12-24 14:17:47.962684,-62
2021-12-24 14:17:47.962694,-51
2021-12-24 14:17:47.962707,-34
2021-12-24 14:17:47.962717,-25
2021-12-24 14:17:47.962757,18
2021-12-24 14:17:47.962772,67
2021-12-24 14:17:47.962778,116
2021-12-24 14:17:47.962784,181
2021-12-24 14:17:47.962791,200
2021-12-24 14:17:47.962797,186
2021-12-24 14:17:47.962803,216
2021-12-24 14:17:47.962810,267
2021-12-24 14:17:48.099404,293
2021-12-24 14:17:48.099433,297
2021-12-24 14:17:48.099445,258
2021-12-24 14:17:48.099455,188
2021-12-24 14:17:48.099464,144
2021-12-24 14:17:48.099474,102
2021-12-24 14:17:48.099483,25
2021-12-24 14:17:48.099493,-62
2021-12-24 14:17:48.099502,-137
2021-12-24 14:17:48.099512,-160
2021-12-24 14:17:48.099521,-151
2021-12-24 14:17:48.099531,-158
2021-12-24 14:17:48.099540,-158
2021-12-24 14:17:48.099550,-148
2021-12-24 14:17:48.099559,-167
2021-12-24 14:17:48.099568,-169
2021-12-24 14:17:48.099578,-137
2021-12-24 14:17:48.099588,-109
2021-12-24 14:17:48.099597,-95
2021-12-24 14:17:48.099607,-102
2021-12-24 14:17:48.099616,-118
2021-12-24 14:17:48.099626,-114
2021-12-24 14:17:48.099635,-93
2021-12-24 14:17:48.099644,-79
2021-12-24 14:17:48.099654,-60
2021-12-24 14:17:48.099663,-55
2021-12-24 14:17:48.099673,-76
2021-12-24 14:17:48.099682,-81
2021-12-24 14:17:48.099692,-48
2021-12-24 14:17:48.099701,-23
2021-12-24 14:17:48.369247,-18
2021-12-24 14:17:48.369278,-13
2021-12-24 14:17:48.369289,-6
2021-12-24 14:17:48.369299,-6
2021-12-24 14:17:48.369308,-13
2021-12-24 14:17:48.369318,-6
2021-12-24 14:17:48.369328,11
2021-12-24 14:17:48.369337,4
2021-12-24 14:17:48.369347,-34
2021-12-24 14:17:48.369356,-48
2021-12-24 14:17:48.369366,-58
2021-12-24 14:17:48.369375,-100
2021-12-24 14:17:48.369385,-116
2021-12-24 14:17:48.369394,-116
2021-12-24 14:17:48.369404,-121
2021-12-24 14:17:48.369413,-100
2021-12-24 14:17:48.369423,-67
2021-12-24 14:17:48.369432,-60
2021-12-24 14:17:48.369442,-58
2021-12-24 14:17:48.369451,-51
2021-12-24 14:17:48.369461,-62
2021-12-24 14:17:48.369471,-116
2021-12-24 14:17:48.369480,-153
2021-12-24 14:17:48.369490,-123
2021-12-24 14:17:48.369499,-107
2021-12-24 14:17:48.369509,-153
2021-12-24 14:17:48.369518,-174
2021-12-24 14:17:48.369528,-144
2021-12-24 14:17:48.369547,-128
2021-12-24 14:17:48.369557,-128
2021-12-24 14:17:48.549271,-130
2021-12-24 14:17:48.549290,-141
2021-12-24 14:17:48.549298,-144
2021-12-24 14:17:48.549304,-137
2021-12-24 14:17:48.549310,-132
2021-12-24 14:17:48.549317,-125
2021-12-24 14:17:48.549323,-134
2021-12-24 14:17:48.549330,-151
2021-12-24 14:17:48.549336,-144
2021-12-24 14:17:48.549342,-134
2021-12-24 14:17:48.549349,-121
2021-12-24 14:17:48.549355,-97
2021-12-24 14:17:48.549361,-125
2021-12-24 14:17:48.549368,-176
2021-12-24 14:17:48.549374,-81
2021-12-24 14:17:48.549380,265
2021-12-24 14:17:48.549387,763
2021-12-24 14:17:48.549393,886
2021-12-24 14:17:48.549400,13
2021-12-24 14:17:48.549406,-984
2021-12-24 14:17:48.549412,-651
2021-12-24 14:17:48.549418,76
2021-12-24 14:17:48.549425,-30
2021-12-24 14:17:48.549431,-188
2021-12-24 14:17:48.549437,-4
2021-12-24 14:17:48.549444,25
2021-12-24 14:17:48.549450,-34
2021-12-24 14:17:48.549456,6
2021-12-24 14:17:48.549463,44
2021-12-24 14:17:48.549469,44
2021-12-24 14:17:48.774941,48
2021-12-24 14:17:48.774971,55
2021-12-24 14:17:48.774982,74
2021-12-24 14:17:48.774992,102
2021-12-24 14:17:48.775002,116
2021-12-24 14:17:48.775011,109
2021-12-24 14:17:48.775021,88
2021-12-24 14:17:48.775030,121
2021-12-24 14:17:48.775040,188
2021-12-24 14:17:48.775049,204
2021-12-24 14:17:48.775059,214
2021-12-24 14:17:48.775068,242
2021-12-24 14:17:48.775078,246
2021-12-24 14:17:48.775087,260
2021-12-24 14:17:48.775097,283
2021-12-24 14:17:48.775107,246
2021-12-24 14:17:48.775116,162
2021-12-24 14:17:48.775126,93
2021-12-24 14:17:48.775135,67
2021-12-24 14:17:48.775145,34
2021-12-24 14:17:48.775154,-34
2021-12-24 14:17:48.775164,-102
2021-12-24 14:17:48.775174,-134
2021-12-24 14:17:48.775183,-148
2021-12-24 14:17:48.775193,-162
2021-12-24 14:17:48.775203,-169
2021-12-24 14:17:48.775212,-181
2021-12-24 14:17:48.775222,-202
2021-12-24 14:17:48.775232,-190
2021-12-24 14:17:48.775241,-160
2021-12-24 14:17:49.044328,-137
2021-12-24 14:17:49.044358,-114
2021-12-24 14:17:49.044369,-107
2021-12-24 14:17:49.044379,-118
2021-12-24 14:17:49.044389,-130
2021-12-24 14:17:49.044398,-141
2021-12-24 14:17:49.044408,-123
2021-12-24 14:17:49.044417,-74
2021-12-24 14:17:49.044427,-65
2021-12-24 14:17:49.044437,-79
2021-12-24 14:17:49.044446,-86
2021-12-24 14:17:49.044456,-111
2021-12-24 14:17:49.044465,-118
2021-12-24 14:17:49.044475,-83
2021-12-24 14:17:49.044484,-60
2021-12-24 14:17:49.044494,-51
2021-12-24 14:17:49.044503,-41
2021-12-24 14:17:49.044513,-60
2021-12-24 14:17:49.044523,-67
2021-12-24 14:17:49.044532,-30
2021-12-24 14:17:49.044542,-4
2021-12-24 14:17:49.044551,-4
2021-12-24 14:17:49.044561,-2
2021-12-24 14:17:49.044570,9
2021-12-24 14:17:49.044580,20
2021-12-24 14:17:49.044589,2
2021-12-24 14:17:49.044599,-34
2021-12-24 14:17:49.044609,-55
2021-12-24 14:17:49.044618,-83
2021-12-24 14:17:49.044628,-116
2021-12-24 14:17:49.224785,-132
2021-12-24 14:17:49.224814,-130
2021-12-24 14:17:49.224826,-134
2021-12-24 14:17:49.224836,-155
2021-12-24 14:17:49.224845,-176
2021-12-24 14:17:49.224855,-190
2021-12-24 14:17:49.224864,-179
2021-12-24 14:17:49.224874,-151
2021-12-24 14:17:49.224883,-144
2021-12-24 14:17:49.224893,-146
2021-12-24 14:17:49.224902,-158
2021-12-24 14:17:49.224912,-169
2021-12-24 14:17:49.224921,-160
2021-12-24 14:17:49.224931,-139
2021-12-24 14:17:49.224940,-114
2021-12-24 14:17:49.224950,-121
2021-12-24 14:17:49.224959,-158
2021-12-24 14:17:49.224969,-137
2021-12-24 14:17:49.224978,-74
2021-12-24 14:17:49.224988,-48
2021-12-24 14:17:49.224998,-58
2021-12-24 14:17:49.225007,-104
2021-12-24 14:17:49.225016,-165
2021-12-24 14:17:49.225026,-169
2021-12-24 14:17:49.225036,-128
2021-12-24 14:17:49.225045,-90
2021-12-24 14:17:49.225055,-72
2021-12-24 14:17:49.225064,-90
2021-12-24 14:17:49.225074,-111
2021-12-24 14:17:49.225083,-102
2021-12-24 14:17:49.539151,-95
2021-12-24 14:17:49.539180,-90
2021-12-24 14:17:49.539192,-111
2021-12-24 14:17:49.539202,-160
2021-12-24 14:17:49.539211,-41
2021-12-24 14:17:49.539221,411
2021-12-24 14:17:49.539230,949
2021-12-24 14:17:49.539240,786
2021-12-24 14:17:49.539249,-430
2021-12-24 14:17:49.539259,-1189
2021-12-24 14:17:49.539268,-484
2021-12-24 14:17:49.539278,114
2021-12-24 14:17:49.539287,-104
2021-12-24 14:17:49.539297,-121
2021-12-24 14:17:49.539306,62
2021-12-24 14:17:49.539316,-6
2021-12-24 14:17:49.539325,-41
2021-12-24 14:17:49.539334,60
2021-12-24 14:17:49.539344,86
2021-12-24 14:17:49.539353,69
2021-12-24 14:17:49.539363,90
2021-12-24 14:17:49.539372,93
2021-12-24 14:17:49.539382,88
2021-12-24 14:17:49.539391,132
2021-12-24 14:17:49.539400,188
2021-12-24 14:17:49.539410,207
2021-12-24 14:17:49.539419,204
2021-12-24 14:17:49.539429,216
2021-12-24 14:17:49.539438,256
2021-12-24 14:17:49.539448,293
2021-12-24 14:17:49.764025,321
2021-12-24 14:17:49.764047,344
2021-12-24 14:17:49.764054,335
2021-12-24 14:17:49.764061,302
2021-12-24 14:17:49.764067,304
2021-12-24 14:17:49.764074,325
2021-12-24 14:17:49.764080,311
2021-12-24 14:17:49.764086,267
2021-12-24 14:17:49.764093,169
2021-12-24 14:17:49.764099,37
2021-12-24 14:17:49.764106,-16
2021-12-24 14:17:49.764112,-27
2021-12-24 14:17:49.764118,-76
2021-12-24 14:17:49.764124,-104
2021-12-24 14:17:49.764131,-121
2021-12-24 14:17:49.764137,-174
2021-12-24 14:17:49.764143,-181
2021-12-24 14:17:49.764150,-134
2021-12-24 14:17:49.764156,-111
2021-12-24 14:17:49.764162,-114
2021-12-24 14:17:49.764168,-125
2021-12-24 14:17:49.764174,-137
2021-12-24 14:17:49.764181,-111
2021-12-24 14:17:49.764187,-65
2021-12-24 14:17:49.764193,-48
2021-12-24 14:17:49.764199,-55
2021-12-24 14:17:49.764206,-58
2021-12-24 14:17:49.764212,-102
2021-12-24 14:17:49.764218,-183
2021-12-24 14:17:49.764224,-179
2021-12-24 14:17:49.988406,-118
2021-12-24 14:17:49.988435,-132
2021-12-24 14:17:49.988447,-181
2021-12-24 14:17:49.988456,-211
2021-12-24 14:17:49.988466,-246
2021-12-24 14:17:49.988475,-256
2021-12-24 14:17:49.988484,-232
2021-12-24 14:17:49.988494,-244
2021-12-24 14:17:49.988503,-267
2021-12-24 14:17:49.988513,-244
2021-12-24 14:17:49.988522,-214
2021-12-24 14:17:49.988532,-221
2021-12-24 14:17:49.988541,-214
2021-12-24 14:17:49.988551,-193
2021-12-24 14:17:49.988560,-216
2021-12-24 14:17:49.988570,-235
2021-12-24 14:17:49.988579,-193
2021-12-24 14:17:49.988589,-160
2021-12-24 14:17:49.988598,-162
2021-12-24 14:17:49.988607,-186
2021-12-24 14:17:49.988617,-218
2021-12-24 14:17:49.988627,-204
2021-12-24 14:17:49.988636,-155
2021-12-24 14:17:49.988645,-116
2021-12-24 14:17:49.988655,-90
2021-12-24 14:17:49.988664,-97
2021-12-24 14:17:49.988674,-111
2021-12-24 14:17:49.988684,-104
2021-12-24 14:17:49.988693,-88
2021-12-24 14:17:49.988703,-65
2021-12-24 14:17:50.214193,-53
2021-12-24 14:17:50.214209,-67
2021-12-24 14:17:50.214215,-67
2021-12-24 14:17:50.214248,-53
2021-12-24 14:17:50.214254,-44
2021-12-24 14:17:50.214259,-46
2021-12-24 14:17:50.214264,-60
2021-12-24 14:17:50.214270,-97
2021-12-24 14:17:50.214279,-158
2021-12-24 14:17:50.214287,-65
2021-12-24 14:17:50.214292,321
2021-12-24 14:17:50.214297,849
2021-12-24 14:17:50.214302,912
2021-12-24 14:17:50.214307,-125
2021-12-24 14:17:50.214312,-1212
2021-12-24 14:17:50.214317,-807
2021-12-24 14:17:50.214322,32
2021-12-24 14:17:50.214327,-4
2021-12-24 14:17:50.214331,-132
2021-12-24 14:17:50.214336,62
2021-12-24 14:17:50.214342,83
2021-12-24 14:17:50.214347,-2
2021-12-24 14:17:50.214352,55
2021-12-24 14:17:50.214367,125
2021-12-24 14:17:50.214373,114
2021-12-24 14:17:50.214378,109
2021-12-24 14:17:50.214383,123
2021-12-24 14:17:50.214388,132
2021-12-24 14:17:50.214393,158
2021-12-24 14:17:50.214398,204
2021-12-24 14:17:50.439934,209
2021-12-24 14:17:50.439963,195
2021-12-24 14:17:50.439975,216
2021-12-24 14:17:50.439985,216
2021-12-24 14:17:50.439995,211
2021-12-24 14:17:50.440005,258
2021-12-24 14:17:50.440015,295
2021-12-24 14:17:50.440025,293
2021-12-24 14:17:50.440034,281
2021-12-24 14:17:50.440044,272
2021-12-24 14:17:50.440054,265
2021-12-24 14:17:50.440063,239
2021-12-24 14:17:50.440073,160
2021-12-24 14:17:50.440083,58
2021-12-24 14:17:50.440092,-25
2021-12-24 14:17:50.440102,-93
2021-12-24 14:17:50.440112,-132
2021-12-24 14:17:50.440121,-158
2021-12-24 14:17:50.440131,-200
2021-12-24 14:17:50.440141,-235
2021-12-24 14:17:50.440150,-221
2021-12-24 14:17:50.440160,-195
2021-12-24 14:17:50.440170,-186
2021-12-24 14:17:50.440179,-179
2021-12-24 14:17:50.440189,-172
2021-12-24 14:17:50.440198,-172
2021-12-24 14:17:50.440208,-172
2021-12-24 14:17:50.440217,-174
2021-12-24 14:17:50.440227,-160
2021-12-24 14:17:50.440237,-134
2021-12-24 14:17:50.664725,-139
2021-12-24 14:17:50.664754,-167
2021-12-24 14:17:50.664766,-174
2021-12-24 14:17:50.664776,-183
2021-12-24 14:17:50.664786,-195
2021-12-24 14:17:50.664795,-195
2021-12-24 14:17:50.664805,-204
2021-12-24 14:17:50.664814,-193
2021-12-24 14:17:50.664824,-169
2021-12-24 14:17:50.664833,-186
2021-12-24 14:17:50.664843,-218
2021-12-24 14:17:50.664852,-242
2021-12-24 14:17:50.664862,-256
2021-12-24 14:17:50.664871,-228
2021-12-24 14:17:50.664881,-195
2021-12-24 14:17:50.664890,-197
2021-12-24 14:17:50.664900,-204
2021-12-24 14:17:50.664909,-207
2021-12-24 14:17:50.664919,-207
2021-12-24 14:17:50.664929,-181
2021-12-24 14:17:50.664938,-155
2021-12-24 14:17:50.664948,-151
2021-12-24 14:17:50.664957,-148
2021-12-24 14:17:50.664967,-141
2021-12-24 14:17:50.664976,-134
2021-12-24 14:17:50.664985,-118
2021-12-24 14:17:50.664995,-100
2021-12-24 14:17:50.665005,-97
2021-12-24 14:17:50.665014,-95
2021-12-24 14:17:50.665023,-65
2021-12-24 14:17:50.844712,-32
2021-12-24 14:17:50.844741,-9
2021-12-24 14:17:50.844752,4
2021-12-24 14:17:50.844762,-2
2021-12-24 14:17:50.844772,-30
2021-12-24 14:17:50.844782,-65
2021-12-24 14:17:50.844791,-69
2021-12-24 14:17:50.844801,-58
2021-12-24 14:17:50.844811,-93
2021-12-24 14:17:50.844820,-134
2021-12-24 14:17:50.844830,-109
2021-12-24 14:17:50.844839,-90
2021-12-24 14:17:50.844848,-123
2021-12-24 14:17:50.844858,-114
2021-12-24 14:17:50.844867,-60
2021-12-24 14:17:50.844877,-67
2021-12-24 14:17:50.844886,-130
2021-12-24 14:17:50.844896,-67
2021-12-24 14:17:50.844905,288
2021-12-24 14:17:50.844915,833
2021-12-24 14:17:50.844924,993
2021-12-24 14:17:50.844934,79
2021-12-24 14:17:50.844943,-1038
2021-12-24 14:17:50.844953,-730
2021-12-24 14:17:50.844962,109
2021-12-24 14:17:50.844972,55
2021-12-24 14:17:50.844981,-102
2021-12-24 14:17:50.844991,100
2021-12-24 14:17:50.845001,86
2021-12-24 14:17:50.845010,2
2021-12-24 14:17:51.069110,109
2021-12-24 14:17:51.069139,158
2021-12-24 14:17:51.069151,102
2021-12-24 14:17:51.069161,86
2021-12-24 14:17:51.069171,79
2021-12-24 14:17:51.069181,76
2021-12-24 14:17:51.069190,123
2021-12-24 14:17:51.069200,165
2021-12-24 14:17:51.069209,176
2021-12-24 14:17:51.069219,162
2021-12-24 14:17:51.069228,128
2021-12-24 14:17:51.069238,160
2021-12-24 14:17:51.069248,256
2021-12-24 14:17:51.069257,267
2021-12-24 14:17:51.069267,251
2021-12-24 14:17:51.069277,288
2021-12-24 14:17:51.069286,279
2021-12-24 14:17:51.069296,258
2021-12-24 14:17:51.069306,295
2021-12-24 14:17:51.069315,309
2021-12-24 14:17:51.069325,256
2021-12-24 14:17:51.069335,167
2021-12-24 14:17:51.069344,76
2021-12-24 14:17:51.069354,11
2021-12-24 14:17:51.069364,-46
2021-12-24 14:17:51.069374,-107
2021-12-24 14:17:51.069383,-141
2021-12-24 14:17:51.069393,-144
2021-12-24 14:17:51.069403,-160
2021-12-24 14:17:51.069413,-195
2021-12-24 14:17:51.339741,-207
2021-12-24 14:17:51.339763,-225
2021-12-24 14:17:51.339771,-232
2021-12-24 14:17:51.339778,-232
2021-12-24 14:17:51.339784,-256
2021-12-24 14:17:51.339791,-244
2021-12-24 14:17:51.339797,-202
2021-12-24 14:17:51.339803,-176
2021-12-24 14:17:51.339810,-174
2021-12-24 14:17:51.339817,-218
2021-12-24 14:17:51.339823,-256
2021-12-24 14:17:51.339830,-209
2021-12-24 14:17:51.339836,-174
2021-12-24 14:17:51.339843,-230
2021-12-24 14:17:51.339849,-283
2021-12-24 14:17:51.339856,-251
2021-12-24 14:17:51.339863,-228
2021-12-24 14:17:51.339869,-239
2021-12-24 14:17:51.339876,-202
2021-12-24 14:17:51.339883,-169
2021-12-24 14:17:51.339890,-183
2021-12-24 14:17:51.339897,-202
2021-12-24 14:17:51.339905,-190
2021-12-24 14:17:51.339912,-148
2021-12-24 14:17:51.339920,-114
2021-12-24 14:17:51.339926,-104
2021-12-24 14:17:51.339933,-95
2021-12-24 14:17:51.339939,-90
2021-12-24 14:17:51.339945,-88
2021-12-24 14:17:51.339952,-74
2021-12-24 14:17:51.564152,-60
2021-12-24 14:17:51.564170,-51
2021-12-24 14:17:51.564178,-44
2021-12-24 14:17:51.564184,-34
2021-12-24 14:17:51.564191,-4
2021-12-24 14:17:51.564197,16
2021-12-24 14:17:51.564204,18
2021-12-24 14:17:51.564210,39
2021-12-24 14:17:51.564216,6
2021-12-24 14:17:51.564222,-81
2021-12-24 14:17:51.564228,-69
2021-12-24 14:17:51.564235,20
2021-12-24 14:17:51.564241,48
2021-12-24 14:17:51.564247,18
2021-12-24 14:17:51.564253,-20
2021-12-24 14:17:51.564260,-37
2021-12-24 14:17:51.564266,-18
2021-12-24 14:17:51.564272,-16
2021-12-24 14:17:51.564279,-32
2021-12-24 14:17:51.564285,-32
2021-12-24 14:17:51.564291,-9
2021-12-24 14:17:51.564297,141
2021-12-24 14:17:51.564303,553
2021-12-24 14:17:51.564310,961
2021-12-24 14:17:51.564316,605
2021-12-24 14:17:51.564323,-549
2021-12-24 14:17:51.564329,-949
2021-12-24 14:17:51.564335,-139
2021-12-24 14:17:51.564341,235
2021-12-24 14:17:51.564348,-30
2021-12-24 14:17:51.789742,37
2021-12-24 14:17:51.789772,181
2021-12-24 14:17:51.789783,79
2021-12-24 14:17:51.789793,55
2021-12-24 14:17:51.789802,139
2021-12-24 14:17:51.789812,146
2021-12-24 14:17:51.789822,148
2021-12-24 14:17:51.789831,176
2021-12-24 14:17:51.789841,144
2021-12-24 14:17:51.789850,97
2021-12-24 14:17:51.789859,132
2021-12-24 14:17:51.789869,174
2021-12-24 14:17:51.789879,176
2021-12-24 14:17:51.789888,179
2021-12-24 14:17:51.789898,190
2021-12-24 14:17:51.789907,214
2021-12-24 14:17:51.789917,256
2021-12-24 14:17:51.789926,309
2021-12-24 14:17:51.789936,339
2021-12-24 14:17:51.789945,302
2021-12-24 14:17:51.789955,216
2021-12-24 14:17:51.789964,186
2021-12-24 14:17:51.789974,214
2021-12-24 14:17:51.789983,207
2021-12-24 14:17:51.789993,151
2021-12-24 14:17:51.790003,74
2021-12-24 14:17:51.790012,-11
2021-12-24 14:17:51.790022,-93
2021-12-24 14:17:51.790032,-146
2021-12-24 14:17:51.790041,-162
2021-12-24 14:17:52.058375,-160
2021-12-24 14:17:52.058404,-179
2021-12-24 14:17:52.058416,-216
2021-12-24 14:17:52.058426,-249
2021-12-24 14:17:52.058435,-249
2021-12-24 14:17:52.058445,-237
2021-12-24 14:17:52.058454,-251
2021-12-24 14:17:52.058464,-272
2021-12-24 14:17:52.058474,-276
2021-12-24 14:17:52.058484,-269
2021-12-24 14:17:52.058493,-246
2021-12-24 14:17:52.058503,-214
2021-12-24 14:17:52.058512,-228
2021-12-24 14:17:52.058522,-269
2021-12-24 14:17:52.058531,-279
2021-12-24 14:17:52.058541,-253
2021-12-24 14:17:52.058551,-223
2021-12-24 14:17:52.058560,-195
2021-12-24 14:17:52.058570,-176
2021-12-24 14:17:52.058579,-167
2021-12-24 14:17:52.058589,-155
2021-12-24 14:17:52.058598,-169
2021-12-24 14:17:52.058607,-204
2021-12-24 14:17:52.058617,-202
2021-12-24 14:17:52.058627,-181
2021-12-24 14:17:52.058636,-167
2021-12-24 14:17:52.058646,-165
2021-12-24 14:17:52.058655,-162
2021-12-24 14:17:52.058665,-118
2021-12-24 14:17:52.058674,-65
2021-12-24 14:17:52.284370,-81
2021-12-24 14:17:52.284400,-111
2021-12-24 14:17:52.284411,-104
2021-12-24 14:17:52.284421,-100
2021-12-24 14:17:52.284430,-81
2021-12-24 14:17:52.284440,-44
2021-12-24 14:17:52.284449,-60
2021-12-24 14:17:52.284459,-81
2021-12-24 14:17:52.284468,-51
2021-12-24 14:17:52.284478,-30
2021-12-24 14:17:52.284487,-27
2021-12-24 14:17:52.284497,-37
2021-12-24 14:17:52.284506,-76
2021-12-24 14:17:52.284516,-95
2021-12-24 14:17:52.284525,-62
2021-12-24 14:17:52.284535,-51
2021-12-24 14:17:52.284544,-58
2021-12-24 14:17:52.284564,-46
2021-12-24 14:17:52.284573,-48
2021-12-24 14:17:52.284583,-23
2021-12-24 14:17:52.284593,18
2021-12-24 14:17:52.284602,-9
2021-12-24 14:17:52.284613,51
2021-12-24 14:17:52.284623,360
2021-12-24 14:17:52.284632,756
2021-12-24 14:17:52.284642,761
2021-12-24 14:17:52.284652,-144
2021-12-24 14:17:52.284661,-1082
2021-12-24 14:17:52.284671,-656
2021-12-24 14:17:52.284681,128
2021-12-24 14:17:52.464789,11
2021-12-24 14:17:52.464818,-148
2021-12-24 14:17:52.464830,60
2021-12-24 14:17:52.464839,81
2021-12-24 14:17:52.464849,9
2021-12-24 14:17:52.464858,62
2021-12-24 14:17:52.464868,72
2021-12-24 14:17:52.464877,51
2021-12-24 14:17:52.464886,104
2021-12-24 14:17:52.464896,132
2021-12-24 14:17:52.464905,107
2021-12-24 14:17:52.464915,114
2021-12-24 14:17:52.464924,148
2021-12-24 14:17:52.464934,174
2021-12-24 14:17:52.464943,186
2021-12-24 14:17:52.464952,214
2021-12-24 14:17:52.464962,251
2021-12-24 14:17:52.464971,246
2021-12-24 14:17:52.464981,242
2021-12-24 14:17:52.464990,293
2021-12-24 14:17:52.465000,332
2021-12-24 14:17:52.465009,316
2021-12-24 14:17:52.465018,300
2021-12-24 14:17:52.465028,307
2021-12-24 14:17:52.465037,300
2021-12-24 14:17:52.465047,242
2021-12-24 14:17:52.465056,130
2021-12-24 14:17:52.465066,27
2021-12-24 14:17:52.465075,-11
2021-12-24 14:17:52.465085,-62
2021-12-24 14:17:52.689311,-118
2021-12-24 14:17:52.689330,-100
2021-12-24 14:17:52.689338,-83
2021-12-24 14:17:52.689344,-123
2021-12-24 14:17:52.689351,-134
2021-12-24 14:17:52.689357,-141
2021-12-24 14:17:52.689363,-155
2021-12-24 14:17:52.689370,-109
2021-12-24 14:17:52.689376,-72
2021-12-24 14:17:52.689382,-95
2021-12-24 14:17:52.689388,-121
2021-12-24 14:17:52.689395,-151
2021-12-24 14:17:52.689401,-160
2021-12-24 14:17:52.689407,-123
2021-12-24 14:17:52.689413,-100
2021-12-24 14:17:52.689420,-130
2021-12-24 14:17:52.689426,-167
2021-12-24 14:17:52.689432,-146
2021-12-24 14:17:52.689438,-132
2021-12-24 14:17:52.689444,-186
2021-12-24 14:17:52.689450,-195
2021-12-24 14:17:52.689456,-151
2021-12-24 14:17:52.689463,-162
2021-12-24 14:17:52.689469,-186
2021-12-24 14:17:52.689475,-160
2021-12-24 14:17:52.689481,-153
2021-12-24 14:17:52.689488,-162
2021-12-24 14:17:52.689494,-141
2021-12-24 14:17:52.689500,-144
2021-12-24 14:17:52.689506,-167
2021-12-24 14:17:52.914385,-162
2021-12-24 14:17:52.914414,-193
2021-12-24 14:17:52.914426,-230
2021-12-24 14:17:52.914436,-223
2021-12-24 14:17:52.914445,-239
2021-12-24 14:17:52.914455,-253
2021-12-24 14:17:52.914464,-211
2021-12-24 14:17:52.914474,-174
2021-12-24 14:17:52.914483,-179
2021-12-24 14:17:52.914492,-197
2021-12-24 14:17:52.914502,-223
2021-12-24 14:17:52.914511,-218
2021-12-24 14:17:52.914521,-186
2021-12-24 14:17:52.914530,-128
2021-12-24 14:17:52.914540,-55
2021-12-24 14:17:52.914549,-67
2021-12-24 14:17:52.914559,-137
2021-12-24 14:17:52.914568,-121
2021-12-24 14:17:52.914578,-53
2021-12-24 14:17:52.914587,-34
2021-12-24 14:17:52.914597,-48
2021-12-24 14:17:52.914606,-60
2021-12-24 14:17:52.914616,-83
2021-12-24 14:17:52.914625,-100
2021-12-24 14:17:52.914635,-58
2021-12-24 14:17:52.914644,39
2021-12-24 14:17:52.914654,65
2021-12-24 14:17:52.914664,-9
2021-12-24 14:17:52.914673,-34
2021-12-24 14:17:52.914683,86
2021-12-24 14:17:53.184328,384
2021-12-24 14:17:53.184358,751
2021-12-24 14:17:53.184369,577
2021-12-24 14:17:53.184379,-467
2021-12-24 14:17:53.184388,-1063
2021-12-24 14:17:53.184398,-346
2021-12-24 14:17:53.184408,207
2021-12-24 14:17:53.184417,-13
2021-12-24 14:17:53.184427,-58
2021-12-24 14:17:53.184436,51
2021-12-24 14:17:53.184446,-23
2021-12-24 14:17:53.184455,-25
2021-12-24 14:17:53.184465,72
2021-12-24 14:17:53.184474,81
2021-12-24 14:17:53.184484,55
2021-12-24 14:17:53.184493,90
2021-12-24 14:17:53.184503,125
2021-12-24 14:17:53.184512,128
2021-12-24 14:17:53.184522,144
2021-12-24 14:17:53.184531,169
2021-12-24 14:17:53.184541,181
2021-12-24 14:17:53.184550,179
2021-12-24 14:17:53.184560,202
2021-12-24 14:17:53.184569,256
2021-12-24 14:17:53.184579,295
2021-12-24 14:17:53.184588,325
2021-12-24 14:17:53.184598,330
2021-12-24 14:17:53.184607,309
2021-12-24 14:17:53.184617,325
2021-12-24 14:17:53.184626,360
2021-12-24 14:17:53.409731,351
2021-12-24 14:17:53.409750,316
2021-12-24 14:17:53.409758,239
2021-12-24 14:17:53.409765,116
2021-12-24 14:17:53.409771,32
2021-12-24 14:17:53.409777,-20
2021-12-24 14:17:53.409784,-109
2021-12-24 14:17:53.409790,-160
2021-12-24 14:17:53.409796,-176
2021-12-24 14:17:53.409802,-216
2021-12-24 14:17:53.409809,-223
2021-12-24 14:17:53.409815,-197
2021-12-24 14:17:53.409821,-183
2021-12-24 14:17:53.409827,-160
2021-12-24 14:17:53.409833,-153
2021-12-24 14:17:53.409840,-179
2021-12-24 14:17:53.409846,-172
2021-12-24 14:17:53.409852,-141
2021-12-24 14:17:53.409858,-123
2021-12-24 14:17:53.409864,-114
2021-12-24 14:17:53.409871,-109
2021-12-24 14:17:53.409877,-97
2021-12-24 14:17:53.409883,-79
2021-12-24 14:17:53.409889,-55
2021-12-24 14:17:53.409895,-34
2021-12-24 14:17:53.409902,-30
2021-12-24 14:17:53.409908,-41
2021-12-24 14:17:53.409914,-53
2021-12-24 14:17:53.409921,-51
2021-12-24 14:17:53.409927,-23
2021-12-24 14:17:53.634308,9
2021-12-24 14:17:53.634349,0
2021-12-24 14:17:53.634361,-41
2021-12-24 14:17:53.634371,-81
2021-12-24 14:17:53.634380,-104
2021-12-24 14:17:53.634390,-111
2021-12-24 14:17:53.634399,-118
2021-12-24 14:17:53.634409,-151
2021-12-24 14:17:53.634418,-211
2021-12-24 14:17:53.634428,-230
2021-12-24 14:17:53.634437,-188
2021-12-24 14:17:53.634447,-169
2021-12-24 14:17:53.634456,-193
2021-12-24 14:17:53.634465,-200
2021-12-24 14:17:53.634475,-221
2021-12-24 14:17:53.634484,-242
2021-12-24 14:17:53.634494,-221
2021-12-24 14:17:53.634503,-181
2021-12-24 14:17:53.634513,-146
2021-12-24 14:17:53.634522,-128
2021-12-24 14:17:53.634532,-128
2021-12-24 14:17:53.634541,-121
2021-12-24 14:17:53.634551,-121
2021-12-24 14:17:53.634560,-132
2021-12-24 14:17:53.634569,-102
2021-12-24 14:17:53.634579,-88
2021-12-24 14:17:53.634588,-116
2021-12-24 14:17:53.634598,-107
2021-12-24 14:17:53.634608,-76
2021-12-24 14:17:53.634617,-53
2021-12-24 14:17:53.859812,-34
2021-12-24 14:17:53.859831,-39
2021-12-24 14:17:53.859839,-41
2021-12-24 14:17:53.859845,-39
2021-12-24 14:17:53.859852,-46
2021-12-24 14:17:53.859858,39
2021-12-24 14:17:53.859864,297
2021-12-24 14:17:53.859870,647
2021-12-24 14:17:53.859877,612
2021-12-24 14:17:53.859883,-297
2021-12-24 14:17:53.859889,-1140
2021-12-24 14:17:53.859895,-707
2021-12-24 14:17:53.859901,-20
2021-12-24 14:17:53.859907,-130
2021-12-24 14:17:53.859914,-263
2021-12-24 14:17:53.859920,-76
2021-12-24 14:17:53.859926,-37
2021-12-24 14:17:53.859932,-86
2021-12-24 14:17:53.859938,-60
2021-12-24 14:17:53.859945,-39
2021-12-24 14:17:53.859951,-34
2021-12-24 14:17:53.859957,-6
2021-12-24 14:17:53.859963,48
2021-12-24 14:17:53.859969,83
2021-12-24 14:17:53.859975,79
2021-12-24 14:17:53.859982,90
2021-12-24 14:17:53.859988,121
2021-12-24 14:17:53.859994,132
2021-12-24 14:17:53.860000,148
2021-12-24 14:17:53.860006,186
2021-12-24 14:17:54.173039,218
2021-12-24 14:17:54.173060,267
2021-12-24 14:17:54.173068,328
2021-12-24 14:17:54.173075,318
2021-12-24 14:17:54.173081,293
2021-12-24 14:17:54.173088,302
2021-12-24 14:17:54.173094,274
2021-12-24 14:17:54.173100,195
2021-12-24 14:17:54.173107,125
2021-12-24 14:17:54.173113,53
2021-12-24 14:17:54.173119,-2
2021-12-24 14:17:54.173126,-30
2021-12-24 14:17:54.173132,-104
2021-12-24 14:17:54.173138,-179
2021-12-24 14:17:54.173145,-179
2021-12-24 14:17:54.173151,-190
2021-12-24 14:17:54.173157,-211
2021-12-24 14:17:54.173163,-179
2021-12-24 14:17:54.173170,-155
2021-12-24 14:17:54.173176,-160
2021-12-24 14:17:54.173182,-148
2021-12-24 14:17:54.173189,-134
2021-12-24 14:17:54.173195,-123
2021-12-24 14:17:54.173201,-93
2021-12-24 14:17:54.173207,-74
2021-12-24 14:17:54.173214,-60
2021-12-24 14:17:54.173220,-39
2021-12-24 14:17:54.173227,-48
2021-12-24 14:17:54.173233,-58
2021-12-24 14:17:54.173239,-39
2021-12-24 14:17:54.309779,-23
2021-12-24 14:17:54.309810,-20
2021-12-24 14:17:54.309821,-18
2021-12-24 14:17:54.309831,-25
2021-12-24 14:17:54.309841,-27
2021-12-24 14:17:54.309851,-44
2021-12-24 14:17:54.309860,-86
2021-12-24 14:17:54.309870,-109
2021-12-24 14:17:54.309880,-104
2021-12-24 14:17:54.309889,-111
2021-12-24 14:17:54.309899,-144
2021-12-24 14:17:54.309908,-211
2021-12-24 14:17:54.309918,-258
2021-12-24 14:17:54.309928,-242
2021-12-24 14:17:54.309937,-228
2021-12-24 14:17:54.309947,-246
2021-12-24 14:17:54.309956,-244
2021-12-24 14:17:54.309966,-249
2021-12-24 14:17:54.309975,-274
2021-12-24 14:17:54.309985,-249
2021-12-24 14:17:54.309994,-223
2021-12-24 14:17:54.310004,-242
2021-12-24 14:17:54.310013,-228
2021-12-24 14:17:54.310023,-193
2021-12-24 14:17:54.310032,-209
2021-12-24 14:17:54.310042,-207
2021-12-24 14:17:54.310051,-148
2021-12-24 14:17:54.310061,-130
2021-12-24 14:17:54.310070,-162
2021-12-24 14:17:54.310080,-155
2021-12-24 14:17:54.534455,-104
2021-12-24 14:17:54.534476,-90
2021-12-24 14:17:54.534484,-97
2021-12-24 14:17:54.534491,-72
2021-12-24 14:17:54.534497,74
2021-12-24 14:17:54.534504,460
2021-12-24 14:17:54.534510,870
2021-12-24 14:17:54.534516,421
2021-12-24 14:17:54.534522,-868
2021-12-24 14:17:54.534528,-1226
2021-12-24 14:17:54.534535,-365
2021-12-24 14:17:54.534541,9
2021-12-24 14:17:54.534547,-221
2021-12-24 14:17:54.534553,-132
2021-12-24 14:17:54.534593,32
2021-12-24 14:17:54.534599,-53
2021-12-24 14:17:54.534606,-62
2021-12-24 14:17:54.534612,27
2021-12-24 14:17:54.534618,25
2021-12-24 14:17:54.534624,25
2021-12-24 14:17:54.534631,79
2021-12-24 14:17:54.534637,100
2021-12-24 14:17:54.534643,100
2021-12-24 14:17:54.534649,111
2021-12-24 14:17:54.534656,148
2021-12-24 14:17:54.534662,193
2021-12-24 14:17:54.534668,216
2021-12-24 14:17:54.534674,235
2021-12-24 14:17:54.534681,263
2021-12-24 14:17:54.534687,311
2021-12-24 14:17:54.761168,360
2021-12-24 14:17:54.761191,367
2021-12-24 14:17:54.761198,374
2021-12-24 14:17:54.761205,379
2021-12-24 14:17:54.761212,328
2021-12-24 14:17:54.761218,281
2021-12-24 14:17:54.761224,253
2021-12-24 14:17:54.761230,169
2021-12-24 14:17:54.761237,83
2021-12-24 14:17:54.761243,-2
2021-12-24 14:17:54.761249,-123
2021-12-24 14:17:54.761256,-181
2021-12-24 14:17:54.761262,-153
2021-12-24 14:17:54.761269,-160
2021-12-24 14:17:54.761275,-216
2021-12-24 14:17:54.761281,-253
2021-12-24 14:17:54.761287,-269
2021-12-24 14:17:54.761293,-246
2021-12-24 14:17:54.761300,-165
2021-12-24 14:17:54.761306,-116
2021-12-24 14:17:54.761313,-132
2021-12-24 14:17:54.761319,-151
2021-12-24 14:17:54.761325,-172
2021-12-24 14:17:54.761331,-204
2021-12-24 14:17:54.761338,-195
2021-12-24 14:17:54.761344,-153
2021-12-24 14:17:54.761350,-139
2021-12-24 14:17:54.761357,-151
2021-12-24 14:17:54.761363,-134
2021-12-24 14:17:54.761369,-102
2021-12-24 14:17:55.074350,-83
2021-12-24 14:17:55.074380,-74
2021-12-24 14:17:55.074392,-67
2021-12-24 14:17:55.074402,-97
2021-12-24 14:17:55.074412,-130
2021-12-24 14:17:55.074421,-97
2021-12-24 14:17:55.074431,-72
2021-12-24 14:17:55.074441,-81
2021-12-24 14:17:55.074450,-90
2021-12-24 14:17:55.074460,-123
2021-12-24 14:17:55.074469,-130
2021-12-24 14:17:55.074479,-53
2021-12-24 14:17:55.074489,2
2021-12-24 14:17:55.074498,-9
2021-12-24 14:17:55.074508,-30
2021-12-24 14:17:55.074518,-74
2021-12-24 14:17:55.074527,-144
2021-12-24 14:17:55.074537,-158
2021-12-24 14:17:55.074547,-116
2021-12-24 14:17:55.074557,-114
2021-12-24 14:17:55.074567,-158
2021-12-24 14:17:55.074576,-186
2021-12-24 14:17:55.074586,-181
2021-12-24 14:17:55.074596,-169
2021-12-24 14:17:55.074605,-155
2021-12-24 14:17:55.074615,-141
2021-12-24 14:17:55.074625,-137
2021-12-24 14:17:55.074634,-165
2021-12-24 14:17:55.074644,-114
2021-12-24 14:17:55.074654,214
2021-12-24 14:17:55.254541,737
2021-12-24 14:17:55.254569,877
2021-12-24 14:17:55.254581,-65
2021-12-24 14:17:55.254591,-1196
2021-12-24 14:17:55.254601,-886
2021-12-24 14:17:55.254610,-9
2021-12-24 14:17:55.254620,0
2021-12-24 14:17:55.254630,-158
2021-12-24 14:17:55.254639,20
2021-12-24 14:17:55.254649,25
2021-12-24 14:17:55.254659,-67
2021-12-24 14:17:55.254669,11
2021-12-24 14:17:55.254678,62
2021-12-24 14:17:55.254688,34
2021-12-24 14:17:55.254697,25
2021-12-24 14:17:55.254707,13
2021-12-24 14:17:55.254716,25
2021-12-24 14:17:55.254726,65
2021-12-24 14:17:55.254736,67
2021-12-24 14:17:55.254745,53
2021-12-24 14:17:55.254755,65
2021-12-24 14:17:55.254765,90
2021-12-24 14:17:55.254774,130
2021-12-24 14:17:55.254784,188
2021-12-24 14:17:55.254793,237
2021-12-24 14:17:55.254803,265
2021-12-24 14:17:55.254813,269
2021-12-24 14:17:55.254822,265
2021-12-24 14:17:55.254832,232
2021-12-24 14:17:55.254841,172
2021-12-24 14:17:55.479381,137
2021-12-24 14:17:55.479411,104
2021-12-24 14:17:55.479423,16
2021-12-24 14:17:55.479433,-79
2021-12-24 14:17:55.479443,-116
2021-12-24 14:17:55.479453,-130
2021-12-24 14:17:55.479462,-172
2021-12-24 14:17:55.479472,-232
2021-12-24 14:17:55.479483,-274
2021-12-24 14:17:55.479493,-281
2021-12-24 14:17:55.479502,-244
2021-12-24 14:17:55.479512,-190
2021-12-24 14:17:55.479522,-160
2021-12-24 14:17:55.479531,-179
2021-12-24 14:17:55.479541,-221
2021-12-24 14:17:55.479550,-221
2021-12-24 14:17:55.479560,-176
2021-12-24 14:17:55.479569,-141
2021-12-24 14:17:55.479579,-118
2021-12-24 14:17:55.479589,-107
2021-12-24 14:17:55.479598,-134
2021-12-24 14:17:55.479608,-162
2021-12-24 14:17:55.479618,-128
2021-12-24 14:17:55.479644,-79
2021-12-24 14:17:55.479653,-83
2021-12-24 14:17:55.479663,-97
2021-12-24 14:17:55.479673,-95
2021-12-24 14:17:55.479682,-81
2021-12-24 14:17:55.479692,-55
2021-12-24 14:17:55.479701,-30
2021-12-24 14:17:55.704718,-30
2021-12-24 14:17:55.704739,-34
2021-12-24 14:17:55.704747,-30
2021-12-24 14:17:55.704753,-23
2021-12-24 14:17:55.704760,-2
2021-12-24 14:17:55.704766,27
2021-12-24 14:17:55.704772,27
2021-12-24 14:17:55.704778,-11
2021-12-24 14:17:55.704784,-34
2021-12-24 14:17:55.704790,-25
2021-12-24 14:17:55.704796,-13
2021-12-24 14:17:55.704803,-4
2021-12-24 14:17:55.704809,-16
2021-12-24 14:17:55.704815,-39
2021-12-24 14:17:55.704821,-37
2021-12-24 14:17:55.704827,-23
2021-12-24 14:17:55.704834,-20
2021-12-24 14:17:55.704840,-2
2021-12-24 14:17:55.704846,-6
2021-12-24 14:17:55.704852,-44
2021-12-24 14:17:55.704858,-58
2021-12-24 14:17:55.704864,-58
2021-12-24 14:17:55.704870,20
2021-12-24 14:17:55.704877,358
2021-12-24 14:17:55.704883,823
2021-12-24 14:17:55.704889,649
2021-12-24 14:17:55.704895,-516
2021-12-24 14:17:55.704901,-1221
2021-12-24 14:17:55.704908,-512
2021-12-24 14:17:55.704914,79
2021-12-24 14:17:56.019940,-167
2021-12-24 14:17:56.019962,-218
2021-12-24 14:17:56.019970,-25
2021-12-24 14:17:56.019977,-88
2021-12-24 14:17:56.019984,-179
2021-12-24 14:17:56.019990,-130
2021-12-24 14:17:56.019996,-134
2021-12-24 14:17:56.020022,-148
2021-12-24 14:17:56.020031,-88
2021-12-24 14:17:56.020041,-67
2021-12-24 14:17:56.020051,-72
2021-12-24 14:17:56.020061,-44
2021-12-24 14:17:56.020070,-48
2021-12-24 14:17:56.020080,-44
2021-12-24 14:17:56.020090,6
2021-12-24 14:17:56.020099,37
2021-12-24 14:17:56.020109,83
2021-12-24 14:17:56.020119,165
2021-12-24 14:17:56.020128,202
2021-12-24 14:17:56.020138,207
2021-12-24 14:17:56.020147,232
2021-12-24 14:17:56.020157,246
2021-12-24 14:17:56.020167,239
2021-12-24 14:17:56.020176,232
2021-12-24 14:17:56.020186,179
2021-12-24 14:17:56.020196,86
2021-12-24 14:17:56.020205,13
2021-12-24 14:17:56.020215,-58
2021-12-24 14:17:56.020224,-123
2021-12-24 14:17:56.020234,-139
2021-12-24 14:17:56.198022,-155
2021-12-24 14:17:56.198052,-169
2021-12-24 14:17:56.198063,-162
2021-12-24 14:17:56.198073,-165
2021-12-24 14:17:56.198083,-160
2021-12-24 14:17:56.198093,-139
2021-12-24 14:17:56.198102,-130
2021-12-24 14:17:56.198112,-109
2021-12-24 14:17:56.198121,-69
2021-12-24 14:17:56.198131,-58
2021-12-24 14:17:56.198141,-74
2021-12-24 14:17:56.198150,-86
2021-12-24 14:17:56.198160,-90
2021-12-24 14:17:56.198169,-65
2021-12-24 14:17:56.198179,-23
2021-12-24 14:17:56.198188,-16
2021-12-24 14:17:56.198198,-34
2021-12-24 14:17:56.198208,-65
2021-12-24 14:17:56.198217,-86
2021-12-24 14:17:56.198227,-53
2021-12-24 14:17:56.198236,-13
2021-12-24 14:17:56.198246,-25
2021-12-24 14:17:56.198255,-41
2021-12-24 14:17:56.198265,-55
2021-12-24 14:17:56.198274,-69
2021-12-24 14:17:56.198284,-51
2021-12-24 14:17:56.198293,-41
2021-12-24 14:17:56.198303,-81
2021-12-24 14:17:56.198312,-104
2021-12-24 14:17:56.198322,-90
2021-12-24 14:17:56.379805,-74
2021-12-24 14:17:56.379834,-37
2021-12-24 14:17:56.379846,2
2021-12-24 14:17:56.379856,2
2021-12-24 14:17:56.379865,-32
2021-12-24 14:17:56.379875,-58
2021-12-24 14:17:56.379884,-48
2021-12-24 14:17:56.379894,-34
2021-12-24 14:17:56.379903,-39
2021-12-24 14:17:56.379913,-69
2021-12-24 14:17:56.379922,-148
2021-12-24 14:17:56.379932,-195
2021-12-24 14:17:56.379941,-139
2021-12-24 14:17:56.379950,-83
2021-12-24 14:17:56.379960,-83
2021-12-24 14:17:56.379969,-81
2021-12-24 14:17:56.379979,-62
2021-12-24 14:17:56.379988,-83
2021-12-24 14:17:56.379997,-100
2021-12-24 14:17:56.380007,34
2021-12-24 14:17:56.380017,402
2021-12-24 14:17:56.380026,833
2021-12-24 14:17:56.380036,644
2021-12-24 14:17:56.380045,-458
2021-12-24 14:17:56.380055,-1065
2021-12-24 14:17:56.380064,-353
2021-12-24 14:17:56.380074,128
2021-12-24 14:17:56.380083,-190
2021-12-24 14:17:56.380093,-258
2021-12-24 14:17:56.380102,-65
2021-12-24 14:17:56.604841,-83
2021-12-24 14:17:56.604870,-109
2021-12-24 14:17:56.604881,-37
2021-12-24 14:17:56.604891,-51
2021-12-24 14:17:56.604901,-118
2021-12-24 14:17:56.604911,-102
2021-12-24 14:17:56.604920,-46
2021-12-24 14:17:56.604930,-32
2021-12-24 14:17:56.604940,-6
2021-12-24 14:17:56.604949,20
2021-12-24 14:17:56.604959,0
2021-12-24 14:17:56.604968,11
2021-12-24 14:17:56.604978,76
2021-12-24 14:17:56.604988,111
2021-12-24 14:17:56.604997,139
2021-12-24 14:17:56.605008,174
2021-12-24 14:17:56.605017,193
2021-12-24 14:17:56.605027,223
2021-12-24 14:17:56.605036,260
2021-12-24 14:17:56.605046,267
2021-12-24 14:17:56.605056,232
2021-12-24 14:17:56.605065,181
2021-12-24 14:17:56.605075,118
2021-12-24 14:17:56.605084,20
2021-12-24 14:17:56.605094,-48
2021-12-24 14:17:56.605104,-65
2021-12-24 14:17:56.605113,-100
2021-12-24 14:17:56.605123,-153
2021-12-24 14:17:56.605132,-169
2021-12-24 14:17:56.605142,-144
2021-12-24 14:17:56.874559,-153
2021-12-24 14:17:56.874589,-204
2021-12-24 14:17:56.874601,-218
2021-12-24 14:17:56.874611,-225
2021-12-24 14:17:56.874621,-230
2021-12-24 14:17:56.874630,-179
2021-12-24 14:17:56.874640,-146
2021-12-24 14:17:56.874649,-148
2021-12-24 14:17:56.874659,-144
2021-12-24 14:17:56.874668,-174
2021-12-24 14:17:56.874678,-186
2021-12-24 14:17:56.874687,-128
2021-12-24 14:17:56.874697,-88
2021-12-24 14:17:56.874706,-76
2021-12-24 14:17:56.874716,-58
2021-12-24 14:17:56.874725,-83
2021-12-24 14:17:56.874734,-141
2021-12-24 14:17:56.874744,-132
2021-12-24 14:17:56.874753,-81
2021-12-24 14:17:56.874763,-67
2021-12-24 14:17:56.874772,-67
2021-12-24 14:17:56.874782,-69
2021-12-24 14:17:56.874791,-67
2021-12-24 14:17:56.874801,-37
2021-12-24 14:17:56.874810,-2
2021-12-24 14:17:56.874820,25
2021-12-24 14:17:56.874829,4
2021-12-24 14:17:56.874839,-41
2021-12-24 14:17:56.874849,-18
2021-12-24 14:17:56.874858,23
2021-12-24 14:17:57.099528,18
2021-12-24 14:17:57.099559,25
2021-12-24 14:17:57.099571,27
2021-12-24 14:17:57.099581,4
2021-12-24 14:17:57.099591,11
2021-12-24 14:17:57.099601,16
2021-12-24 14:17:57.099610,-6
2021-12-24 14:17:57.099620,4
2021-12-24 14:17:57.099630,0
2021-12-24 14:17:57.099640,-23
2021-12-24 14:17:57.099649,9
2021-12-24 14:17:57.099659,48
2021-12-24 14:17:57.099669,53
2021-12-24 14:17:57.099678,41
2021-12-24 14:17:57.099688,-6
2021-12-24 14:17:57.099698,-55
2021-12-24 14:17:57.099707,-37
2021-12-24 14:17:57.099717,11
2021-12-24 14:17:57.099727,27
2021-12-24 14:17:57.099747,23
2021-12-24 14:17:57.099757,25
2021-12-24 14:17:57.099767,30
2021-12-24 14:17:57.099776,37
2021-12-24 14:17:57.099786,41
2021-12-24 14:17:57.099795,37
2021-12-24 14:17:57.099805,18
2021-12-24 14:17:57.099815,79
2021-12-24 14:17:57.099825,349
2021-12-24 14:17:57.099834,777
2021-12-24 14:17:57.099844,833
2021-12-24 14:17:57.369294,-37
2021-12-24 14:17:57.369324,-933
2021-12-24 14:17:57.369336,-560
2021-12-24 14:17:57.369346,102
2021-12-24 14:17:57.369356,-67
2021-12-24 14:17:57.369365,-242
2021-12-24 14:17:57.369375,-41
2021-12-24 14:17:57.369384,-48
2021-12-24 14:17:57.369394,-174
2021-12-24 14:17:57.369403,-116
2021-12-24 14:17:57.369413,-44
2021-12-24 14:17:57.369423,-65
2021-12-24 14:17:57.369432,-60
2021-12-24 14:17:57.369441,-37
2021-12-24 14:17:57.369451,-69
2021-12-24 14:17:57.369460,-74
2021-12-24 14:17:57.369470,-9
2021-12-24 14:17:57.369480,39
2021-12-24 14:17:57.369489,48
2021-12-24 14:17:57.369499,67
2021-12-24 14:17:57.369509,90
2021-12-24 14:17:57.369518,60
2021-12-24 14:17:57.369528,39
2021-12-24 14:17:57.369537,104
2021-12-24 14:17:57.369547,158
2021-12-24 14:17:57.369556,146
2021-12-24 14:17:57.369566,155
2021-12-24 14:17:57.369575,167
2021-12-24 14:17:57.369585,141
2021-12-24 14:17:57.369594,109
2021-12-24 14:17:57.549499,58
2021-12-24 14:17:57.549521,-25
2021-12-24 14:17:57.549529,-93
2021-12-24 14:17:57.549535,-128
2021-12-24 14:17:57.549542,-158
2021-12-24 14:17:57.549548,-174
2021-12-24 14:17:57.549555,-188
2021-12-24 14:17:57.549561,-211
2021-12-24 14:17:57.549567,-214
2021-12-24 14:17:57.549573,-193
2021-12-24 14:17:57.549580,-169
2021-12-24 14:17:57.549586,-153
2021-12-24 14:17:57.549592,-162
2021-12-24 14:17:57.549598,-193
2021-12-24 14:17:57.549605,-188
2021-12-24 14:17:57.549611,-153
2021-12-24 14:17:57.549618,-128
2021-12-24 14:17:57.549624,-104
2021-12-24 14:17:57.549630,-111
2021-12-24 14:17:57.549636,-151
2021-12-24 14:17:57.549643,-155
2021-12-24 14:17:57.549649,-123
2021-12-24 14:17:57.549655,-102
2021-12-24 14:17:57.549662,-88
2021-12-24 14:17:57.549668,-81
2021-12-24 14:17:57.549674,-79
2021-12-24 14:17:57.549681,-58
2021-12-24 14:17:57.549687,-48
2021-12-24 14:17:57.549693,-65
2021-12-24 14:17:57.549700,-65
2021-12-24 14:17:57.774440,-37
2021-12-24 14:17:57.774462,-11
2021-12-24 14:17:57.774469,-11
2021-12-24 14:17:57.774476,-25
2021-12-24 14:17:57.774482,-37
2021-12-24 14:17:57.774489,-30
2021-12-24 14:17:57.774495,-34
2021-12-24 14:17:57.774501,-60
2021-12-24 14:17:57.774508,-74
2021-12-24 14:17:57.774514,-81
2021-12-24 14:17:57.774520,-74
2021-12-24 14:17:57.774526,-72
2021-12-24 14:17:57.774533,-93
2021-12-24 14:17:57.774539,-104
2021-12-24 14:17:57.774545,-88
2021-12-24 14:17:57.774551,-69
2021-12-24 14:17:57.774558,-46
2021-12-24 14:17:57.774564,-39
2021-12-24 14:17:57.774570,-58
2021-12-24 14:17:57.774576,-48
2021-12-24 14:17:57.774583,-4
2021-12-24 14:17:57.774589,11
2021-12-24 14:17:57.774595,13
2021-12-24 14:17:57.774601,20
2021-12-24 14:17:57.774607,11
2021-12-24 14:17:57.774614,4
2021-12-24 14:17:57.774620,16
2021-12-24 14:17:57.774626,-18
2021-12-24 14:17:57.774632,-95
2021-12-24 14:17:57.774639,-100
2021-12-24 14:17:57.999304,-60
2021-12-24 14:17:57.999334,-55
2021-12-24 14:17:57.999345,-48
2021-12-24 14:17:57.999354,-46
2021-12-24 14:17:57.999364,-76
2021-12-24 14:17:57.999374,-111
2021-12-24 14:17:57.999383,-130
2021-12-24 14:17:57.999393,-69
2021-12-24 14:17:57.999402,195
2021-12-24 14:17:57.999412,684
2021-12-24 14:17:57.999422,828
2021-12-24 14:17:57.999431,-179
2021-12-24 14:17:57.999441,-1373
2021-12-24 14:17:57.999451,-1049
2021-12-24 14:17:57.999460,-167
2021-12-24 14:17:57.999470,-169
2021-12-24 14:17:57.999479,-307
2021-12-24 14:17:57.999489,-111
2021-12-24 14:17:57.999498,-79
2021-12-24 14:17:57.999508,-137
2021-12-24 14:17:57.999518,-72
2021-12-24 14:17:57.999527,-34
2021-12-24 14:17:57.999537,-51
2021-12-24 14:17:57.999547,-32
2021-12-24 14:17:57.999556,4
2021-12-24 14:17:57.999566,25
2021-12-24 14:17:57.999575,39
2021-12-24 14:17:57.999585,55
2021-12-24 14:17:57.999595,81
2021-12-24 14:17:57.999604,104
2021-12-24 14:17:58.358444,128
2021-12-24 14:17:58.358473,162
2021-12-24 14:17:58.358485,183
2021-12-24 14:17:58.358495,197
2021-12-24 14:17:58.358505,207
2021-12-24 14:17:58.358514,197
2021-12-24 14:17:58.358524,221
2021-12-24 14:17:58.358533,265
2021-12-24 14:17:58.358543,253
2021-12-24 14:17:58.358552,204
2021-12-24 14:17:58.358562,137
2021-12-24 14:17:58.358571,44
2021-12-24 14:17:58.358581,-44
2021-12-24 14:17:58.358591,-121
2021-12-24 14:17:58.358600,-179
2021-12-24 14:17:58.358610,-221
2021-12-24 14:17:58.358619,-260
2021-12-24 14:17:58.358629,-265
2021-12-24 14:17:58.358638,-228
2021-12-24 14:17:58.358648,-190
2021-12-24 14:17:58.358658,-174
2021-12-24 14:17:58.358667,-179
2021-12-24 14:17:58.358677,-179
2021-12-24 14:17:58.358686,-146
2021-12-24 14:17:58.358695,-104
2021-12-24 14:17:58.358705,-97
2021-12-24 14:17:58.358715,-111
2021-12-24 14:17:58.358724,-107
2021-12-24 14:17:58.358734,-83
2021-12-24 14:17:58.358743,-67
2021-12-24 14:17:58.449787,-53
2021-12-24 14:17:58.449816,-23
2021-12-24 14:17:58.449828,2
2021-12-24 14:17:58.449838,-25
2021-12-24 14:17:58.449848,-90
2021-12-24 14:17:58.449857,-107
2021-12-24 14:17:58.449867,-67
2021-12-24 14:17:58.449877,-41
2021-12-24 14:17:58.449886,-46
2021-12-24 14:17:58.449896,-60
2021-12-24 14:17:58.449905,-67
2021-12-24 14:17:58.449915,-39
2021-12-24 14:17:58.449925,-4
2021-12-24 14:17:58.449934,0
2021-12-24 14:17:58.449944,-25
2021-12-24 14:17:58.449954,-79
2021-12-24 14:17:58.449963,-121
2021-12-24 14:17:58.449973,-102
2021-12-24 14:17:58.449983,-65
2021-12-24 14:17:58.449992,-51
2021-12-24 14:17:58.450002,-76
2021-12-24 14:17:58.450011,-134
2021-12-24 14:17:58.450021,-155
2021-12-24 14:17:58.450030,-97
2021-12-24 14:17:58.450040,-20
2021-12-24 14:17:58.450049,6
2021-12-24 14:17:58.450059,0
2021-12-24 14:17:58.450068,-9
2021-12-24 14:17:58.450078,-13
2021-12-24 14:17:58.450087,-13
2021-12-24 14:17:58.719319,0
2021-12-24 14:17:58.719348,6
2021-12-24 14:17:58.719360,-30
2021-12-24 14:17:58.719370,-90
2021-12-24 14:17:58.719380,-104
2021-12-24 14:17:58.719389,-76
2021-12-24 14:17:58.719399,-88
2021-12-24 14:17:58.719409,-114
2021-12-24 14:17:58.719418,-125
2021-12-24 14:17:58.719427,-183
2021-12-24 14:17:58.719437,-216
2021-12-24 14:17:58.719446,-58
2021-12-24 14:17:58.719456,339
2021-12-24 14:17:58.719465,802
2021-12-24 14:17:58.719475,705
2021-12-24 14:17:58.719484,-400
2021-12-24 14:17:58.719494,-1217
2021-12-24 14:17:58.719503,-588
2021-12-24 14:17:58.719513,53
2021-12-24 14:17:58.719522,-160
2021-12-24 14:17:58.719532,-223
2021-12-24 14:17:58.719541,-34
2021-12-24 14:17:58.719550,-62
2021-12-24 14:17:58.719560,-93
2021-12-24 14:17:58.719569,-9
2021-12-24 14:17:58.719579,11
2021-12-24 14:17:58.719588,-11
2021-12-24 14:17:58.719598,0
2021-12-24 14:17:58.719607,30
2021-12-24 14:17:58.719617,55
2021-12-24 14:17:58.989769,88
2021-12-24 14:17:58.989800,128
2021-12-24 14:17:58.989812,139
2021-12-24 14:17:58.989822,134
2021-12-24 14:17:58.989831,167
2021-12-24 14:17:58.989841,228
2021-12-24 14:17:58.989851,276
2021-12-24 14:17:58.989861,304
2021-12-24 14:17:58.989870,293
2021-12-24 14:17:58.989880,242
2021-12-24 14:17:58.989890,200
2021-12-24 14:17:58.989900,197
2021-12-24 14:17:58.989909,209
2021-12-24 14:17:58.989919,183
2021-12-24 14:17:58.989928,79
2021-12-24 14:17:58.989938,-41
2021-12-24 14:17:58.989948,-88
2021-12-24 14:17:58.989957,-111
2021-12-24 14:17:58.989966,-181
2021-12-24 14:17:58.989976,-246
2021-12-24 14:17:58.989986,-265
2021-12-24 14:17:58.989995,-253
2021-12-24 14:17:58.990005,-237
2021-12-24 14:17:58.990014,-225
2021-12-24 14:17:58.990024,-202
2021-12-24 14:17:58.990033,-172
2021-12-24 14:17:58.990043,-167
2021-12-24 14:17:58.990052,-162
2021-12-24 14:17:58.990062,-123
2021-12-24 14:17:58.990071,-95
2021-12-24 14:17:59.169134,-93
2021-12-24 14:17:59.169154,-81
2021-12-24 14:17:59.169162,-74
2021-12-24 14:17:59.169168,-74
2021-12-24 14:17:59.169175,-60
2021-12-24 14:17:59.169181,-32
2021-12-24 14:17:59.169188,-18
2021-12-24 14:17:59.169194,-37
2021-12-24 14:17:59.169200,-65
2021-12-24 14:17:59.169206,-67
2021-12-24 14:17:59.169213,-48
2021-12-24 14:17:59.169219,-27
2021-12-24 14:17:59.169225,0
2021-12-24 14:17:59.169232,11
2021-12-24 14:17:59.169238,0
2021-12-24 14:17:59.169244,2
2021-12-24 14:17:59.169251,25
2021-12-24 14:17:59.169257,39
2021-12-24 14:17:59.169263,34
2021-12-24 14:17:59.169269,-2
2021-12-24 14:17:59.169276,-41
2021-12-24 14:17:59.169282,-55
2021-12-24 14:17:59.169288,-44
2021-12-24 14:17:59.169294,-16
2021-12-24 14:17:59.169301,2
2021-12-24 14:17:59.169307,-20
2021-12-24 14:17:59.169313,-65
2021-12-24 14:17:59.169319,-86
2021-12-24 14:17:59.169326,-62
2021-12-24 14:17:59.169332,-23
2021-12-24 14:17:59.394770,-13
2021-12-24 14:17:59.394799,-39
2021-12-24 14:17:59.394811,-60
2021-12-24 14:17:59.394821,-79
2021-12-24 14:17:59.394830,-100
2021-12-24 14:17:59.394840,-97
2021-12-24 14:17:59.394850,-102
2021-12-24 14:17:59.394859,-144
2021-12-24 14:17:59.394869,-160
2021-12-24 14:17:59.394878,-139
2021-12-24 14:17:59.394888,-121
2021-12-24 14:17:59.394898,-114
2021-12-24 14:17:59.394907,-130
2021-12-24 14:17:59.394917,-153
2021-12-24 14:17:59.394926,-162
2021-12-24 14:17:59.394936,-218
2021-12-24 14:17:59.394945,-239
2021-12-24 14:17:59.394955,-30
2021-12-24 14:17:59.394965,388
2021-12-24 14:17:59.394974,719
2021-12-24 14:17:59.394984,367
2021-12-24 14:17:59.394993,-679
2021-12-24 14:17:59.395003,-1045
2021-12-24 14:17:59.395012,-316
2021-12-24 14:17:59.395022,20
2021-12-24 14:17:59.395049,-214
2021-12-24 14:17:59.395058,-144
2021-12-24 14:17:59.395068,2
2021-12-24 14:17:59.395078,-53
2021-12-24 14:17:59.395087,-46
2021-12-24 14:17:59.619766,13
2021-12-24 14:17:59.619795,6
2021-12-24 14:17:59.619806,16
2021-12-24 14:17:59.619816,51
2021-12-24 14:17:59.619826,60
2021-12-24 14:17:59.619835,67
2021-12-24 14:17:59.619845,62
2021-12-24 14:17:59.619854,65
2021-12-24 14:17:59.619864,100
2021-12-24 14:17:59.619873,134
2021-12-24 14:17:59.619882,162
2021-12-24 14:17:59.619892,195
2021-12-24 14:17:59.619902,202
2021-12-24 14:17:59.619911,218
2021-12-24 14:17:59.619921,267
2021-12-24 14:17:59.619930,293
2021-12-24 14:17:59.619940,288
2021-12-24 14:17:59.619949,286
2021-12-24 14:17:59.619959,267
2021-12-24 14:17:59.619968,235
2021-12-24 14:17:59.619978,186
2021-12-24 14:17:59.619987,107
2021-12-24 14:17:59.619997,34
2021-12-24 14:17:59.620006,-4
2021-12-24 14:17:59.620016,-53
2021-12-24 14:17:59.620025,-109
2021-12-24 14:17:59.620035,-123
2021-12-24 14:17:59.620044,-123
2021-12-24 14:17:59.620054,-132
2021-12-24 14:17:59.620064,-121
2021-12-24 14:17:59.844912,-97
2021-12-24 14:17:59.844941,-86
2021-12-24 14:17:59.844952,-76
2021-12-24 14:17:59.844962,-67
2021-12-24 14:17:59.844972,-65
2021-12-24 14:17:59.844981,-88
2021-12-24 14:17:59.844991,-111
2021-12-24 14:17:59.845001,-81
2021-12-24 14:17:59.845011,-51
2021-12-24 14:17:59.845020,-62
2021-12-24 14:17:59.845030,-69
2021-12-24 14:17:59.845040,-74
2021-12-24 14:17:59.845050,-76
2021-12-24 14:17:59.845060,-48
2021-12-24 14:17:59.845069,-32
2021-12-24 14:17:59.845079,-37
2021-12-24 14:17:59.845089,-34
2021-12-24 14:17:59.845098,-32
2021-12-24 14:17:59.845108,-25
2021-12-24 14:17:59.845118,-18
2021-12-24 14:17:59.845127,-55
2021-12-24 14:17:59.845137,-134
2021-12-24 14:17:59.845147,-169
2021-12-24 14:17:59.845157,-151
2021-12-24 14:17:59.845166,-155
2021-12-24 14:17:59.845176,-179
2021-12-24 14:17:59.845186,-190
2021-12-24 14:17:59.845196,-228
2021-12-24 14:17:59.845205,-256
2021-12-24 14:17:59.845215,-232
2021-12-24 14:18:00.069734,-204
2021-12-24 14:18:00.069764,-190
2021-12-24 14:18:00.069776,-179
2021-12-24 14:18:00.069785,-176
2021-12-24 14:18:00.069795,-195
2021-12-24 14:18:00.069858,-223
2021-12-24 14:18:00.069868,-216
2021-12-24 14:18:00.069878,-188
2021-12-24 14:18:00.069888,-176
2021-12-24 14:18:00.069898,-176
2021-12-24 14:18:00.069908,-181
2021-12-24 14:18:00.069917,-176
2021-12-24 14:18:00.069927,-151
2021-12-24 14:18:00.069937,-123
2021-12-24 14:18:00.069946,-116
2021-12-24 14:18:00.069956,-128
2021-12-24 14:18:00.069966,-139
2021-12-24 14:18:00.069975,-128
2021-12-24 14:18:00.069985,-97
2021-12-24 14:18:00.069994,-79
2021-12-24 14:18:00.070004,-72
2021-12-24 14:18:00.070013,-69
2021-12-24 14:18:00.070023,-69
2021-12-24 14:18:00.070033,-62
2021-12-24 14:18:00.070042,-37
2021-12-24 14:18:00.070052,-18
2021-12-24 14:18:00.070061,-27
2021-12-24 14:18:00.070071,11
2021-12-24 14:18:00.070081,246
2021-12-24 14:18:00.070091,691
2021-12-24 14:18:00.338394,944
2021-12-24 14:18:00.338425,260
2021-12-24 14:18:00.338437,-912
2021-12-24 14:18:00.338447,-942
2021-12-24 14:18:00.338456,-118
2021-12-24 14:18:00.338466,55
2021-12-24 14:18:00.338475,-114
2021-12-24 14:18:00.338485,37
2021-12-24 14:18:00.338494,121
2021-12-24 14:18:00.338504,11
2021-12-24 14:18:00.338513,-6
2021-12-24 14:18:00.338523,48
2021-12-24 14:18:00.338532,69
2021-12-24 14:18:00.338542,86
2021-12-24 14:18:00.338551,104
2021-12-24 14:18:00.338561,97
2021-12-24 14:18:00.338570,95
2021-12-24 14:18:00.338580,130
2021-12-24 14:18:00.338589,169
2021-12-24 14:18:00.338599,200
2021-12-24 14:18:00.338608,232
2021-12-24 14:18:00.338618,246
2021-12-24 14:18:00.338627,260
2021-12-24 14:18:00.338637,316
2021-12-24 14:18:00.338646,370
2021-12-24 14:18:00.338656,391
2021-12-24 14:18:00.338665,384
2021-12-24 14:18:00.338675,325
2021-12-24 14:18:00.338685,279
2021-12-24 14:18:00.338694,288
2021-12-24 14:18:00.609023,251
2021-12-24 14:18:00.609052,139
2021-12-24 14:18:00.609063,30
2021-12-24 14:18:00.609074,-72
2021-12-24 14:18:00.609084,-153
2021-12-24 14:18:00.609093,-172
2021-12-24 14:18:00.609103,-165
2021-12-24 14:18:00.609113,-169
2021-12-24 14:18:00.609122,-186
2021-12-24 14:18:00.609132,-225
2021-12-24 14:18:00.609141,-237
2021-12-24 14:18:00.609151,-190
2021-12-24 14:18:00.609160,-158
2021-12-24 14:18:00.609170,-144
2021-12-24 14:18:00.609180,-132
2021-12-24 14:18:00.609190,-134
2021-12-24 14:18:00.609200,-141
2021-12-24 14:18:00.609210,-137
2021-12-24 14:18:00.609219,-121
2021-12-24 14:18:00.609229,-100
2021-12-24 14:18:00.609239,-125
2021-12-24 14:18:00.609248,-169
2021-12-24 14:18:00.609258,-160
2021-12-24 14:18:00.609267,-141
2021-12-24 14:18:00.609277,-146
2021-12-24 14:18:00.609287,-146
2021-12-24 14:18:00.609297,-158
2021-12-24 14:18:00.609306,-165
2021-12-24 14:18:00.609316,-141
2021-12-24 14:18:00.609325,-109
2021-12-24 14:18:00.789789,-86
2021-12-24 14:18:00.789819,-76
2021-12-24 14:18:00.789831,-93
2021-12-24 14:18:00.789841,-125
2021-12-24 14:18:00.789852,-130
2021-12-24 14:18:00.789861,-93
2021-12-24 14:18:00.789871,-67
2021-12-24 14:18:00.789881,-65
2021-12-24 14:18:00.789891,-76
2021-12-24 14:18:00.789901,-86
2021-12-24 14:18:00.789911,-81
2021-12-24 14:18:00.789921,-67
2021-12-24 14:18:00.789930,-55
2021-12-24 14:18:00.789940,-51
2021-12-24 14:18:00.789950,-60
2021-12-24 14:18:00.789960,-67
2021-12-24 14:18:00.789970,-46
2021-12-24 14:18:00.789980,-20
2021-12-24 14:18:00.789990,-20
2021-12-24 14:18:00.790000,-39
2021-12-24 14:18:00.790010,-65
2021-12-24 14:18:00.790019,-74
2021-12-24 14:18:00.790029,-51
2021-12-24 14:18:00.790039,-27
2021-12-24 14:18:00.790049,-18
2021-12-24 14:18:00.790059,-13
2021-12-24 14:18:00.790068,-18
2021-12-24 14:18:00.790078,-23
2021-12-24 14:18:00.790088,-13
2021-12-24 14:18:00.790098,-6
2021-12-24 14:18:01.059762,6
2021-12-24 14:18:01.059792,148
2021-12-24 14:18:01.059804,493
2021-12-24 14:18:01.059814,814
2021-12-24 14:18:01.059823,519
2021-12-24 14:18:01.059833,-486
2021-12-24 14:18:01.059843,-917
2021-12-24 14:18:01.059852,-267
2021-12-24 14:18:01.059862,81
2021-12-24 14:18:01.059872,-153
2021-12-24 14:18:01.059881,-104
2021-12-24 14:18:01.059891,62
2021-12-24 14:18:01.059901,11
2021-12-24 14:18:01.059910,-32
2021-12-24 14:18:01.059920,-9
2021-12-24 14:18:01.059930,-4
2021-12-24 14:18:01.059939,11
2021-12-24 14:18:01.059949,51
2021-12-24 14:18:01.059959,76
2021-12-24 14:18:01.059968,74
2021-12-24 14:18:01.059978,86
2021-12-24 14:18:01.059988,121
2021-12-24 14:18:01.059997,158
2021-12-24 14:18:01.060007,193
2021-12-24 14:18:01.060016,223
2021-12-24 14:18:01.060026,249
2021-12-24 14:18:01.060036,279
2021-12-24 14:18:01.060045,316
2021-12-24 14:18:01.060055,349
2021-12-24 14:18:01.060065,377
2021-12-24 14:18:01.239498,386
2021-12-24 14:18:01.239529,370
2021-12-24 14:18:01.239541,344
2021-12-24 14:18:01.239552,304
2021-12-24 14:18:01.239561,249
2021-12-24 14:18:01.239571,186
2021-12-24 14:18:01.239581,109
2021-12-24 14:18:01.239590,20
2021-12-24 14:18:01.239600,-46
2021-12-24 14:18:01.239610,-76
2021-12-24 14:18:01.239620,-81
2021-12-24 14:18:01.239630,-74
2021-12-24 14:18:01.239639,-97
2021-12-24 14:18:01.239649,-130
2021-12-24 14:18:01.239659,-121
2021-12-24 14:18:01.239668,-93
2021-12-24 14:18:01.239678,-83
2021-12-24 14:18:01.239687,-74
2021-12-24 14:18:01.239697,-86
2021-12-24 14:18:01.239707,-104
2021-12-24 14:18:01.239716,-88
2021-12-24 14:18:01.239726,-67
2021-12-24 14:18:01.239735,-58
2021-12-24 14:18:01.239745,-48
2021-12-24 14:18:01.239755,-67
2021-12-24 14:18:01.239764,-86
2021-12-24 14:18:01.239774,-69
2021-12-24 14:18:01.239783,-65
2021-12-24 14:18:01.239793,-88
2021-12-24 14:18:01.239803,-104
2021-12-24 14:18:01.509754,-116
2021-12-24 14:18:01.509784,-139
2021-12-24 14:18:01.509796,-153
2021-12-24 14:18:01.509806,-155
2021-12-24 14:18:01.509816,-144
2021-12-24 14:18:01.509826,-144
2021-12-24 14:18:01.509835,-172
2021-12-24 14:18:01.509845,-188
2021-12-24 14:18:01.509855,-193
2021-12-24 14:18:01.509865,-237
2021-12-24 14:18:01.509874,-246
2021-12-24 14:18:01.509884,-221
2021-12-24 14:18:01.509894,-239
2021-12-24 14:18:01.509904,-246
2021-12-24 14:18:01.509913,-207
2021-12-24 14:18:01.509923,-188
2021-12-24 14:18:01.509933,-183
2021-12-24 14:18:01.509943,-165
2021-12-24 14:18:01.509952,-158
2021-12-24 14:18:01.509962,-151
2021-12-24 14:18:01.509972,-137
2021-12-24 14:18:01.509982,-134
2021-12-24 14:18:01.509992,-121
2021-12-24 14:18:01.510001,-88
2021-12-24 14:18:01.510011,-69
2021-12-24 14:18:01.510021,-53
2021-12-24 14:18:01.510030,-39
2021-12-24 14:18:01.510040,-34
2021-12-24 14:18:01.510050,-32
2021-12-24 14:18:01.510060,-37
2021-12-24 14:18:01.689785,-44
2021-12-24 14:18:01.689815,-23
2021-12-24 14:18:01.689827,-6
2021-12-24 14:18:01.689837,-11
2021-12-24 14:18:01.689846,-16
2021-12-24 14:18:01.689856,-32
2021-12-24 14:18:01.689866,-53
2021-12-24 14:18:01.689876,-32
2021-12-24 14:18:01.689885,-16
2021-12-24 14:18:01.689895,-41
2021-12-24 14:18:01.689904,-58
2021-12-24 14:18:01.689914,62
2021-12-24 14:18:01.689924,421
2021-12-24 14:18:01.689934,835
2021-12-24 14:18:01.689943,651
2021-12-24 14:18:01.689953,-335
2021-12-24 14:18:01.689962,-877
2021-12-24 14:18:01.689972,-290
2021-12-24 14:18:01.689982,139
2021-12-24 14:18:01.689991,-51
2021-12-24 14:18:01.690001,-46
2021-12-24 14:18:01.690011,100
2021-12-24 14:18:01.690020,46
2021-12-24 14:18:01.690030,16
2021-12-24 14:18:01.690039,81
2021-12-24 14:18:01.690049,104
2021-12-24 14:18:01.690058,97
2021-12-24 14:18:01.690068,114
2021-12-24 14:18:01.690077,123
2021-12-24 14:18:01.690087,125
2021-12-24 14:18:01.914356,148
2021-12-24 14:18:01.914386,179
2021-12-24 14:18:01.914398,197
2021-12-24 14:18:01.914408,207
2021-12-24 14:18:01.914418,204
2021-12-24 14:18:01.914428,204
2021-12-24 14:18:01.914437,242
2021-12-24 14:18:01.914447,295
2021-12-24 14:18:01.914457,321
2021-12-24 14:18:01.914467,323
2021-12-24 14:18:01.914476,307
2021-12-24 14:18:01.914486,279
2021-12-24 14:18:01.914496,267
2021-12-24 14:18:01.914506,218
2021-12-24 14:18:01.914515,93
2021-12-24 14:18:01.914525,-30
2021-12-24 14:18:01.914535,-93
2021-12-24 14:18:01.914544,-134
2021-12-24 14:18:01.914554,-165
2021-12-24 14:18:01.914564,-174
2021-12-24 14:18:01.914574,-186
2021-12-24 14:18:01.914583,-204
2021-12-24 14:18:01.914593,-209
2021-12-24 14:18:01.914603,-190
2021-12-24 14:18:01.914613,-162
2021-12-24 14:18:01.914622,-141
2021-12-24 14:18:01.914632,-128
2021-12-24 14:18:01.914642,-128
2021-12-24 14:18:01.914651,-132
2021-12-24 14:18:01.914661,-114
2021-12-24 14:18:02.228772,-86
2021-12-24 14:18:02.228804,-67
2021-12-24 14:18:02.228816,-65
2021-12-24 14:18:02.228826,-86
2021-12-24 14:18:02.228835,-130
2021-12-24 14:18:02.228845,-146
2021-12-24 14:18:02.228854,-132
2021-12-24 14:18:02.228864,-114
2021-12-24 14:18:02.228873,-107
2021-12-24 14:18:02.228883,-146
2021-12-24 14:18:02.228892,-204
2021-12-24 14:18:02.228902,-204
2021-12-24 14:18:02.228912,-188
2021-12-24 14:18:02.228921,-204
2021-12-24 14:18:02.228931,-218
2021-12-24 14:18:02.228940,-237
2021-12-24 14:18:02.228950,-249
2021-12-24 14:18:02.228959,-221
2021-12-24 14:18:02.228969,-188
2021-12-24 14:18:02.228979,-179
2021-12-24 14:18:02.228988,-176
2021-12-24 14:18:02.228998,-193
2021-12-24 14:18:02.229007,-197
2021-12-24 14:18:02.229017,-165
2021-12-24 14:18:02.229027,-137
2021-12-24 14:18:02.229036,-130
2021-12-24 14:18:02.229046,-128
2021-12-24 14:18:02.229055,-134
2021-12-24 14:18:02.229065,-130
2021-12-24 14:18:02.229074,-107
2021-12-24 14:18:02.453231,-88
2021-12-24 14:18:02.453251,-76
2021-12-24 14:18:02.453259,-81
2021-12-24 14:18:02.453265,-121
2021-12-24 14:18:02.453272,-134
2021-12-24 14:18:02.453278,-104
2021-12-24 14:18:02.453285,-86
2021-12-24 14:18:02.453291,-81
2021-12-24 14:18:02.453297,-65
2021-12-24 14:18:02.453304,-51
2021-12-24 14:18:02.453310,-39
2021-12-24 14:18:02.453317,-20
2021-12-24 14:18:02.453323,-6
2021-12-24 14:18:02.453329,-2
2021-12-24 14:18:02.453336,-34
2021-12-24 14:18:02.453342,-83
2021-12-24 14:18:02.453348,-90
2021-12-24 14:18:02.453354,-83
2021-12-24 14:18:02.453361,-100
2021-12-24 14:18:02.453367,-128
2021-12-24 14:18:02.453373,-181
2021-12-24 14:18:02.453380,-211
2021-12-24 14:18:02.453386,-169
2021-12-24 14:18:02.453392,-132
2021-12-24 14:18:02.453399,-139
2021-12-24 14:18:02.453405,-123
2021-12-24 14:18:02.453411,25
2021-12-24 14:18:02.453417,409
2021-12-24 14:18:02.453424,872
2021-12-24 14:18:02.453430,672
2021-12-24 14:18:02.679785,-474
2021-12-24 14:18:02.679815,-1089
2021-12-24 14:18:02.679827,-397
2021-12-24 14:18:02.679837,100
2021-12-24 14:18:02.679847,-95
2021-12-24 14:18:02.679857,-65
2021-12-24 14:18:02.679867,109
2021-12-24 14:18:02.679876,46
2021-12-24 14:18:02.679886,-23
2021-12-24 14:18:02.679895,6
2021-12-24 14:18:02.679905,27
2021-12-24 14:18:02.679915,46
2021-12-24 14:18:02.679924,79
2021-12-24 14:18:02.679934,83
2021-12-24 14:18:02.679943,51
2021-12-24 14:18:02.679953,41
2021-12-24 14:18:02.679963,88
2021-12-24 14:18:02.679972,130
2021-12-24 14:18:02.679982,144
2021-12-24 14:18:02.679991,148
2021-12-24 14:18:02.680000,148
2021-12-24 14:18:02.680010,176
2021-12-24 14:18:02.680020,232
2021-12-24 14:18:02.680029,286
2021-12-24 14:18:02.680039,321
2021-12-24 14:18:02.680048,332
2021-12-24 14:18:02.680058,314
2021-12-24 14:18:02.680067,290
2021-12-24 14:18:02.680077,272
2021-12-24 14:18:02.680087,230
2021-12-24 14:18:02.859914,160
2021-12-24 14:18:02.859934,76
2021-12-24 14:18:02.859942,-4
2021-12-24 14:18:02.859949,-69
2021-12-24 14:18:02.859955,-100
2021-12-24 14:18:02.859962,-102
2021-12-24 14:18:02.859968,-104
2021-12-24 14:18:02.859974,-123
2021-12-24 14:18:02.859981,-158
2021-12-24 14:18:02.859987,-179
2021-12-24 14:18:02.859993,-165
2021-12-24 14:18:02.860000,-141
2021-12-24 14:18:02.860006,-141
2021-12-24 14:18:02.860012,-183
2021-12-24 14:18:02.860018,-228
2021-12-24 14:18:02.860025,-230
2021-12-24 14:18:02.860031,-228
2021-12-24 14:18:02.860037,-228
2021-12-24 14:18:02.860044,-218
2021-12-24 14:18:02.860050,-237
2021-12-24 14:18:02.860056,-272
2021-12-24 14:18:02.860063,-286
2021-12-24 14:18:02.860069,-276
2021-12-24 14:18:02.860088,-246
2021-12-24 14:18:02.860095,-249
2021-12-24 14:18:02.860101,-300
2021-12-24 14:18:02.860107,-309
2021-12-24 14:18:02.860114,-269
2021-12-24 14:18:02.860120,-246
2021-12-24 14:18:02.860127,-235
2021-12-24 14:18:03.084318,-218
2021-12-24 14:18:03.084348,-211
2021-12-24 14:18:03.084360,-204
2021-12-24 14:18:03.084370,-188
2021-12-24 14:18:03.084380,-176
2021-12-24 14:18:03.084390,-162
2021-12-24 14:18:03.084400,-176
2021-12-24 14:18:03.084410,-216
2021-12-24 14:18:03.084420,-211
2021-12-24 14:18:03.084430,-160
2021-12-24 14:18:03.084439,-118
2021-12-24 14:18:03.084449,-102
2021-12-24 14:18:03.084459,-118
2021-12-24 14:18:03.084469,-144
2021-12-24 14:18:03.084479,-141
2021-12-24 14:18:03.084488,-130
2021-12-24 14:18:03.084498,-118
2021-12-24 14:18:03.084508,-93
2021-12-24 14:18:03.084518,-88
2021-12-24 14:18:03.084528,-93
2021-12-24 14:18:03.084537,-74
2021-12-24 14:18:03.084547,-53
2021-12-24 14:18:03.084557,-58
2021-12-24 14:18:03.084566,-79
2021-12-24 14:18:03.084576,-100
2021-12-24 14:18:03.084586,-102
2021-12-24 14:18:03.084596,-104
2021-12-24 14:18:03.084605,-16
2021-12-24 14:18:03.084615,342
2021-12-24 14:18:03.084625,886
2021-12-24 14:18:03.309745,924
2021-12-24 14:18:03.309775,-114
2021-12-24 14:18:03.309788,-1056
2021-12-24 14:18:03.309798,-600
2021-12-24 14:18:03.309808,118
2021-12-24 14:18:03.309817,11
2021-12-24 14:18:03.309827,-123
2021-12-24 14:18:03.309837,48
2021-12-24 14:18:03.309929,72
2021-12-24 14:18:03.309941,13
2021-12-24 14:18:03.309950,65
2021-12-24 14:18:03.309960,81
2021-12-24 14:18:03.309970,34
2021-12-24 14:18:03.309980,48
2021-12-24 14:18:03.309989,90
2021-12-24 14:18:03.309999,95
2021-12-24 14:18:03.310009,109
2021-12-24 14:18:03.310018,137
2021-12-24 14:18:03.310028,141
2021-12-24 14:18:03.310038,167
2021-12-24 14:18:03.310048,218
2021-12-24 14:18:03.310057,251
2021-12-24 14:18:03.310067,283
2021-12-24 14:18:03.310077,325
2021-12-24 14:18:03.310086,346
2021-12-24 14:18:03.310096,349
2021-12-24 14:18:03.310105,344
2021-12-24 14:18:03.310115,346
2021-12-24 14:18:03.310125,337
2021-12-24 14:18:03.310134,293
2021-12-24 14:18:03.578783,211
2021-12-24 14:18:03.578805,90
2021-12-24 14:18:03.578813,-34
2021-12-24 14:18:03.578820,-100
2021-12-24 14:18:03.578826,-144
2021-12-24 14:18:03.578832,-216
2021-12-24 14:18:03.578839,-251
2021-12-24 14:18:03.578845,-225
2021-12-24 14:18:03.578851,-207
2021-12-24 14:18:03.578858,-211
2021-12-24 14:18:03.578864,-211
2021-12-24 14:18:03.578870,-221
2021-12-24 14:18:03.578876,-221
2021-12-24 14:18:03.578883,-188
2021-12-24 14:18:03.578889,-181
2021-12-24 14:18:03.578895,-211
2021-12-24 14:18:03.578901,-207
2021-12-24 14:18:03.578908,-181
2021-12-24 14:18:03.578914,-181
2021-12-24 14:18:03.578920,-188
2021-12-24 14:18:03.578926,-188
2021-12-24 14:18:03.578933,-200
2021-12-24 14:18:03.578939,-230
2021-12-24 14:18:03.578945,-230
2021-12-24 14:18:03.578951,-200
2021-12-24 14:18:03.578958,-181
2021-12-24 14:18:03.578964,-183
2021-12-24 14:18:03.578970,-216
2021-12-24 14:18:03.578976,-249
2021-12-24 14:18:03.578982,-237
2021-12-24 14:18:03.760583,-200
2021-12-24 14:18:03.760700,-174
2021-12-24 14:18:03.760760,-167
2021-12-24 14:18:03.760772,-179
2021-12-24 14:18:03.760783,-204
2021-12-24 14:18:03.760836,-218
2021-12-24 14:18:03.760847,-195
2021-12-24 14:18:03.760858,-158
2021-12-24 14:18:03.760912,-144
2021-12-24 14:18:03.760921,-151
2021-12-24 14:18:03.760927,-183
2021-12-24 14:18:03.760934,-202
2021-12-24 14:18:03.760987,-176
2021-12-24 14:18:03.760996,-144
2021-12-24 14:18:03.761002,-128
2021-12-24 14:18:03.761009,-111
2021-12-24 14:18:03.761061,-107
2021-12-24 14:18:03.761070,-102
2021-12-24 14:18:03.761077,-79
2021-12-24 14:18:03.761083,-58
2021-12-24 14:18:03.761135,-60
2021-12-24 14:18:03.761144,-69
2021-12-24 14:18:03.761151,-76
2021-12-24 14:18:03.761157,-58
2021-12-24 14:18:03.761166,-30
2021-12-24 14:18:03.761219,-18
2021-12-24 14:18:03.761226,-18
2021-12-24 14:18:03.761233,-16
2021-12-24 14:18:03.761241,-25
2021-12-24 14:18:03.761293,-46
2021-12-24 14:18:04.029249,-62
2021-12-24 14:18:04.029279,-62
