Time,ECG
2021-12-24 14:37:41.051104,-13
2021-12-24 14:37:41.051118,-9
2021-12-24 14:37:41.051127,-4
2021-12-24 14:37:41.051135,-6
2021-12-24 14:37:41.051142,-2
2021-12-24 14:37:41.051151,2
2021-12-24 14:37:41.051159,-18
2021-12-24 14:37:41.051166,-51
2021-12-24 14:37:41.051173,-60
2021-12-24 14:37:41.051180,-46
2021-12-24 14:37:41.051184,-30
2021-12-24 14:37:41.051189,-32
2021-12-24 14:37:41.051193,-58
2021-12-24 14:37:41.051197,-55
2021-12-24 14:37:41.051202,-25
2021-12-24 14:37:41.051206,-16
2021-12-24 14:37:41.051210,-13
2021-12-24 14:37:41.051217,-2
2021-12-24 14:37:41.051227,2
2021-12-24 14:37:41.051246,4
2021-12-24 14:37:41.051267,16
2021-12-24 14:37:41.051275,18
2021-12-24 14:37:41.051282,16
2021-12-24 14:37:41.051290,18
2021-12-24 14:37:41.051297,25
2021-12-24 14:37:41.051305,39
2021-12-24 14:37:41.051312,55
2021-12-24 14:37:41.051319,69
2021-12-24 14:37:41.051346,76
2021-12-24 14:37:41.051390,62
2021-12-24 14:37:41.095291,48
2021-12-24 14:37:41.095321,53
2021-12-24 14:37:41.095333,53
2021-12-24 14:37:41.095342,39
2021-12-24 14:37:41.095352,34
2021-12-24 14:37:41.095362,16
2021-12-24 14:37:41.095373,-6
2021-12-24 14:37:41.095382,9
2021-12-24 14:37:41.095392,25
2021-12-24 14:37:41.095401,-16
2021-12-24 14:37:41.095411,-74
2021-12-24 14:37:41.095421,-93
2021-12-24 14:37:41.095430,-107
2021-12-24 14:37:41.095440,-162
2021-12-24 14:37:41.095449,-111
2021-12-24 14:37:41.095459,218
2021-12-24 14:37:41.095468,716
2021-12-24 14:37:41.095479,847
2021-12-24 14:37:41.095488,27
2021-12-24 14:37:41.095498,-1038
2021-12-24 14:37:41.095507,-926
2021-12-24 14:37:41.095517,-195
2021-12-24 14:37:41.095526,-158
2021-12-24 14:37:41.095536,-314
2021-12-24 14:37:41.095545,-128
2021-12-24 14:37:41.095555,-55
2021-12-24 14:37:41.095564,-128
2021-12-24 14:37:41.095573,-90
2021-12-24 14:37:41.095583,-39
2021-12-24 14:37:41.095596,-51
2021-12-24 14:37:41.363039,-27
2021-12-24 14:37:41.363059,13
2021-12-24 14:37:41.363066,27
2021-12-24 14:37:41.363073,37
2021-12-24 14:37:41.363079,44
2021-12-24 14:37:41.363085,48
2021-12-24 14:37:41.363091,86
2021-12-24 14:37:41.363098,146
2021-12-24 14:37:41.363104,195
2021-12-24 14:37:41.363110,225
2021-12-24 14:37:41.363116,239
2021-12-24 14:37:41.363123,242
2021-12-24 14:37:41.363129,253
2021-12-24 14:37:41.363139,286
2021-12-24 14:37:41.363145,314
2021-12-24 14:37:41.363152,302
2021-12-24 14:37:41.363158,267
2021-12-24 14:37:41.363164,225
2021-12-24 14:37:41.363171,169
2021-12-24 14:37:41.363177,97
2021-12-24 14:37:41.363183,25
2021-12-24 14:37:41.363189,-39
2021-12-24 14:37:41.363195,-95
2021-12-24 14:37:41.363202,-121
2021-12-24 14:37:41.363208,-123
2021-12-24 14:37:41.363215,-123
2021-12-24 14:37:41.363221,-121
2021-12-24 14:37:41.363227,-130
2021-12-24 14:37:41.363234,-137
2021-12-24 14:37:41.363241,-121
2021-12-24 14:37:41.544908,-95
2021-12-24 14:37:41.544938,-79
2021-12-24 14:37:41.544950,-65
2021-12-24 14:37:41.544960,-76
2021-12-24 14:37:41.544969,-102
2021-12-24 14:37:41.544979,-93
2021-12-24 14:37:41.544989,-62
2021-12-24 14:37:41.544999,-51
2021-12-24 14:37:41.545008,-55
2021-12-24 14:37:41.545018,-67
2021-12-24 14:37:41.545028,-83
2021-12-24 14:37:41.545037,-76
2021-12-24 14:37:41.545047,-53
2021-12-24 14:37:41.545057,-53
2021-12-24 14:37:41.545066,-79
2021-12-24 14:37:41.545076,-97
2021-12-24 14:37:41.545086,-97
2021-12-24 14:37:41.545100,-74
2021-12-24 14:37:41.545109,-74
2021-12-24 14:37:41.545119,-104
2021-12-24 14:37:41.545128,-111
2021-12-24 14:37:41.545138,-100
2021-12-24 14:37:41.545147,-93
2021-12-24 14:37:41.545157,-69
2021-12-24 14:37:41.545167,-44
2021-12-24 14:37:41.545176,-27
2021-12-24 14:37:41.545186,-18
2021-12-24 14:37:41.545195,-23
2021-12-24 14:37:41.545205,-23
2021-12-24 14:37:41.545214,2
2021-12-24 14:37:41.814957,20
2021-12-24 14:37:41.814986,27
2021-12-24 14:37:41.814998,27
2021-12-24 14:37:41.815008,0
2021-12-24 14:37:41.815018,-20
2021-12-24 14:37:41.815027,4
2021-12-24 14:37:41.815037,32
2021-12-24 14:37:41.815054,41
2021-12-24 14:37:41.815065,30
2021-12-24 14:37:41.815075,-6
2021-12-24 14:37:41.815085,-16
2021-12-24 14:37:41.815094,18
2021-12-24 14:37:41.815104,44
2021-12-24 14:37:41.815113,58
2021-12-24 14:37:41.815123,74
2021-12-24 14:37:41.815132,72
2021-12-24 14:37:41.815142,60
2021-12-24 14:37:41.815151,58
2021-12-24 14:37:41.815161,67
2021-12-24 14:37:41.815170,69
2021-12-24 14:37:41.815180,58
2021-12-24 14:37:41.815189,37
2021-12-24 14:37:41.815199,41
2021-12-24 14:37:41.815209,62
2021-12-24 14:37:41.815218,74
2021-12-24 14:37:41.815228,76
2021-12-24 14:37:41.815237,55
2021-12-24 14:37:41.815247,18
2021-12-24 14:37:41.815257,20
2021-12-24 14:37:41.815267,48
2021-12-24 14:37:42.129832,46
2021-12-24 14:37:42.129861,9
2021-12-24 14:37:42.129873,-20
2021-12-24 14:37:42.129883,67
2021-12-24 14:37:42.129893,411
2021-12-24 14:37:42.129903,926
2021-12-24 14:37:42.129912,1031
2021-12-24 14:37:42.129922,46
2021-12-24 14:37:42.129932,-1121
2021-12-24 14:37:42.129942,-856
2021-12-24 14:37:42.129951,-25
2021-12-24 14:37:42.129961,-79
2021-12-24 14:37:42.129971,-267
2021-12-24 14:37:42.129981,-60
2021-12-24 14:37:42.129990,-46
2021-12-24 14:37:42.130000,-214
2021-12-24 14:37:42.130010,-230
2021-12-24 14:37:42.130020,-172
2021-12-24 14:37:42.130029,-155
2021-12-24 14:37:42.130039,-132
2021-12-24 14:37:42.130049,-100
2021-12-24 14:37:42.130058,-81
2021-12-24 14:37:42.130068,-41
2021-12-24 14:37:42.130078,-11
2021-12-24 14:37:42.130093,-20
2021-12-24 14:37:42.130103,-18
2021-12-24 14:37:42.130113,25
2021-12-24 14:37:42.130122,74
2021-12-24 14:37:42.130132,130
2021-12-24 14:37:42.130142,193
2021-12-24 14:37:42.309715,239
2021-12-24 14:37:42.309744,276
2021-12-24 14:37:42.309755,293
2021-12-24 14:37:42.309765,295
2021-12-24 14:37:42.309775,297
2021-12-24 14:37:42.309784,281
2021-12-24 14:37:42.309794,230
2021-12-24 14:37:42.309803,137
2021-12-24 14:37:42.309813,23
2021-12-24 14:37:42.309822,-62
2021-12-24 14:37:42.309832,-107
2021-12-24 14:37:42.309841,-141
2021-12-24 14:37:42.309851,-174
2021-12-24 14:37:42.309860,-207
2021-12-24 14:37:42.309870,-228
2021-12-24 14:37:42.309879,-232
2021-12-24 14:37:42.309888,-232
2021-12-24 14:37:42.309898,-211
2021-12-24 14:37:42.309908,-158
2021-12-24 14:37:42.309917,-100
2021-12-24 14:37:42.309926,-58
2021-12-24 14:37:42.309936,-25
2021-12-24 14:37:42.309948,2
2021-12-24 14:37:42.309958,13
2021-12-24 14:37:42.309967,6
2021-12-24 14:37:42.309977,-13
2021-12-24 14:37:42.309986,-18
2021-12-24 14:37:42.309996,-6
2021-12-24 14:37:42.310006,6
2021-12-24 14:37:42.310015,23
2021-12-24 14:37:42.489601,30
2021-12-24 14:37:42.489621,23
2021-12-24 14:37:42.489628,13
2021-12-24 14:37:42.489635,16
2021-12-24 14:37:42.489641,25
2021-12-24 14:37:42.489647,34
2021-12-24 14:37:42.489654,23
2021-12-24 14:37:42.489660,-4
2021-12-24 14:37:42.489666,-11
2021-12-24 14:37:42.489673,6
2021-12-24 14:37:42.489679,27
2021-12-24 14:37:42.489685,34
2021-12-24 14:37:42.489691,11
2021-12-24 14:37:42.489698,-16
2021-12-24 14:37:42.489704,-9
2021-12-24 14:37:42.489710,6
2021-12-24 14:37:42.489716,9
2021-12-24 14:37:42.489722,18
2021-12-24 14:37:42.489729,20
2021-12-24 14:37:42.489735,11
2021-12-24 14:37:42.489741,13
2021-12-24 14:37:42.489747,11
2021-12-24 14:37:42.489754,0
2021-12-24 14:37:42.489760,13
2021-12-24 14:37:42.489770,37
2021-12-24 14:37:42.489776,37
2021-12-24 14:37:42.489782,34
2021-12-24 14:37:42.489789,39
2021-12-24 14:37:42.489795,34
2021-12-24 14:37:42.489801,-2
2021-12-24 14:37:42.714951,-53
2021-12-24 14:37:42.714980,-51
2021-12-24 14:37:42.714992,-23
2021-12-24 14:37:42.715002,-25
2021-12-24 14:37:42.715012,-27
2021-12-24 14:37:42.715021,-23
2021-12-24 14:37:42.715031,-44
2021-12-24 14:37:42.715040,-51
2021-12-24 14:37:42.715050,-30
2021-12-24 14:37:42.715059,-20
2021-12-24 14:37:42.715069,-37
2021-12-24 14:37:42.715079,-41
2021-12-24 14:37:42.715088,93
2021-12-24 14:37:42.715099,509
2021-12-24 14:37:42.715109,1021
2021-12-24 14:37:42.715118,893
2021-12-24 14:37:42.715128,-228
2021-12-24 14:37:42.715138,-1028
2021-12-24 14:37:42.715148,-488
2021-12-24 14:37:42.715157,121
2021-12-24 14:37:42.715167,-6
2021-12-24 14:37:42.715176,-62
2021-12-24 14:37:42.715186,88
2021-12-24 14:37:42.715196,55
2021-12-24 14:37:42.715205,-4
2021-12-24 14:37:42.715215,46
2021-12-24 14:37:42.715224,62
2021-12-24 14:37:42.715234,30
2021-12-24 14:37:42.715244,34
2021-12-24 14:37:42.715253,41
2021-12-24 14:37:42.984328,32
2021-12-24 14:37:42.984358,58
2021-12-24 14:37:42.984370,93
2021-12-24 14:37:42.984380,109
2021-12-24 14:37:42.984390,125
2021-12-24 14:37:42.984399,139
2021-12-24 14:37:42.984409,158
2021-12-24 14:37:42.984418,211
2021-12-24 14:37:42.984428,274
2021-12-24 14:37:42.984438,307
2021-12-24 14:37:42.984447,323
2021-12-24 14:37:42.984457,321
2021-12-24 14:37:42.984467,302
2021-12-24 14:37:42.984476,293
2021-12-24 14:37:42.984486,263
2021-12-24 14:37:42.984496,186
2021-12-24 14:37:42.984505,104
2021-12-24 14:37:42.984515,23
2021-12-24 14:37:42.984525,-53
2021-12-24 14:37:42.984534,-102
2021-12-24 14:37:42.984544,-137
2021-12-24 14:37:42.984554,-169
2021-12-24 14:37:42.984564,-190
2021-12-24 14:37:42.984574,-193
2021-12-24 14:37:42.984583,-183
2021-12-24 14:37:42.984593,-181
2021-12-24 14:37:42.984603,-200
2021-12-24 14:37:42.984613,-207
2021-12-24 14:37:42.984623,-190
2021-12-24 14:37:42.984632,-176
2021-12-24 14:37:43.164731,-160
2021-12-24 14:37:43.164751,-134
2021-12-24 14:37:43.164758,-116
2021-12-24 14:37:43.164765,-118
2021-12-24 14:37:43.164771,-141
2021-12-24 14:37:43.164777,-186
2021-12-24 14:37:43.164784,-218
2021-12-24 14:37:43.164790,-195
2021-12-24 14:37:43.164796,-165
2021-12-24 14:37:43.164802,-169
2021-12-24 14:37:43.164813,-186
2021-12-24 14:37:43.164820,-188
2021-12-24 14:37:43.164826,-169
2021-12-24 14:37:43.164832,-144
2021-12-24 14:37:43.164839,-132
2021-12-24 14:37:43.164845,-128
2021-12-24 14:37:43.164852,-132
2021-12-24 14:37:43.164859,-128
2021-12-24 14:37:43.164865,-102
2021-12-24 14:37:43.164872,-76
2021-12-24 14:37:43.164878,-67
2021-12-24 14:37:43.164884,-72
2021-12-24 14:37:43.164890,-76
2021-12-24 14:37:43.164896,-67
2021-12-24 14:37:43.164902,-41
2021-12-24 14:37:43.164909,-16
2021-12-24 14:37:43.164915,-11
2021-12-24 14:37:43.164921,-20
2021-12-24 14:37:43.164927,-39
2021-12-24 14:37:43.164934,-41
2021-12-24 14:37:43.433702,-16
2021-12-24 14:37:43.433731,9
2021-12-24 14:37:43.433743,13
2021-12-24 14:37:43.433753,9
2021-12-24 14:37:43.433762,-4
2021-12-24 14:37:43.433772,0
2021-12-24 14:37:43.433781,18
2021-12-24 14:37:43.433791,27
2021-12-24 14:37:43.433800,25
2021-12-24 14:37:43.433809,-2
2021-12-24 14:37:43.433819,-41
2021-12-24 14:37:43.433828,-34
2021-12-24 14:37:43.433838,-6
2021-12-24 14:37:43.433847,6
2021-12-24 14:37:43.433857,16
2021-12-24 14:37:43.433866,6
2021-12-24 14:37:43.433875,-2
2021-12-24 14:37:43.433885,9
2021-12-24 14:37:43.433894,32
2021-12-24 14:37:43.433904,39
2021-12-24 14:37:43.433913,18
2021-12-24 14:37:43.433922,25
2021-12-24 14:37:43.433932,214
2021-12-24 14:37:43.433941,661
2021-12-24 14:37:43.433950,1086
2021-12-24 14:37:43.433965,819
2021-12-24 14:37:43.433974,-290
2021-12-24 14:37:43.433984,-889
2021-12-24 14:37:43.433993,-265
2021-12-24 14:37:43.434003,197
2021-12-24 14:37:43.660294,-18
2021-12-24 14:37:43.660323,-20
2021-12-24 14:37:43.660334,144
2021-12-24 14:37:43.660344,69
2021-12-24 14:37:43.660354,16
2021-12-24 14:37:43.660363,100
2021-12-24 14:37:43.660373,123
2021-12-24 14:37:43.660384,114
2021-12-24 14:37:43.660393,130
2021-12-24 14:37:43.660403,111
2021-12-24 14:37:43.660412,76
2021-12-24 14:37:43.660422,62
2021-12-24 14:37:43.660431,60
2021-12-24 14:37:43.660441,83
2021-12-24 14:37:43.660450,114
2021-12-24 14:37:43.660460,116
2021-12-24 14:37:43.660469,137
2021-12-24 14:37:43.660479,183
2021-12-24 14:37:43.660488,211
2021-12-24 14:37:43.660498,242
2021-12-24 14:37:43.660508,274
2021-12-24 14:37:43.660517,265
2021-12-24 14:37:43.660527,251
2021-12-24 14:37:43.660536,253
2021-12-24 14:37:43.660546,223
2021-12-24 14:37:43.660555,153
2021-12-24 14:37:43.660565,65
2021-12-24 14:37:43.660574,-23
2021-12-24 14:37:43.660584,-88
2021-12-24 14:37:43.660593,-134
2021-12-24 14:37:43.884310,-167
2021-12-24 14:37:43.884329,-190
2021-12-24 14:37:43.884336,-230
2021-12-24 14:37:43.884343,-256
2021-12-24 14:37:43.884349,-244
2021-12-24 14:37:43.884356,-216
2021-12-24 14:37:43.884362,-195
2021-12-24 14:37:43.884368,-186
2021-12-24 14:37:43.884374,-209
2021-12-24 14:37:43.884381,-235
2021-12-24 14:37:43.884387,-211
2021-12-24 14:37:43.884393,-183
2021-12-24 14:37:43.884399,-186
2021-12-24 14:37:43.884406,-176
2021-12-24 14:37:43.884412,-169
2021-12-24 14:37:43.884418,-181
2021-12-24 14:37:43.884429,-172
2021-12-24 14:37:43.884435,-137
2021-12-24 14:37:43.884442,-125
2021-12-24 14:37:43.884448,-128
2021-12-24 14:37:43.884454,-118
2021-12-24 14:37:43.884460,-111
2021-12-24 14:37:43.884467,-109
2021-12-24 14:37:43.884473,-86
2021-12-24 14:37:43.884479,-58
2021-12-24 14:37:43.884485,-51
2021-12-24 14:37:43.884492,-53
2021-12-24 14:37:43.884498,-55
2021-12-24 14:37:43.884504,-53
2021-12-24 14:37:43.884510,-39
2021-12-24 14:37:44.110335,-16
2021-12-24 14:37:44.110364,2
2021-12-24 14:37:44.110376,-9
2021-12-24 14:37:44.110386,-30
2021-12-24 14:37:44.110395,-37
2021-12-24 14:37:44.110404,-37
2021-12-24 14:37:44.110414,-37
2021-12-24 14:37:44.110423,-55
2021-12-24 14:37:44.110433,-74
2021-12-24 14:37:44.110442,-39
2021-12-24 14:37:44.110451,6
2021-12-24 14:37:44.110461,11
2021-12-24 14:37:44.110470,4
2021-12-24 14:37:44.110480,-11
2021-12-24 14:37:44.110489,-44
2021-12-24 14:37:44.110498,-48
2021-12-24 14:37:44.110508,-25
2021-12-24 14:37:44.110517,-32
2021-12-24 14:37:44.110526,-76
2021-12-24 14:37:44.110536,-95
2021-12-24 14:37:44.110545,-81
2021-12-24 14:37:44.110554,-72
2021-12-24 14:37:44.110564,-46
2021-12-24 14:37:44.110573,-13
2021-12-24 14:37:44.110583,-11
2021-12-24 14:37:44.110592,-37
2021-12-24 14:37:44.110602,-34
2021-12-24 14:37:44.110611,128
2021-12-24 14:37:44.110621,532
2021-12-24 14:37:44.110630,982
2021-12-24 14:37:44.379346,814
2021-12-24 14:37:44.379368,-260
2021-12-24 14:37:44.379375,-970
2021-12-24 14:37:44.379382,-416
2021-12-24 14:37:44.379388,148
2021-12-24 14:37:44.379394,13
2021-12-24 14:37:44.379401,-51
2021-12-24 14:37:44.379407,60
2021-12-24 14:37:44.379413,37
2021-12-24 14:37:44.379419,25
2021-12-24 14:37:44.379425,86
2021-12-24 14:37:44.379432,104
2021-12-24 14:37:44.379438,76
2021-12-24 14:37:44.379449,60
2021-12-24 14:37:44.379455,88
2021-12-24 14:37:44.379462,134
2021-12-24 14:37:44.379468,148
2021-12-24 14:37:44.379474,167
2021-12-24 14:37:44.379480,200
2021-12-24 14:37:44.379486,228
2021-12-24 14:37:44.379493,269
2021-12-24 14:37:44.379499,316
2021-12-24 14:37:44.379505,351
2021-12-24 14:37:44.379512,400
2021-12-24 14:37:44.379518,435
2021-12-24 14:37:44.379524,453
2021-12-24 14:37:44.379530,474
2021-12-24 14:37:44.379536,472
2021-12-24 14:37:44.379543,437
2021-12-24 14:37:44.379549,377
2021-12-24 14:37:44.604648,286
2021-12-24 14:37:44.604669,195
2021-12-24 14:37:44.604676,116
2021-12-24 14:37:44.604683,20
2021-12-24 14:37:44.604689,-55
2021-12-24 14:37:44.604727,-109
2021-12-24 14:37:44.604770,-186
2021-12-24 14:37:44.604787,-260
2021-12-24 14:37:44.604804,-290
2021-12-24 14:37:44.604842,-293
2021-12-24 14:37:44.604869,-295
2021-12-24 14:37:44.604887,-307
2021-12-24 14:37:44.604902,-314
2021-12-24 14:37:44.604917,-288
2021-12-24 14:37:44.604934,-258
2021-12-24 14:37:44.604952,-265
2021-12-24 14:37:44.604969,-263
2021-12-24 14:37:44.604982,-242
2021-12-24 14:37:44.604994,-230
2021-12-24 14:37:44.605049,-214
2021-12-24 14:37:44.605065,-202
2021-12-24 14:37:44.605118,-200
2021-12-24 14:37:44.605127,-190
2021-12-24 14:37:44.605134,-200
2021-12-24 14:37:44.605140,-235
2021-12-24 14:37:44.605146,-216
2021-12-24 14:37:44.605153,-172
2021-12-24 14:37:44.605159,-167
2021-12-24 14:37:44.605165,-172
2021-12-24 14:37:44.605171,-158
2021-12-24 14:37:44.784765,-146
2021-12-24 14:37:44.784786,-132
2021-12-24 14:37:44.784793,-116
2021-12-24 14:37:44.784799,-111
2021-12-24 14:37:44.784806,-107
2021-12-24 14:37:44.784812,-95
2021-12-24 14:37:44.784818,-90
2021-12-24 14:37:44.784824,-79
2021-12-24 14:37:44.784830,-62
2021-12-24 14:37:44.784837,-69
2021-12-24 14:37:44.784843,-90
2021-12-24 14:37:44.784849,-107
2021-12-24 14:37:44.784855,-109
2021-12-24 14:37:44.784862,-83
2021-12-24 14:37:44.784868,-60
2021-12-24 14:37:44.784874,-55
2021-12-24 14:37:44.784880,-62
2021-12-24 14:37:44.784893,-83
2021-12-24 14:37:44.784900,-93
2021-12-24 14:37:44.784906,-72
2021-12-24 14:37:44.784912,-53
2021-12-24 14:37:44.784918,-51
2021-12-24 14:37:44.784925,-41
2021-12-24 14:37:44.784931,-39
2021-12-24 14:37:44.784937,-32
2021-12-24 14:37:44.784943,-6
2021-12-24 14:37:44.784950,0
2021-12-24 14:37:44.784956,-30
2021-12-24 14:37:44.784962,-11
2021-12-24 14:37:44.784969,186
2021-12-24 14:37:45.100035,602
2021-12-24 14:37:45.100064,984
2021-12-24 14:37:45.100076,681
2021-12-24 14:37:45.100086,-386
2021-12-24 14:37:45.100096,-893
2021-12-24 14:37:45.100106,-274
2021-12-24 14:37:45.100115,144
2021-12-24 14:37:45.100125,-32
2021-12-24 14:37:45.100135,2
2021-12-24 14:37:45.100145,144
2021-12-24 14:37:45.100154,67
2021-12-24 14:37:45.100164,16
2021-12-24 14:37:45.100173,60
2021-12-24 14:37:45.100183,67
2021-12-24 14:37:45.100193,67
2021-12-24 14:37:45.100203,88
2021-12-24 14:37:45.100212,102
2021-12-24 14:37:45.100222,125
2021-12-24 14:37:45.100232,158
2021-12-24 14:37:45.100241,190
2021-12-24 14:37:45.100251,214
2021-12-24 14:37:45.100261,239
2021-12-24 14:37:45.100270,272
2021-12-24 14:37:45.100280,311
2021-12-24 14:37:45.100289,358
2021-12-24 14:37:45.100299,414
2021-12-24 14:37:45.100309,453
2021-12-24 14:37:45.100318,456
2021-12-24 14:37:45.100328,446
2021-12-24 14:37:45.100337,428
2021-12-24 14:37:45.279205,367
2021-12-24 14:37:45.279235,297
2021-12-24 14:37:45.279247,237
2021-12-24 14:37:45.279257,132
2021-12-24 14:37:45.279267,9
2021-12-24 14:37:45.279277,-55
2021-12-24 14:37:45.279286,-81
2021-12-24 14:37:45.279296,-111
2021-12-24 14:37:45.279305,-134
2021-12-24 14:37:45.279315,-148
2021-12-24 14:37:45.279324,-155
2021-12-24 14:37:45.279334,-141
2021-12-24 14:37:45.279344,-118
2021-12-24 14:37:45.279354,-114
2021-12-24 14:37:45.279363,-137
2021-12-24 14:37:45.279373,-158
2021-12-24 14:37:45.279382,-144
2021-12-24 14:37:45.279392,-116
2021-12-24 14:37:45.279401,-116
2021-12-24 14:37:45.279411,-125
2021-12-24 14:37:45.279420,-121
2021-12-24 14:37:45.279430,-146
2021-12-24 14:37:45.279440,-183
2021-12-24 14:37:45.279449,-181
2021-12-24 14:37:45.279458,-172
2021-12-24 14:37:45.279468,-183
2021-12-24 14:37:45.279478,-204
2021-12-24 14:37:45.279487,-225
2021-12-24 14:37:45.279497,-223
2021-12-24 14:37:45.279514,-204
2021-12-24 14:37:45.548509,-190
2021-12-24 14:37:45.548541,-179
2021-12-24 14:37:45.548548,-181
2021-12-24 14:37:45.548555,-214
2021-12-24 14:37:45.548561,-225
2021-12-24 14:37:45.548567,-193
2021-12-24 14:37:45.548573,-167
2021-12-24 14:37:45.548580,-160
2021-12-24 14:37:45.548586,-162
2021-12-24 14:37:45.548592,-176
2021-12-24 14:37:45.548598,-174
2021-12-24 14:37:45.548605,-146
2021-12-24 14:37:45.548611,-125
2021-12-24 14:37:45.548617,-109
2021-12-24 14:37:45.548623,-109
2021-12-24 14:37:45.548630,-139
2021-12-24 14:37:45.548636,-165
2021-12-24 14:37:45.548642,-158
2021-12-24 14:37:45.548648,-130
2021-12-24 14:37:45.548655,-93
2021-12-24 14:37:45.548661,-72
2021-12-24 14:37:45.548667,-76
2021-12-24 14:37:45.548673,-72
2021-12-24 14:37:45.548680,-48
2021-12-24 14:37:45.548686,-37
2021-12-24 14:37:45.548692,-39
2021-12-24 14:37:45.548698,-44
2021-12-24 14:37:45.548705,-46
2021-12-24 14:37:45.548711,-34
2021-12-24 14:37:45.548717,-11
2021-12-24 14:37:45.729735,0
2021-12-24 14:37:45.729756,6
2021-12-24 14:37:45.729764,9
2021-12-24 14:37:45.729771,4
2021-12-24 14:37:45.729777,-2
2021-12-24 14:37:45.729783,-41
2021-12-24 14:37:45.729789,-72
2021-12-24 14:37:45.729795,55
2021-12-24 14:37:45.729802,400
2021-12-24 14:37:45.729808,833
2021-12-24 14:37:45.729814,854
2021-12-24 14:37:45.729820,-48
2021-12-24 14:37:45.729827,-937
2021-12-24 14:37:45.729833,-591
2021-12-24 14:37:45.729839,37
2021-12-24 14:37:45.729845,-58
2021-12-24 14:37:45.729851,-146
2021-12-24 14:37:45.729858,39
2021-12-24 14:37:45.729864,32
2021-12-24 14:37:45.729870,-39
2021-12-24 14:37:45.729876,16
2021-12-24 14:37:45.729882,44
2021-12-24 14:37:45.729888,34
2021-12-24 14:37:45.729895,74
2021-12-24 14:37:45.729901,116
2021-12-24 14:37:45.729907,123
2021-12-24 14:37:45.729913,132
2021-12-24 14:37:45.729919,155
2021-12-24 14:37:45.729925,190
2021-12-24 14:37:45.729932,232
2021-12-24 14:37:45.956250,279
2021-12-24 14:37:45.956319,316
2021-12-24 14:37:45.956327,342
2021-12-24 14:37:45.956334,374
2021-12-24 14:37:45.956395,418
2021-12-24 14:37:45.956431,451
2021-12-24 14:37:45.956461,467
2021-12-24 14:37:45.956471,449
2021-12-24 14:37:45.956478,393
2021-12-24 14:37:45.956484,342
2021-12-24 14:37:45.956490,295
2021-12-24 14:37:45.956497,235
2021-12-24 14:37:45.956503,153
2021-12-24 14:37:45.956509,53
2021-12-24 14:37:45.956516,-37
2021-12-24 14:37:45.956522,-83
2021-12-24 14:37:45.956528,-97
2021-12-24 14:37:45.956534,-109
2021-12-24 14:37:45.956540,-109
2021-12-24 14:37:45.956546,-102
2021-12-24 14:37:45.956557,-118
2021-12-24 14:37:45.956563,-141
2021-12-24 14:37:45.956569,-125
2021-12-24 14:37:45.956576,-95
2021-12-24 14:37:45.956582,-88
2021-12-24 14:37:45.956588,-86
2021-12-24 14:37:45.956594,-79
2021-12-24 14:37:45.956600,-72
2021-12-24 14:37:45.956606,-62
2021-12-24 14:37:45.956613,-46
2021-12-24 14:37:46.180323,-32
2021-12-24 14:37:46.180353,-34
2021-12-24 14:37:46.180365,-32
2021-12-24 14:37:46.180375,-27
2021-12-24 14:37:46.180384,-27
2021-12-24 14:37:46.180394,-62
2021-12-24 14:37:46.180404,-153
2021-12-24 14:37:46.180413,-230
2021-12-24 14:37:46.180422,-249
2021-12-24 14:37:46.180432,-251
2021-12-24 14:37:46.180441,-265
2021-12-24 14:37:46.180451,-304
2021-12-24 14:37:46.180460,-367
2021-12-24 14:37:46.180470,-395
2021-12-24 14:37:46.180480,-379
2021-12-24 14:37:46.180489,-381
2021-12-24 14:37:46.180499,-379
2021-12-24 14:37:46.180508,-351
2021-12-24 14:37:46.180518,-337
2021-12-24 14:37:46.180528,-335
2021-12-24 14:37:46.180537,-318
2021-12-24 14:37:46.180547,-309
2021-12-24 14:37:46.180556,-316
2021-12-24 14:37:46.180566,-314
2021-12-24 14:37:46.180576,-300
2021-12-24 14:37:46.180585,-286
2021-12-24 14:37:46.180595,-269
2021-12-24 14:37:46.180604,-253
2021-12-24 14:37:46.180614,-237
2021-12-24 14:37:46.180623,-216
2021-12-24 14:37:46.405336,-209
2021-12-24 14:37:46.405366,-202
2021-12-24 14:37:46.405377,-188
2021-12-24 14:37:46.405387,-181
2021-12-24 14:37:46.405397,-169
2021-12-24 14:37:46.405406,-160
2021-12-24 14:37:46.405416,-169
2021-12-24 14:37:46.405425,-155
2021-12-24 14:37:46.405435,-118
2021-12-24 14:37:46.405444,-104
2021-12-24 14:37:46.405454,-104
2021-12-24 14:37:46.405464,-97
2021-12-24 14:37:46.405474,-118
2021-12-24 14:37:46.405483,-132
2021-12-24 14:37:46.405493,-109
2021-12-24 14:37:46.405502,-95
2021-12-24 14:37:46.405512,-88
2021-12-24 14:37:46.405521,-74
2021-12-24 14:37:46.405531,-72
2021-12-24 14:37:46.405540,-62
2021-12-24 14:37:46.405550,-44
2021-12-24 14:37:46.405559,-32
2021-12-24 14:37:46.405569,-18
2021-12-24 14:37:46.405579,-16
2021-12-24 14:37:46.405588,-46
2021-12-24 14:37:46.405598,-2
2021-12-24 14:37:46.405607,288
2021-12-24 14:37:46.405617,786
2021-12-24 14:37:46.405626,1063
2021-12-24 14:37:46.405636,451
2021-12-24 14:37:46.629216,-688
2021-12-24 14:37:46.629235,-826
2021-12-24 14:37:46.629243,-55
2021-12-24 14:37:46.629249,148
2021-12-24 14:37:46.629256,4
2021-12-24 14:37:46.629262,204
2021-12-24 14:37:46.629268,318
2021-12-24 14:37:46.629274,223
2021-12-24 14:37:46.629280,242
2021-12-24 14:37:46.629286,297
2021-12-24 14:37:46.629293,267
2021-12-24 14:37:46.629299,242
2021-12-24 14:37:46.629305,251
2021-12-24 14:37:46.629311,269
2021-12-24 14:37:46.629317,286
2021-12-24 14:37:46.629323,300
2021-12-24 14:37:46.629329,314
2021-12-24 14:37:46.629335,316
2021-12-24 14:37:46.629342,304
2021-12-24 14:37:46.629348,330
2021-12-24 14:37:46.629354,388
2021-12-24 14:37:46.629360,425
2021-12-24 14:37:46.629369,444
2021-12-24 14:37:46.629376,458
2021-12-24 14:37:46.629382,470
2021-12-24 14:37:46.629388,484
2021-12-24 14:37:46.629394,465
2021-12-24 14:37:46.629400,407
2021-12-24 14:37:46.629406,346
2021-12-24 14:37:46.629412,286
2021-12-24 14:37:46.899230,214
2021-12-24 14:37:46.899260,144
2021-12-24 14:37:46.899271,86
2021-12-24 14:37:46.899281,20
2021-12-24 14:37:46.899291,-46
2021-12-24 14:37:46.899301,-95
2021-12-24 14:37:46.899311,-97
2021-12-24 14:37:46.899320,-74
2021-12-24 14:37:46.899330,-76
2021-12-24 14:37:46.899339,-88
2021-12-24 14:37:46.899349,-97
2021-12-24 14:37:46.899358,-109
2021-12-24 14:37:46.899368,-95
2021-12-24 14:37:46.899378,-67
2021-12-24 14:37:46.899387,-58
2021-12-24 14:37:46.899397,-62
2021-12-24 14:37:46.899406,-74
2021-12-24 14:37:46.899416,-88
2021-12-24 14:37:46.899425,-74
2021-12-24 14:37:46.899435,-55
2021-12-24 14:37:46.899444,-60
2021-12-24 14:37:46.899454,-88
2021-12-24 14:37:46.899464,-109
2021-12-24 14:37:46.899473,-116
2021-12-24 14:37:46.899483,-121
2021-12-24 14:37:46.899492,-116
2021-12-24 14:37:46.899502,-109
2021-12-24 14:37:46.899512,-114
2021-12-24 14:37:46.899521,-130
2021-12-24 14:37:46.899531,-144
2021-12-24 14:37:47.079537,-132
2021-12-24 14:37:47.079556,-109
2021-12-24 14:37:47.079564,-104
2021-12-24 14:37:47.079571,-130
2021-12-24 14:37:47.079577,-155
2021-12-24 14:37:47.079583,-148
2021-12-24 14:37:47.079590,-123
2021-12-24 14:37:47.079596,-109
2021-12-24 14:37:47.079602,-104
2021-12-24 14:37:47.079608,-118
2021-12-24 14:37:47.079614,-144
2021-12-24 14:37:47.079621,-134
2021-12-24 14:37:47.079627,-97
2021-12-24 14:37:47.079633,-81
2021-12-24 14:37:47.079640,-81
2021-12-24 14:37:47.079646,-86
2021-12-24 14:37:47.079652,-93
2021-12-24 14:37:47.079658,-79
2021-12-24 14:37:47.079665,-55
2021-12-24 14:37:47.079671,-39
2021-12-24 14:37:47.079677,-37
2021-12-24 14:37:47.079683,-51
2021-12-24 14:37:47.079690,-81
2021-12-24 14:37:47.079696,-102
2021-12-24 14:37:47.079702,-74
2021-12-24 14:37:47.079708,-30
2021-12-24 14:37:47.079715,-27
2021-12-24 14:37:47.079721,-41
2021-12-24 14:37:47.079727,-37
2021-12-24 14:37:47.079733,-25
2021-12-24 14:37:47.350530,-39
2021-12-24 14:37:47.350559,-58
2021-12-24 14:37:47.350571,-60
2021-12-24 14:37:47.350581,-86
2021-12-24 14:37:47.350590,-107
2021-12-24 14:37:47.350600,-79
2021-12-24 14:37:47.350610,-48
2021-12-24 14:37:47.350619,-41
2021-12-24 14:37:47.350629,-44
2021-12-24 14:37:47.350638,-65
2021-12-24 14:37:47.350648,-74
2021-12-24 14:37:47.350657,-69
2021-12-24 14:37:47.350667,-55
2021-12-24 14:37:47.350677,93
2021-12-24 14:37:47.350686,491
2021-12-24 14:37:47.350696,947
2021-12-24 14:37:47.350706,877
2021-12-24 14:37:47.350715,-83
2021-12-24 14:37:47.350725,-870
2021-12-24 14:37:47.350734,-425
2021-12-24 14:37:47.350744,153
2021-12-24 14:37:47.350753,2
2021-12-24 14:37:47.350763,-72
2021-12-24 14:37:47.350773,121
2021-12-24 14:37:47.350782,123
2021-12-24 14:37:47.350792,81
2021-12-24 14:37:47.350801,137
2021-12-24 14:37:47.350811,137
2021-12-24 14:37:47.350820,118
2021-12-24 14:37:47.350830,155
2021-12-24 14:37:47.663370,183
2021-12-24 14:37:47.663388,139
2021-12-24 14:37:47.663395,20
2021-12-24 14:37:47.663402,-41
2021-12-24 14:37:47.663408,23
2021-12-24 14:37:47.663421,88
2021-12-24 14:37:47.663428,111
2021-12-24 14:37:47.663434,158
2021-12-24 14:37:47.663441,190
2021-12-24 14:37:47.663447,193
2021-12-24 14:37:47.663453,232
2021-12-24 14:37:47.663460,293
2021-12-24 14:37:47.663466,318
2021-12-24 14:37:47.663473,314
2021-12-24 14:37:47.663479,276
2021-12-24 14:37:47.663486,218
2021-12-24 14:37:47.663492,172
2021-12-24 14:37:47.663498,125
2021-12-24 14:37:47.663505,55
2021-12-24 14:37:47.663511,-16
2021-12-24 14:37:47.663518,-74
2021-12-24 14:37:47.663524,-111
2021-12-24 14:37:47.663530,-111
2021-12-24 14:37:47.663537,-100
2021-12-24 14:37:47.663543,-109
2021-12-24 14:37:47.663550,-139
2021-12-24 14:37:47.663556,-183
2021-12-24 14:37:47.663563,-193
2021-12-24 14:37:47.663569,-148
2021-12-24 14:37:47.663575,-125
2021-12-24 14:37:47.844606,-144
2021-12-24 14:37:47.844628,-158
2021-12-24 14:37:47.844636,-141
2021-12-24 14:37:47.844642,-123
2021-12-24 14:37:47.844648,-148
2021-12-24 14:37:47.844655,-181
2021-12-24 14:37:47.844661,-190
2021-12-24 14:37:47.844667,-251
2021-12-24 14:37:47.844673,-372
2021-12-24 14:37:47.844679,-388
2021-12-24 14:37:47.844685,-279
2021-12-24 14:37:47.844692,-202
2021-12-24 14:37:47.844698,-186
2021-12-24 14:37:47.844704,-172
2021-12-24 14:37:47.844710,-167
2021-12-24 14:37:47.844716,-158
2021-12-24 14:37:47.844722,-130
2021-12-24 14:37:47.844728,-104
2021-12-24 14:37:47.844735,-102
2021-12-24 14:37:47.844741,-123
2021-12-24 14:37:47.844747,-141
2021-12-24 14:37:47.844753,-130
2021-12-24 14:37:47.844759,-107
2021-12-24 14:37:47.844766,-90
2021-12-24 14:37:47.844772,-76
2021-12-24 14:37:47.844778,-67
2021-12-24 14:37:47.844784,-53
2021-12-24 14:37:47.844791,-34
2021-12-24 14:37:47.844797,-13
2021-12-24 14:37:47.844803,4
2021-12-24 14:37:48.025439,2
2021-12-24 14:37:48.025469,-6
2021-12-24 14:37:48.025481,-4
2021-12-24 14:37:48.025492,6
2021-12-24 14:37:48.025501,32
2021-12-24 14:37:48.025511,67
2021-12-24 14:37:48.025520,67
2021-12-24 14:37:48.025530,41
2021-12-24 14:37:48.025540,37
2021-12-24 14:37:48.025549,41
2021-12-24 14:37:48.025559,34
2021-12-24 14:37:48.025568,44
2021-12-24 14:37:48.025578,41
2021-12-24 14:37:48.025588,6
2021-12-24 14:37:48.025598,-18
2021-12-24 14:37:48.025607,-65
2021-12-24 14:37:48.025617,-86
2021-12-24 14:37:48.025627,0
2021-12-24 14:37:48.025637,67
2021-12-24 14:37:48.025646,46
2021-12-24 14:37:48.025656,32
2021-12-24 14:37:48.025666,34
2021-12-24 14:37:48.025675,79
2021-12-24 14:37:48.025685,337
2021-12-24 14:37:48.025695,828
2021-12-24 14:37:48.025704,1138
2021-12-24 14:37:48.025714,539
2021-12-24 14:37:48.025724,-635
2021-12-24 14:37:48.025734,-830
2021-12-24 14:37:48.025743,-65
2021-12-24 14:37:48.250329,181
2021-12-24 14:37:48.250360,-9
2021-12-24 14:37:48.250371,100
2021-12-24 14:37:48.250381,188
2021-12-24 14:37:48.250391,76
2021-12-24 14:37:48.250400,60
2021-12-24 14:37:48.250410,102
2021-12-24 14:37:48.250419,86
2021-12-24 14:37:48.250429,76
2021-12-24 14:37:48.250439,81
2021-12-24 14:37:48.250448,88
2021-12-24 14:37:48.250458,109
2021-12-24 14:37:48.250468,102
2021-12-24 14:37:48.250477,109
2021-12-24 14:37:48.250487,165
2021-12-24 14:37:48.250496,216
2021-12-24 14:37:48.250506,249
2021-12-24 14:37:48.250515,293
2021-12-24 14:37:48.250525,330
2021-12-24 14:37:48.250535,367
2021-12-24 14:37:48.250544,409
2021-12-24 14:37:48.250554,418
2021-12-24 14:37:48.250563,416
2021-12-24 14:37:48.250573,411
2021-12-24 14:37:48.250582,386
2021-12-24 14:37:48.250592,337
2021-12-24 14:37:48.250602,269
2021-12-24 14:37:48.250611,181
2021-12-24 14:37:48.250621,104
2021-12-24 14:37:48.250630,39
2021-12-24 14:37:48.474581,-25
2021-12-24 14:37:48.474607,-79
2021-12-24 14:37:48.474615,-114
2021-12-24 14:37:48.474622,-137
2021-12-24 14:37:48.474628,-146
2021-12-24 14:37:48.474634,-181
2021-12-24 14:37:48.474641,-228
2021-12-24 14:37:48.474647,-230
2021-12-24 14:37:48.474653,-223
2021-12-24 14:37:48.474659,-230
2021-12-24 14:37:48.474665,-228
2021-12-24 14:37:48.474672,-244
2021-12-24 14:37:48.474678,-265
2021-12-24 14:37:48.474684,-242
2021-12-24 14:37:48.474690,-214
2021-12-24 14:37:48.474696,-218
2021-12-24 14:37:48.474702,-216
2021-12-24 14:37:48.474709,-193
2021-12-24 14:37:48.474715,-179
2021-12-24 14:37:48.474721,-174
2021-12-24 14:37:48.474727,-158
2021-12-24 14:37:48.474733,-144
2021-12-24 14:37:48.474739,-141
2021-12-24 14:37:48.474745,-132
2021-12-24 14:37:48.474752,-116
2021-12-24 14:37:48.474758,-111
2021-12-24 14:37:48.474764,-104
2021-12-24 14:37:48.474770,-93
2021-12-24 14:37:48.474776,-90
2021-12-24 14:37:48.474782,-86
2021-12-24 14:37:48.699233,-74
2021-12-24 14:37:48.699252,-51
2021-12-24 14:37:48.699259,-32
2021-12-24 14:37:48.699266,-37
2021-12-24 14:37:48.699272,-67
2021-12-24 14:37:48.699279,-86
2021-12-24 14:37:48.699285,-60
2021-12-24 14:37:48.699291,-30
2021-12-24 14:37:48.699298,-48
2021-12-24 14:37:48.699304,-100
2021-12-24 14:37:48.699310,-146
2021-12-24 14:37:48.699317,-165
2021-12-24 14:37:48.699323,-162
2021-12-24 14:37:48.699329,-160
2021-12-24 14:37:48.699336,-134
2021-12-24 14:37:48.699342,-97
2021-12-24 14:37:48.699348,-95
2021-12-24 14:37:48.699354,-95
2021-12-24 14:37:48.699361,-72
2021-12-24 14:37:48.699367,-51
2021-12-24 14:37:48.699373,-53
2021-12-24 14:37:48.699379,-60
2021-12-24 14:37:48.699385,-58
2021-12-24 14:37:48.699391,-41
2021-12-24 14:37:48.699398,-23
2021-12-24 14:37:48.699404,-6
2021-12-24 14:37:48.699410,6
2021-12-24 14:37:48.699416,9
2021-12-24 14:37:48.699423,4
2021-12-24 14:37:48.699429,13
2021-12-24 14:37:48.925165,18
2021-12-24 14:37:48.925200,13
2021-12-24 14:37:48.925211,114
2021-12-24 14:37:48.925221,430
2021-12-24 14:37:48.925231,879
2021-12-24 14:37:48.925241,1005
2021-12-24 14:37:48.925250,237
2021-12-24 14:37:48.925260,-758
2021-12-24 14:37:48.925269,-598
2021-12-24 14:37:48.925279,93
2021-12-24 14:37:48.925289,51
2021-12-24 14:37:48.925299,-116
2021-12-24 14:37:48.925308,81
2021-12-24 14:37:48.925318,139
2021-12-24 14:37:48.925327,55
2021-12-24 14:37:48.925337,72
2021-12-24 14:37:48.925346,83
2021-12-24 14:37:48.925356,65
2021-12-24 14:37:48.925366,93
2021-12-24 14:37:48.925375,141
2021-12-24 14:37:48.925385,155
2021-12-24 14:37:48.925394,153
2021-12-24 14:37:48.925404,167
2021-12-24 14:37:48.925413,204
2021-12-24 14:37:48.925423,244
2021-12-24 14:37:48.925433,281
2021-12-24 14:37:48.925443,323
2021-12-24 14:37:48.925452,344
2021-12-24 14:37:48.925462,353
2021-12-24 14:37:48.925471,391
2021-12-24 14:37:49.194911,437
2021-12-24 14:37:49.194932,451
2021-12-24 14:37:49.194940,430
2021-12-24 14:37:49.194946,377
2021-12-24 14:37:49.194953,316
2021-12-24 14:37:49.194959,274
2021-12-24 14:37:49.194965,214
2021-12-24 14:37:49.194971,121
2021-12-24 14:37:49.194977,20
2021-12-24 14:37:49.194984,-88
2021-12-24 14:37:49.194990,-172
2021-12-24 14:37:49.194996,-200
2021-12-24 14:37:49.195003,-195
2021-12-24 14:37:49.195009,-214
2021-12-24 14:37:49.195016,-269
2021-12-24 14:37:49.195022,-316
2021-12-24 14:37:49.195028,-325
2021-12-24 14:37:49.195034,-318
2021-12-24 14:37:49.195041,-309
2021-12-24 14:37:49.195047,-286
2021-12-24 14:37:49.195053,-281
2021-12-24 14:37:49.195059,-297
2021-12-24 14:37:49.195065,-272
2021-12-24 14:37:49.195071,-218
2021-12-24 14:37:49.195078,-195
2021-12-24 14:37:49.195084,-193
2021-12-24 14:37:49.195090,-186
2021-12-24 14:37:49.195096,-179
2021-12-24 14:37:49.195102,-167
2021-12-24 14:37:49.195109,-148
2021-12-24 14:37:49.420370,-128
2021-12-24 14:37:49.420400,-111
2021-12-24 14:37:49.420412,-104
2021-12-24 14:37:49.420422,-114
2021-12-24 14:37:49.420431,-111
2021-12-24 14:37:49.420441,-88
2021-12-24 14:37:49.420451,-100
2021-12-24 14:37:49.420460,-197
2021-12-24 14:37:49.420470,-321
2021-12-24 14:37:49.420479,-337
2021-12-24 14:37:49.420489,-279
2021-12-24 14:37:49.420503,-263
2021-12-24 14:37:49.420513,-253
2021-12-24 14:37:49.420523,-225
2021-12-24 14:37:49.420532,-214
2021-12-24 14:37:49.420542,-193
2021-12-24 14:37:49.420552,-167
2021-12-24 14:37:49.420561,-144
2021-12-24 14:37:49.420571,-148
2021-12-24 14:37:49.420581,-195
2021-12-24 14:37:49.420590,-221
2021-12-24 14:37:49.420600,-207
2021-12-24 14:37:49.420610,-190
2021-12-24 14:37:49.420619,-148
2021-12-24 14:37:49.420629,-107
2021-12-24 14:37:49.420639,-114
2021-12-24 14:37:49.420648,-118
2021-12-24 14:37:49.420658,-104
2021-12-24 14:37:49.420668,-93
2021-12-24 14:37:49.420677,-69
2021-12-24 14:37:49.689161,-46
2021-12-24 14:37:49.689182,-53
2021-12-24 14:37:49.689190,-20
2021-12-24 14:37:49.689196,204
2021-12-24 14:37:49.689203,637
2021-12-24 14:37:49.689209,926
2021-12-24 14:37:49.689215,442
2021-12-24 14:37:49.689253,-637
2021-12-24 14:37:49.689274,-930
2021-12-24 14:37:49.689282,-183
2021-12-24 14:37:49.689289,244
2021-12-24 14:37:49.689295,123
2021-12-24 14:37:49.689301,167
2021-12-24 14:37:49.689309,260
2021-12-24 14:37:49.689342,174
2021-12-24 14:37:49.689354,155
2021-12-24 14:37:49.689360,237
2021-12-24 14:37:49.689366,251
2021-12-24 14:37:49.689373,230
2021-12-24 14:37:49.689379,256
2021-12-24 14:37:49.689385,244
2021-12-24 14:37:49.689391,174
2021-12-24 14:37:49.689397,176
2021-12-24 14:37:49.689403,246
2021-12-24 14:37:49.689410,265
2021-12-24 14:37:49.689416,258
2021-12-24 14:37:49.689422,309
2021-12-24 14:37:49.689428,372
2021-12-24 14:37:49.689434,393
2021-12-24 14:37:49.689441,421
2021-12-24 14:37:49.870496,477
2021-12-24 14:37:49.870526,491
2021-12-24 14:37:49.870538,463
2021-12-24 14:37:49.870548,458
2021-12-24 14:37:49.870557,456
2021-12-24 14:37:49.870567,386
2021-12-24 14:37:49.870576,274
2021-12-24 14:37:49.870586,174
2021-12-24 14:37:49.870595,90
2021-12-24 14:37:49.870605,30
2021-12-24 14:37:49.870614,0
2021-12-24 14:37:49.870624,-55
2021-12-24 14:37:49.870634,-139
2021-12-24 14:37:49.870643,-165
2021-12-24 14:37:49.870652,-155
2021-12-24 14:37:49.870662,-181
2021-12-24 14:37:49.870672,-207
2021-12-24 14:37:49.870681,-197
2021-12-24 14:37:49.870691,-200
2021-12-24 14:37:49.870700,-232
2021-12-24 14:37:49.870710,-223
2021-12-24 14:37:49.870719,-209
2021-12-24 14:37:49.870729,-232
2021-12-24 14:37:49.870738,-244
2021-12-24 14:37:49.870748,-223
2021-12-24 14:37:49.870757,-214
2021-12-24 14:37:49.870767,-211
2021-12-24 14:37:49.870776,-204
2021-12-24 14:37:49.870786,-181
2021-12-24 14:37:49.870795,-165
2021-12-24 14:37:50.095425,-169
2021-12-24 14:37:50.095455,-155
2021-12-24 14:37:50.095466,-137
2021-12-24 14:37:50.095476,-144
2021-12-24 14:37:50.095486,-128
2021-12-24 14:37:50.095496,-100
2021-12-24 14:37:50.095505,-130
2021-12-24 14:37:50.095515,-151
2021-12-24 14:37:50.095525,-118
2021-12-24 14:37:50.095534,-104
2021-12-24 14:37:50.095544,-114
2021-12-24 14:37:50.095553,-102
2021-12-24 14:37:50.095563,-109
2021-12-24 14:37:50.095573,-125
2021-12-24 14:37:50.095583,-116
2021-12-24 14:37:50.095592,-86
2021-12-24 14:37:50.095602,-41
2021-12-24 14:37:50.095611,-16
2021-12-24 14:37:50.095621,-16
2021-12-24 14:37:50.095630,-16
2021-12-24 14:37:50.095640,-11
2021-12-24 14:37:50.095650,-9
2021-12-24 14:37:50.095659,-13
2021-12-24 14:37:50.095669,-9
2021-12-24 14:37:50.095678,-6
2021-12-24 14:37:50.095688,-34
2021-12-24 14:37:50.095697,-86
2021-12-24 14:37:50.095707,-111
2021-12-24 14:37:50.095716,-100
2021-12-24 14:37:50.095726,-74
2021-12-24 14:37:50.319913,-72
2021-12-24 14:37:50.319943,-69
2021-12-24 14:37:50.319955,-58
2021-12-24 14:37:50.319965,-39
2021-12-24 14:37:50.319974,114
2021-12-24 14:37:50.319984,477
2021-12-24 14:37:50.319994,828
2021-12-24 14:37:50.320003,633
2021-12-24 14:37:50.320013,-307
2021-12-24 14:37:50.320023,-889
2021-12-24 14:37:50.320032,-344
2021-12-24 14:37:50.320042,116
2021-12-24 14:37:50.320052,-97
2021-12-24 14:37:50.320061,-118
2021-12-24 14:37:50.320071,76
2021-12-24 14:37:50.320080,55
2021-12-24 14:37:50.320090,16
2021-12-24 14:37:50.320100,81
2021-12-24 14:37:50.320109,104
2021-12-24 14:37:50.320119,104
2021-12-24 14:37:50.320128,137
2021-12-24 14:37:50.320138,153
2021-12-24 14:37:50.320147,155
2021-12-24 14:37:50.320157,186
2021-12-24 14:37:50.320166,225
2021-12-24 14:37:50.320176,258
2021-12-24 14:37:50.320186,281
2021-12-24 14:37:50.320195,286
2021-12-24 14:37:50.320205,290
2021-12-24 14:37:50.320215,328
2021-12-24 14:37:50.545347,393
2021-12-24 14:37:50.545377,435
2021-12-24 14:37:50.545389,444
2021-12-24 14:37:50.545399,442
2021-12-24 14:37:50.545409,430
2021-12-24 14:37:50.545418,409
2021-12-24 14:37:50.545428,363
2021-12-24 14:37:50.545437,274
2021-12-24 14:37:50.545452,190
2021-12-24 14:37:50.545462,125
2021-12-24 14:37:50.545471,32
2021-12-24 14:37:50.545481,-60
2021-12-24 14:37:50.545490,-88
2021-12-24 14:37:50.545500,-86
2021-12-24 14:37:50.545510,-97
2021-12-24 14:37:50.545519,-107
2021-12-24 14:37:50.545529,-104
2021-12-24 14:37:50.545538,-102
2021-12-24 14:37:50.545548,-95
2021-12-24 14:37:50.545558,-81
2021-12-24 14:37:50.545567,-65
2021-12-24 14:37:50.545577,-58
2021-12-24 14:37:50.545587,-60
2021-12-24 14:37:50.545596,-48
2021-12-24 14:37:50.545606,-23
2021-12-24 14:37:50.545616,-2
2021-12-24 14:37:50.545625,4
2021-12-24 14:37:50.545635,9
2021-12-24 14:37:50.545644,9
2021-12-24 14:37:50.545654,-2
2021-12-24 14:37:50.813842,-32
2021-12-24 14:37:50.813867,-58
2021-12-24 14:37:50.813877,-86
2021-12-24 14:37:50.813883,-128
2021-12-24 14:37:50.813889,-160
2021-12-24 14:37:50.813896,-153
2021-12-24 14:37:50.813902,-144
2021-12-24 14:37:50.813908,-176
2021-12-24 14:37:50.813914,-179
2021-12-24 14:37:50.813920,-167
2021-12-24 14:37:50.813926,-232
2021-12-24 14:37:50.813932,-265
2021-12-24 14:37:50.813939,-204
2021-12-24 14:37:50.813945,-176
2021-12-24 14:37:50.813951,-186
2021-12-24 14:37:50.813957,-176
2021-12-24 14:37:50.813963,-146
2021-12-24 14:37:50.813969,-107
2021-12-24 14:37:50.813975,-90
2021-12-24 14:37:50.813981,-114
2021-12-24 14:37:50.813987,-121
2021-12-24 14:37:50.813994,-114
2021-12-24 14:37:50.814000,-118
2021-12-24 14:37:50.814006,-107
2021-12-24 14:37:50.814013,-81
2021-12-24 14:37:50.814019,-53
2021-12-24 14:37:50.814025,-34
2021-12-24 14:37:50.814031,-46
2021-12-24 14:37:50.814037,-55
2021-12-24 14:37:50.814043,-30
2021-12-24 14:37:51.039919,-11
2021-12-24 14:37:51.039949,-32
2021-12-24 14:37:51.039961,-62
2021-12-24 14:37:51.039982,-32
2021-12-24 14:37:51.039992,134
2021-12-24 14:37:51.040001,458
2021-12-24 14:37:51.040011,702
2021-12-24 14:37:51.040021,367
2021-12-24 14:37:51.040030,-488
2021-12-24 14:37:51.040040,-800
2021-12-24 14:37:51.040049,-244
2021-12-24 14:37:51.040059,86
2021-12-24 14:37:51.040069,-65
2021-12-24 14:37:51.040078,-25
2021-12-24 14:37:51.040088,93
2021-12-24 14:37:51.040098,16
2021-12-24 14:37:51.040107,0
2021-12-24 14:37:51.040117,88
2021-12-24 14:37:51.040126,109
2021-12-24 14:37:51.040136,118
2021-12-24 14:37:51.040146,151
2021-12-24 14:37:51.040155,132
2021-12-24 14:37:51.040164,130
2021-12-24 14:37:51.040174,190
2021-12-24 14:37:51.040183,242
2021-12-24 14:37:51.040193,267
2021-12-24 14:37:51.040203,269
2021-12-24 14:37:51.040212,281
2021-12-24 14:37:51.040222,323
2021-12-24 14:37:51.040231,367
2021-12-24 14:37:51.264659,409
2021-12-24 14:37:51.264677,435
2021-12-24 14:37:51.264684,430
2021-12-24 14:37:51.264691,402
2021-12-24 14:37:51.264697,363
2021-12-24 14:37:51.264703,335
2021-12-24 14:37:51.264710,309
2021-12-24 14:37:51.264716,214
2021-12-24 14:37:51.264723,60
2021-12-24 14:37:51.264729,-41
2021-12-24 14:37:51.264736,-65
2021-12-24 14:37:51.264742,-79
2021-12-24 14:37:51.264748,-104
2021-12-24 14:37:51.264755,-137
2021-12-24 14:37:51.264761,-174
2021-12-24 14:37:51.264768,-202
2021-12-24 14:37:51.264774,-188
2021-12-24 14:37:51.264781,-141
2021-12-24 14:37:51.264787,-116
2021-12-24 14:37:51.264793,-107
2021-12-24 14:37:51.264800,-109
2021-12-24 14:37:51.264806,-123
2021-12-24 14:37:51.264812,-114
2021-12-24 14:37:51.264819,-76
2021-12-24 14:37:51.264825,-60
2021-12-24 14:37:51.264831,-67
2021-12-24 14:37:51.264838,-65
2021-12-24 14:37:51.264844,-53
2021-12-24 14:37:51.264850,-55
2021-12-24 14:37:51.264857,-51
2021-12-24 14:37:51.579605,-9
2021-12-24 14:37:51.579638,6
2021-12-24 14:37:51.579645,-32
2021-12-24 14:37:51.579652,-53
2021-12-24 14:37:51.579658,-37
2021-12-24 14:37:51.579664,-41
2021-12-24 14:37:51.579670,-62
2021-12-24 14:37:51.579676,-69
2021-12-24 14:37:51.579683,-81
2021-12-24 14:37:51.579689,-95
2021-12-24 14:37:51.579695,-76
2021-12-24 14:37:51.579701,-53
2021-12-24 14:37:51.579707,-39
2021-12-24 14:37:51.579714,-41
2021-12-24 14:37:51.579720,-67
2021-12-24 14:37:51.579726,-53
2021-12-24 14:37:51.579732,-9
2021-12-24 14:37:51.579738,-30
2021-12-24 14:37:51.579745,-79
2021-12-24 14:37:51.579751,-74
2021-12-24 14:37:51.579757,-48
2021-12-24 14:37:51.579763,-58
2021-12-24 14:37:51.579769,-67
2021-12-24 14:37:51.579776,-67
2021-12-24 14:37:51.579782,-107
2021-12-24 14:37:51.579788,-139
2021-12-24 14:37:51.579794,-109
2021-12-24 14:37:51.579800,-95
2021-12-24 14:37:51.579807,-111
2021-12-24 14:37:51.579813,-95
2021-12-24 14:37:51.803697,-83
2021-12-24 14:37:51.803726,-88
2021-12-24 14:37:51.803738,9
2021-12-24 14:37:51.803748,300
2021-12-24 14:37:51.803758,640
2021-12-24 14:37:51.803767,521
2021-12-24 14:37:51.803777,-297
2021-12-24 14:37:51.803787,-870
2021-12-24 14:37:51.803796,-465
2021-12-24 14:37:51.803805,11
2021-12-24 14:37:51.803815,-62
2021-12-24 14:37:51.803825,-97
2021-12-24 14:37:51.803834,18
2021-12-24 14:37:51.803844,6
2021-12-24 14:37:51.803853,0
2021-12-24 14:37:51.803863,20
2021-12-24 14:37:51.803872,25
2021-12-24 14:37:51.803882,69
2021-12-24 14:37:51.803891,83
2021-12-24 14:37:51.803901,55
2021-12-24 14:37:51.803910,72
2021-12-24 14:37:51.803920,104
2021-12-24 14:37:51.803930,125
2021-12-24 14:37:51.803952,158
2021-12-24 14:37:51.803962,176
2021-12-24 14:37:51.803971,174
2021-12-24 14:37:51.803981,197
2021-12-24 14:37:51.803990,235
2021-12-24 14:37:51.804000,272
2021-12-24 14:37:51.804009,309
2021-12-24 14:37:51.985144,316
2021-12-24 14:37:51.985174,311
2021-12-24 14:37:51.985185,321
2021-12-24 14:37:51.985195,293
2021-12-24 14:37:51.985205,249
2021-12-24 14:37:51.985215,239
2021-12-24 14:37:51.985224,190
2021-12-24 14:37:51.985234,109
2021-12-24 14:37:51.985243,60
2021-12-24 14:37:51.985253,-2
2021-12-24 14:37:51.985263,-72
2021-12-24 14:37:51.985273,-81
2021-12-24 14:37:51.985282,-97
2021-12-24 14:37:51.985292,-148
2021-12-24 14:37:51.985301,-134
2021-12-24 14:37:51.985311,-102
2021-12-24 14:37:51.985320,-114
2021-12-24 14:37:51.985330,-97
2021-12-24 14:37:51.985339,-93
2021-12-24 14:37:51.985349,-116
2021-12-24 14:37:51.985359,-116
2021-12-24 14:37:51.985368,-86
2021-12-24 14:37:51.985378,-69
2021-12-24 14:37:51.985387,-97
2021-12-24 14:37:51.985397,-95
2021-12-24 14:37:51.985407,-37
2021-12-24 14:37:51.985416,-16
2021-12-24 14:37:51.985426,-23
2021-12-24 14:37:51.985435,-6
2021-12-24 14:37:51.985445,-6
2021-12-24 14:37:52.164743,-30
2021-12-24 14:37:52.164761,-23
2021-12-24 14:37:52.164769,-2
2021-12-24 14:37:52.164775,-6
2021-12-24 14:37:52.164781,-4
2021-12-24 14:37:52.164788,-13
2021-12-24 14:37:52.164794,-51
2021-12-24 14:37:52.164800,-39
2021-12-24 14:37:52.164806,11
2021-12-24 14:37:52.164812,27
2021-12-24 14:37:52.164818,23
2021-12-24 14:37:52.164825,13
2021-12-24 14:37:52.164831,2
2021-12-24 14:37:52.164837,6
2021-12-24 14:37:52.164843,6
2021-12-24 14:37:52.164849,-9
2021-12-24 14:37:52.164855,6
2021-12-24 14:37:52.164862,11
2021-12-24 14:37:52.164868,-39
2021-12-24 14:37:52.164874,-74
2021-12-24 14:37:52.164880,-53
2021-12-24 14:37:52.164886,-53
2021-12-24 14:37:52.164892,-65
2021-12-24 14:37:52.164898,-51
2021-12-24 14:37:52.164905,-44
2021-12-24 14:37:52.164911,-18
2021-12-24 14:37:52.164917,60
2021-12-24 14:37:52.164923,200
2021-12-24 14:37:52.164929,460
2021-12-24 14:37:52.164936,672
2021-12-24 14:37:52.389931,281
2021-12-24 14:37:52.389960,-567
2021-12-24 14:37:52.389972,-721
2021-12-24 14:37:52.389982,-158
2021-12-24 14:37:52.389991,-25
2021-12-24 14:37:52.390001,-239
2021-12-24 14:37:52.390010,-146
2021-12-24 14:37:52.390020,-27
2021-12-24 14:37:52.390030,-93
2021-12-24 14:37:52.390039,-102
2021-12-24 14:37:52.390049,-62
2021-12-24 14:37:52.390058,-67
2021-12-24 14:37:52.390068,-55
2021-12-24 14:37:52.390078,-46
2021-12-24 14:37:52.390087,-76
2021-12-24 14:37:52.390097,-67
2021-12-24 14:37:52.390106,-25
2021-12-24 14:37:52.390116,-13
2021-12-24 14:37:52.390125,16
2021-12-24 14:37:52.390135,86
2021-12-24 14:37:52.390145,130
2021-12-24 14:37:52.390154,139
2021-12-24 14:37:52.390164,160
2021-12-24 14:37:52.390173,202
2021-12-24 14:37:52.390183,235
2021-12-24 14:37:52.390193,249
2021-12-24 14:37:52.390202,260
2021-12-24 14:37:52.390212,253
2021-12-24 14:37:52.390222,209
2021-12-24 14:37:52.390231,172
2021-12-24 14:37:52.614982,146
2021-12-24 14:37:52.615012,97
2021-12-24 14:37:52.615024,37
2021-12-24 14:37:52.615034,-30
2021-12-24 14:37:52.615044,-111
2021-12-24 14:37:52.615053,-148
2021-12-24 14:37:52.615063,-125
2021-12-24 14:37:52.615072,-107
2021-12-24 14:37:52.615082,-118
2021-12-24 14:37:52.615092,-151
2021-12-24 14:37:52.615101,-179
2021-12-24 14:37:52.615111,-146
2021-12-24 14:37:52.615121,-109
2021-12-24 14:37:52.615130,-104
2021-12-24 14:37:52.615140,-100
2021-12-24 14:37:52.615149,-107
2021-12-24 14:37:52.615159,-130
2021-12-24 14:37:52.615169,-109
2021-12-24 14:37:52.615178,-69
2021-12-24 14:37:52.615188,-67
2021-12-24 14:37:52.615197,-69
2021-12-24 14:37:52.615207,-67
2021-12-24 14:37:52.615217,-65
2021-12-24 14:37:52.615226,-65
2021-12-24 14:37:52.615236,-90
2021-12-24 14:37:52.615246,-107
2021-12-24 14:37:52.615255,-97
2021-12-24 14:37:52.615265,-102
2021-12-24 14:37:52.615274,-123
2021-12-24 14:37:52.615284,-104
2021-12-24 14:37:52.974319,-53
2021-12-24 14:37:52.974340,-20
2021-12-24 14:37:52.974347,-18
2021-12-24 14:37:52.974354,-41
2021-12-24 14:37:52.974360,-65
2021-12-24 14:37:52.974366,-58
2021-12-24 14:37:52.974372,-41
2021-12-24 14:37:52.974379,-32
2021-12-24 14:37:52.974385,-41
2021-12-24 14:37:52.974391,-79
2021-12-24 14:37:52.974397,-93
2021-12-24 14:37:52.974404,-72
2021-12-24 14:37:52.974410,-60
2021-12-24 14:37:52.974416,-44
2021-12-24 14:37:52.974422,-27
2021-12-24 14:37:52.974428,-46
2021-12-24 14:37:52.974434,-58
2021-12-24 14:37:52.974441,-44
2021-12-24 14:37:52.974447,-4
2021-12-24 14:37:52.974453,162
2021-12-24 14:37:52.974459,486
2021-12-24 14:37:52.974466,695
2021-12-24 14:37:52.974472,332
2021-12-24 14:37:52.974478,-493
2021-12-24 14:37:52.974484,-730
2021-12-24 14:37:52.974490,-155
2021-12-24 14:37:52.974497,104
2021-12-24 14:37:52.974503,-76
2021-12-24 14:37:52.974509,-16
2021-12-24 14:37:52.974515,125
2021-12-24 14:37:53.155073,97
2021-12-24 14:37:53.155095,97
2021-12-24 14:37:53.155102,132
2021-12-24 14:37:53.155109,107
2021-12-24 14:37:53.155115,102
2021-12-24 14:37:53.155121,148
2021-12-24 14:37:53.155128,162
2021-12-24 14:37:53.155134,139
2021-12-24 14:37:53.155140,134
2021-12-24 14:37:53.155146,151
2021-12-24 14:37:53.155152,169
2021-12-24 14:37:53.155159,190
2021-12-24 14:37:53.155165,214
2021-12-24 14:37:53.155171,225
2021-12-24 14:37:53.155177,188
2021-12-24 14:37:53.155184,167
2021-12-24 14:37:53.155190,202
2021-12-24 14:37:53.155196,221
2021-12-24 14:37:53.155203,209
2021-12-24 14:37:53.155209,190
2021-12-24 14:37:53.155215,123
2021-12-24 14:37:53.155221,27
2021-12-24 14:37:53.155228,-27
2021-12-24 14:37:53.155234,-69
2021-12-24 14:37:53.155240,-125
2021-12-24 14:37:53.155246,-183
2021-12-24 14:37:53.155252,-242
2021-12-24 14:37:53.155259,-281
2021-12-24 14:37:53.155265,-283
2021-12-24 14:37:53.155278,-302
2021-12-24 14:37:53.335577,-330
2021-12-24 14:37:53.335607,-328
2021-12-24 14:37:53.335618,-323
2021-12-24 14:37:53.335628,-328
2021-12-24 14:37:53.335638,-302
2021-12-24 14:37:53.335648,-272
2021-12-24 14:37:53.335657,-260
2021-12-24 14:37:53.335667,-249
2021-12-24 14:37:53.335677,-244
2021-12-24 14:37:53.335686,-239
2021-12-24 14:37:53.335696,-216
2021-12-24 14:37:53.335705,-193
2021-12-24 14:37:53.335715,-183
2021-12-24 14:37:53.335725,-183
2021-12-24 14:37:53.335734,-190
2021-12-24 14:37:53.335744,-188
2021-12-24 14:37:53.335753,-165
2021-12-24 14:37:53.335763,-146
2021-12-24 14:37:53.335772,-153
2021-12-24 14:37:53.335782,-167
2021-12-24 14:37:53.335792,-181
2021-12-24 14:37:53.335801,-204
2021-12-24 14:37:53.335810,-214
2021-12-24 14:37:53.335820,-160
2021-12-24 14:37:53.335829,-97
2021-12-24 14:37:53.335839,-90
2021-12-24 14:37:53.335848,-107
2021-12-24 14:37:53.335858,-107
2021-12-24 14:37:53.335867,-107
2021-12-24 14:37:53.335877,-104
2021-12-24 14:37:53.559931,-86
2021-12-24 14:37:53.559960,-60
2021-12-24 14:37:53.559973,-65
2021-12-24 14:37:53.559983,-76
2021-12-24 14:37:53.559992,-58
2021-12-24 14:37:53.560002,-30
2021-12-24 14:37:53.560012,-34
2021-12-24 14:37:53.560021,-62
2021-12-24 14:37:53.560031,-62
2021-12-24 14:37:53.560040,-39
2021-12-24 14:37:53.560049,-32
2021-12-24 14:37:53.560059,16
2021-12-24 14:37:53.560069,195
2021-12-24 14:37:53.560078,500
2021-12-24 14:37:53.560088,700
2021-12-24 14:37:53.560098,323
2021-12-24 14:37:53.560107,-507
2021-12-24 14:37:53.560117,-705
2021-12-24 14:37:53.560126,-139
2021-12-24 14:37:53.560136,86
2021-12-24 14:37:53.560146,-72
2021-12-24 14:37:53.560155,0
2021-12-24 14:37:53.560165,102
2021-12-24 14:37:53.560174,41
2021-12-24 14:37:53.560184,13
2021-12-24 14:37:53.560194,46
2021-12-24 14:37:53.560203,58
2021-12-24 14:37:53.560213,65
2021-12-24 14:37:53.560222,86
2021-12-24 14:37:53.560232,114
2021-12-24 14:37:53.828010,132
2021-12-24 14:37:53.828029,146
2021-12-24 14:37:53.828036,172
2021-12-24 14:37:53.828043,195
2021-12-24 14:37:53.828049,200
2021-12-24 14:37:53.828055,186
2021-12-24 14:37:53.828062,167
2021-12-24 14:37:53.828068,169
2021-12-24 14:37:53.828074,200
2021-12-24 14:37:53.828081,221
2021-12-24 14:37:53.828087,223
2021-12-24 14:37:53.828093,209
2021-12-24 14:37:53.828099,158
2021-12-24 14:37:53.828106,93
2021-12-24 14:37:53.828112,34
2021-12-24 14:37:53.828119,-39
2021-12-24 14:37:53.828125,-107
2021-12-24 14:37:53.828131,-165
2021-12-24 14:37:53.828137,-223
2021-12-24 14:37:53.828144,-258
2021-12-24 14:37:53.828150,-267
2021-12-24 14:37:53.828156,-286
2021-12-24 14:37:53.828163,-290
2021-12-24 14:37:53.828169,-286
2021-12-24 14:37:53.828175,-290
2021-12-24 14:37:53.828181,-295
2021-12-24 14:37:53.828188,-300
2021-12-24 14:37:53.828194,-286
2021-12-24 14:37:53.828200,-256
2021-12-24 14:37:53.828206,-249
2021-12-24 14:37:54.010395,-246
2021-12-24 14:37:54.010425,-218
2021-12-24 14:37:54.010437,-197
2021-12-24 14:37:54.010447,-195
2021-12-24 14:37:54.010457,-188
2021-12-24 14:37:54.010466,-193
2021-12-24 14:37:54.010476,-209
2021-12-24 14:37:54.010485,-193
2021-12-24 14:37:54.010495,-165
2021-12-24 14:37:54.010505,-162
2021-12-24 14:37:54.010514,-162
2021-12-24 14:37:54.010524,-162
2021-12-24 14:37:54.010534,-167
2021-12-24 14:37:54.010544,-148
2021-12-24 14:37:54.010553,-132
2021-12-24 14:37:54.010563,-139
2021-12-24 14:37:54.010573,-134
2021-12-24 14:37:54.010583,-121
2021-12-24 14:37:54.010592,-95
2021-12-24 14:37:54.010602,-58
2021-12-24 14:37:54.010612,-37
2021-12-24 14:37:54.010621,-34
2021-12-24 14:37:54.010631,-27
2021-12-24 14:37:54.010641,-30
2021-12-24 14:37:54.010651,-34
2021-12-24 14:37:54.010660,-20
2021-12-24 14:37:54.010670,2
2021-12-24 14:37:54.010680,-11
2021-12-24 14:37:54.010690,-53
2021-12-24 14:37:54.010699,-58
2021-12-24 14:37:54.234969,-34
2021-12-24 14:37:54.234998,-16
2021-12-24 14:37:54.235010,-6
2021-12-24 14:37:54.235020,-2
2021-12-24 14:37:54.235029,-23
2021-12-24 14:37:54.235039,-65
2021-12-24 14:37:54.235049,-11
2021-12-24 14:37:54.235059,274
2021-12-24 14:37:54.235068,744
2021-12-24 14:37:54.235078,963
2021-12-24 14:37:54.235087,276
2021-12-24 14:37:54.235097,-823
2021-12-24 14:37:54.235107,-851
2021-12-24 14:37:54.235116,-90
2021-12-24 14:37:54.235126,34
2021-12-24 14:37:54.235136,-162
2021-12-24 14:37:54.235146,-25
2021-12-24 14:37:54.235155,62
2021-12-24 14:37:54.235165,0
2021-12-24 14:37:54.235175,44
2021-12-24 14:37:54.235184,111
2021-12-24 14:37:54.235194,90
2021-12-24 14:37:54.235204,86
2021-12-24 14:37:54.235213,123
2021-12-24 14:37:54.235223,151
2021-12-24 14:37:54.235232,174
2021-12-24 14:37:54.235242,202
2021-12-24 14:37:54.235251,218
2021-12-24 14:37:54.235261,237
2021-12-24 14:37:54.235271,258
2021-12-24 14:37:54.460429,281
2021-12-24 14:37:54.460458,318
2021-12-24 14:37:54.460469,365
2021-12-24 14:37:54.460479,386
2021-12-24 14:37:54.460489,372
2021-12-24 14:37:54.460499,372
2021-12-24 14:37:54.460509,391
2021-12-24 14:37:54.460518,377
2021-12-24 14:37:54.460528,321
2021-12-24 14:37:54.460538,223
2021-12-24 14:37:54.460547,104
2021-12-24 14:37:54.460557,16
2021-12-24 14:37:54.460567,-44
2021-12-24 14:37:54.460577,-116
2021-12-24 14:37:54.460587,-181
2021-12-24 14:37:54.460597,-235
2021-12-24 14:37:54.460607,-274
2021-12-24 14:37:54.460616,-272
2021-12-24 14:37:54.460626,-249
2021-12-24 14:37:54.460636,-239
2021-12-24 14:37:54.460646,-237
2021-12-24 14:37:54.460655,-239
2021-12-24 14:37:54.460665,-235
2021-12-24 14:37:54.460675,-214
2021-12-24 14:37:54.460685,-190
2021-12-24 14:37:54.460694,-179
2021-12-24 14:37:54.460704,-169
2021-12-24 14:37:54.460714,-167
2021-12-24 14:37:54.460723,-167
2021-12-24 14:37:54.460733,-144
2021-12-24 14:37:54.774281,-121
2021-12-24 14:37:54.774310,-123
2021-12-24 14:37:54.774321,-155
2021-12-24 14:37:54.774331,-193
2021-12-24 14:37:54.774340,-190
2021-12-24 14:37:54.774350,-160
2021-12-24 14:37:54.774359,-137
2021-12-24 14:37:54.774368,-123
2021-12-24 14:37:54.774378,-121
2021-12-24 14:37:54.774387,-146
2021-12-24 14:37:54.774397,-162
2021-12-24 14:37:54.774406,-144
2021-12-24 14:37:54.774416,-116
2021-12-24 14:37:54.774425,-86
2021-12-24 14:37:54.774434,-60
2021-12-24 14:37:54.774444,-81
2021-12-24 14:37:54.774453,-116
2021-12-24 14:37:54.774463,-95
2021-12-24 14:37:54.774472,-67
2021-12-24 14:37:54.774482,-74
2021-12-24 14:37:54.774491,-76
2021-12-24 14:37:54.774501,-72
2021-12-24 14:37:54.774510,-60
2021-12-24 14:37:54.774520,-39
2021-12-24 14:37:54.774529,-16
2021-12-24 14:37:54.774539,0
2021-12-24 14:37:54.774548,2
2021-12-24 14:37:54.774558,-6
2021-12-24 14:37:54.774571,0
2021-12-24 14:37:54.774581,16
2021-12-24 14:37:54.955388,18
2021-12-24 14:37:54.955419,76
2021-12-24 14:37:54.955430,318
2021-12-24 14:37:54.955440,744
2021-12-24 14:37:54.955450,977
2021-12-24 14:37:54.955459,404
2021-12-24 14:37:54.955469,-672
2021-12-24 14:37:54.955478,-819
2021-12-24 14:37:54.955488,-58
2021-12-24 14:37:54.955497,137
2021-12-24 14:37:54.955507,-90
2021-12-24 14:37:54.955517,32
2021-12-24 14:37:54.955526,153
2021-12-24 14:37:54.955536,81
2021-12-24 14:37:54.955545,72
2021-12-24 14:37:54.955555,100
2021-12-24 14:37:54.955564,102
2021-12-24 14:37:54.955573,130
2021-12-24 14:37:54.955583,167
2021-12-24 14:37:54.955592,181
2021-12-24 14:37:54.955602,181
2021-12-24 14:37:54.955611,195
2021-12-24 14:37:54.955621,228
2021-12-24 14:37:54.955630,267
2021-12-24 14:37:54.955640,304
2021-12-24 14:37:54.955649,349
2021-12-24 14:37:54.955659,381
2021-12-24 14:37:54.955668,400
2021-12-24 14:37:54.955678,432
2021-12-24 14:37:54.955687,467
2021-12-24 14:37:55.225408,484
2021-12-24 14:37:55.225437,484
2021-12-24 14:37:55.225448,460
2021-12-24 14:37:55.225458,404
2021-12-24 14:37:55.225468,339
2021-12-24 14:37:55.225477,263
2021-12-24 14:37:55.225487,155
2021-12-24 14:37:55.225496,41
2021-12-24 14:37:55.225506,-62
2021-12-24 14:37:55.225516,-125
2021-12-24 14:37:55.225525,-141
2021-12-24 14:37:55.225535,-137
2021-12-24 14:37:55.225544,-155
2021-12-24 14:37:55.225554,-211
2021-12-24 14:37:55.225563,-251
2021-12-24 14:37:55.225573,-251
2021-12-24 14:37:55.225582,-249
2021-12-24 14:37:55.225592,-232
2021-12-24 14:37:55.225602,-211
2021-12-24 14:37:55.225611,-207
2021-12-24 14:37:55.225620,-211
2021-12-24 14:37:55.225630,-232
2021-12-24 14:37:55.225639,-265
2021-12-24 14:37:55.225649,-256
2021-12-24 14:37:55.225658,-228
2021-12-24 14:37:55.225668,-228
2021-12-24 14:37:55.225677,-230
2021-12-24 14:37:55.225687,-211
2021-12-24 14:37:55.225696,-195
2021-12-24 14:37:55.225706,-176
2021-12-24 14:37:55.405615,-153
2021-12-24 14:37:55.405644,-153
2021-12-24 14:37:55.405656,-160
2021-12-24 14:37:55.405665,-153
2021-12-24 14:37:55.405675,-132
2021-12-24 14:37:55.405684,-109
2021-12-24 14:37:55.405694,-93
2021-12-24 14:37:55.405703,-95
2021-12-24 14:37:55.405712,-107
2021-12-24 14:37:55.405722,-111
2021-12-24 14:37:55.405731,-97
2021-12-24 14:37:55.405741,-86
2021-12-24 14:37:55.405751,-97
2021-12-24 14:37:55.405760,-109
2021-12-24 14:37:55.405769,-83
2021-12-24 14:37:55.405779,-41
2021-12-24 14:37:55.405788,-32
2021-12-24 14:37:55.405798,-30
2021-12-24 14:37:55.405807,-34
2021-12-24 14:37:55.405817,-58
2021-12-24 14:37:55.405826,-67
2021-12-24 14:37:55.405836,-51
2021-12-24 14:37:55.405845,-30
2021-12-24 14:37:55.405855,-18
2021-12-24 14:37:55.405864,-18
2021-12-24 14:37:55.405873,-13
2021-12-24 14:37:55.405883,4
2021-12-24 14:37:55.405892,9
2021-12-24 14:37:55.405902,16
2021-12-24 14:37:55.405911,34
2021-12-24 14:37:55.675096,30
2021-12-24 14:37:55.675119,23
2021-12-24 14:37:55.675127,137
2021-12-24 14:37:55.675133,460
2021-12-24 14:37:55.675139,870
2021-12-24 14:37:55.675146,872
2021-12-24 14:37:55.675152,41
2021-12-24 14:37:55.675158,-770
2021-12-24 14:37:55.675165,-444
2021-12-24 14:37:55.675171,148
2021-12-24 14:37:55.675177,39
2021-12-24 14:37:55.675183,-86
2021-12-24 14:37:55.675190,62
2021-12-24 14:37:55.675196,62
2021-12-24 14:37:55.675202,18
2021-12-24 14:37:55.675209,79
2021-12-24 14:37:55.675215,114
2021-12-24 14:37:55.675221,111
2021-12-24 14:37:55.675227,123
2021-12-24 14:37:55.675233,146
2021-12-24 14:37:55.675240,169
2021-12-24 14:37:55.675246,188
2021-12-24 14:37:55.675252,216
2021-12-24 14:37:55.675258,249
2021-12-24 14:37:55.675264,274
2021-12-24 14:37:55.675271,311
2021-12-24 14:37:55.675277,349
2021-12-24 14:37:55.675283,349
2021-12-24 14:37:55.675289,335
2021-12-24 14:37:55.675296,353
2021-12-24 14:37:55.898548,379
2021-12-24 14:37:55.898569,386
2021-12-24 14:37:55.898576,391
2021-12-24 14:37:55.898583,374
2021-12-24 14:37:55.898589,328
2021-12-24 14:37:55.898595,246
2021-12-24 14:37:55.898601,125
2021-12-24 14:37:55.898608,30
2021-12-24 14:37:55.898614,-13
2021-12-24 14:37:55.898620,-60
2021-12-24 14:37:55.898626,-114
2021-12-24 14:37:55.898632,-162
2021-12-24 14:37:55.898639,-209
2021-12-24 14:37:55.898645,-237
2021-12-24 14:37:55.898651,-249
2021-12-24 14:37:55.898657,-244
2021-12-24 14:37:55.898663,-242
2021-12-24 14:37:55.898669,-260
2021-12-24 14:37:55.898676,-265
2021-12-24 14:37:55.898682,-239
2021-12-24 14:37:55.898688,-221
2021-12-24 14:37:55.898694,-221
2021-12-24 14:37:55.898700,-211
2021-12-24 14:37:55.898706,-200
2021-12-24 14:37:55.898712,-193
2021-12-24 14:37:55.898719,-172
2021-12-24 14:37:55.898725,-155
2021-12-24 14:37:55.898731,-153
2021-12-24 14:37:55.898737,-141
2021-12-24 14:37:55.898743,-128
2021-12-24 14:37:56.170160,-116
2021-12-24 14:37:56.170181,-95
2021-12-24 14:37:56.170189,-83
2021-12-24 14:37:56.170196,-83
2021-12-24 14:37:56.170202,-93
2021-12-24 14:37:56.170209,-114
2021-12-24 14:37:56.170215,-107
2021-12-24 14:37:56.170221,-79
2021-12-24 14:37:56.170227,-67
2021-12-24 14:37:56.170234,-72
2021-12-24 14:37:56.170240,-81
2021-12-24 14:37:56.170246,-93
2021-12-24 14:37:56.170252,-83
2021-12-24 14:37:56.170258,-69
2021-12-24 14:37:56.170265,-88
2021-12-24 14:37:56.170271,-102
2021-12-24 14:37:56.170277,-88
2021-12-24 14:37:56.170284,-76
2021-12-24 14:37:56.170290,-65
2021-12-24 14:37:56.170296,-39
2021-12-24 14:37:56.170302,-25
2021-12-24 14:37:56.170308,-27
2021-12-24 14:37:56.170314,-25
2021-12-24 14:37:56.170321,-18
2021-12-24 14:37:56.170327,-9
2021-12-24 14:37:56.170333,2
2021-12-24 14:37:56.170339,25
2021-12-24 14:37:56.170345,53
2021-12-24 14:37:56.170351,65
2021-12-24 14:37:56.170357,65
2021-12-24 14:37:56.349809,74
2021-12-24 14:37:56.349839,86
2021-12-24 14:37:56.349851,76
2021-12-24 14:37:56.349860,39
2021-12-24 14:37:56.349870,2
2021-12-24 14:37:56.349880,2
2021-12-24 14:37:56.349889,30
2021-12-24 14:37:56.349899,46
2021-12-24 14:37:56.349908,46
2021-12-24 14:37:56.349918,32
2021-12-24 14:37:56.349927,9
2021-12-24 14:37:56.349937,0
2021-12-24 14:37:56.349946,9
2021-12-24 14:37:56.349956,6
2021-12-24 14:37:56.349965,34
2021-12-24 14:37:56.349975,221
2021-12-24 14:37:56.349984,605
2021-12-24 14:37:56.349994,944
2021-12-24 14:37:56.350003,647
2021-12-24 14:37:56.350013,-353
2021-12-24 14:37:56.350022,-795
2021-12-24 14:37:56.350032,-195
2021-12-24 14:37:56.350042,137
2021-12-24 14:37:56.350051,-62
2021-12-24 14:37:56.350061,-9
2021-12-24 14:37:56.350071,137
2021-12-24 14:37:56.350080,83
2021-12-24 14:37:56.350089,58
2021-12-24 14:37:56.350099,107
2021-12-24 14:37:56.350108,121
2021-12-24 14:37:56.665079,123
2021-12-24 14:37:56.665102,134
2021-12-24 14:37:56.665110,130
2021-12-24 14:37:56.665116,111
2021-12-24 14:37:56.665122,100
2021-12-24 14:37:56.665129,116
2021-12-24 14:37:56.665135,139
2021-12-24 14:37:56.665141,155
2021-12-24 14:37:56.665148,162
2021-12-24 14:37:56.665154,146
2021-12-24 14:37:56.665160,158
2021-12-24 14:37:56.665167,209
2021-12-24 14:37:56.665173,239
2021-12-24 14:37:56.665179,246
2021-12-24 14:37:56.665185,251
2021-12-24 14:37:56.665192,225
2021-12-24 14:37:56.665198,195
2021-12-24 14:37:56.665204,169
2021-12-24 14:37:56.665210,102
2021-12-24 14:37:56.665216,20
2021-12-24 14:37:56.665223,-44
2021-12-24 14:37:56.665229,-111
2021-12-24 14:37:56.665235,-162
2021-12-24 14:37:56.665250,-179
2021-12-24 14:37:56.665256,-183
2021-12-24 14:37:56.665263,-188
2021-12-24 14:37:56.665269,-200
2021-12-24 14:37:56.665275,-214
2021-12-24 14:37:56.665281,-202
2021-12-24 14:37:56.665287,-169
2021-12-24 14:37:56.799741,-148
2021-12-24 14:37:56.799773,-134
2021-12-24 14:37:56.799781,-132
2021-12-24 14:37:56.799787,-139
2021-12-24 14:37:56.799793,-128
2021-12-24 14:37:56.799800,-97
2021-12-24 14:37:56.799811,-81
2021-12-24 14:37:56.799861,-74
2021-12-24 14:37:56.799873,-81
2021-12-24 14:37:56.799880,-123
2021-12-24 14:37:56.799887,-137
2021-12-24 14:37:56.799916,-102
2021-12-24 14:37:56.799934,-79
2021-12-24 14:37:56.799941,-86
2021-12-24 14:37:56.799948,-114
2021-12-24 14:37:56.799955,-137
2021-12-24 14:37:56.799983,-118
2021-12-24 14:37:56.799993,-88
2021-12-24 14:37:56.799999,-76
2021-12-24 14:37:56.800006,-72
2021-12-24 14:37:56.800012,-81
2021-12-24 14:37:56.800018,-97
2021-12-24 14:37:56.800024,-81
2021-12-24 14:37:56.800030,-51
2021-12-24 14:37:56.800036,-39
2021-12-24 14:37:56.800043,-37
2021-12-24 14:37:56.800049,-58
2021-12-24 14:37:56.800055,-69
2021-12-24 14:37:56.800062,-41
2021-12-24 14:37:56.800068,-20
2021-12-24 14:37:57.025479,-20
2021-12-24 14:37:57.025510,-18
2021-12-24 14:37:57.025521,-23
2021-12-24 14:37:57.025531,-16
2021-12-24 14:37:57.025541,23
2021-12-24 14:37:57.025550,53
2021-12-24 14:37:57.025560,60
2021-12-24 14:37:57.025569,46
2021-12-24 14:37:57.025579,11
2021-12-24 14:37:57.025588,-11
2021-12-24 14:37:57.025598,4
2021-12-24 14:37:57.025607,27
2021-12-24 14:37:57.025616,32
2021-12-24 14:37:57.025626,16
2021-12-24 14:37:57.025635,-6
2021-12-24 14:37:57.025645,-6
2021-12-24 14:37:57.025654,16
2021-12-24 14:37:57.025664,32
2021-12-24 14:37:57.025673,34
2021-12-24 14:37:57.025683,32
2021-12-24 14:37:57.025692,6
2021-12-24 14:37:57.025702,20
2021-12-24 14:37:57.025711,204
2021-12-24 14:37:57.025720,609
2021-12-24 14:37:57.025747,926
2021-12-24 14:37:57.025753,470
2021-12-24 14:37:57.025759,-626
2021-12-24 14:37:57.025765,-937
2021-12-24 14:37:57.025772,-246
2021-12-24 14:37:57.025778,55
2021-12-24 14:37:57.250456,-155
2021-12-24 14:37:57.250486,-111
2021-12-24 14:37:57.250498,13
2021-12-24 14:37:57.250508,-39
2021-12-24 14:37:57.250518,-41
2021-12-24 14:37:57.250528,20
2021-12-24 14:37:57.250537,11
2021-12-24 14:37:57.250547,-23
2021-12-24 14:37:57.250556,-6
2021-12-24 14:37:57.250566,27
2021-12-24 14:37:57.250576,46
2021-12-24 14:37:57.250585,76
2021-12-24 14:37:57.250595,97
2021-12-24 14:37:57.250604,83
2021-12-24 14:37:57.250614,65
2021-12-24 14:37:57.250623,67
2021-12-24 14:37:57.250633,111
2021-12-24 14:37:57.250642,167
2021-12-24 14:37:57.250652,200
2021-12-24 14:37:57.250662,218
2021-12-24 14:37:57.250671,237
2021-12-24 14:37:57.250681,249
2021-12-24 14:37:57.250690,251
2021-12-24 14:37:57.250700,228
2021-12-24 14:37:57.250709,165
2021-12-24 14:37:57.250719,95
2021-12-24 14:37:57.250728,37
2021-12-24 14:37:57.250738,-23
2021-12-24 14:37:57.250747,-67
2021-12-24 14:37:57.250757,-88
2021-12-24 14:37:57.474966,-118
2021-12-24 14:37:57.474995,-148
2021-12-24 14:37:57.475007,-151
2021-12-24 14:37:57.475016,-139
2021-12-24 14:37:57.475026,-139
2021-12-24 14:37:57.475036,-139
2021-12-24 14:37:57.475045,-141
2021-12-24 14:37:57.475055,-139
2021-12-24 14:37:57.475064,-121
2021-12-24 14:37:57.475074,-109
2021-12-24 14:37:57.475083,-100
2021-12-24 14:37:57.475093,-86
2021-12-24 14:37:57.475103,-107
2021-12-24 14:37:57.475112,-128
2021-12-24 14:37:57.475122,-102
2021-12-24 14:37:57.475131,-76
2021-12-24 14:37:57.475141,-65
2021-12-24 14:37:57.475150,-53
2021-12-24 14:37:57.475160,-41
2021-12-24 14:37:57.475169,-34
2021-12-24 14:37:57.475179,-30
2021-12-24 14:37:57.475188,-25
2021-12-24 14:37:57.475198,-11
2021-12-24 14:37:57.475208,0
2021-12-24 14:37:57.475217,-6
2021-12-24 14:37:57.475227,-20
2021-12-24 14:37:57.475236,-32
2021-12-24 14:37:57.475246,-30
2021-12-24 14:37:57.475256,-2
2021-12-24 14:37:57.475265,6
2021-12-24 14:37:57.699713,-9
2021-12-24 14:37:57.699733,4
2021-12-24 14:37:57.699741,25
2021-12-24 14:37:57.699747,20
2021-12-24 14:37:57.699754,13
2021-12-24 14:37:57.699762,4
2021-12-24 14:37:57.699768,-18
2021-12-24 14:37:57.699775,-6
2021-12-24 14:37:57.699781,23
2021-12-24 14:37:57.699788,44
2021-12-24 14:37:57.699794,58
2021-12-24 14:37:57.699800,39
2021-12-24 14:37:57.699806,13
2021-12-24 14:37:57.699813,25
2021-12-24 14:37:57.699819,27
2021-12-24 14:37:57.699825,2
2021-12-24 14:37:57.699832,0
2021-12-24 14:37:57.699841,2
2021-12-24 14:37:57.699852,-6
2021-12-24 14:37:57.699864,-25
2021-12-24 14:37:57.699898,-88
2021-12-24 14:37:57.699908,-130
2021-12-24 14:37:57.699919,-111
2021-12-24 14:37:57.699928,-118
2021-12-24 14:37:57.699935,-160
2021-12-24 14:37:57.699941,-146
2021-12-24 14:37:57.699947,16
2021-12-24 14:37:57.699953,393
2021-12-24 14:37:57.699959,770
2021-12-24 14:37:57.699966,549
2021-12-24 14:37:57.968766,-430
2021-12-24 14:37:57.968788,-998
2021-12-24 14:37:57.968795,-439
2021-12-24 14:37:57.968802,25
2021-12-24 14:37:57.968808,-162
2021-12-24 14:37:57.968815,-193
2021-12-24 14:37:57.968821,-16
2021-12-24 14:37:57.968827,-23
2021-12-24 14:37:57.968833,-55
2021-12-24 14:37:57.968839,-4
2021-12-24 14:37:57.968846,-2
2021-12-24 14:37:57.968852,-27
2021-12-24 14:37:57.968858,2
2021-12-24 14:37:57.968865,37
2021-12-24 14:37:57.968871,62
2021-12-24 14:37:57.968877,109
2021-12-24 14:37:57.968883,132
2021-12-24 14:37:57.968889,128
2021-12-24 14:37:57.968895,167
2021-12-24 14:37:57.968902,237
2021-12-24 14:37:57.968908,283
2021-12-24 14:37:57.968914,309
2021-12-24 14:37:57.968920,325
2021-12-24 14:37:57.968927,353
2021-12-24 14:37:57.968933,384
2021-12-24 14:37:57.968939,379
2021-12-24 14:37:57.968945,370
2021-12-24 14:37:57.968951,360
2021-12-24 14:37:57.968957,311
2021-12-24 14:37:57.968963,239
2021-12-24 14:37:58.149872,174
2021-12-24 14:37:58.149901,95
2021-12-24 14:37:58.149913,9
2021-12-24 14:37:58.149923,-51
2021-12-24 14:37:58.149932,-100
2021-12-24 14:37:58.149942,-137
2021-12-24 14:37:58.149951,-132
2021-12-24 14:37:58.149961,-109
2021-12-24 14:37:58.149970,-107
2021-12-24 14:37:58.149980,-130
2021-12-24 14:37:58.149989,-160
2021-12-24 14:37:58.149999,-146
2021-12-24 14:37:58.150009,-104
2021-12-24 14:37:58.150018,-93
2021-12-24 14:37:58.150028,-83
2021-12-24 14:37:58.150037,-72
2021-12-24 14:37:58.150047,-72
2021-12-24 14:37:58.150056,-58
2021-12-24 14:37:58.150066,-46
2021-12-24 14:37:58.150075,-41
2021-12-24 14:37:58.150085,-23
2021-12-24 14:37:58.150094,-13
2021-12-24 14:37:58.150104,-18
2021-12-24 14:37:58.150113,-9
2021-12-24 14:37:58.150122,11
2021-12-24 14:37:58.150132,-18
2021-12-24 14:37:58.150142,-79
2021-12-24 14:37:58.150151,-76
2021-12-24 14:37:58.150160,-41
2021-12-24 14:37:58.150170,-44
2021-12-24 14:37:58.420419,-39
2021-12-24 14:37:58.420449,-13
2021-12-24 14:37:58.420461,-39
2021-12-24 14:37:58.420471,-111
2021-12-24 14:37:58.420480,-139
2021-12-24 14:37:58.420490,-95
2021-12-24 14:37:58.420499,-55
2021-12-24 14:37:58.420509,-32
2021-12-24 14:37:58.420519,-25
2021-12-24 14:37:58.420528,-51
2021-12-24 14:37:58.420538,-72
2021-12-24 14:37:58.420547,-74
2021-12-24 14:37:58.420557,-81
2021-12-24 14:37:58.420566,-74
2021-12-24 14:37:58.420575,-67
2021-12-24 14:37:58.420585,-90
2021-12-24 14:37:58.420594,-116
2021-12-24 14:37:58.420604,-116
2021-12-24 14:37:58.420613,-141
2021-12-24 14:37:58.420623,-176
2021-12-24 14:37:58.420632,-160
2021-12-24 14:37:58.420641,-137
2021-12-24 14:37:58.420651,-153
2021-12-24 14:37:58.420660,-174
2021-12-24 14:37:58.420670,-146
2021-12-24 14:37:58.420679,44
2021-12-24 14:37:58.420689,446
2021-12-24 14:37:58.420698,809
2021-12-24 14:37:58.420707,572
2021-12-24 14:37:58.420717,-384
2021-12-24 14:37:58.644939,-903
2021-12-24 14:37:58.644970,-328
2021-12-24 14:37:58.644981,132
2021-12-24 14:37:58.644992,-48
2021-12-24 14:37:58.645001,-90
2021-12-24 14:37:58.645011,44
2021-12-24 14:37:58.645021,48
2021-12-24 14:37:58.645030,55
2021-12-24 14:37:58.645040,74
2021-12-24 14:37:58.645049,37
2021-12-24 14:37:58.645059,41
2021-12-24 14:37:58.645069,83
2021-12-24 14:37:58.645078,109
2021-12-24 14:37:58.645088,141
2021-12-24 14:37:58.645097,146
2021-12-24 14:37:58.645107,118
2021-12-24 14:37:58.645116,144
2021-12-24 14:37:58.645130,218
2021-12-24 14:37:58.645140,274
2021-12-24 14:37:58.645150,297
2021-12-24 14:37:58.645160,309
2021-12-24 14:37:58.645170,346
2021-12-24 14:37:58.645179,386
2021-12-24 14:37:58.645189,386
2021-12-24 14:37:58.645199,393
2021-12-24 14:37:58.645208,416
2021-12-24 14:37:58.645217,384
2021-12-24 14:37:58.645227,311
2021-12-24 14:37:58.645236,251
2021-12-24 14:37:58.645246,204
2021-12-24 14:37:58.870122,125
2021-12-24 14:37:58.870143,6
2021-12-24 14:37:58.870151,-65
2021-12-24 14:37:58.870158,-72
2021-12-24 14:37:58.870164,-95
2021-12-24 14:37:58.870170,-130
2021-12-24 14:37:58.870176,-144
2021-12-24 14:37:58.870183,-162
2021-12-24 14:37:58.870189,-207
2021-12-24 14:37:58.870195,-223
2021-12-24 14:37:58.870201,-181
2021-12-24 14:37:58.870207,-125
2021-12-24 14:37:58.870213,-114
2021-12-24 14:37:58.870220,-134
2021-12-24 14:37:58.870226,-137
2021-12-24 14:37:58.870232,-139
2021-12-24 14:37:58.870238,-137
2021-12-24 14:37:58.870244,-90
2021-12-24 14:37:58.870250,-58
2021-12-24 14:37:58.870257,-95
2021-12-24 14:37:58.870263,-125
2021-12-24 14:37:58.870269,-95
2021-12-24 14:37:58.870275,-46
2021-12-24 14:37:58.870281,-41
2021-12-24 14:37:58.870287,-53
2021-12-24 14:37:58.870294,-25
2021-12-24 14:37:58.870300,9
2021-12-24 14:37:58.870306,16
2021-12-24 14:37:58.870312,18
2021-12-24 14:37:58.870319,25
2021-12-24 14:37:59.229800,23
2021-12-24 14:37:59.229830,18
2021-12-24 14:37:59.229841,30
2021-12-24 14:37:59.229851,41
2021-12-24 14:37:59.229861,51
2021-12-24 14:37:59.229870,60
2021-12-24 14:37:59.229880,51
2021-12-24 14:37:59.229889,2
2021-12-24 14:37:59.229898,-58
2021-12-24 14:37:59.229908,-95
2021-12-24 14:37:59.229917,-104
2021-12-24 14:37:59.229926,-95
2021-12-24 14:37:59.229936,-97
2021-12-24 14:37:59.229945,-146
2021-12-24 14:37:59.229955,-176
2021-12-24 14:37:59.229964,-139
2021-12-24 14:37:59.229974,-116
2021-12-24 14:37:59.229983,-134
2021-12-24 14:37:59.229992,-125
2021-12-24 14:37:59.230002,-132
2021-12-24 14:37:59.230011,-162
2021-12-24 14:37:59.230020,13
2021-12-24 14:37:59.230030,428
2021-12-24 14:37:59.230039,688
2021-12-24 14:37:59.230048,351
2021-12-24 14:37:59.230058,-465
2021-12-24 14:37:59.230068,-756
2021-12-24 14:37:59.230077,-218
2021-12-24 14:37:59.230086,97
2021-12-24 14:37:59.230096,-53
2021-12-24 14:37:59.410015,-34
2021-12-24 14:37:59.410045,86
2021-12-24 14:37:59.410057,55
2021-12-24 14:37:59.410067,41
2021-12-24 14:37:59.410076,104
2021-12-24 14:37:59.410086,123
2021-12-24 14:37:59.410095,90
2021-12-24 14:37:59.410105,74
2021-12-24 14:37:59.410114,86
2021-12-24 14:37:59.410124,114
2021-12-24 14:37:59.410133,130
2021-12-24 14:37:59.410143,132
2021-12-24 14:37:59.410152,160
2021-12-24 14:37:59.410162,190
2021-12-24 14:37:59.410172,197
2021-12-24 14:37:59.410181,218
2021-12-24 14:37:59.410191,265
2021-12-24 14:37:59.410200,304
2021-12-24 14:37:59.410210,302
2021-12-24 14:37:59.410219,297
2021-12-24 14:37:59.410229,325
2021-12-24 14:37:59.410238,342
2021-12-24 14:37:59.410248,309
2021-12-24 14:37:59.410257,246
2021-12-24 14:37:59.410267,176
2021-12-24 14:37:59.410277,111
2021-12-24 14:37:59.410286,55
2021-12-24 14:37:59.410296,2
2021-12-24 14:37:59.410305,-39
2021-12-24 14:37:59.410315,-83
2021-12-24 14:37:59.545301,-111
2021-12-24 14:37:59.545323,-104
2021-12-24 14:37:59.545330,-116
2021-12-24 14:37:59.545337,-132
2021-12-24 14:37:59.545343,-104
2021-12-24 14:37:59.545349,-72
2021-12-24 14:37:59.545356,-72
2021-12-24 14:37:59.545362,-81
2021-12-24 14:37:59.545368,-88
2021-12-24 14:37:59.545374,-58
2021-12-24 14:37:59.545381,0
2021-12-24 14:37:59.545387,11
2021-12-24 14:37:59.545393,-25
2021-12-24 14:37:59.545400,-48
2021-12-24 14:37:59.545406,-37
2021-12-24 14:37:59.545412,-32
2021-12-24 14:37:59.545418,-44
2021-12-24 14:37:59.545425,-46
2021-12-24 14:37:59.545431,-55
2021-12-24 14:37:59.545437,-53
2021-12-24 14:37:59.545443,-20
2021-12-24 14:37:59.545450,-20
2021-12-24 14:37:59.545456,-60
2021-12-24 14:37:59.545462,-67
2021-12-24 14:37:59.545468,-39
2021-12-24 14:37:59.545475,-16
2021-12-24 14:37:59.545481,-11
2021-12-24 14:37:59.545487,-13
2021-12-24 14:37:59.545493,-6
2021-12-24 14:37:59.545500,-13
2021-12-24 14:37:59.770446,-25
2021-12-24 14:37:59.770476,-13
2021-12-24 14:37:59.770487,-4
2021-12-24 14:37:59.770497,-9
2021-12-24 14:37:59.770507,-13
2021-12-24 14:37:59.770516,-25
2021-12-24 14:37:59.770526,-55
2021-12-24 14:37:59.770535,-69
2021-12-24 14:37:59.770545,-60
2021-12-24 14:37:59.770554,-58
2021-12-24 14:37:59.770563,-72
2021-12-24 14:37:59.770573,-116
2021-12-24 14:37:59.770582,-123
2021-12-24 14:37:59.770591,34
2021-12-24 14:37:59.770601,335
2021-12-24 14:37:59.770610,444
2021-12-24 14:37:59.770620,-107
2021-12-24 14:37:59.770629,-907
2021-12-24 14:37:59.770639,-865
2021-12-24 14:37:59.770648,-260
2021-12-24 14:37:59.770658,-137
2021-12-24 14:37:59.770667,-253
2021-12-24 14:37:59.770677,-130
2021-12-24 14:37:59.770687,-60
2021-12-24 14:37:59.770696,-107
2021-12-24 14:37:59.770706,-76
2021-12-24 14:37:59.770715,-39
2021-12-24 14:37:59.770724,-46
2021-12-24 14:37:59.770734,-23
2021-12-24 14:37:59.770743,18
2021-12-24 14:38:00.039077,39
2021-12-24 14:38:00.039107,55
2021-12-24 14:38:00.039119,97
2021-12-24 14:38:00.039129,111
2021-12-24 14:38:00.039139,83
2021-12-24 14:38:00.039148,102
2021-12-24 14:38:00.039158,176
2021-12-24 14:38:00.039167,228
2021-12-24 14:38:00.039177,235
2021-12-24 14:38:00.039187,237
2021-12-24 14:38:00.039196,242
2021-12-24 14:38:00.039206,244
2021-12-24 14:38:00.039215,260
2021-12-24 14:38:00.039225,260
2021-12-24 14:38:00.039234,223
2021-12-24 14:38:00.039244,174
2021-12-24 14:38:00.039253,114
2021-12-24 14:38:00.039263,37
2021-12-24 14:38:00.039273,-20
2021-12-24 14:38:00.039282,-58
2021-12-24 14:38:00.039292,-83
2021-12-24 14:38:00.039302,-109
2021-12-24 14:38:00.039311,-144
2021-12-24 14:38:00.039321,-141
2021-12-24 14:38:00.039330,-93
2021-12-24 14:38:00.039340,-67
2021-12-24 14:38:00.039350,-88
2021-12-24 14:38:00.039359,-109
2021-12-24 14:38:00.039369,-100
2021-12-24 14:38:00.039379,-58
2021-12-24 14:38:00.264746,-32
2021-12-24 14:38:00.264772,-25
2021-12-24 14:38:00.264781,-13
2021-12-24 14:38:00.264788,-44
2021-12-24 14:38:00.264794,-88
2021-12-24 14:38:00.264801,-69
2021-12-24 14:38:00.264807,-39
2021-12-24 14:38:00.264813,-34
2021-12-24 14:38:00.264820,-37
2021-12-24 14:38:00.264827,-67
2021-12-24 14:38:00.264833,-93
2021-12-24 14:38:00.264839,-62
2021-12-24 14:38:00.264846,-55
2021-12-24 14:38:00.264852,-74
2021-12-24 14:38:00.264859,-32
2021-12-24 14:38:00.264865,13
2021-12-24 14:38:00.264872,2
2021-12-24 14:38:00.264878,2
2021-12-24 14:38:00.264884,11
2021-12-24 14:38:00.264891,-37
2021-12-24 14:38:00.264897,-95
2021-12-24 14:38:00.264904,-95
2021-12-24 14:38:00.264910,-69
2021-12-24 14:38:00.264917,-58
2021-12-24 14:38:00.264923,-48
2021-12-24 14:38:00.264930,-30
2021-12-24 14:38:00.264936,-32
2021-12-24 14:38:00.264942,-51
2021-12-24 14:38:00.264949,-46
2021-12-24 14:38:00.264955,-13
2021-12-24 14:38:00.490446,16
2021-12-24 14:38:00.490477,23
2021-12-24 14:38:00.490489,41
2021-12-24 14:38:00.490499,165
2021-12-24 14:38:00.490508,449
2021-12-24 14:38:00.490518,712
2021-12-24 14:38:00.490528,463
2021-12-24 14:38:00.490538,-321
2021-12-24 14:38:00.490548,-677
2021-12-24 14:38:00.490557,-209
2021-12-24 14:38:00.490567,123
2021-12-24 14:38:00.490577,-2
2021-12-24 14:38:00.490587,9
2021-12-24 14:38:00.490596,134
2021-12-24 14:38:00.490606,79
2021-12-24 14:38:00.490616,18
2021-12-24 14:38:00.490625,72
2021-12-24 14:38:00.490635,111
2021-12-24 14:38:00.490645,107
2021-12-24 14:38:00.490654,97
2021-12-24 14:38:00.490664,95
2021-12-24 14:38:00.490674,97
2021-12-24 14:38:00.490684,109
2021-12-24 14:38:00.490693,132
2021-12-24 14:38:00.490703,130
2021-12-24 14:38:00.490713,137
2021-12-24 14:38:00.490722,165
2021-12-24 14:38:00.490732,162
2021-12-24 14:38:00.490742,172
2021-12-24 14:38:00.490752,214
2021-12-24 14:38:00.714702,239
2021-12-24 14:38:00.714724,237
2021-12-24 14:38:00.714732,230
2021-12-24 14:38:00.714738,214
2021-12-24 14:38:00.714745,186
2021-12-24 14:38:00.714751,151
2021-12-24 14:38:00.714757,102
2021-12-24 14:38:00.714764,20
2021-12-24 14:38:00.714770,-74
2021-12-24 14:38:00.714776,-123
2021-12-24 14:38:00.714783,-139
2021-12-24 14:38:00.714789,-160
2021-12-24 14:38:00.714795,-179
2021-12-24 14:38:00.714802,-200
2021-12-24 14:38:00.714808,-230
2021-12-24 14:38:00.714814,-232
2021-12-24 14:38:00.714820,-204
2021-12-24 14:38:00.714827,-188
2021-12-24 14:38:00.714833,-181
2021-12-24 14:38:00.714839,-160
2021-12-24 14:38:00.714845,-160
2021-12-24 14:38:00.714852,-174
2021-12-24 14:38:00.714858,-176
2021-12-24 14:38:00.714864,-186
2021-12-24 14:38:00.714870,-218
2021-12-24 14:38:00.714877,-263
2021-12-24 14:38:00.714883,-260
2021-12-24 14:38:00.714889,-214
2021-12-24 14:38:00.714896,-193
2021-12-24 14:38:00.714902,-190
2021-12-24 14:38:00.940471,-174
2021-12-24 14:38:00.940501,-176
2021-12-24 14:38:00.940512,-186
2021-12-24 14:38:00.940522,-167
2021-12-24 14:38:00.940532,-130
2021-12-24 14:38:00.940542,-100
2021-12-24 14:38:00.940551,-95
2021-12-24 14:38:00.940561,-123
2021-12-24 14:38:00.940571,-144
2021-12-24 14:38:00.940580,-144
2021-12-24 14:38:00.940590,-132
2021-12-24 14:38:00.940600,-107
2021-12-24 14:38:00.940609,-102
2021-12-24 14:38:00.940619,-128
2021-12-24 14:38:00.940633,-134
2021-12-24 14:38:00.940643,-123
2021-12-24 14:38:00.940653,-109
2021-12-24 14:38:00.940662,-90
2021-12-24 14:38:00.940672,-83
2021-12-24 14:38:00.940682,-90
2021-12-24 14:38:00.940691,-88
2021-12-24 14:38:00.940701,-79
2021-12-24 14:38:00.940711,-9
2021-12-24 14:38:00.940720,223
2021-12-24 14:38:00.940730,544
2021-12-24 14:38:00.940740,574
2021-12-24 14:38:00.940750,-13
2021-12-24 14:38:00.940759,-684
2021-12-24 14:38:00.940769,-532
2021-12-24 14:38:00.940779,18
2021-12-24 14:38:01.164948,53
2021-12-24 14:38:01.164968,-76
2021-12-24 14:38:01.164975,46
2021-12-24 14:38:01.164982,88
2021-12-24 14:38:01.164988,34
2021-12-24 14:38:01.164995,76
2021-12-24 14:38:01.165001,95
2021-12-24 14:38:01.165007,55
2021-12-24 14:38:01.165014,72
2021-12-24 14:38:01.165020,107
2021-12-24 14:38:01.165026,111
2021-12-24 14:38:01.165032,128
2021-12-24 14:38:01.165039,134
2021-12-24 14:38:01.165045,134
2021-12-24 14:38:01.165051,167
2021-12-24 14:38:01.165057,200
2021-12-24 14:38:01.165064,221
2021-12-24 14:38:01.165071,260
2021-12-24 14:38:01.165078,286
2021-12-24 14:38:01.165084,297
2021-12-24 14:38:01.165090,314
2021-12-24 14:38:01.165096,323
2021-12-24 14:38:01.165102,311
2021-12-24 14:38:01.165109,288
2021-12-24 14:38:01.165115,251
2021-12-24 14:38:01.165121,190
2021-12-24 14:38:01.165128,95
2021-12-24 14:38:01.165134,-13
2021-12-24 14:38:01.165140,-79
2021-12-24 14:38:01.165146,-132
2021-12-24 14:38:01.435000,-223
2021-12-24 14:38:01.435030,-274
2021-12-24 14:38:01.435042,-274
2021-12-24 14:38:01.435052,-307
2021-12-24 14:38:01.435062,-339
2021-12-24 14:38:01.435071,-337
2021-12-24 14:38:01.435081,-342
2021-12-24 14:38:01.435091,-335
2021-12-24 14:38:01.435100,-314
2021-12-24 14:38:01.435110,-307
2021-12-24 14:38:01.435120,-304
2021-12-24 14:38:01.435130,-316
2021-12-24 14:38:01.435140,-328
2021-12-24 14:38:01.435150,-307
2021-12-24 14:38:01.435159,-286
2021-12-24 14:38:01.435169,-290
2021-12-24 14:38:01.435179,-279
2021-12-24 14:38:01.435188,-267
2021-12-24 14:38:01.435198,-265
2021-12-24 14:38:01.435208,-249
2021-12-24 14:38:01.435218,-230
2021-12-24 14:38:01.435227,-228
2021-12-24 14:38:01.435237,-225
2021-12-24 14:38:01.435246,-221
2021-12-24 14:38:01.435256,-197
2021-12-24 14:38:01.435266,-155
2021-12-24 14:38:01.435275,-132
2021-12-24 14:38:01.435285,-130
2021-12-24 14:38:01.435295,-134
2021-12-24 14:38:01.435304,-153
2021-12-24 14:38:01.749785,-169
2021-12-24 14:38:01.749815,-162
2021-12-24 14:38:01.749827,-169
2021-12-24 14:38:01.749837,-216
2021-12-24 14:38:01.749846,-260
2021-12-24 14:38:01.749856,-272
2021-12-24 14:38:01.749866,-207
2021-12-24 14:38:01.749875,-95
2021-12-24 14:38:01.749885,-69
2021-12-24 14:38:01.749894,-90
2021-12-24 14:38:01.749904,-93
2021-12-24 14:38:01.749914,-118
2021-12-24 14:38:01.749923,-95
2021-12-24 14:38:01.749933,125
2021-12-24 14:38:01.749943,530
2021-12-24 14:38:01.749952,805
2021-12-24 14:38:01.749962,379
2021-12-24 14:38:01.749971,-605
2021-12-24 14:38:01.749981,-863
2021-12-24 14:38:01.749991,-190
2021-12-24 14:38:01.750000,100
2021-12-24 14:38:01.750010,-93
2021-12-24 14:38:01.750020,-37
2021-12-24 14:38:01.750029,86
2021-12-24 14:38:01.750039,46
2021-12-24 14:38:01.750048,62
2021-12-24 14:38:01.750058,121
2021-12-24 14:38:01.750067,114
2021-12-24 14:38:01.750077,102
2021-12-24 14:38:01.750087,132
2021-12-24 14:38:01.839429,153
2021-12-24 14:38:01.839448,146
2021-12-24 14:38:01.839456,155
2021-12-24 14:38:01.839462,181
2021-12-24 14:38:01.839469,197
2021-12-24 14:38:01.839475,197
2021-12-24 14:38:01.839481,204
2021-12-24 14:38:01.839488,251
2021-12-24 14:38:01.839494,304
2021-12-24 14:38:01.839500,311
2021-12-24 14:38:01.839506,295
2021-12-24 14:38:01.839512,293
2021-12-24 14:38:01.839519,304
2021-12-24 14:38:01.839525,300
2021-12-24 14:38:01.839531,267
2021-12-24 14:38:01.839537,202
2021-12-24 14:38:01.839543,123
2021-12-24 14:38:01.839549,58
2021-12-24 14:38:01.839556,11
2021-12-24 14:38:01.839562,-37
2021-12-24 14:38:01.839568,-79
2021-12-24 14:38:01.839574,-118
2021-12-24 14:38:01.839581,-146
2021-12-24 14:38:01.839587,-144
2021-12-24 14:38:01.839593,-128
2021-12-24 14:38:01.839599,-118
2021-12-24 14:38:01.839605,-116
2021-12-24 14:38:01.839611,-123
2021-12-24 14:38:01.839618,-125
2021-12-24 14:38:01.839624,-116
2021-12-24 14:38:02.154583,-118
2021-12-24 14:38:02.154604,-123
2021-12-24 14:38:02.154612,-125
2021-12-24 14:38:02.154618,-165
2021-12-24 14:38:02.154625,-211
2021-12-24 14:38:02.154631,-204
2021-12-24 14:38:02.154637,-186
2021-12-24 14:38:02.154643,-200
2021-12-24 14:38:02.154649,-218
2021-12-24 14:38:02.154656,-244
2021-12-24 14:38:02.154662,-267
2021-12-24 14:38:02.154668,-256
2021-12-24 14:38:02.154674,-228
2021-12-24 14:38:02.154681,-204
2021-12-24 14:38:02.154687,-181
2021-12-24 14:38:02.154693,-169
2021-12-24 14:38:02.154699,-160
2021-12-24 14:38:02.154706,-141
2021-12-24 14:38:02.154712,-134
2021-12-24 14:38:02.154718,-137
2021-12-24 14:38:02.154724,-137
2021-12-24 14:38:02.154730,-141
2021-12-24 14:38:02.154736,-132
2021-12-24 14:38:02.154742,-111
2021-12-24 14:38:02.154748,-95
2021-12-24 14:38:02.154755,-86
2021-12-24 14:38:02.154761,-81
2021-12-24 14:38:02.154767,-83
2021-12-24 14:38:02.154773,-74
2021-12-24 14:38:02.154779,-48
2021-12-24 14:38:02.379849,-46
2021-12-24 14:38:02.379879,-32
2021-12-24 14:38:02.379891,128
2021-12-24 14:38:02.379901,509
2021-12-24 14:38:02.379911,886
2021-12-24 14:38:02.379921,628
2021-12-24 14:38:02.379930,-393
2021-12-24 14:38:02.379940,-917
2021-12-24 14:38:02.379950,-342
2021-12-24 14:38:02.379959,67
2021-12-24 14:38:02.379969,-109
2021-12-24 14:38:02.379979,-121
2021-12-24 14:38:02.379988,-4
2021-12-24 14:38:02.379998,-39
2021-12-24 14:38:02.380008,-72
2021-12-24 14:38:02.380017,-51
2021-12-24 14:38:02.380027,-30
2021-12-24 14:38:02.380036,-2
2021-12-24 14:38:02.380046,32
2021-12-24 14:38:02.380056,53
2021-12-24 14:38:02.380066,53
2021-12-24 14:38:02.380075,60
2021-12-24 14:38:02.380085,97
2021-12-24 14:38:02.380095,146
2021-12-24 14:38:02.380104,190
2021-12-24 14:38:02.380114,235
2021-12-24 14:38:02.380124,267
2021-12-24 14:38:02.380133,290
2021-12-24 14:38:02.380143,328
2021-12-24 14:38:02.380153,367
2021-12-24 14:38:02.560032,384
2021-12-24 14:38:02.560062,384
2021-12-24 14:38:02.560073,358
2021-12-24 14:38:02.560083,311
2021-12-24 14:38:02.560093,253
2021-12-24 14:38:02.560103,193
2021-12-24 14:38:02.560113,114
2021-12-24 14:38:02.560122,11
2021-12-24 14:38:02.560132,-76
2021-12-24 14:38:02.560142,-116
2021-12-24 14:38:02.560151,-123
2021-12-24 14:38:02.560161,-125
2021-12-24 14:38:02.560171,-121
2021-12-24 14:38:02.560181,-134
2021-12-24 14:38:02.560190,-167
2021-12-24 14:38:02.560200,-172
2021-12-24 14:38:02.560210,-141
2021-12-24 14:38:02.560220,-118
2021-12-24 14:38:02.560229,-107
2021-12-24 14:38:02.560239,-102
2021-12-24 14:38:02.560248,-109
2021-12-24 14:38:02.560258,-102
2021-12-24 14:38:02.560268,-79
2021-12-24 14:38:02.560277,-60
2021-12-24 14:38:02.560286,-53
2021-12-24 14:38:02.560296,-48
2021-12-24 14:38:02.560306,-46
2021-12-24 14:38:02.560315,-39
2021-12-24 14:38:02.560325,-39
2021-12-24 14:38:02.560334,-48
2021-12-24 14:38:02.785113,-60
2021-12-24 14:38:02.785143,-65
2021-12-24 14:38:02.785155,-79
2021-12-24 14:38:02.785165,-100
2021-12-24 14:38:02.785175,-93
2021-12-24 14:38:02.785184,-67
2021-12-24 14:38:02.785194,-79
2021-12-24 14:38:02.785204,-130
2021-12-24 14:38:02.785213,-160
2021-12-24 14:38:02.785223,-181
2021-12-24 14:38:02.785233,-200
2021-12-24 14:38:02.785243,-186
2021-12-24 14:38:02.785253,-176
2021-12-24 14:38:02.785262,-202
2021-12-24 14:38:02.785272,-209
2021-12-24 14:38:02.785282,-186
2021-12-24 14:38:02.785292,-195
2021-12-24 14:38:02.785301,-230
2021-12-24 14:38:02.785311,-237
2021-12-24 14:38:02.785321,-214
2021-12-24 14:38:02.785330,-202
2021-12-24 14:38:02.785340,-209
2021-12-24 14:38:02.785350,-172
2021-12-24 14:38:02.785360,44
2021-12-24 14:38:02.785370,474
2021-12-24 14:38:02.785379,823
2021-12-24 14:38:02.785389,453
2021-12-24 14:38:02.785399,-600
2021-12-24 14:38:02.785409,-972
2021-12-24 14:38:02.785418,-286
2021-12-24 14:38:03.010500,72
2021-12-24 14:38:03.010529,-128
2021-12-24 14:38:03.010541,-69
2021-12-24 14:38:03.010551,74
2021-12-24 14:38:03.010561,23
2021-12-24 14:38:03.010571,20
2021-12-24 14:38:03.010580,65
2021-12-24 14:38:03.010590,41
2021-12-24 14:38:03.010600,48
2021-12-24 14:38:03.010609,93
2021-12-24 14:38:03.010619,102
2021-12-24 14:38:03.010629,93
2021-12-24 14:38:03.010639,81
2021-12-24 14:38:03.010648,95
2021-12-24 14:38:03.010658,141
2021-12-24 14:38:03.010668,183
2021-12-24 14:38:03.010677,225
2021-12-24 14:38:03.010687,272
2021-12-24 14:38:03.010697,307
2021-12-24 14:38:03.010706,332
2021-12-24 14:38:03.010716,363
2021-12-24 14:38:03.010726,377
2021-12-24 14:38:03.010735,377
2021-12-24 14:38:03.010745,367
2021-12-24 14:38:03.010755,328
2021-12-24 14:38:03.010764,265
2021-12-24 14:38:03.010774,197
2021-12-24 14:38:03.010784,123
2021-12-24 14:38:03.010794,55
2021-12-24 14:38:03.010803,6
2021-12-24 14:38:03.235008,-34
2021-12-24 14:38:03.235038,-58
2021-12-24 14:38:03.235050,-60
2021-12-24 14:38:03.235060,-69
2021-12-24 14:38:03.235070,-76
2021-12-24 14:38:03.235079,-86
2021-12-24 14:38:03.235089,-107
2021-12-24 14:38:03.235098,-97
2021-12-24 14:38:03.235108,-72
2021-12-24 14:38:03.235117,-69
2021-12-24 14:38:03.235127,-69
2021-12-24 14:38:03.235137,-74
2021-12-24 14:38:03.235146,-97
2021-12-24 14:38:03.235156,-111
2021-12-24 14:38:03.235166,-109
2021-12-24 14:38:03.235175,-100
2021-12-24 14:38:03.235185,-88
2021-12-24 14:38:03.235194,-81
2021-12-24 14:38:03.235204,-79
2021-12-24 14:38:03.235213,-62
2021-12-24 14:38:03.235223,-48
2021-12-24 14:38:03.235232,-55
2021-12-24 14:38:03.235242,-88
2021-12-24 14:38:03.235252,-125
2021-12-24 14:38:03.235261,-134
2021-12-24 14:38:03.235271,-132
2021-12-24 14:38:03.235281,-148
2021-12-24 14:38:03.235290,-146
2021-12-24 14:38:03.235300,-123
2021-12-24 14:38:03.235310,-118
2021-12-24 14:38:03.505500,-121
2021-12-24 14:38:03.505531,-114
2021-12-24 14:38:03.505542,-125
2021-12-24 14:38:03.505552,-153
2021-12-24 14:38:03.505562,-179
2021-12-24 14:38:03.505572,-197
2021-12-24 14:38:03.505582,-193
2021-12-24 14:38:03.505591,-167
2021-12-24 14:38:03.505601,-155
2021-12-24 14:38:03.505610,-158
2021-12-24 14:38:03.505620,-160
2021-12-24 14:38:03.505630,-172
2021-12-24 14:38:03.505639,-165
2021-12-24 14:38:03.505649,-132
2021-12-24 14:38:03.505658,-134
2021-12-24 14:38:03.505668,-181
2021-12-24 14:38:03.505677,-155
2021-12-24 14:38:03.505687,104
2021-12-24 14:38:03.505696,584
2021-12-24 14:38:03.505710,842
2021-12-24 14:38:03.505720,249
2021-12-24 14:38:03.505730,-782
2021-12-24 14:38:03.505740,-842
2021-12-24 14:38:03.505749,-121
2021-12-24 14:38:03.505759,37
2021-12-24 14:38:03.505768,-146
2021-12-24 14:38:03.505778,-16
2021-12-24 14:38:03.505787,76
2021-12-24 14:38:03.505797,4
2021-12-24 14:38:03.505807,30
2021-12-24 14:38:03.685022,100
2021-12-24 14:38:03.685053,107
2021-12-24 14:38:03.685065,116
2021-12-24 14:38:03.685074,134
2021-12-24 14:38:03.685084,118
2021-12-24 14:38:03.685094,116
2021-12-24 14:38:03.685104,162
2021-12-24 14:38:03.685113,207
2021-12-24 14:38:03.685123,232
2021-12-24 14:38:03.685133,260
2021-12-24 14:38:03.685143,288
2021-12-24 14:38:03.685153,300
2021-12-24 14:38:03.685163,288
2021-12-24 14:38:03.685173,279
2021-12-24 14:38:03.685182,307
2021-12-24 14:38:03.685192,311
2021-12-24 14:38:03.685202,267
2021-12-24 14:38:03.685211,218
2021-12-24 14:38:03.685221,179
2021-12-24 14:38:03.685231,128
2021-12-24 14:38:03.685240,55
2021-12-24 14:38:03.685250,-32
2021-12-24 14:38:03.685260,-102
2021-12-24 14:38:03.685270,-137
2021-12-24 14:38:03.685279,-153
2021-12-24 14:38:03.685289,-162
2021-12-24 14:38:03.685299,-172
2021-12-24 14:38:03.685308,-209
2021-12-24 14:38:03.685318,-249
2021-12-24 14:38:03.685327,-239
2021-12-24 14:38:03.955436,-207
2021-12-24 14:38:03.955466,-193
2021-12-24 14:38:03.955478,-186
2021-12-24 14:38:03.955488,-195
2021-12-24 14:38:03.955498,-211
2021-12-24 14:38:03.955508,-188
2021-12-24 14:38:03.955518,-155
2021-12-24 14:38:03.955528,-139
2021-12-24 14:38:03.955537,-137
2021-12-24 14:38:03.955547,-155
2021-12-24 14:38:03.955557,-167
2021-12-24 14:38:03.955566,-141
2021-12-24 14:38:03.955577,-114
2021-12-24 14:38:03.955586,-102
2021-12-24 14:38:03.955596,-95
2021-12-24 14:38:03.955606,-107
2021-12-24 14:38:03.955615,-130
2021-12-24 14:38:03.955625,-132
2021-12-24 14:38:03.955635,-114
2021-12-24 14:38:03.955644,-100
2021-12-24 14:38:03.955654,-114
2021-12-24 14:38:03.955664,-137
2021-12-24 14:38:03.955673,-146
2021-12-24 14:38:03.955683,-137
2021-12-24 14:38:03.955693,-139
2021-12-24 14:38:03.955702,-141
2021-12-24 14:38:03.955712,-132
2021-12-24 14:38:03.955722,-134
2021-12-24 14:38:03.955731,-123
2021-12-24 14:38:03.955741,-90
2021-12-24 14:38:04.268741,-74
2021-12-24 14:38:04.268761,-67
2021-12-24 14:38:04.268767,-67
2021-12-24 14:38:04.268773,-74
2021-12-24 14:38:04.268778,-65
2021-12-24 14:38:04.268783,-58
2021-12-24 14:38:04.268788,-39
2021-12-24 14:38:04.268793,128
2021-12-24 14:38:04.268798,507
2021-12-24 14:38:04.268804,856
2021-12-24 14:38:04.268809,588
2021-12-24 14:38:04.268814,-411
2021-12-24 14:38:04.268819,-910
2021-12-24 14:38:04.268824,-300
2021-12-24 14:38:04.268829,107
2021-12-24 14:38:04.268834,-102
2021-12-24 14:38:04.268839,-76
2021-12-24 14:38:04.268844,107
2021-12-24 14:38:04.268849,79
2021-12-24 14:38:04.268854,65
2021-12-24 14:38:04.268859,128
2021-12-24 14:38:04.268864,109
2021-12-24 14:38:04.268869,83
2021-12-24 14:38:04.268874,123
2021-12-24 14:38:04.268879,162
2021-12-24 14:38:04.268884,174
2021-12-24 14:38:04.268889,188
2021-12-24 14:38:04.268894,209
2021-12-24 14:38:04.268900,242
2021-12-24 14:38:04.268905,290
2021-12-24 14:38:04.450114,339
2021-12-24 14:38:04.450134,381
2021-12-24 14:38:04.450142,404
2021-12-24 14:38:04.450149,384
2021-12-24 14:38:04.450155,367
2021-12-24 14:38:04.450161,425
2021-12-24 14:38:04.450167,467
2021-12-24 14:38:04.450173,416
2021-12-24 14:38:04.450180,335
2021-12-24 14:38:04.450186,260
2021-12-24 14:38:04.450192,193
2021-12-24 14:38:04.450198,128
2021-12-24 14:38:04.450205,69
2021-12-24 14:38:04.450211,18
2021-12-24 14:38:04.450217,-30
2021-12-24 14:38:04.450223,-58
2021-12-24 14:38:04.450229,-60
2021-12-24 14:38:04.450235,-53
2021-12-24 14:38:04.450242,-51
2021-12-24 14:38:04.450248,-67
2021-12-24 14:38:04.450254,-95
2021-12-24 14:38:04.450260,-90
2021-12-24 14:38:04.450266,-69
2021-12-24 14:38:04.450273,-76
2021-12-24 14:38:04.450279,-93
2021-12-24 14:38:04.450285,-86
2021-12-24 14:38:04.450291,-81
2021-12-24 14:38:04.450298,-79
2021-12-24 14:38:04.450304,-58
2021-12-24 14:38:04.450310,-37
2021-12-24 14:38:04.630046,-27
2021-12-24 14:38:04.630076,-27
2021-12-24 14:38:04.630088,-30
2021-12-24 14:38:04.630097,-25
2021-12-24 14:38:04.630107,-13
2021-12-24 14:38:04.630117,0
2021-12-24 14:38:04.630127,-6
2021-12-24 14:38:04.630136,-41
2021-12-24 14:38:04.630146,-65
2021-12-24 14:38:04.630156,-39
2021-12-24 14:38:04.630165,-9
2021-12-24 14:38:04.630175,-4
2021-12-24 14:38:04.630184,-25
2021-12-24 14:38:04.630194,-55
2021-12-24 14:38:04.630204,-86
2021-12-24 14:38:04.630213,-111
2021-12-24 14:38:04.630223,-109
2021-12-24 14:38:04.630232,-90
2021-12-24 14:38:04.630242,-97
2021-12-24 14:38:04.630251,-121
2021-12-24 14:38:04.630261,-125
2021-12-24 14:38:04.630271,-116
2021-12-24 14:38:04.630280,-102
2021-12-24 14:38:04.630290,-83
2021-12-24 14:38:04.630299,-69
2021-12-24 14:38:04.630309,-81
2021-12-24 14:38:04.630319,-116
2021-12-24 14:38:04.630328,-81
2021-12-24 14:38:04.630338,155
2021-12-24 14:38:04.630348,584
2021-12-24 14:38:04.855528,847
2021-12-24 14:38:04.855559,335
2021-12-24 14:38:04.855570,-672
2021-12-24 14:38:04.855580,-830
2021-12-24 14:38:04.855590,-116
2021-12-24 14:38:04.855600,111
2021-12-24 14:38:04.855609,-111
2021-12-24 14:38:04.855619,-46
2021-12-24 14:38:04.855629,58
2021-12-24 14:38:04.855638,-34
2021-12-24 14:38:04.855648,-55
2021-12-24 14:38:04.855658,16
2021-12-24 14:38:04.855667,4
2021-12-24 14:38:04.855677,-13
2021-12-24 14:38:04.855687,30
2021-12-24 14:38:04.855696,62
2021-12-24 14:38:04.855706,79
2021-12-24 14:38:04.855716,116
2021-12-24 14:38:04.855725,148
2021-12-24 14:38:04.855735,174
2021-12-24 14:38:04.855745,218
2021-12-24 14:38:04.855755,260
2021-12-24 14:38:04.855764,297
2021-12-24 14:38:04.855774,339
2021-12-24 14:38:04.855783,365
2021-12-24 14:38:04.855793,379
2021-12-24 14:38:04.855802,391
2021-12-24 14:38:04.855812,365
2021-12-24 14:38:04.855822,316
2021-12-24 14:38:04.855831,276
2021-12-24 14:38:05.080012,223
2021-12-24 14:38:05.080042,151
2021-12-24 14:38:05.080054,86
2021-12-24 14:38:05.080064,25
2021-12-24 14:38:05.080074,-25
2021-12-24 14:38:05.080083,-72
2021-12-24 14:38:05.080093,-116
2021-12-24 14:38:05.080103,-128
2021-12-24 14:38:05.080112,-116
2021-12-24 14:38:05.080122,-116
2021-12-24 14:38:05.080132,-116
2021-12-24 14:38:05.080141,-118
2021-12-24 14:38:05.080151,-130
2021-12-24 14:38:05.080160,-116
2021-12-24 14:38:05.080170,-93
2021-12-24 14:38:05.080179,-88
2021-12-24 14:38:05.080189,-81
2021-12-24 14:38:05.080198,-65
2021-12-24 14:38:05.080207,-55
2021-12-24 14:38:05.080217,-41
2021-12-24 14:38:05.080227,-27
2021-12-24 14:38:05.080236,-25
2021-12-24 14:38:05.080245,-20
2021-12-24 14:38:05.080255,-18
2021-12-24 14:38:05.080264,-13
2021-12-24 14:38:05.080274,-2
2021-12-24 14:38:05.080283,-6
2021-12-24 14:38:05.080293,-25
2021-12-24 14:38:05.080302,-23
2021-12-24 14:38:05.080312,-30
2021-12-24 14:38:05.305505,-62
2021-12-24 14:38:05.305536,-86
2021-12-24 14:38:05.305548,-97
2021-12-24 14:38:05.305558,-111
2021-12-24 14:38:05.305567,-125
2021-12-24 14:38:05.305577,-132
2021-12-24 14:38:05.305587,-128
2021-12-24 14:38:05.305597,-107
2021-12-24 14:38:05.305606,-104
2021-12-24 14:38:05.305616,-123
2021-12-24 14:38:05.305625,-144
2021-12-24 14:38:05.305635,-158
2021-12-24 14:38:05.305645,-151
2021-12-24 14:38:05.305655,-169
2021-12-24 14:38:05.305664,-242
2021-12-24 14:38:05.305674,-263
2021-12-24 14:38:05.305684,-235
2021-12-24 14:38:05.305694,-286
2021-12-24 14:38:05.305703,-356
2021-12-24 14:38:05.305713,-328
2021-12-24 14:38:05.305723,-295
2021-12-24 14:38:05.305732,-297
2021-12-24 14:38:05.305742,-158
2021-12-24 14:38:05.305751,225
2021-12-24 14:38:05.305761,649
2021-12-24 14:38:05.305771,500
2021-12-24 14:38:05.305781,-467
2021-12-24 14:38:05.305790,-1052
2021-12-24 14:38:05.305800,-421
2021-12-24 14:38:05.305809,172
2021-12-24 14:38:05.575499,32
2021-12-24 14:38:05.575520,-20
2021-12-24 14:38:05.575527,121
2021-12-24 14:38:05.575534,86
2021-12-24 14:38:05.575540,25
2021-12-24 14:38:05.575546,72
2021-12-24 14:38:05.575553,109
2021-12-24 14:38:05.575559,116
2021-12-24 14:38:05.575565,141
2021-12-24 14:38:05.575571,153
2021-12-24 14:38:05.575578,141
2021-12-24 14:38:05.575584,153
2021-12-24 14:38:05.575590,202
2021-12-24 14:38:05.575596,242
2021-12-24 14:38:05.575603,269
2021-12-24 14:38:05.575609,297
2021-12-24 14:38:05.575615,325
2021-12-24 14:38:05.575621,360
2021-12-24 14:38:05.575628,402
2021-12-24 14:38:05.575634,428
2021-12-24 14:38:05.575640,432
2021-12-24 14:38:05.575646,421
2021-12-24 14:38:05.575653,400
2021-12-24 14:38:05.575659,374
2021-12-24 14:38:05.575665,335
2021-12-24 14:38:05.575671,274
2021-12-24 14:38:05.575678,202
2021-12-24 14:38:05.575684,123
2021-12-24 14:38:05.575690,53
2021-12-24 14:38:05.575696,18
2021-12-24 14:38:05.799694,2
2021-12-24 14:38:05.799716,-11
2021-12-24 14:38:05.799724,-23
2021-12-24 14:38:05.799730,-55
2021-12-24 14:38:05.799736,-79
2021-12-24 14:38:05.799743,-60
2021-12-24 14:38:05.799749,-34
2021-12-24 14:38:05.799755,-27
2021-12-24 14:38:05.799761,-30
2021-12-24 14:38:05.799768,-55
2021-12-24 14:38:05.799774,-76
2021-12-24 14:38:05.799780,-53
2021-12-24 14:38:05.799786,-27
2021-12-24 14:38:05.799793,-20
2021-12-24 14:38:05.799799,-23
2021-12-24 14:38:05.799805,-48
2021-12-24 14:38:05.799811,-74
2021-12-24 14:38:05.799818,-72
2021-12-24 14:38:05.799824,-65
2021-12-24 14:38:05.799830,-83
2021-12-24 14:38:05.799836,-132
2021-12-24 14:38:05.799843,-174
2021-12-24 14:38:05.799849,-176
2021-12-24 14:38:05.799855,-167
2021-12-24 14:38:05.799861,-174
2021-12-24 14:38:05.799868,-183
2021-12-24 14:38:05.799874,-181
2021-12-24 14:38:05.799880,-190
2021-12-24 14:38:05.799887,-193
2021-12-24 14:38:05.799893,-165
2021-12-24 14:38:06.114989,-125
2021-12-24 14:38:06.115019,-95
2021-12-24 14:38:06.115031,-93
2021-12-24 14:38:06.115041,-104
2021-12-24 14:38:06.115051,-104
2021-12-24 14:38:06.115061,-111
2021-12-24 14:38:06.115071,-130
2021-12-24 14:38:06.115081,-123
2021-12-24 14:38:06.115090,-123
2021-12-24 14:38:06.115100,-155
2021-12-24 14:38:06.115110,-148
2021-12-24 14:38:06.115120,-111
2021-12-24 14:38:06.115130,-95
2021-12-24 14:38:06.115139,-88
2021-12-24 14:38:06.115149,-95
2021-12-24 14:38:06.115159,-123
2021-12-24 14:38:06.115169,-130
2021-12-24 14:38:06.115178,-97
2021-12-24 14:38:06.115188,69
2021-12-24 14:38:06.115198,474
2021-12-24 14:38:06.115208,868
2021-12-24 14:38:06.115217,588
2021-12-24 14:38:06.115227,-453
2021-12-24 14:38:06.115237,-947
2021-12-24 14:38:06.115247,-309
2021-12-24 14:38:06.115256,141
2021-12-24 14:38:06.115266,-32
2021-12-24 14:38:06.115276,-30
2021-12-24 14:38:06.115286,130
2021-12-24 14:38:06.115295,109
2021-12-24 14:38:06.294292,97
2021-12-24 14:38:06.294323,160
2021-12-24 14:38:06.294335,158
2021-12-24 14:38:06.294345,139
2021-12-24 14:38:06.294354,172
2021-12-24 14:38:06.294364,209
2021-12-24 14:38:06.294374,223
2021-12-24 14:38:06.294383,221
2021-12-24 14:38:06.294392,221
2021-12-24 14:38:06.294402,253
2021-12-24 14:38:06.294412,300
2021-12-24 14:38:06.294421,335
2021-12-24 14:38:06.294431,374
2021-12-24 14:38:06.294440,360
2021-12-24 14:38:06.294450,269
2021-12-24 14:38:06.294460,288
2021-12-24 14:38:06.294469,425
2021-12-24 14:38:06.294479,439
2021-12-24 14:38:06.294489,381
2021-12-24 14:38:06.294498,374
2021-12-24 14:38:06.294508,330
2021-12-24 14:38:06.294517,237
2021-12-24 14:38:06.294527,172
2021-12-24 14:38:06.294536,123
2021-12-24 14:38:06.294546,44
2021-12-24 14:38:06.294556,-62
2021-12-24 14:38:06.294565,-141
2021-12-24 14:38:06.294575,-148
2021-12-24 14:38:06.294584,-134
2021-12-24 14:38:06.294594,-132
2021-12-24 14:38:06.475011,-121
2021-12-24 14:38:06.475041,-111
2021-12-24 14:38:06.475053,-116
2021-12-24 14:38:06.475063,-107
2021-12-24 14:38:06.475073,-88
2021-12-24 14:38:06.475088,-76
2021-12-24 14:38:06.475098,-97
2021-12-24 14:38:06.475107,-137
2021-12-24 14:38:06.475117,-148
2021-12-24 14:38:06.475127,-148
2021-12-24 14:38:06.475137,-181
2021-12-24 14:38:06.475147,-200
2021-12-24 14:38:06.475156,-202
2021-12-24 14:38:06.475166,-239
2021-12-24 14:38:06.475176,-274
2021-12-24 14:38:06.475186,-260
2021-12-24 14:38:06.475196,-237
2021-12-24 14:38:06.475206,-230
2021-12-24 14:38:06.475215,-228
2021-12-24 14:38:06.475225,-237
2021-12-24 14:38:06.475235,-237
2021-12-24 14:38:06.475244,-221
2021-12-24 14:38:06.475254,-202
2021-12-24 14:38:06.475264,-186
2021-12-24 14:38:06.475274,-179
2021-12-24 14:38:06.475283,-181
2021-12-24 14:38:06.475293,-176
2021-12-24 14:38:06.475303,-167
2021-12-24 14:38:06.475313,-141
2021-12-24 14:38:06.475323,-97
2021-12-24 14:38:06.699724,-74
2021-12-24 14:38:06.699745,-72
2021-12-24 14:38:06.699753,-62
2021-12-24 14:38:06.699759,-58
2021-12-24 14:38:06.699766,-62
2021-12-24 14:38:06.699772,-55
2021-12-24 14:38:06.699778,-67
2021-12-24 14:38:06.699785,-83
2021-12-24 14:38:06.699791,-72
2021-12-24 14:38:06.699797,-53
2021-12-24 14:38:06.699804,-48
2021-12-24 14:38:06.699810,-55
2021-12-24 14:38:06.699816,-93
2021-12-24 14:38:06.699823,-114
2021-12-24 14:38:06.699829,-90
2021-12-24 14:38:06.699835,-93
2021-12-24 14:38:06.699841,-60
2021-12-24 14:38:06.699848,181
2021-12-24 14:38:06.699854,616
2021-12-24 14:38:06.699860,872
2021-12-24 14:38:06.699867,337
2021-12-24 14:38:06.699873,-670
2021-12-24 14:38:06.699880,-768
2021-12-24 14:38:06.699886,-44
2021-12-24 14:38:06.699892,132
2021-12-24 14:38:06.699899,-67
2021-12-24 14:38:06.699905,51
2021-12-24 14:38:06.699911,153
2021-12-24 14:38:06.699918,90
2021-12-24 14:38:06.699924,114
2021-12-24 14:38:06.969571,153
2021-12-24 14:38:06.969604,104
2021-12-24 14:38:06.969612,79
2021-12-24 14:38:06.969618,116
2021-12-24 14:38:06.969625,141
2021-12-24 14:38:06.969631,139
2021-12-24 14:38:06.969638,141
2021-12-24 14:38:06.969644,172
2021-12-24 14:38:06.969650,214
2021-12-24 14:38:06.969657,244
2021-12-24 14:38:06.969663,279
2021-12-24 14:38:06.969669,302
2021-12-24 14:38:06.969676,304
2021-12-24 14:38:06.969682,314
2021-12-24 14:38:06.969688,316
2021-12-24 14:38:06.969695,304
2021-12-24 14:38:06.969701,309
2021-12-24 14:38:06.969707,297
2021-12-24 14:38:06.969713,251
2021-12-24 14:38:06.969720,167
2021-12-24 14:38:06.969726,51
2021-12-24 14:38:06.969732,-34
2021-12-24 14:38:06.969739,-72
2021-12-24 14:38:06.969745,-111
2021-12-24 14:38:06.969751,-148
2021-12-24 14:38:06.969757,-151
2021-12-24 14:38:06.969764,-158
2021-12-24 14:38:06.969770,-193
2021-12-24 14:38:06.969776,-211
2021-12-24 14:38:06.969783,-195
2021-12-24 14:38:07.150141,-183
2021-12-24 14:38:07.150163,-183
2021-12-24 14:38:07.150170,-193
2021-12-24 14:38:07.150177,-207
2021-12-24 14:38:07.150183,-232
2021-12-24 14:38:07.150190,-269
2021-12-24 14:38:07.150196,-269
2021-12-24 14:38:07.150202,-239
2021-12-24 14:38:07.150209,-225
2021-12-24 14:38:07.150215,-228
2021-12-24 14:38:07.150221,-218
2021-12-24 14:38:07.150228,-207
2021-12-24 14:38:07.150234,-190
2021-12-24 14:38:07.150240,-172
2021-12-24 14:38:07.150247,-160
2021-12-24 14:38:07.150253,-179
2021-12-24 14:38:07.150259,-223
2021-12-24 14:38:07.150266,-244
2021-12-24 14:38:07.150272,-218
2021-12-24 14:38:07.150278,-188
2021-12-24 14:38:07.150285,-176
2021-12-24 14:38:07.150291,-169
2021-12-24 14:38:07.150297,-165
2021-12-24 14:38:07.150303,-165
2021-12-24 14:38:07.150310,-153
2021-12-24 14:38:07.150316,-134
2021-12-24 14:38:07.150322,-116
2021-12-24 14:38:07.150328,-88
2021-12-24 14:38:07.150334,-65
2021-12-24 14:38:07.150341,-53
2021-12-24 14:38:07.375251,-37
2021-12-24 14:38:07.375272,-23
2021-12-24 14:38:07.375279,-27
2021-12-24 14:38:07.375286,-44
2021-12-24 14:38:07.375292,-65
2021-12-24 14:38:07.375298,-81
2021-12-24 14:38:07.375304,-95
2021-12-24 14:38:07.375311,-114
2021-12-24 14:38:07.375317,-107
2021-12-24 14:38:07.375323,-100
2021-12-24 14:38:07.375330,-121
2021-12-24 14:38:07.375336,-123
2021-12-24 14:38:07.375342,-93
2021-12-24 14:38:07.375348,-93
2021-12-24 14:38:07.375355,-76
2021-12-24 14:38:07.375361,109
2021-12-24 14:38:07.375367,514
2021-12-24 14:38:07.375374,840
2021-12-24 14:38:07.375380,439
2021-12-24 14:38:07.375386,-584
2021-12-24 14:38:07.375393,-879
2021-12-24 14:38:07.375399,-200
2021-12-24 14:38:07.375405,97
2021-12-24 14:38:07.375411,-95
2021-12-24 14:38:07.375418,-11
2021-12-24 14:38:07.375424,125
2021-12-24 14:38:07.375430,74
2021-12-24 14:38:07.375436,67
2021-12-24 14:38:07.375443,121
2021-12-24 14:38:07.375449,132
2021-12-24 14:38:07.645028,144
2021-12-24 14:38:07.645050,183
2021-12-24 14:38:07.645057,200
2021-12-24 14:38:07.645064,183
2021-12-24 14:38:07.645070,172
2021-12-24 14:38:07.645076,207
2021-12-24 14:38:07.645083,260
2021-12-24 14:38:07.645089,295
2021-12-24 14:38:07.645095,321
2021-12-24 14:38:07.645102,323
2021-12-24 14:38:07.645108,325
2021-12-24 14:38:07.645114,377
2021-12-24 14:38:07.645120,449
2021-12-24 14:38:07.645127,481
2021-12-24 14:38:07.645133,472
2021-12-24 14:38:07.645139,449
2021-12-24 14:38:07.645145,425
2021-12-24 14:38:07.645152,386
2021-12-24 14:38:07.645158,318
2021-12-24 14:38:07.645164,232
2021-12-24 14:38:07.645171,130
2021-12-24 14:38:07.645177,30
2021-12-24 14:38:07.645183,-23
2021-12-24 14:38:07.645190,-30
2021-12-24 14:38:07.645196,-39
2021-12-24 14:38:07.645202,-65
2021-12-24 14:38:07.645208,-95
2021-12-24 14:38:07.645215,-123
2021-12-24 14:38:07.645221,-139
2021-12-24 14:38:07.645227,-139
2021-12-24 14:38:07.914630,-125
2021-12-24 14:38:07.914652,-114
2021-12-24 14:38:07.914660,-121
2021-12-24 14:38:07.914666,-134
2021-12-24 14:38:07.914673,-128
2021-12-24 14:38:07.914679,-104
2021-12-24 14:38:07.914685,-93
2021-12-24 14:38:07.914691,-88
2021-12-24 14:38:07.914698,-102
2021-12-24 14:38:07.914704,-134
2021-12-24 14:38:07.914710,-134
2021-12-24 14:38:07.914717,-125
2021-12-24 14:38:07.914723,-162
2021-12-24 14:38:07.914729,-181
2021-12-24 14:38:07.914735,-179
2021-12-24 14:38:07.914742,-200
2021-12-24 14:38:07.914748,-197
2021-12-24 14:38:07.914754,-158
2021-12-24 14:38:07.914761,-139
2021-12-24 14:38:07.914767,-132
2021-12-24 14:38:07.914773,-128
2021-12-24 14:38:07.914780,-144
2021-12-24 14:38:07.914786,-158
2021-12-24 14:38:07.914793,-141
2021-12-24 14:38:07.914799,-118
2021-12-24 14:38:07.914805,-114
2021-12-24 14:38:07.914812,-121
2021-12-24 14:38:07.914818,-121
2021-12-24 14:38:07.914824,-83
2021-12-24 14:38:07.914830,-34
2021-12-24 14:38:08.095642,-11
2021-12-24 14:38:08.095673,-4
2021-12-24 14:38:08.095685,-11
2021-12-24 14:38:08.095694,-25
2021-12-24 14:38:08.095704,-23
2021-12-24 14:38:08.095714,0
2021-12-24 14:38:08.095723,18
2021-12-24 14:38:08.095733,25
2021-12-24 14:38:08.095743,23
2021-12-24 14:38:08.095752,23
2021-12-24 14:38:08.095762,34
2021-12-24 14:38:08.095771,55
2021-12-24 14:38:08.095781,69
2021-12-24 14:38:08.095791,58
2021-12-24 14:38:08.095800,9
2021-12-24 14:38:08.095810,-11
2021-12-24 14:38:08.095819,130
2021-12-24 14:38:08.095829,495
2021-12-24 14:38:08.095839,903
2021-12-24 14:38:08.095848,756
2021-12-24 14:38:08.095858,-221
2021-12-24 14:38:08.095867,-865
2021-12-24 14:38:08.095877,-325
2021-12-24 14:38:08.095887,186
2021-12-24 14:38:08.095896,0
2021-12-24 14:38:08.095906,-58
2021-12-24 14:38:08.095915,107
2021-12-24 14:38:08.095925,83
2021-12-24 14:38:08.095935,20
2021-12-24 14:38:08.095944,67
2021-12-24 14:38:08.363282,128
2021-12-24 14:38:08.363303,144
2021-12-24 14:38:08.363310,141
2021-12-24 14:38:08.363317,155
2021-12-24 14:38:08.363323,181
2021-12-24 14:38:08.363330,218
2021-12-24 14:38:08.363336,251
2021-12-24 14:38:08.363342,249
2021-12-24 14:38:08.363349,244
2021-12-24 14:38:08.363355,265
2021-12-24 14:38:08.363361,290
2021-12-24 14:38:08.363368,311
2021-12-24 14:38:08.363374,316
2021-12-24 14:38:08.363380,293
2021-12-24 14:38:08.363387,279
2021-12-24 14:38:08.363393,286
2021-12-24 14:38:08.363400,267
2021-12-24 14:38:08.363406,218
2021-12-24 14:38:08.363412,132
2021-12-24 14:38:08.363418,23
2021-12-24 14:38:08.363425,-55
2021-12-24 14:38:08.363431,-111
2021-12-24 14:38:08.363438,-169
2021-12-24 14:38:08.363444,-202
2021-12-24 14:38:08.363451,-223
2021-12-24 14:38:08.363458,-265
2021-12-24 14:38:08.363464,-307
2021-12-24 14:38:08.363471,-316
2021-12-24 14:38:08.363478,-290
2021-12-24 14:38:08.363484,-272
2021-12-24 14:38:08.589810,-276
2021-12-24 14:38:08.589840,-256
2021-12-24 14:38:08.589852,-228
2021-12-24 14:38:08.589862,-246
2021-12-24 14:38:08.589871,-256
2021-12-24 14:38:08.589881,-225
2021-12-24 14:38:08.589890,-232
2021-12-24 14:38:08.589900,-225
2021-12-24 14:38:08.589909,-167
2021-12-24 14:38:08.589919,-151
2021-12-24 14:38:08.589928,-158
2021-12-24 14:38:08.589938,-134
2021-12-24 14:38:08.589947,-141
2021-12-24 14:38:08.589957,-165
2021-12-24 14:38:08.589966,-146
2021-12-24 14:38:08.589976,-125
2021-12-24 14:38:08.589985,-123
2021-12-24 14:38:08.589994,-109
2021-12-24 14:38:08.590004,-100
2021-12-24 14:38:08.590013,-93
2021-12-24 14:38:08.590023,-74
2021-12-24 14:38:08.590032,-62
2021-12-24 14:38:08.590042,-53
2021-12-24 14:38:08.590051,-44
2021-12-24 14:38:08.590061,-44
2021-12-24 14:38:08.590070,-41
2021-12-24 14:38:08.590080,-23
2021-12-24 14:38:08.590089,-4
2021-12-24 14:38:08.590099,-4
2021-12-24 14:38:08.590108,-4
2021-12-24 14:38:08.814583,0
2021-12-24 14:38:08.814605,4
2021-12-24 14:38:08.814612,2
2021-12-24 14:38:08.814619,-4
2021-12-24 14:38:08.814625,6
2021-12-24 14:38:08.814632,9
2021-12-24 14:38:08.814638,-16
2021-12-24 14:38:08.814644,-16
2021-12-24 14:38:08.814650,6
2021-12-24 14:38:08.814657,2
2021-12-24 14:38:08.814663,2
2021-12-24 14:38:08.814669,13
2021-12-24 14:38:08.814675,9
2021-12-24 14:38:08.814682,0
2021-12-24 14:38:08.814688,18
2021-12-24 14:38:08.814694,169
2021-12-24 14:38:08.814701,546
2021-12-24 14:38:08.814707,947
2021-12-24 14:38:08.814713,716
2021-12-24 14:38:08.814719,-311
2021-12-24 14:38:08.814726,-877
2021-12-24 14:38:08.814732,-293
2021-12-24 14:38:08.814738,195
2021-12-24 14:38:08.814745,48
2021-12-24 14:38:08.814751,16
2021-12-24 14:38:08.814757,141
2021-12-24 14:38:08.814763,121
2021-12-24 14:38:08.814769,100
2021-12-24 14:38:08.814776,158
2021-12-24 14:38:08.814782,172
2021-12-24 14:38:08.995431,146
2021-12-24 14:38:08.995451,153
2021-12-24 14:38:08.995459,160
2021-12-24 14:38:08.995466,151
2021-12-24 14:38:08.995472,151
2021-12-24 14:38:08.995478,151
2021-12-24 14:38:08.995485,153
2021-12-24 14:38:08.995491,176
2021-12-24 14:38:08.995497,204
2021-12-24 14:38:08.995504,214
2021-12-24 14:38:08.995510,221
2021-12-24 14:38:08.995516,249
2021-12-24 14:38:08.995523,279
2021-12-24 14:38:08.995529,293
2021-12-24 14:38:08.995535,290
2021-12-24 14:38:08.995542,269
2021-12-24 14:38:08.995548,218
2021-12-24 14:38:08.995554,141
2021-12-24 14:38:08.995560,74
2021-12-24 14:38:08.995567,20
2021-12-24 14:38:08.995573,-41
2021-12-24 14:38:08.995582,-104
2021-12-24 14:38:08.995588,-151
2021-12-24 14:38:08.995595,-174
2021-12-24 14:38:08.995601,-176
2021-12-24 14:38:08.995607,-172
2021-12-24 14:38:08.995613,-169
2021-12-24 14:38:08.995619,-172
2021-12-24 14:38:08.995626,-169
2021-12-24 14:38:08.995632,-155
2021-12-24 14:38:09.264835,-134
2021-12-24 14:38:09.264862,-125
2021-12-24 14:38:09.264876,-141
2021-12-24 14:38:09.264888,-165
2021-12-24 14:38:09.264899,-179
2021-12-24 14:38:09.264911,-179
2021-12-24 14:38:09.264923,-158
2021-12-24 14:38:09.264934,-128
2021-12-24 14:38:09.264946,-118
2021-12-24 14:38:09.264958,-125
2021-12-24 14:38:09.264970,-144
2021-12-24 14:38:09.264981,-148
2021-12-24 14:38:09.264993,-121
2021-12-24 14:38:09.265004,-97
2021-12-24 14:38:09.265016,-93
2021-12-24 14:38:09.265028,-93
2021-12-24 14:38:09.265040,-95
2021-12-24 14:38:09.265053,-81
2021-12-24 14:38:09.265066,-58
2021-12-24 14:38:09.265077,-41
2021-12-24 14:38:09.265089,-30
2021-12-24 14:38:09.265101,-30
2021-12-24 14:38:09.265113,-34
2021-12-24 14:38:09.265125,-25
2021-12-24 14:38:09.265137,-13
2021-12-24 14:38:09.265149,-6
2021-12-24 14:38:09.265161,2
2021-12-24 14:38:09.265173,18
2021-12-24 14:38:09.265184,34
2021-12-24 14:38:09.265196,46
2021-12-24 14:38:09.490524,27
2021-12-24 14:38:09.490554,-9
2021-12-24 14:38:09.490566,-16
2021-12-24 14:38:09.490576,-13
2021-12-24 14:38:09.490586,-39
2021-12-24 14:38:09.490596,-41
2021-12-24 14:38:09.490606,-13
2021-12-24 14:38:09.490615,6
2021-12-24 14:38:09.490625,2
2021-12-24 14:38:09.490635,-25
2021-12-24 14:38:09.490645,-44
2021-12-24 14:38:09.490655,-20
2021-12-24 14:38:09.490665,0
2021-12-24 14:38:09.490675,-13
2021-12-24 14:38:09.490684,-9
2021-12-24 14:38:09.490694,134
2021-12-24 14:38:09.490704,519
2021-12-24 14:38:09.490714,905
2021-12-24 14:38:09.490724,602
2021-12-24 14:38:09.490734,-428
2021-12-24 14:38:09.490744,-835
2021-12-24 14:38:09.490753,-186
2021-12-24 14:38:09.490763,169
2021-12-24 14:38:09.490773,-20
2021-12-24 14:38:09.490783,30
2021-12-24 14:38:09.490792,172
2021-12-24 14:38:09.490802,104
2021-12-24 14:38:09.490812,58
2021-12-24 14:38:09.490822,114
2021-12-24 14:38:09.490831,137
2021-12-24 14:38:09.760444,128
2021-12-24 14:38:09.760475,132
2021-12-24 14:38:09.760486,130
2021-12-24 14:38:09.760496,111
2021-12-24 14:38:09.760506,111
2021-12-24 14:38:09.760515,132
2021-12-24 14:38:09.760525,141
2021-12-24 14:38:09.760535,148
2021-12-24 14:38:09.760624,165
2021-12-24 14:38:09.760635,172
2021-12-24 14:38:09.760645,195
2021-12-24 14:38:09.760655,244
2021-12-24 14:38:09.760664,249
2021-12-24 14:38:09.760674,209
2021-12-24 14:38:09.760683,162
2021-12-24 14:38:09.760693,102
2021-12-24 14:38:09.760702,81
2021-12-24 14:38:09.760712,130
2021-12-24 14:38:09.760722,123
2021-12-24 14:38:09.760731,27
2021-12-24 14:38:09.760741,-51
2021-12-24 14:38:09.760750,-102
2021-12-24 14:38:09.760760,-139
2021-12-24 14:38:09.760769,-151
2021-12-24 14:38:09.760779,-148
2021-12-24 14:38:09.760788,-151
2021-12-24 14:38:09.760798,-160
2021-12-24 14:38:09.760807,-169
2021-12-24 14:38:09.760817,-153
2021-12-24 14:38:09.760826,-125
2021-12-24 14:38:09.940461,-104
2021-12-24 14:38:09.940491,-95
2021-12-24 14:38:09.940502,-97
2021-12-24 14:38:09.940512,-102
2021-12-24 14:38:09.940522,-86
2021-12-24 14:38:09.940532,-69
2021-12-24 14:38:09.940542,-93
2021-12-24 14:38:09.940551,-130
2021-12-24 14:38:09.940561,-141
2021-12-24 14:38:09.940570,-146
2021-12-24 14:38:09.940580,-132
2021-12-24 14:38:09.940590,-104
2021-12-24 14:38:09.940599,-90
2021-12-24 14:38:09.940609,-97
2021-12-24 14:38:09.940619,-123
2021-12-24 14:38:09.940628,-128
2021-12-24 14:38:09.940638,-102
2021-12-24 14:38:09.940647,-81
2021-12-24 14:38:09.940657,-72
2021-12-24 14:38:09.940667,-79
2021-12-24 14:38:09.940676,-102
2021-12-24 14:38:09.940686,-102
2021-12-24 14:38:09.940696,-74
2021-12-24 14:38:09.940705,-55
2021-12-24 14:38:09.940715,-44
2021-12-24 14:38:09.940725,-37
2021-12-24 14:38:09.940734,-41
2021-12-24 14:38:09.940744,-46
2021-12-24 14:38:09.940753,-37
2021-12-24 14:38:09.940763,-18
2021-12-24 14:38:10.255570,4
2021-12-24 14:38:10.255600,32
2021-12-24 14:38:10.255611,44
2021-12-24 14:38:10.255622,39
2021-12-24 14:38:10.255631,46
2021-12-24 14:38:10.255641,60
2021-12-24 14:38:10.255650,51
2021-12-24 14:38:10.255660,18
2021-12-24 14:38:10.255669,0
2021-12-24 14:38:10.255679,6
2021-12-24 14:38:10.255688,-6
2021-12-24 14:38:10.255698,-25
2021-12-24 14:38:10.255708,-18
2021-12-24 14:38:10.255717,-30
2021-12-24 14:38:10.255727,-46
2021-12-24 14:38:10.255736,-32
2021-12-24 14:38:10.255746,-25
2021-12-24 14:38:10.255756,-34
2021-12-24 14:38:10.255766,44
2021-12-24 14:38:10.255776,339
2021-12-24 14:38:10.255786,784
2021-12-24 14:38:10.255795,877
2021-12-24 14:38:10.255805,86
2021-12-24 14:38:10.255814,-823
2021-12-24 14:38:10.255824,-593
2021-12-24 14:38:10.255834,72
2021-12-24 14:38:10.255843,41
2021-12-24 14:38:10.255853,-116
2021-12-24 14:38:10.255863,30
2021-12-24 14:38:10.255872,58
2021-12-24 14:38:10.434325,-27
2021-12-24 14:38:10.434354,0
2021-12-24 14:38:10.434366,41
2021-12-24 14:38:10.434376,25
2021-12-24 14:38:10.434386,32
2021-12-24 14:38:10.434396,67
2021-12-24 14:38:10.434405,79
2021-12-24 14:38:10.434415,90
2021-12-24 14:38:10.434425,123
2021-12-24 14:38:10.434434,148
2021-12-24 14:38:10.434444,179
2021-12-24 14:38:10.434454,209
2021-12-24 14:38:10.434464,211
2021-12-24 14:38:10.434473,216
