Time,ECG
2021-12-24 14:12:34.546716,4799
2021-12-24 14:12:34.546733,3975
2021-12-24 14:12:34.546740,4324
2021-12-24 14:12:34.771632,4927
2021-12-24 14:12:34.771648,4775
2021-12-24 14:12:34.771655,4615
2021-12-24 14:12:34.771660,4745
2021-12-24 14:12:34.771665,4703
2021-12-24 14:12:34.771670,4622
2021-12-24 14:12:34.771676,4613
2021-12-24 14:12:34.771681,4522
2021-12-24 14:12:34.771686,4466
2021-12-24 14:12:34.771691,4478
2021-12-24 14:12:34.771696,4447
2021-12-24 14:12:34.771700,4426
2021-12-24 14:12:34.771705,4389
2021-12-24 14:12:34.771710,4310
2021-12-24 14:12:34.771716,4310
2021-12-24 14:12:34.771721,4347
2021-12-24 14:12:34.771726,4331
2021-12-24 14:12:34.771731,4252
2021-12-24 14:12:34.771736,4159
2021-12-24 14:12:34.771740,4152
2021-12-24 14:12:34.771745,4182
2021-12-24 14:12:34.771750,4145
2021-12-24 14:12:34.771755,4096
2021-12-24 14:12:34.771761,4068
2021-12-24 14:12:34.771766,4003
2021-12-24 14:12:34.771771,3928
2021-12-24 14:12:34.771775,3891
2021-12-24 14:12:34.771780,3807
2021-12-24 14:12:34.771785,3663
2021-12-24 14:12:34.771790,3540
2021-12-24 14:12:34.996927,3444
2021-12-24 14:12:34.996956,3384
2021-12-24 14:12:34.996967,3374
2021-12-24 14:12:34.996979,3342
2021-12-24 14:12:34.996988,3265
2021-12-24 14:12:34.996998,3193
2021-12-24 14:12:34.997007,3123
2021-12-24 14:12:34.997017,3067
2021-12-24 14:12:34.997026,3053
2021-12-24 14:12:34.997036,3048
2021-12-24 14:12:34.997045,3030
2021-12-24 14:12:34.997055,2981
2021-12-24 14:12:34.997064,2923
2021-12-24 14:12:34.997073,2920
2021-12-24 14:12:34.997084,2946
2021-12-24 14:12:34.997094,2927
2021-12-24 14:12:34.997116,2893
2021-12-24 14:12:34.997127,2869
2021-12-24 14:12:34.997137,2848
2021-12-24 14:12:34.997146,2848
2021-12-24 14:12:34.997156,2853
2021-12-24 14:12:34.997166,2830
2021-12-24 14:12:34.997175,2799
2021-12-24 14:12:34.997185,2783
2021-12-24 14:12:34.997194,2765
2021-12-24 14:12:34.997204,2760
2021-12-24 14:12:34.997217,2758
2021-12-24 14:12:34.997227,2739
2021-12-24 14:12:34.997237,2720
2021-12-24 14:12:34.997246,2699
2021-12-24 14:12:35.264787,2641
2021-12-24 14:12:35.264802,2599
2021-12-24 14:12:35.264807,2613
2021-12-24 14:12:35.264812,2613
2021-12-24 14:12:35.264817,2571
2021-12-24 14:12:35.264821,2522
2021-12-24 14:12:35.264826,2511
2021-12-24 14:12:35.264831,2525
2021-12-24 14:12:35.264835,2515
2021-12-24 14:12:35.264840,2483
2021-12-24 14:12:35.264847,2429
2021-12-24 14:12:35.264852,2369
2021-12-24 14:12:35.264857,2367
2021-12-24 14:12:35.264861,2394
2021-12-24 14:12:35.264866,2392
2021-12-24 14:12:35.264870,2376
2021-12-24 14:12:35.264875,2353
2021-12-24 14:12:35.264880,2327
2021-12-24 14:12:35.264884,2325
2021-12-24 14:12:35.264889,2325
2021-12-24 14:12:35.264893,2299
2021-12-24 14:12:35.264898,2320
2021-12-24 14:12:35.264902,2506
2021-12-24 14:12:35.264907,2904
2021-12-24 14:12:35.264912,3067
2021-12-24 14:12:35.264916,2222
2021-12-24 14:12:35.264922,1142
2021-12-24 14:12:35.264927,1363
2021-12-24 14:12:35.264933,2138
2021-12-24 14:12:35.264938,2183
2021-12-24 14:12:35.491172,2055
2021-12-24 14:12:35.491199,2197
2021-12-24 14:12:35.491204,2192
2021-12-24 14:12:35.491209,2057
2021-12-24 14:12:35.491213,2024
2021-12-24 14:12:35.491218,2041
2021-12-24 14:12:35.491222,2052
2021-12-24 14:12:35.491227,2071
2021-12-24 14:12:35.491231,2090
2021-12-24 14:12:35.491235,2064
2021-12-24 14:12:35.491240,2001
2021-12-24 14:12:35.491244,2001
2021-12-24 14:12:35.491250,2057
2021-12-24 14:12:35.491254,2083
2021-12-24 14:12:35.491261,2104
2021-12-24 14:12:35.491266,2122
2021-12-24 14:12:35.491270,2108
2021-12-24 14:12:35.491275,2124
2021-12-24 14:12:35.491279,2166
2021-12-24 14:12:35.491283,2169
2021-12-24 14:12:35.491295,2143
2021-12-24 14:12:35.491300,2104
2021-12-24 14:12:35.491304,2027
2021-12-24 14:12:35.491309,1943
2021-12-24 14:12:35.491313,1866
2021-12-24 14:12:35.491317,1801
2021-12-24 14:12:35.491322,1726
2021-12-24 14:12:35.491326,1610
2021-12-24 14:12:35.491331,1508
2021-12-24 14:12:35.491335,1480
2021-12-24 14:12:35.761386,1450
2021-12-24 14:12:35.761412,1412
2021-12-24 14:12:35.761425,1424
2021-12-24 14:12:35.761437,1405
2021-12-24 14:12:35.761455,1335
2021-12-24 14:12:35.761467,1333
2021-12-24 14:12:35.761479,1389
2021-12-24 14:12:35.761491,1410
2021-12-24 14:12:35.761502,1394
2021-12-24 14:12:35.761513,1349
2021-12-24 14:12:35.761524,1315
2021-12-24 14:12:35.761536,1340
2021-12-24 14:12:35.761548,1375
2021-12-24 14:12:35.761560,1384
2021-12-24 14:12:35.761571,1375
2021-12-24 14:12:35.761583,1324
2021-12-24 14:12:35.761595,1294
2021-12-24 14:12:35.761607,1319
2021-12-24 14:12:35.761618,1338
2021-12-24 14:12:35.761631,1338
2021-12-24 14:12:35.761642,1331
2021-12-24 14:12:35.761652,1298
2021-12-24 14:12:35.761663,1280
2021-12-24 14:12:35.761675,1308
2021-12-24 14:12:35.761686,1342
2021-12-24 14:12:35.761697,1345
2021-12-24 14:12:35.761710,1340
2021-12-24 14:12:35.761721,1319
2021-12-24 14:12:35.761732,1256
2021-12-24 14:12:35.761743,1247
2021-12-24 14:12:35.986404,1289
2021-12-24 14:12:35.986426,1282
2021-12-24 14:12:35.986434,1247
2021-12-24 14:12:35.986440,1226
2021-12-24 14:12:35.986447,1221
2021-12-24 14:12:35.986453,1207
2021-12-24 14:12:35.986459,1173
2021-12-24 14:12:35.986465,1168
2021-12-24 14:12:35.986472,1173
2021-12-24 14:12:35.986478,1152
2021-12-24 14:12:35.986484,1159
2021-12-24 14:12:35.986490,1198
2021-12-24 14:12:35.986496,1203
2021-12-24 14:12:35.986503,1168
2021-12-24 14:12:35.986509,1200
2021-12-24 14:12:35.986515,1468
2021-12-24 14:12:35.986521,1929
2021-12-24 14:12:35.986528,1983
2021-12-24 14:12:35.986534,1033
2021-12-24 14:12:35.986540,23
2021-12-24 14:12:35.986547,300
2021-12-24 14:12:35.986557,1049
2021-12-24 14:12:35.986564,1114
2021-12-24 14:12:35.986570,1035
2021-12-24 14:12:35.986576,1203
2021-12-24 14:12:35.986583,1235
2021-12-24 14:12:35.986589,1145
2021-12-24 14:12:35.986595,1156
2021-12-24 14:12:35.986601,1193
2021-12-24 14:12:35.986607,1189
2021-12-24 14:12:36.166253,1207
2021-12-24 14:12:36.166274,1228
2021-12-24 14:12:36.166282,1214
2021-12-24 14:12:36.166289,1212
2021-12-24 14:12:36.166295,1242
2021-12-24 14:12:36.166301,1268
2021-12-24 14:12:36.166307,1303
2021-12-24 14:12:36.166314,1340
2021-12-24 14:12:36.166320,1326
2021-12-24 14:12:36.166326,1303
2021-12-24 14:12:36.166332,1335
2021-12-24 14:12:36.166339,1373
2021-12-24 14:12:36.166345,1363
2021-12-24 14:12:36.166351,1277
2021-12-24 14:12:36.166357,1173
2021-12-24 14:12:36.166363,1133
2021-12-24 14:12:36.166369,1089
2021-12-24 14:12:36.166376,991
2021-12-24 14:12:36.166382,877
2021-12-24 14:12:36.166390,749
2021-12-24 14:12:36.166396,637
2021-12-24 14:12:36.166402,593
2021-12-24 14:12:36.166409,586
2021-12-24 14:12:36.166415,586
2021-12-24 14:12:36.166421,588
2021-12-24 14:12:36.166427,579
2021-12-24 14:12:36.166434,570
2021-12-24 14:12:36.166440,586
2021-12-24 14:12:36.166446,605
2021-12-24 14:12:36.166452,616
2021-12-24 14:12:36.480327,621
2021-12-24 14:12:36.480346,628
2021-12-24 14:12:36.480354,635
2021-12-24 14:12:36.480360,616
2021-12-24 14:12:36.480367,572
2021-12-24 14:12:36.480379,563
2021-12-24 14:12:36.480418,572
2021-12-24 14:12:36.480442,535
2021-12-24 14:12:36.480456,519
2021-12-24 14:12:36.480468,530
2021-12-24 14:12:36.480479,502
2021-12-24 14:12:36.480492,493
2021-12-24 14:12:36.480503,495
2021-12-24 14:12:36.480514,463
2021-12-24 14:12:36.480526,467
2021-12-24 14:12:36.480537,512
2021-12-24 14:12:36.480549,553
2021-12-24 14:12:36.480560,600
2021-12-24 14:12:36.480571,614
2021-12-24 14:12:36.480583,600
2021-12-24 14:12:36.480593,614
2021-12-24 14:12:36.480610,621
2021-12-24 14:12:36.480622,602
2021-12-24 14:12:36.480633,609
2021-12-24 14:12:36.480644,642
2021-12-24 14:12:36.480655,663
2021-12-24 14:12:36.480667,665
2021-12-24 14:12:36.480678,667
2021-12-24 14:12:36.480689,679
2021-12-24 14:12:36.480700,684
2021-12-24 14:12:36.616035,674
2021-12-24 14:12:36.616050,672
2021-12-24 14:12:36.616056,672
2021-12-24 14:12:36.616061,747
2021-12-24 14:12:36.616066,1059
2021-12-24 14:12:36.616070,1550
2021-12-24 14:12:36.616075,1626
2021-12-24 14:12:36.616079,654
2021-12-24 14:12:36.616084,-432
2021-12-24 14:12:36.616089,-130
2021-12-24 14:12:36.616093,707
2021-12-24 14:12:36.616098,728
2021-12-24 14:12:36.616103,572
2021-12-24 14:12:36.616107,749
2021-12-24 14:12:36.616112,779
2021-12-24 14:12:36.616117,686
2021-12-24 14:12:36.616121,735
2021-12-24 14:12:36.616126,756
2021-12-24 14:12:36.616130,686
2021-12-24 14:12:36.616135,700
2021-12-24 14:12:36.616140,758
2021-12-24 14:12:36.616144,751
2021-12-24 14:12:36.616149,751
2021-12-24 14:12:36.616153,782
2021-12-24 14:12:36.616158,798
2021-12-24 14:12:36.616163,833
2021-12-24 14:12:36.616167,884
2021-12-24 14:12:36.616173,898
2021-12-24 14:12:36.616178,917
2021-12-24 14:12:36.616182,954
2021-12-24 14:12:36.930613,958
2021-12-24 14:12:36.930629,951
2021-12-24 14:12:36.930635,958
2021-12-24 14:12:36.930640,910
2021-12-24 14:12:36.930645,814
2021-12-24 14:12:36.930650,712
2021-12-24 14:12:36.930655,621
2021-12-24 14:12:36.930660,556
2021-12-24 14:12:36.930665,481
2021-12-24 14:12:36.930670,360
2021-12-24 14:12:36.930675,225
2021-12-24 14:12:36.930680,148
2021-12-24 14:12:36.930685,148
2021-12-24 14:12:36.930690,155
2021-12-24 14:12:36.930695,134
2021-12-24 14:12:36.930700,132
2021-12-24 14:12:36.930705,155
2021-12-24 14:12:36.930710,181
2021-12-24 14:12:36.930715,207
2021-12-24 14:12:36.930720,237
2021-12-24 14:12:36.930725,269
2021-12-24 14:12:36.930730,281
2021-12-24 14:12:36.930735,274
2021-12-24 14:12:36.930740,279
2021-12-24 14:12:36.930744,314
2021-12-24 14:12:36.930749,351
2021-12-24 14:12:36.930754,367
2021-12-24 14:12:36.930759,363
2021-12-24 14:12:36.930772,349
2021-12-24 14:12:36.930778,353
2021-12-24 14:12:37.066569,384
2021-12-24 14:12:37.066643,404
2021-12-24 14:12:37.066651,416
2021-12-24 14:12:37.066657,404
2021-12-24 14:12:37.066664,356
2021-12-24 14:12:37.066670,325
2021-12-24 14:12:37.066676,356
2021-12-24 14:12:37.066686,388
2021-12-24 14:12:37.066693,400
2021-12-24 14:12:37.066699,409
2021-12-24 14:12:37.066705,391
2021-12-24 14:12:37.066711,367
2021-12-24 14:12:37.066717,393
2021-12-24 14:12:37.066724,425
2021-12-24 14:12:37.066730,425
2021-12-24 14:12:37.066736,397
2021-12-24 14:12:37.066742,367
2021-12-24 14:12:37.066749,372
2021-12-24 14:12:37.066755,409
2021-12-24 14:12:37.066762,437
2021-12-24 14:12:37.066768,444
2021-12-24 14:12:37.066774,437
2021-12-24 14:12:37.066780,416
2021-12-24 14:12:37.066786,425
2021-12-24 14:12:37.066793,444
2021-12-24 14:12:37.066799,437
2021-12-24 14:12:37.066805,570
2021-12-24 14:12:37.066811,982
2021-12-24 14:12:37.066818,1489
2021-12-24 14:12:37.066824,1377
2021-12-24 14:12:37.379663,195
2021-12-24 14:12:37.379682,-633
2021-12-24 14:12:37.379690,20
2021-12-24 14:12:37.379696,633
2021-12-24 14:12:37.379703,381
2021-12-24 14:12:37.379709,337
2021-12-24 14:12:37.379715,560
2021-12-24 14:12:37.379721,526
2021-12-24 14:12:37.379728,470
2021-12-24 14:12:37.379734,500
2021-12-24 14:12:37.379740,456
2021-12-24 14:12:37.379747,453
2021-12-24 14:12:37.379753,523
2021-12-24 14:12:37.379759,549
2021-12-24 14:12:37.379765,556
2021-12-24 14:12:37.379772,551
2021-12-24 14:12:37.379778,500
2021-12-24 14:12:37.379784,481
2021-12-24 14:12:37.379790,509
2021-12-24 14:12:37.379796,537
2021-12-24 14:12:37.379803,572
2021-12-24 14:12:37.379809,591
2021-12-24 14:12:37.379818,605
2021-12-24 14:12:37.379824,651
2021-12-24 14:12:37.379831,670
2021-12-24 14:12:37.379837,635
2021-12-24 14:12:37.379843,591
2021-12-24 14:12:37.379849,544
2021-12-24 14:12:37.379855,477
2021-12-24 14:12:37.379862,402
2021-12-24 14:12:37.561252,318
2021-12-24 14:12:37.561271,246
2021-12-24 14:12:37.561278,179
2021-12-24 14:12:37.561285,104
2021-12-24 14:12:37.561291,81
2021-12-24 14:12:37.561297,109
2021-12-24 14:12:37.561304,130
2021-12-24 14:12:37.561310,141
2021-12-24 14:12:37.561316,121
2021-12-24 14:12:37.561322,62
2021-12-24 14:12:37.561328,69
2021-12-24 14:12:37.561335,134
2021-12-24 14:12:37.561341,165
2021-12-24 14:12:37.561347,167
2021-12-24 14:12:37.561353,148
2021-12-24 14:12:37.561359,104
2021-12-24 14:12:37.561365,109
2021-12-24 14:12:37.561372,162
2021-12-24 14:12:37.561378,193
2021-12-24 14:12:37.561384,179
2021-12-24 14:12:37.561390,137
2021-12-24 14:12:37.561396,118
2021-12-24 14:12:37.561403,153
2021-12-24 14:12:37.561409,195
2021-12-24 14:12:37.561415,214
2021-12-24 14:12:37.561421,225
2021-12-24 14:12:37.561427,207
2021-12-24 14:12:37.561433,200
2021-12-24 14:12:37.561440,244
2021-12-24 14:12:37.561446,274
2021-12-24 14:12:37.786175,269
2021-12-24 14:12:37.786191,283
2021-12-24 14:12:37.786196,293
2021-12-24 14:12:37.786201,297
2021-12-24 14:12:37.786205,321
2021-12-24 14:12:37.786210,349
2021-12-24 14:12:37.786214,360
2021-12-24 14:12:37.786218,353
2021-12-24 14:12:37.786222,304
2021-12-24 14:12:37.786227,265
2021-12-24 14:12:37.786231,300
2021-12-24 14:12:37.786235,339
2021-12-24 14:12:37.786240,330
2021-12-24 14:12:37.786246,311
2021-12-24 14:12:37.786251,281
2021-12-24 14:12:37.786255,260
2021-12-24 14:12:37.786259,304
2021-12-24 14:12:37.786263,365
2021-12-24 14:12:37.786268,351
2021-12-24 14:12:37.786272,321
2021-12-24 14:12:37.786276,421
2021-12-24 14:12:37.786281,730
2021-12-24 14:12:37.786285,1163
2021-12-24 14:12:37.786289,1042
2021-12-24 14:12:37.786294,-109
2021-12-24 14:12:37.786298,-875
2021-12-24 14:12:37.786303,-174
2021-12-24 14:12:37.786309,453
2021-12-24 14:12:37.786314,237
2021-12-24 14:12:37.786318,223
2021-12-24 14:12:38.010604,430
2021-12-24 14:12:38.010618,370
2021-12-24 14:12:38.010624,309
2021-12-24 14:12:38.010628,386
2021-12-24 14:12:38.010633,400
2021-12-24 14:12:38.010637,386
2021-12-24 14:12:38.010641,416
2021-12-24 14:12:38.010645,402
2021-12-24 14:12:38.010650,367
2021-12-24 14:12:38.010654,402
2021-12-24 14:12:38.010658,456
2021-12-24 14:12:38.010663,484
2021-12-24 14:12:38.010667,495
2021-12-24 14:12:38.010671,495
2021-12-24 14:12:38.010676,507
2021-12-24 14:12:38.010680,549
2021-12-24 14:12:38.010684,588
2021-12-24 14:12:38.010689,621
2021-12-24 14:12:38.010693,637
2021-12-24 14:12:38.010697,600
2021-12-24 14:12:38.010702,539
2021-12-24 14:12:38.010706,484
2021-12-24 14:12:38.010710,437
2021-12-24 14:12:38.010714,363
2021-12-24 14:12:38.010719,232
2021-12-24 14:12:38.010723,118
2021-12-24 14:12:38.010727,88
2021-12-24 14:12:38.010732,58
2021-12-24 14:12:38.010736,16
2021-12-24 14:12:38.010740,27
2021-12-24 14:12:38.235583,44
2021-12-24 14:12:38.235598,27
2021-12-24 14:12:38.235603,34
2021-12-24 14:12:38.235607,55
2021-12-24 14:12:38.235612,83
2021-12-24 14:12:38.235616,116
2021-12-24 14:12:38.235620,86
2021-12-24 14:12:38.235624,37
2021-12-24 14:12:38.235629,65
2021-12-24 14:12:38.235633,97
2021-12-24 14:12:38.235639,93
2021-12-24 14:12:38.235644,95
2021-12-24 14:12:38.235648,69
2021-12-24 14:12:38.235652,44
2021-12-24 14:12:38.235656,83
2021-12-24 14:12:38.235661,123
2021-12-24 14:12:38.235665,128
2021-12-24 14:12:38.235669,137
2021-12-24 14:12:38.235673,134
2021-12-24 14:12:38.235678,132
2021-12-24 14:12:38.235682,151
2021-12-24 14:12:38.235686,167
2021-12-24 14:12:38.235691,181
2021-12-24 14:12:38.235695,197
2021-12-24 14:12:38.235699,204
2021-12-24 14:12:38.235703,186
2021-12-24 14:12:38.235708,128
2021-12-24 14:12:38.235712,83
2021-12-24 14:12:38.235716,111
2021-12-24 14:12:38.235721,144
2021-12-24 14:12:38.595098,146
2021-12-24 14:12:38.595120,176
2021-12-24 14:12:38.595127,209
2021-12-24 14:12:38.595134,186
2021-12-24 14:12:38.595140,174
2021-12-24 14:12:38.595146,176
2021-12-24 14:12:38.595153,144
2021-12-24 14:12:38.595159,151
2021-12-24 14:12:38.595165,209
2021-12-24 14:12:38.595171,228
2021-12-24 14:12:38.595178,221
2021-12-24 14:12:38.595184,211
2021-12-24 14:12:38.595190,186
2021-12-24 14:12:38.595196,197
2021-12-24 14:12:38.595202,232
2021-12-24 14:12:38.595209,232
2021-12-24 14:12:38.595215,228
2021-12-24 14:12:38.595221,244
2021-12-24 14:12:38.595227,251
2021-12-24 14:12:38.595233,260
2021-12-24 14:12:38.595240,276
2021-12-24 14:12:38.595246,286
2021-12-24 14:12:38.595252,290
2021-12-24 14:12:38.595258,288
2021-12-24 14:12:38.595265,281
2021-12-24 14:12:38.595271,307
2021-12-24 14:12:38.595277,467
2021-12-24 14:12:38.595283,847
2021-12-24 14:12:38.595289,1247
2021-12-24 14:12:38.595296,1021
2021-12-24 14:12:38.686070,-93
2021-12-24 14:12:38.686092,-705
2021-12-24 14:12:38.686099,16
2021-12-24 14:12:38.686106,514
2021-12-24 14:12:38.686112,230
2021-12-24 14:12:38.686118,186
2021-12-24 14:12:38.686124,349
2021-12-24 14:12:38.686130,316
2021-12-24 14:12:38.686137,304
2021-12-24 14:12:38.686143,367
2021-12-24 14:12:38.686149,351
2021-12-24 14:12:38.686155,318
2021-12-24 14:12:38.686162,356
2021-12-24 14:12:38.686168,409
2021-12-24 14:12:38.686177,411
2021-12-24 14:12:38.686184,402
2021-12-24 14:12:38.686190,395
2021-12-24 14:12:38.686196,370
2021-12-24 14:12:38.686202,372
2021-12-24 14:12:38.686208,411
2021-12-24 14:12:38.686215,430
2021-12-24 14:12:38.686221,446
2021-12-24 14:12:38.686227,467
2021-12-24 14:12:38.686233,463
2021-12-24 14:12:38.686239,432
2021-12-24 14:12:38.686245,409
2021-12-24 14:12:38.686252,374
2021-12-24 14:12:38.686258,328
2021-12-24 14:12:38.686264,279
2021-12-24 14:12:38.686271,207
2021-12-24 14:12:38.956415,121
2021-12-24 14:12:38.956445,51
2021-12-24 14:12:38.956456,-32
2021-12-24 14:12:38.956466,-139
2021-12-24 14:12:38.956476,-193
2021-12-24 14:12:38.956485,-174
2021-12-24 14:12:38.956495,-121
2021-12-24 14:12:38.956505,-79
2021-12-24 14:12:38.956514,-67
2021-12-24 14:12:38.956524,-81
2021-12-24 14:12:38.956533,-104
2021-12-24 14:12:38.956543,-79
2021-12-24 14:12:38.956553,-34
2021-12-24 14:12:38.956562,-18
2021-12-24 14:12:38.956572,0
2021-12-24 14:12:38.956581,4
2021-12-24 14:12:38.956591,-9
2021-12-24 14:12:38.956601,23
2021-12-24 14:12:38.956610,74
2021-12-24 14:12:38.956620,81
2021-12-24 14:12:38.956630,90
2021-12-24 14:12:38.956639,104
2021-12-24 14:12:38.956649,93
2021-12-24 14:12:38.956658,95
2021-12-24 14:12:38.956668,137
2021-12-24 14:12:38.956677,172
2021-12-24 14:12:38.956687,174
2021-12-24 14:12:38.956696,153
2021-12-24 14:12:38.956706,153
2021-12-24 14:12:38.956716,188
2021-12-24 14:12:39.181161,207
2021-12-24 14:12:39.181177,188
2021-12-24 14:12:39.181183,146
2021-12-24 14:12:39.181187,88
2021-12-24 14:12:39.181192,58
2021-12-24 14:12:39.181196,102
2021-12-24 14:12:39.181200,151
2021-12-24 14:12:39.181204,169
2021-12-24 14:12:39.181208,179
2021-12-24 14:12:39.181213,160
2021-12-24 14:12:39.181217,141
2021-12-24 14:12:39.181221,165
2021-12-24 14:12:39.181225,195
2021-12-24 14:12:39.181230,218
2021-12-24 14:12:39.181234,230
2021-12-24 14:12:39.181238,202
2021-12-24 14:12:39.181243,195
2021-12-24 14:12:39.181248,235
2021-12-24 14:12:39.181252,249
2021-12-24 14:12:39.181256,244
2021-12-24 14:12:39.181261,256
2021-12-24 14:12:39.181265,244
2021-12-24 14:12:39.181269,239
2021-12-24 14:12:39.181273,269
2021-12-24 14:12:39.181277,293
2021-12-24 14:12:39.181282,300
2021-12-24 14:12:39.181288,290
2021-12-24 14:12:39.181293,263
2021-12-24 14:12:39.181297,253
2021-12-24 14:12:39.181301,279
2021-12-24 14:12:39.405934,302
2021-12-24 14:12:39.405951,321
2021-12-24 14:12:39.405957,328
2021-12-24 14:12:39.405962,295
2021-12-24 14:12:39.405967,256
2021-12-24 14:12:39.405972,253
2021-12-24 14:12:39.405977,276
2021-12-24 14:12:39.405982,239
2021-12-24 14:12:39.405987,121
2021-12-24 14:12:39.405992,48
2021-12-24 14:12:39.405997,100
2021-12-24 14:12:39.406002,151
2021-12-24 14:12:39.406007,160
2021-12-24 14:12:39.406012,172
2021-12-24 14:12:39.406017,146
2021-12-24 14:12:39.406021,90
2021-12-24 14:12:39.406026,76
2021-12-24 14:12:39.406031,65
2021-12-24 14:12:39.406036,151
2021-12-24 14:12:39.406041,507
2021-12-24 14:12:39.406046,993
2021-12-24 14:12:39.406051,1026
2021-12-24 14:12:39.406056,93
2021-12-24 14:12:39.406061,-856
2021-12-24 14:12:39.406066,-500
2021-12-24 14:12:39.406071,190
2021-12-24 14:12:39.406076,65
2021-12-24 14:12:39.406081,-88
2021-12-24 14:12:39.406086,109
2021-12-24 14:12:39.406091,139
2021-12-24 14:12:39.721277,76
2021-12-24 14:12:39.721296,137
2021-12-24 14:12:39.721303,158
2021-12-24 14:12:39.721309,116
2021-12-24 14:12:39.721315,137
2021-12-24 14:12:39.721322,172
2021-12-24 14:12:39.721328,141
2021-12-24 14:12:39.721334,109
2021-12-24 14:12:39.721340,104
2021-12-24 14:12:39.721346,116
2021-12-24 14:12:39.721353,160
2021-12-24 14:12:39.721359,221
2021-12-24 14:12:39.721365,267
2021-12-24 14:12:39.721371,274
2021-12-24 14:12:39.721377,251
2021-12-24 14:12:39.721383,267
2021-12-24 14:12:39.721390,314
2021-12-24 14:12:39.721396,323
2021-12-24 14:12:39.721402,311
2021-12-24 14:12:39.721408,297
2021-12-24 14:12:39.721414,267
2021-12-24 14:12:39.721420,232
2021-12-24 14:12:39.721426,204
2021-12-24 14:12:39.721433,176
2021-12-24 14:12:39.721439,134
2021-12-24 14:12:39.721445,90
2021-12-24 14:12:39.721451,69
2021-12-24 14:12:39.721457,74
2021-12-24 14:12:39.721463,79
2021-12-24 14:12:39.721469,88
2021-12-24 14:12:39.856907,102
2021-12-24 14:12:39.856936,102
2021-12-24 14:12:39.856948,107
2021-12-24 14:12:39.856957,128
2021-12-24 14:12:39.856967,151
2021-12-24 14:12:39.856976,167
2021-12-24 14:12:39.856986,176
2021-12-24 14:12:39.856995,176
2021-12-24 14:12:39.857005,146
2021-12-24 14:12:39.857014,111
2021-12-24 14:12:39.857024,141
2021-12-24 14:12:39.857034,183
2021-12-24 14:12:39.857043,195
2021-12-24 14:12:39.857053,183
2021-12-24 14:12:39.857062,128
2021-12-24 14:12:39.857072,76
2021-12-24 14:12:39.857081,104
2021-12-24 14:12:39.857095,151
2021-12-24 14:12:39.857105,128
2021-12-24 14:12:39.857115,81
2021-12-24 14:12:39.857124,90
2021-12-24 14:12:39.857134,116
2021-12-24 14:12:39.857143,123
2021-12-24 14:12:39.857153,141
2021-12-24 14:12:39.857162,128
2021-12-24 14:12:39.857172,83
2021-12-24 14:12:39.857181,97
2021-12-24 14:12:39.857191,139
2021-12-24 14:12:39.857200,144
2021-12-24 14:12:39.857221,153
2021-12-24 14:12:40.171496,165
2021-12-24 14:12:40.171514,160
2021-12-24 14:12:40.171520,172
2021-12-24 14:12:40.171525,183
2021-12-24 14:12:40.171530,183
2021-12-24 14:12:40.171535,188
2021-12-24 14:12:40.171540,167
2021-12-24 14:12:40.171545,139
2021-12-24 14:12:40.171550,153
2021-12-24 14:12:40.171555,121
2021-12-24 14:12:40.171560,46
2021-12-24 14:12:40.171565,44
2021-12-24 14:12:40.171570,46
2021-12-24 14:12:40.171575,4
2021-12-24 14:12:40.171580,-9
2021-12-24 14:12:40.171585,-4
2021-12-24 14:12:40.171590,-16
2021-12-24 14:12:40.171594,-41
2021-12-24 14:12:40.171599,-51
2021-12-24 14:12:40.171604,-30
2021-12-24 14:12:40.171609,-20
2021-12-24 14:12:40.171614,-44
2021-12-24 14:12:40.171619,-32
2021-12-24 14:12:40.171624,25
2021-12-24 14:12:40.171629,51
2021-12-24 14:12:40.171634,48
2021-12-24 14:12:40.171638,69
2021-12-24 14:12:40.171643,81
2021-12-24 14:12:40.171648,60
2021-12-24 14:12:40.171653,51
2021-12-24 14:12:40.305729,72
2021-12-24 14:12:40.305748,93
2021-12-24 14:12:40.305755,97
2021-12-24 14:12:40.305761,102
2021-12-24 14:12:40.305768,111
2021-12-24 14:12:40.305774,93
2021-12-24 14:12:40.305780,51
2021-12-24 14:12:40.305786,53
2021-12-24 14:12:40.305793,69
2021-12-24 14:12:40.305799,97
2021-12-24 14:12:40.305805,335
2021-12-24 14:12:40.305811,807
2021-12-24 14:12:40.305817,1019
2021-12-24 14:12:40.305823,353
2021-12-24 14:12:40.305830,-651
2021-12-24 14:12:40.305836,-581
2021-12-24 14:12:40.305842,165
2021-12-24 14:12:40.305848,188
2021-12-24 14:12:40.305854,-48
2021-12-24 14:12:40.305861,97
2021-12-24 14:12:40.305867,104
2021-12-24 14:12:40.305873,-34
2021-12-24 14:12:40.305879,16
2021-12-24 14:12:40.305885,65
2021-12-24 14:12:40.305891,32
2021-12-24 14:12:40.305897,79
2021-12-24 14:12:40.305903,132
2021-12-24 14:12:40.305909,134
2021-12-24 14:12:40.305916,158
2021-12-24 14:12:40.305922,193
2021-12-24 14:12:40.620168,214
2021-12-24 14:12:40.620190,258
2021-12-24 14:12:40.620197,302
2021-12-24 14:12:40.620204,318
2021-12-24 14:12:40.620210,316
2021-12-24 14:12:40.620216,314
2021-12-24 14:12:40.620222,339
2021-12-24 14:12:40.620229,377
2021-12-24 14:12:40.620235,386
2021-12-24 14:12:40.620241,370
2021-12-24 14:12:40.620247,325
2021-12-24 14:12:40.620254,263
2021-12-24 14:12:40.620260,228
2021-12-24 14:12:40.620266,195
2021-12-24 14:12:40.620272,107
2021-12-24 14:12:40.620278,20
2021-12-24 14:12:40.620284,-4
2021-12-24 14:12:40.620291,-13
2021-12-24 14:12:40.620297,-13
2021-12-24 14:12:40.620307,9
2021-12-24 14:12:40.620313,25
2021-12-24 14:12:40.620320,18
2021-12-24 14:12:40.620326,0
2021-12-24 14:12:40.620332,20
2021-12-24 14:12:40.620338,65
2021-12-24 14:12:40.620345,83
2021-12-24 14:12:40.620351,88
2021-12-24 14:12:40.620357,90
2021-12-24 14:12:40.620363,60
2021-12-24 14:12:40.620369,37
2021-12-24 14:12:40.756783,67
2021-12-24 14:12:40.756812,102
2021-12-24 14:12:40.756824,83
2021-12-24 14:12:40.756833,27
2021-12-24 14:12:40.756843,-16
2021-12-24 14:12:40.756853,-20
2021-12-24 14:12:40.756862,-20
2021-12-24 14:12:40.756871,-9
2021-12-24 14:12:40.756881,9
2021-12-24 14:12:40.756891,-32
2021-12-24 14:12:40.756901,-95
2021-12-24 14:12:40.756910,-69
2021-12-24 14:12:40.756920,-11
2021-12-24 14:12:40.756929,-4
2021-12-24 14:12:40.756938,-13
2021-12-24 14:12:40.756948,-23
2021-12-24 14:12:40.756957,-41
2021-12-24 14:12:40.756967,-39
2021-12-24 14:12:40.756976,-6
2021-12-24 14:12:40.756986,13
2021-12-24 14:12:40.756995,11
2021-12-24 14:12:40.757005,-11
2021-12-24 14:12:40.757014,-34
2021-12-24 14:12:40.757024,-9
2021-12-24 14:12:40.757047,37
2021-12-24 14:12:40.757057,34
2021-12-24 14:12:40.757067,-32
2021-12-24 14:12:40.757077,-86
2021-12-24 14:12:40.757086,-69
2021-12-24 14:12:40.757096,-37
2021-12-24 14:12:41.026807,-11
2021-12-24 14:12:41.026837,34
2021-12-24 14:12:41.026849,48
2021-12-24 14:12:41.026859,-9
2021-12-24 14:12:41.026869,-44
2021-12-24 14:12:41.026879,6
2021-12-24 14:12:41.026888,58
2021-12-24 14:12:41.026903,69
2021-12-24 14:12:41.026916,51
2021-12-24 14:12:41.026926,-4
2021-12-24 14:12:41.026936,-6
2021-12-24 14:12:41.026946,62
2021-12-24 14:12:41.026959,109
2021-12-24 14:12:41.026973,118
2021-12-24 14:12:41.026983,116
2021-12-24 14:12:41.026992,93
2021-12-24 14:12:41.027002,88
2021-12-24 14:12:41.027012,100
2021-12-24 14:12:41.027021,65
2021-12-24 14:12:41.027031,60
2021-12-24 14:12:41.027041,109
2021-12-24 14:12:41.027050,104
2021-12-24 14:12:41.027060,81
2021-12-24 14:12:41.027070,125
2021-12-24 14:12:41.027079,167
2021-12-24 14:12:41.027089,169
2021-12-24 14:12:41.027098,155
2021-12-24 14:12:41.027108,121
2021-12-24 14:12:41.027118,153
2021-12-24 14:12:41.027128,391
2021-12-24 14:12:41.251078,795
2021-12-24 14:12:41.251100,1040
2021-12-24 14:12:41.251107,526
2021-12-24 14:12:41.251114,-453
2021-12-24 14:12:41.251120,-502
2021-12-24 14:12:41.251126,249
2021-12-24 14:12:41.251133,391
2021-12-24 14:12:41.251139,151
2021-12-24 14:12:41.251145,223
2021-12-24 14:12:41.251151,260
2021-12-24 14:12:41.251157,183
2021-12-24 14:12:41.251163,232
2021-12-24 14:12:41.251169,307
2021-12-24 14:12:41.251175,297
2021-12-24 14:12:41.251182,239
2021-12-24 14:12:41.251188,202
2021-12-24 14:12:41.251194,244
2021-12-24 14:12:41.251200,307
2021-12-24 14:12:41.251206,323
2021-12-24 14:12:41.251212,323
2021-12-24 14:12:41.251218,304
2021-12-24 14:12:41.251225,279
2021-12-24 14:12:41.251231,297
2021-12-24 14:12:41.251237,353
2021-12-24 14:12:41.251243,400
2021-12-24 14:12:41.251249,395
2021-12-24 14:12:41.251255,342
2021-12-24 14:12:41.251261,307
2021-12-24 14:12:41.251267,307
2021-12-24 14:12:41.251273,274
2021-12-24 14:12:41.521388,235
2021-12-24 14:12:41.521417,193
2021-12-24 14:12:41.521434,69
2021-12-24 14:12:41.521444,-53
2021-12-24 14:12:41.521454,-55
2021-12-24 14:12:41.521464,-41
2021-12-24 14:12:41.521473,-88
2021-12-24 14:12:41.521482,-134
2021-12-24 14:12:41.521492,-179
2021-12-24 14:12:41.521501,-183
2021-12-24 14:12:41.521511,-137
2021-12-24 14:12:41.521520,-102
2021-12-24 14:12:41.521530,-114
2021-12-24 14:12:41.521539,-137
2021-12-24 14:12:41.521548,-141
2021-12-24 14:12:41.521558,-128
2021-12-24 14:12:41.521567,-102
2021-12-24 14:12:41.521577,-62
2021-12-24 14:12:41.521586,-39
2021-12-24 14:12:41.521596,-37
2021-12-24 14:12:41.521605,-30
2021-12-24 14:12:41.521615,-41
2021-12-24 14:12:41.521624,-76
2021-12-24 14:12:41.521633,-58
2021-12-24 14:12:41.521643,-18
2021-12-24 14:12:41.521652,-25
2021-12-24 14:12:41.521662,-25
2021-12-24 14:12:41.521671,-11
2021-12-24 14:12:41.521681,-4
2021-12-24 14:12:41.521690,39
2021-12-24 14:12:41.701326,79
2021-12-24 14:12:41.701345,72
2021-12-24 14:12:41.701350,74
2021-12-24 14:12:41.701354,74
2021-12-24 14:12:41.701358,65
2021-12-24 14:12:41.701363,88
2021-12-24 14:12:41.701367,83
2021-12-24 14:12:41.701371,46
2021-12-24 14:12:41.701375,60
2021-12-24 14:12:41.701380,83
2021-12-24 14:12:41.701384,93
2021-12-24 14:12:41.701388,123
2021-12-24 14:12:41.701393,125
2021-12-24 14:12:41.701397,97
2021-12-24 14:12:41.701401,97
2021-12-24 14:12:41.701406,104
2021-12-24 14:12:41.701410,107
2021-12-24 14:12:41.701415,109
2021-12-24 14:12:41.701419,93
2021-12-24 14:12:41.701423,95
2021-12-24 14:12:41.701427,121
2021-12-24 14:12:41.701432,118
2021-12-24 14:12:41.701436,111
2021-12-24 14:12:41.701440,134
2021-12-24 14:12:41.701444,114
2021-12-24 14:12:41.701448,79
2021-12-24 14:12:41.701453,100
2021-12-24 14:12:41.701457,114
2021-12-24 14:12:41.701461,111
2021-12-24 14:12:41.701465,128
2021-12-24 14:12:41.926386,134
2021-12-24 14:12:41.926416,132
2021-12-24 14:12:41.926427,144
2021-12-24 14:12:41.926437,162
2021-12-24 14:12:41.926446,146
2021-12-24 14:12:41.926456,111
2021-12-24 14:12:41.926465,200
2021-12-24 14:12:41.926475,502
2021-12-24 14:12:41.926484,861
2021-12-24 14:12:41.926508,628
2021-12-24 14:12:41.926518,-465
2021-12-24 14:12:41.926528,-1040
2021-12-24 14:12:41.926537,-381
2021-12-24 14:12:41.926547,130
2021-12-24 14:12:41.926557,-11
2021-12-24 14:12:41.926566,-18
2021-12-24 14:12:41.926576,109
2021-12-24 14:12:41.926585,74
2021-12-24 14:12:41.926595,37
2021-12-24 14:12:41.926604,81
2021-12-24 14:12:41.926614,74
2021-12-24 14:12:41.926623,25
2021-12-24 14:12:41.926633,23
2021-12-24 14:12:41.926642,30
2021-12-24 14:12:41.926652,23
2021-12-24 14:12:41.926661,44
2021-12-24 14:12:41.926671,55
2021-12-24 14:12:41.926680,46
2021-12-24 14:12:41.926690,88
2021-12-24 14:12:41.926699,141
2021-12-24 14:12:42.151655,174
2021-12-24 14:12:42.151684,232
2021-12-24 14:12:42.151696,276
2021-12-24 14:12:42.151706,274
2021-12-24 14:12:42.151716,272
2021-12-24 14:12:42.151725,223
2021-12-24 14:12:42.151735,132
2021-12-24 14:12:42.151744,93
2021-12-24 14:12:42.151754,58
2021-12-24 14:12:42.151764,13
2021-12-24 14:12:42.151773,-9
2021-12-24 14:12:42.151783,-65
2021-12-24 14:12:42.151793,-125
2021-12-24 14:12:42.151802,-132
2021-12-24 14:12:42.151812,-134
2021-12-24 14:12:42.151821,-151
2021-12-24 14:12:42.151831,-137
2021-12-24 14:12:42.151841,-118
2021-12-24 14:12:42.151850,-130
2021-12-24 14:12:42.151860,-104
2021-12-24 14:12:42.151869,-48
2021-12-24 14:12:42.151879,-44
2021-12-24 14:12:42.151889,-55
2021-12-24 14:12:42.151898,-48
2021-12-24 14:12:42.151908,-67
2021-12-24 14:12:42.151917,-102
2021-12-24 14:12:42.151927,-97
2021-12-24 14:12:42.151937,-39
2021-12-24 14:12:42.151978,-18
2021-12-24 14:12:42.151989,-76
2021-12-24 14:12:42.376274,-76
2021-12-24 14:12:42.376294,-9
2021-12-24 14:12:42.376301,-16
2021-12-24 14:12:42.376308,-79
2021-12-24 14:12:42.376314,-109
2021-12-24 14:12:42.376320,-111
2021-12-24 14:12:42.376326,-88
2021-12-24 14:12:42.376333,-48
2021-12-24 14:12:42.376339,-30
2021-12-24 14:12:42.376345,-41
2021-12-24 14:12:42.376352,-72
2021-12-24 14:12:42.376358,-95
2021-12-24 14:12:42.376364,-79
2021-12-24 14:12:42.376370,-93
2021-12-24 14:12:42.376377,-158
2021-12-24 14:12:42.376383,-153
2021-12-24 14:12:42.376389,-90
2021-12-24 14:12:42.376396,-60
2021-12-24 14:12:42.376402,-41
2021-12-24 14:12:42.376408,-13
2021-12-24 14:12:42.376414,-2
2021-12-24 14:12:42.376421,-27
2021-12-24 14:12:42.376427,-53
2021-12-24 14:12:42.376433,-6
2021-12-24 14:12:42.376439,72
2021-12-24 14:12:42.376446,76
2021-12-24 14:12:42.376452,55
2021-12-24 14:12:42.376458,60
2021-12-24 14:12:42.376464,58
2021-12-24 14:12:42.376471,58
2021-12-24 14:12:42.689986,46
2021-12-24 14:12:42.690015,13
2021-12-24 14:12:42.690027,11
2021-12-24 14:12:42.690037,97
2021-12-24 14:12:42.690046,404
2021-12-24 14:12:42.690056,879
2021-12-24 14:12:42.690066,772
2021-12-24 14:12:42.690075,-311
2021-12-24 14:12:42.690085,-979
2021-12-24 14:12:42.690094,-370
2021-12-24 14:12:42.690104,151
2021-12-24 14:12:42.690114,6
2021-12-24 14:12:42.690123,23
2021-12-24 14:12:42.690133,188
2021-12-24 14:12:42.690142,148
2021-12-24 14:12:42.690152,97
2021-12-24 14:12:42.690161,141
2021-12-24 14:12:42.690171,174
2021-12-24 14:12:42.690181,193
2021-12-24 14:12:42.690191,218
2021-12-24 14:12:42.690200,218
2021-12-24 14:12:42.690210,172
2021-12-24 14:12:42.690219,155
2021-12-24 14:12:42.690229,218
2021-12-24 14:12:42.690239,274
2021-12-24 14:12:42.690248,276
2021-12-24 14:12:42.690258,269
2021-12-24 14:12:42.690267,269
2021-12-24 14:12:42.690277,267
2021-12-24 14:12:42.690287,288
2021-12-24 14:12:42.961092,330
2021-12-24 14:12:42.961110,342
2021-12-24 14:12:42.961118,281
2021-12-24 14:12:42.961124,207
2021-12-24 14:12:42.961131,181
2021-12-24 14:12:42.961137,148
2021-12-24 14:12:42.961143,88
2021-12-24 14:12:42.961149,41
2021-12-24 14:12:42.961156,-32
2021-12-24 14:12:42.961162,-162
2021-12-24 14:12:42.961168,-218
2021-12-24 14:12:42.961174,-167
2021-12-24 14:12:42.961181,-151
2021-12-24 14:12:42.961187,-169
2021-12-24 14:12:42.961193,-158
2021-12-24 14:12:42.961199,-188
2021-12-24 14:12:42.961205,-209
2021-12-24 14:12:42.961212,-153
2021-12-24 14:12:42.961218,-132
2021-12-24 14:12:42.961224,-193
2021-12-24 14:12:42.961230,-230
2021-12-24 14:12:42.961236,-207
2021-12-24 14:12:42.961243,-169
2021-12-24 14:12:42.961249,-132
2021-12-24 14:12:42.961255,-104
2021-12-24 14:12:42.961261,-95
2021-12-24 14:12:42.961268,-86
2021-12-24 14:12:42.961274,-69
2021-12-24 14:12:42.961280,-46
2021-12-24 14:12:42.961286,-11
2021-12-24 14:12:43.140753,11
2021-12-24 14:12:43.140775,18
2021-12-24 14:12:43.140782,11
2021-12-24 14:12:43.140789,-25
2021-12-24 14:12:43.140795,-67
2021-12-24 14:12:43.140802,-41
2021-12-24 14:12:43.140808,11
2021-12-24 14:12:43.140814,9
2021-12-24 14:12:43.140820,-30
2021-12-24 14:12:43.140827,-37
2021-12-24 14:12:43.140833,-9
2021-12-24 14:12:43.140839,6
2021-12-24 14:12:43.140845,23
2021-12-24 14:12:43.140852,58
2021-12-24 14:12:43.140858,48
2021-12-24 14:12:43.140864,16
2021-12-24 14:12:43.140870,23
2021-12-24 14:12:43.140876,44
2021-12-24 14:12:43.140883,55
2021-12-24 14:12:43.140889,60
2021-12-24 14:12:43.140895,34
2021-12-24 14:12:43.140901,16
2021-12-24 14:12:43.140907,58
2021-12-24 14:12:43.140913,104
2021-12-24 14:12:43.140919,107
2021-12-24 14:12:43.140925,76
2021-12-24 14:12:43.140932,34
2021-12-24 14:12:43.140938,34
2021-12-24 14:12:43.140944,72
2021-12-24 14:12:43.140950,67
2021-12-24 14:12:43.321357,111
2021-12-24 14:12:43.321378,386
2021-12-24 14:12:43.321385,868
2021-12-24 14:12:43.321392,1045
2021-12-24 14:12:43.321398,237
2021-12-24 14:12:43.321404,-782
2021-12-24 14:12:43.321410,-574
2021-12-24 14:12:43.321416,116
2021-12-24 14:12:43.321429,58
2021-12-24 14:12:43.321435,-97
2021-12-24 14:12:43.321441,86
2021-12-24 14:12:43.321448,144
2021-12-24 14:12:43.321454,86
2021-12-24 14:12:43.321460,97
2021-12-24 14:12:43.321466,107
2021-12-24 14:12:43.321472,104
2021-12-24 14:12:43.321478,132
2021-12-24 14:12:43.321484,172
2021-12-24 14:12:43.321490,202
2021-12-24 14:12:43.321496,202
2021-12-24 14:12:43.321502,197
2021-12-24 14:12:43.321508,228
2021-12-24 14:12:43.321515,269
2021-12-24 14:12:43.321521,314
2021-12-24 14:12:43.321528,351
2021-12-24 14:12:43.321534,346
2021-12-24 14:12:43.321540,335
2021-12-24 14:12:43.321547,377
2021-12-24 14:12:43.321553,423
2021-12-24 14:12:43.321563,432
2021-12-24 14:12:43.546841,409
2021-12-24 14:12:43.546871,374
2021-12-24 14:12:43.546882,332
2021-12-24 14:12:43.546892,274
2021-12-24 14:12:43.546902,200
2021-12-24 14:12:43.546912,137
2021-12-24 14:12:43.546922,65
2021-12-24 14:12:43.546931,-34
2021-12-24 14:12:43.546941,-111
2021-12-24 14:12:43.546951,-137
2021-12-24 14:12:43.546961,-137
2021-12-24 14:12:43.546970,-111
2021-12-24 14:12:43.546980,-123
2021-12-24 14:12:43.546989,-188
2021-12-24 14:12:43.546999,-204
2021-12-24 14:12:43.547009,-155
2021-12-24 14:12:43.547018,-125
2021-12-24 14:12:43.547028,-144
2021-12-24 14:12:43.547037,-186
2021-12-24 14:12:43.547047,-186
2021-12-24 14:12:43.547057,-174
2021-12-24 14:12:43.547066,-204
2021-12-24 14:12:43.547076,-204
2021-12-24 14:12:43.547085,-155
2021-12-24 14:12:43.547095,-146
2021-12-24 14:12:43.547104,-167
2021-12-24 14:12:43.547114,-146
2021-12-24 14:12:43.547123,-111
2021-12-24 14:12:43.547133,-102
2021-12-24 14:12:43.547142,-104
2021-12-24 14:12:43.816337,-100
2021-12-24 14:12:43.816367,-79
2021-12-24 14:12:43.816378,-67
2021-12-24 14:12:43.816388,-83
2021-12-24 14:12:43.816397,-76
2021-12-24 14:12:43.816407,-79
2021-12-24 14:12:43.816416,-118
2021-12-24 14:12:43.816426,-107
2021-12-24 14:12:43.816435,-44
2021-12-24 14:12:43.816444,-34
2021-12-24 14:12:43.816454,-74
2021-12-24 14:12:43.816464,-123
2021-12-24 14:12:43.816486,-169
2021-12-24 14:12:43.816497,-141
2021-12-24 14:12:43.816506,-81
2021-12-24 14:12:43.816516,-83
2021-12-24 14:12:43.816525,-90
2021-12-24 14:12:43.816534,-62
2021-12-24 14:12:43.816544,-55
2021-12-24 14:12:43.816558,-39
2021-12-24 14:12:43.816568,-9
2021-12-24 14:12:43.816578,0
2021-12-24 14:12:43.816587,0
2021-12-24 14:12:43.816597,-16
2021-12-24 14:12:43.816606,-34
2021-12-24 14:12:43.816615,88
2021-12-24 14:12:43.816625,460
2021-12-24 14:12:43.816635,970
2021-12-24 14:12:43.816644,949
2021-12-24 14:12:43.816654,-139
2021-12-24 14:12:43.996665,-1052
2021-12-24 14:12:43.996686,-553
2021-12-24 14:12:43.996694,121
2021-12-24 14:12:43.996700,-4
2021-12-24 14:12:43.996706,-100
2021-12-24 14:12:43.996712,44
2021-12-24 14:12:43.996718,20
2021-12-24 14:12:43.996725,-4
2021-12-24 14:12:43.996731,76
2021-12-24 14:12:43.996737,95
2021-12-24 14:12:43.996743,90
2021-12-24 14:12:43.996749,116
2021-12-24 14:12:43.996755,104
2021-12-24 14:12:43.996762,97
2021-12-24 14:12:43.996768,158
2021-12-24 14:12:43.996774,190
2021-12-24 14:12:43.996780,167
2021-12-24 14:12:43.996786,172
2021-12-24 14:12:43.996792,216
2021-12-24 14:12:43.996798,274
2021-12-24 14:12:43.996805,325
2021-12-24 14:12:43.996811,353
2021-12-24 14:12:43.996817,370
2021-12-24 14:12:43.996823,379
2021-12-24 14:12:43.996829,384
2021-12-24 14:12:43.996835,372
2021-12-24 14:12:43.996842,349
2021-12-24 14:12:43.996848,304
2021-12-24 14:12:43.996854,209
2021-12-24 14:12:43.996860,114
2021-12-24 14:12:44.310810,83
2021-12-24 14:12:44.310833,65
2021-12-24 14:12:44.310840,20
2021-12-24 14:12:44.310847,-25
2021-12-24 14:12:44.310853,-69
2021-12-24 14:12:44.310860,-93
2021-12-24 14:12:44.310866,-74
2021-12-24 14:12:44.310873,-51
2021-12-24 14:12:44.310879,-30
2021-12-24 14:12:44.310886,-34
2021-12-24 14:12:44.310892,-83
2021-12-24 14:12:44.310898,-83
2021-12-24 14:12:44.310905,-25
2021-12-24 14:12:44.310911,-4
2021-12-24 14:12:44.310917,-37
2021-12-24 14:12:44.310924,-72
2021-12-24 14:12:44.310930,-67
2021-12-24 14:12:44.310936,-39
2021-12-24 14:12:44.310943,-11
2021-12-24 14:12:44.310949,16
2021-12-24 14:12:44.310955,41
2021-12-24 14:12:44.310962,32
2021-12-24 14:12:44.310968,6
2021-12-24 14:12:44.310974,32
2021-12-24 14:12:44.310980,72
2021-12-24 14:12:44.310987,74
2021-12-24 14:12:44.310993,74
2021-12-24 14:12:44.311000,67
2021-12-24 14:12:44.311006,53
2021-12-24 14:12:44.311012,60
2021-12-24 14:12:44.491281,79
2021-12-24 14:12:44.491301,93
2021-12-24 14:12:44.491308,90
2021-12-24 14:12:44.491315,39
2021-12-24 14:12:44.491321,-34
2021-12-24 14:12:44.491331,-46
2021-12-24 14:12:44.491338,-37
2021-12-24 14:12:44.491344,-65
2021-12-24 14:12:44.491350,-86
2021-12-24 14:12:44.491356,-134
2021-12-24 14:12:44.491363,-207
2021-12-24 14:12:44.491369,-211
2021-12-24 14:12:44.491375,-195
2021-12-24 14:12:44.491381,-190
2021-12-24 14:12:44.491388,-169
2021-12-24 14:12:44.491394,-176
2021-12-24 14:12:44.491400,-216
2021-12-24 14:12:44.491406,-216
2021-12-24 14:12:44.491412,-172
2021-12-24 14:12:44.491419,-144
2021-12-24 14:12:44.491425,-148
2021-12-24 14:12:44.491431,-174
2021-12-24 14:12:44.491438,-195
2021-12-24 14:12:44.491444,-167
2021-12-24 14:12:44.491450,20
2021-12-24 14:12:44.491457,486
2021-12-24 14:12:44.491463,951
2021-12-24 14:12:44.491469,658
2021-12-24 14:12:44.491476,-491
2021-12-24 14:12:44.491482,-998
2021-12-24 14:12:44.850276,-267
2021-12-24 14:12:44.850305,153
2021-12-24 14:12:44.850317,-109
2021-12-24 14:12:44.850327,-100
2021-12-24 14:12:44.850336,48
2021-12-24 14:12:44.850346,2
2021-12-24 14:12:44.850355,4
2021-12-24 14:12:44.850365,81
2021-12-24 14:12:44.850374,51
2021-12-24 14:12:44.850384,-30
2021-12-24 14:12:44.850394,-25
2021-12-24 14:12:44.850403,46
2021-12-24 14:12:44.850413,102
2021-12-24 14:12:44.850422,111
2021-12-24 14:12:44.850432,86
2021-12-24 14:12:44.850441,74
2021-12-24 14:12:44.850450,114
2021-12-24 14:12:44.850460,155
2021-12-24 14:12:44.850469,160
2021-12-24 14:12:44.850479,190
2021-12-24 14:12:44.850489,230
2021-12-24 14:12:44.850498,223
2021-12-24 14:12:44.850508,251
2021-12-24 14:12:44.850517,293
2021-12-24 14:12:44.850527,269
2021-12-24 14:12:44.850536,230
2021-12-24 14:12:44.850546,183
2021-12-24 14:12:44.850555,100
2021-12-24 14:12:44.850564,30
2021-12-24 14:12:44.850574,0
2021-12-24 14:12:44.941745,-27
2021-12-24 14:12:44.941775,-53
2021-12-24 14:12:44.941786,-74
2021-12-24 14:12:44.941796,-102
2021-12-24 14:12:44.941805,-102
2021-12-24 14:12:44.941815,-62
2021-12-24 14:12:44.941824,-34
2021-12-24 14:12:44.941834,-37
2021-12-24 14:12:44.941843,-67
2021-12-24 14:12:44.941853,-79
2021-12-24 14:12:44.941862,-39
2021-12-24 14:12:44.941872,-25
2021-12-24 14:12:44.941881,-93
2021-12-24 14:12:44.941891,-165
2021-12-24 14:12:44.941900,-179
2021-12-24 14:12:44.941910,-162
2021-12-24 14:12:44.941919,-137
2021-12-24 14:12:44.941929,-104
2021-12-24 14:12:44.941938,-72
2021-12-24 14:12:44.941948,-58
2021-12-24 14:12:44.941958,-90
2021-12-24 14:12:44.941967,-128
2021-12-24 14:12:44.941977,-97
2021-12-24 14:12:44.941986,-48
2021-12-24 14:12:44.941996,-41
2021-12-24 14:12:44.942005,-69
2021-12-24 14:12:44.942015,-109
2021-12-24 14:12:44.942024,-111
2021-12-24 14:12:44.942034,-76
2021-12-24 14:12:44.942043,-51
2021-12-24 14:12:45.165955,-44
2021-12-24 14:12:45.165975,-44
2021-12-24 14:12:45.165981,-39
2021-12-24 14:12:45.165987,-37
2021-12-24 14:12:45.165992,-18
2021-12-24 14:12:45.165997,13
2021-12-24 14:12:45.166002,9
2021-12-24 14:12:45.166007,-41
2021-12-24 14:12:45.166012,-72
2021-12-24 14:12:45.166017,-67
2021-12-24 14:12:45.166023,-55
2021-12-24 14:12:45.166028,-34
2021-12-24 14:12:45.166033,-6
2021-12-24 14:12:45.166038,-18
2021-12-24 14:12:45.166043,-39
2021-12-24 14:12:45.166048,-23
2021-12-24 14:12:45.166053,0
2021-12-24 14:12:45.166058,6
2021-12-24 14:12:45.166064,4
2021-12-24 14:12:45.166069,-2
2021-12-24 14:12:45.166074,-4
2021-12-24 14:12:45.166079,-6
2021-12-24 14:12:45.166084,-34
2021-12-24 14:12:45.166089,-81
2021-12-24 14:12:45.166094,-100
2021-12-24 14:12:45.166099,-86
2021-12-24 14:12:45.166104,-74
2021-12-24 14:12:45.166109,-90
2021-12-24 14:12:45.166114,-146
2021-12-24 14:12:45.166119,-144
2021-12-24 14:12:45.390913,44
2021-12-24 14:12:45.390935,470
2021-12-24 14:12:45.390943,865
2021-12-24 14:12:45.390949,479
2021-12-24 14:12:45.390955,-658
2021-12-24 14:12:45.390961,-984
2021-12-24 14:12:45.390968,-253
2021-12-24 14:12:45.390974,-32
2021-12-24 14:12:45.390980,-300
2021-12-24 14:12:45.390986,-195
2021-12-24 14:12:45.390993,-65
2021-12-24 14:12:45.390999,-141
2021-12-24 14:12:45.391005,-169
2021-12-24 14:12:45.391011,-137
2021-12-24 14:12:45.391017,-109
2021-12-24 14:12:45.391023,-81
2021-12-24 14:12:45.391030,-90
2021-12-24 14:12:45.391036,-141
2021-12-24 14:12:45.391042,-167
2021-12-24 14:12:45.391048,-114
2021-12-24 14:12:45.391054,-53
2021-12-24 14:12:45.391060,-30
2021-12-24 14:12:45.391067,13
2021-12-24 14:12:45.391073,72
2021-12-24 14:12:45.391079,90
2021-12-24 14:12:45.391085,104
2021-12-24 14:12:45.391104,151
2021-12-24 14:12:45.391111,181
2021-12-24 14:12:45.391118,200
2021-12-24 14:12:45.391124,214
2021-12-24 14:12:45.616710,195
2021-12-24 14:12:45.616740,169
2021-12-24 14:12:45.616752,139
2021-12-24 14:12:45.616762,67
2021-12-24 14:12:45.616771,-4
2021-12-24 14:12:45.616781,-58
2021-12-24 14:12:45.616791,-139
2021-12-24 14:12:45.616800,-176
2021-12-24 14:12:45.616810,-146
2021-12-24 14:12:45.616819,-148
2021-12-24 14:12:45.616829,-160
2021-12-24 14:12:45.616838,-155
2021-12-24 14:12:45.616848,-176
2021-12-24 14:12:45.616857,-167
2021-12-24 14:12:45.616867,-125
2021-12-24 14:12:45.616876,-97
2021-12-24 14:12:45.616886,-86
2021-12-24 14:12:45.616895,-79
2021-12-24 14:12:45.616905,-67
2021-12-24 14:12:45.616914,-39
2021-12-24 14:12:45.616928,-18
2021-12-24 14:12:45.616938,-23
2021-12-24 14:12:45.616947,-25
2021-12-24 14:12:45.616957,-9
2021-12-24 14:12:45.616966,9
2021-12-24 14:12:45.616976,11
2021-12-24 14:12:45.616985,-13
2021-12-24 14:12:45.616995,-39
2021-12-24 14:12:45.617005,-37
2021-12-24 14:12:45.617026,-30
2021-12-24 14:12:45.841651,-13
2021-12-24 14:12:45.841672,16
2021-12-24 14:12:45.841679,32
2021-12-24 14:12:45.841686,27
2021-12-24 14:12:45.841692,13
2021-12-24 14:12:45.841698,-9
2021-12-24 14:12:45.841704,-18
2021-12-24 14:12:45.841710,2
2021-12-24 14:12:45.841717,27
2021-12-24 14:12:45.841723,39
2021-12-24 14:12:45.841729,18
2021-12-24 14:12:45.841735,-25
2021-12-24 14:12:45.841742,-18
2021-12-24 14:12:45.841748,27
2021-12-24 14:12:45.841754,41
2021-12-24 14:12:45.841760,34
2021-12-24 14:12:45.841766,32
2021-12-24 14:12:45.841773,34
2021-12-24 14:12:45.841779,53
2021-12-24 14:12:45.841785,76
2021-12-24 14:12:45.841791,72
2021-12-24 14:12:45.841797,62
2021-12-24 14:12:45.841803,46
2021-12-24 14:12:45.841810,-2
2021-12-24 14:12:45.841816,-18
2021-12-24 14:12:45.841822,27
2021-12-24 14:12:45.841828,53
2021-12-24 14:12:45.841835,34
2021-12-24 14:12:45.841841,4
2021-12-24 14:12:45.841847,-16
2021-12-24 14:12:46.066689,-9
2021-12-24 14:12:46.066719,4
2021-12-24 14:12:46.066731,23
2021-12-24 14:12:46.066741,13
2021-12-24 14:12:46.066750,-55
2021-12-24 14:12:46.066760,-116
2021-12-24 14:12:46.066769,-109
2021-12-24 14:12:46.066779,-93
2021-12-24 14:12:46.066788,-128
2021-12-24 14:12:46.066798,-176
2021-12-24 14:12:46.066807,-207
2021-12-24 14:12:46.066817,-204
2021-12-24 14:12:46.066826,-167
2021-12-24 14:12:46.066835,-134
2021-12-24 14:12:46.066845,-130
2021-12-24 14:12:46.066855,-141
2021-12-24 14:12:46.066864,-155
2021-12-24 14:12:46.066874,-132
2021-12-24 14:12:46.066883,4
2021-12-24 14:12:46.066893,351
2021-12-24 14:12:46.066902,802
2021-12-24 14:12:46.066912,768
2021-12-24 14:12:46.066921,-186
2021-12-24 14:12:46.066931,-933
2021-12-24 14:12:46.066940,-416
2021-12-24 14:12:46.066950,162
2021-12-24 14:12:46.066959,-27
2021-12-24 14:12:46.066969,-123
2021-12-24 14:12:46.066978,55
2021-12-24 14:12:46.066988,48
2021-12-24 14:12:46.336032,-25
2021-12-24 14:12:46.336063,9
2021-12-24 14:12:46.336074,39
2021-12-24 14:12:46.336084,-18
2021-12-24 14:12:46.336093,-69
2021-12-24 14:12:46.336103,-20
2021-12-24 14:12:46.336112,46
2021-12-24 14:12:46.336122,74
2021-12-24 14:12:46.336131,93
2021-12-24 14:12:46.336141,69
2021-12-24 14:12:46.336150,44
2021-12-24 14:12:46.336160,102
2021-12-24 14:12:46.336169,183
2021-12-24 14:12:46.336179,235
2021-12-24 14:12:46.336188,267
2021-12-24 14:12:46.336198,263
2021-12-24 14:12:46.336207,260
2021-12-24 14:12:46.336217,293
2021-12-24 14:12:46.336226,297
2021-12-24 14:12:46.336236,274
2021-12-24 14:12:46.336245,239
2021-12-24 14:12:46.336255,172
2021-12-24 14:12:46.336264,102
2021-12-24 14:12:46.336274,76
2021-12-24 14:12:46.336284,53
2021-12-24 14:12:46.336293,16
2021-12-24 14:12:46.336303,-18
2021-12-24 14:12:46.336312,-76
2021-12-24 14:12:46.336348,-162
2021-12-24 14:12:46.336359,-174
2021-12-24 14:12:46.560960,-114
2021-12-24 14:12:46.560978,-95
2021-12-24 14:12:46.560986,-128
2021-12-24 14:12:46.560992,-141
2021-12-24 14:12:46.560999,-121
2021-12-24 14:12:46.561005,-76
2021-12-24 14:12:46.561011,-44
2021-12-24 14:12:46.561017,-32
2021-12-24 14:12:46.561024,-58
2021-12-24 14:12:46.561030,-114
2021-12-24 14:12:46.561036,-104
2021-12-24 14:12:46.561042,-44
2021-12-24 14:12:46.561048,-18
2021-12-24 14:12:46.561055,-25
2021-12-24 14:12:46.561061,-58
2021-12-24 14:12:46.561067,-97
2021-12-24 14:12:46.561073,-74
2021-12-24 14:12:46.561079,-18
2021-12-24 14:12:46.561085,-4
2021-12-24 14:12:46.561091,-11
2021-12-24 14:12:46.561098,-18
2021-12-24 14:12:46.561104,-25
2021-12-24 14:12:46.561110,-11
2021-12-24 14:12:46.561116,20
2021-12-24 14:12:46.561123,39
2021-12-24 14:12:46.561129,41
2021-12-24 14:12:46.561135,30
2021-12-24 14:12:46.561141,0
2021-12-24 14:12:46.561147,-20
2021-12-24 14:12:46.561154,-16
2021-12-24 14:12:46.830150,0
2021-12-24 14:12:46.830180,-2
2021-12-24 14:12:46.830192,-39
2021-12-24 14:12:46.830201,-83
2021-12-24 14:12:46.830211,-128
2021-12-24 14:12:46.830220,-179
2021-12-24 14:12:46.830230,-200
2021-12-24 14:12:46.830239,-202
2021-12-24 14:12:46.830249,-242
2021-12-24 14:12:46.830258,-242
2021-12-24 14:12:46.830268,-176
2021-12-24 14:12:46.830277,-137
2021-12-24 14:12:46.830286,-137
2021-12-24 14:12:46.830296,-151
2021-12-24 14:12:46.830305,-193
2021-12-24 14:12:46.830315,-216
2021-12-24 14:12:46.830324,-181
2021-12-24 14:12:46.830334,-132
2021-12-24 14:12:46.830343,-116
2021-12-24 14:12:46.830353,-121
2021-12-24 14:12:46.830362,-134
2021-12-24 14:12:46.830372,-121
2021-12-24 14:12:46.830381,-86
2021-12-24 14:12:46.830391,-67
2021-12-24 14:12:46.830400,-65
2021-12-24 14:12:46.830409,-74
2021-12-24 14:12:46.830419,-88
2021-12-24 14:12:46.830428,34
2021-12-24 14:12:46.830438,416
2021-12-24 14:12:46.830458,907
2021-12-24 14:12:47.055610,812
2021-12-24 14:12:47.055640,-318
2021-12-24 14:12:47.055651,-1105
2021-12-24 14:12:47.055661,-495
2021-12-24 14:12:47.055671,60
2021-12-24 14:12:47.055681,-155
2021-12-24 14:12:47.055690,-200
2021-12-24 14:12:47.055700,-81
2021-12-24 14:12:47.055709,-155
2021-12-24 14:12:47.055719,-153
2021-12-24 14:12:47.055728,-48
2021-12-24 14:12:47.055738,-23
2021-12-24 14:12:47.055747,-41
2021-12-24 14:12:47.055757,-67
2021-12-24 14:12:47.055767,-74
2021-12-24 14:12:47.055776,-39
2021-12-24 14:12:47.055786,11
2021-12-24 14:12:47.055795,58
2021-12-24 14:12:47.055805,90
2021-12-24 14:12:47.055814,116
2021-12-24 14:12:47.055824,158
2021-12-24 14:12:47.055833,200
2021-12-24 14:12:47.055843,235
2021-12-24 14:12:47.055853,286
2021-12-24 14:12:47.055862,316
2021-12-24 14:12:47.055872,311
2021-12-24 14:12:47.055887,316
2021-12-24 14:12:47.055897,309
2021-12-24 14:12:47.055906,281
2021-12-24 14:12:47.055916,242
2021-12-24 14:12:47.235587,172
2021-12-24 14:12:47.235608,95
2021-12-24 14:12:47.235615,44
2021-12-24 14:12:47.235622,-6
2021-12-24 14:12:47.235628,-27
2021-12-24 14:12:47.235634,-23
2021-12-24 14:12:47.235640,-67
2021-12-24 14:12:47.235647,-132
2021-12-24 14:12:47.235653,-153
2021-12-24 14:12:47.235659,-165
2021-12-24 14:12:47.235665,-158
2021-12-24 14:12:47.235671,-123
2021-12-24 14:12:47.235678,-134
2021-12-24 14:12:47.235684,-153
2021-12-24 14:12:47.235690,-114
2021-12-24 14:12:47.235696,-83
2021-12-24 14:12:47.235702,-76
2021-12-24 14:12:47.235708,-53
2021-12-24 14:12:47.235715,-53
2021-12-24 14:12:47.235721,-60
2021-12-24 14:12:47.235727,-30
2021-12-24 14:12:47.235733,-4
2021-12-24 14:12:47.235740,0
2021-12-24 14:12:47.235746,13
2021-12-24 14:12:47.235752,0
2021-12-24 14:12:47.235758,-37
2021-12-24 14:12:47.235764,-39
2021-12-24 14:12:47.235770,-20
2021-12-24 14:12:47.235777,-23
2021-12-24 14:12:47.235783,-53
2021-12-24 14:12:47.505435,-88
2021-12-24 14:12:47.505465,-88
2021-12-24 14:12:47.505477,-104
2021-12-24 14:12:47.505487,-137
2021-12-24 14:12:47.505496,-123
2021-12-24 14:12:47.505506,-139
2021-12-24 14:12:47.505515,-197
2021-12-24 14:12:47.505524,-181
2021-12-24 14:12:47.505534,-141
2021-12-24 14:12:47.505543,-169
2021-12-24 14:12:47.505553,-235
2021-12-24 14:12:47.505563,-283
2021-12-24 14:12:47.505572,-263
2021-12-24 14:12:47.505581,-207
2021-12-24 14:12:47.505591,-188
2021-12-24 14:12:47.505600,-188
2021-12-24 14:12:47.505610,-169
2021-12-24 14:12:47.505619,-162
2021-12-24 14:12:47.505629,-160
2021-12-24 14:12:47.505638,-125
2021-12-24 14:12:47.505648,-111
2021-12-24 14:12:47.505657,-134
2021-12-24 14:12:47.505667,-109
2021-12-24 14:12:47.505676,-69
2021-12-24 14:12:47.505686,-60
2021-12-24 14:12:47.505695,-44
2021-12-24 14:12:47.505704,-39
2021-12-24 14:12:47.505714,-62
2021-12-24 14:12:47.505723,18
2021-12-24 14:12:47.505733,328
2021-12-24 14:12:47.686025,793
2021-12-24 14:12:47.686055,896
2021-12-24 14:12:47.686066,53
2021-12-24 14:12:47.686076,-870
2021-12-24 14:12:47.686086,-535
2021-12-24 14:12:47.686096,153
2021-12-24 14:12:47.686105,55
2021-12-24 14:12:47.686115,-65
2021-12-24 14:12:47.686124,130
2021-12-24 14:12:47.686134,128
2021-12-24 14:12:47.686144,11
2021-12-24 14:12:47.686154,18
2021-12-24 14:12:47.686163,37
2021-12-24 14:12:47.686173,20
2021-12-24 14:12:47.686196,37
2021-12-24 14:12:47.686207,67
2021-12-24 14:12:47.686216,65
2021-12-24 14:12:47.686226,67
2021-12-24 14:12:47.686236,116
2021-12-24 14:12:47.686245,167
2021-12-24 14:12:47.686255,190
2021-12-24 14:12:47.686265,221
2021-12-24 14:12:47.686275,253
2021-12-24 14:12:47.686284,279
2021-12-24 14:12:47.686294,332
2021-12-24 14:12:47.686304,386
2021-12-24 14:12:47.686313,395
2021-12-24 14:12:47.686323,379
2021-12-24 14:12:47.686333,353
2021-12-24 14:12:47.686342,330
2021-12-24 14:12:47.911374,300
2021-12-24 14:12:47.911403,244
2021-12-24 14:12:47.911415,176
2021-12-24 14:12:47.911424,90
2021-12-24 14:12:47.911434,-18
2021-12-24 14:12:47.911444,-81
2021-12-24 14:12:47.911453,-65
2021-12-24 14:12:47.911463,-41
2021-12-24 14:12:47.911472,-41
2021-12-24 14:12:47.911481,-67
2021-12-24 14:12:47.911491,-121
2021-12-24 14:12:47.911501,-118
2021-12-24 14:12:47.911510,-58
2021-12-24 14:12:47.911520,-41
2021-12-24 14:12:47.911529,-79
2021-12-24 14:12:47.911538,-130
2021-12-24 14:12:47.911548,-169
2021-12-24 14:12:47.911557,-155
2021-12-24 14:12:47.911567,-100
2021-12-24 14:12:47.911576,-93
2021-12-24 14:12:47.911586,-134
2021-12-24 14:12:47.911595,-153
2021-12-24 14:12:47.911605,-137
2021-12-24 14:12:47.911614,-114
2021-12-24 14:12:47.911624,-111
2021-12-24 14:12:47.911633,-128
2021-12-24 14:12:47.911643,-134
2021-12-24 14:12:47.911652,-160
2021-12-24 14:12:47.911661,-183
2021-12-24 14:12:47.911671,-165
2021-12-24 14:12:48.181213,-141
2021-12-24 14:12:48.181235,-130
2021-12-24 14:12:48.181242,-128
2021-12-24 14:12:48.181249,-169
2021-12-24 14:12:48.181255,-202
2021-12-24 14:12:48.181262,-160
2021-12-24 14:12:48.181268,-121
2021-12-24 14:12:48.181274,-118
2021-12-24 14:12:48.181280,-132
2021-12-24 14:12:48.181287,-188
2021-12-24 14:12:48.181293,-218
2021-12-24 14:12:48.181299,-158
2021-12-24 14:12:48.181305,-81
2021-12-24 14:12:48.181312,-46
2021-12-24 14:12:48.181318,-53
2021-12-24 14:12:48.181324,-88
2021-12-24 14:12:48.181330,-128
2021-12-24 14:12:48.181336,-139
2021-12-24 14:12:48.181342,-104
2021-12-24 14:12:48.181348,-72
2021-12-24 14:12:48.181355,-83
2021-12-24 14:12:48.181361,-97
2021-12-24 14:12:48.181367,-74
2021-12-24 14:12:48.181373,-41
2021-12-24 14:12:48.181379,-16
2021-12-24 14:12:48.181385,6
2021-12-24 14:12:48.181391,-2
2021-12-24 14:12:48.181397,-46
2021-12-24 14:12:48.181404,-44
2021-12-24 14:12:48.181410,83
2021-12-24 14:12:48.406137,384
2021-12-24 14:12:48.406167,800
2021-12-24 14:12:48.406178,821
2021-12-24 14:12:48.406188,-46
2021-12-24 14:12:48.406197,-854
2021-12-24 14:12:48.406207,-444
2021-12-24 14:12:48.406217,221
2021-12-24 14:12:48.406226,125
2021-12-24 14:12:48.406236,-34
2021-12-24 14:12:48.406245,69
2021-12-24 14:12:48.406255,79
2021-12-24 14:12:48.406264,53
2021-12-24 14:12:48.406274,109
2021-12-24 14:12:48.406283,123
2021-12-24 14:12:48.406293,69
2021-12-24 14:12:48.406302,48
2021-12-24 14:12:48.406312,102
2021-12-24 14:12:48.406321,139
2021-12-24 14:12:48.406331,116
2021-12-24 14:12:48.406341,102
2021-12-24 14:12:48.406350,109
2021-12-24 14:12:48.406359,72
2021-12-24 14:12:48.406369,48
2021-12-24 14:12:48.406378,128
2021-12-24 14:12:48.406388,216
2021-12-24 14:12:48.406397,237
2021-12-24 14:12:48.406407,244
2021-12-24 14:12:48.406416,260
2021-12-24 14:12:48.406426,269
2021-12-24 14:12:48.406436,276
2021-12-24 14:12:48.631524,272
2021-12-24 14:12:48.631553,223
2021-12-24 14:12:48.631564,153
2021-12-24 14:12:48.631574,86
2021-12-24 14:12:48.631583,37
2021-12-24 14:12:48.631593,13
2021-12-24 14:12:48.631602,-13
2021-12-24 14:12:48.631612,-76
2021-12-24 14:12:48.631621,-144
2021-12-24 14:12:48.631630,-153
2021-12-24 14:12:48.631640,-107
2021-12-24 14:12:48.631649,-76
2021-12-24 14:12:48.631659,-76
2021-12-24 14:12:48.631668,-95
2021-12-24 14:12:48.631677,-128
2021-12-24 14:12:48.631687,-114
2021-12-24 14:12:48.631696,-62
2021-12-24 14:12:48.631706,-46
2021-12-24 14:12:48.631715,-58
2021-12-24 14:12:48.631725,-74
2021-12-24 14:12:48.631734,-100
2021-12-24 14:12:48.631744,-132
2021-12-24 14:12:48.631753,-123
2021-12-24 14:12:48.631763,-109
2021-12-24 14:12:48.631772,-139
2021-12-24 14:12:48.631841,-174
2021-12-24 14:12:48.631851,-197
2021-12-24 14:12:48.631860,-204
2021-12-24 14:12:48.631870,-183
2021-12-24 14:12:48.631879,-155
2021-12-24 14:12:48.899452,-144
2021-12-24 14:12:48.899473,-148
2021-12-24 14:12:48.899481,-153
2021-12-24 14:12:48.899487,-153
2021-12-24 14:12:48.899493,-141
2021-12-24 14:12:48.899499,-116
2021-12-24 14:12:48.899506,-118
2021-12-24 14:12:48.899512,-172
2021-12-24 14:12:48.899518,-190
2021-12-24 14:12:48.899524,-153
2021-12-24 14:12:48.899530,-139
2021-12-24 14:12:48.899537,-137
2021-12-24 14:12:48.899543,-123
2021-12-24 14:12:48.899549,-132
2021-12-24 14:12:48.899555,-130
2021-12-24 14:12:48.899561,-107
2021-12-24 14:12:48.899567,-93
2021-12-24 14:12:48.899573,-83
2021-12-24 14:12:48.899579,-83
2021-12-24 14:12:48.899586,-93
2021-12-24 14:12:48.899592,-72
2021-12-24 14:12:48.899598,-51
2021-12-24 14:12:48.899604,-83
2021-12-24 14:12:48.899610,-123
2021-12-24 14:12:48.899616,-114
2021-12-24 14:12:48.899622,-81
2021-12-24 14:12:48.899628,-81
2021-12-24 14:12:48.899635,-144
2021-12-24 14:12:48.899641,-195
2021-12-24 14:12:48.899647,-158
2021-12-24 14:12:49.081673,9
2021-12-24 14:12:49.081702,388
2021-12-24 14:12:49.081713,830
2021-12-24 14:12:49.081724,579
2021-12-24 14:12:49.081734,-553
2021-12-24 14:12:49.081743,-1089
2021-12-24 14:12:49.081753,-409
2021-12-24 14:12:49.081763,41
2021-12-24 14:12:49.081772,-130
2021-12-24 14:12:49.081782,-100
2021-12-24 14:12:49.081791,58
2021-12-24 14:12:49.081801,6
2021-12-24 14:12:49.081810,-58
2021-12-24 14:12:49.081820,-18
2021-12-24 14:12:49.081830,11
2021-12-24 14:12:49.081840,25
2021-12-24 14:12:49.081849,51
2021-12-24 14:12:49.081859,65
2021-12-24 14:12:49.081869,74
2021-12-24 14:12:49.081879,107
2021-12-24 14:12:49.081888,146
2021-12-24 14:12:49.081898,165
2021-12-24 14:12:49.081907,197
2021-12-24 14:12:49.081917,256
2021-12-24 14:12:49.081926,281
2021-12-24 14:12:49.081936,281
2021-12-24 14:12:49.081946,309
2021-12-24 14:12:49.081955,339
2021-12-24 14:12:49.081965,351
2021-12-24 14:12:49.081974,346
2021-12-24 14:12:49.306126,316
2021-12-24 14:12:49.306155,286
2021-12-24 14:12:49.306166,244
2021-12-24 14:12:49.306176,167
2021-12-24 14:12:49.306186,86
2021-12-24 14:12:49.306195,-4
2021-12-24 14:12:49.306205,-90
2021-12-24 14:12:49.306214,-102
2021-12-24 14:12:49.306224,-86
2021-12-24 14:12:49.306233,-107
2021-12-24 14:12:49.306242,-128
2021-12-24 14:12:49.306252,-146
2021-12-24 14:12:49.306261,-158
2021-12-24 14:12:49.306271,-118
2021-12-24 14:12:49.306280,-88
2021-12-24 14:12:49.306290,-95
2021-12-24 14:12:49.306299,-88
2021-12-24 14:12:49.306308,-74
2021-12-24 14:12:49.306318,-60
2021-12-24 14:12:49.306327,-34
2021-12-24 14:12:49.306337,-20
2021-12-24 14:12:49.306346,-20
2021-12-24 14:12:49.306355,-11
2021-12-24 14:12:49.306365,-11
2021-12-24 14:12:49.306374,-25
2021-12-24 14:12:49.306384,-46
2021-12-24 14:12:49.306393,-79
2021-12-24 14:12:49.306402,-109
2021-12-24 14:12:49.306425,-125
2021-12-24 14:12:49.306436,-148
2021-12-24 14:12:49.575418,-160
2021-12-24 14:12:49.575447,-155
2021-12-24 14:12:49.575458,-225
2021-12-24 14:12:49.575468,-328
2021-12-24 14:12:49.575478,-349
2021-12-24 14:12:49.575487,-332
2021-12-24 14:12:49.575497,-311
2021-12-24 14:12:49.575506,-281
2021-12-24 14:12:49.575516,-269
2021-12-24 14:12:49.575525,-253
2021-12-24 14:12:49.575535,-249
2021-12-24 14:12:49.575544,-265
2021-12-24 14:12:49.575554,-244
2021-12-24 14:12:49.575563,-197
2021-12-24 14:12:49.575573,-188
2021-12-24 14:12:49.575582,-209
2021-12-24 14:12:49.575592,-214
2021-12-24 14:12:49.575601,-181
2021-12-24 14:12:49.575611,-139
2021-12-24 14:12:49.575621,-118
2021-12-24 14:12:49.575630,-114
2021-12-24 14:12:49.575640,-116
2021-12-24 14:12:49.575649,-114
2021-12-24 14:12:49.575659,-102
2021-12-24 14:12:49.575668,-81
2021-12-24 14:12:49.575678,-74
2021-12-24 14:12:49.575700,-51
2021-12-24 14:12:49.575711,134
2021-12-24 14:12:49.575721,551
2021-12-24 14:12:49.575731,891
2021-12-24 14:12:49.755804,439
2021-12-24 14:12:49.755823,-674
2021-12-24 14:12:49.755831,-912
2021-12-24 14:12:49.755837,-146
2021-12-24 14:12:49.755844,65
2021-12-24 14:12:49.755850,-181
2021-12-24 14:12:49.755856,-46
2021-12-24 14:12:49.755862,90
2021-12-24 14:12:49.755869,4
2021-12-24 14:12:49.755875,-11
2021-12-24 14:12:49.755881,32
2021-12-24 14:12:49.755887,44
2021-12-24 14:12:49.755893,65
2021-12-24 14:12:49.755900,111
2021-12-24 14:12:49.755906,130
2021-12-24 14:12:49.755912,109
2021-12-24 14:12:49.755918,107
2021-12-24 14:12:49.755924,144
2021-12-24 14:12:49.755930,193
2021-12-24 14:12:49.755937,242
2021-12-24 14:12:49.755943,276
2021-12-24 14:12:49.755949,295
2021-12-24 14:12:49.755955,316
2021-12-24 14:12:49.755961,360
2021-12-24 14:12:49.755968,404
2021-12-24 14:12:49.755974,411
2021-12-24 14:12:49.755980,391
2021-12-24 14:12:49.755986,349
2021-12-24 14:12:49.755992,300
2021-12-24 14:12:49.755998,249
2021-12-24 14:12:50.026295,155
2021-12-24 14:12:50.026315,60
2021-12-24 14:12:50.026322,0
2021-12-24 14:12:50.026329,-95
2021-12-24 14:12:50.026335,-169
2021-12-24 14:12:50.026341,-130
2021-12-24 14:12:50.026347,-81
2021-12-24 14:12:50.026354,-107
2021-12-24 14:12:50.026360,-190
2021-12-24 14:12:50.026366,-265
2021-12-24 14:12:50.026373,-242
2021-12-24 14:12:50.026379,-174
2021-12-24 14:12:50.026385,-141
2021-12-24 14:12:50.026391,-121
2021-12-24 14:12:50.026398,-102
2021-12-24 14:12:50.026404,-114
2021-12-24 14:12:50.026410,-114
2021-12-24 14:12:50.026416,-72
2021-12-24 14:12:50.026422,-34
2021-12-24 14:12:50.026429,-13
2021-12-24 14:12:50.026435,-11
2021-12-24 14:12:50.026441,-34
2021-12-24 14:12:50.026447,-27
2021-12-24 14:12:50.026453,20
2021-12-24 14:12:50.026460,44
2021-12-24 14:12:50.026466,46
2021-12-24 14:12:50.026472,41
2021-12-24 14:12:50.026478,9
2021-12-24 14:12:50.026484,6
2021-12-24 14:12:50.026490,48
2021-12-24 14:12:50.341001,74
2021-12-24 14:12:50.341032,76
2021-12-24 14:12:50.341043,60
2021-12-24 14:12:50.341053,18
2021-12-24 14:12:50.341062,6
2021-12-24 14:12:50.341072,39
2021-12-24 14:12:50.341081,53
2021-12-24 14:12:50.341090,51
2021-12-24 14:12:50.341100,39
2021-12-24 14:12:50.341109,6
2021-12-24 14:12:50.341118,18
2021-12-24 14:12:50.341128,74
2021-12-24 14:12:50.341137,79
2021-12-24 14:12:50.341146,6
2021-12-24 14:12:50.341156,-62
2021-12-24 14:12:50.341166,-81
2021-12-24 14:12:50.341175,-65
2021-12-24 14:12:50.341184,-62
2021-12-24 14:12:50.341194,-88
2021-12-24 14:12:50.341203,-109
2021-12-24 14:12:50.341213,-137
2021-12-24 14:12:50.341222,-151
2021-12-24 14:12:50.341231,-121
2021-12-24 14:12:50.341241,-104
2021-12-24 14:12:50.341250,-121
2021-12-24 14:12:50.341259,-48
2021-12-24 14:12:50.341269,223
2021-12-24 14:12:50.341278,633
2021-12-24 14:12:50.341288,705
2021-12-24 14:12:50.341297,-79
2021-12-24 14:12:50.521074,-914
2021-12-24 14:12:50.521103,-572
2021-12-24 14:12:50.521115,81
2021-12-24 14:12:50.521125,-23
2021-12-24 14:12:50.521134,-183
2021-12-24 14:12:50.521144,-41
2021-12-24 14:12:50.521154,-20
2021-12-24 14:12:50.521163,-79
2021-12-24 14:12:50.521172,-53
2021-12-24 14:12:50.521182,-39
2021-12-24 14:12:50.521191,-34
2021-12-24 14:12:50.521201,11
2021-12-24 14:12:50.521211,41
2021-12-24 14:12:50.521220,39
2021-12-24 14:12:50.521229,13
2021-12-24 14:12:50.521239,-2
2021-12-24 14:12:50.521248,34
2021-12-24 14:12:50.521258,86
2021-12-24 14:12:50.521267,123
2021-12-24 14:12:50.521277,132
2021-12-24 14:12:50.521310,132
2021-12-24 14:12:50.521320,181
2021-12-24 14:12:50.521330,242
2021-12-24 14:12:50.521339,267
2021-12-24 14:12:50.521349,260
2021-12-24 14:12:50.521358,225
2021-12-24 14:12:50.521368,188
2021-12-24 14:12:50.521378,155
2021-12-24 14:12:50.521387,107
2021-12-24 14:12:50.521396,67
2021-12-24 14:12:50.701016,20
2021-12-24 14:12:50.701038,-39
2021-12-24 14:12:50.701045,-67
2021-12-24 14:12:50.701052,-76
2021-12-24 14:12:50.701058,-86
2021-12-24 14:12:50.701064,-67
2021-12-24 14:12:50.701070,-74
2021-12-24 14:12:50.701076,-111
2021-12-24 14:12:50.701083,-102
2021-12-24 14:12:50.701089,-72
2021-12-24 14:12:50.701095,-58
2021-12-24 14:12:50.701101,-30
2021-12-24 14:12:50.701108,-44
2021-12-24 14:12:50.701114,-104
2021-12-24 14:12:50.701120,-123
2021-12-24 14:12:50.701126,-93
2021-12-24 14:12:50.701132,-20
2021-12-24 14:12:50.701139,34
2021-12-24 14:12:50.701145,-13
2021-12-24 14:12:50.701161,-67
2021-12-24 14:12:50.701168,-39
2021-12-24 14:12:50.701174,-13
2021-12-24 14:12:50.701180,-13
2021-12-24 14:12:50.701186,16
2021-12-24 14:12:50.701193,23
2021-12-24 14:12:50.701199,-6
2021-12-24 14:12:50.701205,-4
2021-12-24 14:12:50.701211,23
2021-12-24 14:12:50.701218,48
2021-12-24 14:12:50.701224,55
2021-12-24 14:12:50.969267,34
2021-12-24 14:12:50.969283,27
2021-12-24 14:12:50.969289,39
2021-12-24 14:12:50.969295,55
2021-12-24 14:12:50.969300,79
2021-12-24 14:12:50.969304,83
2021-12-24 14:12:50.969310,39
2021-12-24 14:12:50.969319,18
2021-12-24 14:12:50.969328,9
2021-12-24 14:12:50.969336,-60
2021-12-24 14:12:50.969345,-79
2021-12-24 14:12:50.969350,-32
2021-12-24 14:12:50.969355,-60
2021-12-24 14:12:50.969360,-95
2021-12-24 14:12:50.969365,-58
2021-12-24 14:12:50.969370,-27
2021-12-24 14:12:50.969375,-9
2021-12-24 14:12:50.969380,13
2021-12-24 14:12:50.969385,2
2021-12-24 14:12:50.969389,-48
2021-12-24 14:12:50.969394,-102
2021-12-24 14:12:50.969399,-18
2021-12-24 14:12:50.969404,276
2021-12-24 14:12:50.969409,574
2021-12-24 14:12:50.969414,356
2021-12-24 14:12:50.969419,-535
2021-12-24 14:12:50.969424,-1010
2021-12-24 14:12:50.969429,-444
2021-12-24 14:12:50.969436,2
2021-12-24 14:12:50.969446,-183
2021-12-24 14:12:51.150564,-237
2021-12-24 14:12:51.150579,-79
2021-12-24 14:12:51.150584,-88
2021-12-24 14:12:51.150588,-130
2021-12-24 14:12:51.150593,-83
2021-12-24 14:12:51.150597,-95
2021-12-24 14:12:51.150601,-132
2021-12-24 14:12:51.150606,-86
2021-12-24 14:12:51.150610,-44
2021-12-24 14:12:51.150614,-65
2021-12-24 14:12:51.150619,-90
2021-12-24 14:12:51.150623,-121
2021-12-24 14:12:51.150627,-107
2021-12-24 14:12:51.150632,-27
2021-12-24 14:12:51.150636,25
2021-12-24 14:12:51.150640,51
2021-12-24 14:12:51.150645,97
2021-12-24 14:12:51.150649,141
2021-12-24 14:12:51.150654,158
2021-12-24 14:12:51.150658,176
2021-12-24 14:12:51.150663,193
2021-12-24 14:12:51.150667,169
2021-12-24 14:12:51.150671,132
2021-12-24 14:12:51.150676,83
2021-12-24 14:12:51.150680,32
2021-12-24 14:12:51.150684,0
2021-12-24 14:12:51.150689,-46
2021-12-24 14:12:51.150693,-109
2021-12-24 14:12:51.150697,-144
2021-12-24 14:12:51.150702,-144
2021-12-24 14:12:51.376540,-134
2021-12-24 14:12:51.376570,-123
2021-12-24 14:12:51.376582,-121
2021-12-24 14:12:51.376592,-118
2021-12-24 14:12:51.376601,-137
2021-12-24 14:12:51.376611,-169
2021-12-24 14:12:51.376620,-158
2021-12-24 14:12:51.376629,-107
2021-12-24 14:12:51.376639,-79
2021-12-24 14:12:51.376648,-95
2021-12-24 14:12:51.376658,-144
2021-12-24 14:12:51.376667,-155
2021-12-24 14:12:51.376677,-134
2021-12-24 14:12:51.376686,-139
2021-12-24 14:12:51.376696,-144
2021-12-24 14:12:51.376705,-130
2021-12-24 14:12:51.376715,-144
2021-12-24 14:12:51.376724,-141
2021-12-24 14:12:51.376734,-93
2021-12-24 14:12:51.376743,-58
2021-12-24 14:12:51.376753,-58
2021-12-24 14:12:51.376762,-65
2021-12-24 14:12:51.376772,-67
2021-12-24 14:12:51.376781,-51
2021-12-24 14:12:51.376791,-16
2021-12-24 14:12:51.376800,-37
2021-12-24 14:12:51.376810,-128
2021-12-24 14:12:51.376819,-167
2021-12-24 14:12:51.376829,-123
2021-12-24 14:12:51.376838,-90
2021-12-24 14:12:51.646252,-79
2021-12-24 14:12:51.646273,-65
2021-12-24 14:12:51.646280,-58
2021-12-24 14:12:51.646287,-76
2021-12-24 14:12:51.646293,-100
2021-12-24 14:12:51.646299,-88
2021-12-24 14:12:51.646306,-41
2021-12-24 14:12:51.646312,-11
2021-12-24 14:12:51.646318,-20
2021-12-24 14:12:51.646324,-67
2021-12-24 14:12:51.646330,-102
2021-12-24 14:12:51.646336,-79
2021-12-24 14:12:51.646343,-37
2021-12-24 14:12:51.646349,-16
2021-12-24 14:12:51.646355,-37
2021-12-24 14:12:51.646361,-100
2021-12-24 14:12:51.646368,-116
2021-12-24 14:12:51.646374,-60
2021-12-24 14:12:51.646380,-27
2021-12-24 14:12:51.646386,-37
2021-12-24 14:12:51.646393,-46
2021-12-24 14:12:51.646399,39
2021-12-24 14:12:51.646405,377
2021-12-24 14:12:51.646411,835
2021-12-24 14:12:51.646417,758
2021-12-24 14:12:51.646424,-251
2021-12-24 14:12:51.646430,-991
2021-12-24 14:12:51.646436,-467
2021-12-24 14:12:51.646442,76
2021-12-24 14:12:51.646448,-114
2021-12-24 14:12:51.871141,-190
2021-12-24 14:12:51.871163,-25
2021-12-24 14:12:51.871170,-48
2021-12-24 14:12:51.871177,-128
2021-12-24 14:12:51.871183,-90
2021-12-24 14:12:51.871190,-41
2021-12-24 14:12:51.871196,-13
2021-12-24 14:12:51.871202,16
2021-12-24 14:12:51.871209,-6
2021-12-24 14:12:51.871215,-67
2021-12-24 14:12:51.871221,-58
2021-12-24 14:12:51.871228,16
2021-12-24 14:12:51.871234,62
2021-12-24 14:12:51.871240,86
2021-12-24 14:12:51.871247,97
2021-12-24 14:12:51.871253,81
2021-12-24 14:12:51.871259,81
2021-12-24 14:12:51.871265,107
2021-12-24 14:12:51.871272,139
2021-12-24 14:12:51.871278,169
2021-12-24 14:12:51.871285,153
2021-12-24 14:12:51.871291,109
2021-12-24 14:12:51.871297,100
2021-12-24 14:12:51.871304,90
2021-12-24 14:12:51.871310,46
2021-12-24 14:12:51.871316,-16
2021-12-24 14:12:51.871322,-74
2021-12-24 14:12:51.871329,-125
2021-12-24 14:12:51.871335,-148
2021-12-24 14:12:51.871341,-130
2021-12-24 14:12:52.096136,-134
2021-12-24 14:12:52.096164,-204
2021-12-24 14:12:52.096179,-263
2021-12-24 14:12:52.096192,-249
2021-12-24 14:12:52.096204,-214
2021-12-24 14:12:52.096215,-188
2021-12-24 14:12:52.096226,-144
2021-12-24 14:12:52.096237,-125
2021-12-24 14:12:52.096248,-172
2021-12-24 14:12:52.096260,-202
2021-12-24 14:12:52.096270,-151
2021-12-24 14:12:52.096280,-104
2021-12-24 14:12:52.096291,-95
2021-12-24 14:12:52.096302,-97
2021-12-24 14:12:52.096312,-123
2021-12-24 14:12:52.096322,-141
2021-12-24 14:12:52.096332,-109
2021-12-24 14:12:52.096341,-72
2021-12-24 14:12:52.096352,-81
2021-12-24 14:12:52.096363,-121
2021-12-24 14:12:52.096374,-144
2021-12-24 14:12:52.096386,-128
2021-12-24 14:12:52.096397,-90
2021-12-24 14:12:52.096408,-62
2021-12-24 14:12:52.096420,-53
2021-12-24 14:12:52.096432,-51
2021-12-24 14:12:52.096443,-44
2021-12-24 14:12:52.096453,-34
2021-12-24 14:12:52.096464,-18
2021-12-24 14:12:52.096475,6
2021-12-24 14:12:52.366184,11
2021-12-24 14:12:52.366212,-6
2021-12-24 14:12:52.366225,-13
2021-12-24 14:12:52.366236,4
2021-12-24 14:12:52.366289,46
2021-12-24 14:12:52.366298,76
2021-12-24 14:12:52.366308,72
2021-12-24 14:12:52.366314,37
2021-12-24 14:12:52.366321,-2
2021-12-24 14:12:52.366327,-2
2021-12-24 14:12:52.366336,20
2021-12-24 14:12:52.366343,34
2021-12-24 14:12:52.366349,32
2021-12-24 14:12:52.366357,2
2021-12-24 14:12:52.366364,-25
2021-12-24 14:12:52.366370,-11
2021-12-24 14:12:52.366376,20
2021-12-24 14:12:52.366385,37
2021-12-24 14:12:52.366391,41
2021-12-24 14:12:52.366398,9
2021-12-24 14:12:52.366404,-20
2021-12-24 14:12:52.366410,111
2021-12-24 14:12:52.366417,514
2021-12-24 14:12:52.366423,858
2021-12-24 14:12:52.366429,416
2021-12-24 14:12:52.366435,-649
2021-12-24 14:12:52.366442,-847
2021-12-24 14:12:52.366448,-74
2021-12-24 14:12:52.366454,121
2021-12-24 14:12:52.366460,-174
2021-12-24 14:12:52.546357,-102
2021-12-24 14:12:52.546385,-20
2021-12-24 14:12:52.546396,-137
2021-12-24 14:12:52.546406,-118
2021-12-24 14:12:52.546416,-30
2021-12-24 14:12:52.546426,-37
2021-12-24 14:12:52.546435,-46
2021-12-24 14:12:52.546444,-55
2021-12-24 14:12:52.546454,-88
2021-12-24 14:12:52.546464,-72
2021-12-24 14:12:52.546473,-27
2021-12-24 14:12:52.546483,-9
2021-12-24 14:12:52.546492,-13
2021-12-24 14:12:52.546502,-4
2021-12-24 14:12:52.546516,44
2021-12-24 14:12:52.546526,93
2021-12-24 14:12:52.546536,132
2021-12-24 14:12:52.546545,169
2021-12-24 14:12:52.546555,155
2021-12-24 14:12:52.546564,125
2021-12-24 14:12:52.546574,148
2021-12-24 14:12:52.546583,146
2021-12-24 14:12:52.546593,72
2021-12-24 14:12:52.546602,-23
2021-12-24 14:12:52.546612,-88
2021-12-24 14:12:52.546621,-121
2021-12-24 14:12:52.546631,-151
2021-12-24 14:12:52.546640,-188
2021-12-24 14:12:52.546650,-209
2021-12-24 14:12:52.546670,-200
2021-12-24 14:12:52.770693,-186
2021-12-24 14:12:52.770715,-179
2021-12-24 14:12:52.770723,-160
2021-12-24 14:12:52.770729,-146
2021-12-24 14:12:52.770735,-134
2021-12-24 14:12:52.770742,-130
2021-12-24 14:12:52.770748,-158
2021-12-24 14:12:52.770754,-158
2021-12-24 14:12:52.770760,-121
2021-12-24 14:12:52.770766,-111
2021-12-24 14:12:52.770772,-104
2021-12-24 14:12:52.770779,-102
2021-12-24 14:12:52.770785,-130
2021-12-24 14:12:52.770791,-118
2021-12-24 14:12:52.770797,-69
2021-12-24 14:12:52.770803,-60
2021-12-24 14:12:52.770809,-62
2021-12-24 14:12:52.770816,-51
2021-12-24 14:12:52.770822,-46
2021-12-24 14:12:52.770828,-23
2021-12-24 14:12:52.770834,2
2021-12-24 14:12:52.770840,-18
2021-12-24 14:12:52.770846,-34
2021-12-24 14:12:52.770853,9
2021-12-24 14:12:52.770859,11
2021-12-24 14:12:52.770865,-48
2021-12-24 14:12:52.770871,-51
2021-12-24 14:12:52.770877,-6
2021-12-24 14:12:52.770883,-6
2021-12-24 14:12:52.770890,-11
2021-12-24 14:12:53.039819,11
2021-12-24 14:12:53.039841,34
2021-12-24 14:12:53.039848,34
2021-12-24 14:12:53.039855,30
2021-12-24 14:12:53.039861,23
2021-12-24 14:12:53.039867,-11
2021-12-24 14:12:53.039874,-34
2021-12-24 14:12:53.039880,-9
2021-12-24 14:12:53.039886,18
2021-12-24 14:12:53.039892,25
2021-12-24 14:12:53.039898,27
2021-12-24 14:12:53.039905,9
2021-12-24 14:12:53.039911,-27
2021-12-24 14:12:53.039917,-67
2021-12-24 14:12:53.039923,-88
2021-12-24 14:12:53.039929,-79
2021-12-24 14:12:53.039936,-72
2021-12-24 14:12:53.039942,-72
2021-12-24 14:12:53.039948,-51
2021-12-24 14:12:53.039955,-13
2021-12-24 14:12:53.039961,6
2021-12-24 14:12:53.039967,2
2021-12-24 14:12:53.039973,-4
2021-12-24 14:12:53.039979,4
2021-12-24 14:12:53.039986,4
2021-12-24 14:12:53.039992,-34
2021-12-24 14:12:53.040000,-65
2021-12-24 14:12:53.040006,62
2021-12-24 14:12:53.040013,409
2021-12-24 14:12:53.040020,679
2021-12-24 14:12:53.220321,276
2021-12-24 14:12:53.220340,-702
2021-12-24 14:12:53.220348,-956
2021-12-24 14:12:53.220354,-251
2021-12-24 14:12:53.220361,-23
2021-12-24 14:12:53.220367,-297
2021-12-24 14:12:53.220373,-209
2021-12-24 14:12:53.220379,-53
2021-12-24 14:12:53.220385,-116
2021-12-24 14:12:53.220392,-137
2021-12-24 14:12:53.220398,-118
2021-12-24 14:12:53.220404,-148
2021-12-24 14:12:53.220410,-121
2021-12-24 14:12:53.220416,-53
2021-12-24 14:12:53.220422,-39
2021-12-24 14:12:53.220428,-41
2021-12-24 14:12:53.220435,-16
2021-12-24 14:12:53.220441,16
2021-12-24 14:12:53.220447,51
2021-12-24 14:12:53.220453,97
2021-12-24 14:12:53.220459,146
2021-12-24 14:12:53.220465,162
2021-12-24 14:12:53.220472,172
2021-12-24 14:12:53.220478,218
2021-12-24 14:12:53.220484,258
2021-12-24 14:12:53.220490,265
2021-12-24 14:12:53.220496,265
2021-12-24 14:12:53.220502,249
2021-12-24 14:12:53.220509,197
2021-12-24 14:12:53.220515,121
2021-12-24 14:12:53.490656,53
2021-12-24 14:12:53.490681,20
2021-12-24 14:12:53.490689,-20
2021-12-24 14:12:53.490696,-109
2021-12-24 14:12:53.490702,-174
2021-12-24 14:12:53.490708,-148
2021-12-24 14:12:53.490715,-111
2021-12-24 14:12:53.490721,-111
2021-12-24 14:12:53.490727,-114
2021-12-24 14:12:53.490734,-144
2021-12-24 14:12:53.490740,-183
2021-12-24 14:12:53.490746,-146
2021-12-24 14:12:53.490753,-86
2021-12-24 14:12:53.490759,-74
2021-12-24 14:12:53.490765,-69
2021-12-24 14:12:53.490771,-67
2021-12-24 14:12:53.490778,-69
2021-12-24 14:12:53.490784,-41
2021-12-24 14:12:53.490790,-34
2021-12-24 14:12:53.490796,-100
2021-12-24 14:12:53.490803,-144
2021-12-24 14:12:53.490809,-121
2021-12-24 14:12:53.490825,-102
2021-12-24 14:12:53.490832,-90
2021-12-24 14:12:53.490838,-48
2021-12-24 14:12:53.490845,-16
2021-12-24 14:12:53.490851,-23
2021-12-24 14:12:53.490857,-44
2021-12-24 14:12:53.490864,-34
2021-12-24 14:12:53.490870,6
2021-12-24 14:12:53.760839,2
2021-12-24 14:12:53.760858,-48
2021-12-24 14:12:53.760866,-62
2021-12-24 14:12:53.760873,-48
2021-12-24 14:12:53.760879,-53
2021-12-24 14:12:53.760885,-37
2021-12-24 14:12:53.760892,11
2021-12-24 14:12:53.760898,32
2021-12-24 14:12:53.760904,-16
2021-12-24 14:12:53.760910,-81
2021-12-24 14:12:53.760917,-69
2021-12-24 14:12:53.760923,-13
2021-12-24 14:12:53.760929,11
2021-12-24 14:12:53.760935,11
2021-12-24 14:12:53.760942,-30
2021-12-24 14:12:53.760948,-95
2021-12-24 14:12:53.760954,-72
2021-12-24 14:12:53.760961,9
2021-12-24 14:12:53.760967,41
2021-12-24 14:12:53.760973,41
2021-12-24 14:12:53.760980,25
2021-12-24 14:12:53.760986,-25
2021-12-24 14:12:53.760992,-58
2021-12-24 14:12:53.760998,-34
2021-12-24 14:12:53.761005,-9
2021-12-24 14:12:53.761011,-23
2021-12-24 14:12:53.761017,-67
2021-12-24 14:12:53.761023,-109
2021-12-24 14:12:53.761030,-109
2021-12-24 14:12:53.761036,-104
2021-12-24 14:12:53.941465,-107
2021-12-24 14:12:53.941494,-95
2021-12-24 14:12:53.941505,-121
2021-12-24 14:12:53.941515,-169
2021-12-24 14:12:53.941525,-44
2021-12-24 14:12:53.941534,339
2021-12-24 14:12:53.941544,721
2021-12-24 14:12:53.941554,467
2021-12-24 14:12:53.941563,-586
2021-12-24 14:12:53.941573,-1098
2021-12-24 14:12:53.941582,-395
2021-12-24 14:12:53.941592,95
2021-12-24 14:12:53.941602,-109
2021-12-24 14:12:53.941611,-139
2021-12-24 14:12:53.941621,-30
2021-12-24 14:12:53.941630,-95
2021-12-24 14:12:53.941640,-100
2021-12-24 14:12:53.941649,-9
2021-12-24 14:12:53.941659,13
2021-12-24 14:12:53.941669,-18
2021-12-24 14:12:53.941678,-46
2021-12-24 14:12:53.941688,-41
2021-12-24 14:12:53.941697,-2
2021-12-24 14:12:53.941707,25
2021-12-24 14:12:53.941716,-9
2021-12-24 14:12:53.941726,-44
2021-12-24 14:12:53.941736,-6
2021-12-24 14:12:53.941745,53
2021-12-24 14:12:53.941755,100
2021-12-24 14:12:53.941764,158
2021-12-24 14:12:54.211002,204
2021-12-24 14:12:54.211024,209
2021-12-24 14:12:54.211031,214
2021-12-24 14:12:54.211038,211
2021-12-24 14:12:54.211044,167
2021-12-24 14:12:54.211050,109
2021-12-24 14:12:54.211057,69
2021-12-24 14:12:54.211063,-11
2021-12-24 14:12:54.211069,-114
2021-12-24 14:12:54.211075,-151
2021-12-24 14:12:54.211081,-158
2021-12-24 14:12:54.211087,-181
2021-12-24 14:12:54.211094,-204
2021-12-24 14:12:54.211100,-242
2021-12-24 14:12:54.211106,-265
2021-12-24 14:12:54.211112,-246
2021-12-24 14:12:54.211119,-221
2021-12-24 14:12:54.211125,-186
2021-12-24 14:12:54.211131,-162
2021-12-24 14:12:54.211137,-160
2021-12-24 14:12:54.211143,-146
2021-12-24 14:12:54.211150,-125
2021-12-24 14:12:54.211156,-111
2021-12-24 14:12:54.211162,-83
2021-12-24 14:12:54.211168,-62
2021-12-24 14:12:54.211174,-67
2021-12-24 14:12:54.211181,-67
2021-12-24 14:12:54.211187,-48
2021-12-24 14:12:54.211193,-27
2021-12-24 14:12:54.211199,-4
2021-12-24 14:12:54.391019,-4
2021-12-24 14:12:54.391049,-23
2021-12-24 14:12:54.391060,-20
2021-12-24 14:12:54.391070,-2
2021-12-24 14:12:54.391080,6
2021-12-24 14:12:54.391090,13
2021-12-24 14:12:54.391100,0
2021-12-24 14:12:54.391109,-27
2021-12-24 14:12:54.391119,-25
2021-12-24 14:12:54.391128,-11
2021-12-24 14:12:54.391138,-4
2021-12-24 14:12:54.391147,4
2021-12-24 14:12:54.391157,-34
2021-12-24 14:12:54.391167,-81
2021-12-24 14:12:54.391176,-60
2021-12-24 14:12:54.391186,-27
2021-12-24 14:12:54.391196,-6
2021-12-24 14:12:54.391205,11
2021-12-24 14:12:54.391215,-23
2021-12-24 14:12:54.391224,-67
2021-12-24 14:12:54.391234,-74
2021-12-24 14:12:54.391244,-93
2021-12-24 14:12:54.391253,-100
2021-12-24 14:12:54.391263,-76
2021-12-24 14:12:54.391273,-95
2021-12-24 14:12:54.391282,-132
2021-12-24 14:12:54.391292,-132
2021-12-24 14:12:54.391301,-151
2021-12-24 14:12:54.391311,-179
2021-12-24 14:12:54.391321,-186
2021-12-24 14:12:54.660709,-223
2021-12-24 14:12:54.660731,-256
2021-12-24 14:12:54.660739,-239
2021-12-24 14:12:54.660745,-165
2021-12-24 14:12:54.660752,121
2021-12-24 14:12:54.660758,591
2021-12-24 14:12:54.660764,616
2021-12-24 14:12:54.660770,-360
2021-12-24 14:12:54.660777,-1282
2021-12-24 14:12:54.660783,-865
2021-12-24 14:12:54.660789,-137
2021-12-24 14:12:54.660795,-207
2021-12-24 14:12:54.660802,-349
2021-12-24 14:12:54.660808,-158
2021-12-24 14:12:54.660814,-107
2021-12-24 14:12:54.660820,-181
2021-12-24 14:12:54.660826,-132
2021-12-24 14:12:54.660833,-88
2021-12-24 14:12:54.660839,-104
2021-12-24 14:12:54.660845,-69
2021-12-24 14:12:54.660851,-4
2021-12-24 14:12:54.660857,9
2021-12-24 14:12:54.660864,16
2021-12-24 14:12:54.660870,39
2021-12-24 14:12:54.660876,65
2021-12-24 14:12:54.660882,114
2021-12-24 14:12:54.660889,160
2021-12-24 14:12:54.660895,190
2021-12-24 14:12:54.660901,225
2021-12-24 14:12:54.660907,253
2021-12-24 14:12:54.841692,279
2021-12-24 14:12:54.841714,300
2021-12-24 14:12:54.841722,302
2021-12-24 14:12:54.841728,279
2021-12-24 14:12:54.841734,218
2021-12-24 14:12:54.841741,123
2021-12-24 14:12:54.841747,46
2021-12-24 14:12:54.841753,6
2021-12-24 14:12:54.841759,-37
2021-12-24 14:12:54.841765,-93
2021-12-24 14:12:54.841771,-141
2021-12-24 14:12:54.841785,-174
2021-12-24 14:12:54.841792,-172
2021-12-24 14:12:54.841798,-141
2021-12-24 14:12:54.841804,-125
2021-12-24 14:12:54.841810,-134
2021-12-24 14:12:54.841816,-153
2021-12-24 14:12:54.841822,-169
2021-12-24 14:12:54.841829,-148
2021-12-24 14:12:54.841835,-95
2021-12-24 14:12:54.841841,-76
2021-12-24 14:12:54.841847,-83
2021-12-24 14:12:54.841853,-81
2021-12-24 14:12:54.841859,-69
2021-12-24 14:12:54.841866,-48
2021-12-24 14:12:54.841872,-25
2021-12-24 14:12:54.841878,-11
2021-12-24 14:12:54.841884,-16
2021-12-24 14:12:54.841890,-23
2021-12-24 14:12:54.841897,-16
2021-12-24 14:12:55.155335,-2
2021-12-24 14:12:55.155357,23
2021-12-24 14:12:55.155365,39
2021-12-24 14:12:55.155371,4
2021-12-24 14:12:55.155377,-55
2021-12-24 14:12:55.155384,-104
2021-12-24 14:12:55.155390,-137
2021-12-24 14:12:55.155396,-130
2021-12-24 14:12:55.155402,-102
2021-12-24 14:12:55.155408,-123
2021-12-24 14:12:55.155414,-174
2021-12-24 14:12:55.155421,-174
2021-12-24 14:12:55.155427,-141
2021-12-24 14:12:55.155433,-128
2021-12-24 14:12:55.155439,-125
2021-12-24 14:12:55.155446,-146
2021-12-24 14:12:55.155452,-179
2021-12-24 14:12:55.155458,-167
2021-12-24 14:12:55.155464,-134
2021-12-24 14:12:55.155470,-128
2021-12-24 14:12:55.155477,-148
2021-12-24 14:12:55.155483,-193
2021-12-24 14:12:55.155489,-216
2021-12-24 14:12:55.155495,-211
2021-12-24 14:12:55.155501,-211
2021-12-24 14:12:55.155507,-193
2021-12-24 14:12:55.155514,-165
2021-12-24 14:12:55.155520,-176
2021-12-24 14:12:55.155526,-209
2021-12-24 14:12:55.155532,-190
2021-12-24 14:12:55.380346,-44
2021-12-24 14:12:55.380366,302
2021-12-24 14:12:55.380373,726
2021-12-24 14:12:55.380380,574
2021-12-24 14:12:55.380386,-512
2021-12-24 14:12:55.380392,-1166
2021-12-24 14:12:55.380398,-446
2021-12-24 14:12:55.380405,137
2021-12-24 14:12:55.380411,-123
2021-12-24 14:12:55.380417,-218
2021-12-24 14:12:55.380424,-65
2021-12-24 14:12:55.380430,-79
2021-12-24 14:12:55.380436,-93
2021-12-24 14:12:55.380442,-16
2021-12-24 14:12:55.380449,-23
2021-12-24 14:12:55.380455,-88
2021-12-24 14:12:55.380461,-67
2021-12-24 14:12:55.380467,2
2021-12-24 14:12:55.380473,41
2021-12-24 14:12:55.380480,67
2021-12-24 14:12:55.380486,74
2021-12-24 14:12:55.380492,51
2021-12-24 14:12:55.380498,67
2021-12-24 14:12:55.380504,141
2021-12-24 14:12:55.380511,204
2021-12-24 14:12:55.380517,242
2021-12-24 14:12:55.380523,269
2021-12-24 14:12:55.380529,263
2021-12-24 14:12:55.380536,249
2021-12-24 14:12:55.380542,272
2021-12-24 14:12:55.560768,295
2021-12-24 14:12:55.560787,263
2021-12-24 14:12:55.560795,183
2021-12-24 14:12:55.560801,90
2021-12-24 14:12:55.560808,20
2021-12-24 14:12:55.560814,-16
2021-12-24 14:12:55.560821,-34
2021-12-24 14:12:55.560827,-55
2021-12-24 14:12:55.560833,-114
2021-12-24 14:12:55.560839,-181
2021-12-24 14:12:55.560845,-209
2021-12-24 14:12:55.560852,-251
2021-12-24 14:12:55.560858,-260
2021-12-24 14:12:55.560864,-179
2021-12-24 14:12:55.560870,-144
2021-12-24 14:12:55.560877,-174
2021-12-24 14:12:55.560883,-174
2021-12-24 14:12:55.560889,-165
2021-12-24 14:12:55.560895,-151
2021-12-24 14:12:55.560902,-128
2021-12-24 14:12:55.560908,-165
2021-12-24 14:12:55.560914,-214
2021-12-24 14:12:55.560920,-176
2021-12-24 14:12:55.560927,-118
2021-12-24 14:12:55.560933,-93
2021-12-24 14:12:55.560939,-81
2021-12-24 14:12:55.560945,-97
2021-12-24 14:12:55.560952,-114
2021-12-24 14:12:55.560958,-74
2021-12-24 14:12:55.560964,-27
2021-12-24 14:12:55.786110,-20
2021-12-24 14:12:55.786136,-25
2021-12-24 14:12:55.786149,-32
2021-12-24 14:12:55.786160,-46
2021-12-24 14:12:55.786171,-37
2021-12-24 14:12:55.786182,-9
2021-12-24 14:12:55.786193,-4
2021-12-24 14:12:55.786204,-30
2021-12-24 14:12:55.786216,-58
2021-12-24 14:12:55.786228,-44
2021-12-24 14:12:55.786238,-2
2021-12-24 14:12:55.786249,20
2021-12-24 14:12:55.786260,20
2021-12-24 14:12:55.786271,-4
2021-12-24 14:12:55.786283,-58
2021-12-24 14:12:55.786295,-83
2021-12-24 14:12:55.786307,-83
2021-12-24 14:12:55.786318,-88
2021-12-24 14:12:55.786329,-97
2021-12-24 14:12:55.786340,-137
2021-12-24 14:12:55.786352,-193
2021-12-24 14:12:55.786363,-214
2021-12-24 14:12:55.786374,-193
2021-12-24 14:12:55.786385,-176
2021-12-24 14:12:55.786396,-197
2021-12-24 14:12:55.786406,-202
2021-12-24 14:12:55.786418,-53
2021-12-24 14:12:55.786429,321
2021-12-24 14:12:55.786441,684
2021-12-24 14:12:55.786452,374
2021-12-24 14:12:56.010605,-700
2021-12-24 14:12:56.010624,-1098
2021-12-24 14:12:56.010630,-314
2021-12-24 14:12:56.010635,69
2021-12-24 14:12:56.010640,-202
2021-12-24 14:12:56.010645,-141
2021-12-24 14:12:56.010650,25
2021-12-24 14:12:56.010655,-81
2021-12-24 14:12:56.010660,-141
2021-12-24 14:12:56.010665,-67
2021-12-24 14:12:56.010670,-39
2021-12-24 14:12:56.010675,-30
2021-12-24 14:12:56.010680,-9
2021-12-24 14:12:56.010685,-34
2021-12-24 14:12:56.010690,-44
2021-12-24 14:12:56.010695,-41
2021-12-24 14:12:56.010700,-79
2021-12-24 14:12:56.010705,-60
2021-12-24 14:12:56.010710,30
2021-12-24 14:12:56.010715,62
2021-12-24 14:12:56.010720,62
2021-12-24 14:12:56.010725,81
2021-12-24 14:12:56.010730,107
2021-12-24 14:12:56.010735,134
2021-12-24 14:12:56.010740,139
2021-12-24 14:12:56.010745,137
2021-12-24 14:12:56.010750,146
2021-12-24 14:12:56.010755,118
2021-12-24 14:12:56.010760,55
2021-12-24 14:12:56.010765,2
2021-12-24 14:12:56.235617,-65
2021-12-24 14:12:56.235637,-128
2021-12-24 14:12:56.235644,-148
2021-12-24 14:12:56.235650,-160
2021-12-24 14:12:56.235657,-162
2021-12-24 14:12:56.235663,-160
2021-12-24 14:12:56.235669,-200
2021-12-24 14:12:56.235676,-216
2021-12-24 14:12:56.235682,-172
2021-12-24 14:12:56.235688,-153
2021-12-24 14:12:56.235694,-151
2021-12-24 14:12:56.235700,-132
2021-12-24 14:12:56.235707,-141
2021-12-24 14:12:56.235713,-151
2021-12-24 14:12:56.235719,-116
2021-12-24 14:12:56.235725,-102
2021-12-24 14:12:56.235732,-104
2021-12-24 14:12:56.235739,-88
2021-12-24 14:12:56.235745,-83
2021-12-24 14:12:56.235751,-65
2021-12-24 14:12:56.235757,-37
2021-12-24 14:12:56.235764,-51
2021-12-24 14:12:56.235770,-72
2021-12-24 14:12:56.235776,-93
2021-12-24 14:12:56.235782,-121
2021-12-24 14:12:56.235788,-93
2021-12-24 14:12:56.235795,-53
2021-12-24 14:12:56.235801,-53
2021-12-24 14:12:56.235807,-39
2021-12-24 14:12:56.235813,-20
2021-12-24 14:12:56.461194,-39
2021-12-24 14:12:56.461215,-32
2021-12-24 14:12:56.461222,-2
2021-12-24 14:12:56.461229,-4
2021-12-24 14:12:56.461235,-13
2021-12-24 14:12:56.461241,-23
2021-12-24 14:12:56.461247,-44
2021-12-24 14:12:56.461253,-25
2021-12-24 14:12:56.461260,23
2021-12-24 14:12:56.461266,34
2021-12-24 14:12:56.461272,23
2021-12-24 14:12:56.461278,-2
2021-12-24 14:12:56.461284,-34
2021-12-24 14:12:56.461291,-18
2021-12-24 14:12:56.461297,16
2021-12-24 14:12:56.461303,-9
2021-12-24 14:12:56.461309,-48
2021-12-24 14:12:56.461315,-55
2021-12-24 14:12:56.461321,-44
2021-12-24 14:12:56.461337,-32
2021-12-24 14:12:56.461344,-72
2021-12-24 14:12:56.461350,-176
2021-12-24 14:12:56.461356,-256
2021-12-24 14:12:56.461362,-228
2021-12-24 14:12:56.461369,-65
2021-12-24 14:12:56.461375,242
2021-12-24 14:12:56.461381,449
2021-12-24 14:12:56.461387,-9
2021-12-24 14:12:56.461394,-875
2021-12-24 14:12:56.461400,-882
2021-12-24 14:12:56.685963,-151
2021-12-24 14:12:56.685992,9
2021-12-24 14:12:56.686004,-211
2021-12-24 14:12:56.686014,-128
2021-12-24 14:12:56.686024,-58
2021-12-24 14:12:56.686033,-158
2021-12-24 14:12:56.686043,-139
2021-12-24 14:12:56.686052,-48
2021-12-24 14:12:56.686062,-53
2021-12-24 14:12:56.686071,-72
2021-12-24 14:12:56.686081,-69
2021-12-24 14:12:56.686090,-86
2021-12-24 14:12:56.686099,-55
2021-12-24 14:12:56.686109,13
2021-12-24 14:12:56.686118,44
2021-12-24 14:12:56.686128,58
2021-12-24 14:12:56.686137,83
2021-12-24 14:12:56.686147,116
2021-12-24 14:12:56.686156,160
2021-12-24 14:12:56.686166,211
2021-12-24 14:12:56.686175,244
2021-12-24 14:12:56.686185,237
2021-12-24 14:12:56.686194,223
2021-12-24 14:12:56.686204,235
2021-12-24 14:12:56.686213,225
2021-12-24 14:12:56.686223,174
2021-12-24 14:12:56.686232,107
2021-12-24 14:12:56.686242,4
2021-12-24 14:12:56.686266,-90
2021-12-24 14:12:56.686276,-116
2021-12-24 14:12:56.911375,-107
2021-12-24 14:12:56.911405,-116
2021-12-24 14:12:56.911416,-141
2021-12-24 14:12:56.911426,-174
2021-12-24 14:12:56.911435,-202
2021-12-24 14:12:56.911445,-195
2021-12-24 14:12:56.911455,-158
2021-12-24 14:12:56.911464,-125
2021-12-24 14:12:56.911474,-104
2021-12-24 14:12:56.911483,-114
2021-12-24 14:12:56.911493,-132
2021-12-24 14:12:56.911503,-107
2021-12-24 14:12:56.911512,-69
2021-12-24 14:12:56.911522,-53
2021-12-24 14:12:56.911531,-46
2021-12-24 14:12:56.911541,-62
2021-12-24 14:12:56.911550,-69
2021-12-24 14:12:56.911560,-37
2021-12-24 14:12:56.911569,-9
2021-12-24 14:12:56.911579,9
2021-12-24 14:12:56.911589,16
2021-12-24 14:12:56.911598,-11
2021-12-24 14:12:56.911608,-30
2021-12-24 14:12:56.911617,-2
2021-12-24 14:12:56.911627,27
2021-12-24 14:12:56.911637,34
2021-12-24 14:12:56.911646,30
2021-12-24 14:12:56.911656,-25
2021-12-24 14:12:56.911666,-111
2021-12-24 14:12:56.911675,-116
2021-12-24 14:12:57.224616,-81
2021-12-24 14:12:57.224646,-74
2021-12-24 14:12:57.224658,-90
2021-12-24 14:12:57.224668,-125
2021-12-24 14:12:57.224678,-130
2021-12-24 14:12:57.224687,-74
2021-12-24 14:12:57.224697,-27
2021-12-24 14:12:57.224707,-25
2021-12-24 14:12:57.224716,-46
2021-12-24 14:12:57.224726,-97
2021-12-24 14:12:57.224735,-116
2021-12-24 14:12:57.224745,-62
2021-12-24 14:12:57.224754,-27
2021-12-24 14:12:57.224764,-37
2021-12-24 14:12:57.224774,-34
2021-12-24 14:12:57.224783,-30
2021-12-24 14:12:57.224793,-39
2021-12-24 14:12:57.224803,-30
2021-12-24 14:12:57.224812,4
2021-12-24 14:12:57.224822,30
2021-12-24 14:12:57.224831,11
2021-12-24 14:12:57.224841,13
2021-12-24 14:12:57.224850,214
2021-12-24 14:12:57.224860,640
2021-12-24 14:12:57.224869,819
2021-12-24 14:12:57.224879,69
2021-12-24 14:12:57.224888,-991
2021-12-24 14:12:57.224898,-879
2021-12-24 14:12:57.224908,-95
2021-12-24 14:12:57.224917,-13
2021-12-24 14:12:57.405965,-218
2021-12-24 14:12:57.405995,-114
2021-12-24 14:12:57.406021,-79
2021-12-24 14:12:57.406031,-165
2021-12-24 14:12:57.406041,-130
2021-12-24 14:12:57.406051,-69
2021-12-24 14:12:57.406060,-65
2021-12-24 14:12:57.406070,-46
2021-12-24 14:12:57.406079,-60
2021-12-24 14:12:57.406089,-111
2021-12-24 14:12:57.406098,-79
2021-12-24 14:12:57.406108,0
2021-12-24 14:12:57.406118,25
2021-12-24 14:12:57.406127,39
2021-12-24 14:12:57.406137,39
2021-12-24 14:12:57.406146,34
2021-12-24 14:12:57.406160,95
2021-12-24 14:12:57.406170,176
2021-12-24 14:12:57.406179,209
2021-12-24 14:12:57.406189,216
2021-12-24 14:12:57.406199,204
2021-12-24 14:12:57.406208,181
2021-12-24 14:12:57.406218,165
2021-12-24 14:12:57.406227,141
2021-12-24 14:12:57.406237,90
2021-12-24 14:12:57.406246,13
2021-12-24 14:12:57.406256,-74
2021-12-24 14:12:57.406265,-134
2021-12-24 14:12:57.406275,-146
2021-12-24 14:12:57.406284,-137
2021-12-24 14:12:57.631049,-139
2021-12-24 14:12:57.631071,-146
2021-12-24 14:12:57.631079,-174
2021-12-24 14:12:57.631086,-246
2021-12-24 14:12:57.631092,-286
2021-12-24 14:12:57.631098,-230
2021-12-24 14:12:57.631105,-183
2021-12-24 14:12:57.631111,-216
2021-12-24 14:12:57.631117,-251
2021-12-24 14:12:57.631123,-218
2021-12-24 14:12:57.631129,-169
2021-12-24 14:12:57.631135,-155
2021-12-24 14:12:57.631141,-146
2021-12-24 14:12:57.631148,-155
2021-12-24 14:12:57.631154,-186
2021-12-24 14:12:57.631165,-179
2021-12-24 14:12:57.631171,-141
2021-12-24 14:12:57.631191,-118
2021-12-24 14:12:57.631196,-107
2021-12-24 14:12:57.631201,-97
2021-12-24 14:12:57.631206,-104
2021-12-24 14:12:57.631211,-100
2021-12-24 14:12:57.631216,-69
2021-12-24 14:12:57.631221,-51
2021-12-24 14:12:57.631226,-44
2021-12-24 14:12:57.631230,-51
2021-12-24 14:12:57.631235,-69
2021-12-24 14:12:57.631240,-58
2021-12-24 14:12:57.631245,-6
2021-12-24 14:12:57.631250,25
2021-12-24 14:12:57.901097,25
2021-12-24 14:12:57.901127,18
2021-12-24 14:12:57.901138,9
2021-12-24 14:12:57.901147,2
2021-12-24 14:12:57.901157,-9
2021-12-24 14:12:57.901166,-27
2021-12-24 14:12:57.901176,-60
2021-12-24 14:12:57.901185,-90
2021-12-24 14:12:57.901195,-88
2021-12-24 14:12:57.901204,-65
2021-12-24 14:12:57.901213,-46
2021-12-24 14:12:57.901223,-30
2021-12-24 14:12:57.901232,-39
2021-12-24 14:12:57.901242,-86
2021-12-24 14:12:57.901251,-107
2021-12-24 14:12:57.901260,6
2021-12-24 14:12:57.901270,356
2021-12-24 14:12:57.901279,842
2021-12-24 14:12:57.901289,777
2021-12-24 14:12:57.901298,-318
2021-12-24 14:12:57.901308,-1100
2021-12-24 14:12:57.901317,-465
2021-12-24 14:12:57.901326,186
2021-12-24 14:12:57.901336,20
2021-12-24 14:12:57.901345,-39
2021-12-24 14:12:57.901355,130
2021-12-24 14:12:57.901364,97
2021-12-24 14:12:57.901374,55
2021-12-24 14:12:57.901383,107
2021-12-24 14:12:57.901393,86
2021-12-24 14:12:58.080939,34
2021-12-24 14:12:58.080959,62
2021-12-24 14:12:58.080967,95
2021-12-24 14:12:58.080973,67
2021-12-24 14:12:58.080979,55
2021-12-24 14:12:58.080986,72
2021-12-24 14:12:58.080992,48
2021-12-24 14:12:58.080998,9
2021-12-24 14:12:58.081004,11
2021-12-24 14:12:58.081011,2
2021-12-24 14:12:58.081017,9
2021-12-24 14:12:58.081023,55
2021-12-24 14:12:58.081029,48
2021-12-24 14:12:58.081035,20
2021-12-24 14:12:58.081041,41
2021-12-24 14:12:58.081048,41
2021-12-24 14:12:58.081054,-4
2021-12-24 14:12:58.081060,-60
2021-12-24 14:12:58.081066,-155
2021-12-24 14:12:58.081072,-237
2021-12-24 14:12:58.081079,-256
2021-12-24 14:12:58.081085,-269
2021-12-24 14:12:58.081091,-293
2021-12-24 14:12:58.081097,-304
2021-12-24 14:12:58.081104,-309
2021-12-24 14:12:58.081110,-286
2021-12-24 14:12:58.081116,-260
2021-12-24 14:12:58.081127,-239
2021-12-24 14:12:58.081133,-218
2021-12-24 14:12:58.081153,-209
2021-12-24 14:12:58.396205,-200
2021-12-24 14:12:58.396224,-174
2021-12-24 14:12:58.396231,-153
2021-12-24 14:12:58.396237,-146
2021-12-24 14:12:58.396244,-134
2021-12-24 14:12:58.396250,-146
2021-12-24 14:12:58.396256,-190
2021-12-24 14:12:58.396263,-165
2021-12-24 14:12:58.396269,-116
2021-12-24 14:12:58.396275,-160
2021-12-24 14:12:58.396281,-207
2021-12-24 14:12:58.396288,-209
2021-12-24 14:12:58.396294,-207
2021-12-24 14:12:58.396300,-167
2021-12-24 14:12:58.396307,-137
2021-12-24 14:12:58.396313,-144
2021-12-24 14:12:58.396319,-132
2021-12-24 14:12:58.396326,-118
2021-12-24 14:12:58.396332,-118
2021-12-24 14:12:58.396338,-97
2021-12-24 14:12:58.396345,-90
2021-12-24 14:12:58.396351,-95
2021-12-24 14:12:58.396357,-74
2021-12-24 14:12:58.396364,-46
2021-12-24 14:12:58.396370,-20
2021-12-24 14:12:58.396376,4
2021-12-24 14:12:58.396383,13
2021-12-24 14:12:58.396389,11
2021-12-24 14:12:58.396395,-2
2021-12-24 14:12:58.396411,-16
2021-12-24 14:12:58.530427,2
2021-12-24 14:12:58.530447,37
2021-12-24 14:12:58.530453,39
2021-12-24 14:12:58.530459,23
2021-12-24 14:12:58.530464,0
2021-12-24 14:12:58.530469,-32
2021-12-24 14:12:58.530474,-16
2021-12-24 14:12:58.530478,27
2021-12-24 14:12:58.530483,23
2021-12-24 14:12:58.530488,-2
2021-12-24 14:12:58.530493,34
2021-12-24 14:12:58.530498,263
2021-12-24 14:12:58.530503,709
2021-12-24 14:12:58.530508,924
2021-12-24 14:12:58.530513,155
2021-12-24 14:12:58.530518,-986
2021-12-24 14:12:58.530522,-877
2021-12-24 14:12:58.530527,-9
2021-12-24 14:12:58.530532,69
2021-12-24 14:12:58.530537,-160
2021-12-24 14:12:58.530542,-2
2021-12-24 14:12:58.530547,65
2021-12-24 14:12:58.530552,-58
2021-12-24 14:12:58.530557,-44
2021-12-24 14:12:58.530561,44
2021-12-24 14:12:58.530566,48
2021-12-24 14:12:58.530571,53
2021-12-24 14:12:58.530576,72
2021-12-24 14:12:58.530581,34
2021-12-24 14:12:58.530586,20
2021-12-24 14:12:58.755708,65
2021-12-24 14:12:58.755725,100
2021-12-24 14:12:58.755731,118
2021-12-24 14:12:58.755736,95
2021-12-24 14:12:58.755741,51
2021-12-24 14:12:58.755746,65
2021-12-24 14:12:58.755751,107
2021-12-24 14:12:58.755756,132
2021-12-24 14:12:58.755761,148
2021-12-24 14:12:58.755766,114
2021-12-24 14:12:58.755771,41
2021-12-24 14:12:58.755776,18
2021-12-24 14:12:58.755781,-2
2021-12-24 14:12:58.755786,-104
2021-12-24 14:12:58.755791,-209
2021-12-24 14:12:58.755796,-260
2021-12-24 14:12:58.755800,-304
2021-12-24 14:12:58.755805,-316
2021-12-24 14:12:58.755810,-290
2021-12-24 14:12:58.755815,-267
2021-12-24 14:12:58.755820,-258
2021-12-24 14:12:58.755825,-279
2021-12-24 14:12:58.755830,-295
2021-12-24 14:12:58.755835,-244
2021-12-24 14:12:58.755840,-202
2021-12-24 14:12:58.755845,-200
2021-12-24 14:12:58.755850,-169
2021-12-24 14:12:58.755855,-165
2021-12-24 14:12:58.755860,-179
2021-12-24 14:12:58.755865,-141
2021-12-24 14:12:59.025455,-95
2021-12-24 14:12:59.025470,-81
2021-12-24 14:12:59.025475,-90
2021-12-24 14:12:59.025480,-141
2021-12-24 14:12:59.025484,-172
2021-12-24 14:12:59.025488,-118
2021-12-24 14:12:59.025492,-67
2021-12-24 14:12:59.025497,-72
2021-12-24 14:12:59.025501,-88
2021-12-24 14:12:59.025505,-116
2021-12-24 14:12:59.025509,-128
2021-12-24 14:12:59.025514,-93
2021-12-24 14:12:59.025518,-60
2021-12-24 14:12:59.025522,-48
2021-12-24 14:12:59.025527,-44
2021-12-24 14:12:59.025531,-76
2021-12-24 14:12:59.025535,-107
2021-12-24 14:12:59.025539,-67
2021-12-24 14:12:59.025544,-16
2021-12-24 14:12:59.025548,-9
2021-12-24 14:12:59.025552,-30
2021-12-24 14:12:59.025556,-104
2021-12-24 14:12:59.025561,-155
2021-12-24 14:12:59.025565,-83
2021-12-24 14:12:59.025569,4
2021-12-24 14:12:59.025574,2
2021-12-24 14:12:59.025578,-34
2021-12-24 14:12:59.025582,-46
2021-12-24 14:12:59.025586,-32
2021-12-24 14:12:59.025591,-11
2021-12-24 14:12:59.339371,9
2021-12-24 14:12:59.339390,23
2021-12-24 14:12:59.339398,9
2021-12-24 14:12:59.339404,-11
2021-12-24 14:12:59.339411,-4
2021-12-24 14:12:59.339417,20
2021-12-24 14:12:59.339424,39
2021-12-24 14:12:59.339430,41
2021-12-24 14:12:59.339436,-2
2021-12-24 14:12:59.339443,-69
2021-12-24 14:12:59.339449,-25
2021-12-24 14:12:59.339455,218
2021-12-24 14:12:59.339462,661
2021-12-24 14:12:59.339468,954
2021-12-24 14:12:59.339474,360
2021-12-24 14:12:59.339480,-805
2021-12-24 14:12:59.339487,-928
2021-12-24 14:12:59.339493,-104
2021-12-24 14:12:59.339499,88
2021-12-24 14:12:59.339506,-153
2021-12-24 14:12:59.339512,-51
2021-12-24 14:12:59.339518,37
2021-12-24 14:12:59.339525,-27
2021-12-24 14:12:59.339531,13
2021-12-24 14:12:59.339537,74
2021-12-24 14:12:59.339543,27
2021-12-24 14:12:59.339550,-13
2021-12-24 14:12:59.339556,9
2021-12-24 14:12:59.339562,34
2021-12-24 14:12:59.339569,25
2021-12-24 14:12:59.475969,13
2021-12-24 14:12:59.475988,27
2021-12-24 14:12:59.475994,25
2021-12-24 14:12:59.475999,6
2021-12-24 14:12:59.476004,39
2021-12-24 14:12:59.476009,97
2021-12-24 14:12:59.476014,139
2021-12-24 14:12:59.476019,141
2021-12-24 14:12:59.476024,111
2021-12-24 14:12:59.476029,100
2021-12-24 14:12:59.476034,107
2021-12-24 14:12:59.476039,109
2021-12-24 14:12:59.476043,76
2021-12-24 14:12:59.476048,-30
2021-12-24 14:12:59.476053,-141
2021-12-24 14:12:59.476058,-197
2021-12-24 14:12:59.476063,-225
2021-12-24 14:12:59.476068,-242
2021-12-24 14:12:59.476073,-260
2021-12-24 14:12:59.476078,-302
2021-12-24 14:12:59.476083,-330
2021-12-24 14:12:59.476088,-323
2021-12-24 14:12:59.476093,-297
2021-12-24 14:12:59.476098,-253
2021-12-24 14:12:59.476102,-228
2021-12-24 14:12:59.476107,-235
2021-12-24 14:12:59.476113,-263
2021-12-24 14:12:59.476117,-311
2021-12-24 14:12:59.476122,-311
2021-12-24 14:12:59.476136,-251
2021-12-24 14:12:59.701216,-223
2021-12-24 14:12:59.701238,-239
2021-12-24 14:12:59.701245,-237
2021-12-24 14:12:59.701252,-214
2021-12-24 14:12:59.701258,-188
2021-12-24 14:12:59.701264,-153
2021-12-24 14:12:59.701270,-155
2021-12-24 14:12:59.701276,-204
2021-12-24 14:12:59.701282,-207
2021-12-24 14:12:59.701288,-167
2021-12-24 14:12:59.701295,-153
2021-12-24 14:12:59.701301,-146
2021-12-24 14:12:59.701307,-146
2021-12-24 14:12:59.701313,-179
2021-12-24 14:12:59.701319,-179
2021-12-24 14:12:59.701325,-144
2021-12-24 14:12:59.701331,-125
2021-12-24 14:12:59.701338,-114
2021-12-24 14:12:59.701344,-111
2021-12-24 14:12:59.701350,-123
2021-12-24 14:12:59.701356,-121
2021-12-24 14:12:59.701362,-132
2021-12-24 14:12:59.701368,-134
2021-12-24 14:12:59.701374,-100
2021-12-24 14:12:59.701380,-86
2021-12-24 14:12:59.701386,-88
2021-12-24 14:12:59.701392,-72
2021-12-24 14:12:59.701398,-67
2021-12-24 14:12:59.701405,-58
2021-12-24 14:12:59.701411,-39
2021-12-24 14:12:59.925441,-44
2021-12-24 14:12:59.925461,-51
2021-12-24 14:12:59.925467,-25
2021-12-24 14:12:59.925472,-16
2021-12-24 14:12:59.925477,-23
2021-12-24 14:12:59.925482,-18
2021-12-24 14:12:59.925487,-34
2021-12-24 14:12:59.925492,-74
2021-12-24 14:12:59.925497,-72
2021-12-24 14:12:59.925502,55
2021-12-24 14:12:59.925507,435
2021-12-24 14:12:59.925512,924
2021-12-24 14:12:59.925517,728
2021-12-24 14:12:59.925554,-491
2021-12-24 14:12:59.925562,-1189
2021-12-24 14:12:59.925570,-465
2021-12-24 14:12:59.925576,134
2021-12-24 14:12:59.925581,-53
2021-12-24 14:12:59.925586,-65
2021-12-24 14:12:59.925591,125
2021-12-24 14:12:59.925596,81
2021-12-24 14:12:59.925601,9
2021-12-24 14:12:59.925606,37
2021-12-24 14:12:59.925611,30
2021-12-24 14:12:59.925616,18
2021-12-24 14:12:59.925620,30
2021-12-24 14:12:59.925625,6
2021-12-24 14:12:59.925630,-16
2021-12-24 14:12:59.925635,-16
2021-12-24 14:12:59.925640,-23
2021-12-24 14:13:00.150556,6
2021-12-24 14:13:00.150573,48
2021-12-24 14:13:00.150579,18
2021-12-24 14:13:00.150584,-9
2021-12-24 14:13:00.150589,41
2021-12-24 14:13:00.150594,62
2021-12-24 14:13:00.150599,48
2021-12-24 14:13:00.150604,88
2021-12-24 14:13:00.150609,114
2021-12-24 14:13:00.150614,69
2021-12-24 14:13:00.150619,18
2021-12-24 14:13:00.150624,-53
2021-12-24 14:13:00.150629,-153
2021-12-24 14:13:00.150634,-204
2021-12-24 14:13:00.150639,-237
2021-12-24 14:13:00.150644,-295
2021-12-24 14:13:00.150649,-302
2021-12-24 14:13:00.150654,-288
2021-12-24 14:13:00.150659,-304
2021-12-24 14:13:00.150664,-279
2021-12-24 14:13:00.150669,-235
2021-12-24 14:13:00.150674,-242
2021-12-24 14:13:00.150679,-251
2021-12-24 14:13:00.150684,-235
2021-12-24 14:13:00.150689,-223
2021-12-24 14:13:00.150694,-230
2021-12-24 14:13:00.150699,-228
2021-12-24 14:13:00.150704,-207
2021-12-24 14:13:00.150709,-200
2021-12-24 14:13:00.150714,-195
2021-12-24 14:13:00.420344,-153
2021-12-24 14:13:00.420360,-111
2021-12-24 14:13:00.420368,-114
2021-12-24 14:13:00.420374,-130
2021-12-24 14:13:00.420379,-148
2021-12-24 14:13:00.420384,-179
2021-12-24 14:13:00.420389,-179
2021-12-24 14:13:00.420394,-137
2021-12-24 14:13:00.420399,-102
2021-12-24 14:13:00.420417,-118
2021-12-24 14:13:00.420422,-151
2021-12-24 14:13:00.420427,-158
2021-12-24 14:13:00.420432,-130
2021-12-24 14:13:00.420437,-107
2021-12-24 14:13:00.420442,-97
2021-12-24 14:13:00.420447,-95
2021-12-24 14:13:00.420453,-104
2021-12-24 14:13:00.420458,-102
2021-12-24 14:13:00.420463,-69
2021-12-24 14:13:00.420498,-44
2021-12-24 14:13:00.420513,-30
2021-12-24 14:13:00.420533,-30
2021-12-24 14:13:00.420541,-58
2021-12-24 14:13:00.420546,-55
2021-12-24 14:13:00.420551,2
2021-12-24 14:13:00.420556,39
2021-12-24 14:13:00.420561,27
2021-12-24 14:13:00.420566,-11
2021-12-24 14:13:00.420570,-44
2021-12-24 14:13:00.420575,-41
2021-12-24 14:13:00.645996,-13
2021-12-24 14:13:00.646019,16
2021-12-24 14:13:00.646027,16
2021-12-24 14:13:00.646033,-23
2021-12-24 14:13:00.646039,-53
2021-12-24 14:13:00.646046,-25
2021-12-24 14:13:00.646052,23
2021-12-24 14:13:00.646058,2
2021-12-24 14:13:00.646064,-81
2021-12-24 14:13:00.646070,-151
2021-12-24 14:13:00.646076,-183
2021-12-24 14:13:00.646083,-134
2021-12-24 14:13:00.646089,95
2021-12-24 14:13:00.646095,553
2021-12-24 14:13:00.646101,947
2021-12-24 14:13:00.646108,451
2021-12-24 14:13:00.646114,-809
2021-12-24 14:13:00.646120,-1077
2021-12-24 14:13:00.646126,-181
2021-12-24 14:13:00.646133,97
2021-12-24 14:13:00.646139,-214
2021-12-24 14:13:00.646145,-146
2021-12-24 14:13:00.646151,-18
2021-12-24 14:13:00.646157,-107
2021-12-24 14:13:00.646164,-111
2021-12-24 14:13:00.646170,-51
2021-12-24 14:13:00.646176,-104
2021-12-24 14:13:00.646182,-153
2021-12-24 14:13:00.646188,-125
2021-12-24 14:13:00.646195,-134
2021-12-24 14:13:00.871340,-144
2021-12-24 14:13:00.871362,-72
2021-12-24 14:13:00.871369,-37
2021-12-24 14:13:00.871376,-60
2021-12-24 14:13:00.871382,-23
2021-12-24 14:13:00.871388,51
2021-12-24 14:13:00.871395,86
2021-12-24 14:13:00.871401,130
2021-12-24 14:13:00.871407,162
2021-12-24 14:13:00.871413,116
2021-12-24 14:13:00.871420,102
2021-12-24 14:13:00.871426,144
2021-12-24 14:13:00.871432,144
2021-12-24 14:13:00.871438,109
2021-12-24 14:13:00.871445,23
2021-12-24 14:13:00.871451,-107
2021-12-24 14:13:00.871457,-162
2021-12-24 14:13:00.871464,-162
2021-12-24 14:13:00.871470,-195
2021-12-24 14:13:00.871476,-214
2021-12-24 14:13:00.871482,-197
2021-12-24 14:13:00.871489,-221
2021-12-24 14:13:00.871495,-235
2021-12-24 14:13:00.871501,-183
2021-12-24 14:13:00.871507,-148
2021-12-24 14:13:00.871514,-148
2021-12-24 14:13:00.871520,-139
2021-12-24 14:13:00.871528,-141
2021-12-24 14:13:00.871535,-137
2021-12-24 14:13:00.871589,-93
2021-12-24 14:13:01.095534,-72
2021-12-24 14:13:01.095557,-111
2021-12-24 14:13:01.095565,-153
2021-12-24 14:13:01.095571,-148
2021-12-24 14:13:01.095578,-121
2021-12-24 14:13:01.095584,-90
2021-12-24 14:13:01.095590,-55
2021-12-24 14:13:01.095596,-51
2021-12-24 14:13:01.095603,-114
2021-12-24 14:13:01.095609,-151
2021-12-24 14:13:01.095615,-107
2021-12-24 14:13:01.095621,-55
2021-12-24 14:13:01.095628,-83
2021-12-24 14:13:01.095634,-176
2021-12-24 14:13:01.095640,-242
2021-12-24 14:13:01.095646,-228
2021-12-24 14:13:01.095652,-183
2021-12-24 14:13:01.095659,-151
2021-12-24 14:13:01.095665,-125
2021-12-24 14:13:01.095671,-107
2021-12-24 14:13:01.095678,-107
2021-12-24 14:13:01.095684,-107
2021-12-24 14:13:01.095690,-100
2021-12-24 14:13:01.095696,-79
2021-12-24 14:13:01.095702,-44
2021-12-24 14:13:01.095708,-41
2021-12-24 14:13:01.095715,-72
2021-12-24 14:13:01.095726,-69
2021-12-24 14:13:01.095732,-30
2021-12-24 14:13:01.095738,11
2021-12-24 14:13:01.409664,32
2021-12-24 14:13:01.409686,34
2021-12-24 14:13:01.409694,13
2021-12-24 14:13:01.409701,-30
2021-12-24 14:13:01.409720,-53
2021-12-24 14:13:01.409727,-27
2021-12-24 14:13:01.409733,-20
2021-12-24 14:13:01.409740,-51
2021-12-24 14:13:01.409746,-67
2021-12-24 14:13:01.409752,-55
2021-12-24 14:13:01.409759,-46
2021-12-24 14:13:01.409765,-18
2021-12-24 14:13:01.409771,6
2021-12-24 14:13:01.409778,-37
2021-12-24 14:13:01.409784,-83
2021-12-24 14:13:01.409791,-76
2021-12-24 14:13:01.409797,-53
2021-12-24 14:13:01.409803,90
2021-12-24 14:13:01.409810,502
2021-12-24 14:13:01.409816,889
2021-12-24 14:13:01.409822,505
2021-12-24 14:13:01.409829,-674
2021-12-24 14:13:01.409835,-1098
2021-12-24 14:13:01.409841,-300
2021-12-24 14:13:01.409847,46
2021-12-24 14:13:01.409854,-260
2021-12-24 14:13:01.409860,-204
2021-12-24 14:13:01.409867,-30
2021-12-24 14:13:01.409873,-86
2021-12-24 14:13:01.409879,-93
2021-12-24 14:13:01.546012,-30
2021-12-24 14:13:01.546035,-39
2021-12-24 14:13:01.546043,-46
2021-12-24 14:13:01.546049,-18
2021-12-24 14:13:01.546056,-13
2021-12-24 14:13:01.546062,-30
2021-12-24 14:13:01.546068,-60
2021-12-24 14:13:01.546074,-76
2021-12-24 14:13:01.546081,-46
2021-12-24 14:13:01.546087,0
2021-12-24 14:13:01.546094,39
2021-12-24 14:13:01.546100,97
2021-12-24 14:13:01.546106,114
2021-12-24 14:13:01.546112,95
2021-12-24 14:13:01.546118,134
2021-12-24 14:13:01.546178,174
2021-12-24 14:13:01.546196,155
2021-12-24 14:13:01.546206,146
2021-12-24 14:13:01.546268,100
2021-12-24 14:13:01.546296,-13
2021-12-24 14:13:01.546312,-86
2021-12-24 14:13:01.546323,-111
2021-12-24 14:13:01.546333,-162
2021-12-24 14:13:01.546343,-190
2021-12-24 14:13:01.546353,-190
2021-12-24 14:13:01.546365,-197
2021-12-24 14:13:01.546375,-193
2021-12-24 14:13:01.546388,-181
2021-12-24 14:13:01.546400,-172
2021-12-24 14:13:01.546412,-148
2021-12-24 14:13:01.770402,-139
2021-12-24 14:13:01.770422,-130
2021-12-24 14:13:01.770429,-102
2021-12-24 14:13:01.770436,-93
2021-12-24 14:13:01.770442,-86
2021-12-24 14:13:01.770448,-83
2021-12-24 14:13:01.770454,-123
2021-12-24 14:13:01.770460,-160
2021-12-24 14:13:01.770466,-160
2021-12-24 14:13:01.770472,-144
2021-12-24 14:13:01.770479,-118
2021-12-24 14:13:01.770485,-116
2021-12-24 14:13:01.770491,-141
2021-12-24 14:13:01.770497,-132
2021-12-24 14:13:01.770503,-90
2021-12-24 14:13:01.770509,-76
2021-12-24 14:13:01.770516,-74
2021-12-24 14:13:01.770522,-60
2021-12-24 14:13:01.770529,-58
2021-12-24 14:13:01.770553,-53
2021-12-24 14:13:01.770597,-32
2021-12-24 14:13:01.770613,-23
2021-12-24 14:13:01.770643,-16
2021-12-24 14:13:01.770652,-9
2021-12-24 14:13:01.770662,-6
2021-12-24 14:13:01.770672,11
2021-12-24 14:13:01.770681,39
2021-12-24 14:13:01.770689,39
2021-12-24 14:13:01.770699,25
2021-12-24 14:13:01.770709,27
2021-12-24 14:13:02.041014,37
2021-12-24 14:13:02.041036,48
2021-12-24 14:13:02.041043,60
2021-12-24 14:13:02.041050,60
2021-12-24 14:13:02.041056,34
2021-12-24 14:13:02.041062,-13
2021-12-24 14:13:02.041069,-39
2021-12-24 14:13:02.041075,9
2021-12-24 14:13:02.041081,60
2021-12-24 14:13:02.041087,6
2021-12-24 14:13:02.041093,-95
2021-12-24 14:13:02.041100,-132
2021-12-24 14:13:02.041106,-116
2021-12-24 14:13:02.041112,-100
2021-12-24 14:13:02.041118,-102
2021-12-24 14:13:02.041124,-130
2021-12-24 14:13:02.041131,-160
2021-12-24 14:13:02.041137,-186
2021-12-24 14:13:02.041143,-195
2021-12-24 14:13:02.041149,-167
2021-12-24 14:13:02.041155,-146
2021-12-24 14:13:02.041162,-162
2021-12-24 14:13:02.041168,-179
2021-12-24 14:13:02.041174,-200
2021-12-24 14:13:02.041180,-242
2021-12-24 14:13:02.041186,-153
2021-12-24 14:13:02.041193,230
2021-12-24 14:13:02.041199,702
2021-12-24 14:13:02.041205,567
2021-12-24 14:13:02.041211,-523
2021-12-24 14:13:02.219999,-1233
2021-12-24 14:13:02.220013,-553
2021-12-24 14:13:02.220019,65
2021-12-24 14:13:02.220023,-167
2021-12-24 14:13:02.220028,-263
2021-12-24 14:13:02.220032,-107
2021-12-24 14:13:02.220037,-107
2021-12-24 14:13:02.220041,-109
2021-12-24 14:13:02.220046,-41
2021-12-24 14:13:02.220050,-37
2021-12-24 14:13:02.220055,-48
2021-12-24 14:13:02.220059,-34
2021-12-24 14:13:02.220063,-32
2021-12-24 14:13:02.220068,-2
2021-12-24 14:13:02.220072,39
2021-12-24 14:13:02.220077,34
2021-12-24 14:13:02.220081,9
2021-12-24 14:13:02.220085,37
2021-12-24 14:13:02.220090,109
2021-12-24 14:13:02.220094,167
2021-12-24 14:13:02.220099,207
2021-12-24 14:13:02.220103,228
2021-12-24 14:13:02.220108,232
2021-12-24 14:13:02.220112,256
2021-12-24 14:13:02.220116,286
2021-12-24 14:13:02.220121,288
2021-12-24 14:13:02.220125,246
2021-12-24 14:13:02.220130,181
2021-12-24 14:13:02.220134,100
2021-12-24 14:13:02.220139,34
2021-12-24 14:13:02.535878,-11
2021-12-24 14:13:02.535909,-53
2021-12-24 14:13:02.535920,-90
2021-12-24 14:13:02.535930,-146
2021-12-24 14:13:02.535940,-200
2021-12-24 14:13:02.535949,-183
2021-12-24 14:13:02.535959,-139
2021-12-24 14:13:02.535968,-118
2021-12-24 14:13:02.535978,-121
2021-12-24 14:13:02.535987,-165
2021-12-24 14:13:02.535997,-193
2021-12-24 14:13:02.536006,-144
2021-12-24 14:13:02.536016,-111
2021-12-24 14:13:02.536025,-137
2021-12-24 14:13:02.536035,-148
2021-12-24 14:13:02.536044,-153
2021-12-24 14:13:02.536054,-162
2021-12-24 14:13:02.536063,-134
2021-12-24 14:13:02.536073,-93
2021-12-24 14:13:02.536082,-74
2021-12-24 14:13:02.536092,-60
2021-12-24 14:13:02.536101,-62
2021-12-24 14:13:02.536111,-79
2021-12-24 14:13:02.536120,-48
2021-12-24 14:13:02.536129,-9
2021-12-24 14:13:02.536139,-4
2021-12-24 14:13:02.536148,-11
2021-12-24 14:13:02.536158,-25
2021-12-24 14:13:02.536167,-32
2021-12-24 14:13:02.536177,-13
2021-12-24 14:13:02.716302,-32
2021-12-24 14:13:02.716324,-97
2021-12-24 14:13:02.716331,-114
2021-12-24 14:13:02.716338,-93
2021-12-24 14:13:02.716344,-81
2021-12-24 14:13:02.716350,-86
2021-12-24 14:13:02.716357,-100
2021-12-24 14:13:02.716363,-97
2021-12-24 14:13:02.716369,-121
2021-12-24 14:13:02.716375,-195
2021-12-24 14:13:02.716382,-223
2021-12-24 14:13:02.716388,-179
2021-12-24 14:13:02.716394,-158
2021-12-24 14:13:02.716400,-181
2021-12-24 14:13:02.716407,-195
2021-12-24 14:13:02.716413,-221
2021-12-24 14:13:02.716419,-258
2021-12-24 14:13:02.716509,-242
2021-12-24 14:13:02.716524,-197
2021-12-24 14:13:02.716531,-181
2021-12-24 14:13:02.716537,-214
2021-12-24 14:13:02.716544,-260
2021-12-24 14:13:02.716550,-242
2021-12-24 14:13:02.716556,-195
2021-12-24 14:13:02.716562,-179
2021-12-24 14:13:02.716568,-167
2021-12-24 14:13:02.716575,-172
2021-12-24 14:13:02.716581,-202
2021-12-24 14:13:02.716587,-148
2021-12-24 14:13:02.716594,158
2021-12-24 14:13:02.940672,693
2021-12-24 14:13:02.940692,893
2021-12-24 14:13:02.940699,-23
2021-12-24 14:13:02.940706,-1200
2021-12-24 14:13:02.940712,-928
2021-12-24 14:13:02.940718,-18
2021-12-24 14:13:02.940725,27
2021-12-24 14:13:02.940731,-160
2021-12-24 14:13:02.940737,-34
2021-12-24 14:13:02.940743,-23
2021-12-24 14:13:02.940749,-74
2021-12-24 14:13:02.940755,11
2021-12-24 14:13:02.940762,60
2021-12-24 14:13:02.940768,16
2021-12-24 14:13:02.940774,-18
2021-12-24 14:13:02.940780,-2
2021-12-24 14:13:02.940786,25
2021-12-24 14:13:02.940792,20
2021-12-24 14:13:02.940799,18
2021-12-24 14:13:02.940805,46
2021-12-24 14:13:02.940811,72
2021-12-24 14:13:02.940817,109
2021-12-24 14:13:02.940823,174
2021-12-24 14:13:02.940829,235
2021-12-24 14:13:02.940836,276
2021-12-24 14:13:02.940842,302
2021-12-24 14:13:02.940848,304
2021-12-24 14:13:02.940854,293
2021-12-24 14:13:02.940860,293
2021-12-24 14:13:02.940867,274
2021-12-24 14:13:03.165783,218
2021-12-24 14:13:03.165804,137
2021-12-24 14:13:03.165811,53
2021-12-24 14:13:03.165816,-11
2021-12-24 14:13:03.165821,-60
2021-12-24 14:13:03.165826,-114
2021-12-24 14:13:03.165831,-195
2021-12-24 14:13:03.165836,-276
2021-12-24 14:13:03.165841,-295
2021-12-24 14:13:03.165846,-260
2021-12-24 14:13:03.165851,-237
2021-12-24 14:13:03.165857,-214
2021-12-24 14:13:03.165862,-193
2021-12-24 14:13:03.165867,-214
2021-12-24 14:13:03.165872,-228
2021-12-24 14:13:03.165877,-193
2021-12-24 14:13:03.165882,-148
2021-12-24 14:13:03.165887,-130
2021-12-24 14:13:03.165892,-118
2021-12-24 14:13:03.165897,-130
2021-12-24 14:13:03.165902,-158
2021-12-24 14:13:03.165907,-146
2021-12-24 14:13:03.165912,-102
2021-12-24 14:13:03.165917,-74
2021-12-24 14:13:03.165922,-69
2021-12-24 14:13:03.165927,-76
2021-12-24 14:13:03.165932,-72
2021-12-24 14:13:03.165937,-58
2021-12-24 14:13:03.165942,-53
2021-12-24 14:13:03.165947,-37
2021-12-24 14:13:03.524447,-20
2021-12-24 14:13:03.524468,-25
2021-12-24 14:13:03.524474,-20
2021-12-24 14:13:03.524479,-9
2021-12-24 14:13:03.524485,-9
2021-12-24 14:13:03.524490,-23
2021-12-24 14:13:03.524495,-81
2021-12-24 14:13:03.524500,-118
2021-12-24 14:13:03.524505,-90
2021-12-24 14:13:03.524510,-90
2021-12-24 14:13:03.524515,-134
2021-12-24 14:13:03.524520,-158
2021-12-24 14:13:03.524525,-195
2021-12-24 14:13:03.524530,-258
2021-12-24 14:13:03.524535,-269
2021-12-24 14:13:03.524540,-244
2021-12-24 14:13:03.524545,-214
2021-12-24 14:13:03.524550,-172
2021-12-24 14:13:03.524555,-162
2021-12-24 14:13:03.524560,-183
2021-12-24 14:13:03.524565,-174
2021-12-24 14:13:03.524570,-176
2021-12-24 14:13:03.524575,-225
2021-12-24 14:13:03.524580,-230
2021-12-24 14:13:03.524584,-195
2021-12-24 14:13:03.524589,-188
2021-12-24 14:13:03.524594,-179
2021-12-24 14:13:03.524599,-146
2021-12-24 14:13:03.524604,-132
2021-12-24 14:13:03.524609,-134
2021-12-24 14:13:03.615825,-125
2021-12-24 14:13:03.615856,-107
2021-12-24 14:13:03.615867,-111
2021-12-24 14:13:03.615877,-128
2021-12-24 14:13:03.615886,-9
2021-12-24 14:13:03.615918,344
2021-12-24 14:13:03.615928,770
2021-12-24 14:13:03.615938,702
2021-12-24 14:13:03.615947,-330
2021-12-24 14:13:03.615957,-1147
2021-12-24 14:13:03.615966,-542
2021-12-24 14:13:03.615976,125
2021-12-24 14:13:03.615985,-116
2021-12-24 14:13:03.615995,-242
2021-12-24 14:13:03.616004,-27
2021-12-24 14:13:03.616014,-34
2021-12-24 14:13:03.616023,-97
2021-12-24 14:13:03.616033,-44
2021-12-24 14:13:03.616042,-46
2021-12-24 14:13:03.616051,-60
2021-12-24 14:13:03.616061,-20
2021-12-24 14:13:03.616070,6
2021-12-24 14:13:03.616080,23
2021-12-24 14:13:03.616089,27
2021-12-24 14:13:03.616099,32
2021-12-24 14:13:03.616108,72
2021-12-24 14:13:03.616118,114
2021-12-24 14:13:03.616127,146
2021-12-24 14:13:03.616137,186
2021-12-24 14:13:03.616146,218
2021-12-24 14:13:03.840327,242
2021-12-24 14:13:03.840342,286
2021-12-24 14:13:03.840348,309
2021-12-24 14:13:03.840353,283
2021-12-24 14:13:03.840357,253
2021-12-24 14:13:03.840362,190
2021-12-24 14:13:03.840366,109
2021-12-24 14:13:03.840371,81
2021-12-24 14:13:03.840375,39
2021-12-24 14:13:03.840380,-51
2021-12-24 14:13:03.840384,-121
2021-12-24 14:13:03.840389,-160
2021-12-24 14:13:03.840393,-176
2021-12-24 14:13:03.840397,-160
2021-12-24 14:13:03.840402,-137
2021-12-24 14:13:03.840406,-139
2021-12-24 14:13:03.840411,-146
2021-12-24 14:13:03.840415,-130
2021-12-24 14:13:03.840420,-104
2021-12-24 14:13:03.840424,-83
2021-12-24 14:13:03.840429,-67
2021-12-24 14:13:03.840433,-67
2021-12-24 14:13:03.840438,-62
2021-12-24 14:13:03.840442,-48
2021-12-24 14:13:03.840447,-44
2021-12-24 14:13:03.840451,-55
2021-12-24 14:13:03.840456,-79
2021-12-24 14:13:03.840460,-90
2021-12-24 14:13:03.840464,-86
2021-12-24 14:13:03.840469,-69
2021-12-24 14:13:04.065943,-32
2021-12-24 14:13:04.065963,-16
2021-12-24 14:13:04.065971,-18
2021-12-24 14:13:04.065978,-25
2021-12-24 14:13:04.065984,-83
2021-12-24 14:13:04.065990,-137
2021-12-24 14:13:04.065997,-107
2021-12-24 14:13:04.066003,-69
2021-12-24 14:13:04.066009,-97
2021-12-24 14:13:04.066016,-155
2021-12-24 14:13:04.066022,-204
2021-12-24 14:13:04.066028,-225
2021-12-24 14:13:04.066035,-230
2021-12-24 14:13:04.066041,-214
2021-12-24 14:13:04.066047,-188
2021-12-24 14:13:04.066054,-190
2021-12-24 14:13:04.066060,-216
2021-12-24 14:13:04.066066,-251
2021-12-24 14:13:04.066072,-283
2021-12-24 14:13:04.066079,-279
2021-12-24 14:13:04.066085,-256
2021-12-24 14:13:04.066091,-265
2021-12-24 14:13:04.066098,-265
2021-12-24 14:13:04.066104,-211
2021-12-24 14:13:04.066110,-151
2021-12-24 14:13:04.066117,-130
2021-12-24 14:13:04.066123,-137
2021-12-24 14:13:04.066129,-162
2021-12-24 14:13:04.066136,-193
2021-12-24 14:13:04.066142,-181
2021-12-24 14:13:04.335207,-137
2021-12-24 14:13:04.335235,-111
2021-12-24 14:13:04.335248,-121
2021-12-24 14:13:04.335261,-165
2021-12-24 14:13:04.335273,-195
2021-12-24 14:13:04.335285,-160
2021-12-24 14:13:04.335297,-109
2021-12-24 14:13:04.335309,-90
2021-12-24 14:13:04.335320,-118
2021-12-24 14:13:04.335331,-172
2021-12-24 14:13:04.335343,-86
2021-12-24 14:13:04.335356,279
2021-12-24 14:13:04.335369,733
2021-12-24 14:13:04.335382,695
