Time,ECG
2021-12-24 14:52:45.416184,58
2021-12-24 14:52:45.416199,37
2021-12-24 14:52:45.416204,23
2021-12-24 14:52:45.416208,25
2021-12-24 14:52:45.416213,20
2021-12-24 14:52:45.416217,25
2021-12-24 14:52:45.416222,32
2021-12-24 14:52:45.416226,9
2021-12-24 14:52:45.416230,-13
2021-12-24 14:52:45.416248,-9
2021-12-24 14:52:45.416252,4
2021-12-24 14:52:45.416256,23
2021-12-24 14:52:45.416260,18
2021-12-24 14:52:45.416264,-4
2021-12-24 14:52:45.416268,-2
2021-12-24 14:52:45.416272,13
2021-12-24 14:52:45.416276,9
2021-12-24 14:52:45.416280,27
2021-12-24 14:52:45.416284,128
2021-12-24 14:52:45.416288,353
2021-12-24 14:52:45.416292,654
2021-12-24 14:52:45.416296,621
2021-12-24 14:52:45.416300,-86
2021-12-24 14:52:45.416304,-712
2021-12-24 14:52:45.416308,-400
2021-12-24 14:52:45.416312,88
2021-12-24 14:52:45.416317,2
2021-12-24 14:52:45.416321,-109
2021-12-24 14:52:45.416325,-23
2021-12-24 14:52:45.416329,-39
2021-12-24 14:52:45.555126,-81
2021-12-24 14:52:45.555156,-41
2021-12-24 14:52:45.555167,-16
2021-12-24 14:52:45.555177,-23
2021-12-24 14:52:45.555187,-9
2021-12-24 14:52:45.555196,27
2021-12-24 14:52:45.555207,37
2021-12-24 14:52:45.555217,20
2021-12-24 14:52:45.555227,37
2021-12-24 14:52:45.555236,74
2021-12-24 14:52:45.555245,102
2021-12-24 14:52:45.555255,137
2021-12-24 14:52:45.555264,165
2021-12-24 14:52:45.555274,169
2021-12-24 14:52:45.555283,200
2021-12-24 14:52:45.555293,246
2021-12-24 14:52:45.555302,263
2021-12-24 14:52:45.555313,265
2021-12-24 14:52:45.555323,249
2021-12-24 14:52:45.555332,221
2021-12-24 14:52:45.555341,200
2021-12-24 14:52:45.555351,160
2021-12-24 14:52:45.555361,100
2021-12-24 14:52:45.555370,41
2021-12-24 14:52:45.555379,-16
2021-12-24 14:52:45.555389,-58
2021-12-24 14:52:45.555399,-74
2021-12-24 14:52:45.555408,-86
2021-12-24 14:52:45.555418,-93
2021-12-24 14:52:45.555431,-102
2021-12-24 14:52:45.733800,-121
2021-12-24 14:52:45.733816,-123
2021-12-24 14:52:45.733822,-104
2021-12-24 14:52:45.733828,-93
2021-12-24 14:52:45.733833,-83
2021-12-24 14:52:45.733838,-79
2021-12-24 14:52:45.733843,-97
2021-12-24 14:52:45.733848,-116
2021-12-24 14:52:45.733853,-95
2021-12-24 14:52:45.733858,-74
2021-12-24 14:52:45.733863,-69
2021-12-24 14:52:45.733868,-79
2021-12-24 14:52:45.733873,-95
2021-12-24 14:52:45.733881,-93
2021-12-24 14:52:45.733886,-72
2021-12-24 14:52:45.733892,-58
2021-12-24 14:52:45.733897,-48
2021-12-24 14:52:45.733902,-60
2021-12-24 14:52:45.733907,-83
2021-12-24 14:52:45.733912,-74
2021-12-24 14:52:45.733917,-48
2021-12-24 14:52:45.733921,-48
2021-12-24 14:52:45.733926,-46
2021-12-24 14:52:45.733931,-32
2021-12-24 14:52:45.733936,-23
2021-12-24 14:52:45.733941,-6
2021-12-24 14:52:45.733946,2
2021-12-24 14:52:45.733951,2
2021-12-24 14:52:45.733956,16
2021-12-24 14:52:45.733962,18
2021-12-24 14:52:46.004350,9
2021-12-24 14:52:46.004372,16
2021-12-24 14:52:46.004379,6
2021-12-24 14:52:46.004386,-13
2021-12-24 14:52:46.004392,-20
2021-12-24 14:52:46.004398,-23
2021-12-24 14:52:46.004405,-11
2021-12-24 14:52:46.004411,23
2021-12-24 14:52:46.004417,39
2021-12-24 14:52:46.004423,18
2021-12-24 14:52:46.004429,-2
2021-12-24 14:52:46.004435,-23
2021-12-24 14:52:46.004442,-34
2021-12-24 14:52:46.004448,-20
2021-12-24 14:52:46.004454,-11
2021-12-24 14:52:46.004460,9
2021-12-24 14:52:46.004466,39
2021-12-24 14:52:46.004477,25
2021-12-24 14:52:46.004483,16
2021-12-24 14:52:46.004489,44
2021-12-24 14:52:46.004496,58
2021-12-24 14:52:46.004502,53
2021-12-24 14:52:46.004508,46
2021-12-24 14:52:46.004515,69
2021-12-24 14:52:46.004521,218
2021-12-24 14:52:46.004527,530
2021-12-24 14:52:46.004533,749
2021-12-24 14:52:46.004539,418
2021-12-24 14:52:46.004546,-356
2021-12-24 14:52:46.004552,-586
2021-12-24 14:52:46.228779,-51
2021-12-24 14:52:46.228808,202
2021-12-24 14:52:46.228820,27
2021-12-24 14:52:46.228831,51
2021-12-24 14:52:46.228840,125
2021-12-24 14:52:46.228850,48
2021-12-24 14:52:46.228860,53
2021-12-24 14:52:46.228878,130
2021-12-24 14:52:46.228888,125
2021-12-24 14:52:46.228898,109
2021-12-24 14:52:46.228907,139
2021-12-24 14:52:46.228917,134
2021-12-24 14:52:46.228927,107
2021-12-24 14:52:46.228937,132
2021-12-24 14:52:46.228946,181
2021-12-24 14:52:46.228956,190
2021-12-24 14:52:46.228966,181
2021-12-24 14:52:46.228975,200
2021-12-24 14:52:46.228985,249
2021-12-24 14:52:46.228994,276
2021-12-24 14:52:46.229004,276
2021-12-24 14:52:46.229013,276
2021-12-24 14:52:46.229023,267
2021-12-24 14:52:46.229032,246
2021-12-24 14:52:46.229042,221
2021-12-24 14:52:46.229052,186
2021-12-24 14:52:46.229061,128
2021-12-24 14:52:46.229071,39
2021-12-24 14:52:46.229080,-32
2021-12-24 14:52:46.229091,-62
2021-12-24 14:52:46.454064,-93
2021-12-24 14:52:46.454084,-137
2021-12-24 14:52:46.454091,-174
2021-12-24 14:52:46.454098,-216
2021-12-24 14:52:46.454104,-253
2021-12-24 14:52:46.454111,-256
2021-12-24 14:52:46.454117,-256
2021-12-24 14:52:46.454123,-265
2021-12-24 14:52:46.454129,-256
2021-12-24 14:52:46.454136,-267
2021-12-24 14:52:46.454142,-286
2021-12-24 14:52:46.454148,-258
2021-12-24 14:52:46.454154,-228
2021-12-24 14:52:46.454161,-214
2021-12-24 14:52:46.454167,-200
2021-12-24 14:52:46.454173,-204
2021-12-24 14:52:46.454180,-207
2021-12-24 14:52:46.454186,-176
2021-12-24 14:52:46.454192,-151
2021-12-24 14:52:46.454198,-141
2021-12-24 14:52:46.454205,-139
2021-12-24 14:52:46.454211,-141
2021-12-24 14:52:46.454217,-137
2021-12-24 14:52:46.454223,-118
2021-12-24 14:52:46.454233,-97
2021-12-24 14:52:46.454240,-83
2021-12-24 14:52:46.454246,-81
2021-12-24 14:52:46.454252,-95
2021-12-24 14:52:46.454259,-93
2021-12-24 14:52:46.454265,-62
2021-12-24 14:52:46.680215,-46
2021-12-24 14:52:46.680245,-39
2021-12-24 14:52:46.680256,-34
2021-12-24 14:52:46.680266,-41
2021-12-24 14:52:46.680276,-39
2021-12-24 14:52:46.680285,-23
2021-12-24 14:52:46.680295,-16
2021-12-24 14:52:46.680304,-23
2021-12-24 14:52:46.680314,-58
2021-12-24 14:52:46.680323,-86
2021-12-24 14:52:46.680333,-53
2021-12-24 14:52:46.680342,-11
2021-12-24 14:52:46.680351,-4
2021-12-24 14:52:46.680361,-2
2021-12-24 14:52:46.680370,-20
2021-12-24 14:52:46.680380,-72
2021-12-24 14:52:46.680389,-114
2021-12-24 14:52:46.680398,-125
2021-12-24 14:52:46.680408,-109
2021-12-24 14:52:46.680417,-90
2021-12-24 14:52:46.680427,-95
2021-12-24 14:52:46.680436,-107
2021-12-24 14:52:46.680449,-93
2021-12-24 14:52:46.680459,-67
2021-12-24 14:52:46.680468,-51
2021-12-24 14:52:46.680478,-39
2021-12-24 14:52:46.680487,-46
2021-12-24 14:52:46.680497,-34
2021-12-24 14:52:46.680506,141
2021-12-24 14:52:46.680516,526
2021-12-24 14:52:46.949182,844
2021-12-24 14:52:46.949246,526
2021-12-24 14:52:46.949254,-428
2021-12-24 14:52:46.949308,-821
2021-12-24 14:52:46.949317,-214
2021-12-24 14:52:46.949323,158
2021-12-24 14:52:46.949330,-16
2021-12-24 14:52:46.949382,6
2021-12-24 14:52:46.949390,111
2021-12-24 14:52:46.949397,27
2021-12-24 14:52:46.949403,-4
2021-12-24 14:52:46.949457,55
2021-12-24 14:52:46.949465,69
2021-12-24 14:52:46.949471,60
2021-12-24 14:52:46.949478,62
2021-12-24 14:52:46.949530,69
2021-12-24 14:52:46.949538,100
2021-12-24 14:52:46.949545,134
2021-12-24 14:52:46.949551,167
2021-12-24 14:52:46.949603,200
2021-12-24 14:52:46.949611,223
2021-12-24 14:52:46.949617,256
2021-12-24 14:52:46.949624,309
2021-12-24 14:52:46.949677,356
2021-12-24 14:52:46.949691,386
2021-12-24 14:52:46.949698,404
2021-12-24 14:52:46.949748,402
2021-12-24 14:52:46.949761,386
2021-12-24 14:52:46.949771,374
2021-12-24 14:52:46.949781,351
2021-12-24 14:52:47.130133,300
2021-12-24 14:52:47.130162,228
2021-12-24 14:52:47.130173,146
2021-12-24 14:52:47.130183,69
2021-12-24 14:52:47.130193,18
2021-12-24 14:52:47.130202,-6
2021-12-24 14:52:47.130212,-37
2021-12-24 14:52:47.130221,-86
2021-12-24 14:52:47.130231,-123
2021-12-24 14:52:47.130240,-123
2021-12-24 14:52:47.130250,-104
2021-12-24 14:52:47.130259,-100
2021-12-24 14:52:47.130268,-125
2021-12-24 14:52:47.130278,-167
2021-12-24 14:52:47.130288,-193
2021-12-24 14:52:47.130298,-197
2021-12-24 14:52:47.130308,-183
2021-12-24 14:52:47.130317,-158
2021-12-24 14:52:47.130327,-162
2021-12-24 14:52:47.130336,-195
2021-12-24 14:52:47.130346,-204
2021-12-24 14:52:47.130355,-223
2021-12-24 14:52:47.130365,-274
2021-12-24 14:52:47.130374,-276
2021-12-24 14:52:47.130384,-249
2021-12-24 14:52:47.130393,-249
2021-12-24 14:52:47.130403,-246
2021-12-24 14:52:47.130412,-228
2021-12-24 14:52:47.130422,-223
2021-12-24 14:52:47.130431,-218
2021-12-24 14:52:47.354406,-207
2021-12-24 14:52:47.354425,-202
2021-12-24 14:52:47.354432,-197
2021-12-24 14:52:47.354439,-195
2021-12-24 14:52:47.354445,-186
2021-12-24 14:52:47.354451,-165
2021-12-24 14:52:47.354458,-155
2021-12-24 14:52:47.354464,-153
2021-12-24 14:52:47.354470,-139
2021-12-24 14:52:47.354476,-125
2021-12-24 14:52:47.354482,-123
2021-12-24 14:52:47.354489,-128
2021-12-24 14:52:47.354495,-141
2021-12-24 14:52:47.354501,-155
2021-12-24 14:52:47.354508,-162
2021-12-24 14:52:47.354514,-169
2021-12-24 14:52:47.354520,-153
2021-12-24 14:52:47.354526,-128
2021-12-24 14:52:47.354532,-118
2021-12-24 14:52:47.354539,-109
2021-12-24 14:52:47.354545,-93
2021-12-24 14:52:47.354551,-123
2021-12-24 14:52:47.354557,-188
2021-12-24 14:52:47.354564,-195
2021-12-24 14:52:47.354570,-60
2021-12-24 14:52:47.354576,302
2021-12-24 14:52:47.354583,809
2021-12-24 14:52:47.354589,833
2021-12-24 14:52:47.354595,-160
2021-12-24 14:52:47.354602,-1112
2021-12-24 14:52:47.624647,-777
2021-12-24 14:52:47.624677,-88
2021-12-24 14:52:47.624688,-74
2021-12-24 14:52:47.624698,-130
2021-12-24 14:52:47.624708,51
2021-12-24 14:52:47.624718,62
2021-12-24 14:52:47.624728,-20
2021-12-24 14:52:47.624737,27
2021-12-24 14:52:47.624747,86
2021-12-24 14:52:47.624757,97
2021-12-24 14:52:47.624773,153
2021-12-24 14:52:47.624783,195
2021-12-24 14:52:47.624792,174
2021-12-24 14:52:47.624801,183
2021-12-24 14:52:47.624811,235
2021-12-24 14:52:47.624821,258
2021-12-24 14:52:47.624830,265
2021-12-24 14:52:47.624839,290
2021-12-24 14:52:47.624849,330
2021-12-24 14:52:47.624858,381
2021-12-24 14:52:47.624868,423
2021-12-24 14:52:47.624877,439
2021-12-24 14:52:47.624887,451
2021-12-24 14:52:47.624897,453
2021-12-24 14:52:47.624906,428
2021-12-24 14:52:47.624916,393
2021-12-24 14:52:47.624925,318
2021-12-24 14:52:47.624935,195
2021-12-24 14:52:47.624944,102
2021-12-24 14:52:47.624954,55
2021-12-24 14:52:47.849141,-2
2021-12-24 14:52:47.849161,-53
2021-12-24 14:52:47.849168,-86
2021-12-24 14:52:47.849175,-146
2021-12-24 14:52:47.849181,-218
2021-12-24 14:52:47.849188,-214
2021-12-24 14:52:47.849194,-181
2021-12-24 14:52:47.849201,-169
2021-12-24 14:52:47.849207,-158
2021-12-24 14:52:47.849213,-144
2021-12-24 14:52:47.849220,-148
2021-12-24 14:52:47.849226,-155
2021-12-24 14:52:47.849232,-146
2021-12-24 14:52:47.849239,-123
2021-12-24 14:52:47.849246,-111
2021-12-24 14:52:47.849256,-104
2021-12-24 14:52:47.849268,-111
2021-12-24 14:52:47.849275,-134
2021-12-24 14:52:47.849281,-153
2021-12-24 14:52:47.849287,-148
2021-12-24 14:52:47.849294,-132
2021-12-24 14:52:47.849300,-125
2021-12-24 14:52:47.849307,-125
2021-12-24 14:52:47.849313,-118
2021-12-24 14:52:47.849320,-100
2021-12-24 14:52:47.849329,-81
2021-12-24 14:52:47.849336,-76
2021-12-24 14:52:47.849342,-86
2021-12-24 14:52:47.849349,-93
2021-12-24 14:52:47.849355,-81
2021-12-24 14:52:48.166045,-46
2021-12-24 14:52:48.166068,-11
2021-12-24 14:52:48.166076,0
2021-12-24 14:52:48.166082,-6
2021-12-24 14:52:48.166089,-32
2021-12-24 14:52:48.166095,-67
2021-12-24 14:52:48.166102,-81
2021-12-24 14:52:48.166108,-69
2021-12-24 14:52:48.166114,-60
2021-12-24 14:52:48.166121,-72
2021-12-24 14:52:48.166127,-109
2021-12-24 14:52:48.166134,-144
2021-12-24 14:52:48.166140,-139
2021-12-24 14:52:48.166146,-125
2021-12-24 14:52:48.166153,-128
2021-12-24 14:52:48.166159,-132
2021-12-24 14:52:48.166166,-137
2021-12-24 14:52:48.166172,-137
2021-12-24 14:52:48.166178,-20
2021-12-24 14:52:48.166185,328
2021-12-24 14:52:48.166191,837
2021-12-24 14:52:48.166198,979
2021-12-24 14:52:48.166204,158
2021-12-24 14:52:48.166210,-900
2021-12-24 14:52:48.166216,-777
2021-12-24 14:52:48.166223,-37
2021-12-24 14:52:48.166229,6
2021-12-24 14:52:48.166236,-174
2021-12-24 14:52:48.166242,-25
2021-12-24 14:52:48.166248,34
2021-12-24 14:52:48.343805,-16
2021-12-24 14:52:48.343835,27
2021-12-24 14:52:48.343846,30
2021-12-24 14:52:48.343856,-46
2021-12-24 14:52:48.343865,-53
2021-12-24 14:52:48.343875,-4
2021-12-24 14:52:48.343884,20
2021-12-24 14:52:48.343894,48
2021-12-24 14:52:48.343903,90
2021-12-24 14:52:48.343913,109
2021-12-24 14:52:48.343922,130
2021-12-24 14:52:48.343932,188
2021-12-24 14:52:48.343941,253
2021-12-24 14:52:48.343951,302
2021-12-24 14:52:48.343960,332
2021-12-24 14:52:48.343970,344
2021-12-24 14:52:48.343984,358
2021-12-24 14:52:48.343993,372
2021-12-24 14:52:48.344003,363
2021-12-24 14:52:48.344012,339
2021-12-24 14:52:48.344022,295
2021-12-24 14:52:48.344032,214
2021-12-24 14:52:48.344041,111
2021-12-24 14:52:48.344051,34
2021-12-24 14:52:48.344060,-2
2021-12-24 14:52:48.344070,-25
2021-12-24 14:52:48.344079,-67
2021-12-24 14:52:48.344089,-130
2021-12-24 14:52:48.344098,-160
2021-12-24 14:52:48.344108,-132
2021-12-24 14:52:48.569761,-114
2021-12-24 14:52:48.569784,-118
2021-12-24 14:52:48.569791,-130
2021-12-24 14:52:48.569798,-162
2021-12-24 14:52:48.569804,-181
2021-12-24 14:52:48.569810,-186
2021-12-24 14:52:48.569817,-186
2021-12-24 14:52:48.569823,-174
2021-12-24 14:52:48.569829,-181
2021-12-24 14:52:48.569835,-188
2021-12-24 14:52:48.569842,-162
2021-12-24 14:52:48.569848,-139
2021-12-24 14:52:48.569854,-128
2021-12-24 14:52:48.569860,-116
2021-12-24 14:52:48.569866,-128
2021-12-24 14:52:48.569873,-151
2021-12-24 14:52:48.569879,-141
2021-12-24 14:52:48.569885,-102
2021-12-24 14:52:48.569891,-72
2021-12-24 14:52:48.569898,-72
2021-12-24 14:52:48.569904,-102
2021-12-24 14:52:48.569910,-123
2021-12-24 14:52:48.569916,-88
2021-12-24 14:52:48.569923,-48
2021-12-24 14:52:48.569929,-55
2021-12-24 14:52:48.569935,-67
2021-12-24 14:52:48.569941,-62
2021-12-24 14:52:48.569947,-79
2021-12-24 14:52:48.569954,-88
2021-12-24 14:52:48.569960,-67
2021-12-24 14:52:48.749756,-48
2021-12-24 14:52:48.749779,-39
2021-12-24 14:52:48.749786,-48
2021-12-24 14:52:48.749793,-62
2021-12-24 14:52:48.749799,-48
2021-12-24 14:52:48.749805,-16
2021-12-24 14:52:48.749812,-6
2021-12-24 14:52:48.749818,-16
2021-12-24 14:52:48.749824,-32
2021-12-24 14:52:48.749830,-58
2021-12-24 14:52:48.749836,-83
2021-12-24 14:52:48.749843,-39
2021-12-24 14:52:48.749849,223
2021-12-24 14:52:48.749861,751
2021-12-24 14:52:48.749867,1093
2021-12-24 14:52:48.749873,495
2021-12-24 14:52:48.749879,-672
2021-12-24 14:52:48.749885,-912
2021-12-24 14:52:48.749891,-225
2021-12-24 14:52:48.749898,2
2021-12-24 14:52:48.749904,-207
2021-12-24 14:52:48.749910,-125
2021-12-24 14:52:48.749916,-9
2021-12-24 14:52:48.749922,-86
2021-12-24 14:52:48.749928,-88
2021-12-24 14:52:48.749934,-39
2021-12-24 14:52:48.749940,-81
2021-12-24 14:52:48.749946,-116
2021-12-24 14:52:48.749953,-72
2021-12-24 14:52:48.749959,-30
2021-12-24 14:52:49.019222,-16
2021-12-24 14:52:49.019241,6
2021-12-24 14:52:49.019249,34
2021-12-24 14:52:49.019256,58
2021-12-24 14:52:49.019262,97
2021-12-24 14:52:49.019268,162
2021-12-24 14:52:49.019277,218
2021-12-24 14:52:49.019283,242
2021-12-24 14:52:49.019290,244
2021-12-24 14:52:49.019296,258
2021-12-24 14:52:49.019302,281
2021-12-24 14:52:49.019309,281
2021-12-24 14:52:49.019315,249
2021-12-24 14:52:49.019321,176
2021-12-24 14:52:49.019327,90
2021-12-24 14:52:49.019333,20
2021-12-24 14:52:49.019340,-39
2021-12-24 14:52:49.019346,-93
2021-12-24 14:52:49.019352,-139
2021-12-24 14:52:49.019358,-183
2021-12-24 14:52:49.019365,-214
2021-12-24 14:52:49.019371,-223
2021-12-24 14:52:49.019377,-209
2021-12-24 14:52:49.019383,-190
2021-12-24 14:52:49.019389,-183
2021-12-24 14:52:49.019396,-176
2021-12-24 14:52:49.019402,-167
2021-12-24 14:52:49.019408,-162
2021-12-24 14:52:49.019414,-169
2021-12-24 14:52:49.019427,-167
2021-12-24 14:52:49.199654,-153
2021-12-24 14:52:49.199674,-141
2021-12-24 14:52:49.199682,-132
2021-12-24 14:52:49.199688,-121
2021-12-24 14:52:49.199694,-109
2021-12-24 14:52:49.199701,-93
2021-12-24 14:52:49.199707,-100
2021-12-24 14:52:49.199713,-123
2021-12-24 14:52:49.199720,-114
2021-12-24 14:52:49.199726,-93
2021-12-24 14:52:49.199732,-93
2021-12-24 14:52:49.199739,-79
2021-12-24 14:52:49.199745,-65
2021-12-24 14:52:49.199752,-90
2021-12-24 14:52:49.199758,-128
2021-12-24 14:52:49.199764,-123
2021-12-24 14:52:49.199770,-100
2021-12-24 14:52:49.199785,-74
2021-12-24 14:52:49.199791,-60
2021-12-24 14:52:49.199797,-67
2021-12-24 14:52:49.199804,-62
2021-12-24 14:52:49.199810,-51
2021-12-24 14:52:49.199816,-51
2021-12-24 14:52:49.199822,-44
2021-12-24 14:52:49.199829,-37
2021-12-24 14:52:49.199835,-30
2021-12-24 14:52:49.199841,-16
2021-12-24 14:52:49.199847,-13
2021-12-24 14:52:49.199854,-13
2021-12-24 14:52:49.199860,0
2021-12-24 14:52:49.425173,0
2021-12-24 14:52:49.425204,-6
2021-12-24 14:52:49.425216,-2
2021-12-24 14:52:49.425225,-18
2021-12-24 14:52:49.425235,-20
2021-12-24 14:52:49.425245,151
2021-12-24 14:52:49.425255,595
2021-12-24 14:52:49.425264,1135
2021-12-24 14:52:49.425274,1014
2021-12-24 14:52:49.425283,-176
2021-12-24 14:52:49.425293,-1049
2021-12-24 14:52:49.425303,-528
2021-12-24 14:52:49.425312,62
2021-12-24 14:52:49.425322,-69
2021-12-24 14:52:49.425332,-90
2021-12-24 14:52:49.425341,90
2021-12-24 14:52:49.425351,67
2021-12-24 14:52:49.425360,25
2021-12-24 14:52:49.425370,86
2021-12-24 14:52:49.425379,114
2021-12-24 14:52:49.425389,116
2021-12-24 14:52:49.425398,134
2021-12-24 14:52:49.425408,144
2021-12-24 14:52:49.425417,141
2021-12-24 14:52:49.425427,155
2021-12-24 14:52:49.425437,193
2021-12-24 14:52:49.425446,225
2021-12-24 14:52:49.425456,239
2021-12-24 14:52:49.425465,251
2021-12-24 14:52:49.425475,274
2021-12-24 14:52:49.695179,300
2021-12-24 14:52:49.695208,321
2021-12-24 14:52:49.695219,316
2021-12-24 14:52:49.695229,295
2021-12-24 14:52:49.695239,283
2021-12-24 14:52:49.695249,230
2021-12-24 14:52:49.695258,153
2021-12-24 14:52:49.695268,116
2021-12-24 14:52:49.695278,58
2021-12-24 14:52:49.695287,-39
2021-12-24 14:52:49.695297,-116
2021-12-24 14:52:49.695307,-176
2021-12-24 14:52:49.695317,-221
2021-12-24 14:52:49.695326,-228
2021-12-24 14:52:49.695336,-235
2021-12-24 14:52:49.695346,-251
2021-12-24 14:52:49.695355,-253
2021-12-24 14:52:49.695365,-246
2021-12-24 14:52:49.695375,-239
2021-12-24 14:52:49.695385,-258
2021-12-24 14:52:49.695394,-281
2021-12-24 14:52:49.695404,-249
2021-12-24 14:52:49.695414,-214
2021-12-24 14:52:49.695423,-223
2021-12-24 14:52:49.695433,-232
2021-12-24 14:52:49.695443,-197
2021-12-24 14:52:49.695452,-165
2021-12-24 14:52:49.695462,-172
2021-12-24 14:52:49.695471,-181
2021-12-24 14:52:49.695487,-146
2021-12-24 14:52:49.919711,-104
2021-12-24 14:52:49.919740,-90
2021-12-24 14:52:49.919752,-88
2021-12-24 14:52:49.919762,-83
2021-12-24 14:52:49.919772,-95
2021-12-24 14:52:49.919782,-109
2021-12-24 14:52:49.919792,-93
2021-12-24 14:52:49.919801,-62
2021-12-24 14:52:49.919811,-60
2021-12-24 14:52:49.919821,-83
2021-12-24 14:52:49.919831,-109
2021-12-24 14:52:49.919840,-121
2021-12-24 14:52:49.919850,-102
2021-12-24 14:52:49.919860,-72
2021-12-24 14:52:49.919869,-51
2021-12-24 14:52:49.919879,-39
2021-12-24 14:52:49.919889,-51
2021-12-24 14:52:49.919898,-60
2021-12-24 14:52:49.919908,-41
2021-12-24 14:52:49.919918,-30
2021-12-24 14:52:49.919929,-32
2021-12-24 14:52:49.919938,-27
2021-12-24 14:52:49.919948,-23
2021-12-24 14:52:49.919958,-20
2021-12-24 14:52:49.919968,-4
2021-12-24 14:52:49.919977,13
2021-12-24 14:52:49.919987,25
2021-12-24 14:52:49.919997,32
2021-12-24 14:52:49.920007,27
2021-12-24 14:52:49.920017,27
2021-12-24 14:52:50.189719,39
2021-12-24 14:52:50.189748,27
2021-12-24 14:52:50.189760,72
2021-12-24 14:52:50.189770,353
2021-12-24 14:52:50.189780,886
2021-12-24 14:52:50.189789,1203
2021-12-24 14:52:50.189799,512
2021-12-24 14:52:50.189808,-728
2021-12-24 14:52:50.189818,-865
2021-12-24 14:52:50.189828,-83
2021-12-24 14:52:50.189837,86
2021-12-24 14:52:50.189847,-116
2021-12-24 14:52:50.189857,30
2021-12-24 14:52:50.189866,137
2021-12-24 14:52:50.189876,55
2021-12-24 14:52:50.189885,46
2021-12-24 14:52:50.189895,79
2021-12-24 14:52:50.189904,83
2021-12-24 14:52:50.189914,107
2021-12-24 14:52:50.189923,132
2021-12-24 14:52:50.189933,146
2021-12-24 14:52:50.189943,151
2021-12-24 14:52:50.189952,162
2021-12-24 14:52:50.189962,195
2021-12-24 14:52:50.189971,216
2021-12-24 14:52:50.189980,211
2021-12-24 14:52:50.189990,242
2021-12-24 14:52:50.190000,286
2021-12-24 14:52:50.190009,304
2021-12-24 14:52:50.190019,316
2021-12-24 14:52:50.414138,335
2021-12-24 14:52:50.414168,349
2021-12-24 14:52:50.414179,323
2021-12-24 14:52:50.414189,242
2021-12-24 14:52:50.414199,155
2021-12-24 14:52:50.414209,97
2021-12-24 14:52:50.414218,13
2021-12-24 14:52:50.414228,-79
2021-12-24 14:52:50.414237,-155
2021-12-24 14:52:50.414246,-228
2021-12-24 14:52:50.414256,-258
2021-12-24 14:52:50.414266,-251
2021-12-24 14:52:50.414275,-258
2021-12-24 14:52:50.414284,-260
2021-12-24 14:52:50.414294,-258
2021-12-24 14:52:50.414303,-274
2021-12-24 14:52:50.414312,-269
2021-12-24 14:52:50.414322,-242
2021-12-24 14:52:50.414331,-218
2021-12-24 14:52:50.414341,-204
2021-12-24 14:52:50.414360,-214
2021-12-24 14:52:50.414370,-242
2021-12-24 14:52:50.414380,-225
2021-12-24 14:52:50.414389,-186
2021-12-24 14:52:50.414399,-169
2021-12-24 14:52:50.414408,-160
2021-12-24 14:52:50.414418,-153
2021-12-24 14:52:50.414427,-158
2021-12-24 14:52:50.414436,-144
2021-12-24 14:52:50.414446,-114
2021-12-24 14:52:50.595142,-95
2021-12-24 14:52:50.595182,-86
2021-12-24 14:52:50.595194,-90
2021-12-24 14:52:50.595204,-100
2021-12-24 14:52:50.595213,-86
2021-12-24 14:52:50.595223,-60
2021-12-24 14:52:50.595233,-48
2021-12-24 14:52:50.595242,-51
2021-12-24 14:52:50.595252,-72
2021-12-24 14:52:50.595261,-95
2021-12-24 14:52:50.595270,-97
2021-12-24 14:52:50.595280,-102
2021-12-24 14:52:50.595289,-95
2021-12-24 14:52:50.595299,-81
2021-12-24 14:52:50.595309,-104
2021-12-24 14:52:50.595318,-128
2021-12-24 14:52:50.595328,-107
2021-12-24 14:52:50.595337,-86
2021-12-24 14:52:50.595347,-81
2021-12-24 14:52:50.595356,-58
2021-12-24 14:52:50.595366,-30
2021-12-24 14:52:50.595375,-20
2021-12-24 14:52:50.595385,-6
2021-12-24 14:52:50.595394,11
2021-12-24 14:52:50.595404,18
2021-12-24 14:52:50.595413,11
2021-12-24 14:52:50.595423,0
2021-12-24 14:52:50.595432,2
2021-12-24 14:52:50.595442,16
2021-12-24 14:52:50.595452,20
2021-12-24 14:52:50.864900,-11
2021-12-24 14:52:50.864930,-48
2021-12-24 14:52:50.864941,-44
2021-12-24 14:52:50.864951,-30
2021-12-24 14:52:50.864960,-25
2021-12-24 14:52:50.864970,-11
2021-12-24 14:52:50.864980,-18
2021-12-24 14:52:50.864989,-39
2021-12-24 14:52:50.864999,88
2021-12-24 14:52:50.865009,519
2021-12-24 14:52:50.865019,1040
2021-12-24 14:52:50.865028,930
2021-12-24 14:52:50.865038,-167
2021-12-24 14:52:50.865048,-1010
2021-12-24 14:52:50.865057,-532
2021-12-24 14:52:50.865067,51
2021-12-24 14:52:50.865077,-93
2021-12-24 14:52:50.865086,-137
2021-12-24 14:52:50.865095,53
2021-12-24 14:52:50.865105,37
2021-12-24 14:52:50.865115,-11
2021-12-24 14:52:50.865124,53
2021-12-24 14:52:50.865134,79
2021-12-24 14:52:50.865143,74
2021-12-24 14:52:50.865153,104
2021-12-24 14:52:50.865162,128
2021-12-24 14:52:50.865172,137
2021-12-24 14:52:50.865181,162
2021-12-24 14:52:50.865191,197
2021-12-24 14:52:50.865201,235
2021-12-24 14:52:51.089794,265
2021-12-24 14:52:51.089815,295
2021-12-24 14:52:51.089823,332
2021-12-24 14:52:51.089829,351
2021-12-24 14:52:51.089835,365
2021-12-24 14:52:51.089842,395
2021-12-24 14:52:51.089848,404
2021-12-24 14:52:51.089854,372
2021-12-24 14:52:51.089860,337
2021-12-24 14:52:51.089866,293
2021-12-24 14:52:51.089873,218
2021-12-24 14:52:51.089879,134
2021-12-24 14:52:51.089885,46
2021-12-24 14:52:51.089891,-51
2021-12-24 14:52:51.089898,-130
2021-12-24 14:52:51.089904,-190
2021-12-24 14:52:51.089910,-218
2021-12-24 14:52:51.089916,-225
2021-12-24 14:52:51.089922,-251
2021-12-24 14:52:51.089929,-276
2021-12-24 14:52:51.089935,-265
2021-12-24 14:52:51.089941,-249
2021-12-24 14:52:51.089953,-237
2021-12-24 14:52:51.089959,-216
2021-12-24 14:52:51.089965,-204
2021-12-24 14:52:51.089971,-200
2021-12-24 14:52:51.089978,-186
2021-12-24 14:52:51.089984,-172
2021-12-24 14:52:51.089990,-162
2021-12-24 14:52:51.089996,-144
2021-12-24 14:52:51.269829,-134
2021-12-24 14:52:51.269861,-132
2021-12-24 14:52:51.269867,-118
2021-12-24 14:52:51.269872,-111
2021-12-24 14:52:51.269877,-107
2021-12-24 14:52:51.269882,-109
2021-12-24 14:52:51.269887,-132
2021-12-24 14:52:51.269892,-137
2021-12-24 14:52:51.269897,-111
2021-12-24 14:52:51.269902,-104
2021-12-24 14:52:51.269907,-97
2021-12-24 14:52:51.269912,-90
2021-12-24 14:52:51.269917,-116
2021-12-24 14:52:51.269922,-121
2021-12-24 14:52:51.269927,-90
2021-12-24 14:52:51.269932,-81
2021-12-24 14:52:51.269937,-97
2021-12-24 14:52:51.269942,-125
2021-12-24 14:52:51.269947,-148
2021-12-24 14:52:51.269952,-132
2021-12-24 14:52:51.269957,-104
2021-12-24 14:52:51.269962,-100
2021-12-24 14:52:51.269967,-88
2021-12-24 14:52:51.269972,-76
2021-12-24 14:52:51.269977,-76
2021-12-24 14:52:51.269982,-58
2021-12-24 14:52:51.269987,-37
2021-12-24 14:52:51.269992,-32
2021-12-24 14:52:51.269997,-20
2021-12-24 14:52:51.270002,-13
2021-12-24 14:52:51.494748,-13
2021-12-24 14:52:51.494778,9
2021-12-24 14:52:51.494789,25
2021-12-24 14:52:51.494799,16
2021-12-24 14:52:51.494808,11
2021-12-24 14:52:51.494818,0
2021-12-24 14:52:51.494828,-18
2021-12-24 14:52:51.494838,-4
2021-12-24 14:52:51.494847,4
2021-12-24 14:52:51.494857,0
2021-12-24 14:52:51.494866,9
2021-12-24 14:52:51.494876,18
2021-12-24 14:52:51.494886,18
2021-12-24 14:52:51.494895,37
2021-12-24 14:52:51.494905,51
2021-12-24 14:52:51.494915,46
2021-12-24 14:52:51.494924,37
2021-12-24 14:52:51.494934,27
2021-12-24 14:52:51.494944,20
2021-12-24 14:52:51.494953,9
2021-12-24 14:52:51.494963,2
2021-12-24 14:52:51.494972,11
2021-12-24 14:52:51.494982,20
2021-12-24 14:52:51.494991,18
2021-12-24 14:52:51.495001,27
2021-12-24 14:52:51.495011,48
2021-12-24 14:52:51.495020,51
2021-12-24 14:52:51.495030,25
2021-12-24 14:52:51.495040,30
2021-12-24 14:52:51.495049,197
2021-12-24 14:52:51.765977,623
2021-12-24 14:52:51.766014,1086
2021-12-24 14:52:51.766028,914
2021-12-24 14:52:51.766040,-176
2021-12-24 14:52:51.766052,-935
2021-12-24 14:52:51.766062,-435
2021-12-24 14:52:51.766074,53
2021-12-24 14:52:51.766084,-151
2021-12-24 14:52:51.766096,-174
2021-12-24 14:52:51.766107,-6
2021-12-24 14:52:51.766118,-74
2021-12-24 14:52:51.766130,-160
2021-12-24 14:52:51.766142,-123
2021-12-24 14:52:51.766154,-97
2021-12-24 14:52:51.766165,-93
2021-12-24 14:52:51.766176,-72
2021-12-24 14:52:51.766188,-58
2021-12-24 14:52:51.766200,-39
2021-12-24 14:52:51.766212,2
2021-12-24 14:52:51.766224,39
2021-12-24 14:52:51.766235,58
2021-12-24 14:52:51.766272,62
2021-12-24 14:52:51.766284,83
2021-12-24 14:52:51.766295,134
2021-12-24 14:52:51.766306,193
2021-12-24 14:52:51.766316,230
2021-12-24 14:52:51.766327,246
2021-12-24 14:52:51.766338,249
2021-12-24 14:52:51.766350,239
2021-12-24 14:52:51.766360,232
2021-12-24 14:52:51.945167,225
2021-12-24 14:52:51.945196,200
2021-12-24 14:52:51.945207,153
2021-12-24 14:52:51.945217,88
2021-12-24 14:52:51.945226,11
2021-12-24 14:52:51.945244,-34
2021-12-24 14:52:51.945253,-58
2021-12-24 14:52:51.945263,-81
2021-12-24 14:52:51.945272,-102
2021-12-24 14:52:51.945282,-123
2021-12-24 14:52:51.945291,-153
2021-12-24 14:52:51.945301,-153
2021-12-24 14:52:51.945310,-125
2021-12-24 14:52:51.945320,-109
2021-12-24 14:52:51.945329,-104
2021-12-24 14:52:51.945339,-114
2021-12-24 14:52:51.945348,-118
2021-12-24 14:52:51.945358,-90
2021-12-24 14:52:51.945367,-62
2021-12-24 14:52:51.945376,-55
2021-12-24 14:52:51.945386,-51
2021-12-24 14:52:51.945395,-53
2021-12-24 14:52:51.945405,-72
2021-12-24 14:52:51.945414,-81
2021-12-24 14:52:51.945423,-72
2021-12-24 14:52:51.945433,-55
2021-12-24 14:52:51.945443,-51
2021-12-24 14:52:51.945452,-62
2021-12-24 14:52:51.945462,-58
2021-12-24 14:52:51.945471,-27
2021-12-24 14:52:52.259114,-11
2021-12-24 14:52:52.259144,-13
2021-12-24 14:52:52.259156,-20
2021-12-24 14:52:52.259166,-41
2021-12-24 14:52:52.259175,-53
2021-12-24 14:52:52.259185,-30
2021-12-24 14:52:52.259195,-6
2021-12-24 14:52:52.259204,-2
2021-12-24 14:52:52.259214,-9
2021-12-24 14:52:52.259224,-30
2021-12-24 14:52:52.259233,-32
2021-12-24 14:52:52.259243,-2
2021-12-24 14:52:52.259253,18
2021-12-24 14:52:52.259262,18
2021-12-24 14:52:52.259272,13
2021-12-24 14:52:52.259282,11
2021-12-24 14:52:52.259291,13
2021-12-24 14:52:52.259301,4
2021-12-24 14:52:52.259311,-25
2021-12-24 14:52:52.259320,-32
2021-12-24 14:52:52.259330,-32
2021-12-24 14:52:52.259340,-55
2021-12-24 14:52:52.259349,-51
2021-12-24 14:52:52.259359,-25
2021-12-24 14:52:52.259368,-23
2021-12-24 14:52:52.259378,-34
2021-12-24 14:52:52.259387,-44
2021-12-24 14:52:52.259397,-69
2021-12-24 14:52:52.259407,-95
2021-12-24 14:52:52.259416,-97
2021-12-24 14:52:52.483856,-102
2021-12-24 14:52:52.483886,-118
2021-12-24 14:52:52.483898,-130
2021-12-24 14:52:52.483908,-130
2021-12-24 14:52:52.483918,-128
2021-12-24 14:52:52.483927,-111
2021-12-24 14:52:52.483937,-90
2021-12-24 14:52:52.483946,-86
2021-12-24 14:52:52.483956,-111
2021-12-24 14:52:52.483965,-144
2021-12-24 14:52:52.483975,-146
2021-12-24 14:52:52.483984,-81
2021-12-24 14:52:52.483994,181
2021-12-24 14:52:52.484004,658
2021-12-24 14:52:52.484013,944
2021-12-24 14:52:52.484023,384
2021-12-24 14:52:52.484032,-714
2021-12-24 14:52:52.484042,-919
2021-12-24 14:52:52.484052,-202
2021-12-24 14:52:52.484061,30
2021-12-24 14:52:52.484071,-176
2021-12-24 14:52:52.484080,-74
2021-12-24 14:52:52.484090,44
2021-12-24 14:52:52.484099,-18
2021-12-24 14:52:52.484109,9
2021-12-24 14:52:52.484119,76
2021-12-24 14:52:52.484128,41
2021-12-24 14:52:52.484137,16
2021-12-24 14:52:52.484147,55
2021-12-24 14:52:52.484156,86
2021-12-24 14:52:52.665198,107
2021-12-24 14:52:52.665219,132
2021-12-24 14:52:52.665226,148
2021-12-24 14:52:52.665233,172
2021-12-24 14:52:52.665239,216
2021-12-24 14:52:52.665246,263
2021-12-24 14:52:52.665252,302
2021-12-24 14:52:52.665258,316
2021-12-24 14:52:52.665264,309
2021-12-24 14:52:52.665271,318
2021-12-24 14:52:52.665277,339
2021-12-24 14:52:52.665283,344
2021-12-24 14:52:52.665289,321
2021-12-24 14:52:52.665296,263
2021-12-24 14:52:52.665302,193
2021-12-24 14:52:52.665308,134
2021-12-24 14:52:52.665314,90
2021-12-24 14:52:52.665320,41
2021-12-24 14:52:52.665327,-2
2021-12-24 14:52:52.665333,-34
2021-12-24 14:52:52.665339,-58
2021-12-24 14:52:52.665346,-74
2021-12-24 14:52:52.665352,-83
2021-12-24 14:52:52.665358,-109
2021-12-24 14:52:52.665364,-144
2021-12-24 14:52:52.665371,-146
2021-12-24 14:52:52.665377,-123
2021-12-24 14:52:52.665383,-114
2021-12-24 14:52:52.665389,-116
2021-12-24 14:52:52.665395,-118
2021-12-24 14:52:52.889721,-121
2021-12-24 14:52:52.889757,-109
2021-12-24 14:52:52.889769,-88
2021-12-24 14:52:52.889779,-79
2021-12-24 14:52:52.889788,-72
2021-12-24 14:52:52.889798,-55
2021-12-24 14:52:52.889807,-62
2021-12-24 14:52:52.889817,-93
2021-12-24 14:52:52.889826,-90
2021-12-24 14:52:52.889836,-65
2021-12-24 14:52:52.889846,-53
2021-12-24 14:52:52.889855,-46
2021-12-24 14:52:52.889864,-58
2021-12-24 14:52:52.889874,-79
2021-12-24 14:52:52.889883,-69
2021-12-24 14:52:52.889893,-55
2021-12-24 14:52:52.889902,-65
2021-12-24 14:52:52.889912,-76
2021-12-24 14:52:52.889921,-67
2021-12-24 14:52:52.889930,-48
2021-12-24 14:52:52.889940,-34
2021-12-24 14:52:52.889951,-34
2021-12-24 14:52:52.889960,-32
2021-12-24 14:52:52.889970,-23
2021-12-24 14:52:52.889979,-30
2021-12-24 14:52:52.889988,-32
2021-12-24 14:52:52.889998,-20
2021-12-24 14:52:52.890007,-9
2021-12-24 14:52:52.890017,6
2021-12-24 14:52:52.890026,20
2021-12-24 14:52:53.115112,25
2021-12-24 14:52:53.115142,6
2021-12-24 14:52:53.115154,-13
2021-12-24 14:52:53.115164,-18
2021-12-24 14:52:53.115174,-9
2021-12-24 14:52:53.115183,-13
2021-12-24 14:52:53.115193,-27
2021-12-24 14:52:53.115202,-13
2021-12-24 14:52:53.115212,11
2021-12-24 14:52:53.115222,6
2021-12-24 14:52:53.115231,2
2021-12-24 14:52:53.115241,-4
2021-12-24 14:52:53.115251,-39
2021-12-24 14:52:53.115260,-46
2021-12-24 14:52:53.115270,-18
2021-12-24 14:52:53.115279,-13
2021-12-24 14:52:53.115289,-18
2021-12-24 14:52:53.115299,-4
2021-12-24 14:52:53.115309,2
2021-12-24 14:52:53.115318,13
2021-12-24 14:52:53.115328,34
2021-12-24 14:52:53.115337,32
2021-12-24 14:52:53.115347,13
2021-12-24 14:52:53.115356,6
2021-12-24 14:52:53.115366,69
2021-12-24 14:52:53.115376,346
2021-12-24 14:52:53.115385,814
2021-12-24 14:52:53.115395,1047
2021-12-24 14:52:53.115405,460
2021-12-24 14:52:53.115414,-574
2021-12-24 14:52:53.384380,-702
2021-12-24 14:52:53.384400,-16
2021-12-24 14:52:53.384407,123
2021-12-24 14:52:53.384414,-111
2021-12-24 14:52:53.384421,-18
2021-12-24 14:52:53.384427,62
2021-12-24 14:52:53.384434,-18
2021-12-24 14:52:53.384440,4
2021-12-24 14:52:53.384446,72
2021-12-24 14:52:53.384453,62
2021-12-24 14:52:53.384459,60
2021-12-24 14:52:53.384465,72
2021-12-24 14:52:53.384472,72
2021-12-24 14:52:53.384478,107
2021-12-24 14:52:53.384484,151
2021-12-24 14:52:53.384490,162
2021-12-24 14:52:53.384497,181
2021-12-24 14:52:53.384503,225
2021-12-24 14:52:53.384509,272
2021-12-24 14:52:53.384516,314
2021-12-24 14:52:53.384522,349
2021-12-24 14:52:53.384528,370
2021-12-24 14:52:53.384535,381
2021-12-24 14:52:53.384541,379
2021-12-24 14:52:53.384547,367
2021-12-24 14:52:53.384554,365
2021-12-24 14:52:53.384560,353
2021-12-24 14:52:53.384566,300
2021-12-24 14:52:53.384573,232
2021-12-24 14:52:53.384579,190
2021-12-24 14:52:53.609524,162
2021-12-24 14:52:53.609546,123
2021-12-24 14:52:53.609553,86
2021-12-24 14:52:53.609560,65
2021-12-24 14:52:53.609566,39
2021-12-24 14:52:53.609572,4
2021-12-24 14:52:53.609579,-2
2021-12-24 14:52:53.609585,18
2021-12-24 14:52:53.609591,23
2021-12-24 14:52:53.609597,-4
2021-12-24 14:52:53.609603,-39
2021-12-24 14:52:53.609610,-65
2021-12-24 14:52:53.609616,-58
2021-12-24 14:52:53.609622,-48
2021-12-24 14:52:53.609628,-76
2021-12-24 14:52:53.609634,-109
2021-12-24 14:52:53.609641,-130
2021-12-24 14:52:53.609647,-167
2021-12-24 14:52:53.609653,-195
2021-12-24 14:52:53.609659,-181
2021-12-24 14:52:53.609666,-162
2021-12-24 14:52:53.609672,-174
2021-12-24 14:52:53.609678,-181
2021-12-24 14:52:53.609684,-162
2021-12-24 14:52:53.609690,-146
2021-12-24 14:52:53.609696,-134
2021-12-24 14:52:53.609702,-125
2021-12-24 14:52:53.609709,-134
2021-12-24 14:52:53.609715,-144
2021-12-24 14:52:53.609721,-125
2021-12-24 14:52:53.834695,-102
2021-12-24 14:52:53.834724,-95
2021-12-24 14:52:53.834736,-90
2021-12-24 14:52:53.834746,-97
2021-12-24 14:52:53.834756,-111
2021-12-24 14:52:53.834765,-123
2021-12-24 14:52:53.834775,-155
2021-12-24 14:52:53.834784,-188
2021-12-24 14:52:53.834794,-195
2021-12-24 14:52:53.834803,-209
2021-12-24 14:52:53.834813,-235
2021-12-24 14:52:53.834829,-204
2021-12-24 14:52:53.834838,-134
2021-12-24 14:52:53.834848,-104
2021-12-24 14:52:53.834857,-107
2021-12-24 14:52:53.834867,-114
2021-12-24 14:52:53.834876,-116
2021-12-24 14:52:53.834886,-109
2021-12-24 14:52:53.834895,-95
2021-12-24 14:52:53.834905,-74
2021-12-24 14:52:53.834915,-55
2021-12-24 14:52:53.834924,-58
2021-12-24 14:52:53.834934,-55
2021-12-24 14:52:53.834943,-25
2021-12-24 14:52:53.834952,4
2021-12-24 14:52:53.834962,13
2021-12-24 14:52:53.834971,11
2021-12-24 14:52:53.834981,-4
2021-12-24 14:52:53.834990,-18
2021-12-24 14:52:53.835000,55
2021-12-24 14:52:54.058988,307
2021-12-24 14:52:54.059005,714
2021-12-24 14:52:54.059011,914
2021-12-24 14:52:54.059016,335
2021-12-24 14:52:54.059021,-630
2021-12-24 14:52:54.059026,-679
2021-12-24 14:52:54.059031,2
2021-12-24 14:52:54.059036,146
2021-12-24 14:52:54.059041,-46
2021-12-24 14:52:54.059046,46
2021-12-24 14:52:54.059051,123
2021-12-24 14:52:54.059056,72
2021-12-24 14:52:54.059061,97
2021-12-24 14:52:54.059066,151
2021-12-24 14:52:54.059071,144
2021-12-24 14:52:54.059076,118
2021-12-24 14:52:54.059081,132
2021-12-24 14:52:54.059086,174
2021-12-24 14:52:54.059091,211
2021-12-24 14:52:54.059096,244
2021-12-24 14:52:54.059101,260
2021-12-24 14:52:54.059106,265
2021-12-24 14:52:54.059110,300
2021-12-24 14:52:54.059115,365
2021-12-24 14:52:54.059120,404
2021-12-24 14:52:54.059125,428
2021-12-24 14:52:54.059130,446
2021-12-24 14:52:54.059135,444
2021-12-24 14:52:54.059140,442
2021-12-24 14:52:54.059145,444
2021-12-24 14:52:54.330205,428
2021-12-24 14:52:54.330234,388
2021-12-24 14:52:54.330246,325
2021-12-24 14:52:54.330256,244
2021-12-24 14:52:54.330266,176
2021-12-24 14:52:54.330275,139
2021-12-24 14:52:54.330285,100
2021-12-24 14:52:54.330294,32
2021-12-24 14:52:54.330304,-48
2021-12-24 14:52:54.330314,-95
2021-12-24 14:52:54.330324,-100
2021-12-24 14:52:54.330333,-123
2021-12-24 14:52:54.330343,-179
2021-12-24 14:52:54.330352,-207
2021-12-24 14:52:54.330362,-237
2021-12-24 14:52:54.330371,-272
2021-12-24 14:52:54.330381,-249
2021-12-24 14:52:54.330390,-216
2021-12-24 14:52:54.330400,-218
2021-12-24 14:52:54.330409,-216
2021-12-24 14:52:54.330419,-207
2021-12-24 14:52:54.330428,-204
2021-12-24 14:52:54.330437,-193
2021-12-24 14:52:54.330447,-174
2021-12-24 14:52:54.330456,-158
2021-12-24 14:52:54.330466,-151
2021-12-24 14:52:54.330475,-155
2021-12-24 14:52:54.330485,-153
2021-12-24 14:52:54.330494,-137
2021-12-24 14:52:54.330503,-118
2021-12-24 14:52:54.553841,-100
2021-12-24 14:52:54.553871,-97
2021-12-24 14:52:54.553882,-111
2021-12-24 14:52:54.553892,-111
2021-12-24 14:52:54.553901,-86
2021-12-24 14:52:54.553911,-69
2021-12-24 14:52:54.553921,-72
2021-12-24 14:52:54.553930,-88
2021-12-24 14:52:54.553940,-102
2021-12-24 14:52:54.553949,-95
2021-12-24 14:52:54.553958,-81
2021-12-24 14:52:54.553968,-74
2021-12-24 14:52:54.553977,-72
2021-12-24 14:52:54.553987,-69
2021-12-24 14:52:54.553997,-58
2021-12-24 14:52:54.554006,-32
2021-12-24 14:52:54.554016,-23
2021-12-24 14:52:54.554025,-11
2021-12-24 14:52:54.554035,6
2021-12-24 14:52:54.554045,-20
2021-12-24 14:52:54.554054,-62
2021-12-24 14:52:54.554064,-51
2021-12-24 14:52:54.554073,-20
2021-12-24 14:52:54.554082,-9
2021-12-24 14:52:54.554092,-6
2021-12-24 14:52:54.554101,-2
2021-12-24 14:52:54.554111,-2
2021-12-24 14:52:54.554120,6
2021-12-24 14:52:54.554130,20
2021-12-24 14:52:54.554140,25
2021-12-24 14:52:54.734919,23
2021-12-24 14:52:54.734950,69
2021-12-24 14:52:54.734962,276
2021-12-24 14:52:54.734972,640
2021-12-24 14:52:54.734982,833
2021-12-24 14:52:54.734992,351
2021-12-24 14:52:54.735002,-535
2021-12-24 14:52:54.735011,-663
2021-12-24 14:52:54.735021,-41
2021-12-24 14:52:54.735030,139
2021-12-24 14:52:54.735040,-41
2021-12-24 14:52:54.735049,58
2021-12-24 14:52:54.735059,139
2021-12-24 14:52:54.735068,51
2021-12-24 14:52:54.735078,48
2021-12-24 14:52:54.735087,81
2021-12-24 14:52:54.735097,27
2021-12-24 14:52:54.735106,-6
2021-12-24 14:52:54.735116,18
2021-12-24 14:52:54.735125,46
2021-12-24 14:52:54.735135,60
2021-12-24 14:52:54.735144,83
2021-12-24 14:52:54.735154,118
2021-12-24 14:52:54.735163,158
2021-12-24 14:52:54.735173,190
2021-12-24 14:52:54.735182,223
2021-12-24 14:52:54.735192,260
2021-12-24 14:52:54.735201,295
2021-12-24 14:52:54.735211,325
2021-12-24 14:52:54.735220,349
2021-12-24 14:52:55.050182,346
2021-12-24 14:52:55.050211,332
2021-12-24 14:52:55.050223,323
2021-12-24 14:52:55.050234,288
2021-12-24 14:52:55.050244,228
2021-12-24 14:52:55.050253,162
2021-12-24 14:52:55.050263,79
2021-12-24 14:52:55.050273,9
2021-12-24 14:52:55.050292,-23
2021-12-24 14:52:55.050302,-58
2021-12-24 14:52:55.050312,-81
2021-12-24 14:52:55.050322,-90
2021-12-24 14:52:55.050332,-132
2021-12-24 14:52:55.050341,-169
2021-12-24 14:52:55.050351,-162
2021-12-24 14:52:55.050361,-153
2021-12-24 14:52:55.050371,-155
2021-12-24 14:52:55.050380,-165
2021-12-24 14:52:55.050390,-183
2021-12-24 14:52:55.050400,-181
2021-12-24 14:52:55.050410,-183
2021-12-24 14:52:55.050420,-207
2021-12-24 14:52:55.050430,-197
2021-12-24 14:52:55.050439,-179
2021-12-24 14:52:55.050449,-186
2021-12-24 14:52:55.050459,-172
2021-12-24 14:52:55.050468,-151
2021-12-24 14:52:55.050478,-151
2021-12-24 14:52:55.050488,-146
2021-12-24 14:52:55.050498,-141
2021-12-24 14:52:55.185156,-139
2021-12-24 14:52:55.185185,-125
2021-12-24 14:52:55.185197,-114
2021-12-24 14:52:55.185206,-118
2021-12-24 14:52:55.185216,-116
2021-12-24 14:52:55.185225,-102
2021-12-24 14:52:55.185235,-86
2021-12-24 14:52:55.185244,-72
2021-12-24 14:52:55.185254,-58
2021-12-24 14:52:55.185264,-62
2021-12-24 14:52:55.185273,-76
2021-12-24 14:52:55.185283,-88
2021-12-24 14:52:55.185292,-81
2021-12-24 14:52:55.185302,-44
2021-12-24 14:52:55.185311,-6
2021-12-24 14:52:55.185321,2
2021-12-24 14:52:55.185330,-9
2021-12-24 14:52:55.185340,-32
2021-12-24 14:52:55.185350,-48
2021-12-24 14:52:55.185359,-62
2021-12-24 14:52:55.185369,-79
2021-12-24 14:52:55.185378,-102
2021-12-24 14:52:55.185388,-151
2021-12-24 14:52:55.185398,-174
2021-12-24 14:52:55.185407,-146
2021-12-24 14:52:55.185417,-125
2021-12-24 14:52:55.185427,-121
2021-12-24 14:52:55.185436,-114
2021-12-24 14:52:55.185446,-107
2021-12-24 14:52:55.185455,-100
2021-12-24 14:52:55.409718,-81
2021-12-24 14:52:55.409747,16
2021-12-24 14:52:55.409759,286
2021-12-24 14:52:55.409770,626
2021-12-24 14:52:55.409779,574
2021-12-24 14:52:55.409789,-162
2021-12-24 14:52:55.409798,-800
2021-12-24 14:52:55.409808,-465
2021-12-24 14:52:55.409818,69
2021-12-24 14:52:55.409828,-6
2021-12-24 14:52:55.409837,-116
2021-12-24 14:52:55.409847,16
2021-12-24 14:52:55.409857,39
2021-12-24 14:52:55.409866,0
2021-12-24 14:52:55.409876,55
2021-12-24 14:52:55.409886,88
2021-12-24 14:52:55.409895,65
2021-12-24 14:52:55.409905,86
2021-12-24 14:52:55.409914,132
2021-12-24 14:52:55.409924,153
2021-12-24 14:52:55.409933,169
2021-12-24 14:52:55.409943,169
2021-12-24 14:52:55.409952,160
2021-12-24 14:52:55.409962,195
2021-12-24 14:52:55.409971,251
2021-12-24 14:52:55.409981,283
2021-12-24 14:52:55.409991,316
2021-12-24 14:52:55.410000,346
2021-12-24 14:52:55.410010,356
2021-12-24 14:52:55.410019,363
2021-12-24 14:52:55.679533,372
2021-12-24 14:52:55.679553,360
2021-12-24 14:52:55.679560,330
2021-12-24 14:52:55.679567,276
2021-12-24 14:52:55.679573,186
2021-12-24 14:52:55.679579,116
2021-12-24 14:52:55.679586,83
2021-12-24 14:52:55.679592,41
2021-12-24 14:52:55.679598,-4
2021-12-24 14:52:55.679604,-55
2021-12-24 14:52:55.679610,-100
2021-12-24 14:52:55.679616,-104
2021-12-24 14:52:55.679623,-86
2021-12-24 14:52:55.679629,-76
2021-12-24 14:52:55.679635,-74
2021-12-24 14:52:55.679641,-76
2021-12-24 14:52:55.679647,-69
2021-12-24 14:52:55.679653,-48
2021-12-24 14:52:55.679659,-30
2021-12-24 14:52:55.679665,-27
2021-12-24 14:52:55.679672,-27
2021-12-24 14:52:55.679678,-27
2021-12-24 14:52:55.679684,-30
2021-12-24 14:52:55.679690,-34
2021-12-24 14:52:55.679696,-46
2021-12-24 14:52:55.679702,-44
2021-12-24 14:52:55.679708,-39
2021-12-24 14:52:55.679714,-74
2021-12-24 14:52:55.679720,-97
2021-12-24 14:52:55.679727,-72
2021-12-24 14:52:55.904770,-58
2021-12-24 14:52:55.904799,-58
2021-12-24 14:52:55.904810,-51
2021-12-24 14:52:55.904820,-74
2021-12-24 14:52:55.904830,-107
2021-12-24 14:52:55.904839,-86
2021-12-24 14:52:55.904849,-62
2021-12-24 14:52:55.904858,-69
2021-12-24 14:52:55.904868,-93
2021-12-24 14:52:55.904877,-128
2021-12-24 14:52:55.904887,-141
2021-12-24 14:52:55.904896,-114
2021-12-24 14:52:55.904906,-90
2021-12-24 14:52:55.904915,-79
2021-12-24 14:52:55.904925,-86
2021-12-24 14:52:55.904934,-123
2021-12-24 14:52:55.904944,-146
2021-12-24 14:52:55.904953,-121
2021-12-24 14:52:55.904963,-93
2021-12-24 14:52:55.904972,-88
2021-12-24 14:52:55.904982,-100
2021-12-24 14:52:55.904991,-104
2021-12-24 14:52:55.905001,-90
2021-12-24 14:52:55.905011,-72
2021-12-24 14:52:55.905020,-60
2021-12-24 14:52:55.905030,-65
2021-12-24 14:52:55.905040,-93
2021-12-24 14:52:55.905049,-104
2021-12-24 14:52:55.905059,-65
2021-12-24 14:52:55.905068,48
2021-12-24 14:52:56.129681,293
2021-12-24 14:52:56.129698,598
2021-12-24 14:52:56.129705,521
2021-12-24 14:52:56.129710,-214
2021-12-24 14:52:56.129715,-765
2021-12-24 14:52:56.129721,-367
2021-12-24 14:52:56.129726,118
2021-12-24 14:52:56.129731,13
2021-12-24 14:52:56.129736,-76
2021-12-24 14:52:56.129742,37
2021-12-24 14:52:56.129747,48
2021-12-24 14:52:56.129752,32
2021-12-24 14:52:56.129757,83
2021-12-24 14:52:56.129762,102
2021-12-24 14:52:56.129767,72
2021-12-24 14:52:56.129772,67
2021-12-24 14:52:56.129777,102
2021-12-24 14:52:56.129783,132
2021-12-24 14:52:56.129788,153
2021-12-24 14:52:56.129793,183
2021-12-24 14:52:56.129798,204
2021-12-24 14:52:56.129804,221
2021-12-24 14:52:56.129809,263
2021-12-24 14:52:56.129820,314
2021-12-24 14:52:56.129825,351
2021-12-24 14:52:56.129830,367
2021-12-24 14:52:56.129836,370
2021-12-24 14:52:56.129841,351
2021-12-24 14:52:56.129846,323
2021-12-24 14:52:56.129851,316
2021-12-24 14:52:56.355128,304
2021-12-24 14:52:56.355158,260
2021-12-24 14:52:56.355169,190
2021-12-24 14:52:56.355179,97
2021-12-24 14:52:56.355189,-2
2021-12-24 14:52:56.355198,-48
2021-12-24 14:52:56.355207,-60
2021-12-24 14:52:56.355217,-111
2021-12-24 14:52:56.355226,-169
2021-12-24 14:52:56.355236,-176
2021-12-24 14:52:56.355245,-162
2021-12-24 14:52:56.355254,-153
2021-12-24 14:52:56.355264,-141
2021-12-24 14:52:56.355273,-146
2021-12-24 14:52:56.355283,-165
2021-12-24 14:52:56.355292,-151
2021-12-24 14:52:56.355301,-121
2021-12-24 14:52:56.355311,-104
2021-12-24 14:52:56.355320,-97
2021-12-24 14:52:56.355330,-90
2021-12-24 14:52:56.355339,-79
2021-12-24 14:52:56.355349,-79
2021-12-24 14:52:56.355358,-76
2021-12-24 14:52:56.355368,-55
2021-12-24 14:52:56.355377,-41
2021-12-24 14:52:56.355386,-48
2021-12-24 14:52:56.355396,-55
2021-12-24 14:52:56.355405,-39
2021-12-24 14:52:56.355415,-25
2021-12-24 14:52:56.355424,-34
2021-12-24 14:52:56.623339,-55
2021-12-24 14:52:56.623368,-55
2021-12-24 14:52:56.623380,-48
2021-12-24 14:52:56.623390,-53
2021-12-24 14:52:56.623400,-53
2021-12-24 14:52:56.623409,-39
2021-12-24 14:52:56.623419,-32
2021-12-24 14:52:56.623428,-37
2021-12-24 14:52:56.623438,-25
2021-12-24 14:52:56.623447,-6
2021-12-24 14:52:56.623457,0
2021-12-24 14:52:56.623466,0
2021-12-24 14:52:56.623476,-30
2021-12-24 14:52:56.623486,-55
2021-12-24 14:52:56.623495,-44
2021-12-24 14:52:56.623505,-25
2021-12-24 14:52:56.623514,-30
2021-12-24 14:52:56.623524,-44
2021-12-24 14:52:56.623533,-53
2021-12-24 14:52:56.623543,-55
2021-12-24 14:52:56.623552,-53
2021-12-24 14:52:56.623562,-55
2021-12-24 14:52:56.623571,-65
2021-12-24 14:52:56.623580,-86
2021-12-24 14:52:56.623590,-88
2021-12-24 14:52:56.623599,86
2021-12-24 14:52:56.623609,491
2021-12-24 14:52:56.623619,735
2021-12-24 14:52:56.623628,207
2021-12-24 14:52:56.623638,-758
2021-12-24 14:52:56.850367,-889
2021-12-24 14:52:56.850397,-232
2021-12-24 14:52:56.850409,-20
2021-12-24 14:52:56.850419,-190
2021-12-24 14:52:56.850428,-88
2021-12-24 14:52:56.850438,18
2021-12-24 14:52:56.850447,-67
2021-12-24 14:52:56.850457,-74
2021-12-24 14:52:56.850466,-4
2021-12-24 14:52:56.850476,-18
2021-12-24 14:52:56.850485,-65
2021-12-24 14:52:56.850495,-67
2021-12-24 14:52:56.850504,-55
2021-12-24 14:52:56.850514,-37
2021-12-24 14:52:56.850523,2
2021-12-24 14:52:56.850533,37
2021-12-24 14:52:56.850542,65
2021-12-24 14:52:56.850552,107
2021-12-24 14:52:56.850562,151
2021-12-24 14:52:56.850571,197
2021-12-24 14:52:56.850581,242
2021-12-24 14:52:56.850590,260
2021-12-24 14:52:56.850600,267
2021-12-24 14:52:56.850609,274
2021-12-24 14:52:56.850619,265
2021-12-24 14:52:56.850628,246
2021-12-24 14:52:56.850638,216
2021-12-24 14:52:56.850647,158
2021-12-24 14:52:56.850657,97
2021-12-24 14:52:56.850667,44
2021-12-24 14:52:57.119781,-9
2021-12-24 14:52:57.119810,-44
2021-12-24 14:52:57.119822,-67
2021-12-24 14:52:57.119832,-111
2021-12-24 14:52:57.119841,-165
2021-12-24 14:52:57.119851,-186
2021-12-24 14:52:57.119860,-183
2021-12-24 14:52:57.119869,-165
2021-12-24 14:52:57.119879,-139
2021-12-24 14:52:57.119888,-132
2021-12-24 14:52:57.119898,-130
2021-12-24 14:52:57.119907,-128
2021-12-24 14:52:57.119917,-118
2021-12-24 14:52:57.119926,-95
2021-12-24 14:52:57.119935,-79
2021-12-24 14:52:57.119945,-83
2021-12-24 14:52:57.119954,-83
2021-12-24 14:52:57.119964,-90
2021-12-24 14:52:57.119973,-97
2021-12-24 14:52:57.119983,-81
2021-12-24 14:52:57.119992,-62
2021-12-24 14:52:57.120001,-58
2021-12-24 14:52:57.120011,-55
2021-12-24 14:52:57.120020,-51
2021-12-24 14:52:57.120030,-46
2021-12-24 14:52:57.120039,-37
2021-12-24 14:52:57.120048,-41
2021-12-24 14:52:57.120058,-51
2021-12-24 14:52:57.120067,-34
2021-12-24 14:52:57.120077,-2
2021-12-24 14:52:57.300186,20
2021-12-24 14:52:57.300215,30
2021-12-24 14:52:57.300227,39
2021-12-24 14:52:57.300237,41
2021-12-24 14:52:57.300247,39
2021-12-24 14:52:57.300256,20
2021-12-24 14:52:57.300266,0
2021-12-24 14:52:57.300276,11
2021-12-24 14:52:57.300285,32
2021-12-24 14:52:57.300295,23
2021-12-24 14:52:57.300304,-9
2021-12-24 14:52:57.300314,-20
2021-12-24 14:52:57.300324,4
2021-12-24 14:52:57.300333,23
2021-12-24 14:52:57.300343,18
2021-12-24 14:52:57.300352,-4
2021-12-24 14:52:57.300362,-18
2021-12-24 14:52:57.300372,118
2021-12-24 14:52:57.300381,493
2021-12-24 14:52:57.300391,837
2021-12-24 14:52:57.300401,535
2021-12-24 14:52:57.300411,-432
2021-12-24 14:52:57.300420,-851
2021-12-24 14:52:57.300430,-249
2021-12-24 14:52:57.300440,125
2021-12-24 14:52:57.300449,-58
2021-12-24 14:52:57.300459,-32
2021-12-24 14:52:57.300469,107
2021-12-24 14:52:57.300478,46
2021-12-24 14:52:57.300488,6
2021-12-24 14:52:57.525190,55
2021-12-24 14:52:57.525220,72
2021-12-24 14:52:57.525232,74
2021-12-24 14:52:57.525242,76
2021-12-24 14:52:57.525252,55
2021-12-24 14:52:57.525262,55
2021-12-24 14:52:57.525272,81
2021-12-24 14:52:57.525281,76
2021-12-24 14:52:57.525291,62
2021-12-24 14:52:57.525301,69
2021-12-24 14:52:57.525310,88
2021-12-24 14:52:57.525320,125
2021-12-24 14:52:57.525329,172
2021-12-24 14:52:57.525340,211
2021-12-24 14:52:57.525350,225
2021-12-24 14:52:57.525360,202
2021-12-24 14:52:57.525370,167
2021-12-24 14:52:57.525380,151
2021-12-24 14:52:57.525389,130
2021-12-24 14:52:57.525399,76
2021-12-24 14:52:57.525409,11
2021-12-24 14:52:57.525419,-60
2021-12-24 14:52:57.525428,-128
2021-12-24 14:52:57.525438,-162
2021-12-24 14:52:57.525448,-174
2021-12-24 14:52:57.525457,-181
2021-12-24 14:52:57.525467,-195
2021-12-24 14:52:57.525477,-214
2021-12-24 14:52:57.525487,-204
2021-12-24 14:52:57.525505,-176
2021-12-24 14:52:57.795184,-162
2021-12-24 14:52:57.795214,-144
2021-12-24 14:52:57.795225,-134
2021-12-24 14:52:57.795235,-169
2021-12-24 14:52:57.795244,-190
2021-12-24 14:52:57.795254,-151
2021-12-24 14:52:57.795263,-114
2021-12-24 14:52:57.795273,-109
2021-12-24 14:52:57.795282,-104
2021-12-24 14:52:57.795292,-107
2021-12-24 14:52:57.795302,-116
2021-12-24 14:52:57.795311,-111
2021-12-24 14:52:57.795321,-93
2021-12-24 14:52:57.795330,-69
2021-12-24 14:52:57.795340,-69
2021-12-24 14:52:57.795349,-100
2021-12-24 14:52:57.795359,-107
2021-12-24 14:52:57.795368,-79
2021-12-24 14:52:57.795378,-76
2021-12-24 14:52:57.795387,-81
2021-12-24 14:52:57.795396,-60
2021-12-24 14:52:57.795406,-44
2021-12-24 14:52:57.795415,-62
2021-12-24 14:52:57.795425,-79
2021-12-24 14:52:57.795434,-65
2021-12-24 14:52:57.795443,-48
2021-12-24 14:52:57.795453,-72
2021-12-24 14:52:57.795462,-90
2021-12-24 14:52:57.795472,-67
2021-12-24 14:52:57.795481,-37
2021-12-24 14:52:58.019752,-18
2021-12-24 14:52:58.019782,-6
2021-12-24 14:52:58.019794,-16
2021-12-24 14:52:58.019803,-32
2021-12-24 14:52:58.019813,-13
2021-12-24 14:52:58.019823,20
2021-12-24 14:52:58.019832,32
2021-12-24 14:52:58.019842,13
2021-12-24 14:52:58.019852,2
2021-12-24 14:52:58.019861,139
2021-12-24 14:52:58.019871,502
2021-12-24 14:52:58.019880,807
2021-12-24 14:52:58.019890,481
2021-12-24 14:52:58.019900,-453
2021-12-24 14:52:58.019909,-847
2021-12-24 14:52:58.019919,-256
2021-12-24 14:52:58.019929,121
2021-12-24 14:52:58.019938,-58
2021-12-24 14:52:58.019948,-27
2021-12-24 14:52:58.019957,109
2021-12-24 14:52:58.019967,32
2021-12-24 14:52:58.019977,-6
2021-12-24 14:52:58.019986,72
2021-12-24 14:52:58.019996,102
2021-12-24 14:52:58.020006,95
2021-12-24 14:52:58.020015,118
2021-12-24 14:52:58.020025,137
2021-12-24 14:52:58.020034,148
2021-12-24 14:52:58.020044,179
2021-12-24 14:52:58.020053,218
2021-12-24 14:52:58.199834,242
2021-12-24 14:52:58.199856,272
2021-12-24 14:52:58.199864,307
2021-12-24 14:52:58.199870,330
2021-12-24 14:52:58.199877,346
2021-12-24 14:52:58.199883,363
2021-12-24 14:52:58.199889,374
2021-12-24 14:52:58.199896,356
2021-12-24 14:52:58.199902,307
2021-12-24 14:52:58.199908,256
2021-12-24 14:52:58.199914,207
2021-12-24 14:52:58.199920,134
2021-12-24 14:52:58.199927,44
2021-12-24 14:52:58.199933,-44
2021-12-24 14:52:58.199939,-118
2021-12-24 14:52:58.199946,-176
2021-12-24 14:52:58.199952,-202
2021-12-24 14:52:58.199959,-207
2021-12-24 14:52:58.199965,-214
2021-12-24 14:52:58.199971,-249
2021-12-24 14:52:58.199978,-274
2021-12-24 14:52:58.199984,-260
2021-12-24 14:52:58.199990,-237
2021-12-24 14:52:58.199996,-218
2021-12-24 14:52:58.200003,-202
2021-12-24 14:52:58.200009,-193
2021-12-24 14:52:58.200015,-190
2021-12-24 14:52:58.200021,-202
2021-12-24 14:52:58.200028,-235
2021-12-24 14:52:58.200034,-253
2021-12-24 14:52:58.425377,-223
2021-12-24 14:52:58.425407,-200
2021-12-24 14:52:58.425418,-204
2021-12-24 14:52:58.425428,-190
2021-12-24 14:52:58.425438,-167
2021-12-24 14:52:58.425447,-158
2021-12-24 14:52:58.425457,-165
2021-12-24 14:52:58.425466,-181
2021-12-24 14:52:58.425476,-176
2021-12-24 14:52:58.425485,-158
2021-12-24 14:52:58.425495,-139
2021-12-24 14:52:58.425504,-123
2021-12-24 14:52:58.425514,-130
2021-12-24 14:52:58.425524,-148
2021-12-24 14:52:58.425533,-139
2021-12-24 14:52:58.425543,-137
2021-12-24 14:52:58.425552,-162
2021-12-24 14:52:58.425562,-160
2021-12-24 14:52:58.425571,-144
2021-12-24 14:52:58.425581,-144
2021-12-24 14:52:58.425591,-128
2021-12-24 14:52:58.425600,-81
2021-12-24 14:52:58.425610,-51
2021-12-24 14:52:58.425619,-39
2021-12-24 14:52:58.425629,-39
2021-12-24 14:52:58.425638,-34
2021-12-24 14:52:58.425648,-27
2021-12-24 14:52:58.425657,-30
2021-12-24 14:52:58.425667,-23
2021-12-24 14:52:58.425676,-9
2021-12-24 14:52:58.693934,-2
2021-12-24 14:52:58.693963,-4
2021-12-24 14:52:58.693974,4
2021-12-24 14:52:58.693985,16
2021-12-24 14:52:58.693994,27
2021-12-24 14:52:58.694004,32
2021-12-24 14:52:58.694013,11
2021-12-24 14:52:58.694023,-11
2021-12-24 14:52:58.694032,4
2021-12-24 14:52:58.694042,116
2021-12-24 14:52:58.694052,402
2021-12-24 14:52:58.694061,733
2021-12-24 14:52:58.694071,595
2021-12-24 14:52:58.694080,-209
2021-12-24 14:52:58.694090,-754
2021-12-24 14:52:58.694100,-330
2021-12-24 14:52:58.694109,141
2021-12-24 14:52:58.694119,25
2021-12-24 14:52:58.694128,-46
2021-12-24 14:52:58.694138,93
2021-12-24 14:52:58.694147,100
2021-12-24 14:52:58.694157,58
2021-12-24 14:52:58.694166,104
2021-12-24 14:52:58.694176,128
2021-12-24 14:52:58.694185,116
2021-12-24 14:52:58.694195,139
2021-12-24 14:52:58.694204,169
2021-12-24 14:52:58.694214,176
2021-12-24 14:52:58.694223,193
2021-12-24 14:52:58.694233,223
2021-12-24 14:52:58.875151,246
2021-12-24 14:52:58.875172,276
2021-12-24 14:52:58.875180,311
2021-12-24 14:52:58.875187,316
2021-12-24 14:52:58.875193,293
2021-12-24 14:52:58.875199,279
2021-12-24 14:52:58.875205,269
2021-12-24 14:52:58.875212,263
2021-12-24 14:52:58.875218,263
2021-12-24 14:52:58.875224,246
2021-12-24 14:52:58.875231,197
2021-12-24 14:52:58.875237,114
2021-12-24 14:52:58.875243,27
2021-12-24 14:52:58.875249,-30
2021-12-24 14:52:58.875256,-93
2021-12-24 14:52:58.875262,-165
2021-12-24 14:52:58.875268,-200
2021-12-24 14:52:58.875274,-218
2021-12-24 14:52:58.875281,-242
2021-12-24 14:52:58.875287,-256
2021-12-24 14:52:58.875293,-269
2021-12-24 14:52:58.875299,-279
2021-12-24 14:52:58.875306,-274
2021-12-24 14:52:58.875312,-267
2021-12-24 14:52:58.875318,-246
2021-12-24 14:52:58.875324,-216
2021-12-24 14:52:58.875331,-202
2021-12-24 14:52:58.875337,-197
2021-12-24 14:52:58.875343,-188
2021-12-24 14:52:58.875349,-176
2021-12-24 14:52:59.099726,-162
2021-12-24 14:52:59.099755,-141
2021-12-24 14:52:59.099767,-134
2021-12-24 14:52:59.099777,-151
2021-12-24 14:52:59.099786,-165
2021-12-24 14:52:59.099796,-158
2021-12-24 14:52:59.099805,-134
2021-12-24 14:52:59.099815,-123
2021-12-24 14:52:59.099825,-125
2021-12-24 14:52:59.099834,-123
2021-12-24 14:52:59.099844,-128
2021-12-24 14:52:59.099854,-141
2021-12-24 14:52:59.099863,-128
2021-12-24 14:52:59.099874,-100
2021-12-24 14:52:59.099884,-90
2021-12-24 14:52:59.099893,-95
2021-12-24 14:52:59.099903,-93
2021-12-24 14:52:59.099913,-79
2021-12-24 14:52:59.099922,-60
2021-12-24 14:52:59.099932,-46
2021-12-24 14:52:59.099942,-37
2021-12-24 14:52:59.099951,-41
2021-12-24 14:52:59.099961,-60
2021-12-24 14:52:59.099971,-58
2021-12-24 14:52:59.099980,-32
2021-12-24 14:52:59.099990,-18
2021-12-24 14:52:59.099999,-13
2021-12-24 14:52:59.100009,-13
2021-12-24 14:52:59.100024,-16
2021-12-24 14:52:59.100034,-6
2021-12-24 14:52:59.325161,16
2021-12-24 14:52:59.325192,34
2021-12-24 14:52:59.325203,34
2021-12-24 14:52:59.325214,11
2021-12-24 14:52:59.325223,-13
2021-12-24 14:52:59.325233,-13
2021-12-24 14:52:59.325243,6
2021-12-24 14:52:59.325252,16
2021-12-24 14:52:59.325262,-4
2021-12-24 14:52:59.325272,-74
2021-12-24 14:52:59.325281,-125
2021-12-24 14:52:59.325291,-81
2021-12-24 14:52:59.325300,-27
2021-12-24 14:52:59.325310,-18
2021-12-24 14:52:59.325320,-9
2021-12-24 14:52:59.325329,-16
2021-12-24 14:52:59.325339,-32
2021-12-24 14:52:59.325348,-20
2021-12-24 14:52:59.325358,2
2021-12-24 14:52:59.325368,16
2021-12-24 14:52:59.325378,25
2021-12-24 14:52:59.325387,18
2021-12-24 14:52:59.325397,11
2021-12-24 14:52:59.325406,25
2021-12-24 14:52:59.325416,20
2021-12-24 14:52:59.325425,6
2021-12-24 14:52:59.325435,13
2021-12-24 14:52:59.325444,6
2021-12-24 14:52:59.325454,-11
2021-12-24 14:52:59.325463,51
2021-12-24 14:52:59.640179,293
2021-12-24 14:52:59.640208,695
2021-12-24 14:52:59.640219,898
2021-12-24 14:52:59.640229,342
2021-12-24 14:52:59.640239,-602
2021-12-24 14:52:59.640249,-674
2021-12-24 14:52:59.640259,-27
2021-12-24 14:52:59.640268,97
2021-12-24 14:52:59.640278,-100
2021-12-24 14:52:59.640287,-27
2021-12-24 14:52:59.640297,23
2021-12-24 14:52:59.640306,-44
2021-12-24 14:52:59.640316,-18
2021-12-24 14:52:59.640326,16
2021-12-24 14:52:59.640335,-18
2021-12-24 14:52:59.640345,-27
2021-12-24 14:52:59.640355,0
2021-12-24 14:52:59.640364,23
2021-12-24 14:52:59.640374,48
2021-12-24 14:52:59.640383,81
2021-12-24 14:52:59.640393,95
2021-12-24 14:52:59.640403,102
2021-12-24 14:52:59.640412,132
2021-12-24 14:52:59.640422,181
2021-12-24 14:52:59.640431,223
2021-12-24 14:52:59.640441,253
2021-12-24 14:52:59.640451,260
2021-12-24 14:52:59.640460,251
2021-12-24 14:52:59.640470,246
2021-12-24 14:52:59.640479,253
2021-12-24 14:52:59.819558,256
2021-12-24 14:52:59.819580,242
2021-12-24 14:52:59.819588,193
2021-12-24 14:52:59.819594,121
2021-12-24 14:52:59.819601,74
2021-12-24 14:52:59.819607,41
2021-12-24 14:52:59.819613,4
2021-12-24 14:52:59.819620,-32
2021-12-24 14:52:59.819626,-90
2021-12-24 14:52:59.819632,-144
2021-12-24 14:52:59.819638,-141
2021-12-24 14:52:59.819644,-123
2021-12-24 14:52:59.819650,-121
2021-12-24 14:52:59.819656,-107
2021-12-24 14:52:59.819662,-104
2021-12-24 14:52:59.819669,-144
2021-12-24 14:52:59.819675,-158
2021-12-24 14:52:59.819681,-118
2021-12-24 14:52:59.819687,-93
2021-12-24 14:52:59.819693,-104
2021-12-24 14:52:59.819699,-125
2021-12-24 14:52:59.819706,-134
2021-12-24 14:52:59.819712,-114
2021-12-24 14:52:59.819718,-95
2021-12-24 14:52:59.819724,-88
2021-12-24 14:52:59.819730,-74
2021-12-24 14:52:59.819736,-72
2021-12-24 14:52:59.819742,-93
2021-12-24 14:52:59.819749,-109
2021-12-24 14:52:59.819755,-95
2021-12-24 14:53:00.089726,-76
2021-12-24 14:53:00.089755,-72
2021-12-24 14:53:00.089767,-76
2021-12-24 14:53:00.089777,-69
2021-12-24 14:53:00.089787,-48
2021-12-24 14:53:00.089797,-34
2021-12-24 14:53:00.089806,-34
2021-12-24 14:53:00.089816,-51
2021-12-24 14:53:00.089826,-69
2021-12-24 14:53:00.089836,-67
2021-12-24 14:53:00.089846,-48
2021-12-24 14:53:00.089856,-34
2021-12-24 14:53:00.089865,-30
2021-12-24 14:53:00.089875,-48
2021-12-24 14:53:00.089885,-79
2021-12-24 14:53:00.089894,-69
2021-12-24 14:53:00.089904,-23
2021-12-24 14:53:00.089914,11
2021-12-24 14:53:00.089923,25
2021-12-24 14:53:00.089933,18
2021-12-24 14:53:00.089943,11
2021-12-24 14:53:00.089952,11
2021-12-24 14:53:00.089962,13
2021-12-24 14:53:00.089972,18
2021-12-24 14:53:00.089981,32
2021-12-24 14:53:00.089991,37
2021-12-24 14:53:00.090001,32
2021-12-24 14:53:00.090011,30
2021-12-24 14:53:00.090020,39
2021-12-24 14:53:00.090030,53
2021-12-24 14:53:00.269385,32
2021-12-24 14:53:00.269402,4
2021-12-24 14:53:00.269408,2
2021-12-24 14:53:00.269413,-13
2021-12-24 14:53:00.269418,13
2021-12-24 14:53:00.269423,251
2021-12-24 14:53:00.269429,644
2021-12-24 14:53:00.269434,737
2021-12-24 14:53:00.269439,72
2021-12-24 14:53:00.269444,-786
2021-12-24 14:53:00.269449,-709
2021-12-24 14:53:00.269454,-95
2021-12-24 14:53:00.269459,-39
2021-12-24 14:53:00.269464,-200
2021-12-24 14:53:00.269469,-76
2021-12-24 14:53:00.269474,-20
2021-12-24 14:53:00.269479,-81
2021-12-24 14:53:00.269484,-44
2021-12-24 14:53:00.269489,-11
2021-12-24 14:53:00.269494,-55
2021-12-24 14:53:00.269499,-81
2021-12-24 14:53:00.269504,-81
2021-12-24 14:53:00.269509,-62
2021-12-24 14:53:00.269514,-20
2021-12-24 14:53:00.269519,2
2021-12-24 14:53:00.269525,23
2021-12-24 14:53:00.269530,65
2021-12-24 14:53:00.269535,109
2021-12-24 14:53:00.269540,151
2021-12-24 14:53:00.269545,202
2021-12-24 14:53:00.494706,232
2021-12-24 14:53:00.494735,242
2021-12-24 14:53:00.494747,235
2021-12-24 14:53:00.494758,216
2021-12-24 14:53:00.494768,218
2021-12-24 14:53:00.494777,204
2021-12-24 14:53:00.494787,132
2021-12-24 14:53:00.494797,55
2021-12-24 14:53:00.494806,13
2021-12-24 14:53:00.494816,-23
2021-12-24 14:53:00.494825,-74
2021-12-24 14:53:00.494835,-128
2021-12-24 14:53:00.494845,-181
2021-12-24 14:53:00.494854,-204
2021-12-24 14:53:00.494864,-190
2021-12-24 14:53:00.494874,-186
2021-12-24 14:53:00.494883,-183
2021-12-24 14:53:00.494893,-174
2021-12-24 14:53:00.494903,-162
2021-12-24 14:53:00.494913,-144
2021-12-24 14:53:00.494922,-123
2021-12-24 14:53:00.494932,-118
2021-12-24 14:53:00.494941,-107
2021-12-24 14:53:00.494951,-83
2021-12-24 14:53:00.494960,-74
2021-12-24 14:53:00.494970,-74
2021-12-24 14:53:00.494980,-58
2021-12-24 14:53:00.494989,-41
2021-12-24 14:53:00.494999,-34
2021-12-24 14:53:00.495008,-32
2021-12-24 14:53:00.764580,-30
2021-12-24 14:53:00.764600,-16
2021-12-24 14:53:00.764608,-2
2021-12-24 14:53:00.764614,-2
2021-12-24 14:53:00.764620,-27
2021-12-24 14:53:00.764627,-72
2021-12-24 14:53:00.764633,-90
2021-12-24 14:53:00.764639,-74
2021-12-24 14:53:00.764645,-60
2021-12-24 14:53:00.764651,-51
2021-12-24 14:53:00.764658,-48
2021-12-24 14:53:00.764664,-62
2021-12-24 14:53:00.764670,-67
2021-12-24 14:53:00.764677,-41
2021-12-24 14:53:00.764683,-30
2021-12-24 14:53:00.764689,-37
2021-12-24 14:53:00.764696,-27
2021-12-24 14:53:00.764702,-20
2021-12-24 14:53:00.764709,-11
2021-12-24 14:53:00.764716,6
2021-12-24 14:53:00.764722,16
2021-12-24 14:53:00.764729,9
2021-12-24 14:53:00.764735,18
2021-12-24 14:53:00.764741,30
2021-12-24 14:53:00.764748,30
2021-12-24 14:53:00.764754,4
2021-12-24 14:53:00.764761,-32
2021-12-24 14:53:00.764767,-37
2021-12-24 14:53:00.764773,-30
2021-12-24 14:53:00.764780,-48
2021-12-24 14:53:00.945243,-37
2021-12-24 14:53:00.945273,2
2021-12-24 14:53:00.945285,4
2021-12-24 14:53:00.945295,-18
2021-12-24 14:53:00.945305,-44
2021-12-24 14:53:00.945315,-81
2021-12-24 14:53:00.945324,-116
2021-12-24 14:53:00.945334,-137
2021-12-24 14:53:00.945343,-134
2021-12-24 14:53:00.945353,-130
2021-12-24 14:53:00.945363,-153
2021-12-24 14:53:00.945372,-179
2021-12-24 14:53:00.945382,-155
2021-12-24 14:53:00.945391,-128
2021-12-24 14:53:00.945401,-125
2021-12-24 14:53:00.945410,-134
2021-12-24 14:53:00.945420,-144
2021-12-24 14:53:00.945429,-74
2021-12-24 14:53:00.945439,193
2021-12-24 14:53:00.945448,588
2021-12-24 14:53:00.945458,674
2021-12-24 14:53:00.945468,16
2021-12-24 14:53:00.945477,-782
2021-12-24 14:53:00.945493,-630
2021-12-24 14:53:00.945503,-25
2021-12-24 14:53:00.945513,6
2021-12-24 14:53:00.945522,-116
2021-12-24 14:53:00.945532,16
2021-12-24 14:53:00.945541,44
2021-12-24 14:53:00.945551,-11
2021-12-24 14:53:01.214717,53
2021-12-24 14:53:01.214738,100
2021-12-24 14:53:01.214745,74
2021-12-24 14:53:01.214751,76
2021-12-24 14:53:01.214758,83
2021-12-24 14:53:01.214764,83
2021-12-24 14:53:01.214770,116
2021-12-24 14:53:01.214776,151
2021-12-24 14:53:01.214783,144
2021-12-24 14:53:01.214789,130
2021-12-24 14:53:01.214795,137
2021-12-24 14:53:01.214801,176
2021-12-24 14:53:01.214808,237
2021-12-24 14:53:01.214814,281
2021-12-24 14:53:01.214820,300
2021-12-24 14:53:01.214826,295
2021-12-24 14:53:01.214833,288
2021-12-24 14:53:01.214839,293
2021-12-24 14:53:01.214845,290
2021-12-24 14:53:01.214851,265
2021-12-24 14:53:01.214858,225
2021-12-24 14:53:01.214865,165
2021-12-24 14:53:01.214871,93
2021-12-24 14:53:01.214877,53
2021-12-24 14:53:01.214884,30
2021-12-24 14:53:01.214890,2
2021-12-24 14:53:01.214896,-30
2021-12-24 14:53:01.214902,-55
2021-12-24 14:53:01.214909,-58
2021-12-24 14:53:01.214915,-48
2021-12-24 14:53:01.485223,-53
2021-12-24 14:53:01.485253,-81
2021-12-24 14:53:01.485265,-109
2021-12-24 14:53:01.485275,-125
2021-12-24 14:53:01.485285,-134
2021-12-24 14:53:01.485295,-116
2021-12-24 14:53:01.485305,-83
2021-12-24 14:53:01.485315,-72
2021-12-24 14:53:01.485325,-81
2021-12-24 14:53:01.485334,-109
2021-12-24 14:53:01.485344,-139
2021-12-24 14:53:01.485354,-139
2021-12-24 14:53:01.485364,-109
2021-12-24 14:53:01.485374,-88
2021-12-24 14:53:01.485383,-97
2021-12-24 14:53:01.485393,-116
2021-12-24 14:53:01.485403,-107
2021-12-24 14:53:01.485413,-76
2021-12-24 14:53:01.485423,-58
2021-12-24 14:53:01.485432,-46
2021-12-24 14:53:01.485442,-41
2021-12-24 14:53:01.485452,-72
2021-12-24 14:53:01.485461,-100
2021-12-24 14:53:01.485471,-83
2021-12-24 14:53:01.485481,-58
2021-12-24 14:53:01.485490,-53
2021-12-24 14:53:01.485500,-72
2021-12-24 14:53:01.485509,-100
2021-12-24 14:53:01.485519,-116
2021-12-24 14:53:01.485529,-116
2021-12-24 14:53:01.709733,-100
2021-12-24 14:53:01.709763,-83
2021-12-24 14:53:01.709775,-100
2021-12-24 14:53:01.709785,-118
2021-12-24 14:53:01.709795,-104
2021-12-24 14:53:01.709804,-83
2021-12-24 14:53:01.709814,-76
2021-12-24 14:53:01.709823,-69
2021-12-24 14:53:01.709833,-72
2021-12-24 14:53:01.709842,-79
2021-12-24 14:53:01.709852,-65
2021-12-24 14:53:01.709861,-32
2021-12-24 14:53:01.709871,-18
2021-12-24 14:53:01.709880,-44
2021-12-24 14:53:01.709890,-74
2021-12-24 14:53:01.709900,-88
2021-12-24 14:53:01.709909,-88
2021-12-24 14:53:01.709919,-74
2021-12-24 14:53:01.709928,-55
2021-12-24 14:53:01.709938,-51
2021-12-24 14:53:01.709947,-79
2021-12-24 14:53:01.709957,-100
2021-12-24 14:53:01.709967,-72
2021-12-24 14:53:01.709976,-46
2021-12-24 14:53:01.709986,-41
2021-12-24 14:53:01.709996,-18
2021-12-24 14:53:01.710005,-20
2021-12-24 14:53:01.710015,-46
2021-12-24 14:53:01.710025,32
2021-12-24 14:53:01.710034,279
2021-12-24 14:53:01.934786,614
2021-12-24 14:53:01.934816,730
2021-12-24 14:53:01.934827,188
2021-12-24 14:53:01.934838,-602
2021-12-24 14:53:01.934847,-563
2021-12-24 14:53:01.934857,32
2021-12-24 14:53:01.934867,95
2021-12-24 14:53:01.934876,-118
2021-12-24 14:53:01.934886,-53
2021-12-24 14:53:01.934895,20
2021-12-24 14:53:01.934905,-18
2021-12-24 14:53:01.934915,16
2021-12-24 14:53:01.934924,76
2021-12-24 14:53:01.934934,81
2021-12-24 14:53:01.934943,65
2021-12-24 14:53:01.934953,65
2021-12-24 14:53:01.934962,88
2021-12-24 14:53:01.934972,118
2021-12-24 14:53:01.934981,148
2021-12-24 14:53:01.934991,155
2021-12-24 14:53:01.935001,151
2021-12-24 14:53:01.935011,181
2021-12-24 14:53:01.935020,228
2021-12-24 14:53:01.935030,274
2021-12-24 14:53:01.935040,318
2021-12-24 14:53:01.935049,330
2021-12-24 14:53:01.935059,323
2021-12-24 14:53:01.935068,332
2021-12-24 14:53:01.935078,339
2021-12-24 14:53:01.935088,328
2021-12-24 14:53:02.115138,297
2021-12-24 14:53:02.115166,246
2021-12-24 14:53:02.115177,190
2021-12-24 14:53:02.115187,137
2021-12-24 14:53:02.115197,86
2021-12-24 14:53:02.115206,48
2021-12-24 14:53:02.115216,0
2021-12-24 14:53:02.115225,-53
2021-12-24 14:53:02.115235,-69
2021-12-24 14:53:02.115244,-65
2021-12-24 14:53:02.115254,-67
2021-12-24 14:53:02.115264,-60
2021-12-24 14:53:02.115273,-67
2021-12-24 14:53:02.115283,-93
2021-12-24 14:53:02.115292,-107
2021-12-24 14:53:02.115302,-100
2021-12-24 14:53:02.115311,-102
2021-12-24 14:53:02.115321,-130
2021-12-24 14:53:02.115330,-167
2021-12-24 14:53:02.115340,-195
2021-12-24 14:53:02.115350,-195
2021-12-24 14:53:02.115359,-188
2021-12-24 14:53:02.115369,-190
2021-12-24 14:53:02.115378,-186
2021-12-24 14:53:02.115387,-179
2021-12-24 14:53:02.115397,-179
2021-12-24 14:53:02.115406,-176
2021-12-24 14:53:02.115416,-167
2021-12-24 14:53:02.115425,-153
2021-12-24 14:53:02.115435,-137
2021-12-24 14:53:02.384017,-137
2021-12-24 14:53:02.384047,-144
2021-12-24 14:53:02.384059,-130
2021-12-24 14:53:02.384069,-114
2021-12-24 14:53:02.384078,-100
2021-12-24 14:53:02.384088,-95
2021-12-24 14:53:02.384098,-121
2021-12-24 14:53:02.384107,-125
2021-12-24 14:53:02.384117,-93
2021-12-24 14:53:02.384127,-95
2021-12-24 14:53:02.384136,-111
2021-12-24 14:53:02.384146,-97
2021-12-24 14:53:02.384156,-111
2021-12-24 14:53:02.384165,-160
2021-12-24 14:53:02.384175,-179
2021-12-24 14:53:02.384184,-153
2021-12-24 14:53:02.384194,-141
2021-12-24 14:53:02.384204,-137
2021-12-24 14:53:02.384213,-132
2021-12-24 14:53:02.384223,-134
2021-12-24 14:53:02.384232,-109
2021-12-24 14:53:02.384242,-69
2021-12-24 14:53:02.384252,-53
2021-12-24 14:53:02.384261,-55
2021-12-24 14:53:02.384271,-53
2021-12-24 14:53:02.384280,-48
2021-12-24 14:53:02.384290,-41
2021-12-24 14:53:02.384299,-34
2021-12-24 14:53:02.384309,-18
2021-12-24 14:53:02.384318,-13
2021-12-24 14:53:02.564829,-13
2021-12-24 14:53:02.564850,6
2021-12-24 14:53:02.564858,20
2021-12-24 14:53:02.564864,18
2021-12-24 14:53:02.564871,25
2021-12-24 14:53:02.564877,13
2021-12-24 14:53:02.564883,-13
2021-12-24 14:53:02.564890,30
2021-12-24 14:53:02.564896,209
2021-12-24 14:53:02.564902,509
2021-12-24 14:53:02.564908,728
2021-12-24 14:53:02.564915,379
2021-12-24 14:53:02.564921,-446
2021-12-24 14:53:02.564927,-667
2021-12-24 14:53:02.564934,-100
2021-12-24 14:53:02.564940,144
2021-12-24 14:53:02.564946,-30
2021-12-24 14:53:02.564953,13
2021-12-24 14:53:02.564959,118
2021-12-24 14:53:02.564966,83
2021-12-24 14:53:02.564972,76
2021-12-24 14:53:02.564978,93
2021-12-24 14:53:02.564984,83
2021-12-24 14:53:02.564991,93
2021-12-24 14:53:02.564997,116
2021-12-24 14:53:02.565003,139
2021-12-24 14:53:02.565010,162
2021-12-24 14:53:02.565016,181
2021-12-24 14:53:02.565022,200
2021-12-24 14:53:02.565029,228
2021-12-24 14:53:02.878557,263
2021-12-24 14:53:02.878580,297
2021-12-24 14:53:02.878588,330
2021-12-24 14:53:02.878594,358
2021-12-24 14:53:02.878601,363
2021-12-24 14:53:02.878607,344
2021-12-24 14:53:02.878613,337
2021-12-24 14:53:02.878620,344
2021-12-24 14:53:02.878626,342
2021-12-24 14:53:02.878632,314
2021-12-24 14:53:02.878639,249
2021-12-24 14:53:02.878645,169
2021-12-24 14:53:02.878651,121
2021-12-24 14:53:02.878658,79
2021-12-24 14:53:02.878664,9
2021-12-24 14:53:02.878671,-51
2021-12-24 14:53:02.878677,-81
2021-12-24 14:53:02.878683,-111
2021-12-24 14:53:02.878690,-144
2021-12-24 14:53:02.878696,-183
2021-12-24 14:53:02.878702,-232
2021-12-24 14:53:02.878709,-260
2021-12-24 14:53:02.878715,-265
2021-12-24 14:53:02.878721,-269
2021-12-24 14:53:02.878728,-258
2021-12-24 14:53:02.878734,-230
2021-12-24 14:53:02.878740,-218
2021-12-24 14:53:02.878746,-225
2021-12-24 14:53:02.878753,-225
2021-12-24 14:53:02.878759,-202
2021-12-24 14:53:03.014820,-179
2021-12-24 14:53:03.014851,-165
2021-12-24 14:53:03.014863,-162
2021-12-24 14:53:03.014873,-172
2021-12-24 14:53:03.014883,-172
2021-12-24 14:53:03.014892,-151
2021-12-24 14:53:03.014902,-123
2021-12-24 14:53:03.014912,-109
2021-12-24 14:53:03.014922,-100
2021-12-24 14:53:03.014932,-109
2021-12-24 14:53:03.014941,-134
2021-12-24 14:53:03.014951,-130
2021-12-24 14:53:03.014961,-109
2021-12-24 14:53:03.014971,-116
2021-12-24 14:53:03.014980,-128
2021-12-24 14:53:03.014990,-141
2021-12-24 14:53:03.015000,-158
2021-12-24 14:53:03.015014,-144
2021-12-24 14:53:03.015024,-114
2021-12-24 14:53:03.015034,-90
2021-12-24 14:53:03.015044,-60
2021-12-24 14:53:03.015054,-44
2021-12-24 14:53:03.015064,-44
2021-12-24 14:53:03.015073,-39
2021-12-24 14:53:03.015083,-48
2021-12-24 14:53:03.015093,-51
2021-12-24 14:53:03.015103,-25
2021-12-24 14:53:03.015113,-18
2021-12-24 14:53:03.015122,-25
2021-12-24 14:53:03.015132,-11
2021-12-24 14:53:03.329680,6
2021-12-24 14:53:03.329710,6
2021-12-24 14:53:03.329722,-9
2021-12-24 14:53:03.329732,-34
2021-12-24 14:53:03.329742,-48
2021-12-24 14:53:03.329751,-16
2021-12-24 14:53:03.329761,11
2021-12-24 14:53:03.329771,4
2021-12-24 14:53:03.329780,-4
2021-12-24 14:53:03.329790,-18
2021-12-24 14:53:03.329800,-30
2021-12-24 14:53:03.329809,-18
2021-12-24 14:53:03.329819,20
2021-12-24 14:53:03.329829,176
2021-12-24 14:53:03.329839,514
2021-12-24 14:53:03.329848,830
2021-12-24 14:53:03.329858,591
2021-12-24 14:53:03.329868,-304
2021-12-24 14:53:03.329877,-779
2021-12-24 14:53:03.329887,-258
2021-12-24 14:53:03.329897,155
2021-12-24 14:53:03.329907,4
2021-12-24 14:53:03.329916,4
2021-12-24 14:53:03.329926,162
2021-12-24 14:53:03.329936,132
2021-12-24 14:53:03.329945,90
2021-12-24 14:53:03.329955,95
2021-12-24 14:53:03.329965,53
2021-12-24 14:53:03.329975,48
2021-12-24 14:53:03.329984,97
2021-12-24 14:53:03.555047,123
2021-12-24 14:53:03.555076,137
2021-12-24 14:53:03.555087,151
2021-12-24 14:53:03.555097,151
2021-12-24 14:53:03.555107,176
2021-12-24 14:53:03.555116,228
2021-12-24 14:53:03.555126,269
2021-12-24 14:53:03.555136,302
2021-12-24 14:53:03.555146,328
2021-12-24 14:53:03.555155,339
2021-12-24 14:53:03.555165,358
2021-12-24 14:53:03.555174,379
2021-12-24 14:53:03.555184,379
2021-12-24 14:53:03.555195,363
2021-12-24 14:53:03.555204,316
2021-12-24 14:53:03.555214,244
2021-12-24 14:53:03.555224,186
2021-12-24 14:53:03.555234,141
2021-12-24 14:53:03.555243,88
2021-12-24 14:53:03.555253,34
2021-12-24 14:53:03.555263,-27
2021-12-24 14:53:03.555272,-69
2021-12-24 14:53:03.555282,-74
2021-12-24 14:53:03.555292,-65
2021-12-24 14:53:03.555301,-60
2021-12-24 14:53:03.555311,-58
2021-12-24 14:53:03.555321,-65
2021-12-24 14:53:03.555330,-67
2021-12-24 14:53:03.555340,-65
2021-12-24 14:53:03.555349,-74
2021-12-24 14:53:03.734819,-69
2021-12-24 14:53:03.734849,-58
2021-12-24 14:53:03.734861,-55
2021-12-24 14:53:03.734871,-53
2021-12-24 14:53:03.734881,-58
2021-12-24 14:53:03.734890,-76
2021-12-24 14:53:03.734900,-74
2021-12-24 14:53:03.734909,-62
2021-12-24 14:53:03.734919,-88
2021-12-24 14:53:03.734929,-118
2021-12-24 14:53:03.734938,-114
2021-12-24 14:53:03.734948,-109
2021-12-24 14:53:03.734958,-137
2021-12-24 14:53:03.734967,-169
2021-12-24 14:53:03.734977,-183
2021-12-24 14:53:03.734986,-176
2021-12-24 14:53:03.734996,-165
2021-12-24 14:53:03.735005,-160
2021-12-24 14:53:03.735015,-153
2021-12-24 14:53:03.735024,-160
2021-12-24 14:53:03.735034,-176
2021-12-24 14:53:03.735043,-174
2021-12-24 14:53:03.735053,-162
2021-12-24 14:53:03.735062,-155
2021-12-24 14:53:03.735072,-151
2021-12-24 14:53:03.735081,-128
2021-12-24 14:53:03.735091,-90
2021-12-24 14:53:03.735101,-79
2021-12-24 14:53:03.735110,-76
2021-12-24 14:53:03.735120,-62
2021-12-24 14:53:03.960132,-65
2021-12-24 14:53:03.960153,-121
2021-12-24 14:53:03.960160,-176
2021-12-24 14:53:03.960167,-169
2021-12-24 14:53:03.960173,-139
2021-12-24 14:53:03.960179,-130
2021-12-24 14:53:03.960185,-130
2021-12-24 14:53:03.960192,-141
2021-12-24 14:53:03.960198,-148
2021-12-24 14:53:03.960204,-137
2021-12-24 14:53:03.960210,-109
2021-12-24 14:53:03.960217,-95
2021-12-24 14:53:03.960223,-116
2021-12-24 14:53:03.960229,-86
2021-12-24 14:53:03.960235,153
2021-12-24 14:53:03.960242,581
2021-12-24 14:53:03.960248,800
2021-12-24 14:53:03.960254,249
2021-12-24 14:53:03.960260,-707
2021-12-24 14:53:03.960267,-784
2021-12-24 14:53:03.960291,-109
2021-12-24 14:53:03.960301,53
2021-12-24 14:53:03.960311,-125
2021-12-24 14:53:03.960321,-4
2021-12-24 14:53:03.960330,86
2021-12-24 14:53:03.960340,20
2021-12-24 14:53:03.960349,51
2021-12-24 14:53:03.960359,104
2021-12-24 14:53:03.960369,95
2021-12-24 14:53:03.960378,111
2021-12-24 14:53:04.184798,144
2021-12-24 14:53:04.184824,151
2021-12-24 14:53:04.184883,151
2021-12-24 14:53:04.184949,151
2021-12-24 14:53:04.184962,167
2021-12-24 14:53:04.184972,197
2021-12-24 14:53:04.184978,202
2021-12-24 14:53:04.184985,218
2021-12-24 14:53:04.184991,269
2021-12-24 14:53:04.184997,307
2021-12-24 14:53:04.185003,335
2021-12-24 14:53:04.185009,356
2021-12-24 14:53:04.185016,335
2021-12-24 14:53:04.185022,307
2021-12-24 14:53:04.185028,300
2021-12-24 14:53:04.185034,269
2021-12-24 14:53:04.185040,211
2021-12-24 14:53:04.185046,148
2021-12-24 14:53:04.185053,86
2021-12-24 14:53:04.185059,37
2021-12-24 14:53:04.185065,-2
2021-12-24 14:53:04.185071,-41
2021-12-24 14:53:04.185078,-62
2021-12-24 14:53:04.185084,-72
2021-12-24 14:53:04.185090,-86
2021-12-24 14:53:04.185096,-79
2021-12-24 14:53:04.185102,-67
2021-12-24 14:53:04.185108,-72
2021-12-24 14:53:04.185114,-65
2021-12-24 14:53:04.185120,-53
2021-12-24 14:53:04.410160,-51
2021-12-24 14:53:04.410189,-37
2021-12-24 14:53:04.410201,-20
2021-12-24 14:53:04.410211,-18
2021-12-24 14:53:04.410221,-34
2021-12-24 14:53:04.410230,-72
2021-12-24 14:53:04.410240,-104
2021-12-24 14:53:04.410250,-125
2021-12-24 14:53:04.410259,-165
2021-12-24 14:53:04.410269,-181
2021-12-24 14:53:04.410279,-169
2021-12-24 14:53:04.410288,-181
2021-12-24 14:53:04.410298,-193
2021-12-24 14:53:04.410308,-181
2021-12-24 14:53:04.410317,-193
2021-12-24 14:53:04.410327,-211
2021-12-24 14:53:04.410336,-214
2021-12-24 14:53:04.410346,-225
2021-12-24 14:53:04.410356,-228
2021-12-24 14:53:04.410365,-204
2021-12-24 14:53:04.410375,-188
2021-12-24 14:53:04.410384,-200
2021-12-24 14:53:04.410394,-211
2021-12-24 14:53:04.410403,-200
2021-12-24 14:53:04.410413,-167
2021-12-24 14:53:04.410423,-130
2021-12-24 14:53:04.410432,-109
2021-12-24 14:53:04.410442,-104
2021-12-24 14:53:04.410451,-100
2021-12-24 14:53:04.410461,-97
2021-12-24 14:53:04.634741,-95
2021-12-24 14:53:04.634771,-86
2021-12-24 14:53:04.634783,-74
2021-12-24 14:53:04.634793,-74
2021-12-24 14:53:04.634802,-83
2021-12-24 14:53:04.634812,-102
2021-12-24 14:53:04.634822,-111
2021-12-24 14:53:04.634832,-111
2021-12-24 14:53:04.634842,-109
2021-12-24 14:53:04.634852,-102
2021-12-24 14:53:04.634861,-118
2021-12-24 14:53:04.634871,-144
2021-12-24 14:53:04.634881,-60
2021-12-24 14:53:04.634891,216
2021-12-24 14:53:04.634901,598
2021-12-24 14:53:04.634911,721
2021-12-24 14:53:04.634921,130
2021-12-24 14:53:04.634930,-709
2021-12-24 14:53:04.634940,-649
2021-12-24 14:53:04.634950,-16
2021-12-24 14:53:04.634960,60
2021-12-24 14:53:04.634970,-107
2021-12-24 14:53:04.634979,9
2021-12-24 14:53:04.634989,81
2021-12-24 14:53:04.634999,37
2021-12-24 14:53:04.635009,72
2021-12-24 14:53:04.635019,121
2021-12-24 14:53:04.635028,111
2021-12-24 14:53:04.635038,116
2021-12-24 14:53:04.635048,141
2021-12-24 14:53:04.948545,158
2021-12-24 14:53:04.948574,186
2021-12-24 14:53:04.948586,221
2021-12-24 14:53:04.948597,223
2021-12-24 14:53:04.948606,209
2021-12-24 14:53:04.948616,235
2021-12-24 14:53:04.948626,302
2021-12-24 14:53:04.948635,351
2021-12-24 14:53:04.948645,370
2021-12-24 14:53:04.948655,349
2021-12-24 14:53:04.948664,307
2021-12-24 14:53:04.948674,300
2021-12-24 14:53:04.948683,318
2021-12-24 14:53:04.948693,276
2021-12-24 14:53:04.948703,183
2021-12-24 14:53:04.948713,109
2021-12-24 14:53:04.948722,67
2021-12-24 14:53:04.948732,32
2021-12-24 14:53:04.948741,-13
2021-12-24 14:53:04.948751,-60
2021-12-24 14:53:04.948760,-90
2021-12-24 14:53:04.948770,-121
2021-12-24 14:53:04.948780,-134
2021-12-24 14:53:04.948789,-111
2021-12-24 14:53:04.948799,-100
2021-12-24 14:53:04.948808,-95
2021-12-24 14:53:04.948818,-79
2021-12-24 14:53:04.948828,-86
2021-12-24 14:53:04.948838,-93
2021-12-24 14:53:04.948847,-51
2021-12-24 14:53:05.175369,-18
2021-12-24 14:53:05.175403,-11
2021-12-24 14:53:05.175414,-9
2021-12-24 14:53:05.175424,-34
2021-12-24 14:53:05.175434,-58
2021-12-24 14:53:05.175444,-32
2021-12-24 14:53:05.175453,-6
2021-12-24 14:53:05.175463,0
2021-12-24 14:53:05.175472,0
2021-12-24 14:53:05.175482,-25
2021-12-24 14:53:05.175492,-55
2021-12-24 14:53:05.175501,-58
2021-12-24 14:53:05.175511,-44
2021-12-24 14:53:05.175520,-30
2021-12-24 14:53:05.175530,-32
2021-12-24 14:53:05.175539,-41
2021-12-24 14:53:05.175549,-32
2021-12-24 14:53:05.175558,-16
2021-12-24 14:53:05.175568,-11
2021-12-24 14:53:05.175578,-2
2021-12-24 14:53:05.175587,-2
2021-12-24 14:53:05.175597,-27
2021-12-24 14:53:05.175606,-46
2021-12-24 14:53:05.175616,-41
2021-12-24 14:53:05.175625,-18
2021-12-24 14:53:05.175635,4
2021-12-24 14:53:05.175645,-2
2021-12-24 14:53:05.175654,-32
2021-12-24 14:53:05.175664,-41
2021-12-24 14:53:05.175674,-51
2021-12-24 14:53:05.355241,-79
2021-12-24 14:53:05.355271,-86
2021-12-24 14:53:05.355282,-83
2021-12-24 14:53:05.355292,-102
2021-12-24 14:53:05.355302,-104
2021-12-24 14:53:05.355312,-83
2021-12-24 14:53:05.355321,-74
2021-12-24 14:53:05.355331,-79
2021-12-24 14:53:05.355340,-100
2021-12-24 14:53:05.355350,-118
2021-12-24 14:53:05.355360,-107
2021-12-24 14:53:05.355369,-93
2021-12-24 14:53:05.355379,-65
2021-12-24 14:53:05.355388,90
2021-12-24 14:53:05.355408,423
2021-12-24 14:53:05.355418,644
2021-12-24 14:53:05.355428,214
2021-12-24 14:53:05.355438,-667
2021-12-24 14:53:05.355448,-830
2021-12-24 14:53:05.355458,-230
2021-12-24 14:53:05.355467,-60
2021-12-24 14:53:05.355477,-265
2021-12-24 14:53:05.355487,-169
2021-12-24 14:53:05.355496,-34
2021-12-24 14:53:05.355506,-79
2021-12-24 14:53:05.355515,-79
2021-12-24 14:53:05.355525,-30
2021-12-24 14:53:05.355535,-20
2021-12-24 14:53:05.355545,0
2021-12-24 14:53:05.355554,51
2021-12-24 14:53:05.669089,76
2021-12-24 14:53:05.669118,90
2021-12-24 14:53:05.669130,107
2021-12-24 14:53:05.669140,128
2021-12-24 14:53:05.669150,176
2021-12-24 14:53:05.669160,228
2021-12-24 14:53:05.669170,263
2021-12-24 14:53:05.669180,290
2021-12-24 14:53:05.669190,300
2021-12-24 14:53:05.669199,307
2021-12-24 14:53:05.669209,330
2021-12-24 14:53:05.669219,346
2021-12-24 14:53:05.669228,346
2021-12-24 14:53:05.669238,314
2021-12-24 14:53:05.669248,242
2021-12-24 14:53:05.669258,165
2021-12-24 14:53:05.669268,104
2021-12-24 14:53:05.669277,65
2021-12-24 14:53:05.669287,23
2021-12-24 14:53:05.669297,-37
2021-12-24 14:53:05.669306,-86
2021-12-24 14:53:05.669316,-102
2021-12-24 14:53:05.669326,-95
2021-12-24 14:53:05.669336,-90
2021-12-24 14:53:05.669345,-93
2021-12-24 14:53:05.669355,-88
2021-12-24 14:53:05.669365,-81
2021-12-24 14:53:05.669375,-74
2021-12-24 14:53:05.669384,-53
2021-12-24 14:53:05.669394,-32
2021-12-24 14:53:05.850215,-25
2021-12-24 14:53:05.850245,-23
2021-12-24 14:53:05.850257,-6
2021-12-24 14:53:05.850267,-2
2021-12-24 14:53:05.850277,-9
2021-12-24 14:53:05.850286,0
2021-12-24 14:53:05.850296,25
2021-12-24 14:53:05.850305,13
2021-12-24 14:53:05.850315,-9
2021-12-24 14:53:05.850325,2
2021-12-24 14:53:05.850334,18
2021-12-24 14:53:05.850344,20
2021-12-24 14:53:05.850353,16
2021-12-24 14:53:05.850363,-6
2021-12-24 14:53:05.850373,-16
2021-12-24 14:53:05.850382,-2
2021-12-24 14:53:05.850392,2
2021-12-24 14:53:05.850401,-16
2021-12-24 14:53:05.850411,-34
2021-12-24 14:53:05.850420,-41
2021-12-24 14:53:05.850430,-30
2021-12-24 14:53:05.850439,-13
2021-12-24 14:53:05.850449,-9
2021-12-24 14:53:05.850458,-30
2021-12-24 14:53:05.850468,-83
2021-12-24 14:53:05.850477,-102
2021-12-24 14:53:05.850487,-62
2021-12-24 14:53:05.850496,-27
2021-12-24 14:53:05.850506,-23
2021-12-24 14:53:05.850515,-2
2021-12-24 14:53:06.029904,16
2021-12-24 14:53:06.029926,0
2021-12-24 14:53:06.029933,-18
2021-12-24 14:53:06.029940,-34
2021-12-24 14:53:06.029946,-41
2021-12-24 14:53:06.029952,-37
2021-12-24 14:53:06.029959,-60
2021-12-24 14:53:06.029965,-88
2021-12-24 14:53:06.029971,-95
2021-12-24 14:53:06.029978,-102
2021-12-24 14:53:06.029984,-109
2021-12-24 14:53:06.029990,-114
2021-12-24 14:53:06.029996,-114
2021-12-24 14:53:06.030003,-116
2021-12-24 14:53:06.030009,-86
2021-12-24 14:53:06.030015,58
2021-12-24 14:53:06.030021,367
2021-12-24 14:53:06.030028,623
2021-12-24 14:53:06.030034,302
2021-12-24 14:53:06.030040,-549
2021-12-24 14:53:06.030046,-851
2021-12-24 14:53:06.030053,-302
2021-12-24 14:53:06.030059,4
2021-12-24 14:53:06.030065,-162
2021-12-24 14:53:06.030071,-132
2021-12-24 14:53:06.030078,4
2021-12-24 14:53:06.030084,-20
2021-12-24 14:53:06.030090,-37
2021-12-24 14:53:06.030096,18
2021-12-24 14:53:06.030103,34
2021-12-24 14:53:06.254266,34
2021-12-24 14:53:06.254286,69
2021-12-24 14:53:06.254294,93
2021-12-24 14:53:06.254300,97
2021-12-24 14:53:06.254306,118
2021-12-24 14:53:06.254313,137
2021-12-24 14:53:06.254319,137
2021-12-24 14:53:06.254325,172
2021-12-24 14:53:06.254331,230
2021-12-24 14:53:06.254337,258
2021-12-24 14:53:06.254344,274
2021-12-24 14:53:06.254350,286
2021-12-24 14:53:06.254356,283
2021-12-24 14:53:06.254362,290
2021-12-24 14:53:06.254368,302
2021-12-24 14:53:06.254375,286
2021-12-24 14:53:06.254381,258
2021-12-24 14:53:06.254387,218
2021-12-24 14:53:06.254393,162
2021-12-24 14:53:06.254399,109
2021-12-24 14:53:06.254406,55
2021-12-24 14:53:06.254412,-11
2021-12-24 14:53:06.254418,-69
2021-12-24 14:53:06.254424,-93
2021-12-24 14:53:06.254431,-93
2021-12-24 14:53:06.254437,-88
2021-12-24 14:53:06.254443,-86
2021-12-24 14:53:06.254449,-86
2021-12-24 14:53:06.254455,-83
2021-12-24 14:53:06.254462,-95
2021-12-24 14:53:06.480186,-116
2021-12-24 14:53:06.480207,-100
2021-12-24 14:53:06.480215,-76
2021-12-24 14:53:06.480221,-81
2021-12-24 14:53:06.480228,-93
2021-12-24 14:53:06.480234,-107
2021-12-24 14:53:06.480240,-104
2021-12-24 14:53:06.480247,-83
2021-12-24 14:53:06.480253,-62
2021-12-24 14:53:06.480259,-55
2021-12-24 14:53:06.480266,-69
2021-12-24 14:53:06.480272,-86
2021-12-24 14:53:06.480278,-72
2021-12-24 14:53:06.480285,-44
2021-12-24 14:53:06.480291,-39
2021-12-24 14:53:06.480297,-48
2021-12-24 14:53:06.480303,-46
2021-12-24 14:53:06.480310,-39
2021-12-24 14:53:06.480316,-27
2021-12-24 14:53:06.480322,-16
2021-12-24 14:53:06.480329,-6
2021-12-24 14:53:06.480335,-4
2021-12-24 14:53:06.480341,-2
2021-12-24 14:53:06.480347,-6
2021-12-24 14:53:06.480354,-11
2021-12-24 14:53:06.480360,0
2021-12-24 14:53:06.480366,18
2021-12-24 14:53:06.480373,18
2021-12-24 14:53:06.480379,6
2021-12-24 14:53:06.480385,13
2021-12-24 14:53:06.704813,34
2021-12-24 14:53:06.704843,39
2021-12-24 14:53:06.704854,32
2021-12-24 14:53:06.704864,13
2021-12-24 14:53:06.704874,-11
2021-12-24 14:53:06.704883,2
2021-12-24 14:53:06.704893,46
2021-12-24 14:53:06.704902,65
2021-12-24 14:53:06.704912,60
2021-12-24 14:53:06.704921,41
2021-12-24 14:53:06.704931,6
2021-12-24 14:53:06.704940,-9
2021-12-24 14:53:06.704950,-9
2021-12-24 14:53:06.704960,-13
2021-12-24 14:53:06.704969,-13
2021-12-24 14:53:06.704979,-18
2021-12-24 14:53:06.704988,-41
2021-12-24 14:53:06.704998,-55
2021-12-24 14:53:06.705008,-46
2021-12-24 14:53:06.705017,-44
2021-12-24 14:53:06.705027,-74
2021-12-24 14:53:06.705036,-104
2021-12-24 14:53:06.705046,-93
2021-12-24 14:53:06.705055,20
2021-12-24 14:53:06.705065,302
2021-12-24 14:53:06.705074,626
2021-12-24 14:53:06.705084,532
2021-12-24 14:53:06.705093,-246
2021-12-24 14:53:06.705103,-868
2021-12-24 14:53:06.705113,-502
2021-12-24 14:53:07.018442,11
2021-12-24 14:53:07.018473,-74
2021-12-24 14:53:07.018484,-153
2021-12-24 14:53:07.018494,-41
2021-12-24 14:53:07.018504,-74
2021-12-24 14:53:07.018515,-139
2021-12-24 14:53:07.018524,-102
2021-12-24 14:53:07.018534,-62
2021-12-24 14:53:07.018544,-62
2021-12-24 14:53:07.018554,-81
2021-12-24 14:53:07.018563,-74
2021-12-24 14:53:07.018573,-27
2021-12-24 14:53:07.018583,18
2021-12-24 14:53:07.018593,48
2021-12-24 14:53:07.018602,76
2021-12-24 14:53:07.018612,95
2021-12-24 14:53:07.018622,137
2021-12-24 14:53:07.018632,186
2021-12-24 14:53:07.018641,211
2021-12-24 14:53:07.018651,251
2021-12-24 14:53:07.018661,293
2021-12-24 14:53:07.018670,288
2021-12-24 14:53:07.018680,276
2021-12-24 14:53:07.018690,288
2021-12-24 14:53:07.018699,283
2021-12-24 14:53:07.018709,253
2021-12-24 14:53:07.018719,202
2021-12-24 14:53:07.018728,114
2021-12-24 14:53:07.018738,30
2021-12-24 14:53:07.018747,-4
2021-12-24 14:53:07.245322,-25
2021-12-24 14:53:07.245352,-55
2021-12-24 14:53:07.245363,-86
2021-12-24 14:53:07.245373,-111
2021-12-24 14:53:07.245383,-114
2021-12-24 14:53:07.245392,-93
2021-12-24 14:53:07.245402,-81
2021-12-24 14:53:07.245412,-74
2021-12-24 14:53:07.245421,-86
2021-12-24 14:53:07.245430,-111
2021-12-24 14:53:07.245440,-102
2021-12-24 14:53:07.245450,-74
2021-12-24 14:53:07.245459,-58
2021-12-24 14:53:07.245469,-48
2021-12-24 14:53:07.245479,-74
2021-12-24 14:53:07.245488,-114
2021-12-24 14:53:07.245498,-93
2021-12-24 14:53:07.245507,-55
2021-12-24 14:53:07.245517,-46
2021-12-24 14:53:07.245526,-39
2021-12-24 14:53:07.245537,-41
2021-12-24 14:53:07.245546,-55
2021-12-24 14:53:07.245556,-41
2021-12-24 14:53:07.245565,-16
2021-12-24 14:53:07.245575,-6
2021-12-24 14:53:07.245584,-2
2021-12-24 14:53:07.245594,-4
2021-12-24 14:53:07.245603,-13
2021-12-24 14:53:07.245613,-11
2021-12-24 14:53:07.245622,-20
2021-12-24 14:53:07.424794,-41
2021-12-24 14:53:07.424816,-37
2021-12-24 14:53:07.424823,-32
2021-12-24 14:53:07.424830,-39
2021-12-24 14:53:07.424836,-25
2021-12-24 14:53:07.424842,-9
2021-12-24 14:53:07.424849,-2
2021-12-24 14:53:07.424855,-9
2021-12-24 14:53:07.424861,-34
2021-12-24 14:53:07.424867,-53
2021-12-24 14:53:07.424873,-76
2021-12-24 14:53:07.424880,-102
2021-12-24 14:53:07.424886,-90
2021-12-24 14:53:07.424892,-90
2021-12-24 14:53:07.424898,-121
2021-12-24 14:53:07.424905,-97
2021-12-24 14:53:07.424911,-39
2021-12-24 14:53:07.424917,-32
2021-12-24 14:53:07.424923,-60
2021-12-24 14:53:07.424930,-76
2021-12-24 14:53:07.424936,-97
2021-12-24 14:53:07.424942,-118
2021-12-24 14:53:07.424948,-121
2021-12-24 14:53:07.424954,-121
2021-12-24 14:53:07.424961,-130
2021-12-24 14:53:07.424967,-148
2021-12-24 14:53:07.424973,-158
2021-12-24 14:53:07.424979,-148
2021-12-24 14:53:07.424985,-137
2021-12-24 14:53:07.424992,-121
2021-12-24 14:53:07.650206,-109
2021-12-24 14:53:07.650236,-139
2021-12-24 14:53:07.650247,-176
2021-12-24 14:53:07.650257,-72
2021-12-24 14:53:07.650267,288
2021-12-24 14:53:07.650277,775
2021-12-24 14:53:07.650286,812
2021-12-24 14:53:07.650296,-109
2021-12-24 14:53:07.650306,-1040
2021-12-24 14:53:07.650315,-728
2021-12-24 14:53:07.650325,-53
2021-12-24 14:53:07.650334,-88
2021-12-24 14:53:07.650344,-207
2021-12-24 14:53:07.650353,-60
2021-12-24 14:53:07.650363,-44
2021-12-24 14:53:07.650373,-83
2021-12-24 14:53:07.650382,-18
2021-12-24 14:53:07.650392,20
2021-12-24 14:53:07.650402,4
2021-12-24 14:53:07.650411,16
2021-12-24 14:53:07.650421,48
2021-12-24 14:53:07.650430,65
2021-12-24 14:53:07.650440,93
2021-12-24 14:53:07.650449,132
2021-12-24 14:53:07.650459,158
2021-12-24 14:53:07.650469,181
2021-12-24 14:53:07.650478,225
2021-12-24 14:53:07.650488,267
2021-12-24 14:53:07.650497,297
2021-12-24 14:53:07.650507,339
2021-12-24 14:53:07.919483,363
2021-12-24 14:53:07.919505,365
2021-12-24 14:53:07.919513,360
2021-12-24 14:53:07.919519,323
2021-12-24 14:53:07.919525,272
2021-12-24 14:53:07.919532,237
2021-12-24 14:53:07.919538,172
2021-12-24 14:53:07.919544,81
2021-12-24 14:53:07.919550,23
2021-12-24 14:53:07.919557,-16
2021-12-24 14:53:07.919563,-55
2021-12-24 14:53:07.919569,-90
2021-12-24 14:53:07.919576,-137
2021-12-24 14:53:07.919582,-158
2021-12-24 14:53:07.919588,-141
2021-12-24 14:53:07.919594,-151
2021-12-24 14:53:07.919600,-195
2021-12-24 14:53:07.919607,-216
2021-12-24 14:53:07.919613,-197
2021-12-24 14:53:07.919656,-174
2021-12-24 14:53:07.919663,-162
2021-12-24 14:53:07.919669,-155
2021-12-24 14:53:07.919676,-141
2021-12-24 14:53:07.919682,-128
2021-12-24 14:53:07.919688,-118
2021-12-24 14:53:07.919694,-97
2021-12-24 14:53:07.919701,-79
2021-12-24 14:53:07.919707,-72
2021-12-24 14:53:07.919713,-58
2021-12-24 14:53:07.919719,-48
2021-12-24 14:53:08.099767,-48
2021-12-24 14:53:08.099809,-34
2021-12-24 14:53:08.099821,-20
2021-12-24 14:53:08.099831,-23
2021-12-24 14:53:08.099841,-23
2021-12-24 14:53:08.099850,-25
2021-12-24 14:53:08.099860,-39
2021-12-24 14:53:08.099870,-25
2021-12-24 14:53:08.099879,-6
2021-12-24 14:53:08.099889,-11
2021-12-24 14:53:08.099899,-18
2021-12-24 14:53:08.099908,-30
2021-12-24 14:53:08.099918,-44
2021-12-24 14:53:08.099928,-25
2021-12-24 14:53:08.099937,-6
2021-12-24 14:53:08.099947,-11
2021-12-24 14:53:08.099956,-25
2021-12-24 14:53:08.099966,-51
2021-12-24 14:53:08.099976,-76
2021-12-24 14:53:08.099985,-60
2021-12-24 14:53:08.099995,-25
2021-12-24 14:53:08.100004,-13
2021-12-24 14:53:08.100014,-27
2021-12-24 14:53:08.100023,-46
2021-12-24 14:53:08.100033,-58
2021-12-24 14:53:08.100043,-74
2021-12-24 14:53:08.100052,-93
2021-12-24 14:53:08.100062,-97
2021-12-24 14:53:08.100072,-95
2021-12-24 14:53:08.100081,-100
2021-12-24 14:53:08.414732,-95
2021-12-24 14:53:08.414750,-76
2021-12-24 14:53:08.414757,-69
2021-12-24 14:53:08.414762,-74
2021-12-24 14:53:08.414767,-86
2021-12-24 14:53:08.414773,-121
2021-12-24 14:53:08.414778,-144
2021-12-24 14:53:08.414783,-67
2021-12-24 14:53:08.414788,228
2021-12-24 14:53:08.414793,705
2021-12-24 14:53:08.414799,854
2021-12-24 14:53:08.414804,69
2021-12-24 14:53:08.414809,-933
2021-12-24 14:53:08.414814,-786
2021-12-24 14:53:08.414820,-76
2021-12-24 14:53:08.414825,-58
2021-12-24 14:53:08.414830,-223
2021-12-24 14:53:08.414835,-53
2021-12-24 14:53:08.414841,9
2021-12-24 14:53:08.414846,-48
2021-12-24 14:53:08.414851,0
2021-12-24 14:53:08.414856,41
2021-12-24 14:53:08.414862,-6
2021-12-24 14:53:08.414867,-23
2021-12-24 14:53:08.414872,25
2021-12-24 14:53:08.414877,67
2021-12-24 14:53:08.414883,86
2021-12-24 14:53:08.414888,107
2021-12-24 14:53:08.414893,132
2021-12-24 14:53:08.414899,169
2021-12-24 14:53:08.550275,225
2021-12-24 14:53:08.550296,276
2021-12-24 14:53:08.550303,318
2021-12-24 14:53:08.550310,339
2021-12-24 14:53:08.550316,344
2021-12-24 14:53:08.550323,353
2021-12-24 14:53:08.550329,372
2021-12-24 14:53:08.550335,372
2021-12-24 14:53:08.550341,344
2021-12-24 14:53:08.550347,276
2021-12-24 14:53:08.550353,188
2021-12-24 14:53:08.550359,121
2021-12-24 14:53:08.550366,74
2021-12-24 14:53:08.550372,23
2021-12-24 14:53:08.550378,-30
2021-12-24 14:53:08.550385,-88
2021-12-24 14:53:08.550391,-137
2021-12-24 14:53:08.550397,-144
2021-12-24 14:53:08.550403,-123
2021-12-24 14:53:08.550409,-114
2021-12-24 14:53:08.550416,-116
2021-12-24 14:53:08.550422,-125
2021-12-24 14:53:08.550428,-132
2021-12-24 14:53:08.550434,-111
2021-12-24 14:53:08.550440,-83
2021-12-24 14:53:08.550447,-74
2021-12-24 14:53:08.550453,-69
2021-12-24 14:53:08.550459,-69
2021-12-24 14:53:08.550465,-65
2021-12-24 14:53:08.550471,-44
2021-12-24 14:53:08.864802,-20
2021-12-24 14:53:08.864823,-4
2021-12-24 14:53:08.864830,-6
2021-12-24 14:53:08.864837,-37
2021-12-24 14:53:08.864843,-60
2021-12-24 14:53:08.864849,-37
2021-12-24 14:53:08.864856,-11
2021-12-24 14:53:08.864862,-6
2021-12-24 14:53:08.864868,-11
2021-12-24 14:53:08.864874,-39
2021-12-24 14:53:08.864881,-62
2021-12-24 14:53:08.864887,-60
2021-12-24 14:53:08.864893,-65
2021-12-24 14:53:08.864911,-65
2021-12-24 14:53:08.864918,-53
2021-12-24 14:53:08.864924,-62
2021-12-24 14:53:08.864930,-69
2021-12-24 14:53:08.864936,-67
2021-12-24 14:53:08.864943,-65
2021-12-24 14:53:08.864949,-58
2021-12-24 14:53:08.864955,-55
2021-12-24 14:53:08.864962,-81
2021-12-24 14:53:08.864968,-100
2021-12-24 14:53:08.864974,-90
2021-12-24 14:53:08.864981,-90
2021-12-24 14:53:08.864987,-102
2021-12-24 14:53:08.864993,-97
2021-12-24 14:53:08.864999,-125
2021-12-24 14:53:08.865006,-183
2021-12-24 14:53:08.865012,-186
2021-12-24 14:53:09.133527,-148
2021-12-24 14:53:09.133557,-125
2021-12-24 14:53:09.133569,-116
2021-12-24 14:53:09.133578,-114
2021-12-24 14:53:09.133588,-104
2021-12-24 14:53:09.133597,-86
2021-12-24 14:53:09.133607,-74
2021-12-24 14:53:09.133616,-76
2021-12-24 14:53:09.133626,-81
2021-12-24 14:53:09.133635,-83
2021-12-24 14:53:09.133645,-69
2021-12-24 14:53:09.133655,-51
2021-12-24 14:53:09.133664,-39
2021-12-24 14:53:09.133674,-53
2021-12-24 14:53:09.133683,-107
2021-12-24 14:53:09.133693,-134
2021-12-24 14:53:09.133702,-107
2021-12-24 14:53:09.133712,-88
2021-12-24 14:53:09.133721,-95
2021-12-24 14:53:09.133731,-11
2021-12-24 14:53:09.133741,283
2021-12-24 14:53:09.133751,747
2021-12-24 14:53:09.133760,937
2021-12-24 14:53:09.133770,218
2021-12-24 14:53:09.133780,-823
2021-12-24 14:53:09.133789,-758
2021-12-24 14:53:09.133799,-44
2021-12-24 14:53:09.133809,6
2021-12-24 14:53:09.133818,-165
2021-12-24 14:53:09.133828,4
2021-12-24 14:53:09.269545,81
2021-12-24 14:53:09.269561,13
2021-12-24 14:53:09.269567,39
2021-12-24 14:53:09.269572,79
2021-12-24 14:53:09.269577,74
2021-12-24 14:53:09.269582,97
2021-12-24 14:53:09.269587,134
2021-12-24 14:53:09.269592,130
2021-12-24 14:53:09.269597,118
2021-12-24 14:53:09.269602,137
2021-12-24 14:53:09.269608,176
2021-12-24 14:53:09.269613,211
2021-12-24 14:53:09.269618,253
2021-12-24 14:53:09.269623,274
2021-12-24 14:53:09.269632,279
2021-12-24 14:53:09.269637,295
2021-12-24 14:53:09.269642,311
2021-12-24 14:53:09.269647,325
2021-12-24 14:53:09.269652,344
2021-12-24 14:53:09.269657,332
2021-12-24 14:53:09.269662,288
2021-12-24 14:53:09.269667,251
2021-12-24 14:53:09.269672,209
2021-12-24 14:53:09.269677,153
2021-12-24 14:53:09.269682,93
2021-12-24 14:53:09.269687,30
2021-12-24 14:53:09.269692,-23
2021-12-24 14:53:09.269700,-60
2021-12-24 14:53:09.269705,-79
2021-12-24 14:53:09.269710,-79
2021-12-24 14:53:09.495008,-76
2021-12-24 14:53:09.495038,-86
2021-12-24 14:53:09.495050,-102
2021-12-24 14:53:09.495060,-132
2021-12-24 14:53:09.495070,-160
2021-12-24 14:53:09.495080,-141
2021-12-24 14:53:09.495090,-121
2021-12-24 14:53:09.495099,-148
2021-12-24 14:53:09.495109,-160
2021-12-24 14:53:09.495118,-134
2021-12-24 14:53:09.495128,-116
2021-12-24 14:53:09.495138,-107
2021-12-24 14:53:09.495148,-102
2021-12-24 14:53:09.495157,-116
2021-12-24 14:53:09.495167,-116
2021-12-24 14:53:09.495177,-100
2021-12-24 14:53:09.495186,-88
2021-12-24 14:53:09.495196,-107
2021-12-24 14:53:09.495206,-144
2021-12-24 14:53:09.495216,-153
2021-12-24 14:53:09.495226,-132
2021-12-24 14:53:09.495235,-134
2021-12-24 14:53:09.495245,-155
2021-12-24 14:53:09.495255,-155
2021-12-24 14:53:09.495265,-160
2021-12-24 14:53:09.495274,-181
2021-12-24 14:53:09.495284,-179
2021-12-24 14:53:09.495294,-165
2021-12-24 14:53:09.495303,-158
2021-12-24 14:53:09.495313,-146
2021-12-24 14:53:09.719827,-139
2021-12-24 14:53:09.719858,-137
2021-12-24 14:53:09.719869,-128
2021-12-24 14:53:09.719879,-121
2021-12-24 14:53:09.719889,-123
2021-12-24 14:53:09.719899,-125
2021-12-24 14:53:09.719908,-139
2021-12-24 14:53:09.719918,-134
2021-12-24 14:53:09.719928,-97
2021-12-24 14:53:09.719937,-74
2021-12-24 14:53:09.719947,-69
2021-12-24 14:53:09.719957,-60
2021-12-24 14:53:09.719966,-81
2021-12-24 14:53:09.719976,-107
2021-12-24 14:53:09.719986,-90
2021-12-24 14:53:09.719995,-69
2021-12-24 14:53:09.720005,-62
2021-12-24 14:53:09.720015,-55
2021-12-24 14:53:09.720024,-53
2021-12-24 14:53:09.720034,-65
2021-12-24 14:53:09.720044,-76
2021-12-24 14:53:09.720053,-74
2021-12-24 14:53:09.720063,-55
2021-12-24 14:53:09.720073,-58
2021-12-24 14:53:09.720082,-76
2021-12-24 14:53:09.720092,23
2021-12-24 14:53:09.720102,363
2021-12-24 14:53:09.720111,833
2021-12-24 14:53:09.720121,926
2021-12-24 14:53:09.720131,128
2021-12-24 14:53:09.944542,-809
2021-12-24 14:53:09.944560,-605
2021-12-24 14:53:09.944567,76
2021-12-24 14:53:09.944575,65
2021-12-24 14:53:09.944583,-95
2021-12-24 14:53:09.944591,18
2021-12-24 14:53:09.944599,16
2021-12-24 14:53:09.944608,-32
2021-12-24 14:53:09.944619,27
2021-12-24 14:53:09.944659,30
2021-12-24 14:53:09.944669,-27
2021-12-24 14:53:09.944679,-25
2021-12-24 14:53:09.944687,-2
2021-12-24 14:53:09.944695,11
2021-12-24 14:53:09.944704,48
2021-12-24 14:53:09.944741,86
2021-12-24 14:53:09.944760,109
2021-12-24 14:53:09.944770,146
2021-12-24 14:53:09.944778,197
2021-12-24 14:53:09.944808,265
2021-12-24 14:53:09.944817,346
2021-12-24 14:53:09.944822,386
2021-12-24 14:53:09.944827,374
2021-12-24 14:53:09.944832,370
2021-12-24 14:53:09.944837,379
2021-12-24 14:53:09.944842,381
2021-12-24 14:53:09.944847,356
2021-12-24 14:53:09.944852,302
2021-12-24 14:53:09.944857,235
2021-12-24 14:53:09.944862,165
2021-12-24 14:53:10.304289,107
2021-12-24 14:53:10.304308,55
2021-12-24 14:53:10.304315,4
2021-12-24 14:53:10.304322,-37
2021-12-24 14:53:10.304328,-69
2021-12-24 14:53:10.304335,-102
2021-12-24 14:53:10.304341,-111
2021-12-24 14:53:10.304347,-90
2021-12-24 14:53:10.304354,-81
2021-12-24 14:53:10.304360,-86
2021-12-24 14:53:10.304366,-97
2021-12-24 14:53:10.304373,-104
2021-12-24 14:53:10.304379,-88
2021-12-24 14:53:10.304385,-65
2021-12-24 14:53:10.304392,-62
2021-12-24 14:53:10.304398,-58
2021-12-24 14:53:10.304404,-53
2021-12-24 14:53:10.304410,-53
2021-12-24 14:53:10.304417,-39
2021-12-24 14:53:10.304423,-30
2021-12-24 14:53:10.304430,-44
2021-12-24 14:53:10.304436,-55
2021-12-24 14:53:10.304442,-51
2021-12-24 14:53:10.304448,-67
2021-12-24 14:53:10.304455,-104
2021-12-24 14:53:10.304461,-114
2021-12-24 14:53:10.304467,-109
2021-12-24 14:53:10.304474,-132
2021-12-24 14:53:10.304480,-151
2021-12-24 14:53:10.304486,-144
2021-12-24 14:53:10.394944,-134
2021-12-24 14:53:10.394966,-134
2021-12-24 14:53:10.394973,-132
2021-12-24 14:53:10.394980,-130
2021-12-24 14:53:10.394986,-111
2021-12-24 14:53:10.394992,-74
2021-12-24 14:53:10.394998,-51
2021-12-24 14:53:10.395004,-46
2021-12-24 14:53:10.395011,-46
2021-12-24 14:53:10.395017,-65
2021-12-24 14:53:10.395023,-95
2021-12-24 14:53:10.395029,-90
2021-12-24 14:53:10.395036,-62
2021-12-24 14:53:10.395042,-46
2021-12-24 14:53:10.395048,-44
2021-12-24 14:53:10.395054,-65
2021-12-24 14:53:10.395060,-100
2021-12-24 14:53:10.395066,-93
2021-12-24 14:53:10.395072,-55
2021-12-24 14:53:10.395079,-44
2021-12-24 14:53:10.395085,-60
2021-12-24 14:53:10.395091,-81
2021-12-24 14:53:10.395097,18
2021-12-24 14:53:10.395103,386
2021-12-24 14:53:10.395110,865
2021-12-24 14:53:10.395116,828
2021-12-24 14:53:10.395122,-132
2021-12-24 14:53:10.395128,-982
2021-12-24 14:53:10.395134,-607
2021-12-24 14:53:10.395141,20
2021-12-24 14:53:10.664998,-55
2021-12-24 14:53:10.665027,-137
2021-12-24 14:53:10.665039,39
2021-12-24 14:53:10.665049,16
2021-12-24 14:53:10.665058,-65
2021-12-24 14:53:10.665068,11
2021-12-24 14:53:10.665077,65
2021-12-24 14:53:10.665086,58
2021-12-24 14:53:10.665096,76
2021-12-24 14:53:10.665105,76
2021-12-24 14:53:10.665114,62
2021-12-24 14:53:10.665124,100
2021-12-24 14:53:10.665133,153
2021-12-24 14:53:10.665142,183
2021-12-24 14:53:10.665152,221
2021-12-24 14:53:10.665162,251
2021-12-24 14:53:10.665171,288
2021-12-24 14:53:10.665180,339
2021-12-24 14:53:10.665190,386
2021-12-24 14:53:10.665199,416
2021-12-24 14:53:10.665209,428
2021-12-24 14:53:10.665218,414
2021-12-24 14:53:10.665227,393
2021-12-24 14:53:10.665237,367
2021-12-24 14:53:10.665246,318
2021-12-24 14:53:10.665256,251
2021-12-24 14:53:10.665265,181
2021-12-24 14:53:10.665275,100
2021-12-24 14:53:10.665284,16
2021-12-24 14:53:10.665294,-23
2021-12-24 14:53:10.934480,-34
2021-12-24 14:53:10.934502,-51
2021-12-24 14:53:10.934510,-72
2021-12-24 14:53:10.934516,-90
2021-12-24 14:53:10.934523,-86
2021-12-24 14:53:10.934573,-67
2021-12-24 14:53:10.934581,-53
2021-12-24 14:53:10.934587,-44
2021-12-24 14:53:10.934593,-58
2021-12-24 14:53:10.934599,-86
2021-12-24 14:53:10.934606,-76
2021-12-24 14:53:10.934612,-48
2021-12-24 14:53:10.934619,-39
2021-12-24 14:53:10.934625,-37
2021-12-24 14:53:10.934631,-53
2021-12-24 14:53:10.934637,-83
2021-12-24 14:53:10.934644,-69
2021-12-24 14:53:10.934650,-37
2021-12-24 14:53:10.934656,-27
2021-12-24 14:53:10.934662,-20
2021-12-24 14:53:10.934669,-27
2021-12-24 14:53:10.934675,-67
2021-12-24 14:53:10.934681,-83
2021-12-24 14:53:10.934687,-58
2021-12-24 14:53:10.934693,-41
2021-12-24 14:53:10.934700,-46
2021-12-24 14:53:10.934706,-53
2021-12-24 14:53:10.934712,-60
2021-12-24 14:53:10.934719,-69
2021-12-24 14:53:10.934725,-79
2021-12-24 14:53:11.158957,-90
2021-12-24 14:53:11.158991,-97
2021-12-24 14:53:11.158999,-121
2021-12-24 14:53:11.159005,-144
2021-12-24 14:53:11.159011,-144
2021-12-24 14:53:11.159017,-146
2021-12-24 14:53:11.159024,-158
2021-12-24 14:53:11.159030,-158
2021-12-24 14:53:11.159036,-165
2021-12-24 14:53:11.159042,-169
2021-12-24 14:53:11.159048,-139
2021-12-24 14:53:11.159055,-100
2021-12-24 14:53:11.159061,-83
2021-12-24 14:53:11.159067,-97
2021-12-24 14:53:11.159073,-125
2021-12-24 14:53:11.159079,-137
2021-12-24 14:53:11.159085,-123
2021-12-24 14:53:11.159092,-104
2021-12-24 14:53:11.159098,-97
2021-12-24 14:53:11.159133,-111
2021-12-24 14:53:11.159143,-132
2021-12-24 14:53:11.159149,-125
2021-12-24 14:53:11.159155,-102
2021-12-24 14:53:11.159162,-86
2021-12-24 14:53:11.159168,-67
2021-12-24 14:53:11.159174,-62
2021-12-24 14:53:11.159180,-83
2021-12-24 14:53:11.159187,-93
2021-12-24 14:53:11.159193,18
2021-12-24 14:53:11.159199,367
2021-12-24 14:53:11.339758,858
2021-12-24 14:53:11.339782,924
2021-12-24 14:53:11.339789,13
2021-12-24 14:53:11.339807,-944
2021-12-24 14:53:11.339815,-651
2021-12-24 14:53:11.339821,34
2021-12-24 14:53:11.339827,-11
2021-12-24 14:53:11.339833,-151
2021-12-24 14:53:11.339839,11
2021-12-24 14:53:11.339846,41
2021-12-24 14:53:11.339852,-13
2021-12-24 14:53:11.339858,46
2021-12-24 14:53:11.339864,76
2021-12-24 14:53:11.339870,30
2021-12-24 14:53:11.339876,39
2021-12-24 14:53:11.339882,83
2021-12-24 14:53:11.339888,100
2021-12-24 14:53:11.339895,125
2021-12-24 14:53:11.339901,162
2021-12-24 14:53:11.339907,183
2021-12-24 14:53:11.339913,207
2021-12-24 14:53:11.339919,253
2021-12-24 14:53:11.339925,295
2021-12-24 14:53:11.339931,332
2021-12-24 14:53:11.339937,365
2021-12-24 14:53:11.339944,386
2021-12-24 14:53:11.339950,381
2021-12-24 14:53:11.339956,337
2021-12-24 14:53:11.339962,290
2021-12-24 14:53:11.339968,281
2021-12-24 14:53:11.655273,253
2021-12-24 14:53:11.655303,188
2021-12-24 14:53:11.655315,125
2021-12-24 14:53:11.655324,58
2021-12-24 14:53:11.655334,-20
2021-12-24 14:53:11.655344,-83
2021-12-24 14:53:11.655353,-130
2021-12-24 14:53:11.655363,-167
2021-12-24 14:53:11.655373,-172
2021-12-24 14:53:11.655382,-169
2021-12-24 14:53:11.655392,-167
2021-12-24 14:53:11.655401,-158
2021-12-24 14:53:11.655411,-169
2021-12-24 14:53:11.655420,-172
2021-12-24 14:53:11.655430,-148
2021-12-24 14:53:11.655439,-134
2021-12-24 14:53:11.655449,-125
2021-12-24 14:53:11.655459,-107
2021-12-24 14:53:11.655468,-102
2021-12-24 14:53:11.655477,-97
2021-12-24 14:53:11.655487,-76
2021-12-24 14:53:11.655496,-69
2021-12-24 14:53:11.655506,-62
2021-12-24 14:53:11.655515,-48
2021-12-24 14:53:11.655525,-44
2021-12-24 14:53:11.655534,-37
2021-12-24 14:53:11.655544,-25
2021-12-24 14:53:11.655553,-25
2021-12-24 14:53:11.655563,-27
2021-12-24 14:53:11.655572,-20
2021-12-24 14:53:11.834796,-18
2021-12-24 14:53:11.834826,-11
2021-12-24 14:53:11.834837,2
2021-12-24 14:53:11.834847,4
2021-12-24 14:53:11.834857,9
2021-12-24 14:53:11.834866,13
2021-12-24 14:53:11.834876,-2
2021-12-24 14:53:11.834885,-23
2021-12-24 14:53:11.834894,-30
2021-12-24 14:53:11.834904,-32
2021-12-24 14:53:11.834913,-27
2021-12-24 14:53:11.834923,-34
2021-12-24 14:53:11.834932,-55
2021-12-24 14:53:11.834942,-69
2021-12-24 14:53:11.834951,-74
2021-12-24 14:53:11.834961,-90
2021-12-24 14:53:11.834970,-121
2021-12-24 14:53:11.834980,-155
2021-12-24 14:53:11.834989,-165
2021-12-24 14:53:11.834999,-125
2021-12-24 14:53:11.835008,-86
2021-12-24 14:53:11.835018,-83
2021-12-24 14:53:11.835027,-95
2021-12-24 14:53:11.835036,-109
2021-12-24 14:53:11.835046,-118
2021-12-24 14:53:11.835055,-107
2021-12-24 14:53:11.835064,-97
2021-12-24 14:53:11.835074,-102
2021-12-24 14:53:11.835083,-102
2021-12-24 14:53:11.835093,-93
2021-12-24 14:53:12.060244,-86
2021-12-24 14:53:12.060274,-69
2021-12-24 14:53:12.060286,-65
2021-12-24 14:53:12.060295,-104
2021-12-24 14:53:12.060305,-139
2021-12-24 14:53:12.060315,-128
2021-12-24 14:53:12.060324,-123
2021-12-24 14:53:12.060334,-72
2021-12-24 14:53:12.060343,188
2021-12-24 14:53:12.060353,651
2021-12-24 14:53:12.060362,910
2021-12-24 14:53:12.060372,307
2021-12-24 14:53:12.060382,-770
2021-12-24 14:53:12.060391,-870
2021-12-24 14:53:12.060401,-139
2021-12-24 14:53:12.060411,6
2021-12-24 14:53:12.060420,-216
2021-12-24 14:53:12.060430,-107
2021-12-24 14:53:12.060439,0
2021-12-24 14:53:12.060449,-46
2021-12-24 14:53:12.060458,-18
2021-12-24 14:53:12.060468,37
2021-12-24 14:53:12.060478,25
2021-12-24 14:53:12.060487,37
2021-12-24 14:53:12.060497,79
2021-12-24 14:53:12.060506,104
2021-12-24 14:53:12.060516,125
2021-12-24 14:53:12.060525,148
2021-12-24 14:53:12.060535,169
2021-12-24 14:53:12.060544,202
2021-12-24 14:53:12.240377,251
2021-12-24 14:53:12.240406,297
2021-12-24 14:53:12.240417,335
2021-12-24 14:53:12.240427,358
2021-12-24 14:53:12.240436,356
2021-12-24 14:53:12.240445,351
2021-12-24 14:53:12.240455,367
2021-12-24 14:53:12.240464,372
2021-12-24 14:53:12.240473,353
2021-12-24 14:53:12.240483,309
2021-12-24 14:53:12.240492,237
2021-12-24 14:53:12.240502,162
2021-12-24 14:53:12.240511,111
2021-12-24 14:53:12.240521,67
2021-12-24 14:53:12.240530,18
2021-12-24 14:53:12.240540,-39
2021-12-24 14:53:12.240549,-93
2021-12-24 14:53:12.240559,-104
2021-12-24 14:53:12.240568,-86
2021-12-24 14:53:12.240578,-76
2021-12-24 14:53:12.240587,-76
2021-12-24 14:53:12.240597,-81
2021-12-24 14:53:12.240606,-81
2021-12-24 14:53:12.240616,-69
2021-12-24 14:53:12.240625,-48
2021-12-24 14:53:12.240635,-30
2021-12-24 14:53:12.240644,-20
2021-12-24 14:53:12.240654,-25
2021-12-24 14:53:12.240663,-25
2021-12-24 14:53:12.240672,-9
2021-12-24 14:53:12.599829,9
2021-12-24 14:53:12.599860,18
2021-12-24 14:53:12.599871,16
2021-12-24 14:53:12.599881,-16
2021-12-24 14:53:12.599891,-37
2021-12-24 14:53:12.599901,-16
2021-12-24 14:53:12.599910,6
2021-12-24 14:53:12.599920,2
2021-12-24 14:53:12.599929,-39
2021-12-24 14:53:12.599939,-109
2021-12-24 14:53:12.599948,-125
2021-12-24 14:53:12.599957,-97
2021-12-24 14:53:12.599967,-116
2021-12-24 14:53:12.599976,-144
2021-12-24 14:53:12.599986,-132
2021-12-24 14:53:12.599995,-134
2021-12-24 14:53:12.600005,-160
2021-12-24 14:53:12.600014,-160
2021-12-24 14:53:12.600024,-144
2021-12-24 14:53:12.600033,-144
2021-12-24 14:53:12.600043,-162
2021-12-24 14:53:12.600052,-169
2021-12-24 14:53:12.600062,-158
2021-12-24 14:53:12.600071,-144
2021-12-24 14:53:12.600080,-134
2021-12-24 14:53:12.600090,-128
2021-12-24 14:53:12.600099,-125
2021-12-24 14:53:12.600109,-121
2021-12-24 14:53:12.600118,-93
2021-12-24 14:53:12.600128,-62
2021-12-24 14:53:12.780293,-48
2021-12-24 14:53:12.780323,-39
2021-12-24 14:53:12.780335,-44
2021-12-24 14:53:12.780345,-69
2021-12-24 14:53:12.780354,-76
2021-12-24 14:53:12.780364,-46
2021-12-24 14:53:12.780373,-25
2021-12-24 14:53:12.780383,-20
2021-12-24 14:53:12.780393,-30
2021-12-24 14:53:12.780402,-48
2021-12-24 14:53:12.780412,-44
2021-12-24 14:53:12.780422,-16
2021-12-24 14:53:12.780431,4
2021-12-24 14:53:12.780441,-2
2021-12-24 14:53:12.780451,-46
2021-12-24 14:53:12.780460,-13
2021-12-24 14:53:12.780470,244
2021-12-24 14:53:12.780479,691
2021-12-24 14:53:12.780489,944
2021-12-24 14:53:12.780499,425
2021-12-24 14:53:12.780509,-591
2021-12-24 14:53:12.780518,-758
2021-12-24 14:53:12.780528,-60
2021-12-24 14:53:12.780537,137
2021-12-24 14:53:12.780547,-69
2021-12-24 14:53:12.780557,32
2021-12-24 14:53:12.780566,109
2021-12-24 14:53:12.780576,16
2021-12-24 14:53:12.780585,46
2021-12-24 14:53:12.780595,121
2021-12-24 14:53:12.959741,114
2021-12-24 14:53:12.959760,123
2021-12-24 14:53:12.959766,148
2021-12-24 14:53:12.959772,144
2021-12-24 14:53:12.959777,162
2021-12-24 14:53:12.959782,209
2021-12-24 14:53:12.959786,239
2021-12-24 14:53:12.959791,244
2021-12-24 14:53:12.959796,246
2021-12-24 14:53:12.959801,269
2021-12-24 14:53:12.959806,316
2021-12-24 14:53:12.959811,360
2021-12-24 14:53:12.959816,388
2021-12-24 14:53:12.959821,379
2021-12-24 14:53:12.959826,335
2021-12-24 14:53:12.959831,307
2021-12-24 14:53:12.959835,286
2021-12-24 14:53:12.959840,242
2021-12-24 14:53:12.959845,190
2021-12-24 14:53:12.959850,116
2021-12-24 14:53:12.959855,18
2021-12-24 14:53:12.959860,-39
2021-12-24 14:53:12.959865,-65
2021-12-24 14:53:12.959870,-93
2021-12-24 14:53:12.959875,-121
2021-12-24 14:53:12.959880,-144
2021-12-24 14:53:12.959884,-148
2021-12-24 14:53:12.959889,-132
2021-12-24 14:53:12.959894,-118
2021-12-24 14:53:12.959899,-102
2021-12-24 14:53:13.228176,-86
2021-12-24 14:53:13.228198,-81
2021-12-24 14:53:13.228206,-81
2021-12-24 14:53:13.228213,-74
2021-12-24 14:53:13.228219,-60
2021-12-24 14:53:13.228225,-44
2021-12-24 14:53:13.228232,-41
2021-12-24 14:53:13.228238,-67
2021-12-24 14:53:13.228244,-81
2021-12-24 14:53:13.228250,-58
2021-12-24 14:53:13.228257,-41
2021-12-24 14:53:13.228263,-34
2021-12-24 14:53:13.228269,-39
2021-12-24 14:53:13.228275,-60
2021-12-24 14:53:13.228281,-69
2021-12-24 14:53:13.228288,-53
2021-12-24 14:53:13.228294,-34
2021-12-24 14:53:13.228300,-37
2021-12-24 14:53:13.228306,-62
2021-12-24 14:53:13.228313,-83
2021-12-24 14:53:13.228319,-67
2021-12-24 14:53:13.228325,-55
2021-12-24 14:53:13.228332,-53
2021-12-24 14:53:13.228338,-44
2021-12-24 14:53:13.228344,-53
2021-12-24 14:53:13.228350,-72
2021-12-24 14:53:13.228356,-67
2021-12-24 14:53:13.228363,-58
2021-12-24 14:53:13.228369,-67
2021-12-24 14:53:13.228375,-81
2021-12-24 14:53:13.499382,-90
2021-12-24 14:53:13.499409,-104
2021-12-24 14:53:13.499420,-116
2021-12-24 14:53:13.499430,-123
2021-12-24 14:53:13.499439,-123
2021-12-24 14:53:13.499449,-118
2021-12-24 14:53:13.499458,-144
2021-12-24 14:53:13.499468,-172
2021-12-24 14:53:13.499477,-148
2021-12-24 14:53:13.499487,-111
2021-12-24 14:53:13.499497,-88
2021-12-24 14:53:13.499506,-83
2021-12-24 14:53:13.499516,-104
2021-12-24 14:53:13.499525,-121
2021-12-24 14:53:13.499535,-107
2021-12-24 14:53:13.499544,-107
2021-12-24 14:53:13.499554,-107
2021-12-24 14:53:13.499564,-93
2021-12-24 14:53:13.499573,-114
2021-12-24 14:53:13.499583,-202
2021-12-24 14:53:13.499593,-290
2021-12-24 14:53:13.499602,-300
2021-12-24 14:53:13.499612,-265
2021-12-24 14:53:13.499621,-249
2021-12-24 14:53:13.499631,-242
2021-12-24 14:53:13.499640,-225
2021-12-24 14:53:13.499650,-202
2021-12-24 14:53:13.499660,-65
2021-12-24 14:53:13.499669,307
2021-12-24 14:53:13.499679,747
2021-12-24 14:53:13.634811,712
2021-12-24 14:53:13.634841,-97
2021-12-24 14:53:13.634852,-800
2021-12-24 14:53:13.634862,-456
2021-12-24 14:53:13.634872,93
2021-12-24 14:53:13.634881,-9
2021-12-24 14:53:13.634891,-121
2021-12-24 14:53:13.634900,41
2021-12-24 14:53:13.634910,60
2021-12-24 14:53:13.634919,-6
2021-12-24 14:53:13.634929,41
2021-12-24 14:53:13.634938,79
2021-12-24 14:53:13.634948,51
2021-12-24 14:53:13.634957,67
2021-12-24 14:53:13.634967,116
2021-12-24 14:53:13.634976,123
2021-12-24 14:53:13.634985,134
2021-12-24 14:53:13.634995,165
2021-12-24 14:53:13.635004,188
2021-12-24 14:53:13.635014,223
2021-12-24 14:53:13.635023,260
2021-12-24 14:53:13.635033,288
2021-12-24 14:53:13.635042,302
2021-12-24 14:53:13.635052,300
2021-12-24 14:53:13.635061,311
2021-12-24 14:53:13.635071,342
2021-12-24 14:53:13.635080,349
2021-12-24 14:53:13.635090,332
2021-12-24 14:53:13.635099,309
2021-12-24 14:53:13.635109,272
2021-12-24 14:53:13.859912,221
2021-12-24 14:53:13.859942,172
2021-12-24 14:53:13.859954,125
2021-12-24 14:53:13.859964,60
2021-12-24 14:53:13.859973,-11
2021-12-24 14:53:13.859983,-72
2021-12-24 14:53:13.859993,-95
2021-12-24 14:53:13.860002,-88
2021-12-24 14:53:13.860012,-86
2021-12-24 14:53:13.860022,-97
2021-12-24 14:53:13.860031,-111
2021-12-24 14:53:13.860041,-121
2021-12-24 14:53:13.860051,-107
2021-12-24 14:53:13.860060,-83
2021-12-24 14:53:13.860070,-76
2021-12-24 14:53:13.860079,-72
2021-12-24 14:53:13.860089,-67
2021-12-24 14:53:13.860098,-62
2021-12-24 14:53:13.860108,-46
2021-12-24 14:53:13.860117,-30
2021-12-24 14:53:13.860127,-25
2021-12-24 14:53:13.860136,-27
2021-12-24 14:53:13.860146,-27
2021-12-24 14:53:13.860156,-30
2021-12-24 14:53:13.860165,-46
2021-12-24 14:53:13.860175,-88
2021-12-24 14:53:13.860184,-130
2021-12-24 14:53:13.860194,-128
2021-12-24 14:53:13.860203,-107
2021-12-24 14:53:13.860213,-111
2021-12-24 14:53:14.085250,-123
2021-12-24 14:53:14.085280,-118
2021-12-24 14:53:14.085291,-111
2021-12-24 14:53:14.085301,-125
2021-12-24 14:53:14.085311,-165
2021-12-24 14:53:14.085321,-193
2021-12-24 14:53:14.085330,-179
2021-12-24 14:53:14.085340,-174
2021-12-24 14:53:14.085431,-193
2021-12-24 14:53:14.085443,-204
2021-12-24 14:53:14.085453,-225
2021-12-24 14:53:14.085462,-232
2021-12-24 14:53:14.085472,-211
2021-12-24 14:53:14.085482,-195
2021-12-24 14:53:14.085492,-176
2021-12-24 14:53:14.085501,-153
2021-12-24 14:53:14.085511,-134
2021-12-24 14:53:14.085521,-118
2021-12-24 14:53:14.085531,-102
2021-12-24 14:53:14.085540,-97
2021-12-24 14:53:14.085550,-107
2021-12-24 14:53:14.085560,-109
2021-12-24 14:53:14.085570,-104
2021-12-24 14:53:14.085579,-83
2021-12-24 14:53:14.085589,-58
2021-12-24 14:53:14.085599,-55
2021-12-24 14:53:14.085609,-74
2021-12-24 14:53:14.085618,-102
2021-12-24 14:53:14.085628,-100
2021-12-24 14:53:14.085638,-65
2021-12-24 14:53:14.355301,-48
2021-12-24 14:53:14.355331,-55
2021-12-24 14:53:14.355343,-44
2021-12-24 14:53:14.355353,86
2021-12-24 14:53:14.355363,430
2021-12-24 14:53:14.355372,791
2021-12-24 14:53:14.355382,530
2021-12-24 14:53:14.355392,-418
2021-12-24 14:53:14.355401,-851
2021-12-24 14:53:14.355411,-288
2021-12-24 14:53:14.355420,69
2021-12-24 14:53:14.355430,-97
2021-12-24 14:53:14.355440,-53
2021-12-24 14:53:14.355449,95
2021-12-24 14:53:14.355459,48
2021-12-24 14:53:14.355469,23
2021-12-24 14:53:14.355548,83
2021-12-24 14:53:14.355573,102
2021-12-24 14:53:14.355584,109
2021-12-24 14:53:14.355594,141
2021-12-24 14:53:14.355604,155
2021-12-24 14:53:14.355613,153
2021-12-24 14:53:14.355623,181
2021-12-24 14:53:14.355632,223
2021-12-24 14:53:14.355642,258
2021-12-24 14:53:14.355651,297
2021-12-24 14:53:14.355661,328
2021-12-24 14:53:14.355670,337
2021-12-24 14:53:14.355680,346
2021-12-24 14:53:14.355689,367
2021-12-24 14:53:14.579838,379
2021-12-24 14:53:14.579860,356
2021-12-24 14:53:14.579867,300
2021-12-24 14:53:14.579874,263
2021-12-24 14:53:14.579881,246
2021-12-24 14:53:14.579887,214
2021-12-24 14:53:14.579894,165
2021-12-24 14:53:14.579900,109
2021-12-24 14:53:14.579906,30
2021-12-24 14:53:14.579913,-55
2021-12-24 14:53:14.579919,-97
2021-12-24 14:53:14.579926,-97
2021-12-24 14:53:14.579932,-97
2021-12-24 14:53:14.579938,-109
2021-12-24 14:53:14.579945,-134
2021-12-24 14:53:14.579951,-160
2021-12-24 14:53:14.579958,-139
2021-12-24 14:53:14.579964,-107
2021-12-24 14:53:14.579971,-100
2021-12-24 14:53:14.579977,-95
2021-12-24 14:53:14.579984,-90
2021-12-24 14:53:14.579990,-90
2021-12-24 14:53:14.579996,-74
2021-12-24 14:53:14.580003,-48
2021-12-24 14:53:14.580009,-27
2021-12-24 14:53:14.580016,-18
2021-12-24 14:53:14.580022,-34
2021-12-24 14:53:14.580028,-62
2021-12-24 14:53:14.580035,-58
2021-12-24 14:53:14.580041,-34
2021-12-24 14:53:14.849681,-51
2021-12-24 14:53:14.849712,-97
2021-12-24 14:53:14.849723,-125
2021-12-24 14:53:14.849733,-130
2021-12-24 14:53:14.849743,-141
2021-12-24 14:53:14.849752,-148
2021-12-24 14:53:14.849762,-139
2021-12-24 14:53:14.849772,-148
2021-12-24 14:53:14.849781,-183
2021-12-24 14:53:14.849791,-188
2021-12-24 14:53:14.849801,-160
2021-12-24 14:53:14.849810,-146
2021-12-24 14:53:14.849820,-137
2021-12-24 14:53:14.849830,-139
2021-12-24 14:53:14.849839,-169
2021-12-24 14:53:14.849849,-169
2021-12-24 14:53:14.849858,-139
2021-12-24 14:53:14.849868,-128
2021-12-24 14:53:14.849878,-128
2021-12-24 14:53:14.849887,-121
