Time,ECG
2021-12-24 16:08:05.255672,58
2021-12-24 16:08:05.255702,84
2021-12-24 16:08:05.255714,108
2021-12-24 16:08:05.255724,68
2021-12-24 16:08:05.255734,51
2021-12-24 16:08:05.255745,58
2021-12-24 16:08:05.255755,51
2021-12-24 16:08:05.255765,40
2021-12-24 16:08:05.255774,30
2021-12-24 16:08:05.255785,16
2021-12-24 16:08:05.255795,2
2021-12-24 16:08:05.255804,-9
2021-12-24 16:08:05.255814,-25
2021-12-24 16:08:05.255824,-37
2021-12-24 16:08:05.255833,-61
2021-12-24 16:08:05.255843,-101
2021-12-24 16:08:05.255853,-131
2021-12-24 16:08:05.255863,-150
2021-12-24 16:08:05.255873,-174
2021-12-24 16:08:05.255883,-186
2021-12-24 16:08:05.255892,-190
2021-12-24 16:08:05.255902,-193
2021-12-24 16:08:05.255912,-193
2021-12-24 16:08:05.255922,-179
2021-12-24 16:08:05.255932,-143
2021-12-24 16:08:05.255941,-89
2021-12-24 16:08:05.255952,-32
2021-12-24 16:08:05.255962,23
2021-12-24 16:08:05.255971,77
2021-12-24 16:08:05.255981,110
2021-12-24 16:08:05.569447,134
2021-12-24 16:08:05.569467,155
2021-12-24 16:08:05.569474,160
2021-12-24 16:08:05.569481,148
2021-12-24 16:08:05.569487,143
2021-12-24 16:08:05.569494,150
2021-12-24 16:08:05.569501,150
2021-12-24 16:08:05.569508,143
2021-12-24 16:08:05.569514,136
2021-12-24 16:08:05.569520,124
2021-12-24 16:08:05.569527,120
2021-12-24 16:08:05.569533,124
2021-12-24 16:08:05.569539,124
2021-12-24 16:08:05.569545,117
2021-12-24 16:08:05.569551,110
2021-12-24 16:08:05.569558,108
2021-12-24 16:08:05.569564,110
2021-12-24 16:08:05.569571,108
2021-12-24 16:08:05.569577,103
2021-12-24 16:08:05.569583,98
2021-12-24 16:08:05.569589,96
2021-12-24 16:08:05.569596,94
2021-12-24 16:08:05.569602,101
2021-12-24 16:08:05.569608,106
2021-12-24 16:08:05.569614,101
2021-12-24 16:08:05.569621,98
2021-12-24 16:08:05.569627,106
2021-12-24 16:08:05.569633,103
2021-12-24 16:08:05.569639,98
2021-12-24 16:08:05.569648,106
2021-12-24 16:08:05.705404,103
2021-12-24 16:08:05.705426,89
2021-12-24 16:08:05.705433,68
2021-12-24 16:08:05.705440,47
2021-12-24 16:08:05.705446,42
2021-12-24 16:08:05.705452,63
2021-12-24 16:08:05.705459,84
2021-12-24 16:08:05.705465,94
2021-12-24 16:08:05.705471,94
2021-12-24 16:08:05.705477,89
2021-12-24 16:08:05.705484,94
2021-12-24 16:08:05.705490,106
2021-12-24 16:08:05.705496,103
2021-12-24 16:08:05.705507,91
2021-12-24 16:08:05.705514,84
2021-12-24 16:08:05.705520,89
2021-12-24 16:08:05.705526,127
2021-12-24 16:08:05.705533,25
2021-12-24 16:08:05.705539,-435
2021-12-24 16:08:05.705545,-890
2021-12-24 16:08:05.705552,-574
2021-12-24 16:08:05.705558,263
2021-12-24 16:08:05.705564,457
2021-12-24 16:08:05.705570,87
2021-12-24 16:08:05.705577,68
2021-12-24 16:08:05.705583,188
2021-12-24 16:08:05.705589,94
2021-12-24 16:08:05.705595,61
2021-12-24 16:08:05.705602,113
2021-12-24 16:08:05.705610,91
2021-12-24 16:08:05.929626,61
2021-12-24 16:08:05.929645,68
2021-12-24 16:08:05.929653,58
2021-12-24 16:08:05.929660,42
2021-12-24 16:08:05.929666,44
2021-12-24 16:08:05.929672,42
2021-12-24 16:08:05.929679,14
2021-12-24 16:08:05.929685,-7
2021-12-24 16:08:05.929692,-14
2021-12-24 16:08:05.929698,-30
2021-12-24 16:08:05.929704,-54
2021-12-24 16:08:05.929711,-75
2021-12-24 16:08:05.929717,-103
2021-12-24 16:08:05.929723,-136
2021-12-24 16:08:05.929729,-160
2021-12-24 16:08:05.929735,-174
2021-12-24 16:08:05.929742,-181
2021-12-24 16:08:05.929752,-176
2021-12-24 16:08:05.929758,-169
2021-12-24 16:08:05.929765,-171
2021-12-24 16:08:05.929771,-155
2021-12-24 16:08:05.929777,-101
2021-12-24 16:08:05.929784,-35
2021-12-24 16:08:05.929790,23
2021-12-24 16:08:05.929796,80
2021-12-24 16:08:05.929803,127
2021-12-24 16:08:05.929809,150
2021-12-24 16:08:05.929815,164
2021-12-24 16:08:05.929822,174
2021-12-24 16:08:05.929828,179
2021-12-24 16:08:06.200601,174
2021-12-24 16:08:06.200632,171
2021-12-24 16:08:06.200644,174
2021-12-24 16:08:06.200654,171
2021-12-24 16:08:06.200664,160
2021-12-24 16:08:06.200674,155
2021-12-24 16:08:06.200684,153
2021-12-24 16:08:06.200702,143
2021-12-24 16:08:06.200712,139
2021-12-24 16:08:06.200722,141
2021-12-24 16:08:06.200732,139
2021-12-24 16:08:06.200742,139
2021-12-24 16:08:06.200752,136
2021-12-24 16:08:06.200762,122
2021-12-24 16:08:06.200772,110
2021-12-24 16:08:06.200782,113
2021-12-24 16:08:06.200791,122
2021-12-24 16:08:06.200801,127
2021-12-24 16:08:06.200811,115
2021-12-24 16:08:06.200821,108
2021-12-24 16:08:06.200831,117
2021-12-24 16:08:06.200840,120
2021-12-24 16:08:06.200850,110
2021-12-24 16:08:06.200860,115
2021-12-24 16:08:06.200870,122
2021-12-24 16:08:06.200880,124
2021-12-24 16:08:06.200889,122
2021-12-24 16:08:06.200899,103
2021-12-24 16:08:06.200909,77
2021-12-24 16:08:06.200920,68
2021-12-24 16:08:06.379498,73
2021-12-24 16:08:06.379518,84
2021-12-24 16:08:06.379526,96
2021-12-24 16:08:06.379532,106
2021-12-24 16:08:06.379539,117
2021-12-24 16:08:06.379545,122
2021-12-24 16:08:06.379551,117
2021-12-24 16:08:06.379557,110
2021-12-24 16:08:06.379564,113
2021-12-24 16:08:06.379570,113
2021-12-24 16:08:06.379576,108
2021-12-24 16:08:06.379582,117
2021-12-24 16:08:06.379588,146
2021-12-24 16:08:06.379595,-4
2021-12-24 16:08:06.379601,-494
2021-12-24 16:08:06.379607,-888
2021-12-24 16:08:06.379614,-487
2021-12-24 16:08:06.379620,322
2021-12-24 16:08:06.379626,438
2021-12-24 16:08:06.379632,96
2021-12-24 16:08:06.379639,113
2021-12-24 16:08:06.379645,212
2021-12-24 16:08:06.379651,120
2021-12-24 16:08:06.379657,101
2021-12-24 16:08:06.379668,148
2021-12-24 16:08:06.379674,124
2021-12-24 16:08:06.379680,91
2021-12-24 16:08:06.379686,94
2021-12-24 16:08:06.379693,96
2021-12-24 16:08:06.379699,82
2021-12-24 16:08:06.650157,73
2021-12-24 16:08:06.650187,65
2021-12-24 16:08:06.650199,56
2021-12-24 16:08:06.650209,37
2021-12-24 16:08:06.650219,18
2021-12-24 16:08:06.650229,2
2021-12-24 16:08:06.650239,-14
2021-12-24 16:08:06.650249,-44
2021-12-24 16:08:06.650259,-77
2021-12-24 16:08:06.650269,-98
2021-12-24 16:08:06.650278,-122
2021-12-24 16:08:06.650288,-143
2021-12-24 16:08:06.650298,-155
2021-12-24 16:08:06.650307,-160
2021-12-24 16:08:06.650317,-160
2021-12-24 16:08:06.650326,-148
2021-12-24 16:08:06.650336,-124
2021-12-24 16:08:06.650346,-77
2021-12-24 16:08:06.650355,-16
2021-12-24 16:08:06.650364,49
2021-12-24 16:08:06.650374,101
2021-12-24 16:08:06.650384,131
2021-12-24 16:08:06.650396,157
2021-12-24 16:08:06.650406,171
2021-12-24 16:08:06.650416,179
2021-12-24 16:08:06.650425,179
2021-12-24 16:08:06.650435,179
2021-12-24 16:08:06.650445,181
2021-12-24 16:08:06.650454,174
2021-12-24 16:08:06.650464,157
2021-12-24 16:08:06.874747,157
2021-12-24 16:08:06.874762,160
2021-12-24 16:08:06.874768,150
2021-12-24 16:08:06.874773,141
2021-12-24 16:08:06.874778,131
2021-12-24 16:08:06.874783,124
2021-12-24 16:08:06.874788,124
2021-12-24 16:08:06.874793,127
2021-12-24 16:08:06.874798,124
2021-12-24 16:08:06.874803,122
2021-12-24 16:08:06.874809,124
2021-12-24 16:08:06.874814,122
2021-12-24 16:08:06.874819,122
2021-12-24 16:08:06.874824,127
2021-12-24 16:08:06.874829,124
2021-12-24 16:08:06.874834,115
2021-12-24 16:08:06.874839,108
2021-12-24 16:08:06.874844,117
2021-12-24 16:08:06.874849,124
2021-12-24 16:08:06.874854,115
2021-12-24 16:08:06.874859,110
2021-12-24 16:08:06.874864,117
2021-12-24 16:08:06.874869,120
2021-12-24 16:08:06.874874,108
2021-12-24 16:08:06.874882,87
2021-12-24 16:08:06.874887,73
2021-12-24 16:08:06.874892,77
2021-12-24 16:08:06.874897,94
2021-12-24 16:08:06.874902,103
2021-12-24 16:08:06.874907,106
2021-12-24 16:08:07.233667,122
2021-12-24 16:08:07.233702,136
2021-12-24 16:08:07.233708,129
2021-12-24 16:08:07.233713,108
2021-12-24 16:08:07.233718,103
2021-12-24 16:08:07.233723,108
2021-12-24 16:08:07.233727,108
2021-12-24 16:08:07.233732,117
2021-12-24 16:08:07.233737,157
2021-12-24 16:08:07.233741,61
2021-12-24 16:08:07.233746,-376
2021-12-24 16:08:07.233750,-859
2021-12-24 16:08:07.233755,-662
2021-12-24 16:08:07.233799,146
2021-12-24 16:08:07.233806,471
2021-12-24 16:08:07.233810,153
2021-12-24 16:08:07.233815,77
2021-12-24 16:08:07.233819,209
2021-12-24 16:08:07.233824,143
2021-12-24 16:08:07.233828,91
2021-12-24 16:08:07.233833,143
2021-12-24 16:08:07.233837,136
2021-12-24 16:08:07.233842,98
2021-12-24 16:08:07.233846,98
2021-12-24 16:08:07.233851,101
2021-12-24 16:08:07.233855,87
2021-12-24 16:08:07.233860,80
2021-12-24 16:08:07.233864,65
2021-12-24 16:08:07.233869,49
2021-12-24 16:08:07.233873,37
2021-12-24 16:08:07.325149,28
2021-12-24 16:08:07.325179,7
2021-12-24 16:08:07.325191,-11
2021-12-24 16:08:07.325201,-35
2021-12-24 16:08:07.325211,-68
2021-12-24 16:08:07.325221,-96
2021-12-24 16:08:07.325231,-113
2021-12-24 16:08:07.325241,-134
2021-12-24 16:08:07.325250,-155
2021-12-24 16:08:07.325260,-162
2021-12-24 16:08:07.325270,-155
2021-12-24 16:08:07.325280,-150
2021-12-24 16:08:07.325289,-134
2021-12-24 16:08:07.325299,-89
2021-12-24 16:08:07.325309,-28
2021-12-24 16:08:07.325319,28
2021-12-24 16:08:07.325329,80
2021-12-24 16:08:07.325339,120
2021-12-24 16:08:07.325349,146
2021-12-24 16:08:07.325358,160
2021-12-24 16:08:07.325368,162
2021-12-24 16:08:07.325378,167
2021-12-24 16:08:07.325388,169
2021-12-24 16:08:07.325397,167
2021-12-24 16:08:07.325407,157
2021-12-24 16:08:07.325417,153
2021-12-24 16:08:07.325426,150
2021-12-24 16:08:07.325436,143
2021-12-24 16:08:07.325446,136
2021-12-24 16:08:07.325456,136
2021-12-24 16:08:07.683400,136
2021-12-24 16:08:07.683417,134
2021-12-24 16:08:07.683423,129
2021-12-24 16:08:07.683428,127
2021-12-24 16:08:07.683433,131
2021-12-24 16:08:07.683438,129
2021-12-24 16:08:07.683443,124
2021-12-24 16:08:07.683448,122
2021-12-24 16:08:07.683453,117
2021-12-24 16:08:07.683458,113
2021-12-24 16:08:07.683468,113
2021-12-24 16:08:07.683473,117
2021-12-24 16:08:07.683478,120
2021-12-24 16:08:07.683483,115
2021-12-24 16:08:07.683488,110
2021-12-24 16:08:07.683493,110
2021-12-24 16:08:07.683499,108
2021-12-24 16:08:07.683504,103
2021-12-24 16:08:07.683508,101
2021-12-24 16:08:07.683513,110
2021-12-24 16:08:07.683518,117
2021-12-24 16:08:07.683523,110
2021-12-24 16:08:07.683528,84
2021-12-24 16:08:07.683533,58
2021-12-24 16:08:07.683538,63
2021-12-24 16:08:07.683543,80
2021-12-24 16:08:07.683548,94
2021-12-24 16:08:07.683554,103
2021-12-24 16:08:07.683559,110
2021-12-24 16:08:07.683564,108
2021-12-24 16:08:07.775286,108
2021-12-24 16:08:07.775308,110
2021-12-24 16:08:07.775316,110
2021-12-24 16:08:07.775322,106
2021-12-24 16:08:07.775328,106
2021-12-24 16:08:07.775335,110
2021-12-24 16:08:07.775341,143
2021-12-24 16:08:07.775347,117
2021-12-24 16:08:07.775354,-219
2021-12-24 16:08:07.775360,-758
2021-12-24 16:08:07.775366,-810
2021-12-24 16:08:07.775373,-87
2021-12-24 16:08:07.775379,468
2021-12-24 16:08:07.775385,249
2021-12-24 16:08:07.775391,49
2021-12-24 16:08:07.775398,181
2021-12-24 16:08:07.775404,169
2021-12-24 16:08:07.775410,94
2021-12-24 16:08:07.775416,127
2021-12-24 16:08:07.775422,131
2021-12-24 16:08:07.775429,98
2021-12-24 16:08:07.775435,101
2021-12-24 16:08:07.775441,103
2021-12-24 16:08:07.775447,80
2021-12-24 16:08:07.775453,65
2021-12-24 16:08:07.775464,56
2021-12-24 16:08:07.775470,42
2021-12-24 16:08:07.775476,32
2021-12-24 16:08:07.775482,23
2021-12-24 16:08:07.775489,7
2021-12-24 16:08:08.000598,-14
2021-12-24 16:08:08.000629,-35
2021-12-24 16:08:08.000641,-58
2021-12-24 16:08:08.000652,-84
2021-12-24 16:08:08.000662,-113
2021-12-24 16:08:08.000672,-141
2021-12-24 16:08:08.000681,-160
2021-12-24 16:08:08.000691,-162
2021-12-24 16:08:08.000701,-157
2021-12-24 16:08:08.000710,-153
2021-12-24 16:08:08.000720,-136
2021-12-24 16:08:08.000730,-108
2021-12-24 16:08:08.000740,-70
2021-12-24 16:08:08.000750,-11
2021-12-24 16:08:08.000760,58
2021-12-24 16:08:08.000770,101
2021-12-24 16:08:08.000779,129
2021-12-24 16:08:08.000789,155
2021-12-24 16:08:08.000799,164
2021-12-24 16:08:08.000809,162
2021-12-24 16:08:08.000819,162
2021-12-24 16:08:08.000829,162
2021-12-24 16:08:08.000838,160
2021-12-24 16:08:08.000848,153
2021-12-24 16:08:08.000858,146
2021-12-24 16:08:08.000868,146
2021-12-24 16:08:08.000877,146
2021-12-24 16:08:08.000887,141
2021-12-24 16:08:08.000897,136
2021-12-24 16:08:08.000907,139
2021-12-24 16:08:08.225834,134
2021-12-24 16:08:08.225861,124
2021-12-24 16:08:08.225869,129
2021-12-24 16:08:08.225876,131
2021-12-24 16:08:08.225883,129
2021-12-24 16:08:08.225889,122
2021-12-24 16:08:08.225896,117
2021-12-24 16:08:08.225902,120
2021-12-24 16:08:08.225909,120
2021-12-24 16:08:08.225915,120
2021-12-24 16:08:08.225921,120
2021-12-24 16:08:08.225928,115
2021-12-24 16:08:08.225934,113
2021-12-24 16:08:08.225940,117
2021-12-24 16:08:08.225946,117
2021-12-24 16:08:08.225953,110
2021-12-24 16:08:08.225964,108
2021-12-24 16:08:08.225971,113
2021-12-24 16:08:08.225977,117
2021-12-24 16:08:08.225983,115
2021-12-24 16:08:08.225990,113
2021-12-24 16:08:08.225996,101
2021-12-24 16:08:08.226003,68
2021-12-24 16:08:08.226009,54
2021-12-24 16:08:08.226015,68
2021-12-24 16:08:08.226022,89
2021-12-24 16:08:08.226028,96
2021-12-24 16:08:08.226035,98
2021-12-24 16:08:08.226041,103
2021-12-24 16:08:08.226047,106
2021-12-24 16:08:08.539926,106
2021-12-24 16:08:08.539957,108
2021-12-24 16:08:08.539969,110
2021-12-24 16:08:08.539979,110
2021-12-24 16:08:08.539989,108
2021-12-24 16:08:08.539999,124
2021-12-24 16:08:08.540009,131
2021-12-24 16:08:08.540019,-101
2021-12-24 16:08:08.540029,-631
2021-12-24 16:08:08.540039,-871
2021-12-24 16:08:08.540049,-292
2021-12-24 16:08:08.540058,417
2021-12-24 16:08:08.540068,339
2021-12-24 16:08:08.540078,56
2021-12-24 16:08:08.540088,155
2021-12-24 16:08:08.540097,202
2021-12-24 16:08:08.540107,106
2021-12-24 16:08:08.540117,113
2021-12-24 16:08:08.540126,148
2021-12-24 16:08:08.540136,115
2021-12-24 16:08:08.540146,98
2021-12-24 16:08:08.540155,110
2021-12-24 16:08:08.540165,98
2021-12-24 16:08:08.540175,80
2021-12-24 16:08:08.540184,75
2021-12-24 16:08:08.540194,65
2021-12-24 16:08:08.540203,49
2021-12-24 16:08:08.540213,35
2021-12-24 16:08:08.540223,18
2021-12-24 16:08:08.540232,-2
2021-12-24 16:08:08.675605,-23
2021-12-24 16:08:08.675636,-42
2021-12-24 16:08:08.675648,-63
2021-12-24 16:08:08.675658,-96
2021-12-24 16:08:08.675668,-131
2021-12-24 16:08:08.675678,-146
2021-12-24 16:08:08.675688,-141
2021-12-24 16:08:08.675698,-143
2021-12-24 16:08:08.675708,-148
2021-12-24 16:08:08.675718,-139
2021-12-24 16:08:08.675728,-113
2021-12-24 16:08:08.675738,-63
2021-12-24 16:08:08.675748,0
2021-12-24 16:08:08.675765,63
2021-12-24 16:08:08.675775,110
2021-12-24 16:08:08.675785,141
2021-12-24 16:08:08.675795,160
2021-12-24 16:08:08.675804,169
2021-12-24 16:08:08.675814,176
2021-12-24 16:08:08.675824,176
2021-12-24 16:08:08.675834,174
2021-12-24 16:08:08.675844,171
2021-12-24 16:08:08.675854,162
2021-12-24 16:08:08.675864,157
2021-12-24 16:08:08.675874,157
2021-12-24 16:08:08.675884,150
2021-12-24 16:08:08.675894,139
2021-12-24 16:08:08.675904,131
2021-12-24 16:08:08.675914,129
2021-12-24 16:08:08.675924,127
2021-12-24 16:08:08.945591,127
2021-12-24 16:08:08.945622,124
2021-12-24 16:08:08.945634,122
2021-12-24 16:08:08.945645,117
2021-12-24 16:08:08.945654,110
2021-12-24 16:08:08.945665,110
2021-12-24 16:08:08.945675,115
2021-12-24 16:08:08.945685,115
2021-12-24 16:08:08.945695,113
2021-12-24 16:08:08.945705,113
2021-12-24 16:08:08.945714,110
2021-12-24 16:08:08.945724,108
2021-12-24 16:08:08.945734,110
2021-12-24 16:08:08.945744,113
2021-12-24 16:08:08.945754,110
2021-12-24 16:08:08.945764,108
2021-12-24 16:08:08.945774,108
2021-12-24 16:08:08.945784,108
2021-12-24 16:08:08.945794,115
2021-12-24 16:08:08.945803,122
2021-12-24 16:08:08.945813,122
2021-12-24 16:08:08.945823,110
2021-12-24 16:08:08.945833,84
2021-12-24 16:08:08.945842,65
2021-12-24 16:08:08.945852,73
2021-12-24 16:08:08.945862,91
2021-12-24 16:08:08.945871,98
2021-12-24 16:08:08.945881,103
2021-12-24 16:08:08.945891,110
2021-12-24 16:08:08.945901,113
2021-12-24 16:08:09.170134,110
2021-12-24 16:08:09.170163,110
2021-12-24 16:08:09.170175,108
2021-12-24 16:08:09.170185,101
2021-12-24 16:08:09.170195,98
2021-12-24 16:08:09.170205,113
2021-12-24 16:08:09.170215,153
2021-12-24 16:08:09.170224,61
2021-12-24 16:08:09.170234,-384
2021-12-24 16:08:09.170244,-862
2021-12-24 16:08:09.170253,-636
2021-12-24 16:08:09.170263,181
2021-12-24 16:08:09.170273,468
2021-12-24 16:08:09.170283,139
2021-12-24 16:08:09.170293,75
2021-12-24 16:08:09.170302,202
2021-12-24 16:08:09.170312,131
2021-12-24 16:08:09.170326,89
2021-12-24 16:08:09.170336,129
2021-12-24 16:08:09.170346,113
2021-12-24 16:08:09.170355,84
2021-12-24 16:08:09.170365,89
2021-12-24 16:08:09.170375,84
2021-12-24 16:08:09.170384,70
2021-12-24 16:08:09.170394,68
2021-12-24 16:08:09.170404,61
2021-12-24 16:08:09.170413,42
2021-12-24 16:08:09.170423,23
2021-12-24 16:08:09.170433,9
2021-12-24 16:08:09.170443,-7
2021-12-24 16:08:09.395674,-28
2021-12-24 16:08:09.395705,-56
2021-12-24 16:08:09.395716,-87
2021-12-24 16:08:09.395726,-110
2021-12-24 16:08:09.395736,-136
2021-12-24 16:08:09.395746,-153
2021-12-24 16:08:09.395756,-160
2021-12-24 16:08:09.395765,-169
2021-12-24 16:08:09.395775,-183
2021-12-24 16:08:09.395785,-176
2021-12-24 16:08:09.395794,-148
2021-12-24 16:08:09.395804,-110
2021-12-24 16:08:09.395814,-61
2021-12-24 16:08:09.395823,4
2021-12-24 16:08:09.395833,61
2021-12-24 16:08:09.395843,98
2021-12-24 16:08:09.395853,129
2021-12-24 16:08:09.395863,148
2021-12-24 16:08:09.395872,153
2021-12-24 16:08:09.395882,155
2021-12-24 16:08:09.395892,157
2021-12-24 16:08:09.395902,155
2021-12-24 16:08:09.395912,155
2021-12-24 16:08:09.395921,153
2021-12-24 16:08:09.395931,146
2021-12-24 16:08:09.395941,136
2021-12-24 16:08:09.395951,136
2021-12-24 16:08:09.395960,139
2021-12-24 16:08:09.395970,134
2021-12-24 16:08:09.395980,131
2021-12-24 16:08:09.709240,124
2021-12-24 16:08:09.709262,120
2021-12-24 16:08:09.709270,120
2021-12-24 16:08:09.709276,117
2021-12-24 16:08:09.709282,113
2021-12-24 16:08:09.709289,115
2021-12-24 16:08:09.709295,110
2021-12-24 16:08:09.709301,103
2021-12-24 16:08:09.709307,106
2021-12-24 16:08:09.709314,108
2021-12-24 16:08:09.709320,106
2021-12-24 16:08:09.709327,101
2021-12-24 16:08:09.709333,101
2021-12-24 16:08:09.709339,103
2021-12-24 16:08:09.709345,101
2021-12-24 16:08:09.709352,103
2021-12-24 16:08:09.709358,103
2021-12-24 16:08:09.709364,101
2021-12-24 16:08:09.709370,96
2021-12-24 16:08:09.709376,84
2021-12-24 16:08:09.709383,58
2021-12-24 16:08:09.709389,47
2021-12-24 16:08:09.709395,65
2021-12-24 16:08:09.709401,91
2021-12-24 16:08:09.709407,101
2021-12-24 16:08:09.709414,96
2021-12-24 16:08:09.709420,101
2021-12-24 16:08:09.709426,115
2021-12-24 16:08:09.709432,117
2021-12-24 16:08:09.709441,106
2021-12-24 16:08:09.890637,91
2021-12-24 16:08:09.890668,91
2021-12-24 16:08:09.890680,96
2021-12-24 16:08:09.890690,127
2021-12-24 16:08:09.890700,127
2021-12-24 16:08:09.890709,-164
2021-12-24 16:08:09.890719,-718
2021-12-24 16:08:09.890729,-852
2021-12-24 16:08:09.890738,-143
2021-12-24 16:08:09.890748,501
2021-12-24 16:08:09.890757,285
2021-12-24 16:08:09.890767,18
2021-12-24 16:08:09.890777,160
2021-12-24 16:08:09.890786,171
2021-12-24 16:08:09.890796,70
2021-12-24 16:08:09.890805,103
2021-12-24 16:08:09.890815,120
2021-12-24 16:08:09.890824,70
2021-12-24 16:08:09.890834,56
2021-12-24 16:08:09.890843,63
2021-12-24 16:08:09.890853,54
2021-12-24 16:08:09.890862,47
2021-12-24 16:08:09.890872,37
2021-12-24 16:08:09.890881,14
2021-12-24 16:08:09.890891,0
2021-12-24 16:08:09.890901,2
2021-12-24 16:08:09.890910,-9
2021-12-24 16:08:09.890920,-35
2021-12-24 16:08:09.890929,-61
2021-12-24 16:08:09.890939,-87
2021-12-24 16:08:10.070321,-115
2021-12-24 16:08:10.070344,-131
2021-12-24 16:08:10.070351,-157
2021-12-24 16:08:10.070358,-188
2021-12-24 16:08:10.070365,-195
2021-12-24 16:08:10.070371,-183
2021-12-24 16:08:10.070377,-183
2021-12-24 16:08:10.070384,-179
2021-12-24 16:08:10.070390,-141
2021-12-24 16:08:10.070397,-75
2021-12-24 16:08:10.070403,-4
2021-12-24 16:08:10.070410,51
2021-12-24 16:08:10.070416,101
2021-12-24 16:08:10.070423,136
2021-12-24 16:08:10.070429,153
2021-12-24 16:08:10.070435,160
2021-12-24 16:08:10.070442,169
2021-12-24 16:08:10.070448,169
2021-12-24 16:08:10.070455,164
2021-12-24 16:08:10.070461,160
2021-12-24 16:08:10.070467,157
2021-12-24 16:08:10.070474,164
2021-12-24 16:08:10.070480,167
2021-12-24 16:08:10.070487,153
2021-12-24 16:08:10.070493,141
2021-12-24 16:08:10.070500,141
2021-12-24 16:08:10.070506,139
2021-12-24 16:08:10.070512,134
2021-12-24 16:08:10.070519,129
2021-12-24 16:08:10.070525,122
2021-12-24 16:08:10.340611,122
2021-12-24 16:08:10.340642,122
2021-12-24 16:08:10.340653,120
2021-12-24 16:08:10.340664,120
2021-12-24 16:08:10.340674,120
2021-12-24 16:08:10.340684,117
2021-12-24 16:08:10.340694,108
2021-12-24 16:08:10.340704,110
2021-12-24 16:08:10.340714,115
2021-12-24 16:08:10.340723,108
2021-12-24 16:08:10.340733,101
2021-12-24 16:08:10.340743,106
2021-12-24 16:08:10.340753,101
2021-12-24 16:08:10.340763,98
2021-12-24 16:08:10.340773,96
2021-12-24 16:08:10.340783,75
2021-12-24 16:08:10.340793,51
2021-12-24 16:08:10.340803,51
2021-12-24 16:08:10.340813,75
2021-12-24 16:08:10.340823,91
2021-12-24 16:08:10.340839,98
2021-12-24 16:08:10.340850,115
2021-12-24 16:08:10.340860,122
2021-12-24 16:08:10.340870,103
2021-12-24 16:08:10.340880,101
2021-12-24 16:08:10.340890,120
2021-12-24 16:08:10.340900,117
2021-12-24 16:08:10.340910,103
2021-12-24 16:08:10.340920,113
2021-12-24 16:08:10.340930,148
2021-12-24 16:08:10.519844,103
2021-12-24 16:08:10.519867,-249
2021-12-24 16:08:10.519875,-784
2021-12-24 16:08:10.519881,-793
2021-12-24 16:08:10.519887,-18
2021-12-24 16:08:10.519894,525
2021-12-24 16:08:10.519900,249
2021-12-24 16:08:10.519906,49
2021-12-24 16:08:10.519912,200
2021-12-24 16:08:10.519918,181
2021-12-24 16:08:10.519925,94
2021-12-24 16:08:10.519931,129
2021-12-24 16:08:10.519937,136
2021-12-24 16:08:10.519943,94
2021-12-24 16:08:10.519950,94
2021-12-24 16:08:10.519956,101
2021-12-24 16:08:10.519962,87
2021-12-24 16:08:10.519968,73
2021-12-24 16:08:10.519975,56
2021-12-24 16:08:10.519981,56
2021-12-24 16:08:10.519987,61
2021-12-24 16:08:10.519993,28
2021-12-24 16:08:10.519999,-18
2021-12-24 16:08:10.520005,-32
2021-12-24 16:08:10.520012,-42
2021-12-24 16:08:10.520018,-70
2021-12-24 16:08:10.520024,-94
2021-12-24 16:08:10.520030,-117
2021-12-24 16:08:10.520036,-143
2021-12-24 16:08:10.520042,-157
2021-12-24 16:08:10.880295,-157
2021-12-24 16:08:10.880318,-157
2021-12-24 16:08:10.880326,-153
2021-12-24 16:08:10.880332,-136
2021-12-24 16:08:10.880339,-101
2021-12-24 16:08:10.880345,-40
2021-12-24 16:08:10.880351,28
2021-12-24 16:08:10.880358,82
2021-12-24 16:08:10.880364,120
2021-12-24 16:08:10.880371,153
2021-12-24 16:08:10.880377,176
2021-12-24 16:08:10.880384,179
2021-12-24 16:08:10.880390,186
2021-12-24 16:08:10.880397,190
2021-12-24 16:08:10.880403,150
2021-12-24 16:08:10.880410,127
2021-12-24 16:08:10.880416,153
2021-12-24 16:08:10.880422,155
2021-12-24 16:08:10.880429,139
2021-12-24 16:08:10.880435,139
2021-12-24 16:08:10.880441,139
2021-12-24 16:08:10.880448,134
2021-12-24 16:08:10.880454,136
2021-12-24 16:08:10.880460,139
2021-12-24 16:08:10.880467,131
2021-12-24 16:08:10.880473,129
2021-12-24 16:08:10.880479,131
2021-12-24 16:08:10.880486,127
2021-12-24 16:08:10.880492,124
2021-12-24 16:08:10.880498,124
2021-12-24 16:08:11.015587,122
2021-12-24 16:08:11.015617,124
2021-12-24 16:08:11.015629,124
2021-12-24 16:08:11.015639,124
2021-12-24 16:08:11.015649,131
2021-12-24 16:08:11.015658,141
2021-12-24 16:08:11.015668,143
2021-12-24 16:08:11.015678,153
2021-12-24 16:08:11.015688,134
2021-12-24 16:08:11.015697,84
2021-12-24 16:08:11.015707,89
2021-12-24 16:08:11.015717,129
2021-12-24 16:08:11.015726,124
2021-12-24 16:08:11.015736,96
2021-12-24 16:08:11.015746,80
2021-12-24 16:08:11.015755,73
2021-12-24 16:08:11.015765,89
2021-12-24 16:08:11.015774,110
2021-12-24 16:08:11.015784,115
2021-12-24 16:08:11.015794,122
2021-12-24 16:08:11.015803,127
2021-12-24 16:08:11.015813,122
2021-12-24 16:08:11.015828,120
2021-12-24 16:08:11.015838,117
2021-12-24 16:08:11.015848,117
2021-12-24 16:08:11.015857,113
2021-12-24 16:08:11.015867,115
2021-12-24 16:08:11.015877,148
2021-12-24 16:08:11.015887,139
2021-12-24 16:08:11.015897,-150
2021-12-24 16:08:11.330002,-695
2021-12-24 16:08:11.330032,-895
2021-12-24 16:08:11.330044,-270
2021-12-24 16:08:11.330054,431
2021-12-24 16:08:11.330064,329
2021-12-24 16:08:11.330074,63
2021-12-24 16:08:11.330084,174
2021-12-24 16:08:11.330094,207
2021-12-24 16:08:11.330103,108
2021-12-24 16:08:11.330113,120
2021-12-24 16:08:11.330123,146
2021-12-24 16:08:11.330133,113
2021-12-24 16:08:11.330143,103
2021-12-24 16:08:11.330153,106
2021-12-24 16:08:11.330162,84
2021-12-24 16:08:11.330172,65
2021-12-24 16:08:11.330181,68
2021-12-24 16:08:11.330191,68
2021-12-24 16:08:11.330201,51
2021-12-24 16:08:11.330211,23
2021-12-24 16:08:11.330220,-2
2021-12-24 16:08:11.330230,-21
2021-12-24 16:08:11.330240,-35
2021-12-24 16:08:11.330249,-56
2021-12-24 16:08:11.330259,-89
2021-12-24 16:08:11.330268,-120
2021-12-24 16:08:11.330278,-139
2021-12-24 16:08:11.330288,-155
2021-12-24 16:08:11.330298,-162
2021-12-24 16:08:11.330307,-157
2021-12-24 16:08:11.510640,-157
2021-12-24 16:08:11.510670,-155
2021-12-24 16:08:11.510682,-129
2021-12-24 16:08:11.510692,-73
2021-12-24 16:08:11.510702,-4
2021-12-24 16:08:11.510712,51
2021-12-24 16:08:11.510722,96
2021-12-24 16:08:11.510732,127
2021-12-24 16:08:11.510742,148
2021-12-24 16:08:11.510752,160
2021-12-24 16:08:11.510761,164
2021-12-24 16:08:11.510771,164
2021-12-24 16:08:11.510781,162
2021-12-24 16:08:11.510791,160
2021-12-24 16:08:11.510801,157
2021-12-24 16:08:11.510811,157
2021-12-24 16:08:11.510820,150
2021-12-24 16:08:11.510830,150
2021-12-24 16:08:11.510840,155
2021-12-24 16:08:11.510850,143
2021-12-24 16:08:11.510860,122
2021-12-24 16:08:11.510870,124
2021-12-24 16:08:11.510880,143
2021-12-24 16:08:11.510889,139
2021-12-24 16:08:11.510899,134
2021-12-24 16:08:11.510909,136
2021-12-24 16:08:11.510919,131
2021-12-24 16:08:11.510929,127
2021-12-24 16:08:11.510938,131
2021-12-24 16:08:11.510948,131
2021-12-24 16:08:11.733891,129
2021-12-24 16:08:11.733922,127
2021-12-24 16:08:11.733934,124
2021-12-24 16:08:11.733944,122
2021-12-24 16:08:11.733953,127
2021-12-24 16:08:11.733963,127
2021-12-24 16:08:11.733973,117
2021-12-24 16:08:11.733982,120
2021-12-24 16:08:11.733992,129
2021-12-24 16:08:11.734001,129
2021-12-24 16:08:11.734011,117
2021-12-24 16:08:11.734020,106
2021-12-24 16:08:11.734030,82
2021-12-24 16:08:11.734039,77
2021-12-24 16:08:11.734049,113
2021-12-24 16:08:11.734058,117
2021-12-24 16:08:11.734068,84
2021-12-24 16:08:11.734077,89
2021-12-24 16:08:11.734087,113
2021-12-24 16:08:11.734096,108
2021-12-24 16:08:11.734106,103
2021-12-24 16:08:11.734115,113
2021-12-24 16:08:11.734125,110
2021-12-24 16:08:11.734134,101
2021-12-24 16:08:11.734144,113
2021-12-24 16:08:11.734153,153
2021-12-24 16:08:11.734163,87
2021-12-24 16:08:11.734172,-315
2021-12-24 16:08:11.734182,-822
2021-12-24 16:08:11.734191,-716
2021-12-24 16:08:11.915319,61
2021-12-24 16:08:11.915341,471
2021-12-24 16:08:11.915349,183
2021-12-24 16:08:11.915356,51
2021-12-24 16:08:11.915362,181
2021-12-24 16:08:11.915375,143
2021-12-24 16:08:11.915382,89
2021-12-24 16:08:11.915388,129
2021-12-24 16:08:11.915395,127
2021-12-24 16:08:11.915401,94
2021-12-24 16:08:11.915407,94
2021-12-24 16:08:11.915414,89
2021-12-24 16:08:11.915420,70
2021-12-24 16:08:11.915427,65
2021-12-24 16:08:11.915433,63
2021-12-24 16:08:11.915440,47
2021-12-24 16:08:11.915446,30
2021-12-24 16:08:11.915452,18
2021-12-24 16:08:11.915459,4
2021-12-24 16:08:11.915465,-14
2021-12-24 16:08:11.915472,-37
2021-12-24 16:08:11.915478,-65
2021-12-24 16:08:11.915484,-91
2021-12-24 16:08:11.915490,-117
2021-12-24 16:08:11.915497,-136
2021-12-24 16:08:11.915503,-148
2021-12-24 16:08:11.915509,-160
2021-12-24 16:08:11.915516,-164
2021-12-24 16:08:11.915522,-155
2021-12-24 16:08:11.915528,-136
2021-12-24 16:08:12.185603,-98
2021-12-24 16:08:12.185633,-37
2021-12-24 16:08:12.185645,25
2021-12-24 16:08:12.185655,82
2021-12-24 16:08:12.185665,120
2021-12-24 16:08:12.185674,148
2021-12-24 16:08:12.185684,167
2021-12-24 16:08:12.185693,171
2021-12-24 16:08:12.185703,167
2021-12-24 16:08:12.185712,167
2021-12-24 16:08:12.185722,162
2021-12-24 16:08:12.185731,150
2021-12-24 16:08:12.185741,153
2021-12-24 16:08:12.185750,155
2021-12-24 16:08:12.185760,150
2021-12-24 16:08:12.185769,146
2021-12-24 16:08:12.185779,143
2021-12-24 16:08:12.185789,134
2021-12-24 16:08:12.185798,127
2021-12-24 16:08:12.185808,129
2021-12-24 16:08:12.185817,129
2021-12-24 16:08:12.185826,129
2021-12-24 16:08:12.185836,129
2021-12-24 16:08:12.185845,120
2021-12-24 16:08:12.185855,117
2021-12-24 16:08:12.185864,120
2021-12-24 16:08:12.185874,120
2021-12-24 16:08:12.185883,115
2021-12-24 16:08:12.185893,113
2021-12-24 16:08:12.185902,113
2021-12-24 16:08:12.364843,108
2021-12-24 16:08:12.364866,110
2021-12-24 16:08:12.364874,110
2021-12-24 16:08:12.364880,113
2021-12-24 16:08:12.364887,115
2021-12-24 16:08:12.364893,113
2021-12-24 16:08:12.364899,103
2021-12-24 16:08:12.364905,94
2021-12-24 16:08:12.364912,77
2021-12-24 16:08:12.364918,54
2021-12-24 16:08:12.364924,49
2021-12-24 16:08:12.364930,63
2021-12-24 16:08:12.364936,77
2021-12-24 16:08:12.364943,91
2021-12-24 16:08:12.364949,103
2021-12-24 16:08:12.364955,103
2021-12-24 16:08:12.364962,94
2021-12-24 16:08:12.364968,96
2021-12-24 16:08:12.364974,98
2021-12-24 16:08:12.364980,94
2021-12-24 16:08:12.364986,89
2021-12-24 16:08:12.364993,87
2021-12-24 16:08:12.364999,122
2021-12-24 16:08:12.365005,98
2021-12-24 16:08:12.365011,-245
2021-12-24 16:08:12.365017,-772
2021-12-24 16:08:12.365024,-768
2021-12-24 16:08:12.365030,-21
2021-12-24 16:08:12.365036,480
2021-12-24 16:08:12.365043,219
2021-12-24 16:08:12.635134,30
2021-12-24 16:08:12.635165,167
2021-12-24 16:08:12.635177,146
2021-12-24 16:08:12.635187,65
2021-12-24 16:08:12.635197,101
2021-12-24 16:08:12.635207,115
2021-12-24 16:08:12.635216,82
2021-12-24 16:08:12.635226,82
2021-12-24 16:08:12.635236,87
2021-12-24 16:08:12.635246,70
2021-12-24 16:08:12.635256,58
2021-12-24 16:08:12.635266,47
2021-12-24 16:08:12.635275,21
2021-12-24 16:08:12.635285,4
2021-12-24 16:08:12.635295,-4
2021-12-24 16:08:12.635305,-25
2021-12-24 16:08:12.635315,-42
2021-12-24 16:08:12.635324,-61
2021-12-24 16:08:12.635334,-89
2021-12-24 16:08:12.635344,-115
2021-12-24 16:08:12.635354,-131
2021-12-24 16:08:12.635364,-157
2021-12-24 16:08:12.635374,-181
2021-12-24 16:08:12.635383,-186
2021-12-24 16:08:12.635393,-190
2021-12-24 16:08:12.635403,-193
2021-12-24 16:08:12.635413,-176
2021-12-24 16:08:12.635422,-134
2021-12-24 16:08:12.635432,-75
2021-12-24 16:08:12.635442,-11
2021-12-24 16:08:12.905201,44
2021-12-24 16:08:12.905238,91
2021-12-24 16:08:12.905250,129
2021-12-24 16:08:12.905260,150
2021-12-24 16:08:12.905270,157
2021-12-24 16:08:12.905280,160
2021-12-24 16:08:12.905290,155
2021-12-24 16:08:12.905300,153
2021-12-24 16:08:12.905310,150
2021-12-24 16:08:12.905320,141
2021-12-24 16:08:12.905330,131
2021-12-24 16:08:12.905340,129
2021-12-24 16:08:12.905349,124
2021-12-24 16:08:12.905359,117
2021-12-24 16:08:12.905369,110
2021-12-24 16:08:12.905378,101
2021-12-24 16:08:12.905388,103
2021-12-24 16:08:12.905398,110
2021-12-24 16:08:12.905407,106
2021-12-24 16:08:12.905417,101
2021-12-24 16:08:12.905427,103
2021-12-24 16:08:12.905437,103
2021-12-24 16:08:12.905446,103
2021-12-24 16:08:12.905456,103
2021-12-24 16:08:12.905466,110
2021-12-24 16:08:12.905475,115
2021-12-24 16:08:12.905485,108
2021-12-24 16:08:12.905495,94
2021-12-24 16:08:12.905505,87
2021-12-24 16:08:12.905514,94
2021-12-24 16:08:13.084836,106
2021-12-24 16:08:13.084859,106
2021-12-24 16:08:13.084867,94
2021-12-24 16:08:13.084873,77
2021-12-24 16:08:13.084880,58
2021-12-24 16:08:13.084886,49
2021-12-24 16:08:13.084892,65
2021-12-24 16:08:13.084898,75
2021-12-24 16:08:13.084905,65
2021-12-24 16:08:13.084911,75
2021-12-24 16:08:13.084917,98
2021-12-24 16:08:13.084924,101
2021-12-24 16:08:13.084930,101
2021-12-24 16:08:13.084937,101
2021-12-24 16:08:13.084943,96
2021-12-24 16:08:13.084949,96
2021-12-24 16:08:13.084956,96
2021-12-24 16:08:13.084962,106
2021-12-24 16:08:13.084968,141
2021-12-24 16:08:13.084975,-14
2021-12-24 16:08:13.084981,-523
2021-12-24 16:08:13.084988,-885
2021-12-24 16:08:13.084994,-409
2021-12-24 16:08:13.085000,402
2021-12-24 16:08:13.085007,442
2021-12-24 16:08:13.085013,84
2021-12-24 16:08:13.085020,134
2021-12-24 16:08:13.085026,223
2021-12-24 16:08:13.085032,120
2021-12-24 16:08:13.085039,115
2021-12-24 16:08:13.355507,160
2021-12-24 16:08:13.355537,124
2021-12-24 16:08:13.355549,101
2021-12-24 16:08:13.355559,106
2021-12-24 16:08:13.355569,94
2021-12-24 16:08:13.355578,87
2021-12-24 16:08:13.355588,80
2021-12-24 16:08:13.355598,63
2021-12-24 16:08:13.355608,54
2021-12-24 16:08:13.355618,42
2021-12-24 16:08:13.355627,14
2021-12-24 16:08:13.355637,-7
2021-12-24 16:08:13.355647,-18
2021-12-24 16:08:13.355657,-44
2021-12-24 16:08:13.355667,-77
2021-12-24 16:08:13.355676,-113
2021-12-24 16:08:13.355686,-148
2021-12-24 16:08:13.355696,-162
2021-12-24 16:08:13.355706,-162
2021-12-24 16:08:13.355715,-167
2021-12-24 16:08:13.355725,-171
2021-12-24 16:08:13.355734,-157
2021-12-24 16:08:13.355744,-124
2021-12-24 16:08:13.355754,-73
2021-12-24 16:08:13.355763,-4
2021-12-24 16:08:13.355773,56
2021-12-24 16:08:13.355783,96
2021-12-24 16:08:13.355792,139
2021-12-24 16:08:13.355802,171
2021-12-24 16:08:13.355811,181
2021-12-24 16:08:13.535110,179
2021-12-24 16:08:13.535141,186
2021-12-24 16:08:13.535153,188
2021-12-24 16:08:13.535163,176
2021-12-24 16:08:13.535173,171
2021-12-24 16:08:13.535182,171
2021-12-24 16:08:13.535192,164
2021-12-24 16:08:13.535202,155
2021-12-24 16:08:13.535211,155
2021-12-24 16:08:13.535221,153
2021-12-24 16:08:13.535231,150
2021-12-24 16:08:13.535240,146
2021-12-24 16:08:13.535250,141
2021-12-24 16:08:13.535260,141
2021-12-24 16:08:13.535269,141
2021-12-24 16:08:13.535279,134
2021-12-24 16:08:13.535288,131
2021-12-24 16:08:13.535298,136
2021-12-24 16:08:13.535308,134
2021-12-24 16:08:13.535317,131
2021-12-24 16:08:13.535327,136
2021-12-24 16:08:13.535336,136
2021-12-24 16:08:13.535346,136
2021-12-24 16:08:13.535356,136
2021-12-24 16:08:13.535365,134
2021-12-24 16:08:13.535375,131
2021-12-24 16:08:13.535384,134
2021-12-24 16:08:13.535394,141
2021-12-24 16:08:13.535404,141
2021-12-24 16:08:13.535413,127
2021-12-24 16:08:13.847899,103
2021-12-24 16:08:13.847913,87
2021-12-24 16:08:13.847918,96
2021-12-24 16:08:13.847922,113
2021-12-24 16:08:13.847927,117
2021-12-24 16:08:13.847931,122
2021-12-24 16:08:13.847935,129
2021-12-24 16:08:13.847940,134
2021-12-24 16:08:13.847944,129
2021-12-24 16:08:13.847948,124
2021-12-24 16:08:13.847953,124
2021-12-24 16:08:13.847964,120
2021-12-24 16:08:13.847968,117
2021-12-24 16:08:13.847973,139
2021-12-24 16:08:13.847977,171
2021-12-24 16:08:13.847981,2
2021-12-24 16:08:13.847986,-508
2021-12-24 16:08:13.847990,-897
2021-12-24 16:08:13.847994,-480
2021-12-24 16:08:13.847999,334
2021-12-24 16:08:13.848003,442
2021-12-24 16:08:13.848007,106
2021-12-24 16:08:13.848012,129
2021-12-24 16:08:13.848016,223
2021-12-24 16:08:13.848021,134
2021-12-24 16:08:13.848025,117
2021-12-24 16:08:13.848029,160
2021-12-24 16:08:13.848033,136
2021-12-24 16:08:13.848037,110
2021-12-24 16:08:13.848042,113
2021-12-24 16:08:13.985541,110
2021-12-24 16:08:13.985572,106
2021-12-24 16:08:13.985584,96
2021-12-24 16:08:13.985594,75
2021-12-24 16:08:13.985604,54
2021-12-24 16:08:13.985614,42
2021-12-24 16:08:13.985623,25
2021-12-24 16:08:13.985633,9
2021-12-24 16:08:13.985643,-9
2021-12-24 16:08:13.985653,-37
2021-12-24 16:08:13.985663,-73
2021-12-24 16:08:13.985672,-96
2021-12-24 16:08:13.985682,-115
2021-12-24 16:08:13.985692,-134
2021-12-24 16:08:13.985702,-141
2021-12-24 16:08:13.985711,-153
2021-12-24 16:08:13.985721,-169
2021-12-24 16:08:13.985731,-157
2021-12-24 16:08:13.985740,-117
2021-12-24 16:08:13.985750,-65
2021-12-24 16:08:13.985760,-2
2021-12-24 16:08:13.985769,58
2021-12-24 16:08:13.985779,94
2021-12-24 16:08:13.985789,124
2021-12-24 16:08:13.985798,164
2021-12-24 16:08:13.985808,183
2021-12-24 16:08:13.985817,176
2021-12-24 16:08:13.985827,176
2021-12-24 16:08:13.985837,181
2021-12-24 16:08:13.985846,176
2021-12-24 16:08:14.210827,171
2021-12-24 16:08:14.210857,171
2021-12-24 16:08:14.210869,171
2021-12-24 16:08:14.210879,169
2021-12-24 16:08:14.210889,169
2021-12-24 16:08:14.210899,169
2021-12-24 16:08:14.210909,162
2021-12-24 16:08:14.210919,146
2021-12-24 16:08:14.210928,127
2021-12-24 16:08:14.210938,120
2021-12-24 16:08:14.210948,115
2021-12-24 16:08:14.210958,103
2021-12-24 16:08:14.210968,108
2021-12-24 16:08:14.210978,117
2021-12-24 16:08:14.210988,120
2021-12-24 16:08:14.210997,115
2021-12-24 16:08:14.211007,115
2021-12-24 16:08:14.211016,120
2021-12-24 16:08:14.211026,124
2021-12-24 16:08:14.211036,124
2021-12-24 16:08:14.211045,120
2021-12-24 16:08:14.211055,117
2021-12-24 16:08:14.211065,117
2021-12-24 16:08:14.211074,117
2021-12-24 16:08:14.211084,124
2021-12-24 16:08:14.211094,124
2021-12-24 16:08:14.211103,110
2021-12-24 16:08:14.211113,80
2021-12-24 16:08:14.211123,58
2021-12-24 16:08:14.211132,65
2021-12-24 16:08:14.525770,82
2021-12-24 16:08:14.525801,91
2021-12-24 16:08:14.525813,98
2021-12-24 16:08:14.525823,108
2021-12-24 16:08:14.525833,106
2021-12-24 16:08:14.525843,101
2021-12-24 16:08:14.525853,106
2021-12-24 16:08:14.525863,106
2021-12-24 16:08:14.525872,98
2021-12-24 16:08:14.525882,94
2021-12-24 16:08:14.525892,94
2021-12-24 16:08:14.525901,124
2021-12-24 16:08:14.525911,108
2021-12-24 16:08:14.525921,-216
2021-12-24 16:08:14.525931,-768
2021-12-24 16:08:14.525941,-843
2021-12-24 16:08:14.525950,-120
2021-12-24 16:08:14.525960,468
2021-12-24 16:08:14.525970,268
2021-12-24 16:08:14.525980,56
2021-12-24 16:08:14.525989,183
2021-12-24 16:08:14.525999,181
2021-12-24 16:08:14.526009,96
2021-12-24 16:08:14.526019,124
2021-12-24 16:08:14.526028,143
2021-12-24 16:08:14.526038,115
2021-12-24 16:08:14.526048,108
2021-12-24 16:08:14.526057,110
2021-12-24 16:08:14.526067,94
2021-12-24 16:08:14.526077,89
2021-12-24 16:08:14.749491,87
2021-12-24 16:08:14.749522,65
2021-12-24 16:08:14.749534,47
2021-12-24 16:08:14.749544,40
2021-12-24 16:08:14.749554,18
2021-12-24 16:08:14.749564,-2
2021-12-24 16:08:14.749574,-18
2021-12-24 16:08:14.749584,-44
2021-12-24 16:08:14.749593,-82
2021-12-24 16:08:14.749603,-115
2021-12-24 16:08:14.749613,-129
2021-12-24 16:08:14.749623,-139
2021-12-24 16:08:14.749633,-148
2021-12-24 16:08:14.749643,-150
2021-12-24 16:08:14.749652,-150
2021-12-24 16:08:14.749662,-141
2021-12-24 16:08:14.749672,-108
2021-12-24 16:08:14.749682,-51
2021-12-24 16:08:14.749692,7
2021-12-24 16:08:14.749702,63
2021-12-24 16:08:14.749711,115
2021-12-24 16:08:14.749721,143
2021-12-24 16:08:14.749731,153
2021-12-24 16:08:14.749741,160
2021-12-24 16:08:14.749751,171
2021-12-24 16:08:14.749760,174
2021-12-24 16:08:14.749770,164
2021-12-24 16:08:14.749780,167
2021-12-24 16:08:14.749790,171
2021-12-24 16:08:14.749800,167
2021-12-24 16:08:15.064669,157
2021-12-24 16:08:15.064698,153
2021-12-24 16:08:15.064710,146
2021-12-24 16:08:15.064720,136
2021-12-24 16:08:15.064730,129
2021-12-24 16:08:15.064740,131
2021-12-24 16:08:15.064750,131
2021-12-24 16:08:15.064760,131
2021-12-24 16:08:15.064778,129
2021-12-24 16:08:15.064788,129
2021-12-24 16:08:15.064798,127
2021-12-24 16:08:15.064808,127
2021-12-24 16:08:15.064818,131
2021-12-24 16:08:15.064827,129
2021-12-24 16:08:15.064837,120
2021-12-24 16:08:15.064847,120
2021-12-24 16:08:15.064856,127
2021-12-24 16:08:15.064866,120
2021-12-24 16:08:15.064876,106
2021-12-24 16:08:15.064886,106
2021-12-24 16:08:15.064895,117
2021-12-24 16:08:15.064905,124
2021-12-24 16:08:15.064915,115
2021-12-24 16:08:15.064925,94
2021-12-24 16:08:15.064934,73
2021-12-24 16:08:15.064944,70
2021-12-24 16:08:15.064954,80
2021-12-24 16:08:15.064963,91
2021-12-24 16:08:15.064973,108
2021-12-24 16:08:15.064983,124
2021-12-24 16:08:15.199801,124
2021-12-24 16:08:15.199823,117
2021-12-24 16:08:15.199832,120
2021-12-24 16:08:15.199841,120
2021-12-24 16:08:15.199849,115
2021-12-24 16:08:15.199858,110
2021-12-24 16:08:15.199866,110
2021-12-24 16:08:15.199874,139
2021-12-24 16:08:15.199882,146
2021-12-24 16:08:15.199890,-110
2021-12-24 16:08:15.199899,-638
2021-12-24 16:08:15.199907,-834
2021-12-24 16:08:15.199916,-233
2021-12-24 16:08:15.199924,431
2021-12-24 16:08:15.199932,325
2021-12-24 16:08:15.199940,70
2021-12-24 16:08:15.199948,174
2021-12-24 16:08:15.199957,204
2021-12-24 16:08:15.199965,115
2021-12-24 16:08:15.199973,134
2021-12-24 16:08:15.199982,157
2021-12-24 16:08:15.199990,115
2021-12-24 16:08:15.199998,101
2021-12-24 16:08:15.200006,108
2021-12-24 16:08:15.200014,101
2021-12-24 16:08:15.200036,89
2021-12-24 16:08:15.200044,80
2021-12-24 16:08:15.200052,63
2021-12-24 16:08:15.200060,47
2021-12-24 16:08:15.200068,35
2021-12-24 16:08:15.379801,16
2021-12-24 16:08:15.379824,-4
2021-12-24 16:08:15.379831,-25
2021-12-24 16:08:15.379838,-49
2021-12-24 16:08:15.379844,-77
2021-12-24 16:08:15.379851,-98
2021-12-24 16:08:15.379857,-124
2021-12-24 16:08:15.379864,-150
2021-12-24 16:08:15.379870,-164
2021-12-24 16:08:15.379876,-164
2021-12-24 16:08:15.379882,-155
2021-12-24 16:08:15.379889,-146
2021-12-24 16:08:15.379895,-127
2021-12-24 16:08:15.379901,-77
2021-12-24 16:08:15.379907,-9
2021-12-24 16:08:15.379914,47
2021-12-24 16:08:15.379920,91
2021-12-24 16:08:15.379926,129
2021-12-24 16:08:15.379932,148
2021-12-24 16:08:15.379939,153
2021-12-24 16:08:15.379945,160
2021-12-24 16:08:15.379951,160
2021-12-24 16:08:15.379957,157
2021-12-24 16:08:15.379964,155
2021-12-24 16:08:15.379970,148
2021-12-24 16:08:15.379976,139
2021-12-24 16:08:15.379982,141
2021-12-24 16:08:15.379989,143
2021-12-24 16:08:15.379995,136
2021-12-24 16:08:15.380001,131
2021-12-24 16:08:15.604939,134
2021-12-24 16:08:15.604962,139
2021-12-24 16:08:15.604970,136
2021-12-24 16:08:15.604976,129
2021-12-24 16:08:15.604982,127
2021-12-24 16:08:15.604989,124
2021-12-24 16:08:15.604995,122
2021-12-24 16:08:15.605001,127
2021-12-24 16:08:15.605007,122
2021-12-24 16:08:15.605014,117
2021-12-24 16:08:15.605020,122
2021-12-24 16:08:15.605026,122
2021-12-24 16:08:15.605032,115
2021-12-24 16:08:15.605038,113
2021-12-24 16:08:15.605045,113
2021-12-24 16:08:15.605051,115
2021-12-24 16:08:15.605057,120
2021-12-24 16:08:15.605063,124
2021-12-24 16:08:15.605069,120
2021-12-24 16:08:15.605075,108
2021-12-24 16:08:15.605082,87
2021-12-24 16:08:15.605088,70
2021-12-24 16:08:15.605094,75
2021-12-24 16:08:15.605100,89
2021-12-24 16:08:15.605106,98
2021-12-24 16:08:15.605112,108
2021-12-24 16:08:15.605119,120
2021-12-24 16:08:15.605125,122
2021-12-24 16:08:15.605131,120
2021-12-24 16:08:15.605137,117
2021-12-24 16:08:15.874174,117
2021-12-24 16:08:15.874205,113
2021-12-24 16:08:15.874216,106
2021-12-24 16:08:15.874226,117
2021-12-24 16:08:15.874236,153
2021-12-24 16:08:15.874246,40
2021-12-24 16:08:15.874255,-405
2021-12-24 16:08:15.874265,-831
2021-12-24 16:08:15.874275,-551
2021-12-24 16:08:15.874284,223
2021-12-24 16:08:15.874294,433
2021-12-24 16:08:15.874303,117
2021-12-24 16:08:15.874313,94
2021-12-24 16:08:15.874323,204
2021-12-24 16:08:15.874332,127
2021-12-24 16:08:15.874342,91
2021-12-24 16:08:15.874351,134
2021-12-24 16:08:15.874361,117
2021-12-24 16:08:15.874370,91
2021-12-24 16:08:15.874380,101
2021-12-24 16:08:15.874389,94
2021-12-24 16:08:15.874399,75
2021-12-24 16:08:15.874408,70
2021-12-24 16:08:15.874418,63
2021-12-24 16:08:15.874427,47
2021-12-24 16:08:15.874436,32
2021-12-24 16:08:15.874446,16
2021-12-24 16:08:15.874455,-7
2021-12-24 16:08:15.874465,-28
2021-12-24 16:08:15.874475,-42
2021-12-24 16:08:16.100534,-68
2021-12-24 16:08:16.100564,-106
2021-12-24 16:08:16.100576,-136
2021-12-24 16:08:16.100587,-155
2021-12-24 16:08:16.100597,-169
2021-12-24 16:08:16.100607,-179
2021-12-24 16:08:16.100616,-176
2021-12-24 16:08:16.100626,-157
2021-12-24 16:08:16.100636,-139
2021-12-24 16:08:16.100646,-113
2021-12-24 16:08:16.100656,-58
2021-12-24 16:08:16.100666,11
2021-12-24 16:08:16.100676,63
2021-12-24 16:08:16.100686,96
2021-12-24 16:08:16.100696,127
2021-12-24 16:08:16.100705,146
2021-12-24 16:08:16.100715,148
2021-12-24 16:08:16.100725,150
2021-12-24 16:08:16.100735,148
2021-12-24 16:08:16.100745,141
2021-12-24 16:08:16.100754,146
2021-12-24 16:08:16.100764,146
2021-12-24 16:08:16.100774,131
2021-12-24 16:08:16.100789,124
2021-12-24 16:08:16.100799,129
2021-12-24 16:08:16.100809,129
2021-12-24 16:08:16.100819,122
2021-12-24 16:08:16.100829,115
2021-12-24 16:08:16.100839,117
2021-12-24 16:08:16.100848,122
2021-12-24 16:08:16.370109,117
2021-12-24 16:08:16.370139,113
2021-12-24 16:08:16.370151,108
2021-12-24 16:08:16.370161,103
2021-12-24 16:08:16.370171,101
2021-12-24 16:08:16.370181,103
2021-12-24 16:08:16.370190,106
2021-12-24 16:08:16.370200,103
2021-12-24 16:08:16.370210,103
2021-12-24 16:08:16.370219,113
2021-12-24 16:08:16.370229,117
2021-12-24 16:08:16.370239,110
2021-12-24 16:08:16.370249,101
2021-12-24 16:08:16.370259,101
2021-12-24 16:08:16.370268,94
2021-12-24 16:08:16.370278,75
2021-12-24 16:08:16.370288,54
2021-12-24 16:08:16.370298,51
2021-12-24 16:08:16.370307,70
2021-12-24 16:08:16.370317,84
2021-12-24 16:08:16.370327,82
2021-12-24 16:08:16.370336,89
2021-12-24 16:08:16.370346,98
2021-12-24 16:08:16.370355,91
2021-12-24 16:08:16.370365,89
2021-12-24 16:08:16.370375,94
2021-12-24 16:08:16.370385,96
2021-12-24 16:08:16.370394,94
2021-12-24 16:08:16.370404,87
2021-12-24 16:08:16.370414,101
2021-12-24 16:08:16.550440,113
2021-12-24 16:08:16.550471,-129
2021-12-24 16:08:16.550483,-662
2021-12-24 16:08:16.550494,-850
2021-12-24 16:08:16.550503,-195
2021-12-24 16:08:16.550513,490
2021-12-24 16:08:16.550523,327
2021-12-24 16:08:16.550533,40
2021-12-24 16:08:16.550542,164
2021-12-24 16:08:16.550552,181
2021-12-24 16:08:16.550562,70
2021-12-24 16:08:16.550572,98
2021-12-24 16:08:16.550582,127
2021-12-24 16:08:16.550591,87
2021-12-24 16:08:16.550601,75
2021-12-24 16:08:16.550611,87
2021-12-24 16:08:16.550620,75
2021-12-24 16:08:16.550630,68
2021-12-24 16:08:16.550640,65
2021-12-24 16:08:16.550649,51
2021-12-24 16:08:16.550659,23
2021-12-24 16:08:16.550668,7
2021-12-24 16:08:16.550678,-4
2021-12-24 16:08:16.550688,-30
2021-12-24 16:08:16.550697,-63
2021-12-24 16:08:16.550707,-82
2021-12-24 16:08:16.550717,-103
2021-12-24 16:08:16.550726,-139
2021-12-24 16:08:16.550736,-162
2021-12-24 16:08:16.550746,-171
2021-12-24 16:08:16.775225,-174
2021-12-24 16:08:16.775247,-174
2021-12-24 16:08:16.775255,-186
2021-12-24 16:08:16.775262,-181
2021-12-24 16:08:16.775268,-139
2021-12-24 16:08:16.775274,-75
2021-12-24 16:08:16.775281,-21
2021-12-24 16:08:16.775287,35
2021-12-24 16:08:16.775293,84
2021-12-24 16:08:16.775300,117
2021-12-24 16:08:16.775306,139
2021-12-24 16:08:16.775312,157
2021-12-24 16:08:16.775319,167
2021-12-24 16:08:16.775325,164
2021-12-24 16:08:16.775332,157
2021-12-24 16:08:16.775338,155
2021-12-24 16:08:16.775344,157
2021-12-24 16:08:16.775350,153
2021-12-24 16:08:16.775357,141
2021-12-24 16:08:16.775363,139
2021-12-24 16:08:16.775369,141
2021-12-24 16:08:16.775376,134
2021-12-24 16:08:16.775382,127
2021-12-24 16:08:16.775388,129
2021-12-24 16:08:16.775394,134
2021-12-24 16:08:16.775401,122
2021-12-24 16:08:16.775407,108
2021-12-24 16:08:16.775413,115
2021-12-24 16:08:16.775420,115
2021-12-24 16:08:16.775426,103
2021-12-24 16:08:17.000507,110
2021-12-24 16:08:17.000538,127
2021-12-24 16:08:17.000550,127
2021-12-24 16:08:17.000560,106
2021-12-24 16:08:17.000569,101
2021-12-24 16:08:17.000579,110
2021-12-24 16:08:17.000588,96
2021-12-24 16:08:17.000598,63
2021-12-24 16:08:17.000607,54
2021-12-24 16:08:17.000617,65
2021-12-24 16:08:17.000627,80
2021-12-24 16:08:17.000636,94
2021-12-24 16:08:17.000646,103
2021-12-24 16:08:17.000655,110
2021-12-24 16:08:17.000665,113
2021-12-24 16:08:17.000674,106
2021-12-24 16:08:17.000684,101
2021-12-24 16:08:17.000694,98
2021-12-24 16:08:17.000703,96
2021-12-24 16:08:17.000713,89
2021-12-24 16:08:17.000722,106
2021-12-24 16:08:17.000732,143
2021-12-24 16:08:17.000741,-11
2021-12-24 16:08:17.000751,-525
2021-12-24 16:08:17.000761,-909
2021-12-24 16:08:17.000770,-442
2021-12-24 16:08:17.000780,402
2021-12-24 16:08:17.000790,464
2021-12-24 16:08:17.000799,84
2021-12-24 16:08:17.000809,115
2021-12-24 16:08:17.224914,214
2021-12-24 16:08:17.224935,127
2021-12-24 16:08:17.224943,120
2021-12-24 16:08:17.224949,155
2021-12-24 16:08:17.224955,122
2021-12-24 16:08:17.224962,101
2021-12-24 16:08:17.224968,103
2021-12-24 16:08:17.224974,87
2021-12-24 16:08:17.224980,73
2021-12-24 16:08:17.224986,73
2021-12-24 16:08:17.224993,65
2021-12-24 16:08:17.224999,47
2021-12-24 16:08:17.225005,28
2021-12-24 16:08:17.225011,16
2021-12-24 16:08:17.225017,-2
2021-12-24 16:08:17.225024,-30
2021-12-24 16:08:17.225030,-49
2021-12-24 16:08:17.225036,-77
2021-12-24 16:08:17.225042,-113
2021-12-24 16:08:17.225048,-141
2021-12-24 16:08:17.225055,-160
2021-12-24 16:08:17.225061,-167
2021-12-24 16:08:17.225067,-164
2021-12-24 16:08:17.225073,-164
2021-12-24 16:08:17.225079,-157
2021-12-24 16:08:17.225085,-115
2021-12-24 16:08:17.225092,-56
2021-12-24 16:08:17.225098,-7
2021-12-24 16:08:17.225104,40
2021-12-24 16:08:17.225110,101
2021-12-24 16:08:17.494499,153
2021-12-24 16:08:17.494531,164
2021-12-24 16:08:17.494543,153
2021-12-24 16:08:17.494553,153
2021-12-24 16:08:17.494563,162
2021-12-24 16:08:17.494573,162
2021-12-24 16:08:17.494583,155
2021-12-24 16:08:17.494593,148
2021-12-24 16:08:17.494602,146
2021-12-24 16:08:17.494612,148
2021-12-24 16:08:17.494622,146
2021-12-24 16:08:17.494632,139
2021-12-24 16:08:17.494642,129
2021-12-24 16:08:17.494652,124
2021-12-24 16:08:17.494661,120
2021-12-24 16:08:17.494671,122
2021-12-24 16:08:17.494681,124
2021-12-24 16:08:17.494691,117
2021-12-24 16:08:17.494701,110
2021-12-24 16:08:17.494710,117
2021-12-24 16:08:17.494720,122
2021-12-24 16:08:17.494730,117
2021-12-24 16:08:17.494740,113
2021-12-24 16:08:17.494749,113
2021-12-24 16:08:17.494759,117
2021-12-24 16:08:17.494769,127
2021-12-24 16:08:17.494779,136
2021-12-24 16:08:17.494788,134
2021-12-24 16:08:17.494798,115
2021-12-24 16:08:17.494812,91
2021-12-24 16:08:17.809462,84
2021-12-24 16:08:17.809485,91
2021-12-24 16:08:17.809493,106
2021-12-24 16:08:17.809499,113
2021-12-24 16:08:17.809506,117
2021-12-24 16:08:17.809512,127
2021-12-24 16:08:17.809519,131
2021-12-24 16:08:17.809525,122
2021-12-24 16:08:17.809531,117
2021-12-24 16:08:17.809538,122
2021-12-24 16:08:17.809544,115
2021-12-24 16:08:17.809551,110
2021-12-24 16:08:17.809557,143
2021-12-24 16:08:17.809564,122
2021-12-24 16:08:17.809570,-212
2021-12-24 16:08:17.809577,-753
2021-12-24 16:08:17.809583,-810
2021-12-24 16:08:17.809589,-68
2021-12-24 16:08:17.809596,513
2021-12-24 16:08:17.809602,280
2021-12-24 16:08:17.809609,68
2021-12-24 16:08:17.809615,212
2021-12-24 16:08:17.809621,204
2021-12-24 16:08:17.809628,113
2021-12-24 16:08:17.809634,146
2021-12-24 16:08:17.809640,169
2021-12-24 16:08:17.809647,131
2021-12-24 16:08:17.809653,110
2021-12-24 16:08:17.809659,115
2021-12-24 16:08:17.809666,113
2021-12-24 16:08:17.944336,106
2021-12-24 16:08:17.944366,94
2021-12-24 16:08:17.944377,84
2021-12-24 16:08:17.944387,73
2021-12-24 16:08:17.944397,54
2021-12-24 16:08:17.944407,37
2021-12-24 16:08:17.944416,18
2021-12-24 16:08:17.944426,-7
2021-12-24 16:08:17.944436,-40
2021-12-24 16:08:17.944445,-70
2021-12-24 16:08:17.944455,-98
2021-12-24 16:08:17.944464,-117
2021-12-24 16:08:17.944474,-129
2021-12-24 16:08:17.944484,-150
2021-12-24 16:08:17.944493,-162
2021-12-24 16:08:17.944503,-150
2021-12-24 16:08:17.944512,-131
2021-12-24 16:08:17.944522,-101
2021-12-24 16:08:17.944532,-42
2021-12-24 16:08:17.944541,21
2021-12-24 16:08:17.944551,75
2021-12-24 16:08:17.944560,115
2021-12-24 16:08:17.944570,143
2021-12-24 16:08:17.944580,157
2021-12-24 16:08:17.944589,167
2021-12-24 16:08:17.944599,169
2021-12-24 16:08:17.944608,167
2021-12-24 16:08:17.944618,160
2021-12-24 16:08:17.944627,150
2021-12-24 16:08:17.944637,150
2021-12-24 16:08:18.260110,155
2021-12-24 16:08:18.260141,148
2021-12-24 16:08:18.260152,139
2021-12-24 16:08:18.260163,139
2021-12-24 16:08:18.260173,134
2021-12-24 16:08:18.260183,127
2021-12-24 16:08:18.260193,127
2021-12-24 16:08:18.260202,127
2021-12-24 16:08:18.260212,124
2021-12-24 16:08:18.260222,120
2021-12-24 16:08:18.260232,117
2021-12-24 16:08:18.260241,120
2021-12-24 16:08:18.260251,117
2021-12-24 16:08:18.260261,115
2021-12-24 16:08:18.260271,117
2021-12-24 16:08:18.260280,117
2021-12-24 16:08:18.260290,113
2021-12-24 16:08:18.260300,115
2021-12-24 16:08:18.260310,122
2021-12-24 16:08:18.260319,124
2021-12-24 16:08:18.260329,115
2021-12-24 16:08:18.260339,89
2021-12-24 16:08:18.260349,73
2021-12-24 16:08:18.260358,82
2021-12-24 16:08:18.260368,101
2021-12-24 16:08:18.260378,115
2021-12-24 16:08:18.260388,120
2021-12-24 16:08:18.260398,120
2021-12-24 16:08:18.260407,122
2021-12-24 16:08:18.260417,122
2021-12-24 16:08:18.440687,110
2021-12-24 16:08:18.440718,115
2021-12-24 16:08:18.440730,120
2021-12-24 16:08:18.440740,106
2021-12-24 16:08:18.440750,124
2021-12-24 16:08:18.440760,157
2021-12-24 16:08:18.440770,-47
2021-12-24 16:08:18.440780,-579
2021-12-24 16:08:18.440790,-892
2021-12-24 16:08:18.440799,-381
2021-12-24 16:08:18.440809,391
2021-12-24 16:08:18.440819,407
2021-12-24 16:08:18.440829,94
2021-12-24 16:08:18.440839,150
2021-12-24 16:08:18.440849,212
2021-12-24 16:08:18.440859,113
2021-12-24 16:08:18.440868,110
2021-12-24 16:08:18.440878,153
2021-12-24 16:08:18.440888,124
2021-12-24 16:08:18.440898,103
2021-12-24 16:08:18.440907,108
2021-12-24 16:08:18.440918,101
2021-12-24 16:08:18.440927,91
2021-12-24 16:08:18.440937,87
2021-12-24 16:08:18.440946,75
2021-12-24 16:08:18.440956,63
2021-12-24 16:08:18.440966,49
2021-12-24 16:08:18.440976,30
2021-12-24 16:08:18.440985,11
2021-12-24 16:08:18.440995,-9
2021-12-24 16:08:18.620276,-32
2021-12-24 16:08:18.620307,-56
2021-12-24 16:08:18.620319,-82
2021-12-24 16:08:18.620329,-106
2021-12-24 16:08:18.620338,-124
2021-12-24 16:08:18.620348,-136
2021-12-24 16:08:18.620358,-139
2021-12-24 16:08:18.620367,-139
2021-12-24 16:08:18.620377,-127
2021-12-24 16:08:18.620387,-94
2021-12-24 16:08:18.620397,-44
2021-12-24 16:08:18.620406,9
2021-12-24 16:08:18.620416,65
2021-12-24 16:08:18.620426,113
2021-12-24 16:08:18.620435,131
2021-12-24 16:08:18.620445,141
2021-12-24 16:08:18.620454,164
2021-12-24 16:08:18.620464,169
2021-12-24 16:08:18.620474,155
2021-12-24 16:08:18.620483,146
2021-12-24 16:08:18.620493,148
2021-12-24 16:08:18.620503,146
2021-12-24 16:08:18.620512,139
2021-12-24 16:08:18.620522,139
2021-12-24 16:08:18.620531,139
2021-12-24 16:08:18.620541,131
2021-12-24 16:08:18.620550,124
2021-12-24 16:08:18.620560,122
2021-12-24 16:08:18.620570,122
2021-12-24 16:08:18.620579,124
2021-12-24 16:08:18.845257,122
2021-12-24 16:08:18.845286,117
2021-12-24 16:08:18.845298,117
2021-12-24 16:08:18.845308,120
2021-12-24 16:08:18.845318,117
2021-12-24 16:08:18.845327,120
2021-12-24 16:08:18.845337,124
2021-12-24 16:08:18.845346,117
2021-12-24 16:08:18.845356,110
2021-12-24 16:08:18.845366,110
2021-12-24 16:08:18.845375,110
2021-12-24 16:08:18.845385,117
2021-12-24 16:08:18.845394,127
2021-12-24 16:08:18.845404,120
2021-12-24 16:08:18.845413,91
2021-12-24 16:08:18.845423,70
2021-12-24 16:08:18.845432,75
2021-12-24 16:08:18.845442,87
2021-12-24 16:08:18.845451,91
2021-12-24 16:08:18.845461,98
2021-12-24 16:08:18.845470,108
2021-12-24 16:08:18.845480,103
2021-12-24 16:08:18.845489,103
2021-12-24 16:08:18.845499,113
2021-12-24 16:08:18.845508,113
2021-12-24 16:08:18.845518,101
2021-12-24 16:08:18.845527,96
2021-12-24 16:08:18.845537,108
2021-12-24 16:08:18.845546,143
2021-12-24 16:08:18.845556,115
2021-12-24 16:08:19.071001,-200
2021-12-24 16:08:19.071054,-727
2021-12-24 16:08:19.071069,-801
2021-12-24 16:08:19.071082,-89
2021-12-24 16:08:19.071094,482
2021-12-24 16:08:19.071105,268
2021-12-24 16:08:19.071128,61
2021-12-24 16:08:19.071141,193
2021-12-24 16:08:19.071153,186
2021-12-24 16:08:19.071165,103
2021-12-24 16:08:19.071177,139
2021-12-24 16:08:19.071189,155
2021-12-24 16:08:19.071195,120
2021-12-24 16:08:19.071202,103
2021-12-24 16:08:19.071208,101
2021-12-24 16:08:19.071214,96
2021-12-24 16:08:19.071223,94
2021-12-24 16:08:19.071229,82
2021-12-24 16:08:19.071235,65
2021-12-24 16:08:19.071241,58
2021-12-24 16:08:19.071248,49
2021-12-24 16:08:19.071254,32
2021-12-24 16:08:19.071260,7
2021-12-24 16:08:19.071266,-18
2021-12-24 16:08:19.071272,-42
2021-12-24 16:08:19.071279,-65
2021-12-24 16:08:19.071285,-94
2021-12-24 16:08:19.071291,-115
2021-12-24 16:08:19.071300,-129
2021-12-24 16:08:19.071307,-139
2021-12-24 16:08:19.340581,-139
2021-12-24 16:08:19.340611,-129
2021-12-24 16:08:19.340623,-120
2021-12-24 16:08:19.340634,-89
2021-12-24 16:08:19.340644,-28
2021-12-24 16:08:19.340653,28
2021-12-24 16:08:19.340663,65
2021-12-24 16:08:19.340673,108
2021-12-24 16:08:19.340683,143
2021-12-24 16:08:19.340693,155
2021-12-24 16:08:19.340702,160
2021-12-24 16:08:19.340712,162
2021-12-24 16:08:19.340722,157
2021-12-24 16:08:19.340731,153
2021-12-24 16:08:19.340741,148
2021-12-24 16:08:19.340751,148
2021-12-24 16:08:19.340761,148
2021-12-24 16:08:19.340771,141
2021-12-24 16:08:19.340780,129
2021-12-24 16:08:19.340790,129
2021-12-24 16:08:19.340800,134
2021-12-24 16:08:19.340810,129
2021-12-24 16:08:19.340819,117
2021-12-24 16:08:19.340829,120
2021-12-24 16:08:19.340839,120
2021-12-24 16:08:19.340849,113
2021-12-24 16:08:19.340858,106
2021-12-24 16:08:19.340868,103
2021-12-24 16:08:19.340878,103
2021-12-24 16:08:19.340888,106
2021-12-24 16:08:19.564422,103
2021-12-24 16:08:19.564452,106
2021-12-24 16:08:19.564464,103
2021-12-24 16:08:19.564475,101
2021-12-24 16:08:19.564484,101
2021-12-24 16:08:19.564494,98
2021-12-24 16:08:19.564504,101
2021-12-24 16:08:19.564514,106
2021-12-24 16:08:19.564524,103
2021-12-24 16:08:19.564534,96
2021-12-24 16:08:19.564544,84
2021-12-24 16:08:19.564553,58
2021-12-24 16:08:19.564563,51
2021-12-24 16:08:19.564573,70
2021-12-24 16:08:19.564583,87
2021-12-24 16:08:19.564593,96
2021-12-24 16:08:19.564603,103
2021-12-24 16:08:19.564613,101
2021-12-24 16:08:19.564623,98
2021-12-24 16:08:19.564632,96
2021-12-24 16:08:19.564642,101
2021-12-24 16:08:19.564653,108
2021-12-24 16:08:19.564663,101
2021-12-24 16:08:19.564672,89
2021-12-24 16:08:19.564682,115
2021-12-24 16:08:19.564692,143
2021-12-24 16:08:19.564702,-61
2021-12-24 16:08:19.564712,-584
2021-12-24 16:08:19.564722,-876
2021-12-24 16:08:19.564732,-351
2021-12-24 16:08:19.745628,386
2021-12-24 16:08:19.745658,365
2021-12-24 16:08:19.745670,61
2021-12-24 16:08:19.745680,131
2021-12-24 16:08:19.745690,188
2021-12-24 16:08:19.745700,101
2021-12-24 16:08:19.745710,113
2021-12-24 16:08:19.745720,143
2021-12-24 16:08:19.745729,106
2021-12-24 16:08:19.745739,89
2021-12-24 16:08:19.745749,98
2021-12-24 16:08:19.745759,84
2021-12-24 16:08:19.745769,73
2021-12-24 16:08:19.745779,70
2021-12-24 16:08:19.745788,63
2021-12-24 16:08:19.745798,47
2021-12-24 16:08:19.745808,28
2021-12-24 16:08:19.745818,11
2021-12-24 16:08:19.745828,-7
2021-12-24 16:08:19.745838,-25
2021-12-24 16:08:19.745847,-47
2021-12-24 16:08:19.745857,-75
2021-12-24 16:08:19.745867,-106
2021-12-24 16:08:19.745877,-131
2021-12-24 16:08:19.745886,-143
2021-12-24 16:08:19.745896,-153
2021-12-24 16:08:19.745906,-167
2021-12-24 16:08:19.745916,-167
2021-12-24 16:08:19.745926,-150
2021-12-24 16:08:19.745936,-120
2021-12-24 16:08:20.103714,-80
2021-12-24 16:08:20.103745,-25
2021-12-24 16:08:20.103756,28
2021-12-24 16:08:20.103767,68
2021-12-24 16:08:20.103777,96
2021-12-24 16:08:20.103787,117
2021-12-24 16:08:20.103796,129
2021-12-24 16:08:20.103806,139
2021-12-24 16:08:20.103816,141
2021-12-24 16:08:20.103825,129
2021-12-24 16:08:20.103835,122
2021-12-24 16:08:20.103845,127
2021-12-24 16:08:20.103855,124
2021-12-24 16:08:20.103865,117
2021-12-24 16:08:20.103874,113
2021-12-24 16:08:20.103884,108
2021-12-24 16:08:20.103894,101
2021-12-24 16:08:20.103903,96
2021-12-24 16:08:20.103913,98
2021-12-24 16:08:20.103922,98
2021-12-24 16:08:20.103932,91
2021-12-24 16:08:20.103942,89
2021-12-24 16:08:20.103951,94
2021-12-24 16:08:20.103961,94
2021-12-24 16:08:20.103970,94
2021-12-24 16:08:20.103980,96
2021-12-24 16:08:20.103990,96
2021-12-24 16:08:20.103999,89
2021-12-24 16:08:20.104009,89
2021-12-24 16:08:20.104019,89
2021-12-24 16:08:20.284764,82
2021-12-24 16:08:20.284780,82
2021-12-24 16:08:20.284786,87
2021-12-24 16:08:20.284791,91
2021-12-24 16:08:20.284796,91
2021-12-24 16:08:20.284801,80
2021-12-24 16:08:20.284806,51
2021-12-24 16:08:20.284811,37
2021-12-24 16:08:20.284815,44
2021-12-24 16:08:20.284820,56
2021-12-24 16:08:20.284825,75
2021-12-24 16:08:20.284830,94
2021-12-24 16:08:20.284835,91
2021-12-24 16:08:20.284840,84
2021-12-24 16:08:20.284845,87
2021-12-24 16:08:20.284850,84
2021-12-24 16:08:20.284855,80
2021-12-24 16:08:20.284859,84
2021-12-24 16:08:20.284864,84
2021-12-24 16:08:20.284869,89
2021-12-24 16:08:20.284874,113
2021-12-24 16:08:20.284879,-9
2021-12-24 16:08:20.284884,-480
2021-12-24 16:08:20.284889,-907
2021-12-24 16:08:20.284894,-523
2021-12-24 16:08:20.284898,325
2021-12-24 16:08:20.284903,452
2021-12-24 16:08:20.284908,75
2021-12-24 16:08:20.284913,91
2021-12-24 16:08:20.284918,197
2021-12-24 16:08:20.464827,96
2021-12-24 16:08:20.464849,80
2021-12-24 16:08:20.464857,127
2021-12-24 16:08:20.464864,94
2021-12-24 16:08:20.464870,75
2021-12-24 16:08:20.464876,94
2021-12-24 16:08:20.464882,84
2021-12-24 16:08:20.464889,58
2021-12-24 16:08:20.464895,44
2021-12-24 16:08:20.464901,32
2021-12-24 16:08:20.464907,23
2021-12-24 16:08:20.464913,14
2021-12-24 16:08:20.464920,-2
2021-12-24 16:08:20.464926,-25
2021-12-24 16:08:20.464932,-49
2021-12-24 16:08:20.464938,-75
2021-12-24 16:08:20.464944,-110
2021-12-24 16:08:20.464951,-136
2021-12-24 16:08:20.464957,-155
2021-12-24 16:08:20.464963,-176
2021-12-24 16:08:20.464969,-195
2021-12-24 16:08:20.464975,-197
2021-12-24 16:08:20.464982,-190
2021-12-24 16:08:20.464988,-181
2021-12-24 16:08:20.464994,-160
2021-12-24 16:08:20.465000,-113
2021-12-24 16:08:20.465006,-51
2021-12-24 16:08:20.465013,11
2021-12-24 16:08:20.465019,65
2021-12-24 16:08:20.465025,108
2021-12-24 16:08:20.779438,134
2021-12-24 16:08:20.779469,143
2021-12-24 16:08:20.779481,146
2021-12-24 16:08:20.779491,150
2021-12-24 16:08:20.779501,153
2021-12-24 16:08:20.779511,148
2021-12-24 16:08:20.779520,141
2021-12-24 16:08:20.779530,134
2021-12-24 16:08:20.779540,122
2021-12-24 16:08:20.779550,117
2021-12-24 16:08:20.779560,117
2021-12-24 16:08:20.779570,120
2021-12-24 16:08:20.779579,120
2021-12-24 16:08:20.779589,108
2021-12-24 16:08:20.779599,101
2021-12-24 16:08:20.779609,103
2021-12-24 16:08:20.779619,103
2021-12-24 16:08:20.779628,98
2021-12-24 16:08:20.779638,91
2021-12-24 16:08:20.779648,89
2021-12-24 16:08:20.779658,94
2021-12-24 16:08:20.779668,101
2021-12-24 16:08:20.779678,101
2021-12-24 16:08:20.779687,101
2021-12-24 16:08:20.779697,103
2021-12-24 16:08:20.779707,106
2021-12-24 16:08:20.779717,103
2021-12-24 16:08:20.779727,106
2021-12-24 16:08:20.779736,115
2021-12-24 16:08:20.779746,113
2021-12-24 16:08:20.915525,82
2021-12-24 16:08:20.915554,63
2021-12-24 16:08:20.915566,75
2021-12-24 16:08:20.915576,87
2021-12-24 16:08:20.915586,94
2021-12-24 16:08:20.915596,108
2021-12-24 16:08:20.915605,113
2021-12-24 16:08:20.915615,108
2021-12-24 16:08:20.915625,110
2021-12-24 16:08:20.915634,110
2021-12-24 16:08:20.915644,110
2021-12-24 16:08:20.915654,110
2021-12-24 16:08:20.915664,98
2021-12-24 16:08:20.915674,101
2021-12-24 16:08:20.915683,136
2021-12-24 16:08:20.915693,9
2021-12-24 16:08:20.915703,-473
2021-12-24 16:08:20.915713,-904
2021-12-24 16:08:20.915722,-541
2021-12-24 16:08:20.915732,306
2021-12-24 16:08:20.915742,464
2021-12-24 16:08:20.915752,96
2021-12-24 16:08:20.915761,98
2021-12-24 16:08:20.915785,216
2021-12-24 16:08:20.915795,120
2021-12-24 16:08:20.915805,98
2021-12-24 16:08:20.915815,150
2021-12-24 16:08:20.915825,120
2021-12-24 16:08:20.915834,94
2021-12-24 16:08:20.915844,110
2021-12-24 16:08:21.230191,106
2021-12-24 16:08:21.230221,87
2021-12-24 16:08:21.230233,82
2021-12-24 16:08:21.230243,70
2021-12-24 16:08:21.230253,56
2021-12-24 16:08:21.230263,44
2021-12-24 16:08:21.230273,25
2021-12-24 16:08:21.230282,2
2021-12-24 16:08:21.230292,-18
2021-12-24 16:08:21.230302,-49
2021-12-24 16:08:21.230312,-80
2021-12-24 16:08:21.230322,-106
2021-12-24 16:08:21.230331,-131
2021-12-24 16:08:21.230341,-146
2021-12-24 16:08:21.230351,-153
2021-12-24 16:08:21.230360,-162
2021-12-24 16:08:21.230370,-167
2021-12-24 16:08:21.230380,-164
2021-12-24 16:08:21.230390,-146
2021-12-24 16:08:21.230399,-87
2021-12-24 16:08:21.230409,-11
2021-12-24 16:08:21.230419,42
2021-12-24 16:08:21.230428,89
2021-12-24 16:08:21.230438,129
2021-12-24 16:08:21.230448,153
2021-12-24 16:08:21.230457,164
2021-12-24 16:08:21.230467,169
2021-12-24 16:08:21.230477,171
2021-12-24 16:08:21.230486,174
2021-12-24 16:08:21.230496,171
2021-12-24 16:08:21.365045,171
2021-12-24 16:08:21.365076,169
2021-12-24 16:08:21.365088,157
2021-12-24 16:08:21.365098,153
2021-12-24 16:08:21.365107,150
2021-12-24 16:08:21.365117,146
2021-12-24 16:08:21.365127,139
2021-12-24 16:08:21.365136,134
2021-12-24 16:08:21.365145,131
2021-12-24 16:08:21.365155,129
2021-12-24 16:08:21.365164,127
2021-12-24 16:08:21.365174,122
2021-12-24 16:08:21.365183,122
2021-12-24 16:08:21.365193,122
2021-12-24 16:08:21.365202,120
2021-12-24 16:08:21.365212,117
2021-12-24 16:08:21.365221,122
2021-12-24 16:08:21.365230,122
2021-12-24 16:08:21.365240,120
2021-12-24 16:08:21.365249,113
2021-12-24 16:08:21.365259,101
2021-12-24 16:08:21.365268,103
2021-12-24 16:08:21.365278,110
2021-12-24 16:08:21.365287,108
2021-12-24 16:08:21.365296,106
2021-12-24 16:08:21.365306,117
2021-12-24 16:08:21.365315,124
2021-12-24 16:08:21.365325,110
2021-12-24 16:08:21.365334,84
2021-12-24 16:08:21.365344,70
2021-12-24 16:08:21.590217,75
2021-12-24 16:08:21.590245,87
2021-12-24 16:08:21.590258,101
2021-12-24 16:08:21.590269,113
2021-12-24 16:08:21.590279,115
2021-12-24 16:08:21.590289,113
2021-12-24 16:08:21.590300,115
2021-12-24 16:08:21.590310,115
2021-12-24 16:08:21.590321,110
2021-12-24 16:08:21.590331,108
2021-12-24 16:08:21.590342,108
2021-12-24 16:08:21.590352,120
2021-12-24 16:08:21.590363,146
2021-12-24 16:08:21.590374,-23
2021-12-24 16:08:21.590385,-539
2021-12-24 16:08:21.590395,-916
2021-12-24 16:08:21.590406,-471
2021-12-24 16:08:21.590416,346
2021-12-24 16:08:21.590427,435
2021-12-24 16:08:21.590437,98
2021-12-24 16:08:21.590479,134
2021-12-24 16:08:21.590490,226
2021-12-24 16:08:21.590500,131
2021-12-24 16:08:21.590511,122
2021-12-24 16:08:21.590521,169
2021-12-24 16:08:21.590532,148
2021-12-24 16:08:21.590543,124
2021-12-24 16:08:21.590553,120
2021-12-24 16:08:21.590564,103
2021-12-24 16:08:21.590574,94
2021-12-24 16:08:21.860392,96
2021-12-24 16:08:21.860415,91
2021-12-24 16:08:21.860422,77
2021-12-24 16:08:21.860429,49
2021-12-24 16:08:21.860435,25
2021-12-24 16:08:21.860441,14
2021-12-24 16:08:21.860448,-2
2021-12-24 16:08:21.860454,-25
2021-12-24 16:08:21.860461,-56
2021-12-24 16:08:21.860467,-91
2021-12-24 16:08:21.860473,-124
2021-12-24 16:08:21.860479,-146
2021-12-24 16:08:21.860486,-150
2021-12-24 16:08:21.860492,-155
2021-12-24 16:08:21.860498,-162
2021-12-24 16:08:21.860505,-157
2021-12-24 16:08:21.860511,-134
2021-12-24 16:08:21.860517,-84
2021-12-24 16:08:21.860524,-23
2021-12-24 16:08:21.860530,35
2021-12-24 16:08:21.860536,91
2021-12-24 16:08:21.860543,134
2021-12-24 16:08:21.860549,150
2021-12-24 16:08:21.860555,157
2021-12-24 16:08:21.860561,162
2021-12-24 16:08:21.860568,164
2021-12-24 16:08:21.860574,167
2021-12-24 16:08:21.860580,164
2021-12-24 16:08:21.860586,157
2021-12-24 16:08:21.860593,148
2021-12-24 16:08:22.129205,148
2021-12-24 16:08:22.129236,153
2021-12-24 16:08:22.129248,150
2021-12-24 16:08:22.129259,141
2021-12-24 16:08:22.129269,139
2021-12-24 16:08:22.129279,139
2021-12-24 16:08:22.129288,136
2021-12-24 16:08:22.129298,139
2021-12-24 16:08:22.129308,136
2021-12-24 16:08:22.129318,124
2021-12-24 16:08:22.129328,120
2021-12-24 16:08:22.129338,120
2021-12-24 16:08:22.129348,124
2021-12-24 16:08:22.129358,131
2021-12-24 16:08:22.129368,122
2021-12-24 16:08:22.129378,110
2021-12-24 16:08:22.129387,115
2021-12-24 16:08:22.129397,120
2021-12-24 16:08:22.129407,113
2021-12-24 16:08:22.129417,110
2021-12-24 16:08:22.129427,115
2021-12-24 16:08:22.129437,117
2021-12-24 16:08:22.129446,115
2021-12-24 16:08:22.129456,115
2021-12-24 16:08:22.129466,120
2021-12-24 16:08:22.129476,122
2021-12-24 16:08:22.129485,122
2021-12-24 16:08:22.129495,110
2021-12-24 16:08:22.129505,89
2021-12-24 16:08:22.129515,73
2021-12-24 16:08:22.310719,77
2021-12-24 16:08:22.310750,96
2021-12-24 16:08:22.310762,110
2021-12-24 16:08:22.310772,113
2021-12-24 16:08:22.310782,117
2021-12-24 16:08:22.310792,124
2021-12-24 16:08:22.310802,124
2021-12-24 16:08:22.310812,117
2021-12-24 16:08:22.310822,110
2021-12-24 16:08:22.310832,106
2021-12-24 16:08:22.310842,106
2021-12-24 16:08:22.310852,122
2021-12-24 16:08:22.310862,153
2021-12-24 16:08:22.310871,37
2021-12-24 16:08:22.310881,-426
2021-12-24 16:08:22.310891,-881
2021-12-24 16:08:22.310901,-607
2021-12-24 16:08:22.310911,207
2021-12-24 16:08:22.310921,464
2021-12-24 16:08:22.310930,141
2021-12-24 16:08:22.310940,98
2021-12-24 16:08:22.310950,212
2021-12-24 16:08:22.310960,139
2021-12-24 16:08:22.310969,110
2021-12-24 16:08:22.310979,157
2021-12-24 16:08:22.310989,131
2021-12-24 16:08:22.310999,98
2021-12-24 16:08:22.311008,117
2021-12-24 16:08:22.311018,117
2021-12-24 16:08:22.311028,91
2021-12-24 16:08:22.534380,73
2021-12-24 16:08:22.534399,61
2021-12-24 16:08:22.534407,56
2021-12-24 16:08:22.534414,44
2021-12-24 16:08:22.534420,23
2021-12-24 16:08:22.534427,2
2021-12-24 16:08:22.534433,-14
2021-12-24 16:08:22.534439,-37
2021-12-24 16:08:22.534446,-65
2021-12-24 16:08:22.534452,-96
2021-12-24 16:08:22.534459,-127
2021-12-24 16:08:22.534465,-141
2021-12-24 16:08:22.534472,-150
2021-12-24 16:08:22.534478,-164
2021-12-24 16:08:22.534484,-164
2021-12-24 16:08:22.534491,-153
2021-12-24 16:08:22.534497,-136
2021-12-24 16:08:22.534504,-96
2021-12-24 16:08:22.534510,-35
2021-12-24 16:08:22.534517,32
2021-12-24 16:08:22.534523,84
2021-12-24 16:08:22.534529,113
2021-12-24 16:08:22.534536,131
2021-12-24 16:08:22.534542,157
2021-12-24 16:08:22.534548,167
2021-12-24 16:08:22.534555,162
2021-12-24 16:08:22.534561,169
2021-12-24 16:08:22.534568,174
2021-12-24 16:08:22.534574,162
2021-12-24 16:08:22.534580,162
2021-12-24 16:08:22.805456,162
2021-12-24 16:08:22.805487,148
2021-12-24 16:08:22.805499,143
2021-12-24 16:08:22.805509,155
2021-12-24 16:08:22.805518,150
2021-12-24 16:08:22.805528,139
2021-12-24 16:08:22.805538,139
2021-12-24 16:08:22.805547,146
2021-12-24 16:08:22.805557,141
2021-12-24 16:08:22.805567,129
2021-12-24 16:08:22.805576,127
2021-12-24 16:08:22.805586,124
2021-12-24 16:08:22.805596,115
2021-12-24 16:08:22.805605,113
2021-12-24 16:08:22.805615,124
2021-12-24 16:08:22.805624,127
2021-12-24 16:08:22.805634,124
2021-12-24 16:08:22.805643,127
2021-12-24 16:08:22.805653,124
2021-12-24 16:08:22.805662,122
2021-12-24 16:08:22.805672,127
2021-12-24 16:08:22.805682,129
2021-12-24 16:08:22.805691,115
2021-12-24 16:08:22.805701,106
2021-12-24 16:08:22.805710,110
2021-12-24 16:08:22.805720,117
2021-12-24 16:08:22.805730,127
2021-12-24 16:08:22.805739,127
2021-12-24 16:08:22.805749,113
2021-12-24 16:08:22.805758,108
2021-12-24 16:08:22.985025,94
2021-12-24 16:08:22.985045,58
2021-12-24 16:08:22.985052,56
2021-12-24 16:08:22.985059,87
2021-12-24 16:08:22.985065,103
2021-12-24 16:08:22.985071,101
2021-12-24 16:08:22.985077,94
2021-12-24 16:08:22.985083,101
2021-12-24 16:08:22.985089,113
2021-12-24 16:08:22.985095,117
2021-12-24 16:08:22.985101,113
2021-12-24 16:08:22.985107,98
2021-12-24 16:08:22.985114,94
2021-12-24 16:08:22.985120,106
2021-12-24 16:08:22.985126,139
2021-12-24 16:08:22.985132,87
2021-12-24 16:08:22.985138,-278
2021-12-24 16:08:22.985154,-803
2021-12-24 16:08:22.985161,-791
2021-12-24 16:08:22.985167,-35
2021-12-24 16:08:22.985174,473
2021-12-24 16:08:22.985180,221
2021-12-24 16:08:22.985186,51
2021-12-24 16:08:22.985192,195
2021-12-24 16:08:22.985199,171
2021-12-24 16:08:22.985205,87
2021-12-24 16:08:22.985211,122
2021-12-24 16:08:22.985217,136
2021-12-24 16:08:22.985223,98
2021-12-24 16:08:22.985229,89
2021-12-24 16:08:23.210216,89
2021-12-24 16:08:23.210246,80
2021-12-24 16:08:23.210258,70
2021-12-24 16:08:23.210269,58
2021-12-24 16:08:23.210278,47
2021-12-24 16:08:23.210288,37
2021-12-24 16:08:23.210298,25
2021-12-24 16:08:23.210308,7
2021-12-24 16:08:23.210317,-9
2021-12-24 16:08:23.210327,-28
2021-12-24 16:08:23.210337,-54
2021-12-24 16:08:23.210347,-91
2021-12-24 16:08:23.210357,-122
2021-12-24 16:08:23.210367,-136
2021-12-24 16:08:23.210376,-153
2021-12-24 16:08:23.210386,-164
2021-12-24 16:08:23.210396,-162
2021-12-24 16:08:23.210405,-150
2021-12-24 16:08:23.210415,-136
2021-12-24 16:08:23.210425,-106
2021-12-24 16:08:23.210435,-58
2021-12-24 16:08:23.210445,-2
2021-12-24 16:08:23.210454,58
2021-12-24 16:08:23.210464,113
2021-12-24 16:08:23.210474,143
2021-12-24 16:08:23.210484,150
2021-12-24 16:08:23.210494,157
2021-12-24 16:08:23.210503,167
2021-12-24 16:08:23.210513,164
2021-12-24 16:08:23.210523,157
2021-12-24 16:08:23.434698,155
2021-12-24 16:08:23.434720,153
2021-12-24 16:08:23.434728,155
2021-12-24 16:08:23.434734,153
2021-12-24 16:08:23.434741,139
2021-12-24 16:08:23.434748,131
2021-12-24 16:08:23.434754,136
2021-12-24 16:08:23.434760,131
2021-12-24 16:08:23.434767,131
2021-12-24 16:08:23.434773,129
2021-12-24 16:08:23.434780,115
2021-12-24 16:08:23.434786,103
2021-12-24 16:08:23.434793,101
2021-12-24 16:08:23.434799,96
2021-12-24 16:08:23.434806,101
2021-12-24 16:08:23.434812,108
2021-12-24 16:08:23.434818,103
2021-12-24 16:08:23.434825,98
2021-12-24 16:08:23.434831,108
2021-12-24 16:08:23.434837,113
2021-12-24 16:08:23.434843,110
2021-12-24 16:08:23.434850,103
2021-12-24 16:08:23.434856,94
2021-12-24 16:08:23.434862,87
2021-12-24 16:08:23.434869,91
2021-12-24 16:08:23.434875,101
2021-12-24 16:08:23.434882,103
2021-12-24 16:08:23.434888,98
2021-12-24 16:08:23.434894,103
2021-12-24 16:08:23.434901,108
2021-12-24 16:08:23.705577,94
2021-12-24 16:08:23.705606,65
2021-12-24 16:08:23.705618,54
2021-12-24 16:08:23.705627,56
2021-12-24 16:08:23.705637,65
2021-12-24 16:08:23.705647,77
2021-12-24 16:08:23.705656,87
2021-12-24 16:08:23.705666,91
2021-12-24 16:08:23.705675,94
2021-12-24 16:08:23.705685,91
2021-12-24 16:08:23.705695,84
2021-12-24 16:08:23.705704,89
2021-12-24 16:08:23.705714,89
2021-12-24 16:08:23.705723,77
2021-12-24 16:08:23.705733,98
2021-12-24 16:08:23.705743,103
2021-12-24 16:08:23.705752,-171
2021-12-24 16:08:23.705762,-709
2021-12-24 16:08:23.705772,-869
2021-12-24 16:08:23.705782,-195
2021-12-24 16:08:23.705792,468
2021-12-24 16:08:23.705801,289
2021-12-24 16:08:23.705811,21
2021-12-24 16:08:23.705820,155
2021-12-24 16:08:23.705830,171
2021-12-24 16:08:23.705840,63
2021-12-24 16:08:23.705849,89
2021-12-24 16:08:23.705859,115
2021-12-24 16:08:23.705869,77
2021-12-24 16:08:23.705879,68
2021-12-24 16:08:23.929987,73
2021-12-24 16:08:23.930018,56
2021-12-24 16:08:23.930030,42
2021-12-24 16:08:23.930040,35
2021-12-24 16:08:23.930049,28
2021-12-24 16:08:23.930059,14
2021-12-24 16:08:23.930068,2
2021-12-24 16:08:23.930078,-7
2021-12-24 16:08:23.930087,-32
2021-12-24 16:08:23.930097,-65
2021-12-24 16:08:23.930106,-82
2021-12-24 16:08:23.930116,-98
2021-12-24 16:08:23.930125,-136
2021-12-24 16:08:23.930135,-169
2021-12-24 16:08:23.930145,-176
2021-12-24 16:08:23.930154,-186
2021-12-24 16:08:23.930163,-200
2021-12-24 16:08:23.930173,-200
2021-12-24 16:08:23.930182,-181
2021-12-24 16:08:23.930192,-146
2021-12-24 16:08:23.930201,-94
2021-12-24 16:08:23.930211,-30
2021-12-24 16:08:23.930220,35
2021-12-24 16:08:23.930230,84
2021-12-24 16:08:23.930239,120
2021-12-24 16:08:23.930249,146
2021-12-24 16:08:23.930258,155
2021-12-24 16:08:23.930268,157
2021-12-24 16:08:23.930277,162
2021-12-24 16:08:23.930287,164
2021-12-24 16:08:24.198765,164
2021-12-24 16:08:24.198790,164
2021-12-24 16:08:24.198798,162
2021-12-24 16:08:24.198805,160
2021-12-24 16:08:24.198811,153
2021-12-24 16:08:24.198818,153
2021-12-24 16:08:24.198824,150
2021-12-24 16:08:24.198830,139
2021-12-24 16:08:24.198837,129
2021-12-24 16:08:24.198843,129
2021-12-24 16:08:24.198849,124
2021-12-24 16:08:24.198855,124
2021-12-24 16:08:24.198861,131
2021-12-24 16:08:24.198868,124
2021-12-24 16:08:24.198874,115
2021-12-24 16:08:24.198880,122
2021-12-24 16:08:24.198886,129
2021-12-24 16:08:24.198892,127
2021-12-24 16:08:24.198899,122
2021-12-24 16:08:24.198905,124
2021-12-24 16:08:24.198911,129
2021-12-24 16:08:24.198917,124
2021-12-24 16:08:24.198924,127
2021-12-24 16:08:24.198930,139
2021-12-24 16:08:24.198936,136
2021-12-24 16:08:24.198942,110
2021-12-24 16:08:24.198948,87
2021-12-24 16:08:24.198954,89
2021-12-24 16:08:24.198961,98
2021-12-24 16:08:24.198967,113
2021-12-24 16:08:24.514355,131
2021-12-24 16:08:24.514386,141
2021-12-24 16:08:24.514398,131
2021-12-24 16:08:24.514408,127
2021-12-24 16:08:24.514418,134
2021-12-24 16:08:24.514428,134
2021-12-24 16:08:24.514438,127
2021-12-24 16:08:24.514448,117
2021-12-24 16:08:24.514458,106
2021-12-24 16:08:24.514467,134
2021-12-24 16:08:24.514477,164
2021-12-24 16:08:24.514487,-54
2021-12-24 16:08:24.514497,-593
2021-12-24 16:08:24.514507,-869
2021-12-24 16:08:24.514517,-294
2021-12-24 16:08:24.514527,452
2021-12-24 16:08:24.514537,384
2021-12-24 16:08:24.514547,68
2021-12-24 16:08:24.514557,160
2021-12-24 16:08:24.514566,209
2021-12-24 16:08:24.514576,110
2021-12-24 16:08:24.514586,117
2021-12-24 16:08:24.514596,139
2021-12-24 16:08:24.514606,96
2021-12-24 16:08:24.514615,84
2021-12-24 16:08:24.514625,91
2021-12-24 16:08:24.514635,87
2021-12-24 16:08:24.514645,80
2021-12-24 16:08:24.514655,70
2021-12-24 16:08:24.514665,58
2021-12-24 16:08:24.605492,49
2021-12-24 16:08:24.605523,37
2021-12-24 16:08:24.605534,25
2021-12-24 16:08:24.605544,7
2021-12-24 16:08:24.605554,-23
2021-12-24 16:08:24.605564,-47
2021-12-24 16:08:24.605573,-63
2021-12-24 16:08:24.605583,-96
2021-12-24 16:08:24.605592,-129
2021-12-24 16:08:24.605602,-136
2021-12-24 16:08:24.605612,-139
2021-12-24 16:08:24.605622,-153
2021-12-24 16:08:24.605631,-153
2021-12-24 16:08:24.605641,-136
2021-12-24 16:08:24.605651,-106
2021-12-24 16:08:24.605660,-51
2021-12-24 16:08:24.605670,11
2021-12-24 16:08:24.605680,63
2021-12-24 16:08:24.605689,110
2021-12-24 16:08:24.605699,153
2021-12-24 16:08:24.605708,176
2021-12-24 16:08:24.605718,179
2021-12-24 16:08:24.605728,186
2021-12-24 16:08:24.605737,186
2021-12-24 16:08:24.605747,176
2021-12-24 16:08:24.605756,181
2021-12-24 16:08:24.605766,188
2021-12-24 16:08:24.605776,174
2021-12-24 16:08:24.605785,157
2021-12-24 16:08:24.605795,162
2021-12-24 16:08:24.874951,169
2021-12-24 16:08:24.874974,162
2021-12-24 16:08:24.874981,153
2021-12-24 16:08:24.874988,150
2021-12-24 16:08:24.874994,153
2021-12-24 16:08:24.875001,150
2021-12-24 16:08:24.875007,141
2021-12-24 16:08:24.875013,139
2021-12-24 16:08:24.875019,143
2021-12-24 16:08:24.875026,136
2021-12-24 16:08:24.875032,127
2021-12-24 16:08:24.875038,129
2021-12-24 16:08:24.875044,129
2021-12-24 16:08:24.875051,124
2021-12-24 16:08:24.875057,124
2021-12-24 16:08:24.875063,129
2021-12-24 16:08:24.875069,134
2021-12-24 16:08:24.875076,136
2021-12-24 16:08:24.875082,131
2021-12-24 16:08:24.875088,129
2021-12-24 16:08:24.875094,131
2021-12-24 16:08:24.875101,141
2021-12-24 16:08:24.875107,134
2021-12-24 16:08:24.875113,106
2021-12-24 16:08:24.875119,82
2021-12-24 16:08:24.875125,84
2021-12-24 16:08:24.875132,98
2021-12-24 16:08:24.875138,113
2021-12-24 16:08:24.875144,120
2021-12-24 16:08:24.875151,117
2021-12-24 16:08:25.054674,117
2021-12-24 16:08:25.054694,127
2021-12-24 16:08:25.054702,129
2021-12-24 16:08:25.054708,122
2021-12-24 16:08:25.054715,110
2021-12-24 16:08:25.054721,101
2021-12-24 16:08:25.054727,106
2021-12-24 16:08:25.054734,141
2021-12-24 16:08:25.054740,129
2021-12-24 16:08:25.054746,-167
2021-12-24 16:08:25.054753,-704
2021-12-24 16:08:25.054759,-841
2021-12-24 16:08:25.054766,-171
2021-12-24 16:08:25.054772,464
2021-12-24 16:08:25.054778,299
2021-12-24 16:08:25.054785,56
2021-12-24 16:08:25.054791,176
2021-12-24 16:08:25.054797,188
2021-12-24 16:08:25.054804,94
2021-12-24 16:08:25.054810,117
2021-12-24 16:08:25.054816,141
2021-12-24 16:08:25.054823,108
2021-12-24 16:08:25.054829,101
2021-12-24 16:08:25.054835,108
2021-12-24 16:08:25.054841,101
2021-12-24 16:08:25.054848,96
2021-12-24 16:08:25.054854,77
2021-12-24 16:08:25.054860,51
2021-12-24 16:08:25.054867,47
2021-12-24 16:08:25.054873,47
2021-12-24 16:08:25.370246,25
2021-12-24 16:08:25.370275,2
2021-12-24 16:08:25.370287,-14
2021-12-24 16:08:25.370297,-37
2021-12-24 16:08:25.370307,-68
2021-12-24 16:08:25.370316,-94
2021-12-24 16:08:25.370326,-115
2021-12-24 16:08:25.370336,-124
2021-12-24 16:08:25.370345,-131
2021-12-24 16:08:25.370354,-143
2021-12-24 16:08:25.370364,-153
2021-12-24 16:08:25.370374,-136
2021-12-24 16:08:25.370383,-101
2021-12-24 16:08:25.370393,-54
2021-12-24 16:08:25.370413,4
2021-12-24 16:08:25.370423,63
2021-12-24 16:08:25.370433,108
2021-12-24 16:08:25.370442,139
2021-12-24 16:08:25.370452,164
2021-12-24 16:08:25.370462,179
2021-12-24 16:08:25.370471,179
2021-12-24 16:08:25.370481,181
2021-12-24 16:08:25.370490,181
2021-12-24 16:08:25.370500,181
2021-12-24 16:08:25.370510,179
2021-12-24 16:08:25.370519,171
2021-12-24 16:08:25.370529,167
2021-12-24 16:08:25.370539,167
2021-12-24 16:08:25.370548,164
2021-12-24 16:08:25.370558,164
2021-12-24 16:08:25.549987,167
2021-12-24 16:08:25.550017,167
2021-12-24 16:08:25.550029,160
2021-12-24 16:08:25.550039,150
2021-12-24 16:08:25.550049,143
2021-12-24 16:08:25.550059,139
2021-12-24 16:08:25.550069,136
2021-12-24 16:08:25.550078,143
2021-12-24 16:08:25.550088,143
2021-12-24 16:08:25.550098,141
2021-12-24 16:08:25.550107,141
2021-12-24 16:08:25.550117,143
2021-12-24 16:08:25.550126,136
2021-12-24 16:08:25.550136,129
2021-12-24 16:08:25.550145,134
2021-12-24 16:08:25.550155,129
2021-12-24 16:08:25.550164,120
2021-12-24 16:08:25.550173,127
2021-12-24 16:08:25.550183,136
2021-12-24 16:08:25.550192,139
2021-12-24 16:08:25.550202,131
2021-12-24 16:08:25.550211,106
2021-12-24 16:08:25.550221,77
2021-12-24 16:08:25.550230,80
2021-12-24 16:08:25.550240,98
2021-12-24 16:08:25.550249,113
2021-12-24 16:08:25.550259,120
2021-12-24 16:08:25.550268,120
2021-12-24 16:08:25.550278,115
2021-12-24 16:08:25.550287,124
2021-12-24 16:08:25.774290,131
2021-12-24 16:08:25.774309,127
2021-12-24 16:08:25.774317,120
2021-12-24 16:08:25.774324,120
2021-12-24 16:08:25.774330,120
2021-12-24 16:08:25.774337,143
2021-12-24 16:08:25.774343,110
2021-12-24 16:08:25.774349,-230
2021-12-24 16:08:25.774356,-756
2021-12-24 16:08:25.774362,-770
2021-12-24 16:08:25.774369,-35
2021-12-24 16:08:25.774376,473
2021-12-24 16:08:25.774382,233
2021-12-24 16:08:25.774388,63
2021-12-24 16:08:25.774395,193
2021-12-24 16:08:25.774401,167
2021-12-24 16:08:25.774407,87
2021-12-24 16:08:25.774414,115
2021-12-24 16:08:25.774420,129
2021-12-24 16:08:25.774427,101
2021-12-24 16:08:25.774433,87
2021-12-24 16:08:25.774439,82
2021-12-24 16:08:25.774446,80
2021-12-24 16:08:25.774452,75
2021-12-24 16:08:25.774458,61
2021-12-24 16:08:25.774465,54
2021-12-24 16:08:25.774471,44
2021-12-24 16:08:25.774477,23
2021-12-24 16:08:25.774484,9
2021-12-24 16:08:25.774490,-2
2021-12-24 16:08:26.000217,-21
2021-12-24 16:08:26.000247,-44
2021-12-24 16:08:26.000258,-73
2021-12-24 16:08:26.000269,-103
2021-12-24 16:08:26.000279,-122
2021-12-24 16:08:26.000289,-134
2021-12-24 16:08:26.000299,-141
2021-12-24 16:08:26.000308,-146
2021-12-24 16:08:26.000318,-153
2021-12-24 16:08:26.000328,-143
2021-12-24 16:08:26.000338,-108
2021-12-24 16:08:26.000347,-54
2021-12-24 16:08:26.000357,7
2021-12-24 16:08:26.000367,61
2021-12-24 16:08:26.000377,98
2021-12-24 16:08:26.000386,127
2021-12-24 16:08:26.000396,148
2021-12-24 16:08:26.000406,162
2021-12-24 16:08:26.000416,162
2021-12-24 16:08:26.000426,160
2021-12-24 16:08:26.000435,155
2021-12-24 16:08:26.000445,153
2021-12-24 16:08:26.000455,150
2021-12-24 16:08:26.000465,148
2021-12-24 16:08:26.000475,150
2021-12-24 16:08:26.000484,150
2021-12-24 16:08:26.000494,143
2021-12-24 16:08:26.000504,139
2021-12-24 16:08:26.000514,134
2021-12-24 16:08:26.000524,136
2021-12-24 16:08:26.269347,139
2021-12-24 16:08:26.269370,129
2021-12-24 16:08:26.269377,122
2021-12-24 16:08:26.269384,122
2021-12-24 16:08:26.269390,127
2021-12-24 16:08:26.269396,131
2021-12-24 16:08:26.269403,131
2021-12-24 16:08:26.269409,122
2021-12-24 16:08:26.269415,120
2021-12-24 16:08:26.269421,120
2021-12-24 16:08:26.269427,120
2021-12-24 16:08:26.269434,122
2021-12-24 16:08:26.269440,122
2021-12-24 16:08:26.269446,115
2021-12-24 16:08:26.269452,108
2021-12-24 16:08:26.269459,113
2021-12-24 16:08:26.269465,124
2021-12-24 16:08:26.269471,127
2021-12-24 16:08:26.269477,113
2021-12-24 16:08:26.269483,89
2021-12-24 16:08:26.269489,68
2021-12-24 16:08:26.269495,68
2021-12-24 16:08:26.269502,82
2021-12-24 16:08:26.269508,98
2021-12-24 16:08:26.269514,106
2021-12-24 16:08:26.269520,108
2021-12-24 16:08:26.269526,113
2021-12-24 16:08:26.269532,108
2021-12-24 16:08:26.269539,106
2021-12-24 16:08:26.269545,110
2021-12-24 16:08:26.449975,113
2021-12-24 16:08:26.450006,106
2021-12-24 16:08:26.450018,101
2021-12-24 16:08:26.450028,141
2021-12-24 16:08:26.450038,96
2021-12-24 16:08:26.450048,-292
2021-12-24 16:08:26.450058,-805
2021-12-24 16:08:26.450068,-711
2021-12-24 16:08:26.450078,63
2021-12-24 16:08:26.450088,461
2021-12-24 16:08:26.450098,171
2021-12-24 16:08:26.450108,63
2021-12-24 16:08:26.450118,202
2021-12-24 16:08:26.450127,150
2021-12-24 16:08:26.450137,82
2021-12-24 16:08:26.450147,120
2021-12-24 16:08:26.450157,117
2021-12-24 16:08:26.450167,84
2021-12-24 16:08:26.450176,77
2021-12-24 16:08:26.450186,70
2021-12-24 16:08:26.450196,61
2021-12-24 16:08:26.450206,56
2021-12-24 16:08:26.450216,42
2021-12-24 16:08:26.450226,23
2021-12-24 16:08:26.450236,14
2021-12-24 16:08:26.450245,2
2021-12-24 16:08:26.450255,-16
2021-12-24 16:08:26.450265,-37
2021-12-24 16:08:26.450275,-58
2021-12-24 16:08:26.450285,-84
2021-12-24 16:08:26.674882,-110
2021-12-24 16:08:26.674904,-136
2021-12-24 16:08:26.674912,-157
2021-12-24 16:08:26.674918,-171
2021-12-24 16:08:26.674925,-179
2021-12-24 16:08:26.674931,-179
2021-12-24 16:08:26.674937,-171
2021-12-24 16:08:26.674944,-155
2021-12-24 16:08:26.674950,-129
2021-12-24 16:08:26.674956,-73
2021-12-24 16:08:26.674962,-4
2021-12-24 16:08:26.674969,44
2021-12-24 16:08:26.674975,82
2021-12-24 16:08:26.674981,117
2021-12-24 16:08:26.674987,134
2021-12-24 16:08:26.674994,141
2021-12-24 16:08:26.675000,150
2021-12-24 16:08:26.675006,150
2021-12-24 16:08:26.675013,146
2021-12-24 16:08:26.675019,150
2021-12-24 16:08:26.675025,148
2021-12-24 16:08:26.675031,139
2021-12-24 16:08:26.675038,136
2021-12-24 16:08:26.675044,136
2021-12-24 16:08:26.675050,122
2021-12-24 16:08:26.675056,115
2021-12-24 16:08:26.675062,115
2021-12-24 16:08:26.675069,110
2021-12-24 16:08:26.675075,115
2021-12-24 16:08:26.675081,122
2021-12-24 16:08:26.900402,115
2021-12-24 16:08:26.900431,103
2021-12-24 16:08:26.900443,106
2021-12-24 16:08:26.900454,110
2021-12-24 16:08:26.900463,103
2021-12-24 16:08:26.900473,96
2021-12-24 16:08:26.900483,98
2021-12-24 16:08:26.900492,101
2021-12-24 16:08:26.900502,101
2021-12-24 16:08:26.900511,96
2021-12-24 16:08:26.900521,84
2021-12-24 16:08:26.900531,89
2021-12-24 16:08:26.900540,101
2021-12-24 16:08:26.900550,94
2021-12-24 16:08:26.900559,63
2021-12-24 16:08:26.900569,44
2021-12-24 16:08:26.900578,54
2021-12-24 16:08:26.900588,73
2021-12-24 16:08:26.900597,87
2021-12-24 16:08:26.900607,98
2021-12-24 16:08:26.900616,101
2021-12-24 16:08:26.900626,89
2021-12-24 16:08:26.900635,87
2021-12-24 16:08:26.900645,89
2021-12-24 16:08:26.900654,89
2021-12-24 16:08:26.900664,87
2021-12-24 16:08:26.900673,82
2021-12-24 16:08:26.900683,84
2021-12-24 16:08:26.900692,120
2021-12-24 16:08:26.900702,40
2021-12-24 16:08:27.169940,-391
2021-12-24 16:08:27.169970,-871
2021-12-24 16:08:27.169982,-621
2021-12-24 16:08:27.169992,230
2021-12-24 16:08:27.170002,497
2021-12-24 16:08:27.170012,113
2021-12-24 16:08:27.170021,56
2021-12-24 16:08:27.170031,204
2021-12-24 16:08:27.170040,122
2021-12-24 16:08:27.170050,68
2021-12-24 16:08:27.170060,117
2021-12-24 16:08:27.170069,103
2021-12-24 16:08:27.170079,73
2021-12-24 16:08:27.170088,77
2021-12-24 16:08:27.170098,75
2021-12-24 16:08:27.170108,61
2021-12-24 16:08:27.170117,51
2021-12-24 16:08:27.170127,44
2021-12-24 16:08:27.170136,28
2021-12-24 16:08:27.170146,7
2021-12-24 16:08:27.170156,-4
2021-12-24 16:08:27.170165,-18
2021-12-24 16:08:27.170175,-47
2021-12-24 16:08:27.170185,-75
2021-12-24 16:08:27.170194,-101
2021-12-24 16:08:27.170204,-129
2021-12-24 16:08:27.170214,-153
2021-12-24 16:08:27.170224,-171
2021-12-24 16:08:27.170233,-188
2021-12-24 16:08:27.170243,-193
2021-12-24 16:08:27.484805,-197
2021-12-24 16:08:27.484836,-195
2021-12-24 16:08:27.484847,-169
2021-12-24 16:08:27.484858,-120
2021-12-24 16:08:27.484868,-56
2021-12-24 16:08:27.484878,14
2021-12-24 16:08:27.484889,80
2021-12-24 16:08:27.484899,124
2021-12-24 16:08:27.484908,148
2021-12-24 16:08:27.484919,157
2021-12-24 16:08:27.484929,164
2021-12-24 16:08:27.484939,162
2021-12-24 16:08:27.484948,157
2021-12-24 16:08:27.484959,162
2021-12-24 16:08:27.484969,169
2021-12-24 16:08:27.484979,155
2021-12-24 16:08:27.484989,146
2021-12-24 16:08:27.484999,146
2021-12-24 16:08:27.485009,143
2021-12-24 16:08:27.485019,139
2021-12-24 16:08:27.485029,139
2021-12-24 16:08:27.485039,136
2021-12-24 16:08:27.485049,134
2021-12-24 16:08:27.485059,131
2021-12-24 16:08:27.485069,127
2021-12-24 16:08:27.485079,122
2021-12-24 16:08:27.485089,115
2021-12-24 16:08:27.485099,108
2021-12-24 16:08:27.485109,108
2021-12-24 16:08:27.485120,113
2021-12-24 16:08:27.619945,115
2021-12-24 16:08:27.619975,110
2021-12-24 16:08:27.619986,106
2021-12-24 16:08:27.619997,108
2021-12-24 16:08:27.620006,106
2021-12-24 16:08:27.620016,89
2021-12-24 16:08:27.620026,75
2021-12-24 16:08:27.620035,82
2021-12-24 16:08:27.620045,96
2021-12-24 16:08:27.620054,103
2021-12-24 16:08:27.620064,108
2021-12-24 16:08:27.620073,110
2021-12-24 16:08:27.620083,120
2021-12-24 16:08:27.620093,122
2021-12-24 16:08:27.620102,110
2021-12-24 16:08:27.620112,101
2021-12-24 16:08:27.620122,103
2021-12-24 16:08:27.620131,106
2021-12-24 16:08:27.620141,122
2021-12-24 16:08:27.620150,155
2021-12-24 16:08:27.620160,-4
2021-12-24 16:08:27.620170,-513
2021-12-24 16:08:27.620180,-892
2021-12-24 16:08:27.620190,-433
2021-12-24 16:08:27.620199,395
2021-12-24 16:08:27.620209,457
2021-12-24 16:08:27.620219,94
2021-12-24 16:08:27.620228,129
2021-12-24 16:08:27.620238,219
2021-12-24 16:08:27.620247,124
2021-12-24 16:08:27.845610,120
2021-12-24 16:08:27.845640,160
2021-12-24 16:08:27.845652,124
2021-12-24 16:08:27.845663,96
2021-12-24 16:08:27.845673,108
2021-12-24 16:08:27.845683,101
2021-12-24 16:08:27.845693,87
2021-12-24 16:08:27.845703,82
2021-12-24 16:08:27.845713,73
2021-12-24 16:08:27.845723,47
2021-12-24 16:08:27.845733,32
2021-12-24 16:08:27.845743,28
2021-12-24 16:08:27.845753,9
2021-12-24 16:08:27.845763,-21
2021-12-24 16:08:27.845773,-51
2021-12-24 16:08:27.845782,-87
2021-12-24 16:08:27.845792,-113
2021-12-24 16:08:27.845802,-129
2021-12-24 16:08:27.845812,-150
2021-12-24 16:08:27.845839,-171
2021-12-24 16:08:27.845849,-174
2021-12-24 16:08:27.845859,-164
2021-12-24 16:08:27.845869,-153
2021-12-24 16:08:27.845879,-120
2021-12-24 16:08:27.845889,-61
2021-12-24 16:08:27.845898,2
2021-12-24 16:08:27.845909,54
2021-12-24 16:08:27.845919,103
2021-12-24 16:08:27.845929,148
2021-12-24 16:08:27.845939,167
2021-12-24 16:08:28.115451,171
2021-12-24 16:08:28.115472,179
2021-12-24 16:08:28.115480,176
2021-12-24 16:08:28.115486,167
2021-12-24 16:08:28.115493,167
2021-12-24 16:08:28.115499,162
2021-12-24 16:08:28.115505,153
2021-12-24 16:08:28.115511,146
2021-12-24 16:08:28.115518,139
2021-12-24 16:08:28.115524,134
2021-12-24 16:08:28.115530,136
2021-12-24 16:08:28.115537,136
2021-12-24 16:08:28.115543,136
2021-12-24 16:08:28.115549,129
2021-12-24 16:08:28.115556,115
2021-12-24 16:08:28.115562,115
2021-12-24 16:08:28.115568,124
2021-12-24 16:08:28.115574,124
2021-12-24 16:08:28.115581,122
2021-12-24 16:08:28.115587,127
2021-12-24 16:08:28.115593,124
2021-12-24 16:08:28.115599,120
2021-12-24 16:08:28.115606,120
2021-12-24 16:08:28.115612,122
2021-12-24 16:08:28.115618,127
2021-12-24 16:08:28.115624,134
2021-12-24 16:08:28.115630,139
2021-12-24 16:08:28.115637,115
2021-12-24 16:08:28.115643,80
2021-12-24 16:08:28.115649,82
2021-12-24 16:08:28.383320,103
2021-12-24 16:08:28.383348,115
2021-12-24 16:08:28.383361,122
2021-12-24 16:08:28.383370,127
2021-12-24 16:08:28.383377,127
2021-12-24 16:08:28.383383,129
2021-12-24 16:08:28.383389,129
2021-12-24 16:08:28.383396,122
2021-12-24 16:08:28.383402,115
2021-12-24 16:08:28.383409,113
2021-12-24 16:08:28.383415,115
2021-12-24 16:08:28.383421,148
2021-12-24 16:08:28.383428,110
2021-12-24 16:08:28.383434,-254
2021-12-24 16:08:28.383440,-803
2021-12-24 16:08:28.383447,-796
2021-12-24 16:08:28.383453,-16
2021-12-24 16:08:28.383460,508
2021-12-24 16:08:28.383466,242
2021-12-24 16:08:28.383472,65
2021-12-24 16:08:28.383482,214
2021-12-24 16:08:28.383491,193
2021-12-24 16:08:28.383497,110
2021-12-24 16:08:28.383504,148
2021-12-24 16:08:28.383510,157
2021-12-24 16:08:28.383516,124
2021-12-24 16:08:28.383523,127
2021-12-24 16:08:28.383530,129
2021-12-24 16:08:28.383536,106
2021-12-24 16:08:28.383543,101
2021-12-24 16:08:28.565110,101
2021-12-24 16:08:28.565140,80
2021-12-24 16:08:28.565152,65
2021-12-24 16:08:28.565162,61
2021-12-24 16:08:28.565172,42
2021-12-24 16:08:28.565182,11
2021-12-24 16:08:28.565191,-11
2021-12-24 16:08:28.565201,-35
2021-12-24 16:08:28.565211,-68
2021-12-24 16:08:28.565221,-108
2021-12-24 16:08:28.565231,-134
2021-12-24 16:08:28.565240,-150
2021-12-24 16:08:28.565250,-157
2021-12-24 16:08:28.565260,-164
2021-12-24 16:08:28.565269,-164
2021-12-24 16:08:28.565279,-146
2021-12-24 16:08:28.565289,-98
2021-12-24 16:08:28.565299,-44
2021-12-24 16:08:28.565309,7
2021-12-24 16:08:28.565318,61
2021-12-24 16:08:28.565328,113
2021-12-24 16:08:28.565338,141
2021-12-24 16:08:28.565348,157
2021-12-24 16:08:28.565357,164
2021-12-24 16:08:28.565367,162
2021-12-24 16:08:28.565377,162
2021-12-24 16:08:28.565387,164
2021-12-24 16:08:28.565396,164
2021-12-24 16:08:28.565406,162
2021-12-24 16:08:28.565416,157
2021-12-24 16:08:28.790378,153
2021-12-24 16:08:28.790409,146
2021-12-24 16:08:28.790421,141
2021-12-24 16:08:28.790431,143
2021-12-24 16:08:28.790441,139
2021-12-24 16:08:28.790451,131
2021-12-24 16:08:28.790461,127
2021-12-24 16:08:28.790470,124
2021-12-24 16:08:28.790480,127
2021-12-24 16:08:28.790490,131
2021-12-24 16:08:28.790500,134
2021-12-24 16:08:28.790510,129
2021-12-24 16:08:28.790519,120
2021-12-24 16:08:28.790529,122
2021-12-24 16:08:28.790539,129
2021-12-24 16:08:28.790549,127
2021-12-24 16:08:28.790559,117
2021-12-24 16:08:28.790569,113
2021-12-24 16:08:28.790578,122
2021-12-24 16:08:28.790588,129
2021-12-24 16:08:28.790598,122
2021-12-24 16:08:28.790608,110
2021-12-24 16:08:28.790618,89
2021-12-24 16:08:28.790628,77
2021-12-24 16:08:28.790637,87
2021-12-24 16:08:28.790647,103
2021-12-24 16:08:28.790657,117
2021-12-24 16:08:28.790667,127
2021-12-24 16:08:28.790677,134
2021-12-24 16:08:28.790686,131
2021-12-24 16:08:28.969901,122
2021-12-24 16:08:28.969931,117
2021-12-24 16:08:28.969943,122
2021-12-24 16:08:28.969953,120
2021-12-24 16:08:28.969963,110
2021-12-24 16:08:28.969973,122
2021-12-24 16:08:28.969982,167
2021-12-24 16:08:28.969992,40
2021-12-24 16:08:28.970002,-457
2021-12-24 16:08:28.970011,-892
2021-12-24 16:08:28.970021,-544
2021-12-24 16:08:28.970031,273
2021-12-24 16:08:28.970041,452
2021-12-24 16:08:28.970050,129
2021-12-24 16:08:28.970060,122
2021-12-24 16:08:28.970070,219
2021-12-24 16:08:28.970080,131
2021-12-24 16:08:28.970090,106
2021-12-24 16:08:28.970099,153
2021-12-24 16:08:28.970109,134
2021-12-24 16:08:28.970119,113
2021-12-24 16:08:28.970128,124
2021-12-24 16:08:28.970138,113
2021-12-24 16:08:28.970148,89
2021-12-24 16:08:28.970157,87
2021-12-24 16:08:28.970167,84
2021-12-24 16:08:28.970177,73
2021-12-24 16:08:28.970186,61
2021-12-24 16:08:28.970196,40
2021-12-24 16:08:28.970206,18
2021-12-24 16:08:29.240536,4
2021-12-24 16:08:29.240557,-16
2021-12-24 16:08:29.240565,-54
2021-12-24 16:08:29.240572,-82
2021-12-24 16:08:29.240578,-106
2021-12-24 16:08:29.240585,-134
2021-12-24 16:08:29.240591,-143
2021-12-24 16:08:29.240597,-143
2021-12-24 16:08:29.240604,-146
2021-12-24 16:08:29.240610,-148
2021-12-24 16:08:29.240616,-127
2021-12-24 16:08:29.240623,-82
2021-12-24 16:08:29.240629,-25
2021-12-24 16:08:29.240636,35
2021-12-24 16:08:29.240642,94
2021-12-24 16:08:29.240648,131
2021-12-24 16:08:29.240655,148
2021-12-24 16:08:29.240661,153
2021-12-24 16:08:29.240667,160
2021-12-24 16:08:29.240674,164
2021-12-24 16:08:29.240680,160
2021-12-24 16:08:29.240686,160
2021-12-24 16:08:29.240693,160
2021-12-24 16:08:29.240699,155
2021-12-24 16:08:29.240705,148
2021-12-24 16:08:29.240711,150
2021-12-24 16:08:29.240718,153
2021-12-24 16:08:29.240724,139
2021-12-24 16:08:29.240730,129
2021-12-24 16:08:29.240737,134
2021-12-24 16:08:29.555482,136
2021-12-24 16:08:29.555513,129
2021-12-24 16:08:29.555525,131
2021-12-24 16:08:29.555535,131
2021-12-24 16:08:29.555544,124
2021-12-24 16:08:29.555554,124
2021-12-24 16:08:29.555563,131
2021-12-24 16:08:29.555573,129
2021-12-24 16:08:29.555583,117
2021-12-24 16:08:29.555592,120
2021-12-24 16:08:29.555602,122
2021-12-24 16:08:29.555611,113
2021-12-24 16:08:29.555620,110
2021-12-24 16:08:29.555630,120
2021-12-24 16:08:29.555640,122
2021-12-24 16:08:29.555649,117
2021-12-24 16:08:29.555659,122
2021-12-24 16:08:29.555669,120
2021-12-24 16:08:29.555678,87
2021-12-24 16:08:29.555688,56
2021-12-24 16:08:29.555697,58
2021-12-24 16:08:29.555707,75
2021-12-24 16:08:29.555716,89
2021-12-24 16:08:29.555726,101
2021-12-24 16:08:29.555735,103
2021-12-24 16:08:29.555745,101
2021-12-24 16:08:29.555754,103
2021-12-24 16:08:29.555764,106
2021-12-24 16:08:29.555773,108
2021-12-24 16:08:29.555783,101
2021-12-24 16:08:29.823596,101
2021-12-24 16:08:29.823626,106
2021-12-24 16:08:29.823639,136
2021-12-24 16:08:29.823649,117
2021-12-24 16:08:29.823659,-204
2021-12-24 16:08:29.823669,-737
2021-12-24 16:08:29.823679,-796
2021-12-24 16:08:29.823689,-80
2021-12-24 16:08:29.823699,473
2021-12-24 16:08:29.823709,252
2021-12-24 16:08:29.823719,56
2021-12-24 16:08:29.823728,193
2021-12-24 16:08:29.823738,181
2021-12-24 16:08:29.823748,106
2021-12-24 16:08:29.823758,139
2021-12-24 16:08:29.823768,150
2021-12-24 16:08:29.823778,120
2021-12-24 16:08:29.823787,124
2021-12-24 16:08:29.823797,122
2021-12-24 16:08:29.823807,98
2021-12-24 16:08:29.823817,89
2021-12-24 16:08:29.823827,89
2021-12-24 16:08:29.823836,73
2021-12-24 16:08:29.823846,56
2021-12-24 16:08:29.823856,47
2021-12-24 16:08:29.823866,32
2021-12-24 16:08:29.823875,9
2021-12-24 16:08:29.823885,-16
2021-12-24 16:08:29.823895,-42
2021-12-24 16:08:29.823905,-63
2021-12-24 16:08:29.959862,-87
2021-12-24 16:08:29.959892,-110
2021-12-24 16:08:29.959904,-129
2021-12-24 16:08:29.959914,-143
2021-12-24 16:08:29.959924,-150
2021-12-24 16:08:29.959933,-148
2021-12-24 16:08:29.959943,-136
2021-12-24 16:08:29.959952,-106
2021-12-24 16:08:29.959962,-49
2021-12-24 16:08:29.959971,7
2021-12-24 16:08:29.959981,58
2021-12-24 16:08:29.959991,113
2021-12-24 16:08:29.960000,146
2021-12-24 16:08:29.960010,150
2021-12-24 16:08:29.960019,155
2021-12-24 16:08:29.960029,164
2021-12-24 16:08:29.960038,160
2021-12-24 16:08:29.960048,160
2021-12-24 16:08:29.960057,162
2021-12-24 16:08:29.960067,153
2021-12-24 16:08:29.960077,139
2021-12-24 16:08:29.960086,136
2021-12-24 16:08:29.960096,129
2021-12-24 16:08:29.960105,124
2021-12-24 16:08:29.960115,127
2021-12-24 16:08:29.960124,122
2021-12-24 16:08:29.960134,110
2021-12-24 16:08:29.960143,108
2021-12-24 16:08:29.960152,110
2021-12-24 16:08:29.960162,108
2021-12-24 16:08:30.140356,108
2021-12-24 16:08:30.140387,103
2021-12-24 16:08:30.140399,96
2021-12-24 16:08:30.140409,103
2021-12-24 16:08:30.140419,110
2021-12-24 16:08:30.140429,108
2021-12-24 16:08:30.140439,103
2021-12-24 16:08:30.140449,96
2021-12-24 16:08:30.140458,96
2021-12-24 16:08:30.140468,103
2021-12-24 16:08:30.140478,108
2021-12-24 16:08:30.140488,101
2021-12-24 16:08:30.140498,98
2021-12-24 16:08:30.140507,103
2021-12-24 16:08:30.140517,103
2021-12-24 16:08:30.140527,103
2021-12-24 16:08:30.140537,110
2021-12-24 16:08:30.140546,89
2021-12-24 16:08:30.140556,54
2021-12-24 16:08:30.140566,56
2021-12-24 16:08:30.140576,82
2021-12-24 16:08:30.140585,96
2021-12-24 16:08:30.140595,98
2021-12-24 16:08:30.140605,106
2021-12-24 16:08:30.140615,110
2021-12-24 16:08:30.140624,108
2021-12-24 16:08:30.140634,108
2021-12-24 16:08:30.140644,110
2021-12-24 16:08:30.140653,101
2021-12-24 16:08:30.140663,91
2021-12-24 16:08:30.408502,96
2021-12-24 16:08:30.408532,131
2021-12-24 16:08:30.408544,94
2021-12-24 16:08:30.408554,-261
2021-12-24 16:08:30.408564,-775
2021-12-24 16:08:30.408574,-732
2021-12-24 16:08:30.408584,44
2021-12-24 16:08:30.408594,508
2021-12-24 16:08:30.408604,207
2021-12-24 16:08:30.408614,44
2021-12-24 16:08:30.408624,197
2021-12-24 16:08:30.408634,162
2021-12-24 16:08:30.408644,82
2021-12-24 16:08:30.408654,122
2021-12-24 16:08:30.408664,127
2021-12-24 16:08:30.408674,94
2021-12-24 16:08:30.408684,101
2021-12-24 16:08:30.408694,103
2021-12-24 16:08:30.408704,75
2021-12-24 16:08:30.408714,65
2021-12-24 16:08:30.408724,65
2021-12-24 16:08:30.408733,49
2021-12-24 16:08:30.408743,32
2021-12-24 16:08:30.408753,23
2021-12-24 16:08:30.408763,7
2021-12-24 16:08:30.408773,-18
2021-12-24 16:08:30.408783,-54
2021-12-24 16:08:30.408793,-82
2021-12-24 16:08:30.408802,-101
2021-12-24 16:08:30.408812,-124
2021-12-24 16:08:30.590500,-157
2021-12-24 16:08:30.590531,-186
2021-12-24 16:08:30.590543,-195
2021-12-24 16:08:30.590553,-195
2021-12-24 16:08:30.590563,-200
2021-12-24 16:08:30.590573,-186
2021-12-24 16:08:30.590582,-143
2021-12-24 16:08:30.590592,-91
2021-12-24 16:08:30.590602,-32
2021-12-24 16:08:30.590611,32
2021-12-24 16:08:30.590621,84
2021-12-24 16:08:30.590631,113
2021-12-24 16:08:30.590641,129
2021-12-24 16:08:30.590650,148
2021-12-24 16:08:30.590660,153
2021-12-24 16:08:30.590670,141
2021-12-24 16:08:30.590679,139
2021-12-24 16:08:30.590689,148
2021-12-24 16:08:30.590698,141
2021-12-24 16:08:30.590708,131
2021-12-24 16:08:30.590718,136
2021-12-24 16:08:30.590727,134
2021-12-24 16:08:30.590737,122
2021-12-24 16:08:30.590747,120
2021-12-24 16:08:30.590756,120
2021-12-24 16:08:30.590766,117
2021-12-24 16:08:30.590776,117
2021-12-24 16:08:30.590785,117
2021-12-24 16:08:30.590795,106
2021-12-24 16:08:30.590805,91
2021-12-24 16:08:30.904225,96
2021-12-24 16:08:30.904255,108
2021-12-24 16:08:30.904267,103
2021-12-24 16:08:30.904277,91
2021-12-24 16:08:30.904287,101
2021-12-24 16:08:30.904317,106
2021-12-24 16:08:30.904327,101
2021-12-24 16:08:30.904337,106
2021-12-24 16:08:30.904347,117
2021-12-24 16:08:30.904357,117
2021-12-24 16:08:30.904366,101
2021-12-24 16:08:30.904376,73
2021-12-24 16:08:30.904386,56
2021-12-24 16:08:30.904396,63
2021-12-24 16:08:30.904405,80
2021-12-24 16:08:30.904415,91
2021-12-24 16:08:30.904425,108
2021-12-24 16:08:30.904434,120
2021-12-24 16:08:30.904444,117
2021-12-24 16:08:30.904454,115
2021-12-24 16:08:30.904463,120
2021-12-24 16:08:30.904473,120
2021-12-24 16:08:30.904483,120
2021-12-24 16:08:30.904492,115
2021-12-24 16:08:30.904502,110
2021-12-24 16:08:30.904512,141
2021-12-24 16:08:30.904521,131
2021-12-24 16:08:30.904531,-197
2021-12-24 16:08:30.904541,-763
2021-12-24 16:08:30.904551,-819
2021-12-24 16:08:31.129673,-40
2021-12-24 16:08:31.129692,548
2021-12-24 16:08:31.129700,280
2021-12-24 16:08:31.129707,58
2021-12-24 16:08:31.129713,212
2021-12-24 16:08:31.129720,195
2021-12-24 16:08:31.129726,106
2021-12-24 16:08:31.129732,141
2021-12-24 16:08:31.129739,141
2021-12-24 16:08:31.129745,94
2021-12-24 16:08:31.129751,96
2021-12-24 16:08:31.129758,103
2021-12-24 16:08:31.129764,80
2021-12-24 16:08:31.129770,65
2021-12-24 16:08:31.129777,61
2021-12-24 16:08:31.129783,44
2021-12-24 16:08:31.129789,25
2021-12-24 16:08:31.129795,16
2021-12-24 16:08:31.129802,7
2021-12-24 16:08:31.129808,-21
2021-12-24 16:08:31.129815,-47
2021-12-24 16:08:31.129821,-65
2021-12-24 16:08:31.129827,-98
2021-12-24 16:08:31.129834,-143
2021-12-24 16:08:31.129840,-167
2021-12-24 16:08:31.129846,-169
2021-12-24 16:08:31.129852,-186
2021-12-24 16:08:31.129859,-204
2021-12-24 16:08:31.129865,-188
2021-12-24 16:08:31.129871,-155
2021-12-24 16:08:31.309863,-120
2021-12-24 16:08:31.309885,-61
2021-12-24 16:08:31.309893,4
2021-12-24 16:08:31.309900,56
2021-12-24 16:08:31.309906,108
2021-12-24 16:08:31.309913,150
2021-12-24 16:08:31.309919,164
2021-12-24 16:08:31.309926,160
2021-12-24 16:08:31.309932,162
2021-12-24 16:08:31.309938,171
2021-12-24 16:08:31.309944,171
2021-12-24 16:08:31.309951,162
2021-12-24 16:08:31.309957,160
2021-12-24 16:08:31.309963,167
2021-12-24 16:08:31.309970,164
2021-12-24 16:08:31.309976,150
2021-12-24 16:08:31.309982,148
2021-12-24 16:08:31.309988,153
2021-12-24 16:08:31.309995,150
2021-12-24 16:08:31.310001,146
2021-12-24 16:08:31.310007,136
2021-12-24 16:08:31.310014,127
2021-12-24 16:08:31.310020,127
2021-12-24 16:08:31.310026,129
2021-12-24 16:08:31.310032,127
2021-12-24 16:08:31.310039,124
2021-12-24 16:08:31.310045,124
2021-12-24 16:08:31.310051,127
2021-12-24 16:08:31.310057,127
2021-12-24 16:08:31.310064,134
2021-12-24 16:08:31.534874,139
2021-12-24 16:08:31.534904,141
2021-12-24 16:08:31.534915,146
2021-12-24 16:08:31.534926,148
2021-12-24 16:08:31.534935,131
2021-12-24 16:08:31.534945,103
2021-12-24 16:08:31.534955,98
2021-12-24 16:08:31.534965,108
2021-12-24 16:08:31.534975,115
2021-12-24 16:08:31.534985,124
2021-12-24 16:08:31.534995,131
2021-12-24 16:08:31.535005,131
2021-12-24 16:08:31.535015,134
2021-12-24 16:08:31.535025,131
2021-12-24 16:08:31.535035,127
2021-12-24 16:08:31.535044,127
2021-12-24 16:08:31.535054,120
2021-12-24 16:08:31.535064,117
2021-12-24 16:08:31.535074,143
2021-12-24 16:08:31.535084,157
2021-12-24 16:08:31.535094,-82
2021-12-24 16:08:31.535104,-624
2021-12-24 16:08:31.535114,-881
2021-12-24 16:08:31.535124,-285
2021-12-24 16:08:31.535134,459
2021-12-24 16:08:31.535143,384
2021-12-24 16:08:31.535153,84
2021-12-24 16:08:31.535163,186
2021-12-24 16:08:31.535173,235
2021-12-24 16:08:31.535183,134
2021-12-24 16:08:31.760523,146
2021-12-24 16:08:31.760553,174
2021-12-24 16:08:31.760565,136
2021-12-24 16:08:31.760575,124
2021-12-24 16:08:31.760584,136
2021-12-24 16:08:31.760594,122
2021-12-24 16:08:31.760603,103
2021-12-24 16:08:31.760613,94
2021-12-24 16:08:31.760623,84
2021-12-24 16:08:31.760632,75
2021-12-24 16:08:31.760642,56
2021-12-24 16:08:31.760651,40
2021-12-24 16:08:31.760661,21
2021-12-24 16:08:31.760671,-18
2021-12-24 16:08:31.760681,-51
2021-12-24 16:08:31.760690,-68
2021-12-24 16:08:31.760700,-96
2021-12-24 16:08:31.760709,-131
2021-12-24 16:08:31.760719,-141
2021-12-24 16:08:31.760728,-146
2021-12-24 16:08:31.760738,-160
2021-12-24 16:08:31.760748,-164
2021-12-24 16:08:31.760757,-143
2021-12-24 16:08:31.760767,-108
2021-12-24 16:08:31.760776,-56
2021-12-24 16:08:31.760786,7
2021-12-24 16:08:31.760795,73
2021-12-24 16:08:31.760805,120
2021-12-24 16:08:31.760815,143
2021-12-24 16:08:31.760825,164
2021-12-24 16:08:31.985359,186
2021-12-24 16:08:31.985390,183
2021-12-24 16:08:31.985402,179
2021-12-24 16:08:31.985412,181
2021-12-24 16:08:31.985421,174
2021-12-24 16:08:31.985431,167
2021-12-24 16:08:31.985440,171
2021-12-24 16:08:31.985450,167
2021-12-24 16:08:31.985459,148
2021-12-24 16:08:31.985469,139
2021-12-24 16:08:31.985478,146
2021-12-24 16:08:31.985488,143
2021-12-24 16:08:31.985497,134
2021-12-24 16:08:31.985507,136
2021-12-24 16:08:31.985516,139
2021-12-24 16:08:31.985526,129
2021-12-24 16:08:31.985536,127
2021-12-24 16:08:31.985545,129
2021-12-24 16:08:31.985554,122
2021-12-24 16:08:31.985564,117
2021-12-24 16:08:31.985573,122
2021-12-24 16:08:31.985583,124
2021-12-24 16:08:31.985593,120
2021-12-24 16:08:31.985602,122
2021-12-24 16:08:31.985611,129
2021-12-24 16:08:31.985621,127
2021-12-24 16:08:31.985631,122
2021-12-24 16:08:31.985640,124
2021-12-24 16:08:31.985650,131
2021-12-24 16:08:31.985659,136
2021-12-24 16:08:32.255104,136
2021-12-24 16:08:32.255134,131
2021-12-24 16:08:32.255146,108
2021-12-24 16:08:32.255156,82
2021-12-24 16:08:32.255165,89
2021-12-24 16:08:32.255175,108
2021-12-24 16:08:32.255184,117
2021-12-24 16:08:32.255194,129
2021-12-24 16:08:32.255203,139
2021-12-24 16:08:32.255213,134
2021-12-24 16:08:32.255222,120
2021-12-24 16:08:32.255232,120
2021-12-24 16:08:32.255241,124
2021-12-24 16:08:32.255250,122
2021-12-24 16:08:32.255260,122
2021-12-24 16:08:32.255269,131
2021-12-24 16:08:32.255279,160
2021-12-24 16:08:32.255288,28
2021-12-24 16:08:32.255298,-449
2021-12-24 16:08:32.255307,-885
2021-12-24 16:08:32.255317,-558
2021-12-24 16:08:32.255327,268
2021-12-24 16:08:32.255336,478
2021-12-24 16:08:32.255346,148
2021-12-24 16:08:32.255355,127
2021-12-24 16:08:32.255364,249
2021-12-24 16:08:32.255374,171
2021-12-24 16:08:32.255383,129
2021-12-24 16:08:32.255393,167
2021-12-24 16:08:32.255402,153
2021-12-24 16:08:32.524120,127
2021-12-24 16:08:32.524151,136
2021-12-24 16:08:32.524163,129
2021-12-24 16:08:32.524173,110
2021-12-24 16:08:32.524183,106
2021-12-24 16:08:32.524193,91
2021-12-24 16:08:32.524203,70
2021-12-24 16:08:32.524213,58
2021-12-24 16:08:32.524222,49
2021-12-24 16:08:32.524232,28
2021-12-24 16:08:32.524242,4
2021-12-24 16:08:32.524252,-21
2021-12-24 16:08:32.524262,-54
2021-12-24 16:08:32.524272,-94
2021-12-24 16:08:32.524282,-122
2021-12-24 16:08:32.524291,-134
2021-12-24 16:08:32.524301,-150
2021-12-24 16:08:32.524311,-164
2021-12-24 16:08:32.524321,-164
2021-12-24 16:08:32.524331,-153
2021-12-24 16:08:32.524340,-134
2021-12-24 16:08:32.524350,-91
2021-12-24 16:08:32.524360,-32
2021-12-24 16:08:32.524370,28
2021-12-24 16:08:32.524380,77
2021-12-24 16:08:32.524390,106
2021-12-24 16:08:32.524399,129
2021-12-24 16:08:32.524409,150
2021-12-24 16:08:32.524419,155
2021-12-24 16:08:32.524429,153
2021-12-24 16:08:32.839463,153
2021-12-24 16:08:32.839494,155
2021-12-24 16:08:32.839506,155
2021-12-24 16:08:32.839516,150
2021-12-24 16:08:32.839526,141
2021-12-24 16:08:32.839536,136
2021-12-24 16:08:32.839546,139
2021-12-24 16:08:32.839555,136
2021-12-24 16:08:32.839565,127
2021-12-24 16:08:32.839575,129
2021-12-24 16:08:32.839585,134
2021-12-24 16:08:32.839595,129
2021-12-24 16:08:32.839605,127
2021-12-24 16:08:32.839615,129
2021-12-24 16:08:32.839625,129
2021-12-24 16:08:32.839635,122
2021-12-24 16:08:32.839644,122
2021-12-24 16:08:32.839654,122
2021-12-24 16:08:32.839664,115
2021-12-24 16:08:32.839674,115
2021-12-24 16:08:32.839683,124
2021-12-24 16:08:32.839693,129
2021-12-24 16:08:32.839703,122
2021-12-24 16:08:32.839713,117
2021-12-24 16:08:32.839722,120
2021-12-24 16:08:32.839732,124
2021-12-24 16:08:32.839742,124
2021-12-24 16:08:32.839752,122
2021-12-24 16:08:32.839762,124
2021-12-24 16:08:32.839771,134
2021-12-24 16:08:33.019526,136
2021-12-24 16:08:33.019556,110
2021-12-24 16:08:33.019568,77
2021-12-24 16:08:33.019578,73
2021-12-24 16:08:33.019588,89
2021-12-24 16:08:33.019598,108
2021-12-24 16:08:33.019607,115
2021-12-24 16:08:33.019617,117
2021-12-24 16:08:33.019627,117
2021-12-24 16:08:33.019637,113
2021-12-24 16:08:33.019646,113
2021-12-24 16:08:33.019656,113
2021-12-24 16:08:33.019666,106
2021-12-24 16:08:33.019676,106
2021-12-24 16:08:33.019685,115
2021-12-24 16:08:33.019695,150
2021-12-24 16:08:33.019705,113
2021-12-24 16:08:33.019714,-237
2021-12-24 16:08:33.019724,-772
2021-12-24 16:08:33.019734,-808
2021-12-24 16:08:33.019744,-82
2021-12-24 16:08:33.019753,464
2021-12-24 16:08:33.019763,247
2021-12-24 16:08:33.019773,65
2021-12-24 16:08:33.019782,197
2021-12-24 16:08:33.019792,183
2021-12-24 16:08:33.019802,106
2021-12-24 16:08:33.019811,139
2021-12-24 16:08:33.019821,143
2021-12-24 16:08:33.019831,108
2021-12-24 16:08:33.245604,110
2021-12-24 16:08:33.245634,108
2021-12-24 16:08:33.245646,82
2021-12-24 16:08:33.245656,75
2021-12-24 16:08:33.245666,70
2021-12-24 16:08:33.245676,54
2021-12-24 16:08:33.245686,40
2021-12-24 16:08:33.245695,28
2021-12-24 16:08:33.245705,9
2021-12-24 16:08:33.245715,-16
2021-12-24 16:08:33.245725,-40
2021-12-24 16:08:33.245735,-61
2021-12-24 16:08:33.245744,-84
2021-12-24 16:08:33.245754,-110
2021-12-24 16:08:33.245764,-139
2021-12-24 16:08:33.245773,-157
2021-12-24 16:08:33.245783,-167
2021-12-24 16:08:33.245793,-174
2021-12-24 16:08:33.245803,-174
2021-12-24 16:08:33.245812,-157
2021-12-24 16:08:33.245822,-129
2021-12-24 16:08:33.245831,-87
2021-12-24 16:08:33.245841,-21
2021-12-24 16:08:33.245851,37
2021-12-24 16:08:33.245860,80
2021-12-24 16:08:33.245870,115
2021-12-24 16:08:33.245879,139
2021-12-24 16:08:33.245889,146
2021-12-24 16:08:33.245899,150
2021-12-24 16:08:33.245908,153
2021-12-24 16:08:33.379533,143
2021-12-24 16:08:33.379553,139
2021-12-24 16:08:33.379560,141
2021-12-24 16:08:33.379565,141
2021-12-24 16:08:33.379570,136
2021-12-24 16:08:33.379576,134
2021-12-24 16:08:33.379581,134
2021-12-24 16:08:33.379586,131
2021-12-24 16:08:33.379591,124
2021-12-24 16:08:33.379597,122
2021-12-24 16:08:33.379602,127
2021-12-24 16:08:33.379607,129
2021-12-24 16:08:33.379612,124
2021-12-24 16:08:33.379618,117
2021-12-24 16:08:33.379623,108
2021-12-24 16:08:33.379628,110
2021-12-24 16:08:33.379633,113
2021-12-24 16:08:33.379639,113
2021-12-24 16:08:33.379644,115
2021-12-24 16:08:33.379649,120
2021-12-24 16:08:33.379654,113
2021-12-24 16:08:33.379660,106
2021-12-24 16:08:33.379665,115
2021-12-24 16:08:33.379670,115
2021-12-24 16:08:33.379675,110
2021-12-24 16:08:33.379680,110
2021-12-24 16:08:33.379685,113
2021-12-24 16:08:33.379690,113
2021-12-24 16:08:33.379696,115
2021-12-24 16:08:33.379701,103
2021-12-24 16:08:33.604928,77
2021-12-24 16:08:33.604950,65
2021-12-24 16:08:33.604958,77
2021-12-24 16:08:33.604965,89
2021-12-24 16:08:33.604971,94
2021-12-24 16:08:33.604978,101
2021-12-24 16:08:33.604984,103
2021-12-24 16:08:33.604990,98
2021-12-24 16:08:33.604996,94
2021-12-24 16:08:33.605003,94
2021-12-24 16:08:33.605009,94
2021-12-24 16:08:33.605015,91
2021-12-24 16:08:33.605022,91
2021-12-24 16:08:33.605028,106
2021-12-24 16:08:33.605034,127
2021-12-24 16:08:33.605041,-44
2021-12-24 16:08:33.605047,-541
2021-12-24 16:08:33.605053,-890
2021-12-24 16:08:33.605060,-445
2021-12-24 16:08:33.605066,336
2021-12-24 16:08:33.605072,398
2021-12-24 16:08:33.605079,70
2021-12-24 16:08:33.605085,110
2021-12-24 16:08:33.605091,195
2021-12-24 16:08:33.605097,101
2021-12-24 16:08:33.605104,89
2021-12-24 16:08:33.605110,129
2021-12-24 16:08:33.605116,106
2021-12-24 16:08:33.605123,84
2021-12-24 16:08:33.605129,96
2021-12-24 16:08:33.875392,91
2021-12-24 16:08:33.875422,70
2021-12-24 16:08:33.875434,58
2021-12-24 16:08:33.875444,51
2021-12-24 16:08:33.875454,32
2021-12-24 16:08:33.875464,11
2021-12-24 16:08:33.875474,0
2021-12-24 16:08:33.875483,-16
2021-12-24 16:08:33.875493,-44
2021-12-24 16:08:33.875503,-68
2021-12-24 16:08:33.875512,-91
2021-12-24 16:08:33.875523,-117
2021-12-24 16:08:33.875532,-146
2021-12-24 16:08:33.875542,-174
2021-12-24 16:08:33.875552,-186
2021-12-24 16:08:33.875561,-188
2021-12-24 16:08:33.875571,-183
2021-12-24 16:08:33.875581,-171
2021-12-24 16:08:33.875590,-148
2021-12-24 16:08:33.875600,-106
2021-12-24 16:08:33.875609,-44
2021-12-24 16:08:33.875619,14
2021-12-24 16:08:33.875629,70
2021-12-24 16:08:33.875639,115
2021-12-24 16:08:33.875648,141
2021-12-24 16:08:33.875658,148
2021-12-24 16:08:33.875668,150
2021-12-24 16:08:33.875677,155
2021-12-24 16:08:33.875687,160
2021-12-24 16:08:33.875697,155
2021-12-24 16:08:34.145187,146
2021-12-24 16:08:34.145217,146
2021-12-24 16:08:34.145228,148
2021-12-24 16:08:34.145239,141
2021-12-24 16:08:34.145248,134
2021-12-24 16:08:34.145258,141
2021-12-24 16:08:34.145268,141
2021-12-24 16:08:34.145277,127
2021-12-24 16:08:34.145370,120
2021-12-24 16:08:34.145382,117
2021-12-24 16:08:34.145392,115
2021-12-24 16:08:34.145402,113
2021-12-24 16:08:34.145411,113
2021-12-24 16:08:34.145421,113
2021-12-24 16:08:34.145431,110
2021-12-24 16:08:34.145440,115
2021-12-24 16:08:34.145450,122
2021-12-24 16:08:34.145460,110
2021-12-24 16:08:34.145469,96
2021-12-24 16:08:34.145479,103
2021-12-24 16:08:34.145488,113
2021-12-24 16:08:34.145498,113
2021-12-24 16:08:34.145508,106
2021-12-24 16:08:34.145517,101
2021-12-24 16:08:34.145527,91
2021-12-24 16:08:34.145536,70
2021-12-24 16:08:34.145546,54
2021-12-24 16:08:34.145555,61
2021-12-24 16:08:34.145565,77
2021-12-24 16:08:34.145575,94
2021-12-24 16:08:34.279596,108
2021-12-24 16:08:34.279616,110
2021-12-24 16:08:34.279623,106
2021-12-24 16:08:34.279628,106
2021-12-24 16:08:34.279633,110
2021-12-24 16:08:34.279638,101
2021-12-24 16:08:34.279643,96
2021-12-24 16:08:34.279648,101
2021-12-24 16:08:34.279653,113
2021-12-24 16:08:34.279658,141
2021-12-24 16:08:34.279663,7
2021-12-24 16:08:34.279668,-487
2021-12-24 16:08:34.279673,-914
2021-12-24 16:08:34.279678,-513
2021-12-24 16:08:34.279684,343
2021-12-24 16:08:34.279689,464
2021-12-24 16:08:34.279694,87
2021-12-24 16:08:34.279699,108
2021-12-24 16:08:34.279704,214
2021-12-24 16:08:34.279709,113
2021-12-24 16:08:34.279714,101
2021-12-24 16:08:34.279719,146
2021-12-24 16:08:34.279724,103
2021-12-24 16:08:34.279729,75
2021-12-24 16:08:34.279734,91
2021-12-24 16:08:34.279739,87
2021-12-24 16:08:34.279744,73
2021-12-24 16:08:34.279749,70
2021-12-24 16:08:34.279754,49
2021-12-24 16:08:34.279759,25
2021-12-24 16:08:34.548051,23
2021-12-24 16:08:34.548071,11
2021-12-24 16:08:34.548079,-14
2021-12-24 16:08:34.548086,-40
2021-12-24 16:08:34.548092,-73
2021-12-24 16:08:34.548099,-108
2021-12-24 16:08:34.548105,-136
2021-12-24 16:08:34.548111,-155
2021-12-24 16:08:34.548117,-174
2021-12-24 16:08:34.548123,-195
2021-12-24 16:08:34.548130,-202
2021-12-24 16:08:34.548136,-195
2021-12-24 16:08:34.548142,-179
2021-12-24 16:08:34.548148,-155
2021-12-24 16:08:34.548154,-108
2021-12-24 16:08:34.548161,-37
2021-12-24 16:08:34.548167,28
2021-12-24 16:08:34.548173,73
2021-12-24 16:08:34.548179,110
2021-12-24 16:08:34.548186,139
2021-12-24 16:08:34.548192,148
2021-12-24 16:08:34.548198,146
2021-12-24 16:08:34.548204,153
2021-12-24 16:08:34.548210,162
2021-12-24 16:08:34.548217,164
2021-12-24 16:08:34.548223,160
2021-12-24 16:08:34.548229,160
2021-12-24 16:08:34.548235,155
2021-12-24 16:08:34.548241,146
2021-12-24 16:08:34.548248,143
2021-12-24 16:08:34.820020,143
2021-12-24 16:08:34.820051,134
2021-12-24 16:08:34.820063,131
2021-12-24 16:08:34.820073,129
2021-12-24 16:08:34.820083,108
2021-12-24 16:08:34.820092,103
2021-12-24 16:08:34.820102,122
2021-12-24 16:08:34.820112,117
2021-12-24 16:08:34.820121,101
2021-12-24 16:08:34.820131,106
2021-12-24 16:08:34.820141,108
2021-12-24 16:08:34.820150,98
2021-12-24 16:08:34.820160,106
2021-12-24 16:08:34.820170,113
2021-12-24 16:08:34.820179,103
2021-12-24 16:08:34.820189,101
2021-12-24 16:08:34.820198,120
2021-12-24 16:08:34.820208,127
2021-12-24 16:08:34.820217,101
2021-12-24 16:08:34.820227,75
2021-12-24 16:08:34.820237,70
2021-12-24 16:08:34.820246,80
2021-12-24 16:08:34.820256,89
2021-12-24 16:08:34.820265,101
2021-12-24 16:08:34.820275,113
2021-12-24 16:08:34.820285,122
2021-12-24 16:08:34.820294,127
2021-12-24 16:08:34.820304,115
2021-12-24 16:08:34.820314,113
2021-12-24 16:08:34.820323,120
2021-12-24 16:08:35.044615,117
2021-12-24 16:08:35.044646,106
2021-12-24 16:08:35.044658,113
2021-12-24 16:08:35.044668,150
2021-12-24 16:08:35.044678,82
2021-12-24 16:08:35.044687,-322
2021-12-24 16:08:35.044697,-834
2021-12-24 16:08:35.044707,-699
2021-12-24 16:08:35.044717,131
2021-12-24 16:08:35.044726,527
2021-12-24 16:08:35.044736,197
2021-12-24 16:08:35.044746,80
2021-12-24 16:08:35.044756,221
2021-12-24 16:08:35.044765,157
2021-12-24 16:08:35.044775,94
