Time,ECG
2021-12-24 16:13:07.338086,150
2021-12-24 16:13:07.338101,106
2021-12-24 16:13:07.338106,141
2021-12-24 16:13:07.338111,134
2021-12-24 16:13:07.338115,108
2021-12-24 16:13:07.338120,117
2021-12-24 16:13:07.338125,115
2021-12-24 16:13:07.338129,98
2021-12-24 16:13:07.338133,89
2021-12-24 16:13:07.338138,80
2021-12-24 16:13:07.338143,68
2021-12-24 16:13:07.338148,58
2021-12-24 16:13:07.338152,51
2021-12-24 16:13:07.338156,35
2021-12-24 16:13:07.338161,16
2021-12-24 16:13:07.338165,-2
2021-12-24 16:13:07.338170,-18
2021-12-24 16:13:07.338175,-35
2021-12-24 16:13:07.338179,-51
2021-12-24 16:13:07.338184,-65
2021-12-24 16:13:07.338188,-75
2021-12-24 16:13:07.338193,-75
2021-12-24 16:13:07.338197,-70
2021-12-24 16:13:07.338202,-65
2021-12-24 16:13:07.338206,-54
2021-12-24 16:13:07.338210,-28
2021-12-24 16:13:07.338215,14
2021-12-24 16:13:07.338220,63
2021-12-24 16:13:07.338224,106
2021-12-24 16:13:07.338229,136
2021-12-24 16:13:07.563227,160
2021-12-24 16:13:07.563258,171
2021-12-24 16:13:07.563270,174
2021-12-24 16:13:07.563281,174
2021-12-24 16:13:07.563290,174
2021-12-24 16:13:07.563300,171
2021-12-24 16:13:07.563312,167
2021-12-24 16:13:07.563322,164
2021-12-24 16:13:07.563331,155
2021-12-24 16:13:07.563341,146
2021-12-24 16:13:07.563351,143
2021-12-24 16:13:07.563361,141
2021-12-24 16:13:07.563370,139
2021-12-24 16:13:07.563380,139
2021-12-24 16:13:07.563390,131
2021-12-24 16:13:07.563399,127
2021-12-24 16:13:07.563409,127
2021-12-24 16:13:07.563420,129
2021-12-24 16:13:07.563430,129
2021-12-24 16:13:07.563439,127
2021-12-24 16:13:07.563449,124
2021-12-24 16:13:07.563459,122
2021-12-24 16:13:07.563468,122
2021-12-24 16:13:07.563478,124
2021-12-24 16:13:07.563488,124
2021-12-24 16:13:07.563498,117
2021-12-24 16:13:07.563507,113
2021-12-24 16:13:07.563517,115
2021-12-24 16:13:07.563527,117
2021-12-24 16:13:07.563539,117
2021-12-24 16:13:07.788332,120
2021-12-24 16:13:07.788355,110
2021-12-24 16:13:07.788363,89
2021-12-24 16:13:07.788370,65
2021-12-24 16:13:07.788376,63
2021-12-24 16:13:07.788382,77
2021-12-24 16:13:07.788389,87
2021-12-24 16:13:07.788395,91
2021-12-24 16:13:07.788402,103
2021-12-24 16:13:07.788408,113
2021-12-24 16:13:07.788414,106
2021-12-24 16:13:07.788421,98
2021-12-24 16:13:07.788427,98
2021-12-24 16:13:07.788439,89
2021-12-24 16:13:07.788445,87
2021-12-24 16:13:07.788452,113
2021-12-24 16:13:07.788458,124
2021-12-24 16:13:07.788464,-98
2021-12-24 16:13:07.788471,-579
2021-12-24 16:13:07.788477,-753
2021-12-24 16:13:07.788484,-197
2021-12-24 16:13:07.788490,374
2021-12-24 16:13:07.788496,252
2021-12-24 16:13:07.788503,42
2021-12-24 16:13:07.788509,153
2021-12-24 16:13:07.788515,174
2021-12-24 16:13:07.788522,98
2021-12-24 16:13:07.788528,120
2021-12-24 16:13:07.788534,139
2021-12-24 16:13:07.788542,108
2021-12-24 16:13:08.012904,103
2021-12-24 16:13:08.012927,110
2021-12-24 16:13:08.012934,98
2021-12-24 16:13:08.012941,87
2021-12-24 16:13:08.012947,84
2021-12-24 16:13:08.012954,77
2021-12-24 16:13:08.012960,61
2021-12-24 16:13:08.012967,51
2021-12-24 16:13:08.012973,42
2021-12-24 16:13:08.012979,25
2021-12-24 16:13:08.012986,9
2021-12-24 16:13:08.012992,-7
2021-12-24 16:13:08.012999,-30
2021-12-24 16:13:08.013005,-51
2021-12-24 16:13:08.013011,-63
2021-12-24 16:13:08.013018,-73
2021-12-24 16:13:08.013024,-77
2021-12-24 16:13:08.013035,-73
2021-12-24 16:13:08.013041,-68
2021-12-24 16:13:08.013048,-61
2021-12-24 16:13:08.013054,-37
2021-12-24 16:13:08.013061,0
2021-12-24 16:13:08.013067,44
2021-12-24 16:13:08.013073,89
2021-12-24 16:13:08.013080,127
2021-12-24 16:13:08.013086,150
2021-12-24 16:13:08.013093,164
2021-12-24 16:13:08.013099,169
2021-12-24 16:13:08.013105,171
2021-12-24 16:13:08.013112,171
2021-12-24 16:13:08.238659,160
2021-12-24 16:13:08.238689,150
2021-12-24 16:13:08.238700,150
2021-12-24 16:13:08.238710,148
2021-12-24 16:13:08.238720,143
2021-12-24 16:13:08.238730,139
2021-12-24 16:13:08.238739,134
2021-12-24 16:13:08.238757,129
2021-12-24 16:13:08.238767,127
2021-12-24 16:13:08.238777,124
2021-12-24 16:13:08.238787,124
2021-12-24 16:13:08.238796,117
2021-12-24 16:13:08.238806,110
2021-12-24 16:13:08.238815,113
2021-12-24 16:13:08.238825,117
2021-12-24 16:13:08.238835,113
2021-12-24 16:13:08.238844,108
2021-12-24 16:13:08.238854,106
2021-12-24 16:13:08.238863,108
2021-12-24 16:13:08.238873,113
2021-12-24 16:13:08.238883,113
2021-12-24 16:13:08.238892,115
2021-12-24 16:13:08.238901,120
2021-12-24 16:13:08.238911,115
2021-12-24 16:13:08.238920,96
2021-12-24 16:13:08.238930,82
2021-12-24 16:13:08.238940,84
2021-12-24 16:13:08.238949,94
2021-12-24 16:13:08.238959,103
2021-12-24 16:13:08.238970,113
2021-12-24 16:13:08.506659,129
2021-12-24 16:13:08.506679,146
2021-12-24 16:13:08.506686,146
2021-12-24 16:13:08.506693,141
2021-12-24 16:13:08.506700,139
2021-12-24 16:13:08.506706,136
2021-12-24 16:13:08.506712,136
2021-12-24 16:13:08.506718,153
2021-12-24 16:13:08.506724,181
2021-12-24 16:13:08.506731,30
2021-12-24 16:13:08.506737,-421
2021-12-24 16:13:08.506743,-730
2021-12-24 16:13:08.506749,-322
2021-12-24 16:13:08.506755,332
2021-12-24 16:13:08.506762,355
2021-12-24 16:13:08.506768,108
2021-12-24 16:13:08.506774,169
2021-12-24 16:13:08.506781,233
2021-12-24 16:13:08.506787,157
2021-12-24 16:13:08.506793,155
2021-12-24 16:13:08.506799,181
2021-12-24 16:13:08.506805,155
2021-12-24 16:13:08.506811,141
2021-12-24 16:13:08.506817,146
2021-12-24 16:13:08.506829,139
2021-12-24 16:13:08.506835,129
2021-12-24 16:13:08.506842,124
2021-12-24 16:13:08.506848,113
2021-12-24 16:13:08.506854,101
2021-12-24 16:13:08.506860,91
2021-12-24 16:13:08.732723,82
2021-12-24 16:13:08.732744,63
2021-12-24 16:13:08.732752,42
2021-12-24 16:13:08.732758,21
2021-12-24 16:13:08.732765,-2
2021-12-24 16:13:08.732771,-28
2021-12-24 16:13:08.732778,-49
2021-12-24 16:13:08.732784,-61
2021-12-24 16:13:08.732790,-65
2021-12-24 16:13:08.732796,-68
2021-12-24 16:13:08.732803,-73
2021-12-24 16:13:08.732809,-70
2021-12-24 16:13:08.732815,-56
2021-12-24 16:13:08.732821,-23
2021-12-24 16:13:08.732827,21
2021-12-24 16:13:08.732834,61
2021-12-24 16:13:08.732840,91
2021-12-24 16:13:08.732846,117
2021-12-24 16:13:08.732852,139
2021-12-24 16:13:08.732858,141
2021-12-24 16:13:08.732864,139
2021-12-24 16:13:08.732871,134
2021-12-24 16:13:08.732879,124
2021-12-24 16:13:08.732886,117
2021-12-24 16:13:08.732892,120
2021-12-24 16:13:08.732899,117
2021-12-24 16:13:08.732910,108
2021-12-24 16:13:08.732922,106
2021-12-24 16:13:08.732934,101
2021-12-24 16:13:08.732945,98
2021-12-24 16:13:09.003126,98
2021-12-24 16:13:09.003155,96
2021-12-24 16:13:09.003167,89
2021-12-24 16:13:09.003177,87
2021-12-24 16:13:09.003187,87
2021-12-24 16:13:09.003197,84
2021-12-24 16:13:09.003206,82
2021-12-24 16:13:09.003216,82
2021-12-24 16:13:09.003226,82
2021-12-24 16:13:09.003236,80
2021-12-24 16:13:09.003246,75
2021-12-24 16:13:09.003255,77
2021-12-24 16:13:09.003265,65
2021-12-24 16:13:09.003275,42
2021-12-24 16:13:09.003285,30
2021-12-24 16:13:09.003294,28
2021-12-24 16:13:09.003304,35
2021-12-24 16:13:09.003314,51
2021-12-24 16:13:09.003324,65
2021-12-24 16:13:09.003333,75
2021-12-24 16:13:09.003343,82
2021-12-24 16:13:09.003353,75
2021-12-24 16:13:09.003363,68
2021-12-24 16:13:09.003373,70
2021-12-24 16:13:09.003390,70
2021-12-24 16:13:09.003400,68
2021-12-24 16:13:09.003410,91
2021-12-24 16:13:09.003419,80
2021-12-24 16:13:09.003429,-179
2021-12-24 16:13:09.003439,-624
2021-12-24 16:13:09.183732,-659
2021-12-24 16:13:09.183756,-9
2021-12-24 16:13:09.183765,452
2021-12-24 16:13:09.183772,195
2021-12-24 16:13:09.183778,11
2021-12-24 16:13:09.183784,153
2021-12-24 16:13:09.183791,134
2021-12-24 16:13:09.183797,54
2021-12-24 16:13:09.183803,94
2021-12-24 16:13:09.183809,101
2021-12-24 16:13:09.183815,68
2021-12-24 16:13:09.183822,68
2021-12-24 16:13:09.183828,65
2021-12-24 16:13:09.183834,49
2021-12-24 16:13:09.183840,42
2021-12-24 16:13:09.183847,35
2021-12-24 16:13:09.183853,21
2021-12-24 16:13:09.183859,14
2021-12-24 16:13:09.183868,7
2021-12-24 16:13:09.183877,-7
2021-12-24 16:13:09.183884,-25
2021-12-24 16:13:09.183890,-42
2021-12-24 16:13:09.183897,-58
2021-12-24 16:13:09.183903,-77
2021-12-24 16:13:09.183909,-96
2021-12-24 16:13:09.183916,-113
2021-12-24 16:13:09.183922,-122
2021-12-24 16:13:09.183928,-124
2021-12-24 16:13:09.183935,-124
2021-12-24 16:13:09.183941,-122
2021-12-24 16:13:09.408314,-108
2021-12-24 16:13:09.408344,-75
2021-12-24 16:13:09.408356,-28
2021-12-24 16:13:09.408366,21
2021-12-24 16:13:09.408376,65
2021-12-24 16:13:09.408386,101
2021-12-24 16:13:09.408396,122
2021-12-24 16:13:09.408406,129
2021-12-24 16:13:09.408416,131
2021-12-24 16:13:09.408426,136
2021-12-24 16:13:09.408436,136
2021-12-24 16:13:09.408445,134
2021-12-24 16:13:09.408455,134
2021-12-24 16:13:09.408465,129
2021-12-24 16:13:09.408475,122
2021-12-24 16:13:09.408485,117
2021-12-24 16:13:09.408495,117
2021-12-24 16:13:09.408505,117
2021-12-24 16:13:09.408514,115
2021-12-24 16:13:09.408524,113
2021-12-24 16:13:09.408534,110
2021-12-24 16:13:09.408544,110
2021-12-24 16:13:09.408554,110
2021-12-24 16:13:09.408564,110
2021-12-24 16:13:09.408574,113
2021-12-24 16:13:09.408583,113
2021-12-24 16:13:09.408593,110
2021-12-24 16:13:09.408603,110
2021-12-24 16:13:09.408613,115
2021-12-24 16:13:09.408622,117
2021-12-24 16:13:09.633227,115
2021-12-24 16:13:09.633259,101
2021-12-24 16:13:09.633270,82
2021-12-24 16:13:09.633280,75
2021-12-24 16:13:09.633290,84
2021-12-24 16:13:09.633299,96
2021-12-24 16:13:09.633309,103
2021-12-24 16:13:09.633318,113
2021-12-24 16:13:09.633328,124
2021-12-24 16:13:09.633337,129
2021-12-24 16:13:09.633355,124
2021-12-24 16:13:09.633366,122
2021-12-24 16:13:09.633375,122
2021-12-24 16:13:09.633385,115
2021-12-24 16:13:09.633394,124
2021-12-24 16:13:09.633404,167
2021-12-24 16:13:09.633413,68
2021-12-24 16:13:09.633423,-369
2021-12-24 16:13:09.633432,-798
2021-12-24 16:13:09.633442,-532
2021-12-24 16:13:09.633452,202
2021-12-24 16:13:09.633461,402
2021-12-24 16:13:09.633471,129
2021-12-24 16:13:09.633480,120
2021-12-24 16:13:09.633490,226
2021-12-24 16:13:09.633499,162
2021-12-24 16:13:09.633509,134
2021-12-24 16:13:09.633518,169
2021-12-24 16:13:09.633528,153
2021-12-24 16:13:09.633538,129
2021-12-24 16:13:09.858772,136
2021-12-24 16:13:09.858802,131
2021-12-24 16:13:09.858814,117
2021-12-24 16:13:09.858824,113
2021-12-24 16:13:09.858834,106
2021-12-24 16:13:09.858844,94
2021-12-24 16:13:09.858854,80
2021-12-24 16:13:09.858864,63
2021-12-24 16:13:09.858873,49
2021-12-24 16:13:09.858883,35
2021-12-24 16:13:09.858893,18
2021-12-24 16:13:09.858903,-4
2021-12-24 16:13:09.858912,-30
2021-12-24 16:13:09.858922,-47
2021-12-24 16:13:09.858932,-58
2021-12-24 16:13:09.858941,-63
2021-12-24 16:13:09.858951,-68
2021-12-24 16:13:09.858961,-68
2021-12-24 16:13:09.858970,-58
2021-12-24 16:13:09.858980,-37
2021-12-24 16:13:09.858990,0
2021-12-24 16:13:09.859000,47
2021-12-24 16:13:09.859009,94
2021-12-24 16:13:09.859019,131
2021-12-24 16:13:09.859028,157
2021-12-24 16:13:09.859045,171
2021-12-24 16:13:09.859055,176
2021-12-24 16:13:09.859064,179
2021-12-24 16:13:09.859074,176
2021-12-24 16:13:09.859084,174
2021-12-24 16:13:10.083231,164
2021-12-24 16:13:10.083262,153
2021-12-24 16:13:10.083274,150
2021-12-24 16:13:10.083284,146
2021-12-24 16:13:10.083293,143
2021-12-24 16:13:10.083303,136
2021-12-24 16:13:10.083313,129
2021-12-24 16:13:10.083322,127
2021-12-24 16:13:10.083332,134
2021-12-24 16:13:10.083342,131
2021-12-24 16:13:10.083351,115
2021-12-24 16:13:10.083361,106
2021-12-24 16:13:10.083371,103
2021-12-24 16:13:10.083381,106
2021-12-24 16:13:10.083390,110
2021-12-24 16:13:10.083400,108
2021-12-24 16:13:10.083409,110
2021-12-24 16:13:10.083419,120
2021-12-24 16:13:10.083429,115
2021-12-24 16:13:10.083438,96
2021-12-24 16:13:10.083448,77
2021-12-24 16:13:10.083457,75
2021-12-24 16:13:10.083467,82
2021-12-24 16:13:10.083477,87
2021-12-24 16:13:10.083486,98
2021-12-24 16:13:10.083496,115
2021-12-24 16:13:10.083505,120
2021-12-24 16:13:10.083515,117
2021-12-24 16:13:10.083525,115
2021-12-24 16:13:10.083534,115
2021-12-24 16:13:10.398253,110
2021-12-24 16:13:10.398272,108
2021-12-24 16:13:10.398278,127
2021-12-24 16:13:10.398283,155
2021-12-24 16:13:10.398288,-40
2021-12-24 16:13:10.398293,-560
2021-12-24 16:13:10.398298,-850
2021-12-24 16:13:10.398303,-351
2021-12-24 16:13:10.398308,332
2021-12-24 16:13:10.398313,322
2021-12-24 16:13:10.398318,77
2021-12-24 16:13:10.398323,157
2021-12-24 16:13:10.398328,212
2021-12-24 16:13:10.398333,134
2021-12-24 16:13:10.398338,139
2021-12-24 16:13:10.398343,164
2021-12-24 16:13:10.398352,139
2021-12-24 16:13:10.398358,129
2021-12-24 16:13:10.398364,139
2021-12-24 16:13:10.398369,127
2021-12-24 16:13:10.398374,115
2021-12-24 16:13:10.398379,110
2021-12-24 16:13:10.398384,101
2021-12-24 16:13:10.398389,82
2021-12-24 16:13:10.398394,68
2021-12-24 16:13:10.398400,56
2021-12-24 16:13:10.398405,37
2021-12-24 16:13:10.398410,18
2021-12-24 16:13:10.398415,4
2021-12-24 16:13:10.398420,-16
2021-12-24 16:13:10.576575,-40
2021-12-24 16:13:10.576598,-54
2021-12-24 16:13:10.576605,-61
2021-12-24 16:13:10.576612,-70
2021-12-24 16:13:10.576618,-73
2021-12-24 16:13:10.576624,-63
2021-12-24 16:13:10.576631,-49
2021-12-24 16:13:10.576637,-21
2021-12-24 16:13:10.576643,23
2021-12-24 16:13:10.576649,73
2021-12-24 16:13:10.576655,110
2021-12-24 16:13:10.576662,141
2021-12-24 16:13:10.576668,162
2021-12-24 16:13:10.576674,171
2021-12-24 16:13:10.576680,176
2021-12-24 16:13:10.576686,171
2021-12-24 16:13:10.576693,167
2021-12-24 16:13:10.576699,164
2021-12-24 16:13:10.576705,164
2021-12-24 16:13:10.576711,157
2021-12-24 16:13:10.576717,153
2021-12-24 16:13:10.576723,148
2021-12-24 16:13:10.576729,139
2021-12-24 16:13:10.576736,136
2021-12-24 16:13:10.576742,136
2021-12-24 16:13:10.576748,131
2021-12-24 16:13:10.576754,122
2021-12-24 16:13:10.576760,115
2021-12-24 16:13:10.576766,108
2021-12-24 16:13:10.576772,98
2021-12-24 16:13:10.803851,94
2021-12-24 16:13:10.803881,98
2021-12-24 16:13:10.803893,98
2021-12-24 16:13:10.803903,94
2021-12-24 16:13:10.803912,91
2021-12-24 16:13:10.803922,91
2021-12-24 16:13:10.803931,89
2021-12-24 16:13:10.803941,87
2021-12-24 16:13:10.803950,68
2021-12-24 16:13:10.803960,40
2021-12-24 16:13:10.803970,35
2021-12-24 16:13:10.803979,56
2021-12-24 16:13:10.803989,73
2021-12-24 16:13:10.804006,82
2021-12-24 16:13:10.804016,96
2021-12-24 16:13:10.804026,101
2021-12-24 16:13:10.804035,98
2021-12-24 16:13:10.804045,101
2021-12-24 16:13:10.804054,101
2021-12-24 16:13:10.804063,98
2021-12-24 16:13:10.804073,94
2021-12-24 16:13:10.804082,113
2021-12-24 16:13:10.804092,150
2021-12-24 16:13:10.804101,0
2021-12-24 16:13:10.804111,-487
2021-12-24 16:13:10.804120,-845
2021-12-24 16:13:10.804130,-445
2021-12-24 16:13:10.804139,266
2021-12-24 16:13:10.804149,343
2021-12-24 16:13:10.804158,94
2021-12-24 16:13:11.028589,148
2021-12-24 16:13:11.028621,226
2021-12-24 16:13:11.028633,146
2021-12-24 16:13:11.028644,134
2021-12-24 16:13:11.028654,164
2021-12-24 16:13:11.028664,143
2021-12-24 16:13:11.028674,129
2021-12-24 16:13:11.028684,134
2021-12-24 16:13:11.028694,117
2021-12-24 16:13:11.028704,96
2021-12-24 16:13:11.028714,94
2021-12-24 16:13:11.028723,89
2021-12-24 16:13:11.028733,75
2021-12-24 16:13:11.028743,63
2021-12-24 16:13:11.028753,47
2021-12-24 16:13:11.028763,28
2021-12-24 16:13:11.028773,9
2021-12-24 16:13:11.028783,-9
2021-12-24 16:13:11.028793,-28
2021-12-24 16:13:11.028803,-47
2021-12-24 16:13:11.028813,-68
2021-12-24 16:13:11.028823,-80
2021-12-24 16:13:11.028833,-82
2021-12-24 16:13:11.028843,-82
2021-12-24 16:13:11.028852,-77
2021-12-24 16:13:11.028862,-68
2021-12-24 16:13:11.028872,-44
2021-12-24 16:13:11.028882,-2
2021-12-24 16:13:11.028892,51
2021-12-24 16:13:11.028902,98
2021-12-24 16:13:11.253189,134
2021-12-24 16:13:11.253218,155
2021-12-24 16:13:11.253230,167
2021-12-24 16:13:11.253240,169
2021-12-24 16:13:11.253250,160
2021-12-24 16:13:11.253260,155
2021-12-24 16:13:11.253270,157
2021-12-24 16:13:11.253280,153
2021-12-24 16:13:11.253290,143
2021-12-24 16:13:11.253299,139
2021-12-24 16:13:11.253309,131
2021-12-24 16:13:11.253319,127
2021-12-24 16:13:11.253329,124
2021-12-24 16:13:11.253339,120
2021-12-24 16:13:11.253349,115
2021-12-24 16:13:11.253359,110
2021-12-24 16:13:11.253369,106
2021-12-24 16:13:11.253384,103
2021-12-24 16:13:11.253394,103
2021-12-24 16:13:11.253403,106
2021-12-24 16:13:11.253413,101
2021-12-24 16:13:11.253423,98
2021-12-24 16:13:11.253433,98
2021-12-24 16:13:11.253443,98
2021-12-24 16:13:11.253453,94
2021-12-24 16:13:11.253463,94
2021-12-24 16:13:11.253473,96
2021-12-24 16:13:11.253483,98
2021-12-24 16:13:11.253493,98
2021-12-24 16:13:11.253502,87
2021-12-24 16:13:11.523094,54
2021-12-24 16:13:11.523125,42
2021-12-24 16:13:11.523136,61
2021-12-24 16:13:11.523146,73
2021-12-24 16:13:11.523156,84
2021-12-24 16:13:11.523166,101
2021-12-24 16:13:11.523175,103
2021-12-24 16:13:11.523185,98
2021-12-24 16:13:11.523195,98
2021-12-24 16:13:11.523204,101
2021-12-24 16:13:11.523214,98
2021-12-24 16:13:11.523224,96
2021-12-24 16:13:11.523233,103
2021-12-24 16:13:11.523243,131
2021-12-24 16:13:11.523253,75
2021-12-24 16:13:11.523263,-299
2021-12-24 16:13:11.523272,-768
2021-12-24 16:13:11.523282,-633
2021-12-24 16:13:11.523292,73
2021-12-24 16:13:11.523302,381
2021-12-24 16:13:11.523311,141
2021-12-24 16:13:11.523321,91
2021-12-24 16:13:11.523331,204
2021-12-24 16:13:11.523340,155
2021-12-24 16:13:11.523350,117
2021-12-24 16:13:11.523360,153
2021-12-24 16:13:11.523369,141
2021-12-24 16:13:11.523379,117
2021-12-24 16:13:11.523389,122
2021-12-24 16:13:11.523399,122
2021-12-24 16:13:11.747726,106
2021-12-24 16:13:11.747756,96
2021-12-24 16:13:11.747768,89
2021-12-24 16:13:11.747778,77
2021-12-24 16:13:11.747787,70
2021-12-24 16:13:11.747797,58
2021-12-24 16:13:11.747806,40
2021-12-24 16:13:11.747816,18
2021-12-24 16:13:11.747825,2
2021-12-24 16:13:11.747835,-18
2021-12-24 16:13:11.747845,-47
2021-12-24 16:13:11.747854,-70
2021-12-24 16:13:11.747864,-82
2021-12-24 16:13:11.747873,-91
2021-12-24 16:13:11.747883,-96
2021-12-24 16:13:11.747892,-94
2021-12-24 16:13:11.747902,-84
2021-12-24 16:13:11.747911,-68
2021-12-24 16:13:11.747920,-35
2021-12-24 16:13:11.747930,11
2021-12-24 16:13:11.747939,65
2021-12-24 16:13:11.747949,106
2021-12-24 16:13:11.747958,131
2021-12-24 16:13:11.747968,150
2021-12-24 16:13:11.747977,157
2021-12-24 16:13:11.747987,160
2021-12-24 16:13:11.747996,162
2021-12-24 16:13:11.748005,162
2021-12-24 16:13:11.748015,162
2021-12-24 16:13:11.748030,155
2021-12-24 16:13:11.928167,148
2021-12-24 16:13:11.928197,146
2021-12-24 16:13:11.928208,146
2021-12-24 16:13:11.928218,134
2021-12-24 16:13:11.928228,127
2021-12-24 16:13:11.928238,124
2021-12-24 16:13:11.928247,117
2021-12-24 16:13:11.928257,115
2021-12-24 16:13:11.928266,115
2021-12-24 16:13:11.928276,115
2021-12-24 16:13:11.928286,110
2021-12-24 16:13:11.928295,106
2021-12-24 16:13:11.928305,103
2021-12-24 16:13:11.928315,101
2021-12-24 16:13:11.928324,98
2021-12-24 16:13:11.928334,94
2021-12-24 16:13:11.928344,91
2021-12-24 16:13:11.928353,87
2021-12-24 16:13:11.928363,84
2021-12-24 16:13:11.928373,87
2021-12-24 16:13:11.928382,87
2021-12-24 16:13:11.928392,91
2021-12-24 16:13:11.928402,91
2021-12-24 16:13:11.928411,65
2021-12-24 16:13:11.928421,32
2021-12-24 16:13:11.928430,35
2021-12-24 16:13:11.928440,58
2021-12-24 16:13:11.928450,73
2021-12-24 16:13:11.928459,82
2021-12-24 16:13:11.928469,94
2021-12-24 16:13:12.153657,101
2021-12-24 16:13:12.153687,98
2021-12-24 16:13:12.153699,98
2021-12-24 16:13:12.153709,98
2021-12-24 16:13:12.153719,91
2021-12-24 16:13:12.153729,84
2021-12-24 16:13:12.153738,106
2021-12-24 16:13:12.153748,139
2021-12-24 16:13:12.153758,-23
2021-12-24 16:13:12.153768,-487
2021-12-24 16:13:12.153778,-786
2021-12-24 16:13:12.153787,-362
2021-12-24 16:13:12.153797,285
2021-12-24 16:13:12.153807,299
2021-12-24 16:13:12.153816,63
2021-12-24 16:13:12.153826,134
2021-12-24 16:13:12.153836,183
2021-12-24 16:13:12.153845,106
2021-12-24 16:13:12.153855,108
2021-12-24 16:13:12.153865,136
2021-12-24 16:13:12.153874,113
2021-12-24 16:13:12.153884,101
2021-12-24 16:13:12.153893,101
2021-12-24 16:13:12.153903,91
2021-12-24 16:13:12.153913,82
2021-12-24 16:13:12.153922,80
2021-12-24 16:13:12.153932,73
2021-12-24 16:13:12.153942,63
2021-12-24 16:13:12.153951,51
2021-12-24 16:13:12.153961,40
2021-12-24 16:13:12.377738,25
2021-12-24 16:13:12.377770,9
2021-12-24 16:13:12.377778,-9
2021-12-24 16:13:12.377784,-30
2021-12-24 16:13:12.377790,-54
2021-12-24 16:13:12.377797,-70
2021-12-24 16:13:12.377803,-77
2021-12-24 16:13:12.377809,-80
2021-12-24 16:13:12.377815,-82
2021-12-24 16:13:12.377822,-80
2021-12-24 16:13:12.377828,-77
2021-12-24 16:13:12.377834,-51
2021-12-24 16:13:12.377840,-4
2021-12-24 16:13:12.377847,44
2021-12-24 16:13:12.377853,89
2021-12-24 16:13:12.377859,127
2021-12-24 16:13:12.377865,148
2021-12-24 16:13:12.377871,162
2021-12-24 16:13:12.377877,171
2021-12-24 16:13:12.377884,174
2021-12-24 16:13:12.377897,169
2021-12-24 16:13:12.377904,160
2021-12-24 16:13:12.377910,157
2021-12-24 16:13:12.377917,155
2021-12-24 16:13:12.377923,150
2021-12-24 16:13:12.377929,148
2021-12-24 16:13:12.377936,143
2021-12-24 16:13:12.377942,139
2021-12-24 16:13:12.377948,136
2021-12-24 16:13:12.377954,134
2021-12-24 16:13:12.692297,131
2021-12-24 16:13:12.692328,127
2021-12-24 16:13:12.692339,122
2021-12-24 16:13:12.692349,115
2021-12-24 16:13:12.692358,106
2021-12-24 16:13:12.692368,103
2021-12-24 16:13:12.692377,106
2021-12-24 16:13:12.692387,103
2021-12-24 16:13:12.692396,101
2021-12-24 16:13:12.692406,98
2021-12-24 16:13:12.692415,96
2021-12-24 16:13:12.692425,98
2021-12-24 16:13:12.692434,98
2021-12-24 16:13:12.692444,98
2021-12-24 16:13:12.692453,96
2021-12-24 16:13:12.692463,96
2021-12-24 16:13:12.692472,101
2021-12-24 16:13:12.692481,106
2021-12-24 16:13:12.692491,103
2021-12-24 16:13:12.692500,75
2021-12-24 16:13:12.692510,47
2021-12-24 16:13:12.692519,49
2021-12-24 16:13:12.692529,61
2021-12-24 16:13:12.692538,70
2021-12-24 16:13:12.692548,82
2021-12-24 16:13:12.692557,94
2021-12-24 16:13:12.692567,98
2021-12-24 16:13:12.692576,96
2021-12-24 16:13:12.692586,96
2021-12-24 16:13:12.692595,96
2021-12-24 16:13:12.918171,94
2021-12-24 16:13:12.918200,94
2021-12-24 16:13:12.918212,117
2021-12-24 16:13:12.918222,139
2021-12-24 16:13:12.918231,-51
2021-12-24 16:13:12.918241,-518
2021-12-24 16:13:12.918251,-744
2021-12-24 16:13:12.918260,-247
2021-12-24 16:13:12.918270,343
2021-12-24 16:13:12.918279,263
2021-12-24 16:13:12.918289,42
2021-12-24 16:13:12.918299,143
2021-12-24 16:13:12.918308,176
2021-12-24 16:13:12.918318,96
2021-12-24 16:13:12.918327,108
2021-12-24 16:13:12.918337,124
2021-12-24 16:13:12.918346,96
2021-12-24 16:13:12.918356,91
2021-12-24 16:13:12.918365,98
2021-12-24 16:13:12.918375,84
2021-12-24 16:13:12.918384,70
2021-12-24 16:13:12.918393,63
2021-12-24 16:13:12.918403,51
2021-12-24 16:13:12.918412,37
2021-12-24 16:13:12.918422,23
2021-12-24 16:13:12.918431,7
2021-12-24 16:13:12.918441,-9
2021-12-24 16:13:12.918450,-30
2021-12-24 16:13:12.918460,-51
2021-12-24 16:13:12.918469,-70
2021-12-24 16:13:13.098676,-89
2021-12-24 16:13:13.098706,-108
2021-12-24 16:13:13.098718,-124
2021-12-24 16:13:13.098728,-131
2021-12-24 16:13:13.098737,-129
2021-12-24 16:13:13.098747,-122
2021-12-24 16:13:13.098757,-115
2021-12-24 16:13:13.098766,-94
2021-12-24 16:13:13.098776,-56
2021-12-24 16:13:13.098786,-9
2021-12-24 16:13:13.098796,37
2021-12-24 16:13:13.098805,73
2021-12-24 16:13:13.098815,98
2021-12-24 16:13:13.098825,110
2021-12-24 16:13:13.098835,120
2021-12-24 16:13:13.098845,122
2021-12-24 16:13:13.098854,122
2021-12-24 16:13:13.098864,120
2021-12-24 16:13:13.098874,120
2021-12-24 16:13:13.098884,110
2021-12-24 16:13:13.098893,91
2021-12-24 16:13:13.098903,87
2021-12-24 16:13:13.098922,87
2021-12-24 16:13:13.098932,77
2021-12-24 16:13:13.098942,70
2021-12-24 16:13:13.098952,70
2021-12-24 16:13:13.098961,65
2021-12-24 16:13:13.098971,58
2021-12-24 16:13:13.098981,51
2021-12-24 16:13:13.098990,49
2021-12-24 16:13:13.413342,44
2021-12-24 16:13:13.413364,42
2021-12-24 16:13:13.413372,40
2021-12-24 16:13:13.413379,40
2021-12-24 16:13:13.413385,42
2021-12-24 16:13:13.413391,40
2021-12-24 16:13:13.413398,37
2021-12-24 16:13:13.413404,40
2021-12-24 16:13:13.413410,47
2021-12-24 16:13:13.413417,44
2021-12-24 16:13:13.413423,37
2021-12-24 16:13:13.413429,18
2021-12-24 16:13:13.413435,-2
2021-12-24 16:13:13.413442,-7
2021-12-24 16:13:13.413448,7
2021-12-24 16:13:13.413454,28
2021-12-24 16:13:13.413461,40
2021-12-24 16:13:13.413467,49
2021-12-24 16:13:13.413473,49
2021-12-24 16:13:13.413479,49
2021-12-24 16:13:13.413485,51
2021-12-24 16:13:13.413492,49
2021-12-24 16:13:13.413498,47
2021-12-24 16:13:13.413504,51
2021-12-24 16:13:13.413510,73
2021-12-24 16:13:13.413517,84
2021-12-24 16:13:13.413523,-80
2021-12-24 16:13:13.413529,-523
2021-12-24 16:13:13.413536,-796
2021-12-24 16:13:13.413542,-320
2021-12-24 16:13:13.547772,369
2021-12-24 16:13:13.547792,325
2021-12-24 16:13:13.547799,18
2021-12-24 16:13:13.547806,96
2021-12-24 16:13:13.547812,155
2021-12-24 16:13:13.547819,54
2021-12-24 16:13:13.547825,58
2021-12-24 16:13:13.547831,96
2021-12-24 16:13:13.547837,70
2021-12-24 16:13:13.547843,54
2021-12-24 16:13:13.547850,65
2021-12-24 16:13:13.547856,56
2021-12-24 16:13:13.547864,35
2021-12-24 16:13:13.547870,25
2021-12-24 16:13:13.547877,25
2021-12-24 16:13:13.547883,16
2021-12-24 16:13:13.547889,0
2021-12-24 16:13:13.547895,-16
2021-12-24 16:13:13.547901,-35
2021-12-24 16:13:13.547908,-56
2021-12-24 16:13:13.547914,-77
2021-12-24 16:13:13.547920,-96
2021-12-24 16:13:13.547926,-117
2021-12-24 16:13:13.547932,-141
2021-12-24 16:13:13.547939,-157
2021-12-24 16:13:13.547945,-164
2021-12-24 16:13:13.547951,-162
2021-12-24 16:13:13.547957,-160
2021-12-24 16:13:13.547963,-143
2021-12-24 16:13:13.547969,-106
2021-12-24 16:13:13.774303,-54
2021-12-24 16:13:13.774323,4
2021-12-24 16:13:13.774331,58
2021-12-24 16:13:13.774338,91
2021-12-24 16:13:13.774344,108
2021-12-24 16:13:13.774350,120
2021-12-24 16:13:13.774356,129
2021-12-24 16:13:13.774363,134
2021-12-24 16:13:13.774369,131
2021-12-24 16:13:13.774375,127
2021-12-24 16:13:13.774383,122
2021-12-24 16:13:13.774405,115
2021-12-24 16:13:13.774416,113
2021-12-24 16:13:13.774428,110
2021-12-24 16:13:13.774439,108
2021-12-24 16:13:13.774484,103
2021-12-24 16:13:13.774495,98
2021-12-24 16:13:13.774506,91
2021-12-24 16:13:13.774517,91
2021-12-24 16:13:13.774528,91
2021-12-24 16:13:13.774535,84
2021-12-24 16:13:13.774541,82
2021-12-24 16:13:13.774548,82
2021-12-24 16:13:13.774554,82
2021-12-24 16:13:13.774560,82
2021-12-24 16:13:13.774567,87
2021-12-24 16:13:13.774573,91
2021-12-24 16:13:13.774579,94
2021-12-24 16:13:13.774586,94
2021-12-24 16:13:13.774592,84
2021-12-24 16:13:14.088750,61
2021-12-24 16:13:14.088780,44
2021-12-24 16:13:14.088791,54
2021-12-24 16:13:14.088802,75
2021-12-24 16:13:14.088812,87
2021-12-24 16:13:14.088831,94
2021-12-24 16:13:14.088842,98
2021-12-24 16:13:14.088852,103
2021-12-24 16:13:14.088862,103
2021-12-24 16:13:14.088872,103
2021-12-24 16:13:14.088882,101
2021-12-24 16:13:14.088892,98
2021-12-24 16:13:14.088902,101
2021-12-24 16:13:14.088911,136
2021-12-24 16:13:14.088921,148
2021-12-24 16:13:14.088931,-108
2021-12-24 16:13:14.088941,-619
2021-12-24 16:13:14.088951,-763
2021-12-24 16:13:14.088961,-143
2021-12-24 16:13:14.088971,433
2021-12-24 16:13:14.088981,278
2021-12-24 16:13:14.088991,68
2021-12-24 16:13:14.089001,188
2021-12-24 16:13:14.089011,200
2021-12-24 16:13:14.089020,117
2021-12-24 16:13:14.089030,146
2021-12-24 16:13:14.089040,164
2021-12-24 16:13:14.089050,129
2021-12-24 16:13:14.089060,124
2021-12-24 16:13:14.089070,131
2021-12-24 16:13:14.223634,117
2021-12-24 16:13:14.223657,110
2021-12-24 16:13:14.223664,108
2021-12-24 16:13:14.223671,96
2021-12-24 16:13:14.223677,80
2021-12-24 16:13:14.223683,68
2021-12-24 16:13:14.223690,54
2021-12-24 16:13:14.223696,35
2021-12-24 16:13:14.223702,11
2021-12-24 16:13:14.223709,-16
2021-12-24 16:13:14.223715,-44
2021-12-24 16:13:14.223721,-68
2021-12-24 16:13:14.223727,-87
2021-12-24 16:13:14.223734,-98
2021-12-24 16:13:14.223740,-106
2021-12-24 16:13:14.223746,-110
2021-12-24 16:13:14.223753,-113
2021-12-24 16:13:14.223759,-94
2021-12-24 16:13:14.223765,-47
2021-12-24 16:13:14.223772,11
2021-12-24 16:13:14.223778,63
2021-12-24 16:13:14.223784,106
2021-12-24 16:13:14.223791,134
2021-12-24 16:13:14.223797,155
2021-12-24 16:13:14.223803,167
2021-12-24 16:13:14.223809,171
2021-12-24 16:13:14.223816,171
2021-12-24 16:13:14.223822,167
2021-12-24 16:13:14.223828,162
2021-12-24 16:13:14.223834,157
2021-12-24 16:13:14.538225,155
2021-12-24 16:13:14.538246,153
2021-12-24 16:13:14.538253,150
2021-12-24 16:13:14.538260,141
2021-12-24 16:13:14.538267,129
2021-12-24 16:13:14.538273,129
2021-12-24 16:13:14.538279,127
2021-12-24 16:13:14.538286,120
2021-12-24 16:13:14.538292,115
2021-12-24 16:13:14.538298,108
2021-12-24 16:13:14.538305,103
2021-12-24 16:13:14.538311,108
2021-12-24 16:13:14.538317,108
2021-12-24 16:13:14.538324,106
2021-12-24 16:13:14.538330,106
2021-12-24 16:13:14.538336,106
2021-12-24 16:13:14.538343,106
2021-12-24 16:13:14.538349,110
2021-12-24 16:13:14.538355,117
2021-12-24 16:13:14.538362,115
2021-12-24 16:13:14.538368,87
2021-12-24 16:13:14.538374,61
2021-12-24 16:13:14.538381,70
2021-12-24 16:13:14.538387,91
2021-12-24 16:13:14.538393,103
2021-12-24 16:13:14.538399,115
2021-12-24 16:13:14.538406,122
2021-12-24 16:13:14.538412,122
2021-12-24 16:13:14.538418,122
2021-12-24 16:13:14.538425,124
2021-12-24 16:13:14.761845,124
2021-12-24 16:13:14.761866,122
2021-12-24 16:13:14.761874,122
2021-12-24 16:13:14.761880,150
2021-12-24 16:13:14.761886,176
2021-12-24 16:13:14.761892,-58
2021-12-24 16:13:14.761899,-598
2021-12-24 16:13:14.761905,-829
2021-12-24 16:13:14.761911,-273
2021-12-24 16:13:14.761918,369
2021-12-24 16:13:14.761924,308
2021-12-24 16:13:14.761930,87
2021-12-24 16:13:14.761936,186
2021-12-24 16:13:14.761943,219
2021-12-24 16:13:14.761949,134
2021-12-24 16:13:14.761955,139
2021-12-24 16:13:14.761962,155
2021-12-24 16:13:14.761968,127
2021-12-24 16:13:14.761974,122
2021-12-24 16:13:14.761980,129
2021-12-24 16:13:14.761987,113
2021-12-24 16:13:14.761993,98
2021-12-24 16:13:14.761999,98
2021-12-24 16:13:14.762005,89
2021-12-24 16:13:14.762011,77
2021-12-24 16:13:14.762018,68
2021-12-24 16:13:14.762024,54
2021-12-24 16:13:14.762030,30
2021-12-24 16:13:14.762036,14
2021-12-24 16:13:14.762042,-7
2021-12-24 16:13:14.988343,-32
2021-12-24 16:13:14.988379,-56
2021-12-24 16:13:14.988392,-77
2021-12-24 16:13:14.988402,-91
2021-12-24 16:13:14.988412,-98
2021-12-24 16:13:14.988422,-98
2021-12-24 16:13:14.988432,-91
2021-12-24 16:13:14.988442,-77
2021-12-24 16:13:14.988452,-47
2021-12-24 16:13:14.988461,2
2021-12-24 16:13:14.988471,56
2021-12-24 16:13:14.988481,101
2021-12-24 16:13:14.988491,136
2021-12-24 16:13:14.988501,155
2021-12-24 16:13:14.988511,162
2021-12-24 16:13:14.988521,162
2021-12-24 16:13:14.988531,167
2021-12-24 16:13:14.988540,167
2021-12-24 16:13:14.988550,162
2021-12-24 16:13:14.988560,157
2021-12-24 16:13:14.988570,150
2021-12-24 16:13:14.988580,143
2021-12-24 16:13:14.988590,139
2021-12-24 16:13:14.988600,136
2021-12-24 16:13:14.988610,134
2021-12-24 16:13:14.988620,127
2021-12-24 16:13:14.988629,124
2021-12-24 16:13:14.988639,122
2021-12-24 16:13:14.988649,120
2021-12-24 16:13:14.988659,115
2021-12-24 16:13:15.168132,115
2021-12-24 16:13:15.168162,115
2021-12-24 16:13:15.168173,110
2021-12-24 16:13:15.168183,110
2021-12-24 16:13:15.168192,110
2021-12-24 16:13:15.168202,110
2021-12-24 16:13:15.168211,108
2021-12-24 16:13:15.168221,103
2021-12-24 16:13:15.168230,103
2021-12-24 16:13:15.168240,103
2021-12-24 16:13:15.168249,103
2021-12-24 16:13:15.168259,108
2021-12-24 16:13:15.168268,110
2021-12-24 16:13:15.168278,110
2021-12-24 16:13:15.168287,110
2021-12-24 16:13:15.168296,91
2021-12-24 16:13:15.168306,61
2021-12-24 16:13:15.168315,58
2021-12-24 16:13:15.168324,77
2021-12-24 16:13:15.168334,89
2021-12-24 16:13:15.168343,94
2021-12-24 16:13:15.168352,103
2021-12-24 16:13:15.168362,101
2021-12-24 16:13:15.168371,101
2021-12-24 16:13:15.168380,106
2021-12-24 16:13:15.168390,106
2021-12-24 16:13:15.168399,101
2021-12-24 16:13:15.168409,96
2021-12-24 16:13:15.168418,108
2021-12-24 16:13:15.168427,157
2021-12-24 16:13:15.393445,103
2021-12-24 16:13:15.393466,-292
2021-12-24 16:13:15.393474,-777
2021-12-24 16:13:15.393480,-662
2021-12-24 16:13:15.393487,49
2021-12-24 16:13:15.393493,400
2021-12-24 16:13:15.393499,167
2021-12-24 16:13:15.393506,89
2021-12-24 16:13:15.393512,207
2021-12-24 16:13:15.393518,169
2021-12-24 16:13:15.393524,122
2021-12-24 16:13:15.393530,157
2021-12-24 16:13:15.393537,148
2021-12-24 16:13:15.393543,120
2021-12-24 16:13:15.393549,122
2021-12-24 16:13:15.393555,120
2021-12-24 16:13:15.393562,103
2021-12-24 16:13:15.393568,98
2021-12-24 16:13:15.393574,94
2021-12-24 16:13:15.393580,82
2021-12-24 16:13:15.393587,70
2021-12-24 16:13:15.393593,61
2021-12-24 16:13:15.393599,44
2021-12-24 16:13:15.393605,28
2021-12-24 16:13:15.393611,7
2021-12-24 16:13:15.393618,-14
2021-12-24 16:13:15.393624,-35
2021-12-24 16:13:15.393630,-58
2021-12-24 16:13:15.393637,-77
2021-12-24 16:13:15.393643,-87
2021-12-24 16:13:15.618240,-89
2021-12-24 16:13:15.618270,-94
2021-12-24 16:13:15.618282,-91
2021-12-24 16:13:15.618291,-73
2021-12-24 16:13:15.618301,-35
2021-12-24 16:13:15.618311,14
2021-12-24 16:13:15.618320,63
2021-12-24 16:13:15.618330,106
2021-12-24 16:13:15.618340,141
2021-12-24 16:13:15.618349,160
2021-12-24 16:13:15.618359,167
2021-12-24 16:13:15.618368,169
2021-12-24 16:13:15.618378,162
2021-12-24 16:13:15.618387,160
2021-12-24 16:13:15.618397,155
2021-12-24 16:13:15.618407,148
2021-12-24 16:13:15.618416,141
2021-12-24 16:13:15.618426,134
2021-12-24 16:13:15.618435,129
2021-12-24 16:13:15.618445,129
2021-12-24 16:13:15.618454,127
2021-12-24 16:13:15.618464,122
2021-12-24 16:13:15.618474,117
2021-12-24 16:13:15.618483,115
2021-12-24 16:13:15.618493,115
2021-12-24 16:13:15.618502,113
2021-12-24 16:13:15.618512,110
2021-12-24 16:13:15.618521,106
2021-12-24 16:13:15.618531,98
2021-12-24 16:13:15.618541,96
2021-12-24 16:13:15.843071,96
2021-12-24 16:13:15.843101,98
2021-12-24 16:13:15.843114,98
2021-12-24 16:13:15.843124,98
2021-12-24 16:13:15.843133,96
2021-12-24 16:13:15.843143,94
2021-12-24 16:13:15.843153,94
2021-12-24 16:13:15.843162,96
2021-12-24 16:13:15.843172,96
2021-12-24 16:13:15.843182,98
2021-12-24 16:13:15.843191,101
2021-12-24 16:13:15.843206,94
2021-12-24 16:13:15.843216,68
2021-12-24 16:13:15.843226,44
2021-12-24 16:13:15.843236,54
2021-12-24 16:13:15.843245,73
2021-12-24 16:13:15.843255,84
2021-12-24 16:13:15.843265,91
2021-12-24 16:13:15.843274,101
2021-12-24 16:13:15.843284,103
2021-12-24 16:13:15.843294,101
2021-12-24 16:13:15.843304,101
2021-12-24 16:13:15.843314,98
2021-12-24 16:13:15.843324,94
2021-12-24 16:13:15.843333,94
2021-12-24 16:13:15.843343,117
2021-12-24 16:13:15.843353,162
2021-12-24 16:13:15.843363,51
2021-12-24 16:13:15.843373,-398
2021-12-24 16:13:15.843383,-808
2021-12-24 16:13:16.113622,-520
2021-12-24 16:13:16.113651,195
2021-12-24 16:13:16.113663,372
2021-12-24 16:13:16.113674,113
2021-12-24 16:13:16.113684,113
2021-12-24 16:13:16.113694,204
2021-12-24 16:13:16.113704,139
2021-12-24 16:13:16.113714,117
2021-12-24 16:13:16.113723,153
2021-12-24 16:13:16.113733,134
2021-12-24 16:13:16.113743,108
2021-12-24 16:13:16.113753,115
2021-12-24 16:13:16.113763,113
2021-12-24 16:13:16.113773,98
2021-12-24 16:13:16.113783,94
2021-12-24 16:13:16.113792,87
2021-12-24 16:13:16.113802,73
2021-12-24 16:13:16.113812,61
2021-12-24 16:13:16.113822,51
2021-12-24 16:13:16.113832,35
2021-12-24 16:13:16.113842,14
2021-12-24 16:13:16.113852,-9
2021-12-24 16:13:16.113862,-32
2021-12-24 16:13:16.113871,-54
2021-12-24 16:13:16.113881,-73
2021-12-24 16:13:16.113891,-89
2021-12-24 16:13:16.113901,-101
2021-12-24 16:13:16.113911,-110
2021-12-24 16:13:16.113921,-108
2021-12-24 16:13:16.113931,-98
2021-12-24 16:13:16.337404,-75
2021-12-24 16:13:16.337423,-35
2021-12-24 16:13:16.337430,14
2021-12-24 16:13:16.337437,56
2021-12-24 16:13:16.337443,96
2021-12-24 16:13:16.337450,131
2021-12-24 16:13:16.337456,150
2021-12-24 16:13:16.337462,155
2021-12-24 16:13:16.337468,155
2021-12-24 16:13:16.337475,148
2021-12-24 16:13:16.337481,136
2021-12-24 16:13:16.337487,134
2021-12-24 16:13:16.337494,136
2021-12-24 16:13:16.337500,131
2021-12-24 16:13:16.337506,127
2021-12-24 16:13:16.337512,120
2021-12-24 16:13:16.337518,110
2021-12-24 16:13:16.337525,108
2021-12-24 16:13:16.337531,108
2021-12-24 16:13:16.337537,106
2021-12-24 16:13:16.337543,103
2021-12-24 16:13:16.337550,98
2021-12-24 16:13:16.337556,98
2021-12-24 16:13:16.337562,94
2021-12-24 16:13:16.337568,91
2021-12-24 16:13:16.337574,91
2021-12-24 16:13:16.337581,89
2021-12-24 16:13:16.337587,89
2021-12-24 16:13:16.337593,91
2021-12-24 16:13:16.337599,89
2021-12-24 16:13:16.608793,87
2021-12-24 16:13:16.608823,87
2021-12-24 16:13:16.608834,89
2021-12-24 16:13:16.608844,89
2021-12-24 16:13:16.608854,89
2021-12-24 16:13:16.608863,91
2021-12-24 16:13:16.608873,91
2021-12-24 16:13:16.608882,70
2021-12-24 16:13:16.608892,37
2021-12-24 16:13:16.608901,35
2021-12-24 16:13:16.608911,58
2021-12-24 16:13:16.608920,75
2021-12-24 16:13:16.608930,84
2021-12-24 16:13:16.608939,94
2021-12-24 16:13:16.608949,96
2021-12-24 16:13:16.608958,94
2021-12-24 16:13:16.608968,91
2021-12-24 16:13:16.608977,89
2021-12-24 16:13:16.608987,89
2021-12-24 16:13:16.608996,87
2021-12-24 16:13:16.609006,101
2021-12-24 16:13:16.609015,139
2021-12-24 16:13:16.609024,14
2021-12-24 16:13:16.609034,-433
2021-12-24 16:13:16.609043,-786
2021-12-24 16:13:16.609053,-412
2021-12-24 16:13:16.609063,301
2021-12-24 16:13:16.609072,372
2021-12-24 16:13:16.609082,77
2021-12-24 16:13:16.609091,110
2021-12-24 16:13:16.831885,193
2021-12-24 16:13:16.831906,110
2021-12-24 16:13:16.831914,98
2021-12-24 16:13:16.831920,131
2021-12-24 16:13:16.831926,108
2021-12-24 16:13:16.831932,94
2021-12-24 16:13:16.831939,108
2021-12-24 16:13:16.831945,96
2021-12-24 16:13:16.831951,75
2021-12-24 16:13:16.831957,63
2021-12-24 16:13:16.831964,61
2021-12-24 16:13:16.831970,54
2021-12-24 16:13:16.831976,40
2021-12-24 16:13:16.831982,21
2021-12-24 16:13:16.831989,2
2021-12-24 16:13:16.831995,-18
2021-12-24 16:13:16.832001,-37
2021-12-24 16:13:16.832008,-58
2021-12-24 16:13:16.832014,-84
2021-12-24 16:13:16.832020,-106
2021-12-24 16:13:16.832026,-127
2021-12-24 16:13:16.832032,-139
2021-12-24 16:13:16.832039,-139
2021-12-24 16:13:16.832045,-136
2021-12-24 16:13:16.832051,-129
2021-12-24 16:13:16.832057,-103
2021-12-24 16:13:16.832064,-56
2021-12-24 16:13:16.832070,-2
2021-12-24 16:13:16.832076,51
2021-12-24 16:13:16.832082,94
2021-12-24 16:13:17.057557,122
2021-12-24 16:13:17.057572,139
2021-12-24 16:13:17.057578,141
2021-12-24 16:13:17.057582,143
2021-12-24 16:13:17.057587,143
2021-12-24 16:13:17.057591,141
2021-12-24 16:13:17.057595,139
2021-12-24 16:13:17.057600,136
2021-12-24 16:13:17.057607,131
2021-12-24 16:13:17.057611,124
2021-12-24 16:13:17.057616,120
2021-12-24 16:13:17.057620,117
2021-12-24 16:13:17.057624,113
2021-12-24 16:13:17.057629,106
2021-12-24 16:13:17.057633,103
2021-12-24 16:13:17.057637,101
2021-12-24 16:13:17.057642,98
2021-12-24 16:13:17.057646,101
2021-12-24 16:13:17.057650,101
2021-12-24 16:13:17.057655,94
2021-12-24 16:13:17.057659,94
2021-12-24 16:13:17.057664,96
2021-12-24 16:13:17.057668,96
2021-12-24 16:13:17.057672,96
2021-12-24 16:13:17.057677,96
2021-12-24 16:13:17.057681,96
2021-12-24 16:13:17.057685,98
2021-12-24 16:13:17.057690,101
2021-12-24 16:13:17.057694,101
2021-12-24 16:13:17.057698,94
2021-12-24 16:13:17.237931,75
2021-12-24 16:13:17.237950,51
2021-12-24 16:13:17.237958,49
2021-12-24 16:13:17.237964,68
2021-12-24 16:13:17.237970,87
2021-12-24 16:13:17.237977,98
2021-12-24 16:13:17.237983,106
2021-12-24 16:13:17.237989,108
2021-12-24 16:13:17.237996,110
2021-12-24 16:13:17.238002,110
2021-12-24 16:13:17.238008,106
2021-12-24 16:13:17.238014,103
2021-12-24 16:13:17.238020,103
2021-12-24 16:13:17.238026,106
2021-12-24 16:13:17.238033,134
2021-12-24 16:13:17.238039,120
2021-12-24 16:13:17.238045,-181
2021-12-24 16:13:17.238051,-683
2021-12-24 16:13:17.238058,-709
2021-12-24 16:13:17.238064,-14
2021-12-24 16:13:17.238070,468
2021-12-24 16:13:17.238076,221
2021-12-24 16:13:17.238083,54
2021-12-24 16:13:17.238089,195
2021-12-24 16:13:17.238095,171
2021-12-24 16:13:17.238101,94
2021-12-24 16:13:17.238107,136
2021-12-24 16:13:17.238113,148
2021-12-24 16:13:17.238120,110
2021-12-24 16:13:17.238126,110
2021-12-24 16:13:17.462730,120
2021-12-24 16:13:17.462753,103
2021-12-24 16:13:17.462760,91
2021-12-24 16:13:17.462767,87
2021-12-24 16:13:17.462773,77
2021-12-24 16:13:17.462780,63
2021-12-24 16:13:17.462786,47
2021-12-24 16:13:17.462793,32
2021-12-24 16:13:17.462799,14
2021-12-24 16:13:17.462805,-9
2021-12-24 16:13:17.462812,-28
2021-12-24 16:13:17.462818,-56
2021-12-24 16:13:17.462825,-82
2021-12-24 16:13:17.462831,-98
2021-12-24 16:13:17.462838,-106
2021-12-24 16:13:17.462844,-115
2021-12-24 16:13:17.462850,-117
2021-12-24 16:13:17.462857,-108
2021-12-24 16:13:17.462863,-87
2021-12-24 16:13:17.462869,-54
2021-12-24 16:13:17.462876,-2
2021-12-24 16:13:17.462882,51
2021-12-24 16:13:17.462889,103
2021-12-24 16:13:17.462895,141
2021-12-24 16:13:17.462901,157
2021-12-24 16:13:17.462907,167
2021-12-24 16:13:17.462914,171
2021-12-24 16:13:17.462920,174
2021-12-24 16:13:17.462926,171
2021-12-24 16:13:17.462933,171
2021-12-24 16:13:17.733119,171
2021-12-24 16:13:17.733149,171
2021-12-24 16:13:17.733161,164
2021-12-24 16:13:17.733171,157
2021-12-24 16:13:17.733181,150
2021-12-24 16:13:17.733190,146
2021-12-24 16:13:17.733200,141
2021-12-24 16:13:17.733210,136
2021-12-24 16:13:17.733219,134
2021-12-24 16:13:17.733229,127
2021-12-24 16:13:17.733239,124
2021-12-24 16:13:17.733248,124
2021-12-24 16:13:17.733258,122
2021-12-24 16:13:17.733268,120
2021-12-24 16:13:17.733277,122
2021-12-24 16:13:17.733287,124
2021-12-24 16:13:17.733297,122
2021-12-24 16:13:17.733306,120
2021-12-24 16:13:17.733316,124
2021-12-24 16:13:17.733326,127
2021-12-24 16:13:17.733335,120
2021-12-24 16:13:17.733345,113
2021-12-24 16:13:17.733354,120
2021-12-24 16:13:17.733364,127
2021-12-24 16:13:17.733374,115
2021-12-24 16:13:17.733383,87
2021-12-24 16:13:17.733393,73
2021-12-24 16:13:17.733403,87
2021-12-24 16:13:17.733412,103
2021-12-24 16:13:17.733422,110
2021-12-24 16:13:17.913570,124
2021-12-24 16:13:17.913601,134
2021-12-24 16:13:17.913613,134
2021-12-24 16:13:17.913622,131
2021-12-24 16:13:17.913632,127
2021-12-24 16:13:17.913641,124
2021-12-24 16:13:17.913651,127
2021-12-24 16:13:17.913661,129
2021-12-24 16:13:17.913670,157
2021-12-24 16:13:17.913680,176
2021-12-24 16:13:17.913690,-63
2021-12-24 16:13:17.913699,-586
2021-12-24 16:13:17.913709,-796
2021-12-24 16:13:17.913719,-235
2021-12-24 16:13:17.913728,402
2021-12-24 16:13:17.913738,325
2021-12-24 16:13:17.913748,84
2021-12-24 16:13:17.913757,179
2021-12-24 16:13:17.913767,214
2021-12-24 16:13:17.913776,134
2021-12-24 16:13:17.913786,150
2021-12-24 16:13:17.913796,171
2021-12-24 16:13:17.913805,139
2021-12-24 16:13:17.913815,131
2021-12-24 16:13:17.913825,141
2021-12-24 16:13:17.913834,129
2021-12-24 16:13:17.913844,117
2021-12-24 16:13:17.913853,113
2021-12-24 16:13:17.913863,101
2021-12-24 16:13:17.913873,87
2021-12-24 16:13:18.317625,73
2021-12-24 16:13:18.317654,56
2021-12-24 16:13:18.317665,40
2021-12-24 16:13:18.317675,16
2021-12-24 16:13:18.317685,-11
2021-12-24 16:13:18.317695,-35
2021-12-24 16:13:18.317705,-56
2021-12-24 16:13:18.317715,-82
2021-12-24 16:13:18.317724,-103
2021-12-24 16:13:18.317734,-117
2021-12-24 16:13:18.317744,-122
2021-12-24 16:13:18.317753,-120
2021-12-24 16:13:18.317763,-106
2021-12-24 16:13:18.317773,-75
2021-12-24 16:13:18.317783,-25
2021-12-24 16:13:18.317792,28
2021-12-24 16:13:18.317802,77
2021-12-24 16:13:18.317812,115
2021-12-24 16:13:18.317821,141
2021-12-24 16:13:18.317831,155
2021-12-24 16:13:18.317841,160
2021-12-24 16:13:18.317851,157
2021-12-24 16:13:18.317860,155
2021-12-24 16:13:18.317876,155
2021-12-24 16:13:18.317886,153
2021-12-24 16:13:18.317896,150
2021-12-24 16:13:18.317905,153
2021-12-24 16:13:18.317915,141
2021-12-24 16:13:18.317925,131
2021-12-24 16:13:18.317935,131
2021-12-24 16:13:18.452385,129
2021-12-24 16:13:18.452405,124
2021-12-24 16:13:18.452413,124
2021-12-24 16:13:18.452419,122
2021-12-24 16:13:18.452426,117
2021-12-24 16:13:18.452432,117
2021-12-24 16:13:18.452438,120
2021-12-24 16:13:18.452445,120
2021-12-24 16:13:18.452451,115
2021-12-24 16:13:18.452457,110
2021-12-24 16:13:18.452463,106
2021-12-24 16:13:18.452470,113
2021-12-24 16:13:18.452476,115
2021-12-24 16:13:18.452482,113
2021-12-24 16:13:18.452489,108
2021-12-24 16:13:18.452495,103
2021-12-24 16:13:18.452501,103
2021-12-24 16:13:18.452508,106
2021-12-24 16:13:18.452514,113
2021-12-24 16:13:18.452520,113
2021-12-24 16:13:18.452527,110
2021-12-24 16:13:18.452533,91
2021-12-24 16:13:18.452539,61
2021-12-24 16:13:18.452545,56
2021-12-24 16:13:18.452551,77
2021-12-24 16:13:18.452558,91
2021-12-24 16:13:18.452564,94
2021-12-24 16:13:18.452571,101
2021-12-24 16:13:18.452577,110
2021-12-24 16:13:18.452583,113
2021-12-24 16:13:18.678538,113
2021-12-24 16:13:18.678568,108
2021-12-24 16:13:18.678580,103
2021-12-24 16:13:18.678589,103
2021-12-24 16:13:18.678599,115
2021-12-24 16:13:18.678608,160
2021-12-24 16:13:18.678618,131
2021-12-24 16:13:18.678627,-233
2021-12-24 16:13:18.678637,-768
2021-12-24 16:13:18.678647,-768
2021-12-24 16:13:18.678657,-73
2021-12-24 16:13:18.678666,395
2021-12-24 16:13:18.678676,202
2021-12-24 16:13:18.678686,73
2021-12-24 16:13:18.678695,195
2021-12-24 16:13:18.678705,176
2021-12-24 16:13:18.678714,115
2021-12-24 16:13:18.678724,146
2021-12-24 16:13:18.678733,153
2021-12-24 16:13:18.678742,127
2021-12-24 16:13:18.678752,124
2021-12-24 16:13:18.678761,127
2021-12-24 16:13:18.678771,113
2021-12-24 16:13:18.678780,101
2021-12-24 16:13:18.678789,96
2021-12-24 16:13:18.678799,87
2021-12-24 16:13:18.678808,73
2021-12-24 16:13:18.678818,58
2021-12-24 16:13:18.678827,42
2021-12-24 16:13:18.678837,25
2021-12-24 16:13:18.901883,16
2021-12-24 16:13:18.901904,-2
2021-12-24 16:13:18.901912,-35
2021-12-24 16:13:18.901918,-68
2021-12-24 16:13:18.901924,-87
2021-12-24 16:13:18.901930,-98
2021-12-24 16:13:18.901956,-108
2021-12-24 16:13:18.901965,-113
2021-12-24 16:13:18.901975,-113
2021-12-24 16:13:18.901985,-101
2021-12-24 16:13:18.901994,-70
2021-12-24 16:13:18.902004,-14
2021-12-24 16:13:18.902013,44
2021-12-24 16:13:18.902023,84
2021-12-24 16:13:18.902033,110
2021-12-24 16:13:18.902042,134
2021-12-24 16:13:18.902052,150
2021-12-24 16:13:18.902062,157
2021-12-24 16:13:18.902072,153
2021-12-24 16:13:18.902081,141
2021-12-24 16:13:18.902091,136
2021-12-24 16:13:18.902100,141
2021-12-24 16:13:18.902110,146
2021-12-24 16:13:18.902119,141
2021-12-24 16:13:18.902129,139
2021-12-24 16:13:18.902139,141
2021-12-24 16:13:18.902148,139
2021-12-24 16:13:18.902158,134
2021-12-24 16:13:18.902167,131
2021-12-24 16:13:18.902177,136
2021-12-24 16:13:19.083562,134
2021-12-24 16:13:19.083593,127
2021-12-24 16:13:19.083604,136
2021-12-24 16:13:19.083614,139
2021-12-24 16:13:19.083623,124
2021-12-24 16:13:19.083633,122
2021-12-24 16:13:19.083642,127
2021-12-24 16:13:19.083652,115
2021-12-24 16:13:19.083661,110
2021-12-24 16:13:19.083671,131
2021-12-24 16:13:19.083680,164
2021-12-24 16:13:19.083690,162
2021-12-24 16:13:19.083699,139
2021-12-24 16:13:19.083709,122
2021-12-24 16:13:19.083718,120
2021-12-24 16:13:19.083728,131
2021-12-24 16:13:19.083737,129
2021-12-24 16:13:19.083747,129
2021-12-24 16:13:19.083756,162
2021-12-24 16:13:19.083766,157
2021-12-24 16:13:19.083776,110
2021-12-24 16:13:19.083785,94
2021-12-24 16:13:19.083795,106
2021-12-24 16:13:19.083804,110
2021-12-24 16:13:19.083814,124
2021-12-24 16:13:19.083823,148
2021-12-24 16:13:19.083833,150
2021-12-24 16:13:19.083842,146
2021-12-24 16:13:19.083851,141
2021-12-24 16:13:19.083861,134
2021-12-24 16:13:19.308850,139
2021-12-24 16:13:19.308879,150
2021-12-24 16:13:19.308893,155
2021-12-24 16:13:19.308905,200
2021-12-24 16:13:19.308918,153
2021-12-24 16:13:19.308930,-278
2021-12-24 16:13:19.308942,-817
2021-12-24 16:13:19.308954,-704
2021-12-24 16:13:19.308967,23
2021-12-24 16:13:19.308979,398
2021-12-24 16:13:19.308991,200
2021-12-24 16:13:19.309004,127
2021-12-24 16:13:19.309016,221
2021-12-24 16:13:19.309028,186
2021-12-24 16:13:19.309040,146
2021-12-24 16:13:19.309051,181
2021-12-24 16:13:19.309063,193
2021-12-24 16:13:19.309075,176
2021-12-24 16:13:19.309087,171
2021-12-24 16:13:19.309098,164
2021-12-24 16:13:19.309110,160
2021-12-24 16:13:19.309121,162
2021-12-24 16:13:19.309131,171
2021-12-24 16:13:19.309143,160
2021-12-24 16:13:19.309155,96
2021-12-24 16:13:19.309166,47
2021-12-24 16:13:19.309178,51
2021-12-24 16:13:19.309189,68
2021-12-24 16:13:19.309200,68
2021-12-24 16:13:19.309212,44
2021-12-24 16:13:19.712125,2
2021-12-24 16:13:19.712146,-11
2021-12-24 16:13:19.712154,-21
2021-12-24 16:13:19.712160,-47
2021-12-24 16:13:19.712167,-61
2021-12-24 16:13:19.712173,-82
2021-12-24 16:13:19.712179,-108
2021-12-24 16:13:19.712185,-77
2021-12-24 16:13:19.712192,-2
2021-12-24 16:13:19.712198,49
2021-12-24 16:13:19.712204,91
2021-12-24 16:13:19.712211,127
2021-12-24 16:13:19.712217,134
2021-12-24 16:13:19.712223,160
2021-12-24 16:13:19.712229,179
2021-12-24 16:13:19.712236,164
2021-12-24 16:13:19.712242,157
2021-12-24 16:13:19.712248,150
2021-12-24 16:13:19.712255,143
2021-12-24 16:13:19.712261,169
2021-12-24 16:13:19.712267,195
2021-12-24 16:13:19.712274,167
2021-12-24 16:13:19.712280,131
2021-12-24 16:13:19.712286,146
2021-12-24 16:13:19.712292,155
2021-12-24 16:13:19.712299,136
2021-12-24 16:13:19.712305,139
2021-12-24 16:13:19.712311,155
2021-12-24 16:13:19.712317,129
2021-12-24 16:13:19.712327,110
2021-12-24 16:13:19.937977,157
2021-12-24 16:13:19.937998,167
2021-12-24 16:13:19.938006,98
2021-12-24 16:13:19.938012,117
2021-12-24 16:13:19.938018,190
2021-12-24 16:13:19.938025,160
2021-12-24 16:13:19.938031,101
2021-12-24 16:13:19.938038,115
2021-12-24 16:13:19.938044,160
2021-12-24 16:13:19.938050,160
2021-12-24 16:13:19.938057,131
2021-12-24 16:13:19.938063,124
2021-12-24 16:13:19.938070,146
2021-12-24 16:13:19.938076,167
2021-12-24 16:13:19.938082,153
2021-12-24 16:13:19.938089,117
2021-12-24 16:13:19.938095,115
2021-12-24 16:13:19.938102,120
2021-12-24 16:13:19.938108,91
2021-12-24 16:13:19.938114,89
2021-12-24 16:13:19.938121,113
2021-12-24 16:13:19.938127,103
2021-12-24 16:13:19.938133,89
2021-12-24 16:13:19.938140,117
2021-12-24 16:13:19.938146,148
2021-12-24 16:13:19.938152,148
2021-12-24 16:13:19.938159,141
2021-12-24 16:13:19.938165,131
2021-12-24 16:13:19.938171,120
2021-12-24 16:13:19.938178,136
2021-12-24 16:13:20.028470,188
2021-12-24 16:13:20.028500,219
2021-12-24 16:13:20.028511,49
2021-12-24 16:13:20.028521,-431
2021-12-24 16:13:20.028531,-819
2021-12-24 16:13:20.028540,-506
2021-12-24 16:13:20.028550,214
2021-12-24 16:13:20.028559,388
2021-12-24 16:13:20.028569,150
2021-12-24 16:13:20.028578,181
2021-12-24 16:13:20.028588,256
2021-12-24 16:13:20.028597,171
2021-12-24 16:13:20.028606,162
2021-12-24 16:13:20.028616,209
2021-12-24 16:13:20.028625,193
2021-12-24 16:13:20.028635,171
2021-12-24 16:13:20.028644,183
2021-12-24 16:13:20.028654,179
2021-12-24 16:13:20.028663,155
2021-12-24 16:13:20.028672,148
2021-12-24 16:13:20.028682,136
2021-12-24 16:13:20.028691,117
2021-12-24 16:13:20.028701,110
2021-12-24 16:13:20.028710,94
2021-12-24 16:13:20.028719,80
2021-12-24 16:13:20.028729,68
2021-12-24 16:13:20.028738,42
2021-12-24 16:13:20.028748,18
2021-12-24 16:13:20.028757,9
2021-12-24 16:13:20.028766,0
2021-12-24 16:13:20.253196,-9
2021-12-24 16:13:20.253225,-40
2021-12-24 16:13:20.253237,-87
2021-12-24 16:13:20.253247,-77
2021-12-24 16:13:20.253257,-18
2021-12-24 16:13:20.253266,-4
2021-12-24 16:13:20.253276,4
2021-12-24 16:13:20.253286,89
2021-12-24 16:13:20.253295,143
2021-12-24 16:13:20.253305,124
2021-12-24 16:13:20.253315,146
2021-12-24 16:13:20.253324,204
2021-12-24 16:13:20.253334,209
2021-12-24 16:13:20.253343,204
2021-12-24 16:13:20.253353,216
2021-12-24 16:13:20.253363,183
2021-12-24 16:13:20.253372,176
2021-12-24 16:13:20.253382,214
2021-12-24 16:13:20.253391,197
2021-12-24 16:13:20.253401,167
2021-12-24 16:13:20.253410,176
2021-12-24 16:13:20.253420,176
2021-12-24 16:13:20.253430,157
2021-12-24 16:13:20.253439,157
2021-12-24 16:13:20.253449,169
2021-12-24 16:13:20.253458,146
2021-12-24 16:13:20.253468,115
2021-12-24 16:13:20.253478,122
2021-12-24 16:13:20.253487,143
2021-12-24 16:13:20.253497,146
2021-12-24 16:13:20.477859,148
2021-12-24 16:13:20.477880,150
2021-12-24 16:13:20.477888,139
2021-12-24 16:13:20.477894,124
2021-12-24 16:13:20.477901,127
2021-12-24 16:13:20.477907,134
2021-12-24 16:13:20.477914,136
2021-12-24 16:13:20.477920,127
2021-12-24 16:13:20.477926,108
2021-12-24 16:13:20.477932,110
2021-12-24 16:13:20.477939,150
2021-12-24 16:13:20.477945,164
2021-12-24 16:13:20.477951,127
2021-12-24 16:13:20.477957,96
2021-12-24 16:13:20.477964,106
2021-12-24 16:13:20.477970,108
2021-12-24 16:13:20.477976,82
2021-12-24 16:13:20.477983,56
2021-12-24 16:13:20.477989,80
2021-12-24 16:13:20.477995,129
2021-12-24 16:13:20.478001,143
2021-12-24 16:13:20.478007,122
2021-12-24 16:13:20.478014,115
2021-12-24 16:13:20.478020,120
2021-12-24 16:13:20.478026,117
2021-12-24 16:13:20.478032,113
2021-12-24 16:13:20.478039,98
2021-12-24 16:13:20.478045,110
2021-12-24 16:13:20.478051,160
2021-12-24 16:13:20.478057,32
2021-12-24 16:13:20.703673,-424
2021-12-24 16:13:20.703702,-810
2021-12-24 16:13:20.703713,-515
2021-12-24 16:13:20.703723,179
2021-12-24 16:13:20.703733,355
2021-12-24 16:13:20.703742,113
2021-12-24 16:13:20.703752,94
2021-12-24 16:13:20.703761,157
2021-12-24 16:13:20.703770,127
2021-12-24 16:13:20.703780,148
2021-12-24 16:13:20.703789,150
2021-12-24 16:13:20.703799,98
2021-12-24 16:13:20.703808,82
2021-12-24 16:13:20.703817,94
2021-12-24 16:13:20.703827,94
2021-12-24 16:13:20.703836,91
2021-12-24 16:13:20.703846,80
2021-12-24 16:13:20.703855,65
2021-12-24 16:13:20.703864,51
2021-12-24 16:13:20.703874,11
2021-12-24 16:13:20.703883,-9
2021-12-24 16:13:20.703893,4
2021-12-24 16:13:20.703902,-16
2021-12-24 16:13:20.703911,-47
2021-12-24 16:13:20.703921,-51
2021-12-24 16:13:20.703930,-73
2021-12-24 16:13:20.703940,-124
2021-12-24 16:13:20.703949,-146
2021-12-24 16:13:20.703958,-113
2021-12-24 16:13:20.703968,-110
2021-12-24 16:13:20.972439,-139
2021-12-24 16:13:20.972460,-113
2021-12-24 16:13:20.972468,-87
2021-12-24 16:13:20.972474,-91
2021-12-24 16:13:20.972480,-54
2021-12-24 16:13:20.972487,9
2021-12-24 16:13:20.972493,30
2021-12-24 16:13:20.972499,61
2021-12-24 16:13:20.972506,108
2021-12-24 16:13:20.972512,110
2021-12-24 16:13:20.972518,113
2021-12-24 16:13:20.972524,124
2021-12-24 16:13:20.972531,101
2021-12-24 16:13:20.972537,87
2021-12-24 16:13:20.972543,96
2021-12-24 16:13:20.972549,96
2021-12-24 16:13:20.972556,91
2021-12-24 16:13:20.972562,84
2021-12-24 16:13:20.972569,80
2021-12-24 16:13:20.972575,84
2021-12-24 16:13:20.972582,73
2021-12-24 16:13:20.972589,51
2021-12-24 16:13:20.972595,80
2021-12-24 16:13:20.972602,106
2021-12-24 16:13:20.972609,87
2021-12-24 16:13:20.972615,65
2021-12-24 16:13:20.972622,51
2021-12-24 16:13:20.972628,58
2021-12-24 16:13:20.972635,91
2021-12-24 16:13:20.972642,98
2021-12-24 16:13:21.243631,75
2021-12-24 16:13:21.243652,65
2021-12-24 16:13:21.243660,77
2021-12-24 16:13:21.243667,98
2021-12-24 16:13:21.243673,94
2021-12-24 16:13:21.243680,80
2021-12-24 16:13:21.243686,82
2021-12-24 16:13:21.243692,94
2021-12-24 16:13:21.243699,94
2021-12-24 16:13:21.243705,61
2021-12-24 16:13:21.243712,21
2021-12-24 16:13:21.243718,40
2021-12-24 16:13:21.243724,89
2021-12-24 16:13:21.243731,94
2021-12-24 16:13:21.243737,70
2021-12-24 16:13:21.243743,77
2021-12-24 16:13:21.243749,96
2021-12-24 16:13:21.243756,87
2021-12-24 16:13:21.243762,75
2021-12-24 16:13:21.243769,82
2021-12-24 16:13:21.243775,80
2021-12-24 16:13:21.243781,73
2021-12-24 16:13:21.243788,98
2021-12-24 16:13:21.243794,32
2021-12-24 16:13:21.243800,-327
2021-12-24 16:13:21.243807,-739
2021-12-24 16:13:21.243813,-546
2021-12-24 16:13:21.243820,164
2021-12-24 16:13:21.243829,393
2021-12-24 16:13:21.243835,91
2021-12-24 16:13:21.377919,61
2021-12-24 16:13:21.377941,176
2021-12-24 16:13:21.377948,96
2021-12-24 16:13:21.377955,61
2021-12-24 16:13:21.377961,110
2021-12-24 16:13:21.377967,89
2021-12-24 16:13:21.377973,58
2021-12-24 16:13:21.377979,84
2021-12-24 16:13:21.377985,94
2021-12-24 16:13:21.377992,61
2021-12-24 16:13:21.377998,35
2021-12-24 16:13:21.378004,30
2021-12-24 16:13:21.378010,32
2021-12-24 16:13:21.378016,18
2021-12-24 16:13:21.378022,7
2021-12-24 16:13:21.378029,0
2021-12-24 16:13:21.378035,-23
2021-12-24 16:13:21.378041,-44
2021-12-24 16:13:21.378047,-63
2021-12-24 16:13:21.378053,-94
2021-12-24 16:13:21.378060,-103
2021-12-24 16:13:21.378066,-98
2021-12-24 16:13:21.378072,-110
2021-12-24 16:13:21.378078,-115
2021-12-24 16:13:21.378084,-101
2021-12-24 16:13:21.378090,-103
2021-12-24 16:13:21.378096,-103
2021-12-24 16:13:21.378102,-58
2021-12-24 16:13:21.378109,18
2021-12-24 16:13:21.378115,70
2021-12-24 16:13:21.603595,106
2021-12-24 16:13:21.603625,153
2021-12-24 16:13:21.603636,186
2021-12-24 16:13:21.603647,195
2021-12-24 16:13:21.603656,181
2021-12-24 16:13:21.603666,155
2021-12-24 16:13:21.603676,181
2021-12-24 16:13:21.603685,214
2021-12-24 16:13:21.603695,176
2021-12-24 16:13:21.603705,141
2021-12-24 16:13:21.603715,153
2021-12-24 16:13:21.603724,143
2021-12-24 16:13:21.603734,117
2021-12-24 16:13:21.603744,129
2021-12-24 16:13:21.603754,167
2021-12-24 16:13:21.603763,167
2021-12-24 16:13:21.603773,129
2021-12-24 16:13:21.603783,117
2021-12-24 16:13:21.603793,120
2021-12-24 16:13:21.603802,91
2021-12-24 16:13:21.603812,65
2021-12-24 16:13:21.603822,75
2021-12-24 16:13:21.603831,106
2021-12-24 16:13:21.603841,120
2021-12-24 16:13:21.603851,113
2021-12-24 16:13:21.603861,122
2021-12-24 16:13:21.603871,131
2021-12-24 16:13:21.603880,124
2021-12-24 16:13:21.603890,110
2021-12-24 16:13:21.603900,89
2021-12-24 16:13:21.918245,87
2021-12-24 16:13:21.918275,108
2021-12-24 16:13:21.918286,115
2021-12-24 16:13:21.918296,96
2021-12-24 16:13:21.918306,75
2021-12-24 16:13:21.918316,75
2021-12-24 16:13:21.918325,101
2021-12-24 16:13:21.918335,110
2021-12-24 16:13:21.918345,103
2021-12-24 16:13:21.918354,124
2021-12-24 16:13:21.918364,141
2021-12-24 16:13:21.918374,122
2021-12-24 16:13:21.918383,136
2021-12-24 16:13:21.918393,35
2021-12-24 16:13:21.918403,-431
2021-12-24 16:13:21.918413,-869
2021-12-24 16:13:21.918422,-530
2021-12-24 16:13:21.918432,270
2021-12-24 16:13:21.918442,421
2021-12-24 16:13:21.918451,106
2021-12-24 16:13:21.918461,124
2021-12-24 16:13:21.918470,204
2021-12-24 16:13:21.918480,96
2021-12-24 16:13:21.918490,106
2021-12-24 16:13:21.918499,157
2021-12-24 16:13:21.918509,94
2021-12-24 16:13:21.918519,51
2021-12-24 16:13:21.918529,68
2021-12-24 16:13:21.918538,70
2021-12-24 16:13:21.918548,77
2021-12-24 16:13:22.098325,77
2021-12-24 16:13:22.098355,61
2021-12-24 16:13:22.098367,54
2021-12-24 16:13:22.098377,40
2021-12-24 16:13:22.098386,2
2021-12-24 16:13:22.098396,-14
2021-12-24 16:13:22.098405,-21
2021-12-24 16:13:22.098415,-44
2021-12-24 16:13:22.098424,-68
2021-12-24 16:13:22.098434,-89
2021-12-24 16:13:22.098443,-120
2021-12-24 16:13:22.098453,-127
2021-12-24 16:13:22.098462,-122
2021-12-24 16:13:22.098472,-148
2021-12-24 16:13:22.098482,-174
2021-12-24 16:13:22.098491,-160
2021-12-24 16:13:22.098500,-115
2021-12-24 16:13:22.098510,-58
2021-12-24 16:13:22.098519,-7
2021-12-24 16:13:22.098529,37
2021-12-24 16:13:22.098538,73
2021-12-24 16:13:22.098548,103
2021-12-24 16:13:22.098557,124
2021-12-24 16:13:22.098567,127
2021-12-24 16:13:22.098576,146
2021-12-24 16:13:22.098585,157
2021-12-24 16:13:22.098595,141
2021-12-24 16:13:22.098604,131
2021-12-24 16:13:22.098614,127
2021-12-24 16:13:22.098624,115
2021-12-24 16:13:22.368940,131
2021-12-24 16:13:22.368971,153
2021-12-24 16:13:22.368983,129
2021-12-24 16:13:22.368993,103
2021-12-24 16:13:22.369003,106
2021-12-24 16:13:22.369013,108
2021-12-24 16:13:22.369023,96
2021-12-24 16:13:22.369033,75
2021-12-24 16:13:22.369043,80
2021-12-24 16:13:22.369053,110
2021-12-24 16:13:22.369062,101
2021-12-24 16:13:22.369072,80
2021-12-24 16:13:22.369082,94
2021-12-24 16:13:22.369092,101
2021-12-24 16:13:22.369102,80
2021-12-24 16:13:22.369111,70
2021-12-24 16:13:22.369121,91
2021-12-24 16:13:22.369131,103
2021-12-24 16:13:22.369141,84
2021-12-24 16:13:22.369150,56
2021-12-24 16:13:22.369160,40
2021-12-24 16:13:22.369170,35
2021-12-24 16:13:22.369212,42
2021-12-24 16:13:22.369222,63
2021-12-24 16:13:22.369232,87
2021-12-24 16:13:22.369241,89
2021-12-24 16:13:22.369251,101
2021-12-24 16:13:22.369261,117
2021-12-24 16:13:22.369271,110
2021-12-24 16:13:22.369281,77
2021-12-24 16:13:22.548062,49
2021-12-24 16:13:22.548082,65
2021-12-24 16:13:22.548089,117
2021-12-24 16:13:22.548096,108
2021-12-24 16:13:22.548102,-164
2021-12-24 16:13:22.548109,-671
2021-12-24 16:13:22.548115,-836
2021-12-24 16:13:22.548122,-219
2021-12-24 16:13:22.548128,426
2021-12-24 16:13:22.548134,280
2021-12-24 16:13:22.548141,9
2021-12-24 16:13:22.548147,124
2021-12-24 16:13:22.548153,155
2021-12-24 16:13:22.548160,61
2021-12-24 16:13:22.548166,84
2021-12-24 16:13:22.548173,115
2021-12-24 16:13:22.548179,82
2021-12-24 16:13:22.548185,91
2021-12-24 16:13:22.548192,106
2021-12-24 16:13:22.548198,77
2021-12-24 16:13:22.548204,49
2021-12-24 16:13:22.548211,16
2021-12-24 16:13:22.548217,-14
2021-12-24 16:13:22.548224,4
2021-12-24 16:13:22.548230,40
2021-12-24 16:13:22.548236,23
2021-12-24 16:13:22.548243,-21
2021-12-24 16:13:22.548249,-51
2021-12-24 16:13:22.548255,-75
2021-12-24 16:13:22.548262,-82
2021-12-24 16:13:22.772572,-87
2021-12-24 16:13:22.772594,-94
2021-12-24 16:13:22.772602,-110
2021-12-24 16:13:22.772609,-160
2021-12-24 16:13:22.772615,-188
2021-12-24 16:13:22.772622,-157
2021-12-24 16:13:22.772628,-141
2021-12-24 16:13:22.772635,-113
2021-12-24 16:13:22.772641,-35
2021-12-24 16:13:22.772647,2
2021-12-24 16:13:22.772654,7
2021-12-24 16:13:22.772660,68
2021-12-24 16:13:22.772667,129
2021-12-24 16:13:22.772674,129
2021-12-24 16:13:22.772680,117
2021-12-24 16:13:22.772687,120
2021-12-24 16:13:22.772693,113
2021-12-24 16:13:22.772699,115
2021-12-24 16:13:22.772705,124
2021-12-24 16:13:22.772711,98
2021-12-24 16:13:22.772718,89
2021-12-24 16:13:22.772724,106
2021-12-24 16:13:22.772730,80
2021-12-24 16:13:22.772736,65
2021-12-24 16:13:22.772743,113
2021-12-24 16:13:22.772749,122
2021-12-24 16:13:22.772755,77
2021-12-24 16:13:22.772761,77
2021-12-24 16:13:22.772767,103
2021-12-24 16:13:22.772774,89
2021-12-24 16:13:23.042478,75
2021-12-24 16:13:23.042507,98
2021-12-24 16:13:23.042518,108
2021-12-24 16:13:23.042528,87
2021-12-24 16:13:23.042538,80
2021-12-24 16:13:23.042548,94
2021-12-24 16:13:23.042557,89
2021-12-24 16:13:23.042567,73
2021-12-24 16:13:23.042576,68
2021-12-24 16:13:23.042586,63
2021-12-24 16:13:23.042596,49
2021-12-24 16:13:23.042605,40
2021-12-24 16:13:23.042615,73
2021-12-24 16:13:23.042624,108
2021-12-24 16:13:23.042634,87
2021-12-24 16:13:23.042644,77
2021-12-24 16:13:23.042654,115
2021-12-24 16:13:23.042663,122
2021-12-24 16:13:23.042673,94
2021-12-24 16:13:23.042682,77
2021-12-24 16:13:23.042692,89
2021-12-24 16:13:23.042702,110
2021-12-24 16:13:23.042711,134
2021-12-24 16:13:23.042726,108
2021-12-24 16:13:23.042736,-181
2021-12-24 16:13:23.042746,-678
2021-12-24 16:13:23.042755,-744
2021-12-24 16:13:23.042765,-84
2021-12-24 16:13:23.042774,452
2021-12-24 16:13:23.042784,273
2021-12-24 16:13:23.223632,73
2021-12-24 16:13:23.223662,171
2021-12-24 16:13:23.223673,171
2021-12-24 16:13:23.223683,127
2021-12-24 16:13:23.223693,157
2021-12-24 16:13:23.223703,141
2021-12-24 16:13:23.223712,106
2021-12-24 16:13:23.223722,120
2021-12-24 16:13:23.223732,113
2021-12-24 16:13:23.223742,75
2021-12-24 16:13:23.223752,84
2021-12-24 16:13:23.223762,117
2021-12-24 16:13:23.223771,101
2021-12-24 16:13:23.223781,49
2021-12-24 16:13:23.223791,23
2021-12-24 16:13:23.223801,23
2021-12-24 16:13:23.223811,11
2021-12-24 16:13:23.223820,-7
2021-12-24 16:13:23.223830,-28
2021-12-24 16:13:23.223840,-54
2021-12-24 16:13:23.223850,-77
2021-12-24 16:13:23.223860,-106
2021-12-24 16:13:23.223869,-117
2021-12-24 16:13:23.223879,-98
2021-12-24 16:13:23.223889,-106
2021-12-24 16:13:23.223898,-129
2021-12-24 16:13:23.223908,-117
2021-12-24 16:13:23.223918,-75
2021-12-24 16:13:23.223928,-23
2021-12-24 16:13:23.223937,23
2021-12-24 16:13:23.492421,75
2021-12-24 16:13:23.492442,124
2021-12-24 16:13:23.492449,150
2021-12-24 16:13:23.492456,157
2021-12-24 16:13:23.492462,150
2021-12-24 16:13:23.492468,134
2021-12-24 16:13:23.492475,122
2021-12-24 16:13:23.492481,141
2021-12-24 16:13:23.492487,174
2021-12-24 16:13:23.492493,148
2021-12-24 16:13:23.492500,103
2021-12-24 16:13:23.492506,122
2021-12-24 16:13:23.492512,155
2021-12-24 16:13:23.492518,122
2021-12-24 16:13:23.492525,75
2021-12-24 16:13:23.492531,80
2021-12-24 16:13:23.492537,106
2021-12-24 16:13:23.492544,113
2021-12-24 16:13:23.492550,120
2021-12-24 16:13:23.492557,113
2021-12-24 16:13:23.492563,77
2021-12-24 16:13:23.492569,77
2021-12-24 16:13:23.492575,117
2021-12-24 16:13:23.492582,117
2021-12-24 16:13:23.492588,82
2021-12-24 16:13:23.492594,75
2021-12-24 16:13:23.492600,98
2021-12-24 16:13:23.492607,108
2021-12-24 16:13:23.492613,80
2021-12-24 16:13:23.492619,51
2021-12-24 16:13:23.718342,63
2021-12-24 16:13:23.718372,89
2021-12-24 16:13:23.718383,103
2021-12-24 16:13:23.718394,94
2021-12-24 16:13:23.718403,80
2021-12-24 16:13:23.718413,87
2021-12-24 16:13:23.718423,115
2021-12-24 16:13:23.718433,129
2021-12-24 16:13:23.718443,96
2021-12-24 16:13:23.718452,63
2021-12-24 16:13:23.718462,73
2021-12-24 16:13:23.718472,113
2021-12-24 16:13:23.718482,120
2021-12-24 16:13:23.718492,-84
2021-12-24 16:13:23.718502,-548
2021-12-24 16:13:23.718512,-784
2021-12-24 16:13:23.718521,-301
2021-12-24 16:13:23.718531,343
2021-12-24 16:13:23.718541,318
2021-12-24 16:13:23.718551,58
2021-12-24 16:13:23.718560,122
2021-12-24 16:13:23.718570,160
2021-12-24 16:13:23.718580,75
2021-12-24 16:13:23.718590,101
2021-12-24 16:13:23.718599,143
2021-12-24 16:13:23.718609,108
2021-12-24 16:13:23.718619,96
2021-12-24 16:13:23.718629,98
2021-12-24 16:13:23.718639,80
2021-12-24 16:13:23.718649,73
2021-12-24 16:13:23.943702,58
2021-12-24 16:13:23.943732,37
2021-12-24 16:13:23.943743,25
2021-12-24 16:13:23.943754,7
2021-12-24 16:13:23.943763,-9
2021-12-24 16:13:23.943773,18
2021-12-24 16:13:23.943783,25
2021-12-24 16:13:23.943793,-44
2021-12-24 16:13:23.943802,-115
2021-12-24 16:13:23.943812,-136
2021-12-24 16:13:23.943822,-143
2021-12-24 16:13:23.943832,-134
2021-12-24 16:13:23.943841,-106
2021-12-24 16:13:23.943851,-115
2021-12-24 16:13:23.943860,-160
2021-12-24 16:13:23.943870,-171
2021-12-24 16:13:23.943879,-115
2021-12-24 16:13:23.943889,-28
2021-12-24 16:13:23.943898,35
2021-12-24 16:13:23.943908,75
2021-12-24 16:13:23.943918,106
2021-12-24 16:13:23.943928,108
2021-12-24 16:13:23.943938,110
2021-12-24 16:13:23.943947,146
2021-12-24 16:13:23.943957,181
2021-12-24 16:13:23.943966,179
2021-12-24 16:13:23.943976,153
2021-12-24 16:13:23.943986,164
2021-12-24 16:13:23.943995,207
2021-12-24 16:13:23.944005,183
2021-12-24 16:13:24.167439,146
2021-12-24 16:13:24.167458,136
2021-12-24 16:13:24.167466,113
2021-12-24 16:13:24.167472,117
2021-12-24 16:13:24.167478,141
2021-12-24 16:13:24.167485,131
2021-12-24 16:13:24.167491,150
2021-12-24 16:13:24.167497,179
2021-12-24 16:13:24.167503,136
2021-12-24 16:13:24.167509,68
2021-12-24 16:13:24.167516,82
2021-12-24 16:13:24.167522,146
2021-12-24 16:13:24.167528,143
2021-12-24 16:13:24.167534,108
2021-12-24 16:13:24.167540,129
2021-12-24 16:13:24.167547,124
2021-12-24 16:13:24.167553,82
2021-12-24 16:13:24.167559,70
2021-12-24 16:13:24.167565,68
2021-12-24 16:13:24.167571,61
2021-12-24 16:13:24.167577,63
2021-12-24 16:13:24.167584,91
2021-12-24 16:13:24.167590,124
2021-12-24 16:13:24.167596,124
2021-12-24 16:13:24.167602,103
2021-12-24 16:13:24.167608,98
2021-12-24 16:13:24.167614,122
2021-12-24 16:13:24.167621,120
2021-12-24 16:13:24.167627,96
2021-12-24 16:13:24.167633,96
2021-12-24 16:13:24.393228,94
2021-12-24 16:13:24.393248,127
2021-12-24 16:13:24.393255,124
2021-12-24 16:13:24.393262,-200
2021-12-24 16:13:24.393268,-732
2021-12-24 16:13:24.393275,-791
2021-12-24 16:13:24.393281,-98
2021-12-24 16:13:24.393287,468
2021-12-24 16:13:24.393294,254
2021-12-24 16:13:24.393300,35
2021-12-24 16:13:24.393306,183
2021-12-24 16:13:24.393313,164
2021-12-24 16:13:24.393319,47
2021-12-24 16:13:24.393325,106
2021-12-24 16:13:24.393331,153
2021-12-24 16:13:24.393338,106
2021-12-24 16:13:24.393344,77
2021-12-24 16:13:24.393350,65
2021-12-24 16:13:24.393356,63
2021-12-24 16:13:24.393363,91
2021-12-24 16:13:24.393369,96
2021-12-24 16:13:24.393375,61
2021-12-24 16:13:24.393381,42
2021-12-24 16:13:24.393387,54
2021-12-24 16:13:24.393394,28
2021-12-24 16:13:24.393400,-30
2021-12-24 16:13:24.393406,7
2021-12-24 16:13:24.393412,54
2021-12-24 16:13:24.393419,-68
2021-12-24 16:13:24.393425,-160
2021-12-24 16:13:24.663270,-103
2021-12-24 16:13:24.663300,-68
2021-12-24 16:13:24.663312,-103
2021-12-24 16:13:24.663322,-134
2021-12-24 16:13:24.663331,-124
2021-12-24 16:13:24.663341,-73
2021-12-24 16:13:24.663350,-9
2021-12-24 16:13:24.663359,4
2021-12-24 16:13:24.663369,2
2021-12-24 16:13:24.663378,73
2021-12-24 16:13:24.663388,160
2021-12-24 16:13:24.663397,188
2021-12-24 16:13:24.663406,169
2021-12-24 16:13:24.663416,141
2021-12-24 16:13:24.663425,157
2021-12-24 16:13:24.663434,197
2021-12-24 16:13:24.663444,207
2021-12-24 16:13:24.663453,181
2021-12-24 16:13:24.663462,143
2021-12-24 16:13:24.663472,136
2021-12-24 16:13:24.663481,169
2021-12-24 16:13:24.663490,179
2021-12-24 16:13:24.663500,153
2021-12-24 16:13:24.663509,129
2021-12-24 16:13:24.663518,129
2021-12-24 16:13:24.663528,146
2021-12-24 16:13:24.663537,155
2021-12-24 16:13:24.663547,134
2021-12-24 16:13:24.663556,113
2021-12-24 16:13:24.663565,120
2021-12-24 16:13:24.888645,120
2021-12-24 16:13:24.888675,117
2021-12-24 16:13:24.888686,146
2021-12-24 16:13:24.888696,136
2021-12-24 16:13:24.888706,98
2021-12-24 16:13:24.888716,82
2021-12-24 16:13:24.888726,80
2021-12-24 16:13:24.888736,96
2021-12-24 16:13:24.888745,94
2021-12-24 16:13:24.888755,96
2021-12-24 16:13:24.888765,136
2021-12-24 16:13:24.888775,122
2021-12-24 16:13:24.888784,106
2021-12-24 16:13:24.888794,143
2021-12-24 16:13:24.888804,122
2021-12-24 16:13:24.888814,101
2021-12-24 16:13:24.888823,148
2021-12-24 16:13:24.888833,127
2021-12-24 16:13:24.888843,84
2021-12-24 16:13:24.888852,117
2021-12-24 16:13:24.888862,-30
2021-12-24 16:13:24.888873,-539
2021-12-24 16:13:24.888882,-859
2021-12-24 16:13:24.888892,-322
2021-12-24 16:13:24.888902,442
2021-12-24 16:13:24.888912,400
2021-12-24 16:13:24.888922,80
2021-12-24 16:13:24.888932,169
2021-12-24 16:13:24.888942,237
2021-12-24 16:13:24.888952,134
2021-12-24 16:13:25.112500,124
2021-12-24 16:13:25.112529,167
2021-12-24 16:13:25.112541,148
2021-12-24 16:13:25.112551,136
2021-12-24 16:13:25.112561,167
2021-12-24 16:13:25.112570,162
2021-12-24 16:13:25.112580,87
2021-12-24 16:13:25.112589,37
2021-12-24 16:13:25.112599,65
2021-12-24 16:13:25.112608,94
2021-12-24 16:13:25.112618,65
2021-12-24 16:13:25.112628,30
2021-12-24 16:13:25.112637,25
2021-12-24 16:13:25.112647,14
2021-12-24 16:13:25.112656,-18
2021-12-24 16:13:25.112666,-56
2021-12-24 16:13:25.112675,-94
2021-12-24 16:13:25.112690,-108
2021-12-24 16:13:25.112700,-117
2021-12-24 16:13:25.112709,-136
2021-12-24 16:13:25.112719,-127
2021-12-24 16:13:25.112729,-120
2021-12-24 16:13:25.112738,-139
2021-12-24 16:13:25.112748,-106
2021-12-24 16:13:25.112758,-18
2021-12-24 16:13:25.112767,21
2021-12-24 16:13:25.112777,47
2021-12-24 16:13:25.112787,139
2021-12-24 16:13:25.112796,190
2021-12-24 16:13:25.112806,157
2021-12-24 16:13:25.293368,155
2021-12-24 16:13:25.293398,181
2021-12-24 16:13:25.293410,169
2021-12-24 16:13:25.293420,129
2021-12-24 16:13:25.293429,108
2021-12-24 16:13:25.293439,127
2021-12-24 16:13:25.293449,179
2021-12-24 16:13:25.293458,209
2021-12-24 16:13:25.293468,162
2021-12-24 16:13:25.293478,113
2021-12-24 16:13:25.293488,113
2021-12-24 16:13:25.293497,129
2021-12-24 16:13:25.293507,122
2021-12-24 16:13:25.293517,91
2021-12-24 16:13:25.293526,73
2021-12-24 16:13:25.293536,80
2021-12-24 16:13:25.293545,106
2021-12-24 16:13:25.293555,129
2021-12-24 16:13:25.293565,122
2021-12-24 16:13:25.293574,103
2021-12-24 16:13:25.293584,98
2021-12-24 16:13:25.293593,70
2021-12-24 16:13:25.293603,37
2021-12-24 16:13:25.293613,47
2021-12-24 16:13:25.293622,56
2021-12-24 16:13:25.293632,77
2021-12-24 16:13:25.293641,129
2021-12-24 16:13:25.293651,110
2021-12-24 16:13:25.293661,70
2021-12-24 16:13:25.293670,94
2021-12-24 16:13:25.563114,117
2021-12-24 16:13:25.563135,91
2021-12-24 16:13:25.563142,58
2021-12-24 16:13:25.563149,65
2021-12-24 16:13:25.563155,117
2021-12-24 16:13:25.563161,113
2021-12-24 16:13:25.563167,-202
2021-12-24 16:13:25.563174,-772
2021-12-24 16:13:25.563180,-911
2021-12-24 16:13:25.563186,-223
2021-12-24 16:13:25.563192,414
2021-12-24 16:13:25.563198,261
2021-12-24 16:13:25.563205,40
2021-12-24 16:13:25.563211,171
2021-12-24 16:13:25.563217,181
2021-12-24 16:13:25.563223,89
2021-12-24 16:13:25.563229,108
2021-12-24 16:13:25.563235,108
2021-12-24 16:13:25.563241,84
2021-12-24 16:13:25.563248,146
2021-12-24 16:13:25.563254,162
2021-12-24 16:13:25.563260,91
2021-12-24 16:13:25.563266,77
2021-12-24 16:13:25.563272,84
2021-12-24 16:13:25.563278,42
2021-12-24 16:13:25.563284,32
2021-12-24 16:13:25.563290,44
2021-12-24 16:13:25.563296,0
2021-12-24 16:13:25.563302,-18
2021-12-24 16:13:25.563308,30
2021-12-24 16:13:25.788732,7
2021-12-24 16:13:25.788762,-84
2021-12-24 16:13:25.788774,-120
2021-12-24 16:13:25.788784,-122
2021-12-24 16:13:25.788793,-108
2021-12-24 16:13:25.788803,-91
2021-12-24 16:13:25.788812,-108
2021-12-24 16:13:25.788822,-98
2021-12-24 16:13:25.788832,-63
2021-12-24 16:13:25.788841,-58
2021-12-24 16:13:25.788851,-42
2021-12-24 16:13:25.788861,51
2021-12-24 16:13:25.788870,157
2021-12-24 16:13:25.788880,179
2021-12-24 16:13:25.788889,106
2021-12-24 16:13:25.788899,42
2021-12-24 16:13:25.788908,113
2021-12-24 16:13:25.788918,219
2021-12-24 16:13:25.788928,223
2021-12-24 16:13:25.788937,167
2021-12-24 16:13:25.788947,148
2021-12-24 16:13:25.788956,186
2021-12-24 16:13:25.788966,190
2021-12-24 16:13:25.788975,143
2021-12-24 16:13:25.788985,150
2021-12-24 16:13:25.788995,179
2021-12-24 16:13:25.789004,146
2021-12-24 16:13:25.789014,127
2021-12-24 16:13:25.789024,179
2021-12-24 16:13:25.789033,193
2021-12-24 16:13:26.013329,148
2021-12-24 16:13:26.013359,141
2021-12-24 16:13:26.013371,171
2021-12-24 16:13:26.013381,167
2021-12-24 16:13:26.013391,157
2021-12-24 16:13:26.013401,174
2021-12-24 16:13:26.013410,181
2021-12-24 16:13:26.013420,157
2021-12-24 16:13:26.013429,124
2021-12-24 16:13:26.013438,108
2021-12-24 16:13:26.013448,117
2021-12-24 16:13:26.013457,164
2021-12-24 16:13:26.013467,174
2021-12-24 16:13:26.013476,136
2021-12-24 16:13:26.013486,148
2021-12-24 16:13:26.013495,183
2021-12-24 16:13:26.013504,167
2021-12-24 16:13:26.013514,141
2021-12-24 16:13:26.013523,131
2021-12-24 16:13:26.013533,124
2021-12-24 16:13:26.013542,174
2021-12-24 16:13:26.013552,77
2021-12-24 16:13:26.013561,-447
2021-12-24 16:13:26.013571,-949
2021-12-24 16:13:26.013580,-586
2021-12-24 16:13:26.013590,332
2021-12-24 16:13:26.013599,565
2021-12-24 16:13:26.013609,188
2021-12-24 16:13:26.013618,146
2021-12-24 16:13:26.013628,254
2021-12-24 16:13:26.328962,148
2021-12-24 16:13:26.328992,113
2021-12-24 16:13:26.329003,186
2021-12-24 16:13:26.329013,174
2021-12-24 16:13:26.329023,136
2021-12-24 16:13:26.329032,139
2021-12-24 16:13:26.329042,136
2021-12-24 16:13:26.329051,108
2021-12-24 16:13:26.329060,91
2021-12-24 16:13:26.329070,91
2021-12-24 16:13:26.329079,80
2021-12-24 16:13:26.329089,58
2021-12-24 16:13:26.329098,32
2021-12-24 16:13:26.329107,11
2021-12-24 16:13:26.329117,-4
2021-12-24 16:13:26.329126,-35
2021-12-24 16:13:26.329136,-75
2021-12-24 16:13:26.329145,-101
2021-12-24 16:13:26.329154,-115
2021-12-24 16:13:26.329164,-134
2021-12-24 16:13:26.329174,-141
2021-12-24 16:13:26.329183,-143
2021-12-24 16:13:26.329192,-148
2021-12-24 16:13:26.329202,-134
2021-12-24 16:13:26.329211,-91
2021-12-24 16:13:26.329220,-42
2021-12-24 16:13:26.329230,16
2021-12-24 16:13:26.329239,94
2021-12-24 16:13:26.329249,134
2021-12-24 16:13:26.329258,129
2021-12-24 16:13:26.463104,153
2021-12-24 16:13:26.463121,174
2021-12-24 16:13:26.463127,162
2021-12-24 16:13:26.463132,183
2021-12-24 16:13:26.463137,216
2021-12-24 16:13:26.463143,186
2021-12-24 16:13:26.463147,136
2021-12-24 16:13:26.463152,146
2021-12-24 16:13:26.463158,153
2021-12-24 16:13:26.463162,127
2021-12-24 16:13:26.463167,124
2021-12-24 16:13:26.463172,148
2021-12-24 16:13:26.463177,153
2021-12-24 16:13:26.463183,139
2021-12-24 16:13:26.463188,150
2021-12-24 16:13:26.463193,139
2021-12-24 16:13:26.463198,73
2021-12-24 16:13:26.463203,51
2021-12-24 16:13:26.463208,98
2021-12-24 16:13:26.463213,89
2021-12-24 16:13:26.463218,25
2021-12-24 16:13:26.463223,42
2021-12-24 16:13:26.463228,101
2021-12-24 16:13:26.463233,108
2021-12-24 16:13:26.463238,96
2021-12-24 16:13:26.463243,96
2021-12-24 16:13:26.463248,108
2021-12-24 16:13:26.463253,122
2021-12-24 16:13:26.463258,80
2021-12-24 16:13:26.463264,37
2021-12-24 16:13:26.733342,70
2021-12-24 16:13:26.733371,108
2021-12-24 16:13:26.733383,96
2021-12-24 16:13:26.733393,108
2021-12-24 16:13:26.733403,117
2021-12-24 16:13:26.733413,-171
2021-12-24 16:13:26.733423,-723
2021-12-24 16:13:26.733432,-796
2021-12-24 16:13:26.733442,-65
2021-12-24 16:13:26.733452,478
2021-12-24 16:13:26.733462,230
2021-12-24 16:13:26.733472,61
2021-12-24 16:13:26.733481,223
2021-12-24 16:13:26.733491,164
2021-12-24 16:13:26.733500,58
2021-12-24 16:13:26.733510,120
2021-12-24 16:13:26.733520,136
2021-12-24 16:13:26.733529,96
2021-12-24 16:13:26.733539,94
2021-12-24 16:13:26.733549,101
2021-12-24 16:13:26.733558,91
2021-12-24 16:13:26.733568,70
2021-12-24 16:13:26.733577,42
2021-12-24 16:13:26.733587,35
2021-12-24 16:13:26.733596,30
2021-12-24 16:13:26.733606,23
2021-12-24 16:13:26.733616,30
2021-12-24 16:13:26.733625,-4
2021-12-24 16:13:26.733635,-54
2021-12-24 16:13:26.733644,-30
2021-12-24 16:13:26.913779,-30
2021-12-24 16:13:26.913810,-89
2021-12-24 16:13:26.913822,-124
2021-12-24 16:13:26.913832,-139
2021-12-24 16:13:26.913841,-136
2021-12-24 16:13:26.913851,-122
2021-12-24 16:13:26.913860,-134
2021-12-24 16:13:26.913870,-120
2021-12-24 16:13:26.913879,-35
2021-12-24 16:13:26.913889,32
2021-12-24 16:13:26.913899,44
2021-12-24 16:13:26.913909,80
2021-12-24 16:13:26.913918,139
2021-12-24 16:13:26.913928,127
2021-12-24 16:13:26.913938,124
2021-12-24 16:13:26.913947,207
2021-12-24 16:13:26.913957,230
2021-12-24 16:13:26.913966,195
2021-12-24 16:13:26.913976,197
2021-12-24 16:13:26.913985,188
2021-12-24 16:13:26.913995,160
2021-12-24 16:13:26.914005,143
2021-12-24 16:13:26.914014,122
2021-12-24 16:13:26.914024,124
2021-12-24 16:13:26.914033,157
2021-12-24 16:13:26.914043,167
2021-12-24 16:13:26.914053,146
2021-12-24 16:13:26.914062,143
2021-12-24 16:13:26.914072,169
2021-12-24 16:13:26.914081,162
2021-12-24 16:13:27.183010,127
2021-12-24 16:13:27.183039,134
2021-12-24 16:13:27.183050,148
2021-12-24 16:13:27.183060,115
2021-12-24 16:13:27.183070,103
2021-12-24 16:13:27.183079,115
2021-12-24 16:13:27.183089,94
2021-12-24 16:13:27.183098,89
2021-12-24 16:13:27.183107,141
2021-12-24 16:13:27.183117,155
2021-12-24 16:13:27.183126,120
2021-12-24 16:13:27.183135,136
2021-12-24 16:13:27.183145,131
2021-12-24 16:13:27.183154,75
2021-12-24 16:13:27.183164,80
2021-12-24 16:13:27.183173,110
2021-12-24 16:13:27.183182,110
2021-12-24 16:13:27.183192,143
2021-12-24 16:13:27.183201,94
2021-12-24 16:13:27.183210,-325
2021-12-24 16:13:27.183220,-869
2021-12-24 16:13:27.183229,-746
2021-12-24 16:13:27.183239,68
2021-12-24 16:13:27.183248,464
2021-12-24 16:13:27.183257,164
2021-12-24 16:13:27.183267,58
2021-12-24 16:13:27.183276,200
2021-12-24 16:13:27.183286,160
2021-12-24 16:13:27.183295,98
2021-12-24 16:13:27.183304,115
2021-12-24 16:13:27.408752,106
2021-12-24 16:13:27.408781,103
2021-12-24 16:13:27.408793,127
2021-12-24 16:13:27.408803,106
2021-12-24 16:13:27.408813,61
2021-12-24 16:13:27.408822,77
2021-12-24 16:13:27.408832,101
2021-12-24 16:13:27.408842,63
2021-12-24 16:13:27.408851,25
2021-12-24 16:13:27.408861,30
2021-12-24 16:13:27.408871,25
2021-12-24 16:13:27.408880,-9
2021-12-24 16:13:27.408890,-30
2021-12-24 16:13:27.408900,-28
2021-12-24 16:13:27.408924,-51
2021-12-24 16:13:27.408934,-108
2021-12-24 16:13:27.408944,-143
2021-12-24 16:13:27.408953,-124
2021-12-24 16:13:27.408963,-108
2021-12-24 16:13:27.408973,-127
2021-12-24 16:13:27.408983,-134
2021-12-24 16:13:27.408992,-91
2021-12-24 16:13:27.409002,-32
2021-12-24 16:13:27.409012,23
2021-12-24 16:13:27.409022,84
2021-12-24 16:13:27.409031,127
2021-12-24 16:13:27.409041,148
2021-12-24 16:13:27.409050,162
2021-12-24 16:13:27.409060,183
2021-12-24 16:13:27.409070,190
2021-12-24 16:13:27.633225,179
2021-12-24 16:13:27.633255,162
2021-12-24 16:13:27.633267,160
2021-12-24 16:13:27.633277,164
2021-12-24 16:13:27.633287,160
2021-12-24 16:13:27.633297,160
2021-12-24 16:13:27.633306,160
2021-12-24 16:13:27.633316,160
2021-12-24 16:13:27.633326,150
2021-12-24 16:13:27.633335,141
2021-12-24 16:13:27.633345,139
2021-12-24 16:13:27.633354,143
2021-12-24 16:13:27.633364,139
2021-12-24 16:13:27.633374,134
2021-12-24 16:13:27.633383,134
2021-12-24 16:13:27.633393,131
2021-12-24 16:13:27.633403,136
2021-12-24 16:13:27.633412,148
2021-12-24 16:13:27.633422,139
2021-12-24 16:13:27.633432,110
2021-12-24 16:13:27.633441,98
2021-12-24 16:13:27.633451,108
2021-12-24 16:13:27.633460,120
2021-12-24 16:13:27.633470,129
2021-12-24 16:13:27.633480,136
2021-12-24 16:13:27.633489,136
2021-12-24 16:13:27.633499,131
2021-12-24 16:13:27.633509,124
2021-12-24 16:13:27.633518,122
2021-12-24 16:13:27.633528,122
2021-12-24 16:13:27.858269,120
2021-12-24 16:13:27.858299,134
2021-12-24 16:13:27.858310,171
2021-12-24 16:13:27.858320,51
2021-12-24 16:13:27.858330,-433
2021-12-24 16:13:27.858340,-911
2021-12-24 16:13:27.858350,-619
2021-12-24 16:13:27.858360,223
2021-12-24 16:13:27.858369,471
2021-12-24 16:13:27.858379,139
2021-12-24 16:13:27.858389,103
2021-12-24 16:13:27.858399,226
2021-12-24 16:13:27.858409,155
2021-12-24 16:13:27.858418,115
2021-12-24 16:13:27.858428,157
2021-12-24 16:13:27.858438,141
2021-12-24 16:13:27.858448,110
2021-12-24 16:13:27.858458,113
2021-12-24 16:13:27.858467,108
2021-12-24 16:13:27.858477,96
2021-12-24 16:13:27.858487,89
2021-12-24 16:13:27.858496,80
2021-12-24 16:13:27.858506,68
2021-12-24 16:13:27.858515,58
2021-12-24 16:13:27.858525,44
2021-12-24 16:13:27.858535,25
2021-12-24 16:13:27.858545,0
2021-12-24 16:13:27.858554,-23
2021-12-24 16:13:27.858564,-44
2021-12-24 16:13:27.858574,-70
2021-12-24 16:13:28.083624,-91
2021-12-24 16:13:28.083654,-101
2021-12-24 16:13:28.083666,-110
2021-12-24 16:13:28.083676,-120
2021-12-24 16:13:28.083686,-117
2021-12-24 16:13:28.083695,-101
2021-12-24 16:13:28.083705,-73
2021-12-24 16:13:28.083715,-28
2021-12-24 16:13:28.083724,30
2021-12-24 16:13:28.083734,87
2021-12-24 16:13:28.083744,134
2021-12-24 16:13:28.083753,167
2021-12-24 16:13:28.083763,183
2021-12-24 16:13:28.083772,181
2021-12-24 16:13:28.083782,176
2021-12-24 16:13:28.083792,183
2021-12-24 16:13:28.083801,186
2021-12-24 16:13:28.083811,181
2021-12-24 16:13:28.083820,176
2021-12-24 16:13:28.083830,171
2021-12-24 16:13:28.083840,164
2021-12-24 16:13:28.083849,157
2021-12-24 16:13:28.083859,153
2021-12-24 16:13:28.083868,153
2021-12-24 16:13:28.083878,155
2021-12-24 16:13:28.083887,148
2021-12-24 16:13:28.083897,143
2021-12-24 16:13:28.083907,148
2021-12-24 16:13:28.083916,153
2021-12-24 16:13:28.083926,150
2021-12-24 16:13:28.308728,148
2021-12-24 16:13:28.308756,146
2021-12-24 16:13:28.308768,146
2021-12-24 16:13:28.308778,141
2021-12-24 16:13:28.308787,134
2021-12-24 16:13:28.308839,113
2021-12-24 16:13:28.308852,91
2021-12-24 16:13:28.308862,94
2021-12-24 16:13:28.308872,113
2021-12-24 16:13:28.308881,129
2021-12-24 16:13:28.308891,131
2021-12-24 16:13:28.308901,120
2021-12-24 16:13:28.308910,120
2021-12-24 16:13:28.308920,122
2021-12-24 16:13:28.308929,110
2021-12-24 16:13:28.308941,101
2021-12-24 16:13:28.308958,103
2021-12-24 16:13:28.308976,117
2021-12-24 16:13:28.308994,148
2021-12-24 16:13:28.309006,37
2021-12-24 16:13:28.309016,-424
2021-12-24 16:13:28.309026,-892
2021-12-24 16:13:28.309035,-619
2021-12-24 16:13:28.309045,197
2021-12-24 16:13:28.309055,433
2021-12-24 16:13:28.309065,113
2021-12-24 16:13:28.309074,89
2021-12-24 16:13:28.309084,202
2021-12-24 16:13:28.309094,122
2021-12-24 16:13:28.309103,87
2021-12-24 16:13:28.577846,124
2021-12-24 16:13:28.577867,106
2021-12-24 16:13:28.577875,84
2021-12-24 16:13:28.577882,89
2021-12-24 16:13:28.577888,82
2021-12-24 16:13:28.577895,65
2021-12-24 16:13:28.577901,61
2021-12-24 16:13:28.577908,54
2021-12-24 16:13:28.577914,37
2021-12-24 16:13:28.577920,21
2021-12-24 16:13:28.577926,11
2021-12-24 16:13:28.577933,-4
2021-12-24 16:13:28.577939,-30
2021-12-24 16:13:28.577945,-47
2021-12-24 16:13:28.577952,-63
2021-12-24 16:13:28.577958,-91
2021-12-24 16:13:28.577964,-115
2021-12-24 16:13:28.577971,-127
2021-12-24 16:13:28.577977,-131
2021-12-24 16:13:28.577983,-136
2021-12-24 16:13:28.577989,-139
2021-12-24 16:13:28.577996,-124
2021-12-24 16:13:28.578002,-91
2021-12-24 16:13:28.578008,-44
2021-12-24 16:13:28.578014,9
2021-12-24 16:13:28.578021,70
2021-12-24 16:13:28.578027,117
2021-12-24 16:13:28.578033,150
2021-12-24 16:13:28.578040,171
2021-12-24 16:13:28.578046,174
2021-12-24 16:13:28.758771,167
2021-12-24 16:13:28.758800,174
2021-12-24 16:13:28.758812,179
2021-12-24 16:13:28.758822,167
2021-12-24 16:13:28.758832,162
2021-12-24 16:13:28.758842,162
2021-12-24 16:13:28.758851,155
2021-12-24 16:13:28.758861,150
2021-12-24 16:13:28.758871,153
2021-12-24 16:13:28.758881,153
2021-12-24 16:13:28.758890,148
2021-12-24 16:13:28.758900,143
2021-12-24 16:13:28.758910,139
2021-12-24 16:13:28.758920,139
2021-12-24 16:13:28.758929,136
2021-12-24 16:13:28.758939,120
2021-12-24 16:13:28.758949,115
2021-12-24 16:13:28.758958,124
2021-12-24 16:13:28.758968,124
2021-12-24 16:13:28.758978,115
2021-12-24 16:13:28.758987,113
2021-12-24 16:13:28.758997,103
2021-12-24 16:13:28.759007,80
2021-12-24 16:13:28.759016,75
2021-12-24 16:13:28.759026,91
2021-12-24 16:13:28.759036,108
2021-12-24 16:13:28.759045,117
2021-12-24 16:13:28.759055,115
2021-12-24 16:13:28.759065,113
2021-12-24 16:13:28.759074,115
2021-12-24 16:13:28.983614,110
2021-12-24 16:13:28.983644,101
2021-12-24 16:13:28.983656,96
2021-12-24 16:13:28.983666,101
2021-12-24 16:13:28.983675,127
2021-12-24 16:13:28.983685,120
2021-12-24 16:13:28.983694,-146
2021-12-24 16:13:28.983704,-669
2021-12-24 16:13:28.983714,-831
2021-12-24 16:13:28.983724,-202
2021-12-24 16:13:28.983734,428
2021-12-24 16:13:28.983743,282
2021-12-24 16:13:28.983753,37
2021-12-24 16:13:28.983762,148
2021-12-24 16:13:28.983772,164
2021-12-24 16:13:28.983782,77
2021-12-24 16:13:28.983791,98
2021-12-24 16:13:28.983801,117
2021-12-24 16:13:28.983810,89
2021-12-24 16:13:28.983820,84
2021-12-24 16:13:28.983830,89
2021-12-24 16:13:28.983839,75
2021-12-24 16:13:28.983849,63
2021-12-24 16:13:28.983859,61
2021-12-24 16:13:28.983868,51
2021-12-24 16:13:28.983878,35
2021-12-24 16:13:28.983887,18
2021-12-24 16:13:28.983897,2
2021-12-24 16:13:28.983907,-14
2021-12-24 16:13:28.983916,-35
2021-12-24 16:13:29.296838,-58
2021-12-24 16:13:29.296869,-80
2021-12-24 16:13:29.296880,-98
2021-12-24 16:13:29.296890,-117
2021-12-24 16:13:29.296900,-131
2021-12-24 16:13:29.296909,-136
2021-12-24 16:13:29.296919,-131
2021-12-24 16:13:29.296928,-124
2021-12-24 16:13:29.296938,-115
2021-12-24 16:13:29.296947,-82
2021-12-24 16:13:29.296957,-30
2021-12-24 16:13:29.296966,21
2021-12-24 16:13:29.296976,63
2021-12-24 16:13:29.296985,110
2021-12-24 16:13:29.296995,148
2021-12-24 16:13:29.297004,150
2021-12-24 16:13:29.297014,150
2021-12-24 16:13:29.297023,164
2021-12-24 16:13:29.297033,167
2021-12-24 16:13:29.297042,160
2021-12-24 16:13:29.297052,157
2021-12-24 16:13:29.297061,155
2021-12-24 16:13:29.297071,150
2021-12-24 16:13:29.297080,148
2021-12-24 16:13:29.297090,150
2021-12-24 16:13:29.297099,148
2021-12-24 16:13:29.297109,141
2021-12-24 16:13:29.297118,139
2021-12-24 16:13:29.297128,136
2021-12-24 16:13:29.297137,136
2021-12-24 16:13:29.478277,139
2021-12-24 16:13:29.478300,139
2021-12-24 16:13:29.478306,134
2021-12-24 16:13:29.478312,124
2021-12-24 16:13:29.478317,129
2021-12-24 16:13:29.478322,141
2021-12-24 16:13:29.478327,141
2021-12-24 16:13:29.478332,113
2021-12-24 16:13:29.478337,75
2021-12-24 16:13:29.478342,68
2021-12-24 16:13:29.478347,87
2021-12-24 16:13:29.478353,94
2021-12-24 16:13:29.478358,101
2021-12-24 16:13:29.478363,113
2021-12-24 16:13:29.478368,113
2021-12-24 16:13:29.478373,101
2021-12-24 16:13:29.478378,94
2021-12-24 16:13:29.478383,98
2021-12-24 16:13:29.478388,101
2021-12-24 16:13:29.478393,96
2021-12-24 16:13:29.478398,106
2021-12-24 16:13:29.478404,124
2021-12-24 16:13:29.478409,-61
2021-12-24 16:13:29.478414,-548
2021-12-24 16:13:29.478454,-831
2021-12-24 16:13:29.478466,-325
2021-12-24 16:13:29.478472,386
2021-12-24 16:13:29.478477,346
2021-12-24 16:13:29.478482,44
2021-12-24 16:13:29.478487,122
2021-12-24 16:13:29.703732,183
2021-12-24 16:13:29.703761,96
2021-12-24 16:13:29.703772,103
2021-12-24 16:13:29.703782,146
2021-12-24 16:13:29.703792,124
2021-12-24 16:13:29.703802,101
2021-12-24 16:13:29.703811,77
2021-12-24 16:13:29.703821,44
2021-12-24 16:13:29.703830,32
2021-12-24 16:13:29.703840,37
2021-12-24 16:13:29.703849,30
2021-12-24 16:13:29.703859,18
2021-12-24 16:13:29.703868,11
2021-12-24 16:13:29.703878,-7
2021-12-24 16:13:29.703888,-25
2021-12-24 16:13:29.703897,-42
2021-12-24 16:13:29.703907,-68
2021-12-24 16:13:29.703916,-87
2021-12-24 16:13:29.703926,-98
2021-12-24 16:13:29.703936,-117
2021-12-24 16:13:29.703945,-131
2021-12-24 16:13:29.703955,-127
2021-12-24 16:13:29.703965,-122
2021-12-24 16:13:29.703974,-124
2021-12-24 16:13:29.703984,-122
2021-12-24 16:13:29.703993,-98
2021-12-24 16:13:29.704003,-42
2021-12-24 16:13:29.704012,18
2021-12-24 16:13:29.704022,70
2021-12-24 16:13:29.704031,122
2021-12-24 16:13:29.973639,150
2021-12-24 16:13:29.973660,141
2021-12-24 16:13:29.973668,139
2021-12-24 16:13:29.973674,162
2021-12-24 16:13:29.973680,164
2021-12-24 16:13:29.973686,155
2021-12-24 16:13:29.973693,153
2021-12-24 16:13:29.973699,148
2021-12-24 16:13:29.973705,136
2021-12-24 16:13:29.973711,129
2021-12-24 16:13:29.973718,122
2021-12-24 16:13:29.973724,113
2021-12-24 16:13:29.973730,122
2021-12-24 16:13:29.973736,129
2021-12-24 16:13:29.973742,103
2021-12-24 16:13:29.973749,94
2021-12-24 16:13:29.973755,103
2021-12-24 16:13:29.973761,103
2021-12-24 16:13:29.973768,106
2021-12-24 16:13:29.973783,115
2021-12-24 16:13:29.973790,113
2021-12-24 16:13:29.973796,106
2021-12-24 16:13:29.973803,98
2021-12-24 16:13:29.973809,89
2021-12-24 16:13:29.973815,77
2021-12-24 16:13:29.973821,65
2021-12-24 16:13:29.973827,80
2021-12-24 16:13:29.973834,106
2021-12-24 16:13:29.973840,115
2021-12-24 16:13:29.973846,108
2021-12-24 16:13:30.198030,98
2021-12-24 16:13:30.198060,98
2021-12-24 16:13:30.198072,101
2021-12-24 16:13:30.198082,103
2021-12-24 16:13:30.198091,98
2021-12-24 16:13:30.198101,117
2021-12-24 16:13:30.198111,115
2021-12-24 16:13:30.198121,-160
2021-12-24 16:13:30.198130,-690
2021-12-24 16:13:30.198140,-791
2021-12-24 16:13:30.198150,-75
2021-12-24 16:13:30.198160,513
2021-12-24 16:13:30.198169,263
2021-12-24 16:13:30.198179,23
2021-12-24 16:13:30.198189,167
2021-12-24 16:13:30.198199,157
2021-12-24 16:13:30.198208,68
2021-12-24 16:13:30.198218,106
2021-12-24 16:13:30.198227,110
2021-12-24 16:13:30.198237,65
2021-12-24 16:13:30.198246,65
2021-12-24 16:13:30.198256,73
2021-12-24 16:13:30.198266,63
2021-12-24 16:13:30.198275,51
2021-12-24 16:13:30.198285,42
2021-12-24 16:13:30.198294,35
2021-12-24 16:13:30.198304,16
2021-12-24 16:13:30.198313,-4
2021-12-24 16:13:30.198323,-16
2021-12-24 16:13:30.198333,-32
2021-12-24 16:13:30.422784,-54
2021-12-24 16:13:30.422814,-75
2021-12-24 16:13:30.422826,-96
2021-12-24 16:13:30.422836,-117
2021-12-24 16:13:30.422846,-131
2021-12-24 16:13:30.422856,-143
2021-12-24 16:13:30.422865,-146
2021-12-24 16:13:30.422875,-143
2021-12-24 16:13:30.422885,-131
2021-12-24 16:13:30.422895,-110
2021-12-24 16:13:30.422905,-80
2021-12-24 16:13:30.422914,-30
2021-12-24 16:13:30.422924,35
2021-12-24 16:13:30.422934,84
2021-12-24 16:13:30.422944,113
2021-12-24 16:13:30.422954,146
2021-12-24 16:13:30.422963,160
2021-12-24 16:13:30.422973,157
2021-12-24 16:13:30.422983,157
2021-12-24 16:13:30.422993,160
2021-12-24 16:13:30.423002,160
2021-12-24 16:13:30.423012,155
2021-12-24 16:13:30.423022,146
2021-12-24 16:13:30.423032,143
2021-12-24 16:13:30.423041,148
2021-12-24 16:13:30.423051,143
2021-12-24 16:13:30.423061,129
2021-12-24 16:13:30.423070,127
2021-12-24 16:13:30.423080,129
2021-12-24 16:13:30.423090,117
2021-12-24 16:13:30.602884,117
2021-12-24 16:13:30.602903,129
2021-12-24 16:13:30.602910,129
2021-12-24 16:13:30.602917,127
2021-12-24 16:13:30.602923,131
2021-12-24 16:13:30.602930,115
2021-12-24 16:13:30.602936,89
2021-12-24 16:13:30.602942,89
2021-12-24 16:13:30.602949,106
2021-12-24 16:13:30.602955,115
2021-12-24 16:13:30.602961,122
2021-12-24 16:13:30.602967,122
2021-12-24 16:13:30.602974,120
2021-12-24 16:13:30.602980,122
2021-12-24 16:13:30.602986,122
2021-12-24 16:13:30.602992,120
2021-12-24 16:13:30.602999,113
2021-12-24 16:13:30.603005,110
2021-12-24 16:13:30.603011,148
2021-12-24 16:13:30.603017,113
2021-12-24 16:13:30.603024,-259
2021-12-24 16:13:30.603030,-786
2021-12-24 16:13:30.603036,-702
2021-12-24 16:13:30.603043,115
2021-12-24 16:13:30.603049,544
2021-12-24 16:13:30.603055,197
2021-12-24 16:13:30.603062,49
2021-12-24 16:13:30.603068,212
2021-12-24 16:13:30.603074,164
2021-12-24 16:13:30.603080,82
2021-12-24 16:13:30.828619,124
2021-12-24 16:13:30.828639,127
2021-12-24 16:13:30.828647,94
2021-12-24 16:13:30.828653,98
2021-12-24 16:13:30.828659,98
2021-12-24 16:13:30.828666,82
2021-12-24 16:13:30.828672,68
2021-12-24 16:13:30.828678,54
2021-12-24 16:13:30.828684,40
2021-12-24 16:13:30.828691,32
2021-12-24 16:13:30.828697,18
2021-12-24 16:13:30.828703,-4
2021-12-24 16:13:30.828710,-21
2021-12-24 16:13:30.828716,-32
2021-12-24 16:13:30.828722,-56
2021-12-24 16:13:30.828728,-84
2021-12-24 16:13:30.828734,-101
2021-12-24 16:13:30.828741,-110
2021-12-24 16:13:30.828747,-120
2021-12-24 16:13:30.828753,-120
2021-12-24 16:13:30.828760,-117
2021-12-24 16:13:30.828766,-117
2021-12-24 16:13:30.828772,-91
2021-12-24 16:13:30.828778,-37
2021-12-24 16:13:30.828785,23
2021-12-24 16:13:30.828791,80
2021-12-24 16:13:30.828797,124
2021-12-24 16:13:30.828804,148
2021-12-24 16:13:30.828810,169
2021-12-24 16:13:30.828816,181
2021-12-24 16:13:31.098147,186
2021-12-24 16:13:31.098168,193
2021-12-24 16:13:31.098176,188
2021-12-24 16:13:31.098182,174
2021-12-24 16:13:31.098189,164
2021-12-24 16:13:31.098195,160
2021-12-24 16:13:31.098202,160
2021-12-24 16:13:31.098208,162
2021-12-24 16:13:31.098214,153
2021-12-24 16:13:31.098221,139
2021-12-24 16:13:31.098227,136
2021-12-24 16:13:31.098234,143
2021-12-24 16:13:31.098240,131
2021-12-24 16:13:31.098247,120
2021-12-24 16:13:31.098253,131
2021-12-24 16:13:31.098260,139
2021-12-24 16:13:31.098266,131
2021-12-24 16:13:31.098272,131
2021-12-24 16:13:31.098279,143
2021-12-24 16:13:31.098285,141
2021-12-24 16:13:31.098292,110
2021-12-24 16:13:31.098298,89
2021-12-24 16:13:31.098304,101
2021-12-24 16:13:31.098311,117
2021-12-24 16:13:31.098317,122
2021-12-24 16:13:31.098324,124
2021-12-24 16:13:31.098330,120
2021-12-24 16:13:31.098336,117
2021-12-24 16:13:31.098343,122
2021-12-24 16:13:31.098349,124
2021-12-24 16:13:31.367487,120
2021-12-24 16:13:31.367516,113
2021-12-24 16:13:31.367527,134
2021-12-24 16:13:31.367537,146
2021-12-24 16:13:31.367547,-98
2021-12-24 16:13:31.367557,-659
2021-12-24 16:13:31.367567,-923
2021-12-24 16:13:31.367576,-320
2021-12-24 16:13:31.367586,438
2021-12-24 16:13:31.367596,369
2021-12-24 16:13:31.367606,58
2021-12-24 16:13:31.367616,148
2021-12-24 16:13:31.367625,207
2021-12-24 16:13:31.367635,115
2021-12-24 16:13:31.367645,120
2021-12-24 16:13:31.367654,141
2021-12-24 16:13:31.367664,108
2021-12-24 16:13:31.367674,101
2021-12-24 16:13:31.367683,110
2021-12-24 16:13:31.367693,96
2021-12-24 16:13:31.367703,80
2021-12-24 16:13:31.367712,77
2021-12-24 16:13:31.367722,75
2021-12-24 16:13:31.367732,65
2021-12-24 16:13:31.367741,42
2021-12-24 16:13:31.367751,18
2021-12-24 16:13:31.367761,7
2021-12-24 16:13:31.367770,-11
2021-12-24 16:13:31.367780,-42
2021-12-24 16:13:31.367790,-75
2021-12-24 16:13:31.548054,-94
2021-12-24 16:13:31.548102,-108
2021-12-24 16:13:31.548109,-120
2021-12-24 16:13:31.548127,-124
2021-12-24 16:13:31.548134,-120
2021-12-24 16:13:31.548140,-113
2021-12-24 16:13:31.548146,-91
2021-12-24 16:13:31.548153,-54
2021-12-24 16:13:31.548171,-16
2021-12-24 16:13:31.548216,32
2021-12-24 16:13:31.548225,94
2021-12-24 16:13:31.548234,141
2021-12-24 16:13:31.548245,164
2021-12-24 16:13:31.548254,174
2021-12-24 16:13:31.548261,169
2021-12-24 16:13:31.548267,169
2021-12-24 16:13:31.548273,176
2021-12-24 16:13:31.548280,171
2021-12-24 16:13:31.548287,164
2021-12-24 16:13:31.548294,162
2021-12-24 16:13:31.548301,157
2021-12-24 16:13:31.548307,150
2021-12-24 16:13:31.548314,150
2021-12-24 16:13:31.548320,150
2021-12-24 16:13:31.548327,150
2021-12-24 16:13:31.548333,146
2021-12-24 16:13:31.548340,141
2021-12-24 16:13:31.548348,136
2021-12-24 16:13:31.548355,136
2021-12-24 16:13:31.548362,136
2021-12-24 16:13:31.818103,136
2021-12-24 16:13:31.818123,141
2021-12-24 16:13:31.818130,146
2021-12-24 16:13:31.818137,141
2021-12-24 16:13:31.818143,113
2021-12-24 16:13:31.818149,84
2021-12-24 16:13:31.818155,89
2021-12-24 16:13:31.818162,106
2021-12-24 16:13:31.818168,117
2021-12-24 16:13:31.818174,127
2021-12-24 16:13:31.818180,122
2021-12-24 16:13:31.818186,115
2021-12-24 16:13:31.818193,120
2021-12-24 16:13:31.818199,115
2021-12-24 16:13:31.818205,108
2021-12-24 16:13:31.818211,108
2021-12-24 16:13:31.818217,113
2021-12-24 16:13:31.818224,146
2021-12-24 16:13:31.818230,101
2021-12-24 16:13:31.818236,-285
2021-12-24 16:13:31.818242,-836
2021-12-24 16:13:31.818248,-791
2021-12-24 16:13:31.818255,9
2021-12-24 16:13:31.818261,494
2021-12-24 16:13:31.818267,219
2021-12-24 16:13:31.818273,63
2021-12-24 16:13:31.818279,200
2021-12-24 16:13:31.818286,167
2021-12-24 16:13:31.818292,98
2021-12-24 16:13:31.818298,141
2021-12-24 16:13:32.042956,141
2021-12-24 16:13:32.042977,106
2021-12-24 16:13:32.042984,98
2021-12-24 16:13:32.042991,89
2021-12-24 16:13:32.042997,73
2021-12-24 16:13:32.043004,70
2021-12-24 16:13:32.043010,68
2021-12-24 16:13:32.043017,54
2021-12-24 16:13:32.043023,30
2021-12-24 16:13:32.043029,9
2021-12-24 16:13:32.043036,2
2021-12-24 16:13:32.043042,-11
2021-12-24 16:13:32.043049,-37
2021-12-24 16:13:32.043055,-58
2021-12-24 16:13:32.043061,-80
2021-12-24 16:13:32.043068,-106
2021-12-24 16:13:32.043074,-120
2021-12-24 16:13:32.043080,-127
2021-12-24 16:13:32.043087,-127
2021-12-24 16:13:32.043093,-122
2021-12-24 16:13:32.043100,-117
2021-12-24 16:13:32.043106,-96
2021-12-24 16:13:32.043113,-44
2021-12-24 16:13:32.043119,14
2021-12-24 16:13:32.043125,63
2021-12-24 16:13:32.043132,110
2021-12-24 16:13:32.043138,150
2021-12-24 16:13:32.043145,167
2021-12-24 16:13:32.043151,171
2021-12-24 16:13:32.043157,179
2021-12-24 16:13:32.268613,176
2021-12-24 16:13:32.268643,174
2021-12-24 16:13:32.268654,174
2021-12-24 16:13:32.268664,162
2021-12-24 16:13:32.268673,148
2021-12-24 16:13:32.268683,146
2021-12-24 16:13:32.268693,139
2021-12-24 16:13:32.268702,134
2021-12-24 16:13:32.268712,139
2021-12-24 16:13:32.268721,141
2021-12-24 16:13:32.268731,134
2021-12-24 16:13:32.268741,127
2021-12-24 16:13:32.268750,117
2021-12-24 16:13:32.268760,115
2021-12-24 16:13:32.268769,120
2021-12-24 16:13:32.268779,122
2021-12-24 16:13:32.268788,124
2021-12-24 16:13:32.268798,131
2021-12-24 16:13:32.268808,134
2021-12-24 16:13:32.268817,124
2021-12-24 16:13:32.268827,94
2021-12-24 16:13:32.268836,75
2021-12-24 16:13:32.268846,89
2021-12-24 16:13:32.268855,108
2021-12-24 16:13:32.268865,120
2021-12-24 16:13:32.268875,131
2021-12-24 16:13:32.268884,136
2021-12-24 16:13:32.268894,134
2021-12-24 16:13:32.268903,134
2021-12-24 16:13:32.268913,131
2021-12-24 16:13:32.492944,115
2021-12-24 16:13:32.492961,101
2021-12-24 16:13:32.492968,120
2021-12-24 16:13:32.492973,157
2021-12-24 16:13:32.492978,18
2021-12-24 16:13:32.492983,-482
2021-12-24 16:13:32.492988,-930
2021-12-24 16:13:32.492993,-551
2021-12-24 16:13:32.492998,303
2021-12-24 16:13:32.493003,449
2021-12-24 16:13:32.493008,89
2021-12-24 16:13:32.493013,89
2021-12-24 16:13:32.493018,195
2021-12-24 16:13:32.493022,113
2021-12-24 16:13:32.493028,89
2021-12-24 16:13:32.493032,127
2021-12-24 16:13:32.493037,103
2021-12-24 16:13:32.493042,82
2021-12-24 16:13:32.493047,94
2021-12-24 16:13:32.493052,82
2021-12-24 16:13:32.493057,61
2021-12-24 16:13:32.493062,58
2021-12-24 16:13:32.493067,56
2021-12-24 16:13:32.493072,40
2021-12-24 16:13:32.493077,21
2021-12-24 16:13:32.493081,4
2021-12-24 16:13:32.493086,-9
2021-12-24 16:13:32.493091,-32
2021-12-24 16:13:32.493096,-51
2021-12-24 16:13:32.493101,-77
2021-12-24 16:13:32.763154,-101
2021-12-24 16:13:32.763184,-117
2021-12-24 16:13:32.763196,-134
2021-12-24 16:13:32.763206,-146
2021-12-24 16:13:32.763215,-146
2021-12-24 16:13:32.763225,-143
2021-12-24 16:13:32.763235,-129
2021-12-24 16:13:32.763245,-91
2021-12-24 16:13:32.763255,-44
2021-12-24 16:13:32.763264,4
2021-12-24 16:13:32.763274,54
2021-12-24 16:13:32.763284,106
2021-12-24 16:13:32.763294,150
2021-12-24 16:13:32.763303,164
2021-12-24 16:13:32.763313,164
2021-12-24 16:13:32.763323,167
2021-12-24 16:13:32.763333,167
2021-12-24 16:13:32.763342,164
2021-12-24 16:13:32.763352,169
2021-12-24 16:13:32.763362,171
2021-12-24 16:13:32.763372,155
2021-12-24 16:13:32.763381,141
2021-12-24 16:13:32.763391,146
2021-12-24 16:13:32.763401,150
2021-12-24 16:13:32.763410,148
2021-12-24 16:13:32.763420,143
2021-12-24 16:13:32.763430,141
2021-12-24 16:13:32.763439,139
2021-12-24 16:13:32.763449,129
2021-12-24 16:13:32.763458,131
2021-12-24 16:13:32.987519,141
2021-12-24 16:13:32.987538,143
2021-12-24 16:13:32.987546,143
2021-12-24 16:13:32.987552,127
2021-12-24 16:13:32.987558,98
2021-12-24 16:13:32.987568,98
2021-12-24 16:13:32.987574,113
2021-12-24 16:13:32.987580,117
2021-12-24 16:13:32.987586,122
2021-12-24 16:13:32.987593,129
2021-12-24 16:13:32.987599,131
2021-12-24 16:13:32.987605,134
2021-12-24 16:13:32.987611,129
2021-12-24 16:13:32.987618,122
2021-12-24 16:13:32.987624,122
2021-12-24 16:13:32.987630,122
2021-12-24 16:13:32.987636,129
2021-12-24 16:13:32.987643,141
2021-12-24 16:13:32.987649,-65
2021-12-24 16:13:32.987655,-619
2021-12-24 16:13:32.987661,-923
2021-12-24 16:13:32.987668,-310
2021-12-24 16:13:32.987674,490
2021-12-24 16:13:32.987680,395
2021-12-24 16:13:32.987687,54
2021-12-24 16:13:32.987693,164
2021-12-24 16:13:32.987699,214
2021-12-24 16:13:32.987705,96
2021-12-24 16:13:32.987711,113
2021-12-24 16:13:32.987717,148
2021-12-24 16:13:33.168639,108
2021-12-24 16:13:33.168669,94
2021-12-24 16:13:33.168681,98
2021-12-24 16:13:33.168692,80
2021-12-24 16:13:33.168702,70
2021-12-24 16:13:33.168712,70
2021-12-24 16:13:33.168722,58
2021-12-24 16:13:33.168731,47
2021-12-24 16:13:33.168741,28
2021-12-24 16:13:33.168751,0
2021-12-24 16:13:33.168761,-18
2021-12-24 16:13:33.168771,-30
2021-12-24 16:13:33.168781,-54
2021-12-24 16:13:33.168791,-87
2021-12-24 16:13:33.168800,-122
2021-12-24 16:13:33.168810,-141
2021-12-24 16:13:33.168820,-148
2021-12-24 16:13:33.168830,-155
2021-12-24 16:13:33.168839,-153
2021-12-24 16:13:33.168849,-139
2021-12-24 16:13:33.168860,-122
2021-12-24 16:13:33.168869,-82
2021-12-24 16:13:33.168879,-11
2021-12-24 16:13:33.168889,54
2021-12-24 16:13:33.168898,94
2021-12-24 16:13:33.168908,131
2021-12-24 16:13:33.168918,162
2021-12-24 16:13:33.168928,174
2021-12-24 16:13:33.168938,174
2021-12-24 16:13:33.168947,181
2021-12-24 16:13:33.437589,186
2021-12-24 16:13:33.437619,183
2021-12-24 16:13:33.437664,179
2021-12-24 16:13:33.437674,171
2021-12-24 16:13:33.437684,157
2021-12-24 16:13:33.437694,153
2021-12-24 16:13:33.437703,162
2021-12-24 16:13:33.437713,155
2021-12-24 16:13:33.437722,134
2021-12-24 16:13:33.437732,127
2021-12-24 16:13:33.437741,129
2021-12-24 16:13:33.437751,127
2021-12-24 16:13:33.437760,124
2021-12-24 16:13:33.437770,122
2021-12-24 16:13:33.437780,120
2021-12-24 16:13:33.437789,127
2021-12-24 16:13:33.437799,134
2021-12-24 16:13:33.437808,117
2021-12-24 16:13:33.437818,98
2021-12-24 16:13:33.437828,108
2021-12-24 16:13:33.437837,120
2021-12-24 16:13:33.437847,122
2021-12-24 16:13:33.437856,136
2021-12-24 16:13:33.437866,136
2021-12-24 16:13:33.437875,108
2021-12-24 16:13:33.437885,82
2021-12-24 16:13:33.437894,94
2021-12-24 16:13:33.437904,110
2021-12-24 16:13:33.437913,108
2021-12-24 16:13:33.437923,106
2021-12-24 16:13:33.618206,141
2021-12-24 16:13:33.618235,146
2021-12-24 16:13:33.618247,-162
2021-12-24 16:13:33.618257,-749
2021-12-24 16:13:33.618267,-876
2021-12-24 16:13:33.618277,-113
2021-12-24 16:13:33.618287,579
2021-12-24 16:13:33.618297,355
2021-12-24 16:13:33.618306,30
2021-12-24 16:13:33.618316,153
2021-12-24 16:13:33.618326,193
2021-12-24 16:13:33.618336,89
2021-12-24 16:13:33.618345,108
2021-12-24 16:13:33.618355,136
2021-12-24 16:13:33.618365,96
2021-12-24 16:13:33.618374,91
2021-12-24 16:13:33.618384,101
2021-12-24 16:13:33.618394,84
2021-12-24 16:13:33.618403,73
2021-12-24 16:13:33.618413,70
2021-12-24 16:13:33.618423,51
2021-12-24 16:13:33.618432,30
2021-12-24 16:13:33.618442,21
2021-12-24 16:13:33.618452,2
2021-12-24 16:13:33.618462,-21
2021-12-24 16:13:33.618472,-37
2021-12-24 16:13:33.618481,-56
2021-12-24 16:13:33.618491,-87
2021-12-24 16:13:33.618501,-110
2021-12-24 16:13:33.618511,-117
2021-12-24 16:13:33.843642,-122
2021-12-24 16:13:33.843673,-139
2021-12-24 16:13:33.843685,-153
2021-12-24 16:13:33.843695,-139
2021-12-24 16:13:33.843705,-101
2021-12-24 16:13:33.843715,-56
2021-12-24 16:13:33.843724,2
2021-12-24 16:13:33.843734,58
2021-12-24 16:13:33.843743,101
2021-12-24 16:13:33.843753,139
2021-12-24 16:13:33.843763,167
2021-12-24 16:13:33.843772,174
2021-12-24 16:13:33.843782,167
2021-12-24 16:13:33.843791,162
2021-12-24 16:13:33.843801,167
2021-12-24 16:13:33.843810,174
2021-12-24 16:13:33.843820,176
2021-12-24 16:13:33.843829,167
2021-12-24 16:13:33.843839,148
2021-12-24 16:13:33.843848,136
2021-12-24 16:13:33.843858,136
2021-12-24 16:13:33.843867,141
2021-12-24 16:13:33.843877,141
2021-12-24 16:13:33.843886,134
2021-12-24 16:13:33.843896,139
2021-12-24 16:13:33.843905,150
2021-12-24 16:13:33.843915,146
2021-12-24 16:13:33.843924,131
2021-12-24 16:13:33.843934,131
2021-12-24 16:13:33.843943,136
2021-12-24 16:13:34.067932,127
2021-12-24 16:13:34.067952,134
2021-12-24 16:13:34.067959,129
2021-12-24 16:13:34.067966,80
2021-12-24 16:13:34.067972,65
2021-12-24 16:13:34.067978,98
2021-12-24 16:13:34.067985,103
2021-12-24 16:13:34.067991,120
2021-12-24 16:13:34.067997,183
2021-12-24 16:13:34.068003,195
2021-12-24 16:13:34.068010,134
2021-12-24 16:13:34.068016,96
2021-12-24 16:13:34.068022,115
2021-12-24 16:13:34.068028,139
2021-12-24 16:13:34.068034,127
2021-12-24 16:13:34.068040,113
2021-12-24 16:13:34.068047,167
2021-12-24 16:13:34.068053,115
2021-12-24 16:13:34.068059,-360
2021-12-24 16:13:34.068065,-932
2021-12-24 16:13:34.068072,-739
2021-12-24 16:13:34.068078,162
2021-12-24 16:13:34.068084,551
2021-12-24 16:13:34.068090,193
2021-12-24 16:13:34.068096,54
2021-12-24 16:13:34.068103,195
2021-12-24 16:13:34.068109,164
2021-12-24 16:13:34.068115,117
2021-12-24 16:13:34.068121,150
2021-12-24 16:13:34.068128,139
2021-12-24 16:13:34.337612,101
2021-12-24 16:13:34.337642,98
2021-12-24 16:13:34.337653,113
2021-12-24 16:13:34.337663,110
2021-12-24 16:13:34.337672,84
2021-12-24 16:13:34.337682,58
2021-12-24 16:13:34.337691,44
2021-12-24 16:13:34.337700,42
2021-12-24 16:13:34.337710,37
2021-12-24 16:13:34.337719,18
2021-12-24 16:13:34.337728,-4
2021-12-24 16:13:34.337738,-30
2021-12-24 16:13:34.337747,-51
2021-12-24 16:13:34.337756,-75
2021-12-24 16:13:34.337766,-103
2021-12-24 16:13:34.337775,-120
2021-12-24 16:13:34.337784,-115
2021-12-24 16:13:34.337794,-117
2021-12-24 16:13:34.337803,-127
2021-12-24 16:13:34.337812,-110
2021-12-24 16:13:34.337822,-87
2021-12-24 16:13:34.337832,-58
2021-12-24 16:13:34.337841,9
2021-12-24 16:13:34.337850,87
2021-12-24 16:13:34.337860,136
2021-12-24 16:13:34.337869,167
2021-12-24 16:13:34.337879,183
2021-12-24 16:13:34.337888,179
2021-12-24 16:13:34.337897,176
2021-12-24 16:13:34.337906,188
2021-12-24 16:13:34.517375,183
2021-12-24 16:13:34.517392,160
2021-12-24 16:13:34.517398,164
2021-12-24 16:13:34.517404,171
2021-12-24 16:13:34.517409,162
2021-12-24 16:13:34.517414,153
2021-12-24 16:13:34.517419,155
2021-12-24 16:13:34.517424,155
2021-12-24 16:13:34.517430,143
2021-12-24 16:13:34.517435,124
2021-12-24 16:13:34.517440,124
2021-12-24 16:13:34.517445,131
2021-12-24 16:13:34.517450,131
2021-12-24 16:13:34.517455,131
2021-12-24 16:13:34.517460,136
2021-12-24 16:13:34.517466,136
2021-12-24 16:13:34.517471,141
2021-12-24 16:13:34.517476,148
2021-12-24 16:13:34.517481,139
2021-12-24 16:13:34.517486,108
2021-12-24 16:13:34.517491,89
2021-12-24 16:13:34.517497,101
2021-12-24 16:13:34.517502,110
2021-12-24 16:13:34.517507,117
2021-12-24 16:13:34.517512,136
2021-12-24 16:13:34.517517,134
2021-12-24 16:13:34.517522,127
2021-12-24 16:13:34.517527,136
2021-12-24 16:13:34.517532,124
2021-12-24 16:13:34.517537,103
2021-12-24 16:13:34.922510,108
2021-12-24 16:13:34.922540,122
2021-12-24 16:13:34.922551,150
2021-12-24 16:13:34.922561,84
2021-12-24 16:13:34.922571,-334
2021-12-24 16:13:34.922580,-885
2021-12-24 16:13:34.922590,-775
2021-12-24 16:13:34.922599,94
2021-12-24 16:13:34.922609,560
2021-12-24 16:13:34.922618,193
2021-12-24 16:13:34.922628,-7
2021-12-24 16:13:34.922638,176
2021-12-24 16:13:34.922648,169
2021-12-24 16:13:34.922657,82
2021-12-24 16:13:34.922667,127
2021-12-24 16:13:34.922676,139
2021-12-24 16:13:34.922686,96
2021-12-24 16:13:34.922695,106
2021-12-24 16:13:34.922705,136
2021-12-24 16:13:34.922714,134
2021-12-24 16:13:34.922724,84
2021-12-24 16:13:34.922733,35
2021-12-24 16:13:34.922743,35
2021-12-24 16:13:34.922752,37
2021-12-24 16:13:34.922762,28
2021-12-24 16:13:34.922771,16
2021-12-24 16:13:34.922781,-9
2021-12-24 16:13:34.922790,-23
2021-12-24 16:13:34.922800,-28
2021-12-24 16:13:34.922809,-65
2021-12-24 16:13:35.013547,-136
2021-12-24 16:13:35.013577,-174
2021-12-24 16:13:35.013589,-143
2021-12-24 16:13:35.013599,-110
2021-12-24 16:13:35.013609,-122
2021-12-24 16:13:35.013618,-120
2021-12-24 16:13:35.013628,-80
2021-12-24 16:13:35.013638,-40
2021-12-24 16:13:35.013647,11
2021-12-24 16:13:35.013657,84
2021-12-24 16:13:35.013667,124
2021-12-24 16:13:35.013677,136
2021-12-24 16:13:35.013687,169
2021-12-24 16:13:35.013696,207
2021-12-24 16:13:35.013706,197
2021-12-24 16:13:35.013716,162
2021-12-24 16:13:35.013726,167
2021-12-24 16:13:35.013735,188
2021-12-24 16:13:35.013745,174
2021-12-24 16:13:35.013755,160
2021-12-24 16:13:35.013764,162
2021-12-24 16:13:35.013774,155
2021-12-24 16:13:35.013784,141
2021-12-24 16:13:35.013793,139
2021-12-24 16:13:35.013803,153
2021-12-24 16:13:35.013813,171
2021-12-24 16:13:35.013823,164
2021-12-24 16:13:35.013832,134
2021-12-24 16:13:35.013842,131
2021-12-24 16:13:35.013851,155
2021-12-24 16:13:35.238599,136
2021-12-24 16:13:35.238629,115
2021-12-24 16:13:35.238641,129
2021-12-24 16:13:35.238651,141
2021-12-24 16:13:35.238660,143
2021-12-24 16:13:35.238670,157
2021-12-24 16:13:35.238680,139
2021-12-24 16:13:35.238689,82
2021-12-24 16:13:35.238699,63
2021-12-24 16:13:35.238708,96
2021-12-24 16:13:35.238718,120
2021-12-24 16:13:35.238728,122
2021-12-24 16:13:35.238738,117
2021-12-24 16:13:35.238747,122
2021-12-24 16:13:35.238757,129
2021-12-24 16:13:35.238767,110
2021-12-24 16:13:35.238776,91
2021-12-24 16:13:35.238786,110
2021-12-24 16:13:35.238796,120
2021-12-24 16:13:35.238806,129
2021-12-24 16:13:35.238815,110
2021-12-24 16:13:35.238825,-188
2021-12-24 16:13:35.238835,-746
2021-12-24 16:13:35.238845,-859
2021-12-24 16:13:35.238854,-148
2021-12-24 16:13:35.238864,473
2021-12-24 16:13:35.238874,282
2021-12-24 16:13:35.238883,49
2021-12-24 16:13:35.238893,179
2021-12-24 16:13:35.238903,190
2021-12-24 16:13:35.507333,103
2021-12-24 16:13:35.507367,120
2021-12-24 16:13:35.507447,127
2021-12-24 16:13:35.507469,87
2021-12-24 16:13:35.507484,98
2021-12-24 16:13:35.507498,117
2021-12-24 16:13:35.507512,82
2021-12-24 16:13:35.507528,56
2021-12-24 16:13:35.507543,65
2021-12-24 16:13:35.507557,63
2021-12-24 16:13:35.507572,44
2021-12-24 16:13:35.507585,32
2021-12-24 16:13:35.507600,16
2021-12-24 16:13:35.507613,-7
2021-12-24 16:13:35.507627,-28
2021-12-24 16:13:35.507640,-56
2021-12-24 16:13:35.507653,-94
2021-12-24 16:13:35.507667,-110
2021-12-24 16:13:35.507681,-115
2021-12-24 16:13:35.507694,-131
2021-12-24 16:13:35.507707,-139
2021-12-24 16:13:35.507756,-139
2021-12-24 16:13:35.507771,-129
2021-12-24 16:13:35.507778,-103
2021-12-24 16:13:35.507785,-61
2021-12-24 16:13:35.507791,-4
2021-12-24 16:13:35.507797,58
2021-12-24 16:13:35.507803,110
2021-12-24 16:13:35.507809,136
2021-12-24 16:13:35.507816,155
2021-12-24 16:13:35.733100,176
2021-12-24 16:13:35.733130,186
2021-12-24 16:13:35.733142,183
2021-12-24 16:13:35.733152,176
2021-12-24 16:13:35.733161,171
2021-12-24 16:13:35.733171,174
2021-12-24 16:13:35.733181,174
2021-12-24 16:13:35.733191,171
2021-12-24 16:13:35.733200,160
2021-12-24 16:13:35.733210,148
2021-12-24 16:13:35.733220,150
2021-12-24 16:13:35.733229,143
2021-12-24 16:13:35.733239,127
2021-12-24 16:13:35.733249,131
2021-12-24 16:13:35.733259,141
2021-12-24 16:13:35.733268,131
2021-12-24 16:13:35.733278,131
2021-12-24 16:13:35.733288,143
2021-12-24 16:13:35.733298,146
2021-12-24 16:13:35.733307,143
2021-12-24 16:13:35.733317,146
2021-12-24 16:13:35.733327,148
2021-12-24 16:13:35.733336,143
2021-12-24 16:13:35.733346,141
2021-12-24 16:13:35.733356,134
2021-12-24 16:13:35.733365,113
2021-12-24 16:13:35.733375,101
2021-12-24 16:13:35.733385,101
2021-12-24 16:13:35.733394,106
2021-12-24 16:13:35.733404,129
2021-12-24 16:13:36.003071,153
2021-12-24 16:13:36.003100,143
2021-12-24 16:13:36.003112,117
2021-12-24 16:13:36.003121,113
2021-12-24 16:13:36.003131,131
2021-12-24 16:13:36.003141,129
2021-12-24 16:13:36.003150,115
2021-12-24 16:13:36.003159,141
2021-12-24 16:13:36.003169,167
2021-12-24 16:13:36.003179,-42
2021-12-24 16:13:36.003189,-574
2021-12-24 16:13:36.003198,-881
2021-12-24 16:13:36.003208,-355
2021-12-24 16:13:36.003217,400
2021-12-24 16:13:36.003227,381
2021-12-24 16:13:36.003236,70
2021-12-24 16:13:36.003246,143
2021-12-24 16:13:36.003255,207
2021-12-24 16:13:36.003265,113
2021-12-24 16:13:36.003274,122
2021-12-24 16:13:36.003284,164
2021-12-24 16:13:36.003293,120
2021-12-24 16:13:36.003303,75
2021-12-24 16:13:36.003312,89
2021-12-24 16:13:36.003322,110
2021-12-24 16:13:36.003331,87
2021-12-24 16:13:36.003341,54
2021-12-24 16:13:36.003350,51
2021-12-24 16:13:36.003360,56
2021-12-24 16:13:36.003369,37
2021-12-24 16:13:36.138459,23
2021-12-24 16:13:36.138479,11
2021-12-24 16:13:36.138487,-11
2021-12-24 16:13:36.138494,-40
2021-12-24 16:13:36.138500,-61
2021-12-24 16:13:36.138506,-77
2021-12-24 16:13:36.138513,-98
2021-12-24 16:13:36.138519,-115
2021-12-24 16:13:36.138581,-122
2021-12-24 16:13:36.138588,-115
2021-12-24 16:13:36.138595,-101
2021-12-24 16:13:36.138601,-89
2021-12-24 16:13:36.138607,-56
2021-12-24 16:13:36.138613,2
2021-12-24 16:13:36.138620,44
2021-12-24 16:13:36.138626,80
2021-12-24 16:13:36.138632,131
2021-12-24 16:13:36.138639,164
2021-12-24 16:13:36.138645,169
2021-12-24 16:13:36.138651,181
2021-12-24 16:13:36.138657,183
2021-12-24 16:13:36.138664,176
2021-12-24 16:13:36.138670,174
2021-12-24 16:13:36.138676,174
2021-12-24 16:13:36.138682,171
2021-12-24 16:13:36.138689,164
2021-12-24 16:13:36.138695,162
2021-12-24 16:13:36.138701,157
2021-12-24 16:13:36.138707,155
2021-12-24 16:13:36.138714,162
2021-12-24 16:13:36.408534,171
2021-12-24 16:13:36.408564,169
2021-12-24 16:13:36.408576,150
2021-12-24 16:13:36.408586,127
2021-12-24 16:13:36.408596,110
2021-12-24 16:13:36.408606,117
2021-12-24 16:13:36.408615,134
2021-12-24 16:13:36.408625,134
2021-12-24 16:13:36.408634,127
2021-12-24 16:13:36.408644,127
2021-12-24 16:13:36.408654,129
2021-12-24 16:13:36.408663,129
2021-12-24 16:13:36.408673,129
2021-12-24 16:13:36.408683,117
2021-12-24 16:13:36.408692,87
2021-12-24 16:13:36.408702,73
2021-12-24 16:13:36.408711,87
2021-12-24 16:13:36.408721,106
2021-12-24 16:13:36.408730,117
2021-12-24 16:13:36.408740,117
2021-12-24 16:13:36.408750,120
2021-12-24 16:13:36.408759,124
2021-12-24 16:13:36.408769,117
2021-12-24 16:13:36.408778,113
2021-12-24 16:13:36.408788,115
2021-12-24 16:13:36.408798,110
2021-12-24 16:13:36.408807,108
2021-12-24 16:13:36.408817,129
2021-12-24 16:13:36.408826,-16
2021-12-24 16:13:36.408836,-501
2021-12-24 16:13:36.633045,-864
2021-12-24 16:13:36.633075,-421
2021-12-24 16:13:36.633086,351
2021-12-24 16:13:36.633096,388
2021-12-24 16:13:36.633106,56
2021-12-24 16:13:36.633115,110
2021-12-24 16:13:36.633125,202
2021-12-24 16:13:36.633134,113
2021-12-24 16:13:36.633144,106
2021-12-24 16:13:36.633153,143
2021-12-24 16:13:36.633163,117
2021-12-24 16:13:36.633172,103
2021-12-24 16:13:36.633181,120
2021-12-24 16:13:36.633191,108
2021-12-24 16:13:36.633200,87
2021-12-24 16:13:36.633210,82
2021-12-24 16:13:36.633219,68
2021-12-24 16:13:36.633229,51
2021-12-24 16:13:36.633238,44
2021-12-24 16:13:36.633247,35
2021-12-24 16:13:36.633257,16
2021-12-24 16:13:36.633266,-7
2021-12-24 16:13:36.633276,-28
2021-12-24 16:13:36.633285,-51
2021-12-24 16:13:36.633294,-73
2021-12-24 16:13:36.633304,-91
2021-12-24 16:13:36.633313,-106
2021-12-24 16:13:36.633323,-108
2021-12-24 16:13:36.633332,-106
2021-12-24 16:13:36.633342,-98
2021-12-24 16:13:36.903233,-84
2021-12-24 16:13:36.903263,-56
2021-12-24 16:13:36.903275,-14
2021-12-24 16:13:36.903285,37
2021-12-24 16:13:36.903295,89
2021-12-24 16:13:36.903305,131
2021-12-24 16:13:36.903315,160
2021-12-24 16:13:36.903325,176
2021-12-24 16:13:36.903334,181
2021-12-24 16:13:36.903344,179
2021-12-24 16:13:36.903354,179
2021-12-24 16:13:36.903364,169
2021-12-24 16:13:36.903374,155
2021-12-24 16:13:36.903383,160
2021-12-24 16:13:36.903393,160
2021-12-24 16:13:36.903403,141
2021-12-24 16:13:36.903413,136
2021-12-24 16:13:36.903423,143
2021-12-24 16:13:36.903432,141
2021-12-24 16:13:36.903442,134
2021-12-24 16:13:36.903452,129
2021-12-24 16:13:36.903462,127
2021-12-24 16:13:36.903472,124
2021-12-24 16:13:36.903481,124
2021-12-24 16:13:36.903491,122
2021-12-24 16:13:36.903501,120
2021-12-24 16:13:36.903511,120
2021-12-24 16:13:36.903521,117
2021-12-24 16:13:36.903530,115
2021-12-24 16:13:36.903540,122
2021-12-24 16:13:37.128521,131
2021-12-24 16:13:37.128542,122
2021-12-24 16:13:37.128550,87
2021-12-24 16:13:37.128556,75
2021-12-24 16:13:37.128563,87
2021-12-24 16:13:37.128569,91
2021-12-24 16:13:37.128575,101
2021-12-24 16:13:37.128582,115
2021-12-24 16:13:37.128588,115
2021-12-24 16:13:37.128594,108
2021-12-24 16:13:37.128601,103
2021-12-24 16:13:37.128607,101
2021-12-24 16:13:37.128613,103
2021-12-24 16:13:37.128619,98
2021-12-24 16:13:37.128626,106
2021-12-24 16:13:37.128632,134
2021-12-24 16:13:37.128638,-14
2021-12-24 16:13:37.128645,-499
2021-12-24 16:13:37.128651,-869
2021-12-24 16:13:37.128657,-440
2021-12-24 16:13:37.128664,358
2021-12-24 16:13:37.128670,426
2021-12-24 16:13:37.128676,80
2021-12-24 16:13:37.128682,117
2021-12-24 16:13:37.128689,212
2021-12-24 16:13:37.128695,117
2021-12-24 16:13:37.128701,106
