Time,ECG
2021-12-24 15:58:01.686953,162
2021-12-24 15:58:01.686968,89
2021-12-24 15:58:01.686974,106
2021-12-24 15:58:01.686979,122
2021-12-24 15:58:01.686983,91
2021-12-24 15:58:01.686988,84
2021-12-24 15:58:01.686992,84
2021-12-24 15:58:01.686997,68
2021-12-24 15:58:01.687014,56
2021-12-24 15:58:01.687019,51
2021-12-24 15:58:01.687023,42
2021-12-24 15:58:01.687027,25
2021-12-24 15:58:01.687031,9
2021-12-24 15:58:01.687035,-7
2021-12-24 15:58:01.687039,-28
2021-12-24 15:58:01.687043,-49
2021-12-24 15:58:01.687047,-70
2021-12-24 15:58:01.687051,-96
2021-12-24 15:58:01.687055,-120
2021-12-24 15:58:01.687059,-131
2021-12-24 15:58:01.687063,-139
2021-12-24 15:58:01.687067,-146
2021-12-24 15:58:01.687071,-143
2021-12-24 15:58:01.687075,-143
2021-12-24 15:58:01.687079,-139
2021-12-24 15:58:01.687083,-117
2021-12-24 15:58:01.687088,-80
2021-12-24 15:58:01.687092,-35
2021-12-24 15:58:01.687096,4
2021-12-24 15:58:01.687100,37
2021-12-24 15:58:01.808539,63
2021-12-24 15:58:01.808560,82
2021-12-24 15:58:01.808569,89
2021-12-24 15:58:01.808575,87
2021-12-24 15:58:01.808582,84
2021-12-24 15:58:01.808588,82
2021-12-24 15:58:01.808596,80
2021-12-24 15:58:01.808602,77
2021-12-24 15:58:01.808609,70
2021-12-24 15:58:01.808615,68
2021-12-24 15:58:01.808621,65
2021-12-24 15:58:01.808627,58
2021-12-24 15:58:01.808634,56
2021-12-24 15:58:01.808640,56
2021-12-24 15:58:01.808646,51
2021-12-24 15:58:01.808652,49
2021-12-24 15:58:01.808659,49
2021-12-24 15:58:01.808665,49
2021-12-24 15:58:01.808672,51
2021-12-24 15:58:01.808678,51
2021-12-24 15:58:01.808684,51
2021-12-24 15:58:01.808690,54
2021-12-24 15:58:01.808697,49
2021-12-24 15:58:01.808703,47
2021-12-24 15:58:01.808709,49
2021-12-24 15:58:01.808715,54
2021-12-24 15:58:01.808722,49
2021-12-24 15:58:01.808728,28
2021-12-24 15:58:01.808734,0
2021-12-24 15:58:01.808742,-4
2021-12-24 15:58:01.944394,7
2021-12-24 15:58:01.944425,18
2021-12-24 15:58:01.944437,28
2021-12-24 15:58:01.944448,40
2021-12-24 15:58:01.944457,49
2021-12-24 15:58:01.944467,44
2021-12-24 15:58:01.944477,47
2021-12-24 15:58:01.944487,51
2021-12-24 15:58:01.944497,47
2021-12-24 15:58:01.944506,42
2021-12-24 15:58:01.944516,42
2021-12-24 15:58:01.944526,56
2021-12-24 15:58:01.944536,54
2021-12-24 15:58:01.944552,-164
2021-12-24 15:58:01.944562,-612
2021-12-24 15:58:01.944572,-727
2021-12-24 15:58:01.944582,-134
2021-12-24 15:58:01.944592,417
2021-12-24 15:58:01.944602,233
2021-12-24 15:58:01.944612,0
2021-12-24 15:58:01.944622,115
2021-12-24 15:58:01.944632,117
2021-12-24 15:58:01.944642,25
2021-12-24 15:58:01.944651,58
2021-12-24 15:58:01.944661,80
2021-12-24 15:58:01.944670,47
2021-12-24 15:58:01.944680,42
2021-12-24 15:58:01.944690,49
2021-12-24 15:58:01.944700,30
2021-12-24 15:58:01.944712,14
2021-12-24 15:58:02.214798,11
2021-12-24 15:58:02.214820,4
2021-12-24 15:58:02.214828,-9
2021-12-24 15:58:02.214835,-30
2021-12-24 15:58:02.214841,-49
2021-12-24 15:58:02.214847,-61
2021-12-24 15:58:02.214853,-75
2021-12-24 15:58:02.214860,-98
2021-12-24 15:58:02.214866,-124
2021-12-24 15:58:02.214872,-150
2021-12-24 15:58:02.214878,-171
2021-12-24 15:58:02.214885,-181
2021-12-24 15:58:02.214891,-181
2021-12-24 15:58:02.214897,-179
2021-12-24 15:58:02.214903,-174
2021-12-24 15:58:02.214910,-164
2021-12-24 15:58:02.214916,-139
2021-12-24 15:58:02.214926,-98
2021-12-24 15:58:02.214933,-54
2021-12-24 15:58:02.214939,-7
2021-12-24 15:58:02.214945,37
2021-12-24 15:58:02.214952,65
2021-12-24 15:58:02.214958,75
2021-12-24 15:58:02.214964,82
2021-12-24 15:58:02.214971,87
2021-12-24 15:58:02.214977,89
2021-12-24 15:58:02.214983,91
2021-12-24 15:58:02.214989,87
2021-12-24 15:58:02.214996,80
2021-12-24 15:58:02.215002,82
2021-12-24 15:58:02.483921,84
2021-12-24 15:58:02.483951,84
2021-12-24 15:58:02.483963,84
2021-12-24 15:58:02.483973,73
2021-12-24 15:58:02.483983,61
2021-12-24 15:58:02.483993,63
2021-12-24 15:58:02.484002,73
2021-12-24 15:58:02.484020,70
2021-12-24 15:58:02.484030,63
2021-12-24 15:58:02.484040,58
2021-12-24 15:58:02.484049,63
2021-12-24 15:58:02.484059,70
2021-12-24 15:58:02.484069,73
2021-12-24 15:58:02.484079,70
2021-12-24 15:58:02.484088,61
2021-12-24 15:58:02.484098,44
2021-12-24 15:58:02.484108,32
2021-12-24 15:58:02.484117,30
2021-12-24 15:58:02.484127,40
2021-12-24 15:58:02.484137,51
2021-12-24 15:58:02.484146,58
2021-12-24 15:58:02.484156,73
2021-12-24 15:58:02.484166,87
2021-12-24 15:58:02.484175,89
2021-12-24 15:58:02.484185,84
2021-12-24 15:58:02.484195,84
2021-12-24 15:58:02.484204,82
2021-12-24 15:58:02.484214,75
2021-12-24 15:58:02.484224,82
2021-12-24 15:58:02.484235,117
2021-12-24 15:58:02.664998,82
2021-12-24 15:58:02.665029,-247
2021-12-24 15:58:02.665041,-711
2021-12-24 15:58:02.665052,-640
2021-12-24 15:58:02.665062,94
2021-12-24 15:58:02.665072,501
2021-12-24 15:58:02.665082,200
2021-12-24 15:58:02.665091,56
2021-12-24 15:58:02.665101,193
2021-12-24 15:58:02.665111,146
2021-12-24 15:58:02.665121,77
2021-12-24 15:58:02.665131,124
2021-12-24 15:58:02.665141,122
2021-12-24 15:58:02.665151,84
2021-12-24 15:58:02.665161,84
2021-12-24 15:58:02.665171,87
2021-12-24 15:58:02.665181,75
2021-12-24 15:58:02.665190,68
2021-12-24 15:58:02.665200,61
2021-12-24 15:58:02.665210,47
2021-12-24 15:58:02.665220,32
2021-12-24 15:58:02.665230,18
2021-12-24 15:58:02.665240,0
2021-12-24 15:58:02.665250,-18
2021-12-24 15:58:02.665268,-32
2021-12-24 15:58:02.665278,-56
2021-12-24 15:58:02.665288,-82
2021-12-24 15:58:02.665298,-103
2021-12-24 15:58:02.665308,-113
2021-12-24 15:58:02.665318,-117
2021-12-24 15:58:02.934443,-117
2021-12-24 15:58:02.934463,-115
2021-12-24 15:58:02.934470,-108
2021-12-24 15:58:02.934475,-87
2021-12-24 15:58:02.934481,-47
2021-12-24 15:58:02.934486,2
2021-12-24 15:58:02.934492,51
2021-12-24 15:58:02.934497,89
2021-12-24 15:58:02.934502,113
2021-12-24 15:58:02.934507,127
2021-12-24 15:58:02.934512,129
2021-12-24 15:58:02.934517,136
2021-12-24 15:58:02.934522,139
2021-12-24 15:58:02.934528,131
2021-12-24 15:58:02.934533,127
2021-12-24 15:58:02.934538,127
2021-12-24 15:58:02.934543,127
2021-12-24 15:58:02.934548,122
2021-12-24 15:58:02.934553,122
2021-12-24 15:58:02.934558,120
2021-12-24 15:58:02.934564,115
2021-12-24 15:58:02.934569,113
2021-12-24 15:58:02.934576,113
2021-12-24 15:58:02.934581,113
2021-12-24 15:58:02.934586,108
2021-12-24 15:58:02.934592,106
2021-12-24 15:58:02.934597,110
2021-12-24 15:58:02.934602,115
2021-12-24 15:58:02.934607,115
2021-12-24 15:58:02.934612,115
2021-12-24 15:58:03.113698,117
2021-12-24 15:58:03.113716,117
2021-12-24 15:58:03.113722,122
2021-12-24 15:58:03.113728,120
2021-12-24 15:58:03.113733,106
2021-12-24 15:58:03.113738,87
2021-12-24 15:58:03.113743,80
2021-12-24 15:58:03.113748,87
2021-12-24 15:58:03.113753,98
2021-12-24 15:58:03.113758,108
2021-12-24 15:58:03.113763,120
2021-12-24 15:58:03.113769,131
2021-12-24 15:58:03.113774,129
2021-12-24 15:58:03.113779,122
2021-12-24 15:58:03.113784,122
2021-12-24 15:58:03.113789,120
2021-12-24 15:58:03.113794,117
2021-12-24 15:58:03.113799,124
2021-12-24 15:58:03.113804,157
2021-12-24 15:58:03.113809,127
2021-12-24 15:58:03.113814,-209
2021-12-24 15:58:03.113820,-742
2021-12-24 15:58:03.113825,-808
2021-12-24 15:58:03.113830,-124
2021-12-24 15:58:03.113841,442
2021-12-24 15:58:03.113846,280
2021-12-24 15:58:03.113851,89
2021-12-24 15:58:03.113856,204
2021-12-24 15:58:03.113861,212
2021-12-24 15:58:03.113866,141
2021-12-24 15:58:03.384184,164
2021-12-24 15:58:03.384211,176
2021-12-24 15:58:03.384223,148
2021-12-24 15:58:03.384233,146
2021-12-24 15:58:03.384243,148
2021-12-24 15:58:03.384253,131
2021-12-24 15:58:03.384263,117
2021-12-24 15:58:03.384272,113
2021-12-24 15:58:03.384282,101
2021-12-24 15:58:03.384292,87
2021-12-24 15:58:03.384302,75
2021-12-24 15:58:03.384311,58
2021-12-24 15:58:03.384321,35
2021-12-24 15:58:03.384331,11
2021-12-24 15:58:03.384341,-14
2021-12-24 15:58:03.384351,-42
2021-12-24 15:58:03.384360,-63
2021-12-24 15:58:03.384370,-75
2021-12-24 15:58:03.384380,-84
2021-12-24 15:58:03.384390,-87
2021-12-24 15:58:03.384399,-84
2021-12-24 15:58:03.384409,-77
2021-12-24 15:58:03.384418,-61
2021-12-24 15:58:03.384428,-32
2021-12-24 15:58:03.384438,11
2021-12-24 15:58:03.384447,61
2021-12-24 15:58:03.384457,101
2021-12-24 15:58:03.384467,129
2021-12-24 15:58:03.384477,146
2021-12-24 15:58:03.384486,155
2021-12-24 15:58:03.608476,160
2021-12-24 15:58:03.608506,162
2021-12-24 15:58:03.608518,160
2021-12-24 15:58:03.608528,155
2021-12-24 15:58:03.608538,148
2021-12-24 15:58:03.608548,141
2021-12-24 15:58:03.608558,131
2021-12-24 15:58:03.608568,131
2021-12-24 15:58:03.608578,129
2021-12-24 15:58:03.608588,124
2021-12-24 15:58:03.608598,122
2021-12-24 15:58:03.608608,120
2021-12-24 15:58:03.608618,120
2021-12-24 15:58:03.608628,120
2021-12-24 15:58:03.608638,120
2021-12-24 15:58:03.608648,117
2021-12-24 15:58:03.608657,115
2021-12-24 15:58:03.608667,110
2021-12-24 15:58:03.608677,110
2021-12-24 15:58:03.608687,115
2021-12-24 15:58:03.608697,115
2021-12-24 15:58:03.608707,117
2021-12-24 15:58:03.608717,113
2021-12-24 15:58:03.608727,98
2021-12-24 15:58:03.608736,75
2021-12-24 15:58:03.608746,73
2021-12-24 15:58:03.608756,87
2021-12-24 15:58:03.608766,98
2021-12-24 15:58:03.608776,106
2021-12-24 15:58:03.608786,117
2021-12-24 15:58:03.834728,127
2021-12-24 15:58:03.834749,122
2021-12-24 15:58:03.834757,120
2021-12-24 15:58:03.834764,120
2021-12-24 15:58:03.834770,115
2021-12-24 15:58:03.834777,108
2021-12-24 15:58:03.834783,113
2021-12-24 15:58:03.834790,150
2021-12-24 15:58:03.834796,122
2021-12-24 15:58:03.834802,-219
2021-12-24 15:58:03.834814,-753
2021-12-24 15:58:03.834821,-808
2021-12-24 15:58:03.834827,-120
2021-12-24 15:58:03.834834,433
2021-12-24 15:58:03.834840,270
2021-12-24 15:58:03.834847,87
2021-12-24 15:58:03.834853,202
2021-12-24 15:58:03.834859,209
2021-12-24 15:58:03.834866,141
2021-12-24 15:58:03.834872,164
2021-12-24 15:58:03.834879,171
2021-12-24 15:58:03.834885,134
2021-12-24 15:58:03.834891,129
2021-12-24 15:58:03.834898,134
2021-12-24 15:58:03.834904,120
2021-12-24 15:58:03.834910,108
2021-12-24 15:58:03.834917,103
2021-12-24 15:58:03.834923,89
2021-12-24 15:58:03.834929,70
2021-12-24 15:58:03.834936,61
2021-12-24 15:58:04.059837,56
2021-12-24 15:58:04.059868,42
2021-12-24 15:58:04.059879,23
2021-12-24 15:58:04.059889,0
2021-12-24 15:58:04.059899,-23
2021-12-24 15:58:04.059909,-44
2021-12-24 15:58:04.059918,-56
2021-12-24 15:58:04.059928,-61
2021-12-24 15:58:04.059938,-63
2021-12-24 15:58:04.059947,-73
2021-12-24 15:58:04.059957,-82
2021-12-24 15:58:04.059967,-73
2021-12-24 15:58:04.059976,-7
2021-12-24 15:58:04.059986,80
2021-12-24 15:58:04.059996,115
2021-12-24 15:58:04.060005,129
2021-12-24 15:58:04.060015,164
2021-12-24 15:58:04.060024,195
2021-12-24 15:58:04.060034,200
2021-12-24 15:58:04.060043,195
2021-12-24 15:58:04.060053,193
2021-12-24 15:58:04.060063,190
2021-12-24 15:58:04.060072,183
2021-12-24 15:58:04.060082,181
2021-12-24 15:58:04.060091,181
2021-12-24 15:58:04.060105,179
2021-12-24 15:58:04.060115,174
2021-12-24 15:58:04.060125,169
2021-12-24 15:58:04.060134,167
2021-12-24 15:58:04.060144,164
2021-12-24 15:58:04.283762,160
2021-12-24 15:58:04.283779,160
2021-12-24 15:58:04.283785,157
2021-12-24 15:58:04.283791,150
2021-12-24 15:58:04.283796,143
2021-12-24 15:58:04.283801,143
2021-12-24 15:58:04.283806,146
2021-12-24 15:58:04.283812,143
2021-12-24 15:58:04.283817,139
2021-12-24 15:58:04.283822,131
2021-12-24 15:58:04.283827,129
2021-12-24 15:58:04.283833,134
2021-12-24 15:58:04.283838,134
2021-12-24 15:58:04.283843,122
2021-12-24 15:58:04.283848,98
2021-12-24 15:58:04.283853,77
2021-12-24 15:58:04.283858,77
2021-12-24 15:58:04.283864,91
2021-12-24 15:58:04.283869,108
2021-12-24 15:58:04.283874,117
2021-12-24 15:58:04.283879,122
2021-12-24 15:58:04.283885,124
2021-12-24 15:58:04.283890,124
2021-12-24 15:58:04.283895,122
2021-12-24 15:58:04.283900,120
2021-12-24 15:58:04.283905,110
2021-12-24 15:58:04.283910,101
2021-12-24 15:58:04.283916,108
2021-12-24 15:58:04.283921,150
2021-12-24 15:58:04.283926,61
2021-12-24 15:58:04.554505,-358
2021-12-24 15:58:04.554537,-789
2021-12-24 15:58:04.554548,-553
2021-12-24 15:58:04.554559,179
2021-12-24 15:58:04.554569,412
2021-12-24 15:58:04.554579,141
2021-12-24 15:58:04.554588,110
2021-12-24 15:58:04.554598,214
2021-12-24 15:58:04.554608,150
2021-12-24 15:58:04.554617,115
2021-12-24 15:58:04.554627,157
2021-12-24 15:58:04.554637,146
2021-12-24 15:58:04.554646,115
2021-12-24 15:58:04.554656,120
2021-12-24 15:58:04.554666,117
2021-12-24 15:58:04.554675,96
2021-12-24 15:58:04.554690,84
2021-12-24 15:58:04.554700,77
2021-12-24 15:58:04.554710,63
2021-12-24 15:58:04.554719,56
2021-12-24 15:58:04.554729,51
2021-12-24 15:58:04.554738,30
2021-12-24 15:58:04.554748,-2
2021-12-24 15:58:04.554758,-28
2021-12-24 15:58:04.554767,-63
2021-12-24 15:58:04.554777,-106
2021-12-24 15:58:04.554787,-120
2021-12-24 15:58:04.554797,-113
2021-12-24 15:58:04.554806,-94
2021-12-24 15:58:04.554816,-73
2021-12-24 15:58:04.779553,-75
2021-12-24 15:58:04.779575,-70
2021-12-24 15:58:04.779582,-40
2021-12-24 15:58:04.779590,-21
2021-12-24 15:58:04.779596,-9
2021-12-24 15:58:04.779603,47
2021-12-24 15:58:04.779609,113
2021-12-24 15:58:04.779616,131
2021-12-24 15:58:04.779622,148
2021-12-24 15:58:04.779629,179
2021-12-24 15:58:04.779635,186
2021-12-24 15:58:04.779641,174
2021-12-24 15:58:04.779648,167
2021-12-24 15:58:04.779654,155
2021-12-24 15:58:04.779661,139
2021-12-24 15:58:04.779667,131
2021-12-24 15:58:04.779674,127
2021-12-24 15:58:04.779680,122
2021-12-24 15:58:04.779686,117
2021-12-24 15:58:04.779693,113
2021-12-24 15:58:04.779699,108
2021-12-24 15:58:04.779706,108
2021-12-24 15:58:04.779712,110
2021-12-24 15:58:04.779718,110
2021-12-24 15:58:04.779725,106
2021-12-24 15:58:04.779731,106
2021-12-24 15:58:04.779737,106
2021-12-24 15:58:04.779744,106
2021-12-24 15:58:04.779750,108
2021-12-24 15:58:04.779757,108
2021-12-24 15:58:05.004377,110
2021-12-24 15:58:05.004409,113
2021-12-24 15:58:05.004421,103
2021-12-24 15:58:05.004431,87
2021-12-24 15:58:05.004441,68
2021-12-24 15:58:05.004451,51
2021-12-24 15:58:05.004461,47
2021-12-24 15:58:05.004471,58
2021-12-24 15:58:05.004481,68
2021-12-24 15:58:05.004491,77
2021-12-24 15:58:05.004501,91
2021-12-24 15:58:05.004511,98
2021-12-24 15:58:05.004521,91
2021-12-24 15:58:05.004535,89
2021-12-24 15:58:05.004545,87
2021-12-24 15:58:05.004555,89
2021-12-24 15:58:05.004565,108
2021-12-24 15:58:05.004575,120
2021-12-24 15:58:05.004585,136
2021-12-24 15:58:05.004595,94
2021-12-24 15:58:05.004605,-256
2021-12-24 15:58:05.004615,-746
2021-12-24 15:58:05.004625,-659
2021-12-24 15:58:05.004636,63
2021-12-24 15:58:05.004646,428
2021-12-24 15:58:05.004656,169
2021-12-24 15:58:05.004666,65
2021-12-24 15:58:05.004676,181
2021-12-24 15:58:05.004686,148
2021-12-24 15:58:05.004696,117
2021-12-24 15:58:05.184369,157
2021-12-24 15:58:05.184399,141
2021-12-24 15:58:05.184410,108
2021-12-24 15:58:05.184421,113
2021-12-24 15:58:05.184431,108
2021-12-24 15:58:05.184440,91
2021-12-24 15:58:05.184450,82
2021-12-24 15:58:05.184460,73
2021-12-24 15:58:05.184470,56
2021-12-24 15:58:05.184479,44
2021-12-24 15:58:05.184489,32
2021-12-24 15:58:05.184499,14
2021-12-24 15:58:05.184509,-7
2021-12-24 15:58:05.184519,-28
2021-12-24 15:58:05.184529,-51
2021-12-24 15:58:05.184539,-73
2021-12-24 15:58:05.184549,-89
2021-12-24 15:58:05.184558,-101
2021-12-24 15:58:05.184568,-115
2021-12-24 15:58:05.184578,-120
2021-12-24 15:58:05.184588,-115
2021-12-24 15:58:05.184598,-108
2021-12-24 15:58:05.184608,-94
2021-12-24 15:58:05.184617,-58
2021-12-24 15:58:05.184627,-9
2021-12-24 15:58:05.184637,35
2021-12-24 15:58:05.184647,70
2021-12-24 15:58:05.184657,98
2021-12-24 15:58:05.184666,122
2021-12-24 15:58:05.184676,134
2021-12-24 15:58:05.409856,134
2021-12-24 15:58:05.409886,134
2021-12-24 15:58:05.409898,131
2021-12-24 15:58:05.409908,127
2021-12-24 15:58:05.409918,115
2021-12-24 15:58:05.409928,106
2021-12-24 15:58:05.409937,98
2021-12-24 15:58:05.409947,91
2021-12-24 15:58:05.409957,80
2021-12-24 15:58:05.409967,75
2021-12-24 15:58:05.409976,77
2021-12-24 15:58:05.409986,73
2021-12-24 15:58:05.409996,65
2021-12-24 15:58:05.410005,63
2021-12-24 15:58:05.410015,56
2021-12-24 15:58:05.410025,49
2021-12-24 15:58:05.410034,49
2021-12-24 15:58:05.410048,49
2021-12-24 15:58:05.410058,49
2021-12-24 15:58:05.410068,54
2021-12-24 15:58:05.410078,54
2021-12-24 15:58:05.410088,42
2021-12-24 15:58:05.410097,18
2021-12-24 15:58:05.410107,0
2021-12-24 15:58:05.410117,9
2021-12-24 15:58:05.410127,23
2021-12-24 15:58:05.410136,25
2021-12-24 15:58:05.410146,30
2021-12-24 15:58:05.410156,51
2021-12-24 15:58:05.410165,61
2021-12-24 15:58:05.678032,58
2021-12-24 15:58:05.678062,58
2021-12-24 15:58:05.678074,61
2021-12-24 15:58:05.678085,49
2021-12-24 15:58:05.678094,35
2021-12-24 15:58:05.678104,32
2021-12-24 15:58:05.678114,49
2021-12-24 15:58:05.678124,91
2021-12-24 15:58:05.678133,11
2021-12-24 15:58:05.678143,-402
2021-12-24 15:58:05.678153,-817
2021-12-24 15:58:05.678163,-534
2021-12-24 15:58:05.678173,235
2021-12-24 15:58:05.678182,428
2021-12-24 15:58:05.678192,84
2021-12-24 15:58:05.678202,28
2021-12-24 15:58:05.678212,129
2021-12-24 15:58:05.678221,77
2021-12-24 15:58:05.678231,58
2021-12-24 15:58:05.678241,91
2021-12-24 15:58:05.678251,63
2021-12-24 15:58:05.678260,37
2021-12-24 15:58:05.678270,49
2021-12-24 15:58:05.678279,42
2021-12-24 15:58:05.678289,23
2021-12-24 15:58:05.678299,21
2021-12-24 15:58:05.678308,16
2021-12-24 15:58:05.678318,-2
2021-12-24 15:58:05.678328,-14
2021-12-24 15:58:05.678337,-25
2021-12-24 15:58:05.904074,-56
2021-12-24 15:58:05.904089,-89
2021-12-24 15:58:05.904095,-106
2021-12-24 15:58:05.904101,-115
2021-12-24 15:58:05.904106,-136
2021-12-24 15:58:05.904111,-157
2021-12-24 15:58:05.904116,-167
2021-12-24 15:58:05.904121,-171
2021-12-24 15:58:05.904127,-176
2021-12-24 15:58:05.904132,-176
2021-12-24 15:58:05.904137,-171
2021-12-24 15:58:05.904142,-150
2021-12-24 15:58:05.904147,-108
2021-12-24 15:58:05.904152,-61
2021-12-24 15:58:05.904157,-7
2021-12-24 15:58:05.904163,47
2021-12-24 15:58:05.904168,82
2021-12-24 15:58:05.904173,101
2021-12-24 15:58:05.904178,106
2021-12-24 15:58:05.904183,106
2021-12-24 15:58:05.904188,113
2021-12-24 15:58:05.904193,113
2021-12-24 15:58:05.904198,103
2021-12-24 15:58:05.904203,98
2021-12-24 15:58:05.904208,101
2021-12-24 15:58:05.904214,96
2021-12-24 15:58:05.904219,91
2021-12-24 15:58:05.904224,87
2021-12-24 15:58:05.904229,87
2021-12-24 15:58:05.904236,87
2021-12-24 15:58:06.129850,84
2021-12-24 15:58:06.129880,82
2021-12-24 15:58:06.129892,80
2021-12-24 15:58:06.129902,77
2021-12-24 15:58:06.129911,75
2021-12-24 15:58:06.129921,75
2021-12-24 15:58:06.129931,77
2021-12-24 15:58:06.129940,84
2021-12-24 15:58:06.129950,75
2021-12-24 15:58:06.129959,51
2021-12-24 15:58:06.129969,35
2021-12-24 15:58:06.129979,40
2021-12-24 15:58:06.129988,54
2021-12-24 15:58:06.129998,68
2021-12-24 15:58:06.130008,77
2021-12-24 15:58:06.130017,89
2021-12-24 15:58:06.130027,96
2021-12-24 15:58:06.130036,98
2021-12-24 15:58:06.130046,96
2021-12-24 15:58:06.130056,87
2021-12-24 15:58:06.130065,75
2021-12-24 15:58:06.130074,82
2021-12-24 15:58:06.130084,98
2021-12-24 15:58:06.130094,136
2021-12-24 15:58:06.130103,160
2021-12-24 15:58:06.130113,-91
2021-12-24 15:58:06.130123,-614
2021-12-24 15:58:06.130132,-756
2021-12-24 15:58:06.130142,-113
2021-12-24 15:58:06.130152,490
2021-12-24 15:58:06.354419,322
2021-12-24 15:58:06.354449,73
2021-12-24 15:58:06.354461,171
2021-12-24 15:58:06.354471,181
2021-12-24 15:58:06.354481,106
2021-12-24 15:58:06.354490,134
2021-12-24 15:58:06.354500,148
2021-12-24 15:58:06.354510,120
2021-12-24 15:58:06.354519,110
2021-12-24 15:58:06.354529,110
2021-12-24 15:58:06.354539,108
2021-12-24 15:58:06.354548,101
2021-12-24 15:58:06.354558,87
2021-12-24 15:58:06.354568,75
2021-12-24 15:58:06.354577,65
2021-12-24 15:58:06.354587,49
2021-12-24 15:58:06.354597,32
2021-12-24 15:58:06.354606,14
2021-12-24 15:58:06.354616,-14
2021-12-24 15:58:06.354626,-40
2021-12-24 15:58:06.354635,-61
2021-12-24 15:58:06.354645,-84
2021-12-24 15:58:06.354655,-103
2021-12-24 15:58:06.354664,-110
2021-12-24 15:58:06.354674,-110
2021-12-24 15:58:06.354684,-106
2021-12-24 15:58:06.354693,-96
2021-12-24 15:58:06.354703,-70
2021-12-24 15:58:06.354713,-30
2021-12-24 15:58:06.354722,28
2021-12-24 15:58:06.580015,84
2021-12-24 15:58:06.580045,129
2021-12-24 15:58:06.580057,164
2021-12-24 15:58:06.580067,190
2021-12-24 15:58:06.580077,204
2021-12-24 15:58:06.580087,209
2021-12-24 15:58:06.580096,209
2021-12-24 15:58:06.580106,202
2021-12-24 15:58:06.580115,200
2021-12-24 15:58:06.580125,200
2021-12-24 15:58:06.580135,195
2021-12-24 15:58:06.580144,188
2021-12-24 15:58:06.580154,183
2021-12-24 15:58:06.580164,181
2021-12-24 15:58:06.580173,176
2021-12-24 15:58:06.580182,164
2021-12-24 15:58:06.580192,155
2021-12-24 15:58:06.580201,146
2021-12-24 15:58:06.580211,139
2021-12-24 15:58:06.580220,143
2021-12-24 15:58:06.580235,157
2021-12-24 15:58:06.580244,169
2021-12-24 15:58:06.580254,169
2021-12-24 15:58:06.580264,155
2021-12-24 15:58:06.580273,143
2021-12-24 15:58:06.580283,153
2021-12-24 15:58:06.580293,146
2021-12-24 15:58:06.580303,106
2021-12-24 15:58:06.580312,84
2021-12-24 15:58:06.580322,103
2021-12-24 15:58:06.804861,120
2021-12-24 15:58:06.804891,120
2021-12-24 15:58:06.804903,124
2021-12-24 15:58:06.804913,146
2021-12-24 15:58:06.804923,157
2021-12-24 15:58:06.804933,150
2021-12-24 15:58:06.804943,146
2021-12-24 15:58:06.804953,143
2021-12-24 15:58:06.804963,139
2021-12-24 15:58:06.804973,131
2021-12-24 15:58:06.804983,139
2021-12-24 15:58:06.804993,181
2021-12-24 15:58:06.805002,129
2021-12-24 15:58:06.805013,-256
2021-12-24 15:58:06.805023,-749
2021-12-24 15:58:06.805049,-657
2021-12-24 15:58:06.805059,65
2021-12-24 15:58:06.805069,459
2021-12-24 15:58:06.805078,219
2021-12-24 15:58:06.805088,110
2021-12-24 15:58:06.805099,233
2021-12-24 15:58:06.805108,200
2021-12-24 15:58:06.805118,146
2021-12-24 15:58:06.805128,176
2021-12-24 15:58:06.805138,167
2021-12-24 15:58:06.805148,129
2021-12-24 15:58:06.805158,127
2021-12-24 15:58:06.805168,124
2021-12-24 15:58:06.805178,101
2021-12-24 15:58:06.805279,108
2021-12-24 15:58:07.029553,129
2021-12-24 15:58:07.029583,113
2021-12-24 15:58:07.029595,84
2021-12-24 15:58:07.029605,80
2021-12-24 15:58:07.029615,77
2021-12-24 15:58:07.029625,49
2021-12-24 15:58:07.029634,2
2021-12-24 15:58:07.029644,-32
2021-12-24 15:58:07.029654,-49
2021-12-24 15:58:07.029664,-56
2021-12-24 15:58:07.029674,-65
2021-12-24 15:58:07.029683,-84
2021-12-24 15:58:07.029693,-91
2021-12-24 15:58:07.029703,-80
2021-12-24 15:58:07.029712,-75
2021-12-24 15:58:07.029722,-63
2021-12-24 15:58:07.029732,-25
2021-12-24 15:58:07.029742,25
2021-12-24 15:58:07.029751,82
2021-12-24 15:58:07.029761,129
2021-12-24 15:58:07.029771,162
2021-12-24 15:58:07.029780,186
2021-12-24 15:58:07.029790,193
2021-12-24 15:58:07.029799,197
2021-12-24 15:58:07.029809,204
2021-12-24 15:58:07.029819,202
2021-12-24 15:58:07.029828,188
2021-12-24 15:58:07.029838,183
2021-12-24 15:58:07.029848,183
2021-12-24 15:58:07.029857,176
2021-12-24 15:58:07.254427,162
2021-12-24 15:58:07.254448,160
2021-12-24 15:58:07.254455,176
2021-12-24 15:58:07.254462,174
2021-12-24 15:58:07.254468,153
2021-12-24 15:58:07.254474,143
2021-12-24 15:58:07.254480,153
2021-12-24 15:58:07.254486,148
2021-12-24 15:58:07.254493,136
2021-12-24 15:58:07.254499,136
2021-12-24 15:58:07.254505,139
2021-12-24 15:58:07.254511,134
2021-12-24 15:58:07.254518,131
2021-12-24 15:58:07.254524,124
2021-12-24 15:58:07.254530,122
2021-12-24 15:58:07.254536,115
2021-12-24 15:58:07.254542,84
2021-12-24 15:58:07.254549,65
2021-12-24 15:58:07.254555,82
2021-12-24 15:58:07.254561,101
2021-12-24 15:58:07.254567,103
2021-12-24 15:58:07.254573,113
2021-12-24 15:58:07.254583,124
2021-12-24 15:58:07.254589,127
2021-12-24 15:58:07.254595,127
2021-12-24 15:58:07.254602,131
2021-12-24 15:58:07.254608,131
2021-12-24 15:58:07.254614,124
2021-12-24 15:58:07.254621,122
2021-12-24 15:58:07.254627,129
2021-12-24 15:58:07.524320,162
2021-12-24 15:58:07.524351,82
2021-12-24 15:58:07.524363,-334
2021-12-24 15:58:07.524373,-801
2021-12-24 15:58:07.524382,-631
2021-12-24 15:58:07.524392,98
2021-12-24 15:58:07.524402,414
2021-12-24 15:58:07.524411,167
2021-12-24 15:58:07.524421,108
2021-12-24 15:58:07.524431,214
2021-12-24 15:58:07.524440,157
2021-12-24 15:58:07.524450,113
2021-12-24 15:58:07.524459,155
2021-12-24 15:58:07.524469,148
2021-12-24 15:58:07.524479,120
2021-12-24 15:58:07.524488,122
2021-12-24 15:58:07.524498,117
2021-12-24 15:58:07.524507,103
2021-12-24 15:58:07.524517,98
2021-12-24 15:58:07.524526,91
2021-12-24 15:58:07.524536,77
2021-12-24 15:58:07.524546,61
2021-12-24 15:58:07.524555,49
2021-12-24 15:58:07.524565,35
2021-12-24 15:58:07.524574,16
2021-12-24 15:58:07.524584,-4
2021-12-24 15:58:07.524593,-25
2021-12-24 15:58:07.524603,-49
2021-12-24 15:58:07.524612,-73
2021-12-24 15:58:07.524622,-87
2021-12-24 15:58:07.793343,-91
2021-12-24 15:58:07.793365,-94
2021-12-24 15:58:07.793373,-96
2021-12-24 15:58:07.793382,-91
2021-12-24 15:58:07.793392,-70
2021-12-24 15:58:07.793402,-23
2021-12-24 15:58:07.793412,30
2021-12-24 15:58:07.793423,80
2021-12-24 15:58:07.793435,120
2021-12-24 15:58:07.793446,146
2021-12-24 15:58:07.793457,160
2021-12-24 15:58:07.793469,169
2021-12-24 15:58:07.793480,176
2021-12-24 15:58:07.793490,181
2021-12-24 15:58:07.793500,176
2021-12-24 15:58:07.793510,167
2021-12-24 15:58:07.793520,160
2021-12-24 15:58:07.793530,160
2021-12-24 15:58:07.793540,155
2021-12-24 15:58:07.793550,150
2021-12-24 15:58:07.793562,143
2021-12-24 15:58:07.793570,136
2021-12-24 15:58:07.793576,131
2021-12-24 15:58:07.793583,131
2021-12-24 15:58:07.793589,131
2021-12-24 15:58:07.793595,129
2021-12-24 15:58:07.793602,124
2021-12-24 15:58:07.793608,122
2021-12-24 15:58:07.793614,122
2021-12-24 15:58:07.793620,120
2021-12-24 15:58:07.974419,115
2021-12-24 15:58:07.974442,110
2021-12-24 15:58:07.974450,106
2021-12-24 15:58:07.974456,103
2021-12-24 15:58:07.974462,96
2021-12-24 15:58:07.974469,87
2021-12-24 15:58:07.974475,68
2021-12-24 15:58:07.974481,42
2021-12-24 15:58:07.974487,28
2021-12-24 15:58:07.974493,32
2021-12-24 15:58:07.974499,47
2021-12-24 15:58:07.974506,63
2021-12-24 15:58:07.974512,80
2021-12-24 15:58:07.974518,82
2021-12-24 15:58:07.974524,73
2021-12-24 15:58:07.974530,61
2021-12-24 15:58:07.974536,65
2021-12-24 15:58:07.974543,73
2021-12-24 15:58:07.974549,70
2021-12-24 15:58:07.974555,61
2021-12-24 15:58:07.974561,82
2021-12-24 15:58:07.974567,117
2021-12-24 15:58:07.974574,-37
2021-12-24 15:58:07.974580,-511
2021-12-24 15:58:07.974586,-845
2021-12-24 15:58:07.974592,-445
2021-12-24 15:58:07.974598,261
2021-12-24 15:58:07.974605,336
2021-12-24 15:58:07.974611,61
2021-12-24 15:58:07.974617,91
2021-12-24 15:58:08.199287,162
2021-12-24 15:58:08.199317,87
2021-12-24 15:58:08.199330,73
2021-12-24 15:58:08.199340,103
2021-12-24 15:58:08.199351,82
2021-12-24 15:58:08.199366,65
2021-12-24 15:58:08.199376,73
2021-12-24 15:58:08.199386,61
2021-12-24 15:58:08.199396,40
2021-12-24 15:58:08.199406,32
2021-12-24 15:58:08.199416,21
2021-12-24 15:58:08.199426,4
2021-12-24 15:58:08.199436,-9
2021-12-24 15:58:08.199447,-21
2021-12-24 15:58:08.199457,-44
2021-12-24 15:58:08.199467,-68
2021-12-24 15:58:08.199476,-91
2021-12-24 15:58:08.199486,-117
2021-12-24 15:58:08.199496,-143
2021-12-24 15:58:08.199506,-162
2021-12-24 15:58:08.199516,-174
2021-12-24 15:58:08.199526,-181
2021-12-24 15:58:08.199536,-183
2021-12-24 15:58:08.199545,-179
2021-12-24 15:58:08.199555,-162
2021-12-24 15:58:08.199565,-129
2021-12-24 15:58:08.199575,-82
2021-12-24 15:58:08.199585,-25
2021-12-24 15:58:08.199595,25
2021-12-24 15:58:08.199605,65
2021-12-24 15:58:08.468717,94
2021-12-24 15:58:08.468747,113
2021-12-24 15:58:08.468759,124
2021-12-24 15:58:08.468769,127
2021-12-24 15:58:08.468779,127
2021-12-24 15:58:08.468789,124
2021-12-24 15:58:08.468799,122
2021-12-24 15:58:08.468808,115
2021-12-24 15:58:08.468818,108
2021-12-24 15:58:08.468828,96
2021-12-24 15:58:08.468838,84
2021-12-24 15:58:08.468847,77
2021-12-24 15:58:08.468857,77
2021-12-24 15:58:08.468867,73
2021-12-24 15:58:08.468877,65
2021-12-24 15:58:08.468886,65
2021-12-24 15:58:08.468896,68
2021-12-24 15:58:08.468906,65
2021-12-24 15:58:08.468915,65
2021-12-24 15:58:08.468925,65
2021-12-24 15:58:08.468935,63
2021-12-24 15:58:08.468945,61
2021-12-24 15:58:08.468955,63
2021-12-24 15:58:08.468964,68
2021-12-24 15:58:08.468974,51
2021-12-24 15:58:08.468984,23
2021-12-24 15:58:08.468993,9
2021-12-24 15:58:08.469003,14
2021-12-24 15:58:08.469013,25
2021-12-24 15:58:08.469022,42
2021-12-24 15:58:08.695251,56
2021-12-24 15:58:08.695274,65
2021-12-24 15:58:08.695286,70
2021-12-24 15:58:08.695295,68
2021-12-24 15:58:08.695304,63
2021-12-24 15:58:08.695313,61
2021-12-24 15:58:08.695322,56
2021-12-24 15:58:08.695331,56
2021-12-24 15:58:08.695340,61
2021-12-24 15:58:08.695348,91
2021-12-24 15:58:08.695357,61
2021-12-24 15:58:08.695366,-270
2021-12-24 15:58:08.695375,-770
2021-12-24 15:58:08.695384,-744
2021-12-24 15:58:08.695392,-9
2021-12-24 15:58:08.695401,454
2021-12-24 15:58:08.695410,183
2021-12-24 15:58:08.695418,18
2021-12-24 15:58:08.695427,148
2021-12-24 15:58:08.695436,115
2021-12-24 15:58:08.695445,44
2021-12-24 15:58:08.695453,84
2021-12-24 15:58:08.695462,91
2021-12-24 15:58:08.695471,61
2021-12-24 15:58:08.695481,63
2021-12-24 15:58:08.695490,65
2021-12-24 15:58:08.695499,49
2021-12-24 15:58:08.695509,35
2021-12-24 15:58:08.695518,35
2021-12-24 15:58:08.695527,30
2021-12-24 15:58:08.874051,16
2021-12-24 15:58:08.874070,-2
2021-12-24 15:58:08.874077,-16
2021-12-24 15:58:08.874082,-37
2021-12-24 15:58:08.874087,-65
2021-12-24 15:58:08.874092,-89
2021-12-24 15:58:08.874097,-113
2021-12-24 15:58:08.874103,-136
2021-12-24 15:58:08.874108,-155
2021-12-24 15:58:08.874113,-162
2021-12-24 15:58:08.874117,-162
2021-12-24 15:58:08.874122,-160
2021-12-24 15:58:08.874127,-148
2021-12-24 15:58:08.874133,-117
2021-12-24 15:58:08.874138,-68
2021-12-24 15:58:08.874143,-16
2021-12-24 15:58:08.874148,30
2021-12-24 15:58:08.874153,80
2021-12-24 15:58:08.874159,115
2021-12-24 15:58:08.874163,131
2021-12-24 15:58:08.874169,143
2021-12-24 15:58:08.874174,148
2021-12-24 15:58:08.874179,150
2021-12-24 15:58:08.874184,153
2021-12-24 15:58:08.874189,150
2021-12-24 15:58:08.874194,150
2021-12-24 15:58:08.874199,153
2021-12-24 15:58:08.874204,150
2021-12-24 15:58:08.874209,143
2021-12-24 15:58:08.874214,136
2021-12-24 15:58:09.099785,134
2021-12-24 15:58:09.099825,136
2021-12-24 15:58:09.099838,131
2021-12-24 15:58:09.099848,127
2021-12-24 15:58:09.099858,124
2021-12-24 15:58:09.099868,120
2021-12-24 15:58:09.099878,113
2021-12-24 15:58:09.099888,115
2021-12-24 15:58:09.099898,122
2021-12-24 15:58:09.099908,120
2021-12-24 15:58:09.099918,113
2021-12-24 15:58:09.099928,110
2021-12-24 15:58:09.099938,113
2021-12-24 15:58:09.099948,98
2021-12-24 15:58:09.099958,70
2021-12-24 15:58:09.099967,54
2021-12-24 15:58:09.099977,65
2021-12-24 15:58:09.099987,80
2021-12-24 15:58:09.099997,96
2021-12-24 15:58:09.100007,110
2021-12-24 15:58:09.100017,115
2021-12-24 15:58:09.100027,115
2021-12-24 15:58:09.100037,115
2021-12-24 15:58:09.100047,115
2021-12-24 15:58:09.100057,117
2021-12-24 15:58:09.100066,115
2021-12-24 15:58:09.100076,113
2021-12-24 15:58:09.100086,139
2021-12-24 15:58:09.100096,167
2021-12-24 15:58:09.100106,-47
2021-12-24 15:58:09.324342,-558
2021-12-24 15:58:09.324373,-805
2021-12-24 15:58:09.324385,-273
2021-12-24 15:58:09.324396,407
2021-12-24 15:58:09.324406,358
2021-12-24 15:58:09.324416,89
2021-12-24 15:58:09.324425,171
2021-12-24 15:58:09.324435,216
2021-12-24 15:58:09.324445,131
2021-12-24 15:58:09.324455,141
2021-12-24 15:58:09.324465,167
2021-12-24 15:58:09.324474,136
2021-12-24 15:58:09.324484,129
2021-12-24 15:58:09.324494,141
2021-12-24 15:58:09.324504,129
2021-12-24 15:58:09.324514,117
2021-12-24 15:58:09.324524,113
2021-12-24 15:58:09.324533,103
2021-12-24 15:58:09.324543,89
2021-12-24 15:58:09.324553,77
2021-12-24 15:58:09.324563,61
2021-12-24 15:58:09.324572,35
2021-12-24 15:58:09.324582,7
2021-12-24 15:58:09.324592,-16
2021-12-24 15:58:09.324601,-37
2021-12-24 15:58:09.324611,-63
2021-12-24 15:58:09.324621,-82
2021-12-24 15:58:09.324631,-96
2021-12-24 15:58:09.324641,-101
2021-12-24 15:58:09.324651,-98
2021-12-24 15:58:09.594309,-91
2021-12-24 15:58:09.594339,-73
2021-12-24 15:58:09.594351,-32
2021-12-24 15:58:09.594361,18
2021-12-24 15:58:09.594371,68
2021-12-24 15:58:09.594381,117
2021-12-24 15:58:09.594390,157
2021-12-24 15:58:09.594400,181
2021-12-24 15:58:09.594410,193
2021-12-24 15:58:09.594420,195
2021-12-24 15:58:09.594429,193
2021-12-24 15:58:09.594439,197
2021-12-24 15:58:09.594449,197
2021-12-24 15:58:09.594459,193
2021-12-24 15:58:09.594468,188
2021-12-24 15:58:09.594478,179
2021-12-24 15:58:09.594488,169
2021-12-24 15:58:09.594498,171
2021-12-24 15:58:09.594507,167
2021-12-24 15:58:09.594517,153
2021-12-24 15:58:09.594527,150
2021-12-24 15:58:09.594536,150
2021-12-24 15:58:09.594546,141
2021-12-24 15:58:09.594556,139
2021-12-24 15:58:09.594565,146
2021-12-24 15:58:09.594575,141
2021-12-24 15:58:09.594585,131
2021-12-24 15:58:09.594594,122
2021-12-24 15:58:09.594604,122
2021-12-24 15:58:09.594614,120
2021-12-24 15:58:09.908427,115
2021-12-24 15:58:09.908457,115
2021-12-24 15:58:09.908469,113
2021-12-24 15:58:09.908479,115
2021-12-24 15:58:09.908489,115
2021-12-24 15:58:09.908498,108
2021-12-24 15:58:09.908508,77
2021-12-24 15:58:09.908518,56
2021-12-24 15:58:09.908528,63
2021-12-24 15:58:09.908537,75
2021-12-24 15:58:09.908547,82
2021-12-24 15:58:09.908557,96
2021-12-24 15:58:09.908566,108
2021-12-24 15:58:09.908576,108
2021-12-24 15:58:09.908586,106
2021-12-24 15:58:09.908596,101
2021-12-24 15:58:09.908605,101
2021-12-24 15:58:09.908615,101
2021-12-24 15:58:09.908625,96
2021-12-24 15:58:09.908634,103
2021-12-24 15:58:09.908644,141
2021-12-24 15:58:09.908654,103
2021-12-24 15:58:09.908663,-259
2021-12-24 15:58:09.908673,-768
2021-12-24 15:58:09.908683,-744
2021-12-24 15:58:09.908693,-40
2021-12-24 15:58:09.908702,417
2021-12-24 15:58:09.908712,197
2021-12-24 15:58:09.908722,61
2021-12-24 15:58:09.908732,183
2021-12-24 15:58:10.044780,157
2021-12-24 15:58:10.044810,94
2021-12-24 15:58:10.044822,124
2021-12-24 15:58:10.044832,127
2021-12-24 15:58:10.044842,98
2021-12-24 15:58:10.044852,101
2021-12-24 15:58:10.044862,103
2021-12-24 15:58:10.044871,87
2021-12-24 15:58:10.044881,70
2021-12-24 15:58:10.044891,61
2021-12-24 15:58:10.044901,51
2021-12-24 15:58:10.044916,37
2021-12-24 15:58:10.044925,23
2021-12-24 15:58:10.044935,7
2021-12-24 15:58:10.044945,-18
2021-12-24 15:58:10.044955,-42
2021-12-24 15:58:10.044964,-58
2021-12-24 15:58:10.044974,-84
2021-12-24 15:58:10.044984,-108
2021-12-24 15:58:10.044993,-124
2021-12-24 15:58:10.045003,-131
2021-12-24 15:58:10.045013,-134
2021-12-24 15:58:10.045023,-134
2021-12-24 15:58:10.045033,-124
2021-12-24 15:58:10.045042,-98
2021-12-24 15:58:10.045052,-56
2021-12-24 15:58:10.045062,-7
2021-12-24 15:58:10.045071,44
2021-12-24 15:58:10.045081,94
2021-12-24 15:58:10.045091,131
2021-12-24 15:58:10.269499,155
2021-12-24 15:58:10.269520,164
2021-12-24 15:58:10.269527,164
2021-12-24 15:58:10.269534,162
2021-12-24 15:58:10.269540,160
2021-12-24 15:58:10.269546,157
2021-12-24 15:58:10.269553,153
2021-12-24 15:58:10.269559,146
2021-12-24 15:58:10.269565,139
2021-12-24 15:58:10.269571,134
2021-12-24 15:58:10.269578,131
2021-12-24 15:58:10.269584,131
2021-12-24 15:58:10.269590,129
2021-12-24 15:58:10.269596,122
2021-12-24 15:58:10.269603,115
2021-12-24 15:58:10.269609,110
2021-12-24 15:58:10.269615,110
2021-12-24 15:58:10.269621,106
2021-12-24 15:58:10.269628,101
2021-12-24 15:58:10.269634,103
2021-12-24 15:58:10.269640,101
2021-12-24 15:58:10.269647,101
2021-12-24 15:58:10.269653,101
2021-12-24 15:58:10.269659,106
2021-12-24 15:58:10.269665,103
2021-12-24 15:58:10.269671,101
2021-12-24 15:58:10.269678,106
2021-12-24 15:58:10.269684,106
2021-12-24 15:58:10.269690,103
2021-12-24 15:58:10.269697,108
2021-12-24 15:58:10.494908,110
2021-12-24 15:58:10.494938,94
2021-12-24 15:58:10.494950,61
2021-12-24 15:58:10.494960,44
2021-12-24 15:58:10.494970,58
2021-12-24 15:58:10.494980,77
2021-12-24 15:58:10.494990,84
2021-12-24 15:58:10.494999,89
2021-12-24 15:58:10.495009,96
2021-12-24 15:58:10.495018,96
2021-12-24 15:58:10.495028,96
2021-12-24 15:58:10.495038,96
2021-12-24 15:58:10.495048,96
2021-12-24 15:58:10.495057,91
2021-12-24 15:58:10.495067,89
2021-12-24 15:58:10.495077,110
2021-12-24 15:58:10.495086,139
2021-12-24 15:58:10.495096,-35
2021-12-24 15:58:10.495106,-530
2021-12-24 15:58:10.495115,-890
2021-12-24 15:58:10.495125,-520
2021-12-24 15:58:10.495134,212
2021-12-24 15:58:10.495144,369
2021-12-24 15:58:10.495154,120
2021-12-24 15:58:10.495163,127
2021-12-24 15:58:10.495173,212
2021-12-24 15:58:10.495183,150
2021-12-24 15:58:10.495192,127
2021-12-24 15:58:10.495202,160
2021-12-24 15:58:10.495211,146
2021-12-24 15:58:10.719213,124
2021-12-24 15:58:10.719232,127
2021-12-24 15:58:10.719240,124
2021-12-24 15:58:10.719247,113
2021-12-24 15:58:10.719253,103
2021-12-24 15:58:10.719260,94
2021-12-24 15:58:10.719266,80
2021-12-24 15:58:10.719273,63
2021-12-24 15:58:10.719279,49
2021-12-24 15:58:10.719286,32
2021-12-24 15:58:10.719292,16
2021-12-24 15:58:10.719299,-7
2021-12-24 15:58:10.719305,-37
2021-12-24 15:58:10.719312,-58
2021-12-24 15:58:10.719318,-75
2021-12-24 15:58:10.719325,-89
2021-12-24 15:58:10.719331,-94
2021-12-24 15:58:10.719349,-96
2021-12-24 15:58:10.719355,-91
2021-12-24 15:58:10.719362,-77
2021-12-24 15:58:10.719368,-49
2021-12-24 15:58:10.719375,-4
2021-12-24 15:58:10.719381,42
2021-12-24 15:58:10.719387,84
2021-12-24 15:58:10.719394,124
2021-12-24 15:58:10.719400,157
2021-12-24 15:58:10.719407,174
2021-12-24 15:58:10.719413,181
2021-12-24 15:58:10.719419,183
2021-12-24 15:58:10.719426,181
2021-12-24 15:58:10.989184,176
2021-12-24 15:58:10.989214,171
2021-12-24 15:58:10.989225,169
2021-12-24 15:58:10.989235,164
2021-12-24 15:58:10.989245,157
2021-12-24 15:58:10.989255,150
2021-12-24 15:58:10.989265,141
2021-12-24 15:58:10.989274,131
2021-12-24 15:58:10.989284,124
2021-12-24 15:58:10.989294,122
2021-12-24 15:58:10.989303,117
2021-12-24 15:58:10.989313,113
2021-12-24 15:58:10.989322,113
2021-12-24 15:58:10.989332,115
2021-12-24 15:58:10.989342,110
2021-12-24 15:58:10.989351,106
2021-12-24 15:58:10.989361,108
2021-12-24 15:58:10.989371,106
2021-12-24 15:58:10.989380,103
2021-12-24 15:58:10.989390,108
2021-12-24 15:58:10.989400,110
2021-12-24 15:58:10.989409,108
2021-12-24 15:58:10.989419,110
2021-12-24 15:58:10.989429,110
2021-12-24 15:58:10.989438,108
2021-12-24 15:58:10.989448,106
2021-12-24 15:58:10.989458,110
2021-12-24 15:58:10.989468,113
2021-12-24 15:58:10.989477,110
2021-12-24 15:58:10.989487,106
2021-12-24 15:58:11.169308,87
2021-12-24 15:58:11.169339,56
2021-12-24 15:58:11.169351,56
2021-12-24 15:58:11.169361,75
2021-12-24 15:58:11.169371,82
2021-12-24 15:58:11.169381,89
2021-12-24 15:58:11.169391,103
2021-12-24 15:58:11.169401,106
2021-12-24 15:58:11.169416,103
2021-12-24 15:58:11.169426,106
2021-12-24 15:58:11.169436,101
2021-12-24 15:58:11.169446,91
2021-12-24 15:58:11.169455,91
2021-12-24 15:58:11.169465,103
2021-12-24 15:58:11.169475,139
2021-12-24 15:58:11.169485,82
2021-12-24 15:58:11.169495,-285
2021-12-24 15:58:11.169505,-756
2021-12-24 15:58:11.169515,-687
2021-12-24 15:58:11.169525,-11
2021-12-24 15:58:11.169535,384
2021-12-24 15:58:11.169545,186
2021-12-24 15:58:11.169555,89
2021-12-24 15:58:11.169566,202
2021-12-24 15:58:11.169575,174
2021-12-24 15:58:11.169585,122
2021-12-24 15:58:11.169595,155
2021-12-24 15:58:11.169605,150
2021-12-24 15:58:11.169615,124
2021-12-24 15:58:11.169625,134
2021-12-24 15:58:11.484307,136
2021-12-24 15:58:11.484337,120
2021-12-24 15:58:11.484349,120
2021-12-24 15:58:11.484359,106
2021-12-24 15:58:11.484368,75
2021-12-24 15:58:11.484378,65
2021-12-24 15:58:11.484388,63
2021-12-24 15:58:11.484397,49
2021-12-24 15:58:11.484407,28
2021-12-24 15:58:11.484417,7
2021-12-24 15:58:11.484427,-16
2021-12-24 15:58:11.484436,-35
2021-12-24 15:58:11.484446,-51
2021-12-24 15:58:11.484456,-80
2021-12-24 15:58:11.484465,-91
2021-12-24 15:58:11.484475,-89
2021-12-24 15:58:11.484485,-91
2021-12-24 15:58:11.484494,-87
2021-12-24 15:58:11.484504,-63
2021-12-24 15:58:11.484514,-30
2021-12-24 15:58:11.484523,11
2021-12-24 15:58:11.484533,56
2021-12-24 15:58:11.484543,96
2021-12-24 15:58:11.484552,131
2021-12-24 15:58:11.484562,155
2021-12-24 15:58:11.484572,167
2021-12-24 15:58:11.484581,167
2021-12-24 15:58:11.484591,164
2021-12-24 15:58:11.484600,162
2021-12-24 15:58:11.484610,162
2021-12-24 15:58:11.753618,162
2021-12-24 15:58:11.753648,162
2021-12-24 15:58:11.753660,160
2021-12-24 15:58:11.753670,146
2021-12-24 15:58:11.753680,136
2021-12-24 15:58:11.753689,136
2021-12-24 15:58:11.753699,136
2021-12-24 15:58:11.753709,134
2021-12-24 15:58:11.753718,129
2021-12-24 15:58:11.753728,124
2021-12-24 15:58:11.753737,122
2021-12-24 15:58:11.753747,122
2021-12-24 15:58:11.753757,122
2021-12-24 15:58:11.753766,122
2021-12-24 15:58:11.753776,117
2021-12-24 15:58:11.753786,113
2021-12-24 15:58:11.753796,113
2021-12-24 15:58:11.753805,117
2021-12-24 15:58:11.753815,117
2021-12-24 15:58:11.753824,117
2021-12-24 15:58:11.753834,115
2021-12-24 15:58:11.753844,103
2021-12-24 15:58:11.753853,103
2021-12-24 15:58:11.753863,110
2021-12-24 15:58:11.753873,108
2021-12-24 15:58:11.753883,106
2021-12-24 15:58:11.753892,106
2021-12-24 15:58:11.753902,110
2021-12-24 15:58:11.753912,113
2021-12-24 15:58:11.753921,94
2021-12-24 15:58:11.933362,61
2021-12-24 15:58:11.933404,58
2021-12-24 15:58:11.933415,77
2021-12-24 15:58:11.933425,87
2021-12-24 15:58:11.933435,98
2021-12-24 15:58:11.933444,110
2021-12-24 15:58:11.933454,110
2021-12-24 15:58:11.933464,110
2021-12-24 15:58:11.933473,110
2021-12-24 15:58:11.933483,108
2021-12-24 15:58:11.933492,108
2021-12-24 15:58:11.933502,108
2021-12-24 15:58:11.933512,113
2021-12-24 15:58:11.933521,146
2021-12-24 15:58:11.933531,108
2021-12-24 15:58:11.933541,-219
2021-12-24 15:58:11.933550,-683
2021-12-24 15:58:11.933560,-666
2021-12-24 15:58:11.933570,-35
2021-12-24 15:58:11.933579,367
2021-12-24 15:58:11.933589,181
2021-12-24 15:58:11.933598,75
2021-12-24 15:58:11.933608,188
2021-12-24 15:58:11.933618,167
2021-12-24 15:58:11.933627,115
2021-12-24 15:58:11.933637,143
2021-12-24 15:58:11.933646,143
2021-12-24 15:58:11.933656,117
2021-12-24 15:58:11.933665,122
2021-12-24 15:58:11.933675,120
2021-12-24 15:58:12.114281,106
2021-12-24 15:58:12.114312,94
2021-12-24 15:58:12.114324,87
2021-12-24 15:58:12.114334,73
2021-12-24 15:58:12.114344,58
2021-12-24 15:58:12.114354,47
2021-12-24 15:58:12.114364,32
2021-12-24 15:58:12.114374,7
2021-12-24 15:58:12.114384,-16
2021-12-24 15:58:12.114393,-35
2021-12-24 15:58:12.114403,-56
2021-12-24 15:58:12.114413,-75
2021-12-24 15:58:12.114423,-94
2021-12-24 15:58:12.114433,-108
2021-12-24 15:58:12.114443,-117
2021-12-24 15:58:12.114453,-117
2021-12-24 15:58:12.114462,-113
2021-12-24 15:58:12.114472,-101
2021-12-24 15:58:12.114482,-77
2021-12-24 15:58:12.114492,-37
2021-12-24 15:58:12.114501,7
2021-12-24 15:58:12.114511,49
2021-12-24 15:58:12.114521,82
2021-12-24 15:58:12.114531,108
2021-12-24 15:58:12.114541,120
2021-12-24 15:58:12.114550,124
2021-12-24 15:58:12.114560,127
2021-12-24 15:58:12.114570,124
2021-12-24 15:58:12.114580,120
2021-12-24 15:58:12.114590,120
2021-12-24 15:58:12.339268,117
2021-12-24 15:58:12.339297,113
2021-12-24 15:58:12.339309,110
2021-12-24 15:58:12.339319,108
2021-12-24 15:58:12.339329,106
2021-12-24 15:58:12.339338,106
2021-12-24 15:58:12.339348,101
2021-12-24 15:58:12.339357,98
2021-12-24 15:58:12.339367,96
2021-12-24 15:58:12.339376,96
2021-12-24 15:58:12.339386,96
2021-12-24 15:58:12.339395,91
2021-12-24 15:58:12.339404,89
2021-12-24 15:58:12.339414,89
2021-12-24 15:58:12.339424,91
2021-12-24 15:58:12.339433,94
2021-12-24 15:58:12.339443,96
2021-12-24 15:58:12.339452,98
2021-12-24 15:58:12.339462,98
2021-12-24 15:58:12.339471,98
2021-12-24 15:58:12.339481,101
2021-12-24 15:58:12.339490,101
2021-12-24 15:58:12.339500,103
2021-12-24 15:58:12.339514,103
2021-12-24 15:58:12.339524,101
2021-12-24 15:58:12.339534,101
2021-12-24 15:58:12.339543,103
2021-12-24 15:58:12.339553,82
2021-12-24 15:58:12.339563,54
2021-12-24 15:58:12.339572,54
2021-12-24 15:58:12.564711,75
2021-12-24 15:58:12.564741,84
2021-12-24 15:58:12.564753,94
2021-12-24 15:58:12.564763,110
2021-12-24 15:58:12.564772,115
2021-12-24 15:58:12.564782,113
2021-12-24 15:58:12.564792,108
2021-12-24 15:58:12.564801,108
2021-12-24 15:58:12.564811,108
2021-12-24 15:58:12.564821,103
2021-12-24 15:58:12.564830,108
2021-12-24 15:58:12.564840,143
2021-12-24 15:58:12.564850,98
2021-12-24 15:58:12.564860,-230
2021-12-24 15:58:12.564870,-673
2021-12-24 15:58:12.564879,-619
2021-12-24 15:58:12.564889,14
2021-12-24 15:58:12.564899,369
2021-12-24 15:58:12.564908,164
2021-12-24 15:58:12.564918,75
2021-12-24 15:58:12.564928,181
2021-12-24 15:58:12.564937,146
2021-12-24 15:58:12.564947,98
2021-12-24 15:58:12.564957,129
2021-12-24 15:58:12.564966,127
2021-12-24 15:58:12.564976,103
2021-12-24 15:58:12.564986,106
2021-12-24 15:58:12.564995,101
2021-12-24 15:58:12.565005,87
2021-12-24 15:58:12.565014,77
2021-12-24 15:58:12.789264,68
2021-12-24 15:58:12.789294,54
2021-12-24 15:58:12.789306,40
2021-12-24 15:58:12.789317,21
2021-12-24 15:58:12.789327,0
2021-12-24 15:58:12.789337,-18
2021-12-24 15:58:12.789347,-40
2021-12-24 15:58:12.789356,-56
2021-12-24 15:58:12.789366,-77
2021-12-24 15:58:12.789376,-96
2021-12-24 15:58:12.789386,-110
2021-12-24 15:58:12.789395,-122
2021-12-24 15:58:12.789405,-124
2021-12-24 15:58:12.789415,-120
2021-12-24 15:58:12.789425,-115
2021-12-24 15:58:12.789435,-106
2021-12-24 15:58:12.789445,-82
2021-12-24 15:58:12.789454,-42
2021-12-24 15:58:12.789464,2
2021-12-24 15:58:12.789474,47
2021-12-24 15:58:12.789484,82
2021-12-24 15:58:12.789493,103
2021-12-24 15:58:12.789503,117
2021-12-24 15:58:12.789513,124
2021-12-24 15:58:12.789523,127
2021-12-24 15:58:12.789533,129
2021-12-24 15:58:12.789542,127
2021-12-24 15:58:12.789552,122
2021-12-24 15:58:12.789562,122
2021-12-24 15:58:12.789571,117
2021-12-24 15:58:13.014694,110
2021-12-24 15:58:13.014723,108
2021-12-24 15:58:13.014734,108
2021-12-24 15:58:13.014744,103
2021-12-24 15:58:13.014754,98
2021-12-24 15:58:13.014763,96
2021-12-24 15:58:13.014773,96
2021-12-24 15:58:13.014783,98
2021-12-24 15:58:13.014792,96
2021-12-24 15:58:13.014802,94
2021-12-24 15:58:13.014811,91
2021-12-24 15:58:13.014821,91
2021-12-24 15:58:13.014831,96
2021-12-24 15:58:13.014840,98
2021-12-24 15:58:13.014850,101
2021-12-24 15:58:13.014859,103
2021-12-24 15:58:13.014869,103
2021-12-24 15:58:13.014878,101
2021-12-24 15:58:13.014888,98
2021-12-24 15:58:13.014898,103
2021-12-24 15:58:13.014907,106
2021-12-24 15:58:13.014917,103
2021-12-24 15:58:13.014926,106
2021-12-24 15:58:13.014936,110
2021-12-24 15:58:13.014945,101
2021-12-24 15:58:13.014955,77
2021-12-24 15:58:13.014964,61
2021-12-24 15:58:13.014974,65
2021-12-24 15:58:13.014984,80
2021-12-24 15:58:13.014993,91
2021-12-24 15:58:13.284269,103
2021-12-24 15:58:13.284289,115
2021-12-24 15:58:13.284297,117
2021-12-24 15:58:13.284304,110
2021-12-24 15:58:13.284310,103
2021-12-24 15:58:13.284316,103
2021-12-24 15:58:13.284323,106
2021-12-24 15:58:13.284329,101
2021-12-24 15:58:13.284335,115
2021-12-24 15:58:13.284341,148
2021-12-24 15:58:13.284348,16
2021-12-24 15:58:13.284354,-409
2021-12-24 15:58:13.284360,-737
2021-12-24 15:58:13.284367,-393
2021-12-24 15:58:13.284373,261
2021-12-24 15:58:13.284379,327
2021-12-24 15:58:13.284386,63
2021-12-24 15:58:13.284392,98
2021-12-24 15:58:13.284398,171
2021-12-24 15:58:13.284404,91
2021-12-24 15:58:13.284411,77
2021-12-24 15:58:13.284417,108
2021-12-24 15:58:13.284423,84
2021-12-24 15:58:13.284429,63
2021-12-24 15:58:13.284436,68
2021-12-24 15:58:13.284442,58
2021-12-24 15:58:13.284448,40
2021-12-24 15:58:13.284454,30
2021-12-24 15:58:13.284461,21
2021-12-24 15:58:13.284467,7
2021-12-24 15:58:13.510036,-9
2021-12-24 15:58:13.510099,-25
2021-12-24 15:58:13.510111,-44
2021-12-24 15:58:13.510121,-65
2021-12-24 15:58:13.510131,-87
2021-12-24 15:58:13.510141,-113
2021-12-24 15:58:13.510150,-139
2021-12-24 15:58:13.510160,-155
2021-12-24 15:58:13.510170,-171
2021-12-24 15:58:13.510179,-186
2021-12-24 15:58:13.510189,-186
2021-12-24 15:58:13.510199,-181
2021-12-24 15:58:13.510209,-174
2021-12-24 15:58:13.510218,-157
2021-12-24 15:58:13.510228,-129
2021-12-24 15:58:13.510238,-89
2021-12-24 15:58:13.510247,-42
2021-12-24 15:58:13.510257,0
2021-12-24 15:58:13.510267,28
2021-12-24 15:58:13.510277,51
2021-12-24 15:58:13.510287,65
2021-12-24 15:58:13.510296,68
2021-12-24 15:58:13.510306,65
2021-12-24 15:58:13.510316,68
2021-12-24 15:58:13.510326,63
2021-12-24 15:58:13.510336,58
2021-12-24 15:58:13.510346,56
2021-12-24 15:58:13.510356,54
2021-12-24 15:58:13.510365,49
2021-12-24 15:58:13.510375,44
2021-12-24 15:58:13.779096,44
2021-12-24 15:58:13.779125,47
2021-12-24 15:58:13.779137,44
2021-12-24 15:58:13.779148,42
2021-12-24 15:58:13.779157,42
2021-12-24 15:58:13.779167,44
2021-12-24 15:58:13.779177,42
2021-12-24 15:58:13.779186,42
2021-12-24 15:58:13.779196,37
2021-12-24 15:58:13.779206,35
2021-12-24 15:58:13.779215,35
2021-12-24 15:58:13.779225,40
2021-12-24 15:58:13.779234,40
2021-12-24 15:58:13.779244,37
2021-12-24 15:58:13.779254,37
2021-12-24 15:58:13.779263,32
2021-12-24 15:58:13.779273,16
2021-12-24 15:58:13.779283,-2
2021-12-24 15:58:13.779292,-4
2021-12-24 15:58:13.779302,4
2021-12-24 15:58:13.779312,11
2021-12-24 15:58:13.779321,21
2021-12-24 15:58:13.779331,35
2021-12-24 15:58:13.779340,47
2021-12-24 15:58:13.779350,47
2021-12-24 15:58:13.779359,40
2021-12-24 15:58:13.779369,40
2021-12-24 15:58:13.779379,42
2021-12-24 15:58:13.779389,37
2021-12-24 15:58:13.779403,37
2021-12-24 15:58:14.002900,65
2021-12-24 15:58:14.002921,65
2021-12-24 15:58:14.002929,-171
2021-12-24 15:58:14.002935,-633
2021-12-24 15:58:14.002942,-758
2021-12-24 15:58:14.002948,-153
2021-12-24 15:58:14.002955,431
2021-12-24 15:58:14.002961,254
2021-12-24 15:58:14.002967,-7
2021-12-24 15:58:14.002973,101
2021-12-24 15:58:14.002980,110
2021-12-24 15:58:14.002986,11
2021-12-24 15:58:14.002992,35
2021-12-24 15:58:14.002999,54
2021-12-24 15:58:14.003005,18
2021-12-24 15:58:14.003011,14
2021-12-24 15:58:14.003018,28
2021-12-24 15:58:14.003024,16
2021-12-24 15:58:14.003030,-2
2021-12-24 15:58:14.003036,-11
2021-12-24 15:58:14.003043,-21
2021-12-24 15:58:14.003049,-35
2021-12-24 15:58:14.003055,-47
2021-12-24 15:58:14.003061,-61
2021-12-24 15:58:14.003068,-82
2021-12-24 15:58:14.003074,-103
2021-12-24 15:58:14.003080,-124
2021-12-24 15:58:14.003086,-150
2021-12-24 15:58:14.003093,-174
2021-12-24 15:58:14.003099,-186
2021-12-24 15:58:14.229847,-195
2021-12-24 15:58:14.229877,-197
2021-12-24 15:58:14.229889,-193
2021-12-24 15:58:14.229899,-183
2021-12-24 15:58:14.229909,-169
2021-12-24 15:58:14.229919,-134
2021-12-24 15:58:14.229929,-87
2021-12-24 15:58:14.229939,-42
2021-12-24 15:58:14.229949,4
2021-12-24 15:58:14.229958,49
2021-12-24 15:58:14.229969,77
2021-12-24 15:58:14.229978,89
2021-12-24 15:58:14.229988,96
2021-12-24 15:58:14.229998,103
2021-12-24 15:58:14.230008,108
2021-12-24 15:58:14.230018,106
2021-12-24 15:58:14.230028,103
2021-12-24 15:58:14.230038,103
2021-12-24 15:58:14.230048,103
2021-12-24 15:58:14.230058,101
2021-12-24 15:58:14.230068,98
2021-12-24 15:58:14.230077,94
2021-12-24 15:58:14.230087,94
2021-12-24 15:58:14.230097,91
2021-12-24 15:58:14.230107,87
2021-12-24 15:58:14.230117,87
2021-12-24 15:58:14.230127,94
2021-12-24 15:58:14.230137,94
2021-12-24 15:58:14.230147,87
2021-12-24 15:58:14.230157,84
2021-12-24 15:58:14.409885,87
2021-12-24 15:58:14.409914,91
2021-12-24 15:58:14.409926,96
2021-12-24 15:58:14.409936,96
2021-12-24 15:58:14.409946,91
2021-12-24 15:58:14.409955,84
2021-12-24 15:58:14.409965,68
2021-12-24 15:58:14.409975,58
2021-12-24 15:58:14.409984,63
2021-12-24 15:58:14.409994,73
2021-12-24 15:58:14.410004,77
2021-12-24 15:58:14.410013,87
2021-12-24 15:58:14.410023,101
2021-12-24 15:58:14.410032,110
2021-12-24 15:58:14.410042,108
2021-12-24 15:58:14.410052,101
2021-12-24 15:58:14.410061,103
2021-12-24 15:58:14.410071,96
2021-12-24 15:58:14.410081,84
2021-12-24 15:58:14.410090,91
2021-12-24 15:58:14.410100,131
2021-12-24 15:58:14.410110,56
2021-12-24 15:58:14.410119,-325
2021-12-24 15:58:14.410129,-744
2021-12-24 15:58:14.410139,-541
2021-12-24 15:58:14.410148,197
2021-12-24 15:58:14.410158,461
2021-12-24 15:58:14.410168,146
2021-12-24 15:58:14.410177,80
2021-12-24 15:58:14.410187,195
2021-12-24 15:58:14.678807,129
2021-12-24 15:58:14.678837,89
2021-12-24 15:58:14.678849,136
2021-12-24 15:58:14.678859,120
2021-12-24 15:58:14.678869,87
2021-12-24 15:58:14.678878,96
2021-12-24 15:58:14.678888,94
2021-12-24 15:58:14.678898,73
2021-12-24 15:58:14.678907,63
2021-12-24 15:58:14.678917,61
2021-12-24 15:58:14.678926,49
2021-12-24 15:58:14.678936,28
2021-12-24 15:58:14.678946,11
2021-12-24 15:58:14.678956,2
2021-12-24 15:58:14.678965,-16
2021-12-24 15:58:14.678975,-42
2021-12-24 15:58:14.678984,-65
2021-12-24 15:58:14.678994,-91
2021-12-24 15:58:14.679004,-110
2021-12-24 15:58:14.679029,-127
2021-12-24 15:58:14.679039,-139
2021-12-24 15:58:14.679049,-146
2021-12-24 15:58:14.679058,-143
2021-12-24 15:58:14.679068,-134
2021-12-24 15:58:14.679078,-108
2021-12-24 15:58:14.679087,-65
2021-12-24 15:58:14.679097,-16
2021-12-24 15:58:14.679106,35
2021-12-24 15:58:14.679116,75
2021-12-24 15:58:14.679125,108
2021-12-24 15:58:14.904504,129
2021-12-24 15:58:14.904533,136
2021-12-24 15:58:14.904545,136
2021-12-24 15:58:14.904556,136
2021-12-24 15:58:14.904566,131
2021-12-24 15:58:14.904575,127
2021-12-24 15:58:14.904585,129
2021-12-24 15:58:14.904595,129
2021-12-24 15:58:14.904605,122
2021-12-24 15:58:14.904615,115
2021-12-24 15:58:14.904624,115
2021-12-24 15:58:14.904634,113
2021-12-24 15:58:14.904644,108
2021-12-24 15:58:14.904654,108
2021-12-24 15:58:14.904663,110
2021-12-24 15:58:14.904673,106
2021-12-24 15:58:14.904683,101
2021-12-24 15:58:14.904693,103
2021-12-24 15:58:14.904703,106
2021-12-24 15:58:14.904713,106
2021-12-24 15:58:14.904723,108
2021-12-24 15:58:14.904732,108
2021-12-24 15:58:14.904742,103
2021-12-24 15:58:14.904752,101
2021-12-24 15:58:14.904762,98
2021-12-24 15:58:14.904772,82
2021-12-24 15:58:14.904782,63
2021-12-24 15:58:14.904791,63
2021-12-24 15:58:14.904801,75
2021-12-24 15:58:14.904811,84
2021-12-24 15:58:15.129878,94
2021-12-24 15:58:15.129900,108
2021-12-24 15:58:15.129908,117
2021-12-24 15:58:15.129914,115
2021-12-24 15:58:15.129921,110
2021-12-24 15:58:15.129927,113
2021-12-24 15:58:15.129933,113
2021-12-24 15:58:15.129940,108
2021-12-24 15:58:15.129946,110
2021-12-24 15:58:15.129952,143
2021-12-24 15:58:15.129959,131
2021-12-24 15:58:15.129965,-169
2021-12-24 15:58:15.129972,-676
2021-12-24 15:58:15.129978,-735
2021-12-24 15:58:15.129985,-65
2021-12-24 15:58:15.129991,452
2021-12-24 15:58:15.129997,252
2021-12-24 15:58:15.130004,70
2021-12-24 15:58:15.130010,193
2021-12-24 15:58:15.130017,183
2021-12-24 15:58:15.130023,108
2021-12-24 15:58:15.130029,141
2021-12-24 15:58:15.130036,150
2021-12-24 15:58:15.130042,120
2021-12-24 15:58:15.130048,120
2021-12-24 15:58:15.130055,124
2021-12-24 15:58:15.130061,110
2021-12-24 15:58:15.130067,98
2021-12-24 15:58:15.130074,94
2021-12-24 15:58:15.130080,84
2021-12-24 15:58:15.399669,73
2021-12-24 15:58:15.399698,58
2021-12-24 15:58:15.399710,42
2021-12-24 15:58:15.399720,23
2021-12-24 15:58:15.399729,2
2021-12-24 15:58:15.399739,-23
2021-12-24 15:58:15.399748,-54
2021-12-24 15:58:15.399758,-75
2021-12-24 15:58:15.399767,-91
2021-12-24 15:58:15.399776,-110
2021-12-24 15:58:15.399786,-115
2021-12-24 15:58:15.399795,-108
2021-12-24 15:58:15.399804,-101
2021-12-24 15:58:15.399814,-82
2021-12-24 15:58:15.399823,-49
2021-12-24 15:58:15.399832,-4
2021-12-24 15:58:15.399841,42
2021-12-24 15:58:15.399851,84
2021-12-24 15:58:15.399860,117
2021-12-24 15:58:15.399869,136
2021-12-24 15:58:15.399879,146
2021-12-24 15:58:15.399888,150
2021-12-24 15:58:15.399897,150
2021-12-24 15:58:15.399907,150
2021-12-24 15:58:15.399916,150
2021-12-24 15:58:15.399925,148
2021-12-24 15:58:15.399935,143
2021-12-24 15:58:15.399944,136
2021-12-24 15:58:15.399958,131
2021-12-24 15:58:15.399967,124
2021-12-24 15:58:15.579679,122
2021-12-24 15:58:15.579709,122
2021-12-24 15:58:15.579721,120
2021-12-24 15:58:15.579732,115
2021-12-24 15:58:15.579742,115
2021-12-24 15:58:15.579752,115
2021-12-24 15:58:15.579761,117
2021-12-24 15:58:15.579771,117
2021-12-24 15:58:15.579781,113
2021-12-24 15:58:15.579791,113
2021-12-24 15:58:15.579801,117
2021-12-24 15:58:15.579811,120
2021-12-24 15:58:15.579821,122
2021-12-24 15:58:15.579831,124
2021-12-24 15:58:15.579841,115
2021-12-24 15:58:15.579851,98
2021-12-24 15:58:15.579861,82
2021-12-24 15:58:15.579871,80
2021-12-24 15:58:15.579881,94
2021-12-24 15:58:15.579891,103
2021-12-24 15:58:15.579901,108
2021-12-24 15:58:15.579910,122
2021-12-24 15:58:15.579920,134
2021-12-24 15:58:15.579930,131
2021-12-24 15:58:15.579940,129
2021-12-24 15:58:15.579950,131
2021-12-24 15:58:15.579960,127
2021-12-24 15:58:15.579970,122
2021-12-24 15:58:15.579980,127
2021-12-24 15:58:15.579989,164
2021-12-24 15:58:15.848727,167
2021-12-24 15:58:15.848748,-115
2021-12-24 15:58:15.848756,-650
2021-12-24 15:58:15.848762,-798
2021-12-24 15:58:15.848769,-186
2021-12-24 15:58:15.848775,419
2021-12-24 15:58:15.848782,308
2021-12-24 15:58:15.848788,91
2021-12-24 15:58:15.848794,190
2021-12-24 15:58:15.848800,209
2021-12-24 15:58:15.848806,131
2021-12-24 15:58:15.848813,150
2021-12-24 15:58:15.848819,167
2021-12-24 15:58:15.848825,131
2021-12-24 15:58:15.848831,124
2021-12-24 15:58:15.848838,131
2021-12-24 15:58:15.848844,120
2021-12-24 15:58:15.848850,110
2021-12-24 15:58:15.848856,103
2021-12-24 15:58:15.848863,94
2021-12-24 15:58:15.848869,80
2021-12-24 15:58:15.848875,65
2021-12-24 15:58:15.848881,49
2021-12-24 15:58:15.848887,32
2021-12-24 15:58:15.848894,11
2021-12-24 15:58:15.848900,-11
2021-12-24 15:58:15.848906,-37
2021-12-24 15:58:15.848912,-56
2021-12-24 15:58:15.848919,-75
2021-12-24 15:58:15.848925,-84
2021-12-24 15:58:16.073963,-91
2021-12-24 15:58:16.073986,-91
2021-12-24 15:58:16.073993,-87
2021-12-24 15:58:16.074000,-70
2021-12-24 15:58:16.074006,-44
2021-12-24 15:58:16.074012,-4
2021-12-24 15:58:16.074018,42
2021-12-24 15:58:16.074025,84
2021-12-24 15:58:16.074031,122
2021-12-24 15:58:16.074037,143
2021-12-24 15:58:16.074043,155
2021-12-24 15:58:16.074049,160
2021-12-24 15:58:16.074056,155
2021-12-24 15:58:16.074062,148
2021-12-24 15:58:16.074068,143
2021-12-24 15:58:16.074074,139
2021-12-24 15:58:16.074080,136
2021-12-24 15:58:16.074117,134
2021-12-24 15:58:16.074124,127
2021-12-24 15:58:16.074130,122
2021-12-24 15:58:16.074136,122
2021-12-24 15:58:16.074142,120
2021-12-24 15:58:16.074148,115
2021-12-24 15:58:16.074154,110
2021-12-24 15:58:16.074160,103
2021-12-24 15:58:16.074167,106
2021-12-24 15:58:16.074173,108
2021-12-24 15:58:16.074179,106
2021-12-24 15:58:16.074185,101
2021-12-24 15:58:16.074191,98
2021-12-24 15:58:16.254355,91
2021-12-24 15:58:16.254385,94
2021-12-24 15:58:16.254396,98
2021-12-24 15:58:16.254407,98
2021-12-24 15:58:16.254416,91
2021-12-24 15:58:16.254426,84
2021-12-24 15:58:16.254436,68
2021-12-24 15:58:16.254445,47
2021-12-24 15:58:16.254455,44
2021-12-24 15:58:16.254465,56
2021-12-24 15:58:16.254474,65
2021-12-24 15:58:16.254484,77
2021-12-24 15:58:16.254494,87
2021-12-24 15:58:16.254504,84
2021-12-24 15:58:16.254514,80
2021-12-24 15:58:16.254523,82
2021-12-24 15:58:16.254533,82
2021-12-24 15:58:16.254543,73
2021-12-24 15:58:16.254552,65
2021-12-24 15:58:16.254562,73
2021-12-24 15:58:16.254571,108
2021-12-24 15:58:16.254581,89
2021-12-24 15:58:16.254591,-228
2021-12-24 15:58:16.254600,-742
2021-12-24 15:58:16.254610,-784
2021-12-24 15:58:16.254620,-103
2021-12-24 15:58:16.254630,412
2021-12-24 15:58:16.254639,214
2021-12-24 15:58:16.254649,40
2021-12-24 15:58:16.254658,157
2021-12-24 15:58:16.568604,143
2021-12-24 15:58:16.568635,70
2021-12-24 15:58:16.568647,103
2021-12-24 15:58:16.568657,110
2021-12-24 15:58:16.568667,77
2021-12-24 15:58:16.568676,73
2021-12-24 15:58:16.568686,77
2021-12-24 15:58:16.568695,61
2021-12-24 15:58:16.568705,51
2021-12-24 15:58:16.568715,42
2021-12-24 15:58:16.568724,21
2021-12-24 15:58:16.568734,0
2021-12-24 15:58:16.568744,-11
2021-12-24 15:58:16.568754,-25
2021-12-24 15:58:16.568763,-47
2021-12-24 15:58:16.568773,-70
2021-12-24 15:58:16.568782,-96
2021-12-24 15:58:16.568792,-124
2021-12-24 15:58:16.568802,-143
2021-12-24 15:58:16.568811,-155
2021-12-24 15:58:16.568821,-169
2021-12-24 15:58:16.568830,-174
2021-12-24 15:58:16.568840,-164
2021-12-24 15:58:16.568849,-160
2021-12-24 15:58:16.568859,-148
2021-12-24 15:58:16.568869,-108
2021-12-24 15:58:16.568878,-49
2021-12-24 15:58:16.568888,2
2021-12-24 15:58:16.568898,44
2021-12-24 15:58:16.568907,84
2021-12-24 15:58:16.794341,108
2021-12-24 15:58:16.794370,117
2021-12-24 15:58:16.794382,117
2021-12-24 15:58:16.794391,122
2021-12-24 15:58:16.794401,120
2021-12-24 15:58:16.794411,108
2021-12-24 15:58:16.794420,103
2021-12-24 15:58:16.794430,106
2021-12-24 15:58:16.794439,108
2021-12-24 15:58:16.794449,101
2021-12-24 15:58:16.794458,91
2021-12-24 15:58:16.794467,84
2021-12-24 15:58:16.794477,87
2021-12-24 15:58:16.794486,84
2021-12-24 15:58:16.794496,75
2021-12-24 15:58:16.794505,70
2021-12-24 15:58:16.794515,68
2021-12-24 15:58:16.794524,61
2021-12-24 15:58:16.794534,54
2021-12-24 15:58:16.794543,56
2021-12-24 15:58:16.794553,56
2021-12-24 15:58:16.794562,56
2021-12-24 15:58:16.794572,58
2021-12-24 15:58:16.794581,61
2021-12-24 15:58:16.794590,49
2021-12-24 15:58:16.794600,25
2021-12-24 15:58:16.794609,11
2021-12-24 15:58:16.794619,21
2021-12-24 15:58:16.794628,37
2021-12-24 15:58:16.794638,49
2021-12-24 15:58:16.974398,63
2021-12-24 15:58:16.974419,77
2021-12-24 15:58:16.974427,77
2021-12-24 15:58:16.974433,68
2021-12-24 15:58:16.974440,70
2021-12-24 15:58:16.974446,75
2021-12-24 15:58:16.974452,70
2021-12-24 15:58:16.974459,70
2021-12-24 15:58:16.974465,80
2021-12-24 15:58:16.974471,113
2021-12-24 15:58:16.974478,21
2021-12-24 15:58:16.974484,-402
2021-12-24 15:58:16.974490,-848
2021-12-24 15:58:16.974497,-603
2021-12-24 15:58:16.974503,188
2021-12-24 15:58:16.974509,449
2021-12-24 15:58:16.974515,120
2021-12-24 15:58:16.974522,61
2021-12-24 15:58:16.974528,181
2021-12-24 15:58:16.974534,110
2021-12-24 15:58:16.974541,65
2021-12-24 15:58:16.974547,106
2021-12-24 15:58:16.974553,91
2021-12-24 15:58:16.974560,70
2021-12-24 15:58:16.974566,77
2021-12-24 15:58:16.974572,70
2021-12-24 15:58:16.974579,58
2021-12-24 15:58:16.974585,51
2021-12-24 15:58:16.974591,44
2021-12-24 15:58:16.974597,40
2021-12-24 15:58:17.199020,30
2021-12-24 15:58:17.199040,16
2021-12-24 15:58:17.199048,0
2021-12-24 15:58:17.199055,-21
2021-12-24 15:58:17.199061,-44
2021-12-24 15:58:17.199067,-65
2021-12-24 15:58:17.199073,-84
2021-12-24 15:58:17.199080,-106
2021-12-24 15:58:17.199086,-124
2021-12-24 15:58:17.199092,-136
2021-12-24 15:58:17.199098,-134
2021-12-24 15:58:17.199104,-124
2021-12-24 15:58:17.199111,-108
2021-12-24 15:58:17.199117,-82
2021-12-24 15:58:17.199123,-35
2021-12-24 15:58:17.199129,18
2021-12-24 15:58:17.199136,70
2021-12-24 15:58:17.199142,115
2021-12-24 15:58:17.199148,143
2021-12-24 15:58:17.199155,153
2021-12-24 15:58:17.199161,160
2021-12-24 15:58:17.199167,164
2021-12-24 15:58:17.199173,160
2021-12-24 15:58:17.199186,153
2021-12-24 15:58:17.199192,153
2021-12-24 15:58:17.199199,155
2021-12-24 15:58:17.199205,150
2021-12-24 15:58:17.199211,148
2021-12-24 15:58:17.199217,143
2021-12-24 15:58:17.199224,143
2021-12-24 15:58:17.424182,139
2021-12-24 15:58:17.424213,136
2021-12-24 15:58:17.424225,134
2021-12-24 15:58:17.424235,129
2021-12-24 15:58:17.424245,122
2021-12-24 15:58:17.424254,117
2021-12-24 15:58:17.424264,115
2021-12-24 15:58:17.424274,108
2021-12-24 15:58:17.424283,108
2021-12-24 15:58:17.424293,110
2021-12-24 15:58:17.424303,108
2021-12-24 15:58:17.424312,108
2021-12-24 15:58:17.424322,113
2021-12-24 15:58:17.424333,117
2021-12-24 15:58:17.424342,108
2021-12-24 15:58:17.424352,87
2021-12-24 15:58:17.424362,68
2021-12-24 15:58:17.424371,68
2021-12-24 15:58:17.424381,84
2021-12-24 15:58:17.424391,98
2021-12-24 15:58:17.424401,106
2021-12-24 15:58:17.424410,113
2021-12-24 15:58:17.424420,115
2021-12-24 15:58:17.424430,113
2021-12-24 15:58:17.424439,108
2021-12-24 15:58:17.424449,110
2021-12-24 15:58:17.424458,110
2021-12-24 15:58:17.424468,108
2021-12-24 15:58:17.424478,110
2021-12-24 15:58:17.424487,150
2021-12-24 15:58:17.649530,136
2021-12-24 15:58:17.649552,-190
2021-12-24 15:58:17.649560,-737
2021-12-24 15:58:17.649567,-822
2021-12-24 15:58:17.649573,-131
2021-12-24 15:58:17.649579,457
2021-12-24 15:58:17.649586,289
2021-12-24 15:58:17.649592,84
2021-12-24 15:58:17.649598,197
2021-12-24 15:58:17.649604,197
2021-12-24 15:58:17.649611,124
2021-12-24 15:58:17.649617,153
2021-12-24 15:58:17.649623,167
2021-12-24 15:58:17.649630,129
2021-12-24 15:58:17.649636,122
2021-12-24 15:58:17.649642,129
2021-12-24 15:58:17.649648,117
2021-12-24 15:58:17.649654,106
2021-12-24 15:58:17.649661,103
2021-12-24 15:58:17.649667,94
2021-12-24 15:58:17.649673,80
2021-12-24 15:58:17.649679,65
2021-12-24 15:58:17.649686,49
2021-12-24 15:58:17.649692,30
2021-12-24 15:58:17.649698,9
2021-12-24 15:58:17.649704,-18
2021-12-24 15:58:17.649710,-49
2021-12-24 15:58:17.649717,-68
2021-12-24 15:58:17.649723,-84
2021-12-24 15:58:17.649729,-96
2021-12-24 15:58:17.919635,-98
2021-12-24 15:58:17.919666,-98
2021-12-24 15:58:17.919677,-91
2021-12-24 15:58:17.919688,-73
2021-12-24 15:58:17.919698,-32
2021-12-24 15:58:17.919708,18
2021-12-24 15:58:17.919718,68
2021-12-24 15:58:17.919728,113
2021-12-24 15:58:17.919738,146
2021-12-24 15:58:17.919747,169
2021-12-24 15:58:17.919757,181
2021-12-24 15:58:17.919767,186
2021-12-24 15:58:17.919777,181
2021-12-24 15:58:17.919787,176
2021-12-24 15:58:17.919797,171
2021-12-24 15:58:17.919807,167
2021-12-24 15:58:17.919817,164
2021-12-24 15:58:17.919827,164
2021-12-24 15:58:17.919836,160
2021-12-24 15:58:17.919846,155
2021-12-24 15:58:17.919856,153
2021-12-24 15:58:17.919866,150
2021-12-24 15:58:17.919876,146
2021-12-24 15:58:17.919885,141
2021-12-24 15:58:17.919895,136
2021-12-24 15:58:17.919905,134
2021-12-24 15:58:17.919915,127
2021-12-24 15:58:17.919925,120
2021-12-24 15:58:17.919935,113
2021-12-24 15:58:17.919945,110
2021-12-24 15:58:18.233395,113
2021-12-24 15:58:18.233416,113
2021-12-24 15:58:18.233423,113
2021-12-24 15:58:18.233430,113
2021-12-24 15:58:18.233436,113
2021-12-24 15:58:18.233442,117
2021-12-24 15:58:18.233449,122
2021-12-24 15:58:18.233455,115
2021-12-24 15:58:18.233461,91
2021-12-24 15:58:18.233467,73
2021-12-24 15:58:18.233474,80
2021-12-24 15:58:18.233480,96
2021-12-24 15:58:18.233486,101
2021-12-24 15:58:18.233493,115
2021-12-24 15:58:18.233499,127
2021-12-24 15:58:18.233506,124
2021-12-24 15:58:18.233512,122
2021-12-24 15:58:18.233518,122
2021-12-24 15:58:18.233525,120
2021-12-24 15:58:18.233531,120
2021-12-24 15:58:18.233538,117
2021-12-24 15:58:18.233544,124
2021-12-24 15:58:18.233550,169
2021-12-24 15:58:18.233557,106
2021-12-24 15:58:18.233564,-301
2021-12-24 15:58:18.233570,-796
2021-12-24 15:58:18.233577,-680
2021-12-24 15:58:18.233583,63
2021-12-24 15:58:18.233589,464
2021-12-24 15:58:18.233596,219
2021-12-24 15:58:18.324088,106
2021-12-24 15:58:18.324112,226
2021-12-24 15:58:18.324120,195
2021-12-24 15:58:18.324126,141
2021-12-24 15:58:18.324133,174
2021-12-24 15:58:18.324139,174
2021-12-24 15:58:18.324145,148
2021-12-24 15:58:18.324151,150
2021-12-24 15:58:18.324158,153
2021-12-24 15:58:18.324164,136
2021-12-24 15:58:18.324170,127
2021-12-24 15:58:18.324177,122
2021-12-24 15:58:18.324183,110
2021-12-24 15:58:18.324189,98
2021-12-24 15:58:18.324196,84
2021-12-24 15:58:18.324202,68
2021-12-24 15:58:18.324208,44
2021-12-24 15:58:18.324214,18
2021-12-24 15:58:18.324221,-4
2021-12-24 15:58:18.324227,-25
2021-12-24 15:58:18.324234,-49
2021-12-24 15:58:18.324240,-68
2021-12-24 15:58:18.324246,-80
2021-12-24 15:58:18.324253,-84
2021-12-24 15:58:18.324259,-82
2021-12-24 15:58:18.324265,-70
2021-12-24 15:58:18.324271,-51
2021-12-24 15:58:18.324278,-14
2021-12-24 15:58:18.324284,37
2021-12-24 15:58:18.324290,87
2021-12-24 15:58:18.594910,129
2021-12-24 15:58:18.594940,157
2021-12-24 15:58:18.594952,167
2021-12-24 15:58:18.594962,164
2021-12-24 15:58:18.594972,162
2021-12-24 15:58:18.594982,162
2021-12-24 15:58:18.594992,164
2021-12-24 15:58:18.595002,162
2021-12-24 15:58:18.595011,160
2021-12-24 15:58:18.595021,157
2021-12-24 15:58:18.595031,148
2021-12-24 15:58:18.595041,139
2021-12-24 15:58:18.595051,129
2021-12-24 15:58:18.595061,129
2021-12-24 15:58:18.595070,127
2021-12-24 15:58:18.595080,117
2021-12-24 15:58:18.595090,113
2021-12-24 15:58:18.595099,120
2021-12-24 15:58:18.595109,120
2021-12-24 15:58:18.595119,113
2021-12-24 15:58:18.595129,108
2021-12-24 15:58:18.595155,106
2021-12-24 15:58:18.595165,103
2021-12-24 15:58:18.595175,101
2021-12-24 15:58:18.595185,101
2021-12-24 15:58:18.595195,98
2021-12-24 15:58:18.595204,101
2021-12-24 15:58:18.595214,101
2021-12-24 15:58:18.595224,91
2021-12-24 15:58:18.595234,89
2021-12-24 15:58:18.864085,94
2021-12-24 15:58:18.864104,96
2021-12-24 15:58:18.864112,96
2021-12-24 15:58:18.864118,80
2021-12-24 15:58:18.864125,44
2021-12-24 15:58:18.864132,25
2021-12-24 15:58:18.864138,44
2021-12-24 15:58:18.864145,63
2021-12-24 15:58:18.864151,73
2021-12-24 15:58:18.864157,77
2021-12-24 15:58:18.864164,77
2021-12-24 15:58:18.864170,77
2021-12-24 15:58:18.864177,80
2021-12-24 15:58:18.864183,75
2021-12-24 15:58:18.864190,73
2021-12-24 15:58:18.864196,70
2021-12-24 15:58:18.864203,65
2021-12-24 15:58:18.864209,87
2021-12-24 15:58:18.864216,120
2021-12-24 15:58:18.864222,-58
2021-12-24 15:58:18.864229,-556
2021-12-24 15:58:18.864235,-871
2021-12-24 15:58:18.864242,-414
2021-12-24 15:58:18.864248,310
2021-12-24 15:58:18.864255,346
2021-12-24 15:58:18.864261,56
2021-12-24 15:58:18.864267,98
2021-12-24 15:58:18.864274,162
2021-12-24 15:58:18.864280,80
2021-12-24 15:58:18.864287,73
2021-12-24 15:58:19.089283,101
2021-12-24 15:58:19.089313,77
2021-12-24 15:58:19.089325,68
2021-12-24 15:58:19.089335,70
2021-12-24 15:58:19.089345,58
2021-12-24 15:58:19.089355,51
2021-12-24 15:58:19.089364,44
2021-12-24 15:58:19.089374,25
2021-12-24 15:58:19.089384,7
2021-12-24 15:58:19.089393,-11
2021-12-24 15:58:19.089403,-23
2021-12-24 15:58:19.089412,-37
2021-12-24 15:58:19.089422,-61
2021-12-24 15:58:19.089431,-84
2021-12-24 15:58:19.089441,-115
2021-12-24 15:58:19.089450,-143
2021-12-24 15:58:19.089460,-155
2021-12-24 15:58:19.089469,-164
2021-12-24 15:58:19.089478,-176
2021-12-24 15:58:19.089488,-174
2021-12-24 15:58:19.089497,-169
2021-12-24 15:58:19.089507,-164
2021-12-24 15:58:19.089516,-139
2021-12-24 15:58:19.089526,-94
2021-12-24 15:58:19.089535,-40
2021-12-24 15:58:19.089544,11
2021-12-24 15:58:19.089554,56
2021-12-24 15:58:19.089563,89
2021-12-24 15:58:19.089573,108
2021-12-24 15:58:19.089582,117
2021-12-24 15:58:19.404183,122
2021-12-24 15:58:19.404213,124
2021-12-24 15:58:19.404224,117
2021-12-24 15:58:19.404234,110
2021-12-24 15:58:19.404244,110
2021-12-24 15:58:19.404254,110
2021-12-24 15:58:19.404263,101
2021-12-24 15:58:19.404273,94
2021-12-24 15:58:19.404283,94
2021-12-24 15:58:19.404292,89
2021-12-24 15:58:19.404302,84
2021-12-24 15:58:19.404312,84
2021-12-24 15:58:19.404322,80
2021-12-24 15:58:19.404331,73
2021-12-24 15:58:19.404341,70
2021-12-24 15:58:19.404351,75
2021-12-24 15:58:19.404360,75
2021-12-24 15:58:19.404375,75
2021-12-24 15:58:19.404385,75
2021-12-24 15:58:19.404395,75
2021-12-24 15:58:19.404405,73
2021-12-24 15:58:19.404414,75
2021-12-24 15:58:19.404424,80
2021-12-24 15:58:19.404434,80
2021-12-24 15:58:19.404444,75
2021-12-24 15:58:19.404454,61
2021-12-24 15:58:19.404464,42
2021-12-24 15:58:19.404473,40
2021-12-24 15:58:19.404483,61
2021-12-24 15:58:19.404493,77
2021-12-24 15:58:19.539270,87
2021-12-24 15:58:19.539299,96
2021-12-24 15:58:19.539311,103
2021-12-24 15:58:19.539321,106
2021-12-24 15:58:19.539330,106
2021-12-24 15:58:19.539340,103
2021-12-24 15:58:19.539350,103
2021-12-24 15:58:19.539359,103
2021-12-24 15:58:19.539369,108
2021-12-24 15:58:19.539379,141
2021-12-24 15:58:19.539388,127
2021-12-24 15:58:19.539398,-174
2021-12-24 15:58:19.539408,-676
2021-12-24 15:58:19.539417,-725
2021-12-24 15:58:19.539427,-35
2021-12-24 15:58:19.539437,497
2021-12-24 15:58:19.539446,268
2021-12-24 15:58:19.539456,65
2021-12-24 15:58:19.539466,195
2021-12-24 15:58:19.539475,179
2021-12-24 15:58:19.539485,98
2021-12-24 15:58:19.539494,136
2021-12-24 15:58:19.539504,150
2021-12-24 15:58:19.539514,115
2021-12-24 15:58:19.539523,117
2021-12-24 15:58:19.539533,122
2021-12-24 15:58:19.539542,106
2021-12-24 15:58:19.539552,98
2021-12-24 15:58:19.539561,91
2021-12-24 15:58:19.539571,82
2021-12-24 15:58:19.719250,75
2021-12-24 15:58:19.719279,63
2021-12-24 15:58:19.719291,44
2021-12-24 15:58:19.719301,23
2021-12-24 15:58:19.719311,4
2021-12-24 15:58:19.719321,-18
2021-12-24 15:58:19.719330,-47
2021-12-24 15:58:19.719340,-75
2021-12-24 15:58:19.719349,-91
2021-12-24 15:58:19.719359,-98
2021-12-24 15:58:19.719369,-98
2021-12-24 15:58:19.719378,-94
2021-12-24 15:58:19.719388,-91
2021-12-24 15:58:19.719398,-75
2021-12-24 15:58:19.719407,-35
2021-12-24 15:58:19.719417,21
2021-12-24 15:58:19.719427,75
2021-12-24 15:58:19.719436,122
2021-12-24 15:58:19.719446,155
2021-12-24 15:58:19.719455,174
2021-12-24 15:58:19.719465,186
2021-12-24 15:58:19.719474,190
2021-12-24 15:58:19.719484,190
2021-12-24 15:58:19.719494,188
2021-12-24 15:58:19.719503,183
2021-12-24 15:58:19.719513,176
2021-12-24 15:58:19.719522,174
2021-12-24 15:58:19.719532,171
2021-12-24 15:58:19.719542,167
2021-12-24 15:58:19.719551,162
2021-12-24 15:58:19.944690,157
2021-12-24 15:58:19.944720,155
2021-12-24 15:58:19.944732,153
2021-12-24 15:58:19.944742,150
2021-12-24 15:58:19.944752,148
2021-12-24 15:58:19.944762,146
2021-12-24 15:58:19.944772,143
2021-12-24 15:58:19.944782,143
2021-12-24 15:58:19.944792,143
2021-12-24 15:58:19.944801,143
2021-12-24 15:58:19.944811,141
2021-12-24 15:58:19.944821,141
2021-12-24 15:58:19.944831,139
2021-12-24 15:58:19.944841,139
2021-12-24 15:58:19.944851,139
2021-12-24 15:58:19.944860,136
2021-12-24 15:58:19.944870,139
2021-12-24 15:58:19.944880,146
2021-12-24 15:58:19.944890,146
2021-12-24 15:58:19.944900,136
2021-12-24 15:58:19.944910,110
2021-12-24 15:58:19.944920,87
2021-12-24 15:58:19.944929,94
2021-12-24 15:58:19.944939,113
2021-12-24 15:58:19.944949,127
2021-12-24 15:58:19.944959,143
2021-12-24 15:58:19.944969,155
2021-12-24 15:58:19.944979,155
2021-12-24 15:58:19.944989,153
2021-12-24 15:58:19.944999,155
2021-12-24 15:58:20.213375,155
2021-12-24 15:58:20.213405,155
2021-12-24 15:58:20.213416,155
2021-12-24 15:58:20.213426,162
2021-12-24 15:58:20.213436,197
2021-12-24 15:58:20.213446,134
2021-12-24 15:58:20.213456,-256
2021-12-24 15:58:20.213466,-739
2021-12-24 15:58:20.213476,-643
2021-12-24 15:58:20.213485,73
2021-12-24 15:58:20.213495,471
2021-12-24 15:58:20.213505,240
2021-12-24 15:58:20.213514,127
2021-12-24 15:58:20.213524,242
2021-12-24 15:58:20.213534,214
2021-12-24 15:58:20.213543,157
2021-12-24 15:58:20.213553,186
2021-12-24 15:58:20.213563,181
2021-12-24 15:58:20.213572,157
2021-12-24 15:58:20.213582,162
2021-12-24 15:58:20.213592,162
2021-12-24 15:58:20.213601,146
2021-12-24 15:58:20.213611,136
2021-12-24 15:58:20.213621,131
2021-12-24 15:58:20.213630,122
2021-12-24 15:58:20.213640,110
2021-12-24 15:58:20.213649,96
2021-12-24 15:58:20.213659,77
2021-12-24 15:58:20.213669,58
2021-12-24 15:58:20.213678,37
2021-12-24 15:58:20.438385,14
2021-12-24 15:58:20.438415,-11
2021-12-24 15:58:20.438426,-37
2021-12-24 15:58:20.438436,-56
2021-12-24 15:58:20.438446,-70
2021-12-24 15:58:20.438455,-75
2021-12-24 15:58:20.438465,-75
2021-12-24 15:58:20.438475,-68
2021-12-24 15:58:20.438484,-49
2021-12-24 15:58:20.438494,-16
2021-12-24 15:58:20.438503,28
2021-12-24 15:58:20.438513,75
2021-12-24 15:58:20.438522,120
2021-12-24 15:58:20.438532,150
2021-12-24 15:58:20.438542,171
2021-12-24 15:58:20.438551,176
2021-12-24 15:58:20.438561,179
2021-12-24 15:58:20.438570,181
2021-12-24 15:58:20.438579,179
2021-12-24 15:58:20.438589,171
2021-12-24 15:58:20.438598,167
2021-12-24 15:58:20.438608,164
2021-12-24 15:58:20.438617,157
2021-12-24 15:58:20.438627,155
2021-12-24 15:58:20.438637,155
2021-12-24 15:58:20.438646,150
2021-12-24 15:58:20.438655,141
2021-12-24 15:58:20.438665,139
2021-12-24 15:58:20.438675,136
2021-12-24 15:58:20.438684,134
2021-12-24 15:58:20.664676,134
2021-12-24 15:58:20.664707,134
2021-12-24 15:58:20.664719,134
2021-12-24 15:58:20.664729,129
2021-12-24 15:58:20.664738,124
2021-12-24 15:58:20.664748,124
2021-12-24 15:58:20.664758,129
2021-12-24 15:58:20.664767,129
2021-12-24 15:58:20.664777,129
2021-12-24 15:58:20.664787,127
2021-12-24 15:58:20.664797,124
2021-12-24 15:58:20.664806,129
2021-12-24 15:58:20.664816,131
2021-12-24 15:58:20.664825,129
2021-12-24 15:58:20.664835,127
2021-12-24 15:58:20.664845,131
2021-12-24 15:58:20.664854,134
2021-12-24 15:58:20.664864,120
2021-12-24 15:58:20.664874,91
2021-12-24 15:58:20.664883,77
2021-12-24 15:58:20.664893,91
2021-12-24 15:58:20.664903,101
2021-12-24 15:58:20.664912,110
2021-12-24 15:58:20.664922,122
2021-12-24 15:58:20.664931,129
2021-12-24 15:58:20.664941,129
2021-12-24 15:58:20.664951,129
2021-12-24 15:58:20.664960,127
2021-12-24 15:58:20.664970,124
2021-12-24 15:58:20.664980,124
2021-12-24 15:58:20.933864,124
2021-12-24 15:58:20.933893,155
2021-12-24 15:58:20.933904,167
2021-12-24 15:58:20.933915,-73
2021-12-24 15:58:20.933926,-579
2021-12-24 15:58:20.933935,-784
2021-12-24 15:58:20.933945,-254
2021-12-24 15:58:20.933955,374
2021-12-24 15:58:20.933965,327
2021-12-24 15:58:20.933974,96
2021-12-24 15:58:20.933984,176
2021-12-24 15:58:20.933993,216
2021-12-24 15:58:20.934003,143
2021-12-24 15:58:20.934013,153
2021-12-24 15:58:20.934023,171
2021-12-24 15:58:20.934032,141
2021-12-24 15:58:20.934042,129
2021-12-24 15:58:20.934052,139
2021-12-24 15:58:20.934061,127
2021-12-24 15:58:20.934071,115
2021-12-24 15:58:20.934081,108
2021-12-24 15:58:20.934090,94
2021-12-24 15:58:20.934100,75
2021-12-24 15:58:20.934110,61
2021-12-24 15:58:20.934119,49
2021-12-24 15:58:20.934129,28
2021-12-24 15:58:20.934139,4
2021-12-24 15:58:20.934149,-16
2021-12-24 15:58:20.934159,-35
2021-12-24 15:58:20.934168,-58
2021-12-24 15:58:21.114237,-75
2021-12-24 15:58:21.114267,-89
2021-12-24 15:58:21.114279,-103
2021-12-24 15:58:21.114289,-113
2021-12-24 15:58:21.114299,-108
2021-12-24 15:58:21.114308,-96
2021-12-24 15:58:21.114318,-75
2021-12-24 15:58:21.114328,-37
2021-12-24 15:58:21.114337,7
2021-12-24 15:58:21.114347,47
2021-12-24 15:58:21.114357,87
2021-12-24 15:58:21.114366,113
2021-12-24 15:58:21.114376,124
2021-12-24 15:58:21.114386,129
2021-12-24 15:58:21.114396,131
2021-12-24 15:58:21.114406,131
2021-12-24 15:58:21.114415,127
2021-12-24 15:58:21.114425,122
2021-12-24 15:58:21.114434,117
2021-12-24 15:58:21.114444,117
2021-12-24 15:58:21.114454,113
2021-12-24 15:58:21.114463,106
2021-12-24 15:58:21.114473,106
2021-12-24 15:58:21.114483,103
2021-12-24 15:58:21.114493,96
2021-12-24 15:58:21.114502,87
2021-12-24 15:58:21.114512,89
2021-12-24 15:58:21.114522,94
2021-12-24 15:58:21.114531,87
2021-12-24 15:58:21.114541,82
2021-12-24 15:58:21.474686,84
2021-12-24 15:58:21.474716,84
2021-12-24 15:58:21.474727,82
2021-12-24 15:58:21.474737,80
2021-12-24 15:58:21.474747,77
2021-12-24 15:58:21.474757,80
2021-12-24 15:58:21.474766,82
2021-12-24 15:58:21.474776,75
2021-12-24 15:58:21.474785,73
2021-12-24 15:58:21.474795,75
2021-12-24 15:58:21.474805,70
2021-12-24 15:58:21.474814,68
2021-12-24 15:58:21.474824,73
2021-12-24 15:58:21.474834,68
2021-12-24 15:58:21.474843,51
2021-12-24 15:58:21.474853,32
2021-12-24 15:58:21.474863,18
2021-12-24 15:58:21.474872,25
2021-12-24 15:58:21.474882,42
2021-12-24 15:58:21.474891,58
2021-12-24 15:58:21.474901,70
2021-12-24 15:58:21.474911,73
2021-12-24 15:58:21.474920,75
2021-12-24 15:58:21.474930,75
2021-12-24 15:58:21.474940,70
2021-12-24 15:58:21.474949,65
2021-12-24 15:58:21.474959,65
2021-12-24 15:58:21.474968,61
2021-12-24 15:58:21.474978,73
2021-12-24 15:58:21.474988,103
2021-12-24 15:58:21.564689,-28
2021-12-24 15:58:21.564719,-471
2021-12-24 15:58:21.564732,-815
2021-12-24 15:58:21.564742,-438
2021-12-24 15:58:21.564751,287
2021-12-24 15:58:21.564761,376
2021-12-24 15:58:21.564771,68
2021-12-24 15:58:21.564781,80
2021-12-24 15:58:21.564791,150
2021-12-24 15:58:21.564800,68
2021-12-24 15:58:21.564810,63
2021-12-24 15:58:21.564820,101
2021-12-24 15:58:21.564830,73
2021-12-24 15:58:21.564840,54
2021-12-24 15:58:21.564855,58
2021-12-24 15:58:21.564865,47
2021-12-24 15:58:21.564874,32
2021-12-24 15:58:21.564884,28
2021-12-24 15:58:21.564894,16
2021-12-24 15:58:21.564904,9
2021-12-24 15:58:21.564914,-2
2021-12-24 15:58:21.564923,-23
2021-12-24 15:58:21.564933,-44
2021-12-24 15:58:21.564943,-63
2021-12-24 15:58:21.564953,-87
2021-12-24 15:58:21.564962,-110
2021-12-24 15:58:21.564972,-131
2021-12-24 15:58:21.564982,-155
2021-12-24 15:58:21.564992,-179
2021-12-24 15:58:21.565001,-190
2021-12-24 15:58:21.788575,-193
2021-12-24 15:58:21.788595,-190
2021-12-24 15:58:21.788603,-179
2021-12-24 15:58:21.788609,-157
2021-12-24 15:58:21.788616,-120
2021-12-24 15:58:21.788622,-73
2021-12-24 15:58:21.788628,-25
2021-12-24 15:58:21.788634,23
2021-12-24 15:58:21.788641,63
2021-12-24 15:58:21.788647,80
2021-12-24 15:58:21.788653,87
2021-12-24 15:58:21.788659,94
2021-12-24 15:58:21.788666,96
2021-12-24 15:58:21.788672,94
2021-12-24 15:58:21.788678,91
2021-12-24 15:58:21.788684,89
2021-12-24 15:58:21.788691,89
2021-12-24 15:58:21.788697,87
2021-12-24 15:58:21.788703,82
2021-12-24 15:58:21.788710,80
2021-12-24 15:58:21.788716,80
2021-12-24 15:58:21.788722,77
2021-12-24 15:58:21.788728,73
2021-12-24 15:58:21.788734,70
2021-12-24 15:58:21.788741,75
2021-12-24 15:58:21.788747,77
2021-12-24 15:58:21.788753,75
2021-12-24 15:58:21.788760,75
2021-12-24 15:58:21.788766,77
2021-12-24 15:58:21.788772,75
2021-12-24 15:58:22.014757,77
2021-12-24 15:58:22.014787,75
2021-12-24 15:58:22.014799,75
2021-12-24 15:58:22.014810,77
2021-12-24 15:58:22.014819,77
2021-12-24 15:58:22.014829,73
2021-12-24 15:58:22.014839,70
2021-12-24 15:58:22.014849,58
2021-12-24 15:58:22.014858,42
2021-12-24 15:58:22.014868,35
2021-12-24 15:58:22.014878,44
2021-12-24 15:58:22.014888,58
2021-12-24 15:58:22.014898,70
2021-12-24 15:58:22.014908,84
2021-12-24 15:58:22.014918,89
2021-12-24 15:58:22.014928,80
2021-12-24 15:58:22.014937,82
2021-12-24 15:58:22.014947,84
2021-12-24 15:58:22.014957,82
2021-12-24 15:58:22.014967,80
2021-12-24 15:58:22.014977,82
2021-12-24 15:58:22.014986,117
2021-12-24 15:58:22.014996,101
2021-12-24 15:58:22.015006,-204
2021-12-24 15:58:22.015016,-690
2021-12-24 15:58:22.015026,-697
2021-12-24 15:58:22.015036,0
2021-12-24 15:58:22.015046,487
2021-12-24 15:58:22.015056,240
2021-12-24 15:58:22.015065,54
2021-12-24 15:58:22.372303,181
2021-12-24 15:58:22.372323,162
2021-12-24 15:58:22.372331,87
2021-12-24 15:58:22.372338,120
2021-12-24 15:58:22.372344,124
2021-12-24 15:58:22.372350,89
2021-12-24 15:58:22.372357,91
2021-12-24 15:58:22.372363,98
2021-12-24 15:58:22.372369,84
2021-12-24 15:58:22.372376,77
2021-12-24 15:58:22.372384,68
2021-12-24 15:58:22.372395,47
2021-12-24 15:58:22.372403,32
2021-12-24 15:58:22.372410,28
2021-12-24 15:58:22.372416,14
2021-12-24 15:58:22.372422,-9
2021-12-24 15:58:22.372429,-32
2021-12-24 15:58:22.372435,-54
2021-12-24 15:58:22.372441,-77
2021-12-24 15:58:22.372447,-98
2021-12-24 15:58:22.372454,-117
2021-12-24 15:58:22.372460,-131
2021-12-24 15:58:22.372467,-131
2021-12-24 15:58:22.372478,-131
2021-12-24 15:58:22.372485,-127
2021-12-24 15:58:22.372491,-108
2021-12-24 15:58:22.372497,-70
2021-12-24 15:58:22.372503,-21
2021-12-24 15:58:22.372509,30
2021-12-24 15:58:22.372516,77
2021-12-24 15:58:22.554306,115
2021-12-24 15:58:22.554337,139
2021-12-24 15:58:22.554349,150
2021-12-24 15:58:22.554359,153
2021-12-24 15:58:22.554369,155
2021-12-24 15:58:22.554379,155
2021-12-24 15:58:22.554389,150
2021-12-24 15:58:22.554399,150
2021-12-24 15:58:22.554409,148
2021-12-24 15:58:22.554418,139
2021-12-24 15:58:22.554428,131
2021-12-24 15:58:22.554438,136
2021-12-24 15:58:22.554448,136
2021-12-24 15:58:22.554458,129
2021-12-24 15:58:22.554468,124
2021-12-24 15:58:22.554478,122
2021-12-24 15:58:22.554487,120
2021-12-24 15:58:22.554497,120
2021-12-24 15:58:22.554507,122
2021-12-24 15:58:22.554517,122
2021-12-24 15:58:22.554526,115
2021-12-24 15:58:22.554536,106
2021-12-24 15:58:22.554546,106
2021-12-24 15:58:22.554572,110
2021-12-24 15:58:22.554582,113
2021-12-24 15:58:22.554592,115
2021-12-24 15:58:22.554601,115
2021-12-24 15:58:22.554611,113
2021-12-24 15:58:22.554621,110
2021-12-24 15:58:22.554630,117
2021-12-24 15:58:22.779943,120
2021-12-24 15:58:22.779973,108
2021-12-24 15:58:22.779984,87
2021-12-24 15:58:22.779994,77
2021-12-24 15:58:22.780004,84
2021-12-24 15:58:22.780013,101
2021-12-24 15:58:22.780023,110
2021-12-24 15:58:22.780033,115
2021-12-24 15:58:22.780043,122
2021-12-24 15:58:22.780052,122
2021-12-24 15:58:22.780062,117
2021-12-24 15:58:22.780072,122
2021-12-24 15:58:22.780082,124
2021-12-24 15:58:22.780091,122
2021-12-24 15:58:22.780101,120
2021-12-24 15:58:22.780111,143
2021-12-24 15:58:22.780121,169
2021-12-24 15:58:22.780131,-35
2021-12-24 15:58:22.780141,-534
2021-12-24 15:58:22.780150,-796
2021-12-24 15:58:22.780160,-301
2021-12-24 15:58:22.780170,369
2021-12-24 15:58:22.780180,358
2021-12-24 15:58:22.780190,98
2021-12-24 15:58:22.780200,167
2021-12-24 15:58:22.780209,221
2021-12-24 15:58:22.780219,139
2021-12-24 15:58:22.780229,139
2021-12-24 15:58:22.780238,167
2021-12-24 15:58:22.780248,141
2021-12-24 15:58:22.958996,131
2021-12-24 15:58:22.959017,139
2021-12-24 15:58:22.959025,122
2021-12-24 15:58:22.959031,106
2021-12-24 15:58:22.959038,103
2021-12-24 15:58:22.959044,94
2021-12-24 15:58:22.959050,77
2021-12-24 15:58:22.959057,65
2021-12-24 15:58:22.959063,54
2021-12-24 15:58:22.959069,30
2021-12-24 15:58:22.959075,4
2021-12-24 15:58:22.959081,-18
2021-12-24 15:58:22.959088,-37
2021-12-24 15:58:22.959094,-58
2021-12-24 15:58:22.959100,-94
2021-12-24 15:58:22.959106,-122
2021-12-24 15:58:22.959113,-124
2021-12-24 15:58:22.959119,-117
2021-12-24 15:58:22.959125,-108
2021-12-24 15:58:22.959131,-103
2021-12-24 15:58:22.959138,-80
2021-12-24 15:58:22.959144,-18
2021-12-24 15:58:22.959151,37
2021-12-24 15:58:22.959157,84
2021-12-24 15:58:22.959163,141
2021-12-24 15:58:22.959170,169
2021-12-24 15:58:22.959176,176
2021-12-24 15:58:22.959182,195
2021-12-24 15:58:22.959188,214
2021-12-24 15:58:22.959195,214
2021-12-24 15:58:23.229726,219
2021-12-24 15:58:23.229756,223
2021-12-24 15:58:23.229768,221
2021-12-24 15:58:23.229778,221
2021-12-24 15:58:23.229788,223
2021-12-24 15:58:23.229798,219
2021-12-24 15:58:23.229807,216
2021-12-24 15:58:23.229817,214
2021-12-24 15:58:23.229827,212
2021-12-24 15:58:23.229836,212
2021-12-24 15:58:23.229846,207
2021-12-24 15:58:23.229856,202
2021-12-24 15:58:23.229866,197
2021-12-24 15:58:23.229876,193
2021-12-24 15:58:23.229886,193
2021-12-24 15:58:23.229896,190
2021-12-24 15:58:23.229906,190
2021-12-24 15:58:23.229915,190
2021-12-24 15:58:23.229925,188
2021-12-24 15:58:23.229935,190
2021-12-24 15:58:23.229945,183
2021-12-24 15:58:23.229954,164
2021-12-24 15:58:23.229964,162
2021-12-24 15:58:23.229974,176
2021-12-24 15:58:23.229984,174
2021-12-24 15:58:23.229993,162
2021-12-24 15:58:23.230003,167
2021-12-24 15:58:23.230013,167
2021-12-24 15:58:23.230022,153
2021-12-24 15:58:23.230032,131
2021-12-24 15:58:23.454287,120
2021-12-24 15:58:23.454316,122
2021-12-24 15:58:23.454328,136
2021-12-24 15:58:23.454338,143
2021-12-24 15:58:23.454347,150
2021-12-24 15:58:23.454357,162
2021-12-24 15:58:23.454366,162
2021-12-24 15:58:23.454376,155
2021-12-24 15:58:23.454385,150
2021-12-24 15:58:23.454395,148
2021-12-24 15:58:23.454405,146
2021-12-24 15:58:23.454414,143
2021-12-24 15:58:23.454424,160
2021-12-24 15:58:23.454433,179
2021-12-24 15:58:23.454443,-4
2021-12-24 15:58:23.454453,-475
2021-12-24 15:58:23.454462,-775
2021-12-24 15:58:23.454472,-374
2021-12-24 15:58:23.454482,278
2021-12-24 15:58:23.454491,343
2021-12-24 15:58:23.454501,115
2021-12-24 15:58:23.454511,157
2021-12-24 15:58:23.454520,219
2021-12-24 15:58:23.454530,153
2021-12-24 15:58:23.454539,143
2021-12-24 15:58:23.454549,167
2021-12-24 15:58:23.454558,141
2021-12-24 15:58:23.454568,124
2021-12-24 15:58:23.454578,124
2021-12-24 15:58:23.454587,115
2021-12-24 15:58:23.634316,91
2021-12-24 15:58:23.634345,73
2021-12-24 15:58:23.634357,54
2021-12-24 15:58:23.634367,35
2021-12-24 15:58:23.634376,21
2021-12-24 15:58:23.634386,9
2021-12-24 15:58:23.634396,-16
2021-12-24 15:58:23.634405,-51
2021-12-24 15:58:23.634415,-82
2021-12-24 15:58:23.634424,-106
2021-12-24 15:58:23.634434,-127
2021-12-24 15:58:23.634443,-148
2021-12-24 15:58:23.634453,-164
2021-12-24 15:58:23.634462,-176
2021-12-24 15:58:23.634472,-183
2021-12-24 15:58:23.634482,-186
2021-12-24 15:58:23.634491,-183
2021-12-24 15:58:23.634501,-169
2021-12-24 15:58:23.634510,-136
2021-12-24 15:58:23.634520,-89
2021-12-24 15:58:23.634529,-42
2021-12-24 15:58:23.634539,-4
2021-12-24 15:58:23.634548,18
2021-12-24 15:58:23.634558,37
2021-12-24 15:58:23.634568,54
2021-12-24 15:58:23.634577,58
2021-12-24 15:58:23.634587,61
2021-12-24 15:58:23.634596,63
2021-12-24 15:58:23.634606,56
2021-12-24 15:58:23.634615,51
2021-12-24 15:58:23.859315,49
2021-12-24 15:58:23.859344,49
2021-12-24 15:58:23.859352,54
2021-12-24 15:58:23.859358,54
2021-12-24 15:58:23.859365,51
2021-12-24 15:58:23.859371,47
2021-12-24 15:58:23.859378,42
2021-12-24 15:58:23.859384,42
2021-12-24 15:58:23.859390,47
2021-12-24 15:58:23.859397,44
2021-12-24 15:58:23.859403,42
2021-12-24 15:58:23.859409,42
2021-12-24 15:58:23.859416,47
2021-12-24 15:58:23.859422,47
2021-12-24 15:58:23.859429,49
2021-12-24 15:58:23.859435,54
2021-12-24 15:58:23.859441,51
2021-12-24 15:58:23.859448,40
2021-12-24 15:58:23.859454,42
2021-12-24 15:58:23.859461,54
2021-12-24 15:58:23.859467,56
2021-12-24 15:58:23.859473,42
2021-12-24 15:58:23.859480,23
2021-12-24 15:58:23.859486,11
2021-12-24 15:58:23.859493,14
2021-12-24 15:58:23.859499,25
2021-12-24 15:58:23.859505,37
2021-12-24 15:58:23.859512,47
2021-12-24 15:58:23.859518,56
2021-12-24 15:58:23.859525,68
2021-12-24 15:58:24.083969,75
2021-12-24 15:58:24.083992,70
2021-12-24 15:58:24.083999,65
2021-12-24 15:58:24.084006,63
2021-12-24 15:58:24.084012,56
2021-12-24 15:58:24.084018,65
2021-12-24 15:58:24.084024,94
2021-12-24 15:58:24.084031,-35
2021-12-24 15:58:24.084037,-475
2021-12-24 15:58:24.084043,-843
2021-12-24 15:58:24.084049,-492
2021-12-24 15:58:24.084056,263
2021-12-24 15:58:24.084062,384
2021-12-24 15:58:24.084068,58
2021-12-24 15:58:24.084074,63
2021-12-24 15:58:24.084080,153
2021-12-24 15:58:24.084087,73
2021-12-24 15:58:24.084093,65
2021-12-24 15:58:24.084099,106
2021-12-24 15:58:24.084109,70
2021-12-24 15:58:24.084116,37
2021-12-24 15:58:24.084122,54
2021-12-24 15:58:24.084128,54
2021-12-24 15:58:24.084134,30
2021-12-24 15:58:24.084140,25
2021-12-24 15:58:24.084146,21
2021-12-24 15:58:24.084153,9
2021-12-24 15:58:24.084159,2
2021-12-24 15:58:24.084165,-11
2021-12-24 15:58:24.084171,-30
2021-12-24 15:58:24.398414,-47
2021-12-24 15:58:24.398444,-63
2021-12-24 15:58:24.398456,-87
2021-12-24 15:58:24.398466,-115
2021-12-24 15:58:24.398476,-141
2021-12-24 15:58:24.398486,-148
2021-12-24 15:58:24.398495,-150
2021-12-24 15:58:24.398505,-153
2021-12-24 15:58:24.398514,-157
2021-12-24 15:58:24.398524,-148
2021-12-24 15:58:24.398534,-124
2021-12-24 15:58:24.398543,-80
2021-12-24 15:58:24.398553,-23
2021-12-24 15:58:24.398563,32
2021-12-24 15:58:24.398573,70
2021-12-24 15:58:24.398582,98
2021-12-24 15:58:24.398592,120
2021-12-24 15:58:24.398601,134
2021-12-24 15:58:24.398611,139
2021-12-24 15:58:24.398621,143
2021-12-24 15:58:24.398630,146
2021-12-24 15:58:24.398640,141
2021-12-24 15:58:24.398649,139
2021-12-24 15:58:24.398659,136
2021-12-24 15:58:24.398669,136
2021-12-24 15:58:24.398678,134
2021-12-24 15:58:24.398688,129
2021-12-24 15:58:24.398697,124
2021-12-24 15:58:24.398707,122
2021-12-24 15:58:24.398717,124
2021-12-24 15:58:24.579721,124
2021-12-24 15:58:24.579752,124
2021-12-24 15:58:24.579763,122
2021-12-24 15:58:24.579773,120
2021-12-24 15:58:24.579783,120
2021-12-24 15:58:24.579793,122
2021-12-24 15:58:24.579803,124
2021-12-24 15:58:24.579813,129
2021-12-24 15:58:24.579823,127
2021-12-24 15:58:24.579832,122
2021-12-24 15:58:24.579842,122
2021-12-24 15:58:24.579852,127
2021-12-24 15:58:24.579862,124
2021-12-24 15:58:24.579872,122
2021-12-24 15:58:24.579881,120
2021-12-24 15:58:24.579891,103
2021-12-24 15:58:24.579901,80
2021-12-24 15:58:24.579911,77
2021-12-24 15:58:24.579920,89
2021-12-24 15:58:24.579930,103
2021-12-24 15:58:24.579940,110
2021-12-24 15:58:24.579950,122
2021-12-24 15:58:24.579960,134
2021-12-24 15:58:24.579969,134
2021-12-24 15:58:24.579979,129
2021-12-24 15:58:24.579989,131
2021-12-24 15:58:24.579999,129
2021-12-24 15:58:24.580008,122
2021-12-24 15:58:24.580018,124
2021-12-24 15:58:24.580028,157
2021-12-24 15:58:24.848700,164
2021-12-24 15:58:24.848717,-84
2021-12-24 15:58:24.848727,-596
2021-12-24 15:58:24.848736,-801
2021-12-24 15:58:24.848745,-259
2021-12-24 15:58:24.848753,369
2021-12-24 15:58:24.848761,325
2021-12-24 15:58:24.848770,108
2021-12-24 15:58:24.848779,188
2021-12-24 15:58:24.848787,223
2021-12-24 15:58:24.848796,153
2021-12-24 15:58:24.848805,162
2021-12-24 15:58:24.848814,183
2021-12-24 15:58:24.848823,155
2021-12-24 15:58:24.848832,139
2021-12-24 15:58:24.848840,141
2021-12-24 15:58:24.848849,131
2021-12-24 15:58:24.848857,122
2021-12-24 15:58:24.848865,115
2021-12-24 15:58:24.848874,103
2021-12-24 15:58:24.848883,89
2021-12-24 15:58:24.848892,73
2021-12-24 15:58:24.848900,56
2021-12-24 15:58:24.848909,37
2021-12-24 15:58:24.848918,14
2021-12-24 15:58:24.848925,-11
2021-12-24 15:58:24.848931,-35
2021-12-24 15:58:24.848936,-56
2021-12-24 15:58:24.848941,-75
2021-12-24 15:58:24.848946,-87
2021-12-24 15:58:25.029308,-89
2021-12-24 15:58:25.029339,-91
2021-12-24 15:58:25.029351,-94
2021-12-24 15:58:25.029361,-87
2021-12-24 15:58:25.029370,-63
2021-12-24 15:58:25.029380,-23
2021-12-24 15:58:25.029389,21
2021-12-24 15:58:25.029399,65
2021-12-24 15:58:25.029409,98
2021-12-24 15:58:25.029418,122
2021-12-24 15:58:25.029428,136
2021-12-24 15:58:25.029437,146
2021-12-24 15:58:25.029447,146
2021-12-24 15:58:25.029456,141
2021-12-24 15:58:25.029465,134
2021-12-24 15:58:25.029475,131
2021-12-24 15:58:25.029484,129
2021-12-24 15:58:25.029494,127
2021-12-24 15:58:25.029503,117
2021-12-24 15:58:25.029513,106
2021-12-24 15:58:25.029522,101
2021-12-24 15:58:25.029532,103
2021-12-24 15:58:25.029541,103
2021-12-24 15:58:25.029551,101
2021-12-24 15:58:25.029560,98
2021-12-24 15:58:25.029570,101
2021-12-24 15:58:25.029579,98
2021-12-24 15:58:25.029589,94
2021-12-24 15:58:25.029598,91
2021-12-24 15:58:25.029608,98
2021-12-24 15:58:25.254308,96
2021-12-24 15:58:25.254339,96
2021-12-24 15:58:25.254351,98
2021-12-24 15:58:25.254361,101
2021-12-24 15:58:25.254371,101
2021-12-24 15:58:25.254380,101
2021-12-24 15:58:25.254390,96
2021-12-24 15:58:25.254400,98
2021-12-24 15:58:25.254409,101
2021-12-24 15:58:25.254419,94
2021-12-24 15:58:25.254429,75
2021-12-24 15:58:25.254438,58
2021-12-24 15:58:25.254448,54
2021-12-24 15:58:25.254457,65
2021-12-24 15:58:25.254467,80
2021-12-24 15:58:25.254476,89
2021-12-24 15:58:25.254486,101
2021-12-24 15:58:25.254496,110
2021-12-24 15:58:25.254505,113
2021-12-24 15:58:25.254515,108
2021-12-24 15:58:25.254524,108
2021-12-24 15:58:25.254534,108
2021-12-24 15:58:25.254543,106
2021-12-24 15:58:25.254553,115
2021-12-24 15:58:25.254563,155
2021-12-24 15:58:25.254572,113
2021-12-24 15:58:25.254582,-235
2021-12-24 15:58:25.254592,-711
2021-12-24 15:58:25.254602,-652
2021-12-24 15:58:25.254611,28
2021-12-24 15:58:25.479304,419
2021-12-24 15:58:25.479334,197
2021-12-24 15:58:25.479346,91
2021-12-24 15:58:25.479356,207
2021-12-24 15:58:25.479366,179
2021-12-24 15:58:25.479375,127
2021-12-24 15:58:25.479385,157
2021-12-24 15:58:25.479394,155
2021-12-24 15:58:25.479404,129
2021-12-24 15:58:25.479414,134
2021-12-24 15:58:25.479423,134
2021-12-24 15:58:25.479433,117
2021-12-24 15:58:25.479443,106
2021-12-24 15:58:25.479453,101
2021-12-24 15:58:25.479463,87
2021-12-24 15:58:25.479472,73
2021-12-24 15:58:25.479482,61
2021-12-24 15:58:25.479491,47
2021-12-24 15:58:25.479501,28
2021-12-24 15:58:25.479510,7
2021-12-24 15:58:25.479520,-11
2021-12-24 15:58:25.479530,-32
2021-12-24 15:58:25.479539,-51
2021-12-24 15:58:25.479549,-68
2021-12-24 15:58:25.479559,-82
2021-12-24 15:58:25.479568,-87
2021-12-24 15:58:25.479578,-87
2021-12-24 15:58:25.479587,-87
2021-12-24 15:58:25.479597,-75
2021-12-24 15:58:25.479607,-44
2021-12-24 15:58:25.704808,-2
2021-12-24 15:58:25.704838,42
2021-12-24 15:58:25.704850,82
2021-12-24 15:58:25.704860,115
2021-12-24 15:58:25.704869,141
2021-12-24 15:58:25.704879,148
2021-12-24 15:58:25.704889,148
2021-12-24 15:58:25.704899,153
2021-12-24 15:58:25.704908,150
2021-12-24 15:58:25.704918,143
2021-12-24 15:58:25.704928,139
2021-12-24 15:58:25.704937,134
2021-12-24 15:58:25.704947,134
2021-12-24 15:58:25.704957,131
2021-12-24 15:58:25.704966,124
2021-12-24 15:58:25.704976,120
2021-12-24 15:58:25.704986,117
2021-12-24 15:58:25.704995,117
2021-12-24 15:58:25.705005,115
2021-12-24 15:58:25.705015,115
2021-12-24 15:58:25.705025,110
2021-12-24 15:58:25.705035,106
2021-12-24 15:58:25.705044,108
2021-12-24 15:58:25.705054,108
2021-12-24 15:58:25.705064,103
2021-12-24 15:58:25.705073,106
2021-12-24 15:58:25.705083,108
2021-12-24 15:58:25.705093,101
2021-12-24 15:58:25.705103,96
2021-12-24 15:58:25.705112,96
2021-12-24 15:58:25.929782,101
2021-12-24 15:58:25.929812,98
2021-12-24 15:58:25.929823,87
2021-12-24 15:58:25.929833,63
2021-12-24 15:58:25.929843,44
2021-12-24 15:58:25.929853,40
2021-12-24 15:58:25.929862,49
2021-12-24 15:58:25.929872,58
2021-12-24 15:58:25.929881,65
2021-12-24 15:58:25.929891,77
2021-12-24 15:58:25.929901,87
2021-12-24 15:58:25.929910,84
2021-12-24 15:58:25.929920,80
2021-12-24 15:58:25.929930,82
2021-12-24 15:58:25.929940,82
2021-12-24 15:58:25.929949,73
2021-12-24 15:58:25.929959,73
2021-12-24 15:58:25.929968,103
2021-12-24 15:58:25.929978,73
2021-12-24 15:58:25.929988,-249
2021-12-24 15:58:25.929998,-723
2021-12-24 15:58:25.930007,-695
2021-12-24 15:58:25.930017,11
2021-12-24 15:58:25.930026,459
2021-12-24 15:58:25.930036,200
2021-12-24 15:58:25.930046,42
2021-12-24 15:58:25.930055,169
2021-12-24 15:58:25.930065,131
2021-12-24 15:58:25.930074,58
2021-12-24 15:58:25.930084,94
2021-12-24 15:58:26.199319,91
2021-12-24 15:58:26.199348,63
2021-12-24 15:58:26.199360,70
2021-12-24 15:58:26.199371,63
2021-12-24 15:58:26.199380,32
2021-12-24 15:58:26.199390,30
2021-12-24 15:58:26.199412,30
2021-12-24 15:58:26.199422,14
2021-12-24 15:58:26.199431,-4
2021-12-24 15:58:26.199441,-23
2021-12-24 15:58:26.199451,-42
2021-12-24 15:58:26.199461,-63
2021-12-24 15:58:26.199471,-84
2021-12-24 15:58:26.199481,-101
2021-12-24 15:58:26.199490,-124
2021-12-24 15:58:26.199500,-153
2021-12-24 15:58:26.199510,-167
2021-12-24 15:58:26.199519,-167
2021-12-24 15:58:26.199529,-169
2021-12-24 15:58:26.199539,-171
2021-12-24 15:58:26.199548,-167
2021-12-24 15:58:26.199558,-155
2021-12-24 15:58:26.199606,-129
2021-12-24 15:58:26.199619,-77
2021-12-24 15:58:26.199629,-18
2021-12-24 15:58:26.199638,23
2021-12-24 15:58:26.199648,58
2021-12-24 15:58:26.199658,87
2021-12-24 15:58:26.199668,103
2021-12-24 15:58:26.199678,106
2021-12-24 15:58:26.513434,110
2021-12-24 15:58:26.513464,113
2021-12-24 15:58:26.513476,113
2021-12-24 15:58:26.513486,108
2021-12-24 15:58:26.513496,106
2021-12-24 15:58:26.513506,103
2021-12-24 15:58:26.513515,98
2021-12-24 15:58:26.513525,96
2021-12-24 15:58:26.513535,89
2021-12-24 15:58:26.513544,80
2021-12-24 15:58:26.513554,80
2021-12-24 15:58:26.513564,82
2021-12-24 15:58:26.513574,82
2021-12-24 15:58:26.513584,80
2021-12-24 15:58:26.513593,77
2021-12-24 15:58:26.513603,75
2021-12-24 15:58:26.513613,75
2021-12-24 15:58:26.513622,80
2021-12-24 15:58:26.513632,82
2021-12-24 15:58:26.513641,84
2021-12-24 15:58:26.513651,82
2021-12-24 15:58:26.513661,77
2021-12-24 15:58:26.513670,65
2021-12-24 15:58:26.513680,54
2021-12-24 15:58:26.513690,49
2021-12-24 15:58:26.513715,58
2021-12-24 15:58:26.513725,75
2021-12-24 15:58:26.513735,87
2021-12-24 15:58:26.513744,101
2021-12-24 15:58:26.513754,115
2021-12-24 15:58:26.649879,117
2021-12-24 15:58:26.649910,113
2021-12-24 15:58:26.649921,110
2021-12-24 15:58:26.649931,110
2021-12-24 15:58:26.649941,106
2021-12-24 15:58:26.649950,103
2021-12-24 15:58:26.649960,134
2021-12-24 15:58:26.649969,89
2021-12-24 15:58:26.649979,-266
2021-12-24 15:58:26.649989,-746
2021-12-24 15:58:26.649999,-654
2021-12-24 15:58:26.650008,96
2021-12-24 15:58:26.650018,499
2021-12-24 15:58:26.650028,204
2021-12-24 15:58:26.650038,65
2021-12-24 15:58:26.650047,195
2021-12-24 15:58:26.650057,153
2021-12-24 15:58:26.650067,89
2021-12-24 15:58:26.650076,136
2021-12-24 15:58:26.650086,136
2021-12-24 15:58:26.650096,98
2021-12-24 15:58:26.650138,101
2021-12-24 15:58:26.650148,108
2021-12-24 15:58:26.650157,91
2021-12-24 15:58:26.650167,84
2021-12-24 15:58:26.650176,80
2021-12-24 15:58:26.650186,63
2021-12-24 15:58:26.650195,54
2021-12-24 15:58:26.650205,47
2021-12-24 15:58:26.650215,32
2021-12-24 15:58:26.919579,14
2021-12-24 15:58:26.919609,-7
2021-12-24 15:58:26.919621,-32
2021-12-24 15:58:26.919631,-61
2021-12-24 15:58:26.919642,-82
2021-12-24 15:58:26.919652,-96
2021-12-24 15:58:26.919661,-108
2021-12-24 15:58:26.919671,-115
2021-12-24 15:58:26.919681,-113
2021-12-24 15:58:26.919691,-106
2021-12-24 15:58:26.919701,-82
2021-12-24 15:58:26.919711,-44
2021-12-24 15:58:26.919721,0
2021-12-24 15:58:26.919731,47
2021-12-24 15:58:26.919741,89
2021-12-24 15:58:26.919751,124
2021-12-24 15:58:26.919761,146
2021-12-24 15:58:26.919771,155
2021-12-24 15:58:26.919781,157
2021-12-24 15:58:26.919791,155
2021-12-24 15:58:26.919801,155
2021-12-24 15:58:26.919811,155
2021-12-24 15:58:26.919821,153
2021-12-24 15:58:26.919830,150
2021-12-24 15:58:26.919840,148
2021-12-24 15:58:26.919850,141
2021-12-24 15:58:26.919860,139
2021-12-24 15:58:26.919870,141
2021-12-24 15:58:26.919880,139
2021-12-24 15:58:26.919889,139
2021-12-24 15:58:27.144332,141
2021-12-24 15:58:27.144363,143
2021-12-24 15:58:27.144374,141
2021-12-24 15:58:27.144384,141
2021-12-24 15:58:27.144393,143
2021-12-24 15:58:27.144408,146
2021-12-24 15:58:27.144417,143
2021-12-24 15:58:27.144427,139
2021-12-24 15:58:27.144436,139
2021-12-24 15:58:27.144445,148
2021-12-24 15:58:27.144455,146
2021-12-24 15:58:27.144464,129
2021-12-24 15:58:27.144473,108
2021-12-24 15:58:27.144483,98
2021-12-24 15:58:27.144492,101
2021-12-24 15:58:27.144501,108
2021-12-24 15:58:27.144511,120
2021-12-24 15:58:27.144520,129
2021-12-24 15:58:27.144529,136
2021-12-24 15:58:27.144539,141
2021-12-24 15:58:27.144548,139
2021-12-24 15:58:27.144557,136
2021-12-24 15:58:27.144567,131
2021-12-24 15:58:27.144576,129
2021-12-24 15:58:27.144585,124
2021-12-24 15:58:27.144595,141
2021-12-24 15:58:27.144604,169
2021-12-24 15:58:27.144613,-4
2021-12-24 15:58:27.144623,-508
2021-12-24 15:58:27.144632,-855
2021-12-24 15:58:27.324331,-438
2021-12-24 15:58:27.324360,296
2021-12-24 15:58:27.324372,393
2021-12-24 15:58:27.324383,124
2021-12-24 15:58:27.324393,155
2021-12-24 15:58:27.324403,233
2021-12-24 15:58:27.324412,160
2021-12-24 15:58:27.324422,146
2021-12-24 15:58:27.324432,176
2021-12-24 15:58:27.324442,157
2021-12-24 15:58:27.324452,139
2021-12-24 15:58:27.324462,139
2021-12-24 15:58:27.324471,127
2021-12-24 15:58:27.324481,113
2021-12-24 15:58:27.324491,106
2021-12-24 15:58:27.324501,89
2021-12-24 15:58:27.324511,75
2021-12-24 15:58:27.324520,68
2021-12-24 15:58:27.324530,51
2021-12-24 15:58:27.324540,37
2021-12-24 15:58:27.324549,28
2021-12-24 15:58:27.324559,7
2021-12-24 15:58:27.324569,-25
2021-12-24 15:58:27.324579,-49
2021-12-24 15:58:27.324589,-61
2021-12-24 15:58:27.324599,-65
2021-12-24 15:58:27.324609,-65
2021-12-24 15:58:27.324619,-65
2021-12-24 15:58:27.324628,-73
2021-12-24 15:58:27.324638,-70
2021-12-24 15:58:27.549334,-40
2021-12-24 15:58:27.549363,0
2021-12-24 15:58:27.549375,47
2021-12-24 15:58:27.549386,98
2021-12-24 15:58:27.549395,136
2021-12-24 15:58:27.549405,157
2021-12-24 15:58:27.549415,167
2021-12-24 15:58:27.549424,176
2021-12-24 15:58:27.549434,181
2021-12-24 15:58:27.549444,176
2021-12-24 15:58:27.549453,169
2021-12-24 15:58:27.549463,162
2021-12-24 15:58:27.549473,153
2021-12-24 15:58:27.549483,143
2021-12-24 15:58:27.549493,141
2021-12-24 15:58:27.549502,134
2021-12-24 15:58:27.549512,122
2021-12-24 15:58:27.549521,113
2021-12-24 15:58:27.549531,113
2021-12-24 15:58:27.549541,113
2021-12-24 15:58:27.549550,106
2021-12-24 15:58:27.549560,103
2021-12-24 15:58:27.549570,106
2021-12-24 15:58:27.549580,103
2021-12-24 15:58:27.549589,101
2021-12-24 15:58:27.549599,98
2021-12-24 15:58:27.549609,101
2021-12-24 15:58:27.549618,103
2021-12-24 15:58:27.549628,98
2021-12-24 15:58:27.549638,94
2021-12-24 15:58:27.819799,96
2021-12-24 15:58:27.819820,94
2021-12-24 15:58:27.819828,75
2021-12-24 15:58:27.819834,54
2021-12-24 15:58:27.819841,49
2021-12-24 15:58:27.819847,56
2021-12-24 15:58:27.819853,65
2021-12-24 15:58:27.819859,75
2021-12-24 15:58:27.819866,91
2021-12-24 15:58:27.819872,96
2021-12-24 15:58:27.819878,87
2021-12-24 15:58:27.819884,82
2021-12-24 15:58:27.819890,84
2021-12-24 15:58:27.819897,89
2021-12-24 15:58:27.819903,84
2021-12-24 15:58:27.819909,89
2021-12-24 15:58:27.819916,127
2021-12-24 15:58:27.819922,61
2021-12-24 15:58:27.819928,-327
2021-12-24 15:58:27.819934,-784
2021-12-24 15:58:27.819940,-638
2021-12-24 15:58:27.819947,80
2021-12-24 15:58:27.819953,405
2021-12-24 15:58:27.819959,150
2021-12-24 15:58:27.819966,73
2021-12-24 15:58:27.819972,190
2021-12-24 15:58:27.819978,148
2021-12-24 15:58:27.819985,106
2021-12-24 15:58:27.819991,141
2021-12-24 15:58:27.819997,134
2021-12-24 15:58:28.089256,108
2021-12-24 15:58:28.089286,115
2021-12-24 15:58:28.089298,115
2021-12-24 15:58:28.089308,96
2021-12-24 15:58:28.089318,87
2021-12-24 15:58:28.089328,82
2021-12-24 15:58:28.089338,70
2021-12-24 15:58:28.089347,56
2021-12-24 15:58:28.089357,44
2021-12-24 15:58:28.089367,25
2021-12-24 15:58:28.089376,4
2021-12-24 15:58:28.089386,-11
2021-12-24 15:58:28.089396,-35
2021-12-24 15:58:28.089405,-56
2021-12-24 15:58:28.089415,-75
2021-12-24 15:58:28.089424,-94
2021-12-24 15:58:28.089434,-106
2021-12-24 15:58:28.089444,-106
2021-12-24 15:58:28.089453,-98
2021-12-24 15:58:28.089463,-89
2021-12-24 15:58:28.089473,-73
2021-12-24 15:58:28.089482,-40
2021-12-24 15:58:28.089492,0
2021-12-24 15:58:28.089502,44
2021-12-24 15:58:28.089511,87
2021-12-24 15:58:28.089521,117
2021-12-24 15:58:28.089531,131
2021-12-24 15:58:28.089540,136
2021-12-24 15:58:28.089550,141
2021-12-24 15:58:28.089560,146
2021-12-24 15:58:28.269381,143
2021-12-24 15:58:28.269410,139
2021-12-24 15:58:28.269421,136
2021-12-24 15:58:28.269431,127
2021-12-24 15:58:28.269441,124
2021-12-24 15:58:28.269450,122
2021-12-24 15:58:28.269460,115
2021-12-24 15:58:28.269470,113
2021-12-24 15:58:28.269479,108
2021-12-24 15:58:28.269489,103
2021-12-24 15:58:28.269499,98
2021-12-24 15:58:28.269508,98
2021-12-24 15:58:28.269518,96
2021-12-24 15:58:28.269528,96
2021-12-24 15:58:28.269537,96
2021-12-24 15:58:28.269547,94
2021-12-24 15:58:28.269557,94
2021-12-24 15:58:28.269566,96
2021-12-24 15:58:28.269576,96
2021-12-24 15:58:28.269586,96
2021-12-24 15:58:28.269595,96
2021-12-24 15:58:28.269605,94
2021-12-24 15:58:28.269615,98
2021-12-24 15:58:28.269624,96
2021-12-24 15:58:28.269634,77
2021-12-24 15:58:28.269644,54
2021-12-24 15:58:28.269653,47
2021-12-24 15:58:28.269663,58
2021-12-24 15:58:28.269673,73
2021-12-24 15:58:28.269682,84
2021-12-24 15:58:28.538235,98
2021-12-24 15:58:28.538266,106
2021-12-24 15:58:28.538277,101
2021-12-24 15:58:28.538288,98
2021-12-24 15:58:28.538297,101
2021-12-24 15:58:28.538307,101
2021-12-24 15:58:28.538317,98
2021-12-24 15:58:28.538326,103
2021-12-24 15:58:28.538336,134
2021-12-24 15:58:28.538345,82
2021-12-24 15:58:28.538355,-273
2021-12-24 15:58:28.538365,-775
2021-12-24 15:58:28.538375,-763
2021-12-24 15:58:28.538384,-73
2021-12-24 15:58:28.538394,395
2021-12-24 15:58:28.538404,207
2021-12-24 15:58:28.538413,73
2021-12-24 15:58:28.538423,193
2021-12-24 15:58:28.538433,183
2021-12-24 15:58:28.538442,122
2021-12-24 15:58:28.538452,148
2021-12-24 15:58:28.538461,153
2021-12-24 15:58:28.538471,124
2021-12-24 15:58:28.538481,127
2021-12-24 15:58:28.538491,129
2021-12-24 15:58:28.538500,110
2021-12-24 15:58:28.538510,96
2021-12-24 15:58:28.538520,84
2021-12-24 15:58:28.538529,68
2021-12-24 15:58:28.538539,58
2021-12-24 15:58:28.719304,49
2021-12-24 15:58:28.719334,32
2021-12-24 15:58:28.719346,14
2021-12-24 15:58:28.719356,-2
2021-12-24 15:58:28.719365,-21
2021-12-24 15:58:28.719375,-42
2021-12-24 15:58:28.719384,-58
2021-12-24 15:58:28.719394,-75
2021-12-24 15:58:28.719403,-87
2021-12-24 15:58:28.719413,-87
2021-12-24 15:58:28.719423,-84
2021-12-24 15:58:28.719432,-77
2021-12-24 15:58:28.719442,-63
2021-12-24 15:58:28.719451,-37
2021-12-24 15:58:28.719461,2
2021-12-24 15:58:28.719471,47
2021-12-24 15:58:28.719480,87
2021-12-24 15:58:28.719490,117
2021-12-24 15:58:28.719499,136
2021-12-24 15:58:28.719509,148
2021-12-24 15:58:28.719518,153
2021-12-24 15:58:28.719528,153
2021-12-24 15:58:28.719538,150
2021-12-24 15:58:28.719547,148
2021-12-24 15:58:28.719557,146
2021-12-24 15:58:28.719566,141
2021-12-24 15:58:28.719576,139
2021-12-24 15:58:28.719585,131
2021-12-24 15:58:28.719595,122
2021-12-24 15:58:28.719605,120
2021-12-24 15:58:28.944731,117
2021-12-24 15:58:28.944760,110
2021-12-24 15:58:28.944772,110
2021-12-24 15:58:28.944782,108
2021-12-24 15:58:28.944792,108
2021-12-24 15:58:28.944801,108
2021-12-24 15:58:28.944810,106
2021-12-24 15:58:28.944819,101
2021-12-24 15:58:28.944829,98
2021-12-24 15:58:28.944838,101
2021-12-24 15:58:28.944848,106
2021-12-24 15:58:28.944857,106
2021-12-24 15:58:28.944866,101
2021-12-24 15:58:28.944876,98
2021-12-24 15:58:28.944885,101
2021-12-24 15:58:28.944895,108
2021-12-24 15:58:28.944904,110
2021-12-24 15:58:28.944914,106
2021-12-24 15:58:28.944923,80
2021-12-24 15:58:28.944932,56
2021-12-24 15:58:28.944942,58
2021-12-24 15:58:28.944951,77
2021-12-24 15:58:28.944960,89
2021-12-24 15:58:28.944970,101
2021-12-24 15:58:28.944979,115
2021-12-24 15:58:28.944989,117
2021-12-24 15:58:28.944998,115
2021-12-24 15:58:28.945008,110
2021-12-24 15:58:28.945017,110
2021-12-24 15:58:28.945027,110
2021-12-24 15:58:29.169339,108
2021-12-24 15:58:29.169369,117
2021-12-24 15:58:29.169380,146
2021-12-24 15:58:29.169390,47
2021-12-24 15:58:29.169400,-360
2021-12-24 15:58:29.169410,-791
2021-12-24 15:58:29.169419,-586
2021-12-24 15:58:29.169429,134
2021-12-24 15:58:29.169438,398
2021-12-24 15:58:29.169448,141
2021-12-24 15:58:29.169458,96
2021-12-24 15:58:29.169467,202
2021-12-24 15:58:29.169477,148
2021-12-24 15:58:29.169486,113
2021-12-24 15:58:29.169496,148
2021-12-24 15:58:29.169505,136
2021-12-24 15:58:29.169515,113
2021-12-24 15:58:29.169525,117
2021-12-24 15:58:29.169534,115
2021-12-24 15:58:29.169543,106
2021-12-24 15:58:29.169553,96
2021-12-24 15:58:29.169563,84
2021-12-24 15:58:29.169572,73
2021-12-24 15:58:29.169582,63
2021-12-24 15:58:29.169591,49
2021-12-24 15:58:29.169600,35
2021-12-24 15:58:29.169610,18
2021-12-24 15:58:29.169620,0
2021-12-24 15:58:29.169629,-18
2021-12-24 15:58:29.169639,-40
2021-12-24 15:58:29.438761,-56
2021-12-24 15:58:29.438791,-73
2021-12-24 15:58:29.438803,-82
2021-12-24 15:58:29.438813,-82
2021-12-24 15:58:29.438823,-80
2021-12-24 15:58:29.438833,-80
2021-12-24 15:58:29.438843,-65
2021-12-24 15:58:29.438852,-32
2021-12-24 15:58:29.438862,7
2021-12-24 15:58:29.438872,51
2021-12-24 15:58:29.438882,87
2021-12-24 15:58:29.438892,108
2021-12-24 15:58:29.438902,129
2021-12-24 15:58:29.438912,143
2021-12-24 15:58:29.438922,146
2021-12-24 15:58:29.438932,143
2021-12-24 15:58:29.438941,143
2021-12-24 15:58:29.438951,139
2021-12-24 15:58:29.438961,136
2021-12-24 15:58:29.438971,134
2021-12-24 15:58:29.438981,129
2021-12-24 15:58:29.438991,122
2021-12-24 15:58:29.439001,117
2021-12-24 15:58:29.439010,113
2021-12-24 15:58:29.439020,106
2021-12-24 15:58:29.439030,106
2021-12-24 15:58:29.439040,106
2021-12-24 15:58:29.439050,101
2021-12-24 15:58:29.439060,101
2021-12-24 15:58:29.439070,98
2021-12-24 15:58:29.619909,98
2021-12-24 15:58:29.619929,103
2021-12-24 15:58:29.619937,101
2021-12-24 15:58:29.619944,96
2021-12-24 15:58:29.619950,94
2021-12-24 15:58:29.619956,91
2021-12-24 15:58:29.619962,91
2021-12-24 15:58:29.619969,94
2021-12-24 15:58:29.619975,89
2021-12-24 15:58:29.619981,80
2021-12-24 15:58:29.619987,77
2021-12-24 15:58:29.619993,82
2021-12-24 15:58:29.619999,84
2021-12-24 15:58:29.620005,70
2021-12-24 15:58:29.620012,44
2021-12-24 15:58:29.620018,32
2021-12-24 15:58:29.620024,47
2021-12-24 15:58:29.620030,61
2021-12-24 15:58:29.620036,73
2021-12-24 15:58:29.620042,89
2021-12-24 15:58:29.620049,96
2021-12-24 15:58:29.620055,91
2021-12-24 15:58:29.620061,91
2021-12-24 15:58:29.620067,94
2021-12-24 15:58:29.620073,94
2021-12-24 15:58:29.620080,91
2021-12-24 15:58:29.620086,94
2021-12-24 15:58:29.620092,124
2021-12-24 15:58:29.620098,96
2021-12-24 15:58:29.620104,-207
2021-12-24 15:58:29.889727,-680
2021-12-24 15:58:29.889748,-699
2021-12-24 15:58:29.889756,-58
2021-12-24 15:58:29.889763,398
2021-12-24 15:58:29.889769,212
2021-12-24 15:58:29.889775,68
2021-12-24 15:58:29.889782,179
2021-12-24 15:58:29.889788,169
2021-12-24 15:58:29.889794,110
2021-12-24 15:58:29.889800,134
2021-12-24 15:58:29.889807,139
2021-12-24 15:58:29.889813,110
2021-12-24 15:58:29.889819,113
2021-12-24 15:58:29.889826,117
2021-12-24 15:58:29.889832,103
2021-12-24 15:58:29.889838,91
2021-12-24 15:58:29.889844,87
2021-12-24 15:58:29.889851,77
2021-12-24 15:58:29.889857,65
2021-12-24 15:58:29.889863,54
2021-12-24 15:58:29.889869,40
2021-12-24 15:58:29.889876,18
2021-12-24 15:58:29.889882,2
2021-12-24 15:58:29.889888,-14
2021-12-24 15:58:29.889894,-32
2021-12-24 15:58:29.889901,-51
2021-12-24 15:58:29.889907,-61
2021-12-24 15:58:29.889913,-68
2021-12-24 15:58:29.889920,-75
2021-12-24 15:58:29.889926,-75
2021-12-24 15:58:30.114495,-73
2021-12-24 15:58:30.114526,-63
2021-12-24 15:58:30.114538,-44
2021-12-24 15:58:30.114548,-9
2021-12-24 15:58:30.114558,40
2021-12-24 15:58:30.114568,84
2021-12-24 15:58:30.114578,115
2021-12-24 15:58:30.114588,134
2021-12-24 15:58:30.114597,139
2021-12-24 15:58:30.114607,139
2021-12-24 15:58:30.114617,139
2021-12-24 15:58:30.114627,136
2021-12-24 15:58:30.114637,127
2021-12-24 15:58:30.114647,115
2021-12-24 15:58:30.114657,98
2021-12-24 15:58:30.114667,87
2021-12-24 15:58:30.114676,84
2021-12-24 15:58:30.114686,84
2021-12-24 15:58:30.114696,80
2021-12-24 15:58:30.114706,80
2021-12-24 15:58:30.114716,77
2021-12-24 15:58:30.114726,68
2021-12-24 15:58:30.114735,61
2021-12-24 15:58:30.114745,61
2021-12-24 15:58:30.114755,65
2021-12-24 15:58:30.114765,68
2021-12-24 15:58:30.114775,63
2021-12-24 15:58:30.114784,58
2021-12-24 15:58:30.114794,58
2021-12-24 15:58:30.114804,61
2021-12-24 15:58:30.339301,58
2021-12-24 15:58:30.339331,61
2021-12-24 15:58:30.339343,58
2021-12-24 15:58:30.339353,54
2021-12-24 15:58:30.339362,54
2021-12-24 15:58:30.339372,56
2021-12-24 15:58:30.339381,51
2021-12-24 15:58:30.339391,32
2021-12-24 15:58:30.339481,7
2021-12-24 15:58:30.339493,-9
2021-12-24 15:58:30.339503,-4
2021-12-24 15:58:30.339513,9
2021-12-24 15:58:30.339522,30
2021-12-24 15:58:30.339532,44
2021-12-24 15:58:30.339541,42
2021-12-24 15:58:30.339550,35
2021-12-24 15:58:30.339560,37
2021-12-24 15:58:30.339569,42
2021-12-24 15:58:30.339579,37
2021-12-24 15:58:30.339588,30
2021-12-24 15:58:30.339598,32
2021-12-24 15:58:30.339607,54
2021-12-24 15:58:30.339617,14
2021-12-24 15:58:30.339626,-301
2021-12-24 15:58:30.339636,-735
2021-12-24 15:58:30.339645,-643
2021-12-24 15:58:30.339655,63
2021-12-24 15:58:30.339664,431
2021-12-24 15:58:30.339674,136
2021-12-24 15:58:30.339684,2
2021-12-24 15:58:30.607906,129
2021-12-24 15:58:30.607936,82
2021-12-24 15:58:30.607947,21
2021-12-24 15:58:30.607958,63
2021-12-24 15:58:30.607968,58
2021-12-24 15:58:30.607977,25
2021-12-24 15:58:30.607987,35
2021-12-24 15:58:30.607997,35
2021-12-24 15:58:30.608006,18
2021-12-24 15:58:30.608016,18
2021-12-24 15:58:30.608026,18
2021-12-24 15:58:30.608035,-4
2021-12-24 15:58:30.608045,-21
2021-12-24 15:58:30.608055,-30
2021-12-24 15:58:30.608064,-44
2021-12-24 15:58:30.608074,-63
2021-12-24 15:58:30.608084,-80
2021-12-24 15:58:30.608093,-98
2021-12-24 15:58:30.608103,-120
2021-12-24 15:58:30.608113,-143
2021-12-24 15:58:30.608122,-157
2021-12-24 15:58:30.608132,-160
2021-12-24 15:58:30.608142,-157
2021-12-24 15:58:30.608151,-155
2021-12-24 15:58:30.608161,-148
2021-12-24 15:58:30.608170,-131
2021-12-24 15:58:30.608180,-103
2021-12-24 15:58:30.608190,-58
2021-12-24 15:58:30.608199,-11
2021-12-24 15:58:30.608209,32
2021-12-24 15:58:30.789495,68
2021-12-24 15:58:30.789517,91
2021-12-24 15:58:30.789525,103
2021-12-24 15:58:30.789531,108
2021-12-24 15:58:30.789537,113
2021-12-24 15:58:30.789544,122
2021-12-24 15:58:30.789550,115
2021-12-24 15:58:30.789556,106
2021-12-24 15:58:30.789563,103
2021-12-24 15:58:30.789569,106
2021-12-24 15:58:30.789575,103
2021-12-24 15:58:30.789582,101
2021-12-24 15:58:30.789588,96
2021-12-24 15:58:30.789594,89
2021-12-24 15:58:30.789600,82
2021-12-24 15:58:30.789607,84
2021-12-24 15:58:30.789613,87
2021-12-24 15:58:30.789619,87
2021-12-24 15:58:30.789626,89
2021-12-24 15:58:30.789632,89
2021-12-24 15:58:30.789639,89
2021-12-24 15:58:30.789645,91
2021-12-24 15:58:30.789652,96
2021-12-24 15:58:30.789658,98
2021-12-24 15:58:30.789664,96
2021-12-24 15:58:30.789671,101
2021-12-24 15:58:30.789677,103
2021-12-24 15:58:30.789683,94
2021-12-24 15:58:30.789690,77
2021-12-24 15:58:30.789696,63
2021-12-24 15:58:31.014759,65
2021-12-24 15:58:31.014789,75
2021-12-24 15:58:31.014801,84
2021-12-24 15:58:31.014811,96
2021-12-24 15:58:31.014821,110
2021-12-24 15:58:31.014831,117
2021-12-24 15:58:31.014840,108
2021-12-24 15:58:31.014850,101
2021-12-24 15:58:31.014860,108
2021-12-24 15:58:31.014869,103
2021-12-24 15:58:31.014879,96
2021-12-24 15:58:31.014889,113
2021-12-24 15:58:31.014898,136
2021-12-24 15:58:31.014908,-32
2021-12-24 15:58:31.014918,-499
2021-12-24 15:58:31.014928,-805
2021-12-24 15:58:31.014938,-379
2021-12-24 15:58:31.014948,313
2021-12-24 15:58:31.014957,353
2021-12-24 15:58:31.014967,77
2021-12-24 15:58:31.014977,124
2021-12-24 15:58:31.014987,197
2021-12-24 15:58:31.014996,122
2021-12-24 15:58:31.015006,117
2021-12-24 15:58:31.015016,146
2021-12-24 15:58:31.015026,117
2021-12-24 15:58:31.015035,98
2021-12-24 15:58:31.015045,103
2021-12-24 15:58:31.015055,96
2021-12-24 15:58:31.015064,87
2021-12-24 15:58:31.239492,82
2021-12-24 15:58:31.239522,75
2021-12-24 15:58:31.239533,63
2021-12-24 15:58:31.239543,51
2021-12-24 15:58:31.239553,37
2021-12-24 15:58:31.239563,16
2021-12-24 15:58:31.239573,-4
2021-12-24 15:58:31.239583,-21
2021-12-24 15:58:31.239593,-42
2021-12-24 15:58:31.239602,-68
2021-12-24 15:58:31.239612,-84
2021-12-24 15:58:31.239622,-96
2021-12-24 15:58:31.239632,-106
2021-12-24 15:58:31.239642,-103
2021-12-24 15:58:31.239652,-96
2021-12-24 15:58:31.239661,-89
2021-12-24 15:58:31.239671,-68
2021-12-24 15:58:31.239681,-30
2021-12-24 15:58:31.239690,11
2021-12-24 15:58:31.239700,51
2021-12-24 15:58:31.239710,87
2021-12-24 15:58:31.239720,113
2021-12-24 15:58:31.239729,124
2021-12-24 15:58:31.239739,129
2021-12-24 15:58:31.239749,131
2021-12-24 15:58:31.239758,134
2021-12-24 15:58:31.239768,131
2021-12-24 15:58:31.239778,129
2021-12-24 15:58:31.239788,124
2021-12-24 15:58:31.239797,120
2021-12-24 15:58:31.464756,117
2021-12-24 15:58:31.464785,117
2021-12-24 15:58:31.464797,117
2021-12-24 15:58:31.464807,115
2021-12-24 15:58:31.464817,108
2021-12-24 15:58:31.464827,108
