Time,ECG
2021-12-24 15:52:59.887132,122
2021-12-24 15:52:59.887145,131
2021-12-24 15:52:59.887151,136
2021-12-24 15:52:59.887155,122
2021-12-24 15:52:59.887160,115
2021-12-24 15:52:59.887164,129
2021-12-24 15:52:59.887168,129
2021-12-24 15:52:59.887173,129
2021-12-24 15:52:59.887177,136
2021-12-24 15:52:59.887195,124
2021-12-24 15:52:59.887199,115
2021-12-24 15:52:59.887203,127
2021-12-24 15:52:59.887207,120
2021-12-24 15:52:59.887211,98
2021-12-24 15:52:59.887215,103
2021-12-24 15:52:59.887219,113
2021-12-24 15:52:59.887223,108
2021-12-24 15:52:59.887227,113
2021-12-24 15:52:59.887231,113
2021-12-24 15:52:59.887235,108
2021-12-24 15:52:59.887239,108
2021-12-24 15:52:59.887243,117
2021-12-24 15:52:59.887247,129
2021-12-24 15:52:59.887251,124
2021-12-24 15:52:59.887255,98
2021-12-24 15:52:59.887259,84
2021-12-24 15:52:59.887264,91
2021-12-24 15:52:59.887268,101
2021-12-24 15:52:59.887272,110
2021-12-24 15:52:59.887276,127
2021-12-24 15:53:00.084951,148
2021-12-24 15:53:00.084973,143
2021-12-24 15:53:00.084981,129
2021-12-24 15:53:00.084988,134
2021-12-24 15:53:00.084994,136
2021-12-24 15:53:00.085001,131
2021-12-24 15:53:00.085008,127
2021-12-24 15:53:00.085015,131
2021-12-24 15:53:00.085021,171
2021-12-24 15:53:00.085028,127
2021-12-24 15:53:00.085034,-256
2021-12-24 15:53:00.085041,-786
2021-12-24 15:53:00.085047,-709
2021-12-24 15:53:00.085054,80
2021-12-24 15:53:00.085060,506
2021-12-24 15:53:00.085067,216
2021-12-24 15:53:00.085073,98
2021-12-24 15:53:00.085080,240
2021-12-24 15:53:00.085087,193
2021-12-24 15:53:00.085093,129
2021-12-24 15:53:00.085100,174
2021-12-24 15:53:00.085106,169
2021-12-24 15:53:00.085112,139
2021-12-24 15:53:00.085119,148
2021-12-24 15:53:00.085125,150
2021-12-24 15:53:00.085131,129
2021-12-24 15:53:00.085138,124
2021-12-24 15:53:00.085144,129
2021-12-24 15:53:00.085151,120
2021-12-24 15:53:00.085159,96
2021-12-24 15:53:00.310447,70
2021-12-24 15:53:00.310465,49
2021-12-24 15:53:00.310471,28
2021-12-24 15:53:00.310476,4
2021-12-24 15:53:00.310481,-11
2021-12-24 15:53:00.310487,-37
2021-12-24 15:53:00.310492,-70
2021-12-24 15:53:00.310497,-77
2021-12-24 15:53:00.310502,-70
2021-12-24 15:53:00.310507,-91
2021-12-24 15:53:00.310512,-120
2021-12-24 15:53:00.310517,-122
2021-12-24 15:53:00.310523,-101
2021-12-24 15:53:00.310542,-56
2021-12-24 15:53:00.310547,2
2021-12-24 15:53:00.310552,56
2021-12-24 15:53:00.310557,103
2021-12-24 15:53:00.310563,134
2021-12-24 15:53:00.310568,155
2021-12-24 15:53:00.310573,183
2021-12-24 15:53:00.310578,186
2021-12-24 15:53:00.310583,160
2021-12-24 15:53:00.310588,148
2021-12-24 15:53:00.310593,157
2021-12-24 15:53:00.310598,155
2021-12-24 15:53:00.310604,146
2021-12-24 15:53:00.310609,141
2021-12-24 15:53:00.310614,141
2021-12-24 15:53:00.310619,139
2021-12-24 15:53:00.310625,139
2021-12-24 15:53:00.623110,139
2021-12-24 15:53:00.623131,124
2021-12-24 15:53:00.623139,115
2021-12-24 15:53:00.623146,124
2021-12-24 15:53:00.623152,117
2021-12-24 15:53:00.623159,96
2021-12-24 15:53:00.623165,108
2021-12-24 15:53:00.623171,124
2021-12-24 15:53:00.623178,115
2021-12-24 15:53:00.623184,113
2021-12-24 15:53:00.623191,124
2021-12-24 15:53:00.623197,129
2021-12-24 15:53:00.623204,113
2021-12-24 15:53:00.623210,94
2021-12-24 15:53:00.623216,77
2021-12-24 15:53:00.623223,82
2021-12-24 15:53:00.623229,101
2021-12-24 15:53:00.623237,117
2021-12-24 15:53:00.623244,122
2021-12-24 15:53:00.623250,127
2021-12-24 15:53:00.623257,136
2021-12-24 15:53:00.623263,136
2021-12-24 15:53:00.623270,134
2021-12-24 15:53:00.623276,136
2021-12-24 15:53:00.623283,134
2021-12-24 15:53:00.623289,134
2021-12-24 15:53:00.623295,157
2021-12-24 15:53:00.623302,186
2021-12-24 15:53:00.623308,9
2021-12-24 15:53:00.623315,-501
2021-12-24 15:53:00.759615,-876
2021-12-24 15:53:00.759642,-449
2021-12-24 15:53:00.759647,332
2021-12-24 15:53:00.759652,424
2021-12-24 15:53:00.759656,113
2021-12-24 15:53:00.759660,148
2021-12-24 15:53:00.759664,247
2021-12-24 15:53:00.759671,171
2021-12-24 15:53:00.759675,153
2021-12-24 15:53:00.759679,181
2021-12-24 15:53:00.759684,153
2021-12-24 15:53:00.759691,139
2021-12-24 15:53:00.759699,155
2021-12-24 15:53:00.759706,146
2021-12-24 15:53:00.759732,124
2021-12-24 15:53:00.759782,117
2021-12-24 15:53:00.759789,108
2021-12-24 15:53:00.759794,101
2021-12-24 15:53:00.759798,91
2021-12-24 15:53:00.759803,75
2021-12-24 15:53:00.759807,61
2021-12-24 15:53:00.759812,44
2021-12-24 15:53:00.759816,14
2021-12-24 15:53:00.759821,-7
2021-12-24 15:53:00.759825,-30
2021-12-24 15:53:00.759829,-65
2021-12-24 15:53:00.759834,-82
2021-12-24 15:53:00.759838,-96
2021-12-24 15:53:00.759842,-110
2021-12-24 15:53:00.759848,-89
2021-12-24 15:53:01.074856,-65
2021-12-24 15:53:01.074876,-58
2021-12-24 15:53:01.074884,-23
2021-12-24 15:53:01.074891,37
2021-12-24 15:53:01.074897,77
2021-12-24 15:53:01.074904,108
2021-12-24 15:53:01.074910,146
2021-12-24 15:53:01.074917,174
2021-12-24 15:53:01.074923,179
2021-12-24 15:53:01.074930,174
2021-12-24 15:53:01.074936,157
2021-12-24 15:53:01.074943,146
2021-12-24 15:53:01.074949,157
2021-12-24 15:53:01.074956,160
2021-12-24 15:53:01.074962,141
2021-12-24 15:53:01.074969,139
2021-12-24 15:53:01.074975,148
2021-12-24 15:53:01.074982,136
2021-12-24 15:53:01.074988,117
2021-12-24 15:53:01.074994,120
2021-12-24 15:53:01.075001,120
2021-12-24 15:53:01.075007,117
2021-12-24 15:53:01.075014,117
2021-12-24 15:53:01.075020,96
2021-12-24 15:53:01.075033,94
2021-12-24 15:53:01.075039,117
2021-12-24 15:53:01.075046,124
2021-12-24 15:53:01.075052,127
2021-12-24 15:53:01.075059,134
2021-12-24 15:53:01.075065,124
2021-12-24 15:53:01.345025,127
2021-12-24 15:53:01.345046,129
2021-12-24 15:53:01.345054,106
2021-12-24 15:53:01.345061,84
2021-12-24 15:53:01.345067,80
2021-12-24 15:53:01.345073,101
2021-12-24 15:53:01.345079,124
2021-12-24 15:53:01.345086,113
2021-12-24 15:53:01.345092,110
2021-12-24 15:53:01.345098,136
2021-12-24 15:53:01.345104,139
2021-12-24 15:53:01.345111,120
2021-12-24 15:53:01.345117,124
2021-12-24 15:53:01.345123,131
2021-12-24 15:53:01.345129,120
2021-12-24 15:53:01.345135,127
2021-12-24 15:53:01.345142,171
2021-12-24 15:53:01.345148,70
2021-12-24 15:53:01.345154,-379
2021-12-24 15:53:01.345160,-838
2021-12-24 15:53:01.345167,-600
2021-12-24 15:53:01.345173,167
2021-12-24 15:53:01.345182,419
2021-12-24 15:53:01.345188,136
2021-12-24 15:53:01.345194,129
2021-12-24 15:53:01.345201,254
2021-12-24 15:53:01.345207,169
2021-12-24 15:53:01.345213,122
2021-12-24 15:53:01.345219,160
2021-12-24 15:53:01.345226,148
2021-12-24 15:53:01.479928,143
2021-12-24 15:53:01.479944,150
2021-12-24 15:53:01.479950,122
2021-12-24 15:53:01.479955,89
2021-12-24 15:53:01.479960,89
2021-12-24 15:53:01.479965,101
2021-12-24 15:53:01.479971,87
2021-12-24 15:53:01.479976,47
2021-12-24 15:53:01.479981,25
2021-12-24 15:53:01.479986,16
2021-12-24 15:53:01.479991,-7
2021-12-24 15:53:01.479997,-21
2021-12-24 15:53:01.480002,-42
2021-12-24 15:53:01.480007,-96
2021-12-24 15:53:01.480012,-134
2021-12-24 15:53:01.480018,-131
2021-12-24 15:53:01.480023,-134
2021-12-24 15:53:01.480028,-141
2021-12-24 15:53:01.480033,-134
2021-12-24 15:53:01.480039,-134
2021-12-24 15:53:01.480044,-136
2021-12-24 15:53:01.480049,-94
2021-12-24 15:53:01.480054,-25
2021-12-24 15:53:01.480060,4
2021-12-24 15:53:01.480067,28
2021-12-24 15:53:01.480073,73
2021-12-24 15:53:01.480078,98
2021-12-24 15:53:01.480083,89
2021-12-24 15:53:01.480088,91
2021-12-24 15:53:01.480094,113
2021-12-24 15:53:01.704658,110
2021-12-24 15:53:01.704680,94
2021-12-24 15:53:01.704687,94
2021-12-24 15:53:01.704694,94
2021-12-24 15:53:01.704700,87
2021-12-24 15:53:01.704706,65
2021-12-24 15:53:01.704712,40
2021-12-24 15:53:01.704718,47
2021-12-24 15:53:01.704725,58
2021-12-24 15:53:01.704731,58
2021-12-24 15:53:01.704737,56
2021-12-24 15:53:01.704744,56
2021-12-24 15:53:01.704750,70
2021-12-24 15:53:01.704756,75
2021-12-24 15:53:01.704762,25
2021-12-24 15:53:01.704768,-16
2021-12-24 15:53:01.704775,4
2021-12-24 15:53:01.704781,32
2021-12-24 15:53:01.704787,40
2021-12-24 15:53:01.704793,32
2021-12-24 15:53:01.704799,14
2021-12-24 15:53:01.704806,2
2021-12-24 15:53:01.704812,-7
2021-12-24 15:53:01.704818,-23
2021-12-24 15:53:01.704824,-14
2021-12-24 15:53:01.704831,16
2021-12-24 15:53:01.704837,28
2021-12-24 15:53:01.704843,35
2021-12-24 15:53:01.704849,51
2021-12-24 15:53:01.704855,44
2021-12-24 15:53:01.930148,25
2021-12-24 15:53:01.930177,40
2021-12-24 15:53:01.930189,42
2021-12-24 15:53:01.930199,21
2021-12-24 15:53:01.930209,68
2021-12-24 15:53:01.930219,84
2021-12-24 15:53:01.930229,-273
2021-12-24 15:53:01.930239,-857
2021-12-24 15:53:01.930249,-852
2021-12-24 15:53:01.930259,-61
2021-12-24 15:53:01.930269,438
2021-12-24 15:53:01.930279,167
2021-12-24 15:53:01.930288,2
2021-12-24 15:53:01.930298,139
2021-12-24 15:53:01.930308,103
2021-12-24 15:53:01.930318,37
2021-12-24 15:53:01.930328,101
2021-12-24 15:53:01.930338,108
2021-12-24 15:53:01.930347,42
2021-12-24 15:53:01.930357,47
2021-12-24 15:53:01.930367,75
2021-12-24 15:53:01.930377,63
2021-12-24 15:53:01.930386,68
2021-12-24 15:53:01.930396,68
2021-12-24 15:53:01.930406,32
2021-12-24 15:53:01.930415,9
2021-12-24 15:53:01.930425,23
2021-12-24 15:53:01.930435,11
2021-12-24 15:53:01.930444,-28
2021-12-24 15:53:01.930454,-44
2021-12-24 15:53:02.155054,-47
2021-12-24 15:53:02.155075,-73
2021-12-24 15:53:02.155083,-98
2021-12-24 15:53:02.155089,-108
2021-12-24 15:53:02.155096,-113
2021-12-24 15:53:02.155102,-117
2021-12-24 15:53:02.155108,-120
2021-12-24 15:53:02.155115,-115
2021-12-24 15:53:02.155121,-96
2021-12-24 15:53:02.155127,-51
2021-12-24 15:53:02.155141,0
2021-12-24 15:53:02.155147,44
2021-12-24 15:53:02.155154,94
2021-12-24 15:53:02.155160,143
2021-12-24 15:53:02.155167,174
2021-12-24 15:53:02.155173,188
2021-12-24 15:53:02.155180,193
2021-12-24 15:53:02.155186,181
2021-12-24 15:53:02.155192,179
2021-12-24 15:53:02.155199,183
2021-12-24 15:53:02.155205,174
2021-12-24 15:53:02.155212,162
2021-12-24 15:53:02.155218,164
2021-12-24 15:53:02.155225,167
2021-12-24 15:53:02.155231,160
2021-12-24 15:53:02.155238,153
2021-12-24 15:53:02.155244,143
2021-12-24 15:53:02.155250,131
2021-12-24 15:53:02.155257,134
2021-12-24 15:53:02.155263,148
2021-12-24 15:53:02.425016,150
2021-12-24 15:53:02.425046,139
2021-12-24 15:53:02.425058,127
2021-12-24 15:53:02.425068,113
2021-12-24 15:53:02.425078,113
2021-12-24 15:53:02.425088,117
2021-12-24 15:53:02.425098,120
2021-12-24 15:53:02.425108,122
2021-12-24 15:53:02.425118,110
2021-12-24 15:53:02.425128,84
2021-12-24 15:53:02.425138,63
2021-12-24 15:53:02.425148,68
2021-12-24 15:53:02.425158,84
2021-12-24 15:53:02.425168,91
2021-12-24 15:53:02.425177,91
2021-12-24 15:53:02.425187,98
2021-12-24 15:53:02.425197,106
2021-12-24 15:53:02.425207,101
2021-12-24 15:53:02.425217,101
2021-12-24 15:53:02.425227,108
2021-12-24 15:53:02.425237,113
2021-12-24 15:53:02.425247,117
2021-12-24 15:53:02.425257,139
2021-12-24 15:53:02.425266,150
2021-12-24 15:53:02.425276,-16
2021-12-24 15:53:02.425291,-506
2021-12-24 15:53:02.425301,-918
2021-12-24 15:53:02.425311,-560
2021-12-24 15:53:02.425320,252
2021-12-24 15:53:02.425330,417
2021-12-24 15:53:02.649151,101
2021-12-24 15:53:02.649171,124
2021-12-24 15:53:02.649179,249
2021-12-24 15:53:02.649186,164
2021-12-24 15:53:02.649192,115
2021-12-24 15:53:02.649199,141
2021-12-24 15:53:02.649205,131
2021-12-24 15:53:02.649212,120
2021-12-24 15:53:02.649218,122
2021-12-24 15:53:02.649225,110
2021-12-24 15:53:02.649231,103
2021-12-24 15:53:02.649237,98
2021-12-24 15:53:02.649244,84
2021-12-24 15:53:02.649250,77
2021-12-24 15:53:02.649256,80
2021-12-24 15:53:02.649263,61
2021-12-24 15:53:02.649269,32
2021-12-24 15:53:02.649276,7
2021-12-24 15:53:02.649282,-23
2021-12-24 15:53:02.649288,-49
2021-12-24 15:53:02.649295,-58
2021-12-24 15:53:02.649301,-77
2021-12-24 15:53:02.649308,-96
2021-12-24 15:53:02.649314,-96
2021-12-24 15:53:02.649321,-91
2021-12-24 15:53:02.649327,-87
2021-12-24 15:53:02.649333,-75
2021-12-24 15:53:02.649340,-54
2021-12-24 15:53:02.649346,-9
2021-12-24 15:53:02.649353,44
2021-12-24 15:53:02.875428,89
2021-12-24 15:53:02.875459,129
2021-12-24 15:53:02.875470,153
2021-12-24 15:53:02.875480,164
2021-12-24 15:53:02.875490,181
2021-12-24 15:53:02.875500,190
2021-12-24 15:53:02.875510,183
2021-12-24 15:53:02.875520,183
2021-12-24 15:53:02.875530,183
2021-12-24 15:53:02.875539,171
2021-12-24 15:53:02.875549,167
2021-12-24 15:53:02.875559,155
2021-12-24 15:53:02.875569,139
2021-12-24 15:53:02.875579,141
2021-12-24 15:53:02.875589,134
2021-12-24 15:53:02.875599,122
2021-12-24 15:53:02.875613,129
2021-12-24 15:53:02.875623,139
2021-12-24 15:53:02.875633,139
2021-12-24 15:53:02.875643,131
2021-12-24 15:53:02.875653,127
2021-12-24 15:53:02.875663,124
2021-12-24 15:53:02.875673,124
2021-12-24 15:53:02.875683,120
2021-12-24 15:53:02.875693,117
2021-12-24 15:53:02.875703,120
2021-12-24 15:53:02.875713,127
2021-12-24 15:53:02.875723,129
2021-12-24 15:53:02.875733,110
2021-12-24 15:53:02.875743,87
2021-12-24 15:53:03.100460,73
2021-12-24 15:53:03.100491,77
2021-12-24 15:53:03.100503,89
2021-12-24 15:53:03.100514,91
2021-12-24 15:53:03.100524,103
2021-12-24 15:53:03.100534,117
2021-12-24 15:53:03.100543,122
2021-12-24 15:53:03.100553,124
2021-12-24 15:53:03.100563,127
2021-12-24 15:53:03.100573,115
2021-12-24 15:53:03.100583,110
2021-12-24 15:53:03.100592,115
2021-12-24 15:53:03.100602,108
2021-12-24 15:53:03.100612,136
2021-12-24 15:53:03.100621,47
2021-12-24 15:53:03.100631,-407
2021-12-24 15:53:03.100641,-876
2021-12-24 15:53:03.100651,-617
2021-12-24 15:53:03.100661,169
2021-12-24 15:53:03.100670,419
2021-12-24 15:53:03.100680,134
2021-12-24 15:53:03.100690,110
2021-12-24 15:53:03.100700,223
2021-12-24 15:53:03.100709,157
2021-12-24 15:53:03.100719,127
2021-12-24 15:53:03.100729,169
2021-12-24 15:53:03.100739,155
2021-12-24 15:53:03.100748,136
2021-12-24 15:53:03.100758,146
2021-12-24 15:53:03.100768,136
2021-12-24 15:53:03.415536,129
2021-12-24 15:53:03.415566,124
2021-12-24 15:53:03.415578,103
2021-12-24 15:53:03.415588,84
2021-12-24 15:53:03.415598,73
2021-12-24 15:53:03.415608,58
2021-12-24 15:53:03.415617,40
2021-12-24 15:53:03.415627,16
2021-12-24 15:53:03.415637,-11
2021-12-24 15:53:03.415647,-30
2021-12-24 15:53:03.415657,-51
2021-12-24 15:53:03.415667,-73
2021-12-24 15:53:03.415677,-84
2021-12-24 15:53:03.415693,-91
2021-12-24 15:53:03.415703,-101
2021-12-24 15:53:03.415713,-96
2021-12-24 15:53:03.415722,-80
2021-12-24 15:53:03.415732,-58
2021-12-24 15:53:03.415742,-23
2021-12-24 15:53:03.415752,25
2021-12-24 15:53:03.415761,75
2021-12-24 15:53:03.415771,122
2021-12-24 15:53:03.415781,153
2021-12-24 15:53:03.415791,174
2021-12-24 15:53:03.415800,179
2021-12-24 15:53:03.415810,171
2021-12-24 15:53:03.415820,167
2021-12-24 15:53:03.415830,169
2021-12-24 15:53:03.415839,167
2021-12-24 15:53:03.415849,160
2021-12-24 15:53:03.594554,160
2021-12-24 15:53:03.594574,160
2021-12-24 15:53:03.594582,150
2021-12-24 15:53:03.594589,129
2021-12-24 15:53:03.594595,124
2021-12-24 15:53:03.594602,131
2021-12-24 15:53:03.594608,127
2021-12-24 15:53:03.594615,120
2021-12-24 15:53:03.594621,124
2021-12-24 15:53:03.594627,127
2021-12-24 15:53:03.594634,129
2021-12-24 15:53:03.594640,141
2021-12-24 15:53:03.594647,146
2021-12-24 15:53:03.594653,124
2021-12-24 15:53:03.594659,94
2021-12-24 15:53:03.594666,94
2021-12-24 15:53:03.594672,113
2021-12-24 15:53:03.594678,110
2021-12-24 15:53:03.594685,110
2021-12-24 15:53:03.594691,115
2021-12-24 15:53:03.594697,101
2021-12-24 15:53:03.594704,68
2021-12-24 15:53:03.594710,56
2021-12-24 15:53:03.594716,70
2021-12-24 15:53:03.594722,87
2021-12-24 15:53:03.594729,96
2021-12-24 15:53:03.594735,113
2021-12-24 15:53:03.594741,120
2021-12-24 15:53:03.594748,117
2021-12-24 15:53:03.594754,120
2021-12-24 15:53:03.774659,122
2021-12-24 15:53:03.774675,117
2021-12-24 15:53:03.774681,117
2021-12-24 15:53:03.774686,120
2021-12-24 15:53:03.774691,148
2021-12-24 15:53:03.774696,162
2021-12-24 15:53:03.774701,-82
2021-12-24 15:53:03.774706,-614
2021-12-24 15:53:03.774711,-831
2021-12-24 15:53:03.774717,-245
2021-12-24 15:53:03.774722,402
2021-12-24 15:53:03.774727,310
2021-12-24 15:53:03.774732,77
2021-12-24 15:53:03.774737,186
2021-12-24 15:53:03.774742,212
2021-12-24 15:53:03.774747,127
2021-12-24 15:53:03.774752,148
2021-12-24 15:53:03.774759,176
2021-12-24 15:53:03.774765,143
2021-12-24 15:53:03.774770,127
2021-12-24 15:53:03.774775,131
2021-12-24 15:53:03.774780,122
2021-12-24 15:53:03.774785,117
2021-12-24 15:53:03.774790,113
2021-12-24 15:53:03.774795,96
2021-12-24 15:53:03.774800,87
2021-12-24 15:53:03.774805,84
2021-12-24 15:53:03.774810,63
2021-12-24 15:53:03.774815,37
2021-12-24 15:53:03.774820,14
2021-12-24 15:53:04.000611,-9
2021-12-24 15:53:04.000641,-37
2021-12-24 15:53:04.000653,-63
2021-12-24 15:53:04.000663,-77
2021-12-24 15:53:04.000673,-84
2021-12-24 15:53:04.000682,-96
2021-12-24 15:53:04.000692,-101
2021-12-24 15:53:04.000702,-91
2021-12-24 15:53:04.000712,-82
2021-12-24 15:53:04.000722,-58
2021-12-24 15:53:04.000731,-16
2021-12-24 15:53:04.000741,28
2021-12-24 15:53:04.000751,65
2021-12-24 15:53:04.000761,103
2021-12-24 15:53:04.000770,141
2021-12-24 15:53:04.000780,157
2021-12-24 15:53:04.000790,155
2021-12-24 15:53:04.000800,157
2021-12-24 15:53:04.000810,155
2021-12-24 15:53:04.000820,146
2021-12-24 15:53:04.000829,143
2021-12-24 15:53:04.000839,139
2021-12-24 15:53:04.000849,131
2021-12-24 15:53:04.000858,127
2021-12-24 15:53:04.000868,122
2021-12-24 15:53:04.000877,117
2021-12-24 15:53:04.000887,108
2021-12-24 15:53:04.000897,101
2021-12-24 15:53:04.000907,101
2021-12-24 15:53:04.000916,101
2021-12-24 15:53:04.270029,89
2021-12-24 15:53:04.270048,82
2021-12-24 15:53:04.270055,87
2021-12-24 15:53:04.270062,87
2021-12-24 15:53:04.270068,77
2021-12-24 15:53:04.270075,75
2021-12-24 15:53:04.270081,75
2021-12-24 15:53:04.270087,68
2021-12-24 15:53:04.270094,61
2021-12-24 15:53:04.270100,73
2021-12-24 15:53:04.270106,77
2021-12-24 15:53:04.270113,40
2021-12-24 15:53:04.270119,-9
2021-12-24 15:53:04.270125,-18
2021-12-24 15:53:04.270132,2
2021-12-24 15:53:04.270138,23
2021-12-24 15:53:04.270144,37
2021-12-24 15:53:04.270151,30
2021-12-24 15:53:04.270157,14
2021-12-24 15:53:04.270163,16
2021-12-24 15:53:04.270170,32
2021-12-24 15:53:04.270176,37
2021-12-24 15:53:04.270182,28
2021-12-24 15:53:04.270189,16
2021-12-24 15:53:04.270195,18
2021-12-24 15:53:04.270201,61
2021-12-24 15:53:04.270208,44
2021-12-24 15:53:04.270214,-294
2021-12-24 15:53:04.270220,-836
2021-12-24 15:53:04.270230,-817
2021-12-24 15:53:04.450436,-28
2021-12-24 15:53:04.450466,431
2021-12-24 15:53:04.450478,124
2021-12-24 15:53:04.450488,-21
2021-12-24 15:53:04.450497,131
2021-12-24 15:53:04.450507,80
2021-12-24 15:53:04.450517,7
2021-12-24 15:53:04.450526,58
2021-12-24 15:53:04.450536,61
2021-12-24 15:53:04.450546,32
2021-12-24 15:53:04.450555,40
2021-12-24 15:53:04.450565,28
2021-12-24 15:53:04.450574,-7
2021-12-24 15:53:04.450584,-9
2021-12-24 15:53:04.450593,2
2021-12-24 15:53:04.450603,-23
2021-12-24 15:53:04.450612,-58
2021-12-24 15:53:04.450622,-58
2021-12-24 15:53:04.450631,-58
2021-12-24 15:53:04.450641,-84
2021-12-24 15:53:04.450651,-117
2021-12-24 15:53:04.450660,-139
2021-12-24 15:53:04.450670,-157
2021-12-24 15:53:04.450679,-179
2021-12-24 15:53:04.450688,-195
2021-12-24 15:53:04.450698,-200
2021-12-24 15:53:04.450707,-195
2021-12-24 15:53:04.450717,-195
2021-12-24 15:53:04.450726,-190
2021-12-24 15:53:04.450736,-171
2021-12-24 15:53:04.808860,-134
2021-12-24 15:53:04.808881,-84
2021-12-24 15:53:04.808889,-28
2021-12-24 15:53:04.808896,21
2021-12-24 15:53:04.808903,61
2021-12-24 15:53:04.808909,91
2021-12-24 15:53:04.808916,110
2021-12-24 15:53:04.808922,113
2021-12-24 15:53:04.808929,110
2021-12-24 15:53:04.808935,113
2021-12-24 15:53:04.808941,122
2021-12-24 15:53:04.808948,129
2021-12-24 15:53:04.808954,106
2021-12-24 15:53:04.808961,87
2021-12-24 15:53:04.808967,101
2021-12-24 15:53:04.808974,106
2021-12-24 15:53:04.808980,87
2021-12-24 15:53:04.808987,82
2021-12-24 15:53:04.808993,98
2021-12-24 15:53:04.808999,108
2021-12-24 15:53:04.809006,91
2021-12-24 15:53:04.809012,68
2021-12-24 15:53:04.809019,63
2021-12-24 15:53:04.809025,80
2021-12-24 15:53:04.809032,91
2021-12-24 15:53:04.809038,96
2021-12-24 15:53:04.809045,101
2021-12-24 15:53:04.809051,96
2021-12-24 15:53:04.809058,82
2021-12-24 15:53:04.809064,77
2021-12-24 15:53:04.945224,75
2021-12-24 15:53:04.945253,65
2021-12-24 15:53:04.945265,70
2021-12-24 15:53:04.945275,77
2021-12-24 15:53:04.945285,94
2021-12-24 15:53:04.945295,124
2021-12-24 15:53:04.945305,129
2021-12-24 15:53:04.945314,103
2021-12-24 15:53:04.945324,101
2021-12-24 15:53:04.945334,113
2021-12-24 15:53:04.945343,106
2021-12-24 15:53:04.945353,101
2021-12-24 15:53:04.945363,117
2021-12-24 15:53:04.945373,164
2021-12-24 15:53:04.945383,87
2021-12-24 15:53:04.945392,-348
2021-12-24 15:53:04.945402,-843
2021-12-24 15:53:04.945412,-664
2021-12-24 15:53:04.945421,148
2021-12-24 15:53:04.945431,478
2021-12-24 15:53:04.945447,134
2021-12-24 15:53:04.945458,75
2021-12-24 15:53:04.945467,233
2021-12-24 15:53:04.945477,117
2021-12-24 15:53:04.945486,56
2021-12-24 15:53:04.945496,148
2021-12-24 15:53:04.945506,150
2021-12-24 15:53:04.945515,117
2021-12-24 15:53:04.945525,141
2021-12-24 15:53:04.945534,129
2021-12-24 15:53:05.169838,89
2021-12-24 15:53:05.169860,101
2021-12-24 15:53:05.169867,103
2021-12-24 15:53:05.169874,49
2021-12-24 15:53:05.169880,35
2021-12-24 15:53:05.169887,61
2021-12-24 15:53:05.169893,47
2021-12-24 15:53:05.169899,4
2021-12-24 15:53:05.169906,-23
2021-12-24 15:53:05.169912,-37
2021-12-24 15:53:05.169918,-54
2021-12-24 15:53:05.169925,-77
2021-12-24 15:53:05.169931,-89
2021-12-24 15:53:05.169937,-96
2021-12-24 15:53:05.169944,-103
2021-12-24 15:53:05.169950,-101
2021-12-24 15:53:05.169956,-82
2021-12-24 15:53:05.169963,-56
2021-12-24 15:53:05.169969,-32
2021-12-24 15:53:05.169975,-2
2021-12-24 15:53:05.169982,56
2021-12-24 15:53:05.169988,113
2021-12-24 15:53:05.169994,148
2021-12-24 15:53:05.170001,176
2021-12-24 15:53:05.170007,181
2021-12-24 15:53:05.170013,174
2021-12-24 15:53:05.170019,193
2021-12-24 15:53:05.170026,195
2021-12-24 15:53:05.170032,171
2021-12-24 15:53:05.170038,171
2021-12-24 15:53:05.395575,164
2021-12-24 15:53:05.395605,146
2021-12-24 15:53:05.395617,155
2021-12-24 15:53:05.395627,164
2021-12-24 15:53:05.395637,148
2021-12-24 15:53:05.395646,139
2021-12-24 15:53:05.395656,143
2021-12-24 15:53:05.395666,143
2021-12-24 15:53:05.395676,139
2021-12-24 15:53:05.395685,131
2021-12-24 15:53:05.395695,122
2021-12-24 15:53:05.395705,124
2021-12-24 15:53:05.395715,134
2021-12-24 15:53:05.395724,139
2021-12-24 15:53:05.395734,129
2021-12-24 15:53:05.395744,115
2021-12-24 15:53:05.395754,120
2021-12-24 15:53:05.395763,115
2021-12-24 15:53:05.395773,84
2021-12-24 15:53:05.395783,70
2021-12-24 15:53:05.395792,89
2021-12-24 15:53:05.395802,108
2021-12-24 15:53:05.395811,113
2021-12-24 15:53:05.395821,115
2021-12-24 15:53:05.395831,131
2021-12-24 15:53:05.395840,146
2021-12-24 15:53:05.395850,134
2021-12-24 15:53:05.395859,115
2021-12-24 15:53:05.395869,115
2021-12-24 15:53:05.395879,117
2021-12-24 15:53:05.800600,103
2021-12-24 15:53:05.800631,134
2021-12-24 15:53:05.800643,181
2021-12-24 15:53:05.800653,-14
2021-12-24 15:53:05.800663,-544
2021-12-24 15:53:05.800673,-859
2021-12-24 15:53:05.800682,-367
2021-12-24 15:53:05.800692,367
2021-12-24 15:53:05.800702,384
2021-12-24 15:53:05.800712,113
2021-12-24 15:53:05.800722,193
2021-12-24 15:53:05.800732,254
2021-12-24 15:53:05.800741,143
2021-12-24 15:53:05.800751,136
2021-12-24 15:53:05.800761,190
2021-12-24 15:53:05.800770,176
2021-12-24 15:53:05.800780,153
2021-12-24 15:53:05.800790,153
2021-12-24 15:53:05.800800,143
2021-12-24 15:53:05.800809,124
2021-12-24 15:53:05.800819,124
2021-12-24 15:53:05.800829,122
2021-12-24 15:53:05.800844,115
2021-12-24 15:53:05.800854,110
2021-12-24 15:53:05.800864,89
2021-12-24 15:53:05.800874,51
2021-12-24 15:53:05.800884,28
2021-12-24 15:53:05.800893,14
2021-12-24 15:53:05.800903,0
2021-12-24 15:53:05.800913,-21
2021-12-24 15:53:05.890604,-58
2021-12-24 15:53:05.890635,-80
2021-12-24 15:53:05.890647,-68
2021-12-24 15:53:05.890658,-54
2021-12-24 15:53:05.890668,-54
2021-12-24 15:53:05.890678,-54
2021-12-24 15:53:05.890688,-37
2021-12-24 15:53:05.890698,4
2021-12-24 15:53:05.890708,65
2021-12-24 15:53:05.890718,117
2021-12-24 15:53:05.890728,153
2021-12-24 15:53:05.890738,179
2021-12-24 15:53:05.890748,197
2021-12-24 15:53:05.890757,207
2021-12-24 15:53:05.890767,209
2021-12-24 15:53:05.890777,209
2021-12-24 15:53:05.890787,197
2021-12-24 15:53:05.890797,176
2021-12-24 15:53:05.890807,167
2021-12-24 15:53:05.890817,169
2021-12-24 15:53:05.890827,167
2021-12-24 15:53:05.890837,162
2021-12-24 15:53:05.890846,157
2021-12-24 15:53:05.890856,148
2021-12-24 15:53:05.890866,139
2021-12-24 15:53:05.890876,141
2021-12-24 15:53:05.890886,139
2021-12-24 15:53:05.890896,134
2021-12-24 15:53:05.890905,124
2021-12-24 15:53:05.890915,110
2021-12-24 15:53:06.069945,115
2021-12-24 15:53:06.069964,124
2021-12-24 15:53:06.069972,113
2021-12-24 15:53:06.069979,106
2021-12-24 15:53:06.069986,117
2021-12-24 15:53:06.069992,122
2021-12-24 15:53:06.069999,127
2021-12-24 15:53:06.070008,120
2021-12-24 15:53:06.070016,91
2021-12-24 15:53:06.070023,70
2021-12-24 15:53:06.070030,73
2021-12-24 15:53:06.070036,82
2021-12-24 15:53:06.070043,91
2021-12-24 15:53:06.070049,108
2021-12-24 15:53:06.070056,117
2021-12-24 15:53:06.070063,113
2021-12-24 15:53:06.070069,106
2021-12-24 15:53:06.070076,106
2021-12-24 15:53:06.070083,115
2021-12-24 15:53:06.070089,115
2021-12-24 15:53:06.070096,103
2021-12-24 15:53:06.070102,115
2021-12-24 15:53:06.070109,160
2021-12-24 15:53:06.070115,89
2021-12-24 15:53:06.070124,-310
2021-12-24 15:53:06.070131,-822
2021-12-24 15:53:06.070137,-718
2021-12-24 15:53:06.070144,54
2021-12-24 15:53:06.070150,454
2021-12-24 15:53:06.070157,193
2021-12-24 15:53:06.295615,98
2021-12-24 15:53:06.295645,235
2021-12-24 15:53:06.295657,195
2021-12-24 15:53:06.295668,127
2021-12-24 15:53:06.295678,155
2021-12-24 15:53:06.295687,162
2021-12-24 15:53:06.295697,148
2021-12-24 15:53:06.295707,153
2021-12-24 15:53:06.295717,143
2021-12-24 15:53:06.295726,122
2021-12-24 15:53:06.295736,115
2021-12-24 15:53:06.295746,113
2021-12-24 15:53:06.295756,96
2021-12-24 15:53:06.295766,82
2021-12-24 15:53:06.295776,75
2021-12-24 15:53:06.295785,56
2021-12-24 15:53:06.295795,40
2021-12-24 15:53:06.295805,21
2021-12-24 15:53:06.295815,-11
2021-12-24 15:53:06.295824,-30
2021-12-24 15:53:06.295834,-42
2021-12-24 15:53:06.295844,-61
2021-12-24 15:53:06.295854,-65
2021-12-24 15:53:06.295863,-56
2021-12-24 15:53:06.295873,-49
2021-12-24 15:53:06.295883,-51
2021-12-24 15:53:06.295892,-44
2021-12-24 15:53:06.295902,-21
2021-12-24 15:53:06.295912,21
2021-12-24 15:53:06.295922,73
2021-12-24 15:53:06.565624,122
2021-12-24 15:53:06.565654,153
2021-12-24 15:53:06.565666,169
2021-12-24 15:53:06.565676,183
2021-12-24 15:53:06.565686,186
2021-12-24 15:53:06.565701,176
2021-12-24 15:53:06.565711,171
2021-12-24 15:53:06.565721,171
2021-12-24 15:53:06.565730,174
2021-12-24 15:53:06.565740,167
2021-12-24 15:53:06.565750,155
2021-12-24 15:53:06.565760,141
2021-12-24 15:53:06.565770,141
2021-12-24 15:53:06.565780,139
2021-12-24 15:53:06.565790,134
2021-12-24 15:53:06.565800,134
2021-12-24 15:53:06.565809,139
2021-12-24 15:53:06.565819,134
2021-12-24 15:53:06.565829,127
2021-12-24 15:53:06.565839,124
2021-12-24 15:53:06.565848,129
2021-12-24 15:53:06.565858,134
2021-12-24 15:53:06.565868,134
2021-12-24 15:53:06.565878,131
2021-12-24 15:53:06.565887,124
2021-12-24 15:53:06.565897,120
2021-12-24 15:53:06.565907,120
2021-12-24 15:53:06.565917,122
2021-12-24 15:53:06.565926,124
2021-12-24 15:53:06.565936,127
2021-12-24 15:53:06.879135,122
2021-12-24 15:53:06.879166,94
2021-12-24 15:53:06.879178,73
2021-12-24 15:53:06.879188,80
2021-12-24 15:53:06.879198,96
2021-12-24 15:53:06.879208,110
2021-12-24 15:53:06.879217,134
2021-12-24 15:53:06.879227,136
2021-12-24 15:53:06.879237,120
2021-12-24 15:53:06.879246,115
2021-12-24 15:53:06.879256,120
2021-12-24 15:53:06.879266,113
2021-12-24 15:53:06.879275,106
2021-12-24 15:53:06.879285,110
2021-12-24 15:53:06.879294,143
2021-12-24 15:53:06.879304,143
2021-12-24 15:53:06.879314,-141
2021-12-24 15:53:06.879323,-673
2021-12-24 15:53:06.879333,-782
2021-12-24 15:53:06.879343,-124
2021-12-24 15:53:06.879353,428
2021-12-24 15:53:06.879363,259
2021-12-24 15:53:06.879372,73
2021-12-24 15:53:06.879382,186
2021-12-24 15:53:06.879391,188
2021-12-24 15:53:06.879401,124
2021-12-24 15:53:06.879411,148
2021-12-24 15:53:06.879420,153
2021-12-24 15:53:06.879430,131
2021-12-24 15:53:06.879439,136
2021-12-24 15:53:07.060719,122
2021-12-24 15:53:07.060741,103
2021-12-24 15:53:07.060749,108
2021-12-24 15:53:07.060755,103
2021-12-24 15:53:07.060762,82
2021-12-24 15:53:07.060768,68
2021-12-24 15:53:07.060775,56
2021-12-24 15:53:07.060781,32
2021-12-24 15:53:07.060787,9
2021-12-24 15:53:07.060794,-7
2021-12-24 15:53:07.060800,-25
2021-12-24 15:53:07.060807,-47
2021-12-24 15:53:07.060813,-51
2021-12-24 15:53:07.060819,-58
2021-12-24 15:53:07.060826,-87
2021-12-24 15:53:07.060832,-110
2021-12-24 15:53:07.060839,-106
2021-12-24 15:53:07.060845,-89
2021-12-24 15:53:07.060852,-87
2021-12-24 15:53:07.060858,-70
2021-12-24 15:53:07.060864,-18
2021-12-24 15:53:07.060871,35
2021-12-24 15:53:07.060877,77
2021-12-24 15:53:07.060883,120
2021-12-24 15:53:07.060890,155
2021-12-24 15:53:07.060896,164
2021-12-24 15:53:07.060903,162
2021-12-24 15:53:07.060909,157
2021-12-24 15:53:07.060916,148
2021-12-24 15:53:07.060922,146
2021-12-24 15:53:07.330583,155
2021-12-24 15:53:07.330605,148
2021-12-24 15:53:07.330613,134
2021-12-24 15:53:07.330620,129
2021-12-24 15:53:07.330626,139
2021-12-24 15:53:07.330632,143
2021-12-24 15:53:07.330639,131
2021-12-24 15:53:07.330645,120
2021-12-24 15:53:07.330651,124
2021-12-24 15:53:07.330658,113
2021-12-24 15:53:07.330664,94
2021-12-24 15:53:07.330670,103
2021-12-24 15:53:07.330677,110
2021-12-24 15:53:07.330683,96
2021-12-24 15:53:07.330690,106
2021-12-24 15:53:07.330696,113
2021-12-24 15:53:07.330702,91
2021-12-24 15:53:07.330709,87
2021-12-24 15:53:07.330715,108
2021-12-24 15:53:07.330722,108
2021-12-24 15:53:07.330728,91
2021-12-24 15:53:07.330734,89
2021-12-24 15:53:07.330741,89
2021-12-24 15:53:07.330747,70
2021-12-24 15:53:07.330754,44
2021-12-24 15:53:07.330760,37
2021-12-24 15:53:07.330766,49
2021-12-24 15:53:07.330773,65
2021-12-24 15:53:07.330779,84
2021-12-24 15:53:07.330786,103
2021-12-24 15:53:07.555070,94
2021-12-24 15:53:07.555109,73
2021-12-24 15:53:07.555122,77
2021-12-24 15:53:07.555132,82
2021-12-24 15:53:07.555141,68
2021-12-24 15:53:07.555151,56
2021-12-24 15:53:07.555161,73
2021-12-24 15:53:07.555171,110
2021-12-24 15:53:07.555181,-40
2021-12-24 15:53:07.555191,-539
2021-12-24 15:53:07.555200,-904
2021-12-24 15:53:07.555210,-457
2021-12-24 15:53:07.555220,289
2021-12-24 15:53:07.555230,308
2021-12-24 15:53:07.555240,7
2021-12-24 15:53:07.555250,73
2021-12-24 15:53:07.555259,148
2021-12-24 15:53:07.555269,54
2021-12-24 15:53:07.555279,49
2021-12-24 15:53:07.555289,87
2021-12-24 15:53:07.555298,54
2021-12-24 15:53:07.555308,32
2021-12-24 15:53:07.555318,44
2021-12-24 15:53:07.555327,42
2021-12-24 15:53:07.555337,18
2021-12-24 15:53:07.555347,7
2021-12-24 15:53:07.555356,7
2021-12-24 15:53:07.555366,-11
2021-12-24 15:53:07.555376,-30
2021-12-24 15:53:07.555385,-37
2021-12-24 15:53:07.868928,-56
2021-12-24 15:53:07.868949,-75
2021-12-24 15:53:07.868957,-87
2021-12-24 15:53:07.868964,-110
2021-12-24 15:53:07.868970,-148
2021-12-24 15:53:07.868976,-169
2021-12-24 15:53:07.868983,-174
2021-12-24 15:53:07.868989,-174
2021-12-24 15:53:07.868996,-176
2021-12-24 15:53:07.869002,-171
2021-12-24 15:53:07.869009,-160
2021-12-24 15:53:07.869015,-141
2021-12-24 15:53:07.869021,-98
2021-12-24 15:53:07.869028,-47
2021-12-24 15:53:07.869035,0
2021-12-24 15:53:07.869041,49
2021-12-24 15:53:07.869048,94
2021-12-24 15:53:07.869054,101
2021-12-24 15:53:07.869060,91
2021-12-24 15:53:07.869067,101
2021-12-24 15:53:07.869073,115
2021-12-24 15:53:07.869079,115
2021-12-24 15:53:07.869086,110
2021-12-24 15:53:07.869092,108
2021-12-24 15:53:07.869098,110
2021-12-24 15:53:07.869105,106
2021-12-24 15:53:07.869111,98
2021-12-24 15:53:07.869117,94
2021-12-24 15:53:07.869124,94
2021-12-24 15:53:07.869130,94
2021-12-24 15:53:08.049398,94
2021-12-24 15:53:08.049428,87
2021-12-24 15:53:08.049439,80
2021-12-24 15:53:08.049449,77
2021-12-24 15:53:08.049459,77
2021-12-24 15:53:08.049468,82
2021-12-24 15:53:08.049478,89
2021-12-24 15:53:08.049489,94
2021-12-24 15:53:08.049498,106
2021-12-24 15:53:08.049508,117
2021-12-24 15:53:08.049518,113
2021-12-24 15:53:08.049527,96
2021-12-24 15:53:08.049537,70
2021-12-24 15:53:08.049547,42
2021-12-24 15:53:08.049557,51
2021-12-24 15:53:08.049566,82
2021-12-24 15:53:08.049576,84
2021-12-24 15:53:08.049585,84
2021-12-24 15:53:08.049595,98
2021-12-24 15:53:08.049604,110
2021-12-24 15:53:08.049614,108
2021-12-24 15:53:08.049624,108
2021-12-24 15:53:08.049633,110
2021-12-24 15:53:08.049643,108
2021-12-24 15:53:08.049652,108
2021-12-24 15:53:08.049662,124
2021-12-24 15:53:08.049672,153
2021-12-24 15:53:08.049681,23
2021-12-24 15:53:08.049691,-457
2021-12-24 15:53:08.049701,-862
2021-12-24 15:53:08.185027,-485
2021-12-24 15:53:08.185058,299
2021-12-24 15:53:08.185070,419
2021-12-24 15:53:08.185080,108
2021-12-24 15:53:08.185090,127
2021-12-24 15:53:08.185100,223
2021-12-24 15:53:08.185110,143
2021-12-24 15:53:08.185120,120
2021-12-24 15:53:08.185129,160
2021-12-24 15:53:08.185139,146
2021-12-24 15:53:08.185149,122
2021-12-24 15:53:08.185158,127
2021-12-24 15:53:08.185168,129
2021-12-24 15:53:08.185178,117
2021-12-24 15:53:08.185187,110
2021-12-24 15:53:08.185197,106
2021-12-24 15:53:08.185206,87
2021-12-24 15:53:08.185216,65
2021-12-24 15:53:08.185226,54
2021-12-24 15:53:08.185235,37
2021-12-24 15:53:08.185245,14
2021-12-24 15:53:08.185255,-11
2021-12-24 15:53:08.185264,-32
2021-12-24 15:53:08.185274,-54
2021-12-24 15:53:08.185284,-77
2021-12-24 15:53:08.185294,-94
2021-12-24 15:53:08.185303,-96
2021-12-24 15:53:08.185313,-96
2021-12-24 15:53:08.185323,-91
2021-12-24 15:53:08.185332,-73
2021-12-24 15:53:08.500030,-37
2021-12-24 15:53:08.500060,-2
2021-12-24 15:53:08.500072,25
2021-12-24 15:53:08.500082,63
2021-12-24 15:53:08.500092,115
2021-12-24 15:53:08.500101,155
2021-12-24 15:53:08.500111,162
2021-12-24 15:53:08.500121,160
2021-12-24 15:53:08.500130,174
2021-12-24 15:53:08.500140,179
2021-12-24 15:53:08.500150,167
2021-12-24 15:53:08.500167,162
2021-12-24 15:53:08.500177,169
2021-12-24 15:53:08.500187,169
2021-12-24 15:53:08.500197,150
2021-12-24 15:53:08.500206,127
2021-12-24 15:53:08.500216,129
2021-12-24 15:53:08.500226,136
2021-12-24 15:53:08.500236,127
2021-12-24 15:53:08.500245,122
2021-12-24 15:53:08.500255,127
2021-12-24 15:53:08.500265,127
2021-12-24 15:53:08.500274,117
2021-12-24 15:53:08.500284,117
2021-12-24 15:53:08.500294,129
2021-12-24 15:53:08.500304,129
2021-12-24 15:53:08.500313,115
2021-12-24 15:53:08.500323,115
2021-12-24 15:53:08.500332,131
2021-12-24 15:53:08.500342,136
2021-12-24 15:53:08.635367,127
2021-12-24 15:53:08.635389,127
2021-12-24 15:53:08.635397,122
2021-12-24 15:53:08.635403,98
2021-12-24 15:53:08.635410,82
2021-12-24 15:53:08.635416,98
2021-12-24 15:53:08.635422,117
2021-12-24 15:53:08.635429,127
2021-12-24 15:53:08.635435,134
2021-12-24 15:53:08.635441,136
2021-12-24 15:53:08.635447,141
2021-12-24 15:53:08.635454,146
2021-12-24 15:53:08.635460,143
2021-12-24 15:53:08.635466,141
2021-12-24 15:53:08.635473,129
2021-12-24 15:53:08.635479,120
2021-12-24 15:53:08.635485,160
2021-12-24 15:53:08.635492,176
2021-12-24 15:53:08.635498,-96
2021-12-24 15:53:08.635504,-647
2021-12-24 15:53:08.635511,-817
2021-12-24 15:53:08.635517,-183
2021-12-24 15:53:08.635524,428
2021-12-24 15:53:08.635530,296
2021-12-24 15:53:08.635536,91
2021-12-24 15:53:08.635543,214
2021-12-24 15:53:08.635549,219
2021-12-24 15:53:08.635555,122
2021-12-24 15:53:08.635562,146
2021-12-24 15:53:08.635568,174
2021-12-24 15:53:09.219828,148
2021-12-24 15:53:09.219858,136
2021-12-24 15:53:09.219869,139
2021-12-24 15:53:09.219880,120
2021-12-24 15:53:09.219890,106
2021-12-24 15:53:09.219900,103
2021-12-24 15:53:09.219910,94
2021-12-24 15:53:09.219919,75
2021-12-24 15:53:09.219929,58
2021-12-24 15:53:09.219939,47
2021-12-24 15:53:09.219954,21
2021-12-24 15:53:09.219965,-11
2021-12-24 15:53:09.219975,-28
2021-12-24 15:53:09.219985,-37
2021-12-24 15:53:09.219995,-75
2021-12-24 15:53:09.220005,-122
2021-12-24 15:53:09.220015,-127
2021-12-24 15:53:09.220025,-120
2021-12-24 15:53:09.220035,-127
2021-12-24 15:53:09.220045,-122
2021-12-24 15:53:09.220055,-106
2021-12-24 15:53:09.220064,-82
2021-12-24 15:53:09.220074,-49
2021-12-24 15:53:09.220084,-16
2021-12-24 15:53:09.220094,21
2021-12-24 15:53:09.220105,63
2021-12-24 15:53:09.220115,87
2021-12-24 15:53:09.220125,94
2021-12-24 15:53:09.220134,98
2021-12-24 15:53:09.220144,108
2021-12-24 15:53:09.400140,103
2021-12-24 15:53:09.400170,87
2021-12-24 15:53:09.400182,77
2021-12-24 15:53:09.400192,80
2021-12-24 15:53:09.400201,82
2021-12-24 15:53:09.400211,73
2021-12-24 15:53:09.400221,49
2021-12-24 15:53:09.400230,32
2021-12-24 15:53:09.400240,42
2021-12-24 15:53:09.400250,47
2021-12-24 15:53:09.400259,37
2021-12-24 15:53:09.400269,35
2021-12-24 15:53:09.400278,35
2021-12-24 15:53:09.400288,32
2021-12-24 15:53:09.400298,42
2021-12-24 15:53:09.400307,44
2021-12-24 15:53:09.400317,32
2021-12-24 15:53:09.400327,23
2021-12-24 15:53:09.400337,32
2021-12-24 15:53:09.400346,49
2021-12-24 15:53:09.400356,49
2021-12-24 15:53:09.400366,37
2021-12-24 15:53:09.400375,16
2021-12-24 15:53:09.400385,-7
2021-12-24 15:53:09.400395,-11
2021-12-24 15:53:09.400405,0
2021-12-24 15:53:09.400414,9
2021-12-24 15:53:09.400424,25
2021-12-24 15:53:09.400434,40
2021-12-24 15:53:09.400443,35
2021-12-24 15:53:09.535604,35
2021-12-24 15:53:09.535635,32
2021-12-24 15:53:09.535647,28
2021-12-24 15:53:09.535657,30
2021-12-24 15:53:09.535667,35
2021-12-24 15:53:09.535677,30
2021-12-24 15:53:09.535687,56
2021-12-24 15:53:09.535697,47
2021-12-24 15:53:09.535707,-278
2021-12-24 15:53:09.535717,-831
2021-12-24 15:53:09.535727,-862
2021-12-24 15:53:09.535737,-84
2021-12-24 15:53:09.535747,447
2021-12-24 15:53:09.535757,171
2021-12-24 15:53:09.535767,-4
2021-12-24 15:53:09.535777,150
2021-12-24 15:53:09.535787,120
2021-12-24 15:53:09.535797,35
2021-12-24 15:53:09.535807,80
2021-12-24 15:53:09.535817,101
2021-12-24 15:53:09.535827,70
2021-12-24 15:53:09.535837,63
2021-12-24 15:53:09.535846,51
2021-12-24 15:53:09.535856,35
2021-12-24 15:53:09.535866,40
2021-12-24 15:53:09.535876,42
2021-12-24 15:53:09.535886,18
2021-12-24 15:53:09.535896,-2
2021-12-24 15:53:09.535906,-9
2021-12-24 15:53:09.535916,-35
2021-12-24 15:53:09.760417,-58
2021-12-24 15:53:09.760448,-68
2021-12-24 15:53:09.760460,-84
2021-12-24 15:53:09.760470,-115
2021-12-24 15:53:09.760480,-148
2021-12-24 15:53:09.760490,-174
2021-12-24 15:53:09.760499,-183
2021-12-24 15:53:09.760509,-183
2021-12-24 15:53:09.760523,-176
2021-12-24 15:53:09.760533,-157
2021-12-24 15:53:09.760543,-131
2021-12-24 15:53:09.760553,-106
2021-12-24 15:53:09.760563,-58
2021-12-24 15:53:09.760572,9
2021-12-24 15:53:09.760582,56
2021-12-24 15:53:09.760592,84
2021-12-24 15:53:09.760602,124
2021-12-24 15:53:09.760611,148
2021-12-24 15:53:09.760621,136
2021-12-24 15:53:09.760630,134
2021-12-24 15:53:09.760640,153
2021-12-24 15:53:09.760650,150
2021-12-24 15:53:09.760660,136
2021-12-24 15:53:09.760669,136
2021-12-24 15:53:09.760679,134
2021-12-24 15:53:09.760689,129
2021-12-24 15:53:09.760699,134
2021-12-24 15:53:09.760708,120
2021-12-24 15:53:09.760718,96
2021-12-24 15:53:09.760728,96
2021-12-24 15:53:09.939955,110
2021-12-24 15:53:09.939976,108
2021-12-24 15:53:09.939984,94
2021-12-24 15:53:09.939990,91
2021-12-24 15:53:09.939996,98
2021-12-24 15:53:09.940003,108
2021-12-24 15:53:09.940009,117
2021-12-24 15:53:09.940015,122
2021-12-24 15:53:09.940022,122
2021-12-24 15:53:09.940028,120
2021-12-24 15:53:09.940034,96
2021-12-24 15:53:09.940041,73
2021-12-24 15:53:09.940047,80
2021-12-24 15:53:09.940053,91
2021-12-24 15:53:09.940060,98
2021-12-24 15:53:09.940066,113
2021-12-24 15:53:09.940072,124
2021-12-24 15:53:09.940078,127
2021-12-24 15:53:09.940085,134
2021-12-24 15:53:09.940091,136
2021-12-24 15:53:09.940097,120
2021-12-24 15:53:09.940103,117
2021-12-24 15:53:09.940110,120
2021-12-24 15:53:09.940116,127
2021-12-24 15:53:09.940122,167
2021-12-24 15:53:09.940129,68
2021-12-24 15:53:09.940135,-402
2021-12-24 15:53:09.940141,-869
2021-12-24 15:53:09.940148,-560
2021-12-24 15:53:09.940154,263
2021-12-24 15:53:10.074677,464
2021-12-24 15:53:10.074699,131
2021-12-24 15:53:10.074707,120
2021-12-24 15:53:10.074714,235
2021-12-24 15:53:10.074721,153
2021-12-24 15:53:10.074727,122
2021-12-24 15:53:10.074734,167
2021-12-24 15:53:10.074740,153
2021-12-24 15:53:10.074747,129
2021-12-24 15:53:10.074753,124
2021-12-24 15:53:10.074760,115
2021-12-24 15:53:10.074766,110
2021-12-24 15:53:10.074773,108
2021-12-24 15:53:10.074779,89
2021-12-24 15:53:10.074786,73
2021-12-24 15:53:10.074792,73
2021-12-24 15:53:10.074799,61
2021-12-24 15:53:10.074805,37
2021-12-24 15:53:10.074811,16
2021-12-24 15:53:10.074818,-16
2021-12-24 15:53:10.074824,-44
2021-12-24 15:53:10.074831,-58
2021-12-24 15:53:10.074837,-80
2021-12-24 15:53:10.074843,-98
2021-12-24 15:53:10.074850,-101
2021-12-24 15:53:10.074856,-87
2021-12-24 15:53:10.074863,-80
2021-12-24 15:53:10.074869,-80
2021-12-24 15:53:10.074876,-58
2021-12-24 15:53:10.074883,-7
2021-12-24 15:53:10.345575,49
2021-12-24 15:53:10.345605,96
2021-12-24 15:53:10.345616,136
2021-12-24 15:53:10.345627,160
2021-12-24 15:53:10.345637,171
2021-12-24 15:53:10.345646,186
2021-12-24 15:53:10.345656,195
2021-12-24 15:53:10.345666,183
2021-12-24 15:53:10.345675,181
2021-12-24 15:53:10.345685,190
2021-12-24 15:53:10.345695,186
2021-12-24 15:53:10.345705,176
2021-12-24 15:53:10.345715,179
2021-12-24 15:53:10.345724,174
2021-12-24 15:53:10.345734,157
2021-12-24 15:53:10.345744,153
2021-12-24 15:53:10.345754,160
2021-12-24 15:53:10.345763,160
2021-12-24 15:53:10.345773,157
2021-12-24 15:53:10.345783,146
2021-12-24 15:53:10.345793,136
2021-12-24 15:53:10.345802,139
2021-12-24 15:53:10.345812,143
2021-12-24 15:53:10.345822,143
2021-12-24 15:53:10.345832,155
2021-12-24 15:53:10.345841,157
2021-12-24 15:53:10.345851,143
2021-12-24 15:53:10.345861,141
2021-12-24 15:53:10.345870,157
2021-12-24 15:53:10.345880,157
2021-12-24 15:53:10.480480,129
2021-12-24 15:53:10.480509,106
2021-12-24 15:53:10.480521,113
2021-12-24 15:53:10.480531,124
2021-12-24 15:53:10.480541,129
2021-12-24 15:53:10.480551,141
2021-12-24 15:53:10.480561,157
2021-12-24 15:53:10.480570,157
2021-12-24 15:53:10.480580,143
2021-12-24 15:53:10.480589,139
2021-12-24 15:53:10.480599,148
2021-12-24 15:53:10.480609,150
2021-12-24 15:53:10.480619,141
2021-12-24 15:53:10.480629,160
2021-12-24 15:53:10.480638,171
2021-12-24 15:53:10.480648,-91
2021-12-24 15:53:10.480658,-657
2021-12-24 15:53:10.480668,-866
2021-12-24 15:53:10.480677,-242
2021-12-24 15:53:10.480687,424
2021-12-24 15:53:10.480697,329
2021-12-24 15:53:10.480706,98
2021-12-24 15:53:10.480716,204
2021-12-24 15:53:10.480726,242
2021-12-24 15:53:10.480735,169
2021-12-24 15:53:10.480745,188
2021-12-24 15:53:10.480755,197
2021-12-24 15:53:10.480764,153
2021-12-24 15:53:10.480774,143
2021-12-24 15:53:10.480783,160
2021-12-24 15:53:10.840309,155
2021-12-24 15:53:10.840339,148
2021-12-24 15:53:10.840351,143
2021-12-24 15:53:10.840361,120
2021-12-24 15:53:10.840371,94
2021-12-24 15:53:10.840381,89
2021-12-24 15:53:10.840391,73
2021-12-24 15:53:10.840401,40
2021-12-24 15:53:10.840410,25
2021-12-24 15:53:10.840420,16
2021-12-24 15:53:10.840430,-9
2021-12-24 15:53:10.840440,-40
2021-12-24 15:53:10.840450,-63
2021-12-24 15:53:10.840460,-75
2021-12-24 15:53:10.840470,-75
2021-12-24 15:53:10.840480,-77
2021-12-24 15:53:10.840489,-73
2021-12-24 15:53:10.840499,-51
2021-12-24 15:53:10.840509,-16
2021-12-24 15:53:10.840519,16
2021-12-24 15:53:10.840529,58
2021-12-24 15:53:10.840538,113
2021-12-24 15:53:10.840548,160
2021-12-24 15:53:10.840562,186
2021-12-24 15:53:10.840573,197
2021-12-24 15:53:10.840583,197
2021-12-24 15:53:10.840593,193
2021-12-24 15:53:10.840603,197
2021-12-24 15:53:10.840612,197
2021-12-24 15:53:10.840622,188
2021-12-24 15:53:11.064104,179
2021-12-24 15:53:11.064125,179
2021-12-24 15:53:11.064133,174
2021-12-24 15:53:11.064139,167
2021-12-24 15:53:11.064146,160
2021-12-24 15:53:11.064152,160
2021-12-24 15:53:11.064159,164
2021-12-24 15:53:11.064165,169
2021-12-24 15:53:11.064171,162
2021-12-24 15:53:11.064178,143
2021-12-24 15:53:11.064184,129
2021-12-24 15:53:11.064190,131
2021-12-24 15:53:11.064197,134
2021-12-24 15:53:11.064203,131
2021-12-24 15:53:11.064209,131
2021-12-24 15:53:11.064216,134
2021-12-24 15:53:11.064222,136
2021-12-24 15:53:11.064228,134
2021-12-24 15:53:11.064235,122
2021-12-24 15:53:11.064241,110
2021-12-24 15:53:11.064247,103
2021-12-24 15:53:11.064254,89
2021-12-24 15:53:11.064260,70
2021-12-24 15:53:11.064267,63
2021-12-24 15:53:11.064273,56
2021-12-24 15:53:11.064279,61
2021-12-24 15:53:11.064286,80
2021-12-24 15:53:11.064292,101
2021-12-24 15:53:11.064298,108
2021-12-24 15:53:11.064305,96
2021-12-24 15:53:11.200497,80
2021-12-24 15:53:11.200526,80
2021-12-24 15:53:11.200538,77
2021-12-24 15:53:11.200548,58
2021-12-24 15:53:11.200558,63
2021-12-24 15:53:11.200567,120
2021-12-24 15:53:11.200577,115
2021-12-24 15:53:11.200587,-200
2021-12-24 15:53:11.200597,-775
2021-12-24 15:53:11.200606,-925
2021-12-24 15:53:11.200616,-245
2021-12-24 15:53:11.200626,386
2021-12-24 15:53:11.200635,223
2021-12-24 15:53:11.200645,9
2021-12-24 15:53:11.200655,134
2021-12-24 15:53:11.200665,139
2021-12-24 15:53:11.200674,61
2021-12-24 15:53:11.200684,87
2021-12-24 15:53:11.200693,84
2021-12-24 15:53:11.200703,51
2021-12-24 15:53:11.200712,61
2021-12-24 15:53:11.200722,70
2021-12-24 15:53:11.200731,49
2021-12-24 15:53:11.200741,40
2021-12-24 15:53:11.200750,35
2021-12-24 15:53:11.200760,18
2021-12-24 15:53:11.200769,14
2021-12-24 15:53:11.200779,0
2021-12-24 15:53:11.200789,-42
2021-12-24 15:53:11.200798,-61
2021-12-24 15:53:11.380128,-68
2021-12-24 15:53:11.380157,-94
2021-12-24 15:53:11.380171,-117
2021-12-24 15:53:11.380184,-136
2021-12-24 15:53:11.380196,-164
2021-12-24 15:53:11.380208,-179
2021-12-24 15:53:11.380220,-176
2021-12-24 15:53:11.380231,-181
2021-12-24 15:53:11.380243,-179
2021-12-24 15:53:11.380255,-157
2021-12-24 15:53:11.380267,-115
2021-12-24 15:53:11.380279,-70
2021-12-24 15:53:11.380291,-40
2021-12-24 15:53:11.380303,7
2021-12-24 15:53:11.380315,63
2021-12-24 15:53:11.380326,87
2021-12-24 15:53:11.380339,89
2021-12-24 15:53:11.380351,106
2021-12-24 15:53:11.380359,120
2021-12-24 15:53:11.380366,120
2021-12-24 15:53:11.380372,120
2021-12-24 15:53:11.380379,113
2021-12-24 15:53:11.380385,89
2021-12-24 15:53:11.380391,87
2021-12-24 15:53:11.380397,98
2021-12-24 15:53:11.380404,87
2021-12-24 15:53:11.380410,70
2021-12-24 15:53:11.380416,68
2021-12-24 15:53:11.380423,63
2021-12-24 15:53:11.380429,58
2021-12-24 15:53:11.740047,63
2021-12-24 15:53:11.740077,65
2021-12-24 15:53:11.740089,68
2021-12-24 15:53:11.740099,73
2021-12-24 15:53:11.740109,61
2021-12-24 15:53:11.740119,44
2021-12-24 15:53:11.740128,63
2021-12-24 15:53:11.740138,80
2021-12-24 15:53:11.740148,65
2021-12-24 15:53:11.740157,58
2021-12-24 15:53:11.740167,54
2021-12-24 15:53:11.740177,40
2021-12-24 15:53:11.740187,44
2021-12-24 15:53:11.740196,58
2021-12-24 15:53:11.740206,58
2021-12-24 15:53:11.740216,61
2021-12-24 15:53:11.740225,80
2021-12-24 15:53:11.740235,89
2021-12-24 15:53:11.740245,91
2021-12-24 15:53:11.740254,96
2021-12-24 15:53:11.740264,98
2021-12-24 15:53:11.740274,106
2021-12-24 15:53:11.740284,106
2021-12-24 15:53:11.740293,103
2021-12-24 15:53:11.740303,131
2021-12-24 15:53:11.740313,101
2021-12-24 15:53:11.740322,-259
2021-12-24 15:53:11.740332,-782
2021-12-24 15:53:11.740342,-697
2021-12-24 15:53:11.740351,87
2021-12-24 15:53:11.830475,485
2021-12-24 15:53:11.830505,186
2021-12-24 15:53:11.830517,82
2021-12-24 15:53:11.830528,230
2021-12-24 15:53:11.830537,179
2021-12-24 15:53:11.830547,117
2021-12-24 15:53:11.830557,164
2021-12-24 15:53:11.830567,162
2021-12-24 15:53:11.830577,127
2021-12-24 15:53:11.830587,131
2021-12-24 15:53:11.830597,129
2021-12-24 15:53:11.830607,120
2021-12-24 15:53:11.830616,108
2021-12-24 15:53:11.830626,89
2021-12-24 15:53:11.830636,80
2021-12-24 15:53:11.830646,77
2021-12-24 15:53:11.830656,58
2021-12-24 15:53:11.830666,37
2021-12-24 15:53:11.830675,30
2021-12-24 15:53:11.830685,18
2021-12-24 15:53:11.830695,-18
2021-12-24 15:53:11.830705,-63
2021-12-24 15:53:11.830715,-80
2021-12-24 15:53:11.830725,-87
2021-12-24 15:53:11.830735,-103
2021-12-24 15:53:11.830745,-98
2021-12-24 15:53:11.830754,-80
2021-12-24 15:53:11.830764,-82
2021-12-24 15:53:11.830774,-70
2021-12-24 15:53:11.830784,-23
2021-12-24 15:53:12.189882,32
2021-12-24 15:53:12.189900,80
2021-12-24 15:53:12.189906,120
2021-12-24 15:53:12.189911,148
2021-12-24 15:53:12.189917,164
2021-12-24 15:53:12.189922,174
2021-12-24 15:53:12.189927,181
2021-12-24 15:53:12.189932,183
2021-12-24 15:53:12.189938,181
2021-12-24 15:53:12.189943,174
2021-12-24 15:53:12.189948,169
2021-12-24 15:53:12.189953,162
2021-12-24 15:53:12.189958,155
2021-12-24 15:53:12.189964,157
2021-12-24 15:53:12.189969,155
2021-12-24 15:53:12.189974,143
2021-12-24 15:53:12.189979,136
2021-12-24 15:53:12.189984,139
2021-12-24 15:53:12.189990,136
2021-12-24 15:53:12.189995,131
2021-12-24 15:53:12.190000,127
2021-12-24 15:53:12.190005,124
2021-12-24 15:53:12.190010,124
2021-12-24 15:53:12.190015,129
2021-12-24 15:53:12.190020,131
2021-12-24 15:53:12.190025,129
2021-12-24 15:53:12.190030,124
2021-12-24 15:53:12.190036,122
2021-12-24 15:53:12.190041,124
2021-12-24 15:53:12.190049,136
2021-12-24 15:53:12.460377,139
2021-12-24 15:53:12.460406,134
2021-12-24 15:53:12.460418,129
2021-12-24 15:53:12.460428,106
2021-12-24 15:53:12.460438,82
2021-12-24 15:53:12.460448,84
2021-12-24 15:53:12.460457,101
2021-12-24 15:53:12.460467,108
2021-12-24 15:53:12.460477,115
2021-12-24 15:53:12.460486,129
2021-12-24 15:53:12.460496,134
2021-12-24 15:53:12.460506,117
2021-12-24 15:53:12.460515,115
2021-12-24 15:53:12.460525,124
2021-12-24 15:53:12.460535,122
2021-12-24 15:53:12.460545,117
2021-12-24 15:53:12.460554,124
2021-12-24 15:53:12.460564,160
2021-12-24 15:53:12.460573,153
2021-12-24 15:53:12.460583,-162
2021-12-24 15:53:12.460593,-725
2021-12-24 15:53:12.460603,-848
2021-12-24 15:53:12.460612,-181
2021-12-24 15:53:12.460622,421
2021-12-24 15:53:12.460632,287
2021-12-24 15:53:12.460641,89
2021-12-24 15:53:12.460651,204
2021-12-24 15:53:12.460660,216
2021-12-24 15:53:12.460670,141
2021-12-24 15:53:12.460680,167
2021-12-24 15:53:12.594346,188
2021-12-24 15:53:12.594366,150
2021-12-24 15:53:12.594374,136
2021-12-24 15:53:12.594380,150
2021-12-24 15:53:12.594387,136
2021-12-24 15:53:12.594411,117
2021-12-24 15:53:12.594421,117
2021-12-24 15:53:12.594430,113
2021-12-24 15:53:12.594440,91
2021-12-24 15:53:12.594449,70
2021-12-24 15:53:12.594459,56
2021-12-24 15:53:12.594469,49
2021-12-24 15:53:12.594479,23
2021-12-24 15:53:12.594488,-11
2021-12-24 15:53:12.594498,-35
2021-12-24 15:53:12.594508,-56
2021-12-24 15:53:12.594517,-77
2021-12-24 15:53:12.594527,-84
2021-12-24 15:53:12.594537,-84
2021-12-24 15:53:12.594547,-89
2021-12-24 15:53:12.594556,-82
2021-12-24 15:53:12.594566,-58
2021-12-24 15:53:12.594576,-40
2021-12-24 15:53:12.594585,-2
2021-12-24 15:53:12.594595,56
2021-12-24 15:53:12.594605,108
2021-12-24 15:53:12.594615,146
2021-12-24 15:53:12.594624,174
2021-12-24 15:53:12.594634,174
2021-12-24 15:53:12.594644,167
2021-12-24 15:53:12.820479,176
2021-12-24 15:53:12.820509,186
2021-12-24 15:53:12.820521,181
2021-12-24 15:53:12.820531,169
2021-12-24 15:53:12.820541,162
2021-12-24 15:53:12.820551,153
2021-12-24 15:53:12.820560,150
2021-12-24 15:53:12.820570,150
2021-12-24 15:53:12.820580,148
2021-12-24 15:53:12.820589,139
2021-12-24 15:53:12.820599,129
2021-12-24 15:53:12.820608,127
2021-12-24 15:53:12.820618,122
2021-12-24 15:53:12.820627,115
2021-12-24 15:53:12.820637,120
2021-12-24 15:53:12.820647,127
2021-12-24 15:53:12.820656,122
2021-12-24 15:53:12.820666,124
2021-12-24 15:53:12.820676,120
2021-12-24 15:53:12.820685,108
2021-12-24 15:53:12.820695,115
2021-12-24 15:53:12.820704,136
2021-12-24 15:53:12.820714,136
2021-12-24 15:53:12.820724,122
2021-12-24 15:53:12.820733,115
2021-12-24 15:53:12.820743,122
2021-12-24 15:53:12.820752,134
2021-12-24 15:53:12.820762,120
2021-12-24 15:53:12.820772,84
2021-12-24 15:53:12.820781,70
2021-12-24 15:53:13.178563,89
2021-12-24 15:53:13.178592,113
2021-12-24 15:53:13.178604,127
2021-12-24 15:53:13.178614,136
2021-12-24 15:53:13.178623,131
2021-12-24 15:53:13.178633,124
2021-12-24 15:53:13.178642,122
2021-12-24 15:53:13.178652,124
2021-12-24 15:53:13.178661,134
2021-12-24 15:53:13.178671,136
2021-12-24 15:53:13.178680,129
2021-12-24 15:53:13.178690,146
2021-12-24 15:53:13.178699,179
2021-12-24 15:53:13.178709,-14
2021-12-24 15:53:13.178718,-546
2021-12-24 15:53:13.178728,-883
2021-12-24 15:53:13.178737,-412
2021-12-24 15:53:13.178747,322
2021-12-24 15:53:13.178756,372
2021-12-24 15:53:13.178766,115
2021-12-24 15:53:13.178775,171
2021-12-24 15:53:13.178785,230
2021-12-24 15:53:13.178794,153
2021-12-24 15:53:13.178804,153
2021-12-24 15:53:13.178813,179
2021-12-24 15:53:13.178822,150
2021-12-24 15:53:13.178832,139
2021-12-24 15:53:13.178841,150
2021-12-24 15:53:13.178851,143
2021-12-24 15:53:13.178860,127
2021-12-24 15:53:13.269323,117
2021-12-24 15:53:13.269344,113
2021-12-24 15:53:13.269351,98
2021-12-24 15:53:13.269358,77
2021-12-24 15:53:13.269364,61
2021-12-24 15:53:13.269371,47
2021-12-24 15:53:13.269377,25
2021-12-24 15:53:13.269384,-2
2021-12-24 15:53:13.269390,-25
2021-12-24 15:53:13.269396,-42
2021-12-24 15:53:13.269403,-73
2021-12-24 15:53:13.269409,-103
2021-12-24 15:53:13.269416,-106
2021-12-24 15:53:13.269423,-96
2021-12-24 15:53:13.269429,-96
2021-12-24 15:53:13.269435,-94
2021-12-24 15:53:13.269442,-73
2021-12-24 15:53:13.269448,-35
2021-12-24 15:53:13.269455,9
2021-12-24 15:53:13.269461,65
2021-12-24 15:53:13.269467,113
2021-12-24 15:53:13.269474,124
2021-12-24 15:53:13.269480,131
2021-12-24 15:53:13.269486,143
2021-12-24 15:53:13.269493,146
2021-12-24 15:53:13.269499,134
2021-12-24 15:53:13.269506,120
2021-12-24 15:53:13.269512,110
2021-12-24 15:53:13.269518,103
2021-12-24 15:53:13.269525,98
2021-12-24 15:53:13.495371,101
2021-12-24 15:53:13.495391,94
2021-12-24 15:53:13.495399,80
2021-12-24 15:53:13.495405,77
2021-12-24 15:53:13.495412,82
2021-12-24 15:53:13.495418,73
2021-12-24 15:53:13.495424,56
2021-12-24 15:53:13.495431,58
2021-12-24 15:53:13.495437,70
2021-12-24 15:53:13.495443,63
2021-12-24 15:53:13.495450,51
2021-12-24 15:53:13.495456,54
2021-12-24 15:53:13.495462,58
2021-12-24 15:53:13.495469,56
2021-12-24 15:53:13.495475,51
2021-12-24 15:53:13.495481,47
2021-12-24 15:53:13.495488,42
2021-12-24 15:53:13.495494,54
2021-12-24 15:53:13.495500,63
2021-12-24 15:53:13.495507,42
2021-12-24 15:53:13.495513,14
2021-12-24 15:53:13.495519,4
2021-12-24 15:53:13.495526,-2
2021-12-24 15:53:13.495532,9
2021-12-24 15:53:13.495539,37
2021-12-24 15:53:13.495545,40
2021-12-24 15:53:13.495551,32
2021-12-24 15:53:13.495558,42
2021-12-24 15:53:13.495564,49
2021-12-24 15:53:13.495570,42
2021-12-24 15:53:13.675349,37
2021-12-24 15:53:13.675379,32
2021-12-24 15:53:13.675391,28
2021-12-24 15:53:13.675401,23
2021-12-24 15:53:13.675411,42
2021-12-24 15:53:13.675421,61
2021-12-24 15:53:13.675431,-174
2021-12-24 15:53:13.675441,-725
2021-12-24 15:53:13.675451,-930
2021-12-24 15:53:13.675461,-268
2021-12-24 15:53:13.675471,409
2021-12-24 15:53:13.675481,245
2021-12-24 15:53:13.675491,-9
2021-12-24 15:53:13.675501,127
2021-12-24 15:53:13.675511,139
2021-12-24 15:53:13.675521,32
2021-12-24 15:53:13.675530,68
2021-12-24 15:53:13.675540,96
2021-12-24 15:53:13.675550,47
2021-12-24 15:53:13.675560,37
2021-12-24 15:53:13.675569,56
2021-12-24 15:53:13.675579,35
2021-12-24 15:53:13.675589,11
2021-12-24 15:53:13.675599,25
2021-12-24 15:53:13.675609,25
2021-12-24 15:53:13.675619,2
2021-12-24 15:53:13.675628,2
2021-12-24 15:53:13.675638,-11
2021-12-24 15:53:13.675654,-58
2021-12-24 15:53:13.675664,-84
2021-12-24 15:53:13.945354,-91
2021-12-24 15:53:13.945384,-127
2021-12-24 15:53:13.945396,-153
2021-12-24 15:53:13.945406,-157
2021-12-24 15:53:13.945416,-181
2021-12-24 15:53:13.945425,-212
2021-12-24 15:53:13.945435,-200
2021-12-24 15:53:13.945444,-171
2021-12-24 15:53:13.945454,-169
2021-12-24 15:53:13.945463,-160
2021-12-24 15:53:13.945473,-98
2021-12-24 15:53:13.945483,-21
2021-12-24 15:53:13.945492,37
2021-12-24 15:53:13.945502,73
2021-12-24 15:53:13.945511,94
2021-12-24 15:53:13.945521,113
2021-12-24 15:53:13.945530,120
2021-12-24 15:53:13.945540,120
2021-12-24 15:53:13.945550,134
2021-12-24 15:53:13.945559,148
2021-12-24 15:53:13.945569,134
2021-12-24 15:53:13.945579,96
2021-12-24 15:53:13.945588,94
2021-12-24 15:53:13.945598,106
2021-12-24 15:53:13.945607,87
2021-12-24 15:53:13.945617,80
2021-12-24 15:53:13.945627,98
2021-12-24 15:53:13.945636,106
2021-12-24 15:53:13.945646,89
2021-12-24 15:53:13.945655,68
2021-12-24 15:53:14.259740,73
2021-12-24 15:53:14.259769,94
2021-12-24 15:53:14.259781,94
2021-12-24 15:53:14.259791,87
2021-12-24 15:53:14.259801,82
2021-12-24 15:53:14.259810,87
2021-12-24 15:53:14.259820,108
2021-12-24 15:53:14.259829,120
2021-12-24 15:53:14.259839,103
2021-12-24 15:53:14.259849,77
2021-12-24 15:53:14.259858,70
2021-12-24 15:53:14.259867,77
2021-12-24 15:53:14.259877,77
2021-12-24 15:53:14.259887,77
2021-12-24 15:53:14.259896,89
2021-12-24 15:53:14.259906,89
2021-12-24 15:53:14.259915,98
2021-12-24 15:53:14.259925,117
2021-12-24 15:53:14.259935,124
2021-12-24 15:53:14.259944,127
2021-12-24 15:53:14.259954,122
2021-12-24 15:53:14.259964,110
2021-12-24 15:53:14.259973,113
2021-12-24 15:53:14.259983,143
2021-12-24 15:53:14.259992,171
2021-12-24 15:53:14.260002,18
2021-12-24 15:53:14.260011,-464
2021-12-24 15:53:14.260021,-850
2021-12-24 15:53:14.260031,-442
2021-12-24 15:53:14.260040,362
2021-12-24 15:53:14.394762,457
2021-12-24 15:53:14.394781,96
2021-12-24 15:53:14.394789,129
2021-12-24 15:53:14.394796,249
2021-12-24 15:53:14.394802,157
2021-12-24 15:53:14.394809,127
2021-12-24 15:53:14.394815,167
2021-12-24 15:53:14.394821,146
2021-12-24 15:53:14.394827,122
2021-12-24 15:53:14.394834,131
2021-12-24 15:53:14.394840,129
2021-12-24 15:53:14.394846,115
2021-12-24 15:53:14.394853,113
2021-12-24 15:53:14.394859,98
2021-12-24 15:53:14.394865,75
2021-12-24 15:53:14.394872,63
2021-12-24 15:53:14.394878,63
2021-12-24 15:53:14.394884,42
2021-12-24 15:53:14.394891,11
2021-12-24 15:53:14.394897,0
2021-12-24 15:53:14.394904,-16
2021-12-24 15:53:14.394910,-58
2021-12-24 15:53:14.394916,-89
2021-12-24 15:53:14.394923,-98
2021-12-24 15:53:14.394929,-110
2021-12-24 15:53:14.394935,-113
2021-12-24 15:53:14.394942,-98
2021-12-24 15:53:14.394948,-84
2021-12-24 15:53:14.394954,-47
2021-12-24 15:53:14.394961,4
2021-12-24 15:53:14.665427,35
2021-12-24 15:53:14.665457,65
2021-12-24 15:53:14.665468,115
2021-12-24 15:53:14.665478,146
2021-12-24 15:53:14.665488,160
2021-12-24 15:53:14.665497,179
2021-12-24 15:53:14.665507,188
2021-12-24 15:53:14.665516,176
2021-12-24 15:53:14.665526,169
2021-12-24 15:53:14.665536,171
2021-12-24 15:53:14.665546,167
2021-12-24 15:53:14.665555,153
2021-12-24 15:53:14.665565,146
2021-12-24 15:53:14.665575,139
2021-12-24 15:53:14.665585,129
2021-12-24 15:53:14.665594,129
2021-12-24 15:53:14.665604,146
2021-12-24 15:53:14.665614,150
2021-12-24 15:53:14.665624,131
2021-12-24 15:53:14.665633,113
2021-12-24 15:53:14.665643,120
2021-12-24 15:53:14.665652,136
2021-12-24 15:53:14.665662,139
2021-12-24 15:53:14.665672,139
2021-12-24 15:53:14.665681,139
2021-12-24 15:53:14.665691,131
2021-12-24 15:53:14.665700,134
2021-12-24 15:53:14.665710,139
2021-12-24 15:53:14.665720,141
2021-12-24 15:53:14.665729,148
2021-12-24 15:53:14.890103,150
2021-12-24 15:53:14.890132,134
2021-12-24 15:53:14.890144,108
2021-12-24 15:53:14.890154,103
2021-12-24 15:53:14.890164,115
2021-12-24 15:53:14.890174,113
2021-12-24 15:53:14.890184,122
2021-12-24 15:53:14.890194,150
2021-12-24 15:53:14.890204,155
2021-12-24 15:53:14.890213,146
2021-12-24 15:53:14.890223,157
2021-12-24 15:53:14.890233,153
2021-12-24 15:53:14.890243,122
2021-12-24 15:53:14.890253,110
2021-12-24 15:53:14.890263,122
2021-12-24 15:53:14.890272,150
2021-12-24 15:53:14.890282,179
2021-12-24 15:53:14.890292,-21
2021-12-24 15:53:14.890302,-565
2021-12-24 15:53:14.890312,-888
2021-12-24 15:53:14.890322,-376
2021-12-24 15:53:14.890331,367
2021-12-24 15:53:14.890341,376
2021-12-24 15:53:14.890351,110
2021-12-24 15:53:14.890361,188
2021-12-24 15:53:14.890371,245
2021-12-24 15:53:14.890380,153
2021-12-24 15:53:14.890390,155
2021-12-24 15:53:14.890400,179
2021-12-24 15:53:14.890410,153
2021-12-24 15:53:15.158724,141
2021-12-24 15:53:15.158752,150
2021-12-24 15:53:15.158764,141
2021-12-24 15:53:15.158776,131
2021-12-24 15:53:15.158788,129
2021-12-24 15:53:15.158798,115
2021-12-24 15:53:15.158808,89
2021-12-24 15:53:15.158818,70
2021-12-24 15:53:15.158828,54
2021-12-24 15:53:15.158838,37
2021-12-24 15:53:15.158847,18
2021-12-24 15:53:15.158858,-4
2021-12-24 15:53:15.158869,-32
2021-12-24 15:53:15.158878,-56
2021-12-24 15:53:15.158885,-75
2021-12-24 15:53:15.158891,-91
2021-12-24 15:53:15.158898,-101
2021-12-24 15:53:15.158904,-103
2021-12-24 15:53:15.158910,-98
2021-12-24 15:53:15.158916,-87
2021-12-24 15:53:15.158923,-61
2021-12-24 15:53:15.158929,-16
2021-12-24 15:53:15.158935,35
2021-12-24 15:53:15.158941,84
2021-12-24 15:53:15.158948,124
2021-12-24 15:53:15.158954,155
2021-12-24 15:53:15.158960,174
2021-12-24 15:53:15.158966,181
2021-12-24 15:53:15.158973,179
2021-12-24 15:53:15.158979,174
2021-12-24 15:53:15.295280,176
2021-12-24 15:53:15.295300,176
2021-12-24 15:53:15.295307,167
2021-12-24 15:53:15.295314,162
2021-12-24 15:53:15.295320,162
2021-12-24 15:53:15.295326,153
2021-12-24 15:53:15.295333,148
2021-12-24 15:53:15.295339,148
2021-12-24 15:53:15.295345,148
2021-12-24 15:53:15.295351,146
2021-12-24 15:53:15.295357,143
2021-12-24 15:53:15.295364,139
2021-12-24 15:53:15.295370,146
2021-12-24 15:53:15.295376,153
2021-12-24 15:53:15.295382,146
2021-12-24 15:53:15.295388,134
2021-12-24 15:53:15.295394,120
2021-12-24 15:53:15.295401,122
2021-12-24 15:53:15.295407,134
2021-12-24 15:53:15.295413,136
2021-12-24 15:53:15.295419,131
2021-12-24 15:53:15.295426,131
2021-12-24 15:53:15.295432,141
2021-12-24 15:53:15.295438,153
2021-12-24 15:53:15.295444,146
2021-12-24 15:53:15.295451,120
2021-12-24 15:53:15.295457,98
2021-12-24 15:53:15.295463,98
2021-12-24 15:53:15.295469,120
2021-12-24 15:53:15.295475,131
2021-12-24 15:53:15.520340,134
2021-12-24 15:53:15.520361,136
2021-12-24 15:53:15.520368,146
2021-12-24 15:53:15.520375,157
2021-12-24 15:53:15.520381,160
2021-12-24 15:53:15.520388,134
2021-12-24 15:53:15.520394,108
2021-12-24 15:53:15.520400,120
2021-12-24 15:53:15.520407,157
2021-12-24 15:53:15.520413,183
2021-12-24 15:53:15.520419,14
2021-12-24 15:53:15.520426,-490
2021-12-24 15:53:15.520432,-876
2021-12-24 15:53:15.520439,-492
2021-12-24 15:53:15.520445,275
2021-12-24 15:53:15.520451,400
2021-12-24 15:53:15.520458,117
2021-12-24 15:53:15.520464,143
2021-12-24 15:53:15.520470,216
2021-12-24 15:53:15.520477,150
2021-12-24 15:53:15.520483,155
2021-12-24 15:53:15.520489,179
2021-12-24 15:53:15.520496,136
2021-12-24 15:53:15.520509,120
2021-12-24 15:53:15.520515,136
2021-12-24 15:53:15.520522,134
2021-12-24 15:53:15.520528,136
2021-12-24 15:53:15.520534,143
2021-12-24 15:53:15.520541,129
2021-12-24 15:53:15.520547,98
2021-12-24 15:53:15.880382,84
2021-12-24 15:53:15.880412,94
2021-12-24 15:53:15.880424,73
2021-12-24 15:53:15.880434,23
2021-12-24 15:53:15.880444,2
2021-12-24 15:53:15.880453,-9
2021-12-24 15:53:15.880463,-40
2021-12-24 15:53:15.880473,-58
2021-12-24 15:53:15.880482,-58
2021-12-24 15:53:15.880492,-63
2021-12-24 15:53:15.880502,-84
2021-12-24 15:53:15.880511,-87
2021-12-24 15:53:15.880521,-63
2021-12-24 15:53:15.880531,-42
2021-12-24 15:53:15.880541,-11
2021-12-24 15:53:15.880550,49
2021-12-24 15:53:15.880560,94
2021-12-24 15:53:15.880570,120
2021-12-24 15:53:15.880579,162
2021-12-24 15:53:15.880589,181
2021-12-24 15:53:15.880599,167
2021-12-24 15:53:15.880608,179
2021-12-24 15:53:15.880618,207
2021-12-24 15:53:15.880628,186
2021-12-24 15:53:15.880637,153
2021-12-24 15:53:15.880647,150
2021-12-24 15:53:15.880657,157
2021-12-24 15:53:15.880666,160
2021-12-24 15:53:15.880676,160
2021-12-24 15:53:15.880686,141
2021-12-24 15:53:16.015395,124
2021-12-24 15:53:16.015425,134
2021-12-24 15:53:16.015437,136
2021-12-24 15:53:16.015447,131
2021-12-24 15:53:16.015457,141
2021-12-24 15:53:16.015467,155
2021-12-24 15:53:16.015477,160
2021-12-24 15:53:16.015487,171
2021-12-24 15:53:16.015496,162
2021-12-24 15:53:16.015506,120
2021-12-24 15:53:16.015515,110
2021-12-24 15:53:16.015525,131
2021-12-24 15:53:16.015535,136
2021-12-24 15:53:16.015544,139
2021-12-24 15:53:16.015554,148
2021-12-24 15:53:16.015564,146
2021-12-24 15:53:16.015573,134
2021-12-24 15:53:16.015583,129
2021-12-24 15:53:16.015593,110
2021-12-24 15:53:16.015602,75
2021-12-24 15:53:16.015612,73
2021-12-24 15:53:16.015622,82
2021-12-24 15:53:16.015631,82
2021-12-24 15:53:16.015641,101
2021-12-24 15:53:16.015650,120
2021-12-24 15:53:16.015660,110
2021-12-24 15:53:16.015670,103
2021-12-24 15:53:16.015679,122
2021-12-24 15:53:16.015689,139
2021-12-24 15:53:16.015699,117
2021-12-24 15:53:16.239987,82
2021-12-24 15:53:16.240016,89
2021-12-24 15:53:16.240028,146
2021-12-24 15:53:16.240038,94
2021-12-24 15:53:16.240048,-287
2021-12-24 15:53:16.240058,-789
2021-12-24 15:53:16.240068,-697
2021-12-24 15:53:16.240077,44
2021-12-24 15:53:16.240087,428
2021-12-24 15:53:16.240096,171
2021-12-24 15:53:16.240106,77
2021-12-24 15:53:16.240115,204
2021-12-24 15:53:16.240125,167
2021-12-24 15:53:16.240134,113
2021-12-24 15:53:16.240144,143
2021-12-24 15:53:16.240153,141
2021-12-24 15:53:16.240163,115
2021-12-24 15:53:16.240172,122
2021-12-24 15:53:16.240182,122
2021-12-24 15:53:16.240191,106
2021-12-24 15:53:16.240201,98
2021-12-24 15:53:16.240210,91
2021-12-24 15:53:16.240220,75
2021-12-24 15:53:16.240229,58
2021-12-24 15:53:16.240239,47
2021-12-24 15:53:16.240248,37
2021-12-24 15:53:16.240258,16
2021-12-24 15:53:16.240267,-2
2021-12-24 15:53:16.240277,-16
2021-12-24 15:53:16.240286,-30
2021-12-24 15:53:16.465454,-51
2021-12-24 15:53:16.465485,-75
2021-12-24 15:53:16.465496,-94
2021-12-24 15:53:16.465506,-91
2021-12-24 15:53:16.465516,-82
2021-12-24 15:53:16.465526,-82
2021-12-24 15:53:16.465535,-75
2021-12-24 15:53:16.465545,-44
2021-12-24 15:53:16.465554,9
2021-12-24 15:53:16.465564,63
2021-12-24 15:53:16.465574,113
2021-12-24 15:53:16.465583,155
2021-12-24 15:53:16.465593,171
2021-12-24 15:53:16.465602,164
2021-12-24 15:53:16.465612,167
2021-12-24 15:53:16.465621,176
2021-12-24 15:53:16.465631,171
2021-12-24 15:53:16.465641,162
2021-12-24 15:53:16.465650,160
2021-12-24 15:53:16.465660,153
2021-12-24 15:53:16.465669,148
2021-12-24 15:53:16.465679,143
2021-12-24 15:53:16.465689,143
2021-12-24 15:53:16.465698,141
2021-12-24 15:53:16.465708,134
2021-12-24 15:53:16.465718,122
2021-12-24 15:53:16.465727,120
2021-12-24 15:53:16.465737,124
2021-12-24 15:53:16.465746,124
2021-12-24 15:53:16.465756,122
2021-12-24 15:53:16.690492,122
2021-12-24 15:53:16.690522,139
2021-12-24 15:53:16.690533,150
2021-12-24 15:53:16.690543,127
2021-12-24 15:53:16.690553,108
2021-12-24 15:53:16.690563,120
2021-12-24 15:53:16.690573,120
2021-12-24 15:53:16.690583,110
2021-12-24 15:53:16.690592,117
2021-12-24 15:53:16.690602,124
2021-12-24 15:53:16.690612,120
2021-12-24 15:53:16.690622,110
2021-12-24 15:53:16.690632,87
2021-12-24 15:53:16.690642,68
2021-12-24 15:53:16.690651,80
2021-12-24 15:53:16.690661,98
2021-12-24 15:53:16.690671,115
2021-12-24 15:53:16.690680,122
2021-12-24 15:53:16.690690,110
2021-12-24 15:53:16.690700,106
2021-12-24 15:53:16.690710,120
2021-12-24 15:53:16.690719,122
2021-12-24 15:53:16.690729,115
2021-12-24 15:53:16.690739,115
2021-12-24 15:53:16.690748,117
2021-12-24 15:53:16.690758,141
2021-12-24 15:53:16.690768,164
2021-12-24 15:53:16.690777,-40
2021-12-24 15:53:16.690787,-544
2021-12-24 15:53:16.690797,-815
2021-12-24 15:53:16.915407,-308
2021-12-24 15:53:16.915437,367
2021-12-24 15:53:16.915449,334
2021-12-24 15:53:16.915459,87
2021-12-24 15:53:16.915469,171
2021-12-24 15:53:16.915479,216
2021-12-24 15:53:16.915488,129
2021-12-24 15:53:16.915498,139
2021-12-24 15:53:16.915507,169
2021-12-24 15:53:16.915517,139
2021-12-24 15:53:16.915527,129
2021-12-24 15:53:16.915536,134
2021-12-24 15:53:16.915546,120
2021-12-24 15:53:16.915556,108
2021-12-24 15:53:16.915565,101
2021-12-24 15:53:16.915575,91
2021-12-24 15:53:16.915585,82
2021-12-24 15:53:16.915594,65
2021-12-24 15:53:16.915604,47
2021-12-24 15:53:16.915614,30
2021-12-24 15:53:16.915623,14
2021-12-24 15:53:16.915633,-4
2021-12-24 15:53:16.915643,-18
2021-12-24 15:53:16.915652,-32
2021-12-24 15:53:16.915662,-65
2021-12-24 15:53:16.915671,-101
2021-12-24 15:53:16.915681,-101
2021-12-24 15:53:16.915691,-89
2021-12-24 15:53:16.915700,-96
2021-12-24 15:53:16.915710,-96
2021-12-24 15:53:17.183683,-70
2021-12-24 15:53:17.183703,-25
2021-12-24 15:53:17.183711,9
2021-12-24 15:53:17.183718,40
2021-12-24 15:53:17.183724,80
2021-12-24 15:53:17.183730,117
2021-12-24 15:53:17.183737,134
2021-12-24 15:53:17.183743,143
2021-12-24 15:53:17.183749,148
2021-12-24 15:53:17.183755,143
2021-12-24 15:53:17.183762,136
2021-12-24 15:53:17.183768,129
2021-12-24 15:53:17.183774,124
2021-12-24 15:53:17.183780,122
2021-12-24 15:53:17.183786,120
2021-12-24 15:53:17.183793,113
2021-12-24 15:53:17.183799,108
2021-12-24 15:53:17.183805,108
2021-12-24 15:53:17.183811,110
2021-12-24 15:53:17.183817,110
2021-12-24 15:53:17.183824,108
2021-12-24 15:53:17.183830,106
2021-12-24 15:53:17.183836,108
2021-12-24 15:53:17.183842,110
2021-12-24 15:53:17.183848,108
2021-12-24 15:53:17.183855,108
2021-12-24 15:53:17.183861,115
2021-12-24 15:53:17.183867,117
2021-12-24 15:53:17.183873,113
2021-12-24 15:53:17.183879,113
2021-12-24 15:53:17.365415,113
2021-12-24 15:53:17.365445,103
2021-12-24 15:53:17.365456,103
2021-12-24 15:53:17.365466,113
2021-12-24 15:53:17.365476,106
2021-12-24 15:53:17.365486,87
2021-12-24 15:53:17.365496,68
2021-12-24 15:53:17.365505,58
2021-12-24 15:53:17.365515,68
2021-12-24 15:53:17.365525,82
2021-12-24 15:53:17.365534,94
2021-12-24 15:53:17.365544,106
2021-12-24 15:53:17.365554,108
2021-12-24 15:53:17.365564,106
2021-12-24 15:53:17.365573,101
2021-12-24 15:53:17.365583,101
2021-12-24 15:53:17.365593,101
2021-12-24 15:53:17.365602,101
2021-12-24 15:53:17.365612,108
2021-12-24 15:53:17.365622,143
2021-12-24 15:53:17.365632,129
2021-12-24 15:53:17.365642,-179
2021-12-24 15:53:17.365651,-690
2021-12-24 15:53:17.365661,-723
2021-12-24 15:53:17.365671,-40
2021-12-24 15:53:17.365680,431
2021-12-24 15:53:17.365690,209
2021-12-24 15:53:17.365700,63
2021-12-24 15:53:17.365710,197
2021-12-24 15:53:17.365720,176
2021-12-24 15:53:17.634865,108
2021-12-24 15:53:17.634895,148
2021-12-24 15:53:17.634907,153
2021-12-24 15:53:17.634917,110
2021-12-24 15:53:17.634927,103
2021-12-24 15:53:17.634936,106
2021-12-24 15:53:17.634946,91
2021-12-24 15:53:17.634956,84
2021-12-24 15:53:17.634966,75
2021-12-24 15:53:17.634976,51
2021-12-24 15:53:17.634985,40
2021-12-24 15:53:17.634995,35
2021-12-24 15:53:17.635005,18
2021-12-24 15:53:17.635015,-4
2021-12-24 15:53:17.635025,-23
2021-12-24 15:53:17.635035,-47
2021-12-24 15:53:17.635045,-70
2021-12-24 15:53:17.635059,-84
2021-12-24 15:53:17.635070,-101
2021-12-24 15:53:17.635080,-113
2021-12-24 15:53:17.635090,-113
2021-12-24 15:53:17.635100,-113
2021-12-24 15:53:17.635110,-106
2021-12-24 15:53:17.635120,-91
2021-12-24 15:53:17.635130,-68
2021-12-24 15:53:17.635140,-35
2021-12-24 15:53:17.635150,9
2021-12-24 15:53:17.635160,51
2021-12-24 15:53:17.635170,87
2021-12-24 15:53:17.635179,117
2021-12-24 15:53:17.860226,134
2021-12-24 15:53:17.860255,134
2021-12-24 15:53:17.860267,134
2021-12-24 15:53:17.860277,131
2021-12-24 15:53:17.860287,124
2021-12-24 15:53:17.860297,122
2021-12-24 15:53:17.860307,122
2021-12-24 15:53:17.860317,117
2021-12-24 15:53:17.860326,106
2021-12-24 15:53:17.860336,98
2021-12-24 15:53:17.860346,98
2021-12-24 15:53:17.860356,101
2021-12-24 15:53:17.860365,98
2021-12-24 15:53:17.860375,94
2021-12-24 15:53:17.860385,89
2021-12-24 15:53:17.860395,87
2021-12-24 15:53:17.860405,91
2021-12-24 15:53:17.860414,94
2021-12-24 15:53:17.860424,101
2021-12-24 15:53:17.860434,101
2021-12-24 15:53:17.860444,94
2021-12-24 15:53:17.860454,94
2021-12-24 15:53:17.860463,98
2021-12-24 15:53:17.860473,98
2021-12-24 15:53:17.860483,101
2021-12-24 15:53:17.860493,103
2021-12-24 15:53:17.860502,106
2021-12-24 15:53:17.860512,108
2021-12-24 15:53:17.860522,103
2021-12-24 15:53:17.860532,84
2021-12-24 15:53:18.084314,61
2021-12-24 15:53:18.084333,56
2021-12-24 15:53:18.084341,70
2021-12-24 15:53:18.084348,82
2021-12-24 15:53:18.084355,94
2021-12-24 15:53:18.084361,106
2021-12-24 15:53:18.084367,106
2021-12-24 15:53:18.084374,94
2021-12-24 15:53:18.084380,87
2021-12-24 15:53:18.084386,87
2021-12-24 15:53:18.084393,87
2021-12-24 15:53:18.084399,84
2021-12-24 15:53:18.084405,87
2021-12-24 15:53:18.084412,117
2021-12-24 15:53:18.084418,61
2021-12-24 15:53:18.084425,-322
2021-12-24 15:53:18.084431,-812
2021-12-24 15:53:18.084438,-678
2021-12-24 15:53:18.084444,70
2021-12-24 15:53:18.084450,395
2021-12-24 15:53:18.084457,120
2021-12-24 15:53:18.084463,54
2021-12-24 15:53:18.084469,174
2021-12-24 15:53:18.084476,113
2021-12-24 15:53:18.084482,70
2021-12-24 15:53:18.084489,120
2021-12-24 15:53:18.084495,113
2021-12-24 15:53:18.084501,77
2021-12-24 15:53:18.084508,82
2021-12-24 15:53:18.084514,89
2021-12-24 15:53:18.309946,73
2021-12-24 15:53:18.309987,49
2021-12-24 15:53:18.309999,37
2021-12-24 15:53:18.310008,37
2021-12-24 15:53:18.310018,25
2021-12-24 15:53:18.310028,0
2021-12-24 15:53:18.310038,-23
2021-12-24 15:53:18.310047,-47
2021-12-24 15:53:18.310057,-70
2021-12-24 15:53:18.310066,-91
2021-12-24 15:53:18.310076,-115
2021-12-24 15:53:18.310086,-134
2021-12-24 15:53:18.310095,-146
2021-12-24 15:53:18.310105,-155
2021-12-24 15:53:18.310114,-162
2021-12-24 15:53:18.310124,-155
2021-12-24 15:53:18.310133,-150
2021-12-24 15:53:18.310143,-153
2021-12-24 15:53:18.310153,-127
2021-12-24 15:53:18.310162,-77
2021-12-24 15:53:18.310172,-30
2021-12-24 15:53:18.310181,7
2021-12-24 15:53:18.310191,44
2021-12-24 15:53:18.310200,77
2021-12-24 15:53:18.310210,91
2021-12-24 15:53:18.310220,94
2021-12-24 15:53:18.310229,96
2021-12-24 15:53:18.310239,94
2021-12-24 15:53:18.310248,94
2021-12-24 15:53:18.310258,98
2021-12-24 15:53:18.535341,84
2021-12-24 15:53:18.535361,65
2021-12-24 15:53:18.535369,65
2021-12-24 15:53:18.535375,75
2021-12-24 15:53:18.535382,73
2021-12-24 15:53:18.535389,68
2021-12-24 15:53:18.535395,68
2021-12-24 15:53:18.535401,63
2021-12-24 15:53:18.535408,63
2021-12-24 15:53:18.535414,63
2021-12-24 15:53:18.535420,61
2021-12-24 15:53:18.535427,58
2021-12-24 15:53:18.535433,56
2021-12-24 15:53:18.535439,61
2021-12-24 15:53:18.535446,63
2021-12-24 15:53:18.535452,58
2021-12-24 15:53:18.535458,54
2021-12-24 15:53:18.535464,56
2021-12-24 15:53:18.535471,58
2021-12-24 15:53:18.535477,54
2021-12-24 15:53:18.535483,42
2021-12-24 15:53:18.535490,28
2021-12-24 15:53:18.535496,14
2021-12-24 15:53:18.535502,14
2021-12-24 15:53:18.535509,32
2021-12-24 15:53:18.535515,56
2021-12-24 15:53:18.535521,73
2021-12-24 15:53:18.535527,75
2021-12-24 15:53:18.535534,70
2021-12-24 15:53:18.535540,70
2021-12-24 15:53:18.760385,70
2021-12-24 15:53:18.760415,65
2021-12-24 15:53:18.760427,68
2021-12-24 15:53:18.760437,68
2021-12-24 15:53:18.760446,89
2021-12-24 15:53:18.760456,98
2021-12-24 15:53:18.760465,-134
2021-12-24 15:53:18.760475,-650
2021-12-24 15:53:18.760484,-852
2021-12-24 15:53:18.760494,-230
2021-12-24 15:53:18.760504,440
2021-12-24 15:53:18.760513,285
2021-12-24 15:53:18.760523,2
2021-12-24 15:53:18.760532,127
2021-12-24 15:53:18.760542,155
2021-12-24 15:53:18.760551,54
2021-12-24 15:53:18.760561,77
2021-12-24 15:53:18.760570,103
2021-12-24 15:53:18.760580,70
2021-12-24 15:53:18.760589,63
2021-12-24 15:53:18.760599,70
2021-12-24 15:53:18.760608,56
2021-12-24 15:53:18.760618,47
2021-12-24 15:53:18.760628,47
2021-12-24 15:53:18.760637,37
2021-12-24 15:53:18.760647,16
2021-12-24 15:53:18.760657,-2
2021-12-24 15:53:18.760666,-11
2021-12-24 15:53:18.760676,-23
2021-12-24 15:53:18.760685,-49
2021-12-24 15:53:18.984797,-77
2021-12-24 15:53:18.984826,-103
2021-12-24 15:53:18.984838,-122
2021-12-24 15:53:18.984848,-136
2021-12-24 15:53:18.984857,-155
2021-12-24 15:53:18.984867,-171
2021-12-24 15:53:18.984876,-169
2021-12-24 15:53:18.984886,-157
2021-12-24 15:53:18.984895,-146
2021-12-24 15:53:18.984905,-117
2021-12-24 15:53:18.984914,-68
2021-12-24 15:53:18.984924,-25
2021-12-24 15:53:18.984933,18
2021-12-24 15:53:18.984943,68
2021-12-24 15:53:18.984952,96
2021-12-24 15:53:18.984962,106
2021-12-24 15:53:18.984971,117
2021-12-24 15:53:18.984981,127
2021-12-24 15:53:18.984990,124
2021-12-24 15:53:18.985000,122
2021-12-24 15:53:18.985010,122
2021-12-24 15:53:18.985019,115
2021-12-24 15:53:18.985029,103
2021-12-24 15:53:18.985038,103
2021-12-24 15:53:18.985047,108
2021-12-24 15:53:18.985057,106
2021-12-24 15:53:18.985066,98
2021-12-24 15:53:18.985076,96
2021-12-24 15:53:18.985085,96
2021-12-24 15:53:18.985095,94
2021-12-24 15:53:19.253498,96
2021-12-24 15:53:19.253519,96
2021-12-24 15:53:19.253527,91
2021-12-24 15:53:19.253533,91
2021-12-24 15:53:19.253540,94
2021-12-24 15:53:19.253546,96
2021-12-24 15:53:19.253552,98
2021-12-24 15:53:19.253559,108
2021-12-24 15:53:19.253565,110
2021-12-24 15:53:19.253571,84
2021-12-24 15:53:19.253578,49
2021-12-24 15:53:19.253584,49
2021-12-24 15:53:19.253590,73
2021-12-24 15:53:19.253597,89
2021-12-24 15:53:19.253603,94
2021-12-24 15:53:19.253610,98
2021-12-24 15:53:19.253616,106
2021-12-24 15:53:19.253622,108
2021-12-24 15:53:19.253628,108
2021-12-24 15:53:19.253635,110
2021-12-24 15:53:19.253641,113
2021-12-24 15:53:19.253647,108
2021-12-24 15:53:19.253653,106
2021-12-24 15:53:19.253660,136
2021-12-24 15:53:19.253666,134
2021-12-24 15:53:19.253672,-157
2021-12-24 15:53:19.253679,-685
2021-12-24 15:53:19.253685,-765
2021-12-24 15:53:19.253691,-49
2021-12-24 15:53:19.253698,511
2021-12-24 15:53:19.480362,268
2021-12-24 15:53:19.480392,65
2021-12-24 15:53:19.480404,212
2021-12-24 15:53:19.480414,190
2021-12-24 15:53:19.480423,98
2021-12-24 15:53:19.480433,146
2021-12-24 15:53:19.480442,160
2021-12-24 15:53:19.480452,115
2021-12-24 15:53:19.480461,117
2021-12-24 15:53:19.480471,127
2021-12-24 15:53:19.480480,101
2021-12-24 15:53:19.480490,91
2021-12-24 15:53:19.480499,96
2021-12-24 15:53:19.480509,87
2021-12-24 15:53:19.480518,70
2021-12-24 15:53:19.480527,54
2021-12-24 15:53:19.480537,40
2021-12-24 15:53:19.480546,23
2021-12-24 15:53:19.480556,-2
2021-12-24 15:53:19.480565,-40
2021-12-24 15:53:19.480575,-68
2021-12-24 15:53:19.480584,-87
2021-12-24 15:53:19.480593,-98
2021-12-24 15:53:19.480603,-115
2021-12-24 15:53:19.480612,-120
2021-12-24 15:53:19.480622,-113
2021-12-24 15:53:19.480631,-113
2021-12-24 15:53:19.480640,-101
2021-12-24 15:53:19.480650,-63
2021-12-24 15:53:19.480659,-11
2021-12-24 15:53:19.705034,40
2021-12-24 15:53:19.705064,89
2021-12-24 15:53:19.705075,127
2021-12-24 15:53:19.705084,146
2021-12-24 15:53:19.705094,157
2021-12-24 15:53:19.705104,160
2021-12-24 15:53:19.705113,155
2021-12-24 15:53:19.705122,155
2021-12-24 15:53:19.705132,155
2021-12-24 15:53:19.705141,146
2021-12-24 15:53:19.705151,139
2021-12-24 15:53:19.705160,139
2021-12-24 15:53:19.705169,131
2021-12-24 15:53:19.705179,122
2021-12-24 15:53:19.705188,129
2021-12-24 15:53:19.705197,127
2021-12-24 15:53:19.705207,110
2021-12-24 15:53:19.705216,108
2021-12-24 15:53:19.705225,115
2021-12-24 15:53:19.705235,110
2021-12-24 15:53:19.705244,106
2021-12-24 15:53:19.705253,110
2021-12-24 15:53:19.705263,110
2021-12-24 15:53:19.705272,106
2021-12-24 15:53:19.705281,108
2021-12-24 15:53:19.705291,110
2021-12-24 15:53:19.705300,113
2021-12-24 15:53:19.705309,115
2021-12-24 15:53:19.705319,120
2021-12-24 15:53:19.705328,108
2021-12-24 15:53:19.929875,80
2021-12-24 15:53:19.929902,73
2021-12-24 15:53:19.929914,87
2021-12-24 15:53:19.929924,101
2021-12-24 15:53:19.929934,103
2021-12-24 15:53:19.929943,115
2021-12-24 15:53:19.929953,127
2021-12-24 15:53:19.929963,115
2021-12-24 15:53:19.929973,106
2021-12-24 15:53:19.929984,113
2021-12-24 15:53:19.929996,110
2021-12-24 15:53:19.930007,101
2021-12-24 15:53:19.930018,103
2021-12-24 15:53:19.930029,141
2021-12-24 15:53:19.930044,141
2021-12-24 15:53:19.930056,-150
2021-12-24 15:53:19.930067,-697
2021-12-24 15:53:19.930078,-822
2021-12-24 15:53:19.930089,-146
2021-12-24 15:53:19.930100,457
2021-12-24 15:53:19.930112,278
2021-12-24 15:53:19.930123,65
2021-12-24 15:53:19.930134,197
2021-12-24 15:53:19.930145,193
2021-12-24 15:53:19.930157,103
2021-12-24 15:53:19.930168,136
2021-12-24 15:53:19.930179,157
2021-12-24 15:53:19.930191,120
2021-12-24 15:53:19.930202,117
2021-12-24 15:53:19.930213,127
2021-12-24 15:53:20.199318,113
2021-12-24 15:53:20.199338,103
2021-12-24 15:53:20.199345,96
2021-12-24 15:53:20.199352,70
2021-12-24 15:53:20.199359,51
2021-12-24 15:53:20.199365,51
2021-12-24 15:53:20.199371,35
2021-12-24 15:53:20.199378,7
2021-12-24 15:53:20.199384,-9
2021-12-24 15:53:20.199390,-25
2021-12-24 15:53:20.199396,-58
2021-12-24 15:53:20.199403,-84
2021-12-24 15:53:20.199409,-101
2021-12-24 15:53:20.199415,-120
2021-12-24 15:53:20.199422,-129
2021-12-24 15:53:20.199428,-122
2021-12-24 15:53:20.199434,-115
2021-12-24 15:53:20.199441,-101
2021-12-24 15:53:20.199447,-70
2021-12-24 15:53:20.199453,-21
2021-12-24 15:53:20.199460,35
2021-12-24 15:53:20.199466,82
2021-12-24 15:53:20.199472,122
2021-12-24 15:53:20.199479,153
2021-12-24 15:53:20.199485,164
2021-12-24 15:53:20.199492,167
2021-12-24 15:53:20.199499,171
2021-12-24 15:53:20.199505,174
2021-12-24 15:53:20.199512,167
2021-12-24 15:53:20.199518,160
2021-12-24 15:53:20.425067,153
2021-12-24 15:53:20.425097,150
2021-12-24 15:53:20.425108,146
2021-12-24 15:53:20.425119,139
2021-12-24 15:53:20.425129,136
2021-12-24 15:53:20.425138,139
2021-12-24 15:53:20.425148,131
2021-12-24 15:53:20.425158,127
2021-12-24 15:53:20.425168,129
2021-12-24 15:53:20.425178,129
2021-12-24 15:53:20.425188,127
2021-12-24 15:53:20.425198,124
2021-12-24 15:53:20.425208,120
2021-12-24 15:53:20.425218,122
2021-12-24 15:53:20.425228,129
2021-12-24 15:53:20.425238,129
2021-12-24 15:53:20.425248,124
2021-12-24 15:53:20.425258,129
2021-12-24 15:53:20.425268,136
2021-12-24 15:53:20.425278,141
2021-12-24 15:53:20.425288,124
2021-12-24 15:53:20.425298,91
2021-12-24 15:53:20.425307,82
2021-12-24 15:53:20.425317,98
2021-12-24 15:53:20.425327,110
2021-12-24 15:53:20.425337,120
2021-12-24 15:53:20.425347,131
2021-12-24 15:53:20.425357,134
2021-12-24 15:53:20.425367,134
2021-12-24 15:53:20.425377,131
2021-12-24 15:53:20.605428,129
2021-12-24 15:53:20.605457,131
2021-12-24 15:53:20.605469,134
2021-12-24 15:53:20.605479,129
2021-12-24 15:53:20.605489,143
2021-12-24 15:53:20.605498,183
2021-12-24 15:53:20.605508,37
2021-12-24 15:53:20.605517,-475
2021-12-24 15:53:20.605527,-899
2021-12-24 15:53:20.605536,-530
2021-12-24 15:53:20.605546,261
2021-12-24 15:53:20.605555,412
2021-12-24 15:53:20.605565,120
2021-12-24 15:53:20.605574,146
2021-12-24 15:53:20.605584,242
2021-12-24 15:53:20.605593,160
2021-12-24 15:53:20.605602,146
2021-12-24 15:53:20.605612,183
2021-12-24 15:53:20.605621,148
2021-12-24 15:53:20.605631,124
2021-12-24 15:53:20.605640,148
2021-12-24 15:53:20.605649,143
2021-12-24 15:53:20.605659,120
2021-12-24 15:53:20.605668,117
2021-12-24 15:53:20.605678,115
2021-12-24 15:53:20.605687,101
2021-12-24 15:53:20.605696,87
2021-12-24 15:53:20.605706,73
2021-12-24 15:53:20.605715,56
2021-12-24 15:53:20.605725,32
2021-12-24 15:53:20.829241,7
2021-12-24 15:53:20.829257,-11
2021-12-24 15:53:20.829263,-32
2021-12-24 15:53:20.829270,-61
2021-12-24 15:53:20.829275,-82
2021-12-24 15:53:20.829279,-96
2021-12-24 15:53:20.829284,-98
2021-12-24 15:53:20.829288,-87
2021-12-24 15:53:20.829294,-73
2021-12-24 15:53:20.829299,-49
2021-12-24 15:53:20.829304,-9
2021-12-24 15:53:20.829308,42
2021-12-24 15:53:20.829313,87
2021-12-24 15:53:20.829317,129
2021-12-24 15:53:20.829322,167
2021-12-24 15:53:20.829326,183
2021-12-24 15:53:20.829331,188
2021-12-24 15:53:20.829335,190
2021-12-24 15:53:20.829340,195
2021-12-24 15:53:20.829344,186
2021-12-24 15:53:20.829349,174
2021-12-24 15:53:20.829353,171
2021-12-24 15:53:20.829358,171
2021-12-24 15:53:20.829362,162
2021-12-24 15:53:20.829367,155
2021-12-24 15:53:20.829371,155
2021-12-24 15:53:20.829376,148
2021-12-24 15:53:20.829381,143
2021-12-24 15:53:20.829385,146
2021-12-24 15:53:20.829390,143
2021-12-24 15:53:21.144852,134
2021-12-24 15:53:21.144880,129
2021-12-24 15:53:21.144892,131
2021-12-24 15:53:21.144902,127
2021-12-24 15:53:21.144912,124
2021-12-24 15:53:21.144922,122
2021-12-24 15:53:21.144932,124
2021-12-24 15:53:21.144942,129
2021-12-24 15:53:21.144951,122
2021-12-24 15:53:21.144961,117
2021-12-24 15:53:21.144971,120
2021-12-24 15:53:21.144980,124
2021-12-24 15:53:21.144990,127
2021-12-24 15:53:21.145000,134
2021-12-24 15:53:21.145010,122
2021-12-24 15:53:21.145020,80
2021-12-24 15:53:21.145030,54
2021-12-24 15:53:21.145040,75
2021-12-24 15:53:21.145050,94
2021-12-24 15:53:21.145060,96
2021-12-24 15:53:21.145070,110
2021-12-24 15:53:21.145079,120
2021-12-24 15:53:21.145089,110
2021-12-24 15:53:21.145099,110
2021-12-24 15:53:21.145108,117
2021-12-24 15:53:21.145118,117
2021-12-24 15:53:21.145128,113
2021-12-24 15:53:21.145137,113
2021-12-24 15:53:21.145147,129
2021-12-24 15:53:21.145157,157
2021-12-24 15:53:21.414152,4
2021-12-24 15:53:21.414182,-497
2021-12-24 15:53:21.414193,-904
2021-12-24 15:53:21.414203,-546
2021-12-24 15:53:21.414213,226
2021-12-24 15:53:21.414223,388
2021-12-24 15:53:21.414233,117
2021-12-24 15:53:21.414242,131
2021-12-24 15:53:21.414252,226
2021-12-24 15:53:21.414261,157
2021-12-24 15:53:21.414271,136
2021-12-24 15:53:21.414280,169
2021-12-24 15:53:21.414290,155
2021-12-24 15:53:21.414300,139
2021-12-24 15:53:21.414309,136
2021-12-24 15:53:21.414319,120
2021-12-24 15:53:21.414328,110
2021-12-24 15:53:21.414338,106
2021-12-24 15:53:21.414347,98
2021-12-24 15:53:21.414357,89
2021-12-24 15:53:21.414366,68
2021-12-24 15:53:21.414376,47
2021-12-24 15:53:21.414386,32
2021-12-24 15:53:21.414395,14
2021-12-24 15:53:21.414405,-9
2021-12-24 15:53:21.414414,-28
2021-12-24 15:53:21.414424,-47
2021-12-24 15:53:21.414433,-75
2021-12-24 15:53:21.414443,-91
2021-12-24 15:53:21.414452,-91
2021-12-24 15:53:21.595500,-89
2021-12-24 15:53:21.595529,-94
2021-12-24 15:53:21.595540,-87
2021-12-24 15:53:21.595550,-65
2021-12-24 15:53:21.595560,-30
2021-12-24 15:53:21.595569,16
2021-12-24 15:53:21.595579,68
2021-12-24 15:53:21.595588,108
2021-12-24 15:53:21.595597,134
2021-12-24 15:53:21.595607,150
2021-12-24 15:53:21.595616,155
2021-12-24 15:53:21.595626,155
2021-12-24 15:53:21.595635,155
2021-12-24 15:53:21.595644,153
2021-12-24 15:53:21.595654,141
2021-12-24 15:53:21.595664,129
2021-12-24 15:53:21.595673,124
2021-12-24 15:53:21.595682,124
2021-12-24 15:53:21.595692,120
2021-12-24 15:53:21.595701,108
2021-12-24 15:53:21.595711,98
2021-12-24 15:53:21.595720,94
2021-12-24 15:53:21.595730,89
2021-12-24 15:53:21.595739,87
2021-12-24 15:53:21.595748,89
2021-12-24 15:53:21.595758,87
2021-12-24 15:53:21.595767,82
2021-12-24 15:53:21.595777,77
2021-12-24 15:53:21.595786,77
2021-12-24 15:53:21.595795,82
2021-12-24 15:53:21.820395,82
2021-12-24 15:53:21.820425,77
2021-12-24 15:53:21.820436,80
2021-12-24 15:53:21.820446,82
2021-12-24 15:53:21.820455,80
2021-12-24 15:53:21.820465,84
2021-12-24 15:53:21.820474,82
2021-12-24 15:53:21.820484,75
2021-12-24 15:53:21.820493,77
2021-12-24 15:53:21.820503,77
2021-12-24 15:53:21.820512,61
2021-12-24 15:53:21.820522,32
2021-12-24 15:53:21.820531,25
2021-12-24 15:53:21.820541,47
2021-12-24 15:53:21.820550,63
2021-12-24 15:53:21.820560,61
2021-12-24 15:53:21.820569,61
2021-12-24 15:53:21.820579,70
2021-12-24 15:53:21.820588,75
2021-12-24 15:53:21.820598,68
2021-12-24 15:53:21.820608,61
2021-12-24 15:53:21.820617,63
2021-12-24 15:53:21.820627,58
2021-12-24 15:53:21.820636,51
2021-12-24 15:53:21.820646,91
2021-12-24 15:53:21.820655,103
2021-12-24 15:53:21.820665,-190
2021-12-24 15:53:21.820674,-749
2021-12-24 15:53:21.820684,-876
2021-12-24 15:53:21.820694,-197
2021-12-24 15:53:22.000547,402
2021-12-24 15:53:22.000577,230
2021-12-24 15:53:22.000589,21
2021-12-24 15:53:22.000599,150
2021-12-24 15:53:22.000609,157
2021-12-24 15:53:22.000619,75
2021-12-24 15:53:22.000629,96
2021-12-24 15:53:22.000639,115
2021-12-24 15:53:22.000648,87
2021-12-24 15:53:22.000658,89
2021-12-24 15:53:22.000668,98
2021-12-24 15:53:22.000678,80
2021-12-24 15:53:22.000687,54
2021-12-24 15:53:22.000697,44
2021-12-24 15:53:22.000706,40
2021-12-24 15:53:22.000716,14
2021-12-24 15:53:22.000726,-21
2021-12-24 15:53:22.000736,-18
2021-12-24 15:53:22.000745,-14
2021-12-24 15:53:22.000755,-30
2021-12-24 15:53:22.000765,-75
2021-12-24 15:53:22.000774,-150
2021-12-24 15:53:22.000784,-181
2021-12-24 15:53:22.000794,-157
2021-12-24 15:53:22.000804,-167
2021-12-24 15:53:22.000813,-193
2021-12-24 15:53:22.000823,-190
2021-12-24 15:53:22.000832,-181
2021-12-24 15:53:22.000842,-167
2021-12-24 15:53:22.000852,-134
2021-12-24 15:53:22.270085,-82
2021-12-24 15:53:22.270101,-23
2021-12-24 15:53:22.270107,32
2021-12-24 15:53:22.270113,80
2021-12-24 15:53:22.270118,110
2021-12-24 15:53:22.270123,120
2021-12-24 15:53:22.270128,120
2021-12-24 15:53:22.270133,127
2021-12-24 15:53:22.270138,146
2021-12-24 15:53:22.270143,148
2021-12-24 15:53:22.270148,124
2021-12-24 15:53:22.270153,94
2021-12-24 15:53:22.270158,80
2021-12-24 15:53:22.270164,94
2021-12-24 15:53:22.270169,110
2021-12-24 15:53:22.270174,110
2021-12-24 15:53:22.270179,117
2021-12-24 15:53:22.270184,117
2021-12-24 15:53:22.270189,94
2021-12-24 15:53:22.270194,89
2021-12-24 15:53:22.270199,101
2021-12-24 15:53:22.270205,84
2021-12-24 15:53:22.270210,84
2021-12-24 15:53:22.270215,115
2021-12-24 15:53:22.270220,115
2021-12-24 15:53:22.270225,106
2021-12-24 15:53:22.270230,115
2021-12-24 15:53:22.270235,120
2021-12-24 15:53:22.270240,113
2021-12-24 15:53:22.270245,117
2021-12-24 15:53:22.495302,141
2021-12-24 15:53:22.495332,153
2021-12-24 15:53:22.495343,129
2021-12-24 15:53:22.495353,108
2021-12-24 15:53:22.495363,96
2021-12-24 15:53:22.495373,77
2021-12-24 15:53:22.495382,73
2021-12-24 15:53:22.495392,94
2021-12-24 15:53:22.495402,103
2021-12-24 15:53:22.495411,106
2021-12-24 15:53:22.495421,127
2021-12-24 15:53:22.495431,150
2021-12-24 15:53:22.495441,141
2021-12-24 15:53:22.495450,108
2021-12-24 15:53:22.495460,108
2021-12-24 15:53:22.495470,124
2021-12-24 15:53:22.495479,113
2021-12-24 15:53:22.495489,101
2021-12-24 15:53:22.495499,146
2021-12-24 15:53:22.495520,162
2021-12-24 15:53:22.495530,-110
2021-12-24 15:53:22.495540,-650
2021-12-24 15:53:22.495550,-838
2021-12-24 15:53:22.495560,-233
2021-12-24 15:53:22.495569,417
2021-12-24 15:53:22.495579,320
2021-12-24 15:53:22.495589,91
2021-12-24 15:53:22.495599,200
2021-12-24 15:53:22.495608,219
2021-12-24 15:53:22.495618,131
2021-12-24 15:53:22.675382,150
2021-12-24 15:53:22.675403,169
2021-12-24 15:53:22.675410,131
2021-12-24 15:53:22.675416,122
2021-12-24 15:53:22.675423,136
2021-12-24 15:53:22.675429,129
2021-12-24 15:53:22.675435,113
2021-12-24 15:53:22.675441,91
2021-12-24 15:53:22.675447,82
2021-12-24 15:53:22.675454,80
2021-12-24 15:53:22.675460,68
2021-12-24 15:53:22.675466,47
2021-12-24 15:53:22.675472,21
2021-12-24 15:53:22.675479,-2
2021-12-24 15:53:22.675485,-14
2021-12-24 15:53:22.675491,-35
2021-12-24 15:53:22.675497,-77
2021-12-24 15:53:22.675503,-122
2021-12-24 15:53:22.675510,-124
2021-12-24 15:53:22.675516,-110
2021-12-24 15:53:22.675522,-115
2021-12-24 15:53:22.675528,-124
2021-12-24 15:53:22.675534,-115
2021-12-24 15:53:22.675541,-73
2021-12-24 15:53:22.675547,-21
2021-12-24 15:53:22.675553,30
2021-12-24 15:53:22.675559,96
2021-12-24 15:53:22.675565,143
2021-12-24 15:53:22.675571,127
2021-12-24 15:53:22.675577,103
2021-12-24 15:53:22.945484,136
2021-12-24 15:53:22.945515,169
2021-12-24 15:53:22.945527,162
2021-12-24 15:53:22.945537,143
2021-12-24 15:53:22.945547,136
2021-12-24 15:53:22.945557,139
2021-12-24 15:53:22.945566,146
2021-12-24 15:53:22.945576,150
2021-12-24 15:53:22.945586,134
2021-12-24 15:53:22.945596,113
2021-12-24 15:53:22.945605,117
2021-12-24 15:53:22.945615,124
2021-12-24 15:53:22.945625,115
2021-12-24 15:53:22.945634,106
2021-12-24 15:53:22.945644,117
2021-12-24 15:53:22.945654,122
2021-12-24 15:53:22.945663,117
2021-12-24 15:53:22.945673,115
2021-12-24 15:53:22.945683,113
2021-12-24 15:53:22.945692,108
2021-12-24 15:53:22.945702,110
2021-12-24 15:53:22.945711,117
2021-12-24 15:53:22.945721,127
2021-12-24 15:53:22.945731,124
2021-12-24 15:53:22.945740,110
2021-12-24 15:53:22.945750,110
2021-12-24 15:53:22.945759,113
2021-12-24 15:53:22.945769,110
2021-12-24 15:53:22.945779,117
2021-12-24 15:53:22.945788,134
2021-12-24 15:53:23.214756,124
2021-12-24 15:53:23.214785,87
2021-12-24 15:53:23.214797,68
2021-12-24 15:53:23.214807,82
2021-12-24 15:53:23.214818,101
2021-12-24 15:53:23.214828,117
2021-12-24 15:53:23.214837,120
2021-12-24 15:53:23.214847,103
2021-12-24 15:53:23.214857,101
2021-12-24 15:53:23.214867,103
2021-12-24 15:53:23.214876,96
2021-12-24 15:53:23.214886,103
2021-12-24 15:53:23.214896,115
2021-12-24 15:53:23.214905,106
2021-12-24 15:53:23.214915,124
2021-12-24 15:53:23.214925,150
2021-12-24 15:53:23.214935,-73
2021-12-24 15:53:23.214945,-629
2021-12-24 15:53:23.214954,-911
2021-12-24 15:53:23.214964,-355
2021-12-24 15:53:23.214974,358
2021-12-24 15:53:23.214984,325
2021-12-24 15:53:23.214994,68
2021-12-24 15:53:23.215003,167
2021-12-24 15:53:23.215013,221
2021-12-24 15:53:23.215023,129
2021-12-24 15:53:23.215033,131
2021-12-24 15:53:23.215043,150
2021-12-24 15:53:23.215052,124
2021-12-24 15:53:23.215062,127
2021-12-24 15:53:23.528496,139
2021-12-24 15:53:23.528526,122
2021-12-24 15:53:23.528538,110
2021-12-24 15:53:23.528548,110
2021-12-24 15:53:23.528558,91
2021-12-24 15:53:23.528568,65
2021-12-24 15:53:23.528578,63
2021-12-24 15:53:23.528588,58
2021-12-24 15:53:23.528598,21
2021-12-24 15:53:23.528608,-7
2021-12-24 15:53:23.528618,-11
2021-12-24 15:53:23.528628,-37
2021-12-24 15:53:23.528638,-73
2021-12-24 15:53:23.528648,-94
2021-12-24 15:53:23.528657,-110
2021-12-24 15:53:23.528667,-115
2021-12-24 15:53:23.528677,-101
2021-12-24 15:53:23.528687,-103
2021-12-24 15:53:23.528697,-120
2021-12-24 15:53:23.528707,-98
2021-12-24 15:53:23.528717,-42
2021-12-24 15:53:23.528727,9
2021-12-24 15:53:23.528736,54
2021-12-24 15:53:23.528746,98
2021-12-24 15:53:23.528757,131
2021-12-24 15:53:23.528767,146
2021-12-24 15:53:23.528777,150
2021-12-24 15:53:23.528787,153
2021-12-24 15:53:23.528797,153
2021-12-24 15:53:23.528807,155
2021-12-24 15:53:23.620462,150
2021-12-24 15:53:23.620493,141
2021-12-24 15:53:23.620504,141
2021-12-24 15:53:23.620514,143
2021-12-24 15:53:23.620524,141
2021-12-24 15:53:23.620533,146
2021-12-24 15:53:23.620543,148
2021-12-24 15:53:23.620553,127
2021-12-24 15:53:23.620562,106
2021-12-24 15:53:23.620572,115
2021-12-24 15:53:23.620582,129
2021-12-24 15:53:23.620591,129
2021-12-24 15:53:23.620601,127
2021-12-24 15:53:23.620611,122
2021-12-24 15:53:23.620620,106
2021-12-24 15:53:23.620630,110
2021-12-24 15:53:23.620640,131
2021-12-24 15:53:23.620649,124
2021-12-24 15:53:23.620659,106
2021-12-24 15:53:23.620669,110
2021-12-24 15:53:23.620678,113
2021-12-24 15:53:23.620688,108
2021-12-24 15:53:23.620697,117
2021-12-24 15:53:23.620707,124
2021-12-24 15:53:23.620717,120
2021-12-24 15:53:23.620726,122
2021-12-24 15:53:23.620736,120
2021-12-24 15:53:23.620745,91
2021-12-24 15:53:23.620755,70
2021-12-24 15:53:23.620764,70
2021-12-24 15:53:23.845294,73
2021-12-24 15:53:23.845323,82
2021-12-24 15:53:23.845335,103
2021-12-24 15:53:23.845345,113
2021-12-24 15:53:23.845355,108
2021-12-24 15:53:23.845364,113
2021-12-24 15:53:23.845374,115
2021-12-24 15:53:23.845383,110
2021-12-24 15:53:23.845393,115
2021-12-24 15:53:23.845403,122
2021-12-24 15:53:23.845412,113
2021-12-24 15:53:23.845422,120
2021-12-24 15:53:23.845432,141
2021-12-24 15:53:23.845441,-47
2021-12-24 15:53:23.845451,-560
2021-12-24 15:53:23.845461,-888
2021-12-24 15:53:23.845471,-424
2021-12-24 15:53:23.845481,310
2021-12-24 15:53:23.845490,358
2021-12-24 15:53:23.845500,94
2021-12-24 15:53:23.845510,160
2021-12-24 15:53:23.845519,223
2021-12-24 15:53:23.845529,141
2021-12-24 15:53:23.845539,148
2021-12-24 15:53:23.845548,188
2021-12-24 15:53:23.845558,160
2021-12-24 15:53:23.845567,129
2021-12-24 15:53:23.845577,124
2021-12-24 15:53:23.845587,122
2021-12-24 15:53:23.845596,120
2021-12-24 15:53:24.069642,110
2021-12-24 15:53:24.069664,89
2021-12-24 15:53:24.069671,77
2021-12-24 15:53:24.069678,77
2021-12-24 15:53:24.069684,61
2021-12-24 15:53:24.069691,32
2021-12-24 15:53:24.069697,4
2021-12-24 15:53:24.069703,-16
2021-12-24 15:53:24.069709,-32
2021-12-24 15:53:24.069715,-56
2021-12-24 15:53:24.069722,-73
2021-12-24 15:53:24.069728,-89
2021-12-24 15:53:24.069734,-106
2021-12-24 15:53:24.069740,-108
2021-12-24 15:53:24.069746,-94
2021-12-24 15:53:24.069753,-89
2021-12-24 15:53:24.069759,-82
2021-12-24 15:53:24.069765,-32
2021-12-24 15:53:24.069771,23
2021-12-24 15:53:24.069778,61
2021-12-24 15:53:24.069784,91
2021-12-24 15:53:24.069790,120
2021-12-24 15:53:24.069796,148
2021-12-24 15:53:24.069802,169
2021-12-24 15:53:24.069808,169
2021-12-24 15:53:24.069815,155
2021-12-24 15:53:24.069821,160
2021-12-24 15:53:24.069827,160
2021-12-24 15:53:24.069833,143
2021-12-24 15:53:24.069839,136
2021-12-24 15:53:24.339020,141
2021-12-24 15:53:24.339042,146
2021-12-24 15:53:24.339049,143
2021-12-24 15:53:24.339056,134
2021-12-24 15:53:24.339062,131
2021-12-24 15:53:24.339068,131
2021-12-24 15:53:24.339075,127
2021-12-24 15:53:24.339081,127
2021-12-24 15:53:24.339087,127
2021-12-24 15:53:24.339093,127
2021-12-24 15:53:24.339099,131
2021-12-24 15:53:24.339106,129
2021-12-24 15:53:24.339112,122
2021-12-24 15:53:24.339118,127
2021-12-24 15:53:24.339124,127
2021-12-24 15:53:24.339130,131
2021-12-24 15:53:24.339136,143
2021-12-24 15:53:24.339142,141
2021-12-24 15:53:24.339149,124
2021-12-24 15:53:24.339155,120
2021-12-24 15:53:24.339161,127
2021-12-24 15:53:24.339167,136
2021-12-24 15:53:24.339173,146
2021-12-24 15:53:24.339179,139
2021-12-24 15:53:24.339185,122
2021-12-24 15:53:24.339192,98
2021-12-24 15:53:24.339198,89
2021-12-24 15:53:24.339204,106
2021-12-24 15:53:24.339210,120
2021-12-24 15:53:24.339216,131
2021-12-24 15:53:24.520411,139
2021-12-24 15:53:24.520440,134
2021-12-24 15:53:24.520452,134
2021-12-24 15:53:24.520462,141
2021-12-24 15:53:24.520471,143
2021-12-24 15:53:24.520481,134
2021-12-24 15:53:24.520490,134
2021-12-24 15:53:24.520500,139
2021-12-24 15:53:24.520509,171
2021-12-24 15:53:24.520518,124
2021-12-24 15:53:24.520528,-245
2021-12-24 15:53:24.520538,-751
2021-12-24 15:53:24.520547,-666
2021-12-24 15:53:24.520557,70
2021-12-24 15:53:24.520566,449
2021-12-24 15:53:24.520576,202
2021-12-24 15:53:24.520585,113
2021-12-24 15:53:24.520595,228
2021-12-24 15:53:24.520604,183
2021-12-24 15:53:24.520614,143
2021-12-24 15:53:24.520623,176
2021-12-24 15:53:24.520633,169
2021-12-24 15:53:24.520642,153
2021-12-24 15:53:24.520652,148
2021-12-24 15:53:24.520662,124
2021-12-24 15:53:24.520671,115
2021-12-24 15:53:24.520681,127
2021-12-24 15:53:24.520690,108
2021-12-24 15:53:24.520700,77
2021-12-24 15:53:24.520709,65
2021-12-24 15:53:24.789803,61
2021-12-24 15:53:24.789833,42
2021-12-24 15:53:24.789845,18
2021-12-24 15:53:24.789855,-4
2021-12-24 15:53:24.789865,-37
2021-12-24 15:53:24.789875,-61
2021-12-24 15:53:24.789885,-73
2021-12-24 15:53:24.789895,-87
2021-12-24 15:53:24.789904,-96
2021-12-24 15:53:24.789914,-98
2021-12-24 15:53:24.789924,-103
2021-12-24 15:53:24.789934,-106
2021-12-24 15:53:24.789944,-96
2021-12-24 15:53:24.789953,-65
2021-12-24 15:53:24.789963,-18
2021-12-24 15:53:24.789973,28
2021-12-24 15:53:24.789983,75
2021-12-24 15:53:24.789992,120
2021-12-24 15:53:24.790002,148
2021-12-24 15:53:24.790012,167
2021-12-24 15:53:24.790022,181
2021-12-24 15:53:24.790032,171
2021-12-24 15:53:24.790042,155
2021-12-24 15:53:24.790051,160
2021-12-24 15:53:24.790061,174
2021-12-24 15:53:24.790071,164
2021-12-24 15:53:24.790081,141
2021-12-24 15:53:24.790090,139
2021-12-24 15:53:24.790100,146
2021-12-24 15:53:24.790110,143
2021-12-24 15:53:25.060362,143
2021-12-24 15:53:25.060392,150
2021-12-24 15:53:25.060404,150
2021-12-24 15:53:25.060413,141
2021-12-24 15:53:25.060423,131
2021-12-24 15:53:25.060432,136
2021-12-24 15:53:25.060442,139
2021-12-24 15:53:25.060451,136
2021-12-24 15:53:25.060461,139
2021-12-24 15:53:25.060470,136
2021-12-24 15:53:25.060480,131
2021-12-24 15:53:25.060489,139
2021-12-24 15:53:25.060498,146
2021-12-24 15:53:25.060508,131
2021-12-24 15:53:25.060518,120
2021-12-24 15:53:25.060527,122
2021-12-24 15:53:25.060537,129
2021-12-24 15:53:25.060546,139
2021-12-24 15:53:25.060556,139
2021-12-24 15:53:25.060565,122
2021-12-24 15:53:25.060575,101
2021-12-24 15:53:25.060584,89
2021-12-24 15:53:25.060594,91
2021-12-24 15:53:25.060603,106
2021-12-24 15:53:25.060613,120
2021-12-24 15:53:25.060622,124
2021-12-24 15:53:25.060632,129
2021-12-24 15:53:25.060641,139
2021-12-24 15:53:25.060651,134
2021-12-24 15:53:25.060660,124
2021-12-24 15:53:25.284891,117
2021-12-24 15:53:25.284926,115
2021-12-24 15:53:25.284938,113
2021-12-24 15:53:25.284948,139
2021-12-24 15:53:25.284958,153
2021-12-24 15:53:25.284968,-65
2021-12-24 15:53:25.284977,-551
2021-12-24 15:53:25.284987,-765
2021-12-24 15:53:25.284997,-240
2021-12-24 15:53:25.285007,376
2021-12-24 15:53:25.285016,301
2021-12-24 15:53:25.285026,68
2021-12-24 15:53:25.285036,157
2021-12-24 15:53:25.285045,193
2021-12-24 15:53:25.285055,115
2021-12-24 15:53:25.285065,127
2021-12-24 15:53:25.285074,153
2021-12-24 15:53:25.285084,127
2021-12-24 15:53:25.285094,115
2021-12-24 15:53:25.285104,122
2021-12-24 15:53:25.285113,110
2021-12-24 15:53:25.285123,91
2021-12-24 15:53:25.285132,80
2021-12-24 15:53:25.285142,73
2021-12-24 15:53:25.285152,63
2021-12-24 15:53:25.285161,44
2021-12-24 15:53:25.285171,30
2021-12-24 15:53:25.285181,18
2021-12-24 15:53:25.285190,-2
2021-12-24 15:53:25.285200,-28
2021-12-24 15:53:25.509007,-54
2021-12-24 15:53:25.509032,-80
2021-12-24 15:53:25.509040,-94
2021-12-24 15:53:25.509047,-98
2021-12-24 15:53:25.509053,-98
2021-12-24 15:53:25.509099,-101
2021-12-24 15:53:25.509106,-106
2021-12-24 15:53:25.509113,-101
2021-12-24 15:53:25.509119,-87
2021-12-24 15:53:25.509125,-56
2021-12-24 15:53:25.509131,0
2021-12-24 15:53:25.509137,56
2021-12-24 15:53:25.509144,87
2021-12-24 15:53:25.509150,106
2021-12-24 15:53:25.509156,124
2021-12-24 15:53:25.509162,134
2021-12-24 15:53:25.509168,139
2021-12-24 15:53:25.509174,143
2021-12-24 15:53:25.509181,143
2021-12-24 15:53:25.509187,136
2021-12-24 15:53:25.509193,131
2021-12-24 15:53:25.509199,124
2021-12-24 15:53:25.509205,122
2021-12-24 15:53:25.509211,117
2021-12-24 15:53:25.509218,106
2021-12-24 15:53:25.509224,98
2021-12-24 15:53:25.509230,98
2021-12-24 15:53:25.509236,98
2021-12-24 15:53:25.509242,96
2021-12-24 15:53:25.509248,101
2021-12-24 15:53:25.824258,101
2021-12-24 15:53:25.824287,96
2021-12-24 15:53:25.824299,91
2021-12-24 15:53:25.824309,87
2021-12-24 15:53:25.824319,87
2021-12-24 15:53:25.824328,96
2021-12-24 15:53:25.824338,87
2021-12-24 15:53:25.824348,58
2021-12-24 15:53:25.824357,61
2021-12-24 15:53:25.824367,70
2021-12-24 15:53:25.824376,56
2021-12-24 15:53:25.824386,61
2021-12-24 15:53:25.824395,63
2021-12-24 15:53:25.824405,32
2021-12-24 15:53:25.824415,2
2021-12-24 15:53:25.824424,4
2021-12-24 15:53:25.824434,16
2021-12-24 15:53:25.824443,23
2021-12-24 15:53:25.824453,40
2021-12-24 15:53:25.824462,58
2021-12-24 15:53:25.824472,54
2021-12-24 15:53:25.824481,35
2021-12-24 15:53:25.824491,32
2021-12-24 15:53:25.824500,44
2021-12-24 15:53:25.824510,49
2021-12-24 15:53:25.824520,47
2021-12-24 15:53:25.824529,44
2021-12-24 15:53:25.824539,61
2021-12-24 15:53:25.824548,49
2021-12-24 15:53:25.824558,-223
2021-12-24 15:53:26.050318,-713
2021-12-24 15:53:26.050348,-756
2021-12-24 15:53:26.050360,-49
2021-12-24 15:53:26.050370,442
2021-12-24 15:53:26.050380,174
2021-12-24 15:53:26.050390,-9
2021-12-24 15:53:26.050400,131
2021-12-24 15:53:26.050409,96
2021-12-24 15:53:26.050419,11
2021-12-24 15:53:26.050428,51
2021-12-24 15:53:26.050438,58
2021-12-24 15:53:26.050448,30
2021-12-24 15:53:26.050458,42
2021-12-24 15:53:26.050467,42
2021-12-24 15:53:26.050477,7
2021-12-24 15:53:26.050487,-9
2021-12-24 15:53:26.050496,2
2021-12-24 15:53:26.050506,0
2021-12-24 15:53:26.050516,-32
2021-12-24 15:53:26.050525,-58
2021-12-24 15:53:26.050535,-65
2021-12-24 15:53:26.050545,-82
2021-12-24 15:53:26.050555,-110
2021-12-24 15:53:26.050564,-134
2021-12-24 15:53:26.050574,-160
2021-12-24 15:53:26.050584,-181
2021-12-24 15:53:26.050593,-200
2021-12-24 15:53:26.050603,-209
2021-12-24 15:53:26.050613,-204
2021-12-24 15:53:26.050622,-209
2021-12-24 15:53:26.273823,-219
2021-12-24 15:53:26.273839,-202
2021-12-24 15:53:26.273845,-162
2021-12-24 15:53:26.273850,-120
2021-12-24 15:53:26.273855,-73
2021-12-24 15:53:26.273860,-23
2021-12-24 15:53:26.273865,21
2021-12-24 15:53:26.273870,61
2021-12-24 15:53:26.273875,80
2021-12-24 15:53:26.273880,77
2021-12-24 15:53:26.273885,82
2021-12-24 15:53:26.273890,96
2021-12-24 15:53:26.273895,91
2021-12-24 15:53:26.273900,73
2021-12-24 15:53:26.273905,61
2021-12-24 15:53:26.273910,61
2021-12-24 15:53:26.273915,63
2021-12-24 15:53:26.273920,58
2021-12-24 15:53:26.273925,63
2021-12-24 15:53:26.273930,70
2021-12-24 15:53:26.273935,56
2021-12-24 15:53:26.273940,49
2021-12-24 15:53:26.273945,49
2021-12-24 15:53:26.273950,44
2021-12-24 15:53:26.273955,51
2021-12-24 15:53:26.273960,56
2021-12-24 15:53:26.273965,54
2021-12-24 15:53:26.273970,51
2021-12-24 15:53:26.273975,51
2021-12-24 15:53:26.273980,49
2021-12-24 15:53:26.410519,51
2021-12-24 15:53:26.410577,49
2021-12-24 15:53:26.410593,25
2021-12-24 15:53:26.410601,14
2021-12-24 15:53:26.410607,28
2021-12-24 15:53:26.410613,32
2021-12-24 15:53:26.410619,32
2021-12-24 15:53:26.410625,54
2021-12-24 15:53:26.410632,75
2021-12-24 15:53:26.410638,80
2021-12-24 15:53:26.410644,65
2021-12-24 15:53:26.410650,58
2021-12-24 15:53:26.410657,70
2021-12-24 15:53:26.410663,70
2021-12-24 15:53:26.410669,61
2021-12-24 15:53:26.410675,73
2021-12-24 15:53:26.410681,101
2021-12-24 15:53:26.410688,0
2021-12-24 15:53:26.410694,-428
2021-12-24 15:53:26.410700,-881
2021-12-24 15:53:26.410706,-612
2021-12-24 15:53:26.410713,228
2021-12-24 15:53:26.410719,475
2021-12-24 15:53:26.410725,110
2021-12-24 15:53:26.410731,65
2021-12-24 15:53:26.410737,190
2021-12-24 15:53:26.410743,101
2021-12-24 15:53:26.410750,65
2021-12-24 15:53:26.410756,108
2021-12-24 15:53:26.410762,80
2021-12-24 15:53:26.589869,63
2021-12-24 15:53:26.589890,77
2021-12-24 15:53:26.589898,68
2021-12-24 15:53:26.589904,47
2021-12-24 15:53:26.589911,40
2021-12-24 15:53:26.589917,28
2021-12-24 15:53:26.589923,11
2021-12-24 15:53:26.589929,-2
2021-12-24 15:53:26.589935,-9
2021-12-24 15:53:26.589941,-14
2021-12-24 15:53:26.589948,-35
2021-12-24 15:53:26.589954,-82
2021-12-24 15:53:26.589960,-124
2021-12-24 15:53:26.589966,-136
2021-12-24 15:53:26.589972,-150
2021-12-24 15:53:26.589978,-179
2021-12-24 15:53:26.589984,-190
2021-12-24 15:53:26.589991,-197
2021-12-24 15:53:26.589997,-204
2021-12-24 15:53:26.590003,-188
2021-12-24 15:53:26.590009,-162
2021-12-24 15:53:26.590015,-129
2021-12-24 15:53:26.590021,-73
2021-12-24 15:53:26.590027,-11
2021-12-24 15:53:26.590034,35
2021-12-24 15:53:26.590040,77
2021-12-24 15:53:26.590046,108
2021-12-24 15:53:26.590052,110
2021-12-24 15:53:26.590058,115
2021-12-24 15:53:26.590064,129
2021-12-24 15:53:26.860345,124
2021-12-24 15:53:26.860375,110
2021-12-24 15:53:26.860386,120
2021-12-24 15:53:26.860396,124
2021-12-24 15:53:26.860406,117
2021-12-24 15:53:26.860415,106
2021-12-24 15:53:26.860425,106
2021-12-24 15:53:26.860435,120
2021-12-24 15:53:26.860444,122
2021-12-24 15:53:26.860454,94
2021-12-24 15:53:26.860464,75
2021-12-24 15:53:26.860473,87
2021-12-24 15:53:26.860483,103
2021-12-24 15:53:26.860492,103
2021-12-24 15:53:26.860502,103
2021-12-24 15:53:26.860511,110
2021-12-24 15:53:26.860521,103
2021-12-24 15:53:26.860531,96
2021-12-24 15:53:26.860540,110
2021-12-24 15:53:26.860550,117
2021-12-24 15:53:26.860559,94
2021-12-24 15:53:26.860569,73
2021-12-24 15:53:26.860578,65
2021-12-24 15:53:26.860588,73
2021-12-24 15:53:26.860598,94
2021-12-24 15:53:26.860607,113
2021-12-24 15:53:26.860617,120
2021-12-24 15:53:26.860626,120
2021-12-24 15:53:26.860636,117
2021-12-24 15:53:26.860645,117
2021-12-24 15:53:27.174040,117
2021-12-24 15:53:27.174059,124
2021-12-24 15:53:27.174067,127
2021-12-24 15:53:27.174073,124
2021-12-24 15:53:27.174080,143
2021-12-24 15:53:27.174086,61
2021-12-24 15:53:27.174093,-358
2021-12-24 15:53:27.174099,-824
2021-12-24 15:53:27.174105,-563
2021-12-24 15:53:27.174112,263
2021-12-24 15:53:27.174118,501
2021-12-24 15:53:27.174125,150
2021-12-24 15:53:27.174131,120
2021-12-24 15:53:27.174137,249
2021-12-24 15:53:27.174144,155
2021-12-24 15:53:27.174150,110
2021-12-24 15:53:27.174157,169
2021-12-24 15:53:27.174163,157
2021-12-24 15:53:27.174169,127
2021-12-24 15:53:27.174176,139
2021-12-24 15:53:27.174211,136
2021-12-24 15:53:27.174219,115
2021-12-24 15:53:27.174225,106
2021-12-24 15:53:27.174232,106
2021-12-24 15:53:27.174238,96
2021-12-24 15:53:27.174245,65
2021-12-24 15:53:27.174251,42
2021-12-24 15:53:27.174258,35
2021-12-24 15:53:27.174264,21
2021-12-24 15:53:27.174271,0
2021-12-24 15:53:27.354887,-23
2021-12-24 15:53:27.354908,-49
2021-12-24 15:53:27.354916,-70
2021-12-24 15:53:27.354922,-87
2021-12-24 15:53:27.354929,-101
2021-12-24 15:53:27.354935,-98
2021-12-24 15:53:27.354942,-82
2021-12-24 15:53:27.354948,-77
2021-12-24 15:53:27.354954,-68
2021-12-24 15:53:27.354961,-23
2021-12-24 15:53:27.354967,35
2021-12-24 15:53:27.354973,82
2021-12-24 15:53:27.354980,136
2021-12-24 15:53:27.354986,181
2021-12-24 15:53:27.354993,186
2021-12-24 15:53:27.354999,179
2021-12-24 15:53:27.355006,186
2021-12-24 15:53:27.355012,195
2021-12-24 15:53:27.355018,197
2021-12-24 15:53:27.355025,188
2021-12-24 15:53:27.355031,169
2021-12-24 15:53:27.355037,160
2021-12-24 15:53:27.355044,164
2021-12-24 15:53:27.355050,169
2021-12-24 15:53:27.355056,162
2021-12-24 15:53:27.355063,150
2021-12-24 15:53:27.355069,148
2021-12-24 15:53:27.355075,153
2021-12-24 15:53:27.355082,150
2021-12-24 15:53:27.355088,150
2021-12-24 15:53:27.623573,155
2021-12-24 15:53:27.623603,143
2021-12-24 15:53:27.623614,131
2021-12-24 15:53:27.623624,148
2021-12-24 15:53:27.623634,167
2021-12-24 15:53:27.623644,164
2021-12-24 15:53:27.623653,155
2021-12-24 15:53:27.623663,157
2021-12-24 15:53:27.623672,141
2021-12-24 15:53:27.623682,113
2021-12-24 15:53:27.623691,113
2021-12-24 15:53:27.623701,139
2021-12-24 15:53:27.623710,146
2021-12-24 15:53:27.623720,139
2021-12-24 15:53:27.623730,146
2021-12-24 15:53:27.623739,155
2021-12-24 15:53:27.623749,150
2021-12-24 15:53:27.623758,148
2021-12-24 15:53:27.623768,146
2021-12-24 15:53:27.623777,141
2021-12-24 15:53:27.623787,139
2021-12-24 15:53:27.623797,150
2021-12-24 15:53:27.623806,190
2021-12-24 15:53:27.623816,127
2021-12-24 15:53:27.623825,-289
2021-12-24 15:53:27.623835,-834
2021-12-24 15:53:27.623845,-739
2021-12-24 15:53:27.623855,65
2021-12-24 15:53:27.623864,490
2021-12-24 15:53:27.623874,209
2021-12-24 15:53:27.805392,103
2021-12-24 15:53:27.805423,242
2021-12-24 15:53:27.805435,195
2021-12-24 15:53:27.805445,131
2021-12-24 15:53:27.805454,179
2021-12-24 15:53:27.805464,186
2021-12-24 15:53:27.805473,150
2021-12-24 15:53:27.805483,155
2021-12-24 15:53:27.805492,157
2021-12-24 15:53:27.805502,131
2021-12-24 15:53:27.805511,124
2021-12-24 15:53:27.805521,134
2021-12-24 15:53:27.805530,115
2021-12-24 15:53:27.805539,84
2021-12-24 15:53:27.805549,77
2021-12-24 15:53:27.805558,75
2021-12-24 15:53:27.805567,51
2021-12-24 15:53:27.805577,11
2021-12-24 15:53:27.805586,-18
2021-12-24 15:53:27.805596,-35
2021-12-24 15:53:27.805605,-58
2021-12-24 15:53:27.805614,-82
2021-12-24 15:53:27.805624,-82
2021-12-24 15:53:27.805633,-77
2021-12-24 15:53:27.805643,-82
2021-12-24 15:53:27.805652,-70
2021-12-24 15:53:27.805661,-44
2021-12-24 15:53:27.805671,-14
2021-12-24 15:53:27.805680,37
2021-12-24 15:53:27.805689,91
2021-12-24 15:53:27.984484,127
2021-12-24 15:53:27.984504,153
2021-12-24 15:53:27.984511,176
2021-12-24 15:53:27.984518,193
2021-12-24 15:53:27.984524,193
2021-12-24 15:53:27.984531,186
2021-12-24 15:53:27.984537,186
2021-12-24 15:53:27.984544,188
2021-12-24 15:53:27.984550,188
2021-12-24 15:53:27.984556,181
2021-12-24 15:53:27.984563,167
2021-12-24 15:53:27.984569,160
2021-12-24 15:53:27.984576,162
2021-12-24 15:53:27.984582,162
2021-12-24 15:53:27.984589,148
2021-12-24 15:53:27.984595,139
2021-12-24 15:53:27.984601,143
2021-12-24 15:53:27.984608,136
2021-12-24 15:53:27.984614,122
2021-12-24 15:53:27.984620,124
2021-12-24 15:53:27.984627,139
2021-12-24 15:53:27.984633,143
2021-12-24 15:53:27.984640,136
2021-12-24 15:53:27.984646,136
2021-12-24 15:53:27.984653,141
2021-12-24 15:53:27.984659,146
2021-12-24 15:53:27.984665,143
2021-12-24 15:53:27.984672,131
2021-12-24 15:53:27.984678,106
2021-12-24 15:53:27.984684,87
2021-12-24 15:53:28.254313,94
2021-12-24 15:53:28.254343,106
2021-12-24 15:53:28.254355,115
2021-12-24 15:53:28.254365,127
2021-12-24 15:53:28.254375,124
2021-12-24 15:53:28.254385,113
2021-12-24 15:53:28.254395,117
2021-12-24 15:53:28.254404,131
2021-12-24 15:53:28.254414,127
2021-12-24 15:53:28.254424,120
2021-12-24 15:53:28.254434,115
2021-12-24 15:53:28.254444,122
2021-12-24 15:53:28.254454,157
2021-12-24 15:53:28.254464,37
2021-12-24 15:53:28.254474,-461
2021-12-24 15:53:28.254483,-921
2021-12-24 15:53:28.254493,-591
2021-12-24 15:53:28.254503,223
2021-12-24 15:53:28.254513,428
2021-12-24 15:53:28.254523,139
2021-12-24 15:53:28.254533,139
2021-12-24 15:53:28.254542,245
2021-12-24 15:53:28.254552,169
2021-12-24 15:53:28.254579,141
2021-12-24 15:53:28.254589,183
2021-12-24 15:53:28.254599,174
2021-12-24 15:53:28.254608,153
2021-12-24 15:53:28.254618,153
2021-12-24 15:53:28.254628,146
2021-12-24 15:53:28.254638,139
2021-12-24 15:53:28.524579,134
2021-12-24 15:53:28.524609,115
2021-12-24 15:53:28.524621,96
2021-12-24 15:53:28.524630,91
2021-12-24 15:53:28.524640,75
2021-12-24 15:53:28.524649,47
2021-12-24 15:53:28.524659,28
2021-12-24 15:53:28.524668,11
2021-12-24 15:53:28.524677,-7
2021-12-24 15:53:28.524687,-32
2021-12-24 15:53:28.524696,-68
2021-12-24 15:53:28.524706,-84
2021-12-24 15:53:28.524715,-80
2021-12-24 15:53:28.524724,-75
2021-12-24 15:53:28.524734,-80
2021-12-24 15:53:28.524743,-82
2021-12-24 15:53:28.524753,-56
2021-12-24 15:53:28.524762,0
2021-12-24 15:53:28.524772,61
2021-12-24 15:53:28.524781,103
2021-12-24 15:53:28.524791,136
2021-12-24 15:53:28.524800,164
2021-12-24 15:53:28.524809,186
2021-12-24 15:53:28.524819,204
2021-12-24 15:53:28.524828,207
2021-12-24 15:53:28.524838,197
2021-12-24 15:53:28.524847,186
2021-12-24 15:53:28.524856,186
2021-12-24 15:53:28.524866,188
2021-12-24 15:53:28.524875,190
2021-12-24 15:53:28.928596,188
2021-12-24 15:53:28.928617,176
2021-12-24 15:53:28.928625,164
2021-12-24 15:53:28.928631,162
2021-12-24 15:53:28.928637,162
2021-12-24 15:53:28.928712,153
2021-12-24 15:53:28.928777,150
2021-12-24 15:53:28.928786,153
2021-12-24 15:53:28.928846,148
2021-12-24 15:53:28.928854,127
2021-12-24 15:53:28.928860,115
2021-12-24 15:53:28.928867,131
2021-12-24 15:53:28.928873,141
2021-12-24 15:53:28.928879,136
2021-12-24 15:53:28.928885,136
2021-12-24 15:53:28.928892,134
2021-12-24 15:53:28.928898,122
2021-12-24 15:53:28.928904,124
2021-12-24 15:53:28.928911,129
2021-12-24 15:53:28.928917,117
2021-12-24 15:53:28.928923,89
2021-12-24 15:53:28.928929,63
2021-12-24 15:53:28.928936,77
2021-12-24 15:53:28.928942,103
2021-12-24 15:53:28.928948,113
2021-12-24 15:53:28.928954,115
2021-12-24 15:53:28.928961,113
2021-12-24 15:53:28.928967,115
2021-12-24 15:53:28.928973,124
2021-12-24 15:53:28.928979,127
2021-12-24 15:53:29.019733,124
2021-12-24 15:53:29.019763,129
2021-12-24 15:53:29.019774,129
2021-12-24 15:53:29.019784,141
2021-12-24 15:53:29.019794,171
2021-12-24 15:53:29.019804,44
2021-12-24 15:53:29.019814,-419
2021-12-24 15:53:29.019824,-864
2021-12-24 15:53:29.019833,-588
2021-12-24 15:53:29.019843,179
2021-12-24 15:53:29.019853,407
2021-12-24 15:53:29.019868,150
2021-12-24 15:53:29.019878,143
2021-12-24 15:53:29.019887,219
2021-12-24 15:53:29.019897,136
2021-12-24 15:53:29.019907,122
2021-12-24 15:53:29.019916,162
2021-12-24 15:53:29.019926,148
2021-12-24 15:53:29.019936,146
2021-12-24 15:53:29.019945,150
2021-12-24 15:53:29.019955,124
2021-12-24 15:53:29.019965,101
2021-12-24 15:53:29.019975,77
2021-12-24 15:53:29.019984,56
2021-12-24 15:53:29.019994,56
2021-12-24 15:53:29.020004,56
2021-12-24 15:53:29.020013,37
2021-12-24 15:53:29.020023,11
2021-12-24 15:53:29.020033,-11
2021-12-24 15:53:29.020042,-25
2021-12-24 15:53:29.244925,-40
2021-12-24 15:53:29.244946,-80
2021-12-24 15:53:29.244953,-115
2021-12-24 15:53:29.244960,-120
2021-12-24 15:53:29.244966,-131
2021-12-24 15:53:29.244973,-160
2021-12-24 15:53:29.244979,-155
2021-12-24 15:53:29.244985,-131
2021-12-24 15:53:29.244992,-117
2021-12-24 15:53:29.244998,-82
2021-12-24 15:53:29.245004,-25
2021-12-24 15:53:29.245011,28
2021-12-24 15:53:29.245017,70
2021-12-24 15:53:29.245024,96
2021-12-24 15:53:29.245030,103
2021-12-24 15:53:29.245037,108
2021-12-24 15:53:29.245043,106
2021-12-24 15:53:29.245050,96
2021-12-24 15:53:29.245056,106
2021-12-24 15:53:29.245062,101
2021-12-24 15:53:29.245069,70
2021-12-24 15:53:29.245075,68
2021-12-24 15:53:29.245082,89
2021-12-24 15:53:29.245088,91
2021-12-24 15:53:29.245094,73
2021-12-24 15:53:29.245101,63
2021-12-24 15:53:29.245107,61
2021-12-24 15:53:29.245114,58
2021-12-24 15:53:29.245120,51
2021-12-24 15:53:29.245126,51
2021-12-24 15:53:29.514891,54
2021-12-24 15:53:29.514922,56
2021-12-24 15:53:29.514934,56
2021-12-24 15:53:29.514944,54
2021-12-24 15:53:29.514954,47
2021-12-24 15:53:29.514963,30
2021-12-24 15:53:29.514973,21
2021-12-24 15:53:29.514983,37
2021-12-24 15:53:29.514992,51
2021-12-24 15:53:29.515002,44
2021-12-24 15:53:29.515012,51
2021-12-24 15:53:29.515021,44
2021-12-24 15:53:29.515031,-21
2021-12-24 15:53:29.515041,-44
2021-12-24 15:53:29.515051,-7
2021-12-24 15:53:29.515060,7
2021-12-24 15:53:29.515070,14
2021-12-24 15:53:29.515079,28
2021-12-24 15:53:29.515089,35
2021-12-24 15:53:29.515099,49
2021-12-24 15:53:29.515108,75
2021-12-24 15:53:29.515118,77
2021-12-24 15:53:29.515127,30
2021-12-24 15:53:29.515137,14
2021-12-24 15:53:29.515146,40
2021-12-24 15:53:29.515156,51
2021-12-24 15:53:29.515166,25
2021-12-24 15:53:29.515175,-261
2021-12-24 15:53:29.515185,-803
2021-12-24 15:53:29.515195,-869
2021-12-24 15:53:29.693949,-98
2021-12-24 15:53:29.693979,485
2021-12-24 15:53:29.693991,207
2021-12-24 15:53:29.694001,-25
2021-12-24 15:53:29.694010,134
2021-12-24 15:53:29.694020,143
2021-12-24 15:53:29.694029,49
2021-12-24 15:53:29.694039,70
2021-12-24 15:53:29.694048,89
2021-12-24 15:53:29.694058,68
2021-12-24 15:53:29.694067,73
2021-12-24 15:53:29.694077,77
2021-12-24 15:53:29.694086,63
2021-12-24 15:53:29.694096,54
2021-12-24 15:53:29.694106,51
2021-12-24 15:53:29.694115,44
2021-12-24 15:53:29.694125,44
2021-12-24 15:53:29.694134,37
2021-12-24 15:53:29.694144,9
2021-12-24 15:53:29.694153,-25
2021-12-24 15:53:29.694163,-49
2021-12-24 15:53:29.694172,-65
2021-12-24 15:53:29.694182,-84
2021-12-24 15:53:29.694191,-106
2021-12-24 15:53:29.694201,-115
2021-12-24 15:53:29.694210,-120
2021-12-24 15:53:29.694219,-115
2021-12-24 15:53:29.694229,-101
