Time,ECG
2021-12-24 15:37:54.690421,188
2021-12-24 15:37:54.690436,181
2021-12-24 15:37:54.690442,179
2021-12-24 15:37:54.690446,176
2021-12-24 15:37:54.690451,174
2021-12-24 15:37:54.690455,169
2021-12-24 15:37:54.690459,160
2021-12-24 15:37:54.690464,153
2021-12-24 15:37:54.690481,150
2021-12-24 15:37:54.690486,150
2021-12-24 15:37:54.690490,148
2021-12-24 15:37:54.690494,150
2021-12-24 15:37:54.690498,148
2021-12-24 15:37:54.690502,146
2021-12-24 15:37:54.690506,148
2021-12-24 15:37:54.690510,150
2021-12-24 15:37:54.690514,150
2021-12-24 15:37:54.690518,150
2021-12-24 15:37:54.690522,146
2021-12-24 15:37:54.690526,143
2021-12-24 15:37:54.690530,146
2021-12-24 15:37:54.690534,150
2021-12-24 15:37:54.690538,155
2021-12-24 15:37:54.690542,153
2021-12-24 15:37:54.690546,136
2021-12-24 15:37:54.690550,115
2021-12-24 15:37:54.690554,108
2021-12-24 15:37:54.690558,117
2021-12-24 15:37:54.690562,124
2021-12-24 15:37:54.690566,134
2021-12-24 15:37:54.870692,148
2021-12-24 15:37:54.870712,153
2021-12-24 15:37:54.870720,150
2021-12-24 15:37:54.870726,148
2021-12-24 15:37:54.870733,148
2021-12-24 15:37:54.870739,143
2021-12-24 15:37:54.870747,136
2021-12-24 15:37:54.870753,150
2021-12-24 15:37:54.870759,174
2021-12-24 15:37:54.870766,37
2021-12-24 15:37:54.870772,-384
2021-12-24 15:37:54.870779,-713
2021-12-24 15:37:54.870785,-379
2021-12-24 15:37:54.870791,301
2021-12-24 15:37:54.870798,409
2021-12-24 15:37:54.870804,139
2021-12-24 15:37:54.870810,153
2021-12-24 15:37:54.870817,233
2021-12-24 15:37:54.870823,164
2021-12-24 15:37:54.870830,146
2021-12-24 15:37:54.870836,176
2021-12-24 15:37:54.870842,157
2021-12-24 15:37:54.870848,141
2021-12-24 15:37:54.870855,146
2021-12-24 15:37:54.870861,136
2021-12-24 15:37:54.870867,122
2021-12-24 15:37:54.870873,110
2021-12-24 15:37:54.870880,96
2021-12-24 15:37:54.870886,82
2021-12-24 15:37:54.870894,75
2021-12-24 15:37:55.141263,65
2021-12-24 15:37:55.141293,49
2021-12-24 15:37:55.141305,32
2021-12-24 15:37:55.141315,18
2021-12-24 15:37:55.141325,0
2021-12-24 15:37:55.141335,-23
2021-12-24 15:37:55.141345,-40
2021-12-24 15:37:55.141355,-47
2021-12-24 15:37:55.141365,-54
2021-12-24 15:37:55.141375,-61
2021-12-24 15:37:55.141385,-61
2021-12-24 15:37:55.141395,-58
2021-12-24 15:37:55.141404,-51
2021-12-24 15:37:55.141420,-32
2021-12-24 15:37:55.141430,0
2021-12-24 15:37:55.141440,40
2021-12-24 15:37:55.141450,75
2021-12-24 15:37:55.141460,101
2021-12-24 15:37:55.141470,124
2021-12-24 15:37:55.141480,134
2021-12-24 15:37:55.141489,136
2021-12-24 15:37:55.141499,136
2021-12-24 15:37:55.141509,131
2021-12-24 15:37:55.141519,124
2021-12-24 15:37:55.141529,122
2021-12-24 15:37:55.141538,120
2021-12-24 15:37:55.141548,113
2021-12-24 15:37:55.141558,101
2021-12-24 15:37:55.141568,98
2021-12-24 15:37:55.141580,98
2021-12-24 15:37:55.410962,94
2021-12-24 15:37:55.410991,89
2021-12-24 15:37:55.411003,89
2021-12-24 15:37:55.411013,89
2021-12-24 15:37:55.411023,87
2021-12-24 15:37:55.411033,89
2021-12-24 15:37:55.411042,94
2021-12-24 15:37:55.411052,89
2021-12-24 15:37:55.411062,89
2021-12-24 15:37:55.411071,91
2021-12-24 15:37:55.411081,82
2021-12-24 15:37:55.411091,80
2021-12-24 15:37:55.411101,87
2021-12-24 15:37:55.411110,94
2021-12-24 15:37:55.411120,91
2021-12-24 15:37:55.411130,73
2021-12-24 15:37:55.411139,47
2021-12-24 15:37:55.411155,44
2021-12-24 15:37:55.411165,56
2021-12-24 15:37:55.411175,65
2021-12-24 15:37:55.411185,75
2021-12-24 15:37:55.411194,84
2021-12-24 15:37:55.411204,91
2021-12-24 15:37:55.411214,96
2021-12-24 15:37:55.411223,101
2021-12-24 15:37:55.411233,101
2021-12-24 15:37:55.411243,98
2021-12-24 15:37:55.411253,94
2021-12-24 15:37:55.411263,98
2021-12-24 15:37:55.411272,129
2021-12-24 15:37:55.634971,32
2021-12-24 15:37:55.635001,-367
2021-12-24 15:37:55.635013,-751
2021-12-24 15:37:55.635023,-449
2021-12-24 15:37:55.635032,296
2021-12-24 15:37:55.635042,445
2021-12-24 15:37:55.635051,108
2021-12-24 15:37:55.635068,98
2021-12-24 15:37:55.635078,202
2021-12-24 15:37:55.635088,113
2021-12-24 15:37:55.635097,80
2021-12-24 15:37:55.635107,134
2021-12-24 15:37:55.635116,122
2021-12-24 15:37:55.635126,91
2021-12-24 15:37:55.635136,98
2021-12-24 15:37:55.635145,94
2021-12-24 15:37:55.635155,73
2021-12-24 15:37:55.635164,70
2021-12-24 15:37:55.635174,68
2021-12-24 15:37:55.635183,58
2021-12-24 15:37:55.635193,49
2021-12-24 15:37:55.635202,32
2021-12-24 15:37:55.635212,14
2021-12-24 15:37:55.635222,0
2021-12-24 15:37:55.635231,-14
2021-12-24 15:37:55.635241,-35
2021-12-24 15:37:55.635251,-58
2021-12-24 15:37:55.635261,-80
2021-12-24 15:37:55.635270,-89
2021-12-24 15:37:55.635281,-96
2021-12-24 15:37:55.860540,-98
2021-12-24 15:37:55.860560,-96
2021-12-24 15:37:55.860567,-89
2021-12-24 15:37:55.860572,-77
2021-12-24 15:37:55.860578,-51
2021-12-24 15:37:55.860583,-14
2021-12-24 15:37:55.860588,32
2021-12-24 15:37:55.860593,73
2021-12-24 15:37:55.860598,103
2021-12-24 15:37:55.860603,117
2021-12-24 15:37:55.860608,129
2021-12-24 15:37:55.860613,139
2021-12-24 15:37:55.860618,141
2021-12-24 15:37:55.860623,141
2021-12-24 15:37:55.860628,139
2021-12-24 15:37:55.860633,127
2021-12-24 15:37:55.860638,122
2021-12-24 15:37:55.860643,120
2021-12-24 15:37:55.860648,113
2021-12-24 15:37:55.860654,106
2021-12-24 15:37:55.860659,108
2021-12-24 15:37:55.860664,106
2021-12-24 15:37:55.860669,103
2021-12-24 15:37:55.860673,103
2021-12-24 15:37:55.860683,106
2021-12-24 15:37:55.860689,103
2021-12-24 15:37:55.860694,98
2021-12-24 15:37:55.860699,96
2021-12-24 15:37:55.860704,98
2021-12-24 15:37:55.860709,106
2021-12-24 15:37:56.040237,110
2021-12-24 15:37:56.040256,110
2021-12-24 15:37:56.040263,106
2021-12-24 15:37:56.040270,101
2021-12-24 15:37:56.040276,91
2021-12-24 15:37:56.040282,77
2021-12-24 15:37:56.040289,73
2021-12-24 15:37:56.040295,68
2021-12-24 15:37:56.040301,65
2021-12-24 15:37:56.040308,75
2021-12-24 15:37:56.040314,96
2021-12-24 15:37:56.040320,110
2021-12-24 15:37:56.040327,108
2021-12-24 15:37:56.040333,103
2021-12-24 15:37:56.040339,101
2021-12-24 15:37:56.040345,96
2021-12-24 15:37:56.040351,98
2021-12-24 15:37:56.040358,115
2021-12-24 15:37:56.040364,122
2021-12-24 15:37:56.040370,-73
2021-12-24 15:37:56.040376,-532
2021-12-24 15:37:56.040383,-732
2021-12-24 15:37:56.040390,-186
2021-12-24 15:37:56.040397,447
2021-12-24 15:37:56.040403,339
2021-12-24 15:37:56.040409,65
2021-12-24 15:37:56.040415,160
2021-12-24 15:37:56.040421,190
2021-12-24 15:37:56.040428,98
2021-12-24 15:37:56.040434,120
2021-12-24 15:37:56.354991,150
2021-12-24 15:37:56.355010,115
2021-12-24 15:37:56.355018,103
2021-12-24 15:37:56.355025,115
2021-12-24 15:37:56.355031,103
2021-12-24 15:37:56.355038,91
2021-12-24 15:37:56.355044,89
2021-12-24 15:37:56.355050,77
2021-12-24 15:37:56.355057,63
2021-12-24 15:37:56.355063,51
2021-12-24 15:37:56.355069,37
2021-12-24 15:37:56.355075,25
2021-12-24 15:37:56.355082,9
2021-12-24 15:37:56.355088,-16
2021-12-24 15:37:56.355094,-35
2021-12-24 15:37:56.355100,-49
2021-12-24 15:37:56.355107,-68
2021-12-24 15:37:56.355113,-80
2021-12-24 15:37:56.355119,-80
2021-12-24 15:37:56.355125,-80
2021-12-24 15:37:56.355132,-80
2021-12-24 15:37:56.355138,-73
2021-12-24 15:37:56.355144,-54
2021-12-24 15:37:56.355151,-23
2021-12-24 15:37:56.355161,14
2021-12-24 15:37:56.355167,58
2021-12-24 15:37:56.355174,101
2021-12-24 15:37:56.355180,127
2021-12-24 15:37:56.355186,139
2021-12-24 15:37:56.355193,146
2021-12-24 15:37:56.535503,150
2021-12-24 15:37:56.535521,150
2021-12-24 15:37:56.535528,153
2021-12-24 15:37:56.535533,150
2021-12-24 15:37:56.535538,143
2021-12-24 15:37:56.535543,136
2021-12-24 15:37:56.535548,122
2021-12-24 15:37:56.535553,113
2021-12-24 15:37:56.535558,117
2021-12-24 15:37:56.535563,122
2021-12-24 15:37:56.535569,117
2021-12-24 15:37:56.535574,110
2021-12-24 15:37:56.535579,106
2021-12-24 15:37:56.535584,103
2021-12-24 15:37:56.535589,98
2021-12-24 15:37:56.535594,96
2021-12-24 15:37:56.535599,101
2021-12-24 15:37:56.535604,101
2021-12-24 15:37:56.535609,101
2021-12-24 15:37:56.535614,106
2021-12-24 15:37:56.535619,106
2021-12-24 15:37:56.535625,108
2021-12-24 15:37:56.535630,113
2021-12-24 15:37:56.535635,117
2021-12-24 15:37:56.535640,103
2021-12-24 15:37:56.535645,84
2021-12-24 15:37:56.535650,80
2021-12-24 15:37:56.535655,89
2021-12-24 15:37:56.535660,101
2021-12-24 15:37:56.535665,110
2021-12-24 15:37:56.805322,122
2021-12-24 15:37:56.805342,134
2021-12-24 15:37:56.805349,136
2021-12-24 15:37:56.805354,134
2021-12-24 15:37:56.805359,134
2021-12-24 15:37:56.805365,129
2021-12-24 15:37:56.805370,122
2021-12-24 15:37:56.805375,134
2021-12-24 15:37:56.805380,167
2021-12-24 15:37:56.805385,70
2021-12-24 15:37:56.805391,-327
2021-12-24 15:37:56.805396,-723
2021-12-24 15:37:56.805401,-480
2021-12-24 15:37:56.805406,230
2021-12-24 15:37:56.805411,442
2021-12-24 15:37:56.805416,162
2021-12-24 15:37:56.805422,131
2021-12-24 15:37:56.805427,228
2021-12-24 15:37:56.805432,160
2021-12-24 15:37:56.805437,129
2021-12-24 15:37:56.805443,169
2021-12-24 15:37:56.805448,155
2021-12-24 15:37:56.805453,131
2021-12-24 15:37:56.805458,139
2021-12-24 15:37:56.805463,136
2021-12-24 15:37:56.805468,124
2021-12-24 15:37:56.805473,117
2021-12-24 15:37:56.805478,113
2021-12-24 15:37:56.805483,106
2021-12-24 15:37:56.805488,96
2021-12-24 15:37:56.985272,84
2021-12-24 15:37:56.985294,73
2021-12-24 15:37:56.985302,63
2021-12-24 15:37:56.985308,49
2021-12-24 15:37:56.985315,28
2021-12-24 15:37:56.985321,7
2021-12-24 15:37:56.985328,-9
2021-12-24 15:37:56.985334,-16
2021-12-24 15:37:56.985341,-21
2021-12-24 15:37:56.985347,-25
2021-12-24 15:37:56.985358,-23
2021-12-24 15:37:56.985364,-16
2021-12-24 15:37:56.985371,0
2021-12-24 15:37:56.985377,16
2021-12-24 15:37:56.985384,44
2021-12-24 15:37:56.985390,84
2021-12-24 15:37:56.985397,120
2021-12-24 15:37:56.985403,150
2021-12-24 15:37:56.985409,169
2021-12-24 15:37:56.985416,176
2021-12-24 15:37:56.985422,179
2021-12-24 15:37:56.985429,179
2021-12-24 15:37:56.985435,171
2021-12-24 15:37:56.985442,162
2021-12-24 15:37:56.985448,160
2021-12-24 15:37:56.985455,160
2021-12-24 15:37:56.985461,155
2021-12-24 15:37:56.985467,153
2021-12-24 15:37:56.985474,150
2021-12-24 15:37:56.985480,153
2021-12-24 15:37:57.166156,155
2021-12-24 15:37:57.166186,155
2021-12-24 15:37:57.166197,155
2021-12-24 15:37:57.166207,155
2021-12-24 15:37:57.166216,150
2021-12-24 15:37:57.166226,146
2021-12-24 15:37:57.166236,150
2021-12-24 15:37:57.166245,155
2021-12-24 15:37:57.166255,155
2021-12-24 15:37:57.166265,153
2021-12-24 15:37:57.166274,143
2021-12-24 15:37:57.166284,141
2021-12-24 15:37:57.166293,148
2021-12-24 15:37:57.166303,160
2021-12-24 15:37:57.166312,157
2021-12-24 15:37:57.166322,146
2021-12-24 15:37:57.166331,127
2021-12-24 15:37:57.166340,108
2021-12-24 15:37:57.166350,110
2021-12-24 15:37:57.166359,122
2021-12-24 15:37:57.166369,134
2021-12-24 15:37:57.166378,143
2021-12-24 15:37:57.166388,153
2021-12-24 15:37:57.166397,157
2021-12-24 15:37:57.166407,153
2021-12-24 15:37:57.166422,153
2021-12-24 15:37:57.166431,155
2021-12-24 15:37:57.166441,153
2021-12-24 15:37:57.166450,150
2021-12-24 15:37:57.166460,179
2021-12-24 15:37:57.526276,148
2021-12-24 15:37:57.526305,-146
2021-12-24 15:37:57.526317,-591
2021-12-24 15:37:57.526327,-598
2021-12-24 15:37:57.526337,28
2021-12-24 15:37:57.526347,461
2021-12-24 15:37:57.526356,266
2021-12-24 15:37:57.526366,120
2021-12-24 15:37:57.526375,223
2021-12-24 15:37:57.526385,204
2021-12-24 15:37:57.526395,141
2021-12-24 15:37:57.526404,171
2021-12-24 15:37:57.526414,179
2021-12-24 15:37:57.526423,150
2021-12-24 15:37:57.526433,150
2021-12-24 15:37:57.526442,148
2021-12-24 15:37:57.526452,136
2021-12-24 15:37:57.526462,134
2021-12-24 15:37:57.526471,129
2021-12-24 15:37:57.526481,113
2021-12-24 15:37:57.526491,98
2021-12-24 15:37:57.526500,89
2021-12-24 15:37:57.526510,77
2021-12-24 15:37:57.526519,63
2021-12-24 15:37:57.526529,54
2021-12-24 15:37:57.526538,35
2021-12-24 15:37:57.526548,9
2021-12-24 15:37:57.526558,-14
2021-12-24 15:37:57.526567,-21
2021-12-24 15:37:57.526577,-28
2021-12-24 15:37:57.749537,-32
2021-12-24 15:37:57.749558,-32
2021-12-24 15:37:57.749566,-28
2021-12-24 15:37:57.749573,-25
2021-12-24 15:37:57.749580,-11
2021-12-24 15:37:57.749586,21
2021-12-24 15:37:57.749593,61
2021-12-24 15:37:57.749599,94
2021-12-24 15:37:57.749606,120
2021-12-24 15:37:57.749612,141
2021-12-24 15:37:57.749618,155
2021-12-24 15:37:57.749625,162
2021-12-24 15:37:57.749631,164
2021-12-24 15:37:57.749638,164
2021-12-24 15:37:57.749644,153
2021-12-24 15:37:57.749651,139
2021-12-24 15:37:57.749661,134
2021-12-24 15:37:57.749667,134
2021-12-24 15:37:57.749674,127
2021-12-24 15:37:57.749680,122
2021-12-24 15:37:57.749686,120
2021-12-24 15:37:57.749693,117
2021-12-24 15:37:57.749699,115
2021-12-24 15:37:57.749705,113
2021-12-24 15:37:57.749712,113
2021-12-24 15:37:57.749719,110
2021-12-24 15:37:57.749725,103
2021-12-24 15:37:57.749732,98
2021-12-24 15:37:57.749738,98
2021-12-24 15:37:57.749744,98
2021-12-24 15:37:57.885888,98
2021-12-24 15:37:57.885908,94
2021-12-24 15:37:57.885935,91
2021-12-24 15:37:57.885945,91
2021-12-24 15:37:57.885968,89
2021-12-24 15:37:57.885974,89
2021-12-24 15:37:57.885980,94
2021-12-24 15:37:57.885987,80
2021-12-24 15:37:57.885993,51
2021-12-24 15:37:57.885999,35
2021-12-24 15:37:57.886006,40
2021-12-24 15:37:57.886012,51
2021-12-24 15:37:57.886018,58
2021-12-24 15:37:57.886024,61
2021-12-24 15:37:57.886031,63
2021-12-24 15:37:57.886037,61
2021-12-24 15:37:57.886043,61
2021-12-24 15:37:57.886050,63
2021-12-24 15:37:57.886056,61
2021-12-24 15:37:57.886062,47
2021-12-24 15:37:57.886069,40
2021-12-24 15:37:57.886075,65
2021-12-24 15:37:57.886081,25
2021-12-24 15:37:57.886088,-292
2021-12-24 15:37:57.886094,-723
2021-12-24 15:37:57.886100,-647
2021-12-24 15:37:57.886107,30
2021-12-24 15:37:57.886113,391
2021-12-24 15:37:57.886120,124
2021-12-24 15:37:57.886126,4
2021-12-24 15:37:58.155516,117
2021-12-24 15:37:58.155546,77
2021-12-24 15:37:58.155558,16
2021-12-24 15:37:58.155568,51
2021-12-24 15:37:58.155578,51
2021-12-24 15:37:58.155588,21
2021-12-24 15:37:58.155598,21
2021-12-24 15:37:58.155607,23
2021-12-24 15:37:58.155617,2
2021-12-24 15:37:58.155627,-4
2021-12-24 15:37:58.155637,-4
2021-12-24 15:37:58.155647,-11
2021-12-24 15:37:58.155657,-30
2021-12-24 15:37:58.155674,-42
2021-12-24 15:37:58.155684,-49
2021-12-24 15:37:58.155694,-65
2021-12-24 15:37:58.155704,-82
2021-12-24 15:37:58.155714,-96
2021-12-24 15:37:58.155723,-110
2021-12-24 15:37:58.155733,-127
2021-12-24 15:37:58.155743,-136
2021-12-24 15:37:58.155753,-148
2021-12-24 15:37:58.155763,-150
2021-12-24 15:37:58.155773,-141
2021-12-24 15:37:58.155783,-134
2021-12-24 15:37:58.155793,-134
2021-12-24 15:37:58.155802,-120
2021-12-24 15:37:58.155812,-84
2021-12-24 15:37:58.155822,-47
2021-12-24 15:37:58.155832,-4
2021-12-24 15:37:58.336177,32
2021-12-24 15:37:58.336207,51
2021-12-24 15:37:58.336218,63
2021-12-24 15:37:58.336228,75
2021-12-24 15:37:58.336238,84
2021-12-24 15:37:58.336248,82
2021-12-24 15:37:58.336258,75
2021-12-24 15:37:58.336267,68
2021-12-24 15:37:58.336278,58
2021-12-24 15:37:58.336287,54
2021-12-24 15:37:58.336297,51
2021-12-24 15:37:58.336307,44
2021-12-24 15:37:58.336317,35
2021-12-24 15:37:58.336326,37
2021-12-24 15:37:58.336336,42
2021-12-24 15:37:58.336346,37
2021-12-24 15:37:58.336356,32
2021-12-24 15:37:58.336365,37
2021-12-24 15:37:58.336375,37
2021-12-24 15:37:58.336385,35
2021-12-24 15:37:58.336395,40
2021-12-24 15:37:58.336405,47
2021-12-24 15:37:58.336414,42
2021-12-24 15:37:58.336424,42
2021-12-24 15:37:58.336434,49
2021-12-24 15:37:58.336444,51
2021-12-24 15:37:58.336454,40
2021-12-24 15:37:58.336463,18
2021-12-24 15:37:58.336473,9
2021-12-24 15:37:58.336483,11
2021-12-24 15:37:58.560882,18
2021-12-24 15:37:58.560911,28
2021-12-24 15:37:58.560922,40
2021-12-24 15:37:58.560932,49
2021-12-24 15:37:58.560942,56
2021-12-24 15:37:58.560951,51
2021-12-24 15:37:58.560961,40
2021-12-24 15:37:58.560970,37
2021-12-24 15:37:58.560980,40
2021-12-24 15:37:58.560989,37
2021-12-24 15:37:58.560999,51
2021-12-24 15:37:58.561009,49
2021-12-24 15:37:58.561018,-174
2021-12-24 15:37:58.561028,-626
2021-12-24 15:37:58.561038,-753
2021-12-24 15:37:58.561047,-146
2021-12-24 15:37:58.561057,438
2021-12-24 15:37:58.561071,256
2021-12-24 15:37:58.561081,4
2021-12-24 15:37:58.561091,122
2021-12-24 15:37:58.561101,134
2021-12-24 15:37:58.561110,40
2021-12-24 15:37:58.561120,68
2021-12-24 15:37:58.561130,96
2021-12-24 15:37:58.561139,63
2021-12-24 15:37:58.561149,58
2021-12-24 15:37:58.561159,68
2021-12-24 15:37:58.561168,56
2021-12-24 15:37:58.561178,44
2021-12-24 15:37:58.561188,37
2021-12-24 15:37:58.830728,32
2021-12-24 15:37:58.830758,30
2021-12-24 15:37:58.830769,21
2021-12-24 15:37:58.830779,4
2021-12-24 15:37:58.830789,-11
2021-12-24 15:37:58.830798,-32
2021-12-24 15:37:58.830808,-51
2021-12-24 15:37:58.830818,-65
2021-12-24 15:37:58.830828,-87
2021-12-24 15:37:58.830838,-108
2021-12-24 15:37:58.830847,-117
2021-12-24 15:37:58.830857,-124
2021-12-24 15:37:58.830866,-122
2021-12-24 15:37:58.830881,-113
2021-12-24 15:37:58.830891,-98
2021-12-24 15:37:58.830901,-84
2021-12-24 15:37:58.830910,-54
2021-12-24 15:37:58.830920,-7
2021-12-24 15:37:58.830930,37
2021-12-24 15:37:58.830940,75
2021-12-24 15:37:58.830949,98
2021-12-24 15:37:58.830959,115
2021-12-24 15:37:58.830969,127
2021-12-24 15:37:58.830978,131
2021-12-24 15:37:58.830988,131
2021-12-24 15:37:58.830997,127
2021-12-24 15:37:58.831007,127
2021-12-24 15:37:58.831017,122
2021-12-24 15:37:58.831026,115
2021-12-24 15:37:58.831036,110
2021-12-24 15:37:59.101210,106
2021-12-24 15:37:59.101265,98
2021-12-24 15:37:59.101280,89
2021-12-24 15:37:59.101287,84
2021-12-24 15:37:59.101293,80
2021-12-24 15:37:59.101300,77
2021-12-24 15:37:59.101306,77
2021-12-24 15:37:59.101312,80
2021-12-24 15:37:59.101318,80
2021-12-24 15:37:59.101324,75
2021-12-24 15:37:59.101331,70
2021-12-24 15:37:59.101337,70
2021-12-24 15:37:59.101343,70
2021-12-24 15:37:59.101349,65
2021-12-24 15:37:59.101355,63
2021-12-24 15:37:59.101361,65
2021-12-24 15:37:59.101367,61
2021-12-24 15:37:59.101374,51
2021-12-24 15:37:59.101380,40
2021-12-24 15:37:59.101386,35
2021-12-24 15:37:59.101392,40
2021-12-24 15:37:59.101398,47
2021-12-24 15:37:59.101404,58
2021-12-24 15:37:59.101410,73
2021-12-24 15:37:59.101416,84
2021-12-24 15:37:59.101423,89
2021-12-24 15:37:59.101429,84
2021-12-24 15:37:59.101435,82
2021-12-24 15:37:59.101441,80
2021-12-24 15:37:59.101450,80
2021-12-24 15:37:59.325429,91
2021-12-24 15:37:59.325451,120
2021-12-24 15:37:59.325459,14
2021-12-24 15:37:59.325465,-388
2021-12-24 15:37:59.325472,-751
2021-12-24 15:37:59.325478,-449
2021-12-24 15:37:59.325484,266
2021-12-24 15:37:59.325491,417
2021-12-24 15:37:59.325497,113
2021-12-24 15:37:59.325504,98
2021-12-24 15:37:59.325510,195
2021-12-24 15:37:59.325516,124
2021-12-24 15:37:59.325523,101
2021-12-24 15:37:59.325529,139
2021-12-24 15:37:59.325536,124
2021-12-24 15:37:59.325542,103
2021-12-24 15:37:59.325548,106
2021-12-24 15:37:59.325554,101
2021-12-24 15:37:59.325561,91
2021-12-24 15:37:59.325567,89
2021-12-24 15:37:59.325573,77
2021-12-24 15:37:59.325580,61
2021-12-24 15:37:59.325586,56
2021-12-24 15:37:59.325593,54
2021-12-24 15:37:59.325599,35
2021-12-24 15:37:59.325605,21
2021-12-24 15:37:59.325612,9
2021-12-24 15:37:59.325618,-4
2021-12-24 15:37:59.325624,-23
2021-12-24 15:37:59.325630,-42
2021-12-24 15:37:59.551349,-56
2021-12-24 15:37:59.551380,-63
2021-12-24 15:37:59.551391,-65
2021-12-24 15:37:59.551401,-63
2021-12-24 15:37:59.551410,-61
2021-12-24 15:37:59.551420,-51
2021-12-24 15:37:59.551429,-30
2021-12-24 15:37:59.551438,7
2021-12-24 15:37:59.551481,44
2021-12-24 15:37:59.551491,75
2021-12-24 15:37:59.551500,103
2021-12-24 15:37:59.551510,124
2021-12-24 15:37:59.551519,136
2021-12-24 15:37:59.551529,146
2021-12-24 15:37:59.551538,143
2021-12-24 15:37:59.551548,136
2021-12-24 15:37:59.551557,136
2021-12-24 15:37:59.551567,134
2021-12-24 15:37:59.551576,120
2021-12-24 15:37:59.551586,108
2021-12-24 15:37:59.551595,101
2021-12-24 15:37:59.551605,94
2021-12-24 15:37:59.551614,94
2021-12-24 15:37:59.551624,98
2021-12-24 15:37:59.551633,101
2021-12-24 15:37:59.551643,98
2021-12-24 15:37:59.551652,98
2021-12-24 15:37:59.551662,101
2021-12-24 15:37:59.551671,103
2021-12-24 15:37:59.551681,106
2021-12-24 15:37:59.865045,113
2021-12-24 15:37:59.865075,110
2021-12-24 15:37:59.865087,108
2021-12-24 15:37:59.865097,110
2021-12-24 15:37:59.865107,115
2021-12-24 15:37:59.865116,117
2021-12-24 15:37:59.865126,120
2021-12-24 15:37:59.865136,120
2021-12-24 15:37:59.865146,117
2021-12-24 15:37:59.865155,103
2021-12-24 15:37:59.865165,89
2021-12-24 15:37:59.865175,87
2021-12-24 15:37:59.865184,96
2021-12-24 15:37:59.865194,101
2021-12-24 15:37:59.865203,101
2021-12-24 15:37:59.865213,113
2021-12-24 15:37:59.865223,127
2021-12-24 15:37:59.865232,124
2021-12-24 15:37:59.865242,122
2021-12-24 15:37:59.865252,122
2021-12-24 15:37:59.865269,120
2021-12-24 15:37:59.865279,115
2021-12-24 15:37:59.865289,129
2021-12-24 15:37:59.865299,155
2021-12-24 15:37:59.865309,11
2021-12-24 15:37:59.865319,-412
2021-12-24 15:37:59.865329,-713
2021-12-24 15:37:59.865339,-341
2021-12-24 15:37:59.865349,318
2021-12-24 15:37:59.865359,393
2021-12-24 15:37:59.955805,131
2021-12-24 15:37:59.955833,153
2021-12-24 15:37:59.955844,223
2021-12-24 15:37:59.955854,153
2021-12-24 15:37:59.955864,141
2021-12-24 15:37:59.955874,174
2021-12-24 15:37:59.955883,153
2021-12-24 15:37:59.955893,136
2021-12-24 15:37:59.955902,146
2021-12-24 15:37:59.955912,136
2021-12-24 15:37:59.955921,120
2021-12-24 15:37:59.955931,120
2021-12-24 15:37:59.955940,113
2021-12-24 15:37:59.955950,101
2021-12-24 15:37:59.955959,94
2021-12-24 15:37:59.955969,87
2021-12-24 15:37:59.955978,70
2021-12-24 15:37:59.955988,54
2021-12-24 15:37:59.955997,37
2021-12-24 15:37:59.956007,21
2021-12-24 15:37:59.956016,2
2021-12-24 15:37:59.956026,-14
2021-12-24 15:37:59.956036,-30
2021-12-24 15:37:59.956045,-40
2021-12-24 15:37:59.956055,-42
2021-12-24 15:37:59.956064,-44
2021-12-24 15:37:59.956074,-40
2021-12-24 15:37:59.956083,-25
2021-12-24 15:37:59.956093,-4
2021-12-24 15:37:59.956102,30
2021-12-24 15:38:00.226329,70
2021-12-24 15:38:00.226352,103
2021-12-24 15:38:00.226359,131
2021-12-24 15:38:00.226366,150
2021-12-24 15:38:00.226373,162
2021-12-24 15:38:00.226379,169
2021-12-24 15:38:00.226385,169
2021-12-24 15:38:00.226392,167
2021-12-24 15:38:00.226398,160
2021-12-24 15:38:00.226404,150
2021-12-24 15:38:00.226411,146
2021-12-24 15:38:00.226417,139
2021-12-24 15:38:00.226424,127
2021-12-24 15:38:00.226430,124
2021-12-24 15:38:00.226437,129
2021-12-24 15:38:00.226443,129
2021-12-24 15:38:00.226450,131
2021-12-24 15:38:00.226456,131
2021-12-24 15:38:00.226463,129
2021-12-24 15:38:00.226469,131
2021-12-24 15:38:00.226475,136
2021-12-24 15:38:00.226482,139
2021-12-24 15:38:00.226488,139
2021-12-24 15:38:00.226495,139
2021-12-24 15:38:00.226501,141
2021-12-24 15:38:00.226508,143
2021-12-24 15:38:00.226514,146
2021-12-24 15:38:00.226520,146
2021-12-24 15:38:00.226527,148
2021-12-24 15:38:00.226533,155
2021-12-24 15:38:00.451232,155
2021-12-24 15:38:00.451262,141
2021-12-24 15:38:00.451274,124
2021-12-24 15:38:00.451284,120
2021-12-24 15:38:00.451294,124
2021-12-24 15:38:00.451303,136
2021-12-24 15:38:00.451313,143
2021-12-24 15:38:00.451323,155
2021-12-24 15:38:00.451333,164
2021-12-24 15:38:00.451342,162
2021-12-24 15:38:00.451352,155
2021-12-24 15:38:00.451362,153
2021-12-24 15:38:00.451372,148
2021-12-24 15:38:00.451381,146
2021-12-24 15:38:00.451391,153
2021-12-24 15:38:00.451401,171
2021-12-24 15:38:00.451411,61
2021-12-24 15:38:00.451421,-325
2021-12-24 15:38:00.451431,-662
2021-12-24 15:38:00.451440,-376
2021-12-24 15:38:00.451450,268
2021-12-24 15:38:00.451460,402
2021-12-24 15:38:00.451474,150
2021-12-24 15:38:00.451484,148
2021-12-24 15:38:00.451494,226
2021-12-24 15:38:00.451504,169
2021-12-24 15:38:00.451514,150
2021-12-24 15:38:00.451524,181
2021-12-24 15:38:00.451533,164
2021-12-24 15:38:00.451543,141
2021-12-24 15:38:00.630877,139
2021-12-24 15:38:00.630907,129
2021-12-24 15:38:00.630918,122
2021-12-24 15:38:00.630928,120
2021-12-24 15:38:00.630938,106
2021-12-24 15:38:00.630948,87
2021-12-24 15:38:00.630957,80
2021-12-24 15:38:00.630967,75
2021-12-24 15:38:00.630977,63
2021-12-24 15:38:00.630986,44
2021-12-24 15:38:00.630996,28
2021-12-24 15:38:00.631006,14
2021-12-24 15:38:00.631016,-2
2021-12-24 15:38:00.631025,-21
2021-12-24 15:38:00.631035,-35
2021-12-24 15:38:00.631045,-47
2021-12-24 15:38:00.631055,-56
2021-12-24 15:38:00.631064,-51
2021-12-24 15:38:00.631074,-44
2021-12-24 15:38:00.631084,-40
2021-12-24 15:38:00.631093,-18
2021-12-24 15:38:00.631103,16
2021-12-24 15:38:00.631113,51
2021-12-24 15:38:00.631122,89
2021-12-24 15:38:00.631132,115
2021-12-24 15:38:00.631142,131
2021-12-24 15:38:00.631151,146
2021-12-24 15:38:00.631161,150
2021-12-24 15:38:00.631170,148
2021-12-24 15:38:00.631180,143
2021-12-24 15:38:00.856131,139
2021-12-24 15:38:00.856162,136
2021-12-24 15:38:00.856174,129
2021-12-24 15:38:00.856184,117
2021-12-24 15:38:00.856194,106
2021-12-24 15:38:00.856204,101
2021-12-24 15:38:00.856214,101
2021-12-24 15:38:00.856224,106
2021-12-24 15:38:00.856234,106
2021-12-24 15:38:00.856243,98
2021-12-24 15:38:00.856253,94
2021-12-24 15:38:00.856263,94
2021-12-24 15:38:00.856273,94
2021-12-24 15:38:00.856283,96
2021-12-24 15:38:00.856293,96
2021-12-24 15:38:00.856302,91
2021-12-24 15:38:00.856312,87
2021-12-24 15:38:00.856322,82
2021-12-24 15:38:00.856332,77
2021-12-24 15:38:00.856341,80
2021-12-24 15:38:00.856351,87
2021-12-24 15:38:00.856361,82
2021-12-24 15:38:00.856371,68
2021-12-24 15:38:00.856380,54
2021-12-24 15:38:00.856390,42
2021-12-24 15:38:00.856400,42
2021-12-24 15:38:00.856409,54
2021-12-24 15:38:00.856419,58
2021-12-24 15:38:00.856429,63
2021-12-24 15:38:00.856439,80
2021-12-24 15:38:01.126196,87
2021-12-24 15:38:01.126227,82
2021-12-24 15:38:01.126239,80
2021-12-24 15:38:01.126249,70
2021-12-24 15:38:01.126259,58
2021-12-24 15:38:01.126269,63
2021-12-24 15:38:01.126279,89
2021-12-24 15:38:01.126289,30
2021-12-24 15:38:01.126299,-299
2021-12-24 15:38:01.126309,-720
2021-12-24 15:38:01.126319,-603
2021-12-24 15:38:01.126329,84
2021-12-24 15:38:01.126338,391
2021-12-24 15:38:01.126348,115
2021-12-24 15:38:01.126358,23
2021-12-24 15:38:01.126368,131
2021-12-24 15:38:01.126378,87
2021-12-24 15:38:01.126387,44
2021-12-24 15:38:01.126397,80
2021-12-24 15:38:01.126407,73
2021-12-24 15:38:01.126417,47
2021-12-24 15:38:01.126427,49
2021-12-24 15:38:01.126436,44
2021-12-24 15:38:01.126446,32
2021-12-24 15:38:01.126456,25
2021-12-24 15:38:01.126466,21
2021-12-24 15:38:01.126476,9
2021-12-24 15:38:01.126486,0
2021-12-24 15:38:01.126496,-9
2021-12-24 15:38:01.126505,-21
2021-12-24 15:38:01.396267,-35
2021-12-24 15:38:01.396297,-54
2021-12-24 15:38:01.396308,-77
2021-12-24 15:38:01.396319,-96
2021-12-24 15:38:01.396328,-113
2021-12-24 15:38:01.396343,-127
2021-12-24 15:38:01.396352,-139
2021-12-24 15:38:01.396362,-139
2021-12-24 15:38:01.396371,-141
2021-12-24 15:38:01.396381,-146
2021-12-24 15:38:01.396390,-139
2021-12-24 15:38:01.396400,-120
2021-12-24 15:38:01.396409,-84
2021-12-24 15:38:01.396419,-37
2021-12-24 15:38:01.396429,0
2021-12-24 15:38:01.396438,25
2021-12-24 15:38:01.396448,54
2021-12-24 15:38:01.396458,75
2021-12-24 15:38:01.396467,82
2021-12-24 15:38:01.396477,84
2021-12-24 15:38:01.396486,82
2021-12-24 15:38:01.396496,73
2021-12-24 15:38:01.396505,61
2021-12-24 15:38:01.396515,56
2021-12-24 15:38:01.396524,56
2021-12-24 15:38:01.396534,54
2021-12-24 15:38:01.396543,47
2021-12-24 15:38:01.396553,42
2021-12-24 15:38:01.396562,42
2021-12-24 15:38:01.396572,44
2021-12-24 15:38:01.575746,42
2021-12-24 15:38:01.575775,42
2021-12-24 15:38:01.575787,42
2021-12-24 15:38:01.575797,40
2021-12-24 15:38:01.575807,42
2021-12-24 15:38:01.575817,49
2021-12-24 15:38:01.575827,47
2021-12-24 15:38:01.575837,42
2021-12-24 15:38:01.575847,42
2021-12-24 15:38:01.575857,44
2021-12-24 15:38:01.575867,42
2021-12-24 15:38:01.575877,21
2021-12-24 15:38:01.575887,0
2021-12-24 15:38:01.575897,0
2021-12-24 15:38:01.575907,9
2021-12-24 15:38:01.575917,18
2021-12-24 15:38:01.575927,30
2021-12-24 15:38:01.575937,47
2021-12-24 15:38:01.575947,54
2021-12-24 15:38:01.575957,49
2021-12-24 15:38:01.575967,47
2021-12-24 15:38:01.575977,47
2021-12-24 15:38:01.575987,44
2021-12-24 15:38:01.575997,37
2021-12-24 15:38:01.576007,58
2021-12-24 15:38:01.576016,70
2021-12-24 15:38:01.576026,-134
2021-12-24 15:38:01.576037,-607
2021-12-24 15:38:01.576046,-812
2021-12-24 15:38:01.576056,-245
2021-12-24 15:38:01.934680,421
2021-12-24 15:38:01.934709,308
2021-12-24 15:38:01.934721,21
2021-12-24 15:38:01.934731,117
2021-12-24 15:38:01.934741,160
2021-12-24 15:38:01.934750,70
2021-12-24 15:38:01.934760,80
2021-12-24 15:38:01.934770,103
2021-12-24 15:38:01.934779,75
2021-12-24 15:38:01.934789,70
2021-12-24 15:38:01.934799,80
2021-12-24 15:38:01.934808,70
2021-12-24 15:38:01.934818,58
2021-12-24 15:38:01.934827,54
2021-12-24 15:38:01.934837,44
2021-12-24 15:38:01.934847,37
2021-12-24 15:38:01.934856,30
2021-12-24 15:38:01.934866,18
2021-12-24 15:38:01.934875,2
2021-12-24 15:38:01.934885,-14
2021-12-24 15:38:01.934894,-30
2021-12-24 15:38:01.934904,-47
2021-12-24 15:38:01.934914,-61
2021-12-24 15:38:01.934923,-82
2021-12-24 15:38:01.934933,-103
2021-12-24 15:38:01.934942,-108
2021-12-24 15:38:01.934952,-106
2021-12-24 15:38:01.934961,-106
2021-12-24 15:38:01.934971,-96
2021-12-24 15:38:01.934980,-70
2021-12-24 15:38:02.071005,-35
2021-12-24 15:38:02.071035,11
2021-12-24 15:38:02.071047,61
2021-12-24 15:38:02.071057,101
2021-12-24 15:38:02.071067,131
2021-12-24 15:38:02.071077,148
2021-12-24 15:38:02.071086,150
2021-12-24 15:38:02.071096,155
2021-12-24 15:38:02.071105,164
2021-12-24 15:38:02.071115,160
2021-12-24 15:38:02.071125,155
2021-12-24 15:38:02.071134,153
2021-12-24 15:38:02.071144,139
2021-12-24 15:38:02.071154,122
2021-12-24 15:38:02.071163,122
2021-12-24 15:38:02.071173,124
2021-12-24 15:38:02.071183,117
2021-12-24 15:38:02.071192,106
2021-12-24 15:38:02.071202,101
2021-12-24 15:38:02.071211,101
2021-12-24 15:38:02.071221,103
2021-12-24 15:38:02.071230,106
2021-12-24 15:38:02.071240,106
2021-12-24 15:38:02.071250,106
2021-12-24 15:38:02.071259,106
2021-12-24 15:38:02.071269,113
2021-12-24 15:38:02.071279,120
2021-12-24 15:38:02.071288,120
2021-12-24 15:38:02.071298,108
2021-12-24 15:38:02.071308,94
2021-12-24 15:38:02.251039,80
2021-12-24 15:38:02.251074,75
2021-12-24 15:38:02.251086,84
2021-12-24 15:38:02.251096,96
2021-12-24 15:38:02.251106,108
2021-12-24 15:38:02.251116,117
2021-12-24 15:38:02.251125,127
2021-12-24 15:38:02.251135,129
2021-12-24 15:38:02.251145,129
2021-12-24 15:38:02.251155,131
2021-12-24 15:38:02.251165,134
2021-12-24 15:38:02.251174,124
2021-12-24 15:38:02.251184,129
2021-12-24 15:38:02.251194,155
2021-12-24 15:38:02.251203,37
2021-12-24 15:38:02.251213,-395
2021-12-24 15:38:02.251223,-765
2021-12-24 15:38:02.251233,-414
2021-12-24 15:38:02.251242,334
2021-12-24 15:38:02.251252,457
2021-12-24 15:38:02.251262,139
2021-12-24 15:38:02.251272,146
2021-12-24 15:38:02.251282,235
2021-12-24 15:38:02.251291,153
2021-12-24 15:38:02.251301,139
2021-12-24 15:38:02.251311,181
2021-12-24 15:38:02.251321,157
2021-12-24 15:38:02.251330,141
2021-12-24 15:38:02.251340,155
2021-12-24 15:38:02.251350,146
2021-12-24 15:38:02.475917,122
2021-12-24 15:38:02.475946,117
2021-12-24 15:38:02.475958,115
2021-12-24 15:38:02.475968,108
2021-12-24 15:38:02.475978,96
2021-12-24 15:38:02.475987,80
2021-12-24 15:38:02.475997,65
2021-12-24 15:38:02.476006,51
2021-12-24 15:38:02.476016,35
2021-12-24 15:38:02.476026,14
2021-12-24 15:38:02.476035,-11
2021-12-24 15:38:02.476045,-37
2021-12-24 15:38:02.476055,-54
2021-12-24 15:38:02.476064,-58
2021-12-24 15:38:02.476074,-61
2021-12-24 15:38:02.476083,-63
2021-12-24 15:38:02.476093,-58
2021-12-24 15:38:02.476103,-40
2021-12-24 15:38:02.476112,-9
2021-12-24 15:38:02.476122,37
2021-12-24 15:38:02.476132,84
2021-12-24 15:38:02.476141,122
2021-12-24 15:38:02.476151,150
2021-12-24 15:38:02.476160,167
2021-12-24 15:38:02.476170,171
2021-12-24 15:38:02.476179,176
2021-12-24 15:38:02.476189,181
2021-12-24 15:38:02.476198,179
2021-12-24 15:38:02.476208,174
2021-12-24 15:38:02.476218,169
2021-12-24 15:38:02.790168,167
2021-12-24 15:38:02.790190,157
2021-12-24 15:38:02.790198,143
2021-12-24 15:38:02.790204,136
2021-12-24 15:38:02.790211,127
2021-12-24 15:38:02.790217,127
2021-12-24 15:38:02.790224,134
2021-12-24 15:38:02.790230,129
2021-12-24 15:38:02.790237,124
2021-12-24 15:38:02.790243,127
2021-12-24 15:38:02.790249,122
2021-12-24 15:38:02.790255,124
2021-12-24 15:38:02.790261,129
2021-12-24 15:38:02.790268,124
2021-12-24 15:38:02.790274,120
2021-12-24 15:38:02.790280,129
2021-12-24 15:38:02.790287,131
2021-12-24 15:38:02.790293,122
2021-12-24 15:38:02.790299,106
2021-12-24 15:38:02.790306,82
2021-12-24 15:38:02.790312,73
2021-12-24 15:38:02.790318,77
2021-12-24 15:38:02.790324,87
2021-12-24 15:38:02.790330,91
2021-12-24 15:38:02.790337,101
2021-12-24 15:38:02.790343,113
2021-12-24 15:38:02.790349,113
2021-12-24 15:38:02.790355,108
2021-12-24 15:38:02.790362,108
2021-12-24 15:38:02.790368,108
2021-12-24 15:38:03.060515,101
2021-12-24 15:38:03.060545,106
2021-12-24 15:38:03.060556,136
2021-12-24 15:38:03.060567,58
2021-12-24 15:38:03.060577,-341
2021-12-24 15:38:03.060586,-784
2021-12-24 15:38:03.060596,-586
2021-12-24 15:38:03.060606,157
2021-12-24 15:38:03.060616,435
2021-12-24 15:38:03.060626,143
2021-12-24 15:38:03.060636,82
2021-12-24 15:38:03.060646,197
2021-12-24 15:38:03.060656,139
2021-12-24 15:38:03.060666,98
2021-12-24 15:38:03.060675,134
2021-12-24 15:38:03.060685,117
2021-12-24 15:38:03.060695,94
2021-12-24 15:38:03.060705,103
2021-12-24 15:38:03.060715,101
2021-12-24 15:38:03.060724,82
2021-12-24 15:38:03.060734,75
2021-12-24 15:38:03.060744,68
2021-12-24 15:38:03.060753,58
2021-12-24 15:38:03.060763,51
2021-12-24 15:38:03.060773,40
2021-12-24 15:38:03.060782,28
2021-12-24 15:38:03.060792,14
2021-12-24 15:38:03.060802,-7
2021-12-24 15:38:03.060812,-32
2021-12-24 15:38:03.060821,-58
2021-12-24 15:38:03.241177,-82
2021-12-24 15:38:03.241207,-98
2021-12-24 15:38:03.241219,-110
2021-12-24 15:38:03.241230,-115
2021-12-24 15:38:03.241240,-115
2021-12-24 15:38:03.241249,-108
2021-12-24 15:38:03.241259,-98
2021-12-24 15:38:03.241269,-75
2021-12-24 15:38:03.241279,-37
2021-12-24 15:38:03.241288,7
2021-12-24 15:38:03.241298,49
2021-12-24 15:38:03.241313,80
2021-12-24 15:38:03.241323,98
2021-12-24 15:38:03.241333,106
2021-12-24 15:38:03.241343,103
2021-12-24 15:38:03.241352,101
2021-12-24 15:38:03.241362,101
2021-12-24 15:38:03.241372,101
2021-12-24 15:38:03.241382,98
2021-12-24 15:38:03.241392,96
2021-12-24 15:38:03.241401,91
2021-12-24 15:38:03.241411,87
2021-12-24 15:38:03.241421,84
2021-12-24 15:38:03.241430,75
2021-12-24 15:38:03.241440,68
2021-12-24 15:38:03.241450,63
2021-12-24 15:38:03.241460,54
2021-12-24 15:38:03.241469,49
2021-12-24 15:38:03.241479,51
2021-12-24 15:38:03.241489,51
2021-12-24 15:38:03.510860,47
2021-12-24 15:38:03.510890,49
2021-12-24 15:38:03.510902,47
2021-12-24 15:38:03.510912,42
2021-12-24 15:38:03.510922,42
2021-12-24 15:38:03.510931,44
2021-12-24 15:38:03.510941,44
2021-12-24 15:38:03.510951,44
2021-12-24 15:38:03.510960,42
2021-12-24 15:38:03.510970,25
2021-12-24 15:38:03.510979,7
2021-12-24 15:38:03.510989,2
2021-12-24 15:38:03.510998,9
2021-12-24 15:38:03.511008,16
2021-12-24 15:38:03.511017,21
2021-12-24 15:38:03.511027,35
2021-12-24 15:38:03.511036,51
2021-12-24 15:38:03.511046,54
2021-12-24 15:38:03.511056,44
2021-12-24 15:38:03.511065,40
2021-12-24 15:38:03.511075,42
2021-12-24 15:38:03.511084,40
2021-12-24 15:38:03.511094,42
2021-12-24 15:38:03.511103,73
2021-12-24 15:38:03.511113,56
2021-12-24 15:38:03.511122,-219
2021-12-24 15:38:03.511132,-678
2021-12-24 15:38:03.511142,-753
2021-12-24 15:38:03.511151,-155
2021-12-24 15:38:03.511161,353
2021-12-24 15:38:03.690695,202
2021-12-24 15:38:03.690725,28
2021-12-24 15:38:03.690737,134
2021-12-24 15:38:03.690747,136
2021-12-24 15:38:03.690757,65
2021-12-24 15:38:03.690767,80
2021-12-24 15:38:03.690777,89
2021-12-24 15:38:03.690787,63
2021-12-24 15:38:03.690797,61
2021-12-24 15:38:03.690806,63
2021-12-24 15:38:03.690816,49
2021-12-24 15:38:03.690826,40
2021-12-24 15:38:03.690836,40
2021-12-24 15:38:03.690845,30
2021-12-24 15:38:03.690855,16
2021-12-24 15:38:03.690865,9
2021-12-24 15:38:03.690875,0
2021-12-24 15:38:03.690884,-14
2021-12-24 15:38:03.690894,-25
2021-12-24 15:38:03.690904,-44
2021-12-24 15:38:03.690914,-63
2021-12-24 15:38:03.690924,-82
2021-12-24 15:38:03.690934,-96
2021-12-24 15:38:03.690943,-108
2021-12-24 15:38:03.690953,-117
2021-12-24 15:38:03.690963,-122
2021-12-24 15:38:03.690973,-113
2021-12-24 15:38:03.690982,-103
2021-12-24 15:38:03.690992,-89
2021-12-24 15:38:03.691002,-54
2021-12-24 15:38:03.914630,-4
2021-12-24 15:38:03.914661,40
2021-12-24 15:38:03.914673,65
2021-12-24 15:38:03.914683,87
2021-12-24 15:38:03.914693,101
2021-12-24 15:38:03.914703,101
2021-12-24 15:38:03.914713,96
2021-12-24 15:38:03.914722,96
2021-12-24 15:38:03.914732,96
2021-12-24 15:38:03.914742,96
2021-12-24 15:38:03.914752,94
2021-12-24 15:38:03.914761,91
2021-12-24 15:38:03.914771,89
2021-12-24 15:38:03.914781,89
2021-12-24 15:38:03.914791,89
2021-12-24 15:38:03.914800,87
2021-12-24 15:38:03.914810,82
2021-12-24 15:38:03.914820,80
2021-12-24 15:38:03.914830,73
2021-12-24 15:38:03.914840,68
2021-12-24 15:38:03.914849,68
2021-12-24 15:38:03.914859,65
2021-12-24 15:38:03.914869,65
2021-12-24 15:38:03.914878,68
2021-12-24 15:38:03.914888,65
2021-12-24 15:38:03.914898,65
2021-12-24 15:38:03.914908,68
2021-12-24 15:38:03.914918,65
2021-12-24 15:38:03.914927,65
2021-12-24 15:38:03.914937,65
2021-12-24 15:38:04.185614,68
2021-12-24 15:38:04.185637,75
2021-12-24 15:38:04.185644,77
2021-12-24 15:38:04.185651,70
2021-12-24 15:38:04.185657,51
2021-12-24 15:38:04.185663,28
2021-12-24 15:38:04.185670,21
2021-12-24 15:38:04.185676,32
2021-12-24 15:38:04.185683,40
2021-12-24 15:38:04.185689,44
2021-12-24 15:38:04.185695,51
2021-12-24 15:38:04.185701,51
2021-12-24 15:38:04.185708,47
2021-12-24 15:38:04.185714,47
2021-12-24 15:38:04.185720,44
2021-12-24 15:38:04.185726,37
2021-12-24 15:38:04.185733,37
2021-12-24 15:38:04.185739,47
2021-12-24 15:38:04.185745,70
2021-12-24 15:38:04.185751,32
2021-12-24 15:38:04.185758,-259
2021-12-24 15:38:04.185764,-685
2021-12-24 15:38:04.185770,-678
2021-12-24 15:38:04.185776,-77
2021-12-24 15:38:04.185783,339
2021-12-24 15:38:04.185789,171
2021-12-24 15:38:04.185795,44
2021-12-24 15:38:04.185802,143
2021-12-24 15:38:04.185808,131
2021-12-24 15:38:04.185814,84
2021-12-24 15:38:04.410476,115
2021-12-24 15:38:04.410506,124
2021-12-24 15:38:04.410517,103
2021-12-24 15:38:04.410527,106
2021-12-24 15:38:04.410537,103
2021-12-24 15:38:04.410547,89
2021-12-24 15:38:04.410557,87
2021-12-24 15:38:04.410566,87
2021-12-24 15:38:04.410584,77
2021-12-24 15:38:04.410594,65
2021-12-24 15:38:04.410604,54
2021-12-24 15:38:04.410614,42
2021-12-24 15:38:04.410624,32
2021-12-24 15:38:04.410633,21
2021-12-24 15:38:04.410643,4
2021-12-24 15:38:04.410653,-16
2021-12-24 15:38:04.410663,-35
2021-12-24 15:38:04.410672,-49
2021-12-24 15:38:04.410682,-56
2021-12-24 15:38:04.410692,-58
2021-12-24 15:38:04.410702,-58
2021-12-24 15:38:04.410711,-58
2021-12-24 15:38:04.410721,-56
2021-12-24 15:38:04.410730,-37
2021-12-24 15:38:04.410740,0
2021-12-24 15:38:04.410750,42
2021-12-24 15:38:04.410760,75
2021-12-24 15:38:04.410769,101
2021-12-24 15:38:04.410779,127
2021-12-24 15:38:04.410789,146
2021-12-24 15:38:04.545497,155
2021-12-24 15:38:04.545527,153
2021-12-24 15:38:04.545539,148
2021-12-24 15:38:04.545549,143
2021-12-24 15:38:04.545559,141
2021-12-24 15:38:04.545569,134
2021-12-24 15:38:04.545579,127
2021-12-24 15:38:04.545589,122
2021-12-24 15:38:04.545598,115
2021-12-24 15:38:04.545608,101
2021-12-24 15:38:04.545618,87
2021-12-24 15:38:04.545628,82
2021-12-24 15:38:04.545637,84
2021-12-24 15:38:04.545648,82
2021-12-24 15:38:04.545657,75
2021-12-24 15:38:04.545667,68
2021-12-24 15:38:04.545677,65
2021-12-24 15:38:04.545687,65
2021-12-24 15:38:04.545696,58
2021-12-24 15:38:04.545706,56
2021-12-24 15:38:04.545715,58
2021-12-24 15:38:04.545725,54
2021-12-24 15:38:04.545735,47
2021-12-24 15:38:04.545745,49
2021-12-24 15:38:04.545754,54
2021-12-24 15:38:04.545764,56
2021-12-24 15:38:04.545774,54
2021-12-24 15:38:04.545784,42
2021-12-24 15:38:04.545793,18
2021-12-24 15:38:04.545803,2
2021-12-24 15:38:04.859862,4
2021-12-24 15:38:04.859880,14
2021-12-24 15:38:04.859888,23
2021-12-24 15:38:04.859895,32
2021-12-24 15:38:04.859901,32
2021-12-24 15:38:04.859907,32
2021-12-24 15:38:04.859914,37
2021-12-24 15:38:04.859920,40
2021-12-24 15:38:04.859926,35
2021-12-24 15:38:04.859933,25
2021-12-24 15:38:04.859939,18
2021-12-24 15:38:04.859945,28
2021-12-24 15:38:04.859952,56
2021-12-24 15:38:04.859958,-77
2021-12-24 15:38:04.859964,-511
2021-12-24 15:38:04.859971,-822
2021-12-24 15:38:04.859977,-426
2021-12-24 15:38:04.859984,237
2021-12-24 15:38:04.859990,268
2021-12-24 15:38:04.859996,-4
2021-12-24 15:38:04.860003,37
2021-12-24 15:38:04.860009,98
2021-12-24 15:38:04.860016,21
2021-12-24 15:38:04.860022,18
2021-12-24 15:38:04.860028,47
2021-12-24 15:38:04.860034,21
2021-12-24 15:38:04.860041,11
2021-12-24 15:38:04.860047,25
2021-12-24 15:38:04.860053,18
2021-12-24 15:38:04.860060,9
2021-12-24 15:38:05.039973,14
2021-12-24 15:38:05.039994,9
2021-12-24 15:38:05.040003,-9
2021-12-24 15:38:05.040009,-25
2021-12-24 15:38:05.040016,-30
2021-12-24 15:38:05.040022,-47
2021-12-24 15:38:05.040028,-68
2021-12-24 15:38:05.040034,-77
2021-12-24 15:38:05.040041,-98
2021-12-24 15:38:05.040047,-124
2021-12-24 15:38:05.040053,-136
2021-12-24 15:38:05.040060,-148
2021-12-24 15:38:05.040066,-162
2021-12-24 15:38:05.040072,-176
2021-12-24 15:38:05.040079,-186
2021-12-24 15:38:05.040085,-186
2021-12-24 15:38:05.040091,-169
2021-12-24 15:38:05.040097,-139
2021-12-24 15:38:05.040104,-98
2021-12-24 15:38:05.040110,-51
2021-12-24 15:38:05.040116,-11
2021-12-24 15:38:05.040154,11
2021-12-24 15:38:05.040161,28
2021-12-24 15:38:05.040167,44
2021-12-24 15:38:05.040173,56
2021-12-24 15:38:05.040180,49
2021-12-24 15:38:05.040186,40
2021-12-24 15:38:05.040192,42
2021-12-24 15:38:05.040199,44
2021-12-24 15:38:05.040205,37
2021-12-24 15:38:05.266143,32
2021-12-24 15:38:05.266173,35
2021-12-24 15:38:05.266185,37
2021-12-24 15:38:05.266195,35
2021-12-24 15:38:05.266205,40
2021-12-24 15:38:05.266214,47
2021-12-24 15:38:05.266224,47
2021-12-24 15:38:05.266233,40
2021-12-24 15:38:05.266243,35
2021-12-24 15:38:05.266253,40
2021-12-24 15:38:05.266263,49
2021-12-24 15:38:05.266272,54
2021-12-24 15:38:05.266282,51
2021-12-24 15:38:05.266292,49
2021-12-24 15:38:05.266301,47
2021-12-24 15:38:05.266311,40
2021-12-24 15:38:05.266321,23
2021-12-24 15:38:05.266330,16
2021-12-24 15:38:05.266340,23
2021-12-24 15:38:05.266350,35
2021-12-24 15:38:05.266359,44
2021-12-24 15:38:05.266369,49
2021-12-24 15:38:05.266379,61
2021-12-24 15:38:05.266388,68
2021-12-24 15:38:05.266398,65
2021-12-24 15:38:05.266408,58
2021-12-24 15:38:05.266417,61
2021-12-24 15:38:05.266427,63
2021-12-24 15:38:05.266437,61
2021-12-24 15:38:05.266446,73
2021-12-24 15:38:05.490524,89
2021-12-24 15:38:05.490555,-70
2021-12-24 15:38:05.490566,-501
2021-12-24 15:38:05.490577,-744
2021-12-24 15:38:05.490586,-249
2021-12-24 15:38:05.490596,431
2021-12-24 15:38:05.490606,365
2021-12-24 15:38:05.490616,44
2021-12-24 15:38:05.490625,120
2021-12-24 15:38:05.490635,176
2021-12-24 15:38:05.490644,77
2021-12-24 15:38:05.490654,89
2021-12-24 15:38:05.490664,127
2021-12-24 15:38:05.490673,94
2021-12-24 15:38:05.490683,89
2021-12-24 15:38:05.490693,113
2021-12-24 15:38:05.490702,101
2021-12-24 15:38:05.490712,89
2021-12-24 15:38:05.490721,96
2021-12-24 15:38:05.490731,94
2021-12-24 15:38:05.490740,87
2021-12-24 15:38:05.490750,80
2021-12-24 15:38:05.490759,73
2021-12-24 15:38:05.490781,73
2021-12-24 15:38:05.490791,77
2021-12-24 15:38:05.490801,61
2021-12-24 15:38:05.490810,9
2021-12-24 15:38:05.490820,-28
2021-12-24 15:38:05.490830,-37
2021-12-24 15:38:05.490840,-49
2021-12-24 15:38:05.760102,-51
2021-12-24 15:38:05.760132,-37
2021-12-24 15:38:05.760143,-40
2021-12-24 15:38:05.760154,-40
2021-12-24 15:38:05.760164,7
2021-12-24 15:38:05.760174,61
2021-12-24 15:38:05.760183,89
2021-12-24 15:38:05.760193,136
2021-12-24 15:38:05.760203,193
2021-12-24 15:38:05.760213,216
2021-12-24 15:38:05.760223,226
2021-12-24 15:38:05.760232,226
2021-12-24 15:38:05.760242,237
2021-12-24 15:38:05.760252,259
2021-12-24 15:38:05.760262,247
2021-12-24 15:38:05.760272,233
2021-12-24 15:38:05.760281,249
2021-12-24 15:38:05.760291,256
2021-12-24 15:38:05.760301,233
2021-12-24 15:38:05.760311,204
2021-12-24 15:38:05.760321,202
2021-12-24 15:38:05.760331,209
2021-12-24 15:38:05.760340,221
2021-12-24 15:38:05.760350,245
2021-12-24 15:38:05.760360,242
2021-12-24 15:38:05.760370,223
2021-12-24 15:38:05.760380,221
2021-12-24 15:38:05.760389,221
2021-12-24 15:38:05.760399,207
2021-12-24 15:38:05.760409,186
2021-12-24 15:38:06.029340,188
2021-12-24 15:38:06.029370,204
2021-12-24 15:38:06.029378,207
2021-12-24 15:38:06.029384,216
2021-12-24 15:38:06.029391,223
2021-12-24 15:38:06.029397,200
2021-12-24 15:38:06.029403,174
2021-12-24 15:38:06.029410,153
2021-12-24 15:38:06.029416,134
2021-12-24 15:38:06.029422,141
2021-12-24 15:38:06.029428,162
2021-12-24 15:38:06.029435,164
2021-12-24 15:38:06.029441,167
2021-12-24 15:38:06.029447,190
2021-12-24 15:38:06.029454,195
2021-12-24 15:38:06.029460,176
2021-12-24 15:38:06.029466,171
2021-12-24 15:38:06.029473,179
2021-12-24 15:38:06.029479,179
2021-12-24 15:38:06.029485,188
2021-12-24 15:38:06.029492,193
2021-12-24 15:38:06.029498,84
2021-12-24 15:38:06.029504,-263
2021-12-24 15:38:06.029511,-619
2021-12-24 15:38:06.029517,-381
2021-12-24 15:38:06.029523,278
2021-12-24 15:38:06.029530,431
2021-12-24 15:38:06.029536,179
2021-12-24 15:38:06.029542,181
2021-12-24 15:38:06.029549,256
2021-12-24 15:38:06.165935,207
2021-12-24 15:38:06.165966,212
2021-12-24 15:38:06.165978,221
2021-12-24 15:38:06.165988,179
2021-12-24 15:38:06.165998,162
2021-12-24 15:38:06.166008,167
2021-12-24 15:38:06.166018,176
2021-12-24 15:38:06.166028,181
2021-12-24 15:38:06.166038,162
2021-12-24 15:38:06.166047,160
2021-12-24 15:38:06.166057,153
2021-12-24 15:38:06.166067,108
2021-12-24 15:38:06.166077,91
2021-12-24 15:38:06.166087,127
2021-12-24 15:38:06.166097,127
2021-12-24 15:38:06.166106,73
2021-12-24 15:38:06.166116,54
2021-12-24 15:38:06.166126,51
2021-12-24 15:38:06.166135,9
2021-12-24 15:38:06.166145,-9
2021-12-24 15:38:06.166155,-7
2021-12-24 15:38:06.166165,-7
2021-12-24 15:38:06.166174,7
2021-12-24 15:38:06.166184,0
2021-12-24 15:38:06.166194,-21
2021-12-24 15:38:06.166204,-11
2021-12-24 15:38:06.166214,21
2021-12-24 15:38:06.166223,61
2021-12-24 15:38:06.166233,117
2021-12-24 15:38:06.166243,162
2021-12-24 15:38:06.480557,181
2021-12-24 15:38:06.480587,197
2021-12-24 15:38:06.480599,174
2021-12-24 15:38:06.480609,127
2021-12-24 15:38:06.480618,129
2021-12-24 15:38:06.480628,141
2021-12-24 15:38:06.480638,122
2021-12-24 15:38:06.480648,124
2021-12-24 15:38:06.480658,129
2021-12-24 15:38:06.480667,108
2021-12-24 15:38:06.480677,87
2021-12-24 15:38:06.480687,73
2021-12-24 15:38:06.480696,87
2021-12-24 15:38:06.480706,120
2021-12-24 15:38:06.480716,115
2021-12-24 15:38:06.480725,96
2021-12-24 15:38:06.480735,110
2021-12-24 15:38:06.480745,117
2021-12-24 15:38:06.480754,106
2021-12-24 15:38:06.480764,94
2021-12-24 15:38:06.480774,91
2021-12-24 15:38:06.480783,117
2021-12-24 15:38:06.480793,131
2021-12-24 15:38:06.480802,120
2021-12-24 15:38:06.480812,120
2021-12-24 15:38:06.480822,108
2021-12-24 15:38:06.480832,65
2021-12-24 15:38:06.480842,42
2021-12-24 15:38:06.480852,63
2021-12-24 15:38:06.480861,98
2021-12-24 15:38:06.660256,101
2021-12-24 15:38:06.660279,96
2021-12-24 15:38:06.660287,127
2021-12-24 15:38:06.660294,134
2021-12-24 15:38:06.660300,122
2021-12-24 15:38:06.660306,113
2021-12-24 15:38:06.660312,82
2021-12-24 15:38:06.660319,65
2021-12-24 15:38:06.660325,96
2021-12-24 15:38:06.660331,124
2021-12-24 15:38:06.660338,23
2021-12-24 15:38:06.660344,-343
2021-12-24 15:38:06.660350,-706
2021-12-24 15:38:06.660357,-461
2021-12-24 15:38:06.660363,190
2021-12-24 15:38:06.660369,346
2021-12-24 15:38:06.660376,77
2021-12-24 15:38:06.660382,58
2021-12-24 15:38:06.660388,148
2021-12-24 15:38:06.660394,89
2021-12-24 15:38:06.660401,61
2021-12-24 15:38:06.660407,82
2021-12-24 15:38:06.660413,68
2021-12-24 15:38:06.660420,56
2021-12-24 15:38:06.660426,63
2021-12-24 15:38:06.660432,73
2021-12-24 15:38:06.660438,87
2021-12-24 15:38:06.660445,91
2021-12-24 15:38:06.660451,70
2021-12-24 15:38:06.660457,40
2021-12-24 15:38:06.975591,28
2021-12-24 15:38:06.975621,25
2021-12-24 15:38:06.975633,25
2021-12-24 15:38:06.975643,18
2021-12-24 15:38:06.975653,-16
2021-12-24 15:38:06.975663,-54
2021-12-24 15:38:06.975673,-73
2021-12-24 15:38:06.975682,-101
2021-12-24 15:38:06.975692,-110
2021-12-24 15:38:06.975702,-103
2021-12-24 15:38:06.975712,-94
2021-12-24 15:38:06.975721,-89
2021-12-24 15:38:06.975731,-94
2021-12-24 15:38:06.975741,-103
2021-12-24 15:38:06.975751,-103
2021-12-24 15:38:06.975760,-63
2021-12-24 15:38:06.975770,21
2021-12-24 15:38:06.975780,73
2021-12-24 15:38:06.975789,49
2021-12-24 15:38:06.975799,42
2021-12-24 15:38:06.975809,68
2021-12-24 15:38:06.975818,65
2021-12-24 15:38:06.975828,51
2021-12-24 15:38:06.975837,58
2021-12-24 15:38:06.975847,77
2021-12-24 15:38:06.975857,58
2021-12-24 15:38:06.975866,14
2021-12-24 15:38:06.975876,21
2021-12-24 15:38:06.975886,40
2021-12-24 15:38:06.975901,21
2021-12-24 15:38:07.110811,0
2021-12-24 15:38:07.110832,-2
2021-12-24 15:38:07.110840,-4
2021-12-24 15:38:07.110847,-2
2021-12-24 15:38:07.110854,4
2021-12-24 15:38:07.110860,9
2021-12-24 15:38:07.110866,21
2021-12-24 15:38:07.110873,28
2021-12-24 15:38:07.110879,18
2021-12-24 15:38:07.110886,18
2021-12-24 15:38:07.110892,25
2021-12-24 15:38:07.110898,23
2021-12-24 15:38:07.110905,7
2021-12-24 15:38:07.110911,7
2021-12-24 15:38:07.110918,-2
2021-12-24 15:38:07.110924,-25
2021-12-24 15:38:07.110930,0
2021-12-24 15:38:07.110937,25
2021-12-24 15:38:07.110943,18
2021-12-24 15:38:07.110950,61
2021-12-24 15:38:07.110956,101
2021-12-24 15:38:07.110962,63
2021-12-24 15:38:07.110969,32
2021-12-24 15:38:07.110975,32
2021-12-24 15:38:07.110981,18
2021-12-24 15:38:07.110988,11
2021-12-24 15:38:07.110994,47
2021-12-24 15:38:07.111000,113
2021-12-24 15:38:07.111007,28
2021-12-24 15:38:07.111013,-393
2021-12-24 15:38:07.426233,-824
2021-12-24 15:38:07.426263,-574
2021-12-24 15:38:07.426275,174
2021-12-24 15:38:07.426285,376
2021-12-24 15:38:07.426295,63
2021-12-24 15:38:07.426305,28
2021-12-24 15:38:07.426315,124
2021-12-24 15:38:07.426325,77
2021-12-24 15:38:07.426334,70
2021-12-24 15:38:07.426344,70
2021-12-24 15:38:07.426354,16
2021-12-24 15:38:07.426364,23
2021-12-24 15:38:07.426373,51
2021-12-24 15:38:07.426383,28
2021-12-24 15:38:07.426393,21
2021-12-24 15:38:07.426403,37
2021-12-24 15:38:07.426413,0
2021-12-24 15:38:07.426422,-30
2021-12-24 15:38:07.426432,-21
2021-12-24 15:38:07.426442,-49
2021-12-24 15:38:07.426452,-70
2021-12-24 15:38:07.426462,-49
2021-12-24 15:38:07.426471,-73
2021-12-24 15:38:07.426481,-134
2021-12-24 15:38:07.426491,-155
2021-12-24 15:38:07.426500,-169
2021-12-24 15:38:07.426510,-193
2021-12-24 15:38:07.426520,-193
2021-12-24 15:38:07.426530,-193
2021-12-24 15:38:07.426540,-207
2021-12-24 15:38:07.560798,-223
2021-12-24 15:38:07.560828,-209
2021-12-24 15:38:07.560839,-157
2021-12-24 15:38:07.560850,-103
2021-12-24 15:38:07.560860,-80
2021-12-24 15:38:07.560870,-58
2021-12-24 15:38:07.560879,-11
2021-12-24 15:38:07.560889,0
2021-12-24 15:38:07.560900,-25
2021-12-24 15:38:07.560910,-7
2021-12-24 15:38:07.560920,18
2021-12-24 15:38:07.560930,4
2021-12-24 15:38:07.560940,-4
2021-12-24 15:38:07.560950,-4
2021-12-24 15:38:07.560960,-11
2021-12-24 15:38:07.560970,-16
2021-12-24 15:38:07.560979,-21
2021-12-24 15:38:07.560989,-25
2021-12-24 15:38:07.560999,-35
2021-12-24 15:38:07.561008,-37
2021-12-24 15:38:07.561018,-47
2021-12-24 15:38:07.561028,-56
2021-12-24 15:38:07.561037,-54
2021-12-24 15:38:07.561047,-54
2021-12-24 15:38:07.561057,-61
2021-12-24 15:38:07.561067,-54
2021-12-24 15:38:07.561077,-37
2021-12-24 15:38:07.561087,-30
2021-12-24 15:38:07.561097,-35
2021-12-24 15:38:07.561107,-51
2021-12-24 15:38:07.875619,-61
2021-12-24 15:38:07.875650,-58
2021-12-24 15:38:07.875712,-47
2021-12-24 15:38:07.875722,-32
2021-12-24 15:38:07.875732,-18
2021-12-24 15:38:07.875742,-4
2021-12-24 15:38:07.875751,7
2021-12-24 15:38:07.875761,14
2021-12-24 15:38:07.875771,18
2021-12-24 15:38:07.875780,23
2021-12-24 15:38:07.875790,23
2021-12-24 15:38:07.875799,21
2021-12-24 15:38:07.875809,32
2021-12-24 15:38:07.875818,65
2021-12-24 15:38:07.875828,-4
2021-12-24 15:38:07.875838,-372
2021-12-24 15:38:07.875847,-777
2021-12-24 15:38:07.875857,-574
2021-12-24 15:38:07.875867,153
2021-12-24 15:38:07.875876,405
2021-12-24 15:38:07.875886,98
2021-12-24 15:38:07.875896,42
2021-12-24 15:38:07.875905,160
2021-12-24 15:38:07.875915,98
2021-12-24 15:38:07.875924,63
2021-12-24 15:38:07.875934,110
2021-12-24 15:38:07.875944,106
2021-12-24 15:38:07.875953,87
2021-12-24 15:38:07.875963,101
2021-12-24 15:38:07.875973,98
2021-12-24 15:38:08.054762,89
2021-12-24 15:38:08.054792,94
2021-12-24 15:38:08.054804,94
2021-12-24 15:38:08.054814,84
2021-12-24 15:38:08.054824,73
2021-12-24 15:38:08.054833,68
2021-12-24 15:38:08.054843,58
2021-12-24 15:38:08.054853,44
2021-12-24 15:38:08.054862,28
2021-12-24 15:38:08.054872,4
2021-12-24 15:38:08.054882,-21
2021-12-24 15:38:08.054891,-47
2021-12-24 15:38:08.054901,-58
2021-12-24 15:38:08.054911,-63
2021-12-24 15:38:08.054920,-65
2021-12-24 15:38:08.054930,-63
2021-12-24 15:38:08.054940,-61
2021-12-24 15:38:08.054949,-54
2021-12-24 15:38:08.054959,-28
2021-12-24 15:38:08.054969,18
2021-12-24 15:38:08.054979,70
2021-12-24 15:38:08.054988,113
2021-12-24 15:38:08.054998,134
2021-12-24 15:38:08.055007,150
2021-12-24 15:38:08.055017,169
2021-12-24 15:38:08.055027,171
2021-12-24 15:38:08.055036,164
2021-12-24 15:38:08.055046,162
2021-12-24 15:38:08.055055,157
2021-12-24 15:38:08.055065,155
2021-12-24 15:38:08.235606,157
2021-12-24 15:38:08.235636,153
2021-12-24 15:38:08.235648,146
2021-12-24 15:38:08.235658,139
2021-12-24 15:38:08.235668,129
2021-12-24 15:38:08.235678,122
2021-12-24 15:38:08.235687,122
2021-12-24 15:38:08.235697,124
2021-12-24 15:38:08.235707,127
2021-12-24 15:38:08.235716,122
2021-12-24 15:38:08.235726,113
2021-12-24 15:38:08.235736,115
2021-12-24 15:38:08.235745,124
2021-12-24 15:38:08.235755,124
2021-12-24 15:38:08.235765,120
2021-12-24 15:38:08.235775,106
2021-12-24 15:38:08.235785,84
2021-12-24 15:38:08.235794,68
2021-12-24 15:38:08.235804,63
2021-12-24 15:38:08.235814,75
2021-12-24 15:38:08.235824,89
2021-12-24 15:38:08.235833,98
2021-12-24 15:38:08.235843,106
2021-12-24 15:38:08.235853,108
2021-12-24 15:38:08.235863,106
2021-12-24 15:38:08.235872,110
2021-12-24 15:38:08.235882,113
2021-12-24 15:38:08.235892,103
2021-12-24 15:38:08.235901,98
2021-12-24 15:38:08.235911,113
2021-12-24 15:38:08.550417,143
2021-12-24 15:38:08.550447,35
2021-12-24 15:38:08.550459,-388
2021-12-24 15:38:08.550469,-789
2021-12-24 15:38:08.550479,-511
2021-12-24 15:38:08.550489,214
2021-12-24 15:38:08.550499,407
2021-12-24 15:38:08.550509,131
2021-12-24 15:38:08.550519,110
2021-12-24 15:38:08.550528,202
2021-12-24 15:38:08.550538,136
2021-12-24 15:38:08.550548,115
2021-12-24 15:38:08.550558,160
2021-12-24 15:38:08.550568,146
2021-12-24 15:38:08.550577,124
2021-12-24 15:38:08.550587,134
2021-12-24 15:38:08.550597,131
2021-12-24 15:38:08.550606,122
2021-12-24 15:38:08.550616,120
2021-12-24 15:38:08.550626,113
2021-12-24 15:38:08.550636,96
2021-12-24 15:38:08.550645,84
2021-12-24 15:38:08.550655,77
2021-12-24 15:38:08.550665,68
2021-12-24 15:38:08.550674,58
2021-12-24 15:38:08.550684,37
2021-12-24 15:38:08.550694,9
2021-12-24 15:38:08.550704,-11
2021-12-24 15:38:08.550718,-23
2021-12-24 15:38:08.550728,-37
2021-12-24 15:38:08.730598,-54
2021-12-24 15:38:08.730628,-61
2021-12-24 15:38:08.730640,-61
2021-12-24 15:38:08.730650,-56
2021-12-24 15:38:08.730660,-42
2021-12-24 15:38:08.730670,-11
2021-12-24 15:38:08.730680,32
2021-12-24 15:38:08.730690,77
2021-12-24 15:38:08.730700,113
2021-12-24 15:38:08.730710,136
2021-12-24 15:38:08.730719,160
2021-12-24 15:38:08.730729,179
2021-12-24 15:38:08.730739,183
2021-12-24 15:38:08.730748,179
2021-12-24 15:38:08.730758,171
2021-12-24 15:38:08.730768,169
2021-12-24 15:38:08.730777,167
2021-12-24 15:38:08.730787,162
2021-12-24 15:38:08.730797,155
2021-12-24 15:38:08.730807,150
2021-12-24 15:38:08.730816,143
2021-12-24 15:38:08.730826,139
2021-12-24 15:38:08.730836,136
2021-12-24 15:38:08.730845,131
2021-12-24 15:38:08.730855,131
2021-12-24 15:38:08.730865,131
2021-12-24 15:38:08.730874,129
2021-12-24 15:38:08.730884,129
2021-12-24 15:38:08.730893,131
2021-12-24 15:38:08.730903,134
2021-12-24 15:38:08.955628,134
2021-12-24 15:38:08.955659,131
2021-12-24 15:38:08.955670,127
2021-12-24 15:38:08.955680,113
2021-12-24 15:38:08.955690,91
2021-12-24 15:38:08.955700,77
2021-12-24 15:38:08.955709,82
2021-12-24 15:38:08.955719,91
2021-12-24 15:38:08.955729,96
2021-12-24 15:38:08.955738,103
2021-12-24 15:38:08.955748,113
2021-12-24 15:38:08.955757,115
2021-12-24 15:38:08.955767,108
2021-12-24 15:38:08.955776,101
2021-12-24 15:38:08.955786,96
2021-12-24 15:38:08.955795,94
2021-12-24 15:38:08.955805,96
2021-12-24 15:38:08.955814,124
2021-12-24 15:38:08.955824,124
2021-12-24 15:38:08.955834,-127
2021-12-24 15:38:08.955843,-605
2021-12-24 15:38:08.955853,-725
2021-12-24 15:38:08.955863,-136
2021-12-24 15:38:08.955872,409
2021-12-24 15:38:08.955882,268
2021-12-24 15:38:08.955891,63
2021-12-24 15:38:08.955901,162
2021-12-24 15:38:08.955910,176
2021-12-24 15:38:08.955920,103
2021-12-24 15:38:08.955930,127
2021-12-24 15:38:09.181170,146
2021-12-24 15:38:09.181191,117
2021-12-24 15:38:09.181198,113
2021-12-24 15:38:09.181205,120
2021-12-24 15:38:09.181211,106
2021-12-24 15:38:09.181217,94
2021-12-24 15:38:09.181224,80
2021-12-24 15:38:09.181230,58
2021-12-24 15:38:09.181236,51
2021-12-24 15:38:09.181242,47
2021-12-24 15:38:09.181248,32
2021-12-24 15:38:09.181255,16
2021-12-24 15:38:09.181261,2
2021-12-24 15:38:09.181267,-18
2021-12-24 15:38:09.181273,-40
2021-12-24 15:38:09.181280,-56
2021-12-24 15:38:09.181286,-70
2021-12-24 15:38:09.181292,-80
2021-12-24 15:38:09.181298,-87
2021-12-24 15:38:09.181305,-87
2021-12-24 15:38:09.181311,-80
2021-12-24 15:38:09.181317,-68
2021-12-24 15:38:09.181323,-49
2021-12-24 15:38:09.181329,-14
2021-12-24 15:38:09.181336,30
2021-12-24 15:38:09.181342,73
2021-12-24 15:38:09.181348,108
2021-12-24 15:38:09.181354,127
2021-12-24 15:38:09.181360,146
2021-12-24 15:38:09.181366,157
2021-12-24 15:38:09.450946,155
2021-12-24 15:38:09.450966,153
2021-12-24 15:38:09.450973,153
2021-12-24 15:38:09.450980,150
2021-12-24 15:38:09.450986,143
2021-12-24 15:38:09.450992,136
2021-12-24 15:38:09.450998,129
2021-12-24 15:38:09.451005,127
2021-12-24 15:38:09.451011,127
2021-12-24 15:38:09.451017,122
2021-12-24 15:38:09.451024,117
2021-12-24 15:38:09.451030,115
2021-12-24 15:38:09.451036,113
2021-12-24 15:38:09.451043,113
2021-12-24 15:38:09.451049,115
2021-12-24 15:38:09.451055,115
2021-12-24 15:38:09.451062,115
2021-12-24 15:38:09.451068,115
2021-12-24 15:38:09.451075,113
2021-12-24 15:38:09.451081,120
2021-12-24 15:38:09.451088,122
2021-12-24 15:38:09.451094,110
2021-12-24 15:38:09.451101,87
2021-12-24 15:38:09.451109,63
2021-12-24 15:38:09.451115,61
2021-12-24 15:38:09.451121,70
2021-12-24 15:38:09.451128,82
2021-12-24 15:38:09.451134,89
2021-12-24 15:38:09.451140,94
2021-12-24 15:38:09.451147,91
2021-12-24 15:38:09.630775,89
2021-12-24 15:38:09.630806,91
2021-12-24 15:38:09.630817,89
2021-12-24 15:38:09.630827,87
2021-12-24 15:38:09.630837,84
2021-12-24 15:38:09.630847,91
2021-12-24 15:38:09.630856,117
2021-12-24 15:38:09.630866,2
2021-12-24 15:38:09.630876,-417
2021-12-24 15:38:09.630885,-765
2021-12-24 15:38:09.630895,-428
2021-12-24 15:38:09.630905,254
2021-12-24 15:38:09.630914,353
2021-12-24 15:38:09.630924,77
2021-12-24 15:38:09.630933,98
2021-12-24 15:38:09.630943,179
2021-12-24 15:38:09.630953,108
2021-12-24 15:38:09.630962,89
2021-12-24 15:38:09.630972,124
2021-12-24 15:38:09.630981,110
2021-12-24 15:38:09.630991,96
2021-12-24 15:38:09.631001,101
2021-12-24 15:38:09.631010,94
2021-12-24 15:38:09.631020,82
2021-12-24 15:38:09.631029,80
2021-12-24 15:38:09.631039,77
2021-12-24 15:38:09.631048,68
2021-12-24 15:38:09.631058,56
2021-12-24 15:38:09.631068,40
2021-12-24 15:38:09.631077,23
2021-12-24 15:38:09.856107,7
2021-12-24 15:38:09.856138,-7
2021-12-24 15:38:09.856150,-23
2021-12-24 15:38:09.856160,-42
2021-12-24 15:38:09.856170,-65
2021-12-24 15:38:09.856180,-80
2021-12-24 15:38:09.856189,-84
2021-12-24 15:38:09.856199,-84
2021-12-24 15:38:09.856209,-82
2021-12-24 15:38:09.856219,-77
2021-12-24 15:38:09.856229,-63
2021-12-24 15:38:09.856238,-40
2021-12-24 15:38:09.856248,0
2021-12-24 15:38:09.856258,47
2021-12-24 15:38:09.856268,89
2021-12-24 15:38:09.856277,120
2021-12-24 15:38:09.856287,141
2021-12-24 15:38:09.856297,153
2021-12-24 15:38:09.856307,162
2021-12-24 15:38:09.856316,174
2021-12-24 15:38:09.856326,176
2021-12-24 15:38:09.856336,164
2021-12-24 15:38:09.856345,153
2021-12-24 15:38:09.856355,153
2021-12-24 15:38:09.856365,164
2021-12-24 15:38:09.856374,169
2021-12-24 15:38:09.856384,146
2021-12-24 15:38:09.856394,136
2021-12-24 15:38:09.856404,150
2021-12-24 15:38:09.856413,150
2021-12-24 15:38:10.124232,139
2021-12-24 15:38:10.124263,141
2021-12-24 15:38:10.124274,136
2021-12-24 15:38:10.124284,120
2021-12-24 15:38:10.124294,106
2021-12-24 15:38:10.124304,113
2021-12-24 15:38:10.124313,136
2021-12-24 15:38:10.124323,150
2021-12-24 15:38:10.124333,141
2021-12-24 15:38:10.124342,131
2021-12-24 15:38:10.124352,129
2021-12-24 15:38:10.124362,122
2021-12-24 15:38:10.124371,108
2021-12-24 15:38:10.124381,110
2021-12-24 15:38:10.124391,122
2021-12-24 15:38:10.124400,134
2021-12-24 15:38:10.124410,139
2021-12-24 15:38:10.124420,139
2021-12-24 15:38:10.124430,136
2021-12-24 15:38:10.124439,139
2021-12-24 15:38:10.124449,134
2021-12-24 15:38:10.124458,120
2021-12-24 15:38:10.124468,129
2021-12-24 15:38:10.124478,148
2021-12-24 15:38:10.124487,139
2021-12-24 15:38:10.124497,101
2021-12-24 15:38:10.124507,-117
2021-12-24 15:38:10.124517,-560
2021-12-24 15:38:10.124527,-676
2021-12-24 15:38:10.124536,-87
2021-12-24 15:38:10.351126,440
2021-12-24 15:38:10.351155,285
2021-12-24 15:38:10.351167,82
2021-12-24 15:38:10.351177,148
2021-12-24 15:38:10.351186,139
2021-12-24 15:38:10.351196,91
2021-12-24 15:38:10.351206,117
2021-12-24 15:38:10.351215,124
2021-12-24 15:38:10.351225,101
2021-12-24 15:38:10.351234,96
2021-12-24 15:38:10.351244,84
2021-12-24 15:38:10.351253,58
2021-12-24 15:38:10.351263,61
2021-12-24 15:38:10.351272,75
2021-12-24 15:38:10.351282,58
2021-12-24 15:38:10.351291,18
2021-12-24 15:38:10.351301,-7
2021-12-24 15:38:10.351310,-16
2021-12-24 15:38:10.351320,-25
2021-12-24 15:38:10.351330,-35
2021-12-24 15:38:10.351339,-47
2021-12-24 15:38:10.351349,-70
2021-12-24 15:38:10.351358,-89
2021-12-24 15:38:10.351378,-89
2021-12-24 15:38:10.351388,-101
2021-12-24 15:38:10.351398,-141
2021-12-24 15:38:10.351408,-160
2021-12-24 15:38:10.351417,-143
2021-12-24 15:38:10.351427,-124
2021-12-24 15:38:10.351436,-115
2021-12-24 15:38:10.575712,-84
2021-12-24 15:38:10.575742,-23
2021-12-24 15:38:10.575753,37
2021-12-24 15:38:10.575763,75
2021-12-24 15:38:10.575773,75
2021-12-24 15:38:10.575783,56
2021-12-24 15:38:10.575792,68
2021-12-24 15:38:10.575802,96
2021-12-24 15:38:10.575811,96
2021-12-24 15:38:10.575821,73
2021-12-24 15:38:10.575831,49
2021-12-24 15:38:10.575840,44
2021-12-24 15:38:10.575850,61
2021-12-24 15:38:10.575860,63
2021-12-24 15:38:10.575869,42
2021-12-24 15:38:10.575879,28
2021-12-24 15:38:10.575888,35
2021-12-24 15:38:10.575898,42
2021-12-24 15:38:10.575908,47
2021-12-24 15:38:10.575917,44
2021-12-24 15:38:10.575927,28
2021-12-24 15:38:10.575937,25
2021-12-24 15:38:10.575946,28
2021-12-24 15:38:10.575956,25
2021-12-24 15:38:10.575965,28
2021-12-24 15:38:10.575975,25
2021-12-24 15:38:10.575984,21
2021-12-24 15:38:10.575994,4
2021-12-24 15:38:10.576003,-21
2021-12-24 15:38:10.576013,-18
2021-12-24 15:38:10.799987,-14
2021-12-24 15:38:10.800007,-32
2021-12-24 15:38:10.800015,-28
2021-12-24 15:38:10.800021,7
2021-12-24 15:38:10.800028,25
2021-12-24 15:38:10.800035,32
2021-12-24 15:38:10.800041,40
2021-12-24 15:38:10.800047,16
2021-12-24 15:38:10.800053,-2
2021-12-24 15:38:10.800060,16
2021-12-24 15:38:10.800066,4
2021-12-24 15:38:10.800072,-16
2021-12-24 15:38:10.800078,-7
2021-12-24 15:38:10.800085,-207
2021-12-24 15:38:10.800091,-666
2021-12-24 15:38:10.800098,-796
2021-12-24 15:38:10.800104,-181
2021-12-24 15:38:10.800110,398
2021-12-24 15:38:10.800117,212
2021-12-24 15:38:10.800123,-35
2021-12-24 15:38:10.800130,73
2021-12-24 15:38:10.800136,73
2021-12-24 15:38:10.800142,-14
2021-12-24 15:38:10.800148,21
2021-12-24 15:38:10.800155,44
2021-12-24 15:38:10.800161,9
2021-12-24 15:38:10.800167,4
2021-12-24 15:38:10.800174,9
2021-12-24 15:38:10.800180,-2
2021-12-24 15:38:10.800187,-16
2021-12-24 15:38:11.070445,-30
2021-12-24 15:38:11.070465,-30
2021-12-24 15:38:11.070472,-42
2021-12-24 15:38:11.070479,-61
2021-12-24 15:38:11.070485,-65
2021-12-24 15:38:11.070491,-68
2021-12-24 15:38:11.070497,-94
2021-12-24 15:38:11.070504,-120
2021-12-24 15:38:11.070510,-139
2021-12-24 15:38:11.070516,-160
2021-12-24 15:38:11.070522,-183
2021-12-24 15:38:11.070529,-197
2021-12-24 15:38:11.070535,-207
2021-12-24 15:38:11.070541,-216
2021-12-24 15:38:11.070547,-212
2021-12-24 15:38:11.070553,-197
2021-12-24 15:38:11.070559,-176
2021-12-24 15:38:11.070566,-139
2021-12-24 15:38:11.070572,-84
2021-12-24 15:38:11.070578,-28
2021-12-24 15:38:11.070584,21
2021-12-24 15:38:11.070590,54
2021-12-24 15:38:11.070596,75
2021-12-24 15:38:11.070603,91
2021-12-24 15:38:11.070609,96
2021-12-24 15:38:11.070615,98
2021-12-24 15:38:11.070621,98
2021-12-24 15:38:11.070627,96
2021-12-24 15:38:11.070633,89
2021-12-24 15:38:11.070641,80
2021-12-24 15:38:11.250839,75
2021-12-24 15:38:11.250874,77
2021-12-24 15:38:11.250880,75
2021-12-24 15:38:11.250885,70
2021-12-24 15:38:11.250890,70
2021-12-24 15:38:11.250895,70
2021-12-24 15:38:11.250900,65
2021-12-24 15:38:11.250905,65
2021-12-24 15:38:11.250910,73
2021-12-24 15:38:11.250915,75
2021-12-24 15:38:11.250920,80
2021-12-24 15:38:11.250925,89
2021-12-24 15:38:11.250930,87
2021-12-24 15:38:11.250935,65
2021-12-24 15:38:11.250940,44
2021-12-24 15:38:11.250945,42
2021-12-24 15:38:11.250950,47
2021-12-24 15:38:11.250955,54
2021-12-24 15:38:11.250960,61
2021-12-24 15:38:11.250965,73
2021-12-24 15:38:11.250970,80
2021-12-24 15:38:11.250975,75
2021-12-24 15:38:11.250980,75
2021-12-24 15:38:11.250985,80
2021-12-24 15:38:11.250990,80
2021-12-24 15:38:11.250995,77
2021-12-24 15:38:11.251000,94
2021-12-24 15:38:11.251005,115
2021-12-24 15:38:11.251010,-25
2021-12-24 15:38:11.251015,-466
2021-12-24 15:38:11.565767,-796
2021-12-24 15:38:11.565797,-393
2021-12-24 15:38:11.565808,339
2021-12-24 15:38:11.565818,398
2021-12-24 15:38:11.565828,84
2021-12-24 15:38:11.565838,110
2021-12-24 15:38:11.565848,188
2021-12-24 15:38:11.565857,108
2021-12-24 15:38:11.565867,101
2021-12-24 15:38:11.565876,136
2021-12-24 15:38:11.565886,110
2021-12-24 15:38:11.565896,96
2021-12-24 15:38:11.565905,106
2021-12-24 15:38:11.565914,101
2021-12-24 15:38:11.565924,87
2021-12-24 15:38:11.565933,80
2021-12-24 15:38:11.565943,73
2021-12-24 15:38:11.565952,61
2021-12-24 15:38:11.565962,51
2021-12-24 15:38:11.565971,42
2021-12-24 15:38:11.565981,28
2021-12-24 15:38:11.565990,9
2021-12-24 15:38:11.565999,-11
2021-12-24 15:38:11.566009,-32
2021-12-24 15:38:11.566018,-56
2021-12-24 15:38:11.566028,-75
2021-12-24 15:38:11.566037,-87
2021-12-24 15:38:11.566046,-94
2021-12-24 15:38:11.566056,-96
2021-12-24 15:38:11.566065,-94
2021-12-24 15:38:11.745446,-84
2021-12-24 15:38:11.745475,-63
2021-12-24 15:38:11.745486,-30
2021-12-24 15:38:11.745496,18
2021-12-24 15:38:11.745506,56
2021-12-24 15:38:11.745515,82
2021-12-24 15:38:11.745525,115
2021-12-24 15:38:11.745534,143
2021-12-24 15:38:11.745543,153
2021-12-24 15:38:11.745553,153
2021-12-24 15:38:11.745562,153
2021-12-24 15:38:11.745572,148
2021-12-24 15:38:11.745581,143
2021-12-24 15:38:11.745591,141
2021-12-24 15:38:11.745600,141
2021-12-24 15:38:11.745610,139
2021-12-24 15:38:11.745619,136
2021-12-24 15:38:11.745629,134
2021-12-24 15:38:11.745639,134
2021-12-24 15:38:11.745648,134
2021-12-24 15:38:11.745658,131
2021-12-24 15:38:11.745667,127
2021-12-24 15:38:11.745677,124
2021-12-24 15:38:11.745686,127
2021-12-24 15:38:11.745695,129
2021-12-24 15:38:11.745705,131
2021-12-24 15:38:11.745714,134
2021-12-24 15:38:11.745724,141
2021-12-24 15:38:11.745733,141
2021-12-24 15:38:11.745743,131
2021-12-24 15:38:12.149269,113
2021-12-24 15:38:12.149289,96
2021-12-24 15:38:12.149297,101
2021-12-24 15:38:12.149303,110
2021-12-24 15:38:12.149310,115
2021-12-24 15:38:12.149316,122
2021-12-24 15:38:12.149322,134
2021-12-24 15:38:12.149328,136
2021-12-24 15:38:12.149334,134
2021-12-24 15:38:12.149341,129
2021-12-24 15:38:12.149347,122
2021-12-24 15:38:12.149353,120
2021-12-24 15:38:12.149359,124
2021-12-24 15:38:12.149366,157
2021-12-24 15:38:12.149372,127
2021-12-24 15:38:12.149378,-200
2021-12-24 15:38:12.149384,-687
2021-12-24 15:38:12.149391,-678
2021-12-24 15:38:12.149397,9
2021-12-24 15:38:12.149403,468
2021-12-24 15:38:12.149410,242
2021-12-24 15:38:12.149416,82
2021-12-24 15:38:12.149422,197
2021-12-24 15:38:12.149428,181
2021-12-24 15:38:12.149434,115
2021-12-24 15:38:12.149441,148
2021-12-24 15:38:12.149447,155
2021-12-24 15:38:12.149453,124
2021-12-24 15:38:12.149459,124
2021-12-24 15:38:12.149465,134
2021-12-24 15:38:12.240200,120
2021-12-24 15:38:12.240230,110
2021-12-24 15:38:12.240241,108
2021-12-24 15:38:12.240251,96
2021-12-24 15:38:12.240261,82
2021-12-24 15:38:12.240271,68
2021-12-24 15:38:12.240280,51
2021-12-24 15:38:12.240290,40
2021-12-24 15:38:12.240300,28
2021-12-24 15:38:12.240310,7
2021-12-24 15:38:12.240319,-21
2021-12-24 15:38:12.240329,-44
2021-12-24 15:38:12.240339,-56
2021-12-24 15:38:12.240348,-63
2021-12-24 15:38:12.240358,-68
2021-12-24 15:38:12.240367,-73
2021-12-24 15:38:12.240377,-68
2021-12-24 15:38:12.240387,-56
2021-12-24 15:38:12.240396,-32
2021-12-24 15:38:12.240406,9
2021-12-24 15:38:12.240415,54
2021-12-24 15:38:12.240425,91
2021-12-24 15:38:12.240434,124
2021-12-24 15:38:12.240444,155
2021-12-24 15:38:12.240454,174
2021-12-24 15:38:12.240463,176
2021-12-24 15:38:12.240473,169
2021-12-24 15:38:12.240482,162
2021-12-24 15:38:12.240492,162
2021-12-24 15:38:12.240501,160
2021-12-24 15:38:12.421083,157
2021-12-24 15:38:12.421113,155
2021-12-24 15:38:12.421125,148
2021-12-24 15:38:12.421135,141
2021-12-24 15:38:12.421145,141
2021-12-24 15:38:12.421155,143
2021-12-24 15:38:12.421165,141
2021-12-24 15:38:12.421175,134
2021-12-24 15:38:12.421184,124
2021-12-24 15:38:12.421194,122
2021-12-24 15:38:12.421204,127
2021-12-24 15:38:12.421214,127
2021-12-24 15:38:12.421223,124
2021-12-24 15:38:12.421233,122
2021-12-24 15:38:12.421243,122
2021-12-24 15:38:12.421252,120
2021-12-24 15:38:12.421262,108
2021-12-24 15:38:12.421319,84
2021-12-24 15:38:12.421330,70
2021-12-24 15:38:12.421340,80
2021-12-24 15:38:12.421349,84
2021-12-24 15:38:12.421359,80
2021-12-24 15:38:12.421369,89
2021-12-24 15:38:12.421379,101
2021-12-24 15:38:12.421388,96
2021-12-24 15:38:12.421398,91
2021-12-24 15:38:12.421408,94
2021-12-24 15:38:12.421418,94
2021-12-24 15:38:12.421428,87
2021-12-24 15:38:12.421438,89
2021-12-24 15:38:12.645631,120
2021-12-24 15:38:12.645661,89
2021-12-24 15:38:12.645673,-226
2021-12-24 15:38:12.645683,-692
2021-12-24 15:38:12.645693,-654
2021-12-24 15:38:12.645703,30
2021-12-24 15:38:12.645712,440
2021-12-24 15:38:12.645722,190
2021-12-24 15:38:12.645732,51
2021-12-24 15:38:12.645741,171
2021-12-24 15:38:12.645751,146
2021-12-24 15:38:12.645761,87
2021-12-24 15:38:12.645770,122
2021-12-24 15:38:12.645780,122
2021-12-24 15:38:12.645789,89
2021-12-24 15:38:12.645799,87
2021-12-24 15:38:12.645809,84
2021-12-24 15:38:12.645818,65
2021-12-24 15:38:12.645828,61
2021-12-24 15:38:12.645837,58
2021-12-24 15:38:12.645847,47
2021-12-24 15:38:12.645857,35
2021-12-24 15:38:12.645867,25
2021-12-24 15:38:12.645876,14
2021-12-24 15:38:12.645886,-2
2021-12-24 15:38:12.645896,-23
2021-12-24 15:38:12.645905,-42
2021-12-24 15:38:12.645915,-56
2021-12-24 15:38:12.645925,-75
2021-12-24 15:38:12.645934,-94
2021-12-24 15:38:12.915953,-106
2021-12-24 15:38:12.915983,-106
2021-12-24 15:38:12.915994,-103
2021-12-24 15:38:12.916004,-98
2021-12-24 15:38:12.916014,-89
2021-12-24 15:38:12.916024,-68
2021-12-24 15:38:12.916034,-30
2021-12-24 15:38:12.916044,14
2021-12-24 15:38:12.916054,58
2021-12-24 15:38:12.916064,98
2021-12-24 15:38:12.916073,124
2021-12-24 15:38:12.916083,139
2021-12-24 15:38:12.916093,143
2021-12-24 15:38:12.916103,143
2021-12-24 15:38:12.916112,146
2021-12-24 15:38:12.916122,141
2021-12-24 15:38:12.916132,136
2021-12-24 15:38:12.916142,131
2021-12-24 15:38:12.916152,127
2021-12-24 15:38:12.916162,122
2021-12-24 15:38:12.916172,124
2021-12-24 15:38:12.916181,124
2021-12-24 15:38:12.916191,122
2021-12-24 15:38:12.916201,124
2021-12-24 15:38:12.916211,122
2021-12-24 15:38:12.916221,117
2021-12-24 15:38:12.916231,115
2021-12-24 15:38:12.916241,110
2021-12-24 15:38:12.916251,108
2021-12-24 15:38:12.916260,110
2021-12-24 15:38:13.095945,113
2021-12-24 15:38:13.095976,115
2021-12-24 15:38:13.095987,120
2021-12-24 15:38:13.095997,117
2021-12-24 15:38:13.096007,101
2021-12-24 15:38:13.096016,80
2021-12-24 15:38:13.096026,63
2021-12-24 15:38:13.096035,61
2021-12-24 15:38:13.096045,73
2021-12-24 15:38:13.096055,82
2021-12-24 15:38:13.096064,87
2021-12-24 15:38:13.096074,98
2021-12-24 15:38:13.096083,103
2021-12-24 15:38:13.096093,98
2021-12-24 15:38:13.096103,96
2021-12-24 15:38:13.096112,94
2021-12-24 15:38:13.096122,91
2021-12-24 15:38:13.096131,89
2021-12-24 15:38:13.096141,103
2021-12-24 15:38:13.096150,115
2021-12-24 15:38:13.096160,-87
2021-12-24 15:38:13.096170,-560
2021-12-24 15:38:13.096180,-756
2021-12-24 15:38:13.096189,-212
2021-12-24 15:38:13.096199,391
2021-12-24 15:38:13.096208,282
2021-12-24 15:38:13.096218,42
2021-12-24 15:38:13.096228,136
2021-12-24 15:38:13.096237,157
2021-12-24 15:38:13.096247,73
2021-12-24 15:38:13.320323,94
2021-12-24 15:38:13.320345,122
2021-12-24 15:38:13.320353,96
2021-12-24 15:38:13.320359,91
2021-12-24 15:38:13.320365,94
2021-12-24 15:38:13.320372,75
2021-12-24 15:38:13.320378,65
2021-12-24 15:38:13.320385,63
2021-12-24 15:38:13.320391,56
2021-12-24 15:38:13.320397,44
2021-12-24 15:38:13.320404,32
2021-12-24 15:38:13.320410,16
2021-12-24 15:38:13.320417,0
2021-12-24 15:38:13.320423,-14
2021-12-24 15:38:13.320429,-30
2021-12-24 15:38:13.320436,-51
2021-12-24 15:38:13.320442,-73
2021-12-24 15:38:13.320448,-84
2021-12-24 15:38:13.320455,-94
2021-12-24 15:38:13.320461,-101
2021-12-24 15:38:13.320467,-101
2021-12-24 15:38:13.320474,-94
2021-12-24 15:38:13.320480,-87
2021-12-24 15:38:13.320486,-73
2021-12-24 15:38:13.320493,-40
2021-12-24 15:38:13.320499,7
2021-12-24 15:38:13.320505,58
2021-12-24 15:38:13.320512,98
2021-12-24 15:38:13.320518,127
2021-12-24 15:38:13.320524,143
2021-12-24 15:38:13.545658,155
2021-12-24 15:38:13.545688,157
2021-12-24 15:38:13.545700,153
2021-12-24 15:38:13.545710,146
2021-12-24 15:38:13.545720,139
2021-12-24 15:38:13.545730,129
2021-12-24 15:38:13.545739,131
2021-12-24 15:38:13.545749,131
2021-12-24 15:38:13.545759,122
2021-12-24 15:38:13.545768,120
2021-12-24 15:38:13.545778,117
2021-12-24 15:38:13.545788,113
2021-12-24 15:38:13.545798,115
2021-12-24 15:38:13.545807,117
2021-12-24 15:38:13.545817,115
2021-12-24 15:38:13.545827,113
2021-12-24 15:38:13.545836,110
2021-12-24 15:38:13.545846,110
2021-12-24 15:38:13.545856,113
2021-12-24 15:38:13.545865,115
2021-12-24 15:38:13.545875,115
2021-12-24 15:38:13.545885,117
2021-12-24 15:38:13.545895,117
2021-12-24 15:38:13.545904,108
2021-12-24 15:38:13.545914,87
2021-12-24 15:38:13.545924,68
2021-12-24 15:38:13.545934,63
2021-12-24 15:38:13.545943,63
2021-12-24 15:38:13.545953,63
2021-12-24 15:38:13.545963,73
2021-12-24 15:38:13.815248,89
2021-12-24 15:38:13.815267,91
2021-12-24 15:38:13.815275,84
2021-12-24 15:38:13.815282,77
2021-12-24 15:38:13.815288,73
2021-12-24 15:38:13.815294,70
2021-12-24 15:38:13.815301,70
2021-12-24 15:38:13.815307,91
2021-12-24 15:38:13.815313,91
2021-12-24 15:38:13.815320,-148
2021-12-24 15:38:13.815326,-614
2021-12-24 15:38:13.815333,-725
2021-12-24 15:38:13.815339,-127
2021-12-24 15:38:13.815345,407
2021-12-24 15:38:13.815352,235
2021-12-24 15:38:13.815358,28
2021-12-24 15:38:13.815365,139
2021-12-24 15:38:13.815371,146
2021-12-24 15:38:13.815377,70
2021-12-24 15:38:13.815384,101
2021-12-24 15:38:13.815390,117
2021-12-24 15:38:13.815397,80
2021-12-24 15:38:13.815403,77
2021-12-24 15:38:13.815409,87
2021-12-24 15:38:13.815416,75
2021-12-24 15:38:13.815422,63
2021-12-24 15:38:13.815429,58
2021-12-24 15:38:13.815435,47
2021-12-24 15:38:13.815442,35
2021-12-24 15:38:13.815448,23
2021-12-24 15:38:14.085428,11
2021-12-24 15:38:14.085459,-2
2021-12-24 15:38:14.085470,-21
2021-12-24 15:38:14.085480,-44
2021-12-24 15:38:14.085489,-70
2021-12-24 15:38:14.085499,-94
2021-12-24 15:38:14.085509,-110
2021-12-24 15:38:14.085518,-124
2021-12-24 15:38:14.085528,-136
2021-12-24 15:38:14.085537,-143
2021-12-24 15:38:14.085547,-139
2021-12-24 15:38:14.085556,-124
2021-12-24 15:38:14.085566,-108
2021-12-24 15:38:14.085575,-80
2021-12-24 15:38:14.085585,-37
2021-12-24 15:38:14.085594,4
2021-12-24 15:38:14.085604,47
2021-12-24 15:38:14.085614,77
2021-12-24 15:38:14.085624,96
2021-12-24 15:38:14.085634,108
2021-12-24 15:38:14.085643,113
2021-12-24 15:38:14.085653,106
2021-12-24 15:38:14.085662,106
2021-12-24 15:38:14.085672,101
2021-12-24 15:38:14.085681,94
2021-12-24 15:38:14.085691,91
2021-12-24 15:38:14.085700,89
2021-12-24 15:38:14.085710,87
2021-12-24 15:38:14.085719,87
2021-12-24 15:38:14.085729,82
2021-12-24 15:38:14.354748,80
2021-12-24 15:38:14.354777,80
2021-12-24 15:38:14.354789,73
2021-12-24 15:38:14.354799,63
2021-12-24 15:38:14.354809,58
2021-12-24 15:38:14.354819,61
2021-12-24 15:38:14.354828,58
2021-12-24 15:38:14.354838,54
2021-12-24 15:38:14.354848,51
2021-12-24 15:38:14.354857,49
2021-12-24 15:38:14.354867,37
2021-12-24 15:38:14.354892,21
2021-12-24 15:38:14.354903,11
2021-12-24 15:38:14.354912,7
2021-12-24 15:38:14.354922,2
2021-12-24 15:38:14.354932,7
2021-12-24 15:38:14.354942,16
2021-12-24 15:38:14.354951,25
2021-12-24 15:38:14.354961,28
2021-12-24 15:38:14.354971,23
2021-12-24 15:38:14.354980,16
2021-12-24 15:38:14.354990,14
2021-12-24 15:38:14.355000,16
2021-12-24 15:38:14.355009,16
2021-12-24 15:38:14.355019,30
2021-12-24 15:38:14.355029,30
2021-12-24 15:38:14.355038,-176
2021-12-24 15:38:14.355048,-624
2021-12-24 15:38:14.355058,-779
2021-12-24 15:38:14.355068,-202
2021-12-24 15:38:14.490920,398
2021-12-24 15:38:14.490950,242
2021-12-24 15:38:14.490962,-23
2021-12-24 15:38:14.490972,87
2021-12-24 15:38:14.490982,110
2021-12-24 15:38:14.490992,16
2021-12-24 15:38:14.491001,32
2021-12-24 15:38:14.491011,58
2021-12-24 15:38:14.491021,25
2021-12-24 15:38:14.491031,14
2021-12-24 15:38:14.491040,18
2021-12-24 15:38:14.491050,9
2021-12-24 15:38:14.491060,0
2021-12-24 15:38:14.491069,-7
2021-12-24 15:38:14.491079,-14
2021-12-24 15:38:14.491089,-21
2021-12-24 15:38:14.491098,-35
2021-12-24 15:38:14.491108,-44
2021-12-24 15:38:14.491117,-61
2021-12-24 15:38:14.491127,-89
2021-12-24 15:38:14.491136,-115
2021-12-24 15:38:14.491146,-131
2021-12-24 15:38:14.491156,-150
2021-12-24 15:38:14.491165,-167
2021-12-24 15:38:14.491175,-179
2021-12-24 15:38:14.491184,-186
2021-12-24 15:38:14.491194,-186
2021-12-24 15:38:14.491203,-181
2021-12-24 15:38:14.491213,-174
2021-12-24 15:38:14.491222,-153
2021-12-24 15:38:14.716226,-115
2021-12-24 15:38:14.716258,-65
2021-12-24 15:38:14.716269,-7
2021-12-24 15:38:14.716279,40
2021-12-24 15:38:14.716289,65
2021-12-24 15:38:14.716299,89
2021-12-24 15:38:14.716309,106
2021-12-24 15:38:14.716319,101
2021-12-24 15:38:14.716329,91
2021-12-24 15:38:14.716338,89
2021-12-24 15:38:14.716348,82
2021-12-24 15:38:14.716358,75
2021-12-24 15:38:14.716368,73
2021-12-24 15:38:14.716378,68
2021-12-24 15:38:14.716393,61
2021-12-24 15:38:14.716403,56
2021-12-24 15:38:14.716445,58
2021-12-24 15:38:14.716455,58
2021-12-24 15:38:14.716465,56
2021-12-24 15:38:14.716475,61
2021-12-24 15:38:14.716484,63
2021-12-24 15:38:14.716494,63
2021-12-24 15:38:14.716504,65
2021-12-24 15:38:14.716513,73
2021-12-24 15:38:14.716523,70
2021-12-24 15:38:14.716533,63
2021-12-24 15:38:14.716542,51
2021-12-24 15:38:14.716552,40
2021-12-24 15:38:14.716562,37
2021-12-24 15:38:14.716572,42
2021-12-24 15:38:14.940958,44
2021-12-24 15:38:14.940987,54
2021-12-24 15:38:14.940999,73
2021-12-24 15:38:14.941009,77
2021-12-24 15:38:14.941018,75
2021-12-24 15:38:14.941028,73
2021-12-24 15:38:14.941037,70
2021-12-24 15:38:14.941047,68
2021-12-24 15:38:14.941057,70
2021-12-24 15:38:14.941066,84
2021-12-24 15:38:14.941075,103
2021-12-24 15:38:14.941085,-58
2021-12-24 15:38:14.941095,-513
2021-12-24 15:38:14.941104,-791
2021-12-24 15:38:14.941114,-313
2021-12-24 15:38:14.941123,388
2021-12-24 15:38:14.941133,365
2021-12-24 15:38:14.941142,54
2021-12-24 15:38:14.941152,113
2021-12-24 15:38:14.941161,171
2021-12-24 15:38:14.941171,87
2021-12-24 15:38:14.941180,98
2021-12-24 15:38:14.941189,131
2021-12-24 15:38:14.941199,98
2021-12-24 15:38:14.941208,87
2021-12-24 15:38:14.941218,103
2021-12-24 15:38:14.941227,96
2021-12-24 15:38:14.941236,80
2021-12-24 15:38:14.941246,77
2021-12-24 15:38:14.941255,73
2021-12-24 15:38:15.254855,61
2021-12-24 15:38:15.254884,49
2021-12-24 15:38:15.254896,37
2021-12-24 15:38:15.254906,18
2021-12-24 15:38:15.254915,-4
2021-12-24 15:38:15.254925,-25
2021-12-24 15:38:15.254935,-49
2021-12-24 15:38:15.254944,-75
2021-12-24 15:38:15.254954,-91
2021-12-24 15:38:15.254963,-98
2021-12-24 15:38:15.254972,-106
2021-12-24 15:38:15.254982,-117
2021-12-24 15:38:15.254991,-113
2021-12-24 15:38:15.255001,-98
2021-12-24 15:38:15.255010,-91
2021-12-24 15:38:15.255019,-61
2021-12-24 15:38:15.255029,-4
2021-12-24 15:38:15.255038,47
2021-12-24 15:38:15.255048,84
2021-12-24 15:38:15.255058,122
2021-12-24 15:38:15.255067,148
2021-12-24 15:38:15.255077,155
2021-12-24 15:38:15.255086,157
2021-12-24 15:38:15.255095,160
2021-12-24 15:38:15.255105,157
2021-12-24 15:38:15.255114,153
2021-12-24 15:38:15.255124,153
2021-12-24 15:38:15.255133,157
2021-12-24 15:38:15.255143,153
2021-12-24 15:38:15.255152,148
2021-12-24 15:38:15.390496,148
2021-12-24 15:38:15.390526,143
2021-12-24 15:38:15.390538,143
2021-12-24 15:38:15.390548,143
2021-12-24 15:38:15.390558,136
2021-12-24 15:38:15.390567,127
2021-12-24 15:38:15.390577,127
2021-12-24 15:38:15.390586,131
2021-12-24 15:38:15.390596,131
2021-12-24 15:38:15.390605,131
2021-12-24 15:38:15.390615,136
2021-12-24 15:38:15.390624,139
2021-12-24 15:38:15.390634,127
2021-12-24 15:38:15.390643,103
2021-12-24 15:38:15.390653,89
2021-12-24 15:38:15.390662,96
2021-12-24 15:38:15.390672,110
2021-12-24 15:38:15.390682,115
2021-12-24 15:38:15.390691,120
2021-12-24 15:38:15.390701,127
2021-12-24 15:38:15.390710,129
2021-12-24 15:38:15.390720,127
2021-12-24 15:38:15.390729,117
2021-12-24 15:38:15.390739,115
2021-12-24 15:38:15.390748,120
2021-12-24 15:38:15.390758,127
2021-12-24 15:38:15.390767,155
2021-12-24 15:38:15.390777,80
2021-12-24 15:38:15.390786,-310
2021-12-24 15:38:15.390796,-749
2021-12-24 15:38:15.660690,-546
2021-12-24 15:38:15.660721,204
2021-12-24 15:38:15.660732,478
2021-12-24 15:38:15.660742,171
2021-12-24 15:38:15.660752,103
2021-12-24 15:38:15.660761,221
2021-12-24 15:38:15.660771,164
2021-12-24 15:38:15.660780,122
2021-12-24 15:38:15.660790,160
2021-12-24 15:38:15.660800,150
2021-12-24 15:38:15.660809,127
2021-12-24 15:38:15.660818,134
2021-12-24 15:38:15.660828,131
2021-12-24 15:38:15.660837,120
2021-12-24 15:38:15.660847,115
2021-12-24 15:38:15.660856,106
2021-12-24 15:38:15.660865,96
2021-12-24 15:38:15.660875,89
2021-12-24 15:38:15.660884,75
2021-12-24 15:38:15.660894,54
2021-12-24 15:38:15.660903,28
2021-12-24 15:38:15.660912,-2
2021-12-24 15:38:15.660922,-25
2021-12-24 15:38:15.660931,-42
2021-12-24 15:38:15.660941,-61
2021-12-24 15:38:15.660950,-80
2021-12-24 15:38:15.660959,-87
2021-12-24 15:38:15.660969,-91
2021-12-24 15:38:15.660978,-91
2021-12-24 15:38:15.660987,-80
2021-12-24 15:38:15.885523,-58
2021-12-24 15:38:15.885554,-25
2021-12-24 15:38:15.885566,18
2021-12-24 15:38:15.885576,68
2021-12-24 15:38:15.885586,117
2021-12-24 15:38:15.885596,155
2021-12-24 15:38:15.885605,174
2021-12-24 15:38:15.885615,188
2021-12-24 15:38:15.885625,195
2021-12-24 15:38:15.885634,188
2021-12-24 15:38:15.885644,183
2021-12-24 15:38:15.885654,179
2021-12-24 15:38:15.885663,171
2021-12-24 15:38:15.885673,171
2021-12-24 15:38:15.885683,169
2021-12-24 15:38:15.885693,157
2021-12-24 15:38:15.885703,150
2021-12-24 15:38:15.885712,153
2021-12-24 15:38:15.885722,150
2021-12-24 15:38:15.885732,146
2021-12-24 15:38:15.885741,143
2021-12-24 15:38:15.885751,139
2021-12-24 15:38:15.885761,136
2021-12-24 15:38:15.885771,136
2021-12-24 15:38:15.885780,139
2021-12-24 15:38:15.885790,139
2021-12-24 15:38:15.885800,139
2021-12-24 15:38:15.885809,139
2021-12-24 15:38:15.885819,139
2021-12-24 15:38:15.885829,124
2021-12-24 15:38:16.110970,98
2021-12-24 15:38:16.111002,84
2021-12-24 15:38:16.111014,89
2021-12-24 15:38:16.111023,98
2021-12-24 15:38:16.111033,106
2021-12-24 15:38:16.111042,115
2021-12-24 15:38:16.111052,122
2021-12-24 15:38:16.111061,120
2021-12-24 15:38:16.111071,108
2021-12-24 15:38:16.111080,103
2021-12-24 15:38:16.111090,106
2021-12-24 15:38:16.111099,106
2021-12-24 15:38:16.111109,108
2021-12-24 15:38:16.111118,139
2021-12-24 15:38:16.111127,63
2021-12-24 15:38:16.111137,-327
2021-12-24 15:38:16.111147,-782
2021-12-24 15:38:16.111156,-617
2021-12-24 15:38:16.111166,122
2021-12-24 15:38:16.111175,435
2021-12-24 15:38:16.111185,155
2021-12-24 15:38:16.111194,77
2021-12-24 15:38:16.111204,195
2021-12-24 15:38:16.111213,143
2021-12-24 15:38:16.111223,94
2021-12-24 15:38:16.111232,134
2021-12-24 15:38:16.111242,129
2021-12-24 15:38:16.111251,96
2021-12-24 15:38:16.111261,103
2021-12-24 15:38:16.111270,106
2021-12-24 15:38:16.424273,89
2021-12-24 15:38:16.424296,82
2021-12-24 15:38:16.424303,80
2021-12-24 15:38:16.424310,70
2021-12-24 15:38:16.424317,56
2021-12-24 15:38:16.424323,49
2021-12-24 15:38:16.424329,35
2021-12-24 15:38:16.424336,14
2021-12-24 15:38:16.424342,-4
2021-12-24 15:38:16.424349,-25
2021-12-24 15:38:16.424355,-47
2021-12-24 15:38:16.424361,-63
2021-12-24 15:38:16.424368,-77
2021-12-24 15:38:16.424374,-94
2021-12-24 15:38:16.424381,-101
2021-12-24 15:38:16.424387,-96
2021-12-24 15:38:16.424393,-84
2021-12-24 15:38:16.424400,-70
2021-12-24 15:38:16.424406,-40
2021-12-24 15:38:16.424413,9
2021-12-24 15:38:16.424419,61
2021-12-24 15:38:16.424426,103
2021-12-24 15:38:16.424432,141
2021-12-24 15:38:16.424439,171
2021-12-24 15:38:16.424445,186
2021-12-24 15:38:16.424461,186
2021-12-24 15:38:16.424468,183
2021-12-24 15:38:16.424474,186
2021-12-24 15:38:16.424480,183
2021-12-24 15:38:16.424487,181
2021-12-24 15:38:16.560665,181
2021-12-24 15:38:16.560695,176
2021-12-24 15:38:16.560707,169
2021-12-24 15:38:16.560717,167
2021-12-24 15:38:16.560726,167
2021-12-24 15:38:16.560736,167
2021-12-24 15:38:16.560745,162
2021-12-24 15:38:16.560755,155
2021-12-24 15:38:16.560765,153
2021-12-24 15:38:16.560774,153
2021-12-24 15:38:16.560784,155
2021-12-24 15:38:16.560794,157
2021-12-24 15:38:16.560803,153
2021-12-24 15:38:16.560813,146
2021-12-24 15:38:16.560823,150
2021-12-24 15:38:16.560832,155
2021-12-24 15:38:16.560842,157
2021-12-24 15:38:16.560852,157
2021-12-24 15:38:16.560861,146
2021-12-24 15:38:16.560871,120
2021-12-24 15:38:16.560881,103
2021-12-24 15:38:16.560891,106
2021-12-24 15:38:16.560900,120
2021-12-24 15:38:16.560910,129
2021-12-24 15:38:16.560919,139
2021-12-24 15:38:16.560929,146
2021-12-24 15:38:16.560939,148
2021-12-24 15:38:16.560949,139
2021-12-24 15:38:16.560958,136
2021-12-24 15:38:16.560968,134
2021-12-24 15:38:16.786116,129
2021-12-24 15:38:16.786146,124
2021-12-24 15:38:16.786157,143
2021-12-24 15:38:16.786167,131
2021-12-24 15:38:16.786177,-141
2021-12-24 15:38:16.786186,-638
2021-12-24 15:38:16.786196,-744
2021-12-24 15:38:16.786206,-115
2021-12-24 15:38:16.786216,438
2021-12-24 15:38:16.786225,270
2021-12-24 15:38:16.786235,68
2021-12-24 15:38:16.786245,179
2021-12-24 15:38:16.786254,181
2021-12-24 15:38:16.786263,110
2021-12-24 15:38:16.786273,141
2021-12-24 15:38:16.786282,155
2021-12-24 15:38:16.786292,127
2021-12-24 15:38:16.786301,124
2021-12-24 15:38:16.786311,129
2021-12-24 15:38:16.786320,115
2021-12-24 15:38:16.786330,106
2021-12-24 15:38:16.786339,103
2021-12-24 15:38:16.786349,94
2021-12-24 15:38:16.786358,77
2021-12-24 15:38:16.786368,63
2021-12-24 15:38:16.786377,51
2021-12-24 15:38:16.786387,35
2021-12-24 15:38:16.786396,14
2021-12-24 15:38:16.786406,-7
2021-12-24 15:38:16.786415,-30
2021-12-24 15:38:17.010634,-56
2021-12-24 15:38:17.010656,-73
2021-12-24 15:38:17.010664,-87
2021-12-24 15:38:17.010670,-96
2021-12-24 15:38:17.010677,-98
2021-12-24 15:38:17.010683,-96
2021-12-24 15:38:17.010689,-91
2021-12-24 15:38:17.010696,-70
2021-12-24 15:38:17.010702,-28
2021-12-24 15:38:17.010708,21
2021-12-24 15:38:17.010715,65
2021-12-24 15:38:17.010721,98
2021-12-24 15:38:17.010727,127
2021-12-24 15:38:17.010734,143
2021-12-24 15:38:17.010740,148
2021-12-24 15:38:17.010746,148
2021-12-24 15:38:17.010753,146
2021-12-24 15:38:17.010759,141
2021-12-24 15:38:17.010765,139
2021-12-24 15:38:17.010772,136
2021-12-24 15:38:17.010778,129
2021-12-24 15:38:17.010784,122
2021-12-24 15:38:17.010791,120
2021-12-24 15:38:17.010797,120
2021-12-24 15:38:17.010803,117
2021-12-24 15:38:17.010810,113
2021-12-24 15:38:17.010816,110
2021-12-24 15:38:17.010822,108
2021-12-24 15:38:17.010829,96
2021-12-24 15:38:17.010835,94
2021-12-24 15:38:17.280346,96
2021-12-24 15:38:17.280369,94
2021-12-24 15:38:17.280376,84
2021-12-24 15:38:17.280383,82
2021-12-24 15:38:17.280389,77
2021-12-24 15:38:17.280395,75
2021-12-24 15:38:17.280402,73
2021-12-24 15:38:17.280408,63
2021-12-24 15:38:17.280414,56
2021-12-24 15:38:17.280420,54
2021-12-24 15:38:17.280427,44
2021-12-24 15:38:17.280433,18
2021-12-24 15:38:17.280439,-4
2021-12-24 15:38:17.280446,-4
2021-12-24 15:38:17.280452,7
2021-12-24 15:38:17.280458,18
2021-12-24 15:38:17.280464,28
2021-12-24 15:38:17.280471,35
2021-12-24 15:38:17.280477,40
2021-12-24 15:38:17.280487,40
2021-12-24 15:38:17.280493,37
2021-12-24 15:38:17.280500,32
2021-12-24 15:38:17.280506,25
2021-12-24 15:38:17.280512,23
2021-12-24 15:38:17.280518,40
2021-12-24 15:38:17.280525,70
2021-12-24 15:38:17.280531,-68
2021-12-24 15:38:17.280537,-518
2021-12-24 15:38:17.280544,-869
2021-12-24 15:38:17.280550,-490
2021-12-24 15:38:17.505643,226
2021-12-24 15:38:17.505664,306
2021-12-24 15:38:17.505672,16
2021-12-24 15:38:17.505679,42
2021-12-24 15:38:17.505685,113
2021-12-24 15:38:17.505691,32
2021-12-24 15:38:17.505698,23
2021-12-24 15:38:17.505704,61
2021-12-24 15:38:17.505710,37
2021-12-24 15:38:17.505716,14
2021-12-24 15:38:17.505723,18
2021-12-24 15:38:17.505729,9
2021-12-24 15:38:17.505735,-4
2021-12-24 15:38:17.505742,-9
2021-12-24 15:38:17.505748,-16
2021-12-24 15:38:17.505754,-32
2021-12-24 15:38:17.505761,-54
2021-12-24 15:38:17.505767,-65
2021-12-24 15:38:17.505773,-75
2021-12-24 15:38:17.505780,-94
2021-12-24 15:38:17.505786,-117
2021-12-24 15:38:17.505793,-141
2021-12-24 15:38:17.505799,-162
2021-12-24 15:38:17.505805,-181
2021-12-24 15:38:17.505811,-200
2021-12-24 15:38:17.505818,-212
2021-12-24 15:38:17.505824,-212
2021-12-24 15:38:17.505830,-209
2021-12-24 15:38:17.505837,-209
2021-12-24 15:38:17.505843,-193
2021-12-24 15:38:17.775670,-157
2021-12-24 15:38:17.775699,-113
2021-12-24 15:38:17.775711,-61
2021-12-24 15:38:17.775721,-21
2021-12-24 15:38:17.775731,11
2021-12-24 15:38:17.775741,37
2021-12-24 15:38:17.775751,44
2021-12-24 15:38:17.775761,47
2021-12-24 15:38:17.775770,49
2021-12-24 15:38:17.775780,47
2021-12-24 15:38:17.775790,40
2021-12-24 15:38:17.775800,32
2021-12-24 15:38:17.775810,25
2021-12-24 15:38:17.775820,18
2021-12-24 15:38:17.775830,11
2021-12-24 15:38:17.775840,2
2021-12-24 15:38:17.775850,-7
2021-12-24 15:38:17.775860,-4
2021-12-24 15:38:17.775869,7
2021-12-24 15:38:17.775879,9
2021-12-24 15:38:17.775890,0
2021-12-24 15:38:17.775900,-4
2021-12-24 15:38:17.775910,0
2021-12-24 15:38:17.775920,-2
2021-12-24 15:38:17.775930,0
2021-12-24 15:38:17.775940,4
2021-12-24 15:38:17.775949,-4
2021-12-24 15:38:17.775959,-14
2021-12-24 15:38:17.775969,-7
2021-12-24 15:38:17.775979,2
2021-12-24 15:38:17.955905,-14
2021-12-24 15:38:17.955934,-42
2021-12-24 15:38:17.955946,-56
2021-12-24 15:38:17.955956,-54
2021-12-24 15:38:17.955966,-42
2021-12-24 15:38:17.955976,-21
2021-12-24 15:38:17.955986,-9
2021-12-24 15:38:17.955996,-7
2021-12-24 15:38:17.956005,-9
2021-12-24 15:38:17.956015,-9
2021-12-24 15:38:17.956025,-7
2021-12-24 15:38:17.956035,-9
2021-12-24 15:38:17.956045,-18
2021-12-24 15:38:17.956054,-23
2021-12-24 15:38:17.956064,-2
2021-12-24 15:38:17.956074,-11
2021-12-24 15:38:17.956084,-266
2021-12-24 15:38:17.956094,-742
2021-12-24 15:38:17.956103,-836
2021-12-24 15:38:17.956113,-174
2021-12-24 15:38:17.956123,386
2021-12-24 15:38:17.956133,164
2021-12-24 15:38:17.956142,-58
2021-12-24 15:38:17.956152,70
2021-12-24 15:38:17.956162,63
2021-12-24 15:38:17.956172,-23
2021-12-24 15:38:17.956181,11
2021-12-24 15:38:17.956191,30
2021-12-24 15:38:17.956201,0
2021-12-24 15:38:17.956211,2
2021-12-24 15:38:18.269738,9
2021-12-24 15:38:18.269757,-7
2021-12-24 15:38:18.269765,-16
2021-12-24 15:38:18.269771,-21
2021-12-24 15:38:18.269778,-30
2021-12-24 15:38:18.269784,-35
2021-12-24 15:38:18.269791,-47
2021-12-24 15:38:18.269797,-68
2021-12-24 15:38:18.269803,-87
2021-12-24 15:38:18.269810,-106
2021-12-24 15:38:18.269816,-131
2021-12-24 15:38:18.269823,-157
2021-12-24 15:38:18.269829,-179
2021-12-24 15:38:18.269845,-204
2021-12-24 15:38:18.269852,-226
2021-12-24 15:38:18.269858,-230
2021-12-24 15:38:18.269865,-226
2021-12-24 15:38:18.269871,-226
2021-12-24 15:38:18.269877,-221
2021-12-24 15:38:18.269884,-190
2021-12-24 15:38:18.269890,-143
2021-12-24 15:38:18.269897,-87
2021-12-24 15:38:18.269903,-32
2021-12-24 15:38:18.269910,11
2021-12-24 15:38:18.269916,44
2021-12-24 15:38:18.269922,63
2021-12-24 15:38:18.269929,75
2021-12-24 15:38:18.269935,82
2021-12-24 15:38:18.269942,84
2021-12-24 15:38:18.269948,80
2021-12-24 15:38:18.449156,77
2021-12-24 15:38:18.449185,70
2021-12-24 15:38:18.449197,65
2021-12-24 15:38:18.449207,68
2021-12-24 15:38:18.449217,70
2021-12-24 15:38:18.449227,65
2021-12-24 15:38:18.449236,61
2021-12-24 15:38:18.449246,61
2021-12-24 15:38:18.449256,63
2021-12-24 15:38:18.449265,58
2021-12-24 15:38:18.449275,56
2021-12-24 15:38:18.449285,54
2021-12-24 15:38:18.449295,44
2021-12-24 15:38:18.449304,40
2021-12-24 15:38:18.449314,44
2021-12-24 15:38:18.449324,44
2021-12-24 15:38:18.449333,42
2021-12-24 15:38:18.449343,44
2021-12-24 15:38:18.449353,37
2021-12-24 15:38:18.449362,18
2021-12-24 15:38:18.449372,11
2021-12-24 15:38:18.449382,21
2021-12-24 15:38:18.449391,32
2021-12-24 15:38:18.449401,42
2021-12-24 15:38:18.449411,51
2021-12-24 15:38:18.449421,63
2021-12-24 15:38:18.449430,65
2021-12-24 15:38:18.449440,65
2021-12-24 15:38:18.449450,63
2021-12-24 15:38:18.449459,58
2021-12-24 15:38:18.674874,51
2021-12-24 15:38:18.674904,65
2021-12-24 15:38:18.674916,101
2021-12-24 15:38:18.674926,-11
2021-12-24 15:38:18.674936,-442
2021-12-24 15:38:18.674946,-829
2021-12-24 15:38:18.674955,-490
2021-12-24 15:38:18.674965,278
2021-12-24 15:38:18.674975,402
2021-12-24 15:38:18.674985,63
2021-12-24 15:38:18.674994,75
2021-12-24 15:38:18.675004,176
2021-12-24 15:38:18.675014,82
2021-12-24 15:38:18.675024,58
2021-12-24 15:38:18.675034,106
2021-12-24 15:38:18.675043,82
2021-12-24 15:38:18.675053,56
2021-12-24 15:38:18.675063,70
2021-12-24 15:38:18.675073,68
2021-12-24 15:38:18.675083,49
2021-12-24 15:38:18.675093,42
2021-12-24 15:38:18.675103,42
2021-12-24 15:38:18.675113,32
2021-12-24 15:38:18.675122,18
2021-12-24 15:38:18.675132,0
2021-12-24 15:38:18.675142,-14
2021-12-24 15:38:18.675152,-30
2021-12-24 15:38:18.675162,-54
2021-12-24 15:38:18.675172,-80
2021-12-24 15:38:18.675181,-103
2021-12-24 15:38:18.855291,-124
2021-12-24 15:38:18.855311,-146
2021-12-24 15:38:18.855319,-155
2021-12-24 15:38:18.855325,-153
2021-12-24 15:38:18.855332,-155
2021-12-24 15:38:18.855338,-153
2021-12-24 15:38:18.855345,-136
2021-12-24 15:38:18.855351,-96
2021-12-24 15:38:18.855358,-40
2021-12-24 15:38:18.855364,18
2021-12-24 15:38:18.855370,63
2021-12-24 15:38:18.855377,91
2021-12-24 15:38:18.855383,110
2021-12-24 15:38:18.855390,127
2021-12-24 15:38:18.855396,139
2021-12-24 15:38:18.855402,136
2021-12-24 15:38:18.855409,127
2021-12-24 15:38:18.855415,124
2021-12-24 15:38:18.855422,127
2021-12-24 15:38:18.855428,122
2021-12-24 15:38:18.855434,120
2021-12-24 15:38:18.855441,115
2021-12-24 15:38:18.855447,113
2021-12-24 15:38:18.855453,110
2021-12-24 15:38:18.855460,106
2021-12-24 15:38:18.855466,103
2021-12-24 15:38:18.855473,101
2021-12-24 15:38:18.855479,103
2021-12-24 15:38:18.855485,98
2021-12-24 15:38:18.855492,91
2021-12-24 15:38:19.080167,89
2021-12-24 15:38:19.080190,96
2021-12-24 15:38:19.080197,96
2021-12-24 15:38:19.080204,91
2021-12-24 15:38:19.080210,87
2021-12-24 15:38:19.080217,84
2021-12-24 15:38:19.080224,89
2021-12-24 15:38:19.080230,94
2021-12-24 15:38:19.080237,87
2021-12-24 15:38:19.080243,70
2021-12-24 15:38:19.080249,49
2021-12-24 15:38:19.080255,47
2021-12-24 15:38:19.080262,63
2021-12-24 15:38:19.080268,77
2021-12-24 15:38:19.080274,87
2021-12-24 15:38:19.080280,98
2021-12-24 15:38:19.080287,101
2021-12-24 15:38:19.080293,96
2021-12-24 15:38:19.080299,94
2021-12-24 15:38:19.080306,96
2021-12-24 15:38:19.080312,94
2021-12-24 15:38:19.080318,91
2021-12-24 15:38:19.080325,122
2021-12-24 15:38:19.080331,127
2021-12-24 15:38:19.080337,-134
2021-12-24 15:38:19.080344,-638
2021-12-24 15:38:19.080350,-763
2021-12-24 15:38:19.080357,-124
2021-12-24 15:38:19.080363,459
2021-12-24 15:38:19.080369,282
2021-12-24 15:38:19.350947,56
2021-12-24 15:38:19.350976,174
2021-12-24 15:38:19.350988,186
2021-12-24 15:38:19.350998,101
2021-12-24 15:38:19.351008,122
2021-12-24 15:38:19.351017,143
2021-12-24 15:38:19.351027,115
2021-12-24 15:38:19.351036,110
2021-12-24 15:38:19.351046,117
2021-12-24 15:38:19.351055,103
2021-12-24 15:38:19.351065,89
2021-12-24 15:38:19.351075,89
2021-12-24 15:38:19.351084,84
2021-12-24 15:38:19.351094,77
2021-12-24 15:38:19.351103,68
2021-12-24 15:38:19.351113,51
2021-12-24 15:38:19.351122,32
2021-12-24 15:38:19.351132,16
2021-12-24 15:38:19.351142,-2
2021-12-24 15:38:19.351151,-25
2021-12-24 15:38:19.351161,-54
2021-12-24 15:38:19.351170,-77
2021-12-24 15:38:19.351180,-91
2021-12-24 15:38:19.351189,-96
2021-12-24 15:38:19.351199,-91
2021-12-24 15:38:19.351209,-84
2021-12-24 15:38:19.351218,-73
2021-12-24 15:38:19.351228,-56
2021-12-24 15:38:19.351238,-14
2021-12-24 15:38:19.351247,42
2021-12-24 15:38:19.575640,94
2021-12-24 15:38:19.575670,134
2021-12-24 15:38:19.575682,164
2021-12-24 15:38:19.575691,181
2021-12-24 15:38:19.575701,188
2021-12-24 15:38:19.575711,195
2021-12-24 15:38:19.575720,200
2021-12-24 15:38:19.575730,193
2021-12-24 15:38:19.575739,186
2021-12-24 15:38:19.575749,179
2021-12-24 15:38:19.575758,171
2021-12-24 15:38:19.575768,169
2021-12-24 15:38:19.575778,164
2021-12-24 15:38:19.575787,157
2021-12-24 15:38:19.575796,150
2021-12-24 15:38:19.575806,139
2021-12-24 15:38:19.575815,131
2021-12-24 15:38:19.575825,129
2021-12-24 15:38:19.575834,129
2021-12-24 15:38:19.575844,131
2021-12-24 15:38:19.575854,129
2021-12-24 15:38:19.575863,124
2021-12-24 15:38:19.575872,117
2021-12-24 15:38:19.575882,117
2021-12-24 15:38:19.575891,120
2021-12-24 15:38:19.575901,122
2021-12-24 15:38:19.575910,120
2021-12-24 15:38:19.575920,120
2021-12-24 15:38:19.575929,120
2021-12-24 15:38:19.575938,124
2021-12-24 15:38:19.800037,127
2021-12-24 15:38:19.800058,115
2021-12-24 15:38:19.800064,91
2021-12-24 15:38:19.800070,75
2021-12-24 15:38:19.800075,80
2021-12-24 15:38:19.800080,89
2021-12-24 15:38:19.800086,96
2021-12-24 15:38:19.800091,108
2021-12-24 15:38:19.800096,113
2021-12-24 15:38:19.800101,108
2021-12-24 15:38:19.800106,108
2021-12-24 15:38:19.800111,108
2021-12-24 15:38:19.800116,108
2021-12-24 15:38:19.800121,106
2021-12-24 15:38:19.800126,101
2021-12-24 15:38:19.800131,122
2021-12-24 15:38:19.800137,117
2021-12-24 15:38:19.800142,-143
2021-12-24 15:38:19.800147,-633
2021-12-24 15:38:19.800153,-763
2021-12-24 15:38:19.800158,-160
2021-12-24 15:38:19.800163,419
2021-12-24 15:38:19.800168,285
2021-12-24 15:38:19.800187,70
2021-12-24 15:38:19.800192,174
2021-12-24 15:38:19.800197,186
2021-12-24 15:38:19.800201,108
2021-12-24 15:38:19.800206,127
2021-12-24 15:38:19.800211,148
2021-12-24 15:38:19.800216,122
2021-12-24 15:38:20.025255,122
2021-12-24 15:38:20.025275,129
2021-12-24 15:38:20.025283,117
2021-12-24 15:38:20.025290,106
2021-12-24 15:38:20.025296,101
2021-12-24 15:38:20.025303,94
2021-12-24 15:38:20.025309,82
2021-12-24 15:38:20.025315,65
2021-12-24 15:38:20.025322,49
2021-12-24 15:38:20.025328,35
2021-12-24 15:38:20.025335,18
2021-12-24 15:38:20.025341,0
2021-12-24 15:38:20.025348,-23
2021-12-24 15:38:20.025354,-49
2021-12-24 15:38:20.025361,-70
2021-12-24 15:38:20.025367,-82
2021-12-24 15:38:20.025374,-89
2021-12-24 15:38:20.025380,-91
2021-12-24 15:38:20.025386,-87
2021-12-24 15:38:20.025393,-80
2021-12-24 15:38:20.025399,-61
2021-12-24 15:38:20.025406,-25
2021-12-24 15:38:20.025412,21
2021-12-24 15:38:20.025419,65
2021-12-24 15:38:20.025425,108
2021-12-24 15:38:20.025431,139
2021-12-24 15:38:20.025438,155
2021-12-24 15:38:20.025444,162
2021-12-24 15:38:20.025451,164
2021-12-24 15:38:20.025457,164
2021-12-24 15:38:20.250957,162
2021-12-24 15:38:20.250987,157
2021-12-24 15:38:20.250998,148
2021-12-24 15:38:20.251009,139
2021-12-24 15:38:20.251019,134
2021-12-24 15:38:20.251033,129
2021-12-24 15:38:20.251043,120
2021-12-24 15:38:20.251053,110
2021-12-24 15:38:20.251063,110
2021-12-24 15:38:20.251073,113
2021-12-24 15:38:20.251083,106
2021-12-24 15:38:20.251092,94
2021-12-24 15:38:20.251102,87
2021-12-24 15:38:20.251112,89
2021-12-24 15:38:20.251122,91
2021-12-24 15:38:20.251131,94
2021-12-24 15:38:20.251141,96
2021-12-24 15:38:20.251151,96
2021-12-24 15:38:20.251161,94
2021-12-24 15:38:20.251170,91
2021-12-24 15:38:20.251180,96
2021-12-24 15:38:20.251190,94
2021-12-24 15:38:20.251200,91
2021-12-24 15:38:20.251209,101
2021-12-24 15:38:20.251219,108
2021-12-24 15:38:20.251229,101
2021-12-24 15:38:20.251239,82
2021-12-24 15:38:20.251248,58
2021-12-24 15:38:20.251258,58
2021-12-24 15:38:20.251268,73
2021-12-24 15:38:20.564724,84
2021-12-24 15:38:20.564753,91
2021-12-24 15:38:20.564765,103
2021-12-24 15:38:20.564775,108
2021-12-24 15:38:20.564785,106
2021-12-24 15:38:20.564794,106
2021-12-24 15:38:20.564804,98
2021-12-24 15:38:20.564814,94
2021-12-24 15:38:20.564823,94
2021-12-24 15:38:20.564833,110
2021-12-24 15:38:20.564842,136
2021-12-24 15:38:20.564852,-14
2021-12-24 15:38:20.564862,-466
2021-12-24 15:38:20.564872,-786
2021-12-24 15:38:20.564881,-393
2021-12-24 15:38:20.564891,299
2021-12-24 15:38:20.564900,369
2021-12-24 15:38:20.564910,91
2021-12-24 15:38:20.564920,122
2021-12-24 15:38:20.564929,200
2021-12-24 15:38:20.564939,127
2021-12-24 15:38:20.564948,113
2021-12-24 15:38:20.564958,146
2021-12-24 15:38:20.564968,129
2021-12-24 15:38:20.564977,115
2021-12-24 15:38:20.564987,122
2021-12-24 15:38:20.564996,115
2021-12-24 15:38:20.565005,101
2021-12-24 15:38:20.565015,96
2021-12-24 15:38:20.565025,91
2021-12-24 15:38:20.700945,77
2021-12-24 15:38:20.700975,65
2021-12-24 15:38:20.700986,56
2021-12-24 15:38:20.700996,42
2021-12-24 15:38:20.701006,21
2021-12-24 15:38:20.701015,-4
2021-12-24 15:38:20.701025,-25
2021-12-24 15:38:20.701034,-42
2021-12-24 15:38:20.701044,-58
2021-12-24 15:38:20.701053,-77
2021-12-24 15:38:20.701063,-94
2021-12-24 15:38:20.701072,-101
2021-12-24 15:38:20.701081,-98
2021-12-24 15:38:20.701091,-89
2021-12-24 15:38:20.701100,-77
2021-12-24 15:38:20.701110,-54
2021-12-24 15:38:20.701119,-18
2021-12-24 15:38:20.701129,28
2021-12-24 15:38:20.701138,73
2021-12-24 15:38:20.701147,110
2021-12-24 15:38:20.701157,139
2021-12-24 15:38:20.701166,153
2021-12-24 15:38:20.701175,160
2021-12-24 15:38:20.701185,160
2021-12-24 15:38:20.701194,155
2021-12-24 15:38:20.701203,150
2021-12-24 15:38:20.701213,146
2021-12-24 15:38:20.701222,136
2021-12-24 15:38:20.701232,127
2021-12-24 15:38:20.701241,117
2021-12-24 15:38:21.060455,117
2021-12-24 15:38:21.060485,115
2021-12-24 15:38:21.060496,106
2021-12-24 15:38:21.060506,96
2021-12-24 15:38:21.060516,94
2021-12-24 15:38:21.060526,91
2021-12-24 15:38:21.060535,96
2021-12-24 15:38:21.060545,98
2021-12-24 15:38:21.060555,96
2021-12-24 15:38:21.060564,91
2021-12-24 15:38:21.060574,87
2021-12-24 15:38:21.060584,87
2021-12-24 15:38:21.060593,89
2021-12-24 15:38:21.060603,91
2021-12-24 15:38:21.060613,87
2021-12-24 15:38:21.060622,84
2021-12-24 15:38:21.060632,87
2021-12-24 15:38:21.060642,94
2021-12-24 15:38:21.060652,94
2021-12-24 15:38:21.060661,77
2021-12-24 15:38:21.060671,49
2021-12-24 15:38:21.060681,40
2021-12-24 15:38:21.060690,51
2021-12-24 15:38:21.060700,68
2021-12-24 15:38:21.060709,77
2021-12-24 15:38:21.060719,87
2021-12-24 15:38:21.060729,94
2021-12-24 15:38:21.060738,91
2021-12-24 15:38:21.060748,87
2021-12-24 15:38:21.060758,89
2021-12-24 15:38:21.195779,89
2021-12-24 15:38:21.195809,84
2021-12-24 15:38:21.195820,91
2021-12-24 15:38:21.195830,127
2021-12-24 15:38:21.195840,42
2021-12-24 15:38:21.195850,-343
2021-12-24 15:38:21.195859,-753
2021-12-24 15:38:21.195869,-532
2021-12-24 15:38:21.195879,197
2021-12-24 15:38:21.195888,424
2021-12-24 15:38:21.195898,108
2021-12-24 15:38:21.195908,63
2021-12-24 15:38:21.195918,179
2021-12-24 15:38:21.195927,110
2021-12-24 15:38:21.195937,75
2021-12-24 15:38:21.195946,110
2021-12-24 15:38:21.195956,91
2021-12-24 15:38:21.195965,70
2021-12-24 15:38:21.195975,82
2021-12-24 15:38:21.195984,77
2021-12-24 15:38:21.195994,61
2021-12-24 15:38:21.196004,47
2021-12-24 15:38:21.196013,35
2021-12-24 15:38:21.196023,28
2021-12-24 15:38:21.196032,18
2021-12-24 15:38:21.196042,2
2021-12-24 15:38:21.196052,-16
2021-12-24 15:38:21.196061,-32
2021-12-24 15:38:21.196071,-44
2021-12-24 15:38:21.196080,-70
2021-12-24 15:38:21.510510,-96
2021-12-24 15:38:21.510539,-113
2021-12-24 15:38:21.510551,-134
2021-12-24 15:38:21.510561,-160
2021-12-24 15:38:21.510571,-164
2021-12-24 15:38:21.510580,-155
2021-12-24 15:38:21.510590,-155
2021-12-24 15:38:21.510600,-148
2021-12-24 15:38:21.510610,-129
2021-12-24 15:38:21.510619,-96
2021-12-24 15:38:21.510629,-44
2021-12-24 15:38:21.510639,9
2021-12-24 15:38:21.510649,47
2021-12-24 15:38:21.510659,80
2021-12-24 15:38:21.510668,94
2021-12-24 15:38:21.510678,94
2021-12-24 15:38:21.510688,98
2021-12-24 15:38:21.510697,106
2021-12-24 15:38:21.510707,94
2021-12-24 15:38:21.510716,84
2021-12-24 15:38:21.510726,82
2021-12-24 15:38:21.510736,75
2021-12-24 15:38:21.510745,75
2021-12-24 15:38:21.510755,77
2021-12-24 15:38:21.510765,77
2021-12-24 15:38:21.510774,73
2021-12-24 15:38:21.510784,70
2021-12-24 15:38:21.510793,65
2021-12-24 15:38:21.510803,65
2021-12-24 15:38:21.510813,68
2021-12-24 15:38:21.645602,70
2021-12-24 15:38:21.645633,80
2021-12-24 15:38:21.645645,77
2021-12-24 15:38:21.645655,70
2021-12-24 15:38:21.645665,77
2021-12-24 15:38:21.645675,80
2021-12-24 15:38:21.645684,77
2021-12-24 15:38:21.645694,75
2021-12-24 15:38:21.645703,63
2021-12-24 15:38:21.645713,44
2021-12-24 15:38:21.645723,37
2021-12-24 15:38:21.645732,42
2021-12-24 15:38:21.645742,54
2021-12-24 15:38:21.645752,68
2021-12-24 15:38:21.645761,75
2021-12-24 15:38:21.645771,77
2021-12-24 15:38:21.645781,77
2021-12-24 15:38:21.645790,77
2021-12-24 15:38:21.645800,75
2021-12-24 15:38:21.645810,73
2021-12-24 15:38:21.645819,68
2021-12-24 15:38:21.645829,77
2021-12-24 15:38:21.645838,103
2021-12-24 15:38:21.645848,14
2021-12-24 15:38:21.645858,-381
2021-12-24 15:38:21.645867,-793
2021-12-24 15:38:21.645877,-537
2021-12-24 15:38:21.645887,237
2021-12-24 15:38:21.645897,452
2021-12-24 15:38:21.645907,103
2021-12-24 15:38:21.915873,65
2021-12-24 15:38:21.915903,186
2021-12-24 15:38:21.915914,106
2021-12-24 15:38:21.915924,73
2021-12-24 15:38:21.915934,122
2021-12-24 15:38:21.915944,106
2021-12-24 15:38:21.915954,80
2021-12-24 15:38:21.915964,91
2021-12-24 15:38:21.915974,84
2021-12-24 15:38:21.915983,68
2021-12-24 15:38:21.915993,61
2021-12-24 15:38:21.916003,56
2021-12-24 15:38:21.916012,47
2021-12-24 15:38:21.916022,32
2021-12-24 15:38:21.916032,23
2021-12-24 15:38:21.916041,9
2021-12-24 15:38:21.916051,-4
2021-12-24 15:38:21.916061,-23
2021-12-24 15:38:21.916071,-44
2021-12-24 15:38:21.916081,-70
2021-12-24 15:38:21.916090,-91
2021-12-24 15:38:21.916100,-110
2021-12-24 15:38:21.916109,-127
2021-12-24 15:38:21.916119,-134
2021-12-24 15:38:21.916129,-127
2021-12-24 15:38:21.916138,-120
2021-12-24 15:38:21.916148,-110
2021-12-24 15:38:21.916158,-77
2021-12-24 15:38:21.916168,-25
2021-12-24 15:38:21.916177,30
2021-12-24 15:38:22.095581,80
2021-12-24 15:38:22.095603,115
2021-12-24 15:38:22.095611,141
2021-12-24 15:38:22.095617,150
2021-12-24 15:38:22.095624,153
2021-12-24 15:38:22.095630,153
2021-12-24 15:38:22.095637,155
2021-12-24 15:38:22.095643,150
2021-12-24 15:38:22.095650,146
2021-12-24 15:38:22.095656,141
2021-12-24 15:38:22.095662,136
2021-12-24 15:38:22.095669,139
2021-12-24 15:38:22.095675,134
2021-12-24 15:38:22.095682,129
2021-12-24 15:38:22.095688,127
2021-12-24 15:38:22.095717,127
2021-12-24 15:38:22.095724,127
2021-12-24 15:38:22.095730,127
2021-12-24 15:38:22.095737,127
2021-12-24 15:38:22.095743,127
2021-12-24 15:38:22.095750,129
2021-12-24 15:38:22.095756,131
2021-12-24 15:38:22.095763,131
2021-12-24 15:38:22.095769,134
2021-12-24 15:38:22.095775,131
2021-12-24 15:38:22.095782,131
2021-12-24 15:38:22.095788,134
2021-12-24 15:38:22.095794,127
2021-12-24 15:38:22.095801,113
2021-12-24 15:38:22.095807,103
2021-12-24 15:38:22.364791,106
2021-12-24 15:38:22.364822,117
2021-12-24 15:38:22.364833,129
2021-12-24 15:38:22.364844,134
2021-12-24 15:38:22.364854,141
2021-12-24 15:38:22.364863,143
2021-12-24 15:38:22.364873,136
2021-12-24 15:38:22.364883,139
2021-12-24 15:38:22.364893,146
2021-12-24 15:38:22.364902,143
2021-12-24 15:38:22.364912,143
2021-12-24 15:38:22.364922,176
2021-12-24 15:38:22.364932,143
2021-12-24 15:38:22.364942,-171
2021-12-24 15:38:22.364952,-654
2021-12-24 15:38:22.364961,-640
2021-12-24 15:38:22.364971,73
2021-12-24 15:38:22.364981,525
2021-12-24 15:38:22.364991,266
2021-12-24 15:38:22.365001,110
2021-12-24 15:38:22.365011,245
2021-12-24 15:38:22.365021,216
2021-12-24 15:38:22.365030,148
2021-12-24 15:38:22.365040,186
2021-12-24 15:38:22.365050,193
2021-12-24 15:38:22.365060,164
2021-12-24 15:38:22.365070,171
2021-12-24 15:38:22.365080,174
2021-12-24 15:38:22.365089,157
2021-12-24 15:38:22.365099,150
2021-12-24 15:38:22.589110,150
2021-12-24 15:38:22.589139,141
2021-12-24 15:38:22.589150,131
2021-12-24 15:38:22.589160,117
2021-12-24 15:38:22.589169,101
2021-12-24 15:38:22.589179,77
2021-12-24 15:38:22.589188,61
2021-12-24 15:38:22.589198,44
2021-12-24 15:38:22.589208,18
2021-12-24 15:38:22.589218,-7
2021-12-24 15:38:22.589227,-28
2021-12-24 15:38:22.589237,-42
2021-12-24 15:38:22.589246,-54
2021-12-24 15:38:22.589256,-54
2021-12-24 15:38:22.589266,-49
2021-12-24 15:38:22.589275,-42
2021-12-24 15:38:22.589285,-30
2021-12-24 15:38:22.589294,2
2021-12-24 15:38:22.589304,54
2021-12-24 15:38:22.589313,106
2021-12-24 15:38:22.589323,146
2021-12-24 15:38:22.589332,171
2021-12-24 15:38:22.589342,188
2021-12-24 15:38:22.589352,190
2021-12-24 15:38:22.589361,188
2021-12-24 15:38:22.589371,190
2021-12-24 15:38:22.589380,183
2021-12-24 15:38:22.589390,176
2021-12-24 15:38:22.589399,169
2021-12-24 15:38:22.589409,162
2021-12-24 15:38:22.770533,157
2021-12-24 15:38:22.770553,157
2021-12-24 15:38:22.770561,155
2021-12-24 15:38:22.770568,148
2021-12-24 15:38:22.770574,141
2021-12-24 15:38:22.770580,136
2021-12-24 15:38:22.770587,136
2021-12-24 15:38:22.770593,136
2021-12-24 15:38:22.770599,134
2021-12-24 15:38:22.770605,122
2021-12-24 15:38:22.770611,113
2021-12-24 15:38:22.770618,115
2021-12-24 15:38:22.770624,120
2021-12-24 15:38:22.770630,120
2021-12-24 15:38:22.770636,122
2021-12-24 15:38:22.770643,122
2021-12-24 15:38:22.770649,122
2021-12-24 15:38:22.770655,122
2021-12-24 15:38:22.770661,108
2021-12-24 15:38:22.770667,87
2021-12-24 15:38:22.770674,80
2021-12-24 15:38:22.770680,87
2021-12-24 15:38:22.770686,94
2021-12-24 15:38:22.770692,101
2021-12-24 15:38:22.770699,113
2021-12-24 15:38:22.770705,127
2021-12-24 15:38:22.770711,129
2021-12-24 15:38:22.770717,124
2021-12-24 15:38:22.770724,124
2021-12-24 15:38:22.770730,124
2021-12-24 15:38:23.085438,122
2021-12-24 15:38:23.085459,131
2021-12-24 15:38:23.085465,162
2021-12-24 15:38:23.085471,96
2021-12-24 15:38:23.085476,-266
2021-12-24 15:38:23.085481,-723
2021-12-24 15:38:23.085487,-629
2021-12-24 15:38:23.085492,82
2021-12-24 15:38:23.085497,464
2021-12-24 15:38:23.085502,207
2021-12-24 15:38:23.085508,87
2021-12-24 15:38:23.085513,209
2021-12-24 15:38:23.085518,176
2021-12-24 15:38:23.085523,120
2021-12-24 15:38:23.085528,157
2021-12-24 15:38:23.085533,157
2021-12-24 15:38:23.085538,127
2021-12-24 15:38:23.085543,134
2021-12-24 15:38:23.085548,139
2021-12-24 15:38:23.085553,124
2021-12-24 15:38:23.085558,113
2021-12-24 15:38:23.085564,103
2021-12-24 15:38:23.085569,91
2021-12-24 15:38:23.085574,82
2021-12-24 15:38:23.085579,73
2021-12-24 15:38:23.085584,58
2021-12-24 15:38:23.085589,42
2021-12-24 15:38:23.085594,21
2021-12-24 15:38:23.085599,0
2021-12-24 15:38:23.085604,-18
2021-12-24 15:38:23.265927,-35
2021-12-24 15:38:23.265958,-51
2021-12-24 15:38:23.265969,-63
2021-12-24 15:38:23.265979,-73
2021-12-24 15:38:23.265989,-75
2021-12-24 15:38:23.265998,-68
2021-12-24 15:38:23.266008,-56
2021-12-24 15:38:23.266017,-42
2021-12-24 15:38:23.266027,-14
2021-12-24 15:38:23.266036,32
2021-12-24 15:38:23.266046,82
2021-12-24 15:38:23.266056,115
2021-12-24 15:38:23.266065,134
2021-12-24 15:38:23.266075,153
2021-12-24 15:38:23.266084,162
2021-12-24 15:38:23.266094,155
2021-12-24 15:38:23.266103,146
2021-12-24 15:38:23.266145,143
2021-12-24 15:38:23.266155,139
2021-12-24 15:38:23.266165,131
2021-12-24 15:38:23.266174,122
2021-12-24 15:38:23.266184,113
2021-12-24 15:38:23.266194,110
2021-12-24 15:38:23.266203,110
2021-12-24 15:38:23.266213,108
2021-12-24 15:38:23.266222,101
2021-12-24 15:38:23.266232,91
2021-12-24 15:38:23.266241,96
2021-12-24 15:38:23.266251,106
2021-12-24 15:38:23.266261,98
2021-12-24 15:38:23.490579,96
2021-12-24 15:38:23.490608,103
2021-12-24 15:38:23.490620,106
2021-12-24 15:38:23.490630,108
2021-12-24 15:38:23.490639,122
2021-12-24 15:38:23.490649,129
2021-12-24 15:38:23.490659,110
2021-12-24 15:38:23.490668,91
2021-12-24 15:38:23.490759,94
2021-12-24 15:38:23.490770,94
2021-12-24 15:38:23.490780,73
2021-12-24 15:38:23.490790,61
2021-12-24 15:38:23.490799,73
2021-12-24 15:38:23.490809,84
2021-12-24 15:38:23.490819,87
2021-12-24 15:38:23.490828,94
2021-12-24 15:38:23.490838,108
2021-12-24 15:38:23.490847,113
2021-12-24 15:38:23.490857,110
2021-12-24 15:38:23.490867,113
2021-12-24 15:38:23.490876,110
2021-12-24 15:38:23.490886,110
2021-12-24 15:38:23.490896,113
2021-12-24 15:38:23.490905,139
2021-12-24 15:38:23.490915,129
2021-12-24 15:38:23.490924,-122
2021-12-24 15:38:23.490934,-603
2021-12-24 15:38:23.490944,-735
2021-12-24 15:38:23.490954,-134
2021-12-24 15:38:23.490964,440
2021-12-24 15:38:23.716017,294
2021-12-24 15:38:23.716047,77
2021-12-24 15:38:23.716059,186
2021-12-24 15:38:23.716069,200
2021-12-24 15:38:23.716079,127
2021-12-24 15:38:23.716089,148
2021-12-24 15:38:23.716099,157
2021-12-24 15:38:23.716109,127
2021-12-24 15:38:23.716119,124
2021-12-24 15:38:23.716129,131
2021-12-24 15:38:23.716139,120
2021-12-24 15:38:23.716149,110
2021-12-24 15:38:23.716159,106
2021-12-24 15:38:23.716168,91
2021-12-24 15:38:23.716178,77
2021-12-24 15:38:23.716188,70
2021-12-24 15:38:23.716198,58
2021-12-24 15:38:23.716207,44
2021-12-24 15:38:23.716217,30
2021-12-24 15:38:23.716227,9
2021-12-24 15:38:23.716237,-18
2021-12-24 15:38:23.716247,-47
2021-12-24 15:38:23.716256,-68
2021-12-24 15:38:23.716266,-80
2021-12-24 15:38:23.716276,-84
2021-12-24 15:38:23.716286,-82
2021-12-24 15:38:23.716295,-82
2021-12-24 15:38:23.716305,-82
2021-12-24 15:38:23.716315,-63
2021-12-24 15:38:23.716324,-25
2021-12-24 15:38:23.940864,16
2021-12-24 15:38:23.940895,56
2021-12-24 15:38:23.940907,98
2021-12-24 15:38:23.940917,127
2021-12-24 15:38:23.940927,148
2021-12-24 15:38:23.940937,162
2021-12-24 15:38:23.940946,164
2021-12-24 15:38:23.940956,157
2021-12-24 15:38:23.940966,155
2021-12-24 15:38:23.940975,150
2021-12-24 15:38:23.940985,141
2021-12-24 15:38:23.940995,139
2021-12-24 15:38:23.941004,134
2021-12-24 15:38:23.941014,122
2021-12-24 15:38:23.941024,115
2021-12-24 15:38:23.941034,113
2021-12-24 15:38:23.941044,113
2021-12-24 15:38:23.941053,113
2021-12-24 15:38:23.941063,115
2021-12-24 15:38:23.941073,115
2021-12-24 15:38:23.941083,115
2021-12-24 15:38:23.941092,113
2021-12-24 15:38:23.941102,115
2021-12-24 15:38:23.941112,120
2021-12-24 15:38:23.941121,117
2021-12-24 15:38:23.941131,110
2021-12-24 15:38:23.941141,110
2021-12-24 15:38:23.941151,115
2021-12-24 15:38:23.941161,110
2021-12-24 15:38:23.941171,106
2021-12-24 15:38:24.165822,96
2021-12-24 15:38:24.165853,82
2021-12-24 15:38:24.165864,68
2021-12-24 15:38:24.165874,68
2021-12-24 15:38:24.165884,77
2021-12-24 15:38:24.165894,87
2021-12-24 15:38:24.165903,94
2021-12-24 15:38:24.165913,103
2021-12-24 15:38:24.165923,106
2021-12-24 15:38:24.165933,101
2021-12-24 15:38:24.165942,96
2021-12-24 15:38:24.165952,96
2021-12-24 15:38:24.165962,94
2021-12-24 15:38:24.165972,94
2021-12-24 15:38:24.165981,115
2021-12-24 15:38:24.165991,110
2021-12-24 15:38:24.166001,-136
2021-12-24 15:38:24.166011,-614
2021-12-24 15:38:24.166020,-732
2021-12-24 15:38:24.166030,-108
2021-12-24 15:38:24.166040,442
2021-12-24 15:38:24.166050,252
2021-12-24 15:38:24.166059,40
2021-12-24 15:38:24.166069,162
2021-12-24 15:38:24.166079,157
2021-12-24 15:38:24.166088,70
2021-12-24 15:38:24.166098,96
2021-12-24 15:38:24.166108,103
2021-12-24 15:38:24.166117,68
2021-12-24 15:38:24.166127,68
2021-12-24 15:38:24.390805,70
2021-12-24 15:38:24.390834,51
2021-12-24 15:38:24.390845,42
2021-12-24 15:38:24.390855,40
2021-12-24 15:38:24.390865,25
2021-12-24 15:38:24.390874,11
2021-12-24 15:38:24.390884,0
2021-12-24 15:38:24.390894,-14
2021-12-24 15:38:24.390903,-32
2021-12-24 15:38:24.390913,-49
2021-12-24 15:38:24.390922,-70
2021-12-24 15:38:24.390932,-98
2021-12-24 15:38:24.390941,-122
2021-12-24 15:38:24.390951,-139
2021-12-24 15:38:24.390960,-150
2021-12-24 15:38:24.390970,-162
2021-12-24 15:38:24.390980,-164
2021-12-24 15:38:24.390990,-157
2021-12-24 15:38:24.390999,-148
2021-12-24 15:38:24.391009,-129
2021-12-24 15:38:24.391019,-98
2021-12-24 15:38:24.391029,-54
2021-12-24 15:38:24.391038,-2
2021-12-24 15:38:24.391048,40
2021-12-24 15:38:24.391058,68
2021-12-24 15:38:24.391067,91
2021-12-24 15:38:24.391077,106
2021-12-24 15:38:24.391086,103
2021-12-24 15:38:24.391096,96
2021-12-24 15:38:24.391105,98
2021-12-24 15:38:24.795093,96
2021-12-24 15:38:24.795123,91
2021-12-24 15:38:24.795135,84
2021-12-24 15:38:24.795145,68
2021-12-24 15:38:24.795155,54
2021-12-24 15:38:24.795165,54
2021-12-24 15:38:24.795175,51
2021-12-24 15:38:24.795184,42
2021-12-24 15:38:24.795194,47
2021-12-24 15:38:24.795203,51
2021-12-24 15:38:24.795213,37
2021-12-24 15:38:24.795223,30
2021-12-24 15:38:24.795232,40
2021-12-24 15:38:24.795242,44
