Time,ECG
2021-12-24 14:39:01.920607,-904
2021-12-24 14:39:01.920622,-442
2021-12-24 14:39:01.920627,63
2021-12-24 14:39:01.920632,66
2021-12-24 14:39:01.920636,37
2021-12-24 14:39:01.920641,120
2021-12-24 14:39:01.920646,120
2021-12-24 14:39:01.920650,94
2021-12-24 14:39:01.920654,113
2021-12-24 14:39:01.920659,113
2021-12-24 14:39:01.920663,99
2021-12-24 14:39:01.920667,108
2021-12-24 14:39:01.920672,116
2021-12-24 14:39:01.920676,108
2021-12-24 14:39:01.920680,111
2021-12-24 14:39:01.920685,120
2021-12-24 14:39:01.920689,120
2021-12-24 14:39:01.920693,123
2021-12-24 14:39:01.920698,134
2021-12-24 14:39:01.920702,144
2021-12-24 14:39:01.920725,149
2021-12-24 14:39:01.920729,151
2021-12-24 14:39:01.920733,158
2021-12-24 14:39:01.920737,175
2021-12-24 14:39:01.920742,191
2021-12-24 14:39:01.920746,194
2021-12-24 14:39:01.920750,198
2021-12-24 14:39:01.920754,213
2021-12-24 14:39:01.920758,215
2021-12-24 14:39:01.920762,201
2021-12-24 14:39:02.060755,179
2021-12-24 14:39:02.060772,168
2021-12-24 14:39:02.060778,156
2021-12-24 14:39:02.060784,130
2021-12-24 14:39:02.060789,97
2021-12-24 14:39:02.060794,68
2021-12-24 14:39:02.060801,42
2021-12-24 14:39:02.060806,23
2021-12-24 14:39:02.060811,2
2021-12-24 14:39:02.060816,-18
2021-12-24 14:39:02.060821,-21
2021-12-24 14:39:02.060827,-14
2021-12-24 14:39:02.060832,-4
2021-12-24 14:39:02.060837,0
2021-12-24 14:39:02.060842,-4
2021-12-24 14:39:02.060847,-9
2021-12-24 14:39:02.060852,4
2021-12-24 14:39:02.060858,21
2021-12-24 14:39:02.060863,30
2021-12-24 14:39:02.060868,23
2021-12-24 14:39:02.060873,14
2021-12-24 14:39:02.060878,23
2021-12-24 14:39:02.060884,33
2021-12-24 14:39:02.060889,28
2021-12-24 14:39:02.060894,28
2021-12-24 14:39:02.060899,26
2021-12-24 14:39:02.060904,16
2021-12-24 14:39:02.060909,21
2021-12-24 14:39:02.060914,26
2021-12-24 14:39:02.060921,14
2021-12-24 14:39:02.329775,14
2021-12-24 14:39:02.329791,14
2021-12-24 14:39:02.329798,9
2021-12-24 14:39:02.329804,9
2021-12-24 14:39:02.329809,14
2021-12-24 14:39:02.329814,23
2021-12-24 14:39:02.329819,28
2021-12-24 14:39:02.329824,16
2021-12-24 14:39:02.329829,14
2021-12-24 14:39:02.329834,21
2021-12-24 14:39:02.329839,18
2021-12-24 14:39:02.329845,16
2021-12-24 14:39:02.329850,37
2021-12-24 14:39:02.329857,59
2021-12-24 14:39:02.329863,59
2021-12-24 14:39:02.329868,40
2021-12-24 14:39:02.329873,14
2021-12-24 14:39:02.329878,2
2021-12-24 14:39:02.329883,26
2021-12-24 14:39:02.329888,33
2021-12-24 14:39:02.329893,28
2021-12-24 14:39:02.329898,37
2021-12-24 14:39:02.329903,28
2021-12-24 14:39:02.329908,16
2021-12-24 14:39:02.329913,42
2021-12-24 14:39:02.329918,68
2021-12-24 14:39:02.329923,89
2021-12-24 14:39:02.329929,151
2021-12-24 14:39:02.329934,286
2021-12-24 14:39:02.329940,433
2021-12-24 14:39:02.511462,421
2021-12-24 14:39:02.511501,26
2021-12-24 14:39:02.511513,-625
2021-12-24 14:39:02.511523,-727
2021-12-24 14:39:02.511539,-144
2021-12-24 14:39:02.511549,146
2021-12-24 14:39:02.511559,21
2021-12-24 14:39:02.511569,59
2021-12-24 14:39:02.511579,151
2021-12-24 14:39:02.511589,108
2021-12-24 14:39:02.511599,87
2021-12-24 14:39:02.511609,113
2021-12-24 14:39:02.511619,116
2021-12-24 14:39:02.511628,104
2021-12-24 14:39:02.511638,106
2021-12-24 14:39:02.511648,116
2021-12-24 14:39:02.511658,118
2021-12-24 14:39:02.511674,113
2021-12-24 14:39:02.511684,106
2021-12-24 14:39:02.511694,99
2021-12-24 14:39:02.511703,116
2021-12-24 14:39:02.511713,132
2021-12-24 14:39:02.511723,134
2021-12-24 14:39:02.511733,134
2021-12-24 14:39:02.511743,144
2021-12-24 14:39:02.511753,151
2021-12-24 14:39:02.511763,158
2021-12-24 14:39:02.511788,179
2021-12-24 14:39:02.511798,196
2021-12-24 14:39:02.511808,189
2021-12-24 14:39:02.780373,172
2021-12-24 14:39:02.780401,165
2021-12-24 14:39:02.780412,161
2021-12-24 14:39:02.780419,158
2021-12-24 14:39:02.780426,170
2021-12-24 14:39:02.780432,153
2021-12-24 14:39:02.780438,99
2021-12-24 14:39:02.780451,73
2021-12-24 14:39:02.780458,68
2021-12-24 14:39:02.780464,44
2021-12-24 14:39:02.780471,26
2021-12-24 14:39:02.780477,26
2021-12-24 14:39:02.780484,26
2021-12-24 14:39:02.780490,30
2021-12-24 14:39:02.780496,37
2021-12-24 14:39:02.780503,26
2021-12-24 14:39:02.780509,33
2021-12-24 14:39:02.780515,54
2021-12-24 14:39:02.780522,47
2021-12-24 14:39:02.780528,42
2021-12-24 14:39:02.780535,61
2021-12-24 14:39:02.780541,71
2021-12-24 14:39:02.780548,66
2021-12-24 14:39:02.780554,61
2021-12-24 14:39:02.780560,49
2021-12-24 14:39:02.780567,49
2021-12-24 14:39:02.780573,52
2021-12-24 14:39:02.780580,49
2021-12-24 14:39:02.780586,71
2021-12-24 14:39:02.780593,89
2021-12-24 14:39:03.006232,68
2021-12-24 14:39:03.006263,54
2021-12-24 14:39:03.006271,73
2021-12-24 14:39:03.006278,68
2021-12-24 14:39:03.006285,37
2021-12-24 14:39:03.006291,33
2021-12-24 14:39:03.006298,56
2021-12-24 14:39:03.006305,71
2021-12-24 14:39:03.006311,44
2021-12-24 14:39:03.006318,30
2021-12-24 14:39:03.006324,52
2021-12-24 14:39:03.006331,52
2021-12-24 14:39:03.006337,21
2021-12-24 14:39:03.006344,4
2021-12-24 14:39:03.006350,18
2021-12-24 14:39:03.006357,30
2021-12-24 14:39:03.006363,9
2021-12-24 14:39:03.006370,-11
2021-12-24 14:39:03.006376,9
2021-12-24 14:39:03.006383,40
2021-12-24 14:39:03.006390,35
2021-12-24 14:39:03.006396,49
2021-12-24 14:39:03.006403,89
2021-12-24 14:39:03.006409,68
2021-12-24 14:39:03.006421,18
2021-12-24 14:39:03.006428,16
2021-12-24 14:39:03.006435,30
2021-12-24 14:39:03.006441,18
2021-12-24 14:39:03.006448,4
2021-12-24 14:39:03.006454,18
2021-12-24 14:39:03.321395,35
2021-12-24 14:39:03.321417,33
2021-12-24 14:39:03.321425,37
2021-12-24 14:39:03.321432,42
2021-12-24 14:39:03.321439,47
2021-12-24 14:39:03.321445,92
2021-12-24 14:39:03.321452,191
2021-12-24 14:39:03.321458,345
2021-12-24 14:39:03.321465,483
2021-12-24 14:39:03.321471,350
2021-12-24 14:39:03.321477,-267
2021-12-24 14:39:03.321484,-798
2021-12-24 14:39:03.321490,-487
2021-12-24 14:39:03.321497,54
2021-12-24 14:39:03.321503,68
2021-12-24 14:39:03.321509,-2
2021-12-24 14:39:03.321516,104
2021-12-24 14:39:03.321522,101
2021-12-24 14:39:03.321528,56
2021-12-24 14:39:03.321535,97
2021-12-24 14:39:03.321541,101
2021-12-24 14:39:03.321547,68
2021-12-24 14:39:03.321555,82
2021-12-24 14:39:03.321562,104
2021-12-24 14:39:03.321568,89
2021-12-24 14:39:03.321575,75
2021-12-24 14:39:03.321581,99
2021-12-24 14:39:03.321587,113
2021-12-24 14:39:03.321594,94
2021-12-24 14:39:03.321600,89
2021-12-24 14:39:03.455735,118
2021-12-24 14:39:03.455762,130
2021-12-24 14:39:03.455775,120
2021-12-24 14:39:03.455787,125
2021-12-24 14:39:03.455799,125
2021-12-24 14:39:03.455810,134
2021-12-24 14:39:03.455821,149
2021-12-24 14:39:03.455832,149
2021-12-24 14:39:03.455842,153
2021-12-24 14:39:03.455854,165
2021-12-24 14:39:03.455865,158
2021-12-24 14:39:03.455877,132
2021-12-24 14:39:03.455888,118
2021-12-24 14:39:03.455899,113
2021-12-24 14:39:03.455926,89
2021-12-24 14:39:03.455944,59
2021-12-24 14:39:03.455962,42
2021-12-24 14:39:03.455980,28
2021-12-24 14:39:03.455998,16
2021-12-24 14:39:03.456016,23
2021-12-24 14:39:03.456034,23
2021-12-24 14:39:03.456052,4
2021-12-24 14:39:03.456070,7
2021-12-24 14:39:03.456088,16
2021-12-24 14:39:03.456115,16
2021-12-24 14:39:03.456132,14
2021-12-24 14:39:03.456150,9
2021-12-24 14:39:03.456174,26
2021-12-24 14:39:03.456201,42
2021-12-24 14:39:03.456213,30
2021-12-24 14:39:03.681151,28
2021-12-24 14:39:03.681171,49
2021-12-24 14:39:03.681179,49
2021-12-24 14:39:03.681185,35
2021-12-24 14:39:03.681192,35
2021-12-24 14:39:03.681198,42
2021-12-24 14:39:03.681205,40
2021-12-24 14:39:03.681211,40
2021-12-24 14:39:03.681218,49
2021-12-24 14:39:03.681224,42
2021-12-24 14:39:03.681230,26
2021-12-24 14:39:03.681237,30
2021-12-24 14:39:03.681243,42
2021-12-24 14:39:03.681250,47
2021-12-24 14:39:03.681256,40
2021-12-24 14:39:03.681262,35
2021-12-24 14:39:03.681269,44
2021-12-24 14:39:03.681275,47
2021-12-24 14:39:03.681281,37
2021-12-24 14:39:03.681288,33
2021-12-24 14:39:03.681294,40
2021-12-24 14:39:03.681300,47
2021-12-24 14:39:03.681307,47
2021-12-24 14:39:03.681313,47
2021-12-24 14:39:03.681319,47
2021-12-24 14:39:03.681326,47
2021-12-24 14:39:03.681332,44
2021-12-24 14:39:03.681338,42
2021-12-24 14:39:03.681345,42
2021-12-24 14:39:03.681351,44
2021-12-24 14:39:03.906150,47
2021-12-24 14:39:03.906171,44
2021-12-24 14:39:03.906179,35
2021-12-24 14:39:03.906185,28
2021-12-24 14:39:03.906192,23
2021-12-24 14:39:03.906198,18
2021-12-24 14:39:03.906205,21
2021-12-24 14:39:03.906211,37
2021-12-24 14:39:03.906218,63
2021-12-24 14:39:03.906224,66
2021-12-24 14:39:03.906230,59
2021-12-24 14:39:03.906237,59
2021-12-24 14:39:03.906243,40
2021-12-24 14:39:03.906250,11
2021-12-24 14:39:03.906256,7
2021-12-24 14:39:03.906262,9
2021-12-24 14:39:03.906269,9
2021-12-24 14:39:03.906275,23
2021-12-24 14:39:03.906281,28
2021-12-24 14:39:03.906288,21
2021-12-24 14:39:03.906294,23
2021-12-24 14:39:03.906300,28
2021-12-24 14:39:03.906307,47
2021-12-24 14:39:03.906313,99
2021-12-24 14:39:03.906319,222
2021-12-24 14:39:03.906326,397
2021-12-24 14:39:03.906332,492
2021-12-24 14:39:03.906339,239
2021-12-24 14:39:03.906345,-435
2021-12-24 14:39:03.906351,-817
2021-12-24 14:39:04.131308,-364
2021-12-24 14:39:04.131327,94
2021-12-24 14:39:04.131335,33
2021-12-24 14:39:04.131342,-7
2021-12-24 14:39:04.131348,101
2021-12-24 14:39:04.131355,97
2021-12-24 14:39:04.131361,59
2021-12-24 14:39:04.131367,80
2021-12-24 14:39:04.131374,89
2021-12-24 14:39:04.131380,80
2021-12-24 14:39:04.131391,87
2021-12-24 14:39:04.131397,89
2021-12-24 14:39:04.131404,85
2021-12-24 14:39:04.131410,87
2021-12-24 14:39:04.131417,87
2021-12-24 14:39:04.131424,89
2021-12-24 14:39:04.131430,94
2021-12-24 14:39:04.131436,106
2021-12-24 14:39:04.131443,116
2021-12-24 14:39:04.131449,116
2021-12-24 14:39:04.131455,116
2021-12-24 14:39:04.131462,130
2021-12-24 14:39:04.131468,144
2021-12-24 14:39:04.131474,153
2021-12-24 14:39:04.131481,156
2021-12-24 14:39:04.131487,158
2021-12-24 14:39:04.131493,161
2021-12-24 14:39:04.131499,158
2021-12-24 14:39:04.131506,153
2021-12-24 14:39:04.131512,139
2021-12-24 14:39:04.400693,118
2021-12-24 14:39:04.400724,116
2021-12-24 14:39:04.400736,113
2021-12-24 14:39:04.400746,85
2021-12-24 14:39:04.400757,56
2021-12-24 14:39:04.400767,49
2021-12-24 14:39:04.400777,37
2021-12-24 14:39:04.400787,21
2021-12-24 14:39:04.400797,16
2021-12-24 14:39:04.400807,18
2021-12-24 14:39:04.400817,18
2021-12-24 14:39:04.400827,21
2021-12-24 14:39:04.400836,23
2021-12-24 14:39:04.400846,18
2021-12-24 14:39:04.400856,23
2021-12-24 14:39:04.400866,33
2021-12-24 14:39:04.400876,35
2021-12-24 14:39:04.400886,40
2021-12-24 14:39:04.400896,52
2021-12-24 14:39:04.400906,47
2021-12-24 14:39:04.400916,47
2021-12-24 14:39:04.400926,54
2021-12-24 14:39:04.400936,49
2021-12-24 14:39:04.400946,42
2021-12-24 14:39:04.400956,52
2021-12-24 14:39:04.400974,54
2021-12-24 14:39:04.400984,37
2021-12-24 14:39:04.400994,30
2021-12-24 14:39:04.401004,42
2021-12-24 14:39:04.401014,49
2021-12-24 14:39:04.626552,37
2021-12-24 14:39:04.626583,33
2021-12-24 14:39:04.626595,40
2021-12-24 14:39:04.626605,40
2021-12-24 14:39:04.626615,35
2021-12-24 14:39:04.626625,35
2021-12-24 14:39:04.626635,33
2021-12-24 14:39:04.626645,30
2021-12-24 14:39:04.626654,30
2021-12-24 14:39:04.626664,30
2021-12-24 14:39:04.626674,28
2021-12-24 14:39:04.626684,26
2021-12-24 14:39:04.626694,26
2021-12-24 14:39:04.626704,21
2021-12-24 14:39:04.626714,21
2021-12-24 14:39:04.626723,23
2021-12-24 14:39:04.626733,26
2021-12-24 14:39:04.626743,26
2021-12-24 14:39:04.626753,23
2021-12-24 14:39:04.626763,21
2021-12-24 14:39:04.626773,26
2021-12-24 14:39:04.626782,21
2021-12-24 14:39:04.626792,14
2021-12-24 14:39:04.626802,9
2021-12-24 14:39:04.626812,11
2021-12-24 14:39:04.626822,28
2021-12-24 14:39:04.626832,52
2021-12-24 14:39:04.626841,59
2021-12-24 14:39:04.626851,54
2021-12-24 14:39:04.626861,47
2021-12-24 14:39:04.807110,30
2021-12-24 14:39:04.807141,18
2021-12-24 14:39:04.807153,23
2021-12-24 14:39:04.807163,18
2021-12-24 14:39:04.807173,7
2021-12-24 14:39:04.807183,14
2021-12-24 14:39:04.807193,23
2021-12-24 14:39:04.807203,21
2021-12-24 14:39:04.807213,16
2021-12-24 14:39:04.807223,23
2021-12-24 14:39:04.807232,40
2021-12-24 14:39:04.807242,73
2021-12-24 14:39:04.807252,156
2021-12-24 14:39:04.807262,319
2021-12-24 14:39:04.807272,485
2021-12-24 14:39:04.807281,449
2021-12-24 14:39:04.807296,-56
2021-12-24 14:39:04.807306,-745
2021-12-24 14:39:04.807316,-703
2021-12-24 14:39:04.807326,-92
2021-12-24 14:39:04.807336,104
2021-12-24 14:39:04.807346,-11
2021-12-24 14:39:04.807356,49
2021-12-24 14:39:04.807365,108
2021-12-24 14:39:04.807375,66
2021-12-24 14:39:04.807385,71
2021-12-24 14:39:04.807394,94
2021-12-24 14:39:04.807404,87
2021-12-24 14:39:04.807414,82
2021-12-24 14:39:04.807423,94
2021-12-24 14:39:05.121461,94
2021-12-24 14:39:05.121483,89
2021-12-24 14:39:05.121490,85
2021-12-24 14:39:05.121497,89
2021-12-24 14:39:05.121504,99
2021-12-24 14:39:05.121510,104
2021-12-24 14:39:05.121517,106
2021-12-24 14:39:05.121523,111
2021-12-24 14:39:05.121530,111
2021-12-24 14:39:05.121536,108
2021-12-24 14:39:05.121543,120
2021-12-24 14:39:05.121549,134
2021-12-24 14:39:05.121555,144
2021-12-24 14:39:05.121562,156
2021-12-24 14:39:05.121568,168
2021-12-24 14:39:05.121575,163
2021-12-24 14:39:05.121581,153
2021-12-24 14:39:05.121588,146
2021-12-24 14:39:05.121594,137
2021-12-24 14:39:05.121601,125
2021-12-24 14:39:05.121607,113
2021-12-24 14:39:05.121613,97
2021-12-24 14:39:05.121620,71
2021-12-24 14:39:05.121626,44
2021-12-24 14:39:05.121633,28
2021-12-24 14:39:05.121640,4
2021-12-24 14:39:05.121648,-9
2021-12-24 14:39:05.121654,-11
2021-12-24 14:39:05.121661,-11
2021-12-24 14:39:05.121667,-2
2021-12-24 14:39:05.256583,7
2021-12-24 14:39:05.256614,7
2021-12-24 14:39:05.256626,9
2021-12-24 14:39:05.256637,18
2021-12-24 14:39:05.256647,18
2021-12-24 14:39:05.256656,18
2021-12-24 14:39:05.256666,26
2021-12-24 14:39:05.256676,33
2021-12-24 14:39:05.256686,35
2021-12-24 14:39:05.256696,37
2021-12-24 14:39:05.256706,40
2021-12-24 14:39:05.256716,40
2021-12-24 14:39:05.256726,42
2021-12-24 14:39:05.256743,42
2021-12-24 14:39:05.256753,37
2021-12-24 14:39:05.256762,35
2021-12-24 14:39:05.256772,42
2021-12-24 14:39:05.256782,42
2021-12-24 14:39:05.256792,33
2021-12-24 14:39:05.256801,35
2021-12-24 14:39:05.256811,37
2021-12-24 14:39:05.256821,33
2021-12-24 14:39:05.256831,33
2021-12-24 14:39:05.256840,30
2021-12-24 14:39:05.256850,23
2021-12-24 14:39:05.256860,23
2021-12-24 14:39:05.256869,21
2021-12-24 14:39:05.256879,11
2021-12-24 14:39:05.256889,9
2021-12-24 14:39:05.256899,26
2021-12-24 14:39:05.571912,49
2021-12-24 14:39:05.571934,61
2021-12-24 14:39:05.571942,63
2021-12-24 14:39:05.571949,49
2021-12-24 14:39:05.571955,28
2021-12-24 14:39:05.571962,18
2021-12-24 14:39:05.571968,16
2021-12-24 14:39:05.571974,7
2021-12-24 14:39:05.571981,2
2021-12-24 14:39:05.571987,7
2021-12-24 14:39:05.571993,7
2021-12-24 14:39:05.572000,9
2021-12-24 14:39:05.572006,16
2021-12-24 14:39:05.572012,23
2021-12-24 14:39:05.572019,42
2021-12-24 14:39:05.572025,94
2021-12-24 14:39:05.572032,208
2021-12-24 14:39:05.572038,374
2021-12-24 14:39:05.572044,485
2021-12-24 14:39:05.572051,262
2021-12-24 14:39:05.572057,-442
2021-12-24 14:39:05.572064,-897
2021-12-24 14:39:05.572070,-454
2021-12-24 14:39:05.572076,73
2021-12-24 14:39:05.572083,63
2021-12-24 14:39:05.572089,21
2021-12-24 14:39:05.572096,118
2021-12-24 14:39:05.572102,106
2021-12-24 14:39:05.572108,68
2021-12-24 14:39:05.572114,101
2021-12-24 14:39:05.752121,116
2021-12-24 14:39:05.752152,97
2021-12-24 14:39:05.752164,101
2021-12-24 14:39:05.752174,111
2021-12-24 14:39:05.752184,111
2021-12-24 14:39:05.752194,116
2021-12-24 14:39:05.752204,127
2021-12-24 14:39:05.752213,127
2021-12-24 14:39:05.752223,123
2021-12-24 14:39:05.752233,125
2021-12-24 14:39:05.752243,137
2021-12-24 14:39:05.752253,146
2021-12-24 14:39:05.752262,153
2021-12-24 14:39:05.752272,165
2021-12-24 14:39:05.752282,177
2021-12-24 14:39:05.752292,187
2021-12-24 14:39:05.752301,201
2021-12-24 14:39:05.752318,210
2021-12-24 14:39:05.752328,213
2021-12-24 14:39:05.752338,220
2021-12-24 14:39:05.752348,217
2021-12-24 14:39:05.752358,198
2021-12-24 14:39:05.752367,182
2021-12-24 14:39:05.752378,161
2021-12-24 14:39:05.752387,139
2021-12-24 14:39:05.752397,113
2021-12-24 14:39:05.752407,75
2021-12-24 14:39:05.752417,40
2021-12-24 14:39:05.752427,23
2021-12-24 14:39:05.752436,14
2021-12-24 14:39:05.976222,7
2021-12-24 14:39:05.976251,0
2021-12-24 14:39:05.976261,-2
2021-12-24 14:39:05.976297,0
2021-12-24 14:39:05.976316,4
2021-12-24 14:39:05.976324,11
2021-12-24 14:39:05.976330,16
2021-12-24 14:39:05.976336,21
2021-12-24 14:39:05.976341,26
2021-12-24 14:39:05.976346,33
2021-12-24 14:39:05.976351,40
2021-12-24 14:39:05.976356,37
2021-12-24 14:39:05.976361,30
2021-12-24 14:39:05.976366,33
2021-12-24 14:39:05.976372,37
2021-12-24 14:39:05.976377,33
2021-12-24 14:39:05.976382,28
2021-12-24 14:39:05.976387,30
2021-12-24 14:39:05.976392,35
2021-12-24 14:39:05.976397,33
2021-12-24 14:39:05.976402,28
2021-12-24 14:39:05.976407,28
2021-12-24 14:39:05.976412,33
2021-12-24 14:39:05.976417,35
2021-12-24 14:39:05.976422,30
2021-12-24 14:39:05.976427,26
2021-12-24 14:39:05.976432,21
2021-12-24 14:39:05.976438,21
2021-12-24 14:39:05.976443,26
2021-12-24 14:39:05.976448,23
2021-12-24 14:39:06.246385,18
2021-12-24 14:39:06.246407,18
2021-12-24 14:39:06.246415,16
2021-12-24 14:39:06.246422,18
2021-12-24 14:39:06.246429,26
2021-12-24 14:39:06.246435,21
2021-12-24 14:39:06.246442,14
2021-12-24 14:39:06.246448,11
2021-12-24 14:39:06.246455,18
2021-12-24 14:39:06.246461,30
2021-12-24 14:39:06.246468,42
2021-12-24 14:39:06.246474,52
2021-12-24 14:39:06.246481,66
2021-12-24 14:39:06.246488,52
2021-12-24 14:39:06.246494,23
2021-12-24 14:39:06.246501,9
2021-12-24 14:39:06.246507,7
2021-12-24 14:39:06.246514,9
2021-12-24 14:39:06.246520,21
2021-12-24 14:39:06.246527,33
2021-12-24 14:39:06.246533,33
2021-12-24 14:39:06.246540,23
2021-12-24 14:39:06.246546,28
2021-12-24 14:39:06.246553,56
2021-12-24 14:39:06.246559,97
2021-12-24 14:39:06.246566,172
2021-12-24 14:39:06.246572,326
2021-12-24 14:39:06.246579,466
2021-12-24 14:39:06.246585,383
2021-12-24 14:39:06.246595,-163
2021-12-24 14:39:06.470142,-786
2021-12-24 14:39:06.470164,-601
2021-12-24 14:39:06.470172,23
2021-12-24 14:39:06.470179,123
2021-12-24 14:39:06.470185,-2
2021-12-24 14:39:06.470191,82
2021-12-24 14:39:06.470198,118
2021-12-24 14:39:06.470204,59
2021-12-24 14:39:06.470210,75
2021-12-24 14:39:06.470217,111
2021-12-24 14:39:06.470223,101
2021-12-24 14:39:06.470229,94
2021-12-24 14:39:06.470236,94
2021-12-24 14:39:06.470242,89
2021-12-24 14:39:06.470248,99
2021-12-24 14:39:06.470254,108
2021-12-24 14:39:06.470261,104
2021-12-24 14:39:06.470267,97
2021-12-24 14:39:06.470273,99
2021-12-24 14:39:06.470279,116
2021-12-24 14:39:06.470286,127
2021-12-24 14:39:06.470292,125
2021-12-24 14:39:06.470298,120
2021-12-24 14:39:06.470305,134
2021-12-24 14:39:06.470311,153
2021-12-24 14:39:06.470317,165
2021-12-24 14:39:06.470324,168
2021-12-24 14:39:06.470330,165
2021-12-24 14:39:06.470336,161
2021-12-24 14:39:06.470342,158
2021-12-24 14:39:06.696721,163
2021-12-24 14:39:06.696751,161
2021-12-24 14:39:06.696762,137
2021-12-24 14:39:06.696773,111
2021-12-24 14:39:06.696783,92
2021-12-24 14:39:06.696792,71
2021-12-24 14:39:06.696802,42
2021-12-24 14:39:06.696812,16
2021-12-24 14:39:06.696822,16
2021-12-24 14:39:06.696831,14
2021-12-24 14:39:06.696841,2
2021-12-24 14:39:06.696851,9
2021-12-24 14:39:06.696861,16
2021-12-24 14:39:06.696871,14
2021-12-24 14:39:06.696880,18
2021-12-24 14:39:06.696890,23
2021-12-24 14:39:06.696900,26
2021-12-24 14:39:06.696910,26
2021-12-24 14:39:06.696920,33
2021-12-24 14:39:06.696929,47
2021-12-24 14:39:06.696939,49
2021-12-24 14:39:06.696949,49
2021-12-24 14:39:06.696959,44
2021-12-24 14:39:06.696969,42
2021-12-24 14:39:06.696979,52
2021-12-24 14:39:06.696988,54
2021-12-24 14:39:06.696998,42
2021-12-24 14:39:06.697008,42
2021-12-24 14:39:06.697018,59
2021-12-24 14:39:06.697027,59
2021-12-24 14:39:06.877097,42
2021-12-24 14:39:06.877128,49
2021-12-24 14:39:06.877140,63
2021-12-24 14:39:06.877150,49
2021-12-24 14:39:06.877160,33
2021-12-24 14:39:06.877170,30
2021-12-24 14:39:06.877180,35
2021-12-24 14:39:06.877189,35
2021-12-24 14:39:06.877199,23
2021-12-24 14:39:06.877209,26
2021-12-24 14:39:06.877219,42
2021-12-24 14:39:06.877228,35
2021-12-24 14:39:06.877238,26
2021-12-24 14:39:06.877248,30
2021-12-24 14:39:06.877258,33
2021-12-24 14:39:06.877267,23
2021-12-24 14:39:06.877277,16
2021-12-24 14:39:06.877287,18
2021-12-24 14:39:06.877297,26
2021-12-24 14:39:06.877306,35
2021-12-24 14:39:06.877321,35
2021-12-24 14:39:06.877331,33
2021-12-24 14:39:06.877341,35
2021-12-24 14:39:06.877351,30
2021-12-24 14:39:06.877360,23
2021-12-24 14:39:06.877370,18
2021-12-24 14:39:06.877380,11
2021-12-24 14:39:06.877390,16
2021-12-24 14:39:06.877399,30
2021-12-24 14:39:06.877409,23
2021-12-24 14:39:07.146282,16
2021-12-24 14:39:07.146303,30
2021-12-24 14:39:07.146311,54
2021-12-24 14:39:07.146318,71
2021-12-24 14:39:07.146325,66
2021-12-24 14:39:07.146331,52
2021-12-24 14:39:07.146338,52
2021-12-24 14:39:07.146344,56
2021-12-24 14:39:07.146351,42
2021-12-24 14:39:07.146357,21
2021-12-24 14:39:07.146364,21
2021-12-24 14:39:07.146370,37
2021-12-24 14:39:07.146377,40
2021-12-24 14:39:07.146383,35
2021-12-24 14:39:07.146390,42
2021-12-24 14:39:07.146396,47
2021-12-24 14:39:07.146402,49
2021-12-24 14:39:07.146409,61
2021-12-24 14:39:07.146415,97
2021-12-24 14:39:07.146422,187
2021-12-24 14:39:07.146428,341
2021-12-24 14:39:07.146435,490
2021-12-24 14:39:07.146441,447
2021-12-24 14:39:07.146447,-59
2021-12-24 14:39:07.146454,-696
2021-12-24 14:39:07.146460,-558
2021-12-24 14:39:07.146467,28
2021-12-24 14:39:07.146473,118
2021-12-24 14:39:07.146480,-11
2021-12-24 14:39:07.146486,61
2021-12-24 14:39:07.372104,106
2021-12-24 14:39:07.372136,75
2021-12-24 14:39:07.372148,92
2021-12-24 14:39:07.372158,106
2021-12-24 14:39:07.372168,89
2021-12-24 14:39:07.372178,94
2021-12-24 14:39:07.372188,104
2021-12-24 14:39:07.372198,94
2021-12-24 14:39:07.372208,87
2021-12-24 14:39:07.372218,89
2021-12-24 14:39:07.372227,89
2021-12-24 14:39:07.372237,111
2021-12-24 14:39:07.372247,130
2021-12-24 14:39:07.372257,118
2021-12-24 14:39:07.372267,116
2021-12-24 14:39:07.372277,130
2021-12-24 14:39:07.372287,125
2021-12-24 14:39:07.372297,123
2021-12-24 14:39:07.372306,139
2021-12-24 14:39:07.372316,156
2021-12-24 14:39:07.372326,165
2021-12-24 14:39:07.372336,163
2021-12-24 14:39:07.372346,161
2021-12-24 14:39:07.372355,163
2021-12-24 14:39:07.372365,151
2021-12-24 14:39:07.372375,132
2021-12-24 14:39:07.372385,116
2021-12-24 14:39:07.372395,111
2021-12-24 14:39:07.372404,97
2021-12-24 14:39:07.372414,63
2021-12-24 14:39:07.596758,44
2021-12-24 14:39:07.596790,42
2021-12-24 14:39:07.596802,33
2021-12-24 14:39:07.596812,18
2021-12-24 14:39:07.596822,11
2021-12-24 14:39:07.596832,11
2021-12-24 14:39:07.596842,23
2021-12-24 14:39:07.596852,37
2021-12-24 14:39:07.596862,30
2021-12-24 14:39:07.596872,21
2021-12-24 14:39:07.596881,30
2021-12-24 14:39:07.596891,40
2021-12-24 14:39:07.596901,42
2021-12-24 14:39:07.596911,42
2021-12-24 14:39:07.596920,44
2021-12-24 14:39:07.596930,47
2021-12-24 14:39:07.596940,47
2021-12-24 14:39:07.596950,44
2021-12-24 14:39:07.596959,42
2021-12-24 14:39:07.596969,40
2021-12-24 14:39:07.596979,40
2021-12-24 14:39:07.596989,44
2021-12-24 14:39:07.597003,44
2021-12-24 14:39:07.597013,42
2021-12-24 14:39:07.597023,44
2021-12-24 14:39:07.597033,40
2021-12-24 14:39:07.597042,30
2021-12-24 14:39:07.597052,33
2021-12-24 14:39:07.597062,26
2021-12-24 14:39:07.597072,23
2021-12-24 14:39:07.821479,35
2021-12-24 14:39:07.821502,28
2021-12-24 14:39:07.821510,23
2021-12-24 14:39:07.821516,33
2021-12-24 14:39:07.821523,28
2021-12-24 14:39:07.821529,23
2021-12-24 14:39:07.821536,33
2021-12-24 14:39:07.821542,33
2021-12-24 14:39:07.821548,18
2021-12-24 14:39:07.821555,14
2021-12-24 14:39:07.821561,28
2021-12-24 14:39:07.821567,33
2021-12-24 14:39:07.821574,37
2021-12-24 14:39:07.821580,42
2021-12-24 14:39:07.821586,33
2021-12-24 14:39:07.821593,28
2021-12-24 14:39:07.821599,33
2021-12-24 14:39:07.821605,33
2021-12-24 14:39:07.821611,30
2021-12-24 14:39:07.821618,30
2021-12-24 14:39:07.821624,23
2021-12-24 14:39:07.821630,23
2021-12-24 14:39:07.821637,47
2021-12-24 14:39:07.821643,66
2021-12-24 14:39:07.821649,78
2021-12-24 14:39:07.821656,80
2021-12-24 14:39:07.821662,73
2021-12-24 14:39:07.821668,71
2021-12-24 14:39:07.821675,59
2021-12-24 14:39:07.821681,33
2021-12-24 14:39:08.046680,30
2021-12-24 14:39:08.046702,52
2021-12-24 14:39:08.046710,52
2021-12-24 14:39:08.046717,35
2021-12-24 14:39:08.046724,26
2021-12-24 14:39:08.046730,37
2021-12-24 14:39:08.046737,40
2021-12-24 14:39:08.046743,28
2021-12-24 14:39:08.046750,40
2021-12-24 14:39:08.046756,92
2021-12-24 14:39:08.046763,194
2021-12-24 14:39:08.046769,367
2021-12-24 14:39:08.046776,509
2021-12-24 14:39:08.046782,352
2021-12-24 14:39:08.046789,-277
2021-12-24 14:39:08.046795,-790
2021-12-24 14:39:08.046802,-459
2021-12-24 14:39:08.046808,63
2021-12-24 14:39:08.046814,63
2021-12-24 14:39:08.046821,2
2021-12-24 14:39:08.046827,106
2021-12-24 14:39:08.046834,106
2021-12-24 14:39:08.046840,66
2021-12-24 14:39:08.046846,94
2021-12-24 14:39:08.046853,99
2021-12-24 14:39:08.046859,75
2021-12-24 14:39:08.046866,94
2021-12-24 14:39:08.046872,111
2021-12-24 14:39:08.046878,99
2021-12-24 14:39:08.046885,99
2021-12-24 14:39:08.271729,113
2021-12-24 14:39:08.271748,108
2021-12-24 14:39:08.271755,101
2021-12-24 14:39:08.271760,108
2021-12-24 14:39:08.271765,125
2021-12-24 14:39:08.271770,130
2021-12-24 14:39:08.271776,125
2021-12-24 14:39:08.271781,132
2021-12-24 14:39:08.271786,142
2021-12-24 14:39:08.271791,144
2021-12-24 14:39:08.271796,158
2021-12-24 14:39:08.271802,168
2021-12-24 14:39:08.271807,161
2021-12-24 14:39:08.271812,158
2021-12-24 14:39:08.271817,168
2021-12-24 14:39:08.271822,163
2021-12-24 14:39:08.271827,142
2021-12-24 14:39:08.271832,120
2021-12-24 14:39:08.271838,104
2021-12-24 14:39:08.271843,94
2021-12-24 14:39:08.271848,75
2021-12-24 14:39:08.271853,40
2021-12-24 14:39:08.271858,23
2021-12-24 14:39:08.271863,30
2021-12-24 14:39:08.271868,30
2021-12-24 14:39:08.271874,18
2021-12-24 14:39:08.271879,11
2021-12-24 14:39:08.271884,11
2021-12-24 14:39:08.271889,28
2021-12-24 14:39:08.271894,33
2021-12-24 14:39:08.540268,26
2021-12-24 14:39:08.540299,35
2021-12-24 14:39:08.540311,52
2021-12-24 14:39:08.540321,49
2021-12-24 14:39:08.540330,33
2021-12-24 14:39:08.540345,40
2021-12-24 14:39:08.540355,54
2021-12-24 14:39:08.540365,47
2021-12-24 14:39:08.540375,35
2021-12-24 14:39:08.540384,33
2021-12-24 14:39:08.540394,30
2021-12-24 14:39:08.540404,21
2021-12-24 14:39:08.540414,16
2021-12-24 14:39:08.540424,21
2021-12-24 14:39:08.540434,18
2021-12-24 14:39:08.540443,21
2021-12-24 14:39:08.540453,28
2021-12-24 14:39:08.540463,16
2021-12-24 14:39:08.540472,11
2021-12-24 14:39:08.540482,21
2021-12-24 14:39:08.540492,16
2021-12-24 14:39:08.540502,9
2021-12-24 14:39:08.540511,14
2021-12-24 14:39:08.540521,14
2021-12-24 14:39:08.540531,14
2021-12-24 14:39:08.540541,23
2021-12-24 14:39:08.540550,21
2021-12-24 14:39:08.540560,26
2021-12-24 14:39:08.540570,37
2021-12-24 14:39:08.540580,23
2021-12-24 14:39:08.766369,14
2021-12-24 14:39:08.766387,28
2021-12-24 14:39:08.766395,28
2021-12-24 14:39:08.766401,21
2021-12-24 14:39:08.766408,33
2021-12-24 14:39:08.766414,37
2021-12-24 14:39:08.766420,26
2021-12-24 14:39:08.766427,23
2021-12-24 14:39:08.766433,28
2021-12-24 14:39:08.766439,16
2021-12-24 14:39:08.766446,11
2021-12-24 14:39:08.766452,23
2021-12-24 14:39:08.766459,35
2021-12-24 14:39:08.766465,52
2021-12-24 14:39:08.766471,63
2021-12-24 14:39:08.766478,61
2021-12-24 14:39:08.766484,54
2021-12-24 14:39:08.766490,52
2021-12-24 14:39:08.766496,35
2021-12-24 14:39:08.766503,16
2021-12-24 14:39:08.766509,23
2021-12-24 14:39:08.766515,40
2021-12-24 14:39:08.766522,33
2021-12-24 14:39:08.766528,21
2021-12-24 14:39:08.766534,28
2021-12-24 14:39:08.766540,42
2021-12-24 14:39:08.766547,44
2021-12-24 14:39:08.766553,40
2021-12-24 14:39:08.766560,52
2021-12-24 14:39:08.766566,116
2021-12-24 14:39:08.991437,262
2021-12-24 14:39:08.991458,438
2021-12-24 14:39:08.991466,516
2021-12-24 14:39:08.991473,246
2021-12-24 14:39:08.991479,-449
2021-12-24 14:39:08.991486,-809
2021-12-24 14:39:08.991492,-326
2021-12-24 14:39:08.991499,113
2021-12-24 14:39:08.991505,37
2021-12-24 14:39:08.991512,9
2021-12-24 14:39:08.991518,108
2021-12-24 14:39:08.991524,94
2021-12-24 14:39:08.991531,61
2021-12-24 14:39:08.991537,85
2021-12-24 14:39:08.991543,89
2021-12-24 14:39:08.991550,68
2021-12-24 14:39:08.991556,68
2021-12-24 14:39:08.991563,78
2021-12-24 14:39:08.991569,80
2021-12-24 14:39:08.991575,87
2021-12-24 14:39:08.991582,89
2021-12-24 14:39:08.991588,87
2021-12-24 14:39:08.991594,97
2021-12-24 14:39:08.991601,104
2021-12-24 14:39:08.991607,108
2021-12-24 14:39:08.991614,118
2021-12-24 14:39:08.991620,118
2021-12-24 14:39:08.991626,113
2021-12-24 14:39:08.991633,130
2021-12-24 14:39:08.991639,163
2021-12-24 14:39:09.307168,175
2021-12-24 14:39:09.307199,172
2021-12-24 14:39:09.307211,179
2021-12-24 14:39:09.307221,179
2021-12-24 14:39:09.307231,163
2021-12-24 14:39:09.307241,151
2021-12-24 14:39:09.307251,142
2021-12-24 14:39:09.307261,125
2021-12-24 14:39:09.307271,113
2021-12-24 14:39:09.307281,87
2021-12-24 14:39:09.307291,52
2021-12-24 14:39:09.307301,33
2021-12-24 14:39:09.307311,18
2021-12-24 14:39:09.307321,2
2021-12-24 14:39:09.307331,-11
2021-12-24 14:39:09.307341,-23
2021-12-24 14:39:09.307351,-37
2021-12-24 14:39:09.307361,-35
2021-12-24 14:39:09.307371,-14
2021-12-24 14:39:09.307381,-4
2021-12-24 14:39:09.307391,-11
2021-12-24 14:39:09.307400,-11
2021-12-24 14:39:09.307410,4
2021-12-24 14:39:09.307421,11
2021-12-24 14:39:09.307431,0
2021-12-24 14:39:09.307440,0
2021-12-24 14:39:09.307450,16
2021-12-24 14:39:09.307460,18
2021-12-24 14:39:09.307470,9
2021-12-24 14:39:09.307480,16
2021-12-24 14:39:09.441690,30
2021-12-24 14:39:09.441728,28
2021-12-24 14:39:09.441741,26
2021-12-24 14:39:09.441752,26
2021-12-24 14:39:09.441762,23
2021-12-24 14:39:09.441771,23
2021-12-24 14:39:09.441781,16
2021-12-24 14:39:09.441791,14
2021-12-24 14:39:09.441801,18
2021-12-24 14:39:09.441811,21
2021-12-24 14:39:09.441821,23
2021-12-24 14:39:09.441831,30
2021-12-24 14:39:09.441841,28
2021-12-24 14:39:09.441850,28
2021-12-24 14:39:09.441860,26
2021-12-24 14:39:09.441870,21
2021-12-24 14:39:09.441880,21
2021-12-24 14:39:09.441890,23
2021-12-24 14:39:09.441900,18
2021-12-24 14:39:09.441909,9
2021-12-24 14:39:09.441919,16
2021-12-24 14:39:09.441929,37
2021-12-24 14:39:09.441939,56
2021-12-24 14:39:09.441949,73
2021-12-24 14:39:09.441959,68
2021-12-24 14:39:09.441968,42
2021-12-24 14:39:09.441978,26
2021-12-24 14:39:09.441988,23
2021-12-24 14:39:09.441998,21
2021-12-24 14:39:09.442008,23
2021-12-24 14:39:09.666635,30
2021-12-24 14:39:09.666656,28
2021-12-24 14:39:09.666664,28
2021-12-24 14:39:09.666670,42
2021-12-24 14:39:09.666677,44
2021-12-24 14:39:09.666683,49
2021-12-24 14:39:09.666690,89
2021-12-24 14:39:09.666696,187
2021-12-24 14:39:09.666702,331
2021-12-24 14:39:09.666709,471
2021-12-24 14:39:09.666715,412
2021-12-24 14:39:09.666722,-130
2021-12-24 14:39:09.666728,-805
2021-12-24 14:39:09.666735,-703
2021-12-24 14:39:09.666742,-78
2021-12-24 14:39:09.666748,120
2021-12-24 14:39:09.666755,23
2021-12-24 14:39:09.666761,73
2021-12-24 14:39:09.666767,118
2021-12-24 14:39:09.666774,75
2021-12-24 14:39:09.666780,82
2021-12-24 14:39:09.666787,111
2021-12-24 14:39:09.666793,97
2021-12-24 14:39:09.666799,92
2021-12-24 14:39:09.666806,106
2021-12-24 14:39:09.666812,108
2021-12-24 14:39:09.666818,111
2021-12-24 14:39:09.666825,118
2021-12-24 14:39:09.666831,113
2021-12-24 14:39:09.666838,118
2021-12-24 14:39:09.980284,130
2021-12-24 14:39:09.980305,137
2021-12-24 14:39:09.980313,139
2021-12-24 14:39:09.980320,149
2021-12-24 14:39:09.980326,158
2021-12-24 14:39:09.980332,172
2021-12-24 14:39:09.980339,184
2021-12-24 14:39:09.980345,191
2021-12-24 14:39:09.980351,196
2021-12-24 14:39:09.980358,210
2021-12-24 14:39:09.980364,217
2021-12-24 14:39:09.980371,210
2021-12-24 14:39:09.980377,203
2021-12-24 14:39:09.980383,189
2021-12-24 14:39:09.980390,168
2021-12-24 14:39:09.980396,158
2021-12-24 14:39:09.980403,134
2021-12-24 14:39:09.980409,87
2021-12-24 14:39:09.980416,49
2021-12-24 14:39:09.980423,26
2021-12-24 14:39:09.980429,2
2021-12-24 14:39:09.980436,-14
2021-12-24 14:39:09.980442,-16
2021-12-24 14:39:09.980448,-11
2021-12-24 14:39:09.980455,-18
2021-12-24 14:39:09.980461,-26
2021-12-24 14:39:09.980468,-18
2021-12-24 14:39:09.980474,-16
2021-12-24 14:39:09.980481,-18
2021-12-24 14:39:09.980487,-7
2021-12-24 14:39:10.116783,4
2021-12-24 14:39:10.116840,4
2021-12-24 14:39:10.116877,7
2021-12-24 14:39:10.116885,14
2021-12-24 14:39:10.116892,16
2021-12-24 14:39:10.116898,7
2021-12-24 14:39:10.116905,2
2021-12-24 14:39:10.116911,11
2021-12-24 14:39:10.116918,23
2021-12-24 14:39:10.116924,26
2021-12-24 14:39:10.116931,21
2021-12-24 14:39:10.116937,21
2021-12-24 14:39:10.116943,26
2021-12-24 14:39:10.116950,28
2021-12-24 14:39:10.116956,28
2021-12-24 14:39:10.116962,23
2021-12-24 14:39:10.116968,18
2021-12-24 14:39:10.116975,21
2021-12-24 14:39:10.116981,23
2021-12-24 14:39:10.116987,18
2021-12-24 14:39:10.116994,7
2021-12-24 14:39:10.117000,9
2021-12-24 14:39:10.117006,23
2021-12-24 14:39:10.117013,40
2021-12-24 14:39:10.117019,54
2021-12-24 14:39:10.117025,61
2021-12-24 14:39:10.117032,54
2021-12-24 14:39:10.117038,47
2021-12-24 14:39:10.117044,28
2021-12-24 14:39:10.117051,16
2021-12-24 14:39:10.386725,26
2021-12-24 14:39:10.386755,37
2021-12-24 14:39:10.386767,35
2021-12-24 14:39:10.386777,28
2021-12-24 14:39:10.386787,33
2021-12-24 14:39:10.386797,42
2021-12-24 14:39:10.386806,44
2021-12-24 14:39:10.386816,56
2021-12-24 14:39:10.386826,99
2021-12-24 14:39:10.386835,194
2021-12-24 14:39:10.386845,345
2021-12-24 14:39:10.386860,476
2021-12-24 14:39:10.386870,357
2021-12-24 14:39:10.386880,-227
2021-12-24 14:39:10.386890,-819
2021-12-24 14:39:10.386899,-587
2021-12-24 14:39:10.386909,16
2021-12-24 14:39:10.386919,111
2021-12-24 14:39:10.386928,14
2021-12-24 14:39:10.386938,99
2021-12-24 14:39:10.386948,134
2021-12-24 14:39:10.386957,89
2021-12-24 14:39:10.386967,104
2021-12-24 14:39:10.386977,118
2021-12-24 14:39:10.386987,97
2021-12-24 14:39:10.386996,106
2021-12-24 14:39:10.387006,125
2021-12-24 14:39:10.387016,113
2021-12-24 14:39:10.387025,111
2021-12-24 14:39:10.387035,123
2021-12-24 14:39:10.655829,125
2021-12-24 14:39:10.655859,123
2021-12-24 14:39:10.655871,123
2021-12-24 14:39:10.655881,127
2021-12-24 14:39:10.655891,134
2021-12-24 14:39:10.655901,142
2021-12-24 14:39:10.655911,146
2021-12-24 14:39:10.655921,153
2021-12-24 14:39:10.655930,170
2021-12-24 14:39:10.655940,182
2021-12-24 14:39:10.655950,184
2021-12-24 14:39:10.655960,201
2021-12-24 14:39:10.655970,215
2021-12-24 14:39:10.655980,201
2021-12-24 14:39:10.655989,184
2021-12-24 14:39:10.655999,179
2021-12-24 14:39:10.656009,161
2021-12-24 14:39:10.656019,134
2021-12-24 14:39:10.656029,108
2021-12-24 14:39:10.656039,78
2021-12-24 14:39:10.656048,42
2021-12-24 14:39:10.656058,21
2021-12-24 14:39:10.656068,11
2021-12-24 14:39:10.656078,4
2021-12-24 14:39:10.656087,7
2021-12-24 14:39:10.656097,11
2021-12-24 14:39:10.656107,9
2021-12-24 14:39:10.656117,11
2021-12-24 14:39:10.656127,16
2021-12-24 14:39:10.656136,16
2021-12-24 14:39:10.792322,26
2021-12-24 14:39:10.792352,37
2021-12-24 14:39:10.792364,42
2021-12-24 14:39:10.792375,40
2021-12-24 14:39:10.792385,42
2021-12-24 14:39:10.792395,40
2021-12-24 14:39:10.792404,40
2021-12-24 14:39:10.792414,49
2021-12-24 14:39:10.792424,56
2021-12-24 14:39:10.792434,49
2021-12-24 14:39:10.792444,47
2021-12-24 14:39:10.792454,52
2021-12-24 14:39:10.792464,47
2021-12-24 14:39:10.792474,44
2021-12-24 14:39:10.792484,47
2021-12-24 14:39:10.792494,44
2021-12-24 14:39:10.792504,40
2021-12-24 14:39:10.792513,37
2021-12-24 14:39:10.792523,30
2021-12-24 14:39:10.792533,30
2021-12-24 14:39:10.792543,35
2021-12-24 14:39:10.792553,28
2021-12-24 14:39:10.792562,18
2021-12-24 14:39:10.792572,26
2021-12-24 14:39:10.792582,35
2021-12-24 14:39:10.792592,37
2021-12-24 14:39:10.792602,35
2021-12-24 14:39:10.792612,28
2021-12-24 14:39:10.792622,23
2021-12-24 14:39:10.792631,23
2021-12-24 14:39:11.107007,28
2021-12-24 14:39:11.107028,26
2021-12-24 14:39:11.107036,18
2021-12-24 14:39:11.107042,16
2021-12-24 14:39:11.107049,23
2021-12-24 14:39:11.107055,44
2021-12-24 14:39:11.107062,63
2021-12-24 14:39:11.107068,66
2021-12-24 14:39:11.107074,59
2021-12-24 14:39:11.107081,37
2021-12-24 14:39:11.107087,11
2021-12-24 14:39:11.107093,11
2021-12-24 14:39:11.107100,21
2021-12-24 14:39:11.107106,21
2021-12-24 14:39:11.107113,23
2021-12-24 14:39:11.107119,28
2021-12-24 14:39:11.107126,28
2021-12-24 14:39:11.107132,35
2021-12-24 14:39:11.107139,44
2021-12-24 14:39:11.107146,59
2021-12-24 14:39:11.107152,99
2021-12-24 14:39:11.107158,194
2021-12-24 14:39:11.107165,348
2021-12-24 14:39:11.107171,480
2021-12-24 14:39:11.107177,364
2021-12-24 14:39:11.107184,-220
2021-12-24 14:39:11.107190,-776
2021-12-24 14:39:11.107197,-499
2021-12-24 14:39:11.107203,71
2021-12-24 14:39:11.107209,92
2021-12-24 14:39:11.422427,-7
2021-12-24 14:39:11.422481,99
2021-12-24 14:39:11.422490,116
2021-12-24 14:39:11.422497,56
2021-12-24 14:39:11.422503,82
2021-12-24 14:39:11.422510,111
2021-12-24 14:39:11.422516,97
2021-12-24 14:39:11.422522,92
2021-12-24 14:39:11.422529,94
2021-12-24 14:39:11.422535,94
2021-12-24 14:39:11.422541,97
2021-12-24 14:39:11.422547,101
2021-12-24 14:39:11.422554,104
2021-12-24 14:39:11.422560,108
2021-12-24 14:39:11.422566,111
2021-12-24 14:39:11.422572,113
2021-12-24 14:39:11.422579,120
2021-12-24 14:39:11.422585,127
2021-12-24 14:39:11.422591,134
2021-12-24 14:39:11.422598,144
2021-12-24 14:39:11.422604,153
2021-12-24 14:39:11.422610,156
2021-12-24 14:39:11.422616,161
2021-12-24 14:39:11.422623,165
2021-12-24 14:39:11.422629,165
2021-12-24 14:39:11.422635,168
2021-12-24 14:39:11.422642,158
2021-12-24 14:39:11.422648,134
2021-12-24 14:39:11.422654,118
2021-12-24 14:39:11.422661,111
2021-12-24 14:39:11.556571,92
2021-12-24 14:39:11.556593,61
2021-12-24 14:39:11.556600,40
2021-12-24 14:39:11.556607,28
2021-12-24 14:39:11.556613,21
2021-12-24 14:39:11.556636,16
2021-12-24 14:39:11.556647,18
2021-12-24 14:39:11.556656,18
2021-12-24 14:39:11.556675,16
2021-12-24 14:39:11.556685,16
2021-12-24 14:39:11.556695,23
2021-12-24 14:39:11.556705,26
2021-12-24 14:39:11.556715,26
2021-12-24 14:39:11.556724,33
2021-12-24 14:39:11.556734,35
2021-12-24 14:39:11.556744,33
2021-12-24 14:39:11.556754,33
2021-12-24 14:39:11.556764,37
2021-12-24 14:39:11.556773,42
2021-12-24 14:39:11.556783,47
2021-12-24 14:39:11.556793,44
2021-12-24 14:39:11.556802,42
2021-12-24 14:39:11.556812,44
2021-12-24 14:39:11.556822,42
2021-12-24 14:39:11.556832,42
2021-12-24 14:39:11.556842,44
2021-12-24 14:39:11.556851,47
2021-12-24 14:39:11.556861,44
2021-12-24 14:39:11.556871,40
2021-12-24 14:39:11.556881,42
2021-12-24 14:39:11.781278,47
2021-12-24 14:39:11.781300,44
2021-12-24 14:39:11.781307,37
2021-12-24 14:39:11.781314,30
2021-12-24 14:39:11.781321,33
2021-12-24 14:39:11.781345,35
2021-12-24 14:39:11.781355,33
2021-12-24 14:39:11.781365,28
2021-12-24 14:39:11.781375,26
2021-12-24 14:39:11.781385,23
2021-12-24 14:39:11.781395,23
2021-12-24 14:39:11.781405,21
2021-12-24 14:39:11.781415,18
2021-12-24 14:39:11.781424,14
2021-12-24 14:39:11.781434,14
2021-12-24 14:39:11.781444,23
2021-12-24 14:39:11.781454,23
2021-12-24 14:39:11.781464,16
2021-12-24 14:39:11.781474,9
2021-12-24 14:39:11.781484,9
2021-12-24 14:39:11.781494,26
2021-12-24 14:39:11.781503,54
2021-12-24 14:39:11.781513,66
2021-12-24 14:39:11.781523,59
2021-12-24 14:39:11.781533,54
2021-12-24 14:39:11.781543,49
2021-12-24 14:39:11.781553,35
2021-12-24 14:39:11.781563,26
2021-12-24 14:39:11.781572,28
2021-12-24 14:39:11.781582,35
2021-12-24 14:39:11.962221,30
2021-12-24 14:39:11.962242,28
2021-12-24 14:39:11.962249,26
2021-12-24 14:39:11.962256,28
2021-12-24 14:39:11.962262,37
2021-12-24 14:39:11.962269,52
2021-12-24 14:39:11.962275,71
2021-12-24 14:39:11.962282,134
2021-12-24 14:39:11.962288,272
2021-12-24 14:39:11.962294,440
2021-12-24 14:39:11.962301,490
2021-12-24 14:39:11.962307,130
2021-12-24 14:39:11.962313,-570
2021-12-24 14:39:11.962320,-748
2021-12-24 14:39:11.962326,-182
2021-12-24 14:39:11.962333,125
2021-12-24 14:39:11.962339,0
2021-12-24 14:39:11.962345,28
2021-12-24 14:39:11.962352,111
2021-12-24 14:39:11.962358,66
2021-12-24 14:39:11.962364,49
2021-12-24 14:39:11.962371,80
2021-12-24 14:39:11.962377,73
2021-12-24 14:39:11.962383,63
2021-12-24 14:39:11.962390,82
2021-12-24 14:39:11.962396,89
2021-12-24 14:39:11.962402,82
2021-12-24 14:39:11.962409,87
2021-12-24 14:39:11.962415,94
2021-12-24 14:39:11.962421,94
2021-12-24 14:39:12.230770,94
2021-12-24 14:39:12.230790,99
2021-12-24 14:39:12.230798,106
2021-12-24 14:39:12.230805,113
2021-12-24 14:39:12.230811,125
2021-12-24 14:39:12.230817,130
2021-12-24 14:39:12.230824,134
2021-12-24 14:39:12.230830,142
2021-12-24 14:39:12.230837,151
2021-12-24 14:39:12.230843,153
2021-12-24 14:39:12.230849,153
2021-12-24 14:39:12.230856,153
2021-12-24 14:39:12.230862,146
2021-12-24 14:39:12.230868,132
2021-12-24 14:39:12.230875,118
2021-12-24 14:39:12.230881,104
2021-12-24 14:39:12.230887,92
2021-12-24 14:39:12.230894,73
2021-12-24 14:39:12.230900,52
2021-12-24 14:39:12.230906,30
2021-12-24 14:39:12.230913,16
2021-12-24 14:39:12.230919,14
2021-12-24 14:39:12.230926,14
2021-12-24 14:39:12.230932,9
2021-12-24 14:39:12.230938,9
2021-12-24 14:39:12.230945,16
2021-12-24 14:39:12.230951,16
2021-12-24 14:39:12.230957,14
2021-12-24 14:39:12.230964,23
2021-12-24 14:39:12.230970,30
2021-12-24 14:39:12.411813,30
2021-12-24 14:39:12.411843,40
2021-12-24 14:39:12.411855,47
2021-12-24 14:39:12.411865,40
2021-12-24 14:39:12.411875,40
2021-12-24 14:39:12.411885,49
2021-12-24 14:39:12.411895,44
2021-12-24 14:39:12.411904,37
2021-12-24 14:39:12.411914,42
2021-12-24 14:39:12.411923,44
2021-12-24 14:39:12.411933,40
2021-12-24 14:39:12.411943,37
2021-12-24 14:39:12.411952,37
2021-12-24 14:39:12.411962,40
2021-12-24 14:39:12.411972,40
2021-12-24 14:39:12.411981,37
2021-12-24 14:39:12.411991,37
2021-12-24 14:39:12.412000,35
2021-12-24 14:39:12.412010,35
2021-12-24 14:39:12.412020,40
2021-12-24 14:39:12.412029,35
2021-12-24 14:39:12.412039,23
2021-12-24 14:39:12.412048,23
2021-12-24 14:39:12.412058,37
2021-12-24 14:39:12.412068,54
2021-12-24 14:39:12.412077,61
2021-12-24 14:39:12.412087,59
2021-12-24 14:39:12.412097,54
2021-12-24 14:39:12.412106,40
2021-12-24 14:39:12.412116,16
2021-12-24 14:39:12.680364,9
2021-12-24 14:39:12.680386,11
2021-12-24 14:39:12.680393,9
2021-12-24 14:39:12.680400,9
2021-12-24 14:39:12.680406,14
2021-12-24 14:39:12.680413,7
2021-12-24 14:39:12.680419,2
2021-12-24 14:39:12.680425,18
2021-12-24 14:39:12.680431,35
2021-12-24 14:39:12.680438,63
2021-12-24 14:39:12.680444,158
2021-12-24 14:39:12.680450,329
2021-12-24 14:39:12.680457,480
2021-12-24 14:39:12.680463,378
2021-12-24 14:39:12.680469,-222
2021-12-24 14:39:12.680476,-862
2021-12-24 14:39:12.680482,-686
2021-12-24 14:39:12.680488,-89
2021-12-24 14:39:12.680495,68
2021-12-24 14:39:12.680501,2
2021-12-24 14:39:12.680507,68
2021-12-24 14:39:12.680514,97
2021-12-24 14:39:12.680520,59
2021-12-24 14:39:12.680534,73
2021-12-24 14:39:12.680541,94
2021-12-24 14:39:12.680547,80
2021-12-24 14:39:12.680554,82
2021-12-24 14:39:12.680560,94
2021-12-24 14:39:12.680566,94
2021-12-24 14:39:12.680573,97
2021-12-24 14:39:12.951328,101
2021-12-24 14:39:12.951349,111
2021-12-24 14:39:12.951357,116
2021-12-24 14:39:12.951363,111
2021-12-24 14:39:12.951369,113
2021-12-24 14:39:12.951376,127
2021-12-24 14:39:12.951382,139
2021-12-24 14:39:12.951389,151
2021-12-24 14:39:12.951395,165
2021-12-24 14:39:12.951401,170
2021-12-24 14:39:12.951407,175
2021-12-24 14:39:12.951414,196
2021-12-24 14:39:12.951420,206
2021-12-24 14:39:12.951427,203
2021-12-24 14:39:12.951433,201
2021-12-24 14:39:12.951439,191
2021-12-24 14:39:12.951446,182
2021-12-24 14:39:12.951452,170
2021-12-24 14:39:12.951458,139
2021-12-24 14:39:12.951465,101
2021-12-24 14:39:12.951471,66
2021-12-24 14:39:12.951477,30
2021-12-24 14:39:12.951484,2
2021-12-24 14:39:12.951490,-11
2021-12-24 14:39:12.951496,-21
2021-12-24 14:39:12.951503,-26
2021-12-24 14:39:12.951509,-23
2021-12-24 14:39:12.951515,-23
2021-12-24 14:39:12.951522,-21
2021-12-24 14:39:12.951528,-16
2021-12-24 14:39:13.132142,-9
2021-12-24 14:39:13.132182,-4
2021-12-24 14:39:13.132194,-7
2021-12-24 14:39:13.132204,-4
2021-12-24 14:39:13.132215,7
2021-12-24 14:39:13.132225,14
2021-12-24 14:39:13.132234,14
2021-12-24 14:39:13.132244,21
2021-12-24 14:39:13.132254,26
2021-12-24 14:39:13.132264,26
2021-12-24 14:39:13.132273,28
2021-12-24 14:39:13.132283,33
2021-12-24 14:39:13.132293,30
2021-12-24 14:39:13.132303,30
2021-12-24 14:39:13.132313,33
2021-12-24 14:39:13.132322,26
2021-12-24 14:39:13.132332,16
2021-12-24 14:39:13.132342,14
2021-12-24 14:39:13.132352,14
2021-12-24 14:39:13.132362,21
2021-12-24 14:39:13.132371,42
2021-12-24 14:39:13.132381,54
2021-12-24 14:39:13.132391,54
2021-12-24 14:39:13.132401,49
2021-12-24 14:39:13.132411,40
2021-12-24 14:39:13.132421,23
2021-12-24 14:39:13.132431,18
2021-12-24 14:39:13.132440,26
2021-12-24 14:39:13.132451,26
2021-12-24 14:39:13.132460,21
2021-12-24 14:39:13.447203,26
2021-12-24 14:39:13.447233,30
2021-12-24 14:39:13.447245,33
2021-12-24 14:39:13.447255,33
2021-12-24 14:39:13.447265,49
2021-12-24 14:39:13.447275,99
2021-12-24 14:39:13.447285,206
2021-12-24 14:39:13.447295,369
2021-12-24 14:39:13.447305,468
2021-12-24 14:39:13.447315,222
2021-12-24 14:39:13.447325,-466
2021-12-24 14:39:13.447335,-876
2021-12-24 14:39:13.447345,-440
2021-12-24 14:39:13.447355,54
2021-12-24 14:39:13.447365,49
2021-12-24 14:39:13.447375,9
2021-12-24 14:39:13.447385,92
2021-12-24 14:39:13.447395,89
2021-12-24 14:39:13.447405,56
2021-12-24 14:39:13.447415,71
2021-12-24 14:39:13.447425,80
2021-12-24 14:39:13.447435,80
2021-12-24 14:39:13.447444,87
2021-12-24 14:39:13.447454,92
2021-12-24 14:39:13.447464,89
2021-12-24 14:39:13.447474,97
2021-12-24 14:39:13.447484,99
2021-12-24 14:39:13.447494,94
2021-12-24 14:39:13.447504,101
2021-12-24 14:39:13.447514,113
2021-12-24 14:39:13.581760,123
2021-12-24 14:39:13.581790,132
2021-12-24 14:39:13.581802,139
2021-12-24 14:39:13.581812,146
2021-12-24 14:39:13.581822,161
2021-12-24 14:39:13.581832,179
2021-12-24 14:39:13.581842,189
2021-12-24 14:39:13.581852,191
2021-12-24 14:39:13.581861,194
2021-12-24 14:39:13.581871,198
2021-12-24 14:39:13.581881,191
2021-12-24 14:39:13.581891,182
2021-12-24 14:39:13.581901,170
2021-12-24 14:39:13.581911,149
2021-12-24 14:39:13.581920,120
2021-12-24 14:39:13.581930,82
2021-12-24 14:39:13.581940,44
2021-12-24 14:39:13.581950,18
2021-12-24 14:39:13.581960,2
2021-12-24 14:39:13.581970,-11
2021-12-24 14:39:13.581980,-18
2021-12-24 14:39:13.581990,-18
2021-12-24 14:39:13.582000,-16
2021-12-24 14:39:13.582009,-11
2021-12-24 14:39:13.582019,-9
2021-12-24 14:39:13.582029,-4
2021-12-24 14:39:13.582039,4
2021-12-24 14:39:13.582049,11
2021-12-24 14:39:13.582059,16
2021-12-24 14:39:13.582069,21
2021-12-24 14:39:13.941579,21
2021-12-24 14:39:13.941609,21
2021-12-24 14:39:13.941621,26
2021-12-24 14:39:13.941632,35
2021-12-24 14:39:13.941642,40
2021-12-24 14:39:13.941651,37
2021-12-24 14:39:13.941661,40
2021-12-24 14:39:13.941671,37
2021-12-24 14:39:13.941681,35
2021-12-24 14:39:13.941690,37
2021-12-24 14:39:13.941700,40
2021-12-24 14:39:13.941710,40
2021-12-24 14:39:13.941720,37
2021-12-24 14:39:13.941729,33
2021-12-24 14:39:13.941739,35
2021-12-24 14:39:13.941749,35
2021-12-24 14:39:13.941759,26
2021-12-24 14:39:13.941768,28
2021-12-24 14:39:13.941778,42
2021-12-24 14:39:13.941788,54
2021-12-24 14:39:13.941798,63
2021-12-24 14:39:13.941808,68
2021-12-24 14:39:13.941818,68
2021-12-24 14:39:13.941828,61
2021-12-24 14:39:13.941837,37
2021-12-24 14:39:13.941847,21
2021-12-24 14:39:13.941857,28
2021-12-24 14:39:13.941867,37
2021-12-24 14:39:13.941877,35
2021-12-24 14:39:13.941886,33
2021-12-24 14:39:14.032106,40
2021-12-24 14:39:14.032136,42
2021-12-24 14:39:14.032148,42
2021-12-24 14:39:14.032158,54
2021-12-24 14:39:14.032169,92
2021-12-24 14:39:14.032178,179
2021-12-24 14:39:14.032188,317
2021-12-24 14:39:14.032198,447
2021-12-24 14:39:14.032208,395
2021-12-24 14:39:14.032218,-108
2021-12-24 14:39:14.032228,-767
2021-12-24 14:39:14.032238,-663
2021-12-24 14:39:14.032248,-42
2021-12-24 14:39:14.032258,111
2021-12-24 14:39:14.032268,-7
2021-12-24 14:39:14.032278,66
2021-12-24 14:39:14.032288,104
2021-12-24 14:39:14.032298,47
2021-12-24 14:39:14.032308,61
2021-12-24 14:39:14.032318,94
2021-12-24 14:39:14.032328,80
2021-12-24 14:39:14.032337,71
2021-12-24 14:39:14.032347,82
2021-12-24 14:39:14.032357,87
2021-12-24 14:39:14.032367,85
2021-12-24 14:39:14.032377,82
2021-12-24 14:39:14.032387,82
2021-12-24 14:39:14.032397,92
2021-12-24 14:39:14.032407,99
2021-12-24 14:39:14.032426,99
2021-12-24 14:39:14.301731,104
2021-12-24 14:39:14.301762,116
2021-12-24 14:39:14.301774,125
2021-12-24 14:39:14.301784,134
2021-12-24 14:39:14.301794,144
2021-12-24 14:39:14.301804,151
2021-12-24 14:39:14.301814,158
2021-12-24 14:39:14.301824,165
2021-12-24 14:39:14.301834,168
2021-12-24 14:39:14.301844,170
2021-12-24 14:39:14.301853,156
2021-12-24 14:39:14.301863,130
2021-12-24 14:39:14.301873,113
2021-12-24 14:39:14.301883,108
2021-12-24 14:39:14.301893,85
2021-12-24 14:39:14.301903,47
2021-12-24 14:39:14.301913,30
2021-12-24 14:39:14.301922,21
2021-12-24 14:39:14.301932,14
2021-12-24 14:39:14.301942,14
2021-12-24 14:39:14.301952,7
2021-12-24 14:39:14.301962,4
2021-12-24 14:39:14.301971,9
2021-12-24 14:39:14.301981,11
2021-12-24 14:39:14.301991,18
2021-12-24 14:39:14.302001,30
2021-12-24 14:39:14.302010,33
2021-12-24 14:39:14.302020,30
2021-12-24 14:39:14.302030,30
2021-12-24 14:39:14.302040,40
2021-12-24 14:39:14.526752,47
2021-12-24 14:39:14.526782,47
2021-12-24 14:39:14.526794,47
2021-12-24 14:39:14.526804,52
2021-12-24 14:39:14.526814,52
2021-12-24 14:39:14.526824,49
2021-12-24 14:39:14.526833,49
2021-12-24 14:39:14.526843,52
2021-12-24 14:39:14.526853,54
2021-12-24 14:39:14.526862,54
2021-12-24 14:39:14.526872,47
2021-12-24 14:39:14.526882,42
2021-12-24 14:39:14.526891,49
2021-12-24 14:39:14.526901,49
2021-12-24 14:39:14.526911,49
2021-12-24 14:39:14.526920,49
2021-12-24 14:39:14.526930,44
2021-12-24 14:39:14.526940,42
2021-12-24 14:39:14.526949,44
2021-12-24 14:39:14.526959,40
2021-12-24 14:39:14.526968,37
2021-12-24 14:39:14.526978,42
2021-12-24 14:39:14.526988,42
2021-12-24 14:39:14.526998,35
2021-12-24 14:39:14.527007,30
2021-12-24 14:39:14.527017,33
2021-12-24 14:39:14.527026,37
2021-12-24 14:39:14.527036,42
2021-12-24 14:39:14.527046,54
2021-12-24 14:39:14.527056,73
2021-12-24 14:39:14.795240,87
2021-12-24 14:39:14.795271,85
2021-12-24 14:39:14.795283,73
2021-12-24 14:39:14.795294,52
2021-12-24 14:39:14.795303,40
2021-12-24 14:39:14.795313,49
2021-12-24 14:39:14.795323,54
2021-12-24 14:39:14.795333,44
2021-12-24 14:39:14.795342,49
2021-12-24 14:39:14.795352,61
2021-12-24 14:39:14.795362,59
2021-12-24 14:39:14.795372,59
2021-12-24 14:39:14.795381,71
2021-12-24 14:39:14.795391,111
2021-12-24 14:39:14.795401,191
2021-12-24 14:39:14.795410,319
2021-12-24 14:39:14.795420,449
2021-12-24 14:39:14.795430,409
2021-12-24 14:39:14.795440,-89
2021-12-24 14:39:14.795450,-727
2021-12-24 14:39:14.795459,-577
2021-12-24 14:39:14.795469,18
2021-12-24 14:39:14.795479,99
2021-12-24 14:39:14.795489,-23
2021-12-24 14:39:14.795498,73
2021-12-24 14:39:14.795508,111
2021-12-24 14:39:14.795518,56
2021-12-24 14:39:14.795528,71
2021-12-24 14:39:14.795537,92
2021-12-24 14:39:14.795547,78
2021-12-24 14:39:15.022168,75
2021-12-24 14:39:15.022195,82
2021-12-24 14:39:15.022207,78
2021-12-24 14:39:15.022218,78
2021-12-24 14:39:15.022229,87
2021-12-24 14:39:15.022239,89
2021-12-24 14:39:15.022246,92
2021-12-24 14:39:15.022252,101
2021-12-24 14:39:15.022259,106
2021-12-24 14:39:15.022265,99
2021-12-24 14:39:15.022272,101
2021-12-24 14:39:15.022278,111
2021-12-24 14:39:15.022285,123
2021-12-24 14:39:15.022291,134
2021-12-24 14:39:15.022298,139
2021-12-24 14:39:15.022304,137
2021-12-24 14:39:15.022311,139
2021-12-24 14:39:15.022318,153
2021-12-24 14:39:15.022324,146
2021-12-24 14:39:15.022331,130
2021-12-24 14:39:15.022337,125
2021-12-24 14:39:15.022343,118
2021-12-24 14:39:15.022350,97
2021-12-24 14:39:15.022356,73
2021-12-24 14:39:15.022363,49
2021-12-24 14:39:15.022372,26
2021-12-24 14:39:15.022384,7
2021-12-24 14:39:15.022393,0
2021-12-24 14:39:15.022399,7
2021-12-24 14:39:15.022406,9
2021-12-24 14:39:15.292236,7
2021-12-24 14:39:15.292267,9
2021-12-24 14:39:15.292279,11
2021-12-24 14:39:15.292289,16
2021-12-24 14:39:15.292298,26
2021-12-24 14:39:15.292308,18
2021-12-24 14:39:15.292318,11
2021-12-24 14:39:15.292328,30
2021-12-24 14:39:15.292338,42
2021-12-24 14:39:15.292347,35
2021-12-24 14:39:15.292357,37
2021-12-24 14:39:15.292367,40
2021-12-24 14:39:15.292377,42
2021-12-24 14:39:15.292386,54
2021-12-24 14:39:15.292396,52
2021-12-24 14:39:15.292406,44
2021-12-24 14:39:15.292416,49
2021-12-24 14:39:15.292425,54
2021-12-24 14:39:15.292435,47
2021-12-24 14:39:15.292445,44
2021-12-24 14:39:15.292455,44
2021-12-24 14:39:15.292464,42
2021-12-24 14:39:15.292474,47
2021-12-24 14:39:15.292484,52
2021-12-24 14:39:15.292494,47
2021-12-24 14:39:15.292503,44
2021-12-24 14:39:15.292513,49
2021-12-24 14:39:15.292523,49
2021-12-24 14:39:15.292532,49
2021-12-24 14:39:15.292542,52
2021-12-24 14:39:15.471748,47
2021-12-24 14:39:15.471778,44
2021-12-24 14:39:15.471789,52
2021-12-24 14:39:15.471800,49
2021-12-24 14:39:15.471810,33
2021-12-24 14:39:15.471820,23
2021-12-24 14:39:15.471829,37
2021-12-24 14:39:15.471839,52
2021-12-24 14:39:15.471849,61
2021-12-24 14:39:15.471859,80
2021-12-24 14:39:15.471869,94
2021-12-24 14:39:15.471879,87
2021-12-24 14:39:15.471888,61
2021-12-24 14:39:15.471899,47
2021-12-24 14:39:15.471909,47
2021-12-24 14:39:15.471918,54
2021-12-24 14:39:15.471928,54
2021-12-24 14:39:15.471938,52
2021-12-24 14:39:15.471948,56
2021-12-24 14:39:15.471958,56
2021-12-24 14:39:15.471968,63
2021-12-24 14:39:15.471977,68
2021-12-24 14:39:15.471987,75
2021-12-24 14:39:15.471997,120
2021-12-24 14:39:15.472007,229
2021-12-24 14:39:15.472017,381
2021-12-24 14:39:15.472026,492
2021-12-24 14:39:15.472036,319
2021-12-24 14:39:15.472046,-329
2021-12-24 14:39:15.472056,-802
2021-12-24 14:39:15.696800,-407
2021-12-24 14:39:15.696830,101
2021-12-24 14:39:15.696842,56
2021-12-24 14:39:15.696852,-7
2021-12-24 14:39:15.696862,101
2021-12-24 14:39:15.696872,101
2021-12-24 14:39:15.696882,56
2021-12-24 14:39:15.696891,82
2021-12-24 14:39:15.696901,89
2021-12-24 14:39:15.696911,66
2021-12-24 14:39:15.696921,71
2021-12-24 14:39:15.696930,82
2021-12-24 14:39:15.696940,75
2021-12-24 14:39:15.696950,68
2021-12-24 14:39:15.696959,73
2021-12-24 14:39:15.696969,80
2021-12-24 14:39:15.696979,82
2021-12-24 14:39:15.696989,89
2021-12-24 14:39:15.696998,94
2021-12-24 14:39:15.697008,92
2021-12-24 14:39:15.697018,99
2021-12-24 14:39:15.697027,113
2021-12-24 14:39:15.697037,123
2021-12-24 14:39:15.697046,132
2021-12-24 14:39:15.697056,142
2021-12-24 14:39:15.697066,149
2021-12-24 14:39:15.697076,158
2021-12-24 14:39:15.697085,161
2021-12-24 14:39:15.697100,146
2021-12-24 14:39:15.697110,137
2021-12-24 14:39:15.922208,127
2021-12-24 14:39:15.922238,116
2021-12-24 14:39:15.922250,97
2021-12-24 14:39:15.922261,66
2021-12-24 14:39:15.922271,35
2021-12-24 14:39:15.922281,28
2021-12-24 14:39:15.922291,18
2021-12-24 14:39:15.922301,-2
2021-12-24 14:39:15.922311,-9
2021-12-24 14:39:15.922321,-9
2021-12-24 14:39:15.922330,-11
2021-12-24 14:39:15.922340,-9
2021-12-24 14:39:15.922350,-4
2021-12-24 14:39:15.922360,2
2021-12-24 14:39:15.922370,9
2021-12-24 14:39:15.922380,14
2021-12-24 14:39:15.922390,11
2021-12-24 14:39:15.922400,11
2021-12-24 14:39:15.922409,21
2021-12-24 14:39:15.922419,26
2021-12-24 14:39:15.922429,23
2021-12-24 14:39:15.922439,28
2021-12-24 14:39:15.922448,40
2021-12-24 14:39:15.922458,44
2021-12-24 14:39:15.922468,37
2021-12-24 14:39:15.922478,40
2021-12-24 14:39:15.922488,44
2021-12-24 14:39:15.922497,42
2021-12-24 14:39:15.922507,44
2021-12-24 14:39:15.922517,49
2021-12-24 14:39:16.146538,44
2021-12-24 14:39:16.146560,35
2021-12-24 14:39:16.146567,42
2021-12-24 14:39:16.146574,49
2021-12-24 14:39:16.146581,35
2021-12-24 14:39:16.146587,26
2021-12-24 14:39:16.146594,35
2021-12-24 14:39:16.146600,47
2021-12-24 14:39:16.146606,40
2021-12-24 14:39:16.146613,30
2021-12-24 14:39:16.146619,30
2021-12-24 14:39:16.146625,30
2021-12-24 14:39:16.146631,26
2021-12-24 14:39:16.146638,28
2021-12-24 14:39:16.146644,30
2021-12-24 14:39:16.146651,33
2021-12-24 14:39:16.146657,33
2021-12-24 14:39:16.146663,28
2021-12-24 14:39:16.146669,18
2021-12-24 14:39:16.146676,18
2021-12-24 14:39:16.146682,33
2021-12-24 14:39:16.146688,54
2021-12-24 14:39:16.146694,66
2021-12-24 14:39:16.146700,66
2021-12-24 14:39:16.146707,68
2021-12-24 14:39:16.146713,66
2021-12-24 14:39:16.146719,44
2021-12-24 14:39:16.146726,28
2021-12-24 14:39:16.146732,33
2021-12-24 14:39:16.146738,44
2021-12-24 14:39:16.326859,42
2021-12-24 14:39:16.326890,42
2021-12-24 14:39:16.326902,49
2021-12-24 14:39:16.326912,54
2021-12-24 14:39:16.326921,52
2021-12-24 14:39:16.326931,59
2021-12-24 14:39:16.326941,101
2021-12-24 14:39:16.326950,194
2021-12-24 14:39:16.326960,341
2021-12-24 14:39:16.326970,490
2021-12-24 14:39:16.326980,428
2021-12-24 14:39:16.326989,-137
2021-12-24 14:39:16.326999,-798
2021-12-24 14:39:16.327009,-644
2021-12-24 14:39:16.327019,-35
2021-12-24 14:39:16.327028,92
2021-12-24 14:39:16.327038,-14
2021-12-24 14:39:16.327048,56
2021-12-24 14:39:16.327057,99
2021-12-24 14:39:16.327067,54
2021-12-24 14:39:16.327077,61
2021-12-24 14:39:16.327086,89
2021-12-24 14:39:16.327096,75
2021-12-24 14:39:16.327105,71
2021-12-24 14:39:16.327115,89
2021-12-24 14:39:16.327125,89
2021-12-24 14:39:16.327134,82
2021-12-24 14:39:16.327144,92
2021-12-24 14:39:16.327154,92
2021-12-24 14:39:16.327164,94
2021-12-24 14:39:16.596763,101
2021-12-24 14:39:16.596793,111
2021-12-24 14:39:16.596805,120
2021-12-24 14:39:16.596815,120
2021-12-24 14:39:16.596825,123
2021-12-24 14:39:16.596835,137
2021-12-24 14:39:16.596845,149
2021-12-24 14:39:16.596854,161
2021-12-24 14:39:16.596864,177
2021-12-24 14:39:16.596873,184
2021-12-24 14:39:16.596883,177
2021-12-24 14:39:16.596893,163
2021-12-24 14:39:16.596903,156
2021-12-24 14:39:16.596913,149
2021-12-24 14:39:16.596922,132
2021-12-24 14:39:16.596932,106
2021-12-24 14:39:16.596942,89
2021-12-24 14:39:16.596951,68
2021-12-24 14:39:16.596961,35
2021-12-24 14:39:16.596970,11
2021-12-24 14:39:16.596980,-4
2021-12-24 14:39:16.596990,-18
2021-12-24 14:39:16.597000,-21
2021-12-24 14:39:16.597009,-21
2021-12-24 14:39:16.597019,-18
2021-12-24 14:39:16.597028,-9
2021-12-24 14:39:16.597038,0
2021-12-24 14:39:16.597048,0
2021-12-24 14:39:16.597058,7
2021-12-24 14:39:16.597067,11
2021-12-24 14:39:16.865485,16
2021-12-24 14:39:16.865507,28
2021-12-24 14:39:16.865515,30
2021-12-24 14:39:16.865522,23
2021-12-24 14:39:16.865528,30
2021-12-24 14:39:16.865534,47
2021-12-24 14:39:16.865541,47
2021-12-24 14:39:16.865547,42
2021-12-24 14:39:16.865553,44
2021-12-24 14:39:16.865559,47
2021-12-24 14:39:16.865566,47
2021-12-24 14:39:16.865572,49
2021-12-24 14:39:16.865579,49
2021-12-24 14:39:16.865585,49
2021-12-24 14:39:16.865591,49
2021-12-24 14:39:16.865597,42
2021-12-24 14:39:16.865604,35
2021-12-24 14:39:16.865610,28
2021-12-24 14:39:16.865616,30
2021-12-24 14:39:16.865622,40
2021-12-24 14:39:16.865629,49
2021-12-24 14:39:16.865635,61
2021-12-24 14:39:16.865641,75
2021-12-24 14:39:16.865647,80
2021-12-24 14:39:16.865653,68
2021-12-24 14:39:16.865660,52
2021-12-24 14:39:16.865666,40
2021-12-24 14:39:16.865672,40
2021-12-24 14:39:16.865688,42
2021-12-24 14:39:16.865695,42
2021-12-24 14:39:17.046828,42
2021-12-24 14:39:17.046850,47
2021-12-24 14:39:17.046858,52
2021-12-24 14:39:17.046864,52
2021-12-24 14:39:17.046871,54
2021-12-24 14:39:17.046877,82
2021-12-24 14:39:17.046884,149
2021-12-24 14:39:17.046890,279
2021-12-24 14:39:17.046896,433
2021-12-24 14:39:17.046903,452
2021-12-24 14:39:17.046909,30
2021-12-24 14:39:17.046916,-682
2021-12-24 14:39:17.046922,-788
2021-12-24 14:39:17.046928,-196
2021-12-24 14:39:17.046935,111
2021-12-24 14:39:17.046941,18
2021-12-24 14:39:17.046948,44
2021-12-24 14:39:17.046954,106
2021-12-24 14:39:17.046960,68
2021-12-24 14:39:17.046967,66
2021-12-24 14:39:17.046973,89
2021-12-24 14:39:17.046979,73
2021-12-24 14:39:17.046985,68
2021-12-24 14:39:17.046992,87
2021-12-24 14:39:17.046998,92
2021-12-24 14:39:17.047004,92
2021-12-24 14:39:17.047011,94
2021-12-24 14:39:17.047017,97
2021-12-24 14:39:17.047024,106
2021-12-24 14:39:17.047030,113
2021-12-24 14:39:17.316788,118
2021-12-24 14:39:17.316810,125
2021-12-24 14:39:17.316818,137
2021-12-24 14:39:17.316825,146
2021-12-24 14:39:17.316831,156
2021-12-24 14:39:17.316838,175
2021-12-24 14:39:17.316844,194
2021-12-24 14:39:17.316850,201
2021-12-24 14:39:17.316857,203
2021-12-24 14:39:17.316863,215
2021-12-24 14:39:17.316869,220
2021-12-24 14:39:17.316876,210
2021-12-24 14:39:17.316882,194
2021-12-24 14:39:17.316888,177
2021-12-24 14:39:17.316895,156
2021-12-24 14:39:17.316901,123
2021-12-24 14:39:17.316907,82
2021-12-24 14:39:17.316914,47
2021-12-24 14:39:17.316920,21
2021-12-24 14:39:17.316927,4
2021-12-24 14:39:17.316933,-11
2021-12-24 14:39:17.316939,-18
2021-12-24 14:39:17.316946,-11
2021-12-24 14:39:17.316952,-9
2021-12-24 14:39:17.316959,-9
2021-12-24 14:39:17.316965,0
2021-12-24 14:39:17.316972,14
2021-12-24 14:39:17.316978,11
2021-12-24 14:39:17.316985,14
2021-12-24 14:39:17.316991,21
2021-12-24 14:39:17.542111,26
2021-12-24 14:39:17.542132,30
2021-12-24 14:39:17.542140,37
2021-12-24 14:39:17.542146,40
2021-12-24 14:39:17.542152,44
2021-12-24 14:39:17.542159,52
2021-12-24 14:39:17.542165,52
2021-12-24 14:39:17.542172,47
2021-12-24 14:39:17.542178,47
2021-12-24 14:39:17.542185,52
2021-12-24 14:39:17.542191,49
2021-12-24 14:39:17.542197,49
2021-12-24 14:39:17.542204,49
2021-12-24 14:39:17.542210,47
2021-12-24 14:39:17.542217,47
2021-12-24 14:39:17.542223,52
2021-12-24 14:39:17.542229,49
2021-12-24 14:39:17.542236,42
2021-12-24 14:39:17.542242,33
2021-12-24 14:39:17.542249,35
2021-12-24 14:39:17.542255,54
2021-12-24 14:39:17.542261,75
2021-12-24 14:39:17.542268,82
2021-12-24 14:39:17.542278,71
2021-12-24 14:39:17.542284,59
2021-12-24 14:39:17.542290,52
2021-12-24 14:39:17.542297,42
2021-12-24 14:39:17.542303,37
2021-12-24 14:39:17.542310,37
2021-12-24 14:39:17.542316,44
2021-12-24 14:39:17.722169,52
2021-12-24 14:39:17.722199,49
2021-12-24 14:39:17.722211,44
2021-12-24 14:39:17.722222,44
2021-12-24 14:39:17.722232,52
2021-12-24 14:39:17.722241,80
2021-12-24 14:39:17.722251,153
2021-12-24 14:39:17.722261,286
2021-12-24 14:39:17.722271,438
2021-12-24 14:39:17.722280,438
2021-12-24 14:39:17.722290,-2
2021-12-24 14:39:17.722300,-691
2021-12-24 14:39:17.722310,-715
2021-12-24 14:39:17.722320,-99
2021-12-24 14:39:17.722330,134
2021-12-24 14:39:17.722340,7
2021-12-24 14:39:17.722349,59
2021-12-24 14:39:17.722359,127
2021-12-24 14:39:17.722369,78
2021-12-24 14:39:17.722379,71
2021-12-24 14:39:17.722389,101
2021-12-24 14:39:17.722398,101
2021-12-24 14:39:17.722408,97
2021-12-24 14:39:17.722418,99
2021-12-24 14:39:17.722427,97
2021-12-24 14:39:17.722437,101
2021-12-24 14:39:17.722447,104
2021-12-24 14:39:17.722456,97
2021-12-24 14:39:17.722466,101
2021-12-24 14:39:17.722476,118
2021-12-24 14:39:17.947301,123
2021-12-24 14:39:17.947331,120
2021-12-24 14:39:17.947343,134
2021-12-24 14:39:17.947354,146
2021-12-24 14:39:17.947363,146
2021-12-24 14:39:17.947373,153
2021-12-24 14:39:17.947383,170
2021-12-24 14:39:17.947392,182
2021-12-24 14:39:17.947402,184
2021-12-24 14:39:17.947412,179
2021-12-24 14:39:17.947421,172
2021-12-24 14:39:17.947431,168
2021-12-24 14:39:17.947441,161
2021-12-24 14:39:17.947450,139
2021-12-24 14:39:17.947460,113
2021-12-24 14:39:17.947470,92
2021-12-24 14:39:17.947479,68
2021-12-24 14:39:17.947489,44
2021-12-24 14:39:17.947498,26
2021-12-24 14:39:17.947508,14
2021-12-24 14:39:17.947518,11
2021-12-24 14:39:17.947527,9
2021-12-24 14:39:17.947537,11
2021-12-24 14:39:17.947547,16
2021-12-24 14:39:17.947556,21
2021-12-24 14:39:17.947566,28
2021-12-24 14:39:17.947576,28
2021-12-24 14:39:17.947585,28
2021-12-24 14:39:17.947595,30
2021-12-24 14:39:17.947604,30
2021-12-24 14:39:18.306560,33
2021-12-24 14:39:18.306590,37
2021-12-24 14:39:18.306602,40
2021-12-24 14:39:18.306612,47
2021-12-24 14:39:18.306622,49
2021-12-24 14:39:18.306632,42
2021-12-24 14:39:18.306642,47
2021-12-24 14:39:18.306652,52
2021-12-24 14:39:18.306661,49
2021-12-24 14:39:18.306671,52
2021-12-24 14:39:18.306681,52
2021-12-24 14:39:18.306691,42
2021-12-24 14:39:18.306700,44
2021-12-24 14:39:18.306710,56
2021-12-24 14:39:18.306720,52
2021-12-24 14:39:18.306730,40
2021-12-24 14:39:18.306740,40
2021-12-24 14:39:18.306749,44
2021-12-24 14:39:18.306759,49
2021-12-24 14:39:18.306769,49
2021-12-24 14:39:18.306779,44
2021-12-24 14:39:18.306788,49
2021-12-24 14:39:18.306798,52
2021-12-24 14:39:18.306808,37
2021-12-24 14:39:18.306817,28
2021-12-24 14:39:18.306827,44
2021-12-24 14:39:18.306837,66
2021-12-24 14:39:18.306847,73
2021-12-24 14:39:18.306857,78
2021-12-24 14:39:18.306866,85
2021-12-24 14:39:18.531406,80
2021-12-24 14:39:18.531427,61
2021-12-24 14:39:18.531435,42
2021-12-24 14:39:18.531441,35
2021-12-24 14:39:18.531448,37
2021-12-24 14:39:18.531471,49
2021-12-24 14:39:18.531482,49
2021-12-24 14:39:18.531491,42
2021-12-24 14:39:18.531501,49
2021-12-24 14:39:18.531511,52
2021-12-24 14:39:18.531521,47
2021-12-24 14:39:18.531531,71
2021-12-24 14:39:18.531540,137
2021-12-24 14:39:18.531550,251
2021-12-24 14:39:18.531560,414
2021-12-24 14:39:18.531570,499
2021-12-24 14:39:18.531580,213
2021-12-24 14:39:18.531589,-471
2021-12-24 14:39:18.531599,-760
2021-12-24 14:39:18.531609,-251
2021-12-24 14:39:18.531619,123
2021-12-24 14:39:18.531629,11
2021-12-24 14:39:18.531639,4
2021-12-24 14:39:18.531649,101
2021-12-24 14:39:18.531659,75
2021-12-24 14:39:18.531669,56
2021-12-24 14:39:18.531678,85
2021-12-24 14:39:18.531688,78
2021-12-24 14:39:18.531698,73
2021-12-24 14:39:18.531708,89
2021-12-24 14:39:18.666662,89
2021-12-24 14:39:18.666683,80
2021-12-24 14:39:18.666691,82
2021-12-24 14:39:18.666698,80
2021-12-24 14:39:18.666704,71
2021-12-24 14:39:18.666710,73
2021-12-24 14:39:18.666717,87
2021-12-24 14:39:18.666723,97
2021-12-24 14:39:18.666729,99
2021-12-24 14:39:18.666736,111
2021-12-24 14:39:18.666742,116
2021-12-24 14:39:18.666749,120
2021-12-24 14:39:18.666755,134
2021-12-24 14:39:18.666761,146
2021-12-24 14:39:18.666768,144
2021-12-24 14:39:18.666774,139
2021-12-24 14:39:18.666780,139
2021-12-24 14:39:18.666787,142
2021-12-24 14:39:18.666793,137
2021-12-24 14:39:18.666799,125
2021-12-24 14:39:18.666806,111
2021-12-24 14:39:18.666812,85
2021-12-24 14:39:18.666818,54
2021-12-24 14:39:18.666825,28
2021-12-24 14:39:18.666831,9
2021-12-24 14:39:18.666838,-2
2021-12-24 14:39:18.666844,-7
2021-12-24 14:39:18.666851,-4
2021-12-24 14:39:18.666857,0
2021-12-24 14:39:18.666863,4
2021-12-24 14:39:18.935694,7
2021-12-24 14:39:18.935715,7
2021-12-24 14:39:18.935722,4
2021-12-24 14:39:18.935729,9
2021-12-24 14:39:18.935735,11
2021-12-24 14:39:18.935741,11
2021-12-24 14:39:18.935748,16
2021-12-24 14:39:18.935754,26
2021-12-24 14:39:18.935760,28
2021-12-24 14:39:18.935766,30
2021-12-24 14:39:18.935773,35
2021-12-24 14:39:18.935779,35
2021-12-24 14:39:18.935785,35
2021-12-24 14:39:18.935791,37
2021-12-24 14:39:18.935798,37
2021-12-24 14:39:18.935804,37
2021-12-24 14:39:18.935810,40
2021-12-24 14:39:18.935816,40
2021-12-24 14:39:18.935823,42
2021-12-24 14:39:18.935829,42
2021-12-24 14:39:18.935835,42
2021-12-24 14:39:18.935841,37
2021-12-24 14:39:18.935848,37
2021-12-24 14:39:18.935854,40
2021-12-24 14:39:18.935860,40
2021-12-24 14:39:18.935866,40
2021-12-24 14:39:18.935873,40
2021-12-24 14:39:18.935879,35
2021-12-24 14:39:18.935885,30
2021-12-24 14:39:18.935891,30
2021-12-24 14:39:19.206485,28
2021-12-24 14:39:19.206505,26
2021-12-24 14:39:19.206551,40
2021-12-24 14:39:19.206565,63
2021-12-24 14:39:19.206572,75
2021-12-24 14:39:19.206579,68
2021-12-24 14:39:19.206585,63
2021-12-24 14:39:19.206592,49
2021-12-24 14:39:19.206598,26
2021-12-24 14:39:19.206608,14
2021-12-24 14:39:19.206642,16
2021-12-24 14:39:19.206652,11
2021-12-24 14:39:19.206659,11
2021-12-24 14:39:19.206666,23
2021-12-24 14:39:19.206672,30
2021-12-24 14:39:19.206679,28
2021-12-24 14:39:19.206685,23
2021-12-24 14:39:19.206692,28
2021-12-24 14:39:19.206698,78
2021-12-24 14:39:19.206705,196
2021-12-24 14:39:19.206711,376
2021-12-24 14:39:19.206718,520
2021-12-24 14:39:19.206724,388
2021-12-24 14:39:19.206730,-267
2021-12-24 14:39:19.206737,-871
2021-12-24 14:39:19.206743,-573
2021-12-24 14:39:19.206749,21
2021-12-24 14:39:19.206756,54
2021-12-24 14:39:19.206762,-35
2021-12-24 14:39:19.206769,73
2021-12-24 14:39:19.432239,82
2021-12-24 14:39:19.432270,23
2021-12-24 14:39:19.432282,61
2021-12-24 14:39:19.432293,94
2021-12-24 14:39:19.432302,56
2021-12-24 14:39:19.432312,37
2021-12-24 14:39:19.432322,56
2021-12-24 14:39:19.432332,61
2021-12-24 14:39:19.432341,42
2021-12-24 14:39:19.432351,44
2021-12-24 14:39:19.432361,66
2021-12-24 14:39:19.432371,73
2021-12-24 14:39:19.432381,75
2021-12-24 14:39:19.432390,82
2021-12-24 14:39:19.432400,85
2021-12-24 14:39:19.432410,92
2021-12-24 14:39:19.432420,108
2021-12-24 14:39:19.432429,113
2021-12-24 14:39:19.432439,116
2021-12-24 14:39:19.432449,127
2021-12-24 14:39:19.432459,149
2021-12-24 14:39:19.432468,156
2021-12-24 14:39:19.432478,156
2021-12-24 14:39:19.432488,158
2021-12-24 14:39:19.432498,137
2021-12-24 14:39:19.432507,106
2021-12-24 14:39:19.432517,97
2021-12-24 14:39:19.432527,82
2021-12-24 14:39:19.432537,52
2021-12-24 14:39:19.432546,18
2021-12-24 14:39:19.745723,-11
2021-12-24 14:39:19.745746,-30
2021-12-24 14:39:19.745786,-40
2021-12-24 14:39:19.745795,-42
2021-12-24 14:39:19.745802,-47
2021-12-24 14:39:19.745808,-59
2021-12-24 14:39:19.745815,-63
2021-12-24 14:39:19.745821,-56
2021-12-24 14:39:19.745828,-49
2021-12-24 14:39:19.745834,-44
2021-12-24 14:39:19.745840,-37
2021-12-24 14:39:19.745847,-30
2021-12-24 14:39:19.745853,-23
2021-12-24 14:39:19.745860,-14
2021-12-24 14:39:19.745866,-9
2021-12-24 14:39:19.745872,-9
2021-12-24 14:39:19.745879,-2
2021-12-24 14:39:19.745888,4
2021-12-24 14:39:19.745895,2
2021-12-24 14:39:19.745901,7
2021-12-24 14:39:19.745907,21
2021-12-24 14:39:19.745914,4
2021-12-24 14:39:19.745920,-4
2021-12-24 14:39:19.745926,23
2021-12-24 14:39:19.745933,30
2021-12-24 14:39:19.745939,2
2021-12-24 14:39:19.745945,-4
2021-12-24 14:39:19.745952,14
2021-12-24 14:39:19.745958,21
2021-12-24 14:39:19.745964,4
2021-12-24 14:39:19.836520,-11
2021-12-24 14:39:19.836565,-11
2021-12-24 14:39:19.836577,2
2021-12-24 14:39:19.836587,-2
2021-12-24 14:39:19.836597,-9
2021-12-24 14:39:19.836607,4
2021-12-24 14:39:19.836617,23
2021-12-24 14:39:19.836627,37
2021-12-24 14:39:19.836636,47
2021-12-24 14:39:19.836646,37
2021-12-24 14:39:19.836656,21
2021-12-24 14:39:19.836666,9
2021-12-24 14:39:19.836675,14
2021-12-24 14:39:19.836685,23
2021-12-24 14:39:19.836695,28
2021-12-24 14:39:19.836705,30
2021-12-24 14:39:19.836715,30
2021-12-24 14:39:19.836724,28
2021-12-24 14:39:19.836734,33
2021-12-24 14:39:19.836744,44
2021-12-24 14:39:19.836754,59
2021-12-24 14:39:19.836763,137
2021-12-24 14:39:19.836773,310
2021-12-24 14:39:19.836783,509
2021-12-24 14:39:19.836792,568
2021-12-24 14:39:19.836802,179
2021-12-24 14:39:19.836812,-577
2021-12-24 14:39:19.836822,-807
2021-12-24 14:39:19.836832,-239
2021-12-24 14:39:19.836841,106
2021-12-24 14:39:20.016023,-11
2021-12-24 14:39:20.016043,14
2021-12-24 14:39:20.016050,106
2021-12-24 14:39:20.016057,59
2021-12-24 14:39:20.016110,44
2021-12-24 14:39:20.016134,85
2021-12-24 14:39:20.016141,87
2021-12-24 14:39:20.016148,78
2021-12-24 14:39:20.016155,73
2021-12-24 14:39:20.016163,66
2021-12-24 14:39:20.016193,63
2021-12-24 14:39:20.016209,54
2021-12-24 14:39:20.016215,63
2021-12-24 14:39:20.016221,94
2021-12-24 14:39:20.016227,92
2021-12-24 14:39:20.016232,89
2021-12-24 14:39:20.016237,113
2021-12-24 14:39:20.016243,92
2021-12-24 14:39:20.016248,56
2021-12-24 14:39:20.016253,101
2021-12-24 14:39:20.016259,158
2021-12-24 14:39:20.016280,153
2021-12-24 14:39:20.016287,134
2021-12-24 14:39:20.016293,130
2021-12-24 14:39:20.016298,139
2021-12-24 14:39:20.016304,146
2021-12-24 14:39:20.016309,127
2021-12-24 14:39:20.016315,104
2021-12-24 14:39:20.016320,87
2021-12-24 14:39:20.016325,78
2021-12-24 14:39:20.287169,63
2021-12-24 14:39:20.287199,56
2021-12-24 14:39:20.287211,68
2021-12-24 14:39:20.287221,63
2021-12-24 14:39:20.287231,23
2021-12-24 14:39:20.287241,-4
2021-12-24 14:39:20.287251,2
2021-12-24 14:39:20.287260,14
2021-12-24 14:39:20.287270,21
2021-12-24 14:39:20.287280,21
2021-12-24 14:39:20.287290,33
2021-12-24 14:39:20.287299,54
2021-12-24 14:39:20.287309,40
2021-12-24 14:39:20.287319,0
2021-12-24 14:39:20.287329,23
2021-12-24 14:39:20.287339,63
2021-12-24 14:39:20.287349,49
2021-12-24 14:39:20.287358,33
2021-12-24 14:39:20.287368,49
2021-12-24 14:39:20.287378,63
2021-12-24 14:39:20.287388,56
2021-12-24 14:39:20.287397,30
2021-12-24 14:39:20.287407,21
2021-12-24 14:39:20.287417,47
2021-12-24 14:39:20.287427,56
2021-12-24 14:39:20.287436,49
2021-12-24 14:39:20.287446,59
2021-12-24 14:39:20.287456,47
2021-12-24 14:39:20.287466,26
2021-12-24 14:39:20.287475,30
2021-12-24 14:39:20.511611,42
2021-12-24 14:39:20.511632,49
2021-12-24 14:39:20.511647,49
2021-12-24 14:39:20.511654,44
2021-12-24 14:39:20.511660,54
2021-12-24 14:39:20.511667,54
2021-12-24 14:39:20.511673,28
2021-12-24 14:39:20.511679,11
2021-12-24 14:39:20.511762,18
2021-12-24 14:39:20.511780,26
2021-12-24 14:39:20.511793,26
2021-12-24 14:39:20.511805,21
2021-12-24 14:39:20.511921,37
2021-12-24 14:39:20.511929,68
2021-12-24 14:39:20.511936,71
2021-12-24 14:39:20.511942,42
2021-12-24 14:39:20.511948,59
2021-12-24 14:39:20.511954,177
2021-12-24 14:39:20.511961,331
2021-12-24 14:39:20.511967,428
2021-12-24 14:39:20.511974,348
2021-12-24 14:39:20.511980,-175
2021-12-24 14:39:20.511987,-847
2021-12-24 14:39:20.511993,-762
2021-12-24 14:39:20.511999,-130
2021-12-24 14:39:20.512006,87
2021-12-24 14:39:20.512012,-4
2021-12-24 14:39:20.512018,44
2021-12-24 14:39:20.512025,101
2021-12-24 14:39:20.512031,56
2021-12-24 14:39:20.737111,49
2021-12-24 14:39:20.737142,82
2021-12-24 14:39:20.737154,87
2021-12-24 14:39:20.737164,80
2021-12-24 14:39:20.737174,92
2021-12-24 14:39:20.737184,94
2021-12-24 14:39:20.737193,85
2021-12-24 14:39:20.737203,94
2021-12-24 14:39:20.737213,94
2021-12-24 14:39:20.737223,82
2021-12-24 14:39:20.737233,99
2021-12-24 14:39:20.737243,125
2021-12-24 14:39:20.737253,118
2021-12-24 14:39:20.737262,111
2021-12-24 14:39:20.737272,127
2021-12-24 14:39:20.737282,151
2021-12-24 14:39:20.737292,161
2021-12-24 14:39:20.737301,165
2021-12-24 14:39:20.737311,172
2021-12-24 14:39:20.737321,177
2021-12-24 14:39:20.737331,168
2021-12-24 14:39:20.737341,149
2021-12-24 14:39:20.737350,146
2021-12-24 14:39:20.737360,168
2021-12-24 14:39:20.737370,165
2021-12-24 14:39:20.737380,130
2021-12-24 14:39:20.737390,97
2021-12-24 14:39:20.737399,63
2021-12-24 14:39:20.737409,35
2021-12-24 14:39:20.737419,18
2021-12-24 14:39:21.050017,-11
2021-12-24 14:39:21.050034,-40
2021-12-24 14:39:21.050040,-30
2021-12-24 14:39:21.050046,-4
2021-12-24 14:39:21.050051,4
2021-12-24 14:39:21.050056,-4
2021-12-24 14:39:21.050061,-9
2021-12-24 14:39:21.050067,2
2021-12-24 14:39:21.050072,9
2021-12-24 14:39:21.050077,9
2021-12-24 14:39:21.050082,21
2021-12-24 14:39:21.050087,21
2021-12-24 14:39:21.050092,11
2021-12-24 14:39:21.050098,18
2021-12-24 14:39:21.050103,21
2021-12-24 14:39:21.050108,23
2021-12-24 14:39:21.050113,40
2021-12-24 14:39:21.050119,35
2021-12-24 14:39:21.050124,26
2021-12-24 14:39:21.050130,40
2021-12-24 14:39:21.050135,44
2021-12-24 14:39:21.050140,40
2021-12-24 14:39:21.050145,26
2021-12-24 14:39:21.050150,28
2021-12-24 14:39:21.050155,63
2021-12-24 14:39:21.050160,80
2021-12-24 14:39:21.050165,52
2021-12-24 14:39:21.050171,49
2021-12-24 14:39:21.050176,63
2021-12-24 14:39:21.050181,52
2021-12-24 14:39:21.186297,49
2021-12-24 14:39:21.186319,49
2021-12-24 14:39:21.186327,21
2021-12-24 14:39:21.186334,14
2021-12-24 14:39:21.186340,42
2021-12-24 14:39:21.186347,52
2021-12-24 14:39:21.186353,49
2021-12-24 14:39:21.186360,52
2021-12-24 14:39:21.186366,61
2021-12-24 14:39:21.186372,106
2021-12-24 14:39:21.186379,210
2021-12-24 14:39:21.186385,369
2021-12-24 14:39:21.186392,492
2021-12-24 14:39:21.186399,338
2021-12-24 14:39:21.186405,-284
2021-12-24 14:39:21.186412,-821
2021-12-24 14:39:21.186418,-509
2021-12-24 14:39:21.186425,56
2021-12-24 14:39:21.186432,108
2021-12-24 14:39:21.186438,30
2021-12-24 14:39:21.186444,108
2021-12-24 14:39:21.186451,125
2021-12-24 14:39:21.186457,85
2021-12-24 14:39:21.186464,101
2021-12-24 14:39:21.186470,120
2021-12-24 14:39:21.186477,113
2021-12-24 14:39:21.186483,106
2021-12-24 14:39:21.186489,116
2021-12-24 14:39:21.186496,118
2021-12-24 14:39:21.186502,111
2021-12-24 14:39:21.456491,123
2021-12-24 14:39:21.456513,127
2021-12-24 14:39:21.456521,120
2021-12-24 14:39:21.456528,130
2021-12-24 14:39:21.456534,142
2021-12-24 14:39:21.456540,137
2021-12-24 14:39:21.456547,139
2021-12-24 14:39:21.456553,151
2021-12-24 14:39:21.456560,156
2021-12-24 14:39:21.456566,156
2021-12-24 14:39:21.456572,165
2021-12-24 14:39:21.456579,175
2021-12-24 14:39:21.456585,170
2021-12-24 14:39:21.456591,163
2021-12-24 14:39:21.456598,156
2021-12-24 14:39:21.456604,149
2021-12-24 14:39:21.456610,134
2021-12-24 14:39:21.456617,113
2021-12-24 14:39:21.456623,97
2021-12-24 14:39:21.456629,75
2021-12-24 14:39:21.456636,42
2021-12-24 14:39:21.456642,16
2021-12-24 14:39:21.456649,7
2021-12-24 14:39:21.456655,-2
2021-12-24 14:39:21.456662,-11
2021-12-24 14:39:21.456668,-7
2021-12-24 14:39:21.456675,4
2021-12-24 14:39:21.456681,11
2021-12-24 14:39:21.456688,9
2021-12-24 14:39:21.456694,4
2021-12-24 14:39:21.681594,11
2021-12-24 14:39:21.681614,18
2021-12-24 14:39:21.681622,28
2021-12-24 14:39:21.681629,42
2021-12-24 14:39:21.681635,37
2021-12-24 14:39:21.681642,26
2021-12-24 14:39:21.681648,30
2021-12-24 14:39:21.681654,37
2021-12-24 14:39:21.681660,35
2021-12-24 14:39:21.681667,37
2021-12-24 14:39:21.681673,35
2021-12-24 14:39:21.681679,23
2021-12-24 14:39:21.681686,21
2021-12-24 14:39:21.681692,33
2021-12-24 14:39:21.681698,47
2021-12-24 14:39:21.681705,63
2021-12-24 14:39:21.681711,66
2021-12-24 14:39:21.681717,61
2021-12-24 14:39:21.681724,66
2021-12-24 14:39:21.681730,54
2021-12-24 14:39:21.681736,26
2021-12-24 14:39:21.681742,23
2021-12-24 14:39:21.681749,30
2021-12-24 14:39:21.681755,33
2021-12-24 14:39:21.681761,37
2021-12-24 14:39:21.681767,42
2021-12-24 14:39:21.681774,42
2021-12-24 14:39:21.681780,42
2021-12-24 14:39:21.681786,44
2021-12-24 14:39:21.681792,59
2021-12-24 14:39:21.952117,113
2021-12-24 14:39:21.952149,241
2021-12-24 14:39:21.952161,412
2021-12-24 14:39:21.952171,487
2021-12-24 14:39:21.952181,196
2021-12-24 14:39:21.952191,-497
2021-12-24 14:39:21.952201,-800
2021-12-24 14:39:21.952211,-272
2021-12-24 14:39:21.952221,156
2021-12-24 14:39:21.952231,52
2021-12-24 14:39:21.952241,9
2021-12-24 14:39:21.952250,106
2021-12-24 14:39:21.952260,97
2021-12-24 14:39:21.952270,85
2021-12-24 14:39:21.952285,106
2021-12-24 14:39:21.952295,68
2021-12-24 14:39:21.952305,54
2021-12-24 14:39:21.952314,85
2021-12-24 14:39:21.952324,66
2021-12-24 14:39:21.952334,42
2021-12-24 14:39:21.952344,68
2021-12-24 14:39:21.952353,87
2021-12-24 14:39:21.952363,66
2021-12-24 14:39:21.952373,44
2021-12-24 14:39:21.952383,63
2021-12-24 14:39:21.952393,108
2021-12-24 14:39:21.952403,111
2021-12-24 14:39:21.952413,99
2021-12-24 14:39:21.952423,108
2021-12-24 14:39:21.952432,120
2021-12-24 14:39:22.175845,125
2021-12-24 14:39:22.175864,142
2021-12-24 14:39:22.175872,163
2021-12-24 14:39:22.175878,146
2021-12-24 14:39:22.175885,125
2021-12-24 14:39:22.175891,127
2021-12-24 14:39:22.175898,116
2021-12-24 14:39:22.175904,87
2021-12-24 14:39:22.175911,68
2021-12-24 14:39:22.175917,49
2021-12-24 14:39:22.175923,33
2021-12-24 14:39:22.175930,4
2021-12-24 14:39:22.175936,-28
2021-12-24 14:39:22.175942,-16
2021-12-24 14:39:22.175949,-11
2021-12-24 14:39:22.175955,-71
2021-12-24 14:39:22.175962,-63
2021-12-24 14:39:22.175968,9
2021-12-24 14:39:22.175975,-23
2021-12-24 14:39:22.175981,-66
2021-12-24 14:39:22.175987,-21
2021-12-24 14:39:22.175994,-11
2021-12-24 14:39:22.176000,-37
2021-12-24 14:39:22.176006,-26
2021-12-24 14:39:22.176013,-11
2021-12-24 14:39:22.176019,-7
2021-12-24 14:39:22.176025,0
2021-12-24 14:39:22.176032,2
2021-12-24 14:39:22.176038,4
2021-12-24 14:39:22.176045,16
2021-12-24 14:39:22.357061,14
2021-12-24 14:39:22.357092,-4
2021-12-24 14:39:22.357104,4
2021-12-24 14:39:22.357114,44
2021-12-24 14:39:22.357124,63
2021-12-24 14:39:22.357133,56
2021-12-24 14:39:22.357143,49
2021-12-24 14:39:22.357152,28
2021-12-24 14:39:22.357162,18
2021-12-24 14:39:22.357172,44
2021-12-24 14:39:22.357181,37
2021-12-24 14:39:22.357191,-2
2021-12-24 14:39:22.357201,-4
2021-12-24 14:39:22.357211,14
2021-12-24 14:39:22.357221,11
2021-12-24 14:39:22.357230,4
2021-12-24 14:39:22.357240,11
2021-12-24 14:39:22.357249,16
2021-12-24 14:39:22.357259,33
2021-12-24 14:39:22.357269,116
2021-12-24 14:39:22.357278,286
2021-12-24 14:39:22.357288,466
2021-12-24 14:39:22.357298,473
2021-12-24 14:39:22.357307,7
2021-12-24 14:39:22.357317,-712
2021-12-24 14:39:22.357327,-712
2021-12-24 14:39:22.357337,-66
2021-12-24 14:39:22.357346,144
2021-12-24 14:39:22.357356,-9
2021-12-24 14:39:22.357366,56
2021-12-24 14:39:22.581611,113
2021-12-24 14:39:22.581642,47
2021-12-24 14:39:22.581653,87
2021-12-24 14:39:22.581664,132
2021-12-24 14:39:22.581674,78
2021-12-24 14:39:22.581684,68
2021-12-24 14:39:22.581693,111
2021-12-24 14:39:22.581703,111
2021-12-24 14:39:22.581713,82
2021-12-24 14:39:22.581723,73
2021-12-24 14:39:22.581732,85
2021-12-24 14:39:22.581742,89
2021-12-24 14:39:22.581752,87
2021-12-24 14:39:22.581762,106
2021-12-24 14:39:22.581772,123
2021-12-24 14:39:22.581781,125
2021-12-24 14:39:22.581791,125
2021-12-24 14:39:22.581801,134
2021-12-24 14:39:22.581811,153
2021-12-24 14:39:22.581821,163
2021-12-24 14:39:22.581831,153
2021-12-24 14:39:22.581841,146
2021-12-24 14:39:22.581850,149
2021-12-24 14:39:22.581860,149
2021-12-24 14:39:22.581870,142
2021-12-24 14:39:22.581880,137
2021-12-24 14:39:22.581890,134
2021-12-24 14:39:22.581900,120
2021-12-24 14:39:22.581909,97
2021-12-24 14:39:22.581919,82
2021-12-24 14:39:22.941616,68
2021-12-24 14:39:22.941645,47
2021-12-24 14:39:22.941657,35
2021-12-24 14:39:22.941668,33
2021-12-24 14:39:22.941678,30
2021-12-24 14:39:22.941688,26
2021-12-24 14:39:22.941698,18
2021-12-24 14:39:22.941708,11
2021-12-24 14:39:22.941718,23
2021-12-24 14:39:22.941728,35
2021-12-24 14:39:22.941738,28
2021-12-24 14:39:22.941748,23
2021-12-24 14:39:22.941757,37
2021-12-24 14:39:22.941767,35
2021-12-24 14:39:22.941777,21
2021-12-24 14:39:22.941787,18
2021-12-24 14:39:22.941797,21
2021-12-24 14:39:22.941807,16
2021-12-24 14:39:22.941817,18
2021-12-24 14:39:22.941827,37
2021-12-24 14:39:22.941837,56
2021-12-24 14:39:22.941847,66
2021-12-24 14:39:22.941857,68
2021-12-24 14:39:22.941866,54
2021-12-24 14:39:22.941876,21
2021-12-24 14:39:22.941886,2
2021-12-24 14:39:22.941896,2
2021-12-24 14:39:22.941906,0
2021-12-24 14:39:22.941916,11
2021-12-24 14:39:22.941926,18
2021-12-24 14:39:23.075653,4
2021-12-24 14:39:23.075675,2
2021-12-24 14:39:23.075683,21
2021-12-24 14:39:23.075689,30
2021-12-24 14:39:23.075696,33
2021-12-24 14:39:23.075702,52
2021-12-24 14:39:23.075709,130
2021-12-24 14:39:23.075715,281
2021-12-24 14:39:23.075721,421
2021-12-24 14:39:23.075728,312
2021-12-24 14:39:23.075734,-265
2021-12-24 14:39:23.075741,-819
2021-12-24 14:39:23.075747,-570
2021-12-24 14:39:23.075753,2
2021-12-24 14:39:23.075760,111
2021-12-24 14:39:23.075766,40
2021-12-24 14:39:23.075773,106
2021-12-24 14:39:23.075779,127
2021-12-24 14:39:23.075785,82
2021-12-24 14:39:23.075792,87
2021-12-24 14:39:23.075798,106
2021-12-24 14:39:23.075804,101
2021-12-24 14:39:23.075810,92
2021-12-24 14:39:23.075817,99
2021-12-24 14:39:23.075823,104
2021-12-24 14:39:23.075829,94
2021-12-24 14:39:23.075836,82
2021-12-24 14:39:23.075842,82
2021-12-24 14:39:23.075848,97
2021-12-24 14:39:23.075855,106
2021-12-24 14:39:23.346469,106
2021-12-24 14:39:23.346499,108
2021-12-24 14:39:23.346511,106
2021-12-24 14:39:23.346521,113
2021-12-24 14:39:23.346531,137
2021-12-24 14:39:23.346541,146
2021-12-24 14:39:23.346551,139
2021-12-24 14:39:23.346560,142
2021-12-24 14:39:23.346570,149
2021-12-24 14:39:23.346580,139
2021-12-24 14:39:23.346590,120
2021-12-24 14:39:23.346599,108
2021-12-24 14:39:23.346609,104
2021-12-24 14:39:23.346619,92
2021-12-24 14:39:23.346629,73
2021-12-24 14:39:23.346639,49
2021-12-24 14:39:23.346648,18
2021-12-24 14:39:23.346658,-2
2021-12-24 14:39:23.346668,-14
2021-12-24 14:39:23.346678,-21
2021-12-24 14:39:23.346688,-16
2021-12-24 14:39:23.346698,0
2021-12-24 14:39:23.346707,4
2021-12-24 14:39:23.346717,4
2021-12-24 14:39:23.346727,4
2021-12-24 14:39:23.346736,7
2021-12-24 14:39:23.346746,9
2021-12-24 14:39:23.346756,11
2021-12-24 14:39:23.346766,11
2021-12-24 14:39:23.346776,11
2021-12-24 14:39:23.481135,7
2021-12-24 14:39:23.481155,21
2021-12-24 14:39:23.481162,40
2021-12-24 14:39:23.481169,28
2021-12-24 14:39:23.481175,4
2021-12-24 14:39:23.481181,14
2021-12-24 14:39:23.481188,40
2021-12-24 14:39:23.481194,54
2021-12-24 14:39:23.481200,61
2021-12-24 14:39:23.481206,68
2021-12-24 14:39:23.481213,63
2021-12-24 14:39:23.481219,47
2021-12-24 14:39:23.481225,28
2021-12-24 14:39:23.481232,26
2021-12-24 14:39:23.481238,30
2021-12-24 14:39:23.481244,30
2021-12-24 14:39:23.481251,30
2021-12-24 14:39:23.481257,35
2021-12-24 14:39:23.481263,37
2021-12-24 14:39:23.481270,30
2021-12-24 14:39:23.481276,18
2021-12-24 14:39:23.481282,23
2021-12-24 14:39:23.481288,71
2021-12-24 14:39:23.481294,194
2021-12-24 14:39:23.481301,362
2021-12-24 14:39:23.481307,426
2021-12-24 14:39:23.481313,137
2021-12-24 14:39:23.481320,-506
2021-12-24 14:39:23.481326,-741
2021-12-24 14:39:23.481332,-217
2021-12-24 14:39:23.707044,134
2021-12-24 14:39:23.707075,11
2021-12-24 14:39:23.707087,7
2021-12-24 14:39:23.707097,108
2021-12-24 14:39:23.707107,75
2021-12-24 14:39:23.707116,33
2021-12-24 14:39:23.707126,63
2021-12-24 14:39:23.707136,75
2021-12-24 14:39:23.707145,66
2021-12-24 14:39:23.707155,80
2021-12-24 14:39:23.707165,80
2021-12-24 14:39:23.707175,47
2021-12-24 14:39:23.707184,42
2021-12-24 14:39:23.707194,73
2021-12-24 14:39:23.707204,85
2021-12-24 14:39:23.707213,73
2021-12-24 14:39:23.707223,75
2021-12-24 14:39:23.707233,94
2021-12-24 14:39:23.707242,99
2021-12-24 14:39:23.707252,92
2021-12-24 14:39:23.707262,99
2021-12-24 14:39:23.707271,118
2021-12-24 14:39:23.707281,123
2021-12-24 14:39:23.707291,113
2021-12-24 14:39:23.707300,111
2021-12-24 14:39:23.707310,118
2021-12-24 14:39:23.707320,111
2021-12-24 14:39:23.707329,94
2021-12-24 14:39:23.707339,85
2021-12-24 14:39:23.707349,78
2021-12-24 14:39:23.931544,66
2021-12-24 14:39:23.931565,54
2021-12-24 14:39:23.931573,42
2021-12-24 14:39:23.931580,28
2021-12-24 14:39:23.931587,16
2021-12-24 14:39:23.931593,18
2021-12-24 14:39:23.931600,21
2021-12-24 14:39:23.931606,21
2021-12-24 14:39:23.931613,28
2021-12-24 14:39:23.931619,26
2021-12-24 14:39:23.931626,11
2021-12-24 14:39:23.931632,21
2021-12-24 14:39:23.931638,40
2021-12-24 14:39:23.931645,44
2021-12-24 14:39:23.931651,37
2021-12-24 14:39:23.931658,35
2021-12-24 14:39:23.931664,42
2021-12-24 14:39:23.931671,54
2021-12-24 14:39:23.931677,59
2021-12-24 14:39:23.931684,54
2021-12-24 14:39:23.931690,61
2021-12-24 14:39:23.931697,61
2021-12-24 14:39:23.931703,40
2021-12-24 14:39:23.931710,49
2021-12-24 14:39:23.931716,80
2021-12-24 14:39:23.931723,92
2021-12-24 14:39:23.931729,97
2021-12-24 14:39:23.931736,92
2021-12-24 14:39:23.931742,66
2021-12-24 14:39:23.931749,44
2021-12-24 14:39:24.201760,47
2021-12-24 14:39:24.201782,49
2021-12-24 14:39:24.201789,47
2021-12-24 14:39:24.201796,49
2021-12-24 14:39:24.201803,47
2021-12-24 14:39:24.201809,49
2021-12-24 14:39:24.201815,54
2021-12-24 14:39:24.201822,49
2021-12-24 14:39:24.201828,40
2021-12-24 14:39:24.201835,80
2021-12-24 14:39:24.201841,198
2021-12-24 14:39:24.201847,362
2021-12-24 14:39:24.201854,428
2021-12-24 14:39:24.201860,134
2021-12-24 14:39:24.201867,-523
2021-12-24 14:39:24.201873,-772
2021-12-24 14:39:24.201879,-262
2021-12-24 14:39:24.201886,125
2021-12-24 14:39:24.201892,54
2021-12-24 14:39:24.201899,42
2021-12-24 14:39:24.201905,125
2021-12-24 14:39:24.201911,87
2021-12-24 14:39:24.201918,47
2021-12-24 14:39:24.201924,82
2021-12-24 14:39:24.201931,99
2021-12-24 14:39:24.201937,80
2021-12-24 14:39:24.201944,80
2021-12-24 14:39:24.201950,85
2021-12-24 14:39:24.201956,78
2021-12-24 14:39:24.201963,82
2021-12-24 14:39:24.516176,97
2021-12-24 14:39:24.516195,94
2021-12-24 14:39:24.516203,89
2021-12-24 14:39:24.516210,101
2021-12-24 14:39:24.516216,113
2021-12-24 14:39:24.516223,111
2021-12-24 14:39:24.516229,118
2021-12-24 14:39:24.516236,125
2021-12-24 14:39:24.516242,120
2021-12-24 14:39:24.516248,123
2021-12-24 14:39:24.516255,137
2021-12-24 14:39:24.516261,142
2021-12-24 14:39:24.516268,134
2021-12-24 14:39:24.516274,125
2021-12-24 14:39:24.516280,111
2021-12-24 14:39:24.516287,104
2021-12-24 14:39:24.516293,99
2021-12-24 14:39:24.516299,87
2021-12-24 14:39:24.516306,63
2021-12-24 14:39:24.516316,42
2021-12-24 14:39:24.516322,28
2021-12-24 14:39:24.516328,9
2021-12-24 14:39:24.516335,2
2021-12-24 14:39:24.516341,11
2021-12-24 14:39:24.516347,7
2021-12-24 14:39:24.516354,2
2021-12-24 14:39:24.516360,23
2021-12-24 14:39:24.516366,42
2021-12-24 14:39:24.516373,30
2021-12-24 14:39:24.516379,28
2021-12-24 14:39:24.652026,40
2021-12-24 14:39:24.652056,47
2021-12-24 14:39:24.652067,56
2021-12-24 14:39:24.652078,61
2021-12-24 14:39:24.652088,56
2021-12-24 14:39:24.652098,54
2021-12-24 14:39:24.652107,56
2021-12-24 14:39:24.652117,71
2021-12-24 14:39:24.652127,85
2021-12-24 14:39:24.652136,82
2021-12-24 14:39:24.652146,80
2021-12-24 14:39:24.652156,80
2021-12-24 14:39:24.652166,66
2021-12-24 14:39:24.652176,40
2021-12-24 14:39:24.652185,28
2021-12-24 14:39:24.652195,40
2021-12-24 14:39:24.652205,44
2021-12-24 14:39:24.652215,35
2021-12-24 14:39:24.652224,35
2021-12-24 14:39:24.652234,49
2021-12-24 14:39:24.652244,54
2021-12-24 14:39:24.652253,37
2021-12-24 14:39:24.652263,33
2021-12-24 14:39:24.652273,80
2021-12-24 14:39:24.652283,196
2021-12-24 14:39:24.652292,336
2021-12-24 14:39:24.652302,350
2021-12-24 14:39:24.652312,-37
2021-12-24 14:39:24.652322,-653
2021-12-24 14:39:24.652331,-660
2021-12-24 14:39:24.922054,-87
2021-12-24 14:39:24.922085,156
2021-12-24 14:39:24.922097,54
2021-12-24 14:39:24.922107,85
2021-12-24 14:39:24.922117,142
2021-12-24 14:39:24.922127,106
2021-12-24 14:39:24.922136,101
2021-12-24 14:39:24.922146,125
2021-12-24 14:39:24.922156,116
2021-12-24 14:39:24.922166,94
2021-12-24 14:39:24.922176,101
2021-12-24 14:39:24.922186,108
2021-12-24 14:39:24.922196,99
2021-12-24 14:39:24.922206,97
2021-12-24 14:39:24.922216,106
2021-12-24 14:39:24.922226,106
2021-12-24 14:39:24.922236,101
2021-12-24 14:39:24.922246,113
2021-12-24 14:39:24.922256,118
2021-12-24 14:39:24.922266,118
2021-12-24 14:39:24.922276,134
2021-12-24 14:39:24.922286,142
2021-12-24 14:39:24.922295,137
2021-12-24 14:39:24.922305,137
2021-12-24 14:39:24.922315,142
2021-12-24 14:39:24.922325,137
2021-12-24 14:39:24.922335,123
2021-12-24 14:39:24.922345,108
2021-12-24 14:39:24.922355,101
2021-12-24 14:39:24.922365,99
2021-12-24 14:39:25.145173,92
2021-12-24 14:39:25.145203,80
2021-12-24 14:39:25.145215,61
2021-12-24 14:39:25.145225,44
2021-12-24 14:39:25.145235,40
2021-12-24 14:39:25.145245,30
2021-12-24 14:39:25.145255,16
2021-12-24 14:39:25.145265,11
2021-12-24 14:39:25.145275,26
2021-12-24 14:39:25.145284,33
2021-12-24 14:39:25.145294,26
2021-12-24 14:39:25.145304,30
2021-12-24 14:39:25.145314,42
2021-12-24 14:39:25.145324,44
2021-12-24 14:39:25.145333,44
2021-12-24 14:39:25.145343,49
2021-12-24 14:39:25.145353,52
2021-12-24 14:39:25.145363,52
2021-12-24 14:39:25.145373,49
2021-12-24 14:39:25.145383,42
2021-12-24 14:39:25.145392,33
2021-12-24 14:39:25.145402,33
2021-12-24 14:39:25.145412,37
2021-12-24 14:39:25.145422,30
2021-12-24 14:39:25.145432,37
2021-12-24 14:39:25.145441,66
2021-12-24 14:39:25.145451,73
2021-12-24 14:39:25.145461,68
2021-12-24 14:39:25.145471,59
2021-12-24 14:39:25.145481,30
2021-12-24 14:39:25.326537,11
2021-12-24 14:39:25.326558,26
2021-12-24 14:39:25.326566,37
2021-12-24 14:39:25.326573,30
2021-12-24 14:39:25.326579,16
2021-12-24 14:39:25.326585,14
2021-12-24 14:39:25.326592,23
2021-12-24 14:39:25.326598,28
2021-12-24 14:39:25.326604,35
2021-12-24 14:39:25.326611,49
2021-12-24 14:39:25.326617,85
2021-12-24 14:39:25.326623,194
2021-12-24 14:39:25.326630,369
2021-12-24 14:39:25.326636,442
2021-12-24 14:39:25.326643,113
2021-12-24 14:39:25.326649,-549
2021-12-24 14:39:25.326655,-760
2021-12-24 14:39:25.326662,-255
2021-12-24 14:39:25.326668,108
2021-12-24 14:39:25.326675,49
2021-12-24 14:39:25.326681,42
2021-12-24 14:39:25.326687,118
2021-12-24 14:39:25.326693,101
2021-12-24 14:39:25.326700,80
2021-12-24 14:39:25.326706,104
2021-12-24 14:39:25.326713,111
2021-12-24 14:39:25.326719,104
2021-12-24 14:39:25.326725,101
2021-12-24 14:39:25.326732,94
2021-12-24 14:39:25.326738,89
2021-12-24 14:39:25.551639,94
2021-12-24 14:39:25.551661,94
2021-12-24 14:39:25.551669,94
2021-12-24 14:39:25.551675,104
2021-12-24 14:39:25.551682,104
2021-12-24 14:39:25.551688,92
2021-12-24 14:39:25.551695,99
2021-12-24 14:39:25.551701,118
2021-12-24 14:39:25.551707,118
2021-12-24 14:39:25.551714,116
2021-12-24 14:39:25.551720,120
2021-12-24 14:39:25.551726,127
2021-12-24 14:39:25.551733,118
2021-12-24 14:39:25.551739,104
2021-12-24 14:39:25.551745,94
2021-12-24 14:39:25.551752,80
2021-12-24 14:39:25.551758,71
2021-12-24 14:39:25.551764,80
2021-12-24 14:39:25.551771,82
2021-12-24 14:39:25.551777,59
2021-12-24 14:39:25.551783,30
2021-12-24 14:39:25.551790,18
2021-12-24 14:39:25.551796,18
2021-12-24 14:39:25.551802,9
2021-12-24 14:39:25.551809,2
2021-12-24 14:39:25.551815,4
2021-12-24 14:39:25.551821,4
2021-12-24 14:39:25.551828,0
2021-12-24 14:39:25.551834,4
2021-12-24 14:39:25.551840,9
2021-12-24 14:39:25.776161,14
2021-12-24 14:39:25.776190,26
2021-12-24 14:39:25.776202,28
2021-12-24 14:39:25.776212,18
2021-12-24 14:39:25.776222,23
2021-12-24 14:39:25.776231,37
2021-12-24 14:39:25.776241,42
2021-12-24 14:39:25.776251,37
2021-12-24 14:39:25.776261,35
2021-12-24 14:39:25.776270,35
2021-12-24 14:39:25.776280,30
2021-12-24 14:39:25.776290,21
2021-12-24 14:39:25.776300,30
2021-12-24 14:39:25.776310,40
2021-12-24 14:39:25.776320,40
2021-12-24 14:39:25.776330,52
2021-12-24 14:39:25.776339,68
2021-12-24 14:39:25.776349,71
2021-12-24 14:39:25.776359,56
2021-12-24 14:39:25.776368,40
2021-12-24 14:39:25.776378,33
2021-12-24 14:39:25.776388,30
2021-12-24 14:39:25.776397,21
2021-12-24 14:39:25.776407,18
2021-12-24 14:39:25.776417,23
2021-12-24 14:39:25.776427,30
2021-12-24 14:39:25.776436,35
2021-12-24 14:39:25.776446,33
2021-12-24 14:39:25.776456,40
2021-12-24 14:39:25.776465,66
2021-12-24 14:39:26.091711,123
2021-12-24 14:39:26.091733,243
2021-12-24 14:39:26.091741,393
2021-12-24 14:39:26.091748,402
2021-12-24 14:39:26.091755,28
2021-12-24 14:39:26.091762,-627
2021-12-24 14:39:26.091768,-769
2021-12-24 14:39:26.091775,-198
2021-12-24 14:39:26.091781,132
2021-12-24 14:39:26.091788,26
2021-12-24 14:39:26.091794,47
2021-12-24 14:39:26.091801,132
2021-12-24 14:39:26.091807,75
2021-12-24 14:39:26.091814,56
2021-12-24 14:39:26.091820,104
2021-12-24 14:39:26.091827,94
2021-12-24 14:39:26.091833,78
2021-12-24 14:39:26.091839,94
2021-12-24 14:39:26.091846,97
2021-12-24 14:39:26.091852,87
2021-12-24 14:39:26.091859,92
2021-12-24 14:39:26.091865,89
2021-12-24 14:39:26.091872,85
2021-12-24 14:39:26.091878,94
2021-12-24 14:39:26.091885,104
2021-12-24 14:39:26.091891,99
2021-12-24 14:39:26.091897,104
2021-12-24 14:39:26.091904,120
2021-12-24 14:39:26.091910,125
2021-12-24 14:39:26.091917,123
2021-12-24 14:39:26.360981,120
2021-12-24 14:39:26.361010,113
2021-12-24 14:39:26.361022,111
2021-12-24 14:39:26.361033,106
2021-12-24 14:39:26.361043,89
2021-12-24 14:39:26.361053,75
2021-12-24 14:39:26.361062,71
2021-12-24 14:39:26.361072,56
2021-12-24 14:39:26.361082,35
2021-12-24 14:39:26.361091,28
2021-12-24 14:39:26.361101,23
2021-12-24 14:39:26.361111,9
2021-12-24 14:39:26.361121,0
2021-12-24 14:39:26.361131,4
2021-12-24 14:39:26.361141,2
2021-12-24 14:39:26.361150,-9
2021-12-24 14:39:26.361160,-9
2021-12-24 14:39:26.361170,4
2021-12-24 14:39:26.361180,16
2021-12-24 14:39:26.361189,16
2021-12-24 14:39:26.361199,11
2021-12-24 14:39:26.361209,16
2021-12-24 14:39:26.361219,23
2021-12-24 14:39:26.361228,21
2021-12-24 14:39:26.361238,26
2021-12-24 14:39:26.361248,33
2021-12-24 14:39:26.361258,35
2021-12-24 14:39:26.361267,35
2021-12-24 14:39:26.361277,40
2021-12-24 14:39:26.361287,49
2021-12-24 14:39:26.496680,47
2021-12-24 14:39:26.496710,42
2021-12-24 14:39:26.496722,49
2021-12-24 14:39:26.496732,44
2021-12-24 14:39:26.496742,35
2021-12-24 14:39:26.496752,35
2021-12-24 14:39:26.496762,37
2021-12-24 14:39:26.496772,42
2021-12-24 14:39:26.496782,56
2021-12-24 14:39:26.496791,71
2021-12-24 14:39:26.496801,75
2021-12-24 14:39:26.496811,68
2021-12-24 14:39:26.496821,52
2021-12-24 14:39:26.496831,30
2021-12-24 14:39:26.496841,21
2021-12-24 14:39:26.496850,28
2021-12-24 14:39:26.496860,37
2021-12-24 14:39:26.496870,42
2021-12-24 14:39:26.496880,40
2021-12-24 14:39:26.496890,37
2021-12-24 14:39:26.496900,40
2021-12-24 14:39:26.496909,49
2021-12-24 14:39:26.496919,71
2021-12-24 14:39:26.496929,144
2021-12-24 14:39:26.496939,286
2021-12-24 14:39:26.496949,423
2021-12-24 14:39:26.496959,404
2021-12-24 14:39:26.496969,-23
2021-12-24 14:39:26.496979,-703
2021-12-24 14:39:26.496989,-748
2021-12-24 14:39:26.722066,-120
2021-12-24 14:39:26.722097,149
2021-12-24 14:39:26.722109,16
2021-12-24 14:39:26.722120,54
2021-12-24 14:39:26.722129,125
2021-12-24 14:39:26.722139,75
2021-12-24 14:39:26.722149,61
2021-12-24 14:39:26.722159,85
2021-12-24 14:39:26.722169,71
2021-12-24 14:39:26.722179,59
2021-12-24 14:39:26.722189,68
2021-12-24 14:39:26.722198,71
2021-12-24 14:39:26.722208,71
2021-12-24 14:39:26.722218,73
2021-12-24 14:39:26.722228,73
2021-12-24 14:39:26.722238,78
2021-12-24 14:39:26.722247,85
2021-12-24 14:39:26.722257,87
2021-12-24 14:39:26.722267,92
2021-12-24 14:39:26.722276,92
2021-12-24 14:39:26.722286,104
2021-12-24 14:39:26.722296,116
2021-12-24 14:39:26.722306,111
2021-12-24 14:39:26.722315,106
2021-12-24 14:39:26.722325,113
2021-12-24 14:39:26.722335,120
2021-12-24 14:39:26.722345,106
2021-12-24 14:39:26.722354,85
2021-12-24 14:39:26.722364,73
2021-12-24 14:39:26.722374,68
2021-12-24 14:39:27.081596,61
2021-12-24 14:39:27.081617,52
2021-12-24 14:39:27.081625,42
2021-12-24 14:39:27.081632,37
2021-12-24 14:39:27.081638,33
2021-12-24 14:39:27.081645,26
2021-12-24 14:39:27.081651,21
2021-12-24 14:39:27.081658,18
2021-12-24 14:39:27.081664,18
2021-12-24 14:39:27.081670,21
2021-12-24 14:39:27.081677,23
2021-12-24 14:39:27.081683,18
2021-12-24 14:39:27.081689,28
2021-12-24 14:39:27.081696,42
2021-12-24 14:39:27.081702,37
2021-12-24 14:39:27.081709,37
2021-12-24 14:39:27.081715,47
2021-12-24 14:39:27.081722,44
2021-12-24 14:39:27.081728,42
2021-12-24 14:39:27.081734,47
2021-12-24 14:39:27.081741,52
2021-12-24 14:39:27.081747,52
2021-12-24 14:39:27.081754,49
2021-12-24 14:39:27.081760,49
2021-12-24 14:39:27.081766,54
2021-12-24 14:39:27.081773,59
2021-12-24 14:39:27.081780,61
2021-12-24 14:39:27.081786,56
2021-12-24 14:39:27.081793,47
2021-12-24 14:39:27.081799,42
2021-12-24 14:39:27.260654,54
2021-12-24 14:39:27.260676,75
2021-12-24 14:39:27.260683,92
2021-12-24 14:39:27.260690,97
2021-12-24 14:39:27.260696,89
2021-12-24 14:39:27.260703,71
2021-12-24 14:39:27.260709,44
2021-12-24 14:39:27.260715,37
2021-12-24 14:39:27.260721,49
2021-12-24 14:39:27.260728,54
2021-12-24 14:39:27.260734,52
2021-12-24 14:39:27.260740,42
2021-12-24 14:39:27.260747,42
2021-12-24 14:39:27.260753,47
2021-12-24 14:39:27.260759,47
2021-12-24 14:39:27.260766,61
2021-12-24 14:39:27.260772,104
2021-12-24 14:39:27.260778,194
2021-12-24 14:39:27.260784,362
2021-12-24 14:39:27.260791,473
2021-12-24 14:39:27.260797,236
2021-12-24 14:39:27.260803,-440
2021-12-24 14:39:27.260810,-871
2021-12-24 14:39:27.260816,-435
2021-12-24 14:39:27.260822,87
2021-12-24 14:39:27.260829,63
2021-12-24 14:39:27.260835,9
2021-12-24 14:39:27.260841,111
2021-12-24 14:39:27.260847,99
2021-12-24 14:39:27.260854,54
2021-12-24 14:39:27.396612,89
2021-12-24 14:39:27.396643,106
2021-12-24 14:39:27.396654,82
2021-12-24 14:39:27.396665,82
2021-12-24 14:39:27.396675,89
2021-12-24 14:39:27.396689,87
2021-12-24 14:39:27.396699,87
2021-12-24 14:39:27.396709,99
2021-12-24 14:39:27.396719,101
2021-12-24 14:39:27.396729,99
2021-12-24 14:39:27.396738,106
2021-12-24 14:39:27.396748,113
2021-12-24 14:39:27.396758,120
2021-12-24 14:39:27.396768,130
2021-12-24 14:39:27.396778,125
2021-12-24 14:39:27.396787,120
2021-12-24 14:39:27.396797,123
2021-12-24 14:39:27.396807,116
2021-12-24 14:39:27.396817,106
2021-12-24 14:39:27.396826,101
2021-12-24 14:39:27.396836,92
2021-12-24 14:39:27.396846,75
2021-12-24 14:39:27.396856,71
2021-12-24 14:39:27.396866,68
2021-12-24 14:39:27.396875,63
2021-12-24 14:39:27.396885,59
2021-12-24 14:39:27.396895,54
2021-12-24 14:39:27.396905,47
2021-12-24 14:39:27.396915,35
2021-12-24 14:39:27.396924,23
2021-12-24 14:39:27.621686,21
2021-12-24 14:39:27.621717,28
2021-12-24 14:39:27.621728,35
2021-12-24 14:39:27.621738,35
2021-12-24 14:39:27.621748,37
2021-12-24 14:39:27.621758,44
2021-12-24 14:39:27.621768,49
2021-12-24 14:39:27.621778,49
2021-12-24 14:39:27.621788,49
2021-12-24 14:39:27.621798,54
2021-12-24 14:39:27.621807,54
2021-12-24 14:39:27.621817,54
2021-12-24 14:39:27.621827,56
2021-12-24 14:39:27.621837,54
2021-12-24 14:39:27.621847,56
2021-12-24 14:39:27.621856,56
2021-12-24 14:39:27.621866,49
2021-12-24 14:39:27.621876,47
2021-12-24 14:39:27.621886,52
2021-12-24 14:39:27.621896,49
2021-12-24 14:39:27.621905,49
2021-12-24 14:39:27.621915,47
2021-12-24 14:39:27.621925,42
2021-12-24 14:39:27.621935,44
2021-12-24 14:39:27.621945,52
2021-12-24 14:39:27.621955,59
2021-12-24 14:39:27.621964,73
2021-12-24 14:39:27.621974,89
2021-12-24 14:39:27.621984,85
2021-12-24 14:39:27.621994,73
2021-12-24 14:39:27.892067,61
2021-12-24 14:39:27.892096,44
2021-12-24 14:39:27.892108,40
2021-12-24 14:39:27.892118,40
2021-12-24 14:39:27.892128,37
2021-12-24 14:39:27.892137,33
2021-12-24 14:39:27.892147,35
2021-12-24 14:39:27.892156,47
2021-12-24 14:39:27.892166,52
2021-12-24 14:39:27.892176,42
2021-12-24 14:39:27.892185,68
2021-12-24 14:39:27.892195,163
2021-12-24 14:39:27.892205,319
2021-12-24 14:39:27.892215,459
2021-12-24 14:39:27.892224,333
2021-12-24 14:39:27.892234,-272
2021-12-24 14:39:27.892244,-866
2021-12-24 14:39:27.892253,-632
2021-12-24 14:39:27.892263,-9
2021-12-24 14:39:27.892273,111
2021-12-24 14:39:27.892282,18
2021-12-24 14:39:27.892292,92
2021-12-24 14:39:27.892302,116
2021-12-24 14:39:27.892311,71
2021-12-24 14:39:27.892321,92
2021-12-24 14:39:27.892331,125
2021-12-24 14:39:27.892340,111
2021-12-24 14:39:27.892350,94
2021-12-24 14:39:27.892360,106
2021-12-24 14:39:27.892369,113
2021-12-24 14:39:28.117063,101
2021-12-24 14:39:28.117084,113
2021-12-24 14:39:28.117097,125
2021-12-24 14:39:28.117107,116
2021-12-24 14:39:28.117114,113
2021-12-24 14:39:28.117121,123
2021-12-24 14:39:28.117127,130
2021-12-24 14:39:28.117133,134
2021-12-24 14:39:28.117140,134
2021-12-24 14:39:28.117146,132
2021-12-24 14:39:28.117152,139
2021-12-24 14:39:28.117208,139
2021-12-24 14:39:28.117230,132
2021-12-24 14:39:28.117244,125
2021-12-24 14:39:28.117252,111
2021-12-24 14:39:28.117259,99
2021-12-24 14:39:28.117265,97
2021-12-24 14:39:28.117272,101
2021-12-24 14:39:28.117278,106
2021-12-24 14:39:28.117285,97
2021-12-24 14:39:28.117291,73
2021-12-24 14:39:28.117298,54
2021-12-24 14:39:28.117304,33
2021-12-24 14:39:28.117311,21
2021-12-24 14:39:28.117317,21
2021-12-24 14:39:28.117324,14
2021-12-24 14:39:28.117330,4
2021-12-24 14:39:28.117337,-11
2021-12-24 14:39:28.117343,-9
2021-12-24 14:39:28.117350,16
2021-12-24 14:39:28.341615,23
2021-12-24 14:39:28.341643,11
2021-12-24 14:39:28.341655,26
2021-12-24 14:39:28.341665,52
2021-12-24 14:39:28.341675,35
2021-12-24 14:39:28.341685,14
2021-12-24 14:39:28.341695,35
2021-12-24 14:39:28.341704,49
2021-12-24 14:39:28.341714,40
2021-12-24 14:39:28.341724,42
2021-12-24 14:39:28.341734,52
2021-12-24 14:39:28.341743,54
2021-12-24 14:39:28.341753,47
2021-12-24 14:39:28.341763,52
2021-12-24 14:39:28.341772,59
2021-12-24 14:39:28.341782,33
2021-12-24 14:39:28.341792,37
2021-12-24 14:39:28.341802,89
2021-12-24 14:39:28.341811,94
2021-12-24 14:39:28.341821,80
2021-12-24 14:39:28.341831,92
2021-12-24 14:39:28.341840,56
2021-12-24 14:39:28.341850,16
2021-12-24 14:39:28.341860,35
2021-12-24 14:39:28.341869,47
2021-12-24 14:39:28.341879,30
2021-12-24 14:39:28.341889,33
2021-12-24 14:39:28.341899,49
2021-12-24 14:39:28.341909,56
2021-12-24 14:39:28.341918,54
2021-12-24 14:39:28.611607,56
2021-12-24 14:39:28.611638,89
2021-12-24 14:39:28.611650,179
2021-12-24 14:39:28.611809,352
2021-12-24 14:39:28.611840,516
2021-12-24 14:39:28.611860,386
2021-12-24 14:39:28.611872,-255
2021-12-24 14:39:28.611883,-862
2021-12-24 14:39:28.611892,-620
2021-12-24 14:39:28.611902,-11
2021-12-24 14:39:28.611912,113
2021-12-24 14:39:28.611922,28
2021-12-24 14:39:28.611932,94
2021-12-24 14:39:28.611942,106
2021-12-24 14:39:28.611952,52
2021-12-24 14:39:28.611962,80
2021-12-24 14:39:28.611975,130
2021-12-24 14:39:28.611985,120
2021-12-24 14:39:28.611995,108
2021-12-24 14:39:28.612004,101
2021-12-24 14:39:28.612014,94
2021-12-24 14:39:28.612024,97
2021-12-24 14:39:28.612034,132
2021-12-24 14:39:28.612043,170
2021-12-24 14:39:28.612053,144
2021-12-24 14:39:28.612063,120
2021-12-24 14:39:28.612073,142
2021-12-24 14:39:28.612082,151
2021-12-24 14:39:28.612092,153
2021-12-24 14:39:28.612102,151
2021-12-24 14:39:28.792080,146
2021-12-24 14:39:28.792111,149
2021-12-24 14:39:28.792123,146
2021-12-24 14:39:28.792133,146
2021-12-24 14:39:28.792142,142
2021-12-24 14:39:28.792152,130
2021-12-24 14:39:28.792162,118
2021-12-24 14:39:28.792172,113
2021-12-24 14:39:28.792182,113
2021-12-24 14:39:28.792191,113
2021-12-24 14:39:28.792201,111
2021-12-24 14:39:28.792211,94
2021-12-24 14:39:28.792221,73
2021-12-24 14:39:28.792231,68
2021-12-24 14:39:28.792240,68
2021-12-24 14:39:28.792250,73
2021-12-24 14:39:28.792260,73
2021-12-24 14:39:28.792270,66
2021-12-24 14:39:28.792279,68
2021-12-24 14:39:28.792289,85
2021-12-24 14:39:28.792299,89
2021-12-24 14:39:28.792309,94
2021-12-24 14:39:28.792318,99
2021-12-24 14:39:28.792328,85
2021-12-24 14:39:28.792338,80
2021-12-24 14:39:28.792348,82
2021-12-24 14:39:28.792358,80
2021-12-24 14:39:28.792367,75
2021-12-24 14:39:28.792377,78
2021-12-24 14:39:28.792387,75
2021-12-24 14:39:29.061648,68
2021-12-24 14:39:29.061670,82
2021-12-24 14:39:29.061677,97
2021-12-24 14:39:29.061684,82
2021-12-24 14:39:29.061690,75
2021-12-24 14:39:29.061697,75
2021-12-24 14:39:29.061703,52
2021-12-24 14:39:29.061709,21
2021-12-24 14:39:29.061716,18
2021-12-24 14:39:29.061722,23
2021-12-24 14:39:29.061728,11
2021-12-24 14:39:29.061735,2
2021-12-24 14:39:29.061741,4
2021-12-24 14:39:29.061748,18
2021-12-24 14:39:29.061754,18
2021-12-24 14:39:29.061760,7
2021-12-24 14:39:29.061767,26
2021-12-24 14:39:29.061773,99
2021-12-24 14:39:29.061780,222
2021-12-24 14:39:29.061786,388
2021-12-24 14:39:29.061792,454
2021-12-24 14:39:29.061799,61
2021-12-24 14:39:29.061805,-679
2021-12-24 14:39:29.061812,-890
2021-12-24 14:39:29.061818,-348
2021-12-24 14:39:29.061824,52
2021-12-24 14:39:29.061831,37
2021-12-24 14:39:29.061837,56
2021-12-24 14:39:29.061843,118
2021-12-24 14:39:29.061850,92
2021-12-24 14:39:29.285131,85
2021-12-24 14:39:29.285150,108
2021-12-24 14:39:29.285158,101
2021-12-24 14:39:29.285165,99
2021-12-24 14:39:29.285171,111
2021-12-24 14:39:29.285177,108
2021-12-24 14:39:29.285183,101
2021-12-24 14:39:29.285190,97
2021-12-24 14:39:29.285196,101
2021-12-24 14:39:29.285202,116
2021-12-24 14:39:29.285208,123
2021-12-24 14:39:29.285215,125
2021-12-24 14:39:29.285221,139
2021-12-24 14:39:29.285228,151
2021-12-24 14:39:29.285234,156
2021-12-24 14:39:29.285240,163
2021-12-24 14:39:29.285246,165
2021-12-24 14:39:29.285253,165
2021-12-24 14:39:29.285259,175
2021-12-24 14:39:29.285265,182
2021-12-24 14:39:29.285272,172
2021-12-24 14:39:29.285278,161
2021-12-24 14:39:29.285284,158
2021-12-24 14:39:29.285290,161
2021-12-24 14:39:29.285297,161
2021-12-24 14:39:29.285303,146
2021-12-24 14:39:29.285309,113
2021-12-24 14:39:29.285316,75
2021-12-24 14:39:29.285322,47
2021-12-24 14:39:29.285328,23
2021-12-24 14:39:29.467128,11
2021-12-24 14:39:29.467159,14
2021-12-24 14:39:29.467171,11
2021-12-24 14:39:29.467181,4
2021-12-24 14:39:29.467191,2
2021-12-24 14:39:29.467201,14
2021-12-24 14:39:29.467211,30
2021-12-24 14:39:29.467221,28
2021-12-24 14:39:29.467231,23
2021-12-24 14:39:29.467241,30
2021-12-24 14:39:29.467251,30
2021-12-24 14:39:29.467260,23
2021-12-24 14:39:29.467270,35
2021-12-24 14:39:29.467280,44
2021-12-24 14:39:29.467290,44
2021-12-24 14:39:29.467300,54
2021-12-24 14:39:29.467310,63
2021-12-24 14:39:29.467320,66
2021-12-24 14:39:29.467329,73
2021-12-24 14:39:29.467339,66
2021-12-24 14:39:29.467349,37
2021-12-24 14:39:29.467359,23
2021-12-24 14:39:29.467369,30
2021-12-24 14:39:29.467379,30
2021-12-24 14:39:29.467388,16
2021-12-24 14:39:29.467398,16
2021-12-24 14:39:29.467408,30
2021-12-24 14:39:29.467418,40
2021-12-24 14:39:29.467428,42
2021-12-24 14:39:29.467437,35
2021-12-24 14:39:29.737108,33
2021-12-24 14:39:29.737138,113
2021-12-24 14:39:29.737150,277
2021-12-24 14:39:29.737160,369
2021-12-24 14:39:29.737170,127
2021-12-24 14:39:29.737180,-513
2021-12-24 14:39:29.737190,-880
2021-12-24 14:39:29.737199,-442
2021-12-24 14:39:29.737209,71
2021-12-24 14:39:29.737219,75
2021-12-24 14:39:29.737229,14
2021-12-24 14:39:29.737239,85
2021-12-24 14:39:29.737248,82
2021-12-24 14:39:29.737258,52
2021-12-24 14:39:29.737268,75
2021-12-24 14:39:29.737277,85
2021-12-24 14:39:29.737287,71
2021-12-24 14:39:29.737297,82
2021-12-24 14:39:29.737307,94
2021-12-24 14:39:29.737316,92
2021-12-24 14:39:29.737326,92
2021-12-24 14:39:29.737336,87
2021-12-24 14:39:29.737346,92
2021-12-24 14:39:29.737355,104
2021-12-24 14:39:29.737365,108
2021-12-24 14:39:29.737375,116
2021-12-24 14:39:29.737385,123
2021-12-24 14:39:29.737394,125
2021-12-24 14:39:29.737404,137
2021-12-24 14:39:29.737414,149
2021-12-24 14:39:30.007110,144
2021-12-24 14:39:30.007141,127
2021-12-24 14:39:30.007153,127
2021-12-24 14:39:30.007163,127
2021-12-24 14:39:30.007173,104
2021-12-24 14:39:30.007183,92
2021-12-24 14:39:30.007192,99
2021-12-24 14:39:30.007202,92
2021-12-24 14:39:30.007212,78
2021-12-24 14:39:30.007222,68
2021-12-24 14:39:30.007232,59
2021-12-24 14:39:30.007241,44
2021-12-24 14:39:30.007251,21
2021-12-24 14:39:30.007261,4
2021-12-24 14:39:30.007271,7
2021-12-24 14:39:30.007280,16
2021-12-24 14:39:30.007290,18
2021-12-24 14:39:30.007300,18
2021-12-24 14:39:30.007309,33
2021-12-24 14:39:30.007319,42
2021-12-24 14:39:30.007329,35
2021-12-24 14:39:30.007339,33
2021-12-24 14:39:30.007349,37
2021-12-24 14:39:30.007359,44
2021-12-24 14:39:30.007368,49
2021-12-24 14:39:30.007378,52
2021-12-24 14:39:30.007388,63
2021-12-24 14:39:30.007398,85
2021-12-24 14:39:30.007407,85
2021-12-24 14:39:30.007417,75
2021-12-24 14:39:30.231564,68
2021-12-24 14:39:30.231586,52
2021-12-24 14:39:30.231593,33
2021-12-24 14:39:30.231600,26
2021-12-24 14:39:30.231606,33
2021-12-24 14:39:30.231613,47
2021-12-24 14:39:30.231637,42
2021-12-24 14:39:30.231647,28
2021-12-24 14:39:30.231657,35
2021-12-24 14:39:30.231667,47
2021-12-24 14:39:30.231677,40
2021-12-24 14:39:30.231686,54
2021-12-24 14:39:30.231696,111
2021-12-24 14:39:30.231706,217
2021-12-24 14:39:30.231716,352
2021-12-24 14:39:30.231726,272
2021-12-24 14:39:30.231736,-300
2021-12-24 14:39:30.231746,-866
2021-12-24 14:39:30.231756,-622
2021-12-24 14:39:30.231766,-23
2021-12-24 14:39:30.231776,111
2021-12-24 14:39:30.231786,37
2021-12-24 14:39:30.231796,99
2021-12-24 14:39:30.231805,125
2021-12-24 14:39:30.231815,85
2021-12-24 14:39:30.231825,94
2021-12-24 14:39:30.231835,101
2021-12-24 14:39:30.231845,89
2021-12-24 14:39:30.231855,92
2021-12-24 14:39:30.231865,94
2021-12-24 14:39:30.457188,94
2021-12-24 14:39:30.457220,99
2021-12-24 14:39:30.457232,92
2021-12-24 14:39:30.457242,92
2021-12-24 14:39:30.457252,113
2021-12-24 14:39:30.457262,120
2021-12-24 14:39:30.457272,120
2021-12-24 14:39:30.457282,130
2021-12-24 14:39:30.457292,130
2021-12-24 14:39:30.457302,125
2021-12-24 14:39:30.457312,134
2021-12-24 14:39:30.457322,139
2021-12-24 14:39:30.457332,137
2021-12-24 14:39:30.457342,144
2021-12-24 14:39:30.457352,134
2021-12-24 14:39:30.457362,123
2021-12-24 14:39:30.457372,120
2021-12-24 14:39:30.457382,120
2021-12-24 14:39:30.457392,108
2021-12-24 14:39:30.457402,89
2021-12-24 14:39:30.457412,63
2021-12-24 14:39:30.457421,42
2021-12-24 14:39:30.457431,28
2021-12-24 14:39:30.457441,16
2021-12-24 14:39:30.457451,2
2021-12-24 14:39:30.457461,-2
2021-12-24 14:39:30.457471,9
2021-12-24 14:39:30.457481,11
2021-12-24 14:39:30.457491,9
2021-12-24 14:39:30.457501,18
2021-12-24 14:39:30.637085,26
2021-12-24 14:39:30.637115,28
2021-12-24 14:39:30.637127,35
2021-12-24 14:39:30.637137,37
2021-12-24 14:39:30.637147,37
2021-12-24 14:39:30.637157,35
2021-12-24 14:39:30.637167,33
2021-12-24 14:39:30.637177,49
2021-12-24 14:39:30.637266,68
2021-12-24 14:39:30.637278,73
2021-12-24 14:39:30.637288,66
2021-12-24 14:39:30.637298,59
2021-12-24 14:39:30.637307,47
2021-12-24 14:39:30.637317,30
2021-12-24 14:39:30.637327,21
2021-12-24 14:39:30.637337,16
2021-12-24 14:39:30.637347,16
2021-12-24 14:39:30.637356,21
2021-12-24 14:39:30.637366,21
2021-12-24 14:39:30.637376,16
2021-12-24 14:39:30.637386,23
2021-12-24 14:39:30.637396,28
2021-12-24 14:39:30.637405,30
2021-12-24 14:39:30.637415,59
2021-12-24 14:39:30.637425,151
2021-12-24 14:39:30.637435,291
2021-12-24 14:39:30.637445,288
2021-12-24 14:39:30.637455,-163
2021-12-24 14:39:30.637465,-786
2021-12-24 14:39:30.637475,-689
2021-12-24 14:39:30.861640,-52
2021-12-24 14:39:30.861660,156
2021-12-24 14:39:30.861668,42
2021-12-24 14:39:30.861675,94
2021-12-24 14:39:30.861681,146
2021-12-24 14:39:30.861692,85
2021-12-24 14:39:30.861699,85
2021-12-24 14:39:30.861706,123
2021-12-24 14:39:30.861712,118
2021-12-24 14:39:30.861719,108
2021-12-24 14:39:30.861725,111
2021-12-24 14:39:30.861731,101
2021-12-24 14:39:30.861738,99
2021-12-24 14:39:30.861744,104
2021-12-24 14:39:30.861751,104
2021-12-24 14:39:30.861757,104
2021-12-24 14:39:30.861763,104
2021-12-24 14:39:30.861770,106
2021-12-24 14:39:30.861776,108
2021-12-24 14:39:30.861782,113
2021-12-24 14:39:30.861789,120
2021-12-24 14:39:30.861795,127
2021-12-24 14:39:30.861801,123
2021-12-24 14:39:30.861808,120
2021-12-24 14:39:30.861814,123
2021-12-24 14:39:30.861821,116
2021-12-24 14:39:30.861827,101
2021-12-24 14:39:30.861833,89
2021-12-24 14:39:30.861840,80
2021-12-24 14:39:30.861846,75
2021-12-24 14:39:31.086207,75
2021-12-24 14:39:31.086227,66
2021-12-24 14:39:31.086233,44
2021-12-24 14:39:31.086239,23
2021-12-24 14:39:31.086244,16
2021-12-24 14:39:31.086249,16
2021-12-24 14:39:31.086254,14
2021-12-24 14:39:31.086259,14
2021-12-24 14:39:31.086265,23
2021-12-24 14:39:31.086270,30
2021-12-24 14:39:31.086275,18
2021-12-24 14:39:31.086280,14
2021-12-24 14:39:31.086285,30
2021-12-24 14:39:31.086290,33
2021-12-24 14:39:31.086296,30
2021-12-24 14:39:31.086301,37
2021-12-24 14:39:31.086306,37
2021-12-24 14:39:31.086311,33
2021-12-24 14:39:31.086316,42
2021-12-24 14:39:31.086321,47
2021-12-24 14:39:31.086327,37
2021-12-24 14:39:31.086332,33
2021-12-24 14:39:31.086337,35
2021-12-24 14:39:31.086342,37
2021-12-24 14:39:31.086347,49
2021-12-24 14:39:31.086352,71
2021-12-24 14:39:31.086357,73
2021-12-24 14:39:31.086362,61
2021-12-24 14:39:31.086368,52
2021-12-24 14:39:31.086373,33
2021-12-24 14:39:31.356358,26
2021-12-24 14:39:31.356379,30
2021-12-24 14:39:31.356387,28
2021-12-24 14:39:31.356394,21
2021-12-24 14:39:31.356400,26
2021-12-24 14:39:31.356406,35
2021-12-24 14:39:31.356413,35
2021-12-24 14:39:31.356419,33
2021-12-24 14:39:31.356425,42
2021-12-24 14:39:31.356431,66
2021-12-24 14:39:31.356438,156
2021-12-24 14:39:31.356444,319
2021-12-24 14:39:31.356450,402
2021-12-24 14:39:31.356457,132
2021-12-24 14:39:31.356463,-506
2021-12-24 14:39:31.356469,-779
2021-12-24 14:39:31.356476,-269
2021-12-24 14:39:31.356482,144
2021-12-24 14:39:31.356488,66
2021-12-24 14:39:31.356495,47
2021-12-24 14:39:31.356501,134
2021-12-24 14:39:31.356507,104
2021-12-24 14:39:31.356514,80
2021-12-24 14:39:31.356520,118
2021-12-24 14:39:31.356526,120
2021-12-24 14:39:31.356533,108
2021-12-24 14:39:31.356539,111
2021-12-24 14:39:31.356545,111
2021-12-24 14:39:31.356551,111
2021-12-24 14:39:31.356558,113
2021-12-24 14:39:31.581584,111
2021-12-24 14:39:31.581606,113
2021-12-24 14:39:31.581613,125
2021-12-24 14:39:31.581620,123
2021-12-24 14:39:31.581626,108
2021-12-24 14:39:31.581633,120
2021-12-24 14:39:31.581658,137
2021-12-24 14:39:31.581668,127
2021-12-24 14:39:31.581677,130
2021-12-24 14:39:31.581687,132
2021-12-24 14:39:31.581697,116
2021-12-24 14:39:31.581706,111
2021-12-24 14:39:31.581716,108
2021-12-24 14:39:31.581726,92
2021-12-24 14:39:31.581736,75
2021-12-24 14:39:31.581745,63
2021-12-24 14:39:31.581755,61
2021-12-24 14:39:31.581765,56
2021-12-24 14:39:31.581774,44
2021-12-24 14:39:31.581784,35
2021-12-24 14:39:31.581794,21
2021-12-24 14:39:31.581803,7
2021-12-24 14:39:31.581813,14
2021-12-24 14:39:31.581822,9
2021-12-24 14:39:31.581832,2
2021-12-24 14:39:31.581842,16
2021-12-24 14:39:31.581851,16
2021-12-24 14:39:31.581861,11
2021-12-24 14:39:31.581871,26
2021-12-24 14:39:31.581880,40
2021-12-24 14:39:31.851689,44
2021-12-24 14:39:31.851719,40
2021-12-24 14:39:31.851731,28
2021-12-24 14:39:31.851742,26
2021-12-24 14:39:31.851751,35
2021-12-24 14:39:31.851761,40
2021-12-24 14:39:31.851771,42
2021-12-24 14:39:31.851781,42
2021-12-24 14:39:31.851791,37
2021-12-24 14:39:31.851800,30
2021-12-24 14:39:31.851810,33
2021-12-24 14:39:31.851820,40
2021-12-24 14:39:31.851830,42
2021-12-24 14:39:31.851839,37
2021-12-24 14:39:31.851849,28
2021-12-24 14:39:31.851859,23
2021-12-24 14:39:31.851869,30
2021-12-24 14:39:31.851879,47
2021-12-24 14:39:31.851888,66
2021-12-24 14:39:31.851898,80
2021-12-24 14:39:31.851908,75
2021-12-24 14:39:31.851918,52
2021-12-24 14:39:31.851927,33
2021-12-24 14:39:31.851937,28
2021-12-24 14:39:31.851947,35
2021-12-24 14:39:31.851957,42
2021-12-24 14:39:31.851966,37
2021-12-24 14:39:31.851976,30
2021-12-24 14:39:31.851986,42
2021-12-24 14:39:31.851996,44
2021-12-24 14:39:32.165966,33
2021-12-24 14:39:32.165985,49
2021-12-24 14:39:32.165993,89
2021-12-24 14:39:32.165999,170
2021-12-24 14:39:32.166006,341
2021-12-24 14:39:32.166012,506
2021-12-24 14:39:32.166019,400
2021-12-24 14:39:32.166025,-189
2021-12-24 14:39:32.166032,-809
2021-12-24 14:39:32.166038,-613
2021-12-24 14:39:32.166045,4
2021-12-24 14:39:32.166051,130
2021-12-24 14:39:32.166057,26
2021-12-24 14:39:32.166064,97
2021-12-24 14:39:32.166070,132
2021-12-24 14:39:32.166076,89
2021-12-24 14:39:32.166083,99
2021-12-24 14:39:32.166089,118
2021-12-24 14:39:32.166096,108
2021-12-24 14:39:32.166102,108
2021-12-24 14:39:32.166108,113
2021-12-24 14:39:32.166115,113
2021-12-24 14:39:32.166121,113
2021-12-24 14:39:32.166127,116
2021-12-24 14:39:32.166134,118
2021-12-24 14:39:32.166140,120
2021-12-24 14:39:32.166147,113
2021-12-24 14:39:32.166153,108
2021-12-24 14:39:32.166159,118
