Time,ECG
2021-12-24 14:34:00.540104,101
2021-12-24 14:34:00.540119,104
2021-12-24 14:34:00.540124,108
2021-12-24 14:34:00.540129,118
2021-12-24 14:34:00.540133,123
2021-12-24 14:34:00.540138,130
2021-12-24 14:34:00.540143,149
2021-12-24 14:34:00.540147,156
2021-12-24 14:34:00.540152,153
2021-12-24 14:34:00.540156,158
2021-12-24 14:34:00.540161,161
2021-12-24 14:34:00.540165,156
2021-12-24 14:34:00.540170,146
2021-12-24 14:34:00.540174,130
2021-12-24 14:34:00.540178,111
2021-12-24 14:34:00.540183,87
2021-12-24 14:34:00.540187,66
2021-12-24 14:34:00.540192,44
2021-12-24 14:34:00.540196,28
2021-12-24 14:34:00.540201,16
2021-12-24 14:34:00.540205,9
2021-12-24 14:34:00.540210,9
2021-12-24 14:34:00.540214,11
2021-12-24 14:34:00.540218,7
2021-12-24 14:34:00.540223,11
2021-12-24 14:34:00.540227,18
2021-12-24 14:34:00.540232,16
2021-12-24 14:34:00.540236,16
2021-12-24 14:34:00.540241,28
2021-12-24 14:34:00.540245,40
2021-12-24 14:34:00.650447,37
2021-12-24 14:34:00.650470,33
2021-12-24 14:34:00.650478,42
2021-12-24 14:34:00.650484,56
2021-12-24 14:34:00.650491,49
2021-12-24 14:34:00.650498,26
2021-12-24 14:34:00.650505,21
2021-12-24 14:34:00.650511,30
2021-12-24 14:34:00.650518,23
2021-12-24 14:34:00.650524,14
2021-12-24 14:34:00.650531,16
2021-12-24 14:34:00.650537,18
2021-12-24 14:34:00.650544,16
2021-12-24 14:34:00.650550,14
2021-12-24 14:34:00.650557,16
2021-12-24 14:34:00.650563,11
2021-12-24 14:34:00.650569,4
2021-12-24 14:34:00.650576,9
2021-12-24 14:34:00.650582,9
2021-12-24 14:34:00.650589,4
2021-12-24 14:34:00.650595,-2
2021-12-24 14:34:00.650602,-2
2021-12-24 14:34:00.650608,9
2021-12-24 14:34:00.650615,23
2021-12-24 14:34:00.650621,42
2021-12-24 14:34:00.650627,61
2021-12-24 14:34:00.650633,59
2021-12-24 14:34:00.650640,37
2021-12-24 14:34:00.650646,21
2021-12-24 14:34:00.650655,18
2021-12-24 14:34:00.921196,18
2021-12-24 14:34:00.921218,18
2021-12-24 14:34:00.921226,21
2021-12-24 14:34:00.921232,28
2021-12-24 14:34:00.921239,26
2021-12-24 14:34:00.921264,23
2021-12-24 14:34:00.921274,33
2021-12-24 14:34:00.921283,44
2021-12-24 14:34:00.921293,66
2021-12-24 14:34:00.921303,139
2021-12-24 14:34:00.921313,296
2021-12-24 14:34:00.921323,480
2021-12-24 14:34:00.921333,471
2021-12-24 14:34:00.921349,-49
2021-12-24 14:34:00.921359,-774
2021-12-24 14:34:00.921369,-722
2021-12-24 14:34:00.921379,-73
2021-12-24 14:34:00.921389,106
2021-12-24 14:34:00.921398,-23
2021-12-24 14:34:00.921408,56
2021-12-24 14:34:00.921418,113
2021-12-24 14:34:00.921428,52
2021-12-24 14:34:00.921437,66
2021-12-24 14:34:00.921447,104
2021-12-24 14:34:00.921457,85
2021-12-24 14:34:00.921467,71
2021-12-24 14:34:00.921476,82
2021-12-24 14:34:00.921486,82
2021-12-24 14:34:00.921496,80
2021-12-24 14:34:00.921508,82
2021-12-24 14:34:01.101234,89
2021-12-24 14:34:01.101265,99
2021-12-24 14:34:01.101277,101
2021-12-24 14:34:01.101287,101
2021-12-24 14:34:01.101297,111
2021-12-24 14:34:01.101307,118
2021-12-24 14:34:01.101317,125
2021-12-24 14:34:01.101327,134
2021-12-24 14:34:01.101337,139
2021-12-24 14:34:01.101347,142
2021-12-24 14:34:01.101357,158
2021-12-24 14:34:01.101367,165
2021-12-24 14:34:01.101377,151
2021-12-24 14:34:01.101387,132
2021-12-24 14:34:01.101397,132
2021-12-24 14:34:01.101406,123
2021-12-24 14:34:01.101416,97
2021-12-24 14:34:01.101433,75
2021-12-24 14:34:01.101443,54
2021-12-24 14:34:01.101453,30
2021-12-24 14:34:01.101463,18
2021-12-24 14:34:01.101472,7
2021-12-24 14:34:01.101482,-11
2021-12-24 14:34:01.101492,-16
2021-12-24 14:34:01.101502,-4
2021-12-24 14:34:01.101512,0
2021-12-24 14:34:01.101522,-4
2021-12-24 14:34:01.101532,-2
2021-12-24 14:34:01.101542,2
2021-12-24 14:34:01.101552,7
2021-12-24 14:34:01.369427,16
2021-12-24 14:34:01.369458,26
2021-12-24 14:34:01.369469,21
2021-12-24 14:34:01.369479,18
2021-12-24 14:34:01.369489,11
2021-12-24 14:34:01.369499,4
2021-12-24 14:34:01.369509,18
2021-12-24 14:34:01.369527,26
2021-12-24 14:34:01.369538,14
2021-12-24 14:34:01.369547,7
2021-12-24 14:34:01.369557,11
2021-12-24 14:34:01.369567,11
2021-12-24 14:34:01.369577,9
2021-12-24 14:34:01.369587,11
2021-12-24 14:34:01.369597,14
2021-12-24 14:34:01.369607,9
2021-12-24 14:34:01.369617,9
2021-12-24 14:34:01.369626,2
2021-12-24 14:34:01.369636,-7
2021-12-24 14:34:01.369646,-7
2021-12-24 14:34:01.369656,4
2021-12-24 14:34:01.369666,23
2021-12-24 14:34:01.369676,35
2021-12-24 14:34:01.369685,37
2021-12-24 14:34:01.369695,37
2021-12-24 14:34:01.369705,30
2021-12-24 14:34:01.369715,14
2021-12-24 14:34:01.369725,4
2021-12-24 14:34:01.369734,2
2021-12-24 14:34:01.369745,-2
2021-12-24 14:34:01.640553,0
2021-12-24 14:34:01.640585,7
2021-12-24 14:34:01.640597,11
2021-12-24 14:34:01.640607,21
2021-12-24 14:34:01.640617,30
2021-12-24 14:34:01.640627,28
2021-12-24 14:34:01.640637,78
2021-12-24 14:34:01.640647,213
2021-12-24 14:34:01.640657,400
2021-12-24 14:34:01.640666,549
2021-12-24 14:34:01.640676,355
2021-12-24 14:34:01.640686,-395
2021-12-24 14:34:01.640696,-944
2021-12-24 14:34:01.640706,-539
2021-12-24 14:34:01.640716,33
2021-12-24 14:34:01.640730,61
2021-12-24 14:34:01.640740,0
2021-12-24 14:34:01.640750,80
2021-12-24 14:34:01.640760,94
2021-12-24 14:34:01.640770,52
2021-12-24 14:34:01.640780,63
2021-12-24 14:34:01.640790,85
2021-12-24 14:34:01.640800,78
2021-12-24 14:34:01.640810,85
2021-12-24 14:34:01.640826,99
2021-12-24 14:34:01.640836,99
2021-12-24 14:34:01.640846,89
2021-12-24 14:34:01.640856,82
2021-12-24 14:34:01.640866,94
2021-12-24 14:34:01.640876,118
2021-12-24 14:34:01.820778,118
2021-12-24 14:34:01.820808,113
2021-12-24 14:34:01.820820,134
2021-12-24 14:34:01.820830,146
2021-12-24 14:34:01.820841,144
2021-12-24 14:34:01.820851,161
2021-12-24 14:34:01.820861,177
2021-12-24 14:34:01.820870,189
2021-12-24 14:34:01.820880,206
2021-12-24 14:34:01.820890,208
2021-12-24 14:34:01.820900,187
2021-12-24 14:34:01.820910,170
2021-12-24 14:34:01.820920,175
2021-12-24 14:34:01.820930,163
2021-12-24 14:34:01.820940,130
2021-12-24 14:34:01.820950,101
2021-12-24 14:34:01.820960,73
2021-12-24 14:34:01.820970,40
2021-12-24 14:34:01.820979,11
2021-12-24 14:34:01.820989,-4
2021-12-24 14:34:01.820999,-14
2021-12-24 14:34:01.821009,-23
2021-12-24 14:34:01.821022,-30
2021-12-24 14:34:01.821031,-21
2021-12-24 14:34:01.821041,-14
2021-12-24 14:34:01.821051,-18
2021-12-24 14:34:01.821061,-7
2021-12-24 14:34:01.821071,4
2021-12-24 14:34:01.821081,2
2021-12-24 14:34:01.821090,2
2021-12-24 14:34:02.045996,11
2021-12-24 14:34:02.046021,11
2021-12-24 14:34:02.046029,14
2021-12-24 14:34:02.046036,14
2021-12-24 14:34:02.046042,14
2021-12-24 14:34:02.046049,28
2021-12-24 14:34:02.046055,40
2021-12-24 14:34:02.046062,28
2021-12-24 14:34:02.046068,14
2021-12-24 14:34:02.046075,16
2021-12-24 14:34:02.046081,33
2021-12-24 14:34:02.046088,44
2021-12-24 14:34:02.046094,42
2021-12-24 14:34:02.046101,42
2021-12-24 14:34:02.046107,44
2021-12-24 14:34:02.046114,26
2021-12-24 14:34:02.046120,7
2021-12-24 14:34:02.046127,7
2021-12-24 14:34:02.046133,9
2021-12-24 14:34:02.046139,4
2021-12-24 14:34:02.046146,7
2021-12-24 14:34:02.046152,14
2021-12-24 14:34:02.046158,11
2021-12-24 14:34:02.046165,4
2021-12-24 14:34:02.046176,9
2021-12-24 14:34:02.046182,26
2021-12-24 14:34:02.046189,73
2021-12-24 14:34:02.046195,196
2021-12-24 14:34:02.046201,395
2021-12-24 14:34:02.046208,532
2021-12-24 14:34:02.270378,274
2021-12-24 14:34:02.270394,-476
2021-12-24 14:34:02.270400,-902
2021-12-24 14:34:02.270406,-433
2021-12-24 14:34:02.270411,66
2021-12-24 14:34:02.270416,54
2021-12-24 14:34:02.270421,18
2021-12-24 14:34:02.270426,99
2021-12-24 14:34:02.270431,92
2021-12-24 14:34:02.270436,61
2021-12-24 14:34:02.270442,82
2021-12-24 14:34:02.270447,94
2021-12-24 14:34:02.270452,92
2021-12-24 14:34:02.270457,94
2021-12-24 14:34:02.270462,89
2021-12-24 14:34:02.270467,85
2021-12-24 14:34:02.270472,97
2021-12-24 14:34:02.270477,116
2021-12-24 14:34:02.270482,111
2021-12-24 14:34:02.270487,94
2021-12-24 14:34:02.270493,104
2021-12-24 14:34:02.270498,127
2021-12-24 14:34:02.270503,134
2021-12-24 14:34:02.270508,142
2021-12-24 14:34:02.270513,161
2021-12-24 14:34:02.270518,175
2021-12-24 14:34:02.270523,189
2021-12-24 14:34:02.270528,201
2021-12-24 14:34:02.270533,203
2021-12-24 14:34:02.270538,203
2021-12-24 14:34:02.495113,201
2021-12-24 14:34:02.495140,187
2021-12-24 14:34:02.495150,177
2021-12-24 14:34:02.495162,161
2021-12-24 14:34:02.495171,127
2021-12-24 14:34:02.495178,94
2021-12-24 14:34:02.495184,61
2021-12-24 14:34:02.495190,26
2021-12-24 14:34:02.495197,0
2021-12-24 14:34:02.495203,-7
2021-12-24 14:34:02.495210,-11
2021-12-24 14:34:02.495216,-16
2021-12-24 14:34:02.495223,-14
2021-12-24 14:34:02.495229,-11
2021-12-24 14:34:02.495236,-16
2021-12-24 14:34:02.495242,-16
2021-12-24 14:34:02.495248,-4
2021-12-24 14:34:02.495255,2
2021-12-24 14:34:02.495261,4
2021-12-24 14:34:02.495268,4
2021-12-24 14:34:02.495274,11
2021-12-24 14:34:02.495280,23
2021-12-24 14:34:02.495287,21
2021-12-24 14:34:02.495293,14
2021-12-24 14:34:02.495299,23
2021-12-24 14:34:02.495305,30
2021-12-24 14:34:02.495312,23
2021-12-24 14:34:02.495318,23
2021-12-24 14:34:02.495324,21
2021-12-24 14:34:02.495331,7
2021-12-24 14:34:02.721118,4
2021-12-24 14:34:02.721139,28
2021-12-24 14:34:02.721147,44
2021-12-24 14:34:02.721153,42
2021-12-24 14:34:02.721160,47
2021-12-24 14:34:02.721184,44
2021-12-24 14:34:02.721194,23
2021-12-24 14:34:02.721204,7
2021-12-24 14:34:02.721214,7
2021-12-24 14:34:02.721223,7
2021-12-24 14:34:02.721240,9
2021-12-24 14:34:02.721250,16
2021-12-24 14:34:02.721260,18
2021-12-24 14:34:02.721270,18
2021-12-24 14:34:02.721280,21
2021-12-24 14:34:02.721290,30
2021-12-24 14:34:02.721300,59
2021-12-24 14:34:02.721310,144
2021-12-24 14:34:02.721320,319
2021-12-24 14:34:02.721329,520
2021-12-24 14:34:02.721339,499
2021-12-24 14:34:02.721349,-61
2021-12-24 14:34:02.721359,-772
2021-12-24 14:34:02.721369,-672
2021-12-24 14:34:02.721378,-40
2021-12-24 14:34:02.721388,113
2021-12-24 14:34:02.721398,-9
2021-12-24 14:34:02.721408,66
2021-12-24 14:34:02.721417,118
2021-12-24 14:34:02.721427,59
2021-12-24 14:34:03.036256,66
2021-12-24 14:34:03.036286,97
2021-12-24 14:34:03.036298,87
2021-12-24 14:34:03.036308,85
2021-12-24 14:34:03.036318,94
2021-12-24 14:34:03.036328,89
2021-12-24 14:34:03.036338,87
2021-12-24 14:34:03.036348,97
2021-12-24 14:34:03.036358,97
2021-12-24 14:34:03.036368,87
2021-12-24 14:34:03.036378,92
2021-12-24 14:34:03.036388,106
2021-12-24 14:34:03.036398,116
2021-12-24 14:34:03.036407,123
2021-12-24 14:34:03.036417,144
2021-12-24 14:34:03.036427,156
2021-12-24 14:34:03.036437,156
2021-12-24 14:34:03.036447,170
2021-12-24 14:34:03.036457,191
2021-12-24 14:34:03.036467,191
2021-12-24 14:34:03.036477,182
2021-12-24 14:34:03.036486,184
2021-12-24 14:34:03.036496,177
2021-12-24 14:34:03.036506,153
2021-12-24 14:34:03.036516,132
2021-12-24 14:34:03.036533,104
2021-12-24 14:34:03.036543,71
2021-12-24 14:34:03.036553,47
2021-12-24 14:34:03.036563,28
2021-12-24 14:34:03.036573,14
2021-12-24 14:34:03.171014,4
2021-12-24 14:34:03.171044,0
2021-12-24 14:34:03.171056,-2
2021-12-24 14:34:03.171066,0
2021-12-24 14:34:03.171076,-2
2021-12-24 14:34:03.171086,-7
2021-12-24 14:34:03.171096,2
2021-12-24 14:34:03.171106,14
2021-12-24 14:34:03.171116,9
2021-12-24 14:34:03.171125,11
2021-12-24 14:34:03.171135,14
2021-12-24 14:34:03.171145,7
2021-12-24 14:34:03.171155,14
2021-12-24 14:34:03.171165,21
2021-12-24 14:34:03.171175,16
2021-12-24 14:34:03.171184,21
2021-12-24 14:34:03.171194,23
2021-12-24 14:34:03.171204,21
2021-12-24 14:34:03.171214,26
2021-12-24 14:34:03.171223,23
2021-12-24 14:34:03.171233,21
2021-12-24 14:34:03.171243,26
2021-12-24 14:34:03.171253,21
2021-12-24 14:34:03.171263,7
2021-12-24 14:34:03.171272,9
2021-12-24 14:34:03.171282,26
2021-12-24 14:34:03.171292,44
2021-12-24 14:34:03.171302,52
2021-12-24 14:34:03.171312,49
2021-12-24 14:34:03.171322,49
2021-12-24 14:34:03.529429,37
2021-12-24 14:34:03.529452,16
2021-12-24 14:34:03.529461,7
2021-12-24 14:34:03.529470,14
2021-12-24 14:34:03.529476,11
2021-12-24 14:34:03.529607,7
2021-12-24 14:34:03.529628,18
2021-12-24 14:34:03.529640,33
2021-12-24 14:34:03.529677,28
2021-12-24 14:34:03.529685,18
2021-12-24 14:34:03.529692,28
2021-12-24 14:34:03.529698,85
2021-12-24 14:34:03.529705,206
2021-12-24 14:34:03.529712,404
2021-12-24 14:34:03.529718,577
2021-12-24 14:34:03.529725,402
2021-12-24 14:34:03.529734,-331
2021-12-24 14:34:03.529741,-866
2021-12-24 14:34:03.529748,-454
2021-12-24 14:34:03.529755,78
2021-12-24 14:34:03.529761,40
2021-12-24 14:34:03.529768,-14
2021-12-24 14:34:03.529774,89
2021-12-24 14:34:03.529781,87
2021-12-24 14:34:03.529788,52
2021-12-24 14:34:03.529797,80
2021-12-24 14:34:03.529803,92
2021-12-24 14:34:03.529810,78
2021-12-24 14:34:03.529816,78
2021-12-24 14:34:03.529823,80
2021-12-24 14:34:03.665614,80
2021-12-24 14:34:03.665634,94
2021-12-24 14:34:03.665642,101
2021-12-24 14:34:03.665648,89
2021-12-24 14:34:03.665655,92
2021-12-24 14:34:03.665662,106
2021-12-24 14:34:03.665668,113
2021-12-24 14:34:03.665674,118
2021-12-24 14:34:03.665681,132
2021-12-24 14:34:03.665688,144
2021-12-24 14:34:03.665694,146
2021-12-24 14:34:03.665701,153
2021-12-24 14:34:03.665707,168
2021-12-24 14:34:03.665714,177
2021-12-24 14:34:03.665720,182
2021-12-24 14:34:03.665727,172
2021-12-24 14:34:03.665733,161
2021-12-24 14:34:03.665740,161
2021-12-24 14:34:03.665746,149
2021-12-24 14:34:03.665752,113
2021-12-24 14:34:03.665759,85
2021-12-24 14:34:03.665765,54
2021-12-24 14:34:03.665772,16
2021-12-24 14:34:03.665778,2
2021-12-24 14:34:03.665784,7
2021-12-24 14:34:03.665791,-2
2021-12-24 14:34:03.665798,-16
2021-12-24 14:34:03.665804,-11
2021-12-24 14:34:03.665811,-4
2021-12-24 14:34:03.665817,-4
2021-12-24 14:34:03.936312,-2
2021-12-24 14:34:03.936343,-2
2021-12-24 14:34:03.936355,4
2021-12-24 14:34:03.936366,18
2021-12-24 14:34:03.936375,16
2021-12-24 14:34:03.936385,4
2021-12-24 14:34:03.936395,9
2021-12-24 14:34:03.936405,18
2021-12-24 14:34:03.936415,11
2021-12-24 14:34:03.936424,-2
2021-12-24 14:34:03.936434,9
2021-12-24 14:34:03.936444,23
2021-12-24 14:34:03.936454,18
2021-12-24 14:34:03.936469,11
2021-12-24 14:34:03.936479,14
2021-12-24 14:34:03.936489,9
2021-12-24 14:34:03.936498,9
2021-12-24 14:34:03.936508,9
2021-12-24 14:34:03.936518,4
2021-12-24 14:34:03.936528,7
2021-12-24 14:34:03.936538,16
2021-12-24 14:34:03.936548,28
2021-12-24 14:34:03.936557,42
2021-12-24 14:34:03.936567,52
2021-12-24 14:34:03.936577,42
2021-12-24 14:34:03.936587,18
2021-12-24 14:34:03.936596,7
2021-12-24 14:34:03.936606,7
2021-12-24 14:34:03.936616,9
2021-12-24 14:34:03.936626,21
2021-12-24 14:34:04.115911,26
2021-12-24 14:34:04.115934,18
2021-12-24 14:34:04.115942,14
2021-12-24 14:34:04.115949,28
2021-12-24 14:34:04.115955,44
2021-12-24 14:34:04.115962,56
2021-12-24 14:34:04.115968,125
2021-12-24 14:34:04.115975,296
2021-12-24 14:34:04.115981,511
2021-12-24 14:34:04.115988,573
2021-12-24 14:34:04.115994,127
2021-12-24 14:34:04.116001,-665
2021-12-24 14:34:04.116007,-802
2021-12-24 14:34:04.116014,-179
2021-12-24 14:34:04.116020,111
2021-12-24 14:34:04.116026,-21
2021-12-24 14:34:04.116033,16
2021-12-24 14:34:04.116039,101
2021-12-24 14:34:04.116046,61
2021-12-24 14:34:04.116052,44
2021-12-24 14:34:04.116059,75
2021-12-24 14:34:04.116065,78
2021-12-24 14:34:04.116071,63
2021-12-24 14:34:04.116078,68
2021-12-24 14:34:04.116084,80
2021-12-24 14:34:04.116091,82
2021-12-24 14:34:04.116097,80
2021-12-24 14:34:04.116103,82
2021-12-24 14:34:04.116110,92
2021-12-24 14:34:04.116116,101
2021-12-24 14:34:04.341182,104
2021-12-24 14:34:04.341212,111
2021-12-24 14:34:04.341224,127
2021-12-24 14:34:04.341235,142
2021-12-24 14:34:04.341244,149
2021-12-24 14:34:04.341254,156
2021-12-24 14:34:04.341264,168
2021-12-24 14:34:04.341273,182
2021-12-24 14:34:04.341283,191
2021-12-24 14:34:04.341293,187
2021-12-24 14:34:04.341303,172
2021-12-24 14:34:04.341312,163
2021-12-24 14:34:04.341322,151
2021-12-24 14:34:04.341332,134
2021-12-24 14:34:04.341341,106
2021-12-24 14:34:04.341351,63
2021-12-24 14:34:04.341361,30
2021-12-24 14:34:04.341377,14
2021-12-24 14:34:04.341388,-4
2021-12-24 14:34:04.341397,-14
2021-12-24 14:34:04.341407,-14
2021-12-24 14:34:04.341417,-18
2021-12-24 14:34:04.341427,-18
2021-12-24 14:34:04.341436,-4
2021-12-24 14:34:04.341446,-2
2021-12-24 14:34:04.341456,-2
2021-12-24 14:34:04.341466,7
2021-12-24 14:34:04.341475,11
2021-12-24 14:34:04.341485,11
2021-12-24 14:34:04.341495,16
2021-12-24 14:34:04.610112,21
2021-12-24 14:34:04.610133,23
2021-12-24 14:34:04.610141,23
2021-12-24 14:34:04.610148,26
2021-12-24 14:34:04.610154,28
2021-12-24 14:34:04.610161,35
2021-12-24 14:34:04.610167,35
2021-12-24 14:34:04.610174,26
2021-12-24 14:34:04.610180,26
2021-12-24 14:34:04.610186,33
2021-12-24 14:34:04.610193,23
2021-12-24 14:34:04.610199,11
2021-12-24 14:34:04.610206,2
2021-12-24 14:34:04.610212,4
2021-12-24 14:34:04.610219,18
2021-12-24 14:34:04.610225,35
2021-12-24 14:34:04.610232,40
2021-12-24 14:34:04.610238,47
2021-12-24 14:34:04.610245,47
2021-12-24 14:34:04.610251,28
2021-12-24 14:34:04.610258,7
2021-12-24 14:34:04.610264,4
2021-12-24 14:34:04.610270,4
2021-12-24 14:34:04.610277,4
2021-12-24 14:34:04.610283,11
2021-12-24 14:34:04.610289,18
2021-12-24 14:34:04.610296,18
2021-12-24 14:34:04.610302,21
2021-12-24 14:34:04.610309,33
2021-12-24 14:34:04.610315,52
2021-12-24 14:34:04.791229,120
2021-12-24 14:34:04.791260,288
2021-12-24 14:34:04.791272,492
2021-12-24 14:34:04.791282,547
2021-12-24 14:34:04.791292,158
2021-12-24 14:34:04.791302,-610
2021-12-24 14:34:04.791312,-805
2021-12-24 14:34:04.791322,-182
2021-12-24 14:34:04.791332,151
2021-12-24 14:34:04.791342,7
2021-12-24 14:34:04.791352,33
2021-12-24 14:34:04.791362,125
2021-12-24 14:34:04.791371,82
2021-12-24 14:34:04.791381,73
2021-12-24 14:34:04.791391,99
2021-12-24 14:34:04.791401,87
2021-12-24 14:34:04.791411,82
2021-12-24 14:34:04.791421,92
2021-12-24 14:34:04.791431,94
2021-12-24 14:34:04.791441,97
2021-12-24 14:34:04.791451,106
2021-12-24 14:34:04.791461,108
2021-12-24 14:34:04.791470,108
2021-12-24 14:34:04.791480,116
2021-12-24 14:34:04.791490,130
2021-12-24 14:34:04.791500,139
2021-12-24 14:34:04.791509,144
2021-12-24 14:34:04.791519,153
2021-12-24 14:34:04.791529,168
2021-12-24 14:34:04.791543,177
2021-12-24 14:34:05.060809,187
2021-12-24 14:34:05.060837,201
2021-12-24 14:34:05.060851,206
2021-12-24 14:34:05.060864,203
2021-12-24 14:34:05.060876,194
2021-12-24 14:34:05.060883,179
2021-12-24 14:34:05.060890,163
2021-12-24 14:34:05.060896,161
2021-12-24 14:34:05.060902,144
2021-12-24 14:34:05.060909,101
2021-12-24 14:34:05.060915,61
2021-12-24 14:34:05.060921,49
2021-12-24 14:34:05.060928,47
2021-12-24 14:34:05.060934,37
2021-12-24 14:34:05.060940,30
2021-12-24 14:34:05.060947,35
2021-12-24 14:34:05.060953,40
2021-12-24 14:34:05.060959,42
2021-12-24 14:34:05.060966,44
2021-12-24 14:34:05.060972,54
2021-12-24 14:34:05.060978,56
2021-12-24 14:34:05.060985,56
2021-12-24 14:34:05.060991,66
2021-12-24 14:34:05.060998,71
2021-12-24 14:34:05.061004,71
2021-12-24 14:34:05.061010,75
2021-12-24 14:34:05.061016,80
2021-12-24 14:34:05.061023,75
2021-12-24 14:34:05.061029,68
2021-12-24 14:34:05.061035,71
2021-12-24 14:34:05.241380,71
2021-12-24 14:34:05.241410,71
2021-12-24 14:34:05.241422,73
2021-12-24 14:34:05.241432,71
2021-12-24 14:34:05.241442,63
2021-12-24 14:34:05.241452,54
2021-12-24 14:34:05.241462,54
2021-12-24 14:34:05.241472,47
2021-12-24 14:34:05.241482,33
2021-12-24 14:34:05.241492,30
2021-12-24 14:34:05.241501,54
2021-12-24 14:34:05.241511,73
2021-12-24 14:34:05.241521,78
2021-12-24 14:34:05.241531,71
2021-12-24 14:34:05.241541,59
2021-12-24 14:34:05.241551,35
2021-12-24 14:34:05.241560,16
2021-12-24 14:34:05.241570,16
2021-12-24 14:34:05.241580,16
2021-12-24 14:34:05.241590,16
2021-12-24 14:34:05.241600,18
2021-12-24 14:34:05.241609,16
2021-12-24 14:34:05.241619,18
2021-12-24 14:34:05.241629,30
2021-12-24 14:34:05.241639,30
2021-12-24 14:34:05.241648,35
2021-12-24 14:34:05.241658,101
2021-12-24 14:34:05.241668,265
2021-12-24 14:34:05.241678,490
2021-12-24 14:34:05.241687,592
2021-12-24 14:34:05.555206,194
2021-12-24 14:34:05.555227,-620
2021-12-24 14:34:05.555235,-835
2021-12-24 14:34:05.555242,-229
2021-12-24 14:34:05.555248,113
2021-12-24 14:34:05.555255,-2
2021-12-24 14:34:05.555261,23
2021-12-24 14:34:05.555268,108
2021-12-24 14:34:05.555274,63
2021-12-24 14:34:05.555281,42
2021-12-24 14:34:05.555287,75
2021-12-24 14:34:05.555293,80
2021-12-24 14:34:05.555300,71
2021-12-24 14:34:05.555306,80
2021-12-24 14:34:05.555313,82
2021-12-24 14:34:05.555319,75
2021-12-24 14:34:05.555325,80
2021-12-24 14:34:05.555332,85
2021-12-24 14:34:05.555338,78
2021-12-24 14:34:05.555345,80
2021-12-24 14:34:05.555354,82
2021-12-24 14:34:05.555360,97
2021-12-24 14:34:05.555367,116
2021-12-24 14:34:05.555373,120
2021-12-24 14:34:05.555379,113
2021-12-24 14:34:05.555386,125
2021-12-24 14:34:05.555392,156
2021-12-24 14:34:05.555399,168
2021-12-24 14:34:05.555405,161
2021-12-24 14:34:05.555411,156
2021-12-24 14:34:05.735553,156
2021-12-24 14:34:05.735576,146
2021-12-24 14:34:05.735584,130
2021-12-24 14:34:05.735591,113
2021-12-24 14:34:05.735597,89
2021-12-24 14:34:05.735604,61
2021-12-24 14:34:05.735610,35
2021-12-24 14:34:05.735617,7
2021-12-24 14:34:05.735623,-14
2021-12-24 14:34:05.735629,-21
2021-12-24 14:34:05.735636,-28
2021-12-24 14:34:05.735642,-23
2021-12-24 14:34:05.735649,-11
2021-12-24 14:34:05.735655,-11
2021-12-24 14:34:05.735661,-18
2021-12-24 14:34:05.735668,-11
2021-12-24 14:34:05.735674,-4
2021-12-24 14:34:05.735680,-4
2021-12-24 14:34:05.735687,4
2021-12-24 14:34:05.735693,9
2021-12-24 14:34:05.735699,14
2021-12-24 14:34:05.735706,14
2021-12-24 14:34:05.735712,-4
2021-12-24 14:34:05.735718,-7
2021-12-24 14:34:05.735725,9
2021-12-24 14:34:05.735731,9
2021-12-24 14:34:05.735737,-2
2021-12-24 14:34:05.735744,-4
2021-12-24 14:34:05.735750,7
2021-12-24 14:34:05.735756,7
2021-12-24 14:34:05.961416,-9
2021-12-24 14:34:05.961457,-11
2021-12-24 14:34:05.961475,-7
2021-12-24 14:34:05.961492,0
2021-12-24 14:34:05.961509,11
2021-12-24 14:34:05.961522,21
2021-12-24 14:34:05.961532,26
2021-12-24 14:34:05.961542,28
2021-12-24 14:34:05.961552,18
2021-12-24 14:34:05.961561,0
2021-12-24 14:34:05.961571,-9
2021-12-24 14:34:05.961581,-7
2021-12-24 14:34:05.961591,0
2021-12-24 14:34:05.961601,2
2021-12-24 14:34:05.961611,-4
2021-12-24 14:34:05.961621,-7
2021-12-24 14:34:05.961631,7
2021-12-24 14:34:05.961641,14
2021-12-24 14:34:05.961650,16
2021-12-24 14:34:05.961660,52
2021-12-24 14:34:05.961670,151
2021-12-24 14:34:05.961680,345
2021-12-24 14:34:05.961690,542
2021-12-24 14:34:05.961699,461
2021-12-24 14:34:05.961709,-182
2021-12-24 14:34:05.961719,-852
2021-12-24 14:34:05.961729,-632
2021-12-24 14:34:05.961739,-23
2021-12-24 14:34:05.961748,68
2021-12-24 14:34:05.961758,-18
2021-12-24 14:34:06.276235,66
2021-12-24 14:34:06.276265,89
2021-12-24 14:34:06.276277,49
2021-12-24 14:34:06.276288,71
2021-12-24 14:34:06.276298,87
2021-12-24 14:34:06.276307,73
2021-12-24 14:34:06.276317,80
2021-12-24 14:34:06.276327,87
2021-12-24 14:34:06.276337,73
2021-12-24 14:34:06.276346,68
2021-12-24 14:34:06.276356,82
2021-12-24 14:34:06.276366,94
2021-12-24 14:34:06.276376,94
2021-12-24 14:34:06.276386,94
2021-12-24 14:34:06.276395,101
2021-12-24 14:34:06.276405,116
2021-12-24 14:34:06.276415,127
2021-12-24 14:34:06.276425,132
2021-12-24 14:34:06.276434,146
2021-12-24 14:34:06.276444,165
2021-12-24 14:34:06.276454,179
2021-12-24 14:34:06.276463,187
2021-12-24 14:34:06.276478,191
2021-12-24 14:34:06.276488,191
2021-12-24 14:34:06.276498,175
2021-12-24 14:34:06.276508,161
2021-12-24 14:34:06.276518,151
2021-12-24 14:34:06.276527,130
2021-12-24 14:34:06.276537,97
2021-12-24 14:34:06.276547,61
2021-12-24 14:34:06.455121,30
2021-12-24 14:34:06.455144,7
2021-12-24 14:34:06.455152,-4
2021-12-24 14:34:06.455158,-9
2021-12-24 14:34:06.455165,-11
2021-12-24 14:34:06.455171,-9
2021-12-24 14:34:06.455197,-16
2021-12-24 14:34:06.455206,-18
2021-12-24 14:34:06.455216,-7
2021-12-24 14:34:06.455226,2
2021-12-24 14:34:06.455236,2
2021-12-24 14:34:06.455245,7
2021-12-24 14:34:06.455255,16
2021-12-24 14:34:06.455265,21
2021-12-24 14:34:06.455274,23
2021-12-24 14:34:06.455284,26
2021-12-24 14:34:06.455294,28
2021-12-24 14:34:06.455303,26
2021-12-24 14:34:06.455313,21
2021-12-24 14:34:06.455323,23
2021-12-24 14:34:06.455332,33
2021-12-24 14:34:06.455342,49
2021-12-24 14:34:06.455352,59
2021-12-24 14:34:06.455361,56
2021-12-24 14:34:06.455371,61
2021-12-24 14:34:06.455381,52
2021-12-24 14:34:06.455391,16
2021-12-24 14:34:06.455400,-4
2021-12-24 14:34:06.455410,2
2021-12-24 14:34:06.455420,4
2021-12-24 14:34:06.680269,0
2021-12-24 14:34:06.680316,7
2021-12-24 14:34:06.680326,14
2021-12-24 14:34:06.680334,16
2021-12-24 14:34:06.680340,23
2021-12-24 14:34:06.680347,23
2021-12-24 14:34:06.680353,23
2021-12-24 14:34:06.680360,87
2021-12-24 14:34:06.680366,251
2021-12-24 14:34:06.680373,457
2021-12-24 14:34:06.680379,494
2021-12-24 14:34:06.680386,35
2021-12-24 14:34:06.680392,-708
2021-12-24 14:34:06.680399,-781
2021-12-24 14:34:06.680405,-187
2021-12-24 14:34:06.680412,80
2021-12-24 14:34:06.680418,-9
2021-12-24 14:34:06.680425,37
2021-12-24 14:34:06.680431,94
2021-12-24 14:34:06.680437,44
2021-12-24 14:34:06.680444,47
2021-12-24 14:34:06.680450,85
2021-12-24 14:34:06.680456,78
2021-12-24 14:34:06.680463,66
2021-12-24 14:34:06.680469,75
2021-12-24 14:34:06.680476,85
2021-12-24 14:34:06.680482,80
2021-12-24 14:34:06.680488,80
2021-12-24 14:34:06.680495,94
2021-12-24 14:34:06.680501,101
2021-12-24 14:34:06.860586,94
2021-12-24 14:34:06.860606,99
2021-12-24 14:34:06.860613,116
2021-12-24 14:34:06.860620,127
2021-12-24 14:34:06.860626,132
2021-12-24 14:34:06.860633,146
2021-12-24 14:34:06.860639,170
2021-12-24 14:34:06.860645,184
2021-12-24 14:34:06.860652,191
2021-12-24 14:34:06.860658,191
2021-12-24 14:34:06.860665,182
2021-12-24 14:34:06.860671,172
2021-12-24 14:34:06.860677,172
2021-12-24 14:34:06.860684,163
2021-12-24 14:34:06.860690,137
2021-12-24 14:34:06.860696,101
2021-12-24 14:34:06.860703,66
2021-12-24 14:34:06.860709,35
2021-12-24 14:34:06.860715,16
2021-12-24 14:34:06.860722,0
2021-12-24 14:34:06.860728,-14
2021-12-24 14:34:06.860735,-14
2021-12-24 14:34:06.860741,-9
2021-12-24 14:34:06.860747,-9
2021-12-24 14:34:06.860754,-2
2021-12-24 14:34:06.860760,7
2021-12-24 14:34:06.860767,4
2021-12-24 14:34:06.860773,4
2021-12-24 14:34:06.860779,14
2021-12-24 14:34:06.860786,30
2021-12-24 14:34:07.220520,35
2021-12-24 14:34:07.220542,37
2021-12-24 14:34:07.220550,37
2021-12-24 14:34:07.220556,33
2021-12-24 14:34:07.220563,26
2021-12-24 14:34:07.220596,26
2021-12-24 14:34:07.220606,35
2021-12-24 14:34:07.220616,40
2021-12-24 14:34:07.220626,33
2021-12-24 14:34:07.220636,28
2021-12-24 14:34:07.220645,35
2021-12-24 14:34:07.220655,40
2021-12-24 14:34:07.220665,37
2021-12-24 14:34:07.220675,40
2021-12-24 14:34:07.220685,42
2021-12-24 14:34:07.220695,21
2021-12-24 14:34:07.220705,-2
2021-12-24 14:34:07.220714,-4
2021-12-24 14:34:07.220724,7
2021-12-24 14:34:07.220734,11
2021-12-24 14:34:07.220744,0
2021-12-24 14:34:07.220754,-9
2021-12-24 14:34:07.220763,0
2021-12-24 14:34:07.220773,11
2021-12-24 14:34:07.220783,7
2021-12-24 14:34:07.220793,23
2021-12-24 14:34:07.220802,108
2021-12-24 14:34:07.220812,265
2021-12-24 14:34:07.220822,459
2021-12-24 14:34:07.220832,523
2021-12-24 14:34:07.356271,106
2021-12-24 14:34:07.356302,-663
2021-12-24 14:34:07.356314,-824
2021-12-24 14:34:07.356324,-222
2021-12-24 14:34:07.356334,104
2021-12-24 14:34:07.356344,7
2021-12-24 14:34:07.356354,26
2021-12-24 14:34:07.356363,92
2021-12-24 14:34:07.356373,56
2021-12-24 14:34:07.356383,56
2021-12-24 14:34:07.356393,89
2021-12-24 14:34:07.356402,80
2021-12-24 14:34:07.356412,68
2021-12-24 14:34:07.356422,82
2021-12-24 14:34:07.356432,85
2021-12-24 14:34:07.356441,73
2021-12-24 14:34:07.356451,82
2021-12-24 14:34:07.356461,94
2021-12-24 14:34:07.356471,97
2021-12-24 14:34:07.356480,111
2021-12-24 14:34:07.356490,111
2021-12-24 14:34:07.356499,99
2021-12-24 14:34:07.356509,116
2021-12-24 14:34:07.356519,144
2021-12-24 14:34:07.356528,149
2021-12-24 14:34:07.356538,149
2021-12-24 14:34:07.356548,163
2021-12-24 14:34:07.356558,177
2021-12-24 14:34:07.356567,182
2021-12-24 14:34:07.356577,179
2021-12-24 14:34:07.713804,175
2021-12-24 14:34:07.713824,163
2021-12-24 14:34:07.713858,153
2021-12-24 14:34:07.713882,139
2021-12-24 14:34:07.713891,111
2021-12-24 14:34:07.713897,71
2021-12-24 14:34:07.713904,40
2021-12-24 14:34:07.713910,21
2021-12-24 14:34:07.713918,0
2021-12-24 14:34:07.713947,-16
2021-12-24 14:34:07.713961,-14
2021-12-24 14:34:07.713968,-7
2021-12-24 14:34:07.713975,-4
2021-12-24 14:34:07.713981,-2
2021-12-24 14:34:07.713988,4
2021-12-24 14:34:07.713994,7
2021-12-24 14:34:07.714001,11
2021-12-24 14:34:07.714007,16
2021-12-24 14:34:07.714014,23
2021-12-24 14:34:07.714020,33
2021-12-24 14:34:07.714027,37
2021-12-24 14:34:07.714033,37
2021-12-24 14:34:07.714039,40
2021-12-24 14:34:07.714046,49
2021-12-24 14:34:07.714052,59
2021-12-24 14:34:07.714059,52
2021-12-24 14:34:07.714065,42
2021-12-24 14:34:07.714072,42
2021-12-24 14:34:07.714078,40
2021-12-24 14:34:07.714085,33
2021-12-24 14:34:07.806336,35
2021-12-24 14:34:07.806358,40
2021-12-24 14:34:07.806366,37
2021-12-24 14:34:07.806372,30
2021-12-24 14:34:07.806379,16
2021-12-24 14:34:07.806385,11
2021-12-24 14:34:07.806391,37
2021-12-24 14:34:07.806398,61
2021-12-24 14:34:07.806404,52
2021-12-24 14:34:07.806410,37
2021-12-24 14:34:07.806417,40
2021-12-24 14:34:07.806423,30
2021-12-24 14:34:07.806430,9
2021-12-24 14:34:07.806436,9
2021-12-24 14:34:07.806442,9
2021-12-24 14:34:07.806449,4
2021-12-24 14:34:07.806455,11
2021-12-24 14:34:07.806461,18
2021-12-24 14:34:07.806467,16
2021-12-24 14:34:07.806474,23
2021-12-24 14:34:07.806480,35
2021-12-24 14:34:07.806487,54
2021-12-24 14:34:07.806493,127
2021-12-24 14:34:07.806499,293
2021-12-24 14:34:07.806506,490
2021-12-24 14:34:07.806512,525
2021-12-24 14:34:07.806518,75
2021-12-24 14:34:07.806525,-689
2021-12-24 14:34:07.806531,-781
2021-12-24 14:34:07.806538,-149
2021-12-24 14:34:08.119996,120
2021-12-24 14:34:08.120021,-11
2021-12-24 14:34:08.120029,37
2021-12-24 14:34:08.120036,118
2021-12-24 14:34:08.120042,68
2021-12-24 14:34:08.120049,66
2021-12-24 14:34:08.120055,94
2021-12-24 14:34:08.120061,82
2021-12-24 14:34:08.120068,78
2021-12-24 14:34:08.120074,80
2021-12-24 14:34:08.120080,75
2021-12-24 14:34:08.120087,85
2021-12-24 14:34:08.120093,87
2021-12-24 14:34:08.120100,80
2021-12-24 14:34:08.120106,89
2021-12-24 14:34:08.120112,94
2021-12-24 14:34:08.120119,94
2021-12-24 14:34:08.120125,106
2021-12-24 14:34:08.120131,123
2021-12-24 14:34:08.120138,127
2021-12-24 14:34:08.120144,132
2021-12-24 14:34:08.120150,142
2021-12-24 14:34:08.120157,161
2021-12-24 14:34:08.120163,170
2021-12-24 14:34:08.120169,170
2021-12-24 14:34:08.120176,170
2021-12-24 14:34:08.120182,163
2021-12-24 14:34:08.120188,158
2021-12-24 14:34:08.120195,149
2021-12-24 14:34:08.120201,127
2021-12-24 14:34:08.300904,104
2021-12-24 14:34:08.300935,78
2021-12-24 14:34:08.300947,47
2021-12-24 14:34:08.300957,30
2021-12-24 14:34:08.300967,26
2021-12-24 14:34:08.300977,14
2021-12-24 14:34:08.300987,0
2021-12-24 14:34:08.300997,4
2021-12-24 14:34:08.301007,14
2021-12-24 14:34:08.301017,21
2021-12-24 14:34:08.301027,16
2021-12-24 14:34:08.301037,11
2021-12-24 14:34:08.301047,23
2021-12-24 14:34:08.301056,37
2021-12-24 14:34:08.301067,37
2021-12-24 14:34:08.301076,33
2021-12-24 14:34:08.301086,37
2021-12-24 14:34:08.301096,42
2021-12-24 14:34:08.301106,40
2021-12-24 14:34:08.301115,42
2021-12-24 14:34:08.301125,49
2021-12-24 14:34:08.301135,52
2021-12-24 14:34:08.301145,49
2021-12-24 14:34:08.301155,40
2021-12-24 14:34:08.301164,37
2021-12-24 14:34:08.301174,42
2021-12-24 14:34:08.301184,44
2021-12-24 14:34:08.301193,40
2021-12-24 14:34:08.301203,37
2021-12-24 14:34:08.301213,42
2021-12-24 14:34:08.570949,33
2021-12-24 14:34:08.570969,16
2021-12-24 14:34:08.570976,16
2021-12-24 14:34:08.570983,23
2021-12-24 14:34:08.570990,28
2021-12-24 14:34:08.570996,44
2021-12-24 14:34:08.571003,59
2021-12-24 14:34:08.571009,59
2021-12-24 14:34:08.571016,52
2021-12-24 14:34:08.571022,37
2021-12-24 14:34:08.571028,23
2021-12-24 14:34:08.571035,16
2021-12-24 14:34:08.571041,16
2021-12-24 14:34:08.571048,18
2021-12-24 14:34:08.571054,21
2021-12-24 14:34:08.571060,18
2021-12-24 14:34:08.571067,16
2021-12-24 14:34:08.571073,23
2021-12-24 14:34:08.571080,26
2021-12-24 14:34:08.571086,33
2021-12-24 14:34:08.571092,75
2021-12-24 14:34:08.571099,196
2021-12-24 14:34:08.571105,393
2021-12-24 14:34:08.571112,542
2021-12-24 14:34:08.571118,362
2021-12-24 14:34:08.571125,-322
2021-12-24 14:34:08.571131,-852
2021-12-24 14:34:08.571138,-473
2021-12-24 14:34:08.571144,78
2021-12-24 14:34:08.571151,61
2021-12-24 14:34:08.750681,-7
2021-12-24 14:34:08.750702,97
2021-12-24 14:34:08.750709,97
2021-12-24 14:34:08.750716,59
2021-12-24 14:34:08.750723,87
2021-12-24 14:34:08.750729,99
2021-12-24 14:34:08.750736,82
2021-12-24 14:34:08.750742,85
2021-12-24 14:34:08.750748,89
2021-12-24 14:34:08.750755,85
2021-12-24 14:34:08.750761,82
2021-12-24 14:34:08.750767,80
2021-12-24 14:34:08.750774,87
2021-12-24 14:34:08.750780,101
2021-12-24 14:34:08.750786,99
2021-12-24 14:34:08.750793,94
2021-12-24 14:34:08.750799,113
2021-12-24 14:34:08.750806,132
2021-12-24 14:34:08.750812,132
2021-12-24 14:34:08.750818,146
2021-12-24 14:34:08.750824,161
2021-12-24 14:34:08.750831,158
2021-12-24 14:34:08.750837,161
2021-12-24 14:34:08.750843,163
2021-12-24 14:34:08.750850,161
2021-12-24 14:34:08.750856,156
2021-12-24 14:34:08.750862,151
2021-12-24 14:34:08.750868,134
2021-12-24 14:34:08.750875,113
2021-12-24 14:34:08.750881,89
2021-12-24 14:34:08.930791,63
2021-12-24 14:34:08.930821,40
2021-12-24 14:34:08.930832,28
2021-12-24 14:34:08.930843,23
2021-12-24 14:34:08.930853,16
2021-12-24 14:34:08.930862,14
2021-12-24 14:34:08.930872,16
2021-12-24 14:34:08.930882,18
2021-12-24 14:34:08.930892,23
2021-12-24 14:34:08.930902,23
2021-12-24 14:34:08.930911,21
2021-12-24 14:34:08.930930,30
2021-12-24 14:34:08.930940,35
2021-12-24 14:34:08.930950,33
2021-12-24 14:34:08.930959,35
2021-12-24 14:34:08.930969,40
2021-12-24 14:34:08.930979,37
2021-12-24 14:34:08.930988,40
2021-12-24 14:34:08.930998,40
2021-12-24 14:34:08.931008,40
2021-12-24 14:34:08.931017,47
2021-12-24 14:34:08.931027,44
2021-12-24 14:34:08.931037,40
2021-12-24 14:34:08.931046,42
2021-12-24 14:34:08.931056,37
2021-12-24 14:34:08.931066,26
2021-12-24 14:34:08.931075,30
2021-12-24 14:34:08.931085,28
2021-12-24 14:34:08.931095,18
2021-12-24 14:34:08.931104,23
2021-12-24 14:34:09.245602,30
2021-12-24 14:34:09.245623,28
2021-12-24 14:34:09.245631,14
2021-12-24 14:34:09.245638,2
2021-12-24 14:34:09.245644,4
2021-12-24 14:34:09.245650,23
2021-12-24 14:34:09.245657,49
2021-12-24 14:34:09.245663,66
2021-12-24 14:34:09.245669,63
2021-12-24 14:34:09.245675,44
2021-12-24 14:34:09.245682,26
2021-12-24 14:34:09.245688,14
2021-12-24 14:34:09.245694,7
2021-12-24 14:34:09.245701,4
2021-12-24 14:34:09.245707,4
2021-12-24 14:34:09.245713,7
2021-12-24 14:34:09.245720,11
2021-12-24 14:34:09.245726,16
2021-12-24 14:34:09.245732,26
2021-12-24 14:34:09.245738,30
2021-12-24 14:34:09.245745,33
2021-12-24 14:34:09.245751,66
2021-12-24 14:34:09.245757,184
2021-12-24 14:34:09.245764,386
2021-12-24 14:34:09.245770,544
2021-12-24 14:34:09.245776,352
2021-12-24 14:34:09.245782,-364
2021-12-24 14:34:09.245789,-873
2021-12-24 14:34:09.245795,-459
2021-12-24 14:34:09.245801,68
2021-12-24 14:34:09.425682,44
2021-12-24 14:34:09.425703,-2
2021-12-24 14:34:09.425711,94
2021-12-24 14:34:09.425717,75
2021-12-24 14:34:09.425724,44
2021-12-24 14:34:09.425748,85
2021-12-24 14:34:09.425758,94
2021-12-24 14:34:09.425768,82
2021-12-24 14:34:09.425777,80
2021-12-24 14:34:09.425787,75
2021-12-24 14:34:09.425797,75
2021-12-24 14:34:09.425807,82
2021-12-24 14:34:09.425816,85
2021-12-24 14:34:09.425826,92
2021-12-24 14:34:09.425836,99
2021-12-24 14:34:09.425846,94
2021-12-24 14:34:09.425855,97
2021-12-24 14:34:09.425865,116
2021-12-24 14:34:09.425875,127
2021-12-24 14:34:09.425885,130
2021-12-24 14:34:09.425894,134
2021-12-24 14:34:09.425904,146
2021-12-24 14:34:09.425914,153
2021-12-24 14:34:09.425923,158
2021-12-24 14:34:09.425933,158
2021-12-24 14:34:09.425943,153
2021-12-24 14:34:09.425952,149
2021-12-24 14:34:09.425962,142
2021-12-24 14:34:09.425972,132
2021-12-24 14:34:09.425981,120
2021-12-24 14:34:09.695048,89
2021-12-24 14:34:09.695078,52
2021-12-24 14:34:09.695089,35
2021-12-24 14:34:09.695100,26
2021-12-24 14:34:09.695109,7
2021-12-24 14:34:09.695119,-7
2021-12-24 14:34:09.695129,-7
2021-12-24 14:34:09.695139,-4
2021-12-24 14:34:09.695149,-7
2021-12-24 14:34:09.695159,-4
2021-12-24 14:34:09.695169,4
2021-12-24 14:34:09.695179,2
2021-12-24 14:34:09.695189,0
2021-12-24 14:34:09.695199,11
2021-12-24 14:34:09.695209,14
2021-12-24 14:34:09.695218,11
2021-12-24 14:34:09.695228,18
2021-12-24 14:34:09.695238,18
2021-12-24 14:34:09.695248,7
2021-12-24 14:34:09.695257,4
2021-12-24 14:34:09.695267,11
2021-12-24 14:34:09.695277,11
2021-12-24 14:34:09.695287,7
2021-12-24 14:34:09.695296,2
2021-12-24 14:34:09.695306,-2
2021-12-24 14:34:09.695316,0
2021-12-24 14:34:09.695326,7
2021-12-24 14:34:09.695336,2
2021-12-24 14:34:09.695346,-7
2021-12-24 14:34:09.695355,-4
2021-12-24 14:34:09.875883,4
2021-12-24 14:34:09.875906,14
2021-12-24 14:34:09.875914,35
2021-12-24 14:34:09.875921,47
2021-12-24 14:34:09.875927,35
2021-12-24 14:34:09.875934,11
2021-12-24 14:34:09.875940,-2
2021-12-24 14:34:09.875947,-9
2021-12-24 14:34:09.875953,-7
2021-12-24 14:34:09.875960,-2
2021-12-24 14:34:09.875966,4
2021-12-24 14:34:09.875972,11
2021-12-24 14:34:09.875979,9
2021-12-24 14:34:09.875985,0
2021-12-24 14:34:09.875992,-2
2021-12-24 14:34:09.875998,18
2021-12-24 14:34:09.876005,63
2021-12-24 14:34:09.876011,146
2021-12-24 14:34:09.876018,319
2021-12-24 14:34:09.876024,523
2021-12-24 14:34:09.876030,504
2021-12-24 14:34:09.876037,-75
2021-12-24 14:34:09.876043,-833
2021-12-24 14:34:09.876050,-774
2021-12-24 14:34:09.876056,-132
2021-12-24 14:34:09.876062,78
2021-12-24 14:34:09.876069,-14
2021-12-24 14:34:09.876075,47
2021-12-24 14:34:09.876082,97
2021-12-24 14:34:09.876088,47
2021-12-24 14:34:10.101272,49
2021-12-24 14:34:10.101302,80
2021-12-24 14:34:10.101314,75
2021-12-24 14:34:10.101324,73
2021-12-24 14:34:10.101334,82
2021-12-24 14:34:10.101344,75
2021-12-24 14:34:10.101354,80
2021-12-24 14:34:10.101364,92
2021-12-24 14:34:10.101378,89
2021-12-24 14:34:10.101387,89
2021-12-24 14:34:10.101397,99
2021-12-24 14:34:10.101407,101
2021-12-24 14:34:10.101417,104
2021-12-24 14:34:10.101427,123
2021-12-24 14:34:10.101437,144
2021-12-24 14:34:10.101446,146
2021-12-24 14:34:10.101456,153
2021-12-24 14:34:10.101466,179
2021-12-24 14:34:10.101476,191
2021-12-24 14:34:10.101485,191
2021-12-24 14:34:10.101495,191
2021-12-24 14:34:10.101505,187
2021-12-24 14:34:10.101515,170
2021-12-24 14:34:10.101525,156
2021-12-24 14:34:10.101535,137
2021-12-24 14:34:10.101545,104
2021-12-24 14:34:10.101554,68
2021-12-24 14:34:10.101564,37
2021-12-24 14:34:10.101574,7
2021-12-24 14:34:10.101584,-26
2021-12-24 14:34:10.325739,-42
2021-12-24 14:34:10.325761,-42
2021-12-24 14:34:10.325768,-33
2021-12-24 14:34:10.325775,-33
2021-12-24 14:34:10.325781,-37
2021-12-24 14:34:10.325788,-30
2021-12-24 14:34:10.325813,-23
2021-12-24 14:34:10.325823,-28
2021-12-24 14:34:10.325832,-28
2021-12-24 14:34:10.325842,-16
2021-12-24 14:34:10.325852,-9
2021-12-24 14:34:10.325862,-7
2021-12-24 14:34:10.325872,-14
2021-12-24 14:34:10.325882,-11
2021-12-24 14:34:10.325892,4
2021-12-24 14:34:10.325901,11
2021-12-24 14:34:10.325911,4
2021-12-24 14:34:10.325921,7
2021-12-24 14:34:10.325931,9
2021-12-24 14:34:10.325941,4
2021-12-24 14:34:10.325950,7
2021-12-24 14:34:10.325960,14
2021-12-24 14:34:10.325970,23
2021-12-24 14:34:10.325980,35
2021-12-24 14:34:10.325989,42
2021-12-24 14:34:10.325999,44
2021-12-24 14:34:10.326009,35
2021-12-24 14:34:10.326019,11
2021-12-24 14:34:10.326028,-2
2021-12-24 14:34:10.326038,2
2021-12-24 14:34:10.550893,7
2021-12-24 14:34:10.550915,7
2021-12-24 14:34:10.550923,4
2021-12-24 14:34:10.550929,7
2021-12-24 14:34:10.550936,16
2021-12-24 14:34:10.550942,14
2021-12-24 14:34:10.550948,16
2021-12-24 14:34:10.550955,59
2021-12-24 14:34:10.550961,175
2021-12-24 14:34:10.550967,369
2021-12-24 14:34:10.550974,554
2021-12-24 14:34:10.550980,461
2021-12-24 14:34:10.550986,-184
2021-12-24 14:34:10.550993,-859
2021-12-24 14:34:10.551000,-651
2021-12-24 14:34:10.551006,-40
2021-12-24 14:34:10.551012,75
2021-12-24 14:34:10.551019,-4
2021-12-24 14:34:10.551025,71
2021-12-24 14:34:10.551031,101
2021-12-24 14:34:10.551038,63
2021-12-24 14:34:10.551044,73
2021-12-24 14:34:10.551050,94
2021-12-24 14:34:10.551057,85
2021-12-24 14:34:10.551063,82
2021-12-24 14:34:10.551069,89
2021-12-24 14:34:10.551076,92
2021-12-24 14:34:10.551082,89
2021-12-24 14:34:10.551088,97
2021-12-24 14:34:10.551095,106
2021-12-24 14:34:10.819983,104
2021-12-24 14:34:10.820000,104
2021-12-24 14:34:10.820006,116
2021-12-24 14:34:10.820011,125
2021-12-24 14:34:10.820017,132
2021-12-24 14:34:10.820022,134
2021-12-24 14:34:10.820027,144
2021-12-24 14:34:10.820032,163
2021-12-24 14:34:10.820037,179
2021-12-24 14:34:10.820042,187
2021-12-24 14:34:10.820047,189
2021-12-24 14:34:10.820052,189
2021-12-24 14:34:10.820057,187
2021-12-24 14:34:10.820062,175
2021-12-24 14:34:10.820067,163
2021-12-24 14:34:10.820072,144
2021-12-24 14:34:10.820077,106
2021-12-24 14:34:10.820082,61
2021-12-24 14:34:10.820087,23
2021-12-24 14:34:10.820092,0
2021-12-24 14:34:10.820098,-11
2021-12-24 14:34:10.820103,-21
2021-12-24 14:34:10.820108,-26
2021-12-24 14:34:10.820113,-28
2021-12-24 14:34:10.820118,-28
2021-12-24 14:34:10.820123,-18
2021-12-24 14:34:10.820128,-11
2021-12-24 14:34:10.820133,-16
2021-12-24 14:34:10.820138,-16
2021-12-24 14:34:10.820143,2
2021-12-24 14:34:11.046429,11
2021-12-24 14:34:11.046449,9
2021-12-24 14:34:11.046457,9
2021-12-24 14:34:11.046463,14
2021-12-24 14:34:11.046470,14
2021-12-24 14:34:11.046476,9
2021-12-24 14:34:11.046483,16
2021-12-24 14:34:11.046489,26
2021-12-24 14:34:11.046495,28
2021-12-24 14:34:11.046502,14
2021-12-24 14:34:11.046508,9
2021-12-24 14:34:11.046514,16
2021-12-24 14:34:11.046521,28
2021-12-24 14:34:11.046527,40
2021-12-24 14:34:11.046534,47
2021-12-24 14:34:11.046540,47
2021-12-24 14:34:11.046546,35
2021-12-24 14:34:11.046553,23
2021-12-24 14:34:11.046559,14
2021-12-24 14:34:11.046589,4
2021-12-24 14:34:11.046616,9
2021-12-24 14:34:11.046631,14
2021-12-24 14:34:11.046667,9
2021-12-24 14:34:11.046682,9
2021-12-24 14:34:11.046694,18
2021-12-24 14:34:11.046706,28
2021-12-24 14:34:11.046717,28
2021-12-24 14:34:11.046728,35
2021-12-24 14:34:11.046755,99
2021-12-24 14:34:11.046767,251
2021-12-24 14:34:11.316022,461
2021-12-24 14:34:11.316052,582
2021-12-24 14:34:11.316063,269
2021-12-24 14:34:11.316073,-509
2021-12-24 14:34:11.316083,-862
2021-12-24 14:34:11.316093,-336
2021-12-24 14:34:11.316103,89
2021-12-24 14:34:11.316113,4
2021-12-24 14:34:11.316122,-4
2021-12-24 14:34:11.316132,89
2021-12-24 14:34:11.316142,61
2021-12-24 14:34:11.316152,42
2021-12-24 14:34:11.316161,82
2021-12-24 14:34:11.316171,80
2021-12-24 14:34:11.316181,59
2021-12-24 14:34:11.316190,71
2021-12-24 14:34:11.316200,78
2021-12-24 14:34:11.316210,68
2021-12-24 14:34:11.316220,73
2021-12-24 14:34:11.316229,87
2021-12-24 14:34:11.316239,87
2021-12-24 14:34:11.316249,92
2021-12-24 14:34:11.316259,108
2021-12-24 14:34:11.316273,118
2021-12-24 14:34:11.316283,123
2021-12-24 14:34:11.316293,134
2021-12-24 14:34:11.316303,144
2021-12-24 14:34:11.316313,161
2021-12-24 14:34:11.316322,175
2021-12-24 14:34:11.316332,184
2021-12-24 14:34:11.495411,196
2021-12-24 14:34:11.495432,198
2021-12-24 14:34:11.495439,194
2021-12-24 14:34:11.495446,182
2021-12-24 14:34:11.495452,170
2021-12-24 14:34:11.495458,156
2021-12-24 14:34:11.495465,134
2021-12-24 14:34:11.495471,89
2021-12-24 14:34:11.495477,47
2021-12-24 14:34:11.495484,26
2021-12-24 14:34:11.495490,9
2021-12-24 14:34:11.495496,-7
2021-12-24 14:34:11.495503,-11
2021-12-24 14:34:11.495509,-7
2021-12-24 14:34:11.495515,-7
2021-12-24 14:34:11.495522,-7
2021-12-24 14:34:11.495528,-7
2021-12-24 14:34:11.495534,-4
2021-12-24 14:34:11.495540,-7
2021-12-24 14:34:11.495547,0
2021-12-24 14:34:11.495553,7
2021-12-24 14:34:11.495559,2
2021-12-24 14:34:11.495566,2
2021-12-24 14:34:11.495572,14
2021-12-24 14:34:11.495578,18
2021-12-24 14:34:11.495585,16
2021-12-24 14:34:11.495591,21
2021-12-24 14:34:11.495597,23
2021-12-24 14:34:11.495603,16
2021-12-24 14:34:11.495610,16
2021-12-24 14:34:11.809422,21
2021-12-24 14:34:11.809465,21
2021-12-24 14:34:11.809476,16
2021-12-24 14:34:11.809486,18
2021-12-24 14:34:11.809496,16
2021-12-24 14:34:11.809506,16
2021-12-24 14:34:11.809516,14
2021-12-24 14:34:11.809526,23
2021-12-24 14:34:11.809536,42
2021-12-24 14:34:11.809545,54
2021-12-24 14:34:11.809555,47
2021-12-24 14:34:11.809565,33
2021-12-24 14:34:11.809574,16
2021-12-24 14:34:11.809584,0
2021-12-24 14:34:11.809594,-4
2021-12-24 14:34:11.809604,0
2021-12-24 14:34:11.809614,2
2021-12-24 14:34:11.809624,4
2021-12-24 14:34:11.809634,9
2021-12-24 14:34:11.809644,16
2021-12-24 14:34:11.809653,26
2021-12-24 14:34:11.809663,30
2021-12-24 14:34:11.809673,44
2021-12-24 14:34:11.809682,92
2021-12-24 14:34:11.809692,206
2021-12-24 14:34:11.809702,409
2021-12-24 14:34:11.809712,570
2021-12-24 14:34:11.809722,364
2021-12-24 14:34:11.809732,-374
2021-12-24 14:34:11.809742,-866
2021-12-24 14:34:11.990734,-423
2021-12-24 14:34:11.990764,92
2021-12-24 14:34:11.990776,42
2021-12-24 14:34:11.990787,-4
2021-12-24 14:34:11.990797,97
2021-12-24 14:34:11.990807,82
2021-12-24 14:34:11.990816,49
2021-12-24 14:34:11.990826,85
2021-12-24 14:34:11.990836,94
2021-12-24 14:34:11.990846,75
2021-12-24 14:34:11.990856,75
2021-12-24 14:34:11.990865,82
2021-12-24 14:34:11.990875,85
2021-12-24 14:34:11.990885,87
2021-12-24 14:34:11.990895,89
2021-12-24 14:34:11.990904,92
2021-12-24 14:34:11.990914,99
2021-12-24 14:34:11.990924,106
2021-12-24 14:34:11.990934,104
2021-12-24 14:34:11.990943,111
2021-12-24 14:34:11.990953,130
2021-12-24 14:34:11.990963,144
2021-12-24 14:34:11.990973,151
2021-12-24 14:34:11.990982,161
2021-12-24 14:34:11.990992,177
2021-12-24 14:34:11.991002,191
2021-12-24 14:34:11.991012,191
2021-12-24 14:34:11.991021,187
2021-12-24 14:34:11.991031,179
2021-12-24 14:34:11.991041,168
2021-12-24 14:34:12.349511,149
2021-12-24 14:34:12.349541,130
2021-12-24 14:34:12.349553,101
2021-12-24 14:34:12.349564,63
2021-12-24 14:34:12.349574,37
2021-12-24 14:34:12.349584,18
2021-12-24 14:34:12.349593,4
2021-12-24 14:34:12.349603,2
2021-12-24 14:34:12.349613,4
2021-12-24 14:34:12.349646,9
2021-12-24 14:34:12.349763,7
2021-12-24 14:34:12.349800,2
2021-12-24 14:34:12.349813,4
2021-12-24 14:34:12.349824,11
2021-12-24 14:34:12.349834,9
2021-12-24 14:34:12.349844,7
2021-12-24 14:34:12.349854,11
2021-12-24 14:34:12.349863,4
2021-12-24 14:34:12.349873,-4
2021-12-24 14:34:12.349883,4
2021-12-24 14:34:12.349893,14
2021-12-24 14:34:12.349902,11
2021-12-24 14:34:12.349912,11
2021-12-24 14:34:12.349922,16
2021-12-24 14:34:12.349932,16
2021-12-24 14:34:12.349941,18
2021-12-24 14:34:12.349951,14
2021-12-24 14:34:12.349961,9
2021-12-24 14:34:12.349971,14
2021-12-24 14:34:12.349986,21
2021-12-24 14:34:12.440647,23
2021-12-24 14:34:12.440678,21
2021-12-24 14:34:12.440689,16
2021-12-24 14:34:12.440699,18
2021-12-24 14:34:12.440709,21
2021-12-24 14:34:12.440719,23
2021-12-24 14:34:12.440728,14
2021-12-24 14:34:12.440738,-2
2021-12-24 14:34:12.440748,0
2021-12-24 14:34:12.440758,23
2021-12-24 14:34:12.440767,44
2021-12-24 14:34:12.440777,54
2021-12-24 14:34:12.440787,59
2021-12-24 14:34:12.440796,54
2021-12-24 14:34:12.440806,33
2021-12-24 14:34:12.440816,14
2021-12-24 14:34:12.440825,9
2021-12-24 14:34:12.440835,9
2021-12-24 14:34:12.440844,11
2021-12-24 14:34:12.440854,16
2021-12-24 14:34:12.440864,26
2021-12-24 14:34:12.440873,23
2021-12-24 14:34:12.440883,14
2021-12-24 14:34:12.440893,23
2021-12-24 14:34:12.440903,42
2021-12-24 14:34:12.440912,78
2021-12-24 14:34:12.440922,189
2021-12-24 14:34:12.440932,390
2021-12-24 14:34:12.440941,565
2021-12-24 14:34:12.440951,442
2021-12-24 14:34:12.665944,-234
2021-12-24 14:34:12.665966,-845
2021-12-24 14:34:12.665974,-523
2021-12-24 14:34:12.665981,52
2021-12-24 14:34:12.665987,44
2021-12-24 14:34:12.665994,-40
2021-12-24 14:34:12.666000,73
2021-12-24 14:34:12.666006,80
2021-12-24 14:34:12.666013,30
2021-12-24 14:34:12.666019,59
2021-12-24 14:34:12.666026,75
2021-12-24 14:34:12.666032,63
2021-12-24 14:34:12.666038,71
2021-12-24 14:34:12.666044,78
2021-12-24 14:34:12.666051,73
2021-12-24 14:34:12.666057,73
2021-12-24 14:34:12.666063,73
2021-12-24 14:34:12.666070,75
2021-12-24 14:34:12.666076,82
2021-12-24 14:34:12.666082,89
2021-12-24 14:34:12.666088,99
2021-12-24 14:34:12.666095,111
2021-12-24 14:34:12.666101,113
2021-12-24 14:34:12.666107,116
2021-12-24 14:34:12.666113,132
2021-12-24 14:34:12.666120,151
2021-12-24 14:34:12.666126,161
2021-12-24 14:34:12.666132,158
2021-12-24 14:34:12.666138,161
2021-12-24 14:34:12.666148,161
2021-12-24 14:34:12.890563,158
2021-12-24 14:34:12.890583,153
2021-12-24 14:34:12.890591,142
2021-12-24 14:34:12.890598,116
2021-12-24 14:34:12.890604,89
2021-12-24 14:34:12.890611,63
2021-12-24 14:34:12.890617,33
2021-12-24 14:34:12.890623,9
2021-12-24 14:34:12.890630,0
2021-12-24 14:34:12.890637,-2
2021-12-24 14:34:12.890643,0
2021-12-24 14:34:12.890650,4
2021-12-24 14:34:12.890656,4
2021-12-24 14:34:12.890663,-2
2021-12-24 14:34:12.890669,-4
2021-12-24 14:34:12.890676,2
2021-12-24 14:34:12.890682,7
2021-12-24 14:34:12.890689,11
2021-12-24 14:34:12.890695,16
2021-12-24 14:34:12.890701,18
2021-12-24 14:34:12.890708,18
2021-12-24 14:34:12.890714,16
2021-12-24 14:34:12.890720,18
2021-12-24 14:34:12.890726,26
2021-12-24 14:34:12.890733,28
2021-12-24 14:34:12.890739,26
2021-12-24 14:34:12.890745,26
2021-12-24 14:34:12.890752,28
2021-12-24 14:34:12.890758,30
2021-12-24 14:34:12.890764,28
2021-12-24 14:34:13.161301,23
2021-12-24 14:34:13.161338,26
2021-12-24 14:34:13.161350,26
2021-12-24 14:34:13.161360,21
2021-12-24 14:34:13.161370,23
2021-12-24 14:34:13.161380,23
2021-12-24 14:34:13.161390,16
2021-12-24 14:34:13.161399,9
2021-12-24 14:34:13.161409,11
2021-12-24 14:34:13.161419,28
2021-12-24 14:34:13.161428,54
2021-12-24 14:34:13.161438,66
2021-12-24 14:34:13.161448,56
2021-12-24 14:34:13.161457,47
2021-12-24 14:34:13.161467,28
2021-12-24 14:34:13.161477,7
2021-12-24 14:34:13.161486,9
2021-12-24 14:34:13.161496,21
2021-12-24 14:34:13.161506,18
2021-12-24 14:34:13.161516,21
2021-12-24 14:34:13.161525,28
2021-12-24 14:34:13.161535,28
2021-12-24 14:34:13.161545,28
2021-12-24 14:34:13.161554,26
2021-12-24 14:34:13.161564,40
2021-12-24 14:34:13.161574,99
2021-12-24 14:34:13.161584,227
2021-12-24 14:34:13.161593,407
2021-12-24 14:34:13.161603,525
2021-12-24 14:34:13.161613,298
2021-12-24 14:34:13.385696,-421
2021-12-24 14:34:13.385716,-862
2021-12-24 14:34:13.385724,-378
2021-12-24 14:34:13.385730,111
2021-12-24 14:34:13.385737,23
2021-12-24 14:34:13.385744,-14
2021-12-24 14:34:13.385770,108
2021-12-24 14:34:13.385780,89
2021-12-24 14:34:13.385790,47
2021-12-24 14:34:13.385799,80
2021-12-24 14:34:13.385809,82
2021-12-24 14:34:13.385819,71
2021-12-24 14:34:13.385829,87
2021-12-24 14:34:13.385839,89
2021-12-24 14:34:13.385849,75
2021-12-24 14:34:13.385859,78
2021-12-24 14:34:13.385868,85
2021-12-24 14:34:13.385878,85
2021-12-24 14:34:13.385888,94
2021-12-24 14:34:13.385898,104
2021-12-24 14:34:13.385908,104
2021-12-24 14:34:13.385918,111
2021-12-24 14:34:13.385927,127
2021-12-24 14:34:13.385937,144
2021-12-24 14:34:13.385947,149
2021-12-24 14:34:13.385957,161
2021-12-24 14:34:13.385967,177
2021-12-24 14:34:13.385977,179
2021-12-24 14:34:13.385987,177
2021-12-24 14:34:13.385997,184
2021-12-24 14:34:13.565604,175
2021-12-24 14:34:13.565623,158
2021-12-24 14:34:13.565630,149
2021-12-24 14:34:13.565637,130
2021-12-24 14:34:13.565643,99
2021-12-24 14:34:13.565650,71
2021-12-24 14:34:13.565656,49
2021-12-24 14:34:13.565663,28
2021-12-24 14:34:13.565669,16
2021-12-24 14:34:13.565681,11
2021-12-24 14:34:13.565688,9
2021-12-24 14:34:13.565697,11
2021-12-24 14:34:13.565704,9
2021-12-24 14:34:13.565710,4
2021-12-24 14:34:13.565717,9
2021-12-24 14:34:13.565727,11
2021-12-24 14:34:13.565738,9
2021-12-24 14:34:13.565749,9
2021-12-24 14:34:13.565760,9
2021-12-24 14:34:13.565771,9
2021-12-24 14:34:13.565781,16
2021-12-24 14:34:13.565787,18
2021-12-24 14:34:13.565794,23
2021-12-24 14:34:13.565800,30
2021-12-24 14:34:13.565807,35
2021-12-24 14:34:13.565813,33
2021-12-24 14:34:13.565819,30
2021-12-24 14:34:13.565826,28
2021-12-24 14:34:13.565832,28
2021-12-24 14:34:13.565838,28
2021-12-24 14:34:13.924474,30
2021-12-24 14:34:13.924505,35
2021-12-24 14:34:13.924517,35
2021-12-24 14:34:13.924527,23
2021-12-24 14:34:13.924537,21
2021-12-24 14:34:13.924547,28
2021-12-24 14:34:13.924557,16
2021-12-24 14:34:13.924566,4
2021-12-24 14:34:13.924576,4
2021-12-24 14:34:13.924586,9
2021-12-24 14:34:13.924595,23
2021-12-24 14:34:13.924605,56
2021-12-24 14:34:13.924615,63
2021-12-24 14:34:13.924625,47
2021-12-24 14:34:13.924635,44
2021-12-24 14:34:13.924644,42
2021-12-24 14:34:13.924654,26
2021-12-24 14:34:13.924664,23
2021-12-24 14:34:13.924674,30
2021-12-24 14:34:13.924683,23
2021-12-24 14:34:13.924693,18
2021-12-24 14:34:13.924703,33
2021-12-24 14:34:13.924713,37
2021-12-24 14:34:13.924722,30
2021-12-24 14:34:13.924732,37
2021-12-24 14:34:13.924742,59
2021-12-24 14:34:13.924751,106
2021-12-24 14:34:13.924761,229
2021-12-24 14:34:13.924771,423
2021-12-24 14:34:13.924781,547
2021-12-24 14:34:14.060754,319
2021-12-24 14:34:14.060774,-393
2021-12-24 14:34:14.060782,-843
2021-12-24 14:34:14.060788,-378
2021-12-24 14:34:14.060795,120
2021-12-24 14:34:14.060806,42
2021-12-24 14:34:14.060813,-4
2021-12-24 14:34:14.060820,116
2021-12-24 14:34:14.060826,101
2021-12-24 14:34:14.060833,63
2021-12-24 14:34:14.060839,104
2021-12-24 14:34:14.060845,106
2021-12-24 14:34:14.060852,75
2021-12-24 14:34:14.060858,82
2021-12-24 14:34:14.060865,94
2021-12-24 14:34:14.060871,94
2021-12-24 14:34:14.060878,99
2021-12-24 14:34:14.060884,99
2021-12-24 14:34:14.060890,97
2021-12-24 14:34:14.060897,106
2021-12-24 14:34:14.060903,116
2021-12-24 14:34:14.060910,125
2021-12-24 14:34:14.060916,137
2021-12-24 14:34:14.060923,134
2021-12-24 14:34:14.060929,132
2021-12-24 14:34:14.060935,153
2021-12-24 14:34:14.060942,165
2021-12-24 14:34:14.060948,161
2021-12-24 14:34:14.060954,175
2021-12-24 14:34:14.060961,184
2021-12-24 14:34:14.241383,172
2021-12-24 14:34:14.241413,158
2021-12-24 14:34:14.241424,151
2021-12-24 14:34:14.241434,137
2021-12-24 14:34:14.241444,118
2021-12-24 14:34:14.241454,89
2021-12-24 14:34:14.241464,56
2021-12-24 14:34:14.241473,30
2021-12-24 14:34:14.241483,11
2021-12-24 14:34:14.241493,0
2021-12-24 14:34:14.241503,-11
2021-12-24 14:34:14.241513,-21
2021-12-24 14:34:14.241523,-18
2021-12-24 14:34:14.241533,-7
2021-12-24 14:34:14.241542,-7
2021-12-24 14:34:14.241552,-9
2021-12-24 14:34:14.241562,-9
2021-12-24 14:34:14.241572,-4
2021-12-24 14:34:14.241581,2
2021-12-24 14:34:14.241591,11
2021-12-24 14:34:14.241601,14
2021-12-24 14:34:14.241610,21
2021-12-24 14:34:14.241620,28
2021-12-24 14:34:14.241630,30
2021-12-24 14:34:14.241639,28
2021-12-24 14:34:14.241649,28
2021-12-24 14:34:14.241659,28
2021-12-24 14:34:14.241668,33
2021-12-24 14:34:14.241687,37
2021-12-24 14:34:14.241697,35
2021-12-24 14:34:14.645880,33
2021-12-24 14:34:14.645909,40
2021-12-24 14:34:14.645921,44
2021-12-24 14:34:14.645931,37
2021-12-24 14:34:14.645941,28
2021-12-24 14:34:14.645951,28
2021-12-24 14:34:14.645961,33
2021-12-24 14:34:14.645971,35
2021-12-24 14:34:14.645980,30
2021-12-24 14:34:14.645990,18
2021-12-24 14:34:14.646000,14
2021-12-24 14:34:14.646009,16
2021-12-24 14:34:14.646019,33
2021-12-24 14:34:14.646029,59
2021-12-24 14:34:14.646039,80
2021-12-24 14:34:14.646048,78
2021-12-24 14:34:14.646058,71
2021-12-24 14:34:14.646068,56
2021-12-24 14:34:14.646078,33
2021-12-24 14:34:14.646087,28
2021-12-24 14:34:14.646097,40
2021-12-24 14:34:14.646107,37
2021-12-24 14:34:14.646117,33
2021-12-24 14:34:14.646126,44
2021-12-24 14:34:14.646136,49
2021-12-24 14:34:14.646146,52
2021-12-24 14:34:14.646155,54
2021-12-24 14:34:14.646165,54
2021-12-24 14:34:14.646175,89
2021-12-24 14:34:14.646185,201
2021-12-24 14:34:14.735861,371
2021-12-24 14:34:14.735891,518
2021-12-24 14:34:14.735903,412
2021-12-24 14:34:14.735913,-191
2021-12-24 14:34:14.735923,-795
2021-12-24 14:34:14.735933,-535
2021-12-24 14:34:14.735943,63
2021-12-24 14:34:14.735953,108
2021-12-24 14:34:14.735963,-2
2021-12-24 14:34:14.735973,99
2021-12-24 14:34:14.735982,130
2021-12-24 14:34:14.735992,82
2021-12-24 14:34:14.736002,104
2021-12-24 14:34:14.736012,113
2021-12-24 14:34:14.736022,87
2021-12-24 14:34:14.736031,85
2021-12-24 14:34:14.736041,101
2021-12-24 14:34:14.736051,101
2021-12-24 14:34:14.736061,92
2021-12-24 14:34:14.736071,97
2021-12-24 14:34:14.736080,104
2021-12-24 14:34:14.736090,94
2021-12-24 14:34:14.736100,99
2021-12-24 14:34:14.736110,108
2021-12-24 14:34:14.736120,116
2021-12-24 14:34:14.736130,123
2021-12-24 14:34:14.736140,132
2021-12-24 14:34:14.736149,134
2021-12-24 14:34:14.736159,139
2021-12-24 14:34:14.736169,144
2021-12-24 14:34:14.961439,146
2021-12-24 14:34:14.961462,153
2021-12-24 14:34:14.961502,149
2021-12-24 14:34:14.961509,130
2021-12-24 14:34:14.961515,118
2021-12-24 14:34:14.961521,116
2021-12-24 14:34:14.961528,104
2021-12-24 14:34:14.961534,78
2021-12-24 14:34:14.961540,47
2021-12-24 14:34:14.961546,18
2021-12-24 14:34:14.961553,4
2021-12-24 14:34:14.961559,0
2021-12-24 14:34:14.961566,0
2021-12-24 14:34:14.961572,-4
2021-12-24 14:34:14.961579,-9
2021-12-24 14:34:14.961585,-4
2021-12-24 14:34:14.961591,2
2021-12-24 14:34:14.961598,9
2021-12-24 14:34:14.961604,14
2021-12-24 14:34:14.961610,14
2021-12-24 14:34:14.961617,18
2021-12-24 14:34:14.961623,23
2021-12-24 14:34:14.961629,23
2021-12-24 14:34:14.961636,28
2021-12-24 14:34:14.961642,37
2021-12-24 14:34:14.961648,37
2021-12-24 14:34:14.961655,37
2021-12-24 14:34:14.961661,42
2021-12-24 14:34:14.961667,40
2021-12-24 14:34:14.961673,33
2021-12-24 14:34:15.186259,40
2021-12-24 14:34:15.186288,44
2021-12-24 14:34:15.186299,42
2021-12-24 14:34:15.186310,37
2021-12-24 14:34:15.186319,35
2021-12-24 14:34:15.186329,37
2021-12-24 14:34:15.186339,44
2021-12-24 14:34:15.186349,42
2021-12-24 14:34:15.186359,35
2021-12-24 14:34:15.186368,28
2021-12-24 14:34:15.186378,23
2021-12-24 14:34:15.186388,21
2021-12-24 14:34:15.186398,26
2021-12-24 14:34:15.186408,37
2021-12-24 14:34:15.186418,52
2021-12-24 14:34:15.186428,68
2021-12-24 14:34:15.186438,75
2021-12-24 14:34:15.186447,68
2021-12-24 14:34:15.186457,49
2021-12-24 14:34:15.186467,28
2021-12-24 14:34:15.186477,18
2021-12-24 14:34:15.186487,21
2021-12-24 14:34:15.186496,26
2021-12-24 14:34:15.186506,26
2021-12-24 14:34:15.186516,33
2021-12-24 14:34:15.186526,35
2021-12-24 14:34:15.186535,40
2021-12-24 14:34:15.186545,44
2021-12-24 14:34:15.186555,54
2021-12-24 14:34:15.186565,101
2021-12-24 14:34:15.633965,227
2021-12-24 14:34:15.633985,414
2021-12-24 14:34:15.633993,539
2021-12-24 14:34:15.634000,319
2021-12-24 14:34:15.634006,-388
2021-12-24 14:34:15.634013,-864
2021-12-24 14:34:15.634019,-440
2021-12-24 14:34:15.634026,92
2021-12-24 14:34:15.634032,68
2021-12-24 14:34:15.634039,11
2021-12-24 14:34:15.634045,113
2021-12-24 14:34:15.634051,101
2021-12-24 14:34:15.634058,54
2021-12-24 14:34:15.634064,85
2021-12-24 14:34:15.634071,99
2021-12-24 14:34:15.634077,82
2021-12-24 14:34:15.634084,85
2021-12-24 14:34:15.634090,82
2021-12-24 14:34:15.634096,80
2021-12-24 14:34:15.634103,89
2021-12-24 14:34:15.634109,89
2021-12-24 14:34:15.634116,85
2021-12-24 14:34:15.634122,92
2021-12-24 14:34:15.634128,99
2021-12-24 14:34:15.634135,97
2021-12-24 14:34:15.634141,99
2021-12-24 14:34:15.634148,108
2021-12-24 14:34:15.634154,123
2021-12-24 14:34:15.634161,132
2021-12-24 14:34:15.634167,130
2021-12-24 14:34:15.725667,132
2021-12-24 14:34:15.725688,146
2021-12-24 14:34:15.725696,142
2021-12-24 14:34:15.725702,130
2021-12-24 14:34:15.725709,132
2021-12-24 14:34:15.725715,130
2021-12-24 14:34:15.725722,106
2021-12-24 14:34:15.725728,89
2021-12-24 14:34:15.725734,78
2021-12-24 14:34:15.725741,49
2021-12-24 14:34:15.725747,23
2021-12-24 14:34:15.725753,16
2021-12-24 14:34:15.725759,16
2021-12-24 14:34:15.725766,4
2021-12-24 14:34:15.725772,-2
2021-12-24 14:34:15.725778,4
2021-12-24 14:34:15.725785,14
2021-12-24 14:34:15.725791,18
2021-12-24 14:34:15.725797,23
2021-12-24 14:34:15.725803,28
2021-12-24 14:34:15.725810,33
2021-12-24 14:34:15.725816,40
2021-12-24 14:34:15.725822,42
2021-12-24 14:34:15.725828,40
2021-12-24 14:34:15.725835,42
2021-12-24 14:34:15.725841,42
2021-12-24 14:34:15.725847,37
2021-12-24 14:34:15.725853,40
2021-12-24 14:34:15.725860,44
2021-12-24 14:34:15.725866,40
2021-12-24 14:34:15.994445,33
2021-12-24 14:34:15.994475,42
2021-12-24 14:34:15.994487,47
2021-12-24 14:34:15.994497,37
2021-12-24 14:34:15.994507,37
2021-12-24 14:34:15.994517,42
2021-12-24 14:34:15.994526,37
2021-12-24 14:34:15.994536,33
2021-12-24 14:34:15.994546,40
2021-12-24 14:34:15.994556,35
2021-12-24 14:34:15.994565,21
2021-12-24 14:34:15.994575,23
2021-12-24 14:34:15.994585,37
2021-12-24 14:34:15.994594,59
2021-12-24 14:34:15.994604,78
2021-12-24 14:34:15.994614,78
2021-12-24 14:34:15.994624,61
2021-12-24 14:34:15.994633,47
2021-12-24 14:34:15.994643,35
2021-12-24 14:34:15.994653,21
2021-12-24 14:34:15.994662,21
2021-12-24 14:34:15.994672,33
2021-12-24 14:34:15.994682,33
2021-12-24 14:34:15.994692,26
2021-12-24 14:34:15.994702,30
2021-12-24 14:34:15.994712,37
2021-12-24 14:34:15.994721,35
2021-12-24 14:34:15.994731,47
2021-12-24 14:34:15.994741,92
2021-12-24 14:34:15.994750,196
2021-12-24 14:34:16.220648,381
2021-12-24 14:34:16.220670,549
2021-12-24 14:34:16.220677,407
2021-12-24 14:34:16.220684,-265
2021-12-24 14:34:16.220690,-866
2021-12-24 14:34:16.220716,-580
2021-12-24 14:34:16.220726,16
2021-12-24 14:34:16.220736,82
2021-12-24 14:34:16.220745,4
2021-12-24 14:34:16.220755,99
2021-12-24 14:34:16.220765,116
2021-12-24 14:34:16.220774,66
2021-12-24 14:34:16.220784,85
2021-12-24 14:34:16.220793,108
2021-12-24 14:34:16.220803,94
2021-12-24 14:34:16.220813,97
2021-12-24 14:34:16.220822,104
2021-12-24 14:34:16.220832,94
2021-12-24 14:34:16.220841,85
2021-12-24 14:34:16.220851,97
2021-12-24 14:34:16.220861,108
2021-12-24 14:34:16.220870,104
2021-12-24 14:34:16.220880,101
2021-12-24 14:34:16.220902,111
2021-12-24 14:34:16.220912,118
2021-12-24 14:34:16.220922,123
2021-12-24 14:34:16.220931,125
2021-12-24 14:34:16.220941,127
2021-12-24 14:34:16.220951,130
2021-12-24 14:34:16.220960,142
2021-12-24 14:34:16.446328,142
2021-12-24 14:34:16.446358,130
2021-12-24 14:34:16.446369,125
2021-12-24 14:34:16.446379,118
2021-12-24 14:34:16.446389,99
2021-12-24 14:34:16.446399,89
2021-12-24 14:34:16.446408,85
2021-12-24 14:34:16.446418,66
2021-12-24 14:34:16.446428,47
2021-12-24 14:34:16.446437,26
2021-12-24 14:34:16.446447,-2
2021-12-24 14:34:16.446457,-7
2021-12-24 14:34:16.446467,-2
2021-12-24 14:34:16.446477,-7
2021-12-24 14:34:16.446487,-2
2021-12-24 14:34:16.446497,11
2021-12-24 14:34:16.446506,9
2021-12-24 14:34:16.446516,11
2021-12-24 14:34:16.446526,23
2021-12-24 14:34:16.446535,26
2021-12-24 14:34:16.446545,18
2021-12-24 14:34:16.446555,21
2021-12-24 14:34:16.446565,23
2021-12-24 14:34:16.446574,26
2021-12-24 14:34:16.446584,30
2021-12-24 14:34:16.446594,33
2021-12-24 14:34:16.446603,33
2021-12-24 14:34:16.446613,30
2021-12-24 14:34:16.446623,33
2021-12-24 14:34:16.446632,40
2021-12-24 14:34:16.670169,37
2021-12-24 14:34:16.670190,30
2021-12-24 14:34:16.670198,35
2021-12-24 14:34:16.670204,37
2021-12-24 14:34:16.670211,33
2021-12-24 14:34:16.670217,28
2021-12-24 14:34:16.670224,28
2021-12-24 14:34:16.670230,42
2021-12-24 14:34:16.670236,71
2021-12-24 14:34:16.670243,80
2021-12-24 14:34:16.670249,71
2021-12-24 14:34:16.670255,68
2021-12-24 14:34:16.670262,54
2021-12-24 14:34:16.670268,33
2021-12-24 14:34:16.670274,28
2021-12-24 14:34:16.670281,30
2021-12-24 14:34:16.670287,28
2021-12-24 14:34:16.670293,33
2021-12-24 14:34:16.670300,42
2021-12-24 14:34:16.670306,44
2021-12-24 14:34:16.670312,42
2021-12-24 14:34:16.670319,40
2021-12-24 14:34:16.670325,47
2021-12-24 14:34:16.670331,111
2021-12-24 14:34:16.670338,262
2021-12-24 14:34:16.670344,464
2021-12-24 14:34:16.670350,570
2021-12-24 14:34:16.670356,255
2021-12-24 14:34:16.670363,-516
2021-12-24 14:34:16.670369,-869
2021-12-24 14:34:16.806119,-352
2021-12-24 14:34:16.806142,92
2021-12-24 14:34:16.806150,33
2021-12-24 14:34:16.806156,16
2021-12-24 14:34:16.806163,106
2021-12-24 14:34:16.806169,82
2021-12-24 14:34:16.806175,54
2021-12-24 14:34:16.806182,78
2021-12-24 14:34:16.806188,73
2021-12-24 14:34:16.806194,52
2021-12-24 14:34:16.806200,56
2021-12-24 14:34:16.806207,63
2021-12-24 14:34:16.806213,63
2021-12-24 14:34:16.806221,61
2021-12-24 14:34:16.806231,59
2021-12-24 14:34:16.806278,59
2021-12-24 14:34:16.806308,73
2021-12-24 14:34:16.806321,85
2021-12-24 14:34:16.806329,94
2021-12-24 14:34:16.806336,94
2021-12-24 14:34:16.806342,89
2021-12-24 14:34:16.806349,89
2021-12-24 14:34:16.806355,104
2021-12-24 14:34:16.806361,111
2021-12-24 14:34:16.806372,116
2021-12-24 14:34:16.806404,116
2021-12-24 14:34:16.806413,111
2021-12-24 14:34:16.806419,97
2021-12-24 14:34:16.806426,87
2021-12-24 14:34:16.806432,80
2021-12-24 14:34:17.076298,75
2021-12-24 14:34:17.076328,61
2021-12-24 14:34:17.076340,33
2021-12-24 14:34:17.076351,9
2021-12-24 14:34:17.076361,0
2021-12-24 14:34:17.076371,-21
2021-12-24 14:34:17.076380,-37
2021-12-24 14:34:17.076390,-37
2021-12-24 14:34:17.076400,-35
2021-12-24 14:34:17.076410,-30
2021-12-24 14:34:17.076420,-26
2021-12-24 14:34:17.076430,-18
2021-12-24 14:34:17.076439,-14
2021-12-24 14:34:17.076449,-14
2021-12-24 14:34:17.076459,-4
2021-12-24 14:34:17.076469,-2
2021-12-24 14:34:17.076479,-2
2021-12-24 14:34:17.076488,-2
2021-12-24 14:34:17.076498,2
2021-12-24 14:34:17.076508,9
2021-12-24 14:34:17.076518,9
2021-12-24 14:34:17.076528,11
2021-12-24 14:34:17.076538,14
2021-12-24 14:34:17.076547,11
2021-12-24 14:34:17.076557,4
2021-12-24 14:34:17.076567,2
2021-12-24 14:34:17.076577,4
2021-12-24 14:34:17.076587,23
2021-12-24 14:34:17.076597,47
2021-12-24 14:34:17.076607,44
2021-12-24 14:34:17.300940,33
2021-12-24 14:34:17.300961,21
2021-12-24 14:34:17.300969,2
2021-12-24 14:34:17.300976,-9
2021-12-24 14:34:17.300982,-7
2021-12-24 14:34:17.300989,-4
2021-12-24 14:34:17.300995,2
2021-12-24 14:34:17.301001,4
2021-12-24 14:34:17.301008,-2
2021-12-24 14:34:17.301014,2
2021-12-24 14:34:17.301020,11
2021-12-24 14:34:17.301027,16
2021-12-24 14:34:17.301033,52
2021-12-24 14:34:17.301039,163
2021-12-24 14:34:17.301046,359
2021-12-24 14:34:17.301052,509
2021-12-24 14:34:17.301059,293
2021-12-24 14:34:17.301065,-423
2021-12-24 14:34:17.301072,-933
2021-12-24 14:34:17.301078,-575
2021-12-24 14:34:17.301084,-37
2021-12-24 14:34:17.301091,44
2021-12-24 14:34:17.301097,18
2021-12-24 14:34:17.301104,85
2021-12-24 14:34:17.301110,87
2021-12-24 14:34:17.301116,61
2021-12-24 14:34:17.301123,82
2021-12-24 14:34:17.301129,85
2021-12-24 14:34:17.301136,71
2021-12-24 14:34:17.301142,80
2021-12-24 14:34:17.525844,85
2021-12-24 14:34:17.525874,78
2021-12-24 14:34:17.525886,85
2021-12-24 14:34:17.525896,89
2021-12-24 14:34:17.525906,94
2021-12-24 14:34:17.525916,104
2021-12-24 14:34:17.525926,101
2021-12-24 14:34:17.525937,104
2021-12-24 14:34:17.525946,116
2021-12-24 14:34:17.525956,120
2021-12-24 14:34:17.525966,134
2021-12-24 14:34:17.525976,153
2021-12-24 14:34:17.525986,151
2021-12-24 14:34:17.525996,156
2021-12-24 14:34:17.526007,168
2021-12-24 14:34:17.526017,170
2021-12-24 14:34:17.526027,163
2021-12-24 14:34:17.526037,151
2021-12-24 14:34:17.526047,132
2021-12-24 14:34:17.526057,116
2021-12-24 14:34:17.526067,101
2021-12-24 14:34:17.526076,78
2021-12-24 14:34:17.526086,40
2021-12-24 14:34:17.526096,2
2021-12-24 14:34:17.526106,-21
2021-12-24 14:34:17.526117,-30
2021-12-24 14:34:17.526127,-40
2021-12-24 14:34:17.526137,-44
2021-12-24 14:34:17.526147,-35
2021-12-24 14:34:17.526157,-28
2021-12-24 14:34:17.751289,-30
2021-12-24 14:34:17.751319,-28
2021-12-24 14:34:17.751331,-18
2021-12-24 14:34:17.751342,-11
2021-12-24 14:34:17.751352,-7
2021-12-24 14:34:17.751362,-2
2021-12-24 14:34:17.751372,2
2021-12-24 14:34:17.751382,9
2021-12-24 14:34:17.751391,11
2021-12-24 14:34:17.751401,11
2021-12-24 14:34:17.751411,14
2021-12-24 14:34:17.751421,9
2021-12-24 14:34:17.751431,11
2021-12-24 14:34:17.751440,33
2021-12-24 14:34:17.751450,52
2021-12-24 14:34:17.751460,52
2021-12-24 14:34:17.751470,44
2021-12-24 14:34:17.751480,26
2021-12-24 14:34:17.751490,-2
2021-12-24 14:34:17.751499,-16
2021-12-24 14:34:17.751509,-16
2021-12-24 14:34:17.751519,-14
2021-12-24 14:34:17.751529,-11
2021-12-24 14:34:17.751538,-4
2021-12-24 14:34:17.751548,-2
2021-12-24 14:34:17.751558,-2
2021-12-24 14:34:17.751568,2
2021-12-24 14:34:17.751578,2
2021-12-24 14:34:17.751587,16
2021-12-24 14:34:17.751597,101
2021-12-24 14:34:17.975971,262
2021-12-24 14:34:17.975992,386
2021-12-24 14:34:17.976000,234
2021-12-24 14:34:17.976007,-352
2021-12-24 14:34:17.976014,-845
2021-12-24 14:34:17.976020,-509
2021-12-24 14:34:17.976026,59
2021-12-24 14:34:17.976033,87
2021-12-24 14:34:17.976039,-2
2021-12-24 14:34:17.976045,85
2021-12-24 14:34:17.976052,99
2021-12-24 14:34:17.976058,56
2021-12-24 14:34:17.976064,80
2021-12-24 14:34:17.976070,97
2021-12-24 14:34:17.976077,75
2021-12-24 14:34:17.976083,73
2021-12-24 14:34:17.976089,85
2021-12-24 14:34:17.976095,80
2021-12-24 14:34:17.976102,80
2021-12-24 14:34:17.976108,85
2021-12-24 14:34:17.976114,87
2021-12-24 14:34:17.976121,94
2021-12-24 14:34:17.976127,101
2021-12-24 14:34:17.976133,104
2021-12-24 14:34:17.976139,116
2021-12-24 14:34:17.976146,127
2021-12-24 14:34:17.976152,130
2021-12-24 14:34:17.976158,137
2021-12-24 14:34:17.976165,149
2021-12-24 14:34:17.976171,151
2021-12-24 14:34:18.200663,153
2021-12-24 14:34:18.200685,151
2021-12-24 14:34:18.200692,142
2021-12-24 14:34:18.200699,127
2021-12-24 14:34:18.200705,111
2021-12-24 14:34:18.200728,97
2021-12-24 14:34:18.200738,85
2021-12-24 14:34:18.200748,68
2021-12-24 14:34:18.200758,42
2021-12-24 14:34:18.200767,18
2021-12-24 14:34:18.200777,9
2021-12-24 14:34:18.200787,7
2021-12-24 14:34:18.200796,2
2021-12-24 14:34:18.200806,9
2021-12-24 14:34:18.200816,18
2021-12-24 14:34:18.200825,9
2021-12-24 14:34:18.200835,7
2021-12-24 14:34:18.200860,26
2021-12-24 14:34:18.200870,35
2021-12-24 14:34:18.200879,35
2021-12-24 14:34:18.200889,37
2021-12-24 14:34:18.200899,37
2021-12-24 14:34:18.200908,35
2021-12-24 14:34:18.200918,35
2021-12-24 14:34:18.200928,30
2021-12-24 14:34:18.200937,18
2021-12-24 14:34:18.200947,16
2021-12-24 14:34:18.200957,33
2021-12-24 14:34:18.200966,49
2021-12-24 14:34:18.200976,49
2021-12-24 14:34:18.470336,49
2021-12-24 14:34:18.470367,42
2021-12-24 14:34:18.470379,16
2021-12-24 14:34:18.470390,0
2021-12-24 14:34:18.470400,-2
2021-12-24 14:34:18.470410,-4
2021-12-24 14:34:18.470420,-7
2021-12-24 14:34:18.470429,0
2021-12-24 14:34:18.470439,2
2021-12-24 14:34:18.470449,-9
2021-12-24 14:34:18.470459,-9
2021-12-24 14:34:18.470469,0
2021-12-24 14:34:18.470479,4
2021-12-24 14:34:18.470489,63
2021-12-24 14:34:18.470499,210
2021-12-24 14:34:18.470509,343
2021-12-24 14:34:18.470519,267
2021-12-24 14:34:18.470528,-246
2021-12-24 14:34:18.470538,-809
2021-12-24 14:34:18.470548,-568
2021-12-24 14:34:18.470558,37
2021-12-24 14:34:18.470568,106
2021-12-24 14:34:18.470578,-9
2021-12-24 14:34:18.470588,87
2021-12-24 14:34:18.470598,120
2021-12-24 14:34:18.470608,66
2021-12-24 14:34:18.470618,80
2021-12-24 14:34:18.470628,97
2021-12-24 14:34:18.470638,82
2021-12-24 14:34:18.470647,85
2021-12-24 14:34:18.740119,94
2021-12-24 14:34:18.740138,89
2021-12-24 14:34:18.740145,89
2021-12-24 14:34:18.740152,94
2021-12-24 14:34:18.740159,99
2021-12-24 14:34:18.740165,101
2021-12-24 14:34:18.740171,101
2021-12-24 14:34:18.740178,106
2021-12-24 14:34:18.740184,111
2021-12-24 14:34:18.740190,111
2021-12-24 14:34:18.740197,118
2021-12-24 14:34:18.740204,125
2021-12-24 14:34:18.740210,132
2021-12-24 14:34:18.740217,139
2021-12-24 14:34:18.740223,134
2021-12-24 14:34:18.740230,132
2021-12-24 14:34:18.740236,132
2021-12-24 14:34:18.740243,120
2021-12-24 14:34:18.740249,106
2021-12-24 14:34:18.740256,99
2021-12-24 14:34:18.740262,85
2021-12-24 14:34:18.740268,63
2021-12-24 14:34:18.740275,47
2021-12-24 14:34:18.740281,35
2021-12-24 14:34:18.740288,26
2021-12-24 14:34:18.740294,21
2021-12-24 14:34:18.740301,18
2021-12-24 14:34:18.740307,18
2021-12-24 14:34:18.740313,21
2021-12-24 14:34:18.740320,28
2021-12-24 14:34:18.921309,30
2021-12-24 14:34:18.921340,30
2021-12-24 14:34:18.921352,35
2021-12-24 14:34:18.921362,42
2021-12-24 14:34:18.921372,42
2021-12-24 14:34:18.921382,42
2021-12-24 14:34:18.921392,42
2021-12-24 14:34:18.921402,37
2021-12-24 14:34:18.921412,33
2021-12-24 14:34:18.921421,33
2021-12-24 14:34:18.921431,40
2021-12-24 14:34:18.921441,56
2021-12-24 14:34:18.921451,73
2021-12-24 14:34:18.921461,78
2021-12-24 14:34:18.921471,73
2021-12-24 14:34:18.921480,59
2021-12-24 14:34:18.921491,33
2021-12-24 14:34:18.921501,23
2021-12-24 14:34:18.921511,33
2021-12-24 14:34:18.921521,30
2021-12-24 14:34:18.921531,21
2021-12-24 14:34:18.921540,21
2021-12-24 14:34:18.921550,26
2021-12-24 14:34:18.921560,33
2021-12-24 14:34:18.921570,30
2021-12-24 14:34:18.921580,21
2021-12-24 14:34:18.921589,33
2021-12-24 14:34:18.921599,120
2021-12-24 14:34:18.921609,284
2021-12-24 14:34:18.921619,378
2021-12-24 14:34:19.190778,104
2021-12-24 14:34:19.190799,-573
2021-12-24 14:34:19.190806,-838
2021-12-24 14:34:19.190813,-281
2021-12-24 14:34:19.190837,146
2021-12-24 14:34:19.190847,47
2021-12-24 14:34:19.190857,18
2021-12-24 14:34:19.190866,113
2021-12-24 14:34:19.190876,87
2021-12-24 14:34:19.190886,56
2021-12-24 14:34:19.190896,85
2021-12-24 14:34:19.190905,87
2021-12-24 14:34:19.190915,71
2021-12-24 14:34:19.190925,78
2021-12-24 14:34:19.190934,87
2021-12-24 14:34:19.190944,82
2021-12-24 14:34:19.190954,80
2021-12-24 14:34:19.190964,85
2021-12-24 14:34:19.190974,85
2021-12-24 14:34:19.190983,82
2021-12-24 14:34:19.190993,87
2021-12-24 14:34:19.191003,97
2021-12-24 14:34:19.191012,106
2021-12-24 14:34:19.191022,116
2021-12-24 14:34:19.191032,120
2021-12-24 14:34:19.191042,125
2021-12-24 14:34:19.191052,130
2021-12-24 14:34:19.191061,130
2021-12-24 14:34:19.191071,127
2021-12-24 14:34:19.191081,125
2021-12-24 14:34:19.325781,116
2021-12-24 14:34:19.325802,106
2021-12-24 14:34:19.325810,99
2021-12-24 14:34:19.325817,92
2021-12-24 14:34:19.325823,78
2021-12-24 14:34:19.325829,56
2021-12-24 14:34:19.325836,33
2021-12-24 14:34:19.325842,23
2021-12-24 14:34:19.325848,21
2021-12-24 14:34:19.325855,14
2021-12-24 14:34:19.325861,9
2021-12-24 14:34:19.325867,16
2021-12-24 14:34:19.325874,23
2021-12-24 14:34:19.325880,26
2021-12-24 14:34:19.325886,23
2021-12-24 14:34:19.325892,23
2021-12-24 14:34:19.325899,30
2021-12-24 14:34:19.325905,35
2021-12-24 14:34:19.325911,35
2021-12-24 14:34:19.325918,40
2021-12-24 14:34:19.325924,42
2021-12-24 14:34:19.325930,33
2021-12-24 14:34:19.325937,26
2021-12-24 14:34:19.325943,21
2021-12-24 14:34:19.325949,21
2021-12-24 14:34:19.325956,40
2021-12-24 14:34:19.325962,63
2021-12-24 14:34:19.325969,56
2021-12-24 14:34:19.325975,44
2021-12-24 14:34:19.325981,30
2021-12-24 14:34:19.551308,-4
2021-12-24 14:34:19.551331,-11
2021-12-24 14:34:19.551339,21
2021-12-24 14:34:19.551345,28
2021-12-24 14:34:19.551352,23
2021-12-24 14:34:19.551358,28
2021-12-24 14:34:19.551364,23
2021-12-24 14:34:19.551371,18
2021-12-24 14:34:19.551377,18
2021-12-24 14:34:19.551383,9
2021-12-24 14:34:19.551390,18
2021-12-24 14:34:19.551396,94
2021-12-24 14:34:19.551402,246
2021-12-24 14:34:19.551409,374
2021-12-24 14:34:19.551415,163
2021-12-24 14:34:19.551421,-520
2021-12-24 14:34:19.551428,-902
2021-12-24 14:34:19.551434,-381
2021-12-24 14:34:19.551440,127
2021-12-24 14:34:19.551447,54
2021-12-24 14:34:19.551453,9
2021-12-24 14:34:19.551460,113
2021-12-24 14:34:19.551466,94
2021-12-24 14:34:19.551472,59
2021-12-24 14:34:19.551479,94
2021-12-24 14:34:19.551485,94
2021-12-24 14:34:19.551491,80
2021-12-24 14:34:19.551498,92
2021-12-24 14:34:19.551504,99
2021-12-24 14:34:19.551510,82
2021-12-24 14:34:19.775551,82
2021-12-24 14:34:19.775574,101
2021-12-24 14:34:19.775581,113
2021-12-24 14:34:19.775588,120
2021-12-24 14:34:19.775594,120
2021-12-24 14:34:19.775601,116
2021-12-24 14:34:19.775607,120
2021-12-24 14:34:19.775614,134
2021-12-24 14:34:19.775620,144
2021-12-24 14:34:19.775627,146
2021-12-24 14:34:19.775633,146
2021-12-24 14:34:19.775639,146
2021-12-24 14:34:19.775646,142
2021-12-24 14:34:19.775652,134
2021-12-24 14:34:19.775659,123
2021-12-24 14:34:19.775665,116
2021-12-24 14:34:19.775671,111
2021-12-24 14:34:19.775678,106
2021-12-24 14:34:19.775684,87
2021-12-24 14:34:19.775690,68
2021-12-24 14:34:19.775697,56
2021-12-24 14:34:19.775703,54
2021-12-24 14:34:19.775709,47
2021-12-24 14:34:19.775716,35
2021-12-24 14:34:19.775722,42
2021-12-24 14:34:19.775729,54
2021-12-24 14:34:19.775735,52
2021-12-24 14:34:19.775741,49
2021-12-24 14:34:19.775748,63
2021-12-24 14:34:19.775754,71
2021-12-24 14:34:20.044883,68
2021-12-24 14:34:20.044913,75
2021-12-24 14:34:20.044925,82
2021-12-24 14:34:20.044935,75
2021-12-24 14:34:20.044945,68
2021-12-24 14:34:20.044954,71
2021-12-24 14:34:20.044964,68
2021-12-24 14:34:20.044974,66
2021-12-24 14:34:20.044983,71
2021-12-24 14:34:20.044993,78
2021-12-24 14:34:20.045003,85
2021-12-24 14:34:20.045013,94
2021-12-24 14:34:20.045022,104
2021-12-24 14:34:20.045032,101
2021-12-24 14:34:20.045041,80
2021-12-24 14:34:20.045051,52
2021-12-24 14:34:20.045061,40
2021-12-24 14:34:20.045070,49
2021-12-24 14:34:20.045080,54
2021-12-24 14:34:20.045090,52
2021-12-24 14:34:20.045099,52
2021-12-24 14:34:20.045109,54
2021-12-24 14:34:20.045119,54
2021-12-24 14:34:20.045128,54
2021-12-24 14:34:20.045138,52
2021-12-24 14:34:20.045147,75
2021-12-24 14:34:20.045157,187
2021-12-24 14:34:20.045167,378
2021-12-24 14:34:20.045176,452
2021-12-24 14:34:20.045186,47
2021-12-24 14:34:20.361338,-670
2021-12-24 14:34:20.361359,-753
2021-12-24 14:34:20.361366,-120
2021-12-24 14:34:20.361373,175
2021-12-24 14:34:20.361379,54
2021-12-24 14:34:20.361386,82
2021-12-24 14:34:20.361392,151
2021-12-24 14:34:20.361399,106
2021-12-24 14:34:20.361405,101
2021-12-24 14:34:20.361411,127
2021-12-24 14:34:20.361418,111
2021-12-24 14:34:20.361424,101
2021-12-24 14:34:20.361430,116
2021-12-24 14:34:20.361437,118
2021-12-24 14:34:20.361443,111
2021-12-24 14:34:20.361450,111
2021-12-24 14:34:20.361456,111
2021-12-24 14:34:20.361462,111
2021-12-24 14:34:20.361469,111
2021-12-24 14:34:20.361475,111
2021-12-24 14:34:20.361481,120
2021-12-24 14:34:20.361488,125
2021-12-24 14:34:20.361494,118
2021-12-24 14:34:20.361500,120
2021-12-24 14:34:20.361507,127
2021-12-24 14:34:20.361513,127
2021-12-24 14:34:20.361519,125
2021-12-24 14:34:20.361526,120
2021-12-24 14:34:20.361532,108
2021-12-24 14:34:20.361538,99
2021-12-24 14:34:20.540315,97
2021-12-24 14:34:20.540345,92
2021-12-24 14:34:20.540357,82
2021-12-24 14:34:20.540367,66
2021-12-24 14:34:20.540377,47
2021-12-24 14:34:20.540387,35
2021-12-24 14:34:20.540397,23
2021-12-24 14:34:20.540406,14
2021-12-24 14:34:20.540416,14
2021-12-24 14:34:20.540426,16
2021-12-24 14:34:20.540435,23
2021-12-24 14:34:20.540445,26
2021-12-24 14:34:20.540455,26
2021-12-24 14:34:20.540465,35
2021-12-24 14:34:20.540487,40
2021-12-24 14:34:20.540497,33
2021-12-24 14:34:20.540507,42
2021-12-24 14:34:20.540517,49
2021-12-24 14:34:20.540527,40
2021-12-24 14:34:20.540536,40
2021-12-24 14:34:20.540546,47
2021-12-24 14:34:20.540556,44
2021-12-24 14:34:20.540566,44
2021-12-24 14:34:20.540576,47
2021-12-24 14:34:20.540586,40
2021-12-24 14:34:20.540596,33
2021-12-24 14:34:20.540605,23
2021-12-24 14:34:20.540615,18
2021-12-24 14:34:20.540625,35
2021-12-24 14:34:20.540635,61
2021-12-24 14:34:20.899521,71
2021-12-24 14:34:20.899551,71
2021-12-24 14:34:20.899563,63
2021-12-24 14:34:20.899573,40
2021-12-24 14:34:20.899583,18
2021-12-24 14:34:20.899593,28
2021-12-24 14:34:20.899603,33
2021-12-24 14:34:20.899613,26
2021-12-24 14:34:20.899622,21
2021-12-24 14:34:20.899632,28
2021-12-24 14:34:20.899642,35
2021-12-24 14:34:20.899652,42
2021-12-24 14:34:20.899661,40
2021-12-24 14:34:20.899671,47
2021-12-24 14:34:20.899681,120
2021-12-24 14:34:20.899747,293
2021-12-24 14:34:20.899791,487
2021-12-24 14:34:20.899805,409
2021-12-24 14:34:20.899816,-220
2021-12-24 14:34:20.899826,-850
2021-12-24 14:34:20.899837,-594
2021-12-24 14:34:20.899847,26
2021-12-24 14:34:20.899857,116
2021-12-24 14:34:20.899867,16
2021-12-24 14:34:20.899877,92
2021-12-24 14:34:20.899888,116
2021-12-24 14:34:20.899898,66
2021-12-24 14:34:20.899908,80
2021-12-24 14:34:20.899917,106
2021-12-24 14:34:20.899927,99
2021-12-24 14:34:20.990625,97
2021-12-24 14:34:20.990646,101
2021-12-24 14:34:20.990654,106
2021-12-24 14:34:20.990660,106
2021-12-24 14:34:20.990667,101
2021-12-24 14:34:20.990673,104
2021-12-24 14:34:20.990679,118
2021-12-24 14:34:20.990706,123
2021-12-24 14:34:20.990716,116
2021-12-24 14:34:20.990725,116
2021-12-24 14:34:20.990735,123
2021-12-24 14:34:20.990745,127
2021-12-24 14:34:20.990755,127
2021-12-24 14:34:20.990765,123
2021-12-24 14:34:20.990774,125
2021-12-24 14:34:20.990784,120
2021-12-24 14:34:20.990794,111
2021-12-24 14:34:20.990804,108
2021-12-24 14:34:20.990813,104
2021-12-24 14:34:20.990823,92
2021-12-24 14:34:20.990832,82
2021-12-24 14:34:20.990842,78
2021-12-24 14:34:20.990852,66
2021-12-24 14:34:20.990862,47
2021-12-24 14:34:20.990871,33
2021-12-24 14:34:20.990881,18
2021-12-24 14:34:20.990891,9
2021-12-24 14:34:20.990900,2
2021-12-24 14:34:20.990910,-2
2021-12-24 14:34:20.990920,0
2021-12-24 14:34:21.170857,4
2021-12-24 14:34:21.170878,7
2021-12-24 14:34:21.170886,4
2021-12-24 14:34:21.170893,14
2021-12-24 14:34:21.170899,26
2021-12-24 14:34:21.170905,16
2021-12-24 14:34:21.170912,4
2021-12-24 14:34:21.170918,9
2021-12-24 14:34:21.170925,21
2021-12-24 14:34:21.170931,26
2021-12-24 14:34:21.170937,21
2021-12-24 14:34:21.170944,14
2021-12-24 14:34:21.170950,9
2021-12-24 14:34:21.170956,4
2021-12-24 14:34:21.170963,11
2021-12-24 14:34:21.170969,28
2021-12-24 14:34:21.170976,37
2021-12-24 14:34:21.170982,33
2021-12-24 14:34:21.170988,33
2021-12-24 14:34:21.170995,40
2021-12-24 14:34:21.171001,33
2021-12-24 14:34:21.171008,16
2021-12-24 14:34:21.171014,4
2021-12-24 14:34:21.171020,4
2021-12-24 14:34:21.171027,7
2021-12-24 14:34:21.171033,2
2021-12-24 14:34:21.171039,4
2021-12-24 14:34:21.171046,11
2021-12-24 14:34:21.171052,9
2021-12-24 14:34:21.171059,9
2021-12-24 14:34:21.440330,26
2021-12-24 14:34:21.440353,78
2021-12-24 14:34:21.440360,215
2021-12-24 14:34:21.440367,419
2021-12-24 14:34:21.440373,468
2021-12-24 14:34:21.440380,2
2021-12-24 14:34:21.440407,-757
2021-12-24 14:34:21.440416,-866
2021-12-24 14:34:21.440426,-279
2021-12-24 14:34:21.440436,59
2021-12-24 14:34:21.440446,28
2021-12-24 14:34:21.440455,49
2021-12-24 14:34:21.440465,87
2021-12-24 14:34:21.440475,54
2021-12-24 14:34:21.440484,63
2021-12-24 14:34:21.440494,89
2021-12-24 14:34:21.440504,75
2021-12-24 14:34:21.440513,68
2021-12-24 14:34:21.440523,85
2021-12-24 14:34:21.440533,85
2021-12-24 14:34:21.440542,85
2021-12-24 14:34:21.440552,97
2021-12-24 14:34:21.440562,97
2021-12-24 14:34:21.440571,92
2021-12-24 14:34:21.440581,99
2021-12-24 14:34:21.440590,104
2021-12-24 14:34:21.440600,113
2021-12-24 14:34:21.440610,125
2021-12-24 14:34:21.440619,134
2021-12-24 14:34:21.440629,127
2021-12-24 14:34:21.665173,125
2021-12-24 14:34:21.665191,146
2021-12-24 14:34:21.665197,156
2021-12-24 14:34:21.665202,146
2021-12-24 14:34:21.665207,142
2021-12-24 14:34:21.665213,134
2021-12-24 14:34:21.665218,116
2021-12-24 14:34:21.665223,108
2021-12-24 14:34:21.665228,106
2021-12-24 14:34:21.665233,80
2021-12-24 14:34:21.665238,37
2021-12-24 14:34:21.665245,18
2021-12-24 14:34:21.665254,-14
2021-12-24 14:34:21.665262,-66
2021-12-24 14:34:21.665269,-71
2021-12-24 14:34:21.665278,-47
2021-12-24 14:34:21.665288,-42
2021-12-24 14:34:21.665297,-40
2021-12-24 14:34:21.665307,-21
2021-12-24 14:34:21.665316,-11
2021-12-24 14:34:21.665325,-18
2021-12-24 14:34:21.665337,-26
2021-12-24 14:34:21.665347,-33
2021-12-24 14:34:21.665356,-26
2021-12-24 14:34:21.665365,14
2021-12-24 14:34:21.665375,47
2021-12-24 14:34:21.665384,40
2021-12-24 14:34:21.665394,35
2021-12-24 14:34:21.665404,47
2021-12-24 14:34:21.665414,37
2021-12-24 14:34:21.845240,11
2021-12-24 14:34:21.845260,7
2021-12-24 14:34:21.845268,14
2021-12-24 14:34:21.845274,14
2021-12-24 14:34:21.845280,0
2021-12-24 14:34:21.845287,-9
2021-12-24 14:34:21.845293,0
2021-12-24 14:34:21.845300,7
2021-12-24 14:34:21.845306,14
2021-12-24 14:34:21.845312,40
2021-12-24 14:34:21.845319,104
2021-12-24 14:34:21.845325,241
2021-12-24 14:34:21.845332,397
2021-12-24 14:34:21.845338,265
2021-12-24 14:34:21.845345,-386
2021-12-24 14:34:21.845351,-942
2021-12-24 14:34:21.845357,-648
2021-12-24 14:34:21.845364,-71
2021-12-24 14:34:21.845370,68
2021-12-24 14:34:21.845376,35
2021-12-24 14:34:21.845383,92
2021-12-24 14:34:21.845389,113
2021-12-24 14:34:21.845396,92
2021-12-24 14:34:21.845402,92
2021-12-24 14:34:21.845408,97
2021-12-24 14:34:21.845414,101
2021-12-24 14:34:21.845421,111
2021-12-24 14:34:21.845428,113
2021-12-24 14:34:21.845434,106
2021-12-24 14:34:21.845440,113
2021-12-24 14:34:22.249832,127
2021-12-24 14:34:22.249863,123
2021-12-24 14:34:22.249875,120
2021-12-24 14:34:22.249885,130
2021-12-24 14:34:22.249895,139
2021-12-24 14:34:22.249904,146
2021-12-24 14:34:22.249914,151
2021-12-24 14:34:22.249924,163
2021-12-24 14:34:22.249934,182
2021-12-24 14:34:22.249943,196
2021-12-24 14:34:22.249953,208
2021-12-24 14:34:22.249963,203
2021-12-24 14:34:22.249973,189
2021-12-24 14:34:22.249982,191
2021-12-24 14:34:22.249992,182
2021-12-24 14:34:22.250002,161
2021-12-24 14:34:22.250012,142
2021-12-24 14:34:22.250021,111
2021-12-24 14:34:22.250031,71
2021-12-24 14:34:22.250041,35
2021-12-24 14:34:22.250051,0
2021-12-24 14:34:22.250061,-35
2021-12-24 14:34:22.250070,-44
2021-12-24 14:34:22.250080,-42
2021-12-24 14:34:22.250090,-44
2021-12-24 14:34:22.250099,-37
2021-12-24 14:34:22.250109,-23
2021-12-24 14:34:22.250119,-23
2021-12-24 14:34:22.250128,-21
2021-12-24 14:34:22.250138,-14
2021-12-24 14:34:22.340827,-4
2021-12-24 14:34:22.340858,11
2021-12-24 14:34:22.340870,18
2021-12-24 14:34:22.340880,28
2021-12-24 14:34:22.340890,42
2021-12-24 14:34:22.340900,40
2021-12-24 14:34:22.340910,40
2021-12-24 14:34:22.340919,30
2021-12-24 14:34:22.340929,14
2021-12-24 14:34:22.340939,4
2021-12-24 14:34:22.340949,2
2021-12-24 14:34:22.340959,0
2021-12-24 14:34:22.340969,0
2021-12-24 14:34:22.340979,11
2021-12-24 14:34:22.340989,18
2021-12-24 14:34:22.340998,7
2021-12-24 14:34:22.341008,4
2021-12-24 14:34:22.341018,33
2021-12-24 14:34:22.341028,101
2021-12-24 14:34:22.341038,251
2021-12-24 14:34:22.341047,381
2021-12-24 14:34:22.341057,149
2021-12-24 14:34:22.341067,-530
2021-12-24 14:34:22.341077,-876
2021-12-24 14:34:22.341087,-404
2021-12-24 14:34:22.341097,71
2021-12-24 14:34:22.341107,66
2021-12-24 14:34:22.341117,35
2021-12-24 14:34:22.341126,111
2021-12-24 14:34:22.341136,111
2021-12-24 14:34:22.565583,89
2021-12-24 14:34:22.565601,111
2021-12-24 14:34:22.565608,106
2021-12-24 14:34:22.565615,97
2021-12-24 14:34:22.565622,108
2021-12-24 14:34:22.565628,116
2021-12-24 14:34:22.565634,116
2021-12-24 14:34:22.565641,106
2021-12-24 14:34:22.565647,97
2021-12-24 14:34:22.565653,99
2021-12-24 14:34:22.565659,111
2021-12-24 14:34:22.565666,120
2021-12-24 14:34:22.565672,130
2021-12-24 14:34:22.565678,137
2021-12-24 14:34:22.565684,146
2021-12-24 14:34:22.565691,158
2021-12-24 14:34:22.565697,165
2021-12-24 14:34:22.565703,168
2021-12-24 14:34:22.565709,177
2021-12-24 14:34:22.565716,179
2021-12-24 14:34:22.565722,165
2021-12-24 14:34:22.565728,163
2021-12-24 14:34:22.565734,163
2021-12-24 14:34:22.565741,156
2021-12-24 14:34:22.565747,139
2021-12-24 14:34:22.565753,106
2021-12-24 14:34:22.565759,56
2021-12-24 14:34:22.565766,23
2021-12-24 14:34:22.565772,11
2021-12-24 14:34:22.565778,-2
2021-12-24 14:34:22.879802,-18
2021-12-24 14:34:22.879824,-18
2021-12-24 14:34:22.879832,-11
2021-12-24 14:34:22.879839,-11
2021-12-24 14:34:22.879845,-7
2021-12-24 14:34:22.879852,7
2021-12-24 14:34:22.879858,7
2021-12-24 14:34:22.879865,0
2021-12-24 14:34:22.879871,14
2021-12-24 14:34:22.879877,23
2021-12-24 14:34:22.879884,14
2021-12-24 14:34:22.879890,18
2021-12-24 14:34:22.879896,33
2021-12-24 14:34:22.879903,33
2021-12-24 14:34:22.879909,35
2021-12-24 14:34:22.879916,49
2021-12-24 14:34:22.879922,56
2021-12-24 14:34:22.879928,35
2021-12-24 14:34:22.879935,7
2021-12-24 14:34:22.879941,2
2021-12-24 14:34:22.879948,4
2021-12-24 14:34:22.879954,4
2021-12-24 14:34:22.879960,9
2021-12-24 14:34:22.879967,16
2021-12-24 14:34:22.879973,21
2021-12-24 14:34:22.879979,18
2021-12-24 14:34:22.879986,11
2021-12-24 14:34:22.879992,21
2021-12-24 14:34:22.879999,82
2021-12-24 14:34:22.880005,227
2021-12-24 14:34:23.015488,381
2021-12-24 14:34:23.015512,310
2021-12-24 14:34:23.015520,-229
2021-12-24 14:34:23.015527,-764
2021-12-24 14:34:23.015534,-502
2021-12-24 14:34:23.015540,56
2021-12-24 14:34:23.015547,111
2021-12-24 14:34:23.015553,11
2021-12-24 14:34:23.015560,89
2021-12-24 14:34:23.015566,116
2021-12-24 14:34:23.015573,75
2021-12-24 14:34:23.015579,89
2021-12-24 14:34:23.015586,108
2021-12-24 14:34:23.015592,92
2021-12-24 14:34:23.015599,85
2021-12-24 14:34:23.015605,89
2021-12-24 14:34:23.015611,89
2021-12-24 14:34:23.015618,85
2021-12-24 14:34:23.015624,85
2021-12-24 14:34:23.015636,89
2021-12-24 14:34:23.015642,97
2021-12-24 14:34:23.015649,106
2021-12-24 14:34:23.015655,113
2021-12-24 14:34:23.015662,113
2021-12-24 14:34:23.015668,120
2021-12-24 14:34:23.015675,134
2021-12-24 14:34:23.015681,137
2021-12-24 14:34:23.015688,139
2021-12-24 14:34:23.015694,151
2021-12-24 14:34:23.015701,158
2021-12-24 14:34:23.285753,149
2021-12-24 14:34:23.285774,142
2021-12-24 14:34:23.285781,139
2021-12-24 14:34:23.285788,127
2021-12-24 14:34:23.285794,116
2021-12-24 14:34:23.285801,94
2021-12-24 14:34:23.285807,63
2021-12-24 14:34:23.285814,40
2021-12-24 14:34:23.285820,21
2021-12-24 14:34:23.285826,7
2021-12-24 14:34:23.285833,-2
2021-12-24 14:34:23.285839,-16
2021-12-24 14:34:23.285846,-14
2021-12-24 14:34:23.285852,-4
2021-12-24 14:34:23.285859,-4
2021-12-24 14:34:23.285865,-4
2021-12-24 14:34:23.285872,0
2021-12-24 14:34:23.285878,4
2021-12-24 14:34:23.285884,7
2021-12-24 14:34:23.285891,11
2021-12-24 14:34:23.285897,18
2021-12-24 14:34:23.285903,9
2021-12-24 14:34:23.285910,9
2021-12-24 14:34:23.285916,23
2021-12-24 14:34:23.285923,21
2021-12-24 14:34:23.285929,14
2021-12-24 14:34:23.285935,16
2021-12-24 14:34:23.285942,23
2021-12-24 14:34:23.285948,35
2021-12-24 14:34:23.285955,47
2021-12-24 14:34:23.466244,52
2021-12-24 14:34:23.466274,56
2021-12-24 14:34:23.466285,56
2021-12-24 14:34:23.466295,37
2021-12-24 14:34:23.466305,16
2021-12-24 14:34:23.466315,11
2021-12-24 14:34:23.466324,16
2021-12-24 14:34:23.466334,16
2021-12-24 14:34:23.466344,14
2021-12-24 14:34:23.466353,21
2021-12-24 14:34:23.466363,26
2021-12-24 14:34:23.466373,23
2021-12-24 14:34:23.466383,28
2021-12-24 14:34:23.466392,87
2021-12-24 14:34:23.466402,236
2021-12-24 14:34:23.466412,423
2021-12-24 14:34:23.466422,464
2021-12-24 14:34:23.466431,56
2021-12-24 14:34:23.466441,-627
2021-12-24 14:34:23.466451,-696
2021-12-24 14:34:23.466461,-116
2021-12-24 14:34:23.466471,125
2021-12-24 14:34:23.466480,4
2021-12-24 14:34:23.466490,47
2021-12-24 14:34:23.466500,113
2021-12-24 14:34:23.466509,66
2021-12-24 14:34:23.466519,68
2021-12-24 14:34:23.466529,104
2021-12-24 14:34:23.466539,92
2021-12-24 14:34:23.466548,78
2021-12-24 14:34:23.690753,92
2021-12-24 14:34:23.690774,97
2021-12-24 14:34:23.690782,92
2021-12-24 14:34:23.690789,89
2021-12-24 14:34:23.690795,87
2021-12-24 14:34:23.690820,85
2021-12-24 14:34:23.690830,99
2021-12-24 14:34:23.690839,111
2021-12-24 14:34:23.690849,116
2021-12-24 14:34:23.690859,125
2021-12-24 14:34:23.690869,123
2021-12-24 14:34:23.690878,123
2021-12-24 14:34:23.690888,139
2021-12-24 14:34:23.690898,142
2021-12-24 14:34:23.690908,146
2021-12-24 14:34:23.690917,156
2021-12-24 14:34:23.690927,146
2021-12-24 14:34:23.690937,127
2021-12-24 14:34:23.690947,130
2021-12-24 14:34:23.690956,130
2021-12-24 14:34:23.690966,108
2021-12-24 14:34:23.690976,78
2021-12-24 14:34:23.690986,49
2021-12-24 14:34:23.690995,30
2021-12-24 14:34:23.691005,14
2021-12-24 14:34:23.691015,-2
2021-12-24 14:34:23.691025,-7
2021-12-24 14:34:23.691034,-9
2021-12-24 14:34:23.691044,-18
2021-12-24 14:34:23.691054,-16
2021-12-24 14:34:24.005810,-11
2021-12-24 14:34:24.005842,-11
2021-12-24 14:34:24.005854,-7
2021-12-24 14:34:24.005864,-2
2021-12-24 14:34:24.005874,0
2021-12-24 14:34:24.005884,2
2021-12-24 14:34:24.005894,7
2021-12-24 14:34:24.005904,18
2021-12-24 14:34:24.005913,23
2021-12-24 14:34:24.005923,14
2021-12-24 14:34:24.005933,16
2021-12-24 14:34:24.005943,28
2021-12-24 14:34:24.005952,26
2021-12-24 14:34:24.005962,26
2021-12-24 14:34:24.005972,35
2021-12-24 14:34:24.005981,33
2021-12-24 14:34:24.005991,21
2021-12-24 14:34:24.006001,21
2021-12-24 14:34:24.006010,33
2021-12-24 14:34:24.006020,37
2021-12-24 14:34:24.006030,28
2021-12-24 14:34:24.006039,21
2021-12-24 14:34:24.006049,23
2021-12-24 14:34:24.006059,21
2021-12-24 14:34:24.006069,9
2021-12-24 14:34:24.006078,9
2021-12-24 14:34:24.006088,18
2021-12-24 14:34:24.006098,28
2021-12-24 14:34:24.006107,52
2021-12-24 14:34:24.006117,63
2021-12-24 14:34:24.319495,59
2021-12-24 14:34:24.319525,56
2021-12-24 14:34:24.319536,49
2021-12-24 14:34:24.319546,33
2021-12-24 14:34:24.319556,16
2021-12-24 14:34:24.319566,23
2021-12-24 14:34:24.319576,42
2021-12-24 14:34:24.319585,40
2021-12-24 14:34:24.319595,30
2021-12-24 14:34:24.319605,30
2021-12-24 14:34:24.319615,44
2021-12-24 14:34:24.319624,59
2021-12-24 14:34:24.319634,87
2021-12-24 14:34:24.319644,168
2021-12-24 14:34:24.319654,312
2021-12-24 14:34:24.319663,480
2021-12-24 14:34:24.319673,468
2021-12-24 14:34:24.319683,-44
2021-12-24 14:34:24.319693,-719
2021-12-24 14:34:24.319702,-622
2021-12-24 14:34:24.319712,-26
2021-12-24 14:34:24.319722,104
2021-12-24 14:34:24.319732,-4
2021-12-24 14:34:24.319742,71
2021-12-24 14:34:24.319751,104
2021-12-24 14:34:24.319761,59
2021-12-24 14:34:24.319771,78
2021-12-24 14:34:24.319780,101
2021-12-24 14:34:24.319790,78
2021-12-24 14:34:24.319800,71
2021-12-24 14:34:24.501267,89
2021-12-24 14:34:24.501297,92
2021-12-24 14:34:24.501309,73
2021-12-24 14:34:24.501319,73
2021-12-24 14:34:24.501329,89
2021-12-24 14:34:24.501339,92
2021-12-24 14:34:24.501349,85
2021-12-24 14:34:24.501358,87
2021-12-24 14:34:24.501368,94
2021-12-24 14:34:24.501378,97
2021-12-24 14:34:24.501388,99
2021-12-24 14:34:24.501398,106
2021-12-24 14:34:24.501407,116
2021-12-24 14:34:24.501417,120
2021-12-24 14:34:24.501427,123
2021-12-24 14:34:24.501437,120
2021-12-24 14:34:24.501447,108
2021-12-24 14:34:24.501456,97
2021-12-24 14:34:24.501466,94
2021-12-24 14:34:24.501476,82
2021-12-24 14:34:24.501486,66
2021-12-24 14:34:24.501496,54
2021-12-24 14:34:24.501506,30
2021-12-24 14:34:24.501516,11
2021-12-24 14:34:24.501526,0
2021-12-24 14:34:24.501536,-14
2021-12-24 14:34:24.501546,-26
2021-12-24 14:34:24.501556,-26
2021-12-24 14:34:24.501565,-30
2021-12-24 14:34:24.501575,-28
2021-12-24 14:34:24.635798,-18
2021-12-24 14:34:24.635820,-16
2021-12-24 14:34:24.635828,-9
2021-12-24 14:34:24.635835,-7
2021-12-24 14:34:24.635842,-4
2021-12-24 14:34:24.635848,11
2021-12-24 14:34:24.635855,16
2021-12-24 14:34:24.635861,2
2021-12-24 14:34:24.635867,4
2021-12-24 14:34:24.635874,21
2021-12-24 14:34:24.635880,26
2021-12-24 14:34:24.635886,26
2021-12-24 14:34:24.635893,33
2021-12-24 14:34:24.635899,35
2021-12-24 14:34:24.635906,30
2021-12-24 14:34:24.635912,37
2021-12-24 14:34:24.635918,37
2021-12-24 14:34:24.635925,26
2021-12-24 14:34:24.635931,26
2021-12-24 14:34:24.635937,30
2021-12-24 14:34:24.635944,28
2021-12-24 14:34:24.635950,23
2021-12-24 14:34:24.635956,23
2021-12-24 14:34:24.635963,23
2021-12-24 14:34:24.635969,28
2021-12-24 14:34:24.635975,28
2021-12-24 14:34:24.635982,18
2021-12-24 14:34:24.635988,23
2021-12-24 14:34:24.635995,33
2021-12-24 14:34:24.636108,23
2021-12-24 14:34:24.860911,21
2021-12-24 14:34:24.860940,23
2021-12-24 14:34:24.860951,16
2021-12-24 14:34:24.860962,14
2021-12-24 14:34:24.860998,23
2021-12-24 14:34:24.861015,40
2021-12-24 14:34:24.861026,59
2021-12-24 14:34:24.861036,63
2021-12-24 14:34:24.861046,47
2021-12-24 14:34:24.861055,35
2021-12-24 14:34:24.861066,26
2021-12-24 14:34:24.861076,14
2021-12-24 14:34:24.861086,14
2021-12-24 14:34:24.861095,23
2021-12-24 14:34:24.861105,21
2021-12-24 14:34:24.861115,23
2021-12-24 14:34:24.861125,30
2021-12-24 14:34:24.861136,37
2021-12-24 14:34:24.861148,44
2021-12-24 14:34:24.861158,71
2021-12-24 14:34:24.861169,158
2021-12-24 14:34:24.861179,307
2021-12-24 14:34:24.861189,452
2021-12-24 14:34:24.861199,435
2021-12-24 14:34:24.861209,-40
2021-12-24 14:34:24.861219,-705
2021-12-24 14:34:24.861228,-629
2021-12-24 14:34:24.861238,-16
2021-12-24 14:34:24.861248,123
2021-12-24 14:34:24.861258,-11
2021-12-24 14:34:25.086280,59
2021-12-24 14:34:25.086311,97
2021-12-24 14:34:25.086323,47
2021-12-24 14:34:25.086332,68
2021-12-24 14:34:25.086342,92
2021-12-24 14:34:25.086352,61
2021-12-24 14:34:25.086362,59
2021-12-24 14:34:25.086372,73
2021-12-24 14:34:25.086381,63
2021-12-24 14:34:25.086391,61
2021-12-24 14:34:25.086401,71
2021-12-24 14:34:25.086411,71
2021-12-24 14:34:25.086420,68
2021-12-24 14:34:25.086430,75
2021-12-24 14:34:25.086440,82
2021-12-24 14:34:25.086450,85
2021-12-24 14:34:25.086459,89
2021-12-24 14:34:25.086469,101
2021-12-24 14:34:25.086479,111
2021-12-24 14:34:25.086489,113
2021-12-24 14:34:25.086499,118
2021-12-24 14:34:25.086508,120
2021-12-24 14:34:25.086518,123
2021-12-24 14:34:25.086528,123
2021-12-24 14:34:25.086538,111
2021-12-24 14:34:25.086548,104
2021-12-24 14:34:25.086558,101
2021-12-24 14:34:25.086567,89
2021-12-24 14:34:25.086577,68
2021-12-24 14:34:25.086587,54
2021-12-24 14:34:25.356264,42
2021-12-24 14:34:25.356286,26
2021-12-24 14:34:25.356294,16
2021-12-24 14:34:25.356300,16
2021-12-24 14:34:25.356307,11
2021-12-24 14:34:25.356313,0
2021-12-24 14:34:25.356320,2
2021-12-24 14:34:25.356326,4
2021-12-24 14:34:25.356332,0
2021-12-24 14:34:25.356339,9
2021-12-24 14:34:25.356345,14
2021-12-24 14:34:25.356351,9
2021-12-24 14:34:25.356358,21
2021-12-24 14:34:25.356364,35
2021-12-24 14:34:25.356370,33
2021-12-24 14:34:25.356377,26
2021-12-24 14:34:25.356383,35
2021-12-24 14:34:25.356390,47
2021-12-24 14:34:25.356396,49
2021-12-24 14:34:25.356402,47
2021-12-24 14:34:25.356409,49
2021-12-24 14:34:25.356415,52
2021-12-24 14:34:25.356421,49
2021-12-24 14:34:25.356428,54
2021-12-24 14:34:25.356434,49
2021-12-24 14:34:25.356440,37
2021-12-24 14:34:25.356446,40
2021-12-24 14:34:25.356453,44
2021-12-24 14:34:25.356459,40
2021-12-24 14:34:25.356465,42
2021-12-24 14:34:25.580893,37
2021-12-24 14:34:25.580924,35
2021-12-24 14:34:25.580935,40
2021-12-24 14:34:25.580945,40
2021-12-24 14:34:25.580955,33
2021-12-24 14:34:25.580965,28
2021-12-24 14:34:25.580975,30
2021-12-24 14:34:25.580984,28
2021-12-24 14:34:25.580994,18
2021-12-24 14:34:25.581004,14
2021-12-24 14:34:25.581014,14
2021-12-24 14:34:25.581024,23
2021-12-24 14:34:25.581034,42
2021-12-24 14:34:25.581044,49
2021-12-24 14:34:25.581054,49
2021-12-24 14:34:25.581064,52
2021-12-24 14:34:25.581074,33
2021-12-24 14:34:25.581084,2
2021-12-24 14:34:25.581094,7
2021-12-24 14:34:25.581103,26
2021-12-24 14:34:25.581113,21
2021-12-24 14:34:25.581123,11
2021-12-24 14:34:25.581133,16
2021-12-24 14:34:25.581143,23
2021-12-24 14:34:25.581153,30
2021-12-24 14:34:25.581163,40
2021-12-24 14:34:25.581172,71
2021-12-24 14:34:25.581182,158
2021-12-24 14:34:25.581192,314
2021-12-24 14:34:25.581202,485
2021-12-24 14:34:25.940656,464
2021-12-24 14:34:25.940687,-75
2021-12-24 14:34:25.940699,-776
2021-12-24 14:34:25.940709,-674
2021-12-24 14:34:25.940719,-56
2021-12-24 14:34:25.940729,99
2021-12-24 14:34:25.940739,-7
2021-12-24 14:34:25.940749,59
2021-12-24 14:34:25.940759,99
2021-12-24 14:34:25.940769,56
2021-12-24 14:34:25.940779,66
2021-12-24 14:34:25.940789,87
2021-12-24 14:34:25.940798,78
2021-12-24 14:34:25.940808,78
2021-12-24 14:34:25.940819,85
2021-12-24 14:34:25.940828,80
2021-12-24 14:34:25.940838,82
2021-12-24 14:34:25.940848,94
2021-12-24 14:34:25.940858,94
2021-12-24 14:34:25.940868,82
2021-12-24 14:34:25.940878,89
2021-12-24 14:34:25.940888,104
2021-12-24 14:34:25.940898,99
2021-12-24 14:34:25.940907,101
2021-12-24 14:34:25.940917,123
2021-12-24 14:34:25.940927,139
2021-12-24 14:34:25.940937,139
2021-12-24 14:34:25.940947,137
2021-12-24 14:34:25.940957,149
2021-12-24 14:34:25.940967,165
2021-12-24 14:34:26.031306,158
2021-12-24 14:34:26.031337,142
2021-12-24 14:34:26.031348,130
2021-12-24 14:34:26.031358,125
2021-12-24 14:34:26.031368,118
2021-12-24 14:34:26.031383,111
2021-12-24 14:34:26.031393,101
2021-12-24 14:34:26.031402,73
2021-12-24 14:34:26.031412,37
2021-12-24 14:34:26.031422,21
2021-12-24 14:34:26.031432,11
2021-12-24 14:34:26.031441,0
2021-12-24 14:34:26.031451,2
2021-12-24 14:34:26.031461,9
2021-12-24 14:34:26.031471,4
2021-12-24 14:34:26.031480,4
2021-12-24 14:34:26.031490,11
2021-12-24 14:34:26.031500,16
2021-12-24 14:34:26.031509,18
2021-12-24 14:34:26.031519,16
2021-12-24 14:34:26.031528,18
2021-12-24 14:34:26.031538,30
2021-12-24 14:34:26.031548,44
2021-12-24 14:34:26.031558,44
2021-12-24 14:34:26.031567,33
2021-12-24 14:34:26.031577,35
2021-12-24 14:34:26.031586,40
2021-12-24 14:34:26.031596,37
2021-12-24 14:34:26.031606,40
2021-12-24 14:34:26.031615,42
2021-12-24 14:34:26.344926,40
2021-12-24 14:34:26.344957,42
2021-12-24 14:34:26.344968,44
2021-12-24 14:34:26.344978,26
2021-12-24 14:34:26.344988,14
2021-12-24 14:34:26.344998,26
2021-12-24 14:34:26.345008,28
2021-12-24 14:34:26.345018,18
2021-12-24 14:34:26.345027,23
2021-12-24 14:34:26.345037,44
2021-12-24 14:34:26.345047,63
2021-12-24 14:34:26.345057,61
2021-12-24 14:34:26.345067,52
2021-12-24 14:34:26.345077,44
2021-12-24 14:34:26.345086,23
2021-12-24 14:34:26.345096,4
2021-12-24 14:34:26.345106,16
2021-12-24 14:34:26.345116,21
2021-12-24 14:34:26.345126,18
2021-12-24 14:34:26.345136,30
2021-12-24 14:34:26.345145,42
2021-12-24 14:34:26.345155,40
2021-12-24 14:34:26.345165,44
2021-12-24 14:34:26.345175,73
2021-12-24 14:34:26.345185,149
2021-12-24 14:34:26.345195,305
2021-12-24 14:34:26.345205,487
2021-12-24 14:34:26.345215,485
2021-12-24 14:34:26.345225,-18
2021-12-24 14:34:26.345235,-748
2021-12-24 14:34:26.525848,-748
2021-12-24 14:34:26.525878,-130
2021-12-24 14:34:26.525890,106
2021-12-24 14:34:26.525900,11
2021-12-24 14:34:26.525910,66
2021-12-24 14:34:26.525920,132
2021-12-24 14:34:26.525930,92
2021-12-24 14:34:26.525940,78
2021-12-24 14:34:26.525950,99
2021-12-24 14:34:26.525959,99
2021-12-24 14:34:26.525969,97
2021-12-24 14:34:26.525979,104
2021-12-24 14:34:26.525989,106
2021-12-24 14:34:26.525999,104
2021-12-24 14:34:26.526009,101
2021-12-24 14:34:26.526018,106
2021-12-24 14:34:26.526028,116
2021-12-24 14:34:26.526038,125
2021-12-24 14:34:26.526048,125
2021-12-24 14:34:26.526058,123
2021-12-24 14:34:26.526068,130
2021-12-24 14:34:26.526077,139
2021-12-24 14:34:26.526087,149
2021-12-24 14:34:26.526097,163
2021-12-24 14:34:26.526107,175
2021-12-24 14:34:26.526116,182
2021-12-24 14:34:26.526126,184
2021-12-24 14:34:26.526136,179
2021-12-24 14:34:26.526146,177
2021-12-24 14:34:26.526156,170
2021-12-24 14:34:26.705978,153
2021-12-24 14:34:26.706012,134
2021-12-24 14:34:26.706024,111
2021-12-24 14:34:26.706034,87
2021-12-24 14:34:26.706044,54
2021-12-24 14:34:26.706054,18
2021-12-24 14:34:26.706064,-4
2021-12-24 14:34:26.706073,-18
2021-12-24 14:34:26.706083,-26
2021-12-24 14:34:26.706093,-28
2021-12-24 14:34:26.706103,-30
2021-12-24 14:34:26.706112,-23
2021-12-24 14:34:26.706122,-14
2021-12-24 14:34:26.706132,-11
2021-12-24 14:34:26.706142,-4
2021-12-24 14:34:26.706152,4
2021-12-24 14:34:26.706162,7
2021-12-24 14:34:26.706171,11
2021-12-24 14:34:26.706181,21
2021-12-24 14:34:26.706191,26
2021-12-24 14:34:26.706201,26
2021-12-24 14:34:26.706210,30
2021-12-24 14:34:26.706220,37
2021-12-24 14:34:26.706230,42
2021-12-24 14:34:26.706240,42
2021-12-24 14:34:26.706250,40
2021-12-24 14:34:26.706260,40
2021-12-24 14:34:26.706269,37
2021-12-24 14:34:26.706279,35
2021-12-24 14:34:26.706289,37
2021-12-24 14:34:26.930891,35
2021-12-24 14:34:26.930921,28
2021-12-24 14:34:26.930933,23
2021-12-24 14:34:26.930944,23
2021-12-24 14:34:26.930954,33
2021-12-24 14:34:26.930964,28
2021-12-24 14:34:26.930974,16
2021-12-24 14:34:26.930984,21
2021-12-24 14:34:26.930993,26
2021-12-24 14:34:26.931003,23
2021-12-24 14:34:26.931013,23
2021-12-24 14:34:26.931023,18
2021-12-24 14:34:26.931033,11
2021-12-24 14:34:26.931043,18
2021-12-24 14:34:26.931053,40
2021-12-24 14:34:26.931063,59
2021-12-24 14:34:26.931073,71
2021-12-24 14:34:26.931082,73
2021-12-24 14:34:26.931092,61
2021-12-24 14:34:26.931102,44
2021-12-24 14:34:26.931112,35
2021-12-24 14:34:26.931122,33
2021-12-24 14:34:26.931132,35
2021-12-24 14:34:26.931142,33
2021-12-24 14:34:26.931152,33
2021-12-24 14:34:26.931161,44
2021-12-24 14:34:26.931171,52
2021-12-24 14:34:26.931181,49
2021-12-24 14:34:26.931191,61
2021-12-24 14:34:26.931201,97
2021-12-24 14:34:27.201182,196
2021-12-24 14:34:27.201203,388
2021-12-24 14:34:27.201211,568
2021-12-24 14:34:27.201217,476
2021-12-24 14:34:27.201224,-161
2021-12-24 14:34:27.201230,-819
2021-12-24 14:34:27.201237,-582
2021-12-24 14:34:27.201243,23
2021-12-24 14:34:27.201249,89
2021-12-24 14:34:27.201256,-7
2021-12-24 14:34:27.201262,85
2021-12-24 14:34:27.201268,104
2021-12-24 14:34:27.201275,54
2021-12-24 14:34:27.201281,75
2021-12-24 14:34:27.201287,97
2021-12-24 14:34:27.201294,75
2021-12-24 14:34:27.201300,73
2021-12-24 14:34:27.201306,80
2021-12-24 14:34:27.201312,73
2021-12-24 14:34:27.201319,73
2021-12-24 14:34:27.201325,80
2021-12-24 14:34:27.201331,85
2021-12-24 14:34:27.201337,87
2021-12-24 14:34:27.201344,97
2021-12-24 14:34:27.201350,101
2021-12-24 14:34:27.201356,104
2021-12-24 14:34:27.201363,113
2021-12-24 14:34:27.201369,123
2021-12-24 14:34:27.201375,127
2021-12-24 14:34:27.201382,134
2021-12-24 14:34:27.380867,149
2021-12-24 14:34:27.380898,163
2021-12-24 14:34:27.380910,165
2021-12-24 14:34:27.380920,165
2021-12-24 14:34:27.380930,161
2021-12-24 14:34:27.380939,151
2021-12-24 14:34:27.380949,137
2021-12-24 14:34:27.380959,125
2021-12-24 14:34:27.380968,106
2021-12-24 14:34:27.380978,80
2021-12-24 14:34:27.380988,47
2021-12-24 14:34:27.380997,23
2021-12-24 14:34:27.381007,9
2021-12-24 14:34:27.381017,4
2021-12-24 14:34:27.381026,2
2021-12-24 14:34:27.381036,-2
2021-12-24 14:34:27.381046,-7
2021-12-24 14:34:27.381056,-2
2021-12-24 14:34:27.381066,4
2021-12-24 14:34:27.381075,9
2021-12-24 14:34:27.381085,9
2021-12-24 14:34:27.381095,11
2021-12-24 14:34:27.381104,18
2021-12-24 14:34:27.381114,26
2021-12-24 14:34:27.381124,33
2021-12-24 14:34:27.381134,40
2021-12-24 14:34:27.381143,42
2021-12-24 14:34:27.381153,44
2021-12-24 14:34:27.381163,49
2021-12-24 14:34:27.381172,54
2021-12-24 14:34:27.740474,56
2021-12-24 14:34:27.740494,59
2021-12-24 14:34:27.740502,54
2021-12-24 14:34:27.740509,47
2021-12-24 14:34:27.740515,42
2021-12-24 14:34:27.740522,47
2021-12-24 14:34:27.740528,44
2021-12-24 14:34:27.740534,40
2021-12-24 14:34:27.740541,40
2021-12-24 14:34:27.740547,40
2021-12-24 14:34:27.740553,37
2021-12-24 14:34:27.740560,37
2021-12-24 14:34:27.740566,37
2021-12-24 14:34:27.740573,42
2021-12-24 14:34:27.740579,42
2021-12-24 14:34:27.740585,40
2021-12-24 14:34:27.740592,40
2021-12-24 14:34:27.740598,44
2021-12-24 14:34:27.740605,44
2021-12-24 14:34:27.740611,47
2021-12-24 14:34:27.740617,47
2021-12-24 14:34:27.740624,49
2021-12-24 14:34:27.740630,49
2021-12-24 14:34:27.740636,47
2021-12-24 14:34:27.740643,44
2021-12-24 14:34:27.740649,42
2021-12-24 14:34:27.740655,44
2021-12-24 14:34:27.740662,47
2021-12-24 14:34:27.740668,63
2021-12-24 14:34:27.740674,87
2021-12-24 14:34:27.921255,92
2021-12-24 14:34:27.921286,87
2021-12-24 14:34:27.921298,78
2021-12-24 14:34:27.921308,59
2021-12-24 14:34:27.921318,47
2021-12-24 14:34:27.921327,44
2021-12-24 14:34:27.921337,44
2021-12-24 14:34:27.921347,47
2021-12-24 14:34:27.921356,49
2021-12-24 14:34:27.921366,49
2021-12-24 14:34:27.921376,54
2021-12-24 14:34:27.921386,59
2021-12-24 14:34:27.921396,71
2021-12-24 14:34:27.921405,127
2021-12-24 14:34:27.921416,258
2021-12-24 14:34:27.921425,449
2021-12-24 14:34:27.921435,556
2021-12-24 14:34:27.921445,229
2021-12-24 14:34:27.921455,-539
2021-12-24 14:34:27.921465,-828
2021-12-24 14:34:27.921474,-260
2021-12-24 14:34:27.921484,111
2021-12-24 14:34:27.921494,-14
2021-12-24 14:34:27.921504,-2
2021-12-24 14:34:27.921514,99
2021-12-24 14:34:27.921523,56
2021-12-24 14:34:27.921533,30
2021-12-24 14:34:27.921543,66
2021-12-24 14:34:27.921552,66
2021-12-24 14:34:27.921562,59
2021-12-24 14:34:28.190894,71
2021-12-24 14:34:28.190916,73
2021-12-24 14:34:28.190923,63
2021-12-24 14:34:28.190930,71
2021-12-24 14:34:28.190936,78
2021-12-24 14:34:28.190943,80
2021-12-24 14:34:28.190949,87
2021-12-24 14:34:28.190955,94
2021-12-24 14:34:28.190962,99
2021-12-24 14:34:28.190968,104
2021-12-24 14:34:28.190974,113
2021-12-24 14:34:28.190981,125
2021-12-24 14:34:28.190987,134
2021-12-24 14:34:28.190993,142
2021-12-24 14:34:28.191000,146
2021-12-24 14:34:28.191006,151
2021-12-24 14:34:28.191012,156
2021-12-24 14:34:28.191019,156
2021-12-24 14:34:28.191025,149
2021-12-24 14:34:28.191031,134
2021-12-24 14:34:28.191038,118
2021-12-24 14:34:28.191044,106
2021-12-24 14:34:28.191050,97
2021-12-24 14:34:28.191057,80
2021-12-24 14:34:28.191063,59
2021-12-24 14:34:28.191069,42
2021-12-24 14:34:28.191076,28
2021-12-24 14:34:28.191082,18
2021-12-24 14:34:28.191088,16
2021-12-24 14:34:28.191095,18
2021-12-24 14:34:28.505505,23
2021-12-24 14:34:28.505528,23
2021-12-24 14:34:28.505536,23
2021-12-24 14:34:28.505542,26
2021-12-24 14:34:28.505549,30
2021-12-24 14:34:28.505556,37
2021-12-24 14:34:28.505562,42
2021-12-24 14:34:28.505568,42
2021-12-24 14:34:28.505575,44
2021-12-24 14:34:28.505581,52
2021-12-24 14:34:28.505587,56
2021-12-24 14:34:28.505593,63
2021-12-24 14:34:28.505600,66
2021-12-24 14:34:28.505606,63
2021-12-24 14:34:28.505612,63
2021-12-24 14:34:28.505619,63
2021-12-24 14:34:28.505625,63
2021-12-24 14:34:28.505631,63
2021-12-24 14:34:28.505638,61
2021-12-24 14:34:28.505676,54
2021-12-24 14:34:28.505683,47
2021-12-24 14:34:28.505689,42
2021-12-24 14:34:28.505695,44
2021-12-24 14:34:28.505702,47
2021-12-24 14:34:28.505708,44
2021-12-24 14:34:28.505714,40
2021-12-24 14:34:28.505720,37
2021-12-24 14:34:28.505727,35
2021-12-24 14:34:28.505733,37
2021-12-24 14:34:28.505739,40
2021-12-24 14:34:28.641257,37
2021-12-24 14:34:28.641278,35
2021-12-24 14:34:28.641285,37
2021-12-24 14:34:28.641292,37
2021-12-24 14:34:28.641298,37
2021-12-24 14:34:28.641305,40
2021-12-24 14:34:28.641311,42
2021-12-24 14:34:28.641317,40
2021-12-24 14:34:28.641324,40
2021-12-24 14:34:28.641330,44
2021-12-24 14:34:28.641336,44
2021-12-24 14:34:28.641343,44
2021-12-24 14:34:28.641349,42
2021-12-24 14:34:28.641355,42
2021-12-24 14:34:28.641362,35
2021-12-24 14:34:28.641368,26
2021-12-24 14:34:28.641374,23
2021-12-24 14:34:28.641381,35
2021-12-24 14:34:28.641387,54
2021-12-24 14:34:28.641393,68
2021-12-24 14:34:28.641400,68
2021-12-24 14:34:28.641406,54
2021-12-24 14:34:28.641412,42
2021-12-24 14:34:28.641419,28
2021-12-24 14:34:28.641425,14
2021-12-24 14:34:28.641432,9
2021-12-24 14:34:28.641438,14
2021-12-24 14:34:28.641444,18
2021-12-24 14:34:28.641451,21
2021-12-24 14:34:28.641457,23
2021-12-24 14:34:28.775598,23
2021-12-24 14:34:28.775620,18
2021-12-24 14:34:28.775627,37
2021-12-24 14:34:28.775634,116
2021-12-24 14:34:28.775641,281
2021-12-24 14:34:28.775647,490
2021-12-24 14:34:28.775653,542
2021-12-24 14:34:28.775660,113
2021-12-24 14:34:28.775666,-641
2021-12-24 14:34:28.775673,-755
2021-12-24 14:34:28.775679,-156
2021-12-24 14:34:28.775685,87
2021-12-24 14:34:28.775692,-52
2021-12-24 14:34:28.775698,2
2021-12-24 14:34:28.775704,80
2021-12-24 14:34:28.775711,26
2021-12-24 14:34:28.775717,21
2021-12-24 14:34:28.775723,59
2021-12-24 14:34:28.775730,49
2021-12-24 14:34:28.775736,37
2021-12-24 14:34:28.775742,54
2021-12-24 14:34:28.775749,61
2021-12-24 14:34:28.775755,49
2021-12-24 14:34:28.775761,44
2021-12-24 14:34:28.775767,54
2021-12-24 14:34:28.775774,61
2021-12-24 14:34:28.775780,66
2021-12-24 14:34:28.775787,68
2021-12-24 14:34:28.775793,78
2021-12-24 14:34:28.775799,87
2021-12-24 14:34:29.181068,97
2021-12-24 14:34:29.181089,108
2021-12-24 14:34:29.181097,120
2021-12-24 14:34:29.181104,125
2021-12-24 14:34:29.181111,127
2021-12-24 14:34:29.181117,132
2021-12-24 14:34:29.181124,137
2021-12-24 14:34:29.181133,139
2021-12-24 14:34:29.181143,137
2021-12-24 14:34:29.181154,125
2021-12-24 14:34:29.181166,104
2021-12-24 14:34:29.181177,89
2021-12-24 14:34:29.181185,78
2021-12-24 14:34:29.181192,56
2021-12-24 14:34:29.181224,33
2021-12-24 14:34:29.181237,14
2021-12-24 14:34:29.181248,4
2021-12-24 14:34:29.181258,-2
2021-12-24 14:34:29.181268,-9
2021-12-24 14:34:29.181279,-7
2021-12-24 14:34:29.181290,-4
2021-12-24 14:34:29.181301,0
2021-12-24 14:34:29.181312,4
2021-12-24 14:34:29.181322,7
2021-12-24 14:34:29.181333,11
2021-12-24 14:34:29.181387,18
2021-12-24 14:34:29.181399,28
2021-12-24 14:34:29.181406,30
2021-12-24 14:34:29.181413,33
2021-12-24 14:34:29.181419,42
2021-12-24 14:34:29.270772,49
2021-12-24 14:34:29.270793,54
2021-12-24 14:34:29.270799,56
2021-12-24 14:34:29.270804,63
2021-12-24 14:34:29.270810,61
2021-12-24 14:34:29.270815,56
2021-12-24 14:34:29.270820,56
2021-12-24 14:34:29.270825,59
2021-12-24 14:34:29.270887,54
2021-12-24 14:34:29.270895,54
2021-12-24 14:34:29.270900,49
2021-12-24 14:34:29.270905,49
2021-12-24 14:34:29.270910,54
2021-12-24 14:34:29.270915,54
2021-12-24 14:34:29.270920,52
2021-12-24 14:34:29.270925,49
2021-12-24 14:34:29.270931,40
2021-12-24 14:34:29.270936,42
2021-12-24 14:34:29.270941,49
2021-12-24 14:34:29.270946,42
2021-12-24 14:34:29.270951,28
2021-12-24 14:34:29.270956,26
2021-12-24 14:34:29.270961,30
2021-12-24 14:34:29.270966,42
2021-12-24 14:34:29.270971,63
2021-12-24 14:34:29.270976,78
2021-12-24 14:34:29.270981,73
2021-12-24 14:34:29.270986,61
2021-12-24 14:34:29.270991,42
2021-12-24 14:34:29.270996,23
2021-12-24 14:34:29.540821,16
2021-12-24 14:34:29.540851,18
2021-12-24 14:34:29.540863,18
2021-12-24 14:34:29.540873,11
2021-12-24 14:34:29.540883,11
2021-12-24 14:34:29.540893,18
2021-12-24 14:34:29.540903,18
2021-12-24 14:34:29.540912,26
2021-12-24 14:34:29.540922,56
2021-12-24 14:34:29.540932,137
2021-12-24 14:34:29.540941,296
2021-12-24 14:34:29.540951,471
2021-12-24 14:34:29.540961,438
2021-12-24 14:34:29.540971,-97
2021-12-24 14:34:29.540981,-798
2021-12-24 14:34:29.540990,-705
2021-12-24 14:34:29.541000,-59
2021-12-24 14:34:29.541010,99
2021-12-24 14:34:29.541020,-23
2021-12-24 14:34:29.541029,56
2021-12-24 14:34:29.541039,104
2021-12-24 14:34:29.541049,52
2021-12-24 14:34:29.541059,63
2021-12-24 14:34:29.541068,94
2021-12-24 14:34:29.541078,80
2021-12-24 14:34:29.541088,75
2021-12-24 14:34:29.541097,85
2021-12-24 14:34:29.541107,82
2021-12-24 14:34:29.541117,82
2021-12-24 14:34:29.541127,92
2021-12-24 14:34:29.765968,94
2021-12-24 14:34:29.765990,94
2021-12-24 14:34:29.765998,99
2021-12-24 14:34:29.766004,106
2021-12-24 14:34:29.766011,116
2021-12-24 14:34:29.766017,123
2021-12-24 14:34:29.766024,132
2021-12-24 14:34:29.766030,146
2021-12-24 14:34:29.766037,161
2021-12-24 14:34:29.766043,165
2021-12-24 14:34:29.766050,172
2021-12-24 14:34:29.766056,182
2021-12-24 14:34:29.766062,187
2021-12-24 14:34:29.766069,179
2021-12-24 14:34:29.766076,168
2021-12-24 14:34:29.766082,151
2021-12-24 14:34:29.766089,137
2021-12-24 14:34:29.766095,123
2021-12-24 14:34:29.766102,101
2021-12-24 14:34:29.766109,78
2021-12-24 14:34:29.766115,54
2021-12-24 14:34:29.766122,28
2021-12-24 14:34:29.766128,16
2021-12-24 14:34:29.766134,18
2021-12-24 14:34:29.766141,21
2021-12-24 14:34:29.766147,21
2021-12-24 14:34:29.766154,21
2021-12-24 14:34:29.766160,18
2021-12-24 14:34:29.766167,26
2021-12-24 14:34:29.766173,33
2021-12-24 14:34:30.035080,40
2021-12-24 14:34:30.035102,44
2021-12-24 14:34:30.035110,49
2021-12-24 14:34:30.035117,54
2021-12-24 14:34:30.035125,59
2021-12-24 14:34:30.035132,61
2021-12-24 14:34:30.035138,61
2021-12-24 14:34:30.035145,61
2021-12-24 14:34:30.035151,56
2021-12-24 14:34:30.035158,56
2021-12-24 14:34:30.035164,56
2021-12-24 14:34:30.035170,52
2021-12-24 14:34:30.035177,49
2021-12-24 14:34:30.035183,44
2021-12-24 14:34:30.035190,44
2021-12-24 14:34:30.035196,47
2021-12-24 14:34:30.035203,44
2021-12-24 14:34:30.035209,40
2021-12-24 14:34:30.035216,40
2021-12-24 14:34:30.035222,37
2021-12-24 14:34:30.035229,33
2021-12-24 14:34:30.035235,35
2021-12-24 14:34:30.035241,33
2021-12-24 14:34:30.035248,30
2021-12-24 14:34:30.035254,30
2021-12-24 14:34:30.035261,26
2021-12-24 14:34:30.035267,23
2021-12-24 14:34:30.035274,28
2021-12-24 14:34:30.035280,28
2021-12-24 14:34:30.035286,28
2021-12-24 14:34:30.394652,30
2021-12-24 14:34:30.394674,33
2021-12-24 14:34:30.394682,28
2021-12-24 14:34:30.394688,28
2021-12-24 14:34:30.394695,28
2021-12-24 14:34:30.394701,28
2021-12-24 14:34:30.394708,23
2021-12-24 14:34:30.394714,23
2021-12-24 14:34:30.394720,30
2021-12-24 14:34:30.394727,52
2021-12-24 14:34:30.394733,68
2021-12-24 14:34:30.394739,66
2021-12-24 14:34:30.394746,56
2021-12-24 14:34:30.394752,44
2021-12-24 14:34:30.394759,23
2021-12-24 14:34:30.394765,16
2021-12-24 14:34:30.394771,21
2021-12-24 14:34:30.394778,26
2021-12-24 14:34:30.394784,26
2021-12-24 14:34:30.394791,23
2021-12-24 14:34:30.394797,23
2021-12-24 14:34:30.394803,23
2021-12-24 14:34:30.394810,30
2021-12-24 14:34:30.394816,66
2021-12-24 14:34:30.394822,156
2021-12-24 14:34:30.394829,336
2021-12-24 14:34:30.394835,528
2021-12-24 14:34:30.394841,487
2021-12-24 14:34:30.394848,-85
2021-12-24 14:34:30.394854,-781
2021-12-24 14:34:30.619292,-648
2021-12-24 14:34:30.619322,-26
2021-12-24 14:34:30.619334,89
2021-12-24 14:34:30.619344,-28
2021-12-24 14:34:30.619354,54
2021-12-24 14:34:30.619363,99
2021-12-24 14:34:30.619373,54
2021-12-24 14:34:30.619383,66
2021-12-24 14:34:30.619393,85
2021-12-24 14:34:30.619403,68
2021-12-24 14:34:30.619412,73
2021-12-24 14:34:30.619422,82
2021-12-24 14:34:30.619432,68
2021-12-24 14:34:30.619442,59
2021-12-24 14:34:30.619451,68
2021-12-24 14:34:30.619461,73
2021-12-24 14:34:30.619471,68
2021-12-24 14:34:30.619481,71
2021-12-24 14:34:30.619491,85
2021-12-24 14:34:30.619500,89
2021-12-24 14:34:30.619510,94
2021-12-24 14:34:30.619520,104
2021-12-24 14:34:30.619530,113
2021-12-24 14:34:30.619539,118
2021-12-24 14:34:30.619549,123
2021-12-24 14:34:30.619559,132
2021-12-24 14:34:30.619569,146
2021-12-24 14:34:30.619579,142
2021-12-24 14:34:30.619589,130
2021-12-24 14:34:30.619598,123
2021-12-24 14:34:30.846275,116
2021-12-24 14:34:30.846305,106
2021-12-24 14:34:30.846317,92
2021-12-24 14:34:30.846327,73
2021-12-24 14:34:30.846337,52
2021-12-24 14:34:30.846346,33
2021-12-24 14:34:30.846356,16
2021-12-24 14:34:30.846366,4
2021-12-24 14:34:30.846376,-4
2021-12-24 14:34:30.846386,-9
2021-12-24 14:34:30.846396,-7
2021-12-24 14:34:30.846406,-7
2021-12-24 14:34:30.846416,-7
2021-12-24 14:34:30.846426,0
2021-12-24 14:34:30.846436,4
2021-12-24 14:34:30.846445,4
2021-12-24 14:34:30.846455,14
2021-12-24 14:34:30.846465,23
2021-12-24 14:34:30.846475,23
2021-12-24 14:34:30.846485,28
2021-12-24 14:34:30.846495,35
2021-12-24 14:34:30.846505,30
2021-12-24 14:34:30.846514,23
2021-12-24 14:34:30.846524,26
2021-12-24 14:34:30.846534,26
2021-12-24 14:34:30.846544,26
2021-12-24 14:34:30.846554,23
2021-12-24 14:34:30.846564,18
2021-12-24 14:34:30.846574,16
2021-12-24 14:34:30.846584,11
2021-12-24 14:34:31.116205,4
2021-12-24 14:34:31.116236,2
2021-12-24 14:34:31.116247,4
2021-12-24 14:34:31.116257,2
2021-12-24 14:34:31.116268,-4
