Time,ECG
2021-12-24 14:23:57.746931,18
2021-12-24 14:23:57.746946,-2
2021-12-24 14:23:57.746951,-11
2021-12-24 14:23:57.746955,-2
2021-12-24 14:23:57.746960,2
2021-12-24 14:23:57.746965,4
2021-12-24 14:23:57.746969,11
2021-12-24 14:23:57.746973,14
2021-12-24 14:23:57.746978,9
2021-12-24 14:23:57.746982,11
2021-12-24 14:23:57.746987,37
2021-12-24 14:23:57.747005,104
2021-12-24 14:23:57.747009,239
2021-12-24 14:23:57.747013,404
2021-12-24 14:23:57.747017,433
2021-12-24 14:23:57.747021,11
2021-12-24 14:23:57.747026,-696
2021-12-24 14:23:57.747030,-795
2021-12-24 14:23:57.747034,-217
2021-12-24 14:23:57.747038,87
2021-12-24 14:23:57.747042,9
2021-12-24 14:23:57.747046,30
2021-12-24 14:23:57.747050,99
2021-12-24 14:23:57.747054,68
2021-12-24 14:23:57.747059,54
2021-12-24 14:23:57.747063,75
2021-12-24 14:23:57.747067,78
2021-12-24 14:23:57.747071,73
2021-12-24 14:23:57.747075,80
2021-12-24 14:23:57.747079,82
2021-12-24 14:23:57.829890,85
2021-12-24 14:23:57.829918,89
2021-12-24 14:23:57.829926,89
2021-12-24 14:23:57.829932,87
2021-12-24 14:23:57.829939,94
2021-12-24 14:23:57.829946,101
2021-12-24 14:23:57.829953,113
2021-12-24 14:23:57.829960,125
2021-12-24 14:23:57.829966,139
2021-12-24 14:23:57.829973,153
2021-12-24 14:23:57.829979,165
2021-12-24 14:23:57.829985,184
2021-12-24 14:23:57.829992,203
2021-12-24 14:23:57.829998,208
2021-12-24 14:23:57.830005,201
2021-12-24 14:23:57.830011,196
2021-12-24 14:23:57.830018,184
2021-12-24 14:23:57.830025,168
2021-12-24 14:23:57.830031,142
2021-12-24 14:23:57.830037,104
2021-12-24 14:23:57.830044,61
2021-12-24 14:23:57.830050,21
2021-12-24 14:23:57.830057,-11
2021-12-24 14:23:57.830063,-33
2021-12-24 14:23:57.830069,-47
2021-12-24 14:23:57.830076,-52
2021-12-24 14:23:57.830082,-44
2021-12-24 14:23:57.830089,-37
2021-12-24 14:23:57.830095,-35
2021-12-24 14:23:57.830104,-30
2021-12-24 14:23:58.100077,-16
2021-12-24 14:23:58.100097,-9
2021-12-24 14:23:58.100105,-9
2021-12-24 14:23:58.100112,-4
2021-12-24 14:23:58.100119,0
2021-12-24 14:23:58.100125,2
2021-12-24 14:23:58.100131,2
2021-12-24 14:23:58.100138,2
2021-12-24 14:23:58.100144,4
2021-12-24 14:23:58.100150,9
2021-12-24 14:23:58.100156,9
2021-12-24 14:23:58.100162,4
2021-12-24 14:23:58.100169,0
2021-12-24 14:23:58.100179,0
2021-12-24 14:23:58.100185,4
2021-12-24 14:23:58.100192,14
2021-12-24 14:23:58.100198,30
2021-12-24 14:23:58.100204,37
2021-12-24 14:23:58.100210,37
2021-12-24 14:23:58.100217,30
2021-12-24 14:23:58.100223,11
2021-12-24 14:23:58.100229,-2
2021-12-24 14:23:58.100235,0
2021-12-24 14:23:58.100242,4
2021-12-24 14:23:58.100248,7
2021-12-24 14:23:58.100254,9
2021-12-24 14:23:58.100260,9
2021-12-24 14:23:58.100267,7
2021-12-24 14:23:58.100273,9
2021-12-24 14:23:58.100281,23
2021-12-24 14:23:58.280317,66
2021-12-24 14:23:58.280346,179
2021-12-24 14:23:58.280358,350
2021-12-24 14:23:58.280368,442
2021-12-24 14:23:58.280378,194
2021-12-24 14:23:58.280388,-473
2021-12-24 14:23:58.280398,-833
2021-12-24 14:23:58.280408,-352
2021-12-24 14:23:58.280418,104
2021-12-24 14:23:58.280427,37
2021-12-24 14:23:58.280437,0
2021-12-24 14:23:58.280447,92
2021-12-24 14:23:58.280457,75
2021-12-24 14:23:58.280466,44
2021-12-24 14:23:58.280476,75
2021-12-24 14:23:58.280486,82
2021-12-24 14:23:58.280496,66
2021-12-24 14:23:58.280510,68
2021-12-24 14:23:58.280520,73
2021-12-24 14:23:58.280530,73
2021-12-24 14:23:58.280540,75
2021-12-24 14:23:58.280549,78
2021-12-24 14:23:58.280559,80
2021-12-24 14:23:58.280569,85
2021-12-24 14:23:58.280579,94
2021-12-24 14:23:58.280588,101
2021-12-24 14:23:58.280598,111
2021-12-24 14:23:58.280608,120
2021-12-24 14:23:58.280617,134
2021-12-24 14:23:58.280627,149
2021-12-24 14:23:58.550631,163
2021-12-24 14:23:58.550661,177
2021-12-24 14:23:58.550673,189
2021-12-24 14:23:58.550683,189
2021-12-24 14:23:58.550693,175
2021-12-24 14:23:58.550703,161
2021-12-24 14:23:58.550712,144
2021-12-24 14:23:58.550730,125
2021-12-24 14:23:58.550740,94
2021-12-24 14:23:58.550750,56
2021-12-24 14:23:58.550760,18
2021-12-24 14:23:58.550769,-7
2021-12-24 14:23:58.550779,-23
2021-12-24 14:23:58.550789,-30
2021-12-24 14:23:58.550799,-30
2021-12-24 14:23:58.550809,-30
2021-12-24 14:23:58.550819,-30
2021-12-24 14:23:58.550829,-26
2021-12-24 14:23:58.550839,-18
2021-12-24 14:23:58.550848,-11
2021-12-24 14:23:58.550858,-4
2021-12-24 14:23:58.550868,4
2021-12-24 14:23:58.550878,7
2021-12-24 14:23:58.550888,9
2021-12-24 14:23:58.550898,18
2021-12-24 14:23:58.550908,23
2021-12-24 14:23:58.550918,23
2021-12-24 14:23:58.550928,26
2021-12-24 14:23:58.550938,28
2021-12-24 14:23:58.550949,30
2021-12-24 14:23:58.730685,33
2021-12-24 14:23:58.730716,33
2021-12-24 14:23:58.730728,28
2021-12-24 14:23:58.730738,18
2021-12-24 14:23:58.730748,9
2021-12-24 14:23:58.730758,7
2021-12-24 14:23:58.730768,11
2021-12-24 14:23:58.730778,23
2021-12-24 14:23:58.730788,42
2021-12-24 14:23:58.730798,56
2021-12-24 14:23:58.730808,56
2021-12-24 14:23:58.730817,47
2021-12-24 14:23:58.730827,33
2021-12-24 14:23:58.730837,21
2021-12-24 14:23:58.730847,18
2021-12-24 14:23:58.730857,21
2021-12-24 14:23:58.730867,18
2021-12-24 14:23:58.730877,23
2021-12-24 14:23:58.730887,30
2021-12-24 14:23:58.730897,35
2021-12-24 14:23:58.730907,40
2021-12-24 14:23:58.730917,49
2021-12-24 14:23:58.730926,89
2021-12-24 14:23:58.730936,196
2021-12-24 14:23:58.730954,359
2021-12-24 14:23:58.730965,471
2021-12-24 14:23:58.730974,300
2021-12-24 14:23:58.730984,-324
2021-12-24 14:23:58.730994,-809
2021-12-24 14:23:58.731004,-433
2021-12-24 14:23:59.090088,104
2021-12-24 14:23:59.090108,80
2021-12-24 14:23:59.090116,7
2021-12-24 14:23:59.090122,108
2021-12-24 14:23:59.090129,106
2021-12-24 14:23:59.090135,61
2021-12-24 14:23:59.090142,92
2021-12-24 14:23:59.090148,104
2021-12-24 14:23:59.090154,85
2021-12-24 14:23:59.090160,87
2021-12-24 14:23:59.090167,94
2021-12-24 14:23:59.090173,87
2021-12-24 14:23:59.090179,85
2021-12-24 14:23:59.090186,89
2021-12-24 14:23:59.090192,92
2021-12-24 14:23:59.090199,92
2021-12-24 14:23:59.090205,99
2021-12-24 14:23:59.090211,106
2021-12-24 14:23:59.090218,113
2021-12-24 14:23:59.090224,123
2021-12-24 14:23:59.090231,132
2021-12-24 14:23:59.090237,142
2021-12-24 14:23:59.090245,156
2021-12-24 14:23:59.090252,165
2021-12-24 14:23:59.090258,172
2021-12-24 14:23:59.090264,175
2021-12-24 14:23:59.090271,170
2021-12-24 14:23:59.090277,156
2021-12-24 14:23:59.090283,142
2021-12-24 14:23:59.090290,127
2021-12-24 14:23:59.225168,108
2021-12-24 14:23:59.225199,80
2021-12-24 14:23:59.225210,49
2021-12-24 14:23:59.225221,28
2021-12-24 14:23:59.225230,18
2021-12-24 14:23:59.225240,11
2021-12-24 14:23:59.225250,9
2021-12-24 14:23:59.225260,7
2021-12-24 14:23:59.225270,2
2021-12-24 14:23:59.225280,0
2021-12-24 14:23:59.225290,2
2021-12-24 14:23:59.225299,7
2021-12-24 14:23:59.225309,11
2021-12-24 14:23:59.225319,14
2021-12-24 14:23:59.225329,16
2021-12-24 14:23:59.225339,18
2021-12-24 14:23:59.225348,21
2021-12-24 14:23:59.225358,26
2021-12-24 14:23:59.225368,28
2021-12-24 14:23:59.225378,30
2021-12-24 14:23:59.225388,30
2021-12-24 14:23:59.225398,26
2021-12-24 14:23:59.225407,26
2021-12-24 14:23:59.225417,33
2021-12-24 14:23:59.225434,35
2021-12-24 14:23:59.225444,33
2021-12-24 14:23:59.225454,28
2021-12-24 14:23:59.225463,26
2021-12-24 14:23:59.225473,26
2021-12-24 14:23:59.225483,28
2021-12-24 14:23:59.539431,30
2021-12-24 14:23:59.539461,30
2021-12-24 14:23:59.539473,26
2021-12-24 14:23:59.539483,21
2021-12-24 14:23:59.539492,18
2021-12-24 14:23:59.539502,21
2021-12-24 14:23:59.539512,30
2021-12-24 14:23:59.539522,47
2021-12-24 14:23:59.539531,59
2021-12-24 14:23:59.539541,63
2021-12-24 14:23:59.539551,59
2021-12-24 14:23:59.539560,44
2021-12-24 14:23:59.539570,30
2021-12-24 14:23:59.539580,23
2021-12-24 14:23:59.539590,23
2021-12-24 14:23:59.539599,26
2021-12-24 14:23:59.539609,23
2021-12-24 14:23:59.539619,26
2021-12-24 14:23:59.539628,33
2021-12-24 14:23:59.539638,37
2021-12-24 14:23:59.539648,40
2021-12-24 14:23:59.539658,66
2021-12-24 14:23:59.539668,144
2021-12-24 14:23:59.539677,281
2021-12-24 14:23:59.539687,433
2021-12-24 14:23:59.539697,414
2021-12-24 14:23:59.539706,-47
2021-12-24 14:23:59.539716,-712
2021-12-24 14:23:59.539726,-682
2021-12-24 14:23:59.539736,-66
2021-12-24 14:23:59.675149,132
2021-12-24 14:23:59.675179,4
2021-12-24 14:23:59.675191,66
2021-12-24 14:23:59.675201,123
2021-12-24 14:23:59.675211,73
2021-12-24 14:23:59.675221,80
2021-12-24 14:23:59.675230,106
2021-12-24 14:23:59.675240,89
2021-12-24 14:23:59.675250,80
2021-12-24 14:23:59.675259,92
2021-12-24 14:23:59.675269,89
2021-12-24 14:23:59.675278,85
2021-12-24 14:23:59.675288,82
2021-12-24 14:23:59.675298,82
2021-12-24 14:23:59.675307,80
2021-12-24 14:23:59.675317,80
2021-12-24 14:23:59.675326,80
2021-12-24 14:23:59.675336,87
2021-12-24 14:23:59.675346,99
2021-12-24 14:23:59.675355,108
2021-12-24 14:23:59.675365,111
2021-12-24 14:23:59.675375,118
2021-12-24 14:23:59.675384,130
2021-12-24 14:23:59.675394,137
2021-12-24 14:23:59.675404,134
2021-12-24 14:23:59.675413,130
2021-12-24 14:23:59.675423,123
2021-12-24 14:23:59.675433,111
2021-12-24 14:23:59.675442,99
2021-12-24 14:23:59.675452,85
2021-12-24 14:23:59.945563,63
2021-12-24 14:23:59.945593,40
2021-12-24 14:23:59.945604,23
2021-12-24 14:23:59.945614,9
2021-12-24 14:23:59.945624,-2
2021-12-24 14:23:59.945635,-2
2021-12-24 14:23:59.945644,-2
2021-12-24 14:23:59.945654,-9
2021-12-24 14:23:59.945664,-4
2021-12-24 14:23:59.945674,4
2021-12-24 14:23:59.945690,14
2021-12-24 14:23:59.945700,16
2021-12-24 14:23:59.945710,14
2021-12-24 14:23:59.945720,18
2021-12-24 14:23:59.945729,26
2021-12-24 14:23:59.945739,28
2021-12-24 14:23:59.945749,28
2021-12-24 14:23:59.945759,30
2021-12-24 14:23:59.945768,28
2021-12-24 14:23:59.945778,28
2021-12-24 14:23:59.945788,28
2021-12-24 14:23:59.945798,21
2021-12-24 14:23:59.945808,21
2021-12-24 14:23:59.945818,23
2021-12-24 14:23:59.945827,26
2021-12-24 14:23:59.945837,23
2021-12-24 14:23:59.945847,23
2021-12-24 14:23:59.945857,21
2021-12-24 14:23:59.945866,21
2021-12-24 14:23:59.945876,21
2021-12-24 14:24:00.125134,11
2021-12-24 14:24:00.125167,9
2021-12-24 14:24:00.125179,16
2021-12-24 14:24:00.125189,7
2021-12-24 14:24:00.125199,-4
2021-12-24 14:24:00.125209,-4
2021-12-24 14:24:00.125219,2
2021-12-24 14:24:00.125229,11
2021-12-24 14:24:00.125239,23
2021-12-24 14:24:00.125249,33
2021-12-24 14:24:00.125258,28
2021-12-24 14:24:00.125268,11
2021-12-24 14:24:00.125278,-2
2021-12-24 14:24:00.125288,-7
2021-12-24 14:24:00.125297,-9
2021-12-24 14:24:00.125307,-14
2021-12-24 14:24:00.125317,-9
2021-12-24 14:24:00.125326,-9
2021-12-24 14:24:00.125336,-11
2021-12-24 14:24:00.125346,-4
2021-12-24 14:24:00.125355,-4
2021-12-24 14:24:00.125365,7
2021-12-24 14:24:00.125375,59
2021-12-24 14:24:00.125384,177
2021-12-24 14:24:00.125394,359
2021-12-24 14:24:00.125411,461
2021-12-24 14:24:00.125421,142
2021-12-24 14:24:00.125431,-618
2021-12-24 14:24:00.125441,-928
2021-12-24 14:24:00.125450,-393
2021-12-24 14:24:00.350558,49
2021-12-24 14:24:00.350589,9
2021-12-24 14:24:00.350601,2
2021-12-24 14:24:00.350611,87
2021-12-24 14:24:00.350621,66
2021-12-24 14:24:00.350631,37
2021-12-24 14:24:00.350641,63
2021-12-24 14:24:00.350651,73
2021-12-24 14:24:00.350661,66
2021-12-24 14:24:00.350671,73
2021-12-24 14:24:00.350681,71
2021-12-24 14:24:00.350690,59
2021-12-24 14:24:00.350700,66
2021-12-24 14:24:00.350710,80
2021-12-24 14:24:00.350720,89
2021-12-24 14:24:00.350730,89
2021-12-24 14:24:00.350740,87
2021-12-24 14:24:00.350749,94
2021-12-24 14:24:00.350759,108
2021-12-24 14:24:00.350769,118
2021-12-24 14:24:00.350779,127
2021-12-24 14:24:00.350789,142
2021-12-24 14:24:00.350799,158
2021-12-24 14:24:00.350808,170
2021-12-24 14:24:00.350818,177
2021-12-24 14:24:00.350828,182
2021-12-24 14:24:00.350838,179
2021-12-24 14:24:00.350848,168
2021-12-24 14:24:00.350858,149
2021-12-24 14:24:00.350868,134
2021-12-24 14:24:00.575554,116
2021-12-24 14:24:00.575585,82
2021-12-24 14:24:00.575597,47
2021-12-24 14:24:00.575607,18
2021-12-24 14:24:00.575617,-11
2021-12-24 14:24:00.575627,-33
2021-12-24 14:24:00.575637,-35
2021-12-24 14:24:00.575646,-30
2021-12-24 14:24:00.575656,-28
2021-12-24 14:24:00.575666,-26
2021-12-24 14:24:00.575676,-26
2021-12-24 14:24:00.575686,-21
2021-12-24 14:24:00.575696,-11
2021-12-24 14:24:00.575706,-2
2021-12-24 14:24:00.575715,-2
2021-12-24 14:24:00.575725,-2
2021-12-24 14:24:00.575739,7
2021-12-24 14:24:00.575749,14
2021-12-24 14:24:00.575759,16
2021-12-24 14:24:00.575769,21
2021-12-24 14:24:00.575779,16
2021-12-24 14:24:00.575788,9
2021-12-24 14:24:00.575798,14
2021-12-24 14:24:00.575808,16
2021-12-24 14:24:00.575818,14
2021-12-24 14:24:00.575827,9
2021-12-24 14:24:00.575837,2
2021-12-24 14:24:00.575847,-4
2021-12-24 14:24:00.575857,-4
2021-12-24 14:24:00.575866,-2
2021-12-24 14:24:00.845197,11
2021-12-24 14:24:00.845219,30
2021-12-24 14:24:00.845227,35
2021-12-24 14:24:00.845233,18
2021-12-24 14:24:00.845240,-2
2021-12-24 14:24:00.845247,-11
2021-12-24 14:24:00.845253,-9
2021-12-24 14:24:00.845260,-2
2021-12-24 14:24:00.845266,2
2021-12-24 14:24:00.845273,2
2021-12-24 14:24:00.845279,-2
2021-12-24 14:24:00.845286,2
2021-12-24 14:24:00.845292,14
2021-12-24 14:24:00.845299,30
2021-12-24 14:24:00.845305,61
2021-12-24 14:24:00.845312,163
2021-12-24 14:24:00.845319,345
2021-12-24 14:24:00.845326,473
2021-12-24 14:24:00.845333,234
2021-12-24 14:24:00.845339,-480
2021-12-24 14:24:00.845383,-907
2021-12-24 14:24:00.845415,-461
2021-12-24 14:24:00.845427,44
2021-12-24 14:24:00.845438,59
2021-12-24 14:24:00.845473,35
2021-12-24 14:24:00.845481,113
2021-12-24 14:24:00.845488,106
2021-12-24 14:24:00.845494,75
2021-12-24 14:24:00.845501,92
2021-12-24 14:24:00.845507,97
2021-12-24 14:24:01.070525,89
2021-12-24 14:24:01.070556,99
2021-12-24 14:24:01.070568,104
2021-12-24 14:24:01.070578,97
2021-12-24 14:24:01.070588,94
2021-12-24 14:24:01.070597,104
2021-12-24 14:24:01.070607,111
2021-12-24 14:24:01.070617,113
2021-12-24 14:24:01.070627,116
2021-12-24 14:24:01.070637,118
2021-12-24 14:24:01.070647,130
2021-12-24 14:24:01.070657,146
2021-12-24 14:24:01.070666,161
2021-12-24 14:24:01.070683,170
2021-12-24 14:24:01.070693,187
2021-12-24 14:24:01.070703,201
2021-12-24 14:24:01.070713,210
2021-12-24 14:24:01.070723,217
2021-12-24 14:24:01.070732,217
2021-12-24 14:24:01.070742,206
2021-12-24 14:24:01.070752,189
2021-12-24 14:24:01.070762,165
2021-12-24 14:24:01.070772,132
2021-12-24 14:24:01.070781,94
2021-12-24 14:24:01.070791,59
2021-12-24 14:24:01.070801,28
2021-12-24 14:24:01.070811,0
2021-12-24 14:24:01.070821,-14
2021-12-24 14:24:01.070831,-21
2021-12-24 14:24:01.070840,-21
2021-12-24 14:24:01.295122,-18
2021-12-24 14:24:01.295153,-16
2021-12-24 14:24:01.295165,-18
2021-12-24 14:24:01.295175,-18
2021-12-24 14:24:01.295185,-11
2021-12-24 14:24:01.295195,-2
2021-12-24 14:24:01.295206,0
2021-12-24 14:24:01.295216,2
2021-12-24 14:24:01.295226,7
2021-12-24 14:24:01.295235,4
2021-12-24 14:24:01.295245,7
2021-12-24 14:24:01.295255,16
2021-12-24 14:24:01.295265,16
2021-12-24 14:24:01.295275,11
2021-12-24 14:24:01.295284,9
2021-12-24 14:24:01.295294,7
2021-12-24 14:24:01.295304,0
2021-12-24 14:24:01.295314,0
2021-12-24 14:24:01.295324,0
2021-12-24 14:24:01.295334,7
2021-12-24 14:24:01.295344,18
2021-12-24 14:24:01.295354,30
2021-12-24 14:24:01.295363,33
2021-12-24 14:24:01.295373,26
2021-12-24 14:24:01.295383,4
2021-12-24 14:24:01.295393,-9
2021-12-24 14:24:01.295403,-9
2021-12-24 14:24:01.295412,-9
2021-12-24 14:24:01.295422,-9
2021-12-24 14:24:01.295432,-2
2021-12-24 14:24:01.608779,7
2021-12-24 14:24:01.608811,4
2021-12-24 14:24:01.608823,4
2021-12-24 14:24:01.608833,18
2021-12-24 14:24:01.608843,75
2021-12-24 14:24:01.608853,196
2021-12-24 14:24:01.608863,355
2021-12-24 14:24:01.608872,395
2021-12-24 14:24:01.608882,26
2021-12-24 14:24:01.608892,-658
2021-12-24 14:24:01.608902,-802
2021-12-24 14:24:01.608912,-213
2021-12-24 14:24:01.608922,123
2021-12-24 14:24:01.608932,9
2021-12-24 14:24:01.608941,21
2021-12-24 14:24:01.608951,108
2021-12-24 14:24:01.608961,71
2021-12-24 14:24:01.608978,56
2021-12-24 14:24:01.608988,92
2021-12-24 14:24:01.608997,89
2021-12-24 14:24:01.609007,78
2021-12-24 14:24:01.609017,85
2021-12-24 14:24:01.609027,87
2021-12-24 14:24:01.609037,87
2021-12-24 14:24:01.609047,94
2021-12-24 14:24:01.609056,97
2021-12-24 14:24:01.609066,94
2021-12-24 14:24:01.609076,99
2021-12-24 14:24:01.609086,108
2021-12-24 14:24:01.609096,116
2021-12-24 14:24:01.790599,120
2021-12-24 14:24:01.790630,132
2021-12-24 14:24:01.790642,146
2021-12-24 14:24:01.790652,158
2021-12-24 14:24:01.790662,172
2021-12-24 14:24:01.790672,179
2021-12-24 14:24:01.790682,182
2021-12-24 14:24:01.790692,175
2021-12-24 14:24:01.790702,163
2021-12-24 14:24:01.790711,149
2021-12-24 14:24:01.790721,137
2021-12-24 14:24:01.790731,118
2021-12-24 14:24:01.790741,82
2021-12-24 14:24:01.790751,47
2021-12-24 14:24:01.790761,23
2021-12-24 14:24:01.790771,7
2021-12-24 14:24:01.790781,-4
2021-12-24 14:24:01.790791,-11
2021-12-24 14:24:01.790801,-16
2021-12-24 14:24:01.790811,-16
2021-12-24 14:24:01.790821,-7
2021-12-24 14:24:01.790831,-4
2021-12-24 14:24:01.790841,-7
2021-12-24 14:24:01.790850,-2
2021-12-24 14:24:01.790860,7
2021-12-24 14:24:01.790870,11
2021-12-24 14:24:01.790880,14
2021-12-24 14:24:01.790890,18
2021-12-24 14:24:01.790900,23
2021-12-24 14:24:01.790909,26
2021-12-24 14:24:01.970570,26
2021-12-24 14:24:01.970601,23
2021-12-24 14:24:01.970612,23
2021-12-24 14:24:01.970623,23
2021-12-24 14:24:01.970633,26
2021-12-24 14:24:01.970642,30
2021-12-24 14:24:01.970652,26
2021-12-24 14:24:01.970662,18
2021-12-24 14:24:01.970672,11
2021-12-24 14:24:01.970682,9
2021-12-24 14:24:01.970691,14
2021-12-24 14:24:01.970701,23
2021-12-24 14:24:01.970711,33
2021-12-24 14:24:01.970721,40
2021-12-24 14:24:01.970731,47
2021-12-24 14:24:01.970740,42
2021-12-24 14:24:01.970750,21
2021-12-24 14:24:01.970760,7
2021-12-24 14:24:01.970770,7
2021-12-24 14:24:01.970780,14
2021-12-24 14:24:01.970790,16
2021-12-24 14:24:01.970799,14
2021-12-24 14:24:01.970809,16
2021-12-24 14:24:01.970819,23
2021-12-24 14:24:01.970828,28
2021-12-24 14:24:01.970838,44
2021-12-24 14:24:01.970848,101
2021-12-24 14:24:01.970857,220
2021-12-24 14:24:01.970867,383
2021-12-24 14:24:01.970885,454
2021-12-24 14:24:02.240135,144
2021-12-24 14:24:02.240156,-558
2021-12-24 14:24:02.240164,-843
2021-12-24 14:24:02.240171,-300
2021-12-24 14:24:02.240177,127
2021-12-24 14:24:02.240183,40
2021-12-24 14:24:02.240190,18
2021-12-24 14:24:02.240196,116
2021-12-24 14:24:02.240203,94
2021-12-24 14:24:02.240209,63
2021-12-24 14:24:02.240215,89
2021-12-24 14:24:02.240222,85
2021-12-24 14:24:02.240228,71
2021-12-24 14:24:02.240235,80
2021-12-24 14:24:02.240241,80
2021-12-24 14:24:02.240247,71
2021-12-24 14:24:02.240254,75
2021-12-24 14:24:02.240260,82
2021-12-24 14:24:02.240266,85
2021-12-24 14:24:02.240273,92
2021-12-24 14:24:02.240279,97
2021-12-24 14:24:02.240285,101
2021-12-24 14:24:02.240291,111
2021-12-24 14:24:02.240298,125
2021-12-24 14:24:02.240304,132
2021-12-24 14:24:02.240310,142
2021-12-24 14:24:02.240317,153
2021-12-24 14:24:02.240323,168
2021-12-24 14:24:02.240329,175
2021-12-24 14:24:02.240336,170
2021-12-24 14:24:02.465166,161
2021-12-24 14:24:02.465197,151
2021-12-24 14:24:02.465209,137
2021-12-24 14:24:02.465219,118
2021-12-24 14:24:02.465229,92
2021-12-24 14:24:02.465238,56
2021-12-24 14:24:02.465249,30
2021-12-24 14:24:02.465258,11
2021-12-24 14:24:02.465268,-2
2021-12-24 14:24:02.465278,-7
2021-12-24 14:24:02.465288,-11
2021-12-24 14:24:02.465298,-11
2021-12-24 14:24:02.465307,-7
2021-12-24 14:24:02.465317,0
2021-12-24 14:24:02.465327,0
2021-12-24 14:24:02.465337,-2
2021-12-24 14:24:02.465347,4
2021-12-24 14:24:02.465356,14
2021-12-24 14:24:02.465366,18
2021-12-24 14:24:02.465376,18
2021-12-24 14:24:02.465385,18
2021-12-24 14:24:02.465395,16
2021-12-24 14:24:02.465405,16
2021-12-24 14:24:02.465414,16
2021-12-24 14:24:02.465424,14
2021-12-24 14:24:02.465433,16
2021-12-24 14:24:02.465443,18
2021-12-24 14:24:02.465453,18
2021-12-24 14:24:02.465462,18
2021-12-24 14:24:02.465472,18
2021-12-24 14:24:02.735627,18
2021-12-24 14:24:02.735659,18
2021-12-24 14:24:02.735670,21
2021-12-24 14:24:02.735681,9
2021-12-24 14:24:02.735690,4
2021-12-24 14:24:02.735700,7
2021-12-24 14:24:02.735710,11
2021-12-24 14:24:02.735720,26
2021-12-24 14:24:02.735730,44
2021-12-24 14:24:02.735739,49
2021-12-24 14:24:02.735749,44
2021-12-24 14:24:02.735759,35
2021-12-24 14:24:02.735769,18
2021-12-24 14:24:02.735779,4
2021-12-24 14:24:02.735789,9
2021-12-24 14:24:02.735798,14
2021-12-24 14:24:02.735808,11
2021-12-24 14:24:02.735818,16
2021-12-24 14:24:02.735828,21
2021-12-24 14:24:02.735838,18
2021-12-24 14:24:02.735856,21
2021-12-24 14:24:02.735866,52
2021-12-24 14:24:02.735876,125
2021-12-24 14:24:02.735885,258
2021-12-24 14:24:02.735895,397
2021-12-24 14:24:02.735905,364
2021-12-24 14:24:02.735915,-101
2021-12-24 14:24:02.735925,-769
2021-12-24 14:24:02.735935,-750
2021-12-24 14:24:02.735945,-106
2021-12-24 14:24:03.004990,137
2021-12-24 14:24:03.005020,9
2021-12-24 14:24:03.005032,54
2021-12-24 14:24:03.005042,123
2021-12-24 14:24:03.005052,73
2021-12-24 14:24:03.005062,68
2021-12-24 14:24:03.005072,101
2021-12-24 14:24:03.005082,94
2021-12-24 14:24:03.005092,82
2021-12-24 14:24:03.005102,85
2021-12-24 14:24:03.005112,87
2021-12-24 14:24:03.005121,89
2021-12-24 14:24:03.005131,94
2021-12-24 14:24:03.005141,99
2021-12-24 14:24:03.005151,101
2021-12-24 14:24:03.005161,99
2021-12-24 14:24:03.005171,101
2021-12-24 14:24:03.005181,111
2021-12-24 14:24:03.005191,123
2021-12-24 14:24:03.005201,130
2021-12-24 14:24:03.005210,130
2021-12-24 14:24:03.005220,137
2021-12-24 14:24:03.005230,149
2021-12-24 14:24:03.005239,153
2021-12-24 14:24:03.005249,156
2021-12-24 14:24:03.005259,151
2021-12-24 14:24:03.005269,139
2021-12-24 14:24:03.005279,123
2021-12-24 14:24:03.005288,111
2021-12-24 14:24:03.005298,99
2021-12-24 14:24:03.140573,82
2021-12-24 14:24:03.140603,59
2021-12-24 14:24:03.140615,40
2021-12-24 14:24:03.140625,28
2021-12-24 14:24:03.140635,26
2021-12-24 14:24:03.140645,23
2021-12-24 14:24:03.140654,23
2021-12-24 14:24:03.140664,28
2021-12-24 14:24:03.140674,30
2021-12-24 14:24:03.140684,33
2021-12-24 14:24:03.140694,42
2021-12-24 14:24:03.140704,54
2021-12-24 14:24:03.140714,56
2021-12-24 14:24:03.140724,54
2021-12-24 14:24:03.140733,54
2021-12-24 14:24:03.140743,56
2021-12-24 14:24:03.140753,56
2021-12-24 14:24:03.140763,54
2021-12-24 14:24:03.140773,56
2021-12-24 14:24:03.140782,54
2021-12-24 14:24:03.140792,44
2021-12-24 14:24:03.140802,42
2021-12-24 14:24:03.140812,44
2021-12-24 14:24:03.140821,40
2021-12-24 14:24:03.140831,30
2021-12-24 14:24:03.140841,23
2021-12-24 14:24:03.140851,23
2021-12-24 14:24:03.140861,26
2021-12-24 14:24:03.140871,21
2021-12-24 14:24:03.140881,16
2021-12-24 14:24:03.365273,16
2021-12-24 14:24:03.365296,21
2021-12-24 14:24:03.365304,35
2021-12-24 14:24:03.365311,56
2021-12-24 14:24:03.365318,66
2021-12-24 14:24:03.365324,52
2021-12-24 14:24:03.365330,33
2021-12-24 14:24:03.365337,14
2021-12-24 14:24:03.365343,7
2021-12-24 14:24:03.365350,14
2021-12-24 14:24:03.365356,14
2021-12-24 14:24:03.365363,11
2021-12-24 14:24:03.365369,16
2021-12-24 14:24:03.365376,21
2021-12-24 14:24:03.365382,26
2021-12-24 14:24:03.365389,30
2021-12-24 14:24:03.365395,68
2021-12-24 14:24:03.365402,168
2021-12-24 14:24:03.365408,326
2021-12-24 14:24:03.365415,445
2021-12-24 14:24:03.365421,269
2021-12-24 14:24:03.365427,-371
2021-12-24 14:24:03.365440,-895
2021-12-24 14:24:03.365447,-549
2021-12-24 14:24:03.365453,37
2021-12-24 14:24:03.365460,78
2021-12-24 14:24:03.365467,-7
2021-12-24 14:24:03.365473,89
2021-12-24 14:24:03.365480,108
2021-12-24 14:24:03.365486,66
2021-12-24 14:24:03.634404,85
2021-12-24 14:24:03.634435,101
2021-12-24 14:24:03.634447,87
2021-12-24 14:24:03.634457,89
2021-12-24 14:24:03.634467,99
2021-12-24 14:24:03.634477,94
2021-12-24 14:24:03.634487,89
2021-12-24 14:24:03.634497,94
2021-12-24 14:24:03.634507,99
2021-12-24 14:24:03.634517,99
2021-12-24 14:24:03.634526,104
2021-12-24 14:24:03.634536,108
2021-12-24 14:24:03.634546,111
2021-12-24 14:24:03.634556,118
2021-12-24 14:24:03.634566,127
2021-12-24 14:24:03.634575,137
2021-12-24 14:24:03.634585,146
2021-12-24 14:24:03.634595,156
2021-12-24 14:24:03.634605,163
2021-12-24 14:24:03.634614,163
2021-12-24 14:24:03.634624,153
2021-12-24 14:24:03.634634,139
2021-12-24 14:24:03.634644,125
2021-12-24 14:24:03.634653,113
2021-12-24 14:24:03.634663,97
2021-12-24 14:24:03.634673,75
2021-12-24 14:24:03.634683,49
2021-12-24 14:24:03.634693,28
2021-12-24 14:24:03.634703,16
2021-12-24 14:24:03.634713,9
2021-12-24 14:24:03.815577,2
2021-12-24 14:24:03.815607,0
2021-12-24 14:24:03.815619,7
2021-12-24 14:24:03.815630,14
2021-12-24 14:24:03.815640,18
2021-12-24 14:24:03.815650,21
2021-12-24 14:24:03.815660,21
2021-12-24 14:24:03.815670,28
2021-12-24 14:24:03.815680,40
2021-12-24 14:24:03.815690,44
2021-12-24 14:24:03.815700,42
2021-12-24 14:24:03.815710,47
2021-12-24 14:24:03.815719,49
2021-12-24 14:24:03.815729,49
2021-12-24 14:24:03.815739,47
2021-12-24 14:24:03.815749,47
2021-12-24 14:24:03.815759,47
2021-12-24 14:24:03.815769,47
2021-12-24 14:24:03.815779,44
2021-12-24 14:24:03.815789,47
2021-12-24 14:24:03.815798,47
2021-12-24 14:24:03.815808,42
2021-12-24 14:24:03.815818,33
2021-12-24 14:24:03.815828,23
2021-12-24 14:24:03.815838,23
2021-12-24 14:24:03.815847,35
2021-12-24 14:24:03.815857,54
2021-12-24 14:24:03.815867,71
2021-12-24 14:24:03.815877,78
2021-12-24 14:24:03.815887,71
2021-12-24 14:24:04.084466,52
2021-12-24 14:24:04.084487,33
2021-12-24 14:24:04.084494,28
2021-12-24 14:24:04.084501,35
2021-12-24 14:24:04.084507,33
2021-12-24 14:24:04.084514,26
2021-12-24 14:24:04.084520,30
2021-12-24 14:24:04.084526,40
2021-12-24 14:24:04.084533,42
2021-12-24 14:24:04.084539,47
2021-12-24 14:24:04.084546,71
2021-12-24 14:24:04.084552,156
2021-12-24 14:24:04.084558,322
2021-12-24 14:24:04.084565,478
2021-12-24 14:24:04.084571,386
2021-12-24 14:24:04.084577,-198
2021-12-24 14:24:04.084584,-833
2021-12-24 14:24:04.084590,-646
2021-12-24 14:24:04.084601,-14
2021-12-24 14:24:04.084608,127
2021-12-24 14:24:04.084628,23
2021-12-24 14:24:04.084633,99
2021-12-24 14:24:04.084638,134
2021-12-24 14:24:04.084644,80
2021-12-24 14:24:04.084649,87
2021-12-24 14:24:04.084654,113
2021-12-24 14:24:04.084659,104
2021-12-24 14:24:04.084664,97
2021-12-24 14:24:04.084670,104
2021-12-24 14:24:04.084675,104
2021-12-24 14:24:04.309549,106
2021-12-24 14:24:04.309579,108
2021-12-24 14:24:04.309591,106
2021-12-24 14:24:04.309601,104
2021-12-24 14:24:04.309611,104
2021-12-24 14:24:04.309625,104
2021-12-24 14:24:04.309635,104
2021-12-24 14:24:04.309645,113
2021-12-24 14:24:04.309655,127
2021-12-24 14:24:04.309665,130
2021-12-24 14:24:04.309674,130
2021-12-24 14:24:04.309684,144
2021-12-24 14:24:04.309694,151
2021-12-24 14:24:04.309703,146
2021-12-24 14:24:04.309713,139
2021-12-24 14:24:04.309723,130
2021-12-24 14:24:04.309733,113
2021-12-24 14:24:04.309743,101
2021-12-24 14:24:04.309753,92
2021-12-24 14:24:04.309763,71
2021-12-24 14:24:04.309773,47
2021-12-24 14:24:04.309782,26
2021-12-24 14:24:04.309792,11
2021-12-24 14:24:04.309802,2
2021-12-24 14:24:04.309811,2
2021-12-24 14:24:04.309821,4
2021-12-24 14:24:04.309831,7
2021-12-24 14:24:04.309841,7
2021-12-24 14:24:04.309850,9
2021-12-24 14:24:04.309860,14
2021-12-24 14:24:04.535651,18
2021-12-24 14:24:04.535682,26
2021-12-24 14:24:04.535694,30
2021-12-24 14:24:04.535704,26
2021-12-24 14:24:04.535714,23
2021-12-24 14:24:04.535724,26
2021-12-24 14:24:04.535734,26
2021-12-24 14:24:04.535743,26
2021-12-24 14:24:04.535753,26
2021-12-24 14:24:04.535763,18
2021-12-24 14:24:04.535773,14
2021-12-24 14:24:04.535783,11
2021-12-24 14:24:04.535793,11
2021-12-24 14:24:04.535802,21
2021-12-24 14:24:04.535812,37
2021-12-24 14:24:04.535822,42
2021-12-24 14:24:04.535832,35
2021-12-24 14:24:04.535842,21
2021-12-24 14:24:04.535852,-2
2021-12-24 14:24:04.535862,-18
2021-12-24 14:24:04.535871,-16
2021-12-24 14:24:04.535881,-7
2021-12-24 14:24:04.535891,-4
2021-12-24 14:24:04.535901,-4
2021-12-24 14:24:04.535911,-2
2021-12-24 14:24:04.535920,4
2021-12-24 14:24:04.535930,7
2021-12-24 14:24:04.535940,14
2021-12-24 14:24:04.535950,61
2021-12-24 14:24:04.535960,175
2021-12-24 14:24:04.760257,343
2021-12-24 14:24:04.760285,414
2021-12-24 14:24:04.760298,54
2021-12-24 14:24:04.760310,-674
2021-12-24 14:24:04.760323,-899
2021-12-24 14:24:04.760336,-376
2021-12-24 14:24:04.760349,23
2021-12-24 14:24:04.760361,28
2021-12-24 14:24:04.760374,35
2021-12-24 14:24:04.760387,85
2021-12-24 14:24:04.760400,71
2021-12-24 14:24:04.760412,56
2021-12-24 14:24:04.760425,66
2021-12-24 14:24:04.760436,66
2021-12-24 14:24:04.760448,59
2021-12-24 14:24:04.760460,63
2021-12-24 14:24:04.760471,68
2021-12-24 14:24:04.760481,66
2021-12-24 14:24:04.760493,78
2021-12-24 14:24:04.760504,89
2021-12-24 14:24:04.760514,80
2021-12-24 14:24:04.760526,78
2021-12-24 14:24:04.760537,97
2021-12-24 14:24:04.760549,113
2021-12-24 14:24:04.760559,116
2021-12-24 14:24:04.760571,125
2021-12-24 14:24:04.760582,144
2021-12-24 14:24:04.760593,156
2021-12-24 14:24:04.760604,168
2021-12-24 14:24:04.760615,184
2021-12-24 14:24:04.985724,191
2021-12-24 14:24:04.985755,182
2021-12-24 14:24:04.985767,177
2021-12-24 14:24:04.985778,175
2021-12-24 14:24:04.985788,158
2021-12-24 14:24:04.985798,134
2021-12-24 14:24:04.985807,111
2021-12-24 14:24:04.985817,68
2021-12-24 14:24:04.985827,18
2021-12-24 14:24:04.985837,-11
2021-12-24 14:24:04.985847,-33
2021-12-24 14:24:04.985857,-52
2021-12-24 14:24:04.985867,-47
2021-12-24 14:24:04.985877,-40
2021-12-24 14:24:04.985887,-49
2021-12-24 14:24:04.985897,-40
2021-12-24 14:24:04.985907,-23
2021-12-24 14:24:04.985916,-21
2021-12-24 14:24:04.985926,-16
2021-12-24 14:24:04.985936,-7
2021-12-24 14:24:04.985946,-4
2021-12-24 14:24:04.985967,-4
2021-12-24 14:24:04.985977,-4
2021-12-24 14:24:04.985987,2
2021-12-24 14:24:04.985997,9
2021-12-24 14:24:04.986007,7
2021-12-24 14:24:04.986023,4
2021-12-24 14:24:04.986037,14
2021-12-24 14:24:04.986047,26
2021-12-24 14:24:04.986057,28
2021-12-24 14:24:05.210201,26
2021-12-24 14:24:05.210226,16
2021-12-24 14:24:05.210233,-7
2021-12-24 14:24:05.210240,-23
2021-12-24 14:24:05.210246,-23
2021-12-24 14:24:05.210253,-26
2021-12-24 14:24:05.210259,-33
2021-12-24 14:24:05.210265,-35
2021-12-24 14:24:05.210272,-26
2021-12-24 14:24:05.210278,-14
2021-12-24 14:24:05.210284,-21
2021-12-24 14:24:05.210291,-11
2021-12-24 14:24:05.210297,33
2021-12-24 14:24:05.210303,142
2021-12-24 14:24:05.210309,303
2021-12-24 14:24:05.210316,331
2021-12-24 14:24:05.210322,-111
2021-12-24 14:24:05.210328,-800
2021-12-24 14:24:05.210335,-847
2021-12-24 14:24:05.210341,-262
2021-12-24 14:24:05.210347,47
2021-12-24 14:24:05.210354,2
2021-12-24 14:24:05.210360,28
2021-12-24 14:24:05.210366,80
2021-12-24 14:24:05.210372,54
2021-12-24 14:24:05.210379,44
2021-12-24 14:24:05.210385,68
2021-12-24 14:24:05.210391,71
2021-12-24 14:24:05.210397,66
2021-12-24 14:24:05.210403,75
2021-12-24 14:24:05.480250,75
2021-12-24 14:24:05.480280,73
2021-12-24 14:24:05.480293,78
2021-12-24 14:24:05.480303,85
2021-12-24 14:24:05.480313,82
2021-12-24 14:24:05.480323,85
2021-12-24 14:24:05.480332,94
2021-12-24 14:24:05.480342,104
2021-12-24 14:24:05.480352,108
2021-12-24 14:24:05.480362,118
2021-12-24 14:24:05.480371,134
2021-12-24 14:24:05.480381,146
2021-12-24 14:24:05.480391,156
2021-12-24 14:24:05.480401,172
2021-12-24 14:24:05.480410,179
2021-12-24 14:24:05.480420,175
2021-12-24 14:24:05.480430,165
2021-12-24 14:24:05.480440,156
2021-12-24 14:24:05.480450,142
2021-12-24 14:24:05.480459,125
2021-12-24 14:24:05.480469,94
2021-12-24 14:24:05.480479,49
2021-12-24 14:24:05.480488,11
2021-12-24 14:24:05.480498,-11
2021-12-24 14:24:05.480508,-18
2021-12-24 14:24:05.480517,-26
2021-12-24 14:24:05.480527,-26
2021-12-24 14:24:05.480537,-21
2021-12-24 14:24:05.480547,-16
2021-12-24 14:24:05.480556,-11
2021-12-24 14:24:05.711679,-2
2021-12-24 14:24:05.711696,4
2021-12-24 14:24:05.711702,7
2021-12-24 14:24:05.711707,11
2021-12-24 14:24:05.711711,14
2021-12-24 14:24:05.711715,14
2021-12-24 14:24:05.711720,11
2021-12-24 14:24:05.711724,11
2021-12-24 14:24:05.711728,9
2021-12-24 14:24:05.711733,16
2021-12-24 14:24:05.711737,30
2021-12-24 14:24:05.711742,42
2021-12-24 14:24:05.711746,47
2021-12-24 14:24:05.711750,54
2021-12-24 14:24:05.711755,40
2021-12-24 14:24:05.711759,11
2021-12-24 14:24:05.711764,2
2021-12-24 14:24:05.711768,7
2021-12-24 14:24:05.711772,4
2021-12-24 14:24:05.711777,2
2021-12-24 14:24:05.711781,9
2021-12-24 14:24:05.711785,14
2021-12-24 14:24:05.711790,16
2021-12-24 14:24:05.711794,9
2021-12-24 14:24:05.711799,4
2021-12-24 14:24:05.711803,47
2021-12-24 14:24:05.711807,172
2021-12-24 14:24:05.711812,319
2021-12-24 14:24:05.711816,293
2021-12-24 14:24:05.711820,-172
2021-12-24 14:24:05.885698,-772
2021-12-24 14:24:05.885728,-665
2021-12-24 14:24:05.885740,-73
2021-12-24 14:24:05.885750,106
2021-12-24 14:24:05.885761,2
2021-12-24 14:24:05.885770,47
2021-12-24 14:24:05.885780,92
2021-12-24 14:24:05.885790,52
2021-12-24 14:24:05.885800,52
2021-12-24 14:24:05.885810,71
2021-12-24 14:24:05.885820,56
2021-12-24 14:24:05.885829,52
2021-12-24 14:24:05.885839,68
2021-12-24 14:24:05.885849,66
2021-12-24 14:24:05.885858,61
2021-12-24 14:24:05.885868,68
2021-12-24 14:24:05.885878,75
2021-12-24 14:24:05.885887,73
2021-12-24 14:24:05.885897,78
2021-12-24 14:24:05.885907,92
2021-12-24 14:24:05.885916,99
2021-12-24 14:24:05.885926,106
2021-12-24 14:24:05.885936,118
2021-12-24 14:24:05.885945,130
2021-12-24 14:24:05.885955,139
2021-12-24 14:24:05.885965,153
2021-12-24 14:24:05.885975,161
2021-12-24 14:24:05.885984,161
2021-12-24 14:24:05.885994,158
2021-12-24 14:24:05.886004,149
2021-12-24 14:24:06.110254,134
2021-12-24 14:24:06.110285,123
2021-12-24 14:24:06.110299,104
2021-12-24 14:24:06.110312,68
2021-12-24 14:24:06.110324,35
2021-12-24 14:24:06.110335,16
2021-12-24 14:24:06.110345,2
2021-12-24 14:24:06.110355,-7
2021-12-24 14:24:06.110366,-9
2021-12-24 14:24:06.110375,-11
2021-12-24 14:24:06.110385,-14
2021-12-24 14:24:06.110398,-11
2021-12-24 14:24:06.110409,-4
2021-12-24 14:24:06.110419,9
2021-12-24 14:24:06.110429,16
2021-12-24 14:24:06.110439,18
2021-12-24 14:24:06.110449,21
2021-12-24 14:24:06.110460,30
2021-12-24 14:24:06.110472,33
2021-12-24 14:24:06.110484,26
2021-12-24 14:24:06.110496,26
2021-12-24 14:24:06.110508,33
2021-12-24 14:24:06.110536,42
2021-12-24 14:24:06.110564,59
2021-12-24 14:24:06.110573,71
2021-12-24 14:24:06.110580,73
2021-12-24 14:24:06.110587,59
2021-12-24 14:24:06.110594,35
2021-12-24 14:24:06.110600,21
2021-12-24 14:24:06.110606,18
2021-12-24 14:24:06.515226,21
2021-12-24 14:24:06.515258,26
2021-12-24 14:24:06.515270,28
2021-12-24 14:24:06.515280,28
2021-12-24 14:24:06.515290,28
2021-12-24 14:24:06.515300,28
2021-12-24 14:24:06.515309,30
2021-12-24 14:24:06.515319,63
2021-12-24 14:24:06.515329,175
2021-12-24 14:24:06.515339,317
2021-12-24 14:24:06.515348,322
2021-12-24 14:24:06.515358,-75
2021-12-24 14:24:06.515368,-682
2021-12-24 14:24:06.515378,-653
2021-12-24 14:24:06.515388,-61
2021-12-24 14:24:06.515398,139
2021-12-24 14:24:06.515407,11
2021-12-24 14:24:06.515417,59
2021-12-24 14:24:06.515427,123
2021-12-24 14:24:06.515436,75
2021-12-24 14:24:06.515446,68
2021-12-24 14:24:06.515456,92
2021-12-24 14:24:06.515465,78
2021-12-24 14:24:06.515475,71
2021-12-24 14:24:06.515485,80
2021-12-24 14:24:06.515494,80
2021-12-24 14:24:06.515504,75
2021-12-24 14:24:06.515514,75
2021-12-24 14:24:06.515523,78
2021-12-24 14:24:06.515533,82
2021-12-24 14:24:06.605429,89
2021-12-24 14:24:06.605457,97
2021-12-24 14:24:06.605469,101
2021-12-24 14:24:06.605479,104
2021-12-24 14:24:06.605489,113
2021-12-24 14:24:06.605499,127
2021-12-24 14:24:06.605509,137
2021-12-24 14:24:06.605518,144
2021-12-24 14:24:06.605528,149
2021-12-24 14:24:06.605538,142
2021-12-24 14:24:06.605548,134
2021-12-24 14:24:06.605558,127
2021-12-24 14:24:06.605568,118
2021-12-24 14:24:06.605578,104
2021-12-24 14:24:06.605587,87
2021-12-24 14:24:06.605597,61
2021-12-24 14:24:06.605607,33
2021-12-24 14:24:06.605617,16
2021-12-24 14:24:06.605627,9
2021-12-24 14:24:06.605637,4
2021-12-24 14:24:06.605647,2
2021-12-24 14:24:06.605657,2
2021-12-24 14:24:06.605667,7
2021-12-24 14:24:06.605676,16
2021-12-24 14:24:06.605686,23
2021-12-24 14:24:06.605696,28
2021-12-24 14:24:06.605706,35
2021-12-24 14:24:06.605716,40
2021-12-24 14:24:06.605726,44
2021-12-24 14:24:06.605736,49
2021-12-24 14:24:06.830751,49
2021-12-24 14:24:06.830782,49
2021-12-24 14:24:06.830794,52
2021-12-24 14:24:06.830804,47
2021-12-24 14:24:06.830814,37
2021-12-24 14:24:06.830824,33
2021-12-24 14:24:06.830834,35
2021-12-24 14:24:06.830844,37
2021-12-24 14:24:06.830853,44
2021-12-24 14:24:06.830863,61
2021-12-24 14:24:06.830873,71
2021-12-24 14:24:06.830883,71
2021-12-24 14:24:06.830893,59
2021-12-24 14:24:06.830903,35
2021-12-24 14:24:06.830912,18
2021-12-24 14:24:06.830922,23
2021-12-24 14:24:06.830932,26
2021-12-24 14:24:06.830941,23
2021-12-24 14:24:06.830951,21
2021-12-24 14:24:06.830961,28
2021-12-24 14:24:06.830971,28
2021-12-24 14:24:06.830980,26
2021-12-24 14:24:06.830990,33
2021-12-24 14:24:06.831000,82
2021-12-24 14:24:06.831009,210
2021-12-24 14:24:06.831019,369
2021-12-24 14:24:06.831029,378
2021-12-24 14:24:06.831039,-30
2021-12-24 14:24:06.831049,-663
2021-12-24 14:24:06.831058,-646
2021-12-24 14:24:07.145812,-49
2021-12-24 14:24:07.145842,146
2021-12-24 14:24:07.145854,11
2021-12-24 14:24:07.145865,61
2021-12-24 14:24:07.145874,125
2021-12-24 14:24:07.145884,80
2021-12-24 14:24:07.145894,75
2021-12-24 14:24:07.145904,99
2021-12-24 14:24:07.145914,82
2021-12-24 14:24:07.145924,71
2021-12-24 14:24:07.145934,82
2021-12-24 14:24:07.145944,80
2021-12-24 14:24:07.145953,73
2021-12-24 14:24:07.145963,73
2021-12-24 14:24:07.145974,73
2021-12-24 14:24:07.145983,73
2021-12-24 14:24:07.145993,75
2021-12-24 14:24:07.146003,78
2021-12-24 14:24:07.146012,80
2021-12-24 14:24:07.146022,85
2021-12-24 14:24:07.146032,89
2021-12-24 14:24:07.146042,97
2021-12-24 14:24:07.146051,104
2021-12-24 14:24:07.146061,111
2021-12-24 14:24:07.146071,113
2021-12-24 14:24:07.146081,111
2021-12-24 14:24:07.146090,104
2021-12-24 14:24:07.146100,94
2021-12-24 14:24:07.146110,82
2021-12-24 14:24:07.146120,75
2021-12-24 14:24:07.459111,61
2021-12-24 14:24:07.459133,44
2021-12-24 14:24:07.459140,26
2021-12-24 14:24:07.459147,14
2021-12-24 14:24:07.459153,7
2021-12-24 14:24:07.459159,2
2021-12-24 14:24:07.459166,0
2021-12-24 14:24:07.459172,2
2021-12-24 14:24:07.459182,7
2021-12-24 14:24:07.459188,7
2021-12-24 14:24:07.459195,7
2021-12-24 14:24:07.459201,11
2021-12-24 14:24:07.459207,18
2021-12-24 14:24:07.459214,23
2021-12-24 14:24:07.459220,26
2021-12-24 14:24:07.459226,30
2021-12-24 14:24:07.459233,35
2021-12-24 14:24:07.459239,40
2021-12-24 14:24:07.459246,35
2021-12-24 14:24:07.459252,33
2021-12-24 14:24:07.459258,37
2021-12-24 14:24:07.459265,33
2021-12-24 14:24:07.459271,28
2021-12-24 14:24:07.459277,30
2021-12-24 14:24:07.459284,33
2021-12-24 14:24:07.459290,28
2021-12-24 14:24:07.459296,21
2021-12-24 14:24:07.459303,16
2021-12-24 14:24:07.459309,16
2021-12-24 14:24:07.459315,26
2021-12-24 14:24:07.594412,44
2021-12-24 14:24:07.594442,59
2021-12-24 14:24:07.594453,63
2021-12-24 14:24:07.594463,54
2021-12-24 14:24:07.594473,33
2021-12-24 14:24:07.594483,16
2021-12-24 14:24:07.594493,11
2021-12-24 14:24:07.594503,16
2021-12-24 14:24:07.594513,21
2021-12-24 14:24:07.594523,18
2021-12-24 14:24:07.594532,21
2021-12-24 14:24:07.594542,30
2021-12-24 14:24:07.594552,35
2021-12-24 14:24:07.594562,37
2021-12-24 14:24:07.594571,71
2021-12-24 14:24:07.594581,177
2021-12-24 14:24:07.594591,357
2021-12-24 14:24:07.594601,497
2021-12-24 14:24:07.594611,317
2021-12-24 14:24:07.594620,-348
2021-12-24 14:24:07.594630,-852
2021-12-24 14:24:07.594640,-468
2021-12-24 14:24:07.594650,75
2021-12-24 14:24:07.594659,66
2021-12-24 14:24:07.594669,-4
2021-12-24 14:24:07.594679,97
2021-12-24 14:24:07.594689,97
2021-12-24 14:24:07.594699,49
2021-12-24 14:24:07.594709,73
2021-12-24 14:24:07.594718,82
2021-12-24 14:24:07.774475,66
2021-12-24 14:24:07.774497,71
2021-12-24 14:24:07.774504,73
2021-12-24 14:24:07.774511,66
2021-12-24 14:24:07.774518,68
2021-12-24 14:24:07.774524,68
2021-12-24 14:24:07.774531,66
2021-12-24 14:24:07.774537,68
2021-12-24 14:24:07.774543,73
2021-12-24 14:24:07.774550,78
2021-12-24 14:24:07.774556,82
2021-12-24 14:24:07.774563,82
2021-12-24 14:24:07.774569,85
2021-12-24 14:24:07.774575,97
2021-12-24 14:24:07.774582,106
2021-12-24 14:24:07.774588,104
2021-12-24 14:24:07.774595,101
2021-12-24 14:24:07.774601,104
2021-12-24 14:24:07.774608,94
2021-12-24 14:24:07.774614,80
2021-12-24 14:24:07.774621,75
2021-12-24 14:24:07.774627,73
2021-12-24 14:24:07.774633,52
2021-12-24 14:24:07.774640,23
2021-12-24 14:24:07.774646,4
2021-12-24 14:24:07.774653,-14
2021-12-24 14:24:07.774659,-33
2021-12-24 14:24:07.774665,-42
2021-12-24 14:24:07.774672,-42
2021-12-24 14:24:07.774678,-37
2021-12-24 14:24:07.954596,-33
2021-12-24 14:24:07.954616,-23
2021-12-24 14:24:07.954623,-16
2021-12-24 14:24:07.954630,-16
2021-12-24 14:24:07.954637,-14
2021-12-24 14:24:07.954643,-7
2021-12-24 14:24:07.954649,2
2021-12-24 14:24:07.954656,7
2021-12-24 14:24:07.954662,9
2021-12-24 14:24:07.954668,9
2021-12-24 14:24:07.954675,7
2021-12-24 14:24:07.954681,7
2021-12-24 14:24:07.954687,11
2021-12-24 14:24:07.954694,14
2021-12-24 14:24:07.954700,9
2021-12-24 14:24:07.954707,0
2021-12-24 14:24:07.954713,-4
2021-12-24 14:24:07.954720,2
2021-12-24 14:24:07.954726,14
2021-12-24 14:24:07.954732,28
2021-12-24 14:24:07.954739,35
2021-12-24 14:24:07.954745,30
2021-12-24 14:24:07.954751,11
2021-12-24 14:24:07.954758,-4
2021-12-24 14:24:07.954764,-7
2021-12-24 14:24:07.954770,-2
2021-12-24 14:24:07.954777,-2
2021-12-24 14:24:07.954783,0
2021-12-24 14:24:07.954790,2
2021-12-24 14:24:07.954796,4
2021-12-24 14:24:08.224993,9
2021-12-24 14:24:08.225016,14
2021-12-24 14:24:08.225024,23
2021-12-24 14:24:08.225030,78
2021-12-24 14:24:08.225037,217
2021-12-24 14:24:08.225043,383
2021-12-24 14:24:08.225050,364
2021-12-24 14:24:08.225056,-132
2021-12-24 14:24:08.225063,-790
2021-12-24 14:24:08.225069,-719
2021-12-24 14:24:08.225075,-108
2021-12-24 14:24:08.225082,108
2021-12-24 14:24:08.225088,21
2021-12-24 14:24:08.225095,71
2021-12-24 14:24:08.225101,120
2021-12-24 14:24:08.225107,78
2021-12-24 14:24:08.225114,78
2021-12-24 14:24:08.225120,106
2021-12-24 14:24:08.225126,99
2021-12-24 14:24:08.225133,89
2021-12-24 14:24:08.225139,94
2021-12-24 14:24:08.225145,94
2021-12-24 14:24:08.225152,87
2021-12-24 14:24:08.225158,92
2021-12-24 14:24:08.225164,99
2021-12-24 14:24:08.225170,99
2021-12-24 14:24:08.225177,101
2021-12-24 14:24:08.225183,104
2021-12-24 14:24:08.225189,108
2021-12-24 14:24:08.225196,116
2021-12-24 14:24:08.450191,120
2021-12-24 14:24:08.450211,130
2021-12-24 14:24:08.450219,146
2021-12-24 14:24:08.450226,153
2021-12-24 14:24:08.450232,161
2021-12-24 14:24:08.450239,168
2021-12-24 14:24:08.450246,161
2021-12-24 14:24:08.450257,149
2021-12-24 14:24:08.450268,134
2021-12-24 14:24:08.450279,118
2021-12-24 14:24:08.450290,99
2021-12-24 14:24:08.450302,73
2021-12-24 14:24:08.450310,37
2021-12-24 14:24:08.450317,7
2021-12-24 14:24:08.450327,-14
2021-12-24 14:24:08.450338,-26
2021-12-24 14:24:08.450350,-33
2021-12-24 14:24:08.450363,-35
2021-12-24 14:24:08.450375,-37
2021-12-24 14:24:08.450385,-28
2021-12-24 14:24:08.450392,-7
2021-12-24 14:24:08.450399,2
2021-12-24 14:24:08.450405,4
2021-12-24 14:24:08.450415,11
2021-12-24 14:24:08.450422,16
2021-12-24 14:24:08.450429,16
2021-12-24 14:24:08.450440,23
2021-12-24 14:24:08.450451,23
2021-12-24 14:24:08.450462,28
2021-12-24 14:24:08.450473,30
2021-12-24 14:24:08.675773,26
2021-12-24 14:24:08.675804,18
2021-12-24 14:24:08.675816,26
2021-12-24 14:24:08.675827,37
2021-12-24 14:24:08.675837,33
2021-12-24 14:24:08.675847,23
2021-12-24 14:24:08.675857,18
2021-12-24 14:24:08.675867,16
2021-12-24 14:24:08.675877,18
2021-12-24 14:24:08.675886,33
2021-12-24 14:24:08.675897,47
2021-12-24 14:24:08.675907,54
2021-12-24 14:24:08.675917,56
2021-12-24 14:24:08.675927,30
2021-12-24 14:24:08.675937,4
2021-12-24 14:24:08.675947,14
2021-12-24 14:24:08.675957,28
2021-12-24 14:24:08.675967,28
2021-12-24 14:24:08.675977,28
2021-12-24 14:24:08.675987,28
2021-12-24 14:24:08.675997,23
2021-12-24 14:24:08.676007,21
2021-12-24 14:24:08.676017,35
2021-12-24 14:24:08.676027,97
2021-12-24 14:24:08.676037,222
2021-12-24 14:24:08.676047,390
2021-12-24 14:24:08.676057,492
2021-12-24 14:24:08.676067,243
2021-12-24 14:24:08.676077,-473
2021-12-24 14:24:08.676087,-876
2021-12-24 14:24:08.900890,-374
2021-12-24 14:24:08.900920,113
2021-12-24 14:24:08.900932,33
2021-12-24 14:24:08.900943,-2
2021-12-24 14:24:08.900953,120
2021-12-24 14:24:08.900963,97
2021-12-24 14:24:08.900973,35
2021-12-24 14:24:08.900983,61
2021-12-24 14:24:08.900993,75
2021-12-24 14:24:08.901003,61
2021-12-24 14:24:08.901012,68
2021-12-24 14:24:08.901022,68
2021-12-24 14:24:08.901032,52
2021-12-24 14:24:08.901042,44
2021-12-24 14:24:08.901053,47
2021-12-24 14:24:08.901063,47
2021-12-24 14:24:08.901073,56
2021-12-24 14:24:08.901083,68
2021-12-24 14:24:08.901093,73
2021-12-24 14:24:08.901103,78
2021-12-24 14:24:08.901113,92
2021-12-24 14:24:08.901123,99
2021-12-24 14:24:08.901132,101
2021-12-24 14:24:08.901142,116
2021-12-24 14:24:08.901152,127
2021-12-24 14:24:08.901162,130
2021-12-24 14:24:08.901172,130
2021-12-24 14:24:08.901182,125
2021-12-24 14:24:08.901192,116
2021-12-24 14:24:08.901201,104
2021-12-24 14:24:09.124938,82
2021-12-24 14:24:09.124961,54
2021-12-24 14:24:09.124969,23
2021-12-24 14:24:09.124976,4
2021-12-24 14:24:09.124983,-7
2021-12-24 14:24:09.124989,-28
2021-12-24 14:24:09.124996,-49
2021-12-24 14:24:09.125002,-47
2021-12-24 14:24:09.125008,-37
2021-12-24 14:24:09.125015,-33
2021-12-24 14:24:09.125021,-33
2021-12-24 14:24:09.125027,-40
2021-12-24 14:24:09.125034,-37
2021-12-24 14:24:09.125040,-18
2021-12-24 14:24:09.125046,-4
2021-12-24 14:24:09.125053,-2
2021-12-24 14:24:09.125059,0
2021-12-24 14:24:09.125065,4
2021-12-24 14:24:09.125072,14
2021-12-24 14:24:09.125078,14
2021-12-24 14:24:09.125085,14
2021-12-24 14:24:09.125091,16
2021-12-24 14:24:09.125097,21
2021-12-24 14:24:09.125103,33
2021-12-24 14:24:09.125110,44
2021-12-24 14:24:09.125116,47
2021-12-24 14:24:09.125122,56
2021-12-24 14:24:09.125129,61
2021-12-24 14:24:09.125135,44
2021-12-24 14:24:09.125141,18
2021-12-24 14:24:09.394633,9
2021-12-24 14:24:09.394663,11
2021-12-24 14:24:09.394675,21
2021-12-24 14:24:09.394685,21
2021-12-24 14:24:09.394695,11
2021-12-24 14:24:09.394705,14
2021-12-24 14:24:09.394715,16
2021-12-24 14:24:09.394725,9
2021-12-24 14:24:09.394735,26
2021-12-24 14:24:09.394745,97
2021-12-24 14:24:09.394754,234
2021-12-24 14:24:09.394764,367
2021-12-24 14:24:09.394774,246
2021-12-24 14:24:09.394784,-341
2021-12-24 14:24:09.394794,-857
2021-12-24 14:24:09.394804,-551
2021-12-24 14:24:09.394814,21
2021-12-24 14:24:09.394823,99
2021-12-24 14:24:09.394833,26
2021-12-24 14:24:09.394843,92
2021-12-24 14:24:09.394853,116
2021-12-24 14:24:09.394862,82
2021-12-24 14:24:09.394872,92
2021-12-24 14:24:09.394882,97
2021-12-24 14:24:09.394892,85
2021-12-24 14:24:09.394901,85
2021-12-24 14:24:09.394911,87
2021-12-24 14:24:09.394921,87
2021-12-24 14:24:09.394931,92
2021-12-24 14:24:09.394940,92
2021-12-24 14:24:09.575728,97
2021-12-24 14:24:09.575758,101
2021-12-24 14:24:09.575770,108
2021-12-24 14:24:09.575780,113
2021-12-24 14:24:09.575790,120
2021-12-24 14:24:09.575799,127
2021-12-24 14:24:09.575809,134
2021-12-24 14:24:09.575819,153
2021-12-24 14:24:09.575829,170
2021-12-24 14:24:09.575838,177
2021-12-24 14:24:09.575848,179
2021-12-24 14:24:09.575858,179
2021-12-24 14:24:09.575868,172
2021-12-24 14:24:09.575877,163
2021-12-24 14:24:09.575887,149
2021-12-24 14:24:09.575897,125
2021-12-24 14:24:09.575907,94
2021-12-24 14:24:09.575916,59
2021-12-24 14:24:09.575926,23
2021-12-24 14:24:09.575936,0
2021-12-24 14:24:09.575946,-14
2021-12-24 14:24:09.575956,-18
2021-12-24 14:24:09.575965,-28
2021-12-24 14:24:09.575975,-28
2021-12-24 14:24:09.575985,-16
2021-12-24 14:24:09.575995,-14
2021-12-24 14:24:09.576005,-9
2021-12-24 14:24:09.576014,0
2021-12-24 14:24:09.576024,9
2021-12-24 14:24:09.576034,14
2021-12-24 14:24:09.888515,16
2021-12-24 14:24:09.888536,21
2021-12-24 14:24:09.888543,30
2021-12-24 14:24:09.888548,30
2021-12-24 14:24:09.888554,23
2021-12-24 14:24:09.888559,26
2021-12-24 14:24:09.888565,35
2021-12-24 14:24:09.888570,37
2021-12-24 14:24:09.888577,28
2021-12-24 14:24:09.888582,18
2021-12-24 14:24:09.888588,14
2021-12-24 14:24:09.888593,16
2021-12-24 14:24:09.888598,28
2021-12-24 14:24:09.888603,37
2021-12-24 14:24:09.888608,49
2021-12-24 14:24:09.888613,49
2021-12-24 14:24:09.888618,21
2021-12-24 14:24:09.888624,4
2021-12-24 14:24:09.888629,11
2021-12-24 14:24:09.888634,18
2021-12-24 14:24:09.888639,18
2021-12-24 14:24:09.888644,14
2021-12-24 14:24:09.888649,18
2021-12-24 14:24:09.888654,30
2021-12-24 14:24:09.888659,33
2021-12-24 14:24:09.888665,37
2021-12-24 14:24:09.888670,78
2021-12-24 14:24:09.888675,184
2021-12-24 14:24:09.888680,331
2021-12-24 14:24:09.888689,388
2021-12-24 14:24:10.115729,73
2021-12-24 14:24:10.115759,-596
2021-12-24 14:24:10.115771,-786
2021-12-24 14:24:10.115782,-203
2021-12-24 14:24:10.115791,156
2021-12-24 14:24:10.115801,30
2021-12-24 14:24:10.115811,28
2021-12-24 14:24:10.115820,118
2021-12-24 14:24:10.115830,75
2021-12-24 14:24:10.115839,47
2021-12-24 14:24:10.115849,87
2021-12-24 14:24:10.115859,89
2021-12-24 14:24:10.115868,71
2021-12-24 14:24:10.115878,75
2021-12-24 14:24:10.115888,73
2021-12-24 14:24:10.115897,63
2021-12-24 14:24:10.115907,63
2021-12-24 14:24:10.115917,68
2021-12-24 14:24:10.115927,68
2021-12-24 14:24:10.115936,71
2021-12-24 14:24:10.115946,78
2021-12-24 14:24:10.115955,87
2021-12-24 14:24:10.115965,92
2021-12-24 14:24:10.115975,104
2021-12-24 14:24:10.115984,113
2021-12-24 14:24:10.115994,120
2021-12-24 14:24:10.116004,125
2021-12-24 14:24:10.116013,134
2021-12-24 14:24:10.116023,139
2021-12-24 14:24:10.116032,139
2021-12-24 14:24:10.384285,127
2021-12-24 14:24:10.384301,116
2021-12-24 14:24:10.384307,104
2021-12-24 14:24:10.384312,87
2021-12-24 14:24:10.384317,61
2021-12-24 14:24:10.384322,42
2021-12-24 14:24:10.384327,28
2021-12-24 14:24:10.384332,14
2021-12-24 14:24:10.384337,-2
2021-12-24 14:24:10.384342,-7
2021-12-24 14:24:10.384347,-4
2021-12-24 14:24:10.384352,2
2021-12-24 14:24:10.384357,14
2021-12-24 14:24:10.384362,18
2021-12-24 14:24:10.384366,14
2021-12-24 14:24:10.384371,14
2021-12-24 14:24:10.384376,21
2021-12-24 14:24:10.384381,26
2021-12-24 14:24:10.384386,21
2021-12-24 14:24:10.384391,23
2021-12-24 14:24:10.384396,33
2021-12-24 14:24:10.384401,37
2021-12-24 14:24:10.384406,40
2021-12-24 14:24:10.384411,44
2021-12-24 14:24:10.384416,44
2021-12-24 14:24:10.384420,47
2021-12-24 14:24:10.384425,47
2021-12-24 14:24:10.384430,40
2021-12-24 14:24:10.384435,33
2021-12-24 14:24:10.384440,37
2021-12-24 14:24:10.520306,49
2021-12-24 14:24:10.520328,61
2021-12-24 14:24:10.520335,68
2021-12-24 14:24:10.520341,73
2021-12-24 14:24:10.520348,68
2021-12-24 14:24:10.520354,49
2021-12-24 14:24:10.520360,33
2021-12-24 14:24:10.520367,28
2021-12-24 14:24:10.520373,30
2021-12-24 14:24:10.520379,35
2021-12-24 14:24:10.520386,42
2021-12-24 14:24:10.520392,40
2021-12-24 14:24:10.520398,37
2021-12-24 14:24:10.520405,37
2021-12-24 14:24:10.520411,47
2021-12-24 14:24:10.520417,87
2021-12-24 14:24:10.520424,189
2021-12-24 14:24:10.520430,331
2021-12-24 14:24:10.520436,369
2021-12-24 14:24:10.520443,23
2021-12-24 14:24:10.520449,-646
2021-12-24 14:24:10.520455,-795
2021-12-24 14:24:10.520462,-201
2021-12-24 14:24:10.520468,151
2021-12-24 14:24:10.520475,33
2021-12-24 14:24:10.520481,30
2021-12-24 14:24:10.520487,113
2021-12-24 14:24:10.520494,75
2021-12-24 14:24:10.520500,59
2021-12-24 14:24:10.520506,92
2021-12-24 14:24:10.790241,89
2021-12-24 14:24:10.790262,80
2021-12-24 14:24:10.790270,87
2021-12-24 14:24:10.790276,85
2021-12-24 14:24:10.790283,75
2021-12-24 14:24:10.790289,85
2021-12-24 14:24:10.790295,94
2021-12-24 14:24:10.790301,87
2021-12-24 14:24:10.790308,85
2021-12-24 14:24:10.790314,94
2021-12-24 14:24:10.790321,101
2021-12-24 14:24:10.790327,106
2021-12-24 14:24:10.790334,113
2021-12-24 14:24:10.790340,120
2021-12-24 14:24:10.790346,127
2021-12-24 14:24:10.790353,137
2021-12-24 14:24:10.790391,144
2021-12-24 14:24:10.790398,149
2021-12-24 14:24:10.790404,144
2021-12-24 14:24:10.790410,130
2021-12-24 14:24:10.790417,113
2021-12-24 14:24:10.790423,99
2021-12-24 14:24:10.790429,78
2021-12-24 14:24:10.790436,54
2021-12-24 14:24:10.790442,35
2021-12-24 14:24:10.790448,11
2021-12-24 14:24:10.790455,-2
2021-12-24 14:24:10.790462,2
2021-12-24 14:24:10.790468,2
2021-12-24 14:24:10.790474,-2
2021-12-24 14:24:10.970792,2
2021-12-24 14:24:10.970823,9
2021-12-24 14:24:10.970834,11
2021-12-24 14:24:10.970844,16
2021-12-24 14:24:10.970854,26
2021-12-24 14:24:10.970864,33
2021-12-24 14:24:10.970874,35
2021-12-24 14:24:10.970884,40
2021-12-24 14:24:10.970894,47
2021-12-24 14:24:10.970904,52
2021-12-24 14:24:10.970914,52
2021-12-24 14:24:10.970924,52
2021-12-24 14:24:10.970934,54
2021-12-24 14:24:10.970944,54
2021-12-24 14:24:10.970954,54
2021-12-24 14:24:10.970964,59
2021-12-24 14:24:10.970974,56
2021-12-24 14:24:10.970984,56
2021-12-24 14:24:10.970993,54
2021-12-24 14:24:10.971004,52
2021-12-24 14:24:10.971014,54
2021-12-24 14:24:10.971023,52
2021-12-24 14:24:10.971033,47
2021-12-24 14:24:10.971043,49
2021-12-24 14:24:10.971053,52
2021-12-24 14:24:10.971063,47
2021-12-24 14:24:10.971073,52
2021-12-24 14:24:10.971083,54
2021-12-24 14:24:10.971092,49
2021-12-24 14:24:10.971102,52
2021-12-24 14:24:11.194455,54
2021-12-24 14:24:11.194470,56
2021-12-24 14:24:11.194475,54
2021-12-24 14:24:11.194480,47
2021-12-24 14:24:11.194484,42
2021-12-24 14:24:11.194489,42
2021-12-24 14:24:11.194493,47
2021-12-24 14:24:11.194497,61
2021-12-24 14:24:11.194502,75
2021-12-24 14:24:11.194506,82
2021-12-24 14:24:11.194510,78
2021-12-24 14:24:11.194516,56
2021-12-24 14:24:11.194520,33
2021-12-24 14:24:11.194525,30
2021-12-24 14:24:11.194529,35
2021-12-24 14:24:11.194533,33
2021-12-24 14:24:11.194538,28
2021-12-24 14:24:11.194542,33
2021-12-24 14:24:11.194546,35
2021-12-24 14:24:11.194551,40
2021-12-24 14:24:11.194555,59
2021-12-24 14:24:11.194559,106
2021-12-24 14:24:11.194563,213
2021-12-24 14:24:11.194568,362
2021-12-24 14:24:11.194572,421
2021-12-24 14:24:11.194576,142
2021-12-24 14:24:11.194581,-530
2021-12-24 14:24:11.194585,-850
2021-12-24 14:24:11.194589,-336
2021-12-24 14:24:11.194594,116
2021-12-24 14:24:11.420776,40
2021-12-24 14:24:11.420806,9
2021-12-24 14:24:11.420818,106
2021-12-24 14:24:11.420828,87
2021-12-24 14:24:11.420838,54
2021-12-24 14:24:11.420848,82
2021-12-24 14:24:11.420858,85
2021-12-24 14:24:11.420868,73
2021-12-24 14:24:11.420877,80
2021-12-24 14:24:11.420887,85
2021-12-24 14:24:11.420897,78
2021-12-24 14:24:11.420907,75
2021-12-24 14:24:11.420916,78
2021-12-24 14:24:11.420926,82
2021-12-24 14:24:11.420936,92
2021-12-24 14:24:11.420946,97
2021-12-24 14:24:11.420955,94
2021-12-24 14:24:11.420965,97
2021-12-24 14:24:11.420975,104
2021-12-24 14:24:11.420985,116
2021-12-24 14:24:11.420995,120
2021-12-24 14:24:11.421004,125
2021-12-24 14:24:11.421014,123
2021-12-24 14:24:11.421024,123
2021-12-24 14:24:11.421034,123
2021-12-24 14:24:11.421044,116
2021-12-24 14:24:11.421053,97
2021-12-24 14:24:11.421063,82
2021-12-24 14:24:11.421086,80
2021-12-24 14:24:11.421096,75
2021-12-24 14:24:11.645770,59
2021-12-24 14:24:11.645800,47
2021-12-24 14:24:11.645812,40
2021-12-24 14:24:11.645823,28
2021-12-24 14:24:11.645833,18
2021-12-24 14:24:11.645843,18
2021-12-24 14:24:11.645853,21
2021-12-24 14:24:11.645863,23
2021-12-24 14:24:11.645873,30
2021-12-24 14:24:11.645883,33
2021-12-24 14:24:11.645893,28
2021-12-24 14:24:11.645903,28
2021-12-24 14:24:11.645912,35
2021-12-24 14:24:11.645922,42
2021-12-24 14:24:11.645932,47
2021-12-24 14:24:11.645942,44
2021-12-24 14:24:11.645952,42
2021-12-24 14:24:11.645962,44
2021-12-24 14:24:11.645972,49
2021-12-24 14:24:11.645982,47
2021-12-24 14:24:11.645992,47
2021-12-24 14:24:11.646002,47
2021-12-24 14:24:11.646012,47
2021-12-24 14:24:11.646022,40
2021-12-24 14:24:11.646032,35
2021-12-24 14:24:11.646042,37
2021-12-24 14:24:11.646051,37
2021-12-24 14:24:11.646061,26
2021-12-24 14:24:11.646071,16
2021-12-24 14:24:11.646081,18
2021-12-24 14:24:11.959166,26
2021-12-24 14:24:11.959188,33
2021-12-24 14:24:11.959196,40
2021-12-24 14:24:11.959203,37
2021-12-24 14:24:11.959209,26
2021-12-24 14:24:11.959216,11
2021-12-24 14:24:11.959222,-7
2021-12-24 14:24:11.959229,-14
2021-12-24 14:24:11.959235,-4
2021-12-24 14:24:11.959242,-2
2021-12-24 14:24:11.959248,-7
2021-12-24 14:24:11.959254,-4
2021-12-24 14:24:11.959261,2
2021-12-24 14:24:11.959267,4
2021-12-24 14:24:11.959273,11
2021-12-24 14:24:11.959280,40
2021-12-24 14:24:11.959286,132
2021-12-24 14:24:11.959293,296
2021-12-24 14:24:11.959299,445
2021-12-24 14:24:11.959305,312
2021-12-24 14:24:11.959312,-329
2021-12-24 14:24:11.959318,-911
2021-12-24 14:24:11.959325,-641
2021-12-24 14:24:11.959331,-59
2021-12-24 14:24:11.959337,68
2021-12-24 14:24:11.959344,21
2021-12-24 14:24:11.959351,78
2021-12-24 14:24:11.959357,89
2021-12-24 14:24:11.959363,63
2021-12-24 14:24:11.959370,80
2021-12-24 14:24:12.185116,89
2021-12-24 14:24:12.185137,75
2021-12-24 14:24:12.185145,80
2021-12-24 14:24:12.185152,87
2021-12-24 14:24:12.185158,80
2021-12-24 14:24:12.185165,82
2021-12-24 14:24:12.185171,97
2021-12-24 14:24:12.185177,104
2021-12-24 14:24:12.185184,99
2021-12-24 14:24:12.185190,101
2021-12-24 14:24:12.185196,113
2021-12-24 14:24:12.185203,120
2021-12-24 14:24:12.185209,125
2021-12-24 14:24:12.185216,142
2021-12-24 14:24:12.185222,156
2021-12-24 14:24:12.185228,158
2021-12-24 14:24:12.185234,170
2021-12-24 14:24:12.185241,187
2021-12-24 14:24:12.185247,191
2021-12-24 14:24:12.185253,189
2021-12-24 14:24:12.185260,175
2021-12-24 14:24:12.185266,156
2021-12-24 14:24:12.185273,151
2021-12-24 14:24:12.185279,132
2021-12-24 14:24:12.185285,89
2021-12-24 14:24:12.185292,52
2021-12-24 14:24:12.185298,23
2021-12-24 14:24:12.185304,-4
2021-12-24 14:24:12.185311,-23
2021-12-24 14:24:12.185317,-30
2021-12-24 14:24:12.365660,-35
2021-12-24 14:24:12.365683,-30
2021-12-24 14:24:12.365690,-23
2021-12-24 14:24:12.365697,-23
2021-12-24 14:24:12.365704,-11
2021-12-24 14:24:12.365710,2
2021-12-24 14:24:12.365717,4
2021-12-24 14:24:12.365723,16
2021-12-24 14:24:12.365729,23
2021-12-24 14:24:12.365736,14
2021-12-24 14:24:12.365742,16
2021-12-24 14:24:12.365749,26
2021-12-24 14:24:12.365755,33
2021-12-24 14:24:12.365762,30
2021-12-24 14:24:12.365768,18
2021-12-24 14:24:12.365775,16
2021-12-24 14:24:12.365781,18
2021-12-24 14:24:12.365788,16
2021-12-24 14:24:12.365794,11
2021-12-24 14:24:12.365800,7
2021-12-24 14:24:12.365807,7
2021-12-24 14:24:12.365813,16
2021-12-24 14:24:12.365819,33
2021-12-24 14:24:12.365826,35
2021-12-24 14:24:12.365832,23
2021-12-24 14:24:12.365838,11
2021-12-24 14:24:12.365845,-2
2021-12-24 14:24:12.365851,-14
2021-12-24 14:24:12.365858,-9
2021-12-24 14:24:12.365864,-2
2021-12-24 14:24:12.635792,-2
2021-12-24 14:24:12.635823,0
2021-12-24 14:24:12.635834,7
2021-12-24 14:24:12.635845,9
2021-12-24 14:24:12.635854,14
2021-12-24 14:24:12.635864,47
2021-12-24 14:24:12.635874,139
2021-12-24 14:24:12.635884,296
2021-12-24 14:24:12.635893,416
2021-12-24 14:24:12.635903,227
2021-12-24 14:24:12.635913,-442
2021-12-24 14:24:12.635923,-918
2021-12-24 14:24:12.635933,-542
2021-12-24 14:24:12.635942,-7
2021-12-24 14:24:12.635952,56
2021-12-24 14:24:12.635962,21
2021-12-24 14:24:12.635972,89
2021-12-24 14:24:12.635982,97
2021-12-24 14:24:12.635991,66
2021-12-24 14:24:12.636001,80
2021-12-24 14:24:12.636011,89
2021-12-24 14:24:12.636021,82
2021-12-24 14:24:12.636031,87
2021-12-24 14:24:12.636040,92
2021-12-24 14:24:12.636050,89
2021-12-24 14:24:12.636060,92
2021-12-24 14:24:12.636070,101
2021-12-24 14:24:12.636079,104
2021-12-24 14:24:12.636089,106
2021-12-24 14:24:12.636099,111
2021-12-24 14:24:12.860159,120
2021-12-24 14:24:12.860179,134
2021-12-24 14:24:12.860187,142
2021-12-24 14:24:12.860193,146
2021-12-24 14:24:12.860199,161
2021-12-24 14:24:12.860206,179
2021-12-24 14:24:12.860212,189
2021-12-24 14:24:12.860222,196
2021-12-24 14:24:12.860230,201
2021-12-24 14:24:12.860236,191
2021-12-24 14:24:12.860243,179
2021-12-24 14:24:12.860249,170
2021-12-24 14:24:12.860255,153
2021-12-24 14:24:12.860262,123
2021-12-24 14:24:12.860268,78
2021-12-24 14:24:12.860274,33
2021-12-24 14:24:12.860280,7
2021-12-24 14:24:12.860287,-14
2021-12-24 14:24:12.860293,-30
2021-12-24 14:24:12.860299,-37
2021-12-24 14:24:12.860306,-33
2021-12-24 14:24:12.860312,-26
2021-12-24 14:24:12.860318,-16
2021-12-24 14:24:12.860325,-9
2021-12-24 14:24:12.860331,-7
2021-12-24 14:24:12.860337,0
2021-12-24 14:24:12.860344,11
2021-12-24 14:24:12.860350,18
2021-12-24 14:24:12.860356,18
2021-12-24 14:24:12.860363,18
2021-12-24 14:24:13.085370,23
2021-12-24 14:24:13.085400,28
2021-12-24 14:24:13.085412,28
2021-12-24 14:24:13.085422,23
2021-12-24 14:24:13.085432,21
2021-12-24 14:24:13.085442,18
2021-12-24 14:24:13.085452,16
2021-12-24 14:24:13.085462,26
2021-12-24 14:24:13.085472,37
2021-12-24 14:24:13.085482,35
2021-12-24 14:24:13.085492,28
2021-12-24 14:24:13.085502,16
2021-12-24 14:24:13.085512,-4
2021-12-24 14:24:13.085522,-14
2021-12-24 14:24:13.085532,-9
2021-12-24 14:24:13.085542,-7
2021-12-24 14:24:13.085552,-7
2021-12-24 14:24:13.085562,-4
2021-12-24 14:24:13.085572,0
2021-12-24 14:24:13.085582,7
2021-12-24 14:24:13.085592,9
2021-12-24 14:24:13.085602,26
2021-12-24 14:24:13.085612,92
2021-12-24 14:24:13.085622,224
2021-12-24 14:24:13.085632,345
2021-12-24 14:24:13.085642,234
2021-12-24 14:24:13.085653,-319
2021-12-24 14:24:13.085663,-826
2021-12-24 14:24:13.085673,-530
2021-12-24 14:24:13.085683,44
2021-12-24 14:24:13.310399,104
2021-12-24 14:24:13.310419,9
2021-12-24 14:24:13.310427,85
2021-12-24 14:24:13.310434,113
2021-12-24 14:24:13.310440,71
2021-12-24 14:24:13.310446,78
2021-12-24 14:24:13.310453,92
2021-12-24 14:24:13.310459,82
2021-12-24 14:24:13.310465,85
2021-12-24 14:24:13.310471,94
2021-12-24 14:24:13.310478,89
2021-12-24 14:24:13.310484,85
2021-12-24 14:24:13.310490,87
2021-12-24 14:24:13.310497,92
2021-12-24 14:24:13.310503,97
2021-12-24 14:24:13.310509,104
2021-12-24 14:24:13.310515,108
2021-12-24 14:24:13.310522,111
2021-12-24 14:24:13.310528,120
2021-12-24 14:24:13.310534,130
2021-12-24 14:24:13.310540,132
2021-12-24 14:24:13.310547,139
2021-12-24 14:24:13.310553,153
2021-12-24 14:24:13.310566,161
2021-12-24 14:24:13.310572,161
2021-12-24 14:24:13.310579,156
2021-12-24 14:24:13.310585,146
2021-12-24 14:24:13.310591,130
2021-12-24 14:24:13.310598,113
2021-12-24 14:24:13.310604,94
2021-12-24 14:24:13.580526,68
2021-12-24 14:24:13.580556,40
2021-12-24 14:24:13.580567,18
2021-12-24 14:24:13.580578,4
2021-12-24 14:24:13.580588,-4
2021-12-24 14:24:13.580597,-7
2021-12-24 14:24:13.580607,-2
2021-12-24 14:24:13.580617,2
2021-12-24 14:24:13.580626,9
2021-12-24 14:24:13.580636,11
2021-12-24 14:24:13.580646,14
2021-12-24 14:24:13.580656,21
2021-12-24 14:24:13.580665,23
2021-12-24 14:24:13.580675,23
2021-12-24 14:24:13.580684,30
2021-12-24 14:24:13.580694,33
2021-12-24 14:24:13.580704,30
2021-12-24 14:24:13.580714,30
2021-12-24 14:24:13.580724,33
2021-12-24 14:24:13.580733,30
2021-12-24 14:24:13.580743,28
2021-12-24 14:24:13.580752,26
2021-12-24 14:24:13.580762,26
2021-12-24 14:24:13.580772,35
2021-12-24 14:24:13.580781,49
2021-12-24 14:24:13.580791,59
2021-12-24 14:24:13.580801,59
2021-12-24 14:24:13.580811,44
2021-12-24 14:24:13.580820,18
2021-12-24 14:24:13.580830,7
2021-12-24 14:24:13.805767,9
2021-12-24 14:24:13.805798,14
2021-12-24 14:24:13.805810,14
2021-12-24 14:24:13.805821,11
2021-12-24 14:24:13.805830,16
2021-12-24 14:24:13.805840,23
2021-12-24 14:24:13.805850,26
2021-12-24 14:24:13.805860,30
2021-12-24 14:24:13.805870,68
2021-12-24 14:24:13.805879,172
2021-12-24 14:24:13.805889,319
2021-12-24 14:24:13.805899,367
2021-12-24 14:24:13.805909,30
2021-12-24 14:24:13.805919,-625
2021-12-24 14:24:13.805928,-772
2021-12-24 14:24:13.805938,-194
2021-12-24 14:24:13.805948,149
2021-12-24 14:24:13.805958,37
2021-12-24 14:24:13.805968,40
2021-12-24 14:24:13.805977,125
2021-12-24 14:24:13.805987,87
2021-12-24 14:24:13.805997,63
2021-12-24 14:24:13.806006,94
2021-12-24 14:24:13.806016,97
2021-12-24 14:24:13.806026,85
2021-12-24 14:24:13.806035,85
2021-12-24 14:24:13.806045,82
2021-12-24 14:24:13.806055,78
2021-12-24 14:24:13.806064,82
2021-12-24 14:24:13.806074,87
2021-12-24 14:24:14.164624,87
2021-12-24 14:24:14.164647,92
2021-12-24 14:24:14.164654,99
2021-12-24 14:24:14.164661,101
2021-12-24 14:24:14.164667,108
2021-12-24 14:24:14.164674,118
2021-12-24 14:24:14.164680,130
2021-12-24 14:24:14.164687,139
2021-12-24 14:24:14.164693,144
2021-12-24 14:24:14.164700,144
2021-12-24 14:24:14.164706,149
2021-12-24 14:24:14.164712,144
2021-12-24 14:24:14.164719,132
2021-12-24 14:24:14.164725,123
2021-12-24 14:24:14.164732,113
2021-12-24 14:24:14.164738,94
2021-12-24 14:24:14.164744,68
2021-12-24 14:24:14.164751,47
2021-12-24 14:24:14.164757,30
2021-12-24 14:24:14.164764,21
2021-12-24 14:24:14.164770,9
2021-12-24 14:24:14.164776,2
2021-12-24 14:24:14.164783,4
2021-12-24 14:24:14.164789,11
2021-12-24 14:24:14.164795,18
2021-12-24 14:24:14.164802,23
2021-12-24 14:24:14.164808,28
2021-12-24 14:24:14.164814,33
2021-12-24 14:24:14.164821,37
2021-12-24 14:24:14.164827,42
2021-12-24 14:24:14.255841,47
2021-12-24 14:24:14.255871,49
2021-12-24 14:24:14.255882,49
2021-12-24 14:24:14.255892,52
2021-12-24 14:24:14.255902,52
2021-12-24 14:24:14.255912,54
2021-12-24 14:24:14.255922,56
2021-12-24 14:24:14.255931,49
2021-12-24 14:24:14.255941,37
2021-12-24 14:24:14.255951,30
2021-12-24 14:24:14.255961,30
2021-12-24 14:24:14.255970,37
2021-12-24 14:24:14.255980,52
2021-12-24 14:24:14.255990,63
2021-12-24 14:24:14.256000,66
2021-12-24 14:24:14.256009,61
2021-12-24 14:24:14.256019,40
2021-12-24 14:24:14.256029,18
2021-12-24 14:24:14.256038,9
2021-12-24 14:24:14.256048,7
2021-12-24 14:24:14.256058,7
2021-12-24 14:24:14.256068,9
2021-12-24 14:24:14.256077,14
2021-12-24 14:24:14.256087,18
2021-12-24 14:24:14.256097,21
2021-12-24 14:24:14.256107,18
2021-12-24 14:24:14.256116,30
2021-12-24 14:24:14.256126,99
2021-12-24 14:24:14.256136,243
2021-12-24 14:24:14.256146,388
2021-12-24 14:24:14.479938,305
2021-12-24 14:24:14.479968,-239
2021-12-24 14:24:14.479980,-817
2021-12-24 14:24:14.479990,-594
2021-12-24 14:24:14.480000,7
2021-12-24 14:24:14.480010,108
2021-12-24 14:24:14.480019,4
2021-12-24 14:24:14.480029,78
2021-12-24 14:24:14.480039,106
2021-12-24 14:24:14.480049,59
2021-12-24 14:24:14.480058,73
2021-12-24 14:24:14.480068,94
2021-12-24 14:24:14.480078,80
2021-12-24 14:24:14.480088,75
2021-12-24 14:24:14.480097,82
2021-12-24 14:24:14.480107,80
2021-12-24 14:24:14.480117,82
2021-12-24 14:24:14.480127,85
2021-12-24 14:24:14.480136,85
2021-12-24 14:24:14.480146,85
2021-12-24 14:24:14.480156,87
2021-12-24 14:24:14.480166,89
2021-12-24 14:24:14.480175,94
2021-12-24 14:24:14.480185,104
2021-12-24 14:24:14.480195,113
2021-12-24 14:24:14.480204,120
2021-12-24 14:24:14.480214,127
2021-12-24 14:24:14.480224,134
2021-12-24 14:24:14.480234,137
2021-12-24 14:24:14.480243,137
2021-12-24 14:24:14.705267,127
2021-12-24 14:24:14.705287,116
2021-12-24 14:24:14.705295,108
2021-12-24 14:24:14.705301,99
2021-12-24 14:24:14.705308,85
2021-12-24 14:24:14.705314,68
2021-12-24 14:24:14.705321,44
2021-12-24 14:24:14.705327,28
2021-12-24 14:24:14.705333,21
2021-12-24 14:24:14.705340,14
2021-12-24 14:24:14.705346,11
2021-12-24 14:24:14.705352,14
2021-12-24 14:24:14.705359,11
2021-12-24 14:24:14.705365,16
2021-12-24 14:24:14.705371,28
2021-12-24 14:24:14.705378,33
2021-12-24 14:24:14.705384,33
2021-12-24 14:24:14.705391,37
2021-12-24 14:24:14.705397,42
2021-12-24 14:24:14.705403,44
2021-12-24 14:24:14.705410,44
2021-12-24 14:24:14.705416,44
2021-12-24 14:24:14.705422,47
2021-12-24 14:24:14.705429,44
2021-12-24 14:24:14.705435,42
2021-12-24 14:24:14.705441,42
2021-12-24 14:24:14.705447,37
2021-12-24 14:24:14.705454,30
2021-12-24 14:24:14.705460,35
2021-12-24 14:24:14.705466,47
2021-12-24 14:24:14.885778,61
2021-12-24 14:24:14.885799,75
2021-12-24 14:24:14.885807,78
2021-12-24 14:24:14.885813,66
2021-12-24 14:24:14.885820,44
2021-12-24 14:24:14.885826,30
2021-12-24 14:24:14.885833,26
2021-12-24 14:24:14.885839,26
2021-12-24 14:24:14.885845,26
2021-12-24 14:24:14.885852,28
2021-12-24 14:24:14.885858,30
2021-12-24 14:24:14.885865,33
2021-12-24 14:24:14.885871,33
2021-12-24 14:24:14.885878,33
2021-12-24 14:24:14.885884,59
2021-12-24 14:24:14.885890,163
2021-12-24 14:24:14.885897,329
2021-12-24 14:24:14.885903,395
2021-12-24 14:24:14.885910,73
2021-12-24 14:24:14.885916,-596
2021-12-24 14:24:14.885923,-812
2021-12-24 14:24:14.885929,-260
2021-12-24 14:24:14.885936,130
2021-12-24 14:24:14.885942,35
2021-12-24 14:24:14.885948,23
2021-12-24 14:24:14.885955,108
2021-12-24 14:24:14.885961,78
2021-12-24 14:24:14.885968,56
2021-12-24 14:24:14.885974,85
2021-12-24 14:24:14.885981,80
2021-12-24 14:24:15.110506,66
2021-12-24 14:24:15.110537,75
2021-12-24 14:24:15.110548,85
2021-12-24 14:24:15.110558,80
2021-12-24 14:24:15.110568,75
2021-12-24 14:24:15.110578,73
2021-12-24 14:24:15.110589,75
2021-12-24 14:24:15.110598,80
2021-12-24 14:24:15.110608,85
2021-12-24 14:24:15.110618,89
2021-12-24 14:24:15.110628,97
2021-12-24 14:24:15.110637,97
2021-12-24 14:24:15.110647,106
2021-12-24 14:24:15.110657,123
2021-12-24 14:24:15.110667,125
2021-12-24 14:24:15.110677,123
2021-12-24 14:24:15.110686,120
2021-12-24 14:24:15.110696,116
2021-12-24 14:24:15.110706,106
2021-12-24 14:24:15.110716,101
2021-12-24 14:24:15.110726,94
2021-12-24 14:24:15.110735,82
2021-12-24 14:24:15.110745,61
2021-12-24 14:24:15.110755,40
2021-12-24 14:24:15.110765,21
2021-12-24 14:24:15.110774,9
2021-12-24 14:24:15.110784,2
2021-12-24 14:24:15.110794,-4
2021-12-24 14:24:15.110804,-11
2021-12-24 14:24:15.110814,-9
2021-12-24 14:24:15.335802,2
2021-12-24 14:24:15.335832,4
2021-12-24 14:24:15.335843,9
2021-12-24 14:24:15.335853,16
2021-12-24 14:24:15.335863,21
2021-12-24 14:24:15.335873,16
2021-12-24 14:24:15.335882,23
2021-12-24 14:24:15.335892,35
2021-12-24 14:24:15.335901,33
2021-12-24 14:24:15.335911,21
2021-12-24 14:24:15.335921,23
2021-12-24 14:24:15.335930,30
2021-12-24 14:24:15.335940,26
2021-12-24 14:24:15.335949,11
2021-12-24 14:24:15.335959,9
2021-12-24 14:24:15.335969,14
2021-12-24 14:24:15.335978,23
2021-12-24 14:24:15.336002,35
2021-12-24 14:24:15.336012,47
2021-12-24 14:24:15.336022,49
2021-12-24 14:24:15.336031,33
2021-12-24 14:24:15.336041,11
2021-12-24 14:24:15.336050,2
2021-12-24 14:24:15.336060,7
2021-12-24 14:24:15.336070,9
2021-12-24 14:24:15.336079,7
2021-12-24 14:24:15.336089,14
2021-12-24 14:24:15.336099,21
2021-12-24 14:24:15.336108,21
2021-12-24 14:24:15.336118,18
2021-12-24 14:24:15.605380,35
2021-12-24 14:24:15.605410,99
2021-12-24 14:24:15.605422,232
2021-12-24 14:24:15.605432,386
2021-12-24 14:24:15.605442,331
2021-12-24 14:24:15.605452,-215
2021-12-24 14:24:15.605462,-840
2021-12-24 14:24:15.605472,-691
2021-12-24 14:24:15.605481,-111
2021-12-24 14:24:15.605491,71
2021-12-24 14:24:15.605501,18
2021-12-24 14:24:15.605511,71
2021-12-24 14:24:15.605521,101
2021-12-24 14:24:15.605532,61
2021-12-24 14:24:15.605541,63
2021-12-24 14:24:15.605551,82
2021-12-24 14:24:15.605561,71
2021-12-24 14:24:15.605571,63
2021-12-24 14:24:15.605580,75
2021-12-24 14:24:15.605590,73
2021-12-24 14:24:15.605600,71
2021-12-24 14:24:15.605610,75
2021-12-24 14:24:15.605619,78
2021-12-24 14:24:15.605629,78
2021-12-24 14:24:15.605639,87
2021-12-24 14:24:15.605649,97
2021-12-24 14:24:15.605658,101
2021-12-24 14:24:15.605668,106
2021-12-24 14:24:15.605678,118
2021-12-24 14:24:15.605688,132
2021-12-24 14:24:15.830803,144
2021-12-24 14:24:15.830834,146
2021-12-24 14:24:15.830845,151
2021-12-24 14:24:15.830856,158
2021-12-24 14:24:15.830866,149
2021-12-24 14:24:15.830875,132
2021-12-24 14:24:15.830885,134
2021-12-24 14:24:15.830895,132
2021-12-24 14:24:15.830905,104
2021-12-24 14:24:15.830914,63
2021-12-24 14:24:15.830924,30
2021-12-24 14:24:15.830934,0
2021-12-24 14:24:15.830944,-26
2021-12-24 14:24:15.830954,-28
2021-12-24 14:24:15.830964,-33
2021-12-24 14:24:15.830974,-44
2021-12-24 14:24:15.830984,-42
2021-12-24 14:24:15.830994,-33
2021-12-24 14:24:15.831003,-33
2021-12-24 14:24:15.831013,-26
2021-12-24 14:24:15.831023,-16
2021-12-24 14:24:15.831033,-11
2021-12-24 14:24:15.831042,-7
2021-12-24 14:24:15.831052,0
2021-12-24 14:24:15.831062,4
2021-12-24 14:24:15.831072,7
2021-12-24 14:24:15.831081,9
2021-12-24 14:24:15.831091,16
2021-12-24 14:24:15.831101,35
2021-12-24 14:24:15.831111,42
2021-12-24 14:24:16.099574,40
2021-12-24 14:24:16.099596,44
2021-12-24 14:24:16.099604,33
2021-12-24 14:24:16.099610,2
2021-12-24 14:24:16.099617,-7
2021-12-24 14:24:16.099624,7
2021-12-24 14:24:16.099630,9
2021-12-24 14:24:16.099637,-2
2021-12-24 14:24:16.099643,-4
2021-12-24 14:24:16.099650,9
2021-12-24 14:24:16.099656,16
2021-12-24 14:24:16.099662,11
2021-12-24 14:24:16.099669,18
2021-12-24 14:24:16.099675,68
2021-12-24 14:24:16.099682,191
2021-12-24 14:24:16.099688,343
2021-12-24 14:24:16.099695,232
2021-12-24 14:24:16.099701,-376
2021-12-24 14:24:16.099708,-892
2021-12-24 14:24:16.099714,-568
2021-12-24 14:24:16.099721,7
2021-12-24 14:24:16.099727,94
2021-12-24 14:24:16.099734,37
2021-12-24 14:24:16.099740,108
2021-12-24 14:24:16.099746,125
2021-12-24 14:24:16.099753,89
2021-12-24 14:24:16.099759,94
2021-12-24 14:24:16.099765,104
2021-12-24 14:24:16.099772,97
2021-12-24 14:24:16.099778,99
2021-12-24 14:24:16.369802,104
2021-12-24 14:24:16.369833,101
2021-12-24 14:24:16.369844,101
2021-12-24 14:24:16.369854,104
2021-12-24 14:24:16.369864,104
2021-12-24 14:24:16.369874,101
2021-12-24 14:24:16.369884,101
2021-12-24 14:24:16.369894,101
2021-12-24 14:24:16.369903,106
2021-12-24 14:24:16.369913,118
2021-12-24 14:24:16.369923,132
2021-12-24 14:24:16.369932,144
2021-12-24 14:24:16.369942,153
2021-12-24 14:24:16.369952,158
2021-12-24 14:24:16.369961,165
2021-12-24 14:24:16.369971,168
2021-12-24 14:24:16.369981,161
2021-12-24 14:24:16.369990,151
2021-12-24 14:24:16.370000,142
2021-12-24 14:24:16.370009,123
2021-12-24 14:24:16.370019,92
2021-12-24 14:24:16.370029,54
2021-12-24 14:24:16.370038,18
2021-12-24 14:24:16.370048,-4
2021-12-24 14:24:16.370058,-26
2021-12-24 14:24:16.370067,-40
2021-12-24 14:24:16.370077,-40
2021-12-24 14:24:16.370087,-35
2021-12-24 14:24:16.370096,-30
2021-12-24 14:24:16.370106,-23
2021-12-24 14:24:16.550236,-16
2021-12-24 14:24:16.550265,-7
2021-12-24 14:24:16.550277,0
2021-12-24 14:24:16.550287,7
2021-12-24 14:24:16.550297,9
2021-12-24 14:24:16.550307,9
2021-12-24 14:24:16.550317,11
2021-12-24 14:24:16.550327,16
2021-12-24 14:24:16.550337,30
2021-12-24 14:24:16.550346,44
2021-12-24 14:24:16.550356,52
2021-12-24 14:24:16.550366,61
2021-12-24 14:24:16.550376,54
2021-12-24 14:24:16.550385,26
2021-12-24 14:24:16.550395,11
2021-12-24 14:24:16.550405,18
2021-12-24 14:24:16.550415,21
2021-12-24 14:24:16.550425,16
2021-12-24 14:24:16.550434,16
2021-12-24 14:24:16.550444,21
2021-12-24 14:24:16.550454,28
2021-12-24 14:24:16.550464,23
2021-12-24 14:24:16.550474,21
2021-12-24 14:24:16.550484,47
2021-12-24 14:24:16.550493,139
2021-12-24 14:24:16.550503,279
2021-12-24 14:24:16.550513,317
2021-12-24 14:24:16.550523,-63
2021-12-24 14:24:16.550533,-705
2021-12-24 14:24:16.550543,-715
2021-12-24 14:24:16.775797,-94
2021-12-24 14:24:16.775827,165
2021-12-24 14:24:16.775839,44
2021-12-24 14:24:16.775849,75
2021-12-24 14:24:16.775859,144
2021-12-24 14:24:16.775869,99
2021-12-24 14:24:16.775879,85
2021-12-24 14:24:16.775889,113
2021-12-24 14:24:16.775899,108
2021-12-24 14:24:16.775908,94
2021-12-24 14:24:16.775918,99
2021-12-24 14:24:16.775928,97
2021-12-24 14:24:16.775938,89
2021-12-24 14:24:16.775947,94
2021-12-24 14:24:16.775957,97
2021-12-24 14:24:16.775967,94
2021-12-24 14:24:16.775977,99
2021-12-24 14:24:16.775986,106
2021-12-24 14:24:16.775996,113
2021-12-24 14:24:16.776006,120
2021-12-24 14:24:16.776016,127
2021-12-24 14:24:16.776026,134
2021-12-24 14:24:16.776035,142
2021-12-24 14:24:16.776045,149
2021-12-24 14:24:16.776055,156
2021-12-24 14:24:16.776065,156
2021-12-24 14:24:16.776075,146
2021-12-24 14:24:16.776084,137
2021-12-24 14:24:16.776094,125
2021-12-24 14:24:16.776104,111
2021-12-24 14:24:16.955266,87
2021-12-24 14:24:16.955305,52
2021-12-24 14:24:16.955315,23
2021-12-24 14:24:16.955322,4
2021-12-24 14:24:16.955329,-14
2021-12-24 14:24:16.955337,-21
2021-12-24 14:24:16.955344,-18
2021-12-24 14:24:16.955350,-14
2021-12-24 14:24:16.955357,-7
2021-12-24 14:24:16.955364,0
2021-12-24 14:24:16.955370,9
2021-12-24 14:24:16.955377,11
2021-12-24 14:24:16.955383,18
2021-12-24 14:24:16.955390,28
2021-12-24 14:24:16.955397,35
2021-12-24 14:24:16.955404,37
2021-12-24 14:24:16.955410,33
2021-12-24 14:24:16.955417,30
2021-12-24 14:24:16.955423,28
2021-12-24 14:24:16.955430,33
2021-12-24 14:24:16.955436,42
2021-12-24 14:24:16.955443,54
2021-12-24 14:24:16.955458,66
2021-12-24 14:24:16.955464,73
2021-12-24 14:24:16.955470,73
2021-12-24 14:24:16.955477,59
2021-12-24 14:24:16.955483,35
2021-12-24 14:24:16.955489,28
2021-12-24 14:24:16.955539,35
2021-12-24 14:24:16.955547,35
2021-12-24 14:24:17.180537,37
2021-12-24 14:24:17.180564,42
2021-12-24 14:24:17.180572,44
2021-12-24 14:24:17.180579,44
2021-12-24 14:24:17.180585,37
2021-12-24 14:24:17.180592,47
2021-12-24 14:24:17.180598,111
2021-12-24 14:24:17.180604,243
2021-12-24 14:24:17.180611,364
2021-12-24 14:24:17.180617,243
2021-12-24 14:24:17.180623,-322
2021-12-24 14:24:17.180630,-769
2021-12-24 14:24:17.180636,-393
2021-12-24 14:24:17.180643,120
2021-12-24 14:24:17.180649,94
2021-12-24 14:24:17.180656,21
2021-12-24 14:24:17.180662,116
2021-12-24 14:24:17.180668,116
2021-12-24 14:24:17.180675,78
2021-12-24 14:24:17.180681,101
2021-12-24 14:24:17.180687,111
2021-12-24 14:24:17.180694,94
2021-12-24 14:24:17.180700,94
2021-12-24 14:24:17.180707,101
2021-12-24 14:24:17.180713,101
2021-12-24 14:24:17.180720,99
2021-12-24 14:24:17.180726,104
2021-12-24 14:24:17.180733,104
2021-12-24 14:24:17.180739,104
2021-12-24 14:24:17.180746,108
2021-12-24 14:24:17.494976,111
2021-12-24 14:24:17.495007,116
2021-12-24 14:24:17.495019,120
2021-12-24 14:24:17.495030,123
2021-12-24 14:24:17.495039,125
2021-12-24 14:24:17.495049,130
2021-12-24 14:24:17.495059,130
2021-12-24 14:24:17.495069,123
2021-12-24 14:24:17.495079,113
2021-12-24 14:24:17.495088,101
2021-12-24 14:24:17.495098,87
2021-12-24 14:24:17.495108,78
2021-12-24 14:24:17.495117,68
2021-12-24 14:24:17.495127,52
2021-12-24 14:24:17.495137,28
2021-12-24 14:24:17.495146,7
2021-12-24 14:24:17.495156,-4
2021-12-24 14:24:17.495166,-4
2021-12-24 14:24:17.495176,-4
2021-12-24 14:24:17.495185,-4
2021-12-24 14:24:17.495195,-2
2021-12-24 14:24:17.495205,-2
2021-12-24 14:24:17.495214,4
2021-12-24 14:24:17.495224,11
2021-12-24 14:24:17.495234,16
2021-12-24 14:24:17.495243,23
2021-12-24 14:24:17.495253,28
2021-12-24 14:24:17.495263,33
2021-12-24 14:24:17.495273,37
2021-12-24 14:24:17.495282,40
2021-12-24 14:24:17.675421,44
2021-12-24 14:24:17.675452,49
2021-12-24 14:24:17.675464,47
2021-12-24 14:24:17.675475,42
2021-12-24 14:24:17.675485,42
2021-12-24 14:24:17.675494,47
2021-12-24 14:24:17.675504,47
2021-12-24 14:24:17.675514,47
2021-12-24 14:24:17.675524,42
2021-12-24 14:24:17.675533,35
2021-12-24 14:24:17.675543,35
2021-12-24 14:24:17.675553,35
2021-12-24 14:24:17.675562,26
2021-12-24 14:24:17.675572,26
2021-12-24 14:24:17.675592,35
2021-12-24 14:24:17.675602,52
2021-12-24 14:24:17.675612,63
2021-12-24 14:24:17.675622,63
2021-12-24 14:24:17.675631,59
2021-12-24 14:24:17.675641,44
2021-12-24 14:24:17.675651,23
2021-12-24 14:24:17.675661,16
2021-12-24 14:24:17.675670,23
2021-12-24 14:24:17.675680,26
2021-12-24 14:24:17.675690,28
2021-12-24 14:24:17.675700,30
2021-12-24 14:24:17.675710,33
2021-12-24 14:24:17.675719,35
2021-12-24 14:24:17.675729,44
2021-12-24 14:24:17.675739,82
2021-12-24 14:24:17.945423,182
2021-12-24 14:24:17.945453,350
2021-12-24 14:24:17.945464,478
2021-12-24 14:24:17.945475,307
2021-12-24 14:24:17.945485,-336
2021-12-24 14:24:17.945494,-847
2021-12-24 14:24:17.945504,-485
2021-12-24 14:24:17.945514,71
2021-12-24 14:24:17.945524,73
2021-12-24 14:24:17.945533,0
2021-12-24 14:24:17.945543,101
2021-12-24 14:24:17.945553,104
2021-12-24 14:24:17.945562,56
2021-12-24 14:24:17.945572,73
2021-12-24 14:24:17.945582,82
2021-12-24 14:24:17.945592,68
2021-12-24 14:24:17.945601,73
2021-12-24 14:24:17.945611,78
2021-12-24 14:24:17.945621,71
2021-12-24 14:24:17.945631,63
2021-12-24 14:24:17.945640,68
2021-12-24 14:24:17.945650,71
2021-12-24 14:24:17.945660,73
2021-12-24 14:24:17.945669,78
2021-12-24 14:24:17.945679,80
2021-12-24 14:24:17.945689,85
2021-12-24 14:24:17.945699,89
2021-12-24 14:24:17.945708,92
2021-12-24 14:24:17.945718,97
2021-12-24 14:24:17.945728,106
2021-12-24 14:24:18.213409,116
2021-12-24 14:24:18.213428,113
2021-12-24 14:24:18.213436,111
2021-12-24 14:24:18.213443,104
2021-12-24 14:24:18.213449,97
2021-12-24 14:24:18.213455,87
2021-12-24 14:24:18.213462,78
2021-12-24 14:24:18.213468,59
2021-12-24 14:24:18.213474,37
2021-12-24 14:24:18.213480,18
2021-12-24 14:24:18.213487,2
2021-12-24 14:24:18.213493,-7
2021-12-24 14:24:18.213500,-11
2021-12-24 14:24:18.213506,-16
2021-12-24 14:24:18.213512,-16
2021-12-24 14:24:18.213519,-11
2021-12-24 14:24:18.213525,-7
2021-12-24 14:24:18.213532,-2
2021-12-24 14:24:18.213538,4
2021-12-24 14:24:18.213544,7
2021-12-24 14:24:18.213551,11
2021-12-24 14:24:18.213557,14
2021-12-24 14:24:18.213563,16
2021-12-24 14:24:18.213570,23
2021-12-24 14:24:18.213576,28
2021-12-24 14:24:18.213582,28
2021-12-24 14:24:18.213589,30
2021-12-24 14:24:18.213595,33
2021-12-24 14:24:18.213601,35
2021-12-24 14:24:18.213608,35
2021-12-24 14:24:18.350877,33
2021-12-24 14:24:18.350907,35
2021-12-24 14:24:18.350919,35
2021-12-24 14:24:18.350929,33
2021-12-24 14:24:18.350939,30
2021-12-24 14:24:18.350949,30
2021-12-24 14:24:18.350958,28
2021-12-24 14:24:18.350968,26
2021-12-24 14:24:18.350978,28
2021-12-24 14:24:18.350988,30
2021-12-24 14:24:18.350997,28
2021-12-24 14:24:18.351007,28
2021-12-24 14:24:18.351017,28
2021-12-24 14:24:18.351027,26
2021-12-24 14:24:18.351037,28
2021-12-24 14:24:18.351046,26
2021-12-24 14:24:18.351056,21
2021-12-24 14:24:18.351066,18
2021-12-24 14:24:18.351076,18
2021-12-24 14:24:18.351085,28
2021-12-24 14:24:18.351095,49
2021-12-24 14:24:18.351105,63
2021-12-24 14:24:18.351115,63
2021-12-24 14:24:18.351124,54
2021-12-24 14:24:18.351134,35
2021-12-24 14:24:18.351144,21
2021-12-24 14:24:18.351154,21
2021-12-24 14:24:18.351164,28
2021-12-24 14:24:18.351173,28
2021-12-24 14:24:18.351183,30
2021-12-24 14:24:18.575859,33
2021-12-24 14:24:18.575880,37
2021-12-24 14:24:18.575887,44
2021-12-24 14:24:18.575894,54
2021-12-24 14:24:18.575900,94
2021-12-24 14:24:18.575907,191
2021-12-24 14:24:18.575913,345
2021-12-24 14:24:18.575919,461
2021-12-24 14:24:18.575926,279
2021-12-24 14:24:18.575932,-371
2021-12-24 14:24:18.575938,-845
2021-12-24 14:24:18.575945,-445
2021-12-24 14:24:18.575951,85
2021-12-24 14:24:18.575957,56
2021-12-24 14:24:18.575964,-11
2021-12-24 14:24:18.575970,87
2021-12-24 14:24:18.575976,85
2021-12-24 14:24:18.575982,44
2021-12-24 14:24:18.575989,68
2021-12-24 14:24:18.575995,78
2021-12-24 14:24:18.576001,63
2021-12-24 14:24:18.576008,71
2021-12-24 14:24:18.576014,71
2021-12-24 14:24:18.576020,63
2021-12-24 14:24:18.576026,66
2021-12-24 14:24:18.576033,68
2021-12-24 14:24:18.576039,68
2021-12-24 14:24:18.576045,73
2021-12-24 14:24:18.576052,78
2021-12-24 14:24:18.576058,78
2021-12-24 14:24:18.800379,87
2021-12-24 14:24:18.800410,97
2021-12-24 14:24:18.800422,99
2021-12-24 14:24:18.800433,108
2021-12-24 14:24:18.800443,116
2021-12-24 14:24:18.800452,113
2021-12-24 14:24:18.800462,116
2021-12-24 14:24:18.800472,118
2021-12-24 14:24:18.800482,113
2021-12-24 14:24:18.800492,99
2021-12-24 14:24:18.800502,87
2021-12-24 14:24:18.800511,80
2021-12-24 14:24:18.800521,68
2021-12-24 14:24:18.800531,54
2021-12-24 14:24:18.800541,37
2021-12-24 14:24:18.800550,23
2021-12-24 14:24:18.800560,14
2021-12-24 14:24:18.800570,7
2021-12-24 14:24:18.800580,4
2021-12-24 14:24:18.800589,9
2021-12-24 14:24:18.800599,11
2021-12-24 14:24:18.800609,11
2021-12-24 14:24:18.800619,16
2021-12-24 14:24:18.800628,16
2021-12-24 14:24:18.800638,18
2021-12-24 14:24:18.800648,23
2021-12-24 14:24:18.800658,30
2021-12-24 14:24:18.800668,30
2021-12-24 14:24:18.800678,26
2021-12-24 14:24:18.800687,33
2021-12-24 14:24:19.025416,40
2021-12-24 14:24:19.025448,44
2021-12-24 14:24:19.025459,42
2021-12-24 14:24:19.025469,40
2021-12-24 14:24:19.025479,37
2021-12-24 14:24:19.025489,37
2021-12-24 14:24:19.025499,37
2021-12-24 14:24:19.025509,37
2021-12-24 14:24:19.025519,40
2021-12-24 14:24:19.025529,37
2021-12-24 14:24:19.025539,30
2021-12-24 14:24:19.025548,30
2021-12-24 14:24:19.025558,35
2021-12-24 14:24:19.025568,37
2021-12-24 14:24:19.025578,33
2021-12-24 14:24:19.025588,33
2021-12-24 14:24:19.025598,33
2021-12-24 14:24:19.025607,35
2021-12-24 14:24:19.025617,35
2021-12-24 14:24:19.025627,30
2021-12-24 14:24:19.025637,26
2021-12-24 14:24:19.025647,30
2021-12-24 14:24:19.025656,44
2021-12-24 14:24:19.025666,63
2021-12-24 14:24:19.025676,78
2021-12-24 14:24:19.025686,80
2021-12-24 14:24:19.025696,68
2021-12-24 14:24:19.025706,47
2021-12-24 14:24:19.025715,28
2021-12-24 14:24:19.025725,26
2021-12-24 14:24:19.295415,28
2021-12-24 14:24:19.295446,30
2021-12-24 14:24:19.295457,28
2021-12-24 14:24:19.295467,26
2021-12-24 14:24:19.295477,26
2021-12-24 14:24:19.295487,30
2021-12-24 14:24:19.295497,47
2021-12-24 14:24:19.295506,99
2021-12-24 14:24:19.295516,217
2021-12-24 14:24:19.295526,386
2021-12-24 14:24:19.295536,473
2021-12-24 14:24:19.295545,184
2021-12-24 14:24:19.295555,-528
2021-12-24 14:24:19.295565,-864
2021-12-24 14:24:19.295575,-343
2021-12-24 14:24:19.295585,101
2021-12-24 14:24:19.295595,26
2021-12-24 14:24:19.295604,9
2021-12-24 14:24:19.295614,108
2021-12-24 14:24:19.295624,82
2021-12-24 14:24:19.295633,56
2021-12-24 14:24:19.295643,87
2021-12-24 14:24:19.295653,87
2021-12-24 14:24:19.295662,75
2021-12-24 14:24:19.295672,87
2021-12-24 14:24:19.295682,89
2021-12-24 14:24:19.295691,85
2021-12-24 14:24:19.295701,87
2021-12-24 14:24:19.295711,87
2021-12-24 14:24:19.295720,85
2021-12-24 14:24:19.565197,89
2021-12-24 14:24:19.565216,89
2021-12-24 14:24:19.565223,89
2021-12-24 14:24:19.565230,99
2021-12-24 14:24:19.565236,106
2021-12-24 14:24:19.565242,116
2021-12-24 14:24:19.565249,127
2021-12-24 14:24:19.565255,134
2021-12-24 14:24:19.565261,134
2021-12-24 14:24:19.565268,134
2021-12-24 14:24:19.565274,139
2021-12-24 14:24:19.565280,137
2021-12-24 14:24:19.565287,123
2021-12-24 14:24:19.565293,108
2021-12-24 14:24:19.565299,97
2021-12-24 14:24:19.565306,75
2021-12-24 14:24:19.565312,52
2021-12-24 14:24:19.565318,33
2021-12-24 14:24:19.565324,18
2021-12-24 14:24:19.565331,2
2021-12-24 14:24:19.565337,-7
2021-12-24 14:24:19.565343,-7
2021-12-24 14:24:19.565350,-2
2021-12-24 14:24:19.565356,0
2021-12-24 14:24:19.565363,-2
2021-12-24 14:24:19.565369,2
2021-12-24 14:24:19.565375,9
2021-12-24 14:24:19.565382,16
2021-12-24 14:24:19.565388,23
2021-12-24 14:24:19.565394,30
2021-12-24 14:24:19.746042,35
2021-12-24 14:24:19.746109,42
2021-12-24 14:24:19.746125,42
2021-12-24 14:24:19.746136,40
2021-12-24 14:24:19.746145,35
2021-12-24 14:24:19.746155,35
2021-12-24 14:24:19.746165,35
2021-12-24 14:24:19.746175,30
2021-12-24 14:24:19.746185,26
2021-12-24 14:24:19.746194,21
2021-12-24 14:24:19.746204,11
2021-12-24 14:24:19.746214,14
2021-12-24 14:24:19.746224,16
2021-12-24 14:24:19.746233,9
2021-12-24 14:24:19.746243,-4
2021-12-24 14:24:19.746253,-9
2021-12-24 14:24:19.746263,-2
2021-12-24 14:24:19.746272,14
2021-12-24 14:24:19.746282,33
2021-12-24 14:24:19.746292,35
2021-12-24 14:24:19.746301,26
2021-12-24 14:24:19.746311,14
2021-12-24 14:24:19.746321,0
2021-12-24 14:24:19.746331,-11
2021-12-24 14:24:19.746341,-2
2021-12-24 14:24:19.746350,4
2021-12-24 14:24:19.746360,2
2021-12-24 14:24:19.746370,4
2021-12-24 14:24:19.746379,4
2021-12-24 14:24:19.746389,2
2021-12-24 14:24:20.058991,11
2021-12-24 14:24:20.059008,33
2021-12-24 14:24:20.059015,97
2021-12-24 14:24:20.059020,241
2021-12-24 14:24:20.059026,431
2021-12-24 14:24:20.059031,473
2021-12-24 14:24:20.059036,37
2021-12-24 14:24:20.059041,-722
2021-12-24 14:24:20.059046,-880
2021-12-24 14:24:20.059051,-310
2021-12-24 14:24:20.059057,44
2021-12-24 14:24:20.059062,4
2021-12-24 14:24:20.059067,26
2021-12-24 14:24:20.059072,80
2021-12-24 14:24:20.059077,52
2021-12-24 14:24:20.059083,47
2021-12-24 14:24:20.059088,75
2021-12-24 14:24:20.059093,71
2021-12-24 14:24:20.059098,59
2021-12-24 14:24:20.059104,71
2021-12-24 14:24:20.059109,80
2021-12-24 14:24:20.059114,75
2021-12-24 14:24:20.059119,75
2021-12-24 14:24:20.059124,87
2021-12-24 14:24:20.059130,92
2021-12-24 14:24:20.059135,92
2021-12-24 14:24:20.059140,97
2021-12-24 14:24:20.059145,104
2021-12-24 14:24:20.059150,113
2021-12-24 14:24:20.059155,127
2021-12-24 14:24:20.284074,142
2021-12-24 14:24:20.284113,161
2021-12-24 14:24:20.284124,172
2021-12-24 14:24:20.284134,184
2021-12-24 14:24:20.284144,196
2021-12-24 14:24:20.284154,198
2021-12-24 14:24:20.284164,191
2021-12-24 14:24:20.284173,175
2021-12-24 14:24:20.284183,156
2021-12-24 14:24:20.284193,139
2021-12-24 14:24:20.284203,113
2021-12-24 14:24:20.284212,75
2021-12-24 14:24:20.284222,30
2021-12-24 14:24:20.284232,-4
2021-12-24 14:24:20.284242,-21
2021-12-24 14:24:20.284251,-33
2021-12-24 14:24:20.284261,-40
2021-12-24 14:24:20.284271,-47
2021-12-24 14:24:20.284281,-52
2021-12-24 14:24:20.284342,-42
2021-12-24 14:24:20.284352,-30
2021-12-24 14:24:20.284362,-28
2021-12-24 14:24:20.284372,-23
2021-12-24 14:24:20.284382,-14
2021-12-24 14:24:20.284391,-14
2021-12-24 14:24:20.284401,-14
2021-12-24 14:24:20.284411,-2
2021-12-24 14:24:20.284421,4
2021-12-24 14:24:20.284431,2
2021-12-24 14:24:20.284440,9
2021-12-24 14:24:20.465906,11
2021-12-24 14:24:20.465936,7
2021-12-24 14:24:20.465948,9
2021-12-24 14:24:20.465958,11
2021-12-24 14:24:20.465967,7
2021-12-24 14:24:20.465977,7
2021-12-24 14:24:20.465987,21
2021-12-24 14:24:20.465996,30
2021-12-24 14:24:20.466006,30
2021-12-24 14:24:20.466016,16
2021-12-24 14:24:20.466025,-4
2021-12-24 14:24:20.466035,-16
2021-12-24 14:24:20.466045,-21
2021-12-24 14:24:20.466055,-18
2021-12-24 14:24:20.466064,-14
2021-12-24 14:24:20.466074,-11
2021-12-24 14:24:20.466084,-7
2021-12-24 14:24:20.466094,-4
2021-12-24 14:24:20.466103,-7
2021-12-24 14:24:20.466113,4
2021-12-24 14:24:20.466123,54
2021-12-24 14:24:20.466133,165
2021-12-24 14:24:20.466143,343
2021-12-24 14:24:20.466152,433
2021-12-24 14:24:20.466162,116
2021-12-24 14:24:20.466172,-596
2021-12-24 14:24:20.466181,-862
2021-12-24 14:24:20.466191,-345
2021-12-24 14:24:20.466201,61
2021-12-24 14:24:20.466210,33
2021-12-24 14:24:20.646101,30
2021-12-24 14:24:20.646122,99
2021-12-24 14:24:20.646130,82
2021-12-24 14:24:20.646137,71
2021-12-24 14:24:20.646143,89
2021-12-24 14:24:20.646149,82
2021-12-24 14:24:20.646156,75
2021-12-24 14:24:20.646162,85
2021-12-24 14:24:20.646168,85
2021-12-24 14:24:20.646187,80
2021-12-24 14:24:20.646193,87
2021-12-24 14:24:20.646200,92
2021-12-24 14:24:20.646206,89
2021-12-24 14:24:20.646212,97
2021-12-24 14:24:20.646219,106
2021-12-24 14:24:20.646225,111
2021-12-24 14:24:20.646231,116
2021-12-24 14:24:20.646237,123
2021-12-24 14:24:20.646244,139
2021-12-24 14:24:20.646250,156
2021-12-24 14:24:20.646256,175
2021-12-24 14:24:20.646263,189
2021-12-24 14:24:20.646269,196
2021-12-24 14:24:20.646275,194
2021-12-24 14:24:20.646281,196
2021-12-24 14:24:20.646288,189
2021-12-24 14:24:20.646294,168
2021-12-24 14:24:20.646300,142
2021-12-24 14:24:20.646306,111
2021-12-24 14:24:20.646313,68
2021-12-24 14:24:20.870503,26
2021-12-24 14:24:20.870533,2
2021-12-24 14:24:20.870545,-14
2021-12-24 14:24:20.870555,-33
2021-12-24 14:24:20.870565,-44
2021-12-24 14:24:20.870575,-47
2021-12-24 14:24:20.870585,-44
2021-12-24 14:24:20.870595,-37
2021-12-24 14:24:20.870605,-33
2021-12-24 14:24:20.870615,-30
2021-12-24 14:24:20.870624,-23
2021-12-24 14:24:20.870634,-21
2021-12-24 14:24:20.870644,-14
2021-12-24 14:24:20.870654,-11
2021-12-24 14:24:20.870664,-9
2021-12-24 14:24:20.870673,-2
2021-12-24 14:24:20.870683,2
2021-12-24 14:24:20.870693,-4
2021-12-24 14:24:20.870703,-2
2021-12-24 14:24:20.870713,0
2021-12-24 14:24:20.870723,2
2021-12-24 14:24:20.870732,18
2021-12-24 14:24:20.870742,33
2021-12-24 14:24:20.870752,33
2021-12-24 14:24:20.870762,30
2021-12-24 14:24:20.870771,23
2021-12-24 14:24:20.870781,2
2021-12-24 14:24:20.870791,-9
2021-12-24 14:24:20.870801,-9
2021-12-24 14:24:20.870811,-7
2021-12-24 14:24:21.140949,2
2021-12-24 14:24:21.140979,7
2021-12-24 14:24:21.140991,4
2021-12-24 14:24:21.141001,4
2021-12-24 14:24:21.141011,4
2021-12-24 14:24:21.141021,16
2021-12-24 14:24:21.141031,82
2021-12-24 14:24:21.141040,234
2021-12-24 14:24:21.141050,390
2021-12-24 14:24:21.141060,329
2021-12-24 14:24:21.141070,-196
2021-12-24 14:24:21.141079,-779
2021-12-24 14:24:21.141089,-596
2021-12-24 14:24:21.141099,-21
2021-12-24 14:24:21.141109,89
2021-12-24 14:24:21.141119,-11
2021-12-24 14:24:21.141128,56
2021-12-24 14:24:21.141138,97
2021-12-24 14:24:21.141148,56
2021-12-24 14:24:21.141157,68
2021-12-24 14:24:21.141167,87
2021-12-24 14:24:21.141177,71
2021-12-24 14:24:21.141186,71
2021-12-24 14:24:21.141196,82
2021-12-24 14:24:21.141205,82
2021-12-24 14:24:21.141215,82
2021-12-24 14:24:21.141225,87
2021-12-24 14:24:21.141235,87
2021-12-24 14:24:21.141244,89
2021-12-24 14:24:21.141254,94
2021-12-24 14:24:21.364810,101
2021-12-24 14:24:21.364828,111
2021-12-24 14:24:21.364836,118
2021-12-24 14:24:21.364842,123
2021-12-24 14:24:21.364849,137
2021-12-24 14:24:21.364855,156
2021-12-24 14:24:21.364861,170
2021-12-24 14:24:21.364868,177
2021-12-24 14:24:21.364874,175
2021-12-24 14:24:21.364880,168
2021-12-24 14:24:21.364887,158
2021-12-24 14:24:21.364893,149
2021-12-24 14:24:21.364900,130
2021-12-24 14:24:21.364906,106
2021-12-24 14:24:21.364912,71
2021-12-24 14:24:21.364919,33
2021-12-24 14:24:21.364925,11
2021-12-24 14:24:21.364932,-4
2021-12-24 14:24:21.364938,-18
2021-12-24 14:24:21.364944,-23
2021-12-24 14:24:21.364951,-21
2021-12-24 14:24:21.364957,-23
2021-12-24 14:24:21.364963,-23
2021-12-24 14:24:21.364970,-21
2021-12-24 14:24:21.364976,-16
2021-12-24 14:24:21.364983,-11
2021-12-24 14:24:21.364989,-7
2021-12-24 14:24:21.364996,-4
2021-12-24 14:24:21.365002,0
2021-12-24 14:24:21.365008,2
2021-12-24 14:24:21.590971,2
2021-12-24 14:24:21.591002,2
2021-12-24 14:24:21.591014,4
2021-12-24 14:24:21.591024,9
2021-12-24 14:24:21.591034,11
2021-12-24 14:24:21.591043,11
2021-12-24 14:24:21.591053,11
2021-12-24 14:24:21.591063,7
2021-12-24 14:24:21.591073,-2
2021-12-24 14:24:21.591082,-9
2021-12-24 14:24:21.591092,-2
2021-12-24 14:24:21.591102,14
2021-12-24 14:24:21.591112,30
2021-12-24 14:24:21.591122,37
2021-12-24 14:24:21.591131,33
2021-12-24 14:24:21.591141,18
2021-12-24 14:24:21.591151,2
2021-12-24 14:24:21.591161,-4
2021-12-24 14:24:21.591171,-2
2021-12-24 14:24:21.591180,-2
2021-12-24 14:24:21.591190,-4
2021-12-24 14:24:21.591200,-4
2021-12-24 14:24:21.591209,-2
2021-12-24 14:24:21.591219,9
2021-12-24 14:24:21.591229,26
2021-12-24 14:24:21.591239,33
2021-12-24 14:24:21.591249,78
2021-12-24 14:24:21.591258,203
2021-12-24 14:24:21.591268,371
2021-12-24 14:24:21.591278,445
2021-12-24 14:24:21.815634,153
2021-12-24 14:24:21.815664,-551
2021-12-24 14:24:21.815675,-850
2021-12-24 14:24:21.815686,-307
2021-12-24 14:24:21.815696,116
2021-12-24 14:24:21.815706,16
2021-12-24 14:24:21.815715,2
2021-12-24 14:24:21.815725,97
2021-12-24 14:24:21.815735,59
2021-12-24 14:24:21.815745,37
2021-12-24 14:24:21.815755,75
2021-12-24 14:24:21.815764,75
2021-12-24 14:24:21.815774,63
2021-12-24 14:24:21.815784,68
2021-12-24 14:24:21.815794,68
2021-12-24 14:24:21.815804,68
2021-12-24 14:24:21.815814,75
2021-12-24 14:24:21.815823,78
2021-12-24 14:24:21.815833,75
2021-12-24 14:24:21.815843,82
2021-12-24 14:24:21.815853,87
2021-12-24 14:24:21.815863,87
2021-12-24 14:24:21.815873,97
2021-12-24 14:24:21.815882,113
2021-12-24 14:24:21.815892,123
2021-12-24 14:24:21.815902,130
2021-12-24 14:24:21.815912,139
2021-12-24 14:24:21.815921,153
2021-12-24 14:24:21.815931,156
2021-12-24 14:24:21.815941,149
2021-12-24 14:24:22.040488,139
2021-12-24 14:24:22.040519,132
2021-12-24 14:24:22.040531,118
2021-12-24 14:24:22.040542,101
2021-12-24 14:24:22.040552,80
2021-12-24 14:24:22.040562,49
2021-12-24 14:24:22.040572,23
2021-12-24 14:24:22.040581,9
2021-12-24 14:24:22.040591,0
2021-12-24 14:24:22.040601,-2
2021-12-24 14:24:22.040611,0
2021-12-24 14:24:22.040621,-2
2021-12-24 14:24:22.040631,-7
2021-12-24 14:24:22.040641,0
2021-12-24 14:24:22.040651,11
2021-12-24 14:24:22.040661,18
2021-12-24 14:24:22.040670,18
2021-12-24 14:24:22.040680,23
2021-12-24 14:24:22.040690,26
2021-12-24 14:24:22.040700,26
2021-12-24 14:24:22.040710,30
2021-12-24 14:24:22.040720,30
2021-12-24 14:24:22.040729,30
2021-12-24 14:24:22.040739,44
2021-12-24 14:24:22.040749,54
2021-12-24 14:24:22.040759,40
2021-12-24 14:24:22.040768,28
2021-12-24 14:24:22.040778,40
2021-12-24 14:24:22.040788,42
2021-12-24 14:24:22.040798,30
2021-12-24 14:24:22.308838,33
2021-12-24 14:24:22.308857,40
2021-12-24 14:24:22.308865,30
2021-12-24 14:24:22.308871,28
2021-12-24 14:24:22.308878,35
2021-12-24 14:24:22.308884,23
2021-12-24 14:24:22.308890,7
2021-12-24 14:24:22.308897,9
2021-12-24 14:24:22.308903,9
2021-12-24 14:24:22.308910,0
2021-12-24 14:24:22.308916,4
2021-12-24 14:24:22.308923,26
2021-12-24 14:24:22.308929,42
2021-12-24 14:24:22.308935,47
2021-12-24 14:24:22.308942,52
2021-12-24 14:24:22.308948,47
2021-12-24 14:24:22.308954,21
2021-12-24 14:24:22.308961,2
2021-12-24 14:24:22.308967,16
2021-12-24 14:24:22.308974,30
2021-12-24 14:24:22.308980,30
2021-12-24 14:24:22.308986,28
2021-12-24 14:24:22.308993,26
2021-12-24 14:24:22.308999,26
2021-12-24 14:24:22.309005,33
2021-12-24 14:24:22.309012,49
2021-12-24 14:24:22.309018,89
2021-12-24 14:24:22.309025,208
2021-12-24 14:24:22.309031,369
2021-12-24 14:24:22.309038,445
2021-12-24 14:24:22.491114,215
2021-12-24 14:24:22.491145,-428
2021-12-24 14:24:22.491157,-821
2021-12-24 14:24:22.491167,-371
2021-12-24 14:24:22.491176,106
2021-12-24 14:24:22.491186,52
2021-12-24 14:24:22.491196,7
2021-12-24 14:24:22.491205,92
2021-12-24 14:24:22.491215,75
2021-12-24 14:24:22.491225,54
2021-12-24 14:24:22.491235,80
2021-12-24 14:24:22.491244,73
2021-12-24 14:24:22.491254,61
2021-12-24 14:24:22.491264,73
2021-12-24 14:24:22.491273,78
2021-12-24 14:24:22.491283,73
2021-12-24 14:24:22.491292,75
2021-12-24 14:24:22.491302,78
2021-12-24 14:24:22.491312,82
2021-12-24 14:24:22.491321,89
2021-12-24 14:24:22.491331,94
2021-12-24 14:24:22.491341,97
2021-12-24 14:24:22.491350,101
2021-12-24 14:24:22.491360,111
2021-12-24 14:24:22.491369,120
2021-12-24 14:24:22.491379,130
2021-12-24 14:24:22.491389,137
2021-12-24 14:24:22.491398,139
2021-12-24 14:24:22.491408,142
2021-12-24 14:24:22.491418,144
2021-12-24 14:24:22.760462,137
2021-12-24 14:24:22.760483,127
2021-12-24 14:24:22.760491,116
2021-12-24 14:24:22.760498,101
2021-12-24 14:24:22.760504,82
2021-12-24 14:24:22.760510,63
2021-12-24 14:24:22.760517,49
2021-12-24 14:24:22.760523,33
2021-12-24 14:24:22.760529,26
2021-12-24 14:24:22.760536,23
2021-12-24 14:24:22.760542,16
2021-12-24 14:24:22.760548,16
2021-12-24 14:24:22.760555,26
2021-12-24 14:24:22.760561,28
2021-12-24 14:24:22.760567,30
2021-12-24 14:24:22.760574,35
2021-12-24 14:24:22.760580,35
2021-12-24 14:24:22.760587,40
2021-12-24 14:24:22.760593,47
2021-12-24 14:24:22.760599,49
2021-12-24 14:24:22.760606,52
2021-12-24 14:24:22.760612,54
2021-12-24 14:24:22.760618,56
2021-12-24 14:24:22.760625,59
2021-12-24 14:24:22.760631,61
2021-12-24 14:24:22.760637,63
2021-12-24 14:24:22.760644,61
2021-12-24 14:24:22.760650,59
2021-12-24 14:24:22.760656,56
2021-12-24 14:24:22.760662,52
2021-12-24 14:24:23.030285,47
2021-12-24 14:24:23.030316,47
2021-12-24 14:24:23.030328,44
2021-12-24 14:24:23.030338,37
2021-12-24 14:24:23.030349,28
2021-12-24 14:24:23.030358,28
2021-12-24 14:24:23.030368,28
2021-12-24 14:24:23.030378,28
2021-12-24 14:24:23.030388,26
2021-12-24 14:24:23.030398,21
2021-12-24 14:24:23.030408,14
2021-12-24 14:24:23.030418,9
2021-12-24 14:24:23.030427,7
2021-12-24 14:24:23.030437,7
2021-12-24 14:24:23.030448,9
2021-12-24 14:24:23.030457,14
2021-12-24 14:24:23.030467,33
2021-12-24 14:24:23.030477,49
2021-12-24 14:24:23.030487,56
2021-12-24 14:24:23.030497,49
2021-12-24 14:24:23.030507,30
2021-12-24 14:24:23.030516,11
2021-12-24 14:24:23.030526,11
2021-12-24 14:24:23.030536,18
2021-12-24 14:24:23.030546,23
2021-12-24 14:24:23.030556,23
2021-12-24 14:24:23.030566,26
2021-12-24 14:24:23.030576,30
2021-12-24 14:24:23.030586,33
2021-12-24 14:24:23.030595,47
2021-12-24 14:24:23.299466,87
2021-12-24 14:24:23.299487,182
2021-12-24 14:24:23.299495,329
2021-12-24 14:24:23.299501,447
2021-12-24 14:24:23.299508,300
2021-12-24 14:24:23.299525,-312
2021-12-24 14:24:23.299532,-835
2021-12-24 14:24:23.299539,-506
2021-12-24 14:24:23.299545,59
2021-12-24 14:24:23.299551,78
2021-12-24 14:24:23.299558,-4
2021-12-24 14:24:23.299564,94
2021-12-24 14:24:23.299570,108
2021-12-24 14:24:23.299577,61
2021-12-24 14:24:23.299583,85
2021-12-24 14:24:23.299589,97
2021-12-24 14:24:23.299596,78
2021-12-24 14:24:23.299602,85
2021-12-24 14:24:23.299608,94
2021-12-24 14:24:23.299615,87
2021-12-24 14:24:23.299621,85
2021-12-24 14:24:23.299627,89
2021-12-24 14:24:23.299634,92
2021-12-24 14:24:23.299640,94
2021-12-24 14:24:23.299646,101
2021-12-24 14:24:23.299653,106
2021-12-24 14:24:23.299659,111
2021-12-24 14:24:23.299665,118
2021-12-24 14:24:23.299672,125
2021-12-24 14:24:23.299678,132
2021-12-24 14:24:23.435931,142
2021-12-24 14:24:23.435953,151
2021-12-24 14:24:23.435960,158
2021-12-24 14:24:23.435967,151
2021-12-24 14:24:23.435973,139
2021-12-24 14:24:23.435980,130
2021-12-24 14:24:23.435986,123
2021-12-24 14:24:23.435992,108
2021-12-24 14:24:23.435998,92
2021-12-24 14:24:23.436005,75
2021-12-24 14:24:23.436011,54
2021-12-24 14:24:23.436017,37
2021-12-24 14:24:23.436023,28
2021-12-24 14:24:23.436030,18
2021-12-24 14:24:23.436036,7
2021-12-24 14:24:23.436043,4
2021-12-24 14:24:23.436049,4
2021-12-24 14:24:23.436055,7
2021-12-24 14:24:23.436062,11
2021-12-24 14:24:23.436068,14
2021-12-24 14:24:23.436074,14
2021-12-24 14:24:23.436080,18
2021-12-24 14:24:23.436087,26
2021-12-24 14:24:23.436093,30
2021-12-24 14:24:23.436099,30
2021-12-24 14:24:23.436105,30
2021-12-24 14:24:23.436112,30
2021-12-24 14:24:23.436118,30
2021-12-24 14:24:23.436125,30
2021-12-24 14:24:23.436131,33
2021-12-24 14:24:23.661139,30
2021-12-24 14:24:23.661159,23
2021-12-24 14:24:23.661166,18
2021-12-24 14:24:23.661173,14
2021-12-24 14:24:23.661179,14
2021-12-24 14:24:23.661186,14
2021-12-24 14:24:23.661192,7
2021-12-24 14:24:23.661200,-2
2021-12-24 14:24:23.661210,-2
2021-12-24 14:24:23.661217,0
2021-12-24 14:24:23.661223,-4
2021-12-24 14:24:23.661229,-7
2021-12-24 14:24:23.661236,-4
2021-12-24 14:24:23.661242,-2
2021-12-24 14:24:23.661248,-2
2021-12-24 14:24:23.661255,-7
2021-12-24 14:24:23.661261,-14
2021-12-24 14:24:23.661267,-11
2021-12-24 14:24:23.661274,2
2021-12-24 14:24:23.661280,23
2021-12-24 14:24:23.661286,35
2021-12-24 14:24:23.661293,35
2021-12-24 14:24:23.661299,30
2021-12-24 14:24:23.661305,18
2021-12-24 14:24:23.661312,7
2021-12-24 14:24:23.661318,0
2021-12-24 14:24:23.661325,4
2021-12-24 14:24:23.661331,9
2021-12-24 14:24:23.661337,11
2021-12-24 14:24:23.661344,16
2021-12-24 14:24:23.886220,21
2021-12-24 14:24:23.886252,21
2021-12-24 14:24:23.886264,30
2021-12-24 14:24:23.886274,75
2021-12-24 14:24:23.886284,182
2021-12-24 14:24:23.886294,352
2021-12-24 14:24:23.886304,483
2021-12-24 14:24:23.886313,305
2021-12-24 14:24:23.886323,-364
2021-12-24 14:24:23.886333,-902
2021-12-24 14:24:23.886343,-568
2021-12-24 14:24:23.886353,-2
2021-12-24 14:24:23.886363,59
2021-12-24 14:24:23.886373,0
2021-12-24 14:24:23.886382,75
2021-12-24 14:24:23.886392,87
2021-12-24 14:24:23.886402,52
2021-12-24 14:24:23.886412,73
2021-12-24 14:24:23.886422,87
2021-12-24 14:24:23.886432,75
2021-12-24 14:24:23.886441,73
2021-12-24 14:24:23.886451,75
2021-12-24 14:24:23.886461,66
2021-12-24 14:24:23.886470,68
2021-12-24 14:24:23.886480,78
2021-12-24 14:24:23.886490,82
2021-12-24 14:24:23.886500,85
2021-12-24 14:24:23.886509,94
2021-12-24 14:24:23.886519,101
2021-12-24 14:24:23.886529,106
2021-12-24 14:24:24.199951,113
2021-12-24 14:24:24.199973,123
2021-12-24 14:24:24.199981,132
2021-12-24 14:24:24.199987,146
2021-12-24 14:24:24.199994,156
2021-12-24 14:24:24.200000,161
2021-12-24 14:24:24.200007,165
2021-12-24 14:24:24.200013,165
2021-12-24 14:24:24.200019,156
2021-12-24 14:24:24.200026,139
2021-12-24 14:24:24.200032,125
2021-12-24 14:24:24.200038,106
2021-12-24 14:24:24.200045,73
2021-12-24 14:24:24.200051,37
2021-12-24 14:24:24.200058,9
2021-12-24 14:24:24.200064,-11
2021-12-24 14:24:24.200071,-28
2021-12-24 14:24:24.200077,-40
2021-12-24 14:24:24.200084,-42
2021-12-24 14:24:24.200090,-35
2021-12-24 14:24:24.200096,-35
2021-12-24 14:24:24.200103,-37
2021-12-24 14:24:24.200109,-26
2021-12-24 14:24:24.200115,-23
2021-12-24 14:24:24.200122,-21
2021-12-24 14:24:24.200128,-11
2021-12-24 14:24:24.200134,-7
2021-12-24 14:24:24.200141,-2
2021-12-24 14:24:24.200147,7
2021-12-24 14:24:24.200154,9
2021-12-24 14:24:24.379127,4
2021-12-24 14:24:24.379157,11
2021-12-24 14:24:24.379169,18
2021-12-24 14:24:24.379179,11
2021-12-24 14:24:24.379189,11
2021-12-24 14:24:24.379199,14
2021-12-24 14:24:24.379209,4
2021-12-24 14:24:24.379219,7
2021-12-24 14:24:24.379228,9
2021-12-24 14:24:24.379238,2
2021-12-24 14:24:24.379248,2
2021-12-24 14:24:24.379258,11
2021-12-24 14:24:24.379267,23
2021-12-24 14:24:24.379277,40
2021-12-24 14:24:24.379287,47
2021-12-24 14:24:24.379296,35
2021-12-24 14:24:24.379306,11
2021-12-24 14:24:24.379316,-4
2021-12-24 14:24:24.379326,-4
2021-12-24 14:24:24.379335,2
2021-12-24 14:24:24.379345,7
2021-12-24 14:24:24.379355,7
2021-12-24 14:24:24.379365,7
2021-12-24 14:24:24.379375,9
2021-12-24 14:24:24.379384,16
2021-12-24 14:24:24.379394,26
2021-12-24 14:24:24.379404,61
2021-12-24 14:24:24.379413,158
2021-12-24 14:24:24.379423,324
2021-12-24 14:24:24.379433,454
2021-12-24 14:24:24.560624,286
2021-12-24 14:24:24.560653,-369
2021-12-24 14:24:24.560665,-904
2021-12-24 14:24:24.560675,-577
2021-12-24 14:24:24.560685,-18
2021-12-24 14:24:24.560695,59
2021-12-24 14:24:24.560705,14
2021-12-24 14:24:24.560714,89
2021-12-24 14:24:24.560724,97
2021-12-24 14:24:24.560734,59
2021-12-24 14:24:24.560744,73
2021-12-24 14:24:24.560770,87
2021-12-24 14:24:24.560780,78
2021-12-24 14:24:24.560790,82
2021-12-24 14:24:24.560800,89
2021-12-24 14:24:24.560809,85
2021-12-24 14:24:24.560819,85
2021-12-24 14:24:24.560829,89
2021-12-24 14:24:24.560838,92
2021-12-24 14:24:24.560848,101
2021-12-24 14:24:24.560858,106
2021-12-24 14:24:24.560867,111
2021-12-24 14:24:24.560877,120
2021-12-24 14:24:24.560886,134
2021-12-24 14:24:24.560896,144
2021-12-24 14:24:24.560906,156
2021-12-24 14:24:24.560916,175
2021-12-24 14:24:24.560925,189
2021-12-24 14:24:24.560935,196
2021-12-24 14:24:24.560945,201
2021-12-24 14:24:24.831138,201
2021-12-24 14:24:24.831169,191
2021-12-24 14:24:24.831180,172
2021-12-24 14:24:24.831191,153
2021-12-24 14:24:24.831200,120
2021-12-24 14:24:24.831210,80
2021-12-24 14:24:24.831220,40
2021-12-24 14:24:24.831230,7
2021-12-24 14:24:24.831239,-21
2021-12-24 14:24:24.831250,-42
2021-12-24 14:24:24.831259,-49
2021-12-24 14:24:24.831269,-44
2021-12-24 14:24:24.831279,-40
2021-12-24 14:24:24.831289,-40
2021-12-24 14:24:24.831298,-33
2021-12-24 14:24:24.831308,-23
2021-12-24 14:24:24.831318,-23
2021-12-24 14:24:24.831327,-16
2021-12-24 14:24:24.831337,-2
2021-12-24 14:24:24.831347,4
2021-12-24 14:24:24.831357,4
2021-12-24 14:24:24.831366,9
2021-12-24 14:24:24.831376,14
2021-12-24 14:24:24.831386,16
2021-12-24 14:24:24.831396,18
2021-12-24 14:24:24.831405,18
2021-12-24 14:24:24.831415,23
2021-12-24 14:24:24.831425,23
2021-12-24 14:24:24.831435,14
2021-12-24 14:24:24.831445,0
2021-12-24 14:24:25.055869,7
2021-12-24 14:24:25.055900,30
2021-12-24 14:24:25.055912,40
2021-12-24 14:24:25.055922,35
2021-12-24 14:24:25.055932,26
2021-12-24 14:24:25.055941,35
2021-12-24 14:24:25.055951,49
2021-12-24 14:24:25.055961,26
2021-12-24 14:24:25.055971,-11
2021-12-24 14:24:25.055980,-21
2021-12-24 14:24:25.055990,-2
2021-12-24 14:24:25.056000,9
2021-12-24 14:24:25.056009,2
2021-12-24 14:24:25.056019,0
2021-12-24 14:24:25.056029,4
2021-12-24 14:24:25.056039,9
2021-12-24 14:24:25.056049,47
2021-12-24 14:24:25.056059,156
2021-12-24 14:24:25.056069,312
2021-12-24 14:24:25.056079,416
2021-12-24 14:24:25.056088,248
2021-12-24 14:24:25.056098,-374
2021-12-24 14:24:25.056108,-878
2021-12-24 14:24:25.056117,-528
2021-12-24 14:24:25.056127,28
2021-12-24 14:24:25.056137,56
2021-12-24 14:24:25.056146,-14
2021-12-24 14:24:25.056156,73
2021-12-24 14:24:25.056166,85
2021-12-24 14:24:25.056175,42
2021-12-24 14:24:25.325448,59
2021-12-24 14:24:25.325479,71
2021-12-24 14:24:25.325491,54
2021-12-24 14:24:25.325501,61
2021-12-24 14:24:25.325510,85
2021-12-24 14:24:25.325520,87
2021-12-24 14:24:25.325530,80
2021-12-24 14:24:25.325539,87
2021-12-24 14:24:25.325549,92
2021-12-24 14:24:25.325559,92
2021-12-24 14:24:25.325568,94
2021-12-24 14:24:25.325578,99
2021-12-24 14:24:25.325588,101
2021-12-24 14:24:25.325597,101
2021-12-24 14:24:25.325607,118
2021-12-24 14:24:25.325617,139
2021-12-24 14:24:25.325626,146
2021-12-24 14:24:25.325636,156
2021-12-24 14:24:25.325646,170
2021-12-24 14:24:25.325655,179
2021-12-24 14:24:25.325665,177
2021-12-24 14:24:25.325675,153
2021-12-24 14:24:25.325684,125
2021-12-24 14:24:25.325694,113
2021-12-24 14:24:25.325704,97
2021-12-24 14:24:25.325713,56
2021-12-24 14:24:25.325723,14
2021-12-24 14:24:25.325733,-9
2021-12-24 14:24:25.325742,-23
2021-12-24 14:24:25.325752,-35
2021-12-24 14:24:25.505985,-42
2021-12-24 14:24:25.506015,-40
2021-12-24 14:24:25.506027,-37
2021-12-24 14:24:25.506037,-30
2021-12-24 14:24:25.506047,-21
2021-12-24 14:24:25.506057,-16
2021-12-24 14:24:25.506067,-14
2021-12-24 14:24:25.506077,-14
2021-12-24 14:24:25.506087,-14
2021-12-24 14:24:25.506096,-9
2021-12-24 14:24:25.506106,-2
2021-12-24 14:24:25.506116,2
2021-12-24 14:24:25.506126,-4
2021-12-24 14:24:25.506136,-9
2021-12-24 14:24:25.506146,0
2021-12-24 14:24:25.506156,2
2021-12-24 14:24:25.506165,-2
2021-12-24 14:24:25.506175,0
2021-12-24 14:24:25.506185,2
2021-12-24 14:24:25.506195,-4
2021-12-24 14:24:25.506204,-11
2021-12-24 14:24:25.506214,-9
2021-12-24 14:24:25.506224,-4
2021-12-24 14:24:25.506234,14
2021-12-24 14:24:25.506243,30
2021-12-24 14:24:25.506253,30
2021-12-24 14:24:25.506263,21
2021-12-24 14:24:25.506273,9
2021-12-24 14:24:25.506282,-4
2021-12-24 14:24:25.506292,-2
2021-12-24 14:24:25.775871,4
2021-12-24 14:24:25.775901,2
2021-12-24 14:24:25.775913,2
2021-12-24 14:24:25.775923,9
2021-12-24 14:24:25.775933,21
2021-12-24 14:24:25.775942,28
2021-12-24 14:24:25.775952,33
2021-12-24 14:24:25.775962,75
2021-12-24 14:24:25.775971,194
2021-12-24 14:24:25.775981,345
2021-12-24 14:24:25.775991,407
2021-12-24 14:24:25.776001,156
2021-12-24 14:24:25.776011,-494
2021-12-24 14:24:25.776021,-833
2021-12-24 14:24:25.776031,-341
2021-12-24 14:24:25.776040,123
2021-12-24 14:24:25.776050,52
2021-12-24 14:24:25.776060,16
2021-12-24 14:24:25.776070,120
2021-12-24 14:24:25.776079,104
2021-12-24 14:24:25.776089,73
2021-12-24 14:24:25.776099,106
2021-12-24 14:24:25.776108,106
2021-12-24 14:24:25.776118,89
2021-12-24 14:24:25.776128,99
2021-12-24 14:24:25.776137,106
2021-12-24 14:24:25.776147,101
2021-12-24 14:24:25.776157,101
2021-12-24 14:24:25.776167,99
2021-12-24 14:24:25.776176,99
2021-12-24 14:24:25.955805,113
2021-12-24 14:24:25.955826,125
2021-12-24 14:24:25.955834,130
2021-12-24 14:24:25.955840,137
2021-12-24 14:24:25.955846,144
2021-12-24 14:24:25.955853,146
2021-12-24 14:24:25.955859,146
2021-12-24 14:24:25.955866,158
2021-12-24 14:24:25.955872,179
2021-12-24 14:24:25.955878,189
2021-12-24 14:24:25.955885,179
2021-12-24 14:24:25.955891,172
2021-12-24 14:24:25.955897,156
2021-12-24 14:24:25.955904,134
2021-12-24 14:24:25.955910,123
2021-12-24 14:24:25.955916,104
2021-12-24 14:24:25.955923,71
2021-12-24 14:24:25.955929,40
2021-12-24 14:24:25.955936,18
2021-12-24 14:24:25.955942,9
2021-12-24 14:24:25.955948,4
2021-12-24 14:24:25.955955,-2
2021-12-24 14:24:25.955961,-2
2021-12-24 14:24:25.955968,16
2021-12-24 14:24:25.955974,21
2021-12-24 14:24:25.955980,9
2021-12-24 14:24:25.955987,11
2021-12-24 14:24:25.955993,18
2021-12-24 14:24:25.955999,14
2021-12-24 14:24:25.956006,16
2021-12-24 14:24:26.269806,26
2021-12-24 14:24:26.269826,26
2021-12-24 14:24:26.269833,26
2021-12-24 14:24:26.269839,23
2021-12-24 14:24:26.269844,18
2021-12-24 14:24:26.269849,23
2021-12-24 14:24:26.269854,35
2021-12-24 14:24:26.269860,37
2021-12-24 14:24:26.269865,28
2021-12-24 14:24:26.269870,28
2021-12-24 14:24:26.269876,26
2021-12-24 14:24:26.269881,16
2021-12-24 14:24:26.269886,14
2021-12-24 14:24:26.269891,9
2021-12-24 14:24:26.269896,7
2021-12-24 14:24:26.269901,14
2021-12-24 14:24:26.269907,30
2021-12-24 14:24:26.269912,52
2021-12-24 14:24:26.269917,61
2021-12-24 14:24:26.269922,61
2021-12-24 14:24:26.269927,47
2021-12-24 14:24:26.269932,26
2021-12-24 14:24:26.269937,18
2021-12-24 14:24:26.269942,21
2021-12-24 14:24:26.269948,23
2021-12-24 14:24:26.269953,23
2021-12-24 14:24:26.269958,28
2021-12-24 14:24:26.269963,37
2021-12-24 14:24:26.269968,37
2021-12-24 14:24:26.269973,44
2021-12-24 14:24:26.449674,82
2021-12-24 14:24:26.449705,182
2021-12-24 14:24:26.449716,338
2021-12-24 14:24:26.449727,442
2021-12-24 14:24:26.449736,286
2021-12-24 14:24:26.449746,-307
2021-12-24 14:24:26.449756,-819
2021-12-24 14:24:26.449766,-499
2021-12-24 14:24:26.449858,68
2021-12-24 14:24:26.449870,104
2021-12-24 14:24:26.449880,14
2021-12-24 14:24:26.449890,104
2021-12-24 14:24:26.449899,123
2021-12-24 14:24:26.449909,85
2021-12-24 14:24:26.449919,106
2021-12-24 14:24:26.449929,118
2021-12-24 14:24:26.449938,104
2021-12-24 14:24:26.449948,106
2021-12-24 14:24:26.449958,104
2021-12-24 14:24:26.449968,89
2021-12-24 14:24:26.449977,92
2021-12-24 14:24:26.449987,94
2021-12-24 14:24:26.449997,80
2021-12-24 14:24:26.450006,80
2021-12-24 14:24:26.450016,97
2021-12-24 14:24:26.450026,111
2021-12-24 14:24:26.450036,125
2021-12-24 14:24:26.450045,130
2021-12-24 14:24:26.450055,125
2021-12-24 14:24:26.450065,132
2021-12-24 14:24:26.720303,139
2021-12-24 14:24:26.720333,142
2021-12-24 14:24:26.720345,153
2021-12-24 14:24:26.720355,156
2021-12-24 14:24:26.720364,144
2021-12-24 14:24:26.720374,127
2021-12-24 14:24:26.720385,120
2021-12-24 14:24:26.720395,108
2021-12-24 14:24:26.720404,94
2021-12-24 14:24:26.720414,80
2021-12-24 14:24:26.720424,63
2021-12-24 14:24:26.720434,40
2021-12-24 14:24:26.720443,14
2021-12-24 14:24:26.720453,7
2021-12-24 14:24:26.720463,11
2021-12-24 14:24:26.720473,11
2021-12-24 14:24:26.720482,7
2021-12-24 14:24:26.720492,7
2021-12-24 14:24:26.720502,23
2021-12-24 14:24:26.720512,30
2021-12-24 14:24:26.720522,30
2021-12-24 14:24:26.720531,35
2021-12-24 14:24:26.720541,35
2021-12-24 14:24:26.720551,30
2021-12-24 14:24:26.720561,35
2021-12-24 14:24:26.720570,42
2021-12-24 14:24:26.720580,37
2021-12-24 14:24:26.720590,23
2021-12-24 14:24:26.720600,28
2021-12-24 14:24:26.720610,35
2021-12-24 14:24:26.945456,26
2021-12-24 14:24:26.945486,18
2021-12-24 14:24:26.945498,21
2021-12-24 14:24:26.945508,11
2021-12-24 14:24:26.945518,2
2021-12-24 14:24:26.945528,11
2021-12-24 14:24:26.945537,14
2021-12-24 14:24:26.945547,0
2021-12-24 14:24:26.945557,-14
2021-12-24 14:24:26.945567,-18
2021-12-24 14:24:26.945576,0
2021-12-24 14:24:26.945586,28
2021-12-24 14:24:26.945596,37
2021-12-24 14:24:26.945606,33
2021-12-24 14:24:26.945615,16
2021-12-24 14:24:26.945625,-7
2021-12-24 14:24:26.945635,-16
2021-12-24 14:24:26.945645,-14
2021-12-24 14:24:26.945654,-18
2021-12-24 14:24:26.945664,-21
2021-12-24 14:24:26.945674,-9
2021-12-24 14:24:26.945683,0
2021-12-24 14:24:26.945693,2
2021-12-24 14:24:26.945703,0
2021-12-24 14:24:26.945712,9
2021-12-24 14:24:26.945722,52
2021-12-24 14:24:26.945732,165
2021-12-24 14:24:26.945742,338
2021-12-24 14:24:26.945751,426
2021-12-24 14:24:26.945761,118
2021-12-24 14:24:27.125465,-599
2021-12-24 14:24:27.125496,-907
2021-12-24 14:24:27.125507,-388
2021-12-24 14:24:27.125517,56
2021-12-24 14:24:27.125527,9
2021-12-24 14:24:27.125537,-7
2021-12-24 14:24:27.125547,85
2021-12-24 14:24:27.125557,61
2021-12-24 14:24:27.125566,18
2021-12-24 14:24:27.125576,44
2021-12-24 14:24:27.125585,56
2021-12-24 14:24:27.125595,42
2021-12-24 14:24:27.125605,52
2021-12-24 14:24:27.125615,61
2021-12-24 14:24:27.125624,49
2021-12-24 14:24:27.125634,52
2021-12-24 14:24:27.125644,68
2021-12-24 14:24:27.125653,75
2021-12-24 14:24:27.125663,66
2021-12-24 14:24:27.125673,56
2021-12-24 14:24:27.125682,71
2021-12-24 14:24:27.125692,89
2021-12-24 14:24:27.125701,101
2021-12-24 14:24:27.125711,118
2021-12-24 14:24:27.125721,127
2021-12-24 14:24:27.125730,130
2021-12-24 14:24:27.125740,151
2021-12-24 14:24:27.125750,170
2021-12-24 14:24:27.125759,161
2021-12-24 14:24:27.125769,151
2021-12-24 14:24:27.395463,144
2021-12-24 14:24:27.395493,120
2021-12-24 14:24:27.395505,101
2021-12-24 14:24:27.395515,97
2021-12-24 14:24:27.395525,71
2021-12-24 14:24:27.395535,35
2021-12-24 14:24:27.395545,4
2021-12-24 14:24:27.395555,-35
2021-12-24 14:24:27.395565,-47
2021-12-24 14:24:27.395574,-21
2021-12-24 14:24:27.395585,-21
2021-12-24 14:24:27.395594,-35
2021-12-24 14:24:27.395604,-23
2021-12-24 14:24:27.395614,-16
2021-12-24 14:24:27.395624,-16
2021-12-24 14:24:27.395634,9
2021-12-24 14:24:27.395644,14
2021-12-24 14:24:27.395654,-18
2021-12-24 14:24:27.395664,-16
2021-12-24 14:24:27.395674,11
2021-12-24 14:24:27.395684,16
2021-12-24 14:24:27.395694,28
2021-12-24 14:24:27.395704,59
2021-12-24 14:24:27.395714,47
2021-12-24 14:24:27.395724,21
2021-12-24 14:24:27.395734,21
2021-12-24 14:24:27.395743,16
2021-12-24 14:24:27.395753,9
2021-12-24 14:24:27.395763,21
2021-12-24 14:24:27.395773,26
2021-12-24 14:24:27.576082,4
2021-12-24 14:24:27.576113,9
2021-12-24 14:24:27.576125,18
2021-12-24 14:24:27.576136,9
2021-12-24 14:24:27.576146,35
2021-12-24 14:24:27.576156,54
2021-12-24 14:24:27.576165,7
2021-12-24 14:24:27.576175,-30
2021-12-24 14:24:27.576185,-16
2021-12-24 14:24:27.576195,-9
2021-12-24 14:24:27.576205,-18
2021-12-24 14:24:27.576215,-18
2021-12-24 14:24:27.576225,-11
2021-12-24 14:24:27.576235,0
2021-12-24 14:24:27.576245,7
2021-12-24 14:24:27.576254,14
2021-12-24 14:24:27.576264,59
2021-12-24 14:24:27.576274,161
2021-12-24 14:24:27.576284,305
2021-12-24 14:24:27.576294,376
2021-12-24 14:24:27.576304,52
2021-12-24 14:24:27.576314,-648
2021-12-24 14:24:27.576323,-852
2021-12-24 14:24:27.576333,-291
2021-12-24 14:24:27.576343,87
2021-12-24 14:24:27.576353,16
2021-12-24 14:24:27.576363,16
2021-12-24 14:24:27.576373,97
2021-12-24 14:24:27.576383,78
2021-12-24 14:24:27.576393,54
2021-12-24 14:24:27.845438,75
2021-12-24 14:24:27.845467,71
2021-12-24 14:24:27.845479,66
2021-12-24 14:24:27.845489,75
2021-12-24 14:24:27.845499,61
2021-12-24 14:24:27.845509,52
2021-12-24 14:24:27.845519,71
2021-12-24 14:24:27.845529,89
2021-12-24 14:24:27.845539,101
2021-12-24 14:24:27.845549,108
2021-12-24 14:24:27.845558,108
2021-12-24 14:24:27.845568,113
2021-12-24 14:24:27.845578,118
2021-12-24 14:24:27.845588,106
2021-12-24 14:24:27.845598,104
2021-12-24 14:24:27.845607,127
2021-12-24 14:24:27.845617,156
2021-12-24 14:24:27.845627,172
2021-12-24 14:24:27.845637,170
2021-12-24 14:24:27.845647,158
2021-12-24 14:24:27.845657,149
2021-12-24 14:24:27.845666,132
2021-12-24 14:24:27.845676,118
2021-12-24 14:24:27.845686,106
2021-12-24 14:24:27.845696,73
2021-12-24 14:24:27.845706,30
2021-12-24 14:24:27.845716,9
2021-12-24 14:24:27.845726,-14
2021-12-24 14:24:27.845736,-33
2021-12-24 14:24:27.845746,-28
2021-12-24 14:24:28.069771,-30
2021-12-24 14:24:28.069792,-33
2021-12-24 14:24:28.069800,-23
