Time,ECG
2021-12-24 14:28:59.330318,40
2021-12-24 14:28:59.330346,28
2021-12-24 14:28:59.330360,18
2021-12-24 14:28:59.330370,14
2021-12-24 14:28:59.330377,14
2021-12-24 14:28:59.330384,37
2021-12-24 14:28:59.330391,49
2021-12-24 14:28:59.330397,37
2021-12-24 14:28:59.330405,30
2021-12-24 14:28:59.330412,26
2021-12-24 14:28:59.330419,14
2021-12-24 14:28:59.330425,9
2021-12-24 14:28:59.330431,7
2021-12-24 14:28:59.330438,2
2021-12-24 14:28:59.330444,-4
2021-12-24 14:28:59.330451,-9
2021-12-24 14:28:59.330457,11
2021-12-24 14:28:59.330464,26
2021-12-24 14:28:59.330470,16
2021-12-24 14:28:59.330476,35
2021-12-24 14:28:59.330483,106
2021-12-24 14:28:59.330489,248
2021-12-24 14:28:59.330495,426
2021-12-24 14:28:59.330502,431
2021-12-24 14:28:59.330525,-33
2021-12-24 14:28:59.330535,-727
2021-12-24 14:28:59.330546,-757
2021-12-24 14:28:59.330555,-151
2021-12-24 14:28:59.330565,101
2021-12-24 14:28:59.330576,-9
2021-12-24 14:28:59.555271,21
2021-12-24 14:28:59.555292,85
2021-12-24 14:28:59.555300,49
2021-12-24 14:28:59.555306,28
2021-12-24 14:28:59.555313,35
2021-12-24 14:28:59.555319,47
2021-12-24 14:28:59.555327,54
2021-12-24 14:28:59.555333,56
2021-12-24 14:28:59.555339,63
2021-12-24 14:28:59.555346,52
2021-12-24 14:28:59.555352,37
2021-12-24 14:28:59.555358,52
2021-12-24 14:28:59.555365,61
2021-12-24 14:28:59.555371,54
2021-12-24 14:28:59.555377,63
2021-12-24 14:28:59.555384,75
2021-12-24 14:28:59.555390,80
2021-12-24 14:28:59.555397,94
2021-12-24 14:28:59.555403,111
2021-12-24 14:28:59.555409,113
2021-12-24 14:28:59.555416,97
2021-12-24 14:28:59.555422,101
2021-12-24 14:28:59.555428,125
2021-12-24 14:28:59.555435,118
2021-12-24 14:28:59.555441,99
2021-12-24 14:28:59.555447,92
2021-12-24 14:28:59.555454,80
2021-12-24 14:28:59.555460,75
2021-12-24 14:28:59.555466,82
2021-12-24 14:28:59.555475,61
2021-12-24 14:28:59.735495,28
2021-12-24 14:28:59.735525,2
2021-12-24 14:28:59.735536,-23
2021-12-24 14:28:59.735547,-16
2021-12-24 14:28:59.735556,9
2021-12-24 14:28:59.735566,0
2021-12-24 14:28:59.735576,-7
2021-12-24 14:28:59.735586,18
2021-12-24 14:28:59.735595,21
2021-12-24 14:28:59.735605,16
2021-12-24 14:28:59.735615,37
2021-12-24 14:28:59.735625,37
2021-12-24 14:28:59.735634,21
2021-12-24 14:28:59.735668,40
2021-12-24 14:28:59.735679,59
2021-12-24 14:28:59.735688,35
2021-12-24 14:28:59.735698,16
2021-12-24 14:28:59.735708,30
2021-12-24 14:28:59.735718,47
2021-12-24 14:28:59.735727,52
2021-12-24 14:28:59.735737,52
2021-12-24 14:28:59.735747,37
2021-12-24 14:28:59.735756,18
2021-12-24 14:28:59.735766,26
2021-12-24 14:28:59.735776,33
2021-12-24 14:28:59.735786,26
2021-12-24 14:28:59.735795,23
2021-12-24 14:28:59.735805,23
2021-12-24 14:28:59.735815,21
2021-12-24 14:28:59.735827,49
2021-12-24 14:28:59.960997,71
2021-12-24 14:28:59.961026,52
2021-12-24 14:28:59.961038,49
2021-12-24 14:28:59.961048,49
2021-12-24 14:28:59.961058,14
2021-12-24 14:28:59.961068,7
2021-12-24 14:28:59.961078,26
2021-12-24 14:28:59.961087,21
2021-12-24 14:28:59.961097,11
2021-12-24 14:28:59.961107,16
2021-12-24 14:28:59.961117,9
2021-12-24 14:28:59.961127,4
2021-12-24 14:28:59.961136,9
2021-12-24 14:28:59.961146,11
2021-12-24 14:28:59.961156,42
2021-12-24 14:28:59.961165,151
2021-12-24 14:28:59.961175,345
2021-12-24 14:28:59.961191,511
2021-12-24 14:28:59.961201,350
2021-12-24 14:28:59.961211,-348
2021-12-24 14:28:59.961221,-940
2021-12-24 14:28:59.961231,-603
2021-12-24 14:28:59.961241,-4
2021-12-24 14:28:59.961250,28
2021-12-24 14:28:59.961260,-49
2021-12-24 14:28:59.961270,54
2021-12-24 14:28:59.961280,66
2021-12-24 14:28:59.961290,9
2021-12-24 14:28:59.961299,28
2021-12-24 14:28:59.961309,44
2021-12-24 14:29:00.275009,35
2021-12-24 14:29:00.275028,47
2021-12-24 14:29:00.275035,59
2021-12-24 14:29:00.275040,61
2021-12-24 14:29:00.275045,71
2021-12-24 14:29:00.275050,66
2021-12-24 14:29:00.275055,66
2021-12-24 14:29:00.275065,78
2021-12-24 14:29:00.275070,85
2021-12-24 14:29:00.275075,85
2021-12-24 14:29:00.275080,97
2021-12-24 14:29:00.275086,116
2021-12-24 14:29:00.275091,127
2021-12-24 14:29:00.275096,123
2021-12-24 14:29:00.275101,127
2021-12-24 14:29:00.275106,151
2021-12-24 14:29:00.275111,158
2021-12-24 14:29:00.275116,144
2021-12-24 14:29:00.275121,134
2021-12-24 14:29:00.275126,132
2021-12-24 14:29:00.275131,120
2021-12-24 14:29:00.275136,104
2021-12-24 14:29:00.275141,94
2021-12-24 14:29:00.275146,68
2021-12-24 14:29:00.275151,33
2021-12-24 14:29:00.275156,7
2021-12-24 14:29:00.275161,-7
2021-12-24 14:29:00.275166,-18
2021-12-24 14:29:00.275171,-21
2021-12-24 14:29:00.275177,-26
2021-12-24 14:29:00.499116,-30
2021-12-24 14:29:00.499145,-11
2021-12-24 14:29:00.499160,4
2021-12-24 14:29:00.499172,-4
2021-12-24 14:29:00.499183,-4
2021-12-24 14:29:00.499194,14
2021-12-24 14:29:00.499206,23
2021-12-24 14:29:00.499213,26
2021-12-24 14:29:00.499220,28
2021-12-24 14:29:00.499226,28
2021-12-24 14:29:00.499233,30
2021-12-24 14:29:00.499239,40
2021-12-24 14:29:00.499245,40
2021-12-24 14:29:00.499252,42
2021-12-24 14:29:00.499258,49
2021-12-24 14:29:00.499265,37
2021-12-24 14:29:00.499271,21
2021-12-24 14:29:00.499278,23
2021-12-24 14:29:00.499284,26
2021-12-24 14:29:00.499291,30
2021-12-24 14:29:00.499297,47
2021-12-24 14:29:00.499303,59
2021-12-24 14:29:00.499310,56
2021-12-24 14:29:00.499316,47
2021-12-24 14:29:00.499328,23
2021-12-24 14:29:00.499335,4
2021-12-24 14:29:00.499342,7
2021-12-24 14:29:00.499348,18
2021-12-24 14:29:00.499354,18
2021-12-24 14:29:00.499361,7
2021-12-24 14:29:00.725480,7
2021-12-24 14:29:00.725510,18
2021-12-24 14:29:00.725522,18
2021-12-24 14:29:00.725532,9
2021-12-24 14:29:00.725542,16
2021-12-24 14:29:00.725551,87
2021-12-24 14:29:00.725561,255
2021-12-24 14:29:00.725571,457
2021-12-24 14:29:00.725581,471
2021-12-24 14:29:00.725591,-16
2021-12-24 14:29:00.725601,-753
2021-12-24 14:29:00.725611,-793
2021-12-24 14:29:00.725621,-198
2021-12-24 14:29:00.725631,59
2021-12-24 14:29:00.725640,-23
2021-12-24 14:29:00.725650,18
2021-12-24 14:29:00.725660,73
2021-12-24 14:29:00.725670,33
2021-12-24 14:29:00.725680,28
2021-12-24 14:29:00.725689,54
2021-12-24 14:29:00.725699,40
2021-12-24 14:29:00.725709,30
2021-12-24 14:29:00.725721,44
2021-12-24 14:29:00.725731,49
2021-12-24 14:29:00.725740,40
2021-12-24 14:29:00.725750,49
2021-12-24 14:29:00.725760,63
2021-12-24 14:29:00.725770,61
2021-12-24 14:29:00.725779,63
2021-12-24 14:29:00.725789,78
2021-12-24 14:29:00.905951,80
2021-12-24 14:29:00.905981,82
2021-12-24 14:29:00.905993,108
2021-12-24 14:29:00.906003,123
2021-12-24 14:29:00.906013,130
2021-12-24 14:29:00.906023,151
2021-12-24 14:29:00.906033,165
2021-12-24 14:29:00.906043,161
2021-12-24 14:29:00.906053,149
2021-12-24 14:29:00.906062,137
2021-12-24 14:29:00.906072,125
2021-12-24 14:29:00.906082,118
2021-12-24 14:29:00.906092,97
2021-12-24 14:29:00.906102,59
2021-12-24 14:29:00.906112,26
2021-12-24 14:29:00.906122,0
2021-12-24 14:29:00.906132,-26
2021-12-24 14:29:00.906142,-37
2021-12-24 14:29:00.906151,-37
2021-12-24 14:29:00.906161,-40
2021-12-24 14:29:00.906171,-44
2021-12-24 14:29:00.906181,-37
2021-12-24 14:29:00.906191,-26
2021-12-24 14:29:00.906201,-21
2021-12-24 14:29:00.906215,-18
2021-12-24 14:29:00.906225,-14
2021-12-24 14:29:00.906235,-4
2021-12-24 14:29:00.906245,2
2021-12-24 14:29:00.906255,9
2021-12-24 14:29:00.906264,14
2021-12-24 14:29:01.221064,11
2021-12-24 14:29:01.221094,9
2021-12-24 14:29:01.221106,18
2021-12-24 14:29:01.221116,30
2021-12-24 14:29:01.221126,44
2021-12-24 14:29:01.221136,54
2021-12-24 14:29:01.221146,52
2021-12-24 14:29:01.221156,49
2021-12-24 14:29:01.221166,37
2021-12-24 14:29:01.221176,14
2021-12-24 14:29:01.221186,-2
2021-12-24 14:29:01.221196,0
2021-12-24 14:29:01.221206,11
2021-12-24 14:29:01.221216,7
2021-12-24 14:29:01.221226,-2
2021-12-24 14:29:01.221236,9
2021-12-24 14:29:01.221246,18
2021-12-24 14:29:01.221256,14
2021-12-24 14:29:01.221265,7
2021-12-24 14:29:01.221275,16
2021-12-24 14:29:01.221285,80
2021-12-24 14:29:01.221295,232
2021-12-24 14:29:01.221305,407
2021-12-24 14:29:01.221315,357
2021-12-24 14:29:01.221325,-210
2021-12-24 14:29:01.221335,-824
2021-12-24 14:29:01.221345,-625
2021-12-24 14:29:01.221355,-52
2021-12-24 14:29:01.221365,63
2021-12-24 14:29:01.221375,-9
2021-12-24 14:29:01.355314,56
2021-12-24 14:29:01.355345,78
2021-12-24 14:29:01.355357,33
2021-12-24 14:29:01.355367,49
2021-12-24 14:29:01.355378,80
2021-12-24 14:29:01.355387,68
2021-12-24 14:29:01.355397,68
2021-12-24 14:29:01.355407,75
2021-12-24 14:29:01.355417,71
2021-12-24 14:29:01.355427,71
2021-12-24 14:29:01.355437,73
2021-12-24 14:29:01.355447,73
2021-12-24 14:29:01.355457,78
2021-12-24 14:29:01.355467,80
2021-12-24 14:29:01.355477,80
2021-12-24 14:29:01.355487,92
2021-12-24 14:29:01.355497,104
2021-12-24 14:29:01.355507,113
2021-12-24 14:29:01.355517,127
2021-12-24 14:29:01.355527,142
2021-12-24 14:29:01.355536,151
2021-12-24 14:29:01.355546,165
2021-12-24 14:29:01.355556,165
2021-12-24 14:29:01.355566,149
2021-12-24 14:29:01.355575,137
2021-12-24 14:29:01.355585,137
2021-12-24 14:29:01.355595,120
2021-12-24 14:29:01.355605,85
2021-12-24 14:29:01.355615,47
2021-12-24 14:29:01.355625,21
2021-12-24 14:29:01.535919,-2
2021-12-24 14:29:01.535950,-23
2021-12-24 14:29:01.535963,-33
2021-12-24 14:29:01.535973,-35
2021-12-24 14:29:01.535983,-33
2021-12-24 14:29:01.535993,-28
2021-12-24 14:29:01.536003,-23
2021-12-24 14:29:01.536013,-14
2021-12-24 14:29:01.536023,0
2021-12-24 14:29:01.536033,4
2021-12-24 14:29:01.536050,7
2021-12-24 14:29:01.536060,7
2021-12-24 14:29:01.536070,14
2021-12-24 14:29:01.536080,23
2021-12-24 14:29:01.536090,26
2021-12-24 14:29:01.536099,26
2021-12-24 14:29:01.536109,28
2021-12-24 14:29:01.536119,21
2021-12-24 14:29:01.536129,23
2021-12-24 14:29:01.536139,37
2021-12-24 14:29:01.536148,47
2021-12-24 14:29:01.536158,52
2021-12-24 14:29:01.536168,52
2021-12-24 14:29:01.536178,54
2021-12-24 14:29:01.536187,47
2021-12-24 14:29:01.536197,26
2021-12-24 14:29:01.536207,14
2021-12-24 14:29:01.536217,21
2021-12-24 14:29:01.536227,21
2021-12-24 14:29:01.536236,9
2021-12-24 14:29:01.939869,2
2021-12-24 14:29:01.939899,11
2021-12-24 14:29:01.939911,21
2021-12-24 14:29:01.939921,16
2021-12-24 14:29:01.939931,7
2021-12-24 14:29:01.939941,11
2021-12-24 14:29:01.939951,78
2021-12-24 14:29:01.939961,246
2021-12-24 14:29:01.939971,433
2021-12-24 14:29:01.939980,426
2021-12-24 14:29:01.939990,-73
2021-12-24 14:29:01.940001,-755
2021-12-24 14:29:01.940010,-691
2021-12-24 14:29:01.940020,-89
2021-12-24 14:29:01.940030,87
2021-12-24 14:29:01.940040,-21
2021-12-24 14:29:01.940050,35
2021-12-24 14:29:01.940060,80
2021-12-24 14:29:01.940069,40
2021-12-24 14:29:01.940079,49
2021-12-24 14:29:01.940089,71
2021-12-24 14:29:01.940099,54
2021-12-24 14:29:01.940108,52
2021-12-24 14:29:01.940118,63
2021-12-24 14:29:01.940128,63
2021-12-24 14:29:01.940145,63
2021-12-24 14:29:01.940155,68
2021-12-24 14:29:01.940165,68
2021-12-24 14:29:01.940175,73
2021-12-24 14:29:01.940185,80
2021-12-24 14:29:02.076061,87
2021-12-24 14:29:02.076092,104
2021-12-24 14:29:02.076104,120
2021-12-24 14:29:02.076114,118
2021-12-24 14:29:02.076124,118
2021-12-24 14:29:02.076134,142
2021-12-24 14:29:02.076144,156
2021-12-24 14:29:02.076153,161
2021-12-24 14:29:02.076163,163
2021-12-24 14:29:02.076173,151
2021-12-24 14:29:02.076183,139
2021-12-24 14:29:02.076193,137
2021-12-24 14:29:02.076202,123
2021-12-24 14:29:02.076212,94
2021-12-24 14:29:02.076222,73
2021-12-24 14:29:02.076232,44
2021-12-24 14:29:02.076242,16
2021-12-24 14:29:02.076252,4
2021-12-24 14:29:02.076261,0
2021-12-24 14:29:02.076271,-7
2021-12-24 14:29:02.076281,-14
2021-12-24 14:29:02.076291,-14
2021-12-24 14:29:02.076301,-2
2021-12-24 14:29:02.076310,9
2021-12-24 14:29:02.076320,18
2021-12-24 14:29:02.076330,28
2021-12-24 14:29:02.076340,35
2021-12-24 14:29:02.076350,30
2021-12-24 14:29:02.076364,30
2021-12-24 14:29:02.076374,33
2021-12-24 14:29:02.344673,33
2021-12-24 14:29:02.344694,37
2021-12-24 14:29:02.344702,35
2021-12-24 14:29:02.344709,33
2021-12-24 14:29:02.344715,37
2021-12-24 14:29:02.344722,37
2021-12-24 14:29:02.344728,30
2021-12-24 14:29:02.344734,23
2021-12-24 14:29:02.344741,18
2021-12-24 14:29:02.344747,14
2021-12-24 14:29:02.344754,18
2021-12-24 14:29:02.344760,16
2021-12-24 14:29:02.344766,9
2021-12-24 14:29:02.344773,18
2021-12-24 14:29:02.344779,33
2021-12-24 14:29:02.344786,40
2021-12-24 14:29:02.344796,47
2021-12-24 14:29:02.344802,52
2021-12-24 14:29:02.344808,49
2021-12-24 14:29:02.344815,35
2021-12-24 14:29:02.344821,11
2021-12-24 14:29:02.344827,7
2021-12-24 14:29:02.344834,18
2021-12-24 14:29:02.344840,18
2021-12-24 14:29:02.344846,11
2021-12-24 14:29:02.344853,21
2021-12-24 14:29:02.344859,33
2021-12-24 14:29:02.344865,28
2021-12-24 14:29:02.344872,21
2021-12-24 14:29:02.344878,49
2021-12-24 14:29:02.569900,120
2021-12-24 14:29:02.569923,255
2021-12-24 14:29:02.569931,445
2021-12-24 14:29:02.569937,504
2021-12-24 14:29:02.569944,73
2021-12-24 14:29:02.569950,-691
2021-12-24 14:29:02.569957,-805
2021-12-24 14:29:02.569963,-189
2021-12-24 14:29:02.569969,89
2021-12-24 14:29:02.569976,-35
2021-12-24 14:29:02.569982,18
2021-12-24 14:29:02.569989,101
2021-12-24 14:29:02.569995,52
2021-12-24 14:29:02.570001,42
2021-12-24 14:29:02.570007,71
2021-12-24 14:29:02.570014,56
2021-12-24 14:29:02.570020,59
2021-12-24 14:29:02.570027,80
2021-12-24 14:29:02.570033,73
2021-12-24 14:29:02.570039,59
2021-12-24 14:29:02.570046,63
2021-12-24 14:29:02.570052,75
2021-12-24 14:29:02.570058,82
2021-12-24 14:29:02.570064,85
2021-12-24 14:29:02.570071,89
2021-12-24 14:29:02.570077,99
2021-12-24 14:29:02.570083,113
2021-12-24 14:29:02.570090,123
2021-12-24 14:29:02.570096,132
2021-12-24 14:29:02.570102,144
2021-12-24 14:29:02.794618,156
2021-12-24 14:29:02.794639,158
2021-12-24 14:29:02.794647,163
2021-12-24 14:29:02.794654,163
2021-12-24 14:29:02.794660,151
2021-12-24 14:29:02.794666,134
2021-12-24 14:29:02.794673,127
2021-12-24 14:29:02.794679,111
2021-12-24 14:29:02.794685,80
2021-12-24 14:29:02.794692,49
2021-12-24 14:29:02.794698,26
2021-12-24 14:29:02.794705,7
2021-12-24 14:29:02.794711,-9
2021-12-24 14:29:02.794722,-23
2021-12-24 14:29:02.794729,-23
2021-12-24 14:29:02.794735,-14
2021-12-24 14:29:02.794741,-14
2021-12-24 14:29:02.794748,-9
2021-12-24 14:29:02.794754,0
2021-12-24 14:29:02.794760,7
2021-12-24 14:29:02.794767,11
2021-12-24 14:29:02.794773,14
2021-12-24 14:29:02.794779,18
2021-12-24 14:29:02.794786,28
2021-12-24 14:29:02.794792,33
2021-12-24 14:29:02.794798,33
2021-12-24 14:29:02.794805,37
2021-12-24 14:29:02.794811,40
2021-12-24 14:29:02.794817,37
2021-12-24 14:29:02.794824,37
2021-12-24 14:29:02.931041,42
2021-12-24 14:29:02.931072,40
2021-12-24 14:29:02.931084,35
2021-12-24 14:29:02.931095,35
2021-12-24 14:29:02.931105,40
2021-12-24 14:29:02.931115,35
2021-12-24 14:29:02.931125,23
2021-12-24 14:29:02.931135,30
2021-12-24 14:29:02.931145,33
2021-12-24 14:29:02.931154,23
2021-12-24 14:29:02.931164,14
2021-12-24 14:29:02.931174,9
2021-12-24 14:29:02.931184,23
2021-12-24 14:29:02.931194,44
2021-12-24 14:29:02.931204,59
2021-12-24 14:29:02.931214,61
2021-12-24 14:29:02.931224,56
2021-12-24 14:29:02.931234,33
2021-12-24 14:29:02.931244,7
2021-12-24 14:29:02.931253,2
2021-12-24 14:29:02.931263,7
2021-12-24 14:29:02.931273,9
2021-12-24 14:29:02.931283,14
2021-12-24 14:29:02.931293,11
2021-12-24 14:29:02.931303,9
2021-12-24 14:29:02.931313,16
2021-12-24 14:29:02.931323,21
2021-12-24 14:29:02.931333,28
2021-12-24 14:29:02.931342,78
2021-12-24 14:29:02.931352,203
2021-12-24 14:29:03.156070,383
2021-12-24 14:29:03.156102,513
2021-12-24 14:29:03.156114,279
2021-12-24 14:29:03.156124,-445
2021-12-24 14:29:03.156134,-869
2021-12-24 14:29:03.156144,-388
2021-12-24 14:29:03.156154,85
2021-12-24 14:29:03.156164,11
2021-12-24 14:29:03.156174,-21
2021-12-24 14:29:03.156183,87
2021-12-24 14:29:03.156193,71
2021-12-24 14:29:03.156203,37
2021-12-24 14:29:03.156213,71
2021-12-24 14:29:03.156223,75
2021-12-24 14:29:03.156232,56
2021-12-24 14:29:03.156242,63
2021-12-24 14:29:03.156252,73
2021-12-24 14:29:03.156268,61
2021-12-24 14:29:03.156278,56
2021-12-24 14:29:03.156288,68
2021-12-24 14:29:03.156298,80
2021-12-24 14:29:03.156307,82
2021-12-24 14:29:03.156317,85
2021-12-24 14:29:03.156327,94
2021-12-24 14:29:03.156337,108
2021-12-24 14:29:03.156347,116
2021-12-24 14:29:03.156356,125
2021-12-24 14:29:03.156366,142
2021-12-24 14:29:03.156376,151
2021-12-24 14:29:03.156386,153
2021-12-24 14:29:03.380620,163
2021-12-24 14:29:03.380651,165
2021-12-24 14:29:03.380663,153
2021-12-24 14:29:03.380673,142
2021-12-24 14:29:03.380683,127
2021-12-24 14:29:03.380693,113
2021-12-24 14:29:03.380703,94
2021-12-24 14:29:03.380713,68
2021-12-24 14:29:03.380723,40
2021-12-24 14:29:03.380733,16
2021-12-24 14:29:03.380743,-7
2021-12-24 14:29:03.380753,-16
2021-12-24 14:29:03.380763,-16
2021-12-24 14:29:03.380773,-11
2021-12-24 14:29:03.380783,-9
2021-12-24 14:29:03.380793,-7
2021-12-24 14:29:03.380803,-2
2021-12-24 14:29:03.380813,2
2021-12-24 14:29:03.380823,14
2021-12-24 14:29:03.380833,23
2021-12-24 14:29:03.380843,23
2021-12-24 14:29:03.380852,21
2021-12-24 14:29:03.380862,28
2021-12-24 14:29:03.380872,35
2021-12-24 14:29:03.380882,47
2021-12-24 14:29:03.380892,54
2021-12-24 14:29:03.380902,52
2021-12-24 14:29:03.380912,44
2021-12-24 14:29:03.380922,42
2021-12-24 14:29:03.380932,47
2021-12-24 14:29:03.694817,49
2021-12-24 14:29:03.694838,42
2021-12-24 14:29:03.694846,40
2021-12-24 14:29:03.694853,40
2021-12-24 14:29:03.694859,35
2021-12-24 14:29:03.694866,33
2021-12-24 14:29:03.694872,33
2021-12-24 14:29:03.694878,26
2021-12-24 14:29:03.694885,28
2021-12-24 14:29:03.694891,26
2021-12-24 14:29:03.694897,16
2021-12-24 14:29:03.694904,21
2021-12-24 14:29:03.694910,23
2021-12-24 14:29:03.694916,14
2021-12-24 14:29:03.694923,9
2021-12-24 14:29:03.694929,7
2021-12-24 14:29:03.694936,11
2021-12-24 14:29:03.694942,11
2021-12-24 14:29:03.694949,9
2021-12-24 14:29:03.694955,9
2021-12-24 14:29:03.694961,9
2021-12-24 14:29:03.694968,11
2021-12-24 14:29:03.694974,21
2021-12-24 14:29:03.694981,18
2021-12-24 14:29:03.694987,4
2021-12-24 14:29:03.694993,2
2021-12-24 14:29:03.694999,16
2021-12-24 14:29:03.695006,18
2021-12-24 14:29:03.695012,7
2021-12-24 14:29:03.695024,9
2021-12-24 14:29:03.920987,23
2021-12-24 14:29:03.921018,23
2021-12-24 14:29:03.921030,18
2021-12-24 14:29:03.921040,18
2021-12-24 14:29:03.921050,21
2021-12-24 14:29:03.921059,18
2021-12-24 14:29:03.921069,18
2021-12-24 14:29:03.921079,16
2021-12-24 14:29:03.921089,14
2021-12-24 14:29:03.921098,14
2021-12-24 14:29:03.921108,33
2021-12-24 14:29:03.921118,59
2021-12-24 14:29:03.921128,66
2021-12-24 14:29:03.921138,61
2021-12-24 14:29:03.921148,52
2021-12-24 14:29:03.921157,30
2021-12-24 14:29:03.921167,11
2021-12-24 14:29:03.921177,16
2021-12-24 14:29:03.921187,23
2021-12-24 14:29:03.921196,26
2021-12-24 14:29:03.921206,28
2021-12-24 14:29:03.921216,35
2021-12-24 14:29:03.921226,49
2021-12-24 14:29:03.921235,49
2021-12-24 14:29:03.921245,42
2021-12-24 14:29:03.921255,78
2021-12-24 14:29:03.921265,187
2021-12-24 14:29:03.921275,376
2021-12-24 14:29:03.921285,547
2021-12-24 14:29:03.921294,464
2021-12-24 14:29:04.100613,-132
2021-12-24 14:29:04.100634,-750
2021-12-24 14:29:04.100642,-506
2021-12-24 14:29:04.100649,52
2021-12-24 14:29:04.100655,68
2021-12-24 14:29:04.100662,-28
2021-12-24 14:29:04.100668,78
2021-12-24 14:29:04.100674,92
2021-12-24 14:29:04.100681,42
2021-12-24 14:29:04.100687,66
2021-12-24 14:29:04.100694,80
2021-12-24 14:29:04.100700,66
2021-12-24 14:29:04.100706,73
2021-12-24 14:29:04.100713,82
2021-12-24 14:29:04.100719,73
2021-12-24 14:29:04.100725,73
2021-12-24 14:29:04.100732,85
2021-12-24 14:29:04.100738,82
2021-12-24 14:29:04.100744,82
2021-12-24 14:29:04.100751,92
2021-12-24 14:29:04.100757,94
2021-12-24 14:29:04.100763,94
2021-12-24 14:29:04.100770,104
2021-12-24 14:29:04.100776,116
2021-12-24 14:29:04.100782,125
2021-12-24 14:29:04.100788,134
2021-12-24 14:29:04.100795,139
2021-12-24 14:29:04.100801,142
2021-12-24 14:29:04.100807,144
2021-12-24 14:29:04.100814,134
2021-12-24 14:29:04.325448,113
2021-12-24 14:29:04.325469,101
2021-12-24 14:29:04.325477,97
2021-12-24 14:29:04.325484,78
2021-12-24 14:29:04.325490,54
2021-12-24 14:29:04.325514,40
2021-12-24 14:29:04.325524,23
2021-12-24 14:29:04.325534,2
2021-12-24 14:29:04.325544,-16
2021-12-24 14:29:04.325554,-21
2021-12-24 14:29:04.325564,-18
2021-12-24 14:29:04.325574,-16
2021-12-24 14:29:04.325583,-14
2021-12-24 14:29:04.325593,-18
2021-12-24 14:29:04.325603,-16
2021-12-24 14:29:04.325613,-2
2021-12-24 14:29:04.325623,2
2021-12-24 14:29:04.325633,-7
2021-12-24 14:29:04.325643,-4
2021-12-24 14:29:04.325653,2
2021-12-24 14:29:04.325672,2
2021-12-24 14:29:04.325682,11
2021-12-24 14:29:04.325692,21
2021-12-24 14:29:04.325701,21
2021-12-24 14:29:04.325711,28
2021-12-24 14:29:04.325721,33
2021-12-24 14:29:04.325731,26
2021-12-24 14:29:04.325741,21
2021-12-24 14:29:04.325751,26
2021-12-24 14:29:04.325760,21
2021-12-24 14:29:04.638974,21
2021-12-24 14:29:04.638994,28
2021-12-24 14:29:04.639002,26
2021-12-24 14:29:04.639008,18
2021-12-24 14:29:04.639015,26
2021-12-24 14:29:04.639021,30
2021-12-24 14:29:04.639027,18
2021-12-24 14:29:04.639034,14
2021-12-24 14:29:04.639040,16
2021-12-24 14:29:04.639047,16
2021-12-24 14:29:04.639053,21
2021-12-24 14:29:04.639059,26
2021-12-24 14:29:04.639066,16
2021-12-24 14:29:04.639072,11
2021-12-24 14:29:04.639078,21
2021-12-24 14:29:04.639085,21
2021-12-24 14:29:04.639091,21
2021-12-24 14:29:04.639097,30
2021-12-24 14:29:04.639104,30
2021-12-24 14:29:04.639110,21
2021-12-24 14:29:04.639116,23
2021-12-24 14:29:04.639123,33
2021-12-24 14:29:04.639129,28
2021-12-24 14:29:04.639135,21
2021-12-24 14:29:04.639142,16
2021-12-24 14:29:04.639148,18
2021-12-24 14:29:04.639154,30
2021-12-24 14:29:04.639160,44
2021-12-24 14:29:04.639167,63
2021-12-24 14:29:04.639173,80
2021-12-24 14:29:04.820407,78
2021-12-24 14:29:04.820438,63
2021-12-24 14:29:04.820450,44
2021-12-24 14:29:04.820460,28
2021-12-24 14:29:04.820470,26
2021-12-24 14:29:04.820480,30
2021-12-24 14:29:04.820490,33
2021-12-24 14:29:04.820500,30
2021-12-24 14:29:04.820510,30
2021-12-24 14:29:04.820520,42
2021-12-24 14:29:04.820530,49
2021-12-24 14:29:04.820540,44
2021-12-24 14:29:04.820550,71
2021-12-24 14:29:04.820559,163
2021-12-24 14:29:04.820569,338
2021-12-24 14:29:04.820579,520
2021-12-24 14:29:04.820590,464
2021-12-24 14:29:04.820599,-130
2021-12-24 14:29:04.820610,-809
2021-12-24 14:29:04.820619,-627
2021-12-24 14:29:04.820629,-11
2021-12-24 14:29:04.820639,71
2021-12-24 14:29:04.820649,-52
2021-12-24 14:29:04.820659,40
2021-12-24 14:29:04.820668,87
2021-12-24 14:29:04.820678,40
2021-12-24 14:29:04.820688,44
2021-12-24 14:29:04.820698,63
2021-12-24 14:29:04.820708,59
2021-12-24 14:29:04.820718,61
2021-12-24 14:29:05.180516,59
2021-12-24 14:29:05.180537,56
2021-12-24 14:29:05.180545,68
2021-12-24 14:29:05.180552,80
2021-12-24 14:29:05.180559,80
2021-12-24 14:29:05.180566,73
2021-12-24 14:29:05.180572,78
2021-12-24 14:29:05.180579,94
2021-12-24 14:29:05.180585,104
2021-12-24 14:29:05.180592,111
2021-12-24 14:29:05.180598,118
2021-12-24 14:29:05.180605,130
2021-12-24 14:29:05.180611,142
2021-12-24 14:29:05.180618,158
2021-12-24 14:29:05.180624,170
2021-12-24 14:29:05.180631,179
2021-12-24 14:29:05.180637,182
2021-12-24 14:29:05.180644,170
2021-12-24 14:29:05.180650,161
2021-12-24 14:29:05.180657,151
2021-12-24 14:29:05.180663,123
2021-12-24 14:29:05.180670,94
2021-12-24 14:29:05.180679,73
2021-12-24 14:29:05.180686,35
2021-12-24 14:29:05.180692,7
2021-12-24 14:29:05.180699,0
2021-12-24 14:29:05.180705,-9
2021-12-24 14:29:05.180712,-14
2021-12-24 14:29:05.180718,-7
2021-12-24 14:29:05.180725,-11
2021-12-24 14:29:05.315657,-16
2021-12-24 14:29:05.315679,-4
2021-12-24 14:29:05.315687,-4
2021-12-24 14:29:05.315694,-2
2021-12-24 14:29:05.315701,16
2021-12-24 14:29:05.315707,28
2021-12-24 14:29:05.315714,16
2021-12-24 14:29:05.315721,18
2021-12-24 14:29:05.315727,37
2021-12-24 14:29:05.315733,44
2021-12-24 14:29:05.315740,42
2021-12-24 14:29:05.315746,42
2021-12-24 14:29:05.315753,37
2021-12-24 14:29:05.315759,37
2021-12-24 14:29:05.315766,49
2021-12-24 14:29:05.315772,47
2021-12-24 14:29:05.315778,33
2021-12-24 14:29:05.315785,37
2021-12-24 14:29:05.315791,47
2021-12-24 14:29:05.315798,44
2021-12-24 14:29:05.315804,47
2021-12-24 14:29:05.315810,42
2021-12-24 14:29:05.315817,30
2021-12-24 14:29:05.315823,28
2021-12-24 14:29:05.315829,35
2021-12-24 14:29:05.315836,30
2021-12-24 14:29:05.315842,21
2021-12-24 14:29:05.315849,16
2021-12-24 14:29:05.315855,9
2021-12-24 14:29:05.315861,18
2021-12-24 14:29:05.540474,47
2021-12-24 14:29:05.540496,63
2021-12-24 14:29:05.540504,66
2021-12-24 14:29:05.540510,52
2021-12-24 14:29:05.540534,35
2021-12-24 14:29:05.540544,18
2021-12-24 14:29:05.540554,11
2021-12-24 14:29:05.540563,11
2021-12-24 14:29:05.540573,9
2021-12-24 14:29:05.540583,4
2021-12-24 14:29:05.540593,11
2021-12-24 14:29:05.540602,21
2021-12-24 14:29:05.540612,16
2021-12-24 14:29:05.540622,23
2021-12-24 14:29:05.540632,52
2021-12-24 14:29:05.540642,99
2021-12-24 14:29:05.540651,213
2021-12-24 14:29:05.540661,395
2021-12-24 14:29:05.540671,509
2021-12-24 14:29:05.540681,234
2021-12-24 14:29:05.540690,-513
2021-12-24 14:29:05.540700,-878
2021-12-24 14:29:05.540710,-345
2021-12-24 14:29:05.540720,104
2021-12-24 14:29:05.540729,16
2021-12-24 14:29:05.540739,2
2021-12-24 14:29:05.540749,111
2021-12-24 14:29:05.540759,85
2021-12-24 14:29:05.540769,49
2021-12-24 14:29:05.540778,85
2021-12-24 14:29:05.810512,94
2021-12-24 14:29:05.810533,82
2021-12-24 14:29:05.810541,87
2021-12-24 14:29:05.810548,87
2021-12-24 14:29:05.810554,87
2021-12-24 14:29:05.810561,94
2021-12-24 14:29:05.810567,99
2021-12-24 14:29:05.810574,104
2021-12-24 14:29:05.810580,108
2021-12-24 14:29:05.810589,108
2021-12-24 14:29:05.810595,116
2021-12-24 14:29:05.810602,127
2021-12-24 14:29:05.810608,132
2021-12-24 14:29:05.810614,144
2021-12-24 14:29:05.810621,163
2021-12-24 14:29:05.810627,179
2021-12-24 14:29:05.810634,191
2021-12-24 14:29:05.810640,206
2021-12-24 14:29:05.810646,210
2021-12-24 14:29:05.810652,206
2021-12-24 14:29:05.810659,191
2021-12-24 14:29:05.810665,175
2021-12-24 14:29:05.810671,153
2021-12-24 14:29:05.810678,125
2021-12-24 14:29:05.810684,97
2021-12-24 14:29:05.810690,59
2021-12-24 14:29:05.810696,23
2021-12-24 14:29:05.810703,0
2021-12-24 14:29:05.810709,-11
2021-12-24 14:29:05.810716,-23
2021-12-24 14:29:05.946046,-30
2021-12-24 14:29:05.946077,-23
2021-12-24 14:29:05.946089,-18
2021-12-24 14:29:05.946099,-18
2021-12-24 14:29:05.946109,-11
2021-12-24 14:29:05.946123,2
2021-12-24 14:29:05.946133,14
2021-12-24 14:29:05.946143,16
2021-12-24 14:29:05.946153,14
2021-12-24 14:29:05.946162,16
2021-12-24 14:29:05.946172,21
2021-12-24 14:29:05.946182,23
2021-12-24 14:29:05.946192,33
2021-12-24 14:29:05.946201,49
2021-12-24 14:29:05.946211,47
2021-12-24 14:29:05.946221,35
2021-12-24 14:29:05.946231,40
2021-12-24 14:29:05.946241,47
2021-12-24 14:29:05.946250,44
2021-12-24 14:29:05.946260,40
2021-12-24 14:29:05.946270,37
2021-12-24 14:29:05.946279,30
2021-12-24 14:29:05.946289,21
2021-12-24 14:29:05.946299,18
2021-12-24 14:29:05.946308,26
2021-12-24 14:29:05.946318,30
2021-12-24 14:29:05.946327,33
2021-12-24 14:29:05.946337,42
2021-12-24 14:29:05.946347,52
2021-12-24 14:29:05.946356,47
2021-12-24 14:29:06.215574,26
2021-12-24 14:29:06.215604,4
2021-12-24 14:29:06.215616,0
2021-12-24 14:29:06.215626,11
2021-12-24 14:29:06.215637,11
2021-12-24 14:29:06.215647,2
2021-12-24 14:29:06.215656,4
2021-12-24 14:29:06.215666,-2
2021-12-24 14:29:06.215676,-4
2021-12-24 14:29:06.215686,4
2021-12-24 14:29:06.215696,14
2021-12-24 14:29:06.215706,47
2021-12-24 14:29:06.215716,149
2021-12-24 14:29:06.215726,317
2021-12-24 14:29:06.215736,468
2021-12-24 14:29:06.215746,357
2021-12-24 14:29:06.215756,-279
2021-12-24 14:29:06.215766,-892
2021-12-24 14:29:06.215776,-603
2021-12-24 14:29:06.215786,0
2021-12-24 14:29:06.215796,54
2021-12-24 14:29:06.215806,-28
2021-12-24 14:29:06.215816,68
2021-12-24 14:29:06.215826,82
2021-12-24 14:29:06.215836,37
2021-12-24 14:29:06.215846,54
2021-12-24 14:29:06.215856,68
2021-12-24 14:29:06.215865,56
2021-12-24 14:29:06.215876,63
2021-12-24 14:29:06.215885,66
2021-12-24 14:29:06.440268,68
2021-12-24 14:29:06.440290,80
2021-12-24 14:29:06.440297,80
2021-12-24 14:29:06.440304,73
2021-12-24 14:29:06.440310,80
2021-12-24 14:29:06.440317,89
2021-12-24 14:29:06.440323,92
2021-12-24 14:29:06.440330,99
2021-12-24 14:29:06.440336,106
2021-12-24 14:29:06.440342,116
2021-12-24 14:29:06.440349,127
2021-12-24 14:29:06.440355,158
2021-12-24 14:29:06.440361,194
2021-12-24 14:29:06.440368,194
2021-12-24 14:29:06.440374,182
2021-12-24 14:29:06.440380,182
2021-12-24 14:29:06.440387,175
2021-12-24 14:29:06.440393,161
2021-12-24 14:29:06.440400,146
2021-12-24 14:29:06.440406,116
2021-12-24 14:29:06.440412,78
2021-12-24 14:29:06.440419,49
2021-12-24 14:29:06.440425,28
2021-12-24 14:29:06.440431,4
2021-12-24 14:29:06.440438,-16
2021-12-24 14:29:06.440444,-21
2021-12-24 14:29:06.440450,-18
2021-12-24 14:29:06.440457,-14
2021-12-24 14:29:06.440463,-9
2021-12-24 14:29:06.440470,-2
2021-12-24 14:29:06.754776,4
2021-12-24 14:29:06.754807,14
2021-12-24 14:29:06.754819,18
2021-12-24 14:29:06.754829,21
2021-12-24 14:29:06.754839,18
2021-12-24 14:29:06.754849,26
2021-12-24 14:29:06.754859,28
2021-12-24 14:29:06.754869,21
2021-12-24 14:29:06.754878,28
2021-12-24 14:29:06.754888,40
2021-12-24 14:29:06.754898,35
2021-12-24 14:29:06.754908,30
2021-12-24 14:29:06.754918,33
2021-12-24 14:29:06.754927,33
2021-12-24 14:29:06.754937,30
2021-12-24 14:29:06.754947,18
2021-12-24 14:29:06.754956,14
2021-12-24 14:29:06.754966,23
2021-12-24 14:29:06.754976,28
2021-12-24 14:29:06.754986,16
2021-12-24 14:29:06.754995,4
2021-12-24 14:29:06.755005,2
2021-12-24 14:29:06.755015,4
2021-12-24 14:29:06.755025,14
2021-12-24 14:29:06.755034,37
2021-12-24 14:29:06.755044,56
2021-12-24 14:29:06.755054,49
2021-12-24 14:29:06.755064,33
2021-12-24 14:29:06.755074,9
2021-12-24 14:29:06.755084,-9
2021-12-24 14:29:06.890077,-16
2021-12-24 14:29:06.890111,-14
2021-12-24 14:29:06.890124,-9
2021-12-24 14:29:06.890134,-9
2021-12-24 14:29:06.890144,-9
2021-12-24 14:29:06.890154,0
2021-12-24 14:29:06.890164,7
2021-12-24 14:29:06.890173,7
2021-12-24 14:29:06.890183,18
2021-12-24 14:29:06.890193,82
2021-12-24 14:29:06.890203,217
2021-12-24 14:29:06.890212,404
2021-12-24 14:29:06.890222,492
2021-12-24 14:29:06.890232,144
2021-12-24 14:29:06.890242,-625
2021-12-24 14:29:06.890252,-880
2021-12-24 14:29:06.890261,-286
2021-12-24 14:29:06.890271,104
2021-12-24 14:29:06.890281,-9
2021-12-24 14:29:06.890291,-2
2021-12-24 14:29:06.890301,97
2021-12-24 14:29:06.890310,59
2021-12-24 14:29:06.890320,37
2021-12-24 14:29:06.890330,78
2021-12-24 14:29:06.890339,75
2021-12-24 14:29:06.890349,59
2021-12-24 14:29:06.890359,78
2021-12-24 14:29:06.890369,85
2021-12-24 14:29:06.890378,80
2021-12-24 14:29:06.890388,87
2021-12-24 14:29:07.204704,94
2021-12-24 14:29:07.204724,92
2021-12-24 14:29:07.204732,92
2021-12-24 14:29:07.204738,99
2021-12-24 14:29:07.204745,106
2021-12-24 14:29:07.204751,113
2021-12-24 14:29:07.204758,123
2021-12-24 14:29:07.204764,134
2021-12-24 14:29:07.204770,149
2021-12-24 14:29:07.204777,163
2021-12-24 14:29:07.204783,170
2021-12-24 14:29:07.204790,172
2021-12-24 14:29:07.204796,170
2021-12-24 14:29:07.204802,165
2021-12-24 14:29:07.204809,153
2021-12-24 14:29:07.204815,137
2021-12-24 14:29:07.204822,118
2021-12-24 14:29:07.204828,99
2021-12-24 14:29:07.204835,75
2021-12-24 14:29:07.204841,47
2021-12-24 14:29:07.204847,14
2021-12-24 14:29:07.204854,-4
2021-12-24 14:29:07.204860,-4
2021-12-24 14:29:07.204867,0
2021-12-24 14:29:07.204873,0
2021-12-24 14:29:07.204880,-2
2021-12-24 14:29:07.204886,2
2021-12-24 14:29:07.204893,7
2021-12-24 14:29:07.204899,7
2021-12-24 14:29:07.204906,16
2021-12-24 14:29:07.340452,26
2021-12-24 14:29:07.340474,30
2021-12-24 14:29:07.340482,37
2021-12-24 14:29:07.340489,37
2021-12-24 14:29:07.340495,30
2021-12-24 14:29:07.340502,33
2021-12-24 14:29:07.340508,44
2021-12-24 14:29:07.340514,47
2021-12-24 14:29:07.340521,44
2021-12-24 14:29:07.340528,42
2021-12-24 14:29:07.340534,37
2021-12-24 14:29:07.340540,37
2021-12-24 14:29:07.340547,37
2021-12-24 14:29:07.340553,33
2021-12-24 14:29:07.340560,35
2021-12-24 14:29:07.340566,33
2021-12-24 14:29:07.340572,21
2021-12-24 14:29:07.340579,21
2021-12-24 14:29:07.340585,28
2021-12-24 14:29:07.340592,23
2021-12-24 14:29:07.340598,26
2021-12-24 14:29:07.340604,37
2021-12-24 14:29:07.340611,49
2021-12-24 14:29:07.340617,66
2021-12-24 14:29:07.340623,78
2021-12-24 14:29:07.340630,66
2021-12-24 14:29:07.340636,35
2021-12-24 14:29:07.340643,16
2021-12-24 14:29:07.340649,18
2021-12-24 14:29:07.340655,23
2021-12-24 14:29:07.565613,26
2021-12-24 14:29:07.565635,26
2021-12-24 14:29:07.565643,26
2021-12-24 14:29:07.565650,26
2021-12-24 14:29:07.565656,26
2021-12-24 14:29:07.565663,37
2021-12-24 14:29:07.565669,54
2021-12-24 14:29:07.565676,113
2021-12-24 14:29:07.565682,255
2021-12-24 14:29:07.565689,454
2021-12-24 14:29:07.565695,528
2021-12-24 14:29:07.565702,142
2021-12-24 14:29:07.565708,-634
2021-12-24 14:29:07.565715,-854
2021-12-24 14:29:07.565721,-251
2021-12-24 14:29:07.565728,118
2021-12-24 14:29:07.565734,11
2021-12-24 14:29:07.565741,23
2021-12-24 14:29:07.565747,106
2021-12-24 14:29:07.565754,66
2021-12-24 14:29:07.565760,52
2021-12-24 14:29:07.565767,85
2021-12-24 14:29:07.565773,73
2021-12-24 14:29:07.565779,56
2021-12-24 14:29:07.565786,66
2021-12-24 14:29:07.565792,63
2021-12-24 14:29:07.565799,68
2021-12-24 14:29:07.565805,75
2021-12-24 14:29:07.565811,71
2021-12-24 14:29:07.565818,66
2021-12-24 14:29:07.790970,71
2021-12-24 14:29:07.791001,82
2021-12-24 14:29:07.791013,92
2021-12-24 14:29:07.791023,89
2021-12-24 14:29:07.791033,97
2021-12-24 14:29:07.791043,104
2021-12-24 14:29:07.791052,113
2021-12-24 14:29:07.791062,130
2021-12-24 14:29:07.791072,137
2021-12-24 14:29:07.791082,130
2021-12-24 14:29:07.791091,130
2021-12-24 14:29:07.791106,127
2021-12-24 14:29:07.791116,113
2021-12-24 14:29:07.791125,94
2021-12-24 14:29:07.791135,78
2021-12-24 14:29:07.791145,59
2021-12-24 14:29:07.791155,26
2021-12-24 14:29:07.791164,-4
2021-12-24 14:29:07.791174,-18
2021-12-24 14:29:07.791184,-26
2021-12-24 14:29:07.791194,-35
2021-12-24 14:29:07.791203,-47
2021-12-24 14:29:07.791213,-40
2021-12-24 14:29:07.791223,-28
2021-12-24 14:29:07.791232,-26
2021-12-24 14:29:07.791242,-18
2021-12-24 14:29:07.791252,-14
2021-12-24 14:29:07.791262,-14
2021-12-24 14:29:07.791272,-4
2021-12-24 14:29:07.791281,11
2021-12-24 14:29:08.060520,14
2021-12-24 14:29:08.060555,9
2021-12-24 14:29:08.060568,11
2021-12-24 14:29:08.060579,18
2021-12-24 14:29:08.060589,28
2021-12-24 14:29:08.060599,35
2021-12-24 14:29:08.060609,33
2021-12-24 14:29:08.060619,28
2021-12-24 14:29:08.060629,28
2021-12-24 14:29:08.060639,23
2021-12-24 14:29:08.060648,16
2021-12-24 14:29:08.060665,26
2021-12-24 14:29:08.060675,37
2021-12-24 14:29:08.060685,28
2021-12-24 14:29:08.060695,9
2021-12-24 14:29:08.060705,9
2021-12-24 14:29:08.060714,21
2021-12-24 14:29:08.060724,28
2021-12-24 14:29:08.060734,44
2021-12-24 14:29:08.060743,59
2021-12-24 14:29:08.060753,56
2021-12-24 14:29:08.060763,44
2021-12-24 14:29:08.060773,28
2021-12-24 14:29:08.060783,18
2021-12-24 14:29:08.060792,16
2021-12-24 14:29:08.060802,18
2021-12-24 14:29:08.060812,26
2021-12-24 14:29:08.060822,30
2021-12-24 14:29:08.060832,21
2021-12-24 14:29:08.060841,21
2021-12-24 14:29:08.330417,30
2021-12-24 14:29:08.330448,28
2021-12-24 14:29:08.330459,37
2021-12-24 14:29:08.330470,111
2021-12-24 14:29:08.330480,272
2021-12-24 14:29:08.330490,466
2021-12-24 14:29:08.330499,532
2021-12-24 14:29:08.330509,149
2021-12-24 14:29:08.330519,-641
2021-12-24 14:29:08.330529,-885
2021-12-24 14:29:08.330539,-267
2021-12-24 14:29:08.330549,123
2021-12-24 14:29:08.330559,2
2021-12-24 14:29:08.330568,14
2021-12-24 14:29:08.330578,118
2021-12-24 14:29:08.330588,71
2021-12-24 14:29:08.330598,37
2021-12-24 14:29:08.330608,73
2021-12-24 14:29:08.330617,75
2021-12-24 14:29:08.330627,59
2021-12-24 14:29:08.330637,59
2021-12-24 14:29:08.330646,63
2021-12-24 14:29:08.330656,68
2021-12-24 14:29:08.330666,73
2021-12-24 14:29:08.330675,78
2021-12-24 14:29:08.330685,82
2021-12-24 14:29:08.330695,87
2021-12-24 14:29:08.330705,92
2021-12-24 14:29:08.330714,104
2021-12-24 14:29:08.330724,120
2021-12-24 14:29:08.779259,134
2021-12-24 14:29:08.779281,144
2021-12-24 14:29:08.779289,153
2021-12-24 14:29:08.779296,165
2021-12-24 14:29:08.779303,172
2021-12-24 14:29:08.779309,182
2021-12-24 14:29:08.779316,182
2021-12-24 14:29:08.779322,163
2021-12-24 14:29:08.779329,149
2021-12-24 14:29:08.779335,142
2021-12-24 14:29:08.779342,123
2021-12-24 14:29:08.779348,99
2021-12-24 14:29:08.779355,68
2021-12-24 14:29:08.779361,33
2021-12-24 14:29:08.779368,4
2021-12-24 14:29:08.779374,-14
2021-12-24 14:29:08.779381,-23
2021-12-24 14:29:08.779387,-26
2021-12-24 14:29:08.779393,-14
2021-12-24 14:29:08.779400,-7
2021-12-24 14:29:08.779406,-14
2021-12-24 14:29:08.779413,-11
2021-12-24 14:29:08.779419,-4
2021-12-24 14:29:08.779426,4
2021-12-24 14:29:08.779432,11
2021-12-24 14:29:08.779439,14
2021-12-24 14:29:08.779445,14
2021-12-24 14:29:08.779452,14
2021-12-24 14:29:08.779458,23
2021-12-24 14:29:08.779464,28
2021-12-24 14:29:08.870083,21
2021-12-24 14:29:08.870105,28
2021-12-24 14:29:08.870112,35
2021-12-24 14:29:08.870119,33
2021-12-24 14:29:08.870144,33
2021-12-24 14:29:08.870154,30
2021-12-24 14:29:08.870164,21
2021-12-24 14:29:08.870173,11
2021-12-24 14:29:08.870183,18
2021-12-24 14:29:08.870193,37
2021-12-24 14:29:08.870202,56
2021-12-24 14:29:08.870212,61
2021-12-24 14:29:08.870222,59
2021-12-24 14:29:08.870232,49
2021-12-24 14:29:08.870242,30
2021-12-24 14:29:08.870251,16
2021-12-24 14:29:08.870261,18
2021-12-24 14:29:08.870271,18
2021-12-24 14:29:08.870280,18
2021-12-24 14:29:08.870290,26
2021-12-24 14:29:08.870300,23
2021-12-24 14:29:08.870309,18
2021-12-24 14:29:08.870319,28
2021-12-24 14:29:08.870329,37
2021-12-24 14:29:08.870338,37
2021-12-24 14:29:08.870348,94
2021-12-24 14:29:08.870358,248
2021-12-24 14:29:08.870367,438
2021-12-24 14:29:08.870377,497
2021-12-24 14:29:08.870387,116
2021-12-24 14:29:09.005861,-632
2021-12-24 14:29:09.005891,-826
2021-12-24 14:29:09.005903,-243
2021-12-24 14:29:09.005913,108
2021-12-24 14:29:09.005923,16
2021-12-24 14:29:09.005933,37
2021-12-24 14:29:09.005943,127
2021-12-24 14:29:09.005953,92
2021-12-24 14:29:09.005970,71
2021-12-24 14:29:09.005980,104
2021-12-24 14:29:09.005990,108
2021-12-24 14:29:09.006000,97
2021-12-24 14:29:09.006010,99
2021-12-24 14:29:09.006020,101
2021-12-24 14:29:09.006029,104
2021-12-24 14:29:09.006039,111
2021-12-24 14:29:09.006049,113
2021-12-24 14:29:09.006059,111
2021-12-24 14:29:09.006068,120
2021-12-24 14:29:09.006078,137
2021-12-24 14:29:09.006088,144
2021-12-24 14:29:09.006098,144
2021-12-24 14:29:09.006107,146
2021-12-24 14:29:09.006117,158
2021-12-24 14:29:09.006127,177
2021-12-24 14:29:09.006137,189
2021-12-24 14:29:09.006147,196
2021-12-24 14:29:09.006156,196
2021-12-24 14:29:09.006166,194
2021-12-24 14:29:09.006176,189
2021-12-24 14:29:09.140259,179
2021-12-24 14:29:09.140279,163
2021-12-24 14:29:09.140287,146
2021-12-24 14:29:09.140294,125
2021-12-24 14:29:09.140300,82
2021-12-24 14:29:09.140306,44
2021-12-24 14:29:09.140313,26
2021-12-24 14:29:09.140319,9
2021-12-24 14:29:09.140326,-4
2021-12-24 14:29:09.140332,-9
2021-12-24 14:29:09.140339,-11
2021-12-24 14:29:09.140345,-14
2021-12-24 14:29:09.140351,-9
2021-12-24 14:29:09.140358,4
2021-12-24 14:29:09.140364,11
2021-12-24 14:29:09.140371,7
2021-12-24 14:29:09.140377,4
2021-12-24 14:29:09.140383,14
2021-12-24 14:29:09.140390,21
2021-12-24 14:29:09.140396,23
2021-12-24 14:29:09.140402,23
2021-12-24 14:29:09.140409,26
2021-12-24 14:29:09.140415,23
2021-12-24 14:29:09.140421,28
2021-12-24 14:29:09.140428,28
2021-12-24 14:29:09.140434,28
2021-12-24 14:29:09.140440,26
2021-12-24 14:29:09.140447,16
2021-12-24 14:29:09.140453,28
2021-12-24 14:29:09.140460,59
2021-12-24 14:29:09.409732,61
2021-12-24 14:29:09.409754,30
2021-12-24 14:29:09.409763,14
2021-12-24 14:29:09.409771,4
2021-12-24 14:29:09.409779,-9
2021-12-24 14:29:09.409787,-9
2021-12-24 14:29:09.409795,-4
2021-12-24 14:29:09.409802,2
2021-12-24 14:29:09.409810,7
2021-12-24 14:29:09.409817,4
2021-12-24 14:29:09.409825,7
2021-12-24 14:29:09.409833,9
2021-12-24 14:29:09.409841,14
2021-12-24 14:29:09.409849,59
2021-12-24 14:29:09.409856,194
2021-12-24 14:29:09.409864,383
2021-12-24 14:29:09.409872,438
2021-12-24 14:29:09.409879,37
2021-12-24 14:29:09.409887,-660
2021-12-24 14:29:09.409894,-753
2021-12-24 14:29:09.409902,-165
2021-12-24 14:29:09.409910,125
2021-12-24 14:29:09.409917,26
2021-12-24 14:29:09.409925,54
2021-12-24 14:29:09.409933,120
2021-12-24 14:29:09.409940,85
2021-12-24 14:29:09.409948,78
2021-12-24 14:29:09.409955,101
2021-12-24 14:29:09.409962,94
2021-12-24 14:29:09.409971,87
2021-12-24 14:29:09.679752,94
2021-12-24 14:29:09.679782,94
2021-12-24 14:29:09.679795,87
2021-12-24 14:29:09.679805,97
2021-12-24 14:29:09.679815,108
2021-12-24 14:29:09.679825,106
2021-12-24 14:29:09.679835,104
2021-12-24 14:29:09.679845,111
2021-12-24 14:29:09.679855,118
2021-12-24 14:29:09.679865,123
2021-12-24 14:29:09.679875,125
2021-12-24 14:29:09.679885,137
2021-12-24 14:29:09.679894,156
2021-12-24 14:29:09.679904,153
2021-12-24 14:29:09.679914,146
2021-12-24 14:29:09.679924,165
2021-12-24 14:29:09.679934,191
2021-12-24 14:29:09.679944,175
2021-12-24 14:29:09.679954,149
2021-12-24 14:29:09.679964,137
2021-12-24 14:29:09.679974,120
2021-12-24 14:29:09.679983,89
2021-12-24 14:29:09.679993,56
2021-12-24 14:29:09.680003,28
2021-12-24 14:29:09.680013,14
2021-12-24 14:29:09.680023,0
2021-12-24 14:29:09.680033,-11
2021-12-24 14:29:09.680043,-4
2021-12-24 14:29:09.680053,-2
2021-12-24 14:29:09.680063,-4
2021-12-24 14:29:09.905155,9
2021-12-24 14:29:09.905185,23
2021-12-24 14:29:09.905197,18
2021-12-24 14:29:09.905207,16
2021-12-24 14:29:09.905217,21
2021-12-24 14:29:09.905227,23
2021-12-24 14:29:09.905237,28
2021-12-24 14:29:09.905247,35
2021-12-24 14:29:09.905257,28
2021-12-24 14:29:09.905267,23
2021-12-24 14:29:09.905277,35
2021-12-24 14:29:09.905287,30
2021-12-24 14:29:09.905296,14
2021-12-24 14:29:09.905306,7
2021-12-24 14:29:09.905316,11
2021-12-24 14:29:09.905326,21
2021-12-24 14:29:09.905336,40
2021-12-24 14:29:09.905345,49
2021-12-24 14:29:09.905355,44
2021-12-24 14:29:09.905365,40
2021-12-24 14:29:09.905375,16
2021-12-24 14:29:09.905384,-2
2021-12-24 14:29:09.905394,2
2021-12-24 14:29:09.905404,11
2021-12-24 14:29:09.905414,11
2021-12-24 14:29:09.905424,11
2021-12-24 14:29:09.905434,11
2021-12-24 14:29:09.905443,16
2021-12-24 14:29:09.905453,18
2021-12-24 14:29:09.905463,14
2021-12-24 14:29:10.174406,21
2021-12-24 14:29:10.174423,92
2021-12-24 14:29:10.174429,255
2021-12-24 14:29:10.174435,433
2021-12-24 14:29:10.174440,421
2021-12-24 14:29:10.174445,-73
2021-12-24 14:29:10.174450,-755
2021-12-24 14:29:10.174456,-698
2021-12-24 14:29:10.174461,-80
2021-12-24 14:29:10.174466,108
2021-12-24 14:29:10.174471,-7
2021-12-24 14:29:10.174476,52
2021-12-24 14:29:10.174481,99
2021-12-24 14:29:10.174486,42
2021-12-24 14:29:10.174491,49
2021-12-24 14:29:10.174497,82
2021-12-24 14:29:10.174502,73
2021-12-24 14:29:10.174507,71
2021-12-24 14:29:10.174512,80
2021-12-24 14:29:10.174517,75
2021-12-24 14:29:10.174522,73
2021-12-24 14:29:10.174527,82
2021-12-24 14:29:10.174532,87
2021-12-24 14:29:10.174539,87
2021-12-24 14:29:10.174545,92
2021-12-24 14:29:10.174550,101
2021-12-24 14:29:10.174555,106
2021-12-24 14:29:10.174560,108
2021-12-24 14:29:10.174565,120
2021-12-24 14:29:10.174570,142
2021-12-24 14:29:10.355821,153
2021-12-24 14:29:10.355887,156
2021-12-24 14:29:10.355902,158
2021-12-24 14:29:10.355910,165
2021-12-24 14:29:10.355917,168
2021-12-24 14:29:10.355923,156
2021-12-24 14:29:10.355929,134
2021-12-24 14:29:10.355936,123
2021-12-24 14:29:10.355942,111
2021-12-24 14:29:10.355948,78
2021-12-24 14:29:10.355954,47
2021-12-24 14:29:10.355961,26
2021-12-24 14:29:10.355967,7
2021-12-24 14:29:10.355973,-2
2021-12-24 14:29:10.355980,-4
2021-12-24 14:29:10.355986,-7
2021-12-24 14:29:10.355992,-2
2021-12-24 14:29:10.355999,4
2021-12-24 14:29:10.356005,7
2021-12-24 14:29:10.356012,9
2021-12-24 14:29:10.356018,26
2021-12-24 14:29:10.356024,40
2021-12-24 14:29:10.356031,42
2021-12-24 14:29:10.356037,42
2021-12-24 14:29:10.356043,42
2021-12-24 14:29:10.356050,40
2021-12-24 14:29:10.356056,42
2021-12-24 14:29:10.356063,42
2021-12-24 14:29:10.356069,47
2021-12-24 14:29:10.356075,56
2021-12-24 14:29:10.624719,49
2021-12-24 14:29:10.624750,37
2021-12-24 14:29:10.624762,37
2021-12-24 14:29:10.624772,33
2021-12-24 14:29:10.624782,21
2021-12-24 14:29:10.624791,21
2021-12-24 14:29:10.624801,26
2021-12-24 14:29:10.624811,35
2021-12-24 14:29:10.624820,47
2021-12-24 14:29:10.624830,44
2021-12-24 14:29:10.624840,40
2021-12-24 14:29:10.624849,33
2021-12-24 14:29:10.624859,4
2021-12-24 14:29:10.624869,-18
2021-12-24 14:29:10.624878,-14
2021-12-24 14:29:10.624888,-9
2021-12-24 14:29:10.624898,-2
2021-12-24 14:29:10.624908,4
2021-12-24 14:29:10.624917,4
2021-12-24 14:29:10.624927,-4
2021-12-24 14:29:10.624937,-2
2021-12-24 14:29:10.624946,18
2021-12-24 14:29:10.624956,52
2021-12-24 14:29:10.624966,144
2021-12-24 14:29:10.624975,338
2021-12-24 14:29:10.624985,509
2021-12-24 14:29:10.624995,359
2021-12-24 14:29:10.625004,-310
2021-12-24 14:29:10.625014,-890
2021-12-24 14:29:10.625024,-568
2021-12-24 14:29:10.804603,21
2021-12-24 14:29:10.804624,54
2021-12-24 14:29:10.804632,-28
2021-12-24 14:29:10.804639,71
2021-12-24 14:29:10.804663,80
2021-12-24 14:29:10.804673,33
2021-12-24 14:29:10.804683,52
2021-12-24 14:29:10.804693,66
2021-12-24 14:29:10.804703,56
2021-12-24 14:29:10.804712,61
2021-12-24 14:29:10.804722,59
2021-12-24 14:29:10.804732,54
2021-12-24 14:29:10.804742,71
2021-12-24 14:29:10.804751,73
2021-12-24 14:29:10.804761,61
2021-12-24 14:29:10.804771,66
2021-12-24 14:29:10.804781,71
2021-12-24 14:29:10.804790,66
2021-12-24 14:29:10.804800,82
2021-12-24 14:29:10.804810,104
2021-12-24 14:29:10.804820,106
2021-12-24 14:29:10.804829,106
2021-12-24 14:29:10.804839,116
2021-12-24 14:29:10.804848,125
2021-12-24 14:29:10.804858,139
2021-12-24 14:29:10.804868,149
2021-12-24 14:29:10.804878,137
2021-12-24 14:29:10.804887,118
2021-12-24 14:29:10.804897,111
2021-12-24 14:29:10.804907,97
2021-12-24 14:29:11.120204,82
2021-12-24 14:29:11.120235,68
2021-12-24 14:29:11.120247,37
2021-12-24 14:29:11.120257,11
2021-12-24 14:29:11.120267,7
2021-12-24 14:29:11.120277,2
2021-12-24 14:29:11.120287,-7
2021-12-24 14:29:11.120297,-7
2021-12-24 14:29:11.120306,-4
2021-12-24 14:29:11.120316,0
2021-12-24 14:29:11.120326,-2
2021-12-24 14:29:11.120336,-2
2021-12-24 14:29:11.120346,4
2021-12-24 14:29:11.120356,14
2021-12-24 14:29:11.120365,21
2021-12-24 14:29:11.120375,23
2021-12-24 14:29:11.120385,28
2021-12-24 14:29:11.120395,37
2021-12-24 14:29:11.120404,37
2021-12-24 14:29:11.120414,33
2021-12-24 14:29:11.120424,33
2021-12-24 14:29:11.120434,30
2021-12-24 14:29:11.120443,30
2021-12-24 14:29:11.120453,40
2021-12-24 14:29:11.120463,33
2021-12-24 14:29:11.120473,23
2021-12-24 14:29:11.120482,37
2021-12-24 14:29:11.120492,40
2021-12-24 14:29:11.120502,30
2021-12-24 14:29:11.120511,33
2021-12-24 14:29:11.390179,33
2021-12-24 14:29:11.390208,21
2021-12-24 14:29:11.390222,14
2021-12-24 14:29:11.390234,9
2021-12-24 14:29:11.390244,7
2021-12-24 14:29:11.390251,26
2021-12-24 14:29:11.390257,49
2021-12-24 14:29:11.390263,52
2021-12-24 14:29:11.390270,44
2021-12-24 14:29:11.390276,30
2021-12-24 14:29:11.390282,7
2021-12-24 14:29:11.390289,-2
2021-12-24 14:29:11.390295,2
2021-12-24 14:29:11.390302,2
2021-12-24 14:29:11.390309,0
2021-12-24 14:29:11.390315,2
2021-12-24 14:29:11.390322,4
2021-12-24 14:29:11.390328,7
2021-12-24 14:29:11.390334,9
2021-12-24 14:29:11.390341,9
2021-12-24 14:29:11.390347,23
2021-12-24 14:29:11.390353,106
2021-12-24 14:29:11.390360,284
2021-12-24 14:29:11.390366,468
2021-12-24 14:29:11.390372,431
2021-12-24 14:29:11.390379,-134
2021-12-24 14:29:11.390385,-843
2021-12-24 14:29:11.390392,-708
2021-12-24 14:29:11.390398,-54
2021-12-24 14:29:11.390405,80
2021-12-24 14:29:11.480421,-40
2021-12-24 14:29:11.480441,52
2021-12-24 14:29:11.480449,97
2021-12-24 14:29:11.480456,40
2021-12-24 14:29:11.480462,54
2021-12-24 14:29:11.480468,87
2021-12-24 14:29:11.480475,75
2021-12-24 14:29:11.480481,71
2021-12-24 14:29:11.480487,82
2021-12-24 14:29:11.480494,75
2021-12-24 14:29:11.480500,71
2021-12-24 14:29:11.480507,75
2021-12-24 14:29:11.480513,80
2021-12-24 14:29:11.480519,85
2021-12-24 14:29:11.480526,87
2021-12-24 14:29:11.480537,89
2021-12-24 14:29:11.480543,101
2021-12-24 14:29:11.480562,106
2021-12-24 14:29:11.480567,108
2021-12-24 14:29:11.480572,127
2021-12-24 14:29:11.480577,139
2021-12-24 14:29:11.480582,137
2021-12-24 14:29:11.480588,139
2021-12-24 14:29:11.480593,146
2021-12-24 14:29:11.480598,144
2021-12-24 14:29:11.480603,134
2021-12-24 14:29:11.480608,123
2021-12-24 14:29:11.480613,108
2021-12-24 14:29:11.480618,99
2021-12-24 14:29:11.480626,85
2021-12-24 14:29:11.974353,54
2021-12-24 14:29:11.974374,30
2021-12-24 14:29:11.974382,23
2021-12-24 14:29:11.974389,9
2021-12-24 14:29:11.974395,4
2021-12-24 14:29:11.974401,7
2021-12-24 14:29:11.974408,2
2021-12-24 14:29:11.974414,4
2021-12-24 14:29:11.974420,14
2021-12-24 14:29:11.974426,16
2021-12-24 14:29:11.974433,16
2021-12-24 14:29:11.974439,21
2021-12-24 14:29:11.974445,35
2021-12-24 14:29:11.974452,44
2021-12-24 14:29:11.974458,42
2021-12-24 14:29:11.974465,40
2021-12-24 14:29:11.974471,44
2021-12-24 14:29:11.974477,49
2021-12-24 14:29:11.974484,47
2021-12-24 14:29:11.974490,44
2021-12-24 14:29:11.974496,44
2021-12-24 14:29:11.974503,44
2021-12-24 14:29:11.974509,44
2021-12-24 14:29:11.974515,40
2021-12-24 14:29:11.974521,35
2021-12-24 14:29:11.974528,30
2021-12-24 14:29:11.974534,28
2021-12-24 14:29:11.974540,23
2021-12-24 14:29:11.974547,23
2021-12-24 14:29:11.974553,26
2021-12-24 14:29:12.065392,16
2021-12-24 14:29:12.065423,11
2021-12-24 14:29:12.065435,21
2021-12-24 14:29:12.065445,14
2021-12-24 14:29:12.065455,-4
2021-12-24 14:29:12.065465,-4
2021-12-24 14:29:12.065475,11
2021-12-24 14:29:12.065484,18
2021-12-24 14:29:12.065494,30
2021-12-24 14:29:12.065504,54
2021-12-24 14:29:12.065514,56
2021-12-24 14:29:12.065523,37
2021-12-24 14:29:12.065533,16
2021-12-24 14:29:12.065543,4
2021-12-24 14:29:12.065553,4
2021-12-24 14:29:12.065562,7
2021-12-24 14:29:12.065572,11
2021-12-24 14:29:12.065582,16
2021-12-24 14:29:12.065592,16
2021-12-24 14:29:12.065601,21
2021-12-24 14:29:12.065611,26
2021-12-24 14:29:12.065621,18
2021-12-24 14:29:12.065630,33
2021-12-24 14:29:12.065640,99
2021-12-24 14:29:12.065650,234
2021-12-24 14:29:12.065660,419
2021-12-24 14:29:12.065670,502
2021-12-24 14:29:12.065679,134
2021-12-24 14:29:12.065689,-634
2021-12-24 14:29:12.065699,-854
2021-12-24 14:29:12.155881,-241
2021-12-24 14:29:12.155902,127
2021-12-24 14:29:12.155912,0
2021-12-24 14:29:12.155921,14
2021-12-24 14:29:12.155959,104
2021-12-24 14:29:12.155967,59
2021-12-24 14:29:12.155973,49
2021-12-24 14:29:12.155980,89
2021-12-24 14:29:12.155988,75
2021-12-24 14:29:12.155999,59
2021-12-24 14:29:12.156007,73
2021-12-24 14:29:12.156014,85
2021-12-24 14:29:12.156020,73
2021-12-24 14:29:12.156027,63
2021-12-24 14:29:12.156033,78
2021-12-24 14:29:12.156039,92
2021-12-24 14:29:12.156045,87
2021-12-24 14:29:12.156052,89
2021-12-24 14:29:12.156058,94
2021-12-24 14:29:12.156064,99
2021-12-24 14:29:12.156071,108
2021-12-24 14:29:12.156077,116
2021-12-24 14:29:12.156083,118
2021-12-24 14:29:12.156090,127
2021-12-24 14:29:12.156096,137
2021-12-24 14:29:12.156102,134
2021-12-24 14:29:12.156109,130
2021-12-24 14:29:12.156115,125
2021-12-24 14:29:12.156121,118
2021-12-24 14:29:12.156128,108
2021-12-24 14:29:12.380443,92
2021-12-24 14:29:12.380473,71
2021-12-24 14:29:12.380485,52
2021-12-24 14:29:12.380495,28
2021-12-24 14:29:12.380505,9
2021-12-24 14:29:12.380515,-2
2021-12-24 14:29:12.380525,-14
2021-12-24 14:29:12.380535,-18
2021-12-24 14:29:12.380545,-14
2021-12-24 14:29:12.380555,-16
2021-12-24 14:29:12.380565,-14
2021-12-24 14:29:12.380576,0
2021-12-24 14:29:12.380586,-2
2021-12-24 14:29:12.380596,0
2021-12-24 14:29:12.380606,16
2021-12-24 14:29:12.380616,23
2021-12-24 14:29:12.380626,21
2021-12-24 14:29:12.380636,23
2021-12-24 14:29:12.380646,33
2021-12-24 14:29:12.380655,40
2021-12-24 14:29:12.380665,37
2021-12-24 14:29:12.380675,28
2021-12-24 14:29:12.380685,28
2021-12-24 14:29:12.380695,30
2021-12-24 14:29:12.380705,26
2021-12-24 14:29:12.380715,14
2021-12-24 14:29:12.380725,16
2021-12-24 14:29:12.380734,18
2021-12-24 14:29:12.380744,11
2021-12-24 14:29:12.380754,11
2021-12-24 14:29:12.694660,18
2021-12-24 14:29:12.694681,9
2021-12-24 14:29:12.694689,-2
2021-12-24 14:29:12.694695,2
2021-12-24 14:29:12.694702,23
2021-12-24 14:29:12.694708,42
2021-12-24 14:29:12.694714,44
2021-12-24 14:29:12.694721,44
2021-12-24 14:29:12.694727,37
2021-12-24 14:29:12.694733,14
2021-12-24 14:29:12.694740,-4
2021-12-24 14:29:12.694746,2
2021-12-24 14:29:12.694752,11
2021-12-24 14:29:12.694758,9
2021-12-24 14:29:12.694765,14
2021-12-24 14:29:12.694771,23
2021-12-24 14:29:12.694777,23
2021-12-24 14:29:12.694784,18
2021-12-24 14:29:12.694790,26
2021-12-24 14:29:12.694796,52
2021-12-24 14:29:12.694802,125
2021-12-24 14:29:12.694809,279
2021-12-24 14:29:12.694815,468
2021-12-24 14:29:12.694821,494
2021-12-24 14:29:12.694828,11
2021-12-24 14:29:12.694834,-755
2021-12-24 14:29:12.694840,-800
2021-12-24 14:29:12.694847,-149
2021-12-24 14:29:12.694853,120
2021-12-24 14:29:12.694859,7
2021-12-24 14:29:12.875183,59
2021-12-24 14:29:12.875213,127
2021-12-24 14:29:12.875224,82
2021-12-24 14:29:12.875234,80
2021-12-24 14:29:12.875244,101
2021-12-24 14:29:12.875254,89
2021-12-24 14:29:12.875263,85
2021-12-24 14:29:12.875273,87
2021-12-24 14:29:12.875283,85
2021-12-24 14:29:12.875293,97
2021-12-24 14:29:12.875302,97
2021-12-24 14:29:12.875312,87
2021-12-24 14:29:12.875322,106
2021-12-24 14:29:12.875332,118
2021-12-24 14:29:12.875341,113
2021-12-24 14:29:12.875351,123
2021-12-24 14:29:12.875361,132
2021-12-24 14:29:12.875371,134
2021-12-24 14:29:12.875381,153
2021-12-24 14:29:12.875390,175
2021-12-24 14:29:12.875400,184
2021-12-24 14:29:12.875410,189
2021-12-24 14:29:12.875419,194
2021-12-24 14:29:12.875429,194
2021-12-24 14:29:12.875439,189
2021-12-24 14:29:12.875448,177
2021-12-24 14:29:12.875458,165
2021-12-24 14:29:12.875468,151
2021-12-24 14:29:12.875477,125
2021-12-24 14:29:12.875487,87
2021-12-24 14:29:13.100907,49
2021-12-24 14:29:13.100937,23
2021-12-24 14:29:13.100949,9
2021-12-24 14:29:13.100959,9
2021-12-24 14:29:13.100968,4
2021-12-24 14:29:13.100978,-4
2021-12-24 14:29:13.100988,-7
2021-12-24 14:29:13.100998,0
2021-12-24 14:29:13.101008,11
2021-12-24 14:29:13.101018,11
2021-12-24 14:29:13.101028,4
2021-12-24 14:29:13.101037,18
2021-12-24 14:29:13.101047,33
2021-12-24 14:29:13.101057,23
2021-12-24 14:29:13.101067,21
2021-12-24 14:29:13.101076,30
2021-12-24 14:29:13.101086,30
2021-12-24 14:29:13.101096,28
2021-12-24 14:29:13.101106,35
2021-12-24 14:29:13.101115,37
2021-12-24 14:29:13.101125,33
2021-12-24 14:29:13.101135,35
2021-12-24 14:29:13.101144,35
2021-12-24 14:29:13.101154,26
2021-12-24 14:29:13.101164,26
2021-12-24 14:29:13.101174,37
2021-12-24 14:29:13.101184,40
2021-12-24 14:29:13.101193,44
2021-12-24 14:29:13.101207,59
2021-12-24 14:29:13.101217,66
2021-12-24 14:29:13.370320,56
2021-12-24 14:29:13.370351,40
2021-12-24 14:29:13.370363,26
2021-12-24 14:29:13.370373,21
2021-12-24 14:29:13.370383,16
2021-12-24 14:29:13.370393,21
2021-12-24 14:29:13.370403,28
2021-12-24 14:29:13.370413,28
2021-12-24 14:29:13.370423,26
2021-12-24 14:29:13.370433,28
2021-12-24 14:29:13.370442,35
2021-12-24 14:29:13.370452,47
2021-12-24 14:29:13.370462,80
2021-12-24 14:29:13.370472,184
2021-12-24 14:29:13.370482,359
2021-12-24 14:29:13.370492,490
2021-12-24 14:29:13.370502,286
2021-12-24 14:29:13.370512,-407
2021-12-24 14:29:13.370522,-871
2021-12-24 14:29:13.370531,-440
2021-12-24 14:29:13.370541,80
2021-12-24 14:29:13.370551,63
2021-12-24 14:29:13.370561,18
2021-12-24 14:29:13.370571,108
2021-12-24 14:29:13.370581,101
2021-12-24 14:29:13.370591,73
2021-12-24 14:29:13.370601,97
2021-12-24 14:29:13.370610,99
2021-12-24 14:29:13.370620,92
2021-12-24 14:29:13.370630,106
2021-12-24 14:29:13.550953,111
2021-12-24 14:29:13.550984,104
2021-12-24 14:29:13.550996,106
2021-12-24 14:29:13.551006,106
2021-12-24 14:29:13.551016,104
2021-12-24 14:29:13.551026,111
2021-12-24 14:29:13.551036,125
2021-12-24 14:29:13.551045,132
2021-12-24 14:29:13.551055,130
2021-12-24 14:29:13.551065,134
2021-12-24 14:29:13.551075,151
2021-12-24 14:29:13.551084,165
2021-12-24 14:29:13.551094,172
2021-12-24 14:29:13.551104,187
2021-12-24 14:29:13.551114,191
2021-12-24 14:29:13.551123,184
2021-12-24 14:29:13.551133,175
2021-12-24 14:29:13.551143,170
2021-12-24 14:29:13.551153,158
2021-12-24 14:29:13.551162,142
2021-12-24 14:29:13.551172,118
2021-12-24 14:29:13.551182,89
2021-12-24 14:29:13.551192,59
2021-12-24 14:29:13.551201,30
2021-12-24 14:29:13.551211,16
2021-12-24 14:29:13.551221,7
2021-12-24 14:29:13.551231,0
2021-12-24 14:29:13.551241,0
2021-12-24 14:29:13.551250,-7
2021-12-24 14:29:13.551260,-7
2021-12-24 14:29:13.865467,7
2021-12-24 14:29:13.865497,7
2021-12-24 14:29:13.865509,4
2021-12-24 14:29:13.865520,18
2021-12-24 14:29:13.865530,28
2021-12-24 14:29:13.865539,23
2021-12-24 14:29:13.865549,16
2021-12-24 14:29:13.865559,14
2021-12-24 14:29:13.865568,21
2021-12-24 14:29:13.865578,28
2021-12-24 14:29:13.865588,26
2021-12-24 14:29:13.865598,21
2021-12-24 14:29:13.865607,21
2021-12-24 14:29:13.865617,18
2021-12-24 14:29:13.865627,11
2021-12-24 14:29:13.865636,9
2021-12-24 14:29:13.865646,11
2021-12-24 14:29:13.865656,16
2021-12-24 14:29:13.865665,33
2021-12-24 14:29:13.865675,47
2021-12-24 14:29:13.865685,42
2021-12-24 14:29:13.865694,28
2021-12-24 14:29:13.865704,14
2021-12-24 14:29:13.865714,4
2021-12-24 14:29:13.865723,2
2021-12-24 14:29:13.865733,7
2021-12-24 14:29:13.865743,7
2021-12-24 14:29:13.865752,9
2021-12-24 14:29:13.865762,11
2021-12-24 14:29:13.865772,18
2021-12-24 14:29:14.000437,23
2021-12-24 14:29:14.000458,21
2021-12-24 14:29:14.000466,30
2021-12-24 14:29:14.000472,104
2021-12-24 14:29:14.000479,253
2021-12-24 14:29:14.000485,426
2021-12-24 14:29:14.000492,435
2021-12-24 14:29:14.000498,-33
2021-12-24 14:29:14.000505,-738
2021-12-24 14:29:14.000511,-743
2021-12-24 14:29:14.000518,-118
2021-12-24 14:29:14.000524,120
2021-12-24 14:29:14.000530,4
2021-12-24 14:29:14.000537,54
2021-12-24 14:29:14.000543,118
2021-12-24 14:29:14.000550,73
2021-12-24 14:29:14.000556,73
2021-12-24 14:29:14.000563,99
2021-12-24 14:29:14.000569,82
2021-12-24 14:29:14.000575,75
2021-12-24 14:29:14.000582,87
2021-12-24 14:29:14.000588,89
2021-12-24 14:29:14.000595,85
2021-12-24 14:29:14.000601,82
2021-12-24 14:29:14.000608,87
2021-12-24 14:29:14.000614,89
2021-12-24 14:29:14.000621,94
2021-12-24 14:29:14.000627,106
2021-12-24 14:29:14.000633,120
2021-12-24 14:29:14.000640,120
2021-12-24 14:29:14.270539,125
2021-12-24 14:29:14.270560,134
2021-12-24 14:29:14.270567,149
2021-12-24 14:29:14.270572,156
2021-12-24 14:29:14.270577,163
2021-12-24 14:29:14.270583,163
2021-12-24 14:29:14.270588,151
2021-12-24 14:29:14.270593,139
2021-12-24 14:29:14.270598,130
2021-12-24 14:29:14.270603,118
2021-12-24 14:29:14.270608,106
2021-12-24 14:29:14.270613,85
2021-12-24 14:29:14.270618,47
2021-12-24 14:29:14.270623,11
2021-12-24 14:29:14.270629,-2
2021-12-24 14:29:14.270634,-9
2021-12-24 14:29:14.270639,-14
2021-12-24 14:29:14.270644,-14
2021-12-24 14:29:14.270649,-16
2021-12-24 14:29:14.270654,-7
2021-12-24 14:29:14.270659,0
2021-12-24 14:29:14.270664,-2
2021-12-24 14:29:14.270669,2
2021-12-24 14:29:14.270674,7
2021-12-24 14:29:14.270680,2
2021-12-24 14:29:14.270685,9
2021-12-24 14:29:14.270690,16
2021-12-24 14:29:14.270695,7
2021-12-24 14:29:14.270700,0
2021-12-24 14:29:14.270705,9
2021-12-24 14:29:14.495424,14
2021-12-24 14:29:14.495445,11
2021-12-24 14:29:14.495453,2
2021-12-24 14:29:14.495459,0
2021-12-24 14:29:14.495466,4
2021-12-24 14:29:14.495473,9
2021-12-24 14:29:14.495479,7
2021-12-24 14:29:14.495486,2
2021-12-24 14:29:14.495492,-7
2021-12-24 14:29:14.495499,-14
2021-12-24 14:29:14.495505,-9
2021-12-24 14:29:14.495512,2
2021-12-24 14:29:14.495518,18
2021-12-24 14:29:14.495525,33
2021-12-24 14:29:14.495531,33
2021-12-24 14:29:14.495537,33
2021-12-24 14:29:14.495544,28
2021-12-24 14:29:14.495550,2
2021-12-24 14:29:14.495557,-11
2021-12-24 14:29:14.495563,-2
2021-12-24 14:29:14.495569,4
2021-12-24 14:29:14.495576,2
2021-12-24 14:29:14.495582,4
2021-12-24 14:29:14.495588,9
2021-12-24 14:29:14.495595,14
2021-12-24 14:29:14.495601,21
2021-12-24 14:29:14.495608,30
2021-12-24 14:29:14.495614,68
2021-12-24 14:29:14.495621,189
2021-12-24 14:29:14.495627,378
2021-12-24 14:29:14.765323,502
2021-12-24 14:29:14.765388,281
2021-12-24 14:29:14.765430,-428
2021-12-24 14:29:14.765445,-902
2021-12-24 14:29:14.765456,-461
2021-12-24 14:29:14.765467,75
2021-12-24 14:29:14.765476,54
2021-12-24 14:29:14.765487,2
2021-12-24 14:29:14.765533,104
2021-12-24 14:29:14.765546,94
2021-12-24 14:29:14.765558,54
2021-12-24 14:29:14.765569,80
2021-12-24 14:29:14.765579,92
2021-12-24 14:29:14.765608,75
2021-12-24 14:29:14.765618,73
2021-12-24 14:29:14.765624,78
2021-12-24 14:29:14.765630,75
2021-12-24 14:29:14.765637,75
2021-12-24 14:29:14.765643,78
2021-12-24 14:29:14.765649,82
2021-12-24 14:29:14.765656,89
2021-12-24 14:29:14.765662,94
2021-12-24 14:29:14.765668,97
2021-12-24 14:29:14.765675,106
2021-12-24 14:29:14.765681,118
2021-12-24 14:29:14.765687,125
2021-12-24 14:29:14.765694,137
2021-12-24 14:29:14.765700,146
2021-12-24 14:29:14.765706,146
2021-12-24 14:29:14.765713,144
2021-12-24 14:29:15.079355,146
2021-12-24 14:29:15.079376,137
2021-12-24 14:29:15.079384,118
2021-12-24 14:29:15.079390,104
2021-12-24 14:29:15.079396,99
2021-12-24 14:29:15.079419,87
2021-12-24 14:29:15.079429,61
2021-12-24 14:29:15.079439,35
2021-12-24 14:29:15.079449,26
2021-12-24 14:29:15.079458,14
2021-12-24 14:29:15.079468,-2
2021-12-24 14:29:15.079478,-7
2021-12-24 14:29:15.079488,-2
2021-12-24 14:29:15.079497,2
2021-12-24 14:29:15.079507,2
2021-12-24 14:29:15.079517,2
2021-12-24 14:29:15.079526,7
2021-12-24 14:29:15.079536,11
2021-12-24 14:29:15.079546,14
2021-12-24 14:29:15.079555,21
2021-12-24 14:29:15.079565,18
2021-12-24 14:29:15.079575,9
2021-12-24 14:29:15.079584,16
2021-12-24 14:29:15.079598,26
2021-12-24 14:29:15.079608,21
2021-12-24 14:29:15.079618,14
2021-12-24 14:29:15.079628,18
2021-12-24 14:29:15.079637,23
2021-12-24 14:29:15.079647,16
2021-12-24 14:29:15.079657,11
2021-12-24 14:29:15.350431,16
2021-12-24 14:29:15.350450,18
2021-12-24 14:29:15.350457,14
2021-12-24 14:29:15.350464,14
2021-12-24 14:29:15.350470,9
2021-12-24 14:29:15.350477,2
2021-12-24 14:29:15.350483,7
2021-12-24 14:29:15.350489,23
2021-12-24 14:29:15.350496,40
2021-12-24 14:29:15.350502,52
2021-12-24 14:29:15.350508,54
2021-12-24 14:29:15.350515,44
2021-12-24 14:29:15.350521,28
2021-12-24 14:29:15.350527,7
2021-12-24 14:29:15.350534,4
2021-12-24 14:29:15.350540,14
2021-12-24 14:29:15.350546,9
2021-12-24 14:29:15.350553,4
2021-12-24 14:29:15.350559,7
2021-12-24 14:29:15.350566,16
2021-12-24 14:29:15.350572,23
2021-12-24 14:29:15.350578,18
2021-12-24 14:29:15.350584,30
2021-12-24 14:29:15.350591,92
2021-12-24 14:29:15.350597,236
2021-12-24 14:29:15.350604,426
2021-12-24 14:29:15.350610,485
2021-12-24 14:29:15.350616,101
2021-12-24 14:29:15.350623,-653
2021-12-24 14:29:15.350629,-866
2021-12-24 14:29:15.441181,-265
2021-12-24 14:29:15.441212,116
2021-12-24 14:29:15.441225,9
2021-12-24 14:29:15.441235,23
2021-12-24 14:29:15.441245,113
2021-12-24 14:29:15.441255,68
2021-12-24 14:29:15.441264,52
2021-12-24 14:29:15.441274,87
2021-12-24 14:29:15.441284,78
2021-12-24 14:29:15.441293,61
2021-12-24 14:29:15.441303,78
2021-12-24 14:29:15.441313,85
2021-12-24 14:29:15.441322,78
2021-12-24 14:29:15.441332,82
2021-12-24 14:29:15.441341,85
2021-12-24 14:29:15.441351,82
2021-12-24 14:29:15.441361,92
2021-12-24 14:29:15.441370,101
2021-12-24 14:29:15.441380,106
2021-12-24 14:29:15.441390,113
2021-12-24 14:29:15.441399,120
2021-12-24 14:29:15.441409,123
2021-12-24 14:29:15.441419,134
2021-12-24 14:29:15.441428,153
2021-12-24 14:29:15.441438,156
2021-12-24 14:29:15.441448,156
2021-12-24 14:29:15.441457,158
2021-12-24 14:29:15.441467,144
2021-12-24 14:29:15.441477,123
2021-12-24 14:29:15.441486,120
2021-12-24 14:29:15.665725,116
2021-12-24 14:29:15.665755,94
2021-12-24 14:29:15.665767,61
2021-12-24 14:29:15.665777,40
2021-12-24 14:29:15.665787,30
2021-12-24 14:29:15.665797,18
2021-12-24 14:29:15.665806,4
2021-12-24 14:29:15.665816,-2
2021-12-24 14:29:15.665826,0
2021-12-24 14:29:15.665836,4
2021-12-24 14:29:15.665846,11
2021-12-24 14:29:15.665856,18
2021-12-24 14:29:15.665865,21
2021-12-24 14:29:15.665875,21
2021-12-24 14:29:15.665885,26
2021-12-24 14:29:15.665895,23
2021-12-24 14:29:15.665904,23
2021-12-24 14:29:15.665914,28
2021-12-24 14:29:15.665924,33
2021-12-24 14:29:15.665934,37
2021-12-24 14:29:15.665943,30
2021-12-24 14:29:15.665953,23
2021-12-24 14:29:15.665963,23
2021-12-24 14:29:15.665973,16
2021-12-24 14:29:15.665982,11
2021-12-24 14:29:15.665992,11
2021-12-24 14:29:15.666003,9
2021-12-24 14:29:15.666012,9
2021-12-24 14:29:15.666022,7
2021-12-24 14:29:15.666032,7
2021-12-24 14:29:15.935358,9
2021-12-24 14:29:15.935388,11
2021-12-24 14:29:15.935399,9
2021-12-24 14:29:15.935409,14
2021-12-24 14:29:15.935419,21
2021-12-24 14:29:15.935429,14
2021-12-24 14:29:15.935438,4
2021-12-24 14:29:15.935448,2
2021-12-24 14:29:15.935458,2
2021-12-24 14:29:15.935468,2
2021-12-24 14:29:15.935477,9
2021-12-24 14:29:15.935487,26
2021-12-24 14:29:15.935497,40
2021-12-24 14:29:15.935506,44
2021-12-24 14:29:15.935516,37
2021-12-24 14:29:15.935526,21
2021-12-24 14:29:15.935536,4
2021-12-24 14:29:15.935545,0
2021-12-24 14:29:15.935555,2
2021-12-24 14:29:15.935565,4
2021-12-24 14:29:15.935575,9
2021-12-24 14:29:15.935585,14
2021-12-24 14:29:15.935594,14
2021-12-24 14:29:15.935604,16
2021-12-24 14:29:15.935614,21
2021-12-24 14:29:15.935624,37
2021-12-24 14:29:15.935633,85
2021-12-24 14:29:15.935643,208
2021-12-24 14:29:15.935653,402
2021-12-24 14:29:15.935663,499
2021-12-24 14:29:16.160390,172
2021-12-24 14:29:16.160421,-577
2021-12-24 14:29:16.160436,-866
2021-12-24 14:29:16.160447,-296
2021-12-24 14:29:16.160459,118
2021-12-24 14:29:16.160471,14
2021-12-24 14:29:16.160482,14
2021-12-24 14:29:16.160492,127
2021-12-24 14:29:16.160503,97
2021-12-24 14:29:16.160514,61
2021-12-24 14:29:16.160525,94
2021-12-24 14:29:16.160536,92
2021-12-24 14:29:16.160548,73
2021-12-24 14:29:16.160559,80
2021-12-24 14:29:16.160571,80
2021-12-24 14:29:16.160583,73
2021-12-24 14:29:16.160595,80
2021-12-24 14:29:16.160606,87
2021-12-24 14:29:16.160617,87
2021-12-24 14:29:16.160629,89
2021-12-24 14:29:16.160641,97
2021-12-24 14:29:16.160653,104
2021-12-24 14:29:16.160666,111
2021-12-24 14:29:16.160676,116
2021-12-24 14:29:16.160687,125
2021-12-24 14:29:16.160698,130
2021-12-24 14:29:16.160709,132
2021-12-24 14:29:16.160721,139
2021-12-24 14:29:16.160733,149
2021-12-24 14:29:16.160745,146
2021-12-24 14:29:16.295733,132
2021-12-24 14:29:16.295754,123
2021-12-24 14:29:16.295762,116
2021-12-24 14:29:16.295769,101
2021-12-24 14:29:16.295775,87
2021-12-24 14:29:16.295781,68
2021-12-24 14:29:16.295788,52
2021-12-24 14:29:16.295794,35
2021-12-24 14:29:16.295800,16
2021-12-24 14:29:16.295806,9
2021-12-24 14:29:16.295813,4
2021-12-24 14:29:16.295819,-7
2021-12-24 14:29:16.295825,0
2021-12-24 14:29:16.295831,11
2021-12-24 14:29:16.295838,11
2021-12-24 14:29:16.295845,14
2021-12-24 14:29:16.295851,18
2021-12-24 14:29:16.295858,26
2021-12-24 14:29:16.295864,33
2021-12-24 14:29:16.295870,28
2021-12-24 14:29:16.295876,16
2021-12-24 14:29:16.295882,18
2021-12-24 14:29:16.295889,23
2021-12-24 14:29:16.295895,28
2021-12-24 14:29:16.295901,30
2021-12-24 14:29:16.295907,28
2021-12-24 14:29:16.295914,23
2021-12-24 14:29:16.295920,14
2021-12-24 14:29:16.295926,9
2021-12-24 14:29:16.295932,11
2021-12-24 14:29:16.521082,7
2021-12-24 14:29:16.521112,9
2021-12-24 14:29:16.521123,16
2021-12-24 14:29:16.521134,4
2021-12-24 14:29:16.521143,4
2021-12-24 14:29:16.521153,11
2021-12-24 14:29:16.521163,9
2021-12-24 14:29:16.521173,9
2021-12-24 14:29:16.521182,14
2021-12-24 14:29:16.521192,7
2021-12-24 14:29:16.521202,2
2021-12-24 14:29:16.521212,2
2021-12-24 14:29:16.521222,-2
2021-12-24 14:29:16.521232,7
2021-12-24 14:29:16.521241,16
2021-12-24 14:29:16.521251,14
2021-12-24 14:29:16.521261,11
2021-12-24 14:29:16.521270,7
2021-12-24 14:29:16.521280,0
2021-12-24 14:29:16.521290,16
2021-12-24 14:29:16.521300,44
2021-12-24 14:29:16.521309,59
2021-12-24 14:29:16.521319,49
2021-12-24 14:29:16.521329,35
2021-12-24 14:29:16.521338,26
2021-12-24 14:29:16.521348,21
2021-12-24 14:29:16.521358,21
2021-12-24 14:29:16.521368,23
2021-12-24 14:29:16.521377,23
2021-12-24 14:29:16.521387,21
2021-12-24 14:29:16.835656,21
2021-12-24 14:29:16.835685,28
2021-12-24 14:29:16.835697,40
2021-12-24 14:29:16.835707,40
2021-12-24 14:29:16.835717,52
2021-12-24 14:29:16.835727,116
2021-12-24 14:29:16.835737,253
2021-12-24 14:29:16.835746,426
2021-12-24 14:29:16.835756,476
2021-12-24 14:29:16.835766,97
2021-12-24 14:29:16.835776,-639
2021-12-24 14:29:16.835785,-809
2021-12-24 14:29:16.835795,-189
2021-12-24 14:29:16.835805,156
2021-12-24 14:29:16.835815,21
2021-12-24 14:29:16.835824,35
2021-12-24 14:29:16.835834,132
2021-12-24 14:29:16.835844,97
2021-12-24 14:29:16.835859,78
2021-12-24 14:29:16.835869,116
2021-12-24 14:29:16.835892,118
2021-12-24 14:29:16.835898,94
2021-12-24 14:29:16.835904,97
2021-12-24 14:29:16.835911,104
2021-12-24 14:29:16.835917,99
2021-12-24 14:29:16.835923,101
2021-12-24 14:29:16.835929,113
2021-12-24 14:29:16.835936,118
2021-12-24 14:29:16.835942,118
2021-12-24 14:29:16.835948,123
2021-12-24 14:29:17.059367,125
2021-12-24 14:29:17.059398,125
2021-12-24 14:29:17.059409,127
2021-12-24 14:29:17.059420,132
2021-12-24 14:29:17.059429,134
2021-12-24 14:29:17.059439,146
2021-12-24 14:29:17.059449,158
2021-12-24 14:29:17.059458,161
2021-12-24 14:29:17.059468,149
2021-12-24 14:29:17.059478,127
2021-12-24 14:29:17.059488,104
2021-12-24 14:29:17.059497,94
2021-12-24 14:29:17.059507,92
2021-12-24 14:29:17.059517,80
2021-12-24 14:29:17.059527,56
2021-12-24 14:29:17.059536,28
2021-12-24 14:29:17.059546,14
2021-12-24 14:29:17.059569,9
2021-12-24 14:29:17.059579,0
2021-12-24 14:29:17.059589,-7
2021-12-24 14:29:17.059599,-9
2021-12-24 14:29:17.059609,-4
2021-12-24 14:29:17.059619,0
2021-12-24 14:29:17.059628,4
2021-12-24 14:29:17.059638,9
2021-12-24 14:29:17.059648,18
2021-12-24 14:29:17.059658,28
2021-12-24 14:29:17.059668,33
2021-12-24 14:29:17.059678,33
2021-12-24 14:29:17.059687,35
2021-12-24 14:29:17.241073,33
2021-12-24 14:29:17.241093,28
2021-12-24 14:29:17.241100,35
2021-12-24 14:29:17.241107,42
2021-12-24 14:29:17.241113,40
2021-12-24 14:29:17.241120,35
2021-12-24 14:29:17.241126,40
2021-12-24 14:29:17.241133,42
2021-12-24 14:29:17.241139,35
2021-12-24 14:29:17.241145,26
2021-12-24 14:29:17.241152,26
2021-12-24 14:29:17.241158,33
2021-12-24 14:29:17.241164,42
2021-12-24 14:29:17.241170,40
2021-12-24 14:29:17.241177,26
2021-12-24 14:29:17.241183,18
2021-12-24 14:29:17.241189,23
2021-12-24 14:29:17.241196,23
2021-12-24 14:29:17.241202,26
2021-12-24 14:29:17.241208,30
2021-12-24 14:29:17.241215,28
2021-12-24 14:29:17.241221,26
2021-12-24 14:29:17.241227,26
2021-12-24 14:29:17.241234,23
2021-12-24 14:29:17.241240,26
2021-12-24 14:29:17.241246,37
2021-12-24 14:29:17.241252,49
2021-12-24 14:29:17.241259,68
2021-12-24 14:29:17.241265,82
2021-12-24 14:29:17.241271,73
2021-12-24 14:29:17.555445,49
2021-12-24 14:29:17.555474,28
2021-12-24 14:29:17.555486,21
2021-12-24 14:29:17.555496,21
2021-12-24 14:29:17.555506,18
2021-12-24 14:29:17.555516,18
2021-12-24 14:29:17.555526,16
2021-12-24 14:29:17.555535,14
2021-12-24 14:29:17.555545,23
2021-12-24 14:29:17.555555,28
2021-12-24 14:29:17.555565,28
2021-12-24 14:29:17.555574,66
2021-12-24 14:29:17.555584,175
2021-12-24 14:29:17.555594,355
2021-12-24 14:29:17.555604,492
2021-12-24 14:29:17.555614,305
2021-12-24 14:29:17.555624,-397
2021-12-24 14:29:17.555633,-916
2021-12-24 14:29:17.555643,-509
2021-12-24 14:29:17.555653,61
2021-12-24 14:29:17.555663,61
2021-12-24 14:29:17.555673,0
2021-12-24 14:29:17.555682,101
2021-12-24 14:29:17.555692,94
2021-12-24 14:29:17.555702,52
2021-12-24 14:29:17.555711,82
2021-12-24 14:29:17.555721,92
2021-12-24 14:29:17.555731,73
2021-12-24 14:29:17.555740,87
2021-12-24 14:29:17.555750,99
2021-12-24 14:29:17.735580,87
2021-12-24 14:29:17.735610,80
2021-12-24 14:29:17.735622,80
2021-12-24 14:29:17.735632,82
2021-12-24 14:29:17.735642,92
2021-12-24 14:29:17.735652,97
2021-12-24 14:29:17.735661,94
2021-12-24 14:29:17.735671,104
2021-12-24 14:29:17.735681,111
2021-12-24 14:29:17.735690,118
2021-12-24 14:29:17.735700,127
2021-12-24 14:29:17.735710,139
2021-12-24 14:29:17.735719,142
2021-12-24 14:29:17.735729,142
2021-12-24 14:29:17.735739,151
2021-12-24 14:29:17.735748,156
2021-12-24 14:29:17.735758,142
2021-12-24 14:29:17.735768,120
2021-12-24 14:29:17.735777,104
2021-12-24 14:29:17.735787,92
2021-12-24 14:29:17.735796,80
2021-12-24 14:29:17.735806,52
2021-12-24 14:29:17.735816,21
2021-12-24 14:29:17.735825,0
2021-12-24 14:29:17.735835,-4
2021-12-24 14:29:17.735845,-2
2021-12-24 14:29:17.735855,-4
2021-12-24 14:29:17.735864,-9
2021-12-24 14:29:17.735874,-2
2021-12-24 14:29:17.735884,2
2021-12-24 14:29:18.049558,2
2021-12-24 14:29:18.049583,9
2021-12-24 14:29:18.049590,18
2021-12-24 14:29:18.049596,18
2021-12-24 14:29:18.049603,16
2021-12-24 14:29:18.049609,21
2021-12-24 14:29:18.049615,28
2021-12-24 14:29:18.049622,40
2021-12-24 14:29:18.049628,37
2021-12-24 14:29:18.049634,23
2021-12-24 14:29:18.049640,21
2021-12-24 14:29:18.049646,26
2021-12-24 14:29:18.049653,28
2021-12-24 14:29:18.049659,33
2021-12-24 14:29:18.049665,35
2021-12-24 14:29:18.049671,28
2021-12-24 14:29:18.049678,23
2021-12-24 14:29:18.049684,21
2021-12-24 14:29:18.049690,21
2021-12-24 14:29:18.049696,26
2021-12-24 14:29:18.049702,33
2021-12-24 14:29:18.049709,28
2021-12-24 14:29:18.049715,18
2021-12-24 14:29:18.049721,11
2021-12-24 14:29:18.049727,18
2021-12-24 14:29:18.049734,40
2021-12-24 14:29:18.049740,68
2021-12-24 14:29:18.049746,71
2021-12-24 14:29:18.049752,61
2021-12-24 14:29:18.049758,66
2021-12-24 14:29:18.185655,59
2021-12-24 14:29:18.185678,35
2021-12-24 14:29:18.185686,30
2021-12-24 14:29:18.185692,37
2021-12-24 14:29:18.185699,33
2021-12-24 14:29:18.185705,23
2021-12-24 14:29:18.185711,37
2021-12-24 14:29:18.185718,56
2021-12-24 14:29:18.185724,49
2021-12-24 14:29:18.185730,52
2021-12-24 14:29:18.185737,87
2021-12-24 14:29:18.185743,161
2021-12-24 14:29:18.185750,303
2021-12-24 14:29:18.185756,490
2021-12-24 14:29:18.185762,509
2021-12-24 14:29:18.185769,16
2021-12-24 14:29:18.185775,-753
2021-12-24 14:29:18.185781,-800
2021-12-24 14:29:18.185788,-156
2021-12-24 14:29:18.185794,120
2021-12-24 14:29:18.185801,18
2021-12-24 14:29:18.185807,66
2021-12-24 14:29:18.185813,132
2021-12-24 14:29:18.185820,85
2021-12-24 14:29:18.185826,75
2021-12-24 14:29:18.185832,104
2021-12-24 14:29:18.185839,99
2021-12-24 14:29:18.185845,87
2021-12-24 14:29:18.185852,89
2021-12-24 14:29:18.185858,89
2021-12-24 14:29:18.454708,94
2021-12-24 14:29:18.454729,97
2021-12-24 14:29:18.454737,94
2021-12-24 14:29:18.454743,99
2021-12-24 14:29:18.454750,108
2021-12-24 14:29:18.454757,116
2021-12-24 14:29:18.454763,120
2021-12-24 14:29:18.454770,132
2021-12-24 14:29:18.454776,144
2021-12-24 14:29:18.454783,144
2021-12-24 14:29:18.454789,146
2021-12-24 14:29:18.454795,163
2021-12-24 14:29:18.454802,182
2021-12-24 14:29:18.454808,184
2021-12-24 14:29:18.454815,179
2021-12-24 14:29:18.454821,172
2021-12-24 14:29:18.454827,158
2021-12-24 14:29:18.454834,139
2021-12-24 14:29:18.454840,123
2021-12-24 14:29:18.454847,104
2021-12-24 14:29:18.454853,82
2021-12-24 14:29:18.454859,54
2021-12-24 14:29:18.454866,21
2021-12-24 14:29:18.454872,-4
2021-12-24 14:29:18.454879,-14
2021-12-24 14:29:18.454885,-4
2021-12-24 14:29:18.454891,-2
2021-12-24 14:29:18.454898,-14
2021-12-24 14:29:18.454904,-11
2021-12-24 14:29:18.454911,4
2021-12-24 14:29:18.725744,14
2021-12-24 14:29:18.725776,14
2021-12-24 14:29:18.725788,18
2021-12-24 14:29:18.725798,26
2021-12-24 14:29:18.725808,30
2021-12-24 14:29:18.725818,40
2021-12-24 14:29:18.725827,47
2021-12-24 14:29:18.725837,40
2021-12-24 14:29:18.725847,40
2021-12-24 14:29:18.725856,49
2021-12-24 14:29:18.725866,40
2021-12-24 14:29:18.725876,33
2021-12-24 14:29:18.725886,44
2021-12-24 14:29:18.725896,56
2021-12-24 14:29:18.725905,54
2021-12-24 14:29:18.725915,44
2021-12-24 14:29:18.725925,30
2021-12-24 14:29:18.725935,21
2021-12-24 14:29:18.725945,30
2021-12-24 14:29:18.725955,54
2021-12-24 14:29:18.725964,78
2021-12-24 14:29:18.725974,80
2021-12-24 14:29:18.725984,66
2021-12-24 14:29:18.725994,47
2021-12-24 14:29:18.726003,35
2021-12-24 14:29:18.726013,28
2021-12-24 14:29:18.726023,21
2021-12-24 14:29:18.726033,26
2021-12-24 14:29:18.726042,37
2021-12-24 14:29:18.726052,40
2021-12-24 14:29:18.861109,35
2021-12-24 14:29:18.861170,37
2021-12-24 14:29:18.861189,49
2021-12-24 14:29:18.861199,52
2021-12-24 14:29:18.861209,89
2021-12-24 14:29:18.861219,210
2021-12-24 14:29:18.861229,390
2021-12-24 14:29:18.861239,516
2021-12-24 14:29:18.861249,307
2021-12-24 14:29:18.861265,-400
2021-12-24 14:29:18.861276,-871
2021-12-24 14:29:18.861286,-442
2021-12-24 14:29:18.861295,80
2021-12-24 14:29:18.861305,68
2021-12-24 14:29:18.861315,18
2021-12-24 14:29:18.861325,101
2021-12-24 14:29:18.861334,97
2021-12-24 14:29:18.861344,63
2021-12-24 14:29:18.861354,92
2021-12-24 14:29:18.861364,97
2021-12-24 14:29:18.861373,71
2021-12-24 14:29:18.861383,73
2021-12-24 14:29:18.861393,85
2021-12-24 14:29:18.861402,75
2021-12-24 14:29:18.861415,73
2021-12-24 14:29:18.861425,82
2021-12-24 14:29:18.861435,82
2021-12-24 14:29:18.861445,85
2021-12-24 14:29:18.861455,94
2021-12-24 14:29:18.861464,97
2021-12-24 14:29:19.129672,101
2021-12-24 14:29:19.129693,113
2021-12-24 14:29:19.129700,125
2021-12-24 14:29:19.129707,139
2021-12-24 14:29:19.129713,153
2021-12-24 14:29:19.129720,163
2021-12-24 14:29:19.129726,170
2021-12-24 14:29:19.129733,172
2021-12-24 14:29:19.129739,165
2021-12-24 14:29:19.129746,151
2021-12-24 14:29:19.129752,139
2021-12-24 14:29:19.129759,130
2021-12-24 14:29:19.129765,111
2021-12-24 14:29:19.129771,73
2021-12-24 14:29:19.129778,35
2021-12-24 14:29:19.129784,14
2021-12-24 14:29:19.129791,2
2021-12-24 14:29:19.129797,-16
2021-12-24 14:29:19.129803,-26
2021-12-24 14:29:19.129810,-16
2021-12-24 14:29:19.129816,-11
2021-12-24 14:29:19.129823,-14
2021-12-24 14:29:19.129829,-7
2021-12-24 14:29:19.129836,4
2021-12-24 14:29:19.129842,11
2021-12-24 14:29:19.129849,9
2021-12-24 14:29:19.129855,14
2021-12-24 14:29:19.129861,28
2021-12-24 14:29:19.129868,35
2021-12-24 14:29:19.129874,35
2021-12-24 14:29:19.354865,35
2021-12-24 14:29:19.354885,40
2021-12-24 14:29:19.354892,40
2021-12-24 14:29:19.354899,33
2021-12-24 14:29:19.354905,33
2021-12-24 14:29:19.354911,40
2021-12-24 14:29:19.354918,30
2021-12-24 14:29:19.354924,21
2021-12-24 14:29:19.354930,30
2021-12-24 14:29:19.354937,42
2021-12-24 14:29:19.354943,52
2021-12-24 14:29:19.354949,68
2021-12-24 14:29:19.354956,68
2021-12-24 14:29:19.354962,47
2021-12-24 14:29:19.355025,28
2021-12-24 14:29:19.355032,23
2021-12-24 14:29:19.355038,18
2021-12-24 14:29:19.355045,9
2021-12-24 14:29:19.355051,16
2021-12-24 14:29:19.355057,28
2021-12-24 14:29:19.355064,23
2021-12-24 14:29:19.355070,18
2021-12-24 14:29:19.355076,21
2021-12-24 14:29:19.355083,18
2021-12-24 14:29:19.355089,23
2021-12-24 14:29:19.355096,71
2021-12-24 14:29:19.355102,184
2021-12-24 14:29:19.355108,357
2021-12-24 14:29:19.355115,461
2021-12-24 14:29:19.355121,203
2021-12-24 14:29:19.580227,-492
2021-12-24 14:29:19.580255,-847
2021-12-24 14:29:19.580269,-357
2021-12-24 14:29:19.580281,101
2021-12-24 14:29:19.580293,49
2021-12-24 14:29:19.580304,23
2021-12-24 14:29:19.580315,111
2021-12-24 14:29:19.580326,89
2021-12-24 14:29:19.580337,66
2021-12-24 14:29:19.580349,94
2021-12-24 14:29:19.580360,92
2021-12-24 14:29:19.580373,75
2021-12-24 14:29:19.580385,85
2021-12-24 14:29:19.580398,94
2021-12-24 14:29:19.580410,89
2021-12-24 14:29:19.580422,94
2021-12-24 14:29:19.580434,99
2021-12-24 14:29:19.580446,92
2021-12-24 14:29:19.580458,89
2021-12-24 14:29:19.580470,104
2021-12-24 14:29:19.580482,116
2021-12-24 14:29:19.580494,113
2021-12-24 14:29:19.580506,113
2021-12-24 14:29:19.580519,123
2021-12-24 14:29:19.580531,132
2021-12-24 14:29:19.580543,137
2021-12-24 14:29:19.580555,146
2021-12-24 14:29:19.580567,158
2021-12-24 14:29:19.580580,151
2021-12-24 14:29:19.580592,130
2021-12-24 14:29:19.760698,120
2021-12-24 14:29:19.760741,116
2021-12-24 14:29:19.760762,101
2021-12-24 14:29:19.760779,73
2021-12-24 14:29:19.760830,44
2021-12-24 14:29:19.760849,26
2021-12-24 14:29:19.760867,0
2021-12-24 14:29:19.760884,-14
2021-12-24 14:29:19.760903,-4
2021-12-24 14:29:19.760921,-4
2021-12-24 14:29:19.760941,-21
2021-12-24 14:29:19.760961,-18
2021-12-24 14:29:19.760981,-4
2021-12-24 14:29:19.761000,2
2021-12-24 14:29:19.761019,9
2021-12-24 14:29:19.761039,16
2021-12-24 14:29:19.761058,21
2021-12-24 14:29:19.761077,21
2021-12-24 14:29:19.761110,23
2021-12-24 14:29:19.761122,30
2021-12-24 14:29:19.761134,37
2021-12-24 14:29:19.761145,33
2021-12-24 14:29:19.761156,30
2021-12-24 14:29:19.761167,35
2021-12-24 14:29:19.761178,35
2021-12-24 14:29:19.761189,28
2021-12-24 14:29:19.761201,26
2021-12-24 14:29:19.761212,33
2021-12-24 14:29:19.761223,35
2021-12-24 14:29:19.761234,26
2021-12-24 14:29:20.075991,14
2021-12-24 14:29:20.076021,11
2021-12-24 14:29:20.076033,18
2021-12-24 14:29:20.076043,30
2021-12-24 14:29:20.076053,44
2021-12-24 14:29:20.076063,54
2021-12-24 14:29:20.076073,59
2021-12-24 14:29:20.076083,59
2021-12-24 14:29:20.076093,44
2021-12-24 14:29:20.076103,18
2021-12-24 14:29:20.076113,11
2021-12-24 14:29:20.076123,18
2021-12-24 14:29:20.076133,21
2021-12-24 14:29:20.076142,18
2021-12-24 14:29:20.076152,18
2021-12-24 14:29:20.076162,28
2021-12-24 14:29:20.076172,35
2021-12-24 14:29:20.076182,33
2021-12-24 14:29:20.076192,44
2021-12-24 14:29:20.076201,104
2021-12-24 14:29:20.076211,224
2021-12-24 14:29:20.076221,400
2021-12-24 14:29:20.076231,485
2021-12-24 14:29:20.076241,177
2021-12-24 14:29:20.076251,-544
2021-12-24 14:29:20.076261,-852
2021-12-24 14:29:20.076271,-305
2021-12-24 14:29:20.076281,130
2021-12-24 14:29:20.076291,40
2021-12-24 14:29:20.076300,26
2021-12-24 14:29:20.255527,125
2021-12-24 14:29:20.255554,101
2021-12-24 14:29:20.255566,71
2021-12-24 14:29:20.255577,99
2021-12-24 14:29:20.255586,99
2021-12-24 14:29:20.255596,92
2021-12-24 14:29:20.255606,101
2021-12-24 14:29:20.255616,101
2021-12-24 14:29:20.255626,99
2021-12-24 14:29:20.255636,101
2021-12-24 14:29:20.255646,99
2021-12-24 14:29:20.255655,97
2021-12-24 14:29:20.255665,106
2021-12-24 14:29:20.255675,113
2021-12-24 14:29:20.255685,113
2021-12-24 14:29:20.255695,116
2021-12-24 14:29:20.255704,125
2021-12-24 14:29:20.255714,134
2021-12-24 14:29:20.255724,142
2021-12-24 14:29:20.255733,153
2021-12-24 14:29:20.255743,161
2021-12-24 14:29:20.255753,156
2021-12-24 14:29:20.255763,149
2021-12-24 14:29:20.255772,142
2021-12-24 14:29:20.255782,127
2021-12-24 14:29:20.255792,113
2021-12-24 14:29:20.255801,104
2021-12-24 14:29:20.255811,82
2021-12-24 14:29:20.255821,59
2021-12-24 14:29:20.255831,40
2021-12-24 14:29:20.569752,26
2021-12-24 14:29:20.569779,7
2021-12-24 14:29:20.569792,-16
2021-12-24 14:29:20.569804,-23
2021-12-24 14:29:20.569814,-21
2021-12-24 14:29:20.569825,-21
2021-12-24 14:29:20.569832,-14
2021-12-24 14:29:20.569838,-7
2021-12-24 14:29:20.569864,-2
2021-12-24 14:29:20.569882,0
2021-12-24 14:29:20.569895,2
2021-12-24 14:29:20.569907,7
2021-12-24 14:29:20.569918,14
2021-12-24 14:29:20.569961,21
2021-12-24 14:29:20.569973,21
2021-12-24 14:29:20.569981,18
2021-12-24 14:29:20.569987,9
2021-12-24 14:29:20.569994,11
2021-12-24 14:29:20.570000,26
2021-12-24 14:29:20.570007,23
2021-12-24 14:29:20.570013,16
2021-12-24 14:29:20.570020,18
2021-12-24 14:29:20.570026,18
2021-12-24 14:29:20.570033,16
2021-12-24 14:29:20.570043,16
2021-12-24 14:29:20.570050,11
2021-12-24 14:29:20.570069,0
2021-12-24 14:29:20.570075,2
2021-12-24 14:29:20.570080,33
2021-12-24 14:29:20.570086,59
2021-12-24 14:29:20.840783,59
2021-12-24 14:29:20.840802,52
2021-12-24 14:29:20.840808,37
2021-12-24 14:29:20.840813,16
2021-12-24 14:29:20.840818,4
2021-12-24 14:29:20.840823,7
2021-12-24 14:29:20.840828,9
2021-12-24 14:29:20.840833,11
2021-12-24 14:29:20.840838,16
2021-12-24 14:29:20.840843,14
2021-12-24 14:29:20.840848,11
2021-12-24 14:29:20.840854,23
2021-12-24 14:29:20.840859,33
2021-12-24 14:29:20.840864,52
2021-12-24 14:29:20.840869,125
2021-12-24 14:29:20.840874,281
2021-12-24 14:29:20.840879,457
2021-12-24 14:29:20.840884,423
2021-12-24 14:29:20.840889,-113
2021-12-24 14:29:20.840894,-812
2021-12-24 14:29:20.840899,-731
2021-12-24 14:29:20.840905,-85
2021-12-24 14:29:20.840910,108
2021-12-24 14:29:20.840915,-2
2021-12-24 14:29:20.840920,63
2021-12-24 14:29:20.840925,118
2021-12-24 14:29:20.840930,68
2021-12-24 14:29:20.840935,63
2021-12-24 14:29:20.840940,92
2021-12-24 14:29:20.840945,87
2021-12-24 14:29:20.930487,78
2021-12-24 14:29:20.930518,87
2021-12-24 14:29:20.930530,87
2021-12-24 14:29:20.930540,82
2021-12-24 14:29:20.930550,82
2021-12-24 14:29:20.930559,87
2021-12-24 14:29:20.930569,85
2021-12-24 14:29:20.930579,85
2021-12-24 14:29:20.930588,82
2021-12-24 14:29:20.930598,82
2021-12-24 14:29:20.930608,101
2021-12-24 14:29:20.930617,120
2021-12-24 14:29:20.930627,120
2021-12-24 14:29:20.930637,118
2021-12-24 14:29:20.930646,125
2021-12-24 14:29:20.930656,137
2021-12-24 14:29:20.930666,137
2021-12-24 14:29:20.930676,125
2021-12-24 14:29:20.930685,113
2021-12-24 14:29:20.930695,104
2021-12-24 14:29:20.930704,92
2021-12-24 14:29:20.930714,78
2021-12-24 14:29:20.930724,63
2021-12-24 14:29:20.930733,52
2021-12-24 14:29:20.930743,30
2021-12-24 14:29:20.930752,4
2021-12-24 14:29:20.930762,0
2021-12-24 14:29:20.930772,7
2021-12-24 14:29:20.930781,4
2021-12-24 14:29:20.930791,0
2021-12-24 14:29:21.244500,2
2021-12-24 14:29:21.244524,9
2021-12-24 14:29:21.244534,16
2021-12-24 14:29:21.244543,16
2021-12-24 14:29:21.244552,18
2021-12-24 14:29:21.244561,26
2021-12-24 14:29:21.244571,28
2021-12-24 14:29:21.244580,23
2021-12-24 14:29:21.244589,23
2021-12-24 14:29:21.244597,21
2021-12-24 14:29:21.244606,16
2021-12-24 14:29:21.244615,11
2021-12-24 14:29:21.244624,9
2021-12-24 14:29:21.244633,11
2021-12-24 14:29:21.244642,9
2021-12-24 14:29:21.244650,7
2021-12-24 14:29:21.244659,11
2021-12-24 14:29:21.244669,11
2021-12-24 14:29:21.244677,4
2021-12-24 14:29:21.244686,2
2021-12-24 14:29:21.244694,7
2021-12-24 14:29:21.244703,4
2021-12-24 14:29:21.244712,-7
2021-12-24 14:29:21.244721,-4
2021-12-24 14:29:21.244730,11
2021-12-24 14:29:21.244740,33
2021-12-24 14:29:21.244749,47
2021-12-24 14:29:21.244757,47
2021-12-24 14:29:21.244766,37
2021-12-24 14:29:21.244776,21
2021-12-24 14:29:21.380533,-2
2021-12-24 14:29:21.380558,-7
2021-12-24 14:29:21.380566,-2
2021-12-24 14:29:21.380573,0
2021-12-24 14:29:21.380579,7
2021-12-24 14:29:21.380586,16
2021-12-24 14:29:21.380592,11
2021-12-24 14:29:21.380599,2
2021-12-24 14:29:21.380605,9
2021-12-24 14:29:21.380611,21
2021-12-24 14:29:21.380618,59
2021-12-24 14:29:21.380624,177
2021-12-24 14:29:21.380631,362
2021-12-24 14:29:21.380637,473
2021-12-24 14:29:21.380643,227
2021-12-24 14:29:21.380650,-492
2021-12-24 14:29:21.380656,-949
2021-12-24 14:29:21.380662,-494
2021-12-24 14:29:21.380669,52
2021-12-24 14:29:21.380675,44
2021-12-24 14:29:21.380682,-4
2021-12-24 14:29:21.380688,89
2021-12-24 14:29:21.380694,85
2021-12-24 14:29:21.380701,49
2021-12-24 14:29:21.380707,78
2021-12-24 14:29:21.380713,89
2021-12-24 14:29:21.380720,68
2021-12-24 14:29:21.380726,68
2021-12-24 14:29:21.380732,85
2021-12-24 14:29:21.380739,87
2021-12-24 14:29:21.650306,82
2021-12-24 14:29:21.650325,87
2021-12-24 14:29:21.650333,99
2021-12-24 14:29:21.650340,101
2021-12-24 14:29:21.650346,99
2021-12-24 14:29:21.650352,104
2021-12-24 14:29:21.650358,106
2021-12-24 14:29:21.650365,111
2021-12-24 14:29:21.650371,118
2021-12-24 14:29:21.650377,127
2021-12-24 14:29:21.650384,137
2021-12-24 14:29:21.650390,134
2021-12-24 14:29:21.650397,134
2021-12-24 14:29:21.650403,137
2021-12-24 14:29:21.650409,125
2021-12-24 14:29:21.650416,111
2021-12-24 14:29:21.650422,104
2021-12-24 14:29:21.650428,101
2021-12-24 14:29:21.650435,87
2021-12-24 14:29:21.650441,66
2021-12-24 14:29:21.650447,44
2021-12-24 14:29:21.650454,28
2021-12-24 14:29:21.650460,14
2021-12-24 14:29:21.650466,4
2021-12-24 14:29:21.650473,9
2021-12-24 14:29:21.650479,14
2021-12-24 14:29:21.650485,16
2021-12-24 14:29:21.650492,23
2021-12-24 14:29:21.650498,23
2021-12-24 14:29:21.650504,16
2021-12-24 14:29:21.875932,28
2021-12-24 14:29:21.875962,44
2021-12-24 14:29:21.875974,42
2021-12-24 14:29:21.875984,40
2021-12-24 14:29:21.875994,52
2021-12-24 14:29:21.876004,47
2021-12-24 14:29:21.876013,37
2021-12-24 14:29:21.876023,40
2021-12-24 14:29:21.876033,35
2021-12-24 14:29:21.876042,28
2021-12-24 14:29:21.876052,30
2021-12-24 14:29:21.876062,28
2021-12-24 14:29:21.876071,18
2021-12-24 14:29:21.876081,11
2021-12-24 14:29:21.876091,14
2021-12-24 14:29:21.876101,26
2021-12-24 14:29:21.876110,14
2021-12-24 14:29:21.876120,-7
2021-12-24 14:29:21.876130,2
2021-12-24 14:29:21.876151,0
2021-12-24 14:29:21.876161,-11
2021-12-24 14:29:21.876170,-4
2021-12-24 14:29:21.876180,-4
2021-12-24 14:29:21.876190,-14
2021-12-24 14:29:21.876199,2
2021-12-24 14:29:21.876209,33
2021-12-24 14:29:21.876219,44
2021-12-24 14:29:21.876228,35
2021-12-24 14:29:21.876238,30
2021-12-24 14:29:21.876247,23
2021-12-24 14:29:22.145504,7
2021-12-24 14:29:22.145534,0
2021-12-24 14:29:22.145546,2
2021-12-24 14:29:22.145556,4
2021-12-24 14:29:22.145566,4
2021-12-24 14:29:22.145576,9
2021-12-24 14:29:22.145586,18
2021-12-24 14:29:22.145595,23
2021-12-24 14:29:22.145605,23
2021-12-24 14:29:22.145615,44
2021-12-24 14:29:22.145624,116
2021-12-24 14:29:22.145634,258
2021-12-24 14:29:22.145644,433
2021-12-24 14:29:22.145653,449
2021-12-24 14:29:22.145663,0
2021-12-24 14:29:22.145673,-753
2021-12-24 14:29:22.145683,-866
2021-12-24 14:29:22.145693,-210
2021-12-24 14:29:22.145703,123
2021-12-24 14:29:22.145712,4
2021-12-24 14:29:22.145722,40
2021-12-24 14:29:22.145732,123
2021-12-24 14:29:22.145741,73
2021-12-24 14:29:22.145751,61
2021-12-24 14:29:22.145760,94
2021-12-24 14:29:22.145770,92
2021-12-24 14:29:22.145780,87
2021-12-24 14:29:22.145789,89
2021-12-24 14:29:22.145799,92
2021-12-24 14:29:22.145809,97
2021-12-24 14:29:22.415874,104
2021-12-24 14:29:22.415892,104
2021-12-24 14:29:22.415900,104
2021-12-24 14:29:22.415907,101
2021-12-24 14:29:22.415914,97
2021-12-24 14:29:22.415920,101
2021-12-24 14:29:22.415927,120
2021-12-24 14:29:22.415933,134
2021-12-24 14:29:22.415939,137
2021-12-24 14:29:22.415954,139
2021-12-24 14:29:22.415961,151
2021-12-24 14:29:22.415967,153
2021-12-24 14:29:22.415973,146
2021-12-24 14:29:22.415979,142
2021-12-24 14:29:22.415986,139
2021-12-24 14:29:22.415992,123
2021-12-24 14:29:22.415998,106
2021-12-24 14:29:22.416005,99
2021-12-24 14:29:22.416011,89
2021-12-24 14:29:22.416017,68
2021-12-24 14:29:22.416023,49
2021-12-24 14:29:22.416030,37
2021-12-24 14:29:22.416036,26
2021-12-24 14:29:22.416042,18
2021-12-24 14:29:22.416048,14
2021-12-24 14:29:22.416055,9
2021-12-24 14:29:22.416061,9
2021-12-24 14:29:22.416067,16
2021-12-24 14:29:22.416073,21
2021-12-24 14:29:22.416080,21
2021-12-24 14:29:22.685909,30
2021-12-24 14:29:22.685940,33
2021-12-24 14:29:22.685951,28
2021-12-24 14:29:22.685962,33
2021-12-24 14:29:22.685971,37
2021-12-24 14:29:22.685981,33
2021-12-24 14:29:22.685991,28
2021-12-24 14:29:22.686001,30
2021-12-24 14:29:22.686010,28
2021-12-24 14:29:22.686020,18
2021-12-24 14:29:22.686030,23
2021-12-24 14:29:22.686040,33
2021-12-24 14:29:22.686049,30
2021-12-24 14:29:22.686059,21
2021-12-24 14:29:22.686069,21
2021-12-24 14:29:22.686078,18
2021-12-24 14:29:22.686088,14
2021-12-24 14:29:22.686097,16
2021-12-24 14:29:22.686107,16
2021-12-24 14:29:22.686117,7
2021-12-24 14:29:22.686127,-4
2021-12-24 14:29:22.686136,2
2021-12-24 14:29:22.686146,28
2021-12-24 14:29:22.686156,47
2021-12-24 14:29:22.686165,47
2021-12-24 14:29:22.686175,49
2021-12-24 14:29:22.686185,52
2021-12-24 14:29:22.686194,21
2021-12-24 14:29:22.686204,-9
2021-12-24 14:29:22.686214,2
2021-12-24 14:29:22.819820,23
2021-12-24 14:29:22.819850,14
2021-12-24 14:29:22.819862,9
2021-12-24 14:29:22.819872,23
2021-12-24 14:29:22.819882,33
2021-12-24 14:29:22.819891,30
2021-12-24 14:29:22.819901,33
2021-12-24 14:29:22.819911,61
2021-12-24 14:29:22.819921,144
2021-12-24 14:29:22.819931,307
2021-12-24 14:29:22.819941,492
2021-12-24 14:29:22.819950,494
2021-12-24 14:29:22.819960,-2
2021-12-24 14:29:22.819970,-755
2021-12-24 14:29:22.819980,-798
2021-12-24 14:29:22.819990,-172
2021-12-24 14:29:22.820000,113
2021-12-24 14:29:22.820009,35
2021-12-24 14:29:22.820019,75
2021-12-24 14:29:22.820029,125
2021-12-24 14:29:22.820039,87
2021-12-24 14:29:22.820049,89
2021-12-24 14:29:22.820058,116
2021-12-24 14:29:22.820068,106
2021-12-24 14:29:22.820078,99
2021-12-24 14:29:22.820088,106
2021-12-24 14:29:22.820098,99
2021-12-24 14:29:22.820108,99
2021-12-24 14:29:22.820117,113
2021-12-24 14:29:22.820127,120
2021-12-24 14:29:23.045280,106
2021-12-24 14:29:23.045301,97
2021-12-24 14:29:23.045309,106
2021-12-24 14:29:23.045316,120
2021-12-24 14:29:23.045322,130
2021-12-24 14:29:23.045329,137
2021-12-24 14:29:23.045335,139
2021-12-24 14:29:23.045341,146
2021-12-24 14:29:23.045348,172
2021-12-24 14:29:23.045354,184
2021-12-24 14:29:23.045361,175
2021-12-24 14:29:23.045367,168
2021-12-24 14:29:23.045373,161
2021-12-24 14:29:23.045380,142
2021-12-24 14:29:23.045386,132
2021-12-24 14:29:23.045393,130
2021-12-24 14:29:23.045399,104
2021-12-24 14:29:23.045406,68
2021-12-24 14:29:23.045412,49
2021-12-24 14:29:23.045418,23
2021-12-24 14:29:23.045425,4
2021-12-24 14:29:23.045431,2
2021-12-24 14:29:23.045438,-2
2021-12-24 14:29:23.045444,-14
2021-12-24 14:29:23.045451,-11
2021-12-24 14:29:23.045457,-4
2021-12-24 14:29:23.045463,-11
2021-12-24 14:29:23.045470,-9
2021-12-24 14:29:23.045476,9
2021-12-24 14:29:23.045483,11
2021-12-24 14:29:23.269149,9
2021-12-24 14:29:23.269168,21
2021-12-24 14:29:23.269175,40
2021-12-24 14:29:23.269180,35
2021-12-24 14:29:23.269185,28
2021-12-24 14:29:23.269191,35
2021-12-24 14:29:23.269196,33
2021-12-24 14:29:23.269201,33
2021-12-24 14:29:23.269206,47
2021-12-24 14:29:23.269211,40
2021-12-24 14:29:23.269216,28
2021-12-24 14:29:23.269221,33
2021-12-24 14:29:23.269226,28
2021-12-24 14:29:23.269232,16
2021-12-24 14:29:23.269237,21
2021-12-24 14:29:23.269242,40
2021-12-24 14:29:23.269247,56
2021-12-24 14:29:23.269252,59
2021-12-24 14:29:23.269257,59
2021-12-24 14:29:23.269262,49
2021-12-24 14:29:23.269267,28
2021-12-24 14:29:23.269272,7
2021-12-24 14:29:23.269277,18
2021-12-24 14:29:23.269282,30
2021-12-24 14:29:23.269287,16
2021-12-24 14:29:23.269292,14
2021-12-24 14:29:23.269298,28
2021-12-24 14:29:23.269303,35
2021-12-24 14:29:23.269308,37
2021-12-24 14:29:23.269313,30
2021-12-24 14:29:23.629448,47
2021-12-24 14:29:23.629469,134
2021-12-24 14:29:23.629477,284
2021-12-24 14:29:23.629484,433
2021-12-24 14:29:23.629491,426
2021-12-24 14:29:23.629497,-59
2021-12-24 14:29:23.629504,-781
2021-12-24 14:29:23.629510,-783
2021-12-24 14:29:23.629516,-146
2021-12-24 14:29:23.629523,116
2021-12-24 14:29:23.629529,26
2021-12-24 14:29:23.629536,73
2021-12-24 14:29:23.629542,125
2021-12-24 14:29:23.629549,73
2021-12-24 14:29:23.629555,75
2021-12-24 14:29:23.629562,106
2021-12-24 14:29:23.629568,99
2021-12-24 14:29:23.629574,94
2021-12-24 14:29:23.629581,106
2021-12-24 14:29:23.629587,111
2021-12-24 14:29:23.629593,104
2021-12-24 14:29:23.629600,106
2021-12-24 14:29:23.629606,111
2021-12-24 14:29:23.629612,111
2021-12-24 14:29:23.629619,111
2021-12-24 14:29:23.629625,130
2021-12-24 14:29:23.629631,144
2021-12-24 14:29:23.629638,137
2021-12-24 14:29:23.629644,144
2021-12-24 14:29:23.629651,165
2021-12-24 14:29:23.810595,170
2021-12-24 14:29:23.810623,175
2021-12-24 14:29:23.810637,187
2021-12-24 14:29:23.810649,191
2021-12-24 14:29:23.810662,187
2021-12-24 14:29:23.810673,179
2021-12-24 14:29:23.810684,165
2021-12-24 14:29:23.810690,149
2021-12-24 14:29:23.810697,139
2021-12-24 14:29:23.810703,120
2021-12-24 14:29:23.810709,85
2021-12-24 14:29:23.810715,49
2021-12-24 14:29:23.810722,23
2021-12-24 14:29:23.810728,2
2021-12-24 14:29:23.810734,2
2021-12-24 14:29:23.810740,7
2021-12-24 14:29:23.810747,2
2021-12-24 14:29:23.810753,2
2021-12-24 14:29:23.810759,7
2021-12-24 14:29:23.810765,9
2021-12-24 14:29:23.810771,18
2021-12-24 14:29:23.810778,23
2021-12-24 14:29:23.810784,16
2021-12-24 14:29:23.810790,18
2021-12-24 14:29:23.810796,30
2021-12-24 14:29:23.810802,30
2021-12-24 14:29:23.810808,28
2021-12-24 14:29:23.810815,35
2021-12-24 14:29:23.810821,33
2021-12-24 14:29:23.810827,23
2021-12-24 14:29:23.945912,26
2021-12-24 14:29:23.945942,35
2021-12-24 14:29:23.945954,35
2021-12-24 14:29:23.945964,21
2021-12-24 14:29:23.945974,21
2021-12-24 14:29:23.945983,40
2021-12-24 14:29:23.945993,52
2021-12-24 14:29:23.946003,44
2021-12-24 14:29:23.946013,40
2021-12-24 14:29:23.946022,42
2021-12-24 14:29:23.946032,26
2021-12-24 14:29:23.946042,2
2021-12-24 14:29:23.946052,4
2021-12-24 14:29:23.946062,18
2021-12-24 14:29:23.946071,11
2021-12-24 14:29:23.946081,4
2021-12-24 14:29:23.946091,14
2021-12-24 14:29:23.946101,14
2021-12-24 14:29:23.946111,14
2021-12-24 14:29:23.946120,23
2021-12-24 14:29:23.946130,52
2021-12-24 14:29:23.946140,132
2021-12-24 14:29:23.946150,300
2021-12-24 14:29:23.946160,457
2021-12-24 14:29:23.946169,274
2021-12-24 14:29:23.946180,-402
2021-12-24 14:29:23.946190,-862
2021-12-24 14:29:23.946199,-442
2021-12-24 14:29:23.946209,80
2021-12-24 14:29:23.946219,63
2021-12-24 14:29:24.170395,7
2021-12-24 14:29:24.170426,97
2021-12-24 14:29:24.170438,92
2021-12-24 14:29:24.170449,54
2021-12-24 14:29:24.170458,78
2021-12-24 14:29:24.170468,92
2021-12-24 14:29:24.170478,87
2021-12-24 14:29:24.170488,94
2021-12-24 14:29:24.170497,89
2021-12-24 14:29:24.170507,73
2021-12-24 14:29:24.170517,75
2021-12-24 14:29:24.170527,85
2021-12-24 14:29:24.170536,92
2021-12-24 14:29:24.170546,101
2021-12-24 14:29:24.170556,101
2021-12-24 14:29:24.170566,97
2021-12-24 14:29:24.170575,104
2021-12-24 14:29:24.170585,116
2021-12-24 14:29:24.170595,120
2021-12-24 14:29:24.170604,134
2021-12-24 14:29:24.170614,149
2021-12-24 14:29:24.170624,149
2021-12-24 14:29:24.170633,146
2021-12-24 14:29:24.170643,149
2021-12-24 14:29:24.170653,144
2021-12-24 14:29:24.170663,137
2021-12-24 14:29:24.170672,125
2021-12-24 14:29:24.170682,113
2021-12-24 14:29:24.170691,97
2021-12-24 14:29:24.170701,66
2021-12-24 14:29:24.485874,40
2021-12-24 14:29:24.485904,23
2021-12-24 14:29:24.485916,9
2021-12-24 14:29:24.485926,0
2021-12-24 14:29:24.485936,-4
2021-12-24 14:29:24.485946,-9
2021-12-24 14:29:24.485955,-7
2021-12-24 14:29:24.485965,0
2021-12-24 14:29:24.485975,4
2021-12-24 14:29:24.485985,9
2021-12-24 14:29:24.485994,9
2021-12-24 14:29:24.486004,4
2021-12-24 14:29:24.486014,9
2021-12-24 14:29:24.486023,23
2021-12-24 14:29:24.486033,23
2021-12-24 14:29:24.486043,9
2021-12-24 14:29:24.486053,-2
2021-12-24 14:29:24.486062,2
2021-12-24 14:29:24.486072,9
2021-12-24 14:29:24.486082,9
2021-12-24 14:29:24.486091,7
2021-12-24 14:29:24.486101,-2
2021-12-24 14:29:24.486111,-4
2021-12-24 14:29:24.486120,4
2021-12-24 14:29:24.486130,0
2021-12-24 14:29:24.486140,-9
2021-12-24 14:29:24.486150,-7
2021-12-24 14:29:24.486160,9
2021-12-24 14:29:24.486169,23
2021-12-24 14:29:24.486179,28
2021-12-24 14:29:24.665572,37
2021-12-24 14:29:24.665594,42
2021-12-24 14:29:24.665602,30
2021-12-24 14:29:24.665608,14
2021-12-24 14:29:24.665615,4
2021-12-24 14:29:24.665621,-4
2021-12-24 14:29:24.665628,-4
2021-12-24 14:29:24.665634,-2
2021-12-24 14:29:24.665640,0
2021-12-24 14:29:24.665647,4
2021-12-24 14:29:24.665653,11
2021-12-24 14:29:24.665660,16
2021-12-24 14:29:24.665666,21
2021-12-24 14:29:24.665672,42
2021-12-24 14:29:24.665679,116
2021-12-24 14:29:24.665685,272
2021-12-24 14:29:24.665691,459
2021-12-24 14:29:24.665698,435
2021-12-24 14:29:24.665704,-106
2021-12-24 14:29:24.665710,-814
2021-12-24 14:29:24.665717,-734
2021-12-24 14:29:24.665723,-94
2021-12-24 14:29:24.665730,99
2021-12-24 14:29:24.665736,-7
2021-12-24 14:29:24.665743,52
2021-12-24 14:29:24.665749,97
2021-12-24 14:29:24.665755,54
2021-12-24 14:29:24.665762,63
2021-12-24 14:29:24.665768,89
2021-12-24 14:29:24.665774,73
2021-12-24 14:29:24.890385,71
2021-12-24 14:29:24.890415,85
2021-12-24 14:29:24.890427,78
2021-12-24 14:29:24.890437,71
2021-12-24 14:29:24.890447,87
2021-12-24 14:29:24.890461,97
2021-12-24 14:29:24.890471,92
2021-12-24 14:29:24.890481,92
2021-12-24 14:29:24.890491,97
2021-12-24 14:29:24.890501,97
2021-12-24 14:29:24.890510,101
2021-12-24 14:29:24.890520,116
2021-12-24 14:29:24.890530,130
2021-12-24 14:29:24.890540,132
2021-12-24 14:29:24.890549,137
2021-12-24 14:29:24.890559,151
2021-12-24 14:29:24.890569,153
2021-12-24 14:29:24.890579,144
2021-12-24 14:29:24.890588,127
2021-12-24 14:29:24.890598,111
2021-12-24 14:29:24.890608,106
2021-12-24 14:29:24.890618,97
2021-12-24 14:29:24.890628,68
2021-12-24 14:29:24.890637,44
2021-12-24 14:29:24.890647,18
2021-12-24 14:29:24.890657,0
2021-12-24 14:29:24.890667,2
2021-12-24 14:29:24.890676,4
2021-12-24 14:29:24.890686,-4
2021-12-24 14:29:24.890696,-4
2021-12-24 14:29:25.070891,0
2021-12-24 14:29:25.070923,-2
2021-12-24 14:29:25.070935,4
2021-12-24 14:29:25.070945,18
2021-12-24 14:29:25.070955,16
2021-12-24 14:29:25.070965,11
2021-12-24 14:29:25.070975,18
2021-12-24 14:29:25.070984,28
2021-12-24 14:29:25.070994,23
2021-12-24 14:29:25.071004,11
2021-12-24 14:29:25.071014,9
2021-12-24 14:29:25.071024,11
2021-12-24 14:29:25.071034,14
2021-12-24 14:29:25.071044,16
2021-12-24 14:29:25.071053,14
2021-12-24 14:29:25.071063,2
2021-12-24 14:29:25.071073,0
2021-12-24 14:29:25.071083,11
2021-12-24 14:29:25.071093,14
2021-12-24 14:29:25.071103,0
2021-12-24 14:29:25.071113,-4
2021-12-24 14:29:25.071123,4
2021-12-24 14:29:25.071133,0
2021-12-24 14:29:25.071143,-2
2021-12-24 14:29:25.071153,14
2021-12-24 14:29:25.071163,26
2021-12-24 14:29:25.071173,9
2021-12-24 14:29:25.071183,-2
2021-12-24 14:29:25.071193,2
2021-12-24 14:29:25.071203,11
2021-12-24 14:29:25.338981,28
2021-12-24 14:29:25.339002,54
2021-12-24 14:29:25.339009,66
2021-12-24 14:29:25.339016,59
2021-12-24 14:29:25.339023,35
2021-12-24 14:29:25.339029,9
2021-12-24 14:29:25.339036,7
2021-12-24 14:29:25.339042,18
2021-12-24 14:29:25.339048,18
2021-12-24 14:29:25.339055,16
2021-12-24 14:29:25.339061,16
2021-12-24 14:29:25.339067,11
2021-12-24 14:29:25.339074,4
2021-12-24 14:29:25.339080,23
2021-12-24 14:29:25.339087,49
2021-12-24 14:29:25.339093,78
2021-12-24 14:29:25.339100,168
2021-12-24 14:29:25.339106,343
2021-12-24 14:29:25.339113,494
2021-12-24 14:29:25.339119,338
2021-12-24 14:29:25.339125,-341
2021-12-24 14:29:25.339132,-892
2021-12-24 14:29:25.339138,-518
2021-12-24 14:29:25.339145,71
2021-12-24 14:29:25.339151,75
2021-12-24 14:29:25.339158,-7
2021-12-24 14:29:25.339164,97
2021-12-24 14:29:25.339170,101
2021-12-24 14:29:25.339177,52
2021-12-24 14:29:25.339183,73
2021-12-24 14:29:25.609051,87
2021-12-24 14:29:25.609070,73
2021-12-24 14:29:25.609078,75
2021-12-24 14:29:25.609084,80
2021-12-24 14:29:25.609091,75
2021-12-24 14:29:25.609097,78
2021-12-24 14:29:25.609104,87
2021-12-24 14:29:25.609110,89
2021-12-24 14:29:25.609117,92
2021-12-24 14:29:25.609123,99
2021-12-24 14:29:25.609130,104
2021-12-24 14:29:25.609136,106
2021-12-24 14:29:25.609142,113
2021-12-24 14:29:25.609149,116
2021-12-24 14:29:25.609155,120
2021-12-24 14:29:25.609162,134
2021-12-24 14:29:25.609168,142
2021-12-24 14:29:25.609175,139
2021-12-24 14:29:25.609181,146
2021-12-24 14:29:25.609187,149
2021-12-24 14:29:25.609194,134
2021-12-24 14:29:25.609200,125
2021-12-24 14:29:25.609206,118
2021-12-24 14:29:25.609213,99
2021-12-24 14:29:25.609219,75
2021-12-24 14:29:25.609226,56
2021-12-24 14:29:25.609232,40
2021-12-24 14:29:25.609238,26
2021-12-24 14:29:25.609245,14
2021-12-24 14:29:25.609251,16
2021-12-24 14:29:25.790677,18
2021-12-24 14:29:25.790698,21
2021-12-24 14:29:25.790705,23
2021-12-24 14:29:25.790712,18
2021-12-24 14:29:25.790718,16
2021-12-24 14:29:25.790724,21
2021-12-24 14:29:25.790730,30
2021-12-24 14:29:25.790737,35
2021-12-24 14:29:25.790743,30
2021-12-24 14:29:25.790749,26
2021-12-24 14:29:25.790756,33
2021-12-24 14:29:25.790762,35
2021-12-24 14:29:25.790768,28
2021-12-24 14:29:25.790774,33
2021-12-24 14:29:25.790781,44
2021-12-24 14:29:25.790787,37
2021-12-24 14:29:25.790793,23
2021-12-24 14:29:25.790800,26
2021-12-24 14:29:25.790806,30
2021-12-24 14:29:25.790812,33
2021-12-24 14:29:25.790818,30
2021-12-24 14:29:25.790825,23
2021-12-24 14:29:25.790831,21
2021-12-24 14:29:25.790837,26
2021-12-24 14:29:25.790843,26
2021-12-24 14:29:25.790849,33
2021-12-24 14:29:25.790856,33
2021-12-24 14:29:25.790862,23
2021-12-24 14:29:25.790868,26
2021-12-24 14:29:25.790875,33
2021-12-24 14:29:26.060422,30
2021-12-24 14:29:26.060441,28
2021-12-24 14:29:26.060449,35
2021-12-24 14:29:26.060456,35
2021-12-24 14:29:26.060462,21
2021-12-24 14:29:26.060469,16
2021-12-24 14:29:26.060475,18
2021-12-24 14:29:26.060481,26
2021-12-24 14:29:26.060487,42
2021-12-24 14:29:26.060496,56
2021-12-24 14:29:26.060505,68
2021-12-24 14:29:26.060512,68
2021-12-24 14:29:26.060518,59
2021-12-24 14:29:26.060524,40
2021-12-24 14:29:26.060530,26
2021-12-24 14:29:26.060537,23
2021-12-24 14:29:26.060543,21
2021-12-24 14:29:26.060549,18
2021-12-24 14:29:26.060555,28
2021-12-24 14:29:26.060562,35
2021-12-24 14:29:26.060568,33
2021-12-24 14:29:26.060574,30
2021-12-24 14:29:26.060581,37
2021-12-24 14:29:26.060587,73
2021-12-24 14:29:26.060593,156
2021-12-24 14:29:26.060600,303
2021-12-24 14:29:26.060606,464
2021-12-24 14:29:26.060612,421
2021-12-24 14:29:26.060619,-104
2021-12-24 14:29:26.060625,-762
2021-12-24 14:29:26.285209,-629
2021-12-24 14:29:26.285240,-2
2021-12-24 14:29:26.285252,118
2021-12-24 14:29:26.285262,-4
2021-12-24 14:29:26.285272,85
2021-12-24 14:29:26.285282,123
2021-12-24 14:29:26.285292,68
2021-12-24 14:29:26.285301,85
2021-12-24 14:29:26.285311,106
2021-12-24 14:29:26.285320,87
2021-12-24 14:29:26.285330,89
2021-12-24 14:29:26.285355,106
2021-12-24 14:29:26.285366,101
2021-12-24 14:29:26.285375,89
2021-12-24 14:29:26.285385,94
2021-12-24 14:29:26.285395,104
2021-12-24 14:29:26.285405,101
2021-12-24 14:29:26.285415,106
2021-12-24 14:29:26.285425,116
2021-12-24 14:29:26.285434,113
2021-12-24 14:29:26.285444,111
2021-12-24 14:29:26.285454,118
2021-12-24 14:29:26.285464,127
2021-12-24 14:29:26.285474,132
2021-12-24 14:29:26.285483,130
2021-12-24 14:29:26.285494,130
2021-12-24 14:29:26.285503,144
2021-12-24 14:29:26.285513,144
2021-12-24 14:29:26.285523,123
2021-12-24 14:29:26.285533,108
2021-12-24 14:29:26.555948,97
2021-12-24 14:29:26.555979,85
2021-12-24 14:29:26.555990,78
2021-12-24 14:29:26.556000,56
2021-12-24 14:29:26.556010,30
2021-12-24 14:29:26.556020,18
2021-12-24 14:29:26.556029,14
2021-12-24 14:29:26.556039,2
2021-12-24 14:29:26.556049,-7
2021-12-24 14:29:26.556059,-9
2021-12-24 14:29:26.556069,-4
2021-12-24 14:29:26.556079,0
2021-12-24 14:29:26.556088,2
2021-12-24 14:29:26.556098,-4
2021-12-24 14:29:26.556108,-11
2021-12-24 14:29:26.556118,-2
2021-12-24 14:29:26.556127,16
2021-12-24 14:29:26.556137,26
2021-12-24 14:29:26.556147,23
2021-12-24 14:29:26.556157,23
2021-12-24 14:29:26.556166,28
2021-12-24 14:29:26.556176,26
2021-12-24 14:29:26.556186,16
2021-12-24 14:29:26.556196,16
2021-12-24 14:29:26.556205,26
2021-12-24 14:29:26.556215,30
2021-12-24 14:29:26.556225,28
2021-12-24 14:29:26.556235,28
2021-12-24 14:29:26.556244,30
2021-12-24 14:29:26.556254,28
2021-12-24 14:29:26.690483,28
2021-12-24 14:29:26.690513,30
2021-12-24 14:29:26.690525,26
2021-12-24 14:29:26.690536,16
2021-12-24 14:29:26.690546,23
2021-12-24 14:29:26.690555,30
2021-12-24 14:29:26.690565,28
2021-12-24 14:29:26.690575,26
2021-12-24 14:29:26.690585,26
2021-12-24 14:29:26.690595,26
2021-12-24 14:29:26.690605,26
2021-12-24 14:29:26.690615,28
2021-12-24 14:29:26.690624,35
2021-12-24 14:29:26.690634,35
2021-12-24 14:29:26.690644,23
2021-12-24 14:29:26.690654,18
2021-12-24 14:29:26.690664,28
2021-12-24 14:29:26.690674,42
2021-12-24 14:29:26.690686,40
2021-12-24 14:29:26.690696,28
2021-12-24 14:29:26.690706,30
2021-12-24 14:29:26.690715,49
2021-12-24 14:29:26.690725,68
2021-12-24 14:29:26.690735,73
2021-12-24 14:29:26.690745,63
2021-12-24 14:29:26.690755,49
2021-12-24 14:29:26.690765,30
2021-12-24 14:29:26.690774,23
2021-12-24 14:29:26.690784,30
2021-12-24 14:29:26.690794,30
2021-12-24 14:29:26.961007,26
2021-12-24 14:29:26.961038,35
2021-12-24 14:29:26.961049,42
2021-12-24 14:29:26.961059,33
2021-12-24 14:29:26.961069,37
2021-12-24 14:29:26.961079,56
2021-12-24 14:29:26.961089,75
2021-12-24 14:29:26.961098,137
2021-12-24 14:29:26.961108,296
2021-12-24 14:29:26.961118,459
2021-12-24 14:29:26.961127,423
2021-12-24 14:29:26.961137,-54
2021-12-24 14:29:26.961147,-731
2021-12-24 14:29:26.961156,-715
2021-12-24 14:29:26.961166,-85
2021-12-24 14:29:26.961176,120
2021-12-24 14:29:26.961185,-11
2021-12-24 14:29:26.961195,56
2021-12-24 14:29:26.961205,123
2021-12-24 14:29:26.961214,63
2021-12-24 14:29:26.961224,63
2021-12-24 14:29:26.961234,92
2021-12-24 14:29:26.961243,75
2021-12-24 14:29:26.961253,71
2021-12-24 14:29:26.961263,80
2021-12-24 14:29:26.961272,73
2021-12-24 14:29:26.961282,73
2021-12-24 14:29:26.961291,75
2021-12-24 14:29:26.961301,73
2021-12-24 14:29:26.961311,78
2021-12-24 14:29:27.230380,85
2021-12-24 14:29:27.230403,82
2021-12-24 14:29:27.230410,82
2021-12-24 14:29:27.230417,92
2021-12-24 14:29:27.230424,101
2021-12-24 14:29:27.230430,97
2021-12-24 14:29:27.230437,94
2021-12-24 14:29:27.230443,111
2021-12-24 14:29:27.230449,120
2021-12-24 14:29:27.230456,116
2021-12-24 14:29:27.230462,113
2021-12-24 14:29:27.230469,106
2021-12-24 14:29:27.230475,94
2021-12-24 14:29:27.230481,85
2021-12-24 14:29:27.230488,73
2021-12-24 14:29:27.230494,52
2021-12-24 14:29:27.230500,49
2021-12-24 14:29:27.230507,49
2021-12-24 14:29:27.230513,16
2021-12-24 14:29:27.230520,-7
2021-12-24 14:29:27.230526,7
2021-12-24 14:29:27.230533,9
2021-12-24 14:29:27.230539,0
2021-12-24 14:29:27.230546,-4
2021-12-24 14:29:27.230552,2
2021-12-24 14:29:27.230558,23
2021-12-24 14:29:27.230565,28
2021-12-24 14:29:27.230571,11
2021-12-24 14:29:27.230577,14
2021-12-24 14:29:27.230584,33
2021-12-24 14:29:27.408857,37
2021-12-24 14:29:27.408878,40
2021-12-24 14:29:27.408886,49
2021-12-24 14:29:27.408893,52
2021-12-24 14:29:27.408899,44
2021-12-24 14:29:27.408906,44
2021-12-24 14:29:27.408912,49
2021-12-24 14:29:27.408919,44
2021-12-24 14:29:27.408925,42
2021-12-24 14:29:27.408932,54
2021-12-24 14:29:27.408938,54
2021-12-24 14:29:27.408944,33
2021-12-24 14:29:27.408951,33
2021-12-24 14:29:27.408957,47
2021-12-24 14:29:27.408964,42
2021-12-24 14:29:27.408970,40
2021-12-24 14:29:27.408977,42
2021-12-24 14:29:27.408983,33
2021-12-24 14:29:27.408991,30
2021-12-24 14:29:27.408997,42
2021-12-24 14:29:27.409004,35
2021-12-24 14:29:27.409010,21
2021-12-24 14:29:27.409016,26
2021-12-24 14:29:27.409023,28
2021-12-24 14:29:27.409029,16
2021-12-24 14:29:27.409036,16
2021-12-24 14:29:27.409042,18
2021-12-24 14:29:27.409049,18
2021-12-24 14:29:27.409055,33
2021-12-24 14:29:27.409062,54
2021-12-24 14:29:27.679691,66
2021-12-24 14:29:27.679713,68
2021-12-24 14:29:27.679721,61
2021-12-24 14:29:27.679728,42
2021-12-24 14:29:27.679734,16
2021-12-24 14:29:27.679740,9
2021-12-24 14:29:27.679747,23
2021-12-24 14:29:27.679753,28
2021-12-24 14:29:27.679759,28
2021-12-24 14:29:27.679766,28
2021-12-24 14:29:27.679772,26
2021-12-24 14:29:27.679778,33
2021-12-24 14:29:27.679785,44
2021-12-24 14:29:27.679791,68
2021-12-24 14:29:27.679797,137
2021-12-24 14:29:27.679804,281
2021-12-24 14:29:27.679810,461
2021-12-24 14:29:27.679816,449
2021-12-24 14:29:27.679823,-80
2021-12-24 14:29:27.679829,-812
2021-12-24 14:29:27.679836,-772
2021-12-24 14:29:27.679842,-111
2021-12-24 14:29:27.679849,113
2021-12-24 14:29:27.679855,-7
2021-12-24 14:29:27.679861,52
2021-12-24 14:29:27.679868,113
2021-12-24 14:29:27.679874,66
2021-12-24 14:29:27.679880,73
2021-12-24 14:29:27.679887,101
2021-12-24 14:29:27.679893,85
2021-12-24 14:29:27.860900,80
2021-12-24 14:29:27.860921,94
2021-12-24 14:29:27.860929,87
2021-12-24 14:29:27.860936,80
2021-12-24 14:29:27.860942,78
2021-12-24 14:29:27.860949,78
2021-12-24 14:29:27.860955,87
2021-12-24 14:29:27.860961,101
2021-12-24 14:29:27.860968,99
2021-12-24 14:29:27.860974,97
2021-12-24 14:29:27.860980,104
2021-12-24 14:29:27.860987,111
2021-12-24 14:29:27.860993,120
2021-12-24 14:29:27.860999,130
2021-12-24 14:29:27.861009,142
2021-12-24 14:29:27.861016,151
2021-12-24 14:29:27.861022,151
2021-12-24 14:29:27.861029,146
2021-12-24 14:29:27.861035,139
2021-12-24 14:29:27.861041,132
2021-12-24 14:29:27.861048,118
2021-12-24 14:29:27.861054,97
2021-12-24 14:29:27.861060,89
2021-12-24 14:29:27.861067,75
2021-12-24 14:29:27.861073,40
2021-12-24 14:29:27.861079,16
2021-12-24 14:29:27.861086,7
2021-12-24 14:29:27.861092,-7
2021-12-24 14:29:27.861099,-14
2021-12-24 14:29:27.861105,-7
2021-12-24 14:29:28.086028,-2
2021-12-24 14:29:28.086058,0
2021-12-24 14:29:28.086070,0
2021-12-24 14:29:28.086081,0
2021-12-24 14:29:28.086091,9
2021-12-24 14:29:28.086101,23
2021-12-24 14:29:28.086111,30
2021-12-24 14:29:28.086120,30
2021-12-24 14:29:28.086209,30
2021-12-24 14:29:28.086220,33
2021-12-24 14:29:28.086230,42
2021-12-24 14:29:28.086240,44
2021-12-24 14:29:28.086250,37
2021-12-24 14:29:28.086259,37
2021-12-24 14:29:28.086269,37
2021-12-24 14:29:28.086279,33
2021-12-24 14:29:28.086289,33
2021-12-24 14:29:28.086299,35
2021-12-24 14:29:28.086308,30
2021-12-24 14:29:28.086318,30
2021-12-24 14:29:28.086328,28
2021-12-24 14:29:28.086338,33
2021-12-24 14:29:28.086348,42
2021-12-24 14:29:28.086357,42
2021-12-24 14:29:28.086367,30
2021-12-24 14:29:28.086377,26
2021-12-24 14:29:28.086387,21
2021-12-24 14:29:28.086396,18
2021-12-24 14:29:28.086406,44
2021-12-24 14:29:28.086416,85
2021-12-24 14:29:28.356879,89
2021-12-24 14:29:28.356951,78
2021-12-24 14:29:28.356967,66
2021-12-24 14:29:28.356977,42
2021-12-24 14:29:28.356984,16
2021-12-24 14:29:28.356991,16
2021-12-24 14:29:28.356998,28
2021-12-24 14:29:28.357004,21
2021-12-24 14:29:28.357011,16
2021-12-24 14:29:28.357017,26
2021-12-24 14:29:28.357023,30
2021-12-24 14:29:28.357030,28
2021-12-24 14:29:28.357036,35
2021-12-24 14:29:28.357043,68
2021-12-24 14:29:28.357050,158
2021-12-24 14:29:28.357056,336
2021-12-24 14:29:28.357063,516
2021-12-24 14:29:28.357069,397
2021-12-24 14:29:28.357076,-284
2021-12-24 14:29:28.357082,-940
2021-12-24 14:29:28.357089,-670
2021-12-24 14:29:28.357095,-23
2021-12-24 14:29:28.357102,73
2021-12-24 14:29:28.357108,-23
2021-12-24 14:29:28.357114,66
2021-12-24 14:29:28.357121,94
2021-12-24 14:29:28.357127,47
2021-12-24 14:29:28.357134,63
2021-12-24 14:29:28.357140,85
2021-12-24 14:29:28.357147,71
2021-12-24 14:29:28.580153,75
2021-12-24 14:29:28.580174,87
2021-12-24 14:29:28.580182,82
2021-12-24 14:29:28.580189,73
2021-12-24 14:29:28.580195,80
2021-12-24 14:29:28.580202,94
2021-12-24 14:29:28.580208,94
2021-12-24 14:29:28.580214,87
2021-12-24 14:29:28.580221,94
2021-12-24 14:29:28.580227,106
2021-12-24 14:29:28.580233,113
2021-12-24 14:29:28.580240,123
2021-12-24 14:29:28.580246,130
2021-12-24 14:29:28.580252,137
2021-12-24 14:29:28.580259,146
2021-12-24 14:29:28.580265,156
2021-12-24 14:29:28.580271,163
2021-12-24 14:29:28.580278,158
2021-12-24 14:29:28.580284,144
2021-12-24 14:29:28.580290,127
2021-12-24 14:29:28.580297,118
2021-12-24 14:29:28.580303,113
2021-12-24 14:29:28.580309,94
2021-12-24 14:29:28.580316,66
2021-12-24 14:29:28.580322,37
2021-12-24 14:29:28.580328,21
2021-12-24 14:29:28.580335,4
2021-12-24 14:29:28.580341,-4
2021-12-24 14:29:28.580348,0
2021-12-24 14:29:28.580354,0
2021-12-24 14:29:28.851106,0
2021-12-24 14:29:28.851137,9
2021-12-24 14:29:28.851149,18
2021-12-24 14:29:28.851159,23
2021-12-24 14:29:28.851169,26
2021-12-24 14:29:28.851179,30
2021-12-24 14:29:28.851189,33
2021-12-24 14:29:28.851198,37
2021-12-24 14:29:28.851208,42
2021-12-24 14:29:28.851218,42
2021-12-24 14:29:28.851228,40
2021-12-24 14:29:28.851238,47
2021-12-24 14:29:28.851247,47
2021-12-24 14:29:28.851257,35
2021-12-24 14:29:28.851267,30
2021-12-24 14:29:28.851277,47
2021-12-24 14:29:28.851286,52
2021-12-24 14:29:28.851296,42
2021-12-24 14:29:28.851306,40
2021-12-24 14:29:28.851316,42
2021-12-24 14:29:28.851325,35
2021-12-24 14:29:28.851335,23
2021-12-24 14:29:28.851345,33
2021-12-24 14:29:28.851355,56
2021-12-24 14:29:28.851364,71
2021-12-24 14:29:28.851374,80
2021-12-24 14:29:28.851384,85
2021-12-24 14:29:28.851393,73
2021-12-24 14:29:28.851403,54
2021-12-24 14:29:28.851413,35
2021-12-24 14:29:28.986081,33
2021-12-24 14:29:28.986111,47
2021-12-24 14:29:28.986122,56
2021-12-24 14:29:28.986132,44
2021-12-24 14:29:28.986142,37
2021-12-24 14:29:28.986152,47
2021-12-24 14:29:28.986161,47
2021-12-24 14:29:28.986171,42
2021-12-24 14:29:28.986181,66
2021-12-24 14:29:28.986190,153
2021-12-24 14:29:28.986200,326
2021-12-24 14:29:28.986210,511
2021-12-24 14:29:28.986220,459
2021-12-24 14:29:28.986229,-113
2021-12-24 14:29:28.986239,-819
2021-12-24 14:29:28.986249,-738
2021-12-24 14:29:28.986259,-132
2021-12-24 14:29:28.986269,82
2021-12-24 14:29:28.986278,11
2021-12-24 14:29:28.986288,61
2021-12-24 14:29:28.986298,108
2021-12-24 14:29:28.986307,80
2021-12-24 14:29:28.986317,78
2021-12-24 14:29:28.986327,92
2021-12-24 14:29:28.986336,85
2021-12-24 14:29:28.986346,85
2021-12-24 14:29:28.986356,97
2021-12-24 14:29:28.986366,89
2021-12-24 14:29:28.986375,85
2021-12-24 14:29:28.986385,101
2021-12-24 14:29:29.255613,111
2021-12-24 14:29:29.255643,108
2021-12-24 14:29:29.255655,111
2021-12-24 14:29:29.255665,127
2021-12-24 14:29:29.255674,132
2021-12-24 14:29:29.255684,130
2021-12-24 14:29:29.255694,142
2021-12-24 14:29:29.255703,158
2021-12-24 14:29:29.255713,168
2021-12-24 14:29:29.255723,187
2021-12-24 14:29:29.255732,198
2021-12-24 14:29:29.255742,191
2021-12-24 14:29:29.255752,191
2021-12-24 14:29:29.255761,194
2021-12-24 14:29:29.255771,177
2021-12-24 14:29:29.255780,161
2021-12-24 14:29:29.255790,156
2021-12-24 14:29:29.255799,132
2021-12-24 14:29:29.255809,92
2021-12-24 14:29:29.255819,59
2021-12-24 14:29:29.255828,30
2021-12-24 14:29:29.255838,11
2021-12-24 14:29:29.255848,2
2021-12-24 14:29:29.255857,-4
2021-12-24 14:29:29.255867,-4
2021-12-24 14:29:29.255877,2
2021-12-24 14:29:29.255886,11
2021-12-24 14:29:29.255896,11
2021-12-24 14:29:29.255905,14
2021-12-24 14:29:29.255915,28
2021-12-24 14:29:29.524285,35
2021-12-24 14:29:29.524315,40
2021-12-24 14:29:29.524327,42
2021-12-24 14:29:29.524338,49
2021-12-24 14:29:29.524348,54
2021-12-24 14:29:29.524358,52
2021-12-24 14:29:29.524367,52
2021-12-24 14:29:29.524377,61
2021-12-24 14:29:29.524387,59
2021-12-24 14:29:29.524397,61
2021-12-24 14:29:29.524407,75
2021-12-24 14:29:29.524417,82
2021-12-24 14:29:29.524426,80
2021-12-24 14:29:29.524436,78
2021-12-24 14:29:29.524446,61
2021-12-24 14:29:29.524456,28
2021-12-24 14:29:29.524466,9
2021-12-24 14:29:29.524476,16
2021-12-24 14:29:29.524486,26
2021-12-24 14:29:29.524495,23
2021-12-24 14:29:29.524505,21
2021-12-24 14:29:29.524515,28
2021-12-24 14:29:29.524525,35
2021-12-24 14:29:29.524535,35
2021-12-24 14:29:29.524545,30
2021-12-24 14:29:29.524555,54
2021-12-24 14:29:29.524565,137
2021-12-24 14:29:29.524575,293
2021-12-24 14:29:29.524584,438
2021-12-24 14:29:29.524594,291
2021-12-24 14:29:29.706156,-343
2021-12-24 14:29:29.706187,-840
2021-12-24 14:29:29.706199,-499
2021-12-24 14:29:29.706210,33
2021-12-24 14:29:29.706220,94
2021-12-24 14:29:29.706230,37
2021-12-24 14:29:29.706240,101
2021-12-24 14:29:29.706249,120
2021-12-24 14:29:29.706259,89
