Time,ECG
2021-12-24 14:54:06.341384,-414
2021-12-24 14:54:06.341405,106
2021-12-24 14:54:06.341414,54
2021-12-24 14:54:06.341421,2
2021-12-24 14:54:06.341427,108
2021-12-24 14:54:06.341434,101
2021-12-24 14:54:06.341441,63
2021-12-24 14:54:06.341447,92
2021-12-24 14:54:06.341454,99
2021-12-24 14:54:06.341461,82
2021-12-24 14:54:06.341467,87
2021-12-24 14:54:06.341474,99
2021-12-24 14:54:06.341480,92
2021-12-24 14:54:06.341487,89
2021-12-24 14:54:06.341493,94
2021-12-24 14:54:06.341500,94
2021-12-24 14:54:06.341506,99
2021-12-24 14:54:06.341513,111
2021-12-24 14:54:06.341520,120
2021-12-24 14:54:06.341526,130
2021-12-24 14:54:06.341533,142
2021-12-24 14:54:06.341539,139
2021-12-24 14:54:06.341546,134
2021-12-24 14:54:06.341552,139
2021-12-24 14:54:06.341559,151
2021-12-24 14:54:06.341565,144
2021-12-24 14:54:06.341573,127
2021-12-24 14:54:06.341580,125
2021-12-24 14:54:06.341586,116
2021-12-24 14:54:06.341593,99
2021-12-24 14:54:06.521572,94
2021-12-24 14:54:06.521603,80
2021-12-24 14:54:06.521615,59
2021-12-24 14:54:06.521625,42
2021-12-24 14:54:06.521635,35
2021-12-24 14:54:06.521645,33
2021-12-24 14:54:06.521656,33
2021-12-24 14:54:06.521666,33
2021-12-24 14:54:06.521676,28
2021-12-24 14:54:06.521686,23
2021-12-24 14:54:06.521696,28
2021-12-24 14:54:06.521706,37
2021-12-24 14:54:06.521716,42
2021-12-24 14:54:06.521726,44
2021-12-24 14:54:06.521735,44
2021-12-24 14:54:06.521745,44
2021-12-24 14:54:06.521755,49
2021-12-24 14:54:06.521768,54
2021-12-24 14:54:06.521778,54
2021-12-24 14:54:06.521788,59
2021-12-24 14:54:06.521798,63
2021-12-24 14:54:06.521808,63
2021-12-24 14:54:06.521818,59
2021-12-24 14:54:06.521828,56
2021-12-24 14:54:06.521838,61
2021-12-24 14:54:06.521848,71
2021-12-24 14:54:06.521858,78
2021-12-24 14:54:06.521868,89
2021-12-24 14:54:06.521878,99
2021-12-24 14:54:06.521891,85
2021-12-24 14:54:06.791624,54
2021-12-24 14:54:06.791654,35
2021-12-24 14:54:06.791666,40
2021-12-24 14:54:06.791676,33
2021-12-24 14:54:06.791686,23
2021-12-24 14:54:06.791696,30
2021-12-24 14:54:06.791706,33
2021-12-24 14:54:06.791716,26
2021-12-24 14:54:06.791726,23
2021-12-24 14:54:06.791736,21
2021-12-24 14:54:06.791746,18
2021-12-24 14:54:06.791755,63
2021-12-24 14:54:06.791765,203
2021-12-24 14:54:06.791781,400
2021-12-24 14:54:06.791791,483
2021-12-24 14:54:06.791801,144
2021-12-24 14:54:06.791811,-589
2021-12-24 14:54:06.791821,-866
2021-12-24 14:54:06.791831,-322
2021-12-24 14:54:06.791841,89
2021-12-24 14:54:06.791851,2
2021-12-24 14:54:06.791861,-16
2021-12-24 14:54:06.791870,73
2021-12-24 14:54:06.791880,54
2021-12-24 14:54:06.791890,33
2021-12-24 14:54:06.791900,66
2021-12-24 14:54:06.791910,63
2021-12-24 14:54:06.791919,44
2021-12-24 14:54:06.791929,61
2021-12-24 14:54:06.791941,75
2021-12-24 14:54:06.970860,68
2021-12-24 14:54:06.970883,66
2021-12-24 14:54:06.970890,75
2021-12-24 14:54:06.970897,82
2021-12-24 14:54:06.970904,82
2021-12-24 14:54:06.970910,85
2021-12-24 14:54:06.970917,99
2021-12-24 14:54:06.970923,108
2021-12-24 14:54:06.970929,108
2021-12-24 14:54:06.970936,113
2021-12-24 14:54:06.970942,127
2021-12-24 14:54:06.970948,130
2021-12-24 14:54:06.970955,120
2021-12-24 14:54:06.970961,118
2021-12-24 14:54:06.970968,118
2021-12-24 14:54:06.970974,108
2021-12-24 14:54:06.970980,99
2021-12-24 14:54:06.970991,99
2021-12-24 14:54:06.970998,99
2021-12-24 14:54:06.971004,85
2021-12-24 14:54:06.971011,63
2021-12-24 14:54:06.971017,47
2021-12-24 14:54:06.971024,44
2021-12-24 14:54:06.971030,47
2021-12-24 14:54:06.971036,42
2021-12-24 14:54:06.971043,40
2021-12-24 14:54:06.971049,47
2021-12-24 14:54:06.971056,54
2021-12-24 14:54:06.971062,52
2021-12-24 14:54:06.971068,54
2021-12-24 14:54:07.240287,63
2021-12-24 14:54:07.240318,59
2021-12-24 14:54:07.240330,56
2021-12-24 14:54:07.240340,63
2021-12-24 14:54:07.240350,66
2021-12-24 14:54:07.240360,68
2021-12-24 14:54:07.240370,71
2021-12-24 14:54:07.240387,61
2021-12-24 14:54:07.240398,52
2021-12-24 14:54:07.240408,56
2021-12-24 14:54:07.240418,66
2021-12-24 14:54:07.240428,78
2021-12-24 14:54:07.240438,97
2021-12-24 14:54:07.240448,99
2021-12-24 14:54:07.240457,101
2021-12-24 14:54:07.240467,104
2021-12-24 14:54:07.240477,82
2021-12-24 14:54:07.240487,56
2021-12-24 14:54:07.240497,49
2021-12-24 14:54:07.240507,61
2021-12-24 14:54:07.240517,73
2021-12-24 14:54:07.240527,66
2021-12-24 14:54:07.240536,61
2021-12-24 14:54:07.240546,63
2021-12-24 14:54:07.240556,61
2021-12-24 14:54:07.240566,61
2021-12-24 14:54:07.240576,68
2021-12-24 14:54:07.240586,94
2021-12-24 14:54:07.240596,196
2021-12-24 14:54:07.240607,393
2021-12-24 14:54:07.554954,518
2021-12-24 14:54:07.554985,239
2021-12-24 14:54:07.554998,-476
2021-12-24 14:54:07.555008,-852
2021-12-24 14:54:07.555018,-414
2021-12-24 14:54:07.555028,59
2021-12-24 14:54:07.555038,87
2021-12-24 14:54:07.555048,71
2021-12-24 14:54:07.555057,132
2021-12-24 14:54:07.555067,118
2021-12-24 14:54:07.555147,85
2021-12-24 14:54:07.555180,101
2021-12-24 14:54:07.555194,104
2021-12-24 14:54:07.555205,89
2021-12-24 14:54:07.555215,99
2021-12-24 14:54:07.555225,106
2021-12-24 14:54:07.555235,99
2021-12-24 14:54:07.555245,97
2021-12-24 14:54:07.555255,99
2021-12-24 14:54:07.555265,104
2021-12-24 14:54:07.555275,111
2021-12-24 14:54:07.555285,118
2021-12-24 14:54:07.555296,127
2021-12-24 14:54:07.555306,134
2021-12-24 14:54:07.555322,142
2021-12-24 14:54:07.555333,146
2021-12-24 14:54:07.555343,156
2021-12-24 14:54:07.555353,163
2021-12-24 14:54:07.555363,163
2021-12-24 14:54:07.555373,156
2021-12-24 14:54:07.645320,149
2021-12-24 14:54:07.645341,142
2021-12-24 14:54:07.645348,132
2021-12-24 14:54:07.645355,125
2021-12-24 14:54:07.645362,120
2021-12-24 14:54:07.645368,104
2021-12-24 14:54:07.645375,80
2021-12-24 14:54:07.645381,59
2021-12-24 14:54:07.645387,42
2021-12-24 14:54:07.645394,30
2021-12-24 14:54:07.645400,21
2021-12-24 14:54:07.645407,16
2021-12-24 14:54:07.645413,21
2021-12-24 14:54:07.645420,28
2021-12-24 14:54:07.645426,35
2021-12-24 14:54:07.645432,40
2021-12-24 14:54:07.645439,40
2021-12-24 14:54:07.645445,44
2021-12-24 14:54:07.645451,49
2021-12-24 14:54:07.645458,49
2021-12-24 14:54:07.645464,56
2021-12-24 14:54:07.645471,56
2021-12-24 14:54:07.645479,52
2021-12-24 14:54:07.645486,52
2021-12-24 14:54:07.645492,49
2021-12-24 14:54:07.645498,47
2021-12-24 14:54:07.645504,63
2021-12-24 14:54:07.645511,78
2021-12-24 14:54:07.645518,80
2021-12-24 14:54:07.645524,78
2021-12-24 14:54:07.915600,80
2021-12-24 14:54:07.915620,61
2021-12-24 14:54:07.915631,40
2021-12-24 14:54:07.915643,40
2021-12-24 14:54:07.915655,37
2021-12-24 14:54:07.915667,33
2021-12-24 14:54:07.915676,37
2021-12-24 14:54:07.915682,40
2021-12-24 14:54:07.915689,40
2021-12-24 14:54:07.915695,44
2021-12-24 14:54:07.915717,40
2021-12-24 14:54:07.915728,33
2021-12-24 14:54:07.915738,71
2021-12-24 14:54:07.915748,206
2021-12-24 14:54:07.915758,402
2021-12-24 14:54:07.915768,480
2021-12-24 14:54:07.915778,156
2021-12-24 14:54:07.915788,-530
2021-12-24 14:54:07.915798,-762
2021-12-24 14:54:07.915808,-229
2021-12-24 14:54:07.915818,137
2021-12-24 14:54:07.915828,40
2021-12-24 14:54:07.915838,33
2021-12-24 14:54:07.915847,118
2021-12-24 14:54:07.915863,87
2021-12-24 14:54:07.915873,66
2021-12-24 14:54:07.915883,99
2021-12-24 14:54:07.915893,94
2021-12-24 14:54:07.915903,78
2021-12-24 14:54:07.915912,87
2021-12-24 14:54:08.230759,92
2021-12-24 14:54:08.230789,82
2021-12-24 14:54:08.230801,87
2021-12-24 14:54:08.230811,92
2021-12-24 14:54:08.230821,89
2021-12-24 14:54:08.230831,94
2021-12-24 14:54:08.230841,106
2021-12-24 14:54:08.230851,111
2021-12-24 14:54:08.230861,116
2021-12-24 14:54:08.230870,120
2021-12-24 14:54:08.230880,120
2021-12-24 14:54:08.230890,125
2021-12-24 14:54:08.230900,132
2021-12-24 14:54:08.230910,132
2021-12-24 14:54:08.230920,120
2021-12-24 14:54:08.230930,106
2021-12-24 14:54:08.230940,99
2021-12-24 14:54:08.230949,92
2021-12-24 14:54:08.230959,82
2021-12-24 14:54:08.230969,75
2021-12-24 14:54:08.230979,66
2021-12-24 14:54:08.230989,47
2021-12-24 14:54:08.230998,28
2021-12-24 14:54:08.231008,26
2021-12-24 14:54:08.231018,26
2021-12-24 14:54:08.231028,21
2021-12-24 14:54:08.231037,21
2021-12-24 14:54:08.231047,23
2021-12-24 14:54:08.231057,23
2021-12-24 14:54:08.231067,26
2021-12-24 14:54:08.545946,33
2021-12-24 14:54:08.545968,37
2021-12-24 14:54:08.545976,37
2021-12-24 14:54:08.545982,35
2021-12-24 14:54:08.545989,40
2021-12-24 14:54:08.545995,44
2021-12-24 14:54:08.546002,44
2021-12-24 14:54:08.546008,40
2021-12-24 14:54:08.546014,40
2021-12-24 14:54:08.546021,44
2021-12-24 14:54:08.546027,59
2021-12-24 14:54:08.546033,78
2021-12-24 14:54:08.546040,87
2021-12-24 14:54:08.546046,92
2021-12-24 14:54:08.546053,89
2021-12-24 14:54:08.546059,66
2021-12-24 14:54:08.546065,40
2021-12-24 14:54:08.546072,21
2021-12-24 14:54:08.546078,11
2021-12-24 14:54:08.546084,23
2021-12-24 14:54:08.546091,35
2021-12-24 14:54:08.546097,26
2021-12-24 14:54:08.546103,16
2021-12-24 14:54:08.546110,14
2021-12-24 14:54:08.546116,14
2021-12-24 14:54:08.546123,21
2021-12-24 14:54:08.546129,54
2021-12-24 14:54:08.546135,172
2021-12-24 14:54:08.546142,381
2021-12-24 14:54:08.546148,509
2021-12-24 14:54:08.681650,251
2021-12-24 14:54:08.681680,-435
2021-12-24 14:54:08.681693,-767
2021-12-24 14:54:08.681703,-298
2021-12-24 14:54:08.681713,99
2021-12-24 14:54:08.681723,14
2021-12-24 14:54:08.681733,0
2021-12-24 14:54:08.681743,101
2021-12-24 14:54:08.681753,78
2021-12-24 14:54:08.681763,33
2021-12-24 14:54:08.681779,49
2021-12-24 14:54:08.681789,54
2021-12-24 14:54:08.681799,56
2021-12-24 14:54:08.681809,63
2021-12-24 14:54:08.681819,52
2021-12-24 14:54:08.681830,42
2021-12-24 14:54:08.681839,52
2021-12-24 14:54:08.681849,54
2021-12-24 14:54:08.681859,56
2021-12-24 14:54:08.681869,63
2021-12-24 14:54:08.681879,61
2021-12-24 14:54:08.681889,56
2021-12-24 14:54:08.681899,66
2021-12-24 14:54:08.681908,68
2021-12-24 14:54:08.681918,68
2021-12-24 14:54:08.681928,80
2021-12-24 14:54:08.681938,82
2021-12-24 14:54:08.681948,78
2021-12-24 14:54:08.681958,75
2021-12-24 14:54:08.681968,68
2021-12-24 14:54:08.815466,52
2021-12-24 14:54:08.815486,40
2021-12-24 14:54:08.815494,33
2021-12-24 14:54:08.815500,26
2021-12-24 14:54:08.815507,21
2021-12-24 14:54:08.815513,2
2021-12-24 14:54:08.815520,-23
2021-12-24 14:54:08.815526,-35
2021-12-24 14:54:08.815533,-35
2021-12-24 14:54:08.815539,-40
2021-12-24 14:54:08.815546,-44
2021-12-24 14:54:08.815552,-42
2021-12-24 14:54:08.815559,-33
2021-12-24 14:54:08.815565,-33
2021-12-24 14:54:08.815572,-35
2021-12-24 14:54:08.815578,-23
2021-12-24 14:54:08.815584,-11
2021-12-24 14:54:08.815591,-9
2021-12-24 14:54:08.815597,-2
2021-12-24 14:54:08.815604,2
2021-12-24 14:54:08.815610,7
2021-12-24 14:54:08.815617,11
2021-12-24 14:54:08.815623,14
2021-12-24 14:54:08.815629,18
2021-12-24 14:54:08.815636,37
2021-12-24 14:54:08.815646,52
2021-12-24 14:54:08.815653,59
2021-12-24 14:54:08.815659,66
2021-12-24 14:54:08.815665,71
2021-12-24 14:54:08.815672,52
2021-12-24 14:54:09.041638,28
2021-12-24 14:54:09.041668,28
2021-12-24 14:54:09.041680,35
2021-12-24 14:54:09.041691,33
2021-12-24 14:54:09.041701,37
2021-12-24 14:54:09.041711,44
2021-12-24 14:54:09.041721,44
2021-12-24 14:54:09.041731,44
2021-12-24 14:54:09.041741,49
2021-12-24 14:54:09.041751,47
2021-12-24 14:54:09.041761,68
2021-12-24 14:54:09.041771,175
2021-12-24 14:54:09.041781,355
2021-12-24 14:54:09.041791,457
2021-12-24 14:54:09.041801,206
2021-12-24 14:54:09.041811,-452
2021-12-24 14:54:09.041821,-781
2021-12-24 14:54:09.041831,-336
2021-12-24 14:54:09.041841,94
2021-12-24 14:54:09.041851,87
2021-12-24 14:54:09.041862,75
2021-12-24 14:54:09.041872,144
2021-12-24 14:54:09.041882,132
2021-12-24 14:54:09.041891,113
2021-12-24 14:54:09.041901,134
2021-12-24 14:54:09.041911,132
2021-12-24 14:54:09.041921,120
2021-12-24 14:54:09.041931,125
2021-12-24 14:54:09.041941,130
2021-12-24 14:54:09.041951,130
2021-12-24 14:54:09.354931,130
2021-12-24 14:54:09.354966,132
2021-12-24 14:54:09.354974,142
2021-12-24 14:54:09.354981,149
2021-12-24 14:54:09.354988,151
2021-12-24 14:54:09.354994,156
2021-12-24 14:54:09.355001,161
2021-12-24 14:54:09.355007,168
2021-12-24 14:54:09.355013,172
2021-12-24 14:54:09.355020,172
2021-12-24 14:54:09.355026,177
2021-12-24 14:54:09.355033,177
2021-12-24 14:54:09.355039,170
2021-12-24 14:54:09.355045,156
2021-12-24 14:54:09.355052,142
2021-12-24 14:54:09.355058,130
2021-12-24 14:54:09.355069,123
2021-12-24 14:54:09.355075,106
2021-12-24 14:54:09.355081,85
2021-12-24 14:54:09.355088,63
2021-12-24 14:54:09.355094,40
2021-12-24 14:54:09.355100,18
2021-12-24 14:54:09.355107,7
2021-12-24 14:54:09.355113,2
2021-12-24 14:54:09.355119,-2
2021-12-24 14:54:09.355126,0
2021-12-24 14:54:09.355132,2
2021-12-24 14:54:09.355139,7
2021-12-24 14:54:09.355145,11
2021-12-24 14:54:09.355151,18
2021-12-24 14:54:09.446367,23
2021-12-24 14:54:09.446390,30
2021-12-24 14:54:09.446398,33
2021-12-24 14:54:09.446405,35
2021-12-24 14:54:09.446411,35
2021-12-24 14:54:09.446417,33
2021-12-24 14:54:09.446424,33
2021-12-24 14:54:09.446430,42
2021-12-24 14:54:09.446437,56
2021-12-24 14:54:09.446443,71
2021-12-24 14:54:09.446450,78
2021-12-24 14:54:09.446457,80
2021-12-24 14:54:09.446463,71
2021-12-24 14:54:09.446469,47
2021-12-24 14:54:09.446476,33
2021-12-24 14:54:09.446531,35
2021-12-24 14:54:09.446544,33
2021-12-24 14:54:09.446551,28
2021-12-24 14:54:09.446558,28
2021-12-24 14:54:09.446564,30
2021-12-24 14:54:09.446571,35
2021-12-24 14:54:09.446577,37
2021-12-24 14:54:09.446585,30
2021-12-24 14:54:09.446596,30
2021-12-24 14:54:09.446606,89
2021-12-24 14:54:09.446612,232
2021-12-24 14:54:09.446619,367
2021-12-24 14:54:09.446625,317
2021-12-24 14:54:09.446632,-156
2021-12-24 14:54:09.446638,-722
2021-12-24 14:54:09.671610,-547
2021-12-24 14:54:09.671641,35
2021-12-24 14:54:09.671654,132
2021-12-24 14:54:09.671664,18
2021-12-24 14:54:09.671674,92
2021-12-24 14:54:09.671684,123
2021-12-24 14:54:09.671694,73
2021-12-24 14:54:09.671704,89
2021-12-24 14:54:09.671714,111
2021-12-24 14:54:09.671724,97
2021-12-24 14:54:09.671734,92
2021-12-24 14:54:09.671744,101
2021-12-24 14:54:09.671754,101
2021-12-24 14:54:09.671771,101
2021-12-24 14:54:09.671781,106
2021-12-24 14:54:09.671791,108
2021-12-24 14:54:09.671801,111
2021-12-24 14:54:09.671811,113
2021-12-24 14:54:09.671821,118
2021-12-24 14:54:09.671831,123
2021-12-24 14:54:09.671841,125
2021-12-24 14:54:09.671850,130
2021-12-24 14:54:09.671860,134
2021-12-24 14:54:09.671870,127
2021-12-24 14:54:09.671880,123
2021-12-24 14:54:09.671890,120
2021-12-24 14:54:09.671900,106
2021-12-24 14:54:09.671909,92
2021-12-24 14:54:09.671919,80
2021-12-24 14:54:09.671929,71
2021-12-24 14:54:09.941627,61
2021-12-24 14:54:09.941658,52
2021-12-24 14:54:09.941669,40
2021-12-24 14:54:09.941680,28
2021-12-24 14:54:09.941690,16
2021-12-24 14:54:09.941700,11
2021-12-24 14:54:09.941709,14
2021-12-24 14:54:09.941719,16
2021-12-24 14:54:09.941729,18
2021-12-24 14:54:09.941739,18
2021-12-24 14:54:09.941748,21
2021-12-24 14:54:09.941758,26
2021-12-24 14:54:09.941768,33
2021-12-24 14:54:09.941778,37
2021-12-24 14:54:09.941788,42
2021-12-24 14:54:09.941797,44
2021-12-24 14:54:09.941807,47
2021-12-24 14:54:09.941817,54
2021-12-24 14:54:09.941827,59
2021-12-24 14:54:09.941836,59
2021-12-24 14:54:09.941846,61
2021-12-24 14:54:09.941856,56
2021-12-24 14:54:09.941866,49
2021-12-24 14:54:09.941875,47
2021-12-24 14:54:09.941885,54
2021-12-24 14:54:09.941895,68
2021-12-24 14:54:09.941905,85
2021-12-24 14:54:09.941914,92
2021-12-24 14:54:09.941924,85
2021-12-24 14:54:09.941934,75
2021-12-24 14:54:10.210506,56
2021-12-24 14:54:10.210537,42
2021-12-24 14:54:10.210549,37
2021-12-24 14:54:10.210559,37
2021-12-24 14:54:10.210569,37
2021-12-24 14:54:10.210578,40
2021-12-24 14:54:10.210588,42
2021-12-24 14:54:10.210598,44
2021-12-24 14:54:10.210608,42
2021-12-24 14:54:10.210618,35
2021-12-24 14:54:10.210628,44
2021-12-24 14:54:10.210637,113
2021-12-24 14:54:10.210647,265
2021-12-24 14:54:10.210657,423
2021-12-24 14:54:10.210667,414
2021-12-24 14:54:10.210677,-30
2021-12-24 14:54:10.210686,-686
2021-12-24 14:54:10.210704,-667
2021-12-24 14:54:10.210714,-59
2021-12-24 14:54:10.210723,151
2021-12-24 14:54:10.210733,28
2021-12-24 14:54:10.210743,80
2021-12-24 14:54:10.210753,139
2021-12-24 14:54:10.210763,94
2021-12-24 14:54:10.210772,94
2021-12-24 14:54:10.210782,116
2021-12-24 14:54:10.210792,99
2021-12-24 14:54:10.210802,94
2021-12-24 14:54:10.210812,106
2021-12-24 14:54:10.210821,106
2021-12-24 14:54:10.480643,106
2021-12-24 14:54:10.480662,113
2021-12-24 14:54:10.480670,118
2021-12-24 14:54:10.480677,118
2021-12-24 14:54:10.480683,118
2021-12-24 14:54:10.480690,123
2021-12-24 14:54:10.480696,132
2021-12-24 14:54:10.480703,134
2021-12-24 14:54:10.480709,137
2021-12-24 14:54:10.480716,132
2021-12-24 14:54:10.480722,130
2021-12-24 14:54:10.480729,127
2021-12-24 14:54:10.480735,123
2021-12-24 14:54:10.480742,108
2021-12-24 14:54:10.480748,92
2021-12-24 14:54:10.480755,80
2021-12-24 14:54:10.480761,73
2021-12-24 14:54:10.480768,68
2021-12-24 14:54:10.480774,66
2021-12-24 14:54:10.480780,54
2021-12-24 14:54:10.480787,37
2021-12-24 14:54:10.480793,30
2021-12-24 14:54:10.480800,30
2021-12-24 14:54:10.480806,28
2021-12-24 14:54:10.480812,26
2021-12-24 14:54:10.480819,26
2021-12-24 14:54:10.480825,28
2021-12-24 14:54:10.480832,33
2021-12-24 14:54:10.480838,30
2021-12-24 14:54:10.480845,35
2021-12-24 14:54:10.616235,42
2021-12-24 14:54:10.616263,44
2021-12-24 14:54:10.616275,47
2021-12-24 14:54:10.616285,52
2021-12-24 14:54:10.616295,56
2021-12-24 14:54:10.616305,54
2021-12-24 14:54:10.616315,52
2021-12-24 14:54:10.616324,54
2021-12-24 14:54:10.616334,56
2021-12-24 14:54:10.616344,52
2021-12-24 14:54:10.616354,42
2021-12-24 14:54:10.616364,40
2021-12-24 14:54:10.616374,40
2021-12-24 14:54:10.616384,44
2021-12-24 14:54:10.616393,59
2021-12-24 14:54:10.616403,75
2021-12-24 14:54:10.616413,82
2021-12-24 14:54:10.616423,78
2021-12-24 14:54:10.616432,59
2021-12-24 14:54:10.616442,35
2021-12-24 14:54:10.616452,28
2021-12-24 14:54:10.616461,33
2021-12-24 14:54:10.616471,37
2021-12-24 14:54:10.616481,40
2021-12-24 14:54:10.616490,44
2021-12-24 14:54:10.616500,44
2021-12-24 14:54:10.616510,44
2021-12-24 14:54:10.616520,47
2021-12-24 14:54:10.616529,52
2021-12-24 14:54:10.616544,82
2021-12-24 14:54:10.931043,189
2021-12-24 14:54:10.931074,357
2021-12-24 14:54:10.931082,459
2021-12-24 14:54:10.931089,241
2021-12-24 14:54:10.931095,-409
2021-12-24 14:54:10.931102,-840
2021-12-24 14:54:10.931108,-419
2021-12-24 14:54:10.931114,101
2021-12-24 14:54:10.931121,85
2021-12-24 14:54:10.931127,26
2021-12-24 14:54:10.931133,120
2021-12-24 14:54:10.931140,118
2021-12-24 14:54:10.931146,78
2021-12-24 14:54:10.931152,99
2021-12-24 14:54:10.931159,108
2021-12-24 14:54:10.931165,94
2021-12-24 14:54:10.931172,101
2021-12-24 14:54:10.931178,106
2021-12-24 14:54:10.931184,101
2021-12-24 14:54:10.931190,111
2021-12-24 14:54:10.931197,118
2021-12-24 14:54:10.931203,113
2021-12-24 14:54:10.931209,116
2021-12-24 14:54:10.931215,127
2021-12-24 14:54:10.931222,132
2021-12-24 14:54:10.931228,134
2021-12-24 14:54:10.931234,139
2021-12-24 14:54:10.931241,139
2021-12-24 14:54:10.931247,139
2021-12-24 14:54:10.931253,137
2021-12-24 14:54:11.111183,132
2021-12-24 14:54:11.111239,123
2021-12-24 14:54:11.111261,111
2021-12-24 14:54:11.111269,99
2021-12-24 14:54:11.111276,87
2021-12-24 14:54:11.111283,80
2021-12-24 14:54:11.111289,73
2021-12-24 14:54:11.111296,68
2021-12-24 14:54:11.111302,61
2021-12-24 14:54:11.111308,52
2021-12-24 14:54:11.111315,37
2021-12-24 14:54:11.111321,30
2021-12-24 14:54:11.111328,30
2021-12-24 14:54:11.111334,33
2021-12-24 14:54:11.111340,30
2021-12-24 14:54:11.111347,37
2021-12-24 14:54:11.111353,44
2021-12-24 14:54:11.111360,44
2021-12-24 14:54:11.111366,44
2021-12-24 14:54:11.111372,54
2021-12-24 14:54:11.111379,59
2021-12-24 14:54:11.111385,59
2021-12-24 14:54:11.111391,61
2021-12-24 14:54:11.111398,63
2021-12-24 14:54:11.111404,61
2021-12-24 14:54:11.111411,66
2021-12-24 14:54:11.111417,66
2021-12-24 14:54:11.111423,66
2021-12-24 14:54:11.111430,61
2021-12-24 14:54:11.111436,59
2021-12-24 14:54:11.334790,59
2021-12-24 14:54:11.334812,54
2021-12-24 14:54:11.334820,44
2021-12-24 14:54:11.334826,42
2021-12-24 14:54:11.334833,49
2021-12-24 14:54:11.334839,59
2021-12-24 14:54:11.334846,71
2021-12-24 14:54:11.334852,75
2021-12-24 14:54:11.334859,68
2021-12-24 14:54:11.334865,54
2021-12-24 14:54:11.334871,35
2021-12-24 14:54:11.334878,23
2021-12-24 14:54:11.334884,23
2021-12-24 14:54:11.334891,26
2021-12-24 14:54:11.334897,23
2021-12-24 14:54:11.334903,26
2021-12-24 14:54:11.334910,28
2021-12-24 14:54:11.334916,30
2021-12-24 14:54:11.334922,37
2021-12-24 14:54:11.334929,44
2021-12-24 14:54:11.334938,66
2021-12-24 14:54:11.334945,156
2021-12-24 14:54:11.334951,322
2021-12-24 14:54:11.334958,471
2021-12-24 14:54:11.334964,388
2021-12-24 14:54:11.334971,-170
2021-12-24 14:54:11.334977,-805
2021-12-24 14:54:11.334983,-653
2021-12-24 14:54:11.334990,-21
2021-12-24 14:54:11.334996,142
2021-12-24 14:54:11.695985,40
2021-12-24 14:54:11.696015,108
2021-12-24 14:54:11.696027,151
2021-12-24 14:54:11.696037,99
2021-12-24 14:54:11.696047,106
2021-12-24 14:54:11.696057,134
2021-12-24 14:54:11.696066,116
2021-12-24 14:54:11.696076,108
2021-12-24 14:54:11.696086,125
2021-12-24 14:54:11.696096,120
2021-12-24 14:54:11.696105,106
2021-12-24 14:54:11.696115,111
2021-12-24 14:54:11.696125,127
2021-12-24 14:54:11.696135,127
2021-12-24 14:54:11.696144,116
2021-12-24 14:54:11.696154,116
2021-12-24 14:54:11.696164,123
2021-12-24 14:54:11.696173,120
2021-12-24 14:54:11.696183,108
2021-12-24 14:54:11.696193,118
2021-12-24 14:54:11.696202,132
2021-12-24 14:54:11.696212,123
2021-12-24 14:54:11.696222,101
2021-12-24 14:54:11.696232,101
2021-12-24 14:54:11.696241,97
2021-12-24 14:54:11.696251,49
2021-12-24 14:54:11.696261,18
2021-12-24 14:54:11.696270,47
2021-12-24 14:54:11.696280,59
2021-12-24 14:54:11.696290,33
2021-12-24 14:54:11.876633,16
2021-12-24 14:54:11.876664,-2
2021-12-24 14:54:11.876675,-2
2021-12-24 14:54:11.876686,42
2021-12-24 14:54:11.876696,66
2021-12-24 14:54:11.876705,-11
2021-12-24 14:54:11.876715,-68
2021-12-24 14:54:11.876725,21
2021-12-24 14:54:11.876735,56
2021-12-24 14:54:11.876745,-18
2021-12-24 14:54:11.876755,-11
2021-12-24 14:54:11.876765,33
2021-12-24 14:54:11.876775,18
2021-12-24 14:54:11.876785,30
2021-12-24 14:54:11.876795,71
2021-12-24 14:54:11.876805,47
2021-12-24 14:54:11.876815,0
2021-12-24 14:54:11.876824,23
2021-12-24 14:54:11.876834,61
2021-12-24 14:54:11.876844,54
2021-12-24 14:54:11.876854,37
2021-12-24 14:54:11.876864,30
2021-12-24 14:54:11.876873,23
2021-12-24 14:54:11.876883,23
2021-12-24 14:54:11.876893,30
2021-12-24 14:54:11.876903,73
2021-12-24 14:54:11.876913,104
2021-12-24 14:54:11.876922,73
2021-12-24 14:54:11.876932,66
2021-12-24 14:54:11.876942,63
2021-12-24 14:54:12.101346,18
2021-12-24 14:54:12.101377,7
2021-12-24 14:54:12.101388,28
2021-12-24 14:54:12.101399,16
2021-12-24 14:54:12.101408,4
2021-12-24 14:54:12.101418,35
2021-12-24 14:54:12.101428,56
2021-12-24 14:54:12.101438,52
2021-12-24 14:54:12.101447,63
2021-12-24 14:54:12.101457,85
2021-12-24 14:54:12.101467,118
2021-12-24 14:54:12.101476,227
2021-12-24 14:54:12.101486,428
2021-12-24 14:54:12.101496,551
2021-12-24 14:54:12.101506,210
2021-12-24 14:54:12.101516,-568
2021-12-24 14:54:12.101525,-873
2021-12-24 14:54:12.101535,-317
2021-12-24 14:54:12.101545,130
2021-12-24 14:54:12.101555,68
2021-12-24 14:54:12.101565,47
2021-12-24 14:54:12.101574,130
2021-12-24 14:54:12.101589,118
2021-12-24 14:54:12.101599,104
2021-12-24 14:54:12.101608,127
2021-12-24 14:54:12.101618,130
2021-12-24 14:54:12.101628,118
2021-12-24 14:54:12.101638,108
2021-12-24 14:54:12.101647,120
2021-12-24 14:54:12.101657,144
2021-12-24 14:54:12.236274,130
2021-12-24 14:54:12.236304,113
2021-12-24 14:54:12.236316,123
2021-12-24 14:54:12.236326,127
2021-12-24 14:54:12.236336,139
2021-12-24 14:54:12.236346,149
2021-12-24 14:54:12.236355,139
2021-12-24 14:54:12.236365,146
2021-12-24 14:54:12.236375,153
2021-12-24 14:54:12.236385,151
2021-12-24 14:54:12.236394,153
2021-12-24 14:54:12.236404,146
2021-12-24 14:54:12.236414,113
2021-12-24 14:54:12.236424,80
2021-12-24 14:54:12.236433,68
2021-12-24 14:54:12.236443,94
2021-12-24 14:54:12.236453,123
2021-12-24 14:54:12.236463,87
2021-12-24 14:54:12.236472,63
2021-12-24 14:54:12.236482,78
2021-12-24 14:54:12.236492,75
2021-12-24 14:54:12.236502,56
2021-12-24 14:54:12.236511,40
2021-12-24 14:54:12.236521,30
2021-12-24 14:54:12.236531,47
2021-12-24 14:54:12.236541,47
2021-12-24 14:54:12.236551,16
2021-12-24 14:54:12.236560,18
2021-12-24 14:54:12.236570,47
2021-12-24 14:54:12.236580,40
2021-12-24 14:54:12.506533,49
2021-12-24 14:54:12.506564,73
2021-12-24 14:54:12.506576,66
2021-12-24 14:54:12.506586,63
2021-12-24 14:54:12.506596,73
2021-12-24 14:54:12.506606,63
2021-12-24 14:54:12.506615,61
2021-12-24 14:54:12.506625,68
2021-12-24 14:54:12.506635,75
2021-12-24 14:54:12.506645,97
2021-12-24 14:54:12.506654,101
2021-12-24 14:54:12.506664,85
2021-12-24 14:54:12.506674,71
2021-12-24 14:54:12.506684,54
2021-12-24 14:54:12.506694,40
2021-12-24 14:54:12.506703,44
2021-12-24 14:54:12.506713,44
2021-12-24 14:54:12.506723,40
2021-12-24 14:54:12.506733,33
2021-12-24 14:54:12.506742,35
2021-12-24 14:54:12.506752,54
2021-12-24 14:54:12.506762,47
2021-12-24 14:54:12.506771,37
2021-12-24 14:54:12.506781,59
2021-12-24 14:54:12.506791,101
2021-12-24 14:54:12.506800,184
2021-12-24 14:54:12.506810,336
2021-12-24 14:54:12.506820,490
2021-12-24 14:54:12.506830,314
2021-12-24 14:54:12.506839,-376
2021-12-24 14:54:12.686171,-828
2021-12-24 14:54:12.686201,-421
2021-12-24 14:54:12.686213,80
2021-12-24 14:54:12.686223,97
2021-12-24 14:54:12.686233,54
2021-12-24 14:54:12.686242,130
2021-12-24 14:54:12.686252,125
2021-12-24 14:54:12.686262,87
2021-12-24 14:54:12.686272,104
2021-12-24 14:54:12.686281,113
2021-12-24 14:54:12.686291,104
2021-12-24 14:54:12.686301,118
2021-12-24 14:54:12.686310,125
2021-12-24 14:54:12.686320,104
2021-12-24 14:54:12.686330,106
2021-12-24 14:54:12.686340,127
2021-12-24 14:54:12.686349,116
2021-12-24 14:54:12.686359,116
2021-12-24 14:54:12.686369,134
2021-12-24 14:54:12.686378,130
2021-12-24 14:54:12.686388,113
2021-12-24 14:54:12.686398,125
2021-12-24 14:54:12.686408,158
2021-12-24 14:54:12.686417,156
2021-12-24 14:54:12.686427,123
2021-12-24 14:54:12.686437,101
2021-12-24 14:54:12.686446,101
2021-12-24 14:54:12.686456,106
2021-12-24 14:54:12.686466,97
2021-12-24 14:54:12.686475,85
2021-12-24 14:54:12.911471,94
2021-12-24 14:54:12.911493,94
2021-12-24 14:54:12.911500,71
2021-12-24 14:54:12.911507,49
2021-12-24 14:54:12.911514,49
2021-12-24 14:54:12.911523,59
2021-12-24 14:54:12.911530,42
2021-12-24 14:54:12.911536,16
2021-12-24 14:54:12.911543,26
2021-12-24 14:54:12.911549,47
2021-12-24 14:54:12.911556,54
2021-12-24 14:54:12.911562,52
2021-12-24 14:54:12.911569,30
2021-12-24 14:54:12.911575,16
2021-12-24 14:54:12.911581,40
2021-12-24 14:54:12.911588,63
2021-12-24 14:54:12.911594,59
2021-12-24 14:54:12.911600,52
2021-12-24 14:54:12.911607,61
2021-12-24 14:54:12.911613,54
2021-12-24 14:54:12.911620,42
2021-12-24 14:54:12.911626,73
2021-12-24 14:54:12.911632,118
2021-12-24 14:54:12.911639,104
2021-12-24 14:54:12.911645,71
2021-12-24 14:54:12.911652,63
2021-12-24 14:54:12.911658,40
2021-12-24 14:54:12.911664,21
2021-12-24 14:54:12.911671,26
2021-12-24 14:54:12.911677,47
2021-12-24 14:54:13.181286,59
2021-12-24 14:54:13.181308,44
2021-12-24 14:54:13.181316,35
2021-12-24 14:54:13.181323,44
2021-12-24 14:54:13.181329,52
2021-12-24 14:54:13.181335,49
2021-12-24 14:54:13.181342,40
2021-12-24 14:54:13.181348,66
2021-12-24 14:54:13.181354,187
2021-12-24 14:54:13.181360,381
2021-12-24 14:54:13.181367,471
2021-12-24 14:54:13.181373,123
2021-12-24 14:54:13.181379,-561
2021-12-24 14:54:13.181386,-724
2021-12-24 14:54:13.181392,-203
2021-12-24 14:54:13.181398,116
2021-12-24 14:54:13.181405,42
2021-12-24 14:54:13.181411,54
2021-12-24 14:54:13.181417,134
2021-12-24 14:54:13.181423,104
2021-12-24 14:54:13.181430,78
2021-12-24 14:54:13.181436,113
2021-12-24 14:54:13.181442,108
2021-12-24 14:54:13.181448,80
2021-12-24 14:54:13.181455,99
2021-12-24 14:54:13.181461,120
2021-12-24 14:54:13.181467,118
2021-12-24 14:54:13.181473,116
2021-12-24 14:54:13.181480,85
2021-12-24 14:54:13.181486,75
2021-12-24 14:54:13.404176,116
2021-12-24 14:54:13.404196,125
2021-12-24 14:54:13.404204,89
2021-12-24 14:54:13.404211,99
2021-12-24 14:54:13.404217,139
2021-12-24 14:54:13.404224,127
2021-12-24 14:54:13.404230,97
2021-12-24 14:54:13.404236,99
2021-12-24 14:54:13.404243,111
2021-12-24 14:54:13.404249,87
2021-12-24 14:54:13.404255,49
2021-12-24 14:54:13.404262,61
2021-12-24 14:54:13.404268,92
2021-12-24 14:54:13.404274,80
2021-12-24 14:54:13.404281,44
2021-12-24 14:54:13.404287,52
2021-12-24 14:54:13.404294,82
2021-12-24 14:54:13.404300,54
2021-12-24 14:54:13.404306,16
2021-12-24 14:54:13.404313,35
2021-12-24 14:54:13.404319,40
2021-12-24 14:54:13.404325,21
2021-12-24 14:54:13.404332,49
2021-12-24 14:54:13.404338,73
2021-12-24 14:54:13.404344,40
2021-12-24 14:54:13.404351,28
2021-12-24 14:54:13.404357,63
2021-12-24 14:54:13.404364,75
2021-12-24 14:54:13.404370,49
2021-12-24 14:54:13.404377,42
2021-12-24 14:54:13.585858,63
2021-12-24 14:54:13.585880,71
2021-12-24 14:54:13.585888,63
2021-12-24 14:54:13.585895,63
2021-12-24 14:54:13.585901,71
2021-12-24 14:54:13.585908,80
2021-12-24 14:54:13.585914,106
2021-12-24 14:54:13.585920,106
2021-12-24 14:54:13.585927,40
2021-12-24 14:54:13.585933,2
2021-12-24 14:54:13.585939,44
2021-12-24 14:54:13.585946,61
2021-12-24 14:54:13.585952,23
2021-12-24 14:54:13.585958,42
2021-12-24 14:54:13.585965,71
2021-12-24 14:54:13.585971,23
2021-12-24 14:54:13.585978,16
2021-12-24 14:54:13.585984,52
2021-12-24 14:54:13.585990,63
2021-12-24 14:54:13.585997,82
2021-12-24 14:54:13.586003,191
2021-12-24 14:54:13.586010,400
2021-12-24 14:54:13.586016,468
2021-12-24 14:54:13.586023,101
2021-12-24 14:54:13.586029,-525
2021-12-24 14:54:13.586036,-682
2021-12-24 14:54:13.586042,-206
2021-12-24 14:54:13.586048,132
2021-12-24 14:54:13.586055,87
2021-12-24 14:54:13.586061,47
2021-12-24 14:54:13.856621,75
2021-12-24 14:54:13.856656,94
2021-12-24 14:54:13.856668,108
2021-12-24 14:54:13.856679,104
2021-12-24 14:54:13.856688,71
2021-12-24 14:54:13.856698,49
2021-12-24 14:54:13.856708,82
2021-12-24 14:54:13.856718,137
2021-12-24 14:54:13.856728,118
2021-12-24 14:54:13.856738,73
2021-12-24 14:54:13.856748,75
2021-12-24 14:54:13.856758,80
2021-12-24 14:54:13.856768,75
2021-12-24 14:54:13.856777,97
2021-12-24 14:54:13.856787,104
2021-12-24 14:54:13.856797,92
2021-12-24 14:54:13.856807,101
2021-12-24 14:54:13.856817,106
2021-12-24 14:54:13.856827,94
2021-12-24 14:54:13.856837,99
2021-12-24 14:54:13.856846,111
2021-12-24 14:54:13.856856,108
2021-12-24 14:54:13.856866,80
2021-12-24 14:54:13.856876,52
2021-12-24 14:54:13.856886,68
2021-12-24 14:54:13.856896,82
2021-12-24 14:54:13.856906,82
2021-12-24 14:54:13.856916,94
2021-12-24 14:54:13.856926,61
2021-12-24 14:54:13.856935,63
2021-12-24 14:54:14.126720,111
2021-12-24 14:54:14.126752,42
2021-12-24 14:54:14.126797,-30
2021-12-24 14:54:14.126807,23
2021-12-24 14:54:14.126817,78
2021-12-24 14:54:14.126826,89
2021-12-24 14:54:14.126836,97
2021-12-24 14:54:14.126846,56
2021-12-24 14:54:14.126856,30
2021-12-24 14:54:14.126865,56
2021-12-24 14:54:14.126875,73
2021-12-24 14:54:14.126885,78
2021-12-24 14:54:14.126895,73
2021-12-24 14:54:14.126905,56
2021-12-24 14:54:14.126914,66
2021-12-24 14:54:14.126924,80
2021-12-24 14:54:14.126934,80
2021-12-24 14:54:14.126943,89
2021-12-24 14:54:14.126953,63
2021-12-24 14:54:14.126963,11
2021-12-24 14:54:14.126972,0
2021-12-24 14:54:14.126982,14
2021-12-24 14:54:14.126992,63
2021-12-24 14:54:14.127001,106
2021-12-24 14:54:14.127011,68
2021-12-24 14:54:14.127021,33
2021-12-24 14:54:14.127031,42
2021-12-24 14:54:14.127040,63
2021-12-24 14:54:14.127050,94
2021-12-24 14:54:14.127060,163
2021-12-24 14:54:14.305865,298
2021-12-24 14:54:14.305884,457
2021-12-24 14:54:14.305892,466
2021-12-24 14:54:14.305899,35
2021-12-24 14:54:14.305905,-594
2021-12-24 14:54:14.305912,-599
2021-12-24 14:54:14.305918,-80
2021-12-24 14:54:14.305925,130
2021-12-24 14:54:14.305931,68
2021-12-24 14:54:14.305937,94
2021-12-24 14:54:14.305944,104
2021-12-24 14:54:14.305950,75
2021-12-24 14:54:14.305956,99
2021-12-24 14:54:14.305963,106
2021-12-24 14:54:14.305969,85
2021-12-24 14:54:14.305976,87
2021-12-24 14:54:14.305982,94
2021-12-24 14:54:14.305988,89
2021-12-24 14:54:14.305995,101
2021-12-24 14:54:14.306001,116
2021-12-24 14:54:14.306007,116
2021-12-24 14:54:14.306014,116
2021-12-24 14:54:14.306020,118
2021-12-24 14:54:14.306026,123
2021-12-24 14:54:14.306033,123
2021-12-24 14:54:14.306039,113
2021-12-24 14:54:14.306046,104
2021-12-24 14:54:14.306052,111
2021-12-24 14:54:14.306058,106
2021-12-24 14:54:14.306065,89
2021-12-24 14:54:14.531051,78
2021-12-24 14:54:14.531072,61
2021-12-24 14:54:14.531080,42
2021-12-24 14:54:14.531128,40
2021-12-24 14:54:14.531165,40
2021-12-24 14:54:14.531173,35
2021-12-24 14:54:14.531179,26
2021-12-24 14:54:14.531185,7
2021-12-24 14:54:14.531192,-18
2021-12-24 14:54:14.531199,-35
2021-12-24 14:54:14.531205,-37
2021-12-24 14:54:14.531240,-35
2021-12-24 14:54:14.531250,-37
2021-12-24 14:54:14.531257,-35
2021-12-24 14:54:14.531263,-30
2021-12-24 14:54:14.531270,-26
2021-12-24 14:54:14.531276,-18
2021-12-24 14:54:14.531282,-11
2021-12-24 14:54:14.531289,-9
2021-12-24 14:54:14.531295,-4
2021-12-24 14:54:14.531301,7
2021-12-24 14:54:14.531310,26
2021-12-24 14:54:14.531321,42
2021-12-24 14:54:14.531331,35
2021-12-24 14:54:14.531337,30
2021-12-24 14:54:14.531344,37
2021-12-24 14:54:14.531350,18
2021-12-24 14:54:14.531356,-4
2021-12-24 14:54:14.531363,-2
2021-12-24 14:54:14.531369,2
2021-12-24 14:54:14.756170,-2
2021-12-24 14:54:14.756200,-4
2021-12-24 14:54:14.756212,4
2021-12-24 14:54:14.756222,14
2021-12-24 14:54:14.756231,18
2021-12-24 14:54:14.756241,4
2021-12-24 14:54:14.756251,-28
2021-12-24 14:54:14.756260,-4
2021-12-24 14:54:14.756270,132
2021-12-24 14:54:14.756280,319
2021-12-24 14:54:14.756289,336
2021-12-24 14:54:14.756304,-111
2021-12-24 14:54:14.756313,-764
2021-12-24 14:54:14.756323,-774
2021-12-24 14:54:14.756333,-189
2021-12-24 14:54:14.756343,97
2021-12-24 14:54:14.756353,35
2021-12-24 14:54:14.756362,54
2021-12-24 14:54:14.756372,101
2021-12-24 14:54:14.756382,71
2021-12-24 14:54:14.756391,71
2021-12-24 14:54:14.756401,97
2021-12-24 14:54:14.756411,89
2021-12-24 14:54:14.756420,82
2021-12-24 14:54:14.756430,89
2021-12-24 14:54:14.756439,89
2021-12-24 14:54:14.756449,89
2021-12-24 14:54:14.756458,92
2021-12-24 14:54:14.756468,94
2021-12-24 14:54:14.756477,101
2021-12-24 14:54:15.026598,108
2021-12-24 14:54:15.026629,113
2021-12-24 14:54:15.026641,123
2021-12-24 14:54:15.026651,130
2021-12-24 14:54:15.026661,132
2021-12-24 14:54:15.026670,127
2021-12-24 14:54:15.026680,130
2021-12-24 14:54:15.026690,132
2021-12-24 14:54:15.026700,118
2021-12-24 14:54:15.026709,106
2021-12-24 14:54:15.026719,101
2021-12-24 14:54:15.026729,92
2021-12-24 14:54:15.026739,82
2021-12-24 14:54:15.026748,71
2021-12-24 14:54:15.026758,52
2021-12-24 14:54:15.026768,28
2021-12-24 14:54:15.026778,7
2021-12-24 14:54:15.026788,-11
2021-12-24 14:54:15.026797,-18
2021-12-24 14:54:15.026807,-23
2021-12-24 14:54:15.026817,-30
2021-12-24 14:54:15.026827,-30
2021-12-24 14:54:15.026836,-26
2021-12-24 14:54:15.026846,-23
2021-12-24 14:54:15.026856,-18
2021-12-24 14:54:15.026866,-14
2021-12-24 14:54:15.026876,-11
2021-12-24 14:54:15.026885,-7
2021-12-24 14:54:15.026895,4
2021-12-24 14:54:15.026905,9
2021-12-24 14:54:15.206577,11
2021-12-24 14:54:15.206607,28
2021-12-24 14:54:15.206619,30
2021-12-24 14:54:15.206630,0
2021-12-24 14:54:15.206640,-21
2021-12-24 14:54:15.206650,-16
2021-12-24 14:54:15.206660,-14
2021-12-24 14:54:15.206670,-11
2021-12-24 14:54:15.206680,-7
2021-12-24 14:54:15.206690,-2
2021-12-24 14:54:15.206700,0
2021-12-24 14:54:15.206710,2
2021-12-24 14:54:15.206720,2
2021-12-24 14:54:15.206730,7
2021-12-24 14:54:15.206740,44
2021-12-24 14:54:15.206750,163
2021-12-24 14:54:15.206760,345
2021-12-24 14:54:15.206770,359
2021-12-24 14:54:15.206780,-108
2021-12-24 14:54:15.206790,-769
2021-12-24 14:54:15.206799,-762
2021-12-24 14:54:15.206809,-187
2021-12-24 14:54:15.206819,87
2021-12-24 14:54:15.206829,44
2021-12-24 14:54:15.206839,75
2021-12-24 14:54:15.206849,116
2021-12-24 14:54:15.206859,92
2021-12-24 14:54:15.206869,94
2021-12-24 14:54:15.206878,111
2021-12-24 14:54:15.206888,106
2021-12-24 14:54:15.519862,104
2021-12-24 14:54:15.519882,108
2021-12-24 14:54:15.519889,111
2021-12-24 14:54:15.519896,111
2021-12-24 14:54:15.519902,113
2021-12-24 14:54:15.519909,116
2021-12-24 14:54:15.519915,120
2021-12-24 14:54:15.519922,127
2021-12-24 14:54:15.519928,139
2021-12-24 14:54:15.519934,142
2021-12-24 14:54:15.519941,137
2021-12-24 14:54:15.519947,146
2021-12-24 14:54:15.519954,153
2021-12-24 14:54:15.519960,146
2021-12-24 14:54:15.519966,149
2021-12-24 14:54:15.519973,151
2021-12-24 14:54:15.519979,134
2021-12-24 14:54:15.519986,125
2021-12-24 14:54:15.519992,127
2021-12-24 14:54:15.519999,120
2021-12-24 14:54:15.520005,104
2021-12-24 14:54:15.520011,82
2021-12-24 14:54:15.520018,54
2021-12-24 14:54:15.520024,30
2021-12-24 14:54:15.520030,11
2021-12-24 14:54:15.520037,0
2021-12-24 14:54:15.520043,-4
2021-12-24 14:54:15.520050,-7
2021-12-24 14:54:15.520056,-2
2021-12-24 14:54:15.520063,9
2021-12-24 14:54:15.925866,23
2021-12-24 14:54:15.925888,28
2021-12-24 14:54:15.925896,21
2021-12-24 14:54:15.925902,18
2021-12-24 14:54:15.925909,33
2021-12-24 14:54:15.925915,49
2021-12-24 14:54:15.925930,68
2021-12-24 14:54:15.925937,80
2021-12-24 14:54:15.925943,87
2021-12-24 14:54:15.925949,87
2021-12-24 14:54:15.925956,75
2021-12-24 14:54:15.925962,54
2021-12-24 14:54:15.925968,44
2021-12-24 14:54:15.925975,40
2021-12-24 14:54:15.925981,35
2021-12-24 14:54:15.925987,37
2021-12-24 14:54:15.925993,42
2021-12-24 14:54:15.926000,42
2021-12-24 14:54:15.926006,52
2021-12-24 14:54:15.926012,56
2021-12-24 14:54:15.926019,52
2021-12-24 14:54:15.926025,52
2021-12-24 14:54:15.926031,116
2021-12-24 14:54:15.926037,291
2021-12-24 14:54:15.926044,449
2021-12-24 14:54:15.926050,269
2021-12-24 14:54:15.926057,-376
2021-12-24 14:54:15.926063,-833
2021-12-24 14:54:15.926069,-478
2021-12-24 14:54:15.926076,35
2021-12-24 14:54:16.061257,89
2021-12-24 14:54:16.061288,49
2021-12-24 14:54:16.061300,104
2021-12-24 14:54:16.061311,97
2021-12-24 14:54:16.061320,75
2021-12-24 14:54:16.061330,101
2021-12-24 14:54:16.061340,106
2021-12-24 14:54:16.061350,94
2021-12-24 14:54:16.061365,99
2021-12-24 14:54:16.061374,104
2021-12-24 14:54:16.061384,106
2021-12-24 14:54:16.061394,113
2021-12-24 14:54:16.061404,118
2021-12-24 14:54:16.061414,123
2021-12-24 14:54:16.061424,130
2021-12-24 14:54:16.061433,139
2021-12-24 14:54:16.061443,153
2021-12-24 14:54:16.061453,165
2021-12-24 14:54:16.061463,175
2021-12-24 14:54:16.061473,179
2021-12-24 14:54:16.061483,179
2021-12-24 14:54:16.061493,184
2021-12-24 14:54:16.061502,184
2021-12-24 14:54:16.061512,184
2021-12-24 14:54:16.061522,177
2021-12-24 14:54:16.061532,165
2021-12-24 14:54:16.061542,163
2021-12-24 14:54:16.061551,163
2021-12-24 14:54:16.061561,149
2021-12-24 14:54:16.061571,127
2021-12-24 14:54:16.151582,99
2021-12-24 14:54:16.151612,73
2021-12-24 14:54:16.151624,59
2021-12-24 14:54:16.151634,49
2021-12-24 14:54:16.151644,42
2021-12-24 14:54:16.151653,47
2021-12-24 14:54:16.151663,52
2021-12-24 14:54:16.151673,52
2021-12-24 14:54:16.151683,54
2021-12-24 14:54:16.151692,59
2021-12-24 14:54:16.151702,68
2021-12-24 14:54:16.151712,73
2021-12-24 14:54:16.151721,73
2021-12-24 14:54:16.151731,68
2021-12-24 14:54:16.151741,68
2021-12-24 14:54:16.151750,73
2021-12-24 14:54:16.151760,89
2021-12-24 14:54:16.151770,108
2021-12-24 14:54:16.151779,113
2021-12-24 14:54:16.151789,106
2021-12-24 14:54:16.151799,104
2021-12-24 14:54:16.151808,89
2021-12-24 14:54:16.151818,66
2021-12-24 14:54:16.151827,59
2021-12-24 14:54:16.151837,59
2021-12-24 14:54:16.151847,54
2021-12-24 14:54:16.151856,49
2021-12-24 14:54:16.151866,49
2021-12-24 14:54:16.151876,54
2021-12-24 14:54:16.151885,54
2021-12-24 14:54:16.421398,42
2021-12-24 14:54:16.421452,30
2021-12-24 14:54:16.421502,87
2021-12-24 14:54:16.421539,260
2021-12-24 14:54:16.421561,461
2021-12-24 14:54:16.421574,473
2021-12-24 14:54:16.421582,16
2021-12-24 14:54:16.421589,-637
2021-12-24 14:54:16.421595,-618
2021-12-24 14:54:16.421602,-52
2021-12-24 14:54:16.421608,118
2021-12-24 14:54:16.421615,-4
2021-12-24 14:54:16.421621,49
2021-12-24 14:54:16.421628,104
2021-12-24 14:54:16.421634,63
2021-12-24 14:54:16.421641,68
2021-12-24 14:54:16.421647,94
2021-12-24 14:54:16.421653,80
2021-12-24 14:54:16.421660,75
2021-12-24 14:54:16.421666,89
2021-12-24 14:54:16.421672,92
2021-12-24 14:54:16.421679,94
2021-12-24 14:54:16.421685,99
2021-12-24 14:54:16.421692,108
2021-12-24 14:54:16.421698,113
2021-12-24 14:54:16.421704,118
2021-12-24 14:54:16.421711,125
2021-12-24 14:54:16.421717,132
2021-12-24 14:54:16.421723,139
2021-12-24 14:54:16.421730,146
2021-12-24 14:54:16.690566,151
2021-12-24 14:54:16.690588,153
2021-12-24 14:54:16.690597,153
2021-12-24 14:54:16.690603,151
2021-12-24 14:54:16.690608,151
2021-12-24 14:54:16.690613,139
2021-12-24 14:54:16.690618,123
2021-12-24 14:54:16.690623,116
2021-12-24 14:54:16.690628,111
2021-12-24 14:54:16.690633,94
2021-12-24 14:54:16.690639,73
2021-12-24 14:54:16.690644,56
2021-12-24 14:54:16.690649,42
2021-12-24 14:54:16.690654,35
2021-12-24 14:54:16.690661,33
2021-12-24 14:54:16.690667,35
2021-12-24 14:54:16.690673,37
2021-12-24 14:54:16.690713,35
2021-12-24 14:54:16.690722,35
2021-12-24 14:54:16.690727,40
2021-12-24 14:54:16.690733,44
2021-12-24 14:54:16.690738,44
2021-12-24 14:54:16.690743,44
2021-12-24 14:54:16.690748,52
2021-12-24 14:54:16.690753,54
2021-12-24 14:54:16.690758,56
2021-12-24 14:54:16.690763,61
2021-12-24 14:54:16.690768,63
2021-12-24 14:54:16.690773,66
2021-12-24 14:54:16.690778,63
2021-12-24 14:54:16.826509,54
2021-12-24 14:54:16.826526,47
2021-12-24 14:54:16.826533,52
2021-12-24 14:54:16.826538,63
2021-12-24 14:54:16.826543,85
2021-12-24 14:54:16.826548,89
2021-12-24 14:54:16.826553,82
2021-12-24 14:54:16.826558,80
2021-12-24 14:54:16.826563,61
2021-12-24 14:54:16.826568,33
2021-12-24 14:54:16.826574,26
2021-12-24 14:54:16.826579,28
2021-12-24 14:54:16.826584,23
2021-12-24 14:54:16.826589,23
2021-12-24 14:54:16.826594,28
2021-12-24 14:54:16.826599,30
2021-12-24 14:54:16.826604,33
2021-12-24 14:54:16.826609,33
2021-12-24 14:54:16.826614,37
2021-12-24 14:54:16.826619,99
2021-12-24 14:54:16.826624,260
2021-12-24 14:54:16.826629,473
2021-12-24 14:54:16.826634,554
2021-12-24 14:54:16.826639,179
2021-12-24 14:54:16.826645,-551
2021-12-24 14:54:16.826650,-745
2021-12-24 14:54:16.826655,-201
2021-12-24 14:54:16.826660,104
2021-12-24 14:54:16.826665,-7
2021-12-24 14:54:16.826670,16
2021-12-24 14:54:17.051639,99
2021-12-24 14:54:17.051671,59
2021-12-24 14:54:17.051683,47
2021-12-24 14:54:17.051693,80
2021-12-24 14:54:17.051703,68
2021-12-24 14:54:17.051712,56
2021-12-24 14:54:17.051722,68
2021-12-24 14:54:17.051732,75
2021-12-24 14:54:17.051741,73
2021-12-24 14:54:17.051751,78
2021-12-24 14:54:17.051761,85
2021-12-24 14:54:17.051771,85
2021-12-24 14:54:17.051780,89
2021-12-24 14:54:17.051790,99
2021-12-24 14:54:17.051800,111
2021-12-24 14:54:17.051809,118
2021-12-24 14:54:17.051819,125
2021-12-24 14:54:17.051829,130
2021-12-24 14:54:17.051839,137
2021-12-24 14:54:17.051849,142
2021-12-24 14:54:17.051859,144
2021-12-24 14:54:17.051868,139
2021-12-24 14:54:17.051878,130
2021-12-24 14:54:17.051893,123
2021-12-24 14:54:17.051903,120
2021-12-24 14:54:17.051912,113
2021-12-24 14:54:17.051922,94
2021-12-24 14:54:17.051932,68
2021-12-24 14:54:17.051941,42
2021-12-24 14:54:17.051951,18
2021-12-24 14:54:17.320831,7
2021-12-24 14:54:17.320853,0
2021-12-24 14:54:17.320861,-7
2021-12-24 14:54:17.320868,-16
2021-12-24 14:54:17.320874,-16
2021-12-24 14:54:17.320881,-9
2021-12-24 14:54:17.320887,-4
2021-12-24 14:54:17.320894,0
2021-12-24 14:54:17.320900,4
2021-12-24 14:54:17.320907,2
2021-12-24 14:54:17.320913,0
2021-12-24 14:54:17.320919,9
2021-12-24 14:54:17.320926,14
2021-12-24 14:54:17.320932,16
2021-12-24 14:54:17.320938,23
2021-12-24 14:54:17.320945,26
2021-12-24 14:54:17.320951,28
2021-12-24 14:54:17.320958,30
2021-12-24 14:54:17.320964,23
2021-12-24 14:54:17.320971,9
2021-12-24 14:54:17.320977,7
2021-12-24 14:54:17.320983,9
2021-12-24 14:54:17.320990,16
2021-12-24 14:54:17.320996,33
2021-12-24 14:54:17.321002,42
2021-12-24 14:54:17.321009,40
2021-12-24 14:54:17.321015,35
2021-12-24 14:54:17.321022,21
2021-12-24 14:54:17.321028,-2
2021-12-24 14:54:17.321034,-2
2021-12-24 14:54:17.589792,7
2021-12-24 14:54:17.589812,2
2021-12-24 14:54:17.589820,0
2021-12-24 14:54:17.589827,7
2021-12-24 14:54:17.589833,14
2021-12-24 14:54:17.589840,11
2021-12-24 14:54:17.589846,14
2021-12-24 14:54:17.589852,52
2021-12-24 14:54:17.589859,161
2021-12-24 14:54:17.589865,355
2021-12-24 14:54:17.589872,520
2021-12-24 14:54:17.589878,378
2021-12-24 14:54:17.589885,-277
2021-12-24 14:54:17.589891,-828
2021-12-24 14:54:17.589897,-525
2021-12-24 14:54:17.589904,11
2021-12-24 14:54:17.589910,56
2021-12-24 14:54:17.589917,-4
2021-12-24 14:54:17.589923,80
2021-12-24 14:54:17.589929,94
2021-12-24 14:54:17.589936,59
2021-12-24 14:54:17.589942,73
2021-12-24 14:54:17.589948,87
2021-12-24 14:54:17.589955,78
2021-12-24 14:54:17.589961,87
2021-12-24 14:54:17.589967,97
2021-12-24 14:54:17.589974,92
2021-12-24 14:54:17.589980,92
2021-12-24 14:54:17.589987,104
2021-12-24 14:54:17.589993,113
2021-12-24 14:54:17.860507,120
2021-12-24 14:54:17.860526,127
2021-12-24 14:54:17.860534,137
2021-12-24 14:54:17.860541,144
2021-12-24 14:54:17.860547,151
2021-12-24 14:54:17.860554,161
2021-12-24 14:54:17.860560,168
2021-12-24 14:54:17.860566,177
2021-12-24 14:54:17.860573,179
2021-12-24 14:54:17.860579,172
2021-12-24 14:54:17.860586,168
2021-12-24 14:54:17.860592,165
2021-12-24 14:54:17.860599,156
2021-12-24 14:54:17.860605,146
2021-12-24 14:54:17.860612,132
2021-12-24 14:54:17.860618,104
2021-12-24 14:54:17.860624,71
2021-12-24 14:54:17.860631,40
2021-12-24 14:54:17.860637,21
2021-12-24 14:54:17.860644,11
2021-12-24 14:54:17.860650,4
2021-12-24 14:54:17.860656,2
2021-12-24 14:54:17.860663,2
2021-12-24 14:54:17.860669,2
2021-12-24 14:54:17.860676,0
2021-12-24 14:54:17.860683,0
2021-12-24 14:54:17.860689,4
2021-12-24 14:54:17.860695,9
2021-12-24 14:54:17.860702,11
2021-12-24 14:54:17.860708,14
2021-12-24 14:54:17.996687,18
2021-12-24 14:54:17.996717,23
2021-12-24 14:54:17.996728,26
2021-12-24 14:54:17.996739,28
2021-12-24 14:54:17.996748,30
2021-12-24 14:54:17.996758,35
2021-12-24 14:54:17.996768,40
2021-12-24 14:54:17.996778,49
2021-12-24 14:54:17.996788,61
2021-12-24 14:54:17.996797,71
2021-12-24 14:54:17.996807,71
2021-12-24 14:54:17.996817,61
2021-12-24 14:54:17.996827,44
2021-12-24 14:54:17.996836,30
2021-12-24 14:54:17.996846,28
2021-12-24 14:54:17.996856,30
2021-12-24 14:54:17.996866,28
2021-12-24 14:54:17.996875,33
2021-12-24 14:54:17.996885,40
2021-12-24 14:54:17.996895,37
2021-12-24 14:54:17.996905,33
2021-12-24 14:54:17.996914,42
2021-12-24 14:54:17.996924,108
2021-12-24 14:54:17.996934,265
2021-12-24 14:54:17.996943,447
2021-12-24 14:54:17.996953,459
2021-12-24 14:54:17.996963,28
2021-12-24 14:54:17.996973,-637
2021-12-24 14:54:17.996983,-655
2021-12-24 14:54:17.996993,-73
2021-12-24 14:54:18.221650,139
2021-12-24 14:54:18.221680,16
2021-12-24 14:54:18.221692,63
2021-12-24 14:54:18.221702,130
2021-12-24 14:54:18.221712,85
2021-12-24 14:54:18.221721,87
2021-12-24 14:54:18.221731,113
2021-12-24 14:54:18.221741,99
2021-12-24 14:54:18.221751,92
2021-12-24 14:54:18.221761,104
2021-12-24 14:54:18.221770,101
2021-12-24 14:54:18.221780,104
2021-12-24 14:54:18.221790,108
2021-12-24 14:54:18.221800,106
2021-12-24 14:54:18.221810,116
2021-12-24 14:54:18.221819,130
2021-12-24 14:54:18.221829,137
2021-12-24 14:54:18.221839,142
2021-12-24 14:54:18.221849,149
2021-12-24 14:54:18.221859,149
2021-12-24 14:54:18.221869,163
2021-12-24 14:54:18.221878,187
2021-12-24 14:54:18.221888,191
2021-12-24 14:54:18.221898,191
2021-12-24 14:54:18.221908,191
2021-12-24 14:54:18.221918,175
2021-12-24 14:54:18.221927,165
2021-12-24 14:54:18.221937,172
2021-12-24 14:54:18.221947,156
2021-12-24 14:54:18.221957,116
2021-12-24 14:54:18.446793,75
2021-12-24 14:54:18.446823,44
2021-12-24 14:54:18.446836,26
2021-12-24 14:54:18.446846,11
2021-12-24 14:54:18.446856,4
2021-12-24 14:54:18.446866,0
2021-12-24 14:54:18.446876,-9
2021-12-24 14:54:18.446886,-11
2021-12-24 14:54:18.446896,-11
2021-12-24 14:54:18.446906,-11
2021-12-24 14:54:18.446916,-9
2021-12-24 14:54:18.446926,-14
2021-12-24 14:54:18.446936,-26
2021-12-24 14:54:18.446946,-21
2021-12-24 14:54:18.446955,-7
2021-12-24 14:54:18.446965,-4
2021-12-24 14:54:18.446975,-4
2021-12-24 14:54:18.446985,9
2021-12-24 14:54:18.446995,16
2021-12-24 14:54:18.447005,11
2021-12-24 14:54:18.447015,21
2021-12-24 14:54:18.447025,26
2021-12-24 14:54:18.447035,21
2021-12-24 14:54:18.447044,11
2021-12-24 14:54:18.447054,9
2021-12-24 14:54:18.447064,23
2021-12-24 14:54:18.447074,37
2021-12-24 14:54:18.447083,49
2021-12-24 14:54:18.447093,66
2021-12-24 14:54:18.447112,66
2021-12-24 14:54:18.761019,47
2021-12-24 14:54:18.761049,35
2021-12-24 14:54:18.761060,35
2021-12-24 14:54:18.761071,40
2021-12-24 14:54:18.761080,40
2021-12-24 14:54:18.761090,33
2021-12-24 14:54:18.761099,26
2021-12-24 14:54:18.761109,35
2021-12-24 14:54:18.761119,42
2021-12-24 14:54:18.761128,42
2021-12-24 14:54:18.761138,80
2021-12-24 14:54:18.761148,187
2021-12-24 14:54:18.761158,345
2021-12-24 14:54:18.761167,476
2021-12-24 14:54:18.761177,359
2021-12-24 14:54:18.761187,-232
2021-12-24 14:54:18.761196,-814
2021-12-24 14:54:18.761206,-547
2021-12-24 14:54:18.761216,54
2021-12-24 14:54:18.761226,111
2021-12-24 14:54:18.761235,18
2021-12-24 14:54:18.761245,118
2021-12-24 14:54:18.761254,132
2021-12-24 14:54:18.761264,75
2021-12-24 14:54:18.761274,104
2021-12-24 14:54:18.761283,127
2021-12-24 14:54:18.761293,106
2021-12-24 14:54:18.761303,106
2021-12-24 14:54:18.761312,118
2021-12-24 14:54:18.761322,120
2021-12-24 14:54:18.896681,123
2021-12-24 14:54:18.896703,123
2021-12-24 14:54:18.896710,120
2021-12-24 14:54:18.896717,130
2021-12-24 14:54:18.896723,142
2021-12-24 14:54:18.896729,142
2021-12-24 14:54:18.896736,142
2021-12-24 14:54:18.896742,149
2021-12-24 14:54:18.896748,156
2021-12-24 14:54:18.896755,165
2021-12-24 14:54:18.896761,170
2021-12-24 14:54:18.896767,161
2021-12-24 14:54:18.896774,158
2021-12-24 14:54:18.896780,156
2021-12-24 14:54:18.896786,139
2021-12-24 14:54:18.896793,120
2021-12-24 14:54:18.896799,104
2021-12-24 14:54:18.896805,94
2021-12-24 14:54:18.896811,89
2021-12-24 14:54:18.896818,61
2021-12-24 14:54:18.896824,28
2021-12-24 14:54:18.896830,16
2021-12-24 14:54:18.896837,4
2021-12-24 14:54:18.896843,-7
2021-12-24 14:54:18.896849,-16
2021-12-24 14:54:18.896856,-14
2021-12-24 14:54:18.896862,7
2021-12-24 14:54:18.896868,18
2021-12-24 14:54:18.896875,0
2021-12-24 14:54:18.896881,-7
2021-12-24 14:54:19.120964,21
2021-12-24 14:54:19.120984,35
2021-12-24 14:54:19.120991,26
2021-12-24 14:54:19.120996,18
2021-12-24 14:54:19.121001,23
2021-12-24 14:54:19.121006,35
2021-12-24 14:54:19.121011,42
2021-12-24 14:54:19.121016,44
2021-12-24 14:54:19.121021,52
2021-12-24 14:54:19.121026,66
2021-12-24 14:54:19.121032,68
2021-12-24 14:54:19.121037,54
2021-12-24 14:54:19.121042,40
2021-12-24 14:54:19.121047,42
2021-12-24 14:54:19.121052,52
2021-12-24 14:54:19.121057,47
2021-12-24 14:54:19.121062,40
2021-12-24 14:54:19.121067,49
2021-12-24 14:54:19.121072,54
2021-12-24 14:54:19.121077,42
2021-12-24 14:54:19.121082,37
2021-12-24 14:54:19.121087,44
2021-12-24 14:54:19.121092,42
2021-12-24 14:54:19.121097,56
2021-12-24 14:54:19.121102,78
2021-12-24 14:54:19.121107,82
2021-12-24 14:54:19.121113,94
2021-12-24 14:54:19.121118,99
2021-12-24 14:54:19.121123,66
2021-12-24 14:54:19.121128,47
2021-12-24 14:54:19.391679,52
2021-12-24 14:54:19.391710,52
2021-12-24 14:54:19.391722,54
2021-12-24 14:54:19.391732,61
2021-12-24 14:54:19.391742,61
2021-12-24 14:54:19.391752,54
2021-12-24 14:54:19.391762,61
2021-12-24 14:54:19.391772,87
2021-12-24 14:54:19.391782,137
2021-12-24 14:54:19.391792,246
2021-12-24 14:54:19.391801,409
2021-12-24 14:54:19.391811,480
2021-12-24 14:54:19.391821,153
2021-12-24 14:54:19.391831,-558
2021-12-24 14:54:19.391841,-828
2021-12-24 14:54:19.391850,-288
2021-12-24 14:54:19.391860,125
2021-12-24 14:54:19.391870,61
2021-12-24 14:54:19.391880,52
2021-12-24 14:54:19.391889,130
2021-12-24 14:54:19.391899,106
2021-12-24 14:54:19.391909,80
2021-12-24 14:54:19.391918,97
2021-12-24 14:54:19.391928,101
2021-12-24 14:54:19.391938,99
2021-12-24 14:54:19.391948,106
2021-12-24 14:54:19.391958,106
2021-12-24 14:54:19.391968,101
2021-12-24 14:54:19.391977,99
2021-12-24 14:54:19.391987,111
2021-12-24 14:54:19.660287,120
2021-12-24 14:54:19.660318,118
2021-12-24 14:54:19.660330,123
2021-12-24 14:54:19.660340,134
2021-12-24 14:54:19.660350,137
2021-12-24 14:54:19.660359,144
2021-12-24 14:54:19.660369,163
2021-12-24 14:54:19.660379,163
2021-12-24 14:54:19.660389,161
2021-12-24 14:54:19.660398,163
2021-12-24 14:54:19.660408,161
2021-12-24 14:54:19.660418,151
2021-12-24 14:54:19.660427,151
2021-12-24 14:54:19.660437,142
2021-12-24 14:54:19.660447,130
2021-12-24 14:54:19.660456,120
2021-12-24 14:54:19.660466,104
2021-12-24 14:54:19.660476,75
2021-12-24 14:54:19.660485,47
2021-12-24 14:54:19.660495,26
2021-12-24 14:54:19.660505,23
2021-12-24 14:54:19.660515,30
2021-12-24 14:54:19.660524,21
2021-12-24 14:54:19.660534,21
2021-12-24 14:54:19.660544,42
2021-12-24 14:54:19.660553,37
2021-12-24 14:54:19.660563,16
2021-12-24 14:54:19.660573,21
2021-12-24 14:54:19.660582,42
2021-12-24 14:54:19.660592,47
2021-12-24 14:54:19.841211,37
2021-12-24 14:54:19.841242,49
2021-12-24 14:54:19.841254,71
2021-12-24 14:54:19.841264,61
2021-12-24 14:54:19.841274,44
2021-12-24 14:54:19.841283,56
2021-12-24 14:54:19.841293,71
2021-12-24 14:54:19.841303,54
2021-12-24 14:54:19.841313,47
2021-12-24 14:54:19.841323,63
2021-12-24 14:54:19.841333,71
2021-12-24 14:54:19.841343,54
2021-12-24 14:54:19.841352,37
2021-12-24 14:54:19.841362,40
2021-12-24 14:54:19.841372,54
2021-12-24 14:54:19.841382,54
2021-12-24 14:54:19.841391,35
2021-12-24 14:54:19.841401,47
2021-12-24 14:54:19.841411,56
2021-12-24 14:54:19.841421,30
2021-12-24 14:54:19.841430,16
2021-12-24 14:54:19.841440,23
2021-12-24 14:54:19.841450,23
2021-12-24 14:54:19.841460,28
2021-12-24 14:54:19.841469,30
2021-12-24 14:54:19.841479,26
2021-12-24 14:54:19.841489,23
2021-12-24 14:54:19.841498,33
2021-12-24 14:54:19.841508,47
2021-12-24 14:54:19.841518,40
2021-12-24 14:54:20.066672,37
2021-12-24 14:54:20.066695,63
2021-12-24 14:54:20.066702,87
2021-12-24 14:54:20.066709,52
2021-12-24 14:54:20.066716,2
2021-12-24 14:54:20.066722,14
2021-12-24 14:54:20.066729,35
2021-12-24 14:54:20.066735,23
2021-12-24 14:54:20.066741,18
2021-12-24 14:54:20.066748,18
2021-12-24 14:54:20.066754,18
2021-12-24 14:54:20.066761,23
2021-12-24 14:54:20.066767,49
2021-12-24 14:54:20.066773,97
2021-12-24 14:54:20.066780,187
2021-12-24 14:54:20.066805,350
2021-12-24 14:54:20.066815,457
2021-12-24 14:54:20.066824,196
2021-12-24 14:54:20.066834,-490
2021-12-24 14:54:20.066884,-864
2021-12-24 14:54:20.066891,-402
2021-12-24 14:54:20.066897,75
2021-12-24 14:54:20.066904,61
2021-12-24 14:54:20.066910,54
2021-12-24 14:54:20.066916,137
2021-12-24 14:54:20.066923,111
2021-12-24 14:54:20.066929,80
2021-12-24 14:54:20.066936,94
2021-12-24 14:54:20.066951,97
2021-12-24 14:54:20.066957,106
2021-12-24 14:54:20.291750,106
2021-12-24 14:54:20.291780,85
2021-12-24 14:54:20.291792,92
2021-12-24 14:54:20.291802,116
2021-12-24 14:54:20.291812,113
2021-12-24 14:54:20.291822,101
2021-12-24 14:54:20.291831,111
2021-12-24 14:54:20.291841,113
2021-12-24 14:54:20.291851,113
2021-12-24 14:54:20.291861,130
2021-12-24 14:54:20.291871,134
2021-12-24 14:54:20.291880,137
2021-12-24 14:54:20.291890,153
2021-12-24 14:54:20.291900,158
2021-12-24 14:54:20.291910,132
2021-12-24 14:54:20.291919,113
2021-12-24 14:54:20.291929,130
2021-12-24 14:54:20.291939,137
2021-12-24 14:54:20.291949,104
2021-12-24 14:54:20.291958,99
2021-12-24 14:54:20.291968,116
2021-12-24 14:54:20.291978,85
2021-12-24 14:54:20.291987,47
2021-12-24 14:54:20.291997,44
2021-12-24 14:54:20.292007,18
2021-12-24 14:54:20.292017,-21
2021-12-24 14:54:20.292027,-2
2021-12-24 14:54:20.292036,30
2021-12-24 14:54:20.292046,7
2021-12-24 14:54:20.292056,-9
2021-12-24 14:54:20.516290,11
2021-12-24 14:54:20.516320,0
2021-12-24 14:54:20.516332,-4
2021-12-24 14:54:20.516342,30
2021-12-24 14:54:20.516352,26
2021-12-24 14:54:20.516362,-21
2021-12-24 14:54:20.516372,-4
2021-12-24 14:54:20.516381,54
2021-12-24 14:54:20.516391,47
2021-12-24 14:54:20.516401,16
2021-12-24 14:54:20.516411,16
2021-12-24 14:54:20.516420,26
2021-12-24 14:54:20.516430,35
2021-12-24 14:54:20.516440,47
2021-12-24 14:54:20.516450,42
2021-12-24 14:54:20.516460,26
2021-12-24 14:54:20.516469,18
2021-12-24 14:54:20.516479,26
2021-12-24 14:54:20.516489,21
2021-12-24 14:54:20.516499,16
2021-12-24 14:54:20.516508,30
2021-12-24 14:54:20.516518,23
2021-12-24 14:54:20.516528,-4
2021-12-24 14:54:20.516538,-2
2021-12-24 14:54:20.516548,11
2021-12-24 14:54:20.516557,18
2021-12-24 14:54:20.516567,14
2021-12-24 14:54:20.516577,9
2021-12-24 14:54:20.516587,33
2021-12-24 14:54:20.516596,44
2021-12-24 14:54:20.741768,4
2021-12-24 14:54:20.741798,-18
2021-12-24 14:54:20.741810,2
2021-12-24 14:54:20.741820,4
2021-12-24 14:54:20.741830,2
2021-12-24 14:54:20.741840,35
2021-12-24 14:54:20.741850,52
2021-12-24 14:54:20.741860,44
2021-12-24 14:54:20.741869,52
2021-12-24 14:54:20.741879,54
2021-12-24 14:54:20.741889,16
2021-12-24 14:54:20.741899,-11
2021-12-24 14:54:20.741909,4
2021-12-24 14:54:20.741919,26
2021-12-24 14:54:20.741928,21
2021-12-24 14:54:20.741938,2
2021-12-24 14:54:20.741948,14
2021-12-24 14:54:20.741958,54
2021-12-24 14:54:20.741968,63
2021-12-24 14:54:20.741977,71
2021-12-24 14:54:20.741987,156
2021-12-24 14:54:20.741997,303
2021-12-24 14:54:20.742007,433
2021-12-24 14:54:20.742017,388
2021-12-24 14:54:20.742027,-137
2021-12-24 14:54:20.742036,-802
2021-12-24 14:54:20.742046,-684
2021-12-24 14:54:20.742056,-71
2021-12-24 14:54:20.742066,116
2021-12-24 14:54:20.742076,44
2021-12-24 14:54:21.011762,111
2021-12-24 14:54:21.011783,139
2021-12-24 14:54:21.011791,78
2021-12-24 14:54:21.011798,80
2021-12-24 14:54:21.011804,123
2021-12-24 14:54:21.011811,120
2021-12-24 14:54:21.011817,104
2021-12-24 14:54:21.011824,118
2021-12-24 14:54:21.011830,123
2021-12-24 14:54:21.011836,99
2021-12-24 14:54:21.011843,97
2021-12-24 14:54:21.011850,116
2021-12-24 14:54:21.011856,142
2021-12-24 14:54:21.011862,156
2021-12-24 14:54:21.011869,142
2021-12-24 14:54:21.011875,146
2021-12-24 14:54:21.011882,175
2021-12-24 14:54:21.011888,153
2021-12-24 14:54:21.011894,132
2021-12-24 14:54:21.011901,170
2021-12-24 14:54:21.011907,191
2021-12-24 14:54:21.011914,179
2021-12-24 14:54:21.011920,194
2021-12-24 14:54:21.011926,187
2021-12-24 14:54:21.011933,146
2021-12-24 14:54:21.011939,132
2021-12-24 14:54:21.011945,132
2021-12-24 14:54:21.011952,116
2021-12-24 14:54:21.011958,92
2021-12-24 14:54:21.011964,73
2021-12-24 14:54:21.236692,63
2021-12-24 14:54:21.236722,52
2021-12-24 14:54:21.236734,30
2021-12-24 14:54:21.236744,16
2021-12-24 14:54:21.236754,9
2021-12-24 14:54:21.236764,7
2021-12-24 14:54:21.236774,11
2021-12-24 14:54:21.236783,11
2021-12-24 14:54:21.236793,21
2021-12-24 14:54:21.236803,26
2021-12-24 14:54:21.236813,23
2021-12-24 14:54:21.236823,28
2021-12-24 14:54:21.236833,21
2021-12-24 14:54:21.236842,23
2021-12-24 14:54:21.236852,47
2021-12-24 14:54:21.236862,59
2021-12-24 14:54:21.236872,49
2021-12-24 14:54:21.236882,30
2021-12-24 14:54:21.236892,30
2021-12-24 14:54:21.236901,42
2021-12-24 14:54:21.236911,37
2021-12-24 14:54:21.236921,47
2021-12-24 14:54:21.236931,56
2021-12-24 14:54:21.236941,44
2021-12-24 14:54:21.236950,42
2021-12-24 14:54:21.236960,47
2021-12-24 14:54:21.236970,40
2021-12-24 14:54:21.236980,33
2021-12-24 14:54:21.236989,21
2021-12-24 14:54:21.236999,23
2021-12-24 14:54:21.506723,44
2021-12-24 14:54:21.506754,49
2021-12-24 14:54:21.506766,54
2021-12-24 14:54:21.506776,75
2021-12-24 14:54:21.506786,75
2021-12-24 14:54:21.506797,47
2021-12-24 14:54:21.506807,33
2021-12-24 14:54:21.506817,35
2021-12-24 14:54:21.506826,18
2021-12-24 14:54:21.506836,11
2021-12-24 14:54:21.506846,30
2021-12-24 14:54:21.506856,37
2021-12-24 14:54:21.506866,18
2021-12-24 14:54:21.506875,11
2021-12-24 14:54:21.506885,37
2021-12-24 14:54:21.506895,85
2021-12-24 14:54:21.506905,170
2021-12-24 14:54:21.506914,293
2021-12-24 14:54:21.506924,393
2021-12-24 14:54:21.506934,312
2021-12-24 14:54:21.506944,-222
2021-12-24 14:54:21.506954,-843
2021-12-24 14:54:21.506964,-646
2021-12-24 14:54:21.506973,-2
2021-12-24 14:54:21.506983,134
2021-12-24 14:54:21.506993,26
2021-12-24 14:54:21.507002,97
2021-12-24 14:54:21.507012,149
2021-12-24 14:54:21.507022,111
2021-12-24 14:54:21.507032,113
2021-12-24 14:54:21.774943,132
2021-12-24 14:54:21.774973,125
2021-12-24 14:54:21.774985,113
2021-12-24 14:54:21.774995,125
2021-12-24 14:54:21.775005,142
2021-12-24 14:54:21.775015,142
2021-12-24 14:54:21.775025,130
2021-12-24 14:54:21.775034,130
2021-12-24 14:54:21.775044,142
2021-12-24 14:54:21.775054,168
2021-12-24 14:54:21.775063,184
2021-12-24 14:54:21.775073,175
2021-12-24 14:54:21.775083,175
2021-12-24 14:54:21.775093,203
2021-12-24 14:54:21.775102,206
2021-12-24 14:54:21.775112,184
2021-12-24 14:54:21.775122,191
2021-12-24 14:54:21.775131,210
2021-12-24 14:54:21.775141,208
2021-12-24 14:54:21.775151,210
2021-12-24 14:54:21.775161,215
2021-12-24 14:54:21.775171,179
2021-12-24 14:54:21.775181,123
2021-12-24 14:54:21.775190,111
2021-12-24 14:54:21.775200,120
2021-12-24 14:54:21.775210,101
2021-12-24 14:54:21.775220,75
2021-12-24 14:54:21.775229,94
2021-12-24 14:54:21.775239,101
2021-12-24 14:54:21.775249,54
2021-12-24 14:54:22.000611,44
2021-12-24 14:54:22.000631,75
2021-12-24 14:54:22.000638,78
2021-12-24 14:54:22.000645,92
2021-12-24 14:54:22.000652,101
2021-12-24 14:54:22.000658,82
2021-12-24 14:54:22.000664,101
2021-12-24 14:54:22.000671,127
2021-12-24 14:54:22.000677,94
2021-12-24 14:54:22.000683,73
2021-12-24 14:54:22.000690,87
2021-12-24 14:54:22.000696,87
2021-12-24 14:54:22.000702,87
2021-12-24 14:54:22.000709,89
2021-12-24 14:54:22.000715,92
2021-12-24 14:54:22.000722,106
2021-12-24 14:54:22.000728,94
2021-12-24 14:54:22.000734,68
2021-12-24 14:54:22.000741,71
2021-12-24 14:54:22.000747,85
2021-12-24 14:54:22.000753,89
2021-12-24 14:54:22.000760,82
2021-12-24 14:54:22.000766,78
2021-12-24 14:54:22.000779,61
2021-12-24 14:54:22.000785,35
2021-12-24 14:54:22.000792,68
2021-12-24 14:54:22.000798,127
2021-12-24 14:54:22.000804,116
2021-12-24 14:54:22.000811,101
2021-12-24 14:54:22.000817,130
2021-12-24 14:54:22.136719,113
2021-12-24 14:54:22.136749,61
2021-12-24 14:54:22.136760,49
2021-12-24 14:54:22.136771,66
2021-12-24 14:54:22.136781,94
2021-12-24 14:54:22.136790,87
2021-12-24 14:54:22.136800,71
2021-12-24 14:54:22.136809,108
2021-12-24 14:54:22.136819,137
2021-12-24 14:54:22.136829,113
2021-12-24 14:54:22.136839,127
2021-12-24 14:54:22.136849,224
2021-12-24 14:54:22.136859,383
2021-12-24 14:54:22.136868,573
2021-12-24 14:54:22.136878,563
2021-12-24 14:54:22.136888,0
2021-12-24 14:54:22.136898,-689
2021-12-24 14:54:22.136908,-558
2021-12-24 14:54:22.136917,56
2021-12-24 14:54:22.136927,210
2021-12-24 14:54:22.136937,101
2021-12-24 14:54:22.136946,158
2021-12-24 14:54:22.136956,196
2021-12-24 14:54:22.136966,156
2021-12-24 14:54:22.136976,170
2021-12-24 14:54:22.136985,194
2021-12-24 14:54:22.136995,172
2021-12-24 14:54:22.137005,177
2021-12-24 14:54:22.137015,210
2021-12-24 14:54:22.137024,201
2021-12-24 14:54:22.361308,177
2021-12-24 14:54:22.361338,184
2021-12-24 14:54:22.361350,187
2021-12-24 14:54:22.361360,177
2021-12-24 14:54:22.361370,179
2021-12-24 14:54:22.361380,187
2021-12-24 14:54:22.361390,191
2021-12-24 14:54:22.361400,206
2021-12-24 14:54:22.361409,213
2021-12-24 14:54:22.361419,215
2021-12-24 14:54:22.361429,227
2021-12-24 14:54:22.361439,215
2021-12-24 14:54:22.361449,191
2021-12-24 14:54:22.361459,189
2021-12-24 14:54:22.361469,177
2021-12-24 14:54:22.361478,146
2021-12-24 14:54:22.361488,127
2021-12-24 14:54:22.361498,132
2021-12-24 14:54:22.361508,116
2021-12-24 14:54:22.361518,85
2021-12-24 14:54:22.361528,68
2021-12-24 14:54:22.361537,47
2021-12-24 14:54:22.361547,9
2021-12-24 14:54:22.361557,-4
2021-12-24 14:54:22.361567,-4
2021-12-24 14:54:22.361577,-7
2021-12-24 14:54:22.361587,4
2021-12-24 14:54:22.361596,9
2021-12-24 14:54:22.361606,-2
2021-12-24 14:54:22.361616,-2
2021-12-24 14:54:22.630862,11
2021-12-24 14:54:22.630882,26
2021-12-24 14:54:22.630889,33
2021-12-24 14:54:22.630894,28
2021-12-24 14:54:22.630899,16
2021-12-24 14:54:22.630905,21
2021-12-24 14:54:22.630910,37
2021-12-24 14:54:22.630915,30
2021-12-24 14:54:22.630920,16
2021-12-24 14:54:22.630925,23
2021-12-24 14:54:22.630930,35
2021-12-24 14:54:22.630935,21
2021-12-24 14:54:22.630940,7
2021-12-24 14:54:22.630946,18
2021-12-24 14:54:22.630951,35
2021-12-24 14:54:22.630956,26
2021-12-24 14:54:22.630961,7
2021-12-24 14:54:22.630966,4
2021-12-24 14:54:22.630971,9
2021-12-24 14:54:22.630976,7
2021-12-24 14:54:22.630982,4
2021-12-24 14:54:22.630987,16
2021-12-24 14:54:22.630992,40
2021-12-24 14:54:22.630997,61
2021-12-24 14:54:22.631002,68
2021-12-24 14:54:22.631007,59
2021-12-24 14:54:22.631012,33
2021-12-24 14:54:22.631018,0
2021-12-24 14:54:22.631023,2
2021-12-24 14:54:22.631028,23
2021-12-24 14:54:22.856093,23
2021-12-24 14:54:22.856123,16
2021-12-24 14:54:22.856134,16
2021-12-24 14:54:22.856144,14
2021-12-24 14:54:22.856154,23
2021-12-24 14:54:22.856163,42
2021-12-24 14:54:22.856173,61
2021-12-24 14:54:22.856183,142
2021-12-24 14:54:22.856192,307
2021-12-24 14:54:22.856202,473
2021-12-24 14:54:22.856212,407
2021-12-24 14:54:22.856221,-170
2021-12-24 14:54:22.856231,-817
2021-12-24 14:54:22.856241,-653
2021-12-24 14:54:22.856250,-54
2021-12-24 14:54:22.856260,82
2021-12-24 14:54:22.856270,-11
2021-12-24 14:54:22.856279,56
2021-12-24 14:54:22.856289,97
2021-12-24 14:54:22.856299,56
2021-12-24 14:54:22.856308,68
2021-12-24 14:54:22.856318,89
2021-12-24 14:54:22.856328,66
2021-12-24 14:54:22.856337,59
2021-12-24 14:54:22.856347,82
2021-12-24 14:54:22.856356,80
2021-12-24 14:54:22.856366,71
2021-12-24 14:54:22.856376,80
2021-12-24 14:54:22.856385,92
2021-12-24 14:54:22.856395,99
2021-12-24 14:54:23.081732,97
2021-12-24 14:54:23.081762,99
2021-12-24 14:54:23.081774,111
2021-12-24 14:54:23.081784,116
2021-12-24 14:54:23.081794,118
2021-12-24 14:54:23.081804,132
2021-12-24 14:54:23.081814,130
2021-12-24 14:54:23.081824,118
2021-12-24 14:54:23.081834,130
2021-12-24 14:54:23.081843,139
2021-12-24 14:54:23.081853,118
2021-12-24 14:54:23.081863,97
2021-12-24 14:54:23.081873,92
2021-12-24 14:54:23.081883,82
2021-12-24 14:54:23.081893,61
2021-12-24 14:54:23.081902,40
2021-12-24 14:54:23.081912,14
2021-12-24 14:54:23.081922,-14
2021-12-24 14:54:23.081932,-30
2021-12-24 14:54:23.081942,-35
2021-12-24 14:54:23.081952,-42
2021-12-24 14:54:23.081962,-54
2021-12-24 14:54:23.081972,-52
2021-12-24 14:54:23.081981,-42
2021-12-24 14:54:23.081991,-40
2021-12-24 14:54:23.082001,-40
2021-12-24 14:54:23.082011,-33
2021-12-24 14:54:23.082020,-21
2021-12-24 14:54:23.082030,-11
2021-12-24 14:54:23.082040,-4
2021-12-24 14:54:23.351601,-4
2021-12-24 14:54:23.351624,2
2021-12-24 14:54:23.351632,16
2021-12-24 14:54:23.351638,14
2021-12-24 14:54:23.351645,11
2021-12-24 14:54:23.351651,21
2021-12-24 14:54:23.351658,21
2021-12-24 14:54:23.351664,9
2021-12-24 14:54:23.351670,11
2021-12-24 14:54:23.351677,11
2021-12-24 14:54:23.351683,-4
2021-12-24 14:54:23.351690,-11
2021-12-24 14:54:23.351696,-4
2021-12-24 14:54:23.351702,4
2021-12-24 14:54:23.351709,16
2021-12-24 14:54:23.351715,35
2021-12-24 14:54:23.351721,35
2021-12-24 14:54:23.351728,23
2021-12-24 14:54:23.351734,21
2021-12-24 14:54:23.351740,9
2021-12-24 14:54:23.351747,0
2021-12-24 14:54:23.351753,0
2021-12-24 14:54:23.351760,-9
2021-12-24 14:54:23.351766,-7
2021-12-24 14:54:23.351772,14
2021-12-24 14:54:23.351779,18
2021-12-24 14:54:23.351785,7
2021-12-24 14:54:23.351792,7
2021-12-24 14:54:23.351798,21
2021-12-24 14:54:23.351804,94
2021-12-24 14:54:23.531003,262
2021-12-24 14:54:23.531025,426
2021-12-24 14:54:23.531033,367
2021-12-24 14:54:23.531040,-163
2021-12-24 14:54:23.531046,-793
2021-12-24 14:54:23.531053,-686
2021-12-24 14:54:23.531059,-123
2021-12-24 14:54:23.531066,71
2021-12-24 14:54:23.531072,21
2021-12-24 14:54:23.531078,49
2021-12-24 14:54:23.531085,87
2021-12-24 14:54:23.531091,82
2021-12-24 14:54:23.531098,75
2021-12-24 14:54:23.531104,82
2021-12-24 14:54:23.531111,94
2021-12-24 14:54:23.531117,97
2021-12-24 14:54:23.531124,89
2021-12-24 14:54:23.531130,94
2021-12-24 14:54:23.531136,104
2021-12-24 14:54:23.531143,106
2021-12-24 14:54:23.531149,106
2021-12-24 14:54:23.531156,113
2021-12-24 14:54:23.531162,118
2021-12-24 14:54:23.531169,120
2021-12-24 14:54:23.531175,125
2021-12-24 14:54:23.531182,132
2021-12-24 14:54:23.531188,146
2021-12-24 14:54:23.531195,168
2021-12-24 14:54:23.531201,170
2021-12-24 14:54:23.531208,158
2021-12-24 14:54:23.844634,156
2021-12-24 14:54:23.844655,168
2021-12-24 14:54:23.844662,165
2021-12-24 14:54:23.844669,123
2021-12-24 14:54:23.844675,97
2021-12-24 14:54:23.844682,104
2021-12-24 14:54:23.844688,87
2021-12-24 14:54:23.844694,52
2021-12-24 14:54:23.844701,11
2021-12-24 14:54:23.844707,-23
2021-12-24 14:54:23.844714,-37
2021-12-24 14:54:23.844720,-44
2021-12-24 14:54:23.844727,-63
2021-12-24 14:54:23.844733,-66
2021-12-24 14:54:23.844739,-49
2021-12-24 14:54:23.844746,-42
2021-12-24 14:54:23.844752,-61
2021-12-24 14:54:23.844759,-68
2021-12-24 14:54:23.844765,-37
2021-12-24 14:54:23.844772,-21
2021-12-24 14:54:23.844778,-30
2021-12-24 14:54:23.844784,-37
2021-12-24 14:54:23.844791,-23
2021-12-24 14:54:23.844797,0
2021-12-24 14:54:23.844804,-9
2021-12-24 14:54:23.844810,-21
2021-12-24 14:54:23.844816,-2
2021-12-24 14:54:23.844823,0
2021-12-24 14:54:23.844829,-26
2021-12-24 14:54:23.844836,-9
2021-12-24 14:54:23.981781,21
2021-12-24 14:54:23.981812,18
2021-12-24 14:54:23.981824,11
2021-12-24 14:54:23.981835,4
2021-12-24 14:54:23.981845,-9
2021-12-24 14:54:23.981854,-18
2021-12-24 14:54:23.981864,-18
2021-12-24 14:54:23.981874,-30
2021-12-24 14:54:23.981884,-35
2021-12-24 14:54:23.981894,-21
2021-12-24 14:54:23.981903,-14
2021-12-24 14:54:23.981913,-21
2021-12-24 14:54:23.981923,-14
2021-12-24 14:54:23.981933,2
2021-12-24 14:54:23.981942,2
2021-12-24 14:54:23.981952,26
2021-12-24 14:54:23.981962,137
2021-12-24 14:54:23.981986,291
2021-12-24 14:54:23.981996,326
2021-12-24 14:54:23.982006,-23
2021-12-24 14:54:23.982017,-672
2021-12-24 14:54:23.982027,-809
2021-12-24 14:54:23.982036,-298
2021-12-24 14:54:23.982046,35
2021-12-24 14:54:23.982056,33
2021-12-24 14:54:23.982066,59
2021-12-24 14:54:23.982075,104
2021-12-24 14:54:23.982085,94
2021-12-24 14:54:23.982095,87
2021-12-24 14:54:23.982105,92
2021-12-24 14:54:24.206756,89
2021-12-24 14:54:24.206787,101
2021-12-24 14:54:24.206798,111
2021-12-24 14:54:24.206808,108
2021-12-24 14:54:24.206818,118
2021-12-24 14:54:24.206828,127
2021-12-24 14:54:24.206838,116
2021-12-24 14:54:24.206848,118
2021-12-24 14:54:24.206857,142
2021-12-24 14:54:24.206867,149
2021-12-24 14:54:24.206877,151
2021-12-24 14:54:24.206887,163
2021-12-24 14:54:24.206897,172
2021-12-24 14:54:24.206907,177
2021-12-24 14:54:24.206917,196
2021-12-24 14:54:24.206927,220
2021-12-24 14:54:24.206936,217
2021-12-24 14:54:24.206946,198
2021-12-24 14:54:24.206956,194
2021-12-24 14:54:24.206966,175
2021-12-24 14:54:24.206975,158
2021-12-24 14:54:24.206985,156
2021-12-24 14:54:24.206995,130
2021-12-24 14:54:24.207005,85
2021-12-24 14:54:24.207014,52
2021-12-24 14:54:24.207024,28
2021-12-24 14:54:24.207034,14
2021-12-24 14:54:24.207044,14
2021-12-24 14:54:24.207054,14
2021-12-24 14:54:24.207064,0
2021-12-24 14:54:24.476717,0
2021-12-24 14:54:24.476738,14
2021-12-24 14:54:24.476746,28
2021-12-24 14:54:24.476753,28
2021-12-24 14:54:24.476759,16
2021-12-24 14:54:24.476765,23
2021-12-24 14:54:24.476772,49
2021-12-24 14:54:24.476778,47
2021-12-24 14:54:24.476785,33
2021-12-24 14:54:24.476791,52
2021-12-24 14:54:24.476798,59
2021-12-24 14:54:24.476804,37
2021-12-24 14:54:24.476810,42
2021-12-24 14:54:24.476817,56
2021-12-24 14:54:24.476823,44
2021-12-24 14:54:24.476829,40
2021-12-24 14:54:24.476836,54
2021-12-24 14:54:24.476842,68
2021-12-24 14:54:24.476849,78
2021-12-24 14:54:24.476855,78
2021-12-24 14:54:24.476861,63
2021-12-24 14:54:24.476868,47
2021-12-24 14:54:24.476874,28
2021-12-24 14:54:24.476880,16
2021-12-24 14:54:24.476887,21
2021-12-24 14:54:24.476893,33
2021-12-24 14:54:24.476899,37
2021-12-24 14:54:24.476906,33
2021-12-24 14:54:24.476912,35
2021-12-24 14:54:24.476919,47
2021-12-24 14:54:24.746459,47
2021-12-24 14:54:24.746482,59
2021-12-24 14:54:24.746489,142
2021-12-24 14:54:24.746496,296
2021-12-24 14:54:24.746502,386
2021-12-24 14:54:24.746509,106
2021-12-24 14:54:24.746515,-537
2021-12-24 14:54:24.746521,-750
2021-12-24 14:54:24.746528,-246
2021-12-24 14:54:24.746534,106
2021-12-24 14:54:24.746541,54
2021-12-24 14:54:24.746547,61
2021-12-24 14:54:24.746553,134
2021-12-24 14:54:24.746560,118
2021-12-24 14:54:24.746566,106
2021-12-24 14:54:24.746572,120
2021-12-24 14:54:24.746579,101
2021-12-24 14:54:24.746585,97
2021-12-24 14:54:24.746591,120
2021-12-24 14:54:24.746597,120
2021-12-24 14:54:24.746604,118
2021-12-24 14:54:24.746610,127
2021-12-24 14:54:24.746616,127
2021-12-24 14:54:24.746623,125
2021-12-24 14:54:24.746629,137
2021-12-24 14:54:24.746635,149
2021-12-24 14:54:24.746642,153
2021-12-24 14:54:24.746648,158
2021-12-24 14:54:24.746655,172
2021-12-24 14:54:24.746661,189
2021-12-24 14:54:25.015722,184
2021-12-24 14:54:25.015748,177
2021-12-24 14:54:25.015756,184
2021-12-24 14:54:25.015763,184
2021-12-24 14:54:25.015769,170
2021-12-24 14:54:25.015776,161
2021-12-24 14:54:25.015782,144
2021-12-24 14:54:25.015788,120
2021-12-24 14:54:25.015794,106
2021-12-24 14:54:25.015801,87
2021-12-24 14:54:25.015807,54
2021-12-24 14:54:25.015814,33
2021-12-24 14:54:25.015820,30
2021-12-24 14:54:25.015826,23
2021-12-24 14:54:25.015833,16
2021-12-24 14:54:25.015839,23
2021-12-24 14:54:25.015845,11
2021-12-24 14:54:25.015852,0
2021-12-24 14:54:25.015858,30
2021-12-24 14:54:25.015865,42
2021-12-24 14:54:25.015871,18
2021-12-24 14:54:25.015877,18
2021-12-24 14:54:25.015884,40
2021-12-24 14:54:25.015890,56
2021-12-24 14:54:25.015896,63
2021-12-24 14:54:25.015903,56
2021-12-24 14:54:25.015909,59
2021-12-24 14:54:25.015915,78
2021-12-24 14:54:25.015922,75
2021-12-24 14:54:25.015928,63
2021-12-24 14:54:25.241199,59
2021-12-24 14:54:25.241217,49
2021-12-24 14:54:25.241225,40
2021-12-24 14:54:25.241231,44
2021-12-24 14:54:25.241238,61
2021-12-24 14:54:25.241244,66
2021-12-24 14:54:25.241250,56
2021-12-24 14:54:25.241257,61
2021-12-24 14:54:25.241263,78
2021-12-24 14:54:25.241269,71
2021-12-24 14:54:25.241276,44
2021-12-24 14:54:25.241282,33
2021-12-24 14:54:25.241288,33
2021-12-24 14:54:25.241295,33
2021-12-24 14:54:25.241301,28
2021-12-24 14:54:25.241307,23
2021-12-24 14:54:25.241314,26
2021-12-24 14:54:25.241320,28
2021-12-24 14:54:25.241326,37
2021-12-24 14:54:25.241333,44
2021-12-24 14:54:25.241339,59
2021-12-24 14:54:25.241346,120
2021-12-24 14:54:25.241352,239
2021-12-24 14:54:25.241358,371
2021-12-24 14:54:25.241365,397
2021-12-24 14:54:25.241371,11
2021-12-24 14:54:25.241377,-627
2021-12-24 14:54:25.241384,-634
2021-12-24 14:54:25.241390,-68
2021-12-24 14:54:25.241396,123
2021-12-24 14:54:25.376349,9
2021-12-24 14:54:25.376377,59
2021-12-24 14:54:25.376384,106
2021-12-24 14:54:25.376389,68
2021-12-24 14:54:25.376394,73
2021-12-24 14:54:25.376399,97
2021-12-24 14:54:25.376404,89
2021-12-24 14:54:25.376409,94
2021-12-24 14:54:25.376414,104
2021-12-24 14:54:25.376419,94
2021-12-24 14:54:25.376423,94
2021-12-24 14:54:25.376428,108
2021-12-24 14:54:25.376433,106
2021-12-24 14:54:25.376438,99
2021-12-24 14:54:25.376442,116
2021-12-24 14:54:25.376447,125
2021-12-24 14:54:25.376452,113
2021-12-24 14:54:25.376465,127
2021-12-24 14:54:25.376470,153
2021-12-24 14:54:25.376475,146
2021-12-24 14:54:25.376480,134
2021-12-24 14:54:25.376484,144
2021-12-24 14:54:25.376489,139
2021-12-24 14:54:25.376494,134
2021-12-24 14:54:25.376501,130
2021-12-24 14:54:25.376506,113
2021-12-24 14:54:25.376511,89
2021-12-24 14:54:25.376516,73
2021-12-24 14:54:25.376520,68
2021-12-24 14:54:25.376525,47
2021-12-24 14:54:25.645744,21
2021-12-24 14:54:25.645761,23
2021-12-24 14:54:25.645768,11
2021-12-24 14:54:25.645773,-4
2021-12-24 14:54:25.645778,9
2021-12-24 14:54:25.645783,26
2021-12-24 14:54:25.645789,11
2021-12-24 14:54:25.645794,11
2021-12-24 14:54:25.645799,26
2021-12-24 14:54:25.645804,28
2021-12-24 14:54:25.645809,16
2021-12-24 14:54:25.645814,11
2021-12-24 14:54:25.645819,16
2021-12-24 14:54:25.645824,14
2021-12-24 14:54:25.645830,18
2021-12-24 14:54:25.645835,35
2021-12-24 14:54:25.645840,37
2021-12-24 14:54:25.645845,40
2021-12-24 14:54:25.645850,47
2021-12-24 14:54:25.645855,33
2021-12-24 14:54:25.645860,23
2021-12-24 14:54:25.645865,44
2021-12-24 14:54:25.645870,52
2021-12-24 14:54:25.645875,37
2021-12-24 14:54:25.645881,35
2021-12-24 14:54:25.645886,37
2021-12-24 14:54:25.645891,30
2021-12-24 14:54:25.645896,23
2021-12-24 14:54:25.645901,26
2021-12-24 14:54:25.645906,52
2021-12-24 14:54:25.914908,82
2021-12-24 14:54:25.914938,89
2021-12-24 14:54:25.914950,82
2021-12-24 14:54:25.914960,71
2021-12-24 14:54:25.914970,54
2021-12-24 14:54:25.914980,49
2021-12-24 14:54:25.914989,52
2021-12-24 14:54:25.914999,49
2021-12-24 14:54:25.915009,52
2021-12-24 14:54:25.915019,52
2021-12-24 14:54:25.915029,37
2021-12-24 14:54:25.915038,44
2021-12-24 14:54:25.915048,66
2021-12-24 14:54:25.915058,68
2021-12-24 14:54:25.915068,99
2021-12-24 14:54:25.915077,187
2021-12-24 14:54:25.915087,307
2021-12-24 14:54:25.915097,402
2021-12-24 14:54:25.915107,224
2021-12-24 14:54:25.915117,-374
2021-12-24 14:54:25.915127,-705
2021-12-24 14:54:25.915136,-269
2021-12-24 14:54:25.915146,120
2021-12-24 14:54:25.915156,37
2021-12-24 14:54:25.915166,18
2021-12-24 14:54:25.915175,108
2021-12-24 14:54:25.915185,68
2021-12-24 14:54:25.915195,49
2021-12-24 14:54:25.915205,92
2021-12-24 14:54:25.915215,80
2021-12-24 14:54:26.051776,59
2021-12-24 14:54:26.051808,71
2021-12-24 14:54:26.051821,87
2021-12-24 14:54:26.051831,97
2021-12-24 14:54:26.051841,101
2021-12-24 14:54:26.051851,97
2021-12-24 14:54:26.051861,85
2021-12-24 14:54:26.051871,82
2021-12-24 14:54:26.051881,94
2021-12-24 14:54:26.051890,111
2021-12-24 14:54:26.051900,123
2021-12-24 14:54:26.051910,127
2021-12-24 14:54:26.051920,132
2021-12-24 14:54:26.051930,137
2021-12-24 14:54:26.051939,144
2021-12-24 14:54:26.051949,130
2021-12-24 14:54:26.051959,111
2021-12-24 14:54:26.051969,99
2021-12-24 14:54:26.051978,82
2021-12-24 14:54:26.051988,73
2021-12-24 14:54:26.051998,63
2021-12-24 14:54:26.052008,49
2021-12-24 14:54:26.052017,47
2021-12-24 14:54:26.052027,35
2021-12-24 14:54:26.052037,23
2021-12-24 14:54:26.052047,21
2021-12-24 14:54:26.052057,-7
2021-12-24 14:54:26.052067,-21
2021-12-24 14:54:26.052076,9
2021-12-24 14:54:26.052086,26
2021-12-24 14:54:26.275905,7
2021-12-24 14:54:26.275925,-2
2021-12-24 14:54:26.275931,14
2021-12-24 14:54:26.275937,30
2021-12-24 14:54:26.275942,30
2021-12-24 14:54:26.275947,26
2021-12-24 14:54:26.275952,30
2021-12-24 14:54:26.275957,35
2021-12-24 14:54:26.275962,40
2021-12-24 14:54:26.275967,42
2021-12-24 14:54:26.275972,47
2021-12-24 14:54:26.275977,61
2021-12-24 14:54:26.275982,56
2021-12-24 14:54:26.275987,42
2021-12-24 14:54:26.275996,42
2021-12-24 14:54:26.276001,42
2021-12-24 14:54:26.276006,49
2021-12-24 14:54:26.276011,63
2021-12-24 14:54:26.276016,63
2021-12-24 14:54:26.276021,59
2021-12-24 14:54:26.276027,54
2021-12-24 14:54:26.276032,56
2021-12-24 14:54:26.276037,66
2021-12-24 14:54:26.276042,61
2021-12-24 14:54:26.276047,47
2021-12-24 14:54:26.276052,49
2021-12-24 14:54:26.276057,68
2021-12-24 14:54:26.276062,89
2021-12-24 14:54:26.276068,108
2021-12-24 14:54:26.276073,118
2021-12-24 14:54:26.680857,104
2021-12-24 14:54:26.680879,73
2021-12-24 14:54:26.680887,59
2021-12-24 14:54:26.680893,66
2021-12-24 14:54:26.680900,56
2021-12-24 14:54:26.680906,44
2021-12-24 14:54:26.680913,71
2021-12-24 14:54:26.680919,87
2021-12-24 14:54:26.680926,59
2021-12-24 14:54:26.680932,49
2021-12-24 14:54:26.680938,80
2021-12-24 14:54:26.680944,118
2021-12-24 14:54:26.680951,194
2021-12-24 14:54:26.680957,326
2021-12-24 14:54:26.680964,414
2021-12-24 14:54:26.680970,222
2021-12-24 14:54:26.680976,-367
2021-12-24 14:54:26.680983,-717
2021-12-24 14:54:26.680989,-300
2021-12-24 14:54:26.680995,130
2021-12-24 14:54:26.681002,63
2021-12-24 14:54:26.681008,28
2021-12-24 14:54:26.681014,146
2021-12-24 14:54:26.681021,139
2021-12-24 14:54:26.681027,80
2021-12-24 14:54:26.681033,108
2021-12-24 14:54:26.681040,134
2021-12-24 14:54:26.681046,101
2021-12-24 14:54:26.681052,94
2021-12-24 14:54:26.681059,120
2021-12-24 14:54:26.771128,125
2021-12-24 14:54:26.771145,116
2021-12-24 14:54:26.771152,116
2021-12-24 14:54:26.771157,123
2021-12-24 14:54:26.771162,130
2021-12-24 14:54:26.771167,142
2021-12-24 14:54:26.771172,153
2021-12-24 14:54:26.771177,151
2021-12-24 14:54:26.771182,146
2021-12-24 14:54:26.771187,151
2021-12-24 14:54:26.771192,153
2021-12-24 14:54:26.771197,146
2021-12-24 14:54:26.771203,153
2021-12-24 14:54:26.771208,163
2021-12-24 14:54:26.771213,144
2021-12-24 14:54:26.771218,120
2021-12-24 14:54:26.771223,120
2021-12-24 14:54:26.771228,111
2021-12-24 14:54:26.771233,85
2021-12-24 14:54:26.771238,80
2021-12-24 14:54:26.771243,78
2021-12-24 14:54:26.771248,42
2021-12-24 14:54:26.771253,18
2021-12-24 14:54:26.771258,37
2021-12-24 14:54:26.771263,44
2021-12-24 14:54:26.771268,18
2021-12-24 14:54:26.771273,21
2021-12-24 14:54:26.771278,44
2021-12-24 14:54:26.771283,44
2021-12-24 14:54:26.771288,52
2021-12-24 14:54:26.996349,59
2021-12-24 14:54:26.996369,56
2021-12-24 14:54:26.996376,52
2021-12-24 14:54:26.996382,56
2021-12-24 14:54:26.996387,66
2021-12-24 14:54:26.996392,66
2021-12-24 14:54:26.996397,63
2021-12-24 14:54:26.996402,68
2021-12-24 14:54:26.996407,59
2021-12-24 14:54:26.996412,40
2021-12-24 14:54:26.996417,49
2021-12-24 14:54:26.996423,66
2021-12-24 14:54:26.996428,66
2021-12-24 14:54:26.996433,54
2021-12-24 14:54:26.996438,47
2021-12-24 14:54:26.996443,42
2021-12-24 14:54:26.996448,37
2021-12-24 14:54:26.996453,35
2021-12-24 14:54:26.996458,42
2021-12-24 14:54:26.996463,44
2021-12-24 14:54:26.996468,30
2021-12-24 14:54:26.996473,14
2021-12-24 14:54:26.996478,9
2021-12-24 14:54:26.996483,28
2021-12-24 14:54:26.996488,42
2021-12-24 14:54:26.996493,40
2021-12-24 14:54:26.996499,49
2021-12-24 14:54:26.996504,61
2021-12-24 14:54:26.996509,47
2021-12-24 14:54:26.996514,23
2021-12-24 14:54:27.221005,16
2021-12-24 14:54:27.221028,14
2021-12-24 14:54:27.221035,11
2021-12-24 14:54:27.221040,14
2021-12-24 14:54:27.221045,23
2021-12-24 14:54:27.221049,26
2021-12-24 14:54:27.221053,26
2021-12-24 14:54:27.221058,44
2021-12-24 14:54:27.221062,85
2021-12-24 14:54:27.221067,127
2021-12-24 14:54:27.221071,208
2021-12-24 14:54:27.221075,324
2021-12-24 14:54:27.221080,364
2021-12-24 14:54:27.221084,78
2021-12-24 14:54:27.221089,-549
2021-12-24 14:54:27.221093,-769
2021-12-24 14:54:27.221097,-248
2021-12-24 14:54:27.221102,132
2021-12-24 14:54:27.221106,59
2021-12-24 14:54:27.221110,71
2021-12-24 14:54:27.221115,165
2021-12-24 14:54:27.221119,139
2021-12-24 14:54:27.221123,118
2021-12-24 14:54:27.221128,144
2021-12-24 14:54:27.221132,127
2021-12-24 14:54:27.221136,111
2021-12-24 14:54:27.221141,134
2021-12-24 14:54:27.221149,156
2021-12-24 14:54:27.221153,158
2021-12-24 14:54:27.221157,153
2021-12-24 14:54:27.490230,153
2021-12-24 14:54:27.490254,177
2021-12-24 14:54:27.490266,191
2021-12-24 14:54:27.490276,179
2021-12-24 14:54:27.490287,184
2021-12-24 14:54:27.490297,210
2021-12-24 14:54:27.490325,213
2021-12-24 14:54:27.490342,210
2021-12-24 14:54:27.490348,222
2021-12-24 14:54:27.490354,222
2021-12-24 14:54:27.490359,213
2021-12-24 14:54:27.490364,213
2021-12-24 14:54:27.490369,201
2021-12-24 14:54:27.490374,179
2021-12-24 14:54:27.490380,161
2021-12-24 14:54:27.490385,151
2021-12-24 14:54:27.490390,153
2021-12-24 14:54:27.490395,161
2021-12-24 14:54:27.490400,132
2021-12-24 14:54:27.490406,82
2021-12-24 14:54:27.490411,66
2021-12-24 14:54:27.490416,71
2021-12-24 14:54:27.490421,78
2021-12-24 14:54:27.490426,85
2021-12-24 14:54:27.490431,82
2021-12-24 14:54:27.490436,87
2021-12-24 14:54:27.490441,87
2021-12-24 14:54:27.490446,82
2021-12-24 14:54:27.490451,94
2021-12-24 14:54:27.490456,97
2021-12-24 14:54:27.670958,97
2021-12-24 14:54:27.670972,118
2021-12-24 14:54:27.670978,120
2021-12-24 14:54:27.670993,99
2021-12-24 14:54:27.671016,99
2021-12-24 14:54:27.671023,111
2021-12-24 14:54:27.671028,87
2021-12-24 14:54:27.671033,71
2021-12-24 14:54:27.671037,92
2021-12-24 14:54:27.671042,99
2021-12-24 14:54:27.671046,89
2021-12-24 14:54:27.671051,111
2021-12-24 14:54:27.671055,116
2021-12-24 14:54:27.671060,89
2021-12-24 14:54:27.671064,87
2021-12-24 14:54:27.671069,82
2021-12-24 14:54:27.671073,49
2021-12-24 14:54:27.671078,59
2021-12-24 14:54:27.671082,80
2021-12-24 14:54:27.671087,56
2021-12-24 14:54:27.671091,49
2021-12-24 14:54:27.671096,68
2021-12-24 14:54:27.671100,99
2021-12-24 14:54:27.671105,130
2021-12-24 14:54:27.671109,125
2021-12-24 14:54:27.671114,92
2021-12-24 14:54:27.671118,78
2021-12-24 14:54:27.671123,78
2021-12-24 14:54:27.671127,68
2021-12-24 14:54:27.671132,59
2021-12-24 14:54:27.939686,66
2021-12-24 14:54:27.939703,87
2021-12-24 14:54:27.939709,94
2021-12-24 14:54:27.939714,87
2021-12-24 14:54:27.939719,101
2021-12-24 14:54:27.939724,123
2021-12-24 14:54:27.939730,144
2021-12-24 14:54:27.939735,241
2021-12-24 14:54:27.939740,409
2021-12-24 14:54:27.939745,483
2021-12-24 14:54:27.939750,260
2021-12-24 14:54:27.939755,-338
2021-12-24 14:54:27.939760,-722
2021-12-24 14:54:27.939766,-322
2021-12-24 14:54:27.939771,144
2021-12-24 14:54:27.939776,116
2021-12-24 14:54:27.939781,68
2021-12-24 14:54:27.939786,153
2021-12-24 14:54:27.939791,134
2021-12-24 14:54:27.939796,89
2021-12-24 14:54:27.939801,125
2021-12-24 14:54:27.939806,158
2021-12-24 14:54:27.939811,144
2021-12-24 14:54:27.939816,130
2021-12-24 14:54:27.939821,134
2021-12-24 14:54:27.939827,161
2021-12-24 14:54:27.939832,189
2021-12-24 14:54:27.939837,163
2021-12-24 14:54:27.939842,125
2021-12-24 14:54:27.939847,158
2021-12-24 14:54:28.121351,191
2021-12-24 14:54:28.121381,172
2021-12-24 14:54:28.121393,182
2021-12-24 14:54:28.121403,208
2021-12-24 14:54:28.121413,198
2021-12-24 14:54:28.121423,201
2021-12-24 14:54:28.121433,213
2021-12-24 14:54:28.121442,198
2021-12-24 14:54:28.121452,191
2021-12-24 14:54:28.121462,191
2021-12-24 14:54:28.121472,182
2021-12-24 14:54:28.121482,156
2021-12-24 14:54:28.121491,144
2021-12-24 14:54:28.121501,156
2021-12-24 14:54:28.121511,151
2021-12-24 14:54:28.121520,120
2021-12-24 14:54:28.121530,92
2021-12-24 14:54:28.121540,78
2021-12-24 14:54:28.121549,59
2021-12-24 14:54:28.121559,35
2021-12-24 14:54:28.121569,37
2021-12-24 14:54:28.121579,59
2021-12-24 14:54:28.121588,63
2021-12-24 14:54:28.121598,71
2021-12-24 14:54:28.121608,87
2021-12-24 14:54:28.121617,94
2021-12-24 14:54:28.121627,82
2021-12-24 14:54:28.121637,71
2021-12-24 14:54:28.121647,106
2021-12-24 14:54:28.121656,123
2021-12-24 14:54:28.436714,78
2021-12-24 14:54:28.436736,61
2021-12-24 14:54:28.436743,94
2021-12-24 14:54:28.436750,101
2021-12-24 14:54:28.436756,73
2021-12-24 14:54:28.436763,63
2021-12-24 14:54:28.436769,92
2021-12-24 14:54:28.436776,87
2021-12-24 14:54:28.436782,54
2021-12-24 14:54:28.436788,66
2021-12-24 14:54:28.436794,87
2021-12-24 14:54:28.436801,63
2021-12-24 14:54:28.436807,44
2021-12-24 14:54:28.436813,56
2021-12-24 14:54:28.436819,59
2021-12-24 14:54:28.436826,56
2021-12-24 14:54:28.436832,61
2021-12-24 14:54:28.436838,71
2021-12-24 14:54:28.436845,85
2021-12-24 14:54:28.436851,99
2021-12-24 14:54:28.436857,108
2021-12-24 14:54:28.436863,120
2021-12-24 14:54:28.436870,116
2021-12-24 14:54:28.436876,80
2021-12-24 14:54:28.436882,66
2021-12-24 14:54:28.436888,78
2021-12-24 14:54:28.436895,73
2021-12-24 14:54:28.436901,68
2021-12-24 14:54:28.436907,94
2021-12-24 14:54:28.436914,108
2021-12-24 14:54:28.750689,99
2021-12-24 14:54:28.750720,94
2021-12-24 14:54:28.750731,113
2021-12-24 14:54:28.750741,187
2021-12-24 14:54:28.750751,331
2021-12-24 14:54:28.750761,494
2021-12-24 14:54:28.750771,549
2021-12-24 14:54:28.750781,184
2021-12-24 14:54:28.750791,-547
2021-12-24 14:54:28.750801,-748
2021-12-24 14:54:28.750811,-177
2021-12-24 14:54:28.750821,175
2021-12-24 14:54:28.750831,78
2021-12-24 14:54:28.750841,87
2021-12-24 14:54:28.750851,161
2021-12-24 14:54:28.750861,123
2021-12-24 14:54:28.750871,118
2021-12-24 14:54:28.750880,161
2021-12-24 14:54:28.750890,153
2021-12-24 14:54:28.750900,130
2021-12-24 14:54:28.750910,146
2021-12-24 14:54:28.750920,170
2021-12-24 14:54:28.750930,158
2021-12-24 14:54:28.750939,139
2021-12-24 14:54:28.750949,156
2021-12-24 14:54:28.750959,177
2021-12-24 14:54:28.750969,168
2021-12-24 14:54:28.750979,165
2021-12-24 14:54:28.750988,187
2021-12-24 14:54:28.750998,196
2021-12-24 14:54:28.841106,196
2021-12-24 14:54:28.841131,206
2021-12-24 14:54:28.841142,213
2021-12-24 14:54:28.841151,206
2021-12-24 14:54:28.841160,201
2021-12-24 14:54:28.841169,196
2021-12-24 14:54:28.841177,179
2021-12-24 14:54:28.841186,158
2021-12-24 14:54:28.841194,144
2021-12-24 14:54:28.841202,139
2021-12-24 14:54:28.841210,130
2021-12-24 14:54:28.841218,106
2021-12-24 14:54:28.841226,80
2021-12-24 14:54:28.841234,56
2021-12-24 14:54:28.841242,28
2021-12-24 14:54:28.841271,4
2021-12-24 14:54:28.841286,2
2021-12-24 14:54:28.841293,2
2021-12-24 14:54:28.841299,0
2021-12-24 14:54:28.841307,-2
2021-12-24 14:54:28.841312,2
2021-12-24 14:54:28.841317,4
2021-12-24 14:54:28.841322,9
2021-12-24 14:54:28.841327,14
2021-12-24 14:54:28.841333,23
2021-12-24 14:54:28.841338,30
2021-12-24 14:54:28.841343,28
2021-12-24 14:54:28.841348,23
2021-12-24 14:54:28.841353,30
2021-12-24 14:54:28.841358,33
2021-12-24 14:54:29.065916,26
2021-12-24 14:54:29.065931,23
2021-12-24 14:54:29.065937,23
2021-12-24 14:54:29.065942,21
2021-12-24 14:54:29.065946,23
2021-12-24 14:54:29.065951,35
2021-12-24 14:54:29.065955,33
2021-12-24 14:54:29.065960,16
2021-12-24 14:54:29.065964,14
2021-12-24 14:54:29.065968,16
2021-12-24 14:54:29.065973,30
2021-12-24 14:54:29.065978,52
2021-12-24 14:54:29.065982,61
2021-12-24 14:54:29.065990,59
2021-12-24 14:54:29.065997,47
2021-12-24 14:54:29.066005,23
2021-12-24 14:54:29.066012,18
2021-12-24 14:54:29.066020,37
2021-12-24 14:54:29.066027,40
2021-12-24 14:54:29.066035,30
2021-12-24 14:54:29.066041,37
2021-12-24 14:54:29.066045,44
2021-12-24 14:54:29.066049,47
2021-12-24 14:54:29.066054,52
2021-12-24 14:54:29.066058,59
2021-12-24 14:54:29.066062,82
2021-12-24 14:54:29.066067,172
2021-12-24 14:54:29.066071,359
2021-12-24 14:54:29.066075,537
2021-12-24 14:54:29.066080,381
2021-12-24 14:54:29.336297,-307
2021-12-24 14:54:29.336319,-866
2021-12-24 14:54:29.336326,-539
2021-12-24 14:54:29.336333,33
2021-12-24 14:54:29.336339,97
2021-12-24 14:54:29.336346,28
2021-12-24 14:54:29.336352,99
2021-12-24 14:54:29.336359,108
2021-12-24 14:54:29.336365,71
2021-12-24 14:54:29.336371,85
2021-12-24 14:54:29.336378,99
2021-12-24 14:54:29.336384,87
2021-12-24 14:54:29.336391,82
2021-12-24 14:54:29.336397,80
2021-12-24 14:54:29.336403,75
2021-12-24 14:54:29.336410,78
2021-12-24 14:54:29.336416,87
2021-12-24 14:54:29.336422,101
2021-12-24 14:54:29.336429,111
2021-12-24 14:54:29.336435,116
2021-12-24 14:54:29.336442,120
2021-12-24 14:54:29.336448,132
2021-12-24 14:54:29.336454,146
2021-12-24 14:54:29.336461,158
2021-12-24 14:54:29.336467,165
2021-12-24 14:54:29.336473,170
2021-12-24 14:54:29.336480,170
2021-12-24 14:54:29.336486,170
2021-12-24 14:54:29.336493,168
2021-12-24 14:54:29.336499,161
2021-12-24 14:54:29.515585,146
2021-12-24 14:54:29.515606,137
2021-12-24 14:54:29.515615,130
2021-12-24 14:54:29.515624,113
2021-12-24 14:54:29.515632,89
2021-12-24 14:54:29.515639,59
2021-12-24 14:54:29.515647,26
2021-12-24 14:54:29.515655,-4
2021-12-24 14:54:29.515663,-21
2021-12-24 14:54:29.515670,-16
2021-12-24 14:54:29.515678,-7
2021-12-24 14:54:29.515685,-4
2021-12-24 14:54:29.515693,-4
2021-12-24 14:54:29.515701,4
2021-12-24 14:54:29.515709,7
2021-12-24 14:54:29.515717,-11
2021-12-24 14:54:29.515725,-14
2021-12-24 14:54:29.515734,16
2021-12-24 14:54:29.515742,26
2021-12-24 14:54:29.515750,2
2021-12-24 14:54:29.515759,2
2021-12-24 14:54:29.515766,16
2021-12-24 14:54:29.515773,18
2021-12-24 14:54:29.515780,18
2021-12-24 14:54:29.515787,14
2021-12-24 14:54:29.515795,-2
2021-12-24 14:54:29.515802,-16
2021-12-24 14:54:29.515810,-7
2021-12-24 14:54:29.515817,14
2021-12-24 14:54:29.515825,23
2021-12-24 14:54:29.831392,30
2021-12-24 14:54:29.831413,30
2021-12-24 14:54:29.831421,16
2021-12-24 14:54:29.831428,-2
2021-12-24 14:54:29.831435,-9
2021-12-24 14:54:29.831441,-2
2021-12-24 14:54:29.831447,-11
2021-12-24 14:54:29.831453,-30
2021-12-24 14:54:29.831460,-30
2021-12-24 14:54:29.831466,-18
2021-12-24 14:54:29.831472,-11
2021-12-24 14:54:29.831479,-16
2021-12-24 14:54:29.831485,-9
2021-12-24 14:54:29.831491,52
2021-12-24 14:54:29.831498,189
2021-12-24 14:54:29.831504,390
2021-12-24 14:54:29.831510,518
2021-12-24 14:54:29.831517,215
2021-12-24 14:54:29.831523,-558
2021-12-24 14:54:29.831529,-909
2021-12-24 14:54:29.831536,-419
2021-12-24 14:54:29.831542,18
2021-12-24 14:54:29.831548,18
2021-12-24 14:54:29.831555,18
2021-12-24 14:54:29.831561,85
2021-12-24 14:54:29.831567,75
2021-12-24 14:54:29.831574,63
2021-12-24 14:54:29.831580,89
2021-12-24 14:54:29.831586,99
2021-12-24 14:54:29.831593,92
2021-12-24 14:54:30.099634,101
2021-12-24 14:54:30.099663,108
2021-12-24 14:54:30.099676,108
2021-12-24 14:54:30.099689,118
2021-12-24 14:54:30.099700,123
2021-12-24 14:54:30.099712,125
2021-12-24 14:54:30.099724,139
2021-12-24 14:54:30.099735,151
2021-12-24 14:54:30.099748,156
2021-12-24 14:54:30.099759,172
2021-12-24 14:54:30.099770,187
2021-12-24 14:54:30.099780,187
2021-12-24 14:54:30.099790,189
2021-12-24 14:54:30.099800,191
2021-12-24 14:54:30.099810,191
2021-12-24 14:54:30.099820,191
2021-12-24 14:54:30.099831,184
2021-12-24 14:54:30.099841,170
2021-12-24 14:54:30.099852,161
2021-12-24 14:54:30.099864,151
2021-12-24 14:54:30.099874,134
2021-12-24 14:54:30.099885,113
2021-12-24 14:54:30.099939,73
2021-12-24 14:54:30.099959,18
2021-12-24 14:54:30.099972,-21
2021-12-24 14:54:30.099984,-33
2021-12-24 14:54:30.099995,-35
2021-12-24 14:54:30.100025,-47
2021-12-24 14:54:30.100038,-49
2021-12-24 14:54:30.100045,-42
2021-12-24 14:54:30.190936,-40
2021-12-24 14:54:30.190956,-37
2021-12-24 14:54:30.190962,-21
2021-12-24 14:54:30.190968,-14
2021-12-24 14:54:30.190973,-21
2021-12-24 14:54:30.190978,-18
2021-12-24 14:54:30.190983,-4
2021-12-24 14:54:30.190989,4
2021-12-24 14:54:30.190994,9
2021-12-24 14:54:30.190999,11
2021-12-24 14:54:30.191004,4
2021-12-24 14:54:30.191009,7
2021-12-24 14:54:30.191014,16
2021-12-24 14:54:30.191019,23
2021-12-24 14:54:30.191024,28
2021-12-24 14:54:30.191029,16
2021-12-24 14:54:30.191034,-7
2021-12-24 14:54:30.191040,-16
2021-12-24 14:54:30.191045,-14
2021-12-24 14:54:30.191050,-33
2021-12-24 14:54:30.191055,-40
2021-12-24 14:54:30.191060,-26
2021-12-24 14:54:30.191065,-18
2021-12-24 14:54:30.191070,-18
2021-12-24 14:54:30.191075,-9
2021-12-24 14:54:30.191080,-4
2021-12-24 14:54:30.191085,9
2021-12-24 14:54:30.191090,99
2021-12-24 14:54:30.191095,300
2021-12-24 14:54:30.191100,497
2021-12-24 14:54:30.506373,393
2021-12-24 14:54:30.506398,-265
2021-12-24 14:54:30.506406,-883
2021-12-24 14:54:30.506414,-627
2021-12-24 14:54:30.506421,-49
2021-12-24 14:54:30.506427,68
2021-12-24 14:54:30.506432,11
2021-12-24 14:54:30.506437,75
2021-12-24 14:54:30.506443,99
2021-12-24 14:54:30.506448,73
2021-12-24 14:54:30.506453,80
2021-12-24 14:54:30.506458,85
2021-12-24 14:54:30.506464,78
2021-12-24 14:54:30.506469,85
2021-12-24 14:54:30.506474,94
2021-12-24 14:54:30.506479,104
2021-12-24 14:54:30.506484,106
2021-12-24 14:54:30.506489,111
2021-12-24 14:54:30.506494,123
2021-12-24 14:54:30.506499,137
2021-12-24 14:54:30.506505,134
2021-12-24 14:54:30.506510,132
2021-12-24 14:54:30.506515,151
2021-12-24 14:54:30.506520,175
2021-12-24 14:54:30.506525,187
2021-12-24 14:54:30.506530,196
2021-12-24 14:54:30.506535,208
2021-12-24 14:54:30.506540,213
2021-12-24 14:54:30.506545,215
2021-12-24 14:54:30.506550,213
2021-12-24 14:54:30.685865,198
2021-12-24 14:54:30.685893,189
2021-12-24 14:54:30.685906,177
2021-12-24 14:54:30.685917,151
2021-12-24 14:54:30.685928,123
2021-12-24 14:54:30.685952,89
2021-12-24 14:54:30.685965,47
2021-12-24 14:54:30.685973,16
2021-12-24 14:54:30.685982,0
2021-12-24 14:54:30.685993,-11
2021-12-24 14:54:30.686003,-14
2021-12-24 14:54:30.686009,-14
2021-12-24 14:54:30.686016,-14
2021-12-24 14:54:30.686022,-7
2021-12-24 14:54:30.686028,-9
2021-12-24 14:54:30.686034,-11
2021-12-24 14:54:30.686040,9
2021-12-24 14:54:30.686047,30
2021-12-24 14:54:30.686053,21
2021-12-24 14:54:30.686059,21
2021-12-24 14:54:30.686066,37
2021-12-24 14:54:30.686072,30
2021-12-24 14:54:30.686078,16
2021-12-24 14:54:30.686086,33
2021-12-24 14:54:30.686093,52
2021-12-24 14:54:30.686115,54
2021-12-24 14:54:30.686120,56
2021-12-24 14:54:30.686125,66
2021-12-24 14:54:30.686130,56
2021-12-24 14:54:30.686135,28
2021-12-24 14:54:30.911382,14
2021-12-24 14:54:30.911403,18
2021-12-24 14:54:30.911409,18
2021-12-24 14:54:30.911415,7
2021-12-24 14:54:30.911420,2
2021-12-24 14:54:30.911425,16
2021-12-24 14:54:30.911430,28
2021-12-24 14:54:30.911435,18
2021-12-24 14:54:30.911440,9
2021-12-24 14:54:30.911445,44
2021-12-24 14:54:30.911450,153
2021-12-24 14:54:30.911455,343
2021-12-24 14:54:30.911460,516
2021-12-24 14:54:30.911465,364
2021-12-24 14:54:30.911471,-324
2021-12-24 14:54:30.911476,-850
2021-12-24 14:54:30.911481,-468
2021-12-24 14:54:30.911486,56
2021-12-24 14:54:30.911491,44
2021-12-24 14:54:30.911496,-16
2021-12-24 14:54:30.911501,87
2021-12-24 14:54:30.911506,89
2021-12-24 14:54:30.911512,42
2021-12-24 14:54:30.911517,61
2021-12-24 14:54:30.911522,75
2021-12-24 14:54:30.911527,59
2021-12-24 14:54:30.911532,59
2021-12-24 14:54:30.911537,78
2021-12-24 14:54:30.911542,80
2021-12-24 14:54:30.911547,80
2021-12-24 14:54:31.136801,97
2021-12-24 14:54:31.136832,104
2021-12-24 14:54:31.136844,106
2021-12-24 14:54:31.136854,120
2021-12-24 14:54:31.136864,139
2021-12-24 14:54:31.136873,149
2021-12-24 14:54:31.136883,158
2021-12-24 14:54:31.136893,163
2021-12-24 14:54:31.136903,168
2021-12-24 14:54:31.136913,184
2021-12-24 14:54:31.136923,201
2021-12-24 14:54:31.136933,201
2021-12-24 14:54:31.136943,189
2021-12-24 14:54:31.136953,170
2021-12-24 14:54:31.136962,156
2021-12-24 14:54:31.136972,144
2021-12-24 14:54:31.136982,127
2021-12-24 14:54:31.136992,99
2021-12-24 14:54:31.137001,63
2021-12-24 14:54:31.137011,26
2021-12-24 14:54:31.137021,0
2021-12-24 14:54:31.137031,-7
2021-12-24 14:54:31.137041,-7
2021-12-24 14:54:31.137051,-14
2021-12-24 14:54:31.137061,-11
2021-12-24 14:54:31.137071,2
2021-12-24 14:54:31.137081,11
2021-12-24 14:54:31.137091,9
2021-12-24 14:54:31.137100,9
2021-12-24 14:54:31.137110,21
2021-12-24 14:54:31.361386,26
2021-12-24 14:54:31.361416,23
2021-12-24 14:54:31.361428,26
2021-12-24 14:54:31.361438,33
2021-12-24 14:54:31.361448,35
2021-12-24 14:54:31.361457,44
2021-12-24 14:54:31.361467,59
2021-12-24 14:54:31.361477,63
2021-12-24 14:54:31.361486,68
2021-12-24 14:54:31.361496,71
2021-12-24 14:54:31.361506,54
2021-12-24 14:54:31.361516,30
2021-12-24 14:54:31.361526,23
2021-12-24 14:54:31.361536,28
2021-12-24 14:54:31.361545,23
2021-12-24 14:54:31.361555,16
2021-12-24 14:54:31.361565,26
2021-12-24 14:54:31.361575,30
2021-12-24 14:54:31.361584,28
2021-12-24 14:54:31.361594,26
2021-12-24 14:54:31.361604,28
2021-12-24 14:54:31.361614,78
2021-12-24 14:54:31.361623,232
2021-12-24 14:54:31.361633,457
2021-12-24 14:54:31.361643,547
2021-12-24 14:54:31.361653,158
2021-12-24 14:54:31.361662,-577
2021-12-24 14:54:31.361672,-729
2021-12-24 14:54:31.361682,-158
2021-12-24 14:54:31.361692,134
2021-12-24 14:54:31.586322,18
2021-12-24 14:54:31.586344,37
2021-12-24 14:54:31.586351,118
2021-12-24 14:54:31.586358,87
2021-12-24 14:54:31.586365,73
2021-12-24 14:54:31.586371,92
2021-12-24 14:54:31.586378,82
2021-12-24 14:54:31.586384,78
2021-12-24 14:54:31.586391,92
2021-12-24 14:54:31.586397,94
2021-12-24 14:54:31.586404,89
2021-12-24 14:54:31.586410,87
2021-12-24 14:54:31.586416,89
2021-12-24 14:54:31.586423,101
2021-12-24 14:54:31.586429,113
2021-12-24 14:54:31.586436,118
2021-12-24 14:54:31.586442,127
2021-12-24 14:54:31.586449,142
2021-12-24 14:54:31.586455,158
2021-12-24 14:54:31.586462,172
2021-12-24 14:54:31.586468,187
2021-12-24 14:54:31.586474,189
2021-12-24 14:54:31.586481,189
2021-12-24 14:54:31.586487,187
2021-12-24 14:54:31.586494,172
2021-12-24 14:54:31.586500,161
2021-12-24 14:54:31.586507,153
2021-12-24 14:54:31.586513,137
2021-12-24 14:54:31.586519,106
2021-12-24 14:54:31.586526,68
2021-12-24 14:54:31.811529,40
2021-12-24 14:54:31.811552,14
2021-12-24 14:54:31.811561,-7
2021-12-24 14:54:31.811569,-21
2021-12-24 14:54:31.811576,-23
2021-12-24 14:54:31.811588,-21
2021-12-24 14:54:31.811595,-14
2021-12-24 14:54:31.811603,-7
2021-12-24 14:54:31.811610,-2
2021-12-24 14:54:31.811618,7
2021-12-24 14:54:31.811625,9
2021-12-24 14:54:31.811633,11
2021-12-24 14:54:31.811640,18
2021-12-24 14:54:31.811647,18
2021-12-24 14:54:31.811655,16
2021-12-24 14:54:31.811662,23
2021-12-24 14:54:31.811669,35
2021-12-24 14:54:31.811677,49
2021-12-24 14:54:31.811684,61
2021-12-24 14:54:31.811691,71
2021-12-24 14:54:31.811699,73
2021-12-24 14:54:31.811706,59
2021-12-24 14:54:31.811713,37
2021-12-24 14:54:31.811721,26
2021-12-24 14:54:31.811728,23
2021-12-24 14:54:31.811735,28
2021-12-24 14:54:31.811742,28
2021-12-24 14:54:31.811750,30
2021-12-24 14:54:31.811757,37
2021-12-24 14:54:31.811764,42
2021-12-24 14:54:32.080026,40
2021-12-24 14:54:32.080046,28
2021-12-24 14:54:32.080053,42
2021-12-24 14:54:32.080060,149
2021-12-24 14:54:32.080067,352
2021-12-24 14:54:32.080073,528
2021-12-24 14:54:32.080079,376
2021-12-24 14:54:32.080086,-286
2021-12-24 14:54:32.080092,-776
2021-12-24 14:54:32.080099,-386
2021-12-24 14:54:32.080105,111
2021-12-24 14:54:32.080111,61
2021-12-24 14:54:32.080118,0
2021-12-24 14:54:32.080124,106
2021-12-24 14:54:32.080130,101
2021-12-24 14:54:32.080136,56
2021-12-24 14:54:32.080143,82
2021-12-24 14:54:32.080149,97
2021-12-24 14:54:32.080155,85
2021-12-24 14:54:32.080162,92
2021-12-24 14:54:32.080168,99
2021-12-24 14:54:32.080174,97
2021-12-24 14:54:32.080181,104
2021-12-24 14:54:32.080187,116
2021-12-24 14:54:32.080193,123
2021-12-24 14:54:32.080200,132
2021-12-24 14:54:32.080206,132
2021-12-24 14:54:32.080213,134
2021-12-24 14:54:32.080219,151
2021-12-24 14:54:32.080225,168
2021-12-24 14:54:32.351488,177
2021-12-24 14:54:32.351510,184
2021-12-24 14:54:32.351518,187
2021-12-24 14:54:32.351525,184
2021-12-24 14:54:32.351531,177
2021-12-24 14:54:32.351537,163
2021-12-24 14:54:32.351544,142
2021-12-24 14:54:32.351550,125
2021-12-24 14:54:32.351557,113
2021-12-24 14:54:32.351563,89
2021-12-24 14:54:32.351569,59
2021-12-24 14:54:32.351576,33
2021-12-24 14:54:32.351582,7
2021-12-24 14:54:32.351589,-14
2021-12-24 14:54:32.351595,-23
2021-12-24 14:54:32.351601,-23
2021-12-24 14:54:32.351608,-23
2021-12-24 14:54:32.351614,-23
2021-12-24 14:54:32.351620,-16
2021-12-24 14:54:32.351627,-4
2021-12-24 14:54:32.351634,0
2021-12-24 14:54:32.351640,0
2021-12-24 14:54:32.351646,7
2021-12-24 14:54:32.351653,18
2021-12-24 14:54:32.351659,23
2021-12-24 14:54:32.351665,28
2021-12-24 14:54:32.351672,28
2021-12-24 14:54:32.351678,30
2021-12-24 14:54:32.351685,37
2021-12-24 14:54:32.351691,35
2021-12-24 14:54:32.531064,30
2021-12-24 14:54:32.531101,35
2021-12-24 14:54:32.531108,40
2021-12-24 14:54:32.531115,33
2021-12-24 14:54:32.531121,33
2021-12-24 14:54:32.531127,40
2021-12-24 14:54:32.531134,37
2021-12-24 14:54:32.531140,28
2021-12-24 14:54:32.531146,16
2021-12-24 14:54:32.531152,11
2021-12-24 14:54:32.531159,23
2021-12-24 14:54:32.531165,44
2021-12-24 14:54:32.531171,61
2021-12-24 14:54:32.531178,61
2021-12-24 14:54:32.531184,52
2021-12-24 14:54:32.531190,35
2021-12-24 14:54:32.531196,28
2021-12-24 14:54:32.531203,26
2021-12-24 14:54:32.531209,28
2021-12-24 14:54:32.531215,26
2021-12-24 14:54:32.531221,23
2021-12-24 14:54:32.531228,21
2021-12-24 14:54:32.531234,23
2021-12-24 14:54:32.531240,30
2021-12-24 14:54:32.531246,37
2021-12-24 14:54:32.531253,42
2021-12-24 14:54:32.531259,75
2021-12-24 14:54:32.531265,177
2021-12-24 14:54:32.531271,369
2021-12-24 14:54:32.531278,580
2021-12-24 14:54:32.756026,532
2021-12-24 14:54:32.756042,-97
2021-12-24 14:54:32.756048,-772
2021-12-24 14:54:32.756052,-528
2021-12-24 14:54:32.756057,73
2021-12-24 14:54:32.756062,92
2021-12-24 14:54:32.756066,-21
2021-12-24 14:54:32.756071,89
2021-12-24 14:54:32.756076,108
2021-12-24 14:54:32.756080,47
2021-12-24 14:54:32.756086,71
2021-12-24 14:54:32.756094,97
2021-12-24 14:54:32.756102,80
2021-12-24 14:54:32.756107,80
2021-12-24 14:54:32.756112,87
2021-12-24 14:54:32.756116,87
2021-12-24 14:54:32.756121,97
2021-12-24 14:54:32.756126,101
2021-12-24 14:54:32.756130,99
2021-12-24 14:54:32.756135,108
2021-12-24 14:54:32.756140,118
2021-12-24 14:54:32.756145,120
2021-12-24 14:54:32.756149,132
2021-12-24 14:54:32.756154,149
2021-12-24 14:54:32.756159,158
2021-12-24 14:54:32.756163,161
2021-12-24 14:54:32.756168,168
2021-12-24 14:54:32.756173,172
2021-12-24 14:54:32.756178,170
2021-12-24 14:54:32.756182,163
2021-12-24 14:54:32.980960,151
2021-12-24 14:54:32.980976,134
2021-12-24 14:54:32.980982,125
2021-12-24 14:54:32.980987,113
2021-12-24 14:54:32.980991,92
2021-12-24 14:54:32.980996,66
2021-12-24 14:54:32.981000,37
2021-12-24 14:54:32.981004,11
2021-12-24 14:54:32.981009,-2
2021-12-24 14:54:32.981013,-9
2021-12-24 14:54:32.981018,-14
2021-12-24 14:54:32.981022,-14
2021-12-24 14:54:32.981027,-14
2021-12-24 14:54:32.981031,-16
2021-12-24 14:54:32.981036,-14
2021-12-24 14:54:32.981040,-11
2021-12-24 14:54:32.981044,-11
2021-12-24 14:54:32.981049,-2
2021-12-24 14:54:32.981053,2
2021-12-24 14:54:32.981058,7
2021-12-24 14:54:32.981062,11
2021-12-24 14:54:32.981066,18
2021-12-24 14:54:32.981071,23
2021-12-24 14:54:32.981075,26
2021-12-24 14:54:32.981079,23
2021-12-24 14:54:32.981084,30
2021-12-24 14:54:32.981088,35
2021-12-24 14:54:32.981093,33
2021-12-24 14:54:32.981097,30
2021-12-24 14:54:32.981101,33
2021-12-24 14:54:33.205677,33
2021-12-24 14:54:33.205698,33
2021-12-24 14:54:33.205706,30
2021-12-24 14:54:33.205712,26
2021-12-24 14:54:33.205719,28
2021-12-24 14:54:33.205725,35
2021-12-24 14:54:33.205732,33
2021-12-24 14:54:33.205738,26
2021-12-24 14:54:33.205745,30
2021-12-24 14:54:33.205751,30
2021-12-24 14:54:33.205757,26
2021-12-24 14:54:33.205764,28
2021-12-24 14:54:33.205770,23
2021-12-24 14:54:33.205776,11
2021-12-24 14:54:33.205783,16
2021-12-24 14:54:33.205789,37
2021-12-24 14:54:33.205796,59
2021-12-24 14:54:33.205802,63
2021-12-24 14:54:33.205808,61
2021-12-24 14:54:33.205815,59
2021-12-24 14:54:33.205821,44
2021-12-24 14:54:33.205828,33
2021-12-24 14:54:33.205850,33
2021-12-24 14:54:33.205855,35
2021-12-24 14:54:33.205860,40
2021-12-24 14:54:33.205865,47
2021-12-24 14:54:33.205870,42
2021-12-24 14:54:33.205875,42
2021-12-24 14:54:33.205881,54
2021-12-24 14:54:33.205886,61
2021-12-24 14:54:33.476527,66
2021-12-24 14:54:33.476549,101
2021-12-24 14:54:33.476557,217
2021-12-24 14:54:33.476564,431
2021-12-24 14:54:33.476571,632
2021-12-24 14:54:33.476577,492
2021-12-24 14:54:33.476584,-224
2021-12-24 14:54:33.476590,-793
2021-12-24 14:54:33.476597,-395
2021-12-24 14:54:33.476603,132
2021-12-24 14:54:33.476609,56
2021-12-24 14:54:33.476616,-18
2021-12-24 14:54:33.476622,99
2021-12-24 14:54:33.476629,89
2021-12-24 14:54:33.476635,44
2021-12-24 14:54:33.476641,80
2021-12-24 14:54:33.476648,89
2021-12-24 14:54:33.476654,63
2021-12-24 14:54:33.476661,61
2021-12-24 14:54:33.476667,73
2021-12-24 14:54:33.476673,75
2021-12-24 14:54:33.476680,80
2021-12-24 14:54:33.476686,85
2021-12-24 14:54:33.476692,85
2021-12-24 14:54:33.476699,92
2021-12-24 14:54:33.476705,106
2021-12-24 14:54:33.476711,118
2021-12-24 14:54:33.476718,127
2021-12-24 14:54:33.476724,139
2021-12-24 14:54:33.476731,149
2021-12-24 14:54:33.656307,158
2021-12-24 14:54:33.656328,170
2021-12-24 14:54:33.656335,175
2021-12-24 14:54:33.656342,172
2021-12-24 14:54:33.656348,161
2021-12-24 14:54:33.656355,149
2021-12-24 14:54:33.656361,139
2021-12-24 14:54:33.656368,125
2021-12-24 14:54:33.656374,116
2021-12-24 14:54:33.656381,101
2021-12-24 14:54:33.656387,73
2021-12-24 14:54:33.656394,40
2021-12-24 14:54:33.656400,23
2021-12-24 14:54:33.656407,16
2021-12-24 14:54:33.656413,4
2021-12-24 14:54:33.656420,-4
2021-12-24 14:54:33.656426,-7
2021-12-24 14:54:33.656433,-4
2021-12-24 14:54:33.656439,0
2021-12-24 14:54:33.656446,4
2021-12-24 14:54:33.656452,7
2021-12-24 14:54:33.656458,14
2021-12-24 14:54:33.656465,21
2021-12-24 14:54:33.656471,26
2021-12-24 14:54:33.656478,33
2021-12-24 14:54:33.656484,37
2021-12-24 14:54:33.656490,44
2021-12-24 14:54:33.656497,47
2021-12-24 14:54:33.656503,44
2021-12-24 14:54:33.656510,49
2021-12-24 14:54:33.880787,54
2021-12-24 14:54:33.880814,59
2021-12-24 14:54:33.880828,59
2021-12-24 14:54:33.880840,54
2021-12-24 14:54:33.880851,49
2021-12-24 14:54:33.880862,47
2021-12-24 14:54:33.880872,44
2021-12-24 14:54:33.880883,44
2021-12-24 14:54:33.880894,47
2021-12-24 14:54:33.880905,42
2021-12-24 14:54:33.880916,42
2021-12-24 14:54:33.880927,40
2021-12-24 14:54:33.880939,37
2021-12-24 14:54:33.880950,40
2021-12-24 14:54:33.880960,44
2021-12-24 14:54:33.880971,44
2021-12-24 14:54:33.881003,37
2021-12-24 14:54:33.881030,33
2021-12-24 14:54:33.881038,26
2021-12-24 14:54:33.881045,33
2021-12-24 14:54:33.881052,49
2021-12-24 14:54:33.881059,63
2021-12-24 14:54:33.881065,75
2021-12-24 14:54:33.881071,80
2021-12-24 14:54:33.881077,68
2021-12-24 14:54:33.881084,44
2021-12-24 14:54:33.881090,30
2021-12-24 14:54:33.881096,28
2021-12-24 14:54:33.881103,23
2021-12-24 14:54:33.881109,18
2021-12-24 14:54:34.194772,28
2021-12-24 14:54:34.194792,33
2021-12-24 14:54:34.194800,30
2021-12-24 14:54:34.194806,28
2021-12-24 14:54:34.194813,30
2021-12-24 14:54:34.194819,44
2021-12-24 14:54:34.194825,97
2021-12-24 14:54:34.194832,234
2021-12-24 14:54:34.194838,459
2021-12-24 14:54:34.194845,606
2021-12-24 14:54:34.194851,312
2021-12-24 14:54:34.194857,-464
2021-12-24 14:54:34.194864,-795
2021-12-24 14:54:34.194870,-243
2021-12-24 14:54:34.194876,144
2021-12-24 14:54:34.194883,9
2021-12-24 14:54:34.194889,4
2021-12-24 14:54:34.194896,113
2021-12-24 14:54:34.194902,73
2021-12-24 14:54:34.194908,52
2021-12-24 14:54:34.194915,97
2021-12-24 14:54:34.194921,94
2021-12-24 14:54:34.194927,75
2021-12-24 14:54:34.194934,89
2021-12-24 14:54:34.194940,99
2021-12-24 14:54:34.194946,94
2021-12-24 14:54:34.194953,99
2021-12-24 14:54:34.194959,108
2021-12-24 14:54:34.194965,113
2021-12-24 14:54:34.194972,125
2021-12-24 14:54:34.376412,134
2021-12-24 14:54:34.376433,146
2021-12-24 14:54:34.376441,158
2021-12-24 14:54:34.376448,170
2021-12-24 14:54:34.376454,182
2021-12-24 14:54:34.376461,191
2021-12-24 14:54:34.376467,201
2021-12-24 14:54:34.376474,208
2021-12-24 14:54:34.376480,201
2021-12-24 14:54:34.376487,187
2021-12-24 14:54:34.376493,175
2021-12-24 14:54:34.376500,168
2021-12-24 14:54:34.376506,153
2021-12-24 14:54:34.376512,132
2021-12-24 14:54:34.376519,106
2021-12-24 14:54:34.376525,75
2021-12-24 14:54:34.376532,44
2021-12-24 14:54:34.376538,26
2021-12-24 14:54:34.376545,16
2021-12-24 14:54:34.376551,4
2021-12-24 14:54:34.376558,-2
2021-12-24 14:54:34.376564,-4
2021-12-24 14:54:34.376571,0
2021-12-24 14:54:34.376577,4
2021-12-24 14:54:34.376583,4
2021-12-24 14:54:34.376590,9
2021-12-24 14:54:34.376596,16
2021-12-24 14:54:34.376603,21
2021-12-24 14:54:34.376609,30
2021-12-24 14:54:34.376616,40
2021-12-24 14:54:34.601107,42
2021-12-24 14:54:34.601131,40
2021-12-24 14:54:34.601138,42
2021-12-24 14:54:34.601145,44
2021-12-24 14:54:34.601151,52
2021-12-24 14:54:34.601157,54
2021-12-24 14:54:34.601164,49
2021-12-24 14:54:34.601170,44
2021-12-24 14:54:34.601177,37
2021-12-24 14:54:34.601183,35
2021-12-24 14:54:34.601189,30
2021-12-24 14:54:34.601196,23
2021-12-24 14:54:34.601202,21
2021-12-24 14:54:34.601208,18
2021-12-24 14:54:34.601215,14
2021-12-24 14:54:34.601221,18
2021-12-24 14:54:34.601227,21
2021-12-24 14:54:34.601234,16
2021-12-24 14:54:34.601240,21
2021-12-24 14:54:34.601246,21
2021-12-24 14:54:34.601253,16
2021-12-24 14:54:34.601259,18
2021-12-24 14:54:34.601265,21
2021-12-24 14:54:34.601272,18
2021-12-24 14:54:34.601278,16
2021-12-24 14:54:34.601284,9
2021-12-24 14:54:34.601291,9
2021-12-24 14:54:34.601297,16
2021-12-24 14:54:34.601303,28
2021-12-24 14:54:34.601310,52
2021-12-24 14:54:34.871390,68
2021-12-24 14:54:34.871410,66
2021-12-24 14:54:34.871417,54
2021-12-24 14:54:34.871422,40
2021-12-24 14:54:34.871427,28
2021-12-24 14:54:34.871433,30
2021-12-24 14:54:34.871438,35
2021-12-24 14:54:34.871443,33
2021-12-24 14:54:34.871448,30
2021-12-24 14:54:34.871453,35
2021-12-24 14:54:34.871458,42
2021-12-24 14:54:34.871463,47
2021-12-24 14:54:34.871468,42
2021-12-24 14:54:34.871473,49
2021-12-24 14:54:34.871478,106
2021-12-24 14:54:34.871483,248
2021-12-24 14:54:34.871489,466
2021-12-24 14:54:34.871494,610
2021-12-24 14:54:34.871499,317
2021-12-24 14:54:34.871504,-459
2021-12-24 14:54:34.871509,-779
2021-12-24 14:54:34.871514,-220
2021-12-24 14:54:34.871519,158
2021-12-24 14:54:34.871524,18
2021-12-24 14:54:34.871529,18
2021-12-24 14:54:34.871534,127
2021-12-24 14:54:34.871539,89
2021-12-24 14:54:34.871544,66
2021-12-24 14:54:34.871550,104
2021-12-24 14:54:34.871555,99
2021-12-24 14:54:35.051389,85
2021-12-24 14:54:35.051410,97
2021-12-24 14:54:35.051418,104
2021-12-24 14:54:35.051423,104
2021-12-24 14:54:35.051428,108
2021-12-24 14:54:35.051434,116
2021-12-24 14:54:35.051439,123
2021-12-24 14:54:35.051444,130
2021-12-24 14:54:35.051505,132
2021-12-24 14:54:35.051512,139
2021-12-24 14:54:35.051517,156
2021-12-24 14:54:35.051522,170
2021-12-24 14:54:35.051527,175
2021-12-24 14:54:35.051533,179
2021-12-24 14:54:35.051538,191
2021-12-24 14:54:35.051543,198
2021-12-24 14:54:35.051548,196
2021-12-24 14:54:35.051553,187
2021-12-24 14:54:35.051558,175
2021-12-24 14:54:35.051563,158
2021-12-24 14:54:35.051568,137
2021-12-24 14:54:35.051573,120
2021-12-24 14:54:35.051579,101
2021-12-24 14:54:35.051584,66
2021-12-24 14:54:35.051589,26
2021-12-24 14:54:35.051594,7
2021-12-24 14:54:35.051599,-7
2021-12-24 14:54:35.051604,-18
2021-12-24 14:54:35.051610,-23
2021-12-24 14:54:35.051615,-26
2021-12-24 14:54:35.276076,-23
2021-12-24 14:54:35.276099,-21
2021-12-24 14:54:35.276107,-18
2021-12-24 14:54:35.276113,-9
2021-12-24 14:54:35.276121,0
2021-12-24 14:54:35.276127,2
2021-12-24 14:54:35.276134,2
2021-12-24 14:54:35.276140,4
2021-12-24 14:54:35.276146,14
2021-12-24 14:54:35.276153,26
2021-12-24 14:54:35.276159,33
2021-12-24 14:54:35.276165,33
2021-12-24 14:54:35.276172,30
2021-12-24 14:54:35.276178,35
2021-12-24 14:54:35.276184,40
2021-12-24 14:54:35.276190,40
2021-12-24 14:54:35.276197,33
2021-12-24 14:54:35.276203,28
2021-12-24 14:54:35.276209,33
2021-12-24 14:54:35.276216,35
2021-12-24 14:54:35.276222,33
2021-12-24 14:54:35.276229,30
2021-12-24 14:54:35.276235,28
2021-12-24 14:54:35.276241,28
2021-12-24 14:54:35.276247,30
2021-12-24 14:54:35.276254,35
2021-12-24 14:54:35.276260,35
2021-12-24 14:54:35.276266,33
2021-12-24 14:54:35.276272,35
2021-12-24 14:54:35.276279,40
2021-12-24 14:54:35.546518,42
2021-12-24 14:54:35.546541,37
2021-12-24 14:54:35.546549,33
2021-12-24 14:54:35.546556,35
2021-12-24 14:54:35.546563,37
2021-12-24 14:54:35.546569,33
2021-12-24 14:54:35.546576,28
2021-12-24 14:54:35.546582,35
2021-12-24 14:54:35.546588,33
2021-12-24 14:54:35.546595,21
2021-12-24 14:54:35.546601,21
2021-12-24 14:54:35.546607,40
2021-12-24 14:54:35.546614,66
2021-12-24 14:54:35.546620,78
2021-12-24 14:54:35.546626,68
2021-12-24 14:54:35.546633,56
2021-12-24 14:54:35.546639,44
2021-12-24 14:54:35.546646,30
2021-12-24 14:54:35.546652,30
2021-12-24 14:54:35.546658,35
2021-12-24 14:54:35.546665,35
2021-12-24 14:54:35.546671,37
2021-12-24 14:54:35.546677,44
2021-12-24 14:54:35.546684,47
2021-12-24 14:54:35.546690,49
2021-12-24 14:54:35.546696,54
2021-12-24 14:54:35.546703,61
2021-12-24 14:54:35.546709,120
2021-12-24 14:54:35.546716,279
2021-12-24 14:54:35.546722,504
2021-12-24 14:54:35.726230,610
2021-12-24 14:54:35.726249,234
2021-12-24 14:54:35.726257,-551
2021-12-24 14:54:35.726263,-745
2021-12-24 14:54:35.726270,-146
2021-12-24 14:54:35.726276,142
2021-12-24 14:54:35.726283,-16
2021-12-24 14:54:35.726289,18
2021-12-24 14:54:35.726296,116
2021-12-24 14:54:35.726302,61
2021-12-24 14:54:35.726309,42
2021-12-24 14:54:35.726315,85
2021-12-24 14:54:35.726321,80
2021-12-24 14:54:35.726328,63
2021-12-24 14:54:35.726334,80
2021-12-24 14:54:35.726340,80
2021-12-24 14:54:35.726347,63
2021-12-24 14:54:35.726353,78
2021-12-24 14:54:35.726359,101
2021-12-24 14:54:35.726366,106
2021-12-24 14:54:35.726372,106
2021-12-24 14:54:35.726378,113
2021-12-24 14:54:35.726385,130
2021-12-24 14:54:35.726391,146
2021-12-24 14:54:35.726397,158
2021-12-24 14:54:35.726404,168
2021-12-24 14:54:35.726410,177
2021-12-24 14:54:35.726416,179
2021-12-24 14:54:35.726423,189
2021-12-24 14:54:35.726429,198
2021-12-24 14:54:36.040997,196
2021-12-24 14:54:36.041012,179
2021-12-24 14:54:36.041017,163
2021-12-24 14:54:36.041022,144
2021-12-24 14:54:36.041027,120
2021-12-24 14:54:36.041031,97
2021-12-24 14:54:36.041036,66
2021-12-24 14:54:36.041040,35
2021-12-24 14:54:36.041044,14
2021-12-24 14:54:36.041049,0
2021-12-24 14:54:36.041054,-9
2021-12-24 14:54:36.041058,-14
2021-12-24 14:54:36.041063,-16
2021-12-24 14:54:36.041067,-16
2021-12-24 14:54:36.041072,-11
2021-12-24 14:54:36.041076,-9
2021-12-24 14:54:36.041080,-9
2021-12-24 14:54:36.041085,4
2021-12-24 14:54:36.041089,16
2021-12-24 14:54:36.041094,11
2021-12-24 14:54:36.041098,11
2021-12-24 14:54:36.041103,23
2021-12-24 14:54:36.041107,30
2021-12-24 14:54:36.041112,33
2021-12-24 14:54:36.041116,40
2021-12-24 14:54:36.041120,44
2021-12-24 14:54:36.041125,42
2021-12-24 14:54:36.041129,40
2021-12-24 14:54:36.041134,42
2021-12-24 14:54:36.041138,44
2021-12-24 14:54:36.265076,40
2021-12-24 14:54:36.265096,37
2021-12-24 14:54:36.265106,40
2021-12-24 14:54:36.265115,37
2021-12-24 14:54:36.265124,35
2021-12-24 14:54:36.265132,35
2021-12-24 14:54:36.265141,35
2021-12-24 14:54:36.265150,35
2021-12-24 14:54:36.265158,40
2021-12-24 14:54:36.265167,35
2021-12-24 14:54:36.265175,30
2021-12-24 14:54:36.265184,35
2021-12-24 14:54:36.265193,37
2021-12-24 14:54:36.265201,30
2021-12-24 14:54:36.265210,30
2021-12-24 14:54:36.265219,35
2021-12-24 14:54:36.265227,37
2021-12-24 14:54:36.265236,37
2021-12-24 14:54:36.265245,37
2021-12-24 14:54:36.265253,35
2021-12-24 14:54:36.265262,28
2021-12-24 14:54:36.265270,23
2021-12-24 14:54:36.265279,23
2021-12-24 14:54:36.265288,21
2021-12-24 14:54:36.265296,18
2021-12-24 14:54:36.265305,18
2021-12-24 14:54:36.265313,23
2021-12-24 14:54:36.265322,44
2021-12-24 14:54:36.265330,66
2021-12-24 14:54:36.265339,61
2021-12-24 14:54:36.445984,49
2021-12-24 14:54:36.446005,42
2021-12-24 14:54:36.446011,23
2021-12-24 14:54:36.446017,14
2021-12-24 14:54:36.446022,18
2021-12-24 14:54:36.446027,23
2021-12-24 14:54:36.446033,23
2021-12-24 14:54:36.446038,23
2021-12-24 14:54:36.446043,26
2021-12-24 14:54:36.446048,26
2021-12-24 14:54:36.446053,28
2021-12-24 14:54:36.446058,42
2021-12-24 14:54:36.446063,97
2021-12-24 14:54:36.446068,234
2021-12-24 14:54:36.446073,442
2021-12-24 14:54:36.446079,573
2021-12-24 14:54:36.446084,274
2021-12-24 14:54:36.446089,-485
2021-12-24 14:54:36.446094,-783
