Time,ECG
2021-12-23 17:53:04.093415,-128
2021-12-23 17:53:04.093438,-125
2021-12-23 17:53:04.093445,-107
2021-12-23 17:53:04.093451,-86
2021-12-23 17:53:04.093456,-74
2021-12-23 17:53:04.093462,-67
2021-12-23 17:53:04.093468,-76
2021-12-23 17:53:04.093473,-79
2021-12-23 17:53:04.093478,-58
2021-12-23 17:53:04.093484,-46
2021-12-23 17:53:04.093489,-37
2021-12-23 17:53:04.093494,-27
2021-12-23 17:53:04.093499,-48
2021-12-23 17:53:04.093504,-51
2021-12-23 17:53:04.093509,-34
2021-12-23 17:53:04.093515,-53
2021-12-23 17:53:04.093520,-74
2021-12-23 17:53:04.093525,-65
2021-12-23 17:53:04.093530,-58
2021-12-23 17:53:04.093535,-46
2021-12-23 17:53:04.093541,-27
2021-12-23 17:53:04.093546,-32
2021-12-23 17:53:04.093552,-27
2021-12-23 17:53:04.093557,-20
2021-12-23 17:53:04.093562,-39
2021-12-23 17:53:04.093567,-48
2021-12-23 17:53:04.093573,-32
2021-12-23 17:53:04.093578,-30
2021-12-23 17:53:04.093583,-37
2021-12-23 17:53:04.093588,-30
2021-12-23 17:53:04.363886,-25
2021-12-23 17:53:04.363918,-16
2021-12-23 17:53:04.363930,-4
2021-12-23 17:53:04.363940,-9
2021-12-23 17:53:04.363950,-13
2021-12-23 17:53:04.363960,-32
2021-12-23 17:53:04.363971,-53
2021-12-23 17:53:04.363981,-39
2021-12-23 17:53:04.363991,-16
2021-12-23 17:53:04.364001,-13
2021-12-23 17:53:04.364011,-6
2021-12-23 17:53:04.364021,-2
2021-12-23 17:53:04.364030,-2
2021-12-23 17:53:04.364040,9
2021-12-23 17:53:04.364050,0
2021-12-23 17:53:04.364060,-51
2021-12-23 17:53:04.364070,-97
2021-12-23 17:53:04.364081,-111
2021-12-23 17:53:04.364091,-121
2021-12-23 17:53:04.364101,-132
2021-12-23 17:53:04.364111,-132
2021-12-23 17:53:04.364121,-128
2021-12-23 17:53:04.364130,-123
2021-12-23 17:53:04.364140,-123
2021-12-23 17:53:04.364150,-109
2021-12-23 17:53:04.364160,-46
2021-12-23 17:53:04.364170,142
2021-12-23 17:53:04.364180,447
2021-12-23 17:53:04.364190,578
2021-12-23 17:53:04.364203,282
2021-12-23 17:53:04.543374,-289
2021-12-23 17:53:04.543404,-559
2021-12-23 17:53:04.543417,-296
2021-12-23 17:53:04.543427,-58
2021-12-23 17:53:04.543437,-93
2021-12-23 17:53:04.543447,-60
2021-12-23 17:53:04.543457,37
2021-12-23 17:53:04.543467,44
2021-12-23 17:53:04.543477,46
2021-12-23 17:53:04.543487,74
2021-12-23 17:53:04.543498,69
2021-12-23 17:53:04.543508,76
2021-12-23 17:53:04.543518,118
2021-12-23 17:53:04.543534,142
2021-12-23 17:53:04.543544,146
2021-12-23 17:53:04.543554,156
2021-12-23 17:53:04.543565,144
2021-12-23 17:53:04.543575,135
2021-12-23 17:53:04.543585,172
2021-12-23 17:53:04.543595,207
2021-12-23 17:53:04.543605,205
2021-12-23 17:53:04.543615,228
2021-12-23 17:53:04.543625,270
2021-12-23 17:53:04.543635,300
2021-12-23 17:53:04.543645,331
2021-12-23 17:53:04.543655,354
2021-12-23 17:53:04.543665,347
2021-12-23 17:53:04.543675,324
2021-12-23 17:53:04.543685,286
2021-12-23 17:53:04.543697,228
2021-12-23 17:53:04.767765,160
2021-12-23 17:53:04.767785,88
2021-12-23 17:53:04.767792,13
2021-12-23 17:53:04.767799,-55
2021-12-23 17:53:04.767806,-114
2021-12-23 17:53:04.767813,-142
2021-12-23 17:53:04.767819,-132
2021-12-23 17:53:04.767826,-116
2021-12-23 17:53:04.767833,-114
2021-12-23 17:53:04.767840,-137
2021-12-23 17:53:04.767846,-156
2021-12-23 17:53:04.767853,-137
2021-12-23 17:53:04.767859,-104
2021-12-23 17:53:04.767866,-81
2021-12-23 17:53:04.767872,-67
2021-12-23 17:53:04.767879,-72
2021-12-23 17:53:04.767885,-67
2021-12-23 17:53:04.767895,-34
2021-12-23 17:53:04.767902,-13
2021-12-23 17:53:04.767908,-2
2021-12-23 17:53:04.767915,16
2021-12-23 17:53:04.767921,-18
2021-12-23 17:53:04.767927,-76
2021-12-23 17:53:04.767934,-69
2021-12-23 17:53:04.767940,-34
2021-12-23 17:53:04.767947,-30
2021-12-23 17:53:04.767953,-30
2021-12-23 17:53:04.767964,-34
2021-12-23 17:53:04.767971,-39
2021-12-23 17:53:04.767990,-18
2021-12-23 17:53:05.038324,-2
2021-12-23 17:53:05.038344,2
2021-12-23 17:53:05.038352,-2
2021-12-23 17:53:05.038359,-32
2021-12-23 17:53:05.038366,-51
2021-12-23 17:53:05.038372,-25
2021-12-23 17:53:05.038379,-9
2021-12-23 17:53:05.038390,-2
2021-12-23 17:53:05.038397,9
2021-12-23 17:53:05.038403,-18
2021-12-23 17:53:05.038409,-41
2021-12-23 17:53:05.038416,-6
2021-12-23 17:53:05.038422,25
2021-12-23 17:53:05.038429,13
2021-12-23 17:53:05.038435,-13
2021-12-23 17:53:05.038442,-34
2021-12-23 17:53:05.038448,-34
2021-12-23 17:53:05.038455,-37
2021-12-23 17:53:05.038461,-41
2021-12-23 17:53:05.038468,-34
2021-12-23 17:53:05.038474,-32
2021-12-23 17:53:05.038481,-34
2021-12-23 17:53:05.038487,-16
2021-12-23 17:53:05.038494,0
2021-12-23 17:53:05.038500,-16
2021-12-23 17:53:05.038506,-11
2021-12-23 17:53:05.038513,-9
2021-12-23 17:53:05.038519,-30
2021-12-23 17:53:05.038526,-23
2021-12-23 17:53:05.038533,0
2021-12-23 17:53:05.352262,4
2021-12-23 17:53:05.352285,9
2021-12-23 17:53:05.352293,9
2021-12-23 17:53:05.352300,2
2021-12-23 17:53:05.352307,13
2021-12-23 17:53:05.352313,46
2021-12-23 17:53:05.352320,79
2021-12-23 17:53:05.352327,130
2021-12-23 17:53:05.352333,300
2021-12-23 17:53:05.352340,578
2021-12-23 17:53:05.352347,655
2021-12-23 17:53:05.352353,249
2021-12-23 17:53:05.352360,-366
2021-12-23 17:53:05.352367,-491
2021-12-23 17:53:05.352374,-137
2021-12-23 17:53:05.352380,2
2021-12-23 17:53:05.352387,-37
2021-12-23 17:53:05.352394,81
2021-12-23 17:53:05.352400,177
2021-12-23 17:53:05.352407,144
2021-12-23 17:53:05.352414,137
2021-12-23 17:53:05.352420,165
2021-12-23 17:53:05.352427,179
2021-12-23 17:53:05.352434,202
2021-12-23 17:53:05.352445,230
2021-12-23 17:53:05.352452,228
2021-12-23 17:53:05.352459,191
2021-12-23 17:53:05.352466,160
2021-12-23 17:53:05.352472,184
2021-12-23 17:53:05.352479,240
2021-12-23 17:53:05.488776,275
2021-12-23 17:53:05.488807,303
2021-12-23 17:53:05.488819,335
2021-12-23 17:53:05.488830,356
2021-12-23 17:53:05.488840,380
2021-12-23 17:53:05.488850,419
2021-12-23 17:53:05.488860,445
2021-12-23 17:53:05.488870,445
2021-12-23 17:53:05.488880,431
2021-12-23 17:53:05.488890,398
2021-12-23 17:53:05.488900,345
2021-12-23 17:53:05.488910,277
2021-12-23 17:53:05.488920,207
2021-12-23 17:53:05.488930,121
2021-12-23 17:53:05.488939,20
2021-12-23 17:53:05.488949,-53
2021-12-23 17:53:05.488960,-86
2021-12-23 17:53:05.488970,-100
2021-12-23 17:53:05.488980,-116
2021-12-23 17:53:05.488990,-142
2021-12-23 17:53:05.489000,-172
2021-12-23 17:53:05.489010,-216
2021-12-23 17:53:05.489023,-265
2021-12-23 17:53:05.489033,-247
2021-12-23 17:53:05.489043,-160
2021-12-23 17:53:05.489053,-90
2021-12-23 17:53:05.489063,-79
2021-12-23 17:53:05.489073,-90
2021-12-23 17:53:05.489083,-100
2021-12-23 17:53:05.489093,-90
2021-12-23 17:53:05.713846,-65
2021-12-23 17:53:05.713877,-53
2021-12-23 17:53:05.713889,-55
2021-12-23 17:53:05.713899,-41
2021-12-23 17:53:05.713909,-25
2021-12-23 17:53:05.713919,-16
2021-12-23 17:53:05.713929,-27
2021-12-23 17:53:05.713939,-62
2021-12-23 17:53:05.713949,-83
2021-12-23 17:53:05.713959,-88
2021-12-23 17:53:05.713969,-100
2021-12-23 17:53:05.713979,-116
2021-12-23 17:53:05.713988,-130
2021-12-23 17:53:05.713998,-142
2021-12-23 17:53:05.714008,-137
2021-12-23 17:53:05.714018,-130
2021-12-23 17:53:05.714028,-130
2021-12-23 17:53:05.714038,-114
2021-12-23 17:53:05.714047,-111
2021-12-23 17:53:05.714057,-125
2021-12-23 17:53:05.714067,-111
2021-12-23 17:53:05.714077,-93
2021-12-23 17:53:05.714087,-79
2021-12-23 17:53:05.714097,-60
2021-12-23 17:53:05.714115,-53
2021-12-23 17:53:05.714126,-44
2021-12-23 17:53:05.714136,-23
2021-12-23 17:53:05.714145,-25
2021-12-23 17:53:05.714155,-37
2021-12-23 17:53:05.714165,-48
2021-12-23 17:53:05.938392,-69
2021-12-23 17:53:05.938422,-76
2021-12-23 17:53:05.938434,-90
2021-12-23 17:53:05.938444,-125
2021-12-23 17:53:05.938454,-111
2021-12-23 17:53:05.938464,-83
2021-12-23 17:53:05.938474,-107
2021-12-23 17:53:05.938484,-114
2021-12-23 17:53:05.938494,-60
2021-12-23 17:53:05.938504,88
2021-12-23 17:53:05.938514,384
2021-12-23 17:53:05.938524,592
2021-12-23 17:53:05.938534,342
2021-12-23 17:53:05.938544,-305
2021-12-23 17:53:05.938554,-666
2021-12-23 17:53:05.938564,-370
2021-12-23 17:53:05.938574,-55
2021-12-23 17:53:05.938584,-86
2021-12-23 17:53:05.938594,-67
2021-12-23 17:53:05.938604,65
2021-12-23 17:53:05.938614,86
2021-12-23 17:53:05.938624,62
2021-12-23 17:53:05.938633,102
2021-12-23 17:53:05.938643,125
2021-12-23 17:53:05.938653,123
2021-12-23 17:53:05.938663,146
2021-12-23 17:53:05.938673,174
2021-12-23 17:53:05.938683,177
2021-12-23 17:53:05.938693,195
2021-12-23 17:53:05.938703,228
2021-12-23 17:53:06.163789,244
2021-12-23 17:53:06.163821,256
2021-12-23 17:53:06.163833,275
2021-12-23 17:53:06.163843,296
2021-12-23 17:53:06.163853,331
2021-12-23 17:53:06.163863,352
2021-12-23 17:53:06.163873,349
2021-12-23 17:53:06.163882,368
2021-12-23 17:53:06.163892,394
2021-12-23 17:53:06.163902,380
2021-12-23 17:53:06.163912,335
2021-12-23 17:53:06.163921,249
2021-12-23 17:53:06.163931,130
2021-12-23 17:53:06.163941,51
2021-12-23 17:53:06.163951,0
2021-12-23 17:53:06.163961,-69
2021-12-23 17:53:06.163971,-128
2021-12-23 17:53:06.163981,-158
2021-12-23 17:53:06.163990,-170
2021-12-23 17:53:06.164000,-167
2021-12-23 17:53:06.164010,-165
2021-12-23 17:53:06.164020,-165
2021-12-23 17:53:06.164030,-160
2021-12-23 17:53:06.164039,-156
2021-12-23 17:53:06.164049,-144
2021-12-23 17:53:06.164059,-123
2021-12-23 17:53:06.164069,-102
2021-12-23 17:53:06.164079,-95
2021-12-23 17:53:06.164089,-88
2021-12-23 17:53:06.164099,-76
2021-12-23 17:53:06.387975,-53
2021-12-23 17:53:06.387994,-23
2021-12-23 17:53:06.388002,-11
2021-12-23 17:53:06.388009,-44
2021-12-23 17:53:06.388016,-104
2021-12-23 17:53:06.388022,-135
2021-12-23 17:53:06.388029,-128
2021-12-23 17:53:06.388035,-123
2021-12-23 17:53:06.388042,-151
2021-12-23 17:53:06.388048,-200
2021-12-23 17:53:06.388060,-228
2021-12-23 17:53:06.388066,-219
2021-12-23 17:53:06.388073,-193
2021-12-23 17:53:06.388080,-174
2021-12-23 17:53:06.388086,-170
2021-12-23 17:53:06.388093,-170
2021-12-23 17:53:06.388099,-165
2021-12-23 17:53:06.388106,-156
2021-12-23 17:53:06.388112,-137
2021-12-23 17:53:06.388119,-123
2021-12-23 17:53:06.388125,-123
2021-12-23 17:53:06.388132,-121
2021-12-23 17:53:06.388138,-109
2021-12-23 17:53:06.388144,-90
2021-12-23 17:53:06.388151,-69
2021-12-23 17:53:06.388157,-44
2021-12-23 17:53:06.388164,-20
2021-12-23 17:53:06.388170,-30
2021-12-23 17:53:06.388177,-55
2021-12-23 17:53:06.388183,-48
2021-12-23 17:53:06.613745,-23
2021-12-23 17:53:06.613777,-11
2021-12-23 17:53:06.613790,-13
2021-12-23 17:53:06.613801,-32
2021-12-23 17:53:06.613811,-60
2021-12-23 17:53:06.613821,-67
2021-12-23 17:53:06.613831,-62
2021-12-23 17:53:06.613841,-48
2021-12-23 17:53:06.613851,-16
2021-12-23 17:53:06.613862,37
2021-12-23 17:53:06.613872,207
2021-12-23 17:53:06.613882,484
2021-12-23 17:53:06.613892,573
2021-12-23 17:53:06.613903,254
2021-12-23 17:53:06.613913,-317
2021-12-23 17:53:06.613923,-582
2021-12-23 17:53:06.613933,-282
2021-12-23 17:53:06.613943,-20
2021-12-23 17:53:06.613954,-39
2021-12-23 17:53:06.613964,39
2021-12-23 17:53:06.613974,149
2021-12-23 17:53:06.613984,107
2021-12-23 17:53:06.613994,88
2021-12-23 17:53:06.614004,144
2021-12-23 17:53:06.614014,165
2021-12-23 17:53:06.614032,174
2021-12-23 17:53:06.614043,200
2021-12-23 17:53:06.614053,198
2021-12-23 17:53:06.614063,195
2021-12-23 17:53:06.614073,233
2021-12-23 17:53:06.883787,263
2021-12-23 17:53:06.883818,279
2021-12-23 17:53:06.883830,296
2021-12-23 17:53:06.883841,289
2021-12-23 17:53:06.883851,296
2021-12-23 17:53:06.883861,354
2021-12-23 17:53:06.883872,403
2021-12-23 17:53:06.883882,410
2021-12-23 17:53:06.883893,384
2021-12-23 17:53:06.883903,345
2021-12-23 17:53:06.883913,331
2021-12-23 17:53:06.883923,333
2021-12-23 17:53:06.883934,291
2021-12-23 17:53:06.883944,193
2021-12-23 17:53:06.883954,58
2021-12-23 17:53:06.883964,-60
2021-12-23 17:53:06.883975,-107
2021-12-23 17:53:06.883985,-118
2021-12-23 17:53:06.883995,-151
2021-12-23 17:53:06.884005,-172
2021-12-23 17:53:06.884015,-184
2021-12-23 17:53:06.884025,-209
2021-12-23 17:53:06.884035,-212
2021-12-23 17:53:06.884045,-188
2021-12-23 17:53:06.884055,-167
2021-12-23 17:53:06.884065,-151
2021-12-23 17:53:06.884075,-149
2021-12-23 17:53:06.884085,-151
2021-12-23 17:53:06.884095,-130
2021-12-23 17:53:06.884105,-102
2021-12-23 17:53:07.108310,-81
2021-12-23 17:53:07.108341,-65
2021-12-23 17:53:07.108353,-62
2021-12-23 17:53:07.108363,-67
2021-12-23 17:53:07.108373,-51
2021-12-23 17:53:07.108384,-32
2021-12-23 17:53:07.108394,-13
2021-12-23 17:53:07.108404,-6
2021-12-23 17:53:07.108414,-37
2021-12-23 17:53:07.108424,-79
2021-12-23 17:53:07.108434,-86
2021-12-23 17:53:07.108444,-69
2021-12-23 17:53:07.108454,-67
2021-12-23 17:53:07.108464,-90
2021-12-23 17:53:07.108474,-132
2021-12-23 17:53:07.108485,-170
2021-12-23 17:53:07.108500,-170
2021-12-23 17:53:07.108510,-149
2021-12-23 17:53:07.108520,-132
2021-12-23 17:53:07.108531,-125
2021-12-23 17:53:07.108541,-125
2021-12-23 17:53:07.108551,-114
2021-12-23 17:53:07.108561,-86
2021-12-23 17:53:07.108571,-65
2021-12-23 17:53:07.108581,-55
2021-12-23 17:53:07.108591,-67
2021-12-23 17:53:07.108601,-93
2021-12-23 17:53:07.108611,-88
2021-12-23 17:53:07.108621,-62
2021-12-23 17:53:07.108631,-51
2021-12-23 17:53:07.378099,-44
2021-12-23 17:53:07.378130,-37
2021-12-23 17:53:07.378142,-37
2021-12-23 17:53:07.378152,-37
2021-12-23 17:53:07.378162,-16
2021-12-23 17:53:07.378172,18
2021-12-23 17:53:07.378182,93
2021-12-23 17:53:07.378192,296
2021-12-23 17:53:07.378202,554
2021-12-23 17:53:07.378212,582
2021-12-23 17:53:07.378222,195
2021-12-23 17:53:07.378232,-403
2021-12-23 17:53:07.378242,-592
2021-12-23 17:53:07.378252,-263
2021-12-23 17:53:07.378262,-83
2021-12-23 17:53:07.378272,-118
2021-12-23 17:53:07.378282,-13
2021-12-23 17:53:07.378292,81
2021-12-23 17:53:07.378302,60
2021-12-23 17:53:07.378312,69
2021-12-23 17:53:07.378322,76
2021-12-23 17:53:07.378332,37
2021-12-23 17:53:07.378342,58
2021-12-23 17:53:07.378352,114
2021-12-23 17:53:07.378362,125
2021-12-23 17:53:07.378371,125
2021-12-23 17:53:07.378381,153
2021-12-23 17:53:07.378391,181
2021-12-23 17:53:07.378401,207
2021-12-23 17:53:07.378411,249
2021-12-23 17:53:07.559068,286
2021-12-23 17:53:07.559099,310
2021-12-23 17:53:07.559111,345
2021-12-23 17:53:07.559121,384
2021-12-23 17:53:07.559131,408
2021-12-23 17:53:07.559141,426
2021-12-23 17:53:07.559151,426
2021-12-23 17:53:07.559161,394
2021-12-23 17:53:07.559171,345
2021-12-23 17:53:07.559181,279
2021-12-23 17:53:07.559191,198
2021-12-23 17:53:07.559200,116
2021-12-23 17:53:07.559210,27
2021-12-23 17:53:07.559226,-79
2021-12-23 17:53:07.559236,-158
2021-12-23 17:53:07.559246,-186
2021-12-23 17:53:07.559256,-184
2021-12-23 17:53:07.559266,-172
2021-12-23 17:53:07.559276,-174
2021-12-23 17:53:07.559285,-184
2021-12-23 17:53:07.559295,-181
2021-12-23 17:53:07.559305,-167
2021-12-23 17:53:07.559315,-151
2021-12-23 17:53:07.559325,-132
2021-12-23 17:53:07.559334,-121
2021-12-23 17:53:07.559344,-107
2021-12-23 17:53:07.559354,-83
2021-12-23 17:53:07.559364,-72
2021-12-23 17:53:07.559373,-58
2021-12-23 17:53:07.559383,-39
2021-12-23 17:53:07.783269,-34
2021-12-23 17:53:07.783300,-20
2021-12-23 17:53:07.783318,2
2021-12-23 17:53:07.783328,2
2021-12-23 17:53:07.783338,-13
2021-12-23 17:53:07.783348,-30
2021-12-23 17:53:07.783358,-55
2021-12-23 17:53:07.783368,-62
2021-12-23 17:53:07.783378,-41
2021-12-23 17:53:07.783388,-41
2021-12-23 17:53:07.783398,-48
2021-12-23 17:53:07.783408,-53
2021-12-23 17:53:07.783418,-76
2021-12-23 17:53:07.783428,-83
2021-12-23 17:53:07.783438,-67
2021-12-23 17:53:07.783448,-81
2021-12-23 17:53:07.783457,-109
2021-12-23 17:53:07.783467,-97
2021-12-23 17:53:07.783477,-74
2021-12-23 17:53:07.783487,-60
2021-12-23 17:53:07.783497,-37
2021-12-23 17:53:07.783507,-18
2021-12-23 17:53:07.783517,-20
2021-12-23 17:53:07.783527,-32
2021-12-23 17:53:07.783537,-39
2021-12-23 17:53:07.783547,-34
2021-12-23 17:53:07.783557,-58
2021-12-23 17:53:07.783566,-114
2021-12-23 17:53:07.783576,-125
2021-12-23 17:53:07.783586,-111
2021-12-23 17:53:08.008902,-130
2021-12-23 17:53:08.008933,-125
2021-12-23 17:53:08.008945,-95
2021-12-23 17:53:08.008955,-79
2021-12-23 17:53:08.008965,-9
2021-12-23 17:53:08.008975,205
2021-12-23 17:53:08.008986,459
2021-12-23 17:53:08.008995,473
2021-12-23 17:53:08.009005,79
2021-12-23 17:53:08.009015,-494
2021-12-23 17:53:08.009025,-643
2021-12-23 17:53:08.009035,-303
2021-12-23 17:53:08.009045,-118
2021-12-23 17:53:08.009055,-130
2021-12-23 17:53:08.009064,-27
2021-12-23 17:53:08.009074,41
2021-12-23 17:53:08.009084,16
2021-12-23 17:53:08.009099,30
2021-12-23 17:53:08.009109,48
2021-12-23 17:53:08.009119,46
2021-12-23 17:53:08.009128,69
2021-12-23 17:53:08.009138,93
2021-12-23 17:53:08.009148,97
2021-12-23 17:53:08.009158,111
2021-12-23 17:53:08.009168,142
2021-12-23 17:53:08.009178,174
2021-12-23 17:53:08.009188,200
2021-12-23 17:53:08.009198,226
2021-12-23 17:53:08.009208,251
2021-12-23 17:53:08.009217,263
2021-12-23 17:53:08.277986,289
2021-12-23 17:53:08.278018,328
2021-12-23 17:53:08.278030,352
2021-12-23 17:53:08.278040,347
2021-12-23 17:53:08.278050,324
2021-12-23 17:53:08.278060,289
2021-12-23 17:53:08.278070,256
2021-12-23 17:53:08.278080,216
2021-12-23 17:53:08.278089,144
2021-12-23 17:53:08.278099,48
2021-12-23 17:53:08.278109,-46
2021-12-23 17:53:08.278119,-118
2021-12-23 17:53:08.278129,-151
2021-12-23 17:53:08.278139,-160
2021-12-23 17:53:08.278149,-170
2021-12-23 17:53:08.278159,-181
2021-12-23 17:53:08.278168,-186
2021-12-23 17:53:08.278178,-177
2021-12-23 17:53:08.278188,-156
2021-12-23 17:53:08.278198,-146
2021-12-23 17:53:08.278208,-158
2021-12-23 17:53:08.278217,-167
2021-12-23 17:53:08.278227,-153
2021-12-23 17:53:08.278237,-132
2021-12-23 17:53:08.278246,-109
2021-12-23 17:53:08.278256,-83
2021-12-23 17:53:08.278266,-69
2021-12-23 17:53:08.278275,-69
2021-12-23 17:53:08.278285,-69
2021-12-23 17:53:08.278295,-48
2021-12-23 17:53:08.503810,-27
2021-12-23 17:53:08.503842,-39
2021-12-23 17:53:08.503854,-79
2021-12-23 17:53:08.503864,-100
2021-12-23 17:53:08.503875,-107
2021-12-23 17:53:08.503885,-104
2021-12-23 17:53:08.503894,-81
2021-12-23 17:53:08.503904,-60
2021-12-23 17:53:08.503914,-55
2021-12-23 17:53:08.503924,-74
2021-12-23 17:53:08.503934,-100
2021-12-23 17:53:08.503944,-93
2021-12-23 17:53:08.503954,-69
2021-12-23 17:53:08.503964,-55
2021-12-23 17:53:08.503974,-53
2021-12-23 17:53:08.503984,-69
2021-12-23 17:53:08.504027,-69
2021-12-23 17:53:08.504037,-32
2021-12-23 17:53:08.504047,-9
2021-12-23 17:53:08.504057,0
2021-12-23 17:53:08.504067,20
2021-12-23 17:53:08.504077,23
2021-12-23 17:53:08.504087,-4
2021-12-23 17:53:08.504096,-25
2021-12-23 17:53:08.504106,-16
2021-12-23 17:53:08.504116,2
2021-12-23 17:53:08.504126,0
2021-12-23 17:53:08.504136,-16
2021-12-23 17:53:08.504146,-13
2021-12-23 17:53:08.504160,4
2021-12-23 17:53:08.728666,16
2021-12-23 17:53:08.728697,18
2021-12-23 17:53:08.728709,23
2021-12-23 17:53:08.728719,23
2021-12-23 17:53:08.728730,58
2021-12-23 17:53:08.728740,235
2021-12-23 17:53:08.728750,517
2021-12-23 17:53:08.728760,622
2021-12-23 17:53:08.728770,314
2021-12-23 17:53:08.728780,-293
2021-12-23 17:53:08.728790,-615
2021-12-23 17:53:08.728800,-340
2021-12-23 17:53:08.728810,-46
2021-12-23 17:53:08.728820,-44
2021-12-23 17:53:08.728830,-11
2021-12-23 17:53:08.728840,37
2021-12-23 17:53:08.728850,11
2021-12-23 17:53:08.728860,30
2021-12-23 17:53:08.728869,76
2021-12-23 17:53:08.728879,79
2021-12-23 17:53:08.728889,72
2021-12-23 17:53:08.728899,72
2021-12-23 17:53:08.728909,86
2021-12-23 17:53:08.728919,102
2021-12-23 17:53:08.728929,100
2021-12-23 17:53:08.728939,102
2021-12-23 17:53:08.728948,118
2021-12-23 17:53:08.728958,137
2021-12-23 17:53:08.728968,179
2021-12-23 17:53:08.728978,228
2021-12-23 17:53:09.087509,268
2021-12-23 17:53:09.087537,305
2021-12-23 17:53:09.087550,326
2021-12-23 17:53:09.087561,328
2021-12-23 17:53:09.087596,345
2021-12-23 17:53:09.087619,352
2021-12-23 17:53:09.087628,326
2021-12-23 17:53:09.087635,242
2021-12-23 17:53:09.087643,97
2021-12-23 17:53:09.087651,-25
2021-12-23 17:53:09.087659,-69
2021-12-23 17:53:09.087667,-107
2021-12-23 17:53:09.087675,-158
2021-12-23 17:53:09.087683,-193
2021-12-23 17:53:09.087691,-233
2021-12-23 17:53:09.087699,-265
2021-12-23 17:53:09.087708,-254
2021-12-23 17:53:09.087716,-221
2021-12-23 17:53:09.087724,-202
2021-12-23 17:53:09.087732,-193
2021-12-23 17:53:09.087740,-188
2021-12-23 17:53:09.087748,-179
2021-12-23 17:53:09.087755,-156
2021-12-23 17:53:09.087763,-125
2021-12-23 17:53:09.087771,-102
2021-12-23 17:53:09.087779,-93
2021-12-23 17:53:09.087787,-111
2021-12-23 17:53:09.087794,-121
2021-12-23 17:53:09.087802,-90
2021-12-23 17:53:09.087810,-60
2021-12-23 17:53:09.223331,-55
2021-12-23 17:53:09.223355,-58
2021-12-23 17:53:09.223363,-58
2021-12-23 17:53:09.223370,-55
2021-12-23 17:53:09.223376,-41
2021-12-23 17:53:09.223383,-20
2021-12-23 17:53:09.223389,-4
2021-12-23 17:53:09.223395,-2
2021-12-23 17:53:09.223402,-4
2021-12-23 17:53:09.223408,-4
2021-12-23 17:53:09.223414,9
2021-12-23 17:53:09.223421,20
2021-12-23 17:53:09.223427,25
2021-12-23 17:53:09.223434,9
2021-12-23 17:53:09.223440,-6
2021-12-23 17:53:09.223446,-2
2021-12-23 17:53:09.223453,13
2021-12-23 17:53:09.223459,16
2021-12-23 17:53:09.223465,9
2021-12-23 17:53:09.223471,-9
2021-12-23 17:53:09.223482,-27
2021-12-23 17:53:09.223488,-20
2021-12-23 17:53:09.223495,4
2021-12-23 17:53:09.223501,32
2021-12-23 17:53:09.223508,55
2021-12-23 17:53:09.223514,53
2021-12-23 17:53:09.223520,30
2021-12-23 17:53:09.223527,-44
2021-12-23 17:53:09.223533,-158
2021-12-23 17:53:09.223540,-188
2021-12-23 17:53:09.447504,-146
2021-12-23 17:53:09.447535,-142
2021-12-23 17:53:09.447547,-151
2021-12-23 17:53:09.447557,-144
2021-12-23 17:53:09.447568,-135
2021-12-23 17:53:09.447578,-116
2021-12-23 17:53:09.447587,-111
2021-12-23 17:53:09.447597,-111
2021-12-23 17:53:09.447607,32
2021-12-23 17:53:09.447618,352
2021-12-23 17:53:09.447627,538
2021-12-23 17:53:09.447637,289
2021-12-23 17:53:09.447647,-296
2021-12-23 17:53:09.447657,-652
2021-12-23 17:53:09.447667,-454
2021-12-23 17:53:09.447677,-184
2021-12-23 17:53:09.447687,-160
2021-12-23 17:53:09.447697,-100
2021-12-23 17:53:09.447707,-4
2021-12-23 17:53:09.447716,-37
2021-12-23 17:53:09.447726,-74
2021-12-23 17:53:09.447737,-60
2021-12-23 17:53:09.447746,-51
2021-12-23 17:53:09.447756,-55
2021-12-23 17:53:09.447766,-48
2021-12-23 17:53:09.447776,-25
2021-12-23 17:53:09.447786,4
2021-12-23 17:53:09.447796,18
2021-12-23 17:53:09.447806,37
2021-12-23 17:53:09.447815,67
2021-12-23 17:53:09.628243,76
2021-12-23 17:53:09.628265,93
2021-12-23 17:53:09.628273,139
2021-12-23 17:53:09.628280,177
2021-12-23 17:53:09.628286,200
2021-12-23 17:53:09.628293,221
2021-12-23 17:53:09.628299,214
2021-12-23 17:53:09.628306,200
2021-12-23 17:53:09.628312,207
2021-12-23 17:53:09.628319,191
2021-12-23 17:53:09.628325,146
2021-12-23 17:53:09.628332,74
2021-12-23 17:53:09.628338,-27
2021-12-23 17:53:09.628345,-104
2021-12-23 17:53:09.628351,-144
2021-12-23 17:53:09.628358,-191
2021-12-23 17:53:09.628364,-226
2021-12-23 17:53:09.628371,-233
2021-12-23 17:53:09.628377,-228
2021-12-23 17:53:09.628383,-221
2021-12-23 17:53:09.628390,-212
2021-12-23 17:53:09.628396,-209
2021-12-23 17:53:09.628403,-195
2021-12-23 17:53:09.628409,-177
2021-12-23 17:53:09.628416,-170
2021-12-23 17:53:09.628422,-153
2021-12-23 17:53:09.628428,-128
2021-12-23 17:53:09.628435,-111
2021-12-23 17:53:09.628441,-95
2021-12-23 17:53:09.628448,-81
2021-12-23 17:53:09.898678,-72
2021-12-23 17:53:09.898710,-67
2021-12-23 17:53:09.898723,-83
2021-12-23 17:53:09.898733,-104
2021-12-23 17:53:09.898743,-90
2021-12-23 17:53:09.898753,-90
2021-12-23 17:53:09.898763,-109
2021-12-23 17:53:09.898773,-76
2021-12-23 17:53:09.898783,-25
2021-12-23 17:53:09.898793,-25
2021-12-23 17:53:09.898803,-46
2021-12-23 17:53:09.898813,-62
2021-12-23 17:53:09.898822,-65
2021-12-23 17:53:09.898832,-46
2021-12-23 17:53:09.898842,-32
2021-12-23 17:53:09.898852,-32
2021-12-23 17:53:09.898862,-30
2021-12-23 17:53:09.898871,-32
2021-12-23 17:53:09.898881,-32
2021-12-23 17:53:09.898891,-37
2021-12-23 17:53:09.898901,-74
2021-12-23 17:53:09.898911,-93
2021-12-23 17:53:09.898926,-65
2021-12-23 17:53:09.898936,-51
2021-12-23 17:53:09.898946,-44
2021-12-23 17:53:09.898956,0
2021-12-23 17:53:09.898966,67
2021-12-23 17:53:09.898976,107
2021-12-23 17:53:09.898986,95
2021-12-23 17:53:09.898996,69
2021-12-23 17:53:10.077957,58
2021-12-23 17:53:10.077977,58
2021-12-23 17:53:10.077985,53
2021-12-23 17:53:10.077992,39
2021-12-23 17:53:10.077999,18
2021-12-23 17:53:10.078006,11
2021-12-23 17:53:10.078012,27
2021-12-23 17:53:10.078019,44
2021-12-23 17:53:10.078025,44
2021-12-23 17:53:10.078032,37
2021-12-23 17:53:10.078038,11
2021-12-23 17:53:10.078045,2
2021-12-23 17:53:10.078051,102
2021-12-23 17:53:10.078058,370
2021-12-23 17:53:10.078065,638
2021-12-23 17:53:10.078071,564
2021-12-23 17:53:10.078078,39
2021-12-23 17:53:10.078084,-487
2021-12-23 17:53:10.078091,-445
2021-12-23 17:53:10.078097,-83
2021-12-23 17:53:10.078104,0
2021-12-23 17:53:10.078111,-44
2021-12-23 17:53:10.078117,46
2021-12-23 17:53:10.078124,86
2021-12-23 17:53:10.078130,41
2021-12-23 17:53:10.078137,60
2021-12-23 17:53:10.078143,95
2021-12-23 17:53:10.078150,74
2021-12-23 17:53:10.078156,65
2021-12-23 17:53:10.078163,93
2021-12-23 17:53:10.303162,116
2021-12-23 17:53:10.303192,135
2021-12-23 17:53:10.303204,160
2021-12-23 17:53:10.303214,156
2021-12-23 17:53:10.303224,135
2021-12-23 17:53:10.303234,153
2021-12-23 17:53:10.303244,181
2021-12-23 17:53:10.303254,193
2021-12-23 17:53:10.303263,226
2021-12-23 17:53:10.303273,244
2021-12-23 17:53:10.303283,226
2021-12-23 17:53:10.303292,244
2021-12-23 17:53:10.303302,286
2021-12-23 17:53:10.303311,270
2021-12-23 17:53:10.303321,226
2021-12-23 17:53:10.303331,167
2021-12-23 17:53:10.303340,79
2021-12-23 17:53:10.303350,9
2021-12-23 17:53:10.303360,-32
2021-12-23 17:53:10.303370,-81
2021-12-23 17:53:10.303380,-137
2021-12-23 17:53:10.303389,-172
2021-12-23 17:53:10.303399,-184
2021-12-23 17:53:10.303409,-184
2021-12-23 17:53:10.303418,-186
2021-12-23 17:53:10.303428,-214
2021-12-23 17:53:10.303437,-230
2021-12-23 17:53:10.303447,-216
2021-12-23 17:53:10.303457,-195
2021-12-23 17:53:10.303466,-172
2021-12-23 17:53:10.573690,-139
2021-12-23 17:53:10.573712,-114
2021-12-23 17:53:10.573720,-114
2021-12-23 17:53:10.573727,-139
2021-12-23 17:53:10.573734,-142
2021-12-23 17:53:10.573740,-97
2021-12-23 17:53:10.573747,-67
2021-12-23 17:53:10.573753,-69
2021-12-23 17:53:10.573760,-93
2021-12-23 17:53:10.573766,-132
2021-12-23 17:53:10.573773,-137
2021-12-23 17:53:10.573779,-107
2021-12-23 17:53:10.573786,-86
2021-12-23 17:53:10.573792,-74
2021-12-23 17:53:10.573799,-67
2021-12-23 17:53:10.573805,-81
2021-12-23 17:53:10.573811,-86
2021-12-23 17:53:10.573818,-62
2021-12-23 17:53:10.573824,-41
2021-12-23 17:53:10.573831,-30
2021-12-23 17:53:10.573837,-27
2021-12-23 17:53:10.573844,-39
2021-12-23 17:53:10.573850,-30
2021-12-23 17:53:10.573856,-9
2021-12-23 17:53:10.573863,-9
2021-12-23 17:53:10.573869,-16
2021-12-23 17:53:10.573876,-13
2021-12-23 17:53:10.573882,-11
2021-12-23 17:53:10.573889,4
2021-12-23 17:53:10.573895,25
2021-12-23 17:53:10.842682,20
2021-12-23 17:53:10.842702,23
2021-12-23 17:53:10.842710,30
2021-12-23 17:53:10.842717,-4
2021-12-23 17:53:10.842723,-32
2021-12-23 17:53:10.842735,-9
2021-12-23 17:53:10.842741,9
2021-12-23 17:53:10.842748,4
2021-12-23 17:53:10.842754,-18
2021-12-23 17:53:10.842761,-46
2021-12-23 17:53:10.842767,-48
2021-12-23 17:53:10.842774,-44
2021-12-23 17:53:10.842780,-44
2021-12-23 17:53:10.842786,-34
2021-12-23 17:53:10.842793,-37
2021-12-23 17:53:10.842799,62
2021-12-23 17:53:10.842806,366
2021-12-23 17:53:10.842812,608
2021-12-23 17:53:10.842818,401
2021-12-23 17:53:10.842825,-235
2021-12-23 17:53:10.842831,-694
2021-12-23 17:53:10.842838,-526
2021-12-23 17:53:10.842844,-221
2021-12-23 17:53:10.842850,-202
2021-12-23 17:53:10.842857,-172
2021-12-23 17:53:10.842863,-69
2021-12-23 17:53:10.842869,-88
2021-12-23 17:53:10.842876,-114
2021-12-23 17:53:10.842882,-69
2021-12-23 17:53:10.842888,-53
2021-12-23 17:53:11.113533,-79
2021-12-23 17:53:11.113563,-83
2021-12-23 17:53:11.113574,-58
2021-12-23 17:53:11.113585,-41
2021-12-23 17:53:11.113595,-18
2021-12-23 17:53:11.113605,20
2021-12-23 17:53:11.113614,53
2021-12-23 17:53:11.113624,60
2021-12-23 17:53:11.113634,53
2021-12-23 17:53:11.113644,76
2021-12-23 17:53:11.113653,128
2021-12-23 17:53:11.113663,163
2021-12-23 17:53:11.113673,174
2021-12-23 17:53:11.113683,158
2021-12-23 17:53:11.113693,137
2021-12-23 17:53:11.113703,142
2021-12-23 17:53:11.113712,146
2021-12-23 17:53:11.113722,125
2021-12-23 17:53:11.113732,72
2021-12-23 17:53:11.113742,-18
2021-12-23 17:53:11.113751,-100
2021-12-23 17:53:11.113761,-149
2021-12-23 17:53:11.113771,-195
2021-12-23 17:53:11.113780,-226
2021-12-23 17:53:11.113790,-228
2021-12-23 17:53:11.113799,-233
2021-12-23 17:53:11.113809,-230
2021-12-23 17:53:11.113819,-214
2021-12-23 17:53:11.113828,-188
2021-12-23 17:53:11.113838,-158
2021-12-23 17:53:11.293628,-137
2021-12-23 17:53:11.293658,-116
2021-12-23 17:53:11.293670,-93
2021-12-23 17:53:11.293680,-55
2021-12-23 17:53:11.293691,2
2021-12-23 17:53:11.293700,46
2021-12-23 17:53:11.293710,44
2021-12-23 17:53:11.293720,39
2021-12-23 17:53:11.293730,53
2021-12-23 17:53:11.293740,62
2021-12-23 17:53:11.293749,72
2021-12-23 17:53:11.293759,93
2021-12-23 17:53:11.293769,95
2021-12-23 17:53:11.293779,79
2021-12-23 17:53:11.293789,67
2021-12-23 17:53:11.293798,44
2021-12-23 17:53:11.293808,34
2021-12-23 17:53:11.293818,48
2021-12-23 17:53:11.293828,37
2021-12-23 17:53:11.293838,11
2021-12-23 17:53:11.293848,18
2021-12-23 17:53:11.293857,23
2021-12-23 17:53:11.293867,23
2021-12-23 17:53:11.293877,34
2021-12-23 17:53:11.293887,23
2021-12-23 17:53:11.293897,-2
2021-12-23 17:53:11.293907,-2
2021-12-23 17:53:11.293917,-11
2021-12-23 17:53:11.293927,-30
2021-12-23 17:53:11.293936,-20
2021-12-23 17:53:11.561890,-16
2021-12-23 17:53:11.561921,-13
2021-12-23 17:53:11.561933,6
2021-12-23 17:53:11.561943,20
2021-12-23 17:53:11.561953,25
2021-12-23 17:53:11.561963,0
2021-12-23 17:53:11.561973,-60
2021-12-23 17:53:11.561982,-74
2021-12-23 17:53:11.561992,-48
2021-12-23 17:53:11.562002,-44
2021-12-23 17:53:11.562011,-41
2021-12-23 17:53:11.562021,-32
2021-12-23 17:53:11.562030,-53
2021-12-23 17:53:11.562040,-58
2021-12-23 17:53:11.562049,-34
2021-12-23 17:53:11.562059,-30
2021-12-23 17:53:11.562068,-53
2021-12-23 17:53:11.562078,-65
2021-12-23 17:53:11.562088,16
2021-12-23 17:53:11.562097,279
2021-12-23 17:53:11.562107,543
2021-12-23 17:53:11.562117,438
2021-12-23 17:53:11.562127,-97
2021-12-23 17:53:11.562137,-596
2021-12-23 17:53:11.562146,-545
2021-12-23 17:53:11.562156,-205
2021-12-23 17:53:11.562166,-116
2021-12-23 17:53:11.562175,-121
2021-12-23 17:53:11.562185,-6
2021-12-23 17:53:11.562195,37
2021-12-23 17:53:11.743199,4
2021-12-23 17:53:11.743230,37
2021-12-23 17:53:11.743239,79
2021-12-23 17:53:11.743245,76
2021-12-23 17:53:11.743252,81
2021-12-23 17:53:11.743258,83
2021-12-23 17:53:11.743265,79
2021-12-23 17:53:11.743271,111
2021-12-23 17:53:11.743278,144
2021-12-23 17:53:11.743284,158
2021-12-23 17:53:11.743291,181
2021-12-23 17:53:11.743297,193
2021-12-23 17:53:11.743304,207
2021-12-23 17:53:11.743310,261
2021-12-23 17:53:11.743317,310
2021-12-23 17:53:11.743323,326
2021-12-23 17:53:11.743330,347
2021-12-23 17:53:11.743336,359
2021-12-23 17:53:11.743343,321
2021-12-23 17:53:11.743349,286
2021-12-23 17:53:11.743356,268
2021-12-23 17:53:11.743362,216
2021-12-23 17:53:11.743369,125
2021-12-23 17:53:11.743375,46
2021-12-23 17:53:11.743382,-9
2021-12-23 17:53:11.743388,-51
2021-12-23 17:53:11.743395,-90
2021-12-23 17:53:11.743401,-118
2021-12-23 17:53:11.743408,-128
2021-12-23 17:53:11.743414,-128
2021-12-23 17:53:11.923475,-114
2021-12-23 17:53:11.923505,-90
2021-12-23 17:53:11.923517,-83
2021-12-23 17:53:11.923527,-86
2021-12-23 17:53:11.923537,-88
2021-12-23 17:53:11.923547,-95
2021-12-23 17:53:11.923557,-76
2021-12-23 17:53:11.923567,-37
2021-12-23 17:53:11.923576,-25
2021-12-23 17:53:11.923586,-32
2021-12-23 17:53:11.923596,-41
2021-12-23 17:53:11.923606,-53
2021-12-23 17:53:11.923616,-41
2021-12-23 17:53:11.923626,-39
2021-12-23 17:53:11.923635,-88
2021-12-23 17:53:11.923645,-123
2021-12-23 17:53:11.923655,-121
2021-12-23 17:53:11.923664,-123
2021-12-23 17:53:11.923674,-107
2021-12-23 17:53:11.923683,-65
2021-12-23 17:53:11.923693,-37
2021-12-23 17:53:11.923703,-44
2021-12-23 17:53:11.923712,-44
2021-12-23 17:53:11.923722,-23
2021-12-23 17:53:11.923732,-4
2021-12-23 17:53:11.923742,0
2021-12-23 17:53:11.923751,0
2021-12-23 17:53:11.923761,-2
2021-12-23 17:53:11.923771,-9
2021-12-23 17:53:11.923780,0
2021-12-23 17:53:12.148080,23
2021-12-23 17:53:12.148111,25
2021-12-23 17:53:12.148123,16
2021-12-23 17:53:12.148133,9
2021-12-23 17:53:12.148143,-2
2021-12-23 17:53:12.148153,11
2021-12-23 17:53:12.148163,51
2021-12-23 17:53:12.148173,60
2021-12-23 17:53:12.148183,51
2021-12-23 17:53:12.148193,32
2021-12-23 17:53:12.148202,0
2021-12-23 17:53:12.148212,-9
2021-12-23 17:53:12.148222,25
2021-12-23 17:53:12.148232,51
2021-12-23 17:53:12.148242,46
2021-12-23 17:53:12.148252,34
2021-12-23 17:53:12.148262,32
2021-12-23 17:53:12.148272,27
2021-12-23 17:53:12.148282,39
2021-12-23 17:53:12.148291,65
2021-12-23 17:53:12.148301,158
2021-12-23 17:53:12.148311,415
2021-12-23 17:53:12.148321,634
2021-12-23 17:53:12.148331,405
2021-12-23 17:53:12.148341,-240
2021-12-23 17:53:12.148351,-606
2021-12-23 17:53:12.148361,-321
2021-12-23 17:53:12.148371,-18
2021-12-23 17:53:12.148381,-53
2021-12-23 17:53:12.148391,-18
2021-12-23 17:53:12.418744,123
2021-12-23 17:53:12.418767,139
2021-12-23 17:53:12.418774,104
2021-12-23 17:53:12.418781,102
2021-12-23 17:53:12.418788,104
2021-12-23 17:53:12.418794,121
2021-12-23 17:53:12.418801,146
2021-12-23 17:53:12.418807,172
2021-12-23 17:53:12.418814,191
2021-12-23 17:53:12.418820,181
2021-12-23 17:53:12.418827,179
2021-12-23 17:53:12.418834,212
2021-12-23 17:53:12.418841,249
2021-12-23 17:53:12.418848,286
2021-12-23 17:53:12.418855,326
2021-12-23 17:53:12.418862,331
2021-12-23 17:53:12.418869,312
2021-12-23 17:53:12.418876,340
2021-12-23 17:53:12.418883,387
2021-12-23 17:53:12.418890,394
2021-12-23 17:53:12.418897,363
2021-12-23 17:53:12.418904,317
2021-12-23 17:53:12.418911,272
2021-12-23 17:53:12.418918,221
2021-12-23 17:53:12.418925,130
2021-12-23 17:53:12.418932,25
2021-12-23 17:53:12.418939,-46
2021-12-23 17:53:12.418946,-100
2021-12-23 17:53:12.418953,-130
2021-12-23 17:53:12.418959,-130
2021-12-23 17:53:12.688485,-135
2021-12-23 17:53:12.688515,-139
2021-12-23 17:53:12.688527,-139
2021-12-23 17:53:12.688537,-149
2021-12-23 17:53:12.688547,-135
2021-12-23 17:53:12.688569,-97
2021-12-23 17:53:12.688576,-79
2021-12-23 17:53:12.688583,-74
2021-12-23 17:53:12.688589,-79
2021-12-23 17:53:12.688596,-97
2021-12-23 17:53:12.688602,-83
2021-12-23 17:53:12.688616,-44
2021-12-23 17:53:12.688623,-23
2021-12-23 17:53:12.688629,-25
2021-12-23 17:53:12.688636,-48
2021-12-23 17:53:12.688642,-65
2021-12-23 17:53:12.688648,-46
2021-12-23 17:53:12.688655,-32
2021-12-23 17:53:12.688661,-39
2021-12-23 17:53:12.688667,-41
2021-12-23 17:53:12.688674,-48
2021-12-23 17:53:12.688681,-48
2021-12-23 17:53:12.688687,-27
2021-12-23 17:53:12.688693,-16
2021-12-23 17:53:12.688700,-27
2021-12-23 17:53:12.688706,-39
2021-12-23 17:53:12.688712,-58
2021-12-23 17:53:12.688719,-81
2021-12-23 17:53:12.688725,-83
2021-12-23 17:53:12.688732,-67
2021-12-23 17:53:12.867995,-51
2021-12-23 17:53:12.868025,-46
2021-12-23 17:53:12.868037,-51
2021-12-23 17:53:12.868047,-48
2021-12-23 17:53:12.868057,-27
2021-12-23 17:53:12.868067,-4
2021-12-23 17:53:12.868077,4
2021-12-23 17:53:12.868087,-25
2021-12-23 17:53:12.868096,-69
2021-12-23 17:53:12.868106,-60
2021-12-23 17:53:12.868116,-23
2021-12-23 17:53:12.868125,-13
2021-12-23 17:53:12.868135,-20
2021-12-23 17:53:12.868145,-27
2021-12-23 17:53:12.868155,-37
2021-12-23 17:53:12.868164,-34
2021-12-23 17:53:12.868174,-16
2021-12-23 17:53:12.868184,6
2021-12-23 17:53:12.868193,114
2021-12-23 17:53:12.868203,370
2021-12-23 17:53:12.868213,538
2021-12-23 17:53:12.868223,303
2021-12-23 17:53:12.868233,-286
2021-12-23 17:53:12.868242,-704
2021-12-23 17:53:12.868252,-543
2021-12-23 17:53:12.868262,-233
2021-12-23 17:53:12.868272,-205
2021-12-23 17:53:12.868282,-177
2021-12-23 17:53:12.868291,-69
2021-12-23 17:53:12.868301,-79
2021-12-23 17:53:13.093000,-102
2021-12-23 17:53:13.093028,-58
2021-12-23 17:53:13.093035,-34
2021-12-23 17:53:13.093041,-34
2021-12-23 17:53:13.093046,-11
2021-12-23 17:53:13.093051,30
2021-12-23 17:53:13.093057,44
2021-12-23 17:53:13.093062,32
2021-12-23 17:53:13.093069,48
2021-12-23 17:53:13.093078,88
2021-12-23 17:53:13.093087,116
2021-12-23 17:53:13.093096,144
2021-12-23 17:53:13.093104,165
2021-12-23 17:53:13.093143,174
2021-12-23 17:53:13.093157,212
2021-12-23 17:53:13.093167,254
2021-12-23 17:53:13.093176,275
2021-12-23 17:53:13.093182,289
2021-12-23 17:53:13.093187,279
2021-12-23 17:53:13.093192,242
2021-12-23 17:53:13.093197,191
2021-12-23 17:53:13.093203,128
2021-12-23 17:53:13.093208,48
2021-12-23 17:53:13.093213,-32
2021-12-23 17:53:13.093218,-97
2021-12-23 17:53:13.093224,-139
2021-12-23 17:53:13.093229,-160
2021-12-23 17:53:13.093234,-179
2021-12-23 17:53:13.093239,-191
2021-12-23 17:53:13.093244,-177
2021-12-23 17:53:13.318698,-172
2021-12-23 17:53:13.318720,-191
2021-12-23 17:53:13.318728,-191
2021-12-23 17:53:13.318734,-167
2021-12-23 17:53:13.318741,-149
2021-12-23 17:53:13.318747,-146
2021-12-23 17:53:13.318754,-160
2021-12-23 17:53:13.318761,-156
2021-12-23 17:53:13.318767,-125
2021-12-23 17:53:13.318774,-111
2021-12-23 17:53:13.318780,-104
2021-12-23 17:53:13.318787,-95
2021-12-23 17:53:13.318794,-107
2021-12-23 17:53:13.318800,-107
2021-12-23 17:53:13.318807,-81
2021-12-23 17:53:13.318813,-65
2021-12-23 17:53:13.318820,-60
2021-12-23 17:53:13.318826,-55
2021-12-23 17:53:13.318833,-48
2021-12-23 17:53:13.318839,-44
2021-12-23 17:53:13.318846,-34
2021-12-23 17:53:13.318852,-32
2021-12-23 17:53:13.318859,-30
2021-12-23 17:53:13.318865,-34
2021-12-23 17:53:13.318872,-44
2021-12-23 17:53:13.318878,-32
2021-12-23 17:53:13.318885,-30
2021-12-23 17:53:13.318891,-76
2021-12-23 17:53:13.318898,-118
2021-12-23 17:53:13.318904,-102
2021-12-23 17:53:13.632095,-74
2021-12-23 17:53:13.632126,-65
2021-12-23 17:53:13.632138,-86
2021-12-23 17:53:13.632148,-128
2021-12-23 17:53:13.632158,-139
2021-12-23 17:53:13.632168,-137
2021-12-23 17:53:13.632178,-149
2021-12-23 17:53:13.632188,-132
2021-12-23 17:53:13.632198,-107
2021-12-23 17:53:13.632208,-104
2021-12-23 17:53:13.632218,-107
2021-12-23 17:53:13.632228,-114
2021-12-23 17:53:13.632238,-123
2021-12-23 17:53:13.632248,-95
2021-12-23 17:53:13.632258,0
2021-12-23 17:53:13.632268,233
2021-12-23 17:53:13.632278,529
2021-12-23 17:53:13.632288,559
2021-12-23 17:53:13.632298,142
2021-12-23 17:53:13.632308,-435
2021-12-23 17:53:13.632318,-575
2021-12-23 17:53:13.632328,-256
2021-12-23 17:53:13.632338,-97
2021-12-23 17:53:13.632348,-142
2021-12-23 17:53:13.632358,-60
2021-12-23 17:53:13.632368,18
2021-12-23 17:53:13.632378,-11
2021-12-23 17:53:13.632388,-4
2021-12-23 17:53:13.632398,32
2021-12-23 17:53:13.632408,37
2021-12-23 17:53:13.768045,48
2021-12-23 17:53:13.768075,83
2021-12-23 17:53:13.768087,102
2021-12-23 17:53:13.768097,107
2021-12-23 17:53:13.768107,116
2021-12-23 17:53:13.768117,123
2021-12-23 17:53:13.768127,139
2021-12-23 17:53:13.768136,184
2021-12-23 17:53:13.768155,219
2021-12-23 17:53:13.768165,244
2021-12-23 17:53:13.768175,263
2021-12-23 17:53:13.768185,275
2021-12-23 17:53:13.768195,298
2021-12-23 17:53:13.768205,333
2021-12-23 17:53:13.768214,335
2021-12-23 17:53:13.768224,305
2021-12-23 17:53:13.768234,240
2021-12-23 17:53:13.768244,153
2021-12-23 17:53:13.768254,79
2021-12-23 17:53:13.768263,16
2021-12-23 17:53:13.768273,-55
2021-12-23 17:53:13.768283,-123
2021-12-23 17:53:13.768293,-170
2021-12-23 17:53:13.768303,-188
2021-12-23 17:53:13.768313,-188
2021-12-23 17:53:13.768322,-179
2021-12-23 17:53:13.768332,-174
2021-12-23 17:53:13.768342,-184
2021-12-23 17:53:13.768352,-186
2021-12-23 17:53:13.768362,-167
2021-12-23 17:53:14.037991,-139
2021-12-23 17:53:14.038022,-125
2021-12-23 17:53:14.038034,-146
2021-12-23 17:53:14.038044,-195
2021-12-23 17:53:14.038054,-216
2021-12-23 17:53:14.038064,-186
2021-12-23 17:53:14.038074,-167
2021-12-23 17:53:14.038083,-177
2021-12-23 17:53:14.038093,-165
2021-12-23 17:53:14.038103,-156
2021-12-23 17:53:14.038113,-170
2021-12-23 17:53:14.038123,-153
2021-12-23 17:53:14.038132,-111
2021-12-23 17:53:14.038142,-93
2021-12-23 17:53:14.038152,-90
2021-12-23 17:53:14.038161,-95
2021-12-23 17:53:14.038171,-93
2021-12-23 17:53:14.038181,-83
2021-12-23 17:53:14.038191,-69
2021-12-23 17:53:14.038200,-51
2021-12-23 17:53:14.038210,-41
2021-12-23 17:53:14.038220,-55
2021-12-23 17:53:14.038230,-60
2021-12-23 17:53:14.038239,-44
2021-12-23 17:53:14.038249,-30
2021-12-23 17:53:14.038259,-16
2021-12-23 17:53:14.038269,0
2021-12-23 17:53:14.038278,2
2021-12-23 17:53:14.038288,4
2021-12-23 17:53:14.038298,27
2021-12-23 17:53:14.397820,51
2021-12-23 17:53:14.397850,46
2021-12-23 17:53:14.397862,9
2021-12-23 17:53:14.397872,-44
2021-12-23 17:53:14.397882,-60
2021-12-23 17:53:14.397892,-30
2021-12-23 17:53:14.397902,-11
2021-12-23 17:53:14.397911,-11
2021-12-23 17:53:14.397921,-18
2021-12-23 17:53:14.397931,-44
2021-12-23 17:53:14.397941,-44
2021-12-23 17:53:14.397951,-9
2021-12-23 17:53:14.397960,18
2021-12-23 17:53:14.397970,97
2021-12-23 17:53:14.397980,335
2021-12-23 17:53:14.397990,589
2021-12-23 17:53:14.398000,554
2021-12-23 17:53:14.398009,123
2021-12-23 17:53:14.398019,-426
2021-12-23 17:53:14.398029,-508
2021-12-23 17:53:14.398039,-151
2021-12-23 17:53:14.398049,-4
2021-12-23 17:53:14.398058,-27
2021-12-23 17:53:14.398068,79
2021-12-23 17:53:14.398078,137
2021-12-23 17:53:14.398088,88
2021-12-23 17:53:14.398097,81
2021-12-23 17:53:14.398107,83
2021-12-23 17:53:14.398117,65
2021-12-23 17:53:14.398126,83
2021-12-23 17:53:14.488497,114
2021-12-23 17:53:14.488528,125
2021-12-23 17:53:14.488539,137
2021-12-23 17:53:14.488550,144
2021-12-23 17:53:14.488559,151
2021-12-23 17:53:14.488569,184
2021-12-23 17:53:14.488579,223
2021-12-23 17:53:14.488588,254
2021-12-23 17:53:14.488598,261
2021-12-23 17:53:14.488608,254
2021-12-23 17:53:14.488617,272
2021-12-23 17:53:14.488627,286
2021-12-23 17:53:14.488637,282
2021-12-23 17:53:14.488646,286
2021-12-23 17:53:14.488656,258
2021-12-23 17:53:14.488666,191
2021-12-23 17:53:14.488675,130
2021-12-23 17:53:14.488685,74
2021-12-23 17:53:14.488695,-2
2021-12-23 17:53:14.488704,-72
2021-12-23 17:53:14.488714,-130
2021-12-23 17:53:14.488755,-184
2021-12-23 17:53:14.488765,-202
2021-12-23 17:53:14.488775,-191
2021-12-23 17:53:14.488784,-184
2021-12-23 17:53:14.488794,-184
2021-12-23 17:53:14.488804,-193
2021-12-23 17:53:14.488813,-191
2021-12-23 17:53:14.488823,-165
2021-12-23 17:53:14.488833,-137
2021-12-23 17:53:14.712656,-121
2021-12-23 17:53:14.712680,-114
2021-12-23 17:53:14.712687,-114
2021-12-23 17:53:14.712694,-109
2021-12-23 17:53:14.712701,-88
2021-12-23 17:53:14.712707,-67
2021-12-23 17:53:14.712714,-51
2021-12-23 17:53:14.712720,-51
2021-12-23 17:53:14.712726,-74
2021-12-23 17:53:14.712733,-74
2021-12-23 17:53:14.712739,-51
2021-12-23 17:53:14.712746,-30
2021-12-23 17:53:14.712752,-30
2021-12-23 17:53:14.712759,-58
2021-12-23 17:53:14.712765,-86
2021-12-23 17:53:14.712771,-74
2021-12-23 17:53:14.712778,-51
2021-12-23 17:53:14.712785,-41
2021-12-23 17:53:14.712791,-32
2021-12-23 17:53:14.712797,-32
2021-12-23 17:53:14.712804,-37
2021-12-23 17:53:14.712810,-32
2021-12-23 17:53:14.712817,-20
2021-12-23 17:53:14.712823,-9
2021-12-23 17:53:14.712830,-2
2021-12-23 17:53:14.712836,-2
2021-12-23 17:53:14.712843,-2
2021-12-23 17:53:14.712849,2
2021-12-23 17:53:14.712856,6
2021-12-23 17:53:14.712862,11
2021-12-23 17:53:15.027799,16
2021-12-23 17:53:15.027830,18
2021-12-23 17:53:15.027842,25
2021-12-23 17:53:15.027852,39
2021-12-23 17:53:15.027862,60
2021-12-23 17:53:15.027872,62
2021-12-23 17:53:15.027882,23
2021-12-23 17:53:15.027892,-25
2021-12-23 17:53:15.027901,-32
2021-12-23 17:53:15.027911,-18
2021-12-23 17:53:15.027921,-13
2021-12-23 17:53:15.027931,-6
2021-12-23 17:53:15.027941,-11
2021-12-23 17:53:15.027951,-46
2021-12-23 17:53:15.027961,-95
2021-12-23 17:53:15.027971,-139
2021-12-23 17:53:15.027980,-132
2021-12-23 17:53:15.027990,-90
2021-12-23 17:53:15.028000,-23
2021-12-23 17:53:15.028010,191
2021-12-23 17:53:15.028020,498
2021-12-23 17:53:15.028030,557
2021-12-23 17:53:15.028040,163
2021-12-23 17:53:15.028055,-415
2021-12-23 17:53:15.028065,-573
2021-12-23 17:53:15.028075,-240
2021-12-23 17:53:15.028085,-48
2021-12-23 17:53:15.028095,-90
2021-12-23 17:53:15.028105,-20
2021-12-23 17:53:15.028115,60
2021-12-23 17:53:15.163357,16
2021-12-23 17:53:15.163388,-6
2021-12-23 17:53:15.163400,34
2021-12-23 17:53:15.163410,48
2021-12-23 17:53:15.163420,48
2021-12-23 17:53:15.163430,65
2021-12-23 17:53:15.163440,58
2021-12-23 17:53:15.163450,53
2021-12-23 17:53:15.163459,88
2021-12-23 17:53:15.163469,118
2021-12-23 17:53:15.163479,135
2021-12-23 17:53:15.163488,170
2021-12-23 17:53:15.163498,205
2021-12-23 17:53:15.163508,235
2021-12-23 17:53:15.163517,270
2021-12-23 17:53:15.163527,303
2021-12-23 17:53:15.163537,324
2021-12-23 17:53:15.163547,298
2021-12-23 17:53:15.163556,251
2021-12-23 17:53:15.163566,242
2021-12-23 17:53:15.163576,235
2021-12-23 17:53:15.163586,179
2021-12-23 17:53:15.163595,104
2021-12-23 17:53:15.163605,23
2021-12-23 17:53:15.163614,-60
2021-12-23 17:53:15.163624,-114
2021-12-23 17:53:15.163634,-144
2021-12-23 17:53:15.163644,-172
2021-12-23 17:53:15.163653,-186
2021-12-23 17:53:15.163663,-186
2021-12-23 17:53:15.387974,-184
2021-12-23 17:53:15.388005,-165
2021-12-23 17:53:15.388017,-151
2021-12-23 17:53:15.388027,-149
2021-12-23 17:53:15.388037,-144
2021-12-23 17:53:15.388047,-149
2021-12-23 17:53:15.388058,-149
2021-12-23 17:53:15.388068,-121
2021-12-23 17:53:15.388078,-95
2021-12-23 17:53:15.388088,-86
2021-12-23 17:53:15.388098,-76
2021-12-23 17:53:15.388108,-81
2021-12-23 17:53:15.388117,-81
2021-12-23 17:53:15.388127,-55
2021-12-23 17:53:15.388137,-44
2021-12-23 17:53:15.388147,-51
2021-12-23 17:53:15.388157,-37
2021-12-23 17:53:15.388167,-25
2021-12-23 17:53:15.388177,-34
2021-12-23 17:53:15.388187,-58
2021-12-23 17:53:15.388197,-102
2021-12-23 17:53:15.388206,-130
2021-12-23 17:53:15.388216,-114
2021-12-23 17:53:15.388226,-97
2021-12-23 17:53:15.388236,-88
2021-12-23 17:53:15.388246,-69
2021-12-23 17:53:15.388256,-65
2021-12-23 17:53:15.388266,-62
2021-12-23 17:53:15.388276,-53
2021-12-23 17:53:15.388285,-48
2021-12-23 17:53:15.657064,-39
2021-12-23 17:53:15.657095,-20
2021-12-23 17:53:15.657107,-6
2021-12-23 17:53:15.657117,-11
2021-12-23 17:53:15.657127,-34
2021-12-23 17:53:15.657137,-60
2021-12-23 17:53:15.657147,-55
2021-12-23 17:53:15.657157,-34
2021-12-23 17:53:15.657167,-41
2021-12-23 17:53:15.657177,-67
2021-12-23 17:53:15.657186,-74
2021-12-23 17:53:15.657196,-62
2021-12-23 17:53:15.657206,-32
2021-12-23 17:53:15.657216,-4
2021-12-23 17:53:15.657226,-6
2021-12-23 17:53:15.657235,-39
2021-12-23 17:53:15.657245,-51
2021-12-23 17:53:15.657255,-32
2021-12-23 17:53:15.657265,-11
2021-12-23 17:53:15.657275,6
2021-12-23 17:53:15.657285,11
2021-12-23 17:53:15.657295,-25
2021-12-23 17:53:15.657305,-53
2021-12-23 17:53:15.657315,-37
2021-12-23 17:53:15.657324,-11
2021-12-23 17:53:15.657334,9
2021-12-23 17:53:15.657344,74
2021-12-23 17:53:15.657354,277
2021-12-23 17:53:15.657364,575
2021-12-23 17:53:15.657374,680
2021-12-23 17:53:15.883381,340
2021-12-23 17:53:15.883411,-282
2021-12-23 17:53:15.883423,-561
2021-12-23 17:53:15.883434,-300
2021-12-23 17:53:15.883444,-109
2021-12-23 17:53:15.883454,-132
2021-12-23 17:53:15.883464,-37
2021-12-23 17:53:15.883474,62
2021-12-23 17:53:15.883484,32
2021-12-23 17:53:15.883494,6
2021-12-23 17:53:15.883504,9
2021-12-23 17:53:15.883514,18
2021-12-23 17:53:15.883524,51
2021-12-23 17:53:15.883534,88
2021-12-23 17:53:15.883544,104
2021-12-23 17:53:15.883554,109
2021-12-23 17:53:15.883564,121
2021-12-23 17:53:15.883574,151
2021-12-23 17:53:15.883584,191
2021-12-23 17:53:15.883594,230
2021-12-23 17:53:15.883604,258
2021-12-23 17:53:15.883614,272
2021-12-23 17:53:15.883623,293
2021-12-23 17:53:15.883633,324
2021-12-23 17:53:15.883643,342
2021-12-23 17:53:15.883653,338
2021-12-23 17:53:15.883663,305
2021-12-23 17:53:15.883673,265
2021-12-23 17:53:15.883683,251
2021-12-23 17:53:15.883693,228
2021-12-23 17:53:16.108264,167
2021-12-23 17:53:16.108286,97
2021-12-23 17:53:16.108294,18
2021-12-23 17:53:16.108301,-69
2021-12-23 17:53:16.108307,-123
2021-12-23 17:53:16.108314,-139
2021-12-23 17:53:16.108320,-146
2021-12-23 17:53:16.108326,-146
2021-12-23 17:53:16.108333,-151
2021-12-23 17:53:16.108339,-188
2021-12-23 17:53:16.108346,-200
2021-12-23 17:53:16.108352,-156
2021-12-23 17:53:16.108358,-123
2021-12-23 17:53:16.108365,-107
2021-12-23 17:53:16.108371,-100
2021-12-23 17:53:16.108378,-121
2021-12-23 17:53:16.108384,-116
2021-12-23 17:53:16.108391,-69
2021-12-23 17:53:16.108397,-46
2021-12-23 17:53:16.108403,-41
2021-12-23 17:53:16.108410,-37
2021-12-23 17:53:16.108416,-39
2021-12-23 17:53:16.108423,-25
2021-12-23 17:53:16.108429,-4
2021-12-23 17:53:16.108435,0
2021-12-23 17:53:16.108442,-16
2021-12-23 17:53:16.108448,-41
2021-12-23 17:53:16.108455,-48
2021-12-23 17:53:16.108461,-27
2021-12-23 17:53:16.108467,-20
2021-12-23 17:53:16.333463,-18
2021-12-23 17:53:16.333494,-2
2021-12-23 17:53:16.333506,-2
2021-12-23 17:53:16.333516,-23
2021-12-23 17:53:16.333526,-11
2021-12-23 17:53:16.333536,16
2021-12-23 17:53:16.333546,23
2021-12-23 17:53:16.333556,18
2021-12-23 17:53:16.333566,-4
2021-12-23 17:53:16.333576,-46
2021-12-23 17:53:16.333586,-60
2021-12-23 17:53:16.333596,-39
2021-12-23 17:53:16.333606,-20
2021-12-23 17:53:16.333616,-23
2021-12-23 17:53:16.333626,-32
2021-12-23 17:53:16.333636,-34
2021-12-23 17:53:16.333646,-25
2021-12-23 17:53:16.333656,-20
2021-12-23 17:53:16.333666,-23
2021-12-23 17:53:16.333676,-23
2021-12-23 17:53:16.333686,-25
2021-12-23 17:53:16.333695,-25
2021-12-23 17:53:16.333705,-16
2021-12-23 17:53:16.333715,-6
2021-12-23 17:53:16.333725,6
2021-12-23 17:53:16.333735,16
2021-12-23 17:53:16.333745,4
2021-12-23 17:53:16.333755,-23
2021-12-23 17:53:16.333765,-13
2021-12-23 17:53:16.333780,114
2021-12-23 17:53:16.602921,394
2021-12-23 17:53:16.602951,608
2021-12-23 17:53:16.602963,389
2021-12-23 17:53:16.602974,-261
2021-12-23 17:53:16.602984,-692
2021-12-23 17:53:16.602993,-475
2021-12-23 17:53:16.603003,-167
2021-12-23 17:53:16.603013,-198
2021-12-23 17:53:16.603023,-195
2021-12-23 17:53:16.603033,-55
2021-12-23 17:53:16.603043,-23
2021-12-23 17:53:16.603053,-41
2021-12-23 17:53:16.603063,-6
2021-12-23 17:53:16.603073,-4
2021-12-23 17:53:16.603083,-32
2021-12-23 17:53:16.603093,-6
2021-12-23 17:53:16.603103,30
2021-12-23 17:53:16.603113,48
2021-12-23 17:53:16.603122,76
2021-12-23 17:53:16.603132,97
2021-12-23 17:53:16.603142,111
2021-12-23 17:53:16.603152,137
2021-12-23 17:53:16.603162,170
2021-12-23 17:53:16.603172,214
2021-12-23 17:53:16.603182,256
2021-12-23 17:53:16.603192,284
2021-12-23 17:53:16.603202,305
2021-12-23 17:53:16.603212,321
2021-12-23 17:53:16.603222,324
2021-12-23 17:53:16.603232,300
2021-12-23 17:53:16.873404,251
2021-12-23 17:53:16.873436,198
2021-12-23 17:53:16.873448,132
2021-12-23 17:53:16.873458,48
2021-12-23 17:53:16.873468,-25
2021-12-23 17:53:16.873478,-72
2021-12-23 17:53:16.873488,-128
2021-12-23 17:53:16.873498,-184
2021-12-23 17:53:16.873508,-202
2021-12-23 17:53:16.873518,-205
2021-12-23 17:53:16.873528,-202
2021-12-23 17:53:16.873538,-181
2021-12-23 17:53:16.873547,-184
2021-12-23 17:53:16.873557,-202
2021-12-23 17:53:16.873567,-188
2021-12-23 17:53:16.873576,-165
2021-12-23 17:53:16.873586,-153
2021-12-23 17:53:16.873596,-128
2021-12-23 17:53:16.873605,-111
2021-12-23 17:53:16.873615,-109
2021-12-23 17:53:16.873625,-90
2021-12-23 17:53:16.873634,-69
2021-12-23 17:53:16.873644,-53
2021-12-23 17:53:16.873654,-27
2021-12-23 17:53:16.873663,-18
2021-12-23 17:53:16.873673,-30
2021-12-23 17:53:16.873683,-25
2021-12-23 17:53:16.873692,-11
2021-12-23 17:53:16.873702,-4
2021-12-23 17:53:16.873712,11
2021-12-23 17:53:17.008514,23
2021-12-23 17:53:17.008546,0
2021-12-23 17:53:17.008557,-25
2021-12-23 17:53:17.008567,-16
2021-12-23 17:53:17.008577,2
2021-12-23 17:53:17.008587,11
2021-12-23 17:53:17.008597,4
2021-12-23 17:53:17.008606,-34
2021-12-23 17:53:17.008616,-72
2021-12-23 17:53:17.008626,-69
2021-12-23 17:53:17.008635,-53
2021-12-23 17:53:17.008645,-51
2021-12-23 17:53:17.008655,-53
2021-12-23 17:53:17.008664,-41
2021-12-23 17:53:17.008674,-39
2021-12-23 17:53:17.008684,-46
2021-12-23 17:53:17.008693,-37
2021-12-23 17:53:17.008703,-34
2021-12-23 17:53:17.008712,-46
2021-12-23 17:53:17.008722,-34
2021-12-23 17:53:17.008732,-9
2021-12-23 17:53:17.008741,0
2021-12-23 17:53:17.008751,0
2021-12-23 17:53:17.008761,-20
2021-12-23 17:53:17.008770,-53
2021-12-23 17:53:17.008780,-44
2021-12-23 17:53:17.008789,-20
2021-12-23 17:53:17.008799,-25
2021-12-23 17:53:17.008809,-23
2021-12-23 17:53:17.008818,-13
2021-12-23 17:53:17.277891,-32
2021-12-23 17:53:17.277922,-51
2021-12-23 17:53:17.277934,-48
2021-12-23 17:53:17.277945,-65
2021-12-23 17:53:17.277955,-48
2021-12-23 17:53:17.277964,137
2021-12-23 17:53:17.277974,433
2021-12-23 17:53:17.277984,526
2021-12-23 17:53:17.277994,195
2021-12-23 17:53:17.278004,-389
2021-12-23 17:53:17.278013,-652
2021-12-23 17:53:17.278023,-382
2021-12-23 17:53:17.278033,-144
2021-12-23 17:53:17.278043,-144
2021-12-23 17:53:17.278053,-69
2021-12-23 17:53:17.278063,18
2021-12-23 17:53:17.278073,2
2021-12-23 17:53:17.278082,6
2021-12-23 17:53:17.278092,51
2021-12-23 17:53:17.278102,72
2021-12-23 17:53:17.278112,79
2021-12-23 17:53:17.278122,97
2021-12-23 17:53:17.278132,114
2021-12-23 17:53:17.278142,123
2021-12-23 17:53:17.278152,144
2021-12-23 17:53:17.278162,172
2021-12-23 17:53:17.278172,193
2021-12-23 17:53:17.278181,219
2021-12-23 17:53:17.278191,249
2021-12-23 17:53:17.278201,275
2021-12-23 17:53:17.502827,307
2021-12-23 17:53:17.502858,352
2021-12-23 17:53:17.502870,384
2021-12-23 17:53:17.502881,391
2021-12-23 17:53:17.502891,389
2021-12-23 17:53:17.502901,370
2021-12-23 17:53:17.502911,326
2021-12-23 17:53:17.502921,277
2021-12-23 17:53:17.502931,212
2021-12-23 17:53:17.502941,118
2021-12-23 17:53:17.502951,13
2021-12-23 17:53:17.502962,-67
2021-12-23 17:53:17.502972,-128
2021-12-23 17:53:17.502982,-186
2021-12-23 17:53:17.502992,-221
2021-12-23 17:53:17.503002,-226
2021-12-23 17:53:17.503012,-242
2021-12-23 17:53:17.503022,-256
2021-12-23 17:53:17.503032,-226
2021-12-23 17:53:17.503042,-186
2021-12-23 17:53:17.503052,-179
2021-12-23 17:53:17.503062,-174
2021-12-23 17:53:17.503072,-160
2021-12-23 17:53:17.503082,-142
2021-12-23 17:53:17.503092,-111
2021-12-23 17:53:17.503102,-86
2021-12-23 17:53:17.503112,-74
2021-12-23 17:53:17.503122,-67
2021-12-23 17:53:17.503132,-65
2021-12-23 17:53:17.503142,-48
2021-12-23 17:53:17.771992,-18
2021-12-23 17:53:17.772023,0
2021-12-23 17:53:17.772035,-4
2021-12-23 17:53:17.772045,-32
2021-12-23 17:53:17.772055,-79
2021-12-23 17:53:17.772065,-97
2021-12-23 17:53:17.772075,-79
2021-12-23 17:53:17.772085,-86
2021-12-23 17:53:17.772095,-109
2021-12-23 17:53:17.772105,-114
2021-12-23 17:53:17.772115,-111
2021-12-23 17:53:17.772125,-100
2021-12-23 17:53:17.772135,-79
2021-12-23 17:53:17.772144,-65
2021-12-23 17:53:17.772154,-62
2021-12-23 17:53:17.772164,-79
2021-12-23 17:53:17.772174,-83
2021-12-23 17:53:17.772184,-62
2021-12-23 17:53:17.772194,-41
2021-12-23 17:53:17.772204,-34
2021-12-23 17:53:17.772214,-37
2021-12-23 17:53:17.772223,-53
2021-12-23 17:53:17.772233,-58
2021-12-23 17:53:17.772243,-39
2021-12-23 17:53:17.772253,-20
2021-12-23 17:53:17.772263,-2
2021-12-23 17:53:17.772273,9
2021-12-23 17:53:17.772283,-2
2021-12-23 17:53:17.772293,-11
2021-12-23 17:53:17.772302,-16
2021-12-23 17:53:17.952927,-39
2021-12-23 17:53:17.952958,-48
2021-12-23 17:53:17.952970,-44
2021-12-23 17:53:17.952980,-81
2021-12-23 17:53:17.952989,-104
2021-12-23 17:53:17.952999,-72
2021-12-23 17:53:17.953009,-48
2021-12-23 17:53:17.953019,-48
2021-12-23 17:53:17.953028,-44
2021-12-23 17:53:17.953038,-58
2021-12-23 17:53:17.953048,-67
2021-12-23 17:53:17.953058,37
2021-12-23 17:53:17.953068,310
2021-12-23 17:53:17.953077,594
2021-12-23 17:53:17.953087,559
2021-12-23 17:53:17.953097,58
2021-12-23 17:53:17.953107,-501
2021-12-23 17:53:17.953116,-536
2021-12-23 17:53:17.953126,-221
2021-12-23 17:53:17.953136,-128
2021-12-23 17:53:17.953146,-137
2021-12-23 17:53:17.953156,-32
2021-12-23 17:53:17.953165,18
2021-12-23 17:53:17.953175,6
2021-12-23 17:53:17.953185,44
2021-12-23 17:53:17.953195,81
2021-12-23 17:53:17.953205,74
2021-12-23 17:53:17.953214,67
2021-12-23 17:53:17.953230,93
2021-12-23 17:53:17.953240,130
2021-12-23 17:53:18.223072,153
2021-12-23 17:53:18.223095,177
2021-12-23 17:53:18.223103,188
2021-12-23 17:53:18.223109,195
2021-12-23 17:53:18.223116,226
2021-12-23 17:53:18.223122,275
2021-12-23 17:53:18.223129,319
2021-12-23 17:53:18.223135,345
2021-12-23 17:53:18.223141,340
2021-12-23 17:53:18.223148,333
2021-12-23 17:53:18.223154,349
2021-12-23 17:53:18.223160,345
2021-12-23 17:53:18.223167,305
2021-12-23 17:53:18.223173,265
2021-12-23 17:53:18.223179,193
2021-12-23 17:53:18.223186,88
2021-12-23 17:53:18.223192,18
2021-12-23 17:53:18.223198,-27
2021-12-23 17:53:18.223205,-79
2021-12-23 17:53:18.223211,-123
2021-12-23 17:53:18.223217,-151
2021-12-23 17:53:18.223224,-170
2021-12-23 17:53:18.223230,-165
2021-12-23 17:53:18.223236,-144
2021-12-23 17:53:18.223242,-132
2021-12-23 17:53:18.223249,-125
2021-12-23 17:53:18.223255,-125
2021-12-23 17:53:18.223261,-121
2021-12-23 17:53:18.223268,-100
2021-12-23 17:53:18.223274,-79
2021-12-23 17:53:18.403360,-58
2021-12-23 17:53:18.403390,-41
2021-12-23 17:53:18.403402,-44
2021-12-23 17:53:18.403412,-51
2021-12-23 17:53:18.403422,-53
2021-12-23 17:53:18.403432,-44
2021-12-23 17:53:18.403442,-25
2021-12-23 17:53:18.403452,-32
2021-12-23 17:53:18.403461,-76
2021-12-23 17:53:18.403471,-81
2021-12-23 17:53:18.403481,-44
2021-12-23 17:53:18.403490,-34
2021-12-23 17:53:18.403500,-37
2021-12-23 17:53:18.403510,-41
2021-12-23 17:53:18.403519,-67
2021-12-23 17:53:18.403529,-69
2021-12-23 17:53:18.403539,-44
2021-12-23 17:53:18.403548,-20
2021-12-23 17:53:18.403558,-30
2021-12-23 17:53:18.403568,-53
2021-12-23 17:53:18.403578,-65
2021-12-23 17:53:18.403587,-62
2021-12-23 17:53:18.403597,-58
2021-12-23 17:53:18.403607,-83
2021-12-23 17:53:18.403616,-111
2021-12-23 17:53:18.403626,-116
2021-12-23 17:53:18.403636,-128
2021-12-23 17:53:18.403645,-149
2021-12-23 17:53:18.403655,-151
2021-12-23 17:53:18.403665,-146
2021-12-23 17:53:18.763036,-132
2021-12-23 17:53:18.763058,-118
2021-12-23 17:53:18.763066,-111
2021-12-23 17:53:18.763073,-97
2021-12-23 17:53:18.763080,-79
2021-12-23 17:53:18.763086,-79
2021-12-23 17:53:18.763093,-102
2021-12-23 17:53:18.763099,-125
2021-12-23 17:53:18.763106,-121
2021-12-23 17:53:18.763112,-107
2021-12-23 17:53:18.763119,-95
2021-12-23 17:53:18.763125,-81
2021-12-23 17:53:18.763132,-81
2021-12-23 17:53:18.763138,-97
2021-12-23 17:53:18.763145,-97
2021-12-23 17:53:18.763151,-93
2021-12-23 17:53:18.763157,-97
2021-12-23 17:53:18.763164,13
2021-12-23 17:53:18.763170,312
2021-12-23 17:53:18.763177,554
2021-12-23 17:53:18.763183,440
2021-12-23 17:53:18.763190,-55
2021-12-23 17:53:18.763196,-526
2021-12-23 17:53:18.763203,-466
2021-12-23 17:53:18.763209,-123
2021-12-23 17:53:18.763216,-34
2021-12-23 17:53:18.763222,-37
2021-12-23 17:53:18.763229,58
2021-12-23 17:53:18.763235,90
2021-12-23 17:53:18.763242,81
2021-12-23 17:53:18.897884,111
2021-12-23 17:53:18.897914,128
2021-12-23 17:53:18.897926,123
2021-12-23 17:53:18.897936,130
2021-12-23 17:53:18.897946,156
2021-12-23 17:53:18.897956,179
2021-12-23 17:53:18.897965,172
2021-12-23 17:53:18.897975,172
2021-12-23 17:53:18.897985,209
2021-12-23 17:53:18.897995,237
2021-12-23 17:53:18.898005,270
2021-12-23 17:53:18.898014,324
2021-12-23 17:53:18.898024,356
2021-12-23 17:53:18.898034,380
2021-12-23 17:53:18.898043,424
2021-12-23 17:53:18.898053,442
2021-12-23 17:53:18.898063,454
2021-12-23 17:53:18.898072,459
2021-12-23 17:53:18.898082,417
2021-12-23 17:53:18.898091,366
2021-12-23 17:53:18.898101,319
2021-12-23 17:53:18.898110,242
2021-12-23 17:53:18.898120,160
2021-12-23 17:53:18.898130,90
2021-12-23 17:53:18.898140,18
2021-12-23 17:53:18.898149,-18
2021-12-23 17:53:18.898159,-27
2021-12-23 17:53:18.898169,-51
2021-12-23 17:53:18.898178,-69
2021-12-23 17:53:18.898188,-76
2021-12-23 17:53:19.078316,-81
2021-12-23 17:53:19.078347,-65
2021-12-23 17:53:19.078359,-41
2021-12-23 17:53:19.078369,-37
2021-12-23 17:53:19.078379,-34
2021-12-23 17:53:19.078389,-53
2021-12-23 17:53:19.078399,-69
2021-12-23 17:53:19.078408,-58
2021-12-23 17:53:19.078418,-121
2021-12-23 17:53:19.078428,-214
2021-12-23 17:53:19.078437,-193
2021-12-23 17:53:19.078447,-137
2021-12-23 17:53:19.078457,-135
2021-12-23 17:53:19.078467,-137
2021-12-23 17:53:19.078476,-132
2021-12-23 17:53:19.078486,-118
2021-12-23 17:53:19.078496,-109
2021-12-23 17:53:19.078506,-137
2021-12-23 17:53:19.078515,-156
2021-12-23 17:53:19.078525,-139
2021-12-23 17:53:19.078535,-139
2021-12-23 17:53:19.078544,-151
2021-12-23 17:53:19.078554,-144
2021-12-23 17:53:19.078564,-135
2021-12-23 17:53:19.078574,-130
2021-12-23 17:53:19.078583,-111
2021-12-23 17:53:19.078593,-90
2021-12-23 17:53:19.078603,-93
2021-12-23 17:53:19.078612,-95
2021-12-23 17:53:19.078622,-81
2021-12-23 17:53:19.348549,-76
2021-12-23 17:53:19.348579,-83
2021-12-23 17:53:19.348591,-76
2021-12-23 17:53:19.348601,-86
2021-12-23 17:53:19.348611,-116
2021-12-23 17:53:19.348621,-142
2021-12-23 17:53:19.348631,-153
2021-12-23 17:53:19.348641,-146
2021-12-23 17:53:19.348651,-137
2021-12-23 17:53:19.348660,-156
2021-12-23 17:53:19.348670,-165
2021-12-23 17:53:19.348680,-151
2021-12-23 17:53:19.348690,-125
2021-12-23 17:53:19.348700,-102
2021-12-23 17:53:19.348709,-81
2021-12-23 17:53:19.348719,-51
2021-12-23 17:53:19.348729,-4
2021-12-23 17:53:19.348739,74
2021-12-23 17:53:19.348749,263
2021-12-23 17:53:19.348759,566
2021-12-23 17:53:19.348768,704
2021-12-23 17:53:19.348778,307
2021-12-23 17:53:19.348788,-403
2021-12-23 17:53:19.348798,-582
2021-12-23 17:53:19.348808,-137
2021-12-23 17:53:19.348817,83
2021-12-23 17:53:19.348827,-2
2021-12-23 17:53:19.348837,76
2021-12-23 17:53:19.348847,195
2021-12-23 17:53:19.348857,179
2021-12-23 17:53:19.528519,172
2021-12-23 17:53:19.528550,216
2021-12-23 17:53:19.528562,228
2021-12-23 17:53:19.528572,226
2021-12-23 17:53:19.528582,219
2021-12-23 17:53:19.528592,195
2021-12-23 17:53:19.528602,193
2021-12-23 17:53:19.528611,233
2021-12-23 17:53:19.528621,256
2021-12-23 17:53:19.528631,251
2021-12-23 17:53:19.528641,254
2021-12-23 17:53:19.528651,279
2021-12-23 17:53:19.528660,317
2021-12-23 17:53:19.528670,354
2021-12-23 17:53:19.528680,384
2021-12-23 17:53:19.528690,384
2021-12-23 17:53:19.528699,354
2021-12-23 17:53:19.528709,347
2021-12-23 17:53:19.528719,361
2021-12-23 17:53:19.528729,333
2021-12-23 17:53:19.528739,254
2021-12-23 17:53:19.528749,163
2021-12-23 17:53:19.528759,81
2021-12-23 17:53:19.528768,6
2021-12-23 17:53:19.528778,-62
2021-12-23 17:53:19.528788,-104
2021-12-23 17:53:19.528798,-125
2021-12-23 17:53:19.528808,-158
2021-12-23 17:53:19.528817,-174
2021-12-23 17:53:19.528827,-156
2021-12-23 17:53:19.931986,-132
2021-12-23 17:53:19.932016,-116
2021-12-23 17:53:19.932028,-123
2021-12-23 17:53:19.932038,-146
2021-12-23 17:53:19.932048,-139
2021-12-23 17:53:19.932058,-97
2021-12-23 17:53:19.932068,-74
2021-12-23 17:53:19.932078,-67
2021-12-23 17:53:19.932087,-67
2021-12-23 17:53:19.932097,-95
2021-12-23 17:53:19.932107,-97
2021-12-23 17:53:19.932117,-62
2021-12-23 17:53:19.932127,-44
2021-12-23 17:53:19.932136,-41
2021-12-23 17:53:19.932146,-37
2021-12-23 17:53:19.932156,-41
2021-12-23 17:53:19.932166,-44
2021-12-23 17:53:19.932175,-44
2021-12-23 17:53:19.932185,-53
2021-12-23 17:53:19.932195,-51
2021-12-23 17:53:19.932205,-53
2021-12-23 17:53:19.932214,-79
2021-12-23 17:53:19.932224,-81
2021-12-23 17:53:19.932247,-55
2021-12-23 17:53:19.932258,-46
2021-12-23 17:53:19.932267,-62
2021-12-23 17:53:19.932277,-95
2021-12-23 17:53:19.932287,-118
2021-12-23 17:53:19.932297,-97
2021-12-23 17:53:19.932307,-67
2021-12-23 17:53:20.023385,-55
2021-12-23 17:53:20.023415,-44
2021-12-23 17:53:20.023427,-32
2021-12-23 17:53:20.023437,-34
2021-12-23 17:53:20.023447,-30
2021-12-23 17:53:20.023457,-23
2021-12-23 17:53:20.023466,-20
2021-12-23 17:53:20.023476,-18
2021-12-23 17:53:20.023486,-32
2021-12-23 17:53:20.023495,-86
2021-12-23 17:53:20.023505,-139
2021-12-23 17:53:20.023515,-153
2021-12-23 17:53:20.023525,-149
2021-12-23 17:53:20.023535,-158
2021-12-23 17:53:20.023544,-177
2021-12-23 17:53:20.023554,-177
2021-12-23 17:53:20.023563,-118
2021-12-23 17:53:20.023573,58
2021-12-23 17:53:20.023583,342
2021-12-23 17:53:20.023593,501
2021-12-23 17:53:20.023602,242
2021-12-23 17:53:20.023612,-356
2021-12-23 17:53:20.023622,-699
2021-12-23 17:53:20.023631,-442
2021-12-23 17:53:20.023641,-156
2021-12-23 17:53:20.023651,-165
2021-12-23 17:53:20.023661,-121
2021-12-23 17:53:20.023670,-13
2021-12-23 17:53:20.023680,-34
2021-12-23 17:53:20.023690,-46
2021-12-23 17:53:20.248352,16
2021-12-23 17:53:20.248383,39
2021-12-23 17:53:20.248395,25
2021-12-23 17:53:20.248405,39
2021-12-23 17:53:20.248415,69
2021-12-23 17:53:20.248425,90
2021-12-23 17:53:20.248435,114
2021-12-23 17:53:20.248445,123
2021-12-23 17:53:20.248454,116
2021-12-23 17:53:20.248464,137
2021-12-23 17:53:20.248474,181
2021-12-23 17:53:20.248484,221
2021-12-23 17:53:20.248494,261
2021-12-23 17:53:20.248504,258
2021-12-23 17:53:20.248514,170
2021-12-23 17:53:20.248524,104
2021-12-23 17:53:20.248534,149
2021-12-23 17:53:20.248544,200
2021-12-23 17:53:20.248553,191
2021-12-23 17:53:20.248563,132
2021-12-23 17:53:20.248573,32
2021-12-23 17:53:20.248583,-41
2021-12-23 17:53:20.248593,-81
2021-12-23 17:53:20.248603,-125
2021-12-23 17:53:20.248613,-153
2021-12-23 17:53:20.248623,-149
2021-12-23 17:53:20.248633,-156
2021-12-23 17:53:20.248642,-158
2021-12-23 17:53:20.248652,-123
2021-12-23 17:53:20.248662,-81
2021-12-23 17:53:20.472877,-86
2021-12-23 17:53:20.472908,-107
2021-12-23 17:53:20.472919,-90
2021-12-23 17:53:20.472929,-67
2021-12-23 17:53:20.472939,-60
2021-12-23 17:53:20.472949,-46
2021-12-23 17:53:20.472958,-46
2021-12-23 17:53:20.472968,-69
2021-12-23 17:53:20.472977,-69
2021-12-23 17:53:20.472987,-48
2021-12-23 17:53:20.472997,-32
2021-12-23 17:53:20.473006,-13
2021-12-23 17:53:20.473016,-13
2021-12-23 17:53:20.473026,-32
2021-12-23 17:53:20.473035,-34
2021-12-23 17:53:20.473045,-41
2021-12-23 17:53:20.473055,-72
2021-12-23 17:53:20.473064,-83
2021-12-23 17:53:20.473074,-69
2021-12-23 17:53:20.473083,-81
2021-12-23 17:53:20.473093,-107
2021-12-23 17:53:20.473103,-109
2021-12-23 17:53:20.473112,-95
2021-12-23 17:53:20.473122,-83
2021-12-23 17:53:20.473131,-79
2021-12-23 17:53:20.473141,-74
2021-12-23 17:53:20.473150,-65
2021-12-23 17:53:20.473160,-46
2021-12-23 17:53:20.473170,-23
2021-12-23 17:53:20.473179,-11
2021-12-23 17:53:20.787439,-9
2021-12-23 17:53:20.787462,-30
2021-12-23 17:53:20.787470,-72
2021-12-23 17:53:20.787477,-83
2021-12-23 17:53:20.787483,-55
2021-12-23 17:53:20.787490,-46
2021-12-23 17:53:20.787496,-74
2021-12-23 17:53:20.787502,-81
2021-12-23 17:53:20.787509,-51
2021-12-23 17:53:20.787515,-37
2021-12-23 17:53:20.787521,-37
2021-12-23 17:53:20.787527,-46
2021-12-23 17:53:20.787534,-55
2021-12-23 17:53:20.787540,67
2021-12-23 17:53:20.787546,354
2021-12-23 17:53:20.787553,515
2021-12-23 17:53:20.787559,312
2021-12-23 17:53:20.787565,-212
2021-12-23 17:53:20.787571,-631
2021-12-23 17:53:20.787578,-463
2021-12-23 17:53:20.787584,-104
2021-12-23 17:53:20.787591,-76
2021-12-23 17:53:20.787597,-74
2021-12-23 17:53:20.787603,37
2021-12-23 17:53:20.787610,34
2021-12-23 17:53:20.787616,13
2021-12-23 17:53:20.787622,72
2021-12-23 17:53:20.787629,97
2021-12-23 17:53:20.787635,93
2021-12-23 17:53:20.787641,109
2021-12-23 17:53:20.967325,130
2021-12-23 17:53:20.967346,153
2021-12-23 17:53:20.967355,167
2021-12-23 17:53:20.967361,163
2021-12-23 17:53:20.967368,170
2021-12-23 17:53:20.967374,198
2021-12-23 17:53:20.967381,228
2021-12-23 17:53:20.967387,265
2021-12-23 17:53:20.967394,312
2021-12-23 17:53:20.967400,349
2021-12-23 17:53:20.967407,375
2021-12-23 17:53:20.967413,380
2021-12-23 17:53:20.967420,375
2021-12-23 17:53:20.967426,380
2021-12-23 17:53:20.967433,359
2021-12-23 17:53:20.967439,296
2021-12-23 17:53:20.967446,209
2021-12-23 17:53:20.967452,102
2021-12-23 17:53:20.967459,9
2021-12-23 17:53:20.967465,-37
2021-12-23 17:53:20.967472,-83
2021-12-23 17:53:20.967478,-167
2021-12-23 17:53:20.967485,-228
2021-12-23 17:53:20.967491,-226
2021-12-23 17:53:20.967497,-209
2021-12-23 17:53:20.967504,-209
2021-12-23 17:53:20.967510,-191
2021-12-23 17:53:20.967517,-163
2021-12-23 17:53:20.967523,-158
2021-12-23 17:53:20.967530,-160
2021-12-23 17:53:21.147722,-139
2021-12-23 17:53:21.147744,-107
2021-12-23 17:53:21.147751,-93
2021-12-23 17:53:21.147758,-88
2021-12-23 17:53:21.147764,-88
2021-12-23 17:53:21.147771,-109
2021-12-23 17:53:21.147777,-125
2021-12-23 17:53:21.147783,-107
2021-12-23 17:53:21.147790,-81
2021-12-23 17:53:21.147796,-79
2021-12-23 17:53:21.147803,-95
2021-12-23 17:53:21.147809,-104
2021-12-23 17:53:21.147816,-83
2021-12-23 17:53:21.147822,-58
2021-12-23 17:53:21.147829,-55
2021-12-23 17:53:21.147835,-60
2021-12-23 17:53:21.147842,-60
2021-12-23 17:53:21.147848,-58
2021-12-23 17:53:21.147855,-46
2021-12-23 17:53:21.147861,-34
2021-12-23 17:53:21.147867,-32
2021-12-23 17:53:21.147874,-34
2021-12-23 17:53:21.147880,-32
2021-12-23 17:53:21.147886,-23
2021-12-23 17:53:21.147893,-11
2021-12-23 17:53:21.147899,-9
2021-12-23 17:53:21.147905,-2
2021-12-23 17:53:21.147912,6
2021-12-23 17:53:21.147919,-2
2021-12-23 17:53:21.147925,-16
2021-12-23 17:53:21.462881,-11
2021-12-23 17:53:21.462911,6
2021-12-23 17:53:21.462924,13
2021-12-23 17:53:21.462934,-6
2021-12-23 17:53:21.462944,-39
2021-12-23 17:53:21.462954,-39
2021-12-23 17:53:21.462964,-11
2021-12-23 17:53:21.462974,-9
2021-12-23 17:53:21.462984,-34
2021-12-23 17:53:21.462993,-48
2021-12-23 17:53:21.463003,-16
2021-12-23 17:53:21.463013,177
2021-12-23 17:53:21.463023,494
2021-12-23 17:53:21.463032,606
2021-12-23 17:53:21.463042,279
2021-12-23 17:53:21.463052,-321
2021-12-23 17:53:21.463061,-587
2021-12-23 17:53:21.463071,-279
2021-12-23 17:53:21.463081,-53
2021-12-23 17:53:21.463090,-111
2021-12-23 17:53:21.463100,-58
2021-12-23 17:53:21.463110,23
2021-12-23 17:53:21.463120,-4
2021-12-23 17:53:21.463129,9
2021-12-23 17:53:21.463139,65
2021-12-23 17:53:21.463149,76
2021-12-23 17:53:21.463158,46
2021-12-23 17:53:21.463168,2
2021-12-23 17:53:21.463178,6
2021-12-23 17:53:21.463188,65
2021-12-23 17:53:21.687744,102
2021-12-23 17:53:21.687774,116
2021-12-23 17:53:21.687786,130
2021-12-23 17:53:21.687796,125
2021-12-23 17:53:21.687806,135
2021-12-23 17:53:21.687816,191
2021-12-23 17:53:21.687825,247
2021-12-23 17:53:21.687835,279
2021-12-23 17:53:21.687845,298
2021-12-23 17:53:21.687855,298
2021-12-23 17:53:21.687865,275
2021-12-23 17:53:21.687875,258
2021-12-23 17:53:21.687885,254
2021-12-23 17:53:21.687895,209
2021-12-23 17:53:21.687904,104
2021-12-23 17:53:21.687914,-11
2021-12-23 17:53:21.687924,-81
2021-12-23 17:53:21.687934,-116
2021-12-23 17:53:21.687944,-144
2021-12-23 17:53:21.687954,-163
2021-12-23 17:53:21.687964,-181
2021-12-23 17:53:21.687974,-205
2021-12-23 17:53:21.687984,-200
2021-12-23 17:53:21.687993,-165
2021-12-23 17:53:21.688003,-144
2021-12-23 17:53:21.688013,-142
2021-12-23 17:53:21.688023,-135
2021-12-23 17:53:21.688033,-130
2021-12-23 17:53:21.688042,-111
2021-12-23 17:53:21.688052,-81
2021-12-23 17:53:21.956669,-55
2021-12-23 17:53:21.956699,-44
2021-12-23 17:53:21.956710,-39
2021-12-23 17:53:21.956721,-46
2021-12-23 17:53:21.956730,-41
2021-12-23 17:53:21.956740,-16
2021-12-23 17:53:21.956750,6
2021-12-23 17:53:21.956759,11
2021-12-23 17:53:21.956769,-4
2021-12-23 17:53:21.956779,-25
2021-12-23 17:53:21.956789,-13
2021-12-23 17:53:21.956798,0
2021-12-23 17:53:21.956808,-23
2021-12-23 17:53:21.956818,-44
2021-12-23 17:53:21.956828,-58
2021-12-23 17:53:21.956837,-81
2021-12-23 17:53:21.956847,-74
2021-12-23 17:53:21.956871,-41
2021-12-23 17:53:21.956881,-20
2021-12-23 17:53:21.956891,-16
2021-12-23 17:53:21.956901,-32
2021-12-23 17:53:21.956911,-53
2021-12-23 17:53:21.956921,-44
2021-12-23 17:53:21.956931,-25
2021-12-23 17:53:21.956941,-18
2021-12-23 17:53:21.956951,-11
2021-12-23 17:53:21.956961,-4
2021-12-23 17:53:21.956971,4
2021-12-23 17:53:21.956981,20
2021-12-23 17:53:21.956991,48
2021-12-23 17:53:22.093302,62
2021-12-23 17:53:22.093333,37
2021-12-23 17:53:22.093346,-16
2021-12-23 17:53:22.093356,-67
2021-12-23 17:53:22.093366,-60
2021-12-23 17:53:22.093376,-25
2021-12-23 17:53:22.093386,-27
2021-12-23 17:53:22.093396,-58
2021-12-23 17:53:22.093406,-69
2021-12-23 17:53:22.093415,-65
2021-12-23 17:53:22.093425,-48
2021-12-23 17:53:22.093435,-23
2021-12-23 17:53:22.093445,41
2021-12-23 17:53:22.093455,223
2021-12-23 17:53:22.093465,494
2021-12-23 17:53:22.093475,589
2021-12-23 17:53:22.093484,303
2021-12-23 17:53:22.093494,-256
2021-12-23 17:53:22.093504,-554
2021-12-23 17:53:22.093514,-314
2021-12-23 17:53:22.093524,-76
2021-12-23 17:53:22.093534,-93
2021-12-23 17:53:22.093543,-25
2021-12-23 17:53:22.093553,79
2021-12-23 17:53:22.093563,46
2021-12-23 17:53:22.093573,13
2021-12-23 17:53:22.093583,39
2021-12-23 17:53:22.093593,32
2021-12-23 17:53:22.093603,32
2021-12-23 17:53:22.093613,72
2021-12-23 17:53:22.318511,86
2021-12-23 17:53:22.318543,79
2021-12-23 17:53:22.318554,95
2021-12-23 17:53:22.318565,123
2021-12-23 17:53:22.318575,149
2021-12-23 17:53:22.318584,186
2021-12-23 17:53:22.318594,205
2021-12-23 17:53:22.318604,198
2021-12-23 17:53:22.318614,221
2021-12-23 17:53:22.318624,277
2021-12-23 17:53:22.318634,310
2021-12-23 17:53:22.318644,319
2021-12-23 17:53:22.318653,314
2021-12-23 17:53:22.318663,279
2021-12-23 17:53:22.318673,233
2021-12-23 17:53:22.318683,179
2021-12-23 17:53:22.318693,93
2021-12-23 17:53:22.318703,0
2021-12-23 17:53:22.318713,-69
2021-12-23 17:53:22.318723,-132
2021-12-23 17:53:22.318733,-174
2021-12-23 17:53:22.318742,-198
2021-12-23 17:53:22.318752,-212
2021-12-23 17:53:22.318762,-200
2021-12-23 17:53:22.318772,-193
2021-12-23 17:53:22.318781,-195
2021-12-23 17:53:22.318791,-181
2021-12-23 17:53:22.318801,-165
2021-12-23 17:53:22.318811,-149
2021-12-23 17:53:22.318821,-125
2021-12-23 17:53:22.542979,-111
2021-12-23 17:53:22.543010,-104
2021-12-23 17:53:22.543022,-90
2021-12-23 17:53:22.543032,-81
2021-12-23 17:53:22.543042,-67
2021-12-23 17:53:22.543052,-53
2021-12-23 17:53:22.543062,-65
2021-12-23 17:53:22.543072,-90
2021-12-23 17:53:22.543082,-109
2021-12-23 17:53:22.543092,-118
2021-12-23 17:53:22.543102,-102
2021-12-23 17:53:22.543112,-95
2021-12-23 17:53:22.543121,-121
2021-12-23 17:53:22.543131,-118
2021-12-23 17:53:22.543141,-90
2021-12-23 17:53:22.543151,-86
2021-12-23 17:53:22.543161,-83
2021-12-23 17:53:22.543171,-72
2021-12-23 17:53:22.543181,-86
2021-12-23 17:53:22.543191,-90
2021-12-23 17:53:22.543201,-65
2021-12-23 17:53:22.543211,-53
2021-12-23 17:53:22.543221,-51
2021-12-23 17:53:22.543231,-41
2021-12-23 17:53:22.543241,-41
2021-12-23 17:53:22.543250,-41
2021-12-23 17:53:22.543260,-27
2021-12-23 17:53:22.543270,-27
2021-12-23 17:53:22.543280,-32
2021-12-23 17:53:22.543290,-23
2021-12-23 17:53:22.767601,-11
2021-12-23 17:53:22.767623,2
2021-12-23 17:53:22.767631,16
2021-12-23 17:53:22.767638,25
2021-12-23 17:53:22.767644,41
2021-12-23 17:53:22.767650,30
2021-12-23 17:53:22.767657,-11
2021-12-23 17:53:22.767663,-23
2021-12-23 17:53:22.767670,-25
2021-12-23 17:53:22.767676,-37
2021-12-23 17:53:22.767682,-32
2021-12-23 17:53:22.767689,-41
2021-12-23 17:53:22.767695,-67
2021-12-23 17:53:22.767701,-55
2021-12-23 17:53:22.767708,-32
2021-12-23 17:53:22.767714,-30
2021-12-23 17:53:22.767720,-25
2021-12-23 17:53:22.767727,-4
2021-12-23 17:53:22.767733,97
2021-12-23 17:53:22.767739,368
2021-12-23 17:53:22.767746,629
2021-12-23 17:53:22.767752,545
2021-12-23 17:53:22.767759,37
2021-12-23 17:53:22.767765,-480
2021-12-23 17:53:22.767771,-454
2021-12-23 17:53:22.767778,-104
2021-12-23 17:53:22.767784,-23
2021-12-23 17:53:22.767790,-48
2021-12-23 17:53:22.767797,65
2021-12-23 17:53:22.767803,102
2021-12-23 17:53:23.037746,46
2021-12-23 17:53:23.037777,65
2021-12-23 17:53:23.037789,90
2021-12-23 17:53:23.037799,62
2021-12-23 17:53:23.037809,44
2021-12-23 17:53:23.037819,39
2021-12-23 17:53:23.037829,51
2021-12-23 17:53:23.037839,83
2021-12-23 17:53:23.037849,104
2021-12-23 17:53:23.037859,114
2021-12-23 17:53:23.037869,118
2021-12-23 17:53:23.037879,125
2021-12-23 17:53:23.037889,158
2021-12-23 17:53:23.037898,207
2021-12-23 17:53:23.037908,207
2021-12-23 17:53:23.037918,184
2021-12-23 17:53:23.037928,191
2021-12-23 17:53:23.037938,212
2021-12-23 17:53:23.037948,219
2021-12-23 17:53:23.037958,216
2021-12-23 17:53:23.037968,188
2021-12-23 17:53:23.037978,118
2021-12-23 17:53:23.037988,16
2021-12-23 17:53:23.037998,-72
2021-12-23 17:53:23.038008,-111
2021-12-23 17:53:23.038018,-142
2021-12-23 17:53:23.038028,-184
2021-12-23 17:53:23.038038,-209
2021-12-23 17:53:23.038048,-221
2021-12-23 17:53:23.038057,-219
2021-12-23 17:53:23.263264,-202
2021-12-23 17:53:23.263295,-181
2021-12-23 17:53:23.263307,-165
2021-12-23 17:53:23.263317,-179
2021-12-23 17:53:23.263327,-207
2021-12-23 17:53:23.263337,-191
2021-12-23 17:53:23.263347,-149
2021-12-23 17:53:23.263357,-132
2021-12-23 17:53:23.263367,-118
2021-12-23 17:53:23.263377,-111
2021-12-23 17:53:23.263387,-118
2021-12-23 17:53:23.263397,-100
2021-12-23 17:53:23.263407,-65
2021-12-23 17:53:23.263417,-46
2021-12-23 17:53:23.263427,-44
2021-12-23 17:53:23.263437,-58
2021-12-23 17:53:23.263447,-81
2021-12-23 17:53:23.263457,-74
2021-12-23 17:53:23.263467,-46
2021-12-23 17:53:23.263477,-34
2021-12-23 17:53:23.263487,-34
2021-12-23 17:53:23.263496,-41
2021-12-23 17:53:23.263506,-48
2021-12-23 17:53:23.263516,-39
2021-12-23 17:53:23.263526,-41
2021-12-23 17:53:23.263536,-53
2021-12-23 17:53:23.263546,-46
2021-12-23 17:53:23.263556,-55
2021-12-23 17:53:23.263565,-62
2021-12-23 17:53:23.263575,-32
2021-12-23 17:53:23.533213,-11
2021-12-23 17:53:23.533244,-13
2021-12-23 17:53:23.533256,-16
2021-12-23 17:53:23.533266,-39
2021-12-23 17:53:23.533276,-60
2021-12-23 17:53:23.533285,-41
2021-12-23 17:53:23.533295,-27
2021-12-23 17:53:23.533305,-39
2021-12-23 17:53:23.533315,-53
2021-12-23 17:53:23.533324,-58
2021-12-23 17:53:23.533335,-37
2021-12-23 17:53:23.533344,-9
2021-12-23 17:53:23.533354,11
2021-12-23 17:53:23.533364,20
2021-12-23 17:53:23.533374,0
2021-12-23 17:53:23.533383,-48
2021-12-23 17:53:23.533393,-65
2021-12-23 17:53:23.533403,-30
2021-12-23 17:53:23.533412,-11
2021-12-23 17:53:23.533422,-37
2021-12-23 17:53:23.533432,-86
2021-12-23 17:53:23.533441,-109
2021-12-23 17:53:23.533451,-79
2021-12-23 17:53:23.533461,-55
2021-12-23 17:53:23.533471,-48
2021-12-23 17:53:23.533480,-23
2021-12-23 17:53:23.533490,37
2021-12-23 17:53:23.533500,240
2021-12-23 17:53:23.533509,531
2021-12-23 17:53:23.533519,559
2021-12-23 17:53:23.712738,144
2021-12-23 17:53:23.712770,-433
2021-12-23 17:53:23.712782,-582
2021-12-23 17:53:23.712792,-268
2021-12-23 17:53:23.712802,-90
2021-12-23 17:53:23.712812,-104
2021-12-23 17:53:23.712821,-13
2021-12-23 17:53:23.712831,53
2021-12-23 17:53:23.712841,16
2021-12-23 17:53:23.712850,16
2021-12-23 17:53:23.712860,58
2021-12-23 17:53:23.712870,74
2021-12-23 17:53:23.712879,83
2021-12-23 17:53:23.712889,100
2021-12-23 17:53:23.712899,90
2021-12-23 17:53:23.712908,74
2021-12-23 17:53:23.712918,102
2021-12-23 17:53:23.712927,132
2021-12-23 17:53:23.712937,153
2021-12-23 17:53:23.712947,170
2021-12-23 17:53:23.712956,130
2021-12-23 17:53:23.712966,74
2021-12-23 17:53:23.712976,160
2021-12-23 17:53:23.712986,303
2021-12-23 17:53:23.712995,286
2021-12-23 17:53:23.713005,237
2021-12-23 17:53:23.713015,282
2021-12-23 17:53:23.713024,282
2021-12-23 17:53:23.713034,209
2021-12-23 17:53:23.713044,144
2021-12-23 17:53:23.982501,90
2021-12-23 17:53:23.982533,13
2021-12-23 17:53:23.982545,-65
2021-12-23 17:53:23.982556,-121
2021-12-23 17:53:23.982566,-151
2021-12-23 17:53:23.982576,-156
2021-12-23 17:53:23.982586,-146
2021-12-23 17:53:23.982596,-153
2021-12-23 17:53:23.982606,-181
2021-12-23 17:53:23.982616,-188
2021-12-23 17:53:23.982626,-172
2021-12-23 17:53:23.982636,-156
2021-12-23 17:53:23.982645,-130
2021-12-23 17:53:23.982655,-128
2021-12-23 17:53:23.982665,-153
2021-12-23 17:53:23.982675,-144
2021-12-23 17:53:23.982685,-104
2021-12-23 17:53:23.982695,-76
2021-12-23 17:53:23.982705,-60
2021-12-23 17:53:23.982715,-55
2021-12-23 17:53:23.982724,-48
2021-12-23 17:53:23.982734,-34
2021-12-23 17:53:23.982744,-20
2021-12-23 17:53:23.982754,-4
2021-12-23 17:53:23.982764,2
2021-12-23 17:53:23.982774,-18
2021-12-23 17:53:23.982784,-53
2021-12-23 17:53:23.982793,-51
2021-12-23 17:53:23.982803,-27
2021-12-23 17:53:23.982813,-25
2021-12-23 17:53:24.207232,-48
2021-12-23 17:53:24.207255,-83
2021-12-23 17:53:24.207263,-88
2021-12-23 17:53:24.207270,-72
2021-12-23 17:53:24.207278,-62
2021-12-23 17:53:24.207285,-46
2021-12-23 17:53:24.207291,-39
2021-12-23 17:53:24.207298,-72
2021-12-23 17:53:24.207305,-95
2021-12-23 17:53:24.207311,-79
2021-12-23 17:53:24.207318,-62
2021-12-23 17:53:24.207325,-55
2021-12-23 17:53:24.207331,-62
2021-12-23 17:53:24.207338,-86
2021-12-23 17:53:24.207352,-86
2021-12-23 17:53:24.207359,-72
2021-12-23 17:53:24.207365,-79
2021-12-23 17:53:24.207372,-79
2021-12-23 17:53:24.207379,-69
2021-12-23 17:53:24.207385,-67
2021-12-23 17:53:24.207392,-53
2021-12-23 17:53:24.207398,-30
2021-12-23 17:53:24.207405,-9
2021-12-23 17:53:24.207411,11
2021-12-23 17:53:24.207418,-2
2021-12-23 17:53:24.207425,-25
2021-12-23 17:53:24.207431,-11
2021-12-23 17:53:24.207438,-2
2021-12-23 17:53:24.207444,-13
2021-12-23 17:53:24.207451,-18
2021-12-23 17:53:24.432738,-27
2021-12-23 17:53:24.432769,-48
2021-12-23 17:53:24.432780,-83
2021-12-23 17:53:24.432790,-116
2021-12-23 17:53:24.432800,-104
2021-12-23 17:53:24.432810,-79
2021-12-23 17:53:24.432819,-37
2021-12-23 17:53:24.432829,160
2021-12-23 17:53:24.432839,459
2021-12-23 17:53:24.432849,496
2021-12-23 17:53:24.432858,107
2021-12-23 17:53:24.432868,-452
2021-12-23 17:53:24.432878,-636
2021-12-23 17:53:24.432888,-319
2021-12-23 17:53:24.432897,-97
2021-12-23 17:53:24.432907,-116
2021-12-23 17:53:24.432917,-39
2021-12-23 17:53:24.432926,39
2021-12-23 17:53:24.432936,2
2021-12-23 17:53:24.432946,6
2021-12-23 17:53:24.432956,60
2021-12-23 17:53:24.432965,67
2021-12-23 17:53:24.432975,67
2021-12-23 17:53:24.432985,102
2021-12-23 17:53:24.432994,118
2021-12-23 17:53:24.433004,123
2021-12-23 17:53:24.433013,144
2021-12-23 17:53:24.433023,170
2021-12-23 17:53:24.433033,200
2021-12-23 17:53:24.433042,223
2021-12-23 17:53:24.658393,233
2021-12-23 17:53:24.658424,230
2021-12-23 17:53:24.658436,240
2021-12-23 17:53:24.658447,275
2021-12-23 17:53:24.658456,284
2021-12-23 17:53:24.658466,254
2021-12-23 17:53:24.658476,242
2021-12-23 17:53:24.658486,254
2021-12-23 17:53:24.658495,240
2021-12-23 17:53:24.658505,181
2021-12-23 17:53:24.658515,111
2021-12-23 17:53:24.658525,44
2021-12-23 17:53:24.658535,-27
2021-12-23 17:53:24.658545,-83
2021-12-23 17:53:24.658554,-121
2021-12-23 17:53:24.658564,-151
2021-12-23 17:53:24.658574,-177
2021-12-23 17:53:24.658583,-200
2021-12-23 17:53:24.658593,-207
2021-12-23 17:53:24.658603,-179
2021-12-23 17:53:24.658612,-158
2021-12-23 17:53:24.658622,-158
2021-12-23 17:53:24.658632,-149
2021-12-23 17:53:24.658641,-132
2021-12-23 17:53:24.658651,-116
2021-12-23 17:53:24.658661,-90
2021-12-23 17:53:24.658670,-76
2021-12-23 17:53:24.658680,-67
2021-12-23 17:53:24.658690,-60
2021-12-23 17:53:24.658699,-51
2021-12-23 17:53:24.882615,-30
2021-12-23 17:53:24.882635,-9
2021-12-23 17:53:24.882643,-11
2021-12-23 17:53:24.882650,-32
2021-12-23 17:53:24.882656,-44
2021-12-23 17:53:24.882663,-37
2021-12-23 17:53:24.882669,-51
2021-12-23 17:53:24.882676,-69
2021-12-23 17:53:24.882682,-60
2021-12-23 17:53:24.882689,-60
2021-12-23 17:53:24.882695,-83
2021-12-23 17:53:24.882722,-100
2021-12-23 17:53:24.882738,-86
2021-12-23 17:53:24.882745,-65
2021-12-23 17:53:24.882752,-58
2021-12-23 17:53:24.882758,-58
2021-12-23 17:53:24.882765,-76
2021-12-23 17:53:24.882771,-90
2021-12-23 17:53:24.882778,-74
2021-12-23 17:53:24.882784,-51
2021-12-23 17:53:24.882791,-39
2021-12-23 17:53:24.882798,-37
2021-12-23 17:53:24.882804,-51
2021-12-23 17:53:24.882811,-48
2021-12-23 17:53:24.882817,-25
2021-12-23 17:53:24.882824,-30
2021-12-23 17:53:24.882830,-53
2021-12-23 17:53:24.882837,-67
2021-12-23 17:53:24.882844,-90
2021-12-23 17:53:24.882850,-107
2021-12-23 17:53:25.063405,-81
2021-12-23 17:53:25.063436,-46
2021-12-23 17:53:25.063448,-34
2021-12-23 17:53:25.063459,-41
2021-12-23 17:53:25.063468,-60
2021-12-23 17:53:25.063478,-65
2021-12-23 17:53:25.063488,-76
2021-12-23 17:53:25.063497,-123
2021-12-23 17:53:25.063507,-167
2021-12-23 17:53:25.063516,-177
2021-12-23 17:53:25.063526,-163
2021-12-23 17:53:25.063536,-139
2021-12-23 17:53:25.063545,-121
2021-12-23 17:53:25.063555,-111
2021-12-23 17:53:25.063565,-100
2021-12-23 17:53:25.063575,-109
2021-12-23 17:53:25.063584,-132
2021-12-23 17:53:25.063594,-97
2021-12-23 17:53:25.063604,51
2021-12-23 17:53:25.063613,345
2021-12-23 17:53:25.063623,573
2021-12-23 17:53:25.063633,412
2021-12-23 17:53:25.063642,-130
2021-12-23 17:53:25.063652,-559
2021-12-23 17:53:25.063662,-429
2021-12-23 17:53:25.063671,-97
2021-12-23 17:53:25.063681,-39
2021-12-23 17:53:25.063691,-37
2021-12-23 17:53:25.063700,60
2021-12-23 17:53:25.063710,88
2021-12-23 17:53:25.333236,76
2021-12-23 17:53:25.333267,107
2021-12-23 17:53:25.333279,118
2021-12-23 17:53:25.333289,88
2021-12-23 17:53:25.333299,83
2021-12-23 17:53:25.333309,121
2021-12-23 17:53:25.333319,153
2021-12-23 17:53:25.333329,174
2021-12-23 17:53:25.333339,186
2021-12-23 17:53:25.333349,170
2021-12-23 17:53:25.333359,153
2021-12-23 17:53:25.333369,174
2021-12-23 17:53:25.333379,216
2021-12-23 17:53:25.333389,265
2021-12-23 17:53:25.333398,298
2021-12-23 17:53:25.333408,310
2021-12-23 17:53:25.333418,335
2021-12-23 17:53:25.333428,368
2021-12-23 17:53:25.333438,377
2021-12-23 17:53:25.333448,363
2021-12-23 17:53:25.333458,324
2021-12-23 17:53:25.333468,244
2021-12-23 17:53:25.333478,165
2021-12-23 17:53:25.333488,107
2021-12-23 17:53:25.333498,46
2021-12-23 17:53:25.333508,-11
2021-12-23 17:53:25.333518,-62
2021-12-23 17:53:25.333528,-107
2021-12-23 17:53:25.333538,-118
2021-12-23 17:53:25.333547,-104
2021-12-23 17:53:25.692593,-95
2021-12-23 17:53:25.692624,-111
2021-12-23 17:53:25.692636,-135
2021-12-23 17:53:25.692647,-135
2021-12-23 17:53:25.692657,-111
2021-12-23 17:53:25.692667,-88
2021-12-23 17:53:25.692677,-69
2021-12-23 17:53:25.692686,-58
2021-12-23 17:53:25.692696,-74
2021-12-23 17:53:25.692706,-97
2021-12-23 17:53:25.692716,-81
2021-12-23 17:53:25.692747,-51
2021-12-23 17:53:25.692778,-69
2021-12-23 17:53:25.692789,-114
2021-12-23 17:53:25.692799,-139
2021-12-23 17:53:25.692809,-137
2021-12-23 17:53:25.692819,-121
2021-12-23 17:53:25.692829,-107
2021-12-23 17:53:25.692839,-93
2021-12-23 17:53:25.692849,-74
2021-12-23 17:53:25.692859,-79
2021-12-23 17:53:25.692869,-86
2021-12-23 17:53:25.692879,-74
2021-12-23 17:53:25.692889,-74
2021-12-23 17:53:25.692899,-83
2021-12-23 17:53:25.692909,-90
2021-12-23 17:53:25.692919,-125
2021-12-23 17:53:25.692929,-151
2021-12-23 17:53:25.692939,-132
2021-12-23 17:53:25.692948,-102
2021-12-23 17:53:25.783417,-93
2021-12-23 17:53:25.783438,-95
2021-12-23 17:53:25.783446,-104
2021-12-23 17:53:25.783453,-104
2021-12-23 17:53:25.783459,-93
2021-12-23 17:53:25.783466,-69
2021-12-23 17:53:25.783472,-58
2021-12-23 17:53:25.783478,-81
2021-12-23 17:53:25.783485,-111
2021-12-23 17:53:25.783491,-114
2021-12-23 17:53:25.783497,-104
2021-12-23 17:53:25.783504,-90
2021-12-23 17:53:25.783510,-62
2021-12-23 17:53:25.783516,-34
2021-12-23 17:53:25.783523,-37
2021-12-23 17:53:25.783529,-58
2021-12-23 17:53:25.783535,-41
2021-12-23 17:53:25.783542,-11
2021-12-23 17:53:25.783548,-20
2021-12-23 17:53:25.783554,-51
2021-12-23 17:53:25.783561,-51
2021-12-23 17:53:25.783567,-37
2021-12-23 17:53:25.783573,-34
2021-12-23 17:53:25.783580,-23
2021-12-23 17:53:25.783586,-11
2021-12-23 17:53:25.783592,-30
2021-12-23 17:53:25.783598,-48
2021-12-23 17:53:25.783605,-51
2021-12-23 17:53:25.783611,-34
2021-12-23 17:53:25.783617,2
2021-12-23 17:53:26.096917,90
2021-12-23 17:53:26.096948,317
2021-12-23 17:53:26.096960,587
2021-12-23 17:53:26.096970,557
2021-12-23 17:53:26.096980,93
2021-12-23 17:53:26.096990,-410
2021-12-23 17:53:26.097000,-438
2021-12-23 17:53:26.097010,-142
2021-12-23 17:53:26.097020,-32
2021-12-23 17:53:26.097029,-32
2021-12-23 17:53:26.097039,74
2021-12-23 17:53:26.097049,123
2021-12-23 17:53:26.097059,79
2021-12-23 17:53:26.097068,69
2021-12-23 17:53:26.097078,100
2021-12-23 17:53:26.097088,111
2021-12-23 17:53:26.097098,109
2021-12-23 17:53:26.097108,109
2021-12-23 17:53:26.097117,104
2021-12-23 17:53:26.097127,93
2021-12-23 17:53:26.097137,102
2021-12-23 17:53:26.097147,132
2021-12-23 17:53:26.097157,160
2021-12-23 17:53:26.097166,195
2021-12-23 17:53:26.097176,226
2021-12-23 17:53:26.097186,247
2021-12-23 17:53:26.097196,277
2021-12-23 17:53:26.097206,312
2021-12-23 17:53:26.097215,340
2021-12-23 17:53:26.097225,356
2021-12-23 17:53:26.232611,359
2021-12-23 17:53:26.232633,345
2021-12-23 17:53:26.232641,310
2021-12-23 17:53:26.232648,247
2021-12-23 17:53:26.232654,153
2021-12-23 17:53:26.232661,67
2021-12-23 17:53:26.232668,-16
2021-12-23 17:53:26.232674,-93
2021-12-23 17:53:26.232681,-137
2021-12-23 17:53:26.232687,-167
2021-12-23 17:53:26.232693,-177
2021-12-23 17:53:26.232700,-186
2021-12-23 17:53:26.232706,-219
2021-12-23 17:53:26.232713,-221
2021-12-23 17:53:26.232719,-186
2021-12-23 17:53:26.232726,-172
2021-12-23 17:53:26.232732,-163
2021-12-23 17:53:26.232739,-132
2021-12-23 17:53:26.232745,-121
2021-12-23 17:53:26.232751,-130
2021-12-23 17:53:26.232758,-121
2021-12-23 17:53:26.232764,-104
2021-12-23 17:53:26.232771,-88
2021-12-23 17:53:26.232777,-74
2021-12-23 17:53:26.232783,-69
2021-12-23 17:53:26.232790,-76
2021-12-23 17:53:26.232796,-88
2021-12-23 17:53:26.232803,-102
2021-12-23 17:53:26.232809,-107
2021-12-23 17:53:26.232815,-109
2021-12-23 17:53:26.458415,-116
2021-12-23 17:53:26.458446,-107
2021-12-23 17:53:26.458457,-97
2021-12-23 17:53:26.458468,-102
2021-12-23 17:53:26.458477,-102
2021-12-23 17:53:26.458488,-116
2021-12-23 17:53:26.458497,-146
2021-12-23 17:53:26.458507,-130
2021-12-23 17:53:26.458517,-100
2021-12-23 17:53:26.458527,-109
2021-12-23 17:53:26.458537,-111
2021-12-23 17:53:26.458547,-121
2021-12-23 17:53:26.458557,-132
2021-12-23 17:53:26.458567,-111
2021-12-23 17:53:26.458577,-86
2021-12-23 17:53:26.458587,-93
2021-12-23 17:53:26.458597,-100
2021-12-23 17:53:26.458607,-81
2021-12-23 17:53:26.458616,-72
2021-12-23 17:53:26.458626,-74
2021-12-23 17:53:26.458637,-86
2021-12-23 17:53:26.458647,-107
2021-12-23 17:53:26.458656,-104
2021-12-23 17:53:26.458666,-100
2021-12-23 17:53:26.458676,-118
2021-12-23 17:53:26.458686,-125
2021-12-23 17:53:26.458696,-86
2021-12-23 17:53:26.458706,-55
2021-12-23 17:53:26.458715,-67
2021-12-23 17:53:26.458725,-79
2021-12-23 17:53:26.683234,-72
2021-12-23 17:53:26.683265,-51
2021-12-23 17:53:26.683277,-39
2021-12-23 17:53:26.683287,-44
2021-12-23 17:53:26.683297,-55
2021-12-23 17:53:26.683307,-72
2021-12-23 17:53:26.683316,-62
2021-12-23 17:53:26.683326,-37
2021-12-23 17:53:26.683336,-32
2021-12-23 17:53:26.683346,-39
2021-12-23 17:53:26.683356,-18
2021-12-23 17:53:26.683366,130
2021-12-23 17:53:26.683376,442
2021-12-23 17:53:26.683386,620
2021-12-23 17:53:26.683396,349
2021-12-23 17:53:26.683406,-223
2021-12-23 17:53:26.683416,-536
2021-12-23 17:53:26.683425,-300
2021-12-23 17:53:26.683435,-27
2021-12-23 17:53:26.683450,-9
2021-12-23 17:53:26.683460,41
2021-12-23 17:53:26.683470,123
2021-12-23 17:53:26.683480,95
2021-12-23 17:53:26.683490,69
2021-12-23 17:53:26.683500,107
2021-12-23 17:53:26.683510,132
2021-12-23 17:53:26.683519,144
2021-12-23 17:53:26.683529,151
2021-12-23 17:53:26.683539,149
2021-12-23 17:53:26.683549,167
2021-12-23 17:53:26.907722,205
2021-12-23 17:53:26.907752,226
2021-12-23 17:53:26.907764,240
2021-12-23 17:53:26.907774,247
2021-12-23 17:53:26.907784,237
2021-12-23 17:53:26.907794,254
2021-12-23 17:53:26.907804,305
2021-12-23 17:53:26.907814,349
2021-12-23 17:53:26.907824,361
2021-12-23 17:53:26.907834,328
2021-12-23 17:53:26.907844,293
2021-12-23 17:53:26.907854,296
2021-12-23 17:53:26.907864,300
2021-12-23 17:53:26.907874,265
2021-12-23 17:53:26.907884,200
2021-12-23 17:53:26.907894,114
2021-12-23 17:53:26.907904,27
2021-12-23 17:53:26.907913,-25
2021-12-23 17:53:26.907924,-69
2021-12-23 17:53:26.907933,-109
2021-12-23 17:53:26.907943,-135
2021-12-23 17:53:26.907953,-158
2021-12-23 17:53:26.907963,-163
2021-12-23 17:53:26.907973,-144
2021-12-23 17:53:26.907983,-142
2021-12-23 17:53:26.907993,-156
2021-12-23 17:53:26.908003,-156
2021-12-23 17:53:26.908013,-144
2021-12-23 17:53:26.908023,-139
2021-12-23 17:53:26.908033,-156
2021-12-23 17:53:27.222866,-179
2021-12-23 17:53:27.222889,-174
2021-12-23 17:53:27.222897,-177
2021-12-23 17:53:27.222904,-223
2021-12-23 17:53:27.222910,-247
2021-12-23 17:53:27.222917,-205
2021-12-23 17:53:27.222923,-172
2021-12-23 17:53:27.222930,-167
2021-12-23 17:53:27.222936,-174
2021-12-23 17:53:27.222942,-202
2021-12-23 17:53:27.222949,-205
2021-12-23 17:53:27.222955,-170
2021-12-23 17:53:27.222961,-151
2021-12-23 17:53:27.222968,-142
2021-12-23 17:53:27.222974,-142
2021-12-23 17:53:27.222980,-156
2021-12-23 17:53:27.222987,-144
2021-12-23 17:53:27.222993,-111
2021-12-23 17:53:27.222999,-102
2021-12-23 17:53:27.223006,-97
2021-12-23 17:53:27.223012,-97
2021-12-23 17:53:27.223018,-100
2021-12-23 17:53:27.223025,-88
2021-12-23 17:53:27.223031,-67
2021-12-23 17:53:27.223037,-46
2021-12-23 17:53:27.223043,-32
2021-12-23 17:53:27.223050,-44
2021-12-23 17:53:27.223056,-67
2021-12-23 17:53:27.223062,-65
2021-12-23 17:53:27.223069,-46
2021-12-23 17:53:27.447625,-37
2021-12-23 17:53:27.447656,-32
2021-12-23 17:53:27.447668,-30
2021-12-23 17:53:27.447678,-20
2021-12-23 17:53:27.447688,6
2021-12-23 17:53:27.447698,32
2021-12-23 17:53:27.447708,53
2021-12-23 17:53:27.447718,55
2021-12-23 17:53:27.447728,9
2021-12-23 17:53:27.447738,-46
2021-12-23 17:53:27.447748,-46
2021-12-23 17:53:27.447758,-25
2021-12-23 17:53:27.447768,-13
2021-12-23 17:53:27.447779,0
2021-12-23 17:53:27.447789,4
2021-12-23 17:53:27.447799,-9
2021-12-23 17:53:27.447809,-6
2021-12-23 17:53:27.447819,11
2021-12-23 17:53:27.447829,27
2021-12-23 17:53:27.447839,60
2021-12-23 17:53:27.447849,212
2021-12-23 17:53:27.447859,496
2021-12-23 17:53:27.447869,627
2021-12-23 17:53:27.447879,300
2021-12-23 17:53:27.447889,-286
2021-12-23 17:53:27.447899,-496
2021-12-23 17:53:27.447909,-195
2021-12-23 17:53:27.447919,4
2021-12-23 17:53:27.447929,-30
2021-12-23 17:53:27.447939,25
2021-12-23 17:53:27.627969,109
2021-12-23 17:53:27.627999,95
2021-12-23 17:53:27.628011,81
2021-12-23 17:53:27.628021,102
2021-12-23 17:53:27.628031,102
2021-12-23 17:53:27.628041,74
2021-12-23 17:53:27.628051,72
2021-12-23 17:53:27.628061,93
2021-12-23 17:53:27.628071,97
2021-12-23 17:53:27.628081,104
2021-12-23 17:53:27.628091,142
2021-12-23 17:53:27.628100,177
2021-12-23 17:53:27.628110,205
2021-12-23 17:53:27.628120,212
2021-12-23 17:53:27.628130,205
2021-12-23 17:53:27.628140,235
2021-12-23 17:53:27.628150,284
2021-12-23 17:53:27.628160,296
2021-12-23 17:53:27.628169,296
2021-12-23 17:53:27.628179,303
2021-12-23 17:53:27.628189,289
2021-12-23 17:53:27.628199,256
2021-12-23 17:53:27.628209,221
2021-12-23 17:53:27.628219,160
2021-12-23 17:53:27.628229,65
2021-12-23 17:53:27.628238,-2
2021-12-23 17:53:27.628248,-32
2021-12-23 17:53:27.628258,-81
2021-12-23 17:53:27.628268,-128
2021-12-23 17:53:27.628278,-135
2021-12-23 17:53:27.852830,-144
2021-12-23 17:53:27.852854,-170
2021-12-23 17:53:27.852866,-177
2021-12-23 17:53:27.852875,-167
2021-12-23 17:53:27.852882,-153
2021-12-23 17:53:27.852888,-132
2021-12-23 17:53:27.852895,-125
2021-12-23 17:53:27.852901,-142
2021-12-23 17:53:27.852907,-142
2021-12-23 17:53:27.852914,-130
2021-12-23 17:53:27.852920,-132
2021-12-23 17:53:27.852985,-132
2021-12-23 17:53:27.853006,-146
2021-12-23 17:53:27.853016,-174
2021-12-23 17:53:27.853023,-170
2021-12-23 17:53:27.853030,-153
2021-12-23 17:53:27.853036,-139
2021-12-23 17:53:27.853043,-118
2021-12-23 17:53:27.853049,-111
2021-12-23 17:53:27.853056,-118
2021-12-23 17:53:27.853062,-111
2021-12-23 17:53:27.853069,-100
2021-12-23 17:53:27.853075,-95
2021-12-23 17:53:27.853082,-86
2021-12-23 17:53:27.853088,-79
2021-12-23 17:53:27.853095,-74
2021-12-23 17:53:27.853101,-62
2021-12-23 17:53:27.853108,-48
2021-12-23 17:53:27.853114,-44
2021-12-23 17:53:27.853121,-41
2021-12-23 17:53:28.121866,-37
2021-12-23 17:53:28.121897,-27
2021-12-23 17:53:28.121908,-32
2021-12-23 17:53:28.121918,-62
2021-12-23 17:53:28.121928,-69
2021-12-23 17:53:28.121938,-55
2021-12-23 17:53:28.121948,-76
2021-12-23 17:53:28.121958,-88
2021-12-23 17:53:28.121968,-55
2021-12-23 17:53:28.121978,-39
2021-12-23 17:53:28.121988,-69
2021-12-23 17:53:28.121998,-90
2021-12-23 17:53:28.122007,-95
2021-12-23 17:53:28.122017,-88
2021-12-23 17:53:28.122027,-79
2021-12-23 17:53:28.122037,-81
2021-12-23 17:53:28.122047,-72
2021-12-23 17:53:28.122057,-46
2021-12-23 17:53:28.122066,-39
2021-12-23 17:53:28.122076,-32
2021-12-23 17:53:28.122086,-18
2021-12-23 17:53:28.122096,-16
2021-12-23 17:53:28.122106,-6
2021-12-23 17:53:28.122116,9
2021-12-23 17:53:28.122126,27
2021-12-23 17:53:28.122135,142
2021-12-23 17:53:28.122145,429
2021-12-23 17:53:28.122155,692
2021-12-23 17:53:28.122165,568
2021-12-23 17:53:28.122175,2
2021-12-23 17:53:28.393405,-477
2021-12-23 17:53:28.393436,-340
2021-12-23 17:53:28.393448,4
2021-12-23 17:53:28.393458,37
2021-12-23 17:53:28.393468,16
2021-12-23 17:53:28.393478,93
2021-12-23 17:53:28.393487,90
2021-12-23 17:53:28.393497,79
2021-12-23 17:53:28.393507,118
2021-12-23 17:53:28.393516,135
2021-12-23 17:53:28.393526,130
2021-12-23 17:53:28.393536,137
2021-12-23 17:53:28.393545,132
2021-12-23 17:53:28.393555,146
2021-12-23 17:53:28.393564,184
2021-12-23 17:53:28.393574,207
2021-12-23 17:53:28.393584,221
2021-12-23 17:53:28.393593,244
2021-12-23 17:53:28.393603,279
2021-12-23 17:53:28.393612,321
2021-12-23 17:53:28.393622,356
2021-12-23 17:53:28.393632,382
2021-12-23 17:53:28.393642,405
2021-12-23 17:53:28.393651,419
2021-12-23 17:53:28.393661,429
2021-12-23 17:53:28.393670,424
2021-12-23 17:53:28.393680,398
2021-12-23 17:53:28.393690,340
2021-12-23 17:53:28.393699,254
2021-12-23 17:53:28.393709,163
2021-12-23 17:53:28.528509,90
2021-12-23 17:53:28.528541,34
2021-12-23 17:53:28.528554,-18
2021-12-23 17:53:28.528564,-72
2021-12-23 17:53:28.528574,-109
2021-12-23 17:53:28.528584,-123
2021-12-23 17:53:28.528594,-128
2021-12-23 17:53:28.528603,-144
2021-12-23 17:53:28.528613,-156
2021-12-23 17:53:28.528623,-142
2021-12-23 17:53:28.528633,-144
2021-12-23 17:53:28.528642,-170
2021-12-23 17:53:28.528652,-151
2021-12-23 17:53:28.528662,-107
2021-12-23 17:53:28.528671,-97
2021-12-23 17:53:28.528681,-116
2021-12-23 17:53:28.528691,-130
2021-12-23 17:53:28.528700,-132
2021-12-23 17:53:28.528710,-114
2021-12-23 17:53:28.528719,-102
2021-12-23 17:53:28.528729,-121
2021-12-23 17:53:28.528739,-144
2021-12-23 17:53:28.528748,-174
2021-12-23 17:53:28.528758,-188
2021-12-23 17:53:28.528768,-163
2021-12-23 17:53:28.528777,-144
2021-12-23 17:53:28.528787,-149
2021-12-23 17:53:28.528796,-149
2021-12-23 17:53:28.528806,-144
2021-12-23 17:53:28.528816,-137
2021-12-23 17:53:28.752802,-123
2021-12-23 17:53:28.752823,-111
2021-12-23 17:53:28.752831,-104
2021-12-23 17:53:28.752838,-121
2021-12-23 17:53:28.752846,-156
2021-12-23 17:53:28.752857,-160
2021-12-23 17:53:28.752869,-132
2021-12-23 17:53:28.752876,-109
2021-12-23 17:53:28.752883,-107
2021-12-23 17:53:28.752889,-132
2021-12-23 17:53:28.752943,-158
2021-12-23 17:53:28.752957,-139
2021-12-23 17:53:28.752966,-104
2021-12-23 17:53:28.752978,-102
2021-12-23 17:53:28.752988,-111
2021-12-23 17:53:28.752995,-114
2021-12-23 17:53:28.753001,-118
2021-12-23 17:53:28.753008,-107
2021-12-23 17:53:28.753014,-81
2021-12-23 17:53:28.753021,-65
2021-12-23 17:53:28.753027,-62
2021-12-23 17:53:28.753034,-67
2021-12-23 17:53:28.753040,-62
2021-12-23 17:53:28.753047,-34
2021-12-23 17:53:28.753053,20
2021-12-23 17:53:28.753059,186
2021-12-23 17:53:28.753066,484
2021-12-23 17:53:28.753072,648
2021-12-23 17:53:28.753079,389
2021-12-23 17:53:28.753085,-186
2021-12-23 17:53:29.022930,-512
2021-12-23 17:53:29.022954,-275
2021-12-23 17:53:29.022962,-23
2021-12-23 17:53:29.022969,-69
2021-12-23 17:53:29.022975,-39
2021-12-23 17:53:29.022982,93
2021-12-23 17:53:29.022988,97
2021-12-23 17:53:29.022995,81
2021-12-23 17:53:29.023001,116
2021-12-23 17:53:29.023008,95
2021-12-23 17:53:29.023014,65
2021-12-23 17:53:29.023020,86
2021-12-23 17:53:29.023027,104
2021-12-23 17:53:29.023033,116
2021-12-23 17:53:29.023039,144
2021-12-23 17:53:29.023046,153
2021-12-23 17:53:29.023052,167
2021-12-23 17:53:29.023058,214
2021-12-23 17:53:29.023065,256
2021-12-23 17:53:29.023071,289
2021-12-23 17:53:29.023077,324
2021-12-23 17:53:29.023084,333
2021-12-23 17:53:29.023090,310
2021-12-23 17:53:29.023096,303
2021-12-23 17:53:29.023103,331
2021-12-23 17:53:29.023109,335
2021-12-23 17:53:29.023115,293
2021-12-23 17:53:29.023122,226
2021-12-23 17:53:29.023128,160
2021-12-23 17:53:29.023134,95
2021-12-23 17:53:29.248198,30
2021-12-23 17:53:29.248228,-32
2021-12-23 17:53:29.248240,-97
2021-12-23 17:53:29.248250,-144
2021-12-23 17:53:29.248260,-156
2021-12-23 17:53:29.248270,-146
2021-12-23 17:53:29.248280,-137
2021-12-23 17:53:29.248291,-132
2021-12-23 17:53:29.248301,-160
2021-12-23 17:53:29.248311,-200
2021-12-23 17:53:29.248321,-184
2021-12-23 17:53:29.248331,-144
2021-12-23 17:53:29.248341,-142
2021-12-23 17:53:29.248351,-163
2021-12-23 17:53:29.248361,-191
2021-12-23 17:53:29.248371,-200
2021-12-23 17:53:29.248381,-172
2021-12-23 17:53:29.248391,-137
2021-12-23 17:53:29.248401,-121
2021-12-23 17:53:29.248411,-114
2021-12-23 17:53:29.248421,-109
2021-12-23 17:53:29.248431,-100
2021-12-23 17:53:29.248441,-83
2021-12-23 17:53:29.248451,-69
2021-12-23 17:53:29.248461,-58
2021-12-23 17:53:29.248471,-58
2021-12-23 17:53:29.248481,-67
2021-12-23 17:53:29.248491,-69
2021-12-23 17:53:29.248501,-48
2021-12-23 17:53:29.248510,-39
2021-12-23 17:53:29.472920,-48
2021-12-23 17:53:29.472951,-62
2021-12-23 17:53:29.472963,-81
2021-12-23 17:53:29.472974,-109
2021-12-23 17:53:29.472984,-125
2021-12-23 17:53:29.472994,-118
2021-12-23 17:53:29.473004,-107
2021-12-23 17:53:29.473014,-121
2021-12-23 17:53:29.473023,-137
2021-12-23 17:53:29.473033,-118
2021-12-23 17:53:29.473043,-83
2021-12-23 17:53:29.473053,-67
2021-12-23 17:53:29.473063,-76
2021-12-23 17:53:29.473073,-109
2021-12-23 17:53:29.473083,-146
2021-12-23 17:53:29.473093,-158
2021-12-23 17:53:29.473103,-146
2021-12-23 17:53:29.473113,-125
2021-12-23 17:53:29.473122,-123
2021-12-23 17:53:29.473132,-123
2021-12-23 17:53:29.473142,-114
2021-12-23 17:53:29.473152,-104
2021-12-23 17:53:29.473162,-83
2021-12-23 17:53:29.473172,-41
2021-12-23 17:53:29.473182,74
2021-12-23 17:53:29.473192,342
2021-12-23 17:53:29.473202,580
2021-12-23 17:53:29.473212,440
2021-12-23 17:53:29.473222,-107
2021-12-23 17:53:29.473232,-589
2021-12-23 17:53:29.698182,-515
2021-12-23 17:53:29.698223,-181
2021-12-23 17:53:29.698234,-107
2021-12-23 17:53:29.698245,-93
2021-12-23 17:53:29.698255,34
2021-12-23 17:53:29.698270,67
2021-12-23 17:53:29.698280,23
2021-12-23 17:53:29.698290,27
2021-12-23 17:53:29.698300,55
2021-12-23 17:53:29.698310,67
2021-12-23 17:53:29.698320,86
2021-12-23 17:53:29.698329,111
2021-12-23 17:53:29.698339,109
2021-12-23 17:53:29.698349,107
2021-12-23 17:53:29.698359,137
2021-12-23 17:53:29.698369,158
2021-12-23 17:53:29.698378,156
2021-12-23 17:53:29.698388,170
2021-12-23 17:53:29.698398,207
2021-12-23 17:53:29.698408,254
2021-12-23 17:53:29.698418,289
2021-12-23 17:53:29.698428,310
2021-12-23 17:53:29.698438,333
2021-12-23 17:53:29.698447,342
2021-12-23 17:53:29.698457,317
2021-12-23 17:53:29.698467,277
2021-12-23 17:53:29.698477,247
2021-12-23 17:53:29.698487,188
2021-12-23 17:53:29.698497,102
2021-12-23 17:53:29.698506,20
2021-12-23 17:53:29.923132,-55
2021-12-23 17:53:29.923163,-111
2021-12-23 17:53:29.923175,-142
2021-12-23 17:53:29.923185,-160
2021-12-23 17:53:29.923195,-170
2021-12-23 17:53:29.923205,-172
2021-12-23 17:53:29.923215,-191
2021-12-23 17:53:29.923225,-195
2021-12-23 17:53:29.923235,-174
2021-12-23 17:53:29.923245,-165
2021-12-23 17:53:29.923255,-158
2021-12-23 17:53:29.923265,-137
2021-12-23 17:53:29.923275,-142
2021-12-23 17:53:29.923285,-146
2021-12-23 17:53:29.923295,-116
2021-12-23 17:53:29.923305,-100
2021-12-23 17:53:29.923315,-86
2021-12-23 17:53:29.923325,-67
2021-12-23 17:53:29.923335,-79
2021-12-23 17:53:29.923345,-93
2021-12-23 17:53:29.923355,-90
2021-12-23 17:53:29.923365,-95
2021-12-23 17:53:29.923375,-95
2021-12-23 17:53:29.923385,-81
2021-12-23 17:53:29.923395,-74
2021-12-23 17:53:29.923405,-67
2021-12-23 17:53:29.923415,-58
2021-12-23 17:53:29.923424,-58
2021-12-23 17:53:29.923435,-58
2021-12-23 17:53:29.923444,-55
2021-12-23 17:53:30.281799,-55
2021-12-23 17:53:30.281830,-46
2021-12-23 17:53:30.281843,-51
2021-12-23 17:53:30.281853,-93
2021-12-23 17:53:30.281863,-128
2021-12-23 17:53:30.281873,-132
2021-12-23 17:53:30.281883,-139
2021-12-23 17:53:30.281893,-132
2021-12-23 17:53:30.281903,-111
2021-12-23 17:53:30.281913,-102
2021-12-23 17:53:30.281923,-90
2021-12-23 17:53:30.281933,-86
2021-12-23 17:53:30.281943,-90
2021-12-23 17:53:30.281953,-90
2021-12-23 17:53:30.281963,-111
2021-12-23 17:53:30.281973,-146
2021-12-23 17:53:30.281983,-158
2021-12-23 17:53:30.281993,-158
2021-12-23 17:53:30.282003,-146
2021-12-23 17:53:30.282012,-130
2021-12-23 17:53:30.282022,-130
2021-12-23 17:53:30.282032,-149
2021-12-23 17:53:30.282042,-158
2021-12-23 17:53:30.282052,-149
2021-12-23 17:53:30.282062,-125
2021-12-23 17:53:30.282072,-69
2021-12-23 17:53:30.282082,109
2021-12-23 17:53:30.282092,415
2021-12-23 17:53:30.282102,557
2021-12-23 17:53:30.282112,263
2021-12-23 17:53:30.373150,-314
2021-12-23 17:53:30.373181,-601
2021-12-23 17:53:30.373193,-342
2021-12-23 17:53:30.373203,-79
2021-12-23 17:53:30.373213,-76
2021-12-23 17:53:30.373223,-25
2021-12-23 17:53:30.373233,74
2021-12-23 17:53:30.373243,74
2021-12-23 17:53:30.373253,72
2021-12-23 17:53:30.373263,100
2021-12-23 17:53:30.373273,88
2021-12-23 17:53:30.373283,67
2021-12-23 17:53:30.373293,97
2021-12-23 17:53:30.373302,137
2021-12-23 17:53:30.373312,153
2021-12-23 17:53:30.373322,163
2021-12-23 17:53:30.373332,158
2021-12-23 17:53:30.373342,156
2021-12-23 17:53:30.373352,195
2021-12-23 17:53:30.373361,247
2021-12-23 17:53:30.373371,279
2021-12-23 17:53:30.373381,307
2021-12-23 17:53:30.373391,345
2021-12-23 17:53:30.373401,366
2021-12-23 17:53:30.373411,363
2021-12-23 17:53:30.373420,368
2021-12-23 17:53:30.373430,373
2021-12-23 17:53:30.373440,338
2021-12-23 17:53:30.373450,270
2021-12-23 17:53:30.373460,198
2021-12-23 17:53:30.598386,128
2021-12-23 17:53:30.598419,58
2021-12-23 17:53:30.598430,-11
2021-12-23 17:53:30.598441,-81
2021-12-23 17:53:30.598450,-149
2021-12-23 17:53:30.598460,-174
2021-12-23 17:53:30.598470,-158
2021-12-23 17:53:30.598480,-149
2021-12-23 17:53:30.598489,-163
2021-12-23 17:53:30.598499,-216
2021-12-23 17:53:30.598509,-270
2021-12-23 17:53:30.598518,-244
2021-12-23 17:53:30.598528,-188
2021-12-23 17:53:30.598538,-177
2021-12-23 17:53:30.598547,-167
2021-12-23 17:53:30.598557,-149
2021-12-23 17:53:30.598567,-144
2021-12-23 17:53:30.598577,-128
2021-12-23 17:53:30.598586,-100
2021-12-23 17:53:30.598596,-76
2021-12-23 17:53:30.598605,-65
2021-12-23 17:53:30.598615,-69
2021-12-23 17:53:30.598625,-69
2021-12-23 17:53:30.598634,-41
2021-12-23 17:53:30.598644,-27
2021-12-23 17:53:30.598654,-48
2021-12-23 17:53:30.598664,-62
2021-12-23 17:53:30.598673,-65
2021-12-23 17:53:30.598683,-60
2021-12-23 17:53:30.598693,-46
2021-12-23 17:53:30.913065,-34
2021-12-23 17:53:30.913096,-46
2021-12-23 17:53:30.913108,-74
2021-12-23 17:53:30.913118,-111
2021-12-23 17:53:30.913128,-128
2021-12-23 17:53:30.913138,-102
2021-12-23 17:53:30.913148,-81
2021-12-23 17:53:30.913158,-76
2021-12-23 17:53:30.913168,-76
2021-12-23 17:53:30.913178,-104
2021-12-23 17:53:30.913188,-123
2021-12-23 17:53:30.913198,-90
2021-12-23 17:53:30.913208,-67
2021-12-23 17:53:30.913218,-72
2021-12-23 17:53:30.913228,-79
2021-12-23 17:53:30.913238,-83
2021-12-23 17:53:30.913248,-74
2021-12-23 17:53:30.913258,-37
2021-12-23 17:53:30.913268,-4
2021-12-23 17:53:30.913278,11
2021-12-23 17:53:30.913288,18
2021-12-23 17:53:30.913298,2
2021-12-23 17:53:30.913309,-18
2021-12-23 17:53:30.913318,-16
2021-12-23 17:53:30.913328,-16
2021-12-23 17:53:30.913338,-27
2021-12-23 17:53:30.913348,-44
2021-12-23 17:53:30.913358,-81
2021-12-23 17:53:30.913368,-104
2021-12-23 17:53:30.913378,-81
2021-12-23 17:53:31.093098,-58
2021-12-23 17:53:31.093130,-51
2021-12-23 17:53:31.093142,-34
2021-12-23 17:53:31.093152,62
2021-12-23 17:53:31.093162,342
2021-12-23 17:53:31.093173,603
2021-12-23 17:53:31.093183,484
2021-12-23 17:53:31.093193,-41
2021-12-23 17:53:31.093203,-538
2021-12-23 17:53:31.093213,-508
2021-12-23 17:53:31.093223,-170
2021-12-23 17:53:31.093233,-62
2021-12-23 17:53:31.093243,-58
2021-12-23 17:53:31.093253,48
2021-12-23 17:53:31.093263,67
2021-12-23 17:53:31.093273,-2
2021-12-23 17:53:31.093283,2
2021-12-23 17:53:31.093293,51
2021-12-23 17:53:31.093302,65
2021-12-23 17:53:31.093313,58
2021-12-23 17:53:31.093323,44
2021-12-23 17:53:31.093333,41
2021-12-23 17:53:31.093343,83
2021-12-23 17:53:31.093353,130
2021-12-23 17:53:31.093363,149
2021-12-23 17:53:31.093373,170
2021-12-23 17:53:31.093382,193
2021-12-23 17:53:31.093392,216
2021-12-23 17:53:31.093402,256
2021-12-23 17:53:31.093413,286
2021-12-23 17:53:31.318117,296
2021-12-23 17:53:31.318148,310
2021-12-23 17:53:31.318160,326
2021-12-23 17:53:31.318170,321
2021-12-23 17:53:31.318180,307
2021-12-23 17:53:31.318190,286
2021-12-23 17:53:31.318200,230
2021-12-23 17:53:31.318209,128
2021-12-23 17:53:31.318219,13
2021-12-23 17:53:31.318229,-62
2021-12-23 17:53:31.318238,-100
2021-12-23 17:53:31.318248,-130
2021-12-23 17:53:31.318257,-158
2021-12-23 17:53:31.318267,-186
2021-12-23 17:53:31.318277,-212
2021-12-23 17:53:31.318287,-214
2021-12-23 17:53:31.318296,-193
2021-12-23 17:53:31.318306,-172
2021-12-23 17:53:31.318315,-160
2021-12-23 17:53:31.318325,-146
2021-12-23 17:53:31.318335,-139
2021-12-23 17:53:31.318344,-132
2021-12-23 17:53:31.318354,-111
2021-12-23 17:53:31.318363,-88
2021-12-23 17:53:31.318373,-69
2021-12-23 17:53:31.318383,-65
2021-12-23 17:53:31.318392,-58
2021-12-23 17:53:31.318402,-46
2021-12-23 17:53:31.318411,-30
2021-12-23 17:53:31.318421,-11
2021-12-23 17:53:31.766487,-2
2021-12-23 17:53:31.766510,-11
2021-12-23 17:53:31.766517,-32
2021-12-23 17:53:31.766524,-37
2021-12-23 17:53:31.766531,-18
2021-12-23 17:53:31.766538,-6
2021-12-23 17:53:31.766544,-18
2021-12-23 17:53:31.766550,-46
2021-12-23 17:53:31.766557,-60
2021-12-23 17:53:31.766563,-55
2021-12-23 17:53:31.766570,-65
2021-12-23 17:53:31.766577,-76
2021-12-23 17:53:31.766583,-81
2021-12-23 17:53:31.766590,-100
2021-12-23 17:53:31.766596,-102
2021-12-23 17:53:31.766602,-88
2021-12-23 17:53:31.766609,-81
2021-12-23 17:53:31.766615,-72
2021-12-23 17:53:31.766622,-67
2021-12-23 17:53:31.766628,-72
2021-12-23 17:53:31.766635,-90
2021-12-23 17:53:31.766641,-123
2021-12-23 17:53:31.766648,-125
2021-12-23 17:53:31.766654,-100
2021-12-23 17:53:31.766660,-102
2021-12-23 17:53:31.766667,-114
2021-12-23 17:53:31.766673,-93
2021-12-23 17:53:31.766680,-69
2021-12-23 17:53:31.766686,-48
2021-12-23 17:53:31.766693,-25
2021-12-23 17:53:31.857486,-16
2021-12-23 17:53:31.857508,-11
2021-12-23 17:53:31.857516,-34
2021-12-23 17:53:31.857522,-95
2021-12-23 17:53:31.857529,-135
2021-12-23 17:53:31.857535,-137
2021-12-23 17:53:31.857542,-137
2021-12-23 17:53:31.857548,-130
2021-12-23 17:53:31.857557,-116
2021-12-23 17:53:31.857569,-116
2021-12-23 17:53:31.857577,-109
2021-12-23 17:53:31.857584,-102
2021-12-23 17:53:31.857627,-109
2021-12-23 17:53:31.857640,-104
2021-12-23 17:53:31.857647,-32
2021-12-23 17:53:31.857657,188
2021-12-23 17:53:31.857669,505
2021-12-23 17:53:31.857679,578
2021-12-23 17:53:31.857686,167
2021-12-23 17:53:31.857692,-422
2021-12-23 17:53:31.857699,-552
2021-12-23 17:53:31.857705,-228
2021-12-23 17:53:31.857712,-65
2021-12-23 17:53:31.857718,-104
2021-12-23 17:53:31.857725,-39
2021-12-23 17:53:31.857732,32
2021-12-23 17:53:31.857738,20
2021-12-23 17:53:31.857745,27
2021-12-23 17:53:31.857752,62
2021-12-23 17:53:31.857758,62
2021-12-23 17:53:31.992686,60
2021-12-23 17:53:31.992717,93
2021-12-23 17:53:31.992729,114
2021-12-23 17:53:31.992739,116
2021-12-23 17:53:31.992749,135
2021-12-23 17:53:31.992759,153
2021-12-23 17:53:31.992769,153
2021-12-23 17:53:31.992779,188
2021-12-23 17:53:31.992789,237
2021-12-23 17:53:31.992799,263
2021-12-23 17:53:31.992809,286
2021-12-23 17:53:31.992819,307
2021-12-23 17:53:31.992828,310
2021-12-23 17:53:31.992838,326
2021-12-23 17:53:31.992848,349
2021-12-23 17:53:31.992858,338
2021-12-23 17:53:31.992868,296
2021-12-23 17:53:31.992878,221
2021-12-23 17:53:31.992888,128
2021-12-23 17:53:31.992898,62
2021-12-23 17:53:31.992908,4
2021-12-23 17:53:31.992918,-67
2021-12-23 17:53:31.992928,-123
2021-12-23 17:53:31.992938,-158
2021-12-23 17:53:31.992948,-172
2021-12-23 17:53:31.992958,-184
2021-12-23 17:53:31.992968,-226
2021-12-23 17:53:31.992977,-251
2021-12-23 17:53:31.992987,-226
2021-12-23 17:53:31.992997,-209
2021-12-23 17:53:32.306813,-200
2021-12-23 17:53:32.306845,-167
2021-12-23 17:53:32.306857,-146
2021-12-23 17:53:32.306867,-146
2021-12-23 17:53:32.306877,-146
2021-12-23 17:53:32.306887,-151
2021-12-23 17:53:32.306897,-137
2021-12-23 17:53:32.306907,-123
2021-12-23 17:53:32.306917,-135
2021-12-23 17:53:32.306927,-137
2021-12-23 17:53:32.306937,-135
2021-12-23 17:53:32.306947,-144
2021-12-23 17:53:32.306957,-125
2021-12-23 17:53:32.306967,-90
2021-12-23 17:53:32.306977,-83
2021-12-23 17:53:32.306987,-104
2021-12-23 17:53:32.306997,-130
2021-12-23 17:53:32.307007,-128
2021-12-23 17:53:32.307017,-102
2021-12-23 17:53:32.307027,-88
2021-12-23 17:53:32.307037,-90
2021-12-23 17:53:32.307047,-93
2021-12-23 17:53:32.307057,-90
2021-12-23 17:53:32.307067,-83
2021-12-23 17:53:32.307077,-69
2021-12-23 17:53:32.307087,-51
2021-12-23 17:53:32.307097,-44
2021-12-23 17:53:32.307107,-48
2021-12-23 17:53:32.307117,-51
2021-12-23 17:53:32.307127,-44
2021-12-23 17:53:32.443327,-25
2021-12-23 17:53:32.443358,-9
2021-12-23 17:53:32.443370,-11
2021-12-23 17:53:32.443380,-27
2021-12-23 17:53:32.443390,-53
2021-12-23 17:53:32.443400,-55
2021-12-23 17:53:32.443410,-27
2021-12-23 17:53:32.443420,-23
2021-12-23 17:53:32.443430,-58
2021-12-23 17:53:32.443439,-97
2021-12-23 17:53:32.443449,-121
2021-12-23 17:53:32.443459,-116
2021-12-23 17:53:32.443469,-81
2021-12-23 17:53:32.443479,-58
2021-12-23 17:53:32.443488,-55
2021-12-23 17:53:32.443498,-67
2021-12-23 17:53:32.443508,-90
2021-12-23 17:53:32.443518,-95
2021-12-23 17:53:32.443527,-88
2021-12-23 17:53:32.443537,-79
2021-12-23 17:53:32.443547,-69
2021-12-23 17:53:32.443557,-76
2021-12-23 17:53:32.443566,-86
2021-12-23 17:53:32.443576,-65
2021-12-23 17:53:32.443586,-41
2021-12-23 17:53:32.443596,-32
2021-12-23 17:53:32.443605,-27
2021-12-23 17:53:32.443615,-39
2021-12-23 17:53:32.443625,-41
2021-12-23 17:53:32.443635,46
2021-12-23 17:53:32.757598,303
2021-12-23 17:53:32.757619,617
2021-12-23 17:53:32.757627,636
2021-12-23 17:53:32.757634,160
2021-12-23 17:53:32.757641,-454
2021-12-23 17:53:32.757647,-561
2021-12-23 17:53:32.757658,-223
2021-12-23 17:53:32.757669,-72
2021-12-23 17:53:32.757677,-107
2021-12-23 17:53:32.757683,-44
2021-12-23 17:53:32.757733,4
2021-12-23 17:53:32.757747,-25
2021-12-23 17:53:32.757759,-23
2021-12-23 17:53:32.757770,20
2021-12-23 17:53:32.757777,41
2021-12-23 17:53:32.757783,39
2021-12-23 17:53:32.757790,51
2021-12-23 17:53:32.757797,86
2021-12-23 17:53:32.757803,121
2021-12-23 17:53:32.757809,151
2021-12-23 17:53:32.757816,170
2021-12-23 17:53:32.757822,174
2021-12-23 17:53:32.757829,205
2021-12-23 17:53:32.757836,258
2021-12-23 17:53:32.757842,296
2021-12-23 17:53:32.757849,328
2021-12-23 17:53:32.757855,368
2021-12-23 17:53:32.757862,384
2021-12-23 17:53:32.757868,389
2021-12-23 17:53:32.757875,410
2021-12-23 17:53:32.983168,417
2021-12-23 17:53:32.983198,389
2021-12-23 17:53:32.983210,324
2021-12-23 17:53:32.983221,235
2021-12-23 17:53:32.983231,153
2021-12-23 17:53:32.983241,90
2021-12-23 17:53:32.983251,39
2021-12-23 17:53:32.983261,-11
2021-12-23 17:53:32.983346,-60
2021-12-23 17:53:32.983358,-88
2021-12-23 17:53:32.983369,-81
2021-12-23 17:53:32.983379,-72
2021-12-23 17:53:32.983389,-65
2021-12-23 17:53:32.983399,-74
2021-12-23 17:53:32.983409,-130
2021-12-23 17:53:32.983419,-177
2021-12-23 17:53:32.983429,-163
2021-12-23 17:53:32.983439,-130
2021-12-23 17:53:32.983448,-109
2021-12-23 17:53:32.983458,-104
2021-12-23 17:53:32.983468,-121
2021-12-23 17:53:32.983478,-130
2021-12-23 17:53:32.983488,-97
2021-12-23 17:53:32.983498,-65
2021-12-23 17:53:32.983508,-55
2021-12-23 17:53:32.983518,-51
2021-12-23 17:53:32.983528,-44
2021-12-23 17:53:32.983538,-41
2021-12-23 17:53:32.983548,-27
2021-12-23 17:53:32.983558,-9
2021-12-23 17:53:33.251814,-2
2021-12-23 17:53:33.251837,-4
2021-12-23 17:53:33.251844,-11
2021-12-23 17:53:33.251851,-18
2021-12-23 17:53:33.251858,-4
2021-12-23 17:53:33.251864,9
2021-12-23 17:53:33.251870,16
2021-12-23 17:53:33.251877,0
2021-12-23 17:53:33.251884,-58
2021-12-23 17:53:33.251890,-104
2021-12-23 17:53:33.251896,-100
2021-12-23 17:53:33.251903,-88
2021-12-23 17:53:33.251909,-88
2021-12-23 17:53:33.251915,-97
2021-12-23 17:53:33.251922,-130
2021-12-23 17:53:33.251928,-151
2021-12-23 17:53:33.251935,-146
2021-12-23 17:53:33.251941,-125
2021-12-23 17:53:33.251948,-116
2021-12-23 17:53:33.251954,-144
2021-12-23 17:53:33.251960,-170
2021-12-23 17:53:33.251967,-149
2021-12-23 17:53:33.251973,-116
2021-12-23 17:53:33.251980,-86
2021-12-23 17:53:33.251986,-62
2021-12-23 17:53:33.251992,-60
2021-12-23 17:53:33.251999,-53
2021-12-23 17:53:33.252005,-34
2021-12-23 17:53:33.252011,-30
2021-12-23 17:53:33.252018,-37
2021-12-23 17:53:33.387868,-30
2021-12-23 17:53:33.387898,-27
2021-12-23 17:53:33.387910,-25
2021-12-23 17:53:33.387920,-11
2021-12-23 17:53:33.387930,4
2021-12-23 17:53:33.387941,9
2021-12-23 17:53:33.387950,13
2021-12-23 17:53:33.387960,27
2021-12-23 17:53:33.387970,34
2021-12-23 17:53:33.387980,48
2021-12-23 17:53:33.387990,137
2021-12-23 17:53:33.388000,398
2021-12-23 17:53:33.388010,699
2021-12-23 17:53:33.388020,673
2021-12-23 17:53:33.388030,170
2021-12-23 17:53:33.388040,-410
2021-12-23 17:53:33.388050,-431
2021-12-23 17:53:33.388060,-81
2021-12-23 17:53:33.388070,-23
2021-12-23 17:53:33.388080,-100
2021-12-23 17:53:33.388090,27
2021-12-23 17:53:33.388100,114
2021-12-23 17:53:33.388110,79
2021-12-23 17:53:33.388120,97
2021-12-23 17:53:33.388130,130
2021-12-23 17:53:33.388140,121
2021-12-23 17:53:33.388150,142
2021-12-23 17:53:33.388160,177
2021-12-23 17:53:33.388170,184
2021-12-23 17:53:33.388179,205
2021-12-23 17:53:33.703216,228
2021-12-23 17:53:33.703248,235
2021-12-23 17:53:33.703260,261
2021-12-23 17:53:33.703271,298
2021-12-23 17:53:33.703280,328
2021-12-23 17:53:33.703290,349
2021-12-23 17:53:33.703300,361
2021-12-23 17:53:33.703310,398
2021-12-23 17:53:33.703320,447
2021-12-23 17:53:33.703329,445
2021-12-23 17:53:33.703339,419
2021-12-23 17:53:33.703349,396
2021-12-23 17:53:33.703359,331
2021-12-23 17:53:33.703369,228
2021-12-23 17:53:33.703379,107
2021-12-23 17:53:33.703389,-16
2021-12-23 17:53:33.703399,-69
2021-12-23 17:53:33.703408,-100
2021-12-23 17:53:33.703418,-163
2021-12-23 17:53:33.703428,-181
2021-12-23 17:53:33.703438,-179
