Time,ECG
2021-12-23 17:43:00.568169,146
2021-12-23 17:43:00.568189,137
2021-12-23 17:43:00.568195,202
2021-12-23 17:43:00.568200,240
2021-12-23 17:43:00.568206,296
2021-12-23 17:43:00.568211,380
2021-12-23 17:43:00.568217,377
2021-12-23 17:43:00.568222,363
2021-12-23 17:43:00.568227,417
2021-12-23 17:43:00.568233,438
2021-12-23 17:43:00.568238,394
2021-12-23 17:43:00.568244,356
2021-12-23 17:43:00.568249,305
2021-12-23 17:43:00.568254,181
2021-12-23 17:43:00.568260,90
2021-12-23 17:43:00.568265,55
2021-12-23 17:43:00.568271,-25
2021-12-23 17:43:00.568277,-111
2021-12-23 17:43:00.568283,-153
2021-12-23 17:43:00.568288,-202
2021-12-23 17:43:00.568293,-258
2021-12-23 17:43:00.568298,-247
2021-12-23 17:43:00.568304,-200
2021-12-23 17:43:00.568309,-198
2021-12-23 17:43:00.568314,-202
2021-12-23 17:43:00.568319,-191
2021-12-23 17:43:00.568325,-167
2021-12-23 17:43:00.568330,-128
2021-12-23 17:43:00.568336,-86
2021-12-23 17:43:00.568341,-41
2021-12-23 17:43:00.837675,-13
2021-12-23 17:43:00.837697,-39
2021-12-23 17:43:00.837705,-55
2021-12-23 17:43:00.837712,-44
2021-12-23 17:43:00.837718,-37
2021-12-23 17:43:00.837725,-23
2021-12-23 17:43:00.837732,-9
2021-12-23 17:43:00.837739,9
2021-12-23 17:43:00.837745,11
2021-12-23 17:43:00.837751,-60
2021-12-23 17:43:00.837758,-142
2021-12-23 17:43:00.837764,-114
2021-12-23 17:43:00.837771,-16
2021-12-23 17:43:00.837777,-13
2021-12-23 17:43:00.837784,-76
2021-12-23 17:43:00.837790,-51
2021-12-23 17:43:00.837797,6
2021-12-23 17:43:00.837804,4
2021-12-23 17:43:00.837810,-20
2021-12-23 17:43:00.837817,-13
2021-12-23 17:43:00.837823,-4
2021-12-23 17:43:00.837830,-13
2021-12-23 17:43:00.837836,18
2021-12-23 17:43:00.837842,79
2021-12-23 17:43:00.837849,65
2021-12-23 17:43:00.837855,23
2021-12-23 17:43:00.837862,41
2021-12-23 17:43:00.837868,69
2021-12-23 17:43:00.837874,72
2021-12-23 17:43:00.837883,67
2021-12-23 17:43:00.973296,46
2021-12-23 17:43:00.973328,27
2021-12-23 17:43:00.973339,44
2021-12-23 17:43:00.973350,53
2021-12-23 17:43:00.973359,41
2021-12-23 17:43:00.973369,97
2021-12-23 17:43:00.973379,300
2021-12-23 17:43:00.973389,580
2021-12-23 17:43:00.973399,657
2021-12-23 17:43:00.973409,333
2021-12-23 17:43:00.973419,-254
2021-12-23 17:43:00.973429,-578
2021-12-23 17:43:00.973439,-349
2021-12-23 17:43:00.973455,-104
2021-12-23 17:43:00.973465,-100
2021-12-23 17:43:00.973476,-55
2021-12-23 17:43:00.973486,-2
2021-12-23 17:43:00.973496,6
2021-12-23 17:43:00.973506,37
2021-12-23 17:43:00.973516,37
2021-12-23 17:43:00.973526,18
2021-12-23 17:43:00.973536,34
2021-12-23 17:43:00.973546,67
2021-12-23 17:43:00.973556,93
2021-12-23 17:43:00.973566,116
2021-12-23 17:43:00.973576,137
2021-12-23 17:43:00.973586,158
2021-12-23 17:43:00.973596,177
2021-12-23 17:43:00.973606,202
2021-12-23 17:43:00.973618,228
2021-12-23 17:43:01.242191,277
2021-12-23 17:43:01.242207,338
2021-12-23 17:43:01.242214,354
2021-12-23 17:43:01.242219,361
2021-12-23 17:43:01.242224,382
2021-12-23 17:43:01.242230,373
2021-12-23 17:43:01.242235,361
2021-12-23 17:43:01.242240,356
2021-12-23 17:43:01.242245,321
2021-12-23 17:43:01.242251,249
2021-12-23 17:43:01.242256,121
2021-12-23 17:43:01.242261,-16
2021-12-23 17:43:01.242266,-100
2021-12-23 17:43:01.242271,-156
2021-12-23 17:43:01.242276,-221
2021-12-23 17:43:01.242281,-270
2021-12-23 17:43:01.242287,-270
2021-12-23 17:43:01.242295,-237
2021-12-23 17:43:01.242300,-233
2021-12-23 17:43:01.242306,-233
2021-12-23 17:43:01.242311,-188
2021-12-23 17:43:01.242316,-179
2021-12-23 17:43:01.242321,-205
2021-12-23 17:43:01.242326,-177
2021-12-23 17:43:01.242331,-130
2021-12-23 17:43:01.242336,-130
2021-12-23 17:43:01.242341,-128
2021-12-23 17:43:01.242347,-114
2021-12-23 17:43:01.242352,-104
2021-12-23 17:43:01.242357,-74
2021-12-23 17:43:01.513280,-41
2021-12-23 17:43:01.513310,-25
2021-12-23 17:43:01.513323,-37
2021-12-23 17:43:01.513333,-76
2021-12-23 17:43:01.513343,-67
2021-12-23 17:43:01.513353,-23
2021-12-23 17:43:01.513363,-23
2021-12-23 17:43:01.513380,-37
2021-12-23 17:43:01.513390,-41
2021-12-23 17:43:01.513400,-39
2021-12-23 17:43:01.513410,-44
2021-12-23 17:43:01.513420,-58
2021-12-23 17:43:01.513430,-37
2021-12-23 17:43:01.513440,-6
2021-12-23 17:43:01.513450,-34
2021-12-23 17:43:01.513460,-93
2021-12-23 17:43:01.513470,-97
2021-12-23 17:43:01.513480,-58
2021-12-23 17:43:01.513490,-76
2021-12-23 17:43:01.513500,-142
2021-12-23 17:43:01.513510,-163
2021-12-23 17:43:01.513520,-158
2021-12-23 17:43:01.513530,-151
2021-12-23 17:43:01.513540,-130
2021-12-23 17:43:01.513550,-116
2021-12-23 17:43:01.513560,-109
2021-12-23 17:43:01.513570,-111
2021-12-23 17:43:01.513580,-125
2021-12-23 17:43:01.513590,-97
2021-12-23 17:43:01.513601,-25
2021-12-23 17:43:01.693229,18
2021-12-23 17:43:01.693257,111
2021-12-23 17:43:01.693270,398
2021-12-23 17:43:01.693282,645
2021-12-23 17:43:01.693294,468
2021-12-23 17:43:01.693305,-107
2021-12-23 17:43:01.693317,-582
2021-12-23 17:43:01.693328,-447
2021-12-23 17:43:01.693340,-100
2021-12-23 17:43:01.693351,-114
2021-12-23 17:43:01.693362,-139
2021-12-23 17:43:01.693374,18
2021-12-23 17:43:01.693386,51
2021-12-23 17:43:01.693397,-9
2021-12-23 17:43:01.693409,-13
2021-12-23 17:43:01.693420,-4
2021-12-23 17:43:01.693432,-16
2021-12-23 17:43:01.693443,-27
2021-12-23 17:43:01.693454,-2
2021-12-23 17:43:01.693466,44
2021-12-23 17:43:01.693477,51
2021-12-23 17:43:01.693489,55
2021-12-23 17:43:01.693500,83
2021-12-23 17:43:01.693512,109
2021-12-23 17:43:01.693528,142
2021-12-23 17:43:01.693539,186
2021-12-23 17:43:01.693550,223
2021-12-23 17:43:01.693562,268
2021-12-23 17:43:01.693573,319
2021-12-23 17:43:01.693585,356
2021-12-23 17:43:01.963324,384
2021-12-23 17:43:01.963345,394
2021-12-23 17:43:01.963353,368
2021-12-23 17:43:01.963359,314
2021-12-23 17:43:01.963366,240
2021-12-23 17:43:01.963373,172
2021-12-23 17:43:01.963379,116
2021-12-23 17:43:01.963386,18
2021-12-23 17:43:01.963393,-97
2021-12-23 17:43:01.963399,-177
2021-12-23 17:43:01.963406,-195
2021-12-23 17:43:01.963412,-188
2021-12-23 17:43:01.963419,-209
2021-12-23 17:43:01.963425,-235
2021-12-23 17:43:01.963432,-219
2021-12-23 17:43:01.963439,-188
2021-12-23 17:43:01.963445,-188
2021-12-23 17:43:01.963452,-167
2021-12-23 17:43:01.963458,-132
2021-12-23 17:43:01.963465,-170
2021-12-23 17:43:01.963472,-205
2021-12-23 17:43:01.963478,-165
2021-12-23 17:43:01.963487,-146
2021-12-23 17:43:01.963494,-149
2021-12-23 17:43:01.963500,-137
2021-12-23 17:43:01.963507,-149
2021-12-23 17:43:01.963513,-160
2021-12-23 17:43:01.963520,-142
2021-12-23 17:43:01.963527,-130
2021-12-23 17:43:01.963533,-107
2021-12-23 17:43:02.322208,-60
2021-12-23 17:43:02.322231,-65
2021-12-23 17:43:02.322239,-107
2021-12-23 17:43:02.322246,-104
2021-12-23 17:43:02.322252,-67
2021-12-23 17:43:02.322259,-46
2021-12-23 17:43:02.322265,-46
2021-12-23 17:43:02.322272,-58
2021-12-23 17:43:02.322278,-62
2021-12-23 17:43:02.322285,-48
2021-12-23 17:43:02.322291,-41
2021-12-23 17:43:02.322297,-30
2021-12-23 17:43:02.322304,-6
2021-12-23 17:43:02.322311,0
2021-12-23 17:43:02.322317,4
2021-12-23 17:43:02.322323,16
2021-12-23 17:43:02.322330,0
2021-12-23 17:43:02.322336,-20
2021-12-23 17:43:02.322343,-16
2021-12-23 17:43:02.322349,-34
2021-12-23 17:43:02.322356,-74
2021-12-23 17:43:02.322362,-67
2021-12-23 17:43:02.322369,-48
2021-12-23 17:43:02.322375,-51
2021-12-23 17:43:02.322385,-39
2021-12-23 17:43:02.322392,-39
2021-12-23 17:43:02.322398,-44
2021-12-23 17:43:02.322405,11
2021-12-23 17:43:02.322412,205
2021-12-23 17:43:02.322418,498
2021-12-23 17:43:02.413453,592
2021-12-23 17:43:02.413484,263
2021-12-23 17:43:02.413496,-303
2021-12-23 17:43:02.413506,-578
2021-12-23 17:43:02.413516,-300
2021-12-23 17:43:02.413526,-30
2021-12-23 17:43:02.413536,-60
2021-12-23 17:43:02.413546,-13
2021-12-23 17:43:02.413556,104
2021-12-23 17:43:02.413565,100
2021-12-23 17:43:02.413575,102
2021-12-23 17:43:02.413585,151
2021-12-23 17:43:02.413595,135
2021-12-23 17:43:02.413605,109
2021-12-23 17:43:02.413614,165
2021-12-23 17:43:02.413624,186
2021-12-23 17:43:02.413634,144
2021-12-23 17:43:02.413644,156
2021-12-23 17:43:02.413654,177
2021-12-23 17:43:02.413663,172
2021-12-23 17:43:02.413673,174
2021-12-23 17:43:02.413683,186
2021-12-23 17:43:02.413693,216
2021-12-23 17:43:02.413702,237
2021-12-23 17:43:02.413712,212
2021-12-23 17:43:02.413722,219
2021-12-23 17:43:02.413732,279
2021-12-23 17:43:02.413742,305
2021-12-23 17:43:02.413752,291
2021-12-23 17:43:02.413762,275
2021-12-23 17:43:02.593323,205
2021-12-23 17:43:02.593339,123
2021-12-23 17:43:02.593346,65
2021-12-23 17:43:02.593351,-30
2021-12-23 17:43:02.593357,-137
2021-12-23 17:43:02.593362,-205
2021-12-23 17:43:02.593367,-254
2021-12-23 17:43:02.593373,-272
2021-12-23 17:43:02.593378,-270
2021-12-23 17:43:02.593383,-282
2021-12-23 17:43:02.593388,-270
2021-12-23 17:43:02.593393,-237
2021-12-23 17:43:02.593399,-221
2021-12-23 17:43:02.593404,-209
2021-12-23 17:43:02.593409,-200
2021-12-23 17:43:02.593415,-202
2021-12-23 17:43:02.593420,-200
2021-12-23 17:43:02.593425,-198
2021-12-23 17:43:02.593430,-181
2021-12-23 17:43:02.593435,-151
2021-12-23 17:43:02.593441,-153
2021-12-23 17:43:02.593446,-153
2021-12-23 17:43:02.593451,-93
2021-12-23 17:43:02.593456,-55
2021-12-23 17:43:02.593461,-83
2021-12-23 17:43:02.593467,-109
2021-12-23 17:43:02.593472,-111
2021-12-23 17:43:02.593477,-123
2021-12-23 17:43:02.593483,-125
2021-12-23 17:43:02.593488,-79
2021-12-23 17:43:02.862731,-46
2021-12-23 17:43:02.862762,-62
2021-12-23 17:43:02.862774,-60
2021-12-23 17:43:02.862784,-34
2021-12-23 17:43:02.862794,-41
2021-12-23 17:43:02.862804,-74
2021-12-23 17:43:02.862814,-97
2021-12-23 17:43:02.862824,-100
2021-12-23 17:43:02.862833,-74
2021-12-23 17:43:02.862843,-30
2021-12-23 17:43:02.862859,-44
2021-12-23 17:43:02.862869,-62
2021-12-23 17:43:02.862879,9
2021-12-23 17:43:02.862889,39
2021-12-23 17:43:02.862899,-23
2021-12-23 17:43:02.862909,-58
2021-12-23 17:43:02.862919,-46
2021-12-23 17:43:02.862929,-32
2021-12-23 17:43:02.862939,-18
2021-12-23 17:43:02.862949,-6
2021-12-23 17:43:02.862958,11
2021-12-23 17:43:02.862968,30
2021-12-23 17:43:02.862978,34
2021-12-23 17:43:02.862988,27
2021-12-23 17:43:02.862998,39
2021-12-23 17:43:02.863008,88
2021-12-23 17:43:02.863018,235
2021-12-23 17:43:02.863028,477
2021-12-23 17:43:02.863038,573
2021-12-23 17:43:02.863048,328
2021-12-23 17:43:03.043923,-198
2021-12-23 17:43:03.043954,-603
2021-12-23 17:43:03.043966,-424
2021-12-23 17:43:03.043977,-69
2021-12-23 17:43:03.043988,-86
2021-12-23 17:43:03.043998,-132
2021-12-23 17:43:03.044008,-4
2021-12-23 17:43:03.044018,41
2021-12-23 17:43:03.044029,11
2021-12-23 17:43:03.044039,23
2021-12-23 17:43:03.044049,46
2021-12-23 17:43:03.044059,72
2021-12-23 17:43:03.044070,90
2021-12-23 17:43:03.044080,95
2021-12-23 17:43:03.044090,107
2021-12-23 17:43:03.044100,116
2021-12-23 17:43:03.044110,118
2021-12-23 17:43:03.044121,160
2021-12-23 17:43:03.044131,214
2021-12-23 17:43:03.044141,240
2021-12-23 17:43:03.044151,270
2021-12-23 17:43:03.044162,289
2021-12-23 17:43:03.044172,286
2021-12-23 17:43:03.044182,312
2021-12-23 17:43:03.044192,345
2021-12-23 17:43:03.044209,335
2021-12-23 17:43:03.044220,312
2021-12-23 17:43:03.044230,305
2021-12-23 17:43:03.044240,275
2021-12-23 17:43:03.044251,186
2021-12-23 17:43:03.402340,88
2021-12-23 17:43:03.402361,11
2021-12-23 17:43:03.402369,-74
2021-12-23 17:43:03.402376,-170
2021-12-23 17:43:03.402383,-242
2021-12-23 17:43:03.402389,-263
2021-12-23 17:43:03.402396,-226
2021-12-23 17:43:03.402402,-209
2021-12-23 17:43:03.402409,-249
2021-12-23 17:43:03.402415,-263
2021-12-23 17:43:03.402422,-256
2021-12-23 17:43:03.402428,-256
2021-12-23 17:43:03.402435,-237
2021-12-23 17:43:03.402441,-170
2021-12-23 17:43:03.402448,-135
2021-12-23 17:43:03.402454,-174
2021-12-23 17:43:03.402461,-163
2021-12-23 17:43:03.402467,-118
2021-12-23 17:43:03.402474,-130
2021-12-23 17:43:03.402480,-121
2021-12-23 17:43:03.402487,-90
2021-12-23 17:43:03.402493,-97
2021-12-23 17:43:03.402500,-109
2021-12-23 17:43:03.402506,-86
2021-12-23 17:43:03.402513,-53
2021-12-23 17:43:03.402519,-27
2021-12-23 17:43:03.402526,-23
2021-12-23 17:43:03.402532,-44
2021-12-23 17:43:03.402539,-44
2021-12-23 17:43:03.402545,-23
2021-12-23 17:43:03.537532,-11
2021-12-23 17:43:03.537549,-25
2021-12-23 17:43:03.537555,-51
2021-12-23 17:43:03.537561,-46
2021-12-23 17:43:03.537567,-13
2021-12-23 17:43:03.537572,-11
2021-12-23 17:43:03.537577,-13
2021-12-23 17:43:03.537583,6
2021-12-23 17:43:03.537588,-20
2021-12-23 17:43:03.537593,-72
2021-12-23 17:43:03.537599,-65
2021-12-23 17:43:03.537604,-67
2021-12-23 17:43:03.537609,-97
2021-12-23 17:43:03.537614,-60
2021-12-23 17:43:03.537620,-2
2021-12-23 17:43:03.537625,-18
2021-12-23 17:43:03.537634,-51
2021-12-23 17:43:03.537639,-46
2021-12-23 17:43:03.537645,-20
2021-12-23 17:43:03.537650,-6
2021-12-23 17:43:03.537655,-39
2021-12-23 17:43:03.537660,-62
2021-12-23 17:43:03.537665,-20
2021-12-23 17:43:03.537671,16
2021-12-23 17:43:03.537676,6
2021-12-23 17:43:03.537681,-6
2021-12-23 17:43:03.537686,20
2021-12-23 17:43:03.537691,76
2021-12-23 17:43:03.537697,167
2021-12-23 17:43:03.537702,363
2021-12-23 17:43:03.807809,571
2021-12-23 17:43:03.807839,508
2021-12-23 17:43:03.807851,32
2021-12-23 17:43:03.807862,-568
2021-12-23 17:43:03.807873,-610
2021-12-23 17:43:03.807883,-163
2021-12-23 17:43:03.807893,-16
2021-12-23 17:43:03.807904,-86
2021-12-23 17:43:03.807914,30
2021-12-23 17:43:03.807924,100
2021-12-23 17:43:03.807934,46
2021-12-23 17:43:03.807944,58
2021-12-23 17:43:03.807954,114
2021-12-23 17:43:03.807964,109
2021-12-23 17:43:03.807974,83
2021-12-23 17:43:03.807984,100
2021-12-23 17:43:03.807994,130
2021-12-23 17:43:03.808003,149
2021-12-23 17:43:03.808013,167
2021-12-23 17:43:03.808023,174
2021-12-23 17:43:03.808033,170
2021-12-23 17:43:03.808043,207
2021-12-23 17:43:03.808053,263
2021-12-23 17:43:03.808063,277
2021-12-23 17:43:03.808073,307
2021-12-23 17:43:03.808083,340
2021-12-23 17:43:03.808092,314
2021-12-23 17:43:03.808102,314
2021-12-23 17:43:03.808112,356
2021-12-23 17:43:03.808122,340
2021-12-23 17:43:04.034019,307
2021-12-23 17:43:04.034051,275
2021-12-23 17:43:04.034063,191
2021-12-23 17:43:04.034073,88
2021-12-23 17:43:04.034084,18
2021-12-23 17:43:04.034094,-51
2021-12-23 17:43:04.034104,-151
2021-12-23 17:43:04.034114,-216
2021-12-23 17:43:04.034125,-221
2021-12-23 17:43:04.034135,-240
2021-12-23 17:43:04.034145,-263
2021-12-23 17:43:04.034155,-240
2021-12-23 17:43:04.034165,-198
2021-12-23 17:43:04.034180,-195
2021-12-23 17:43:04.034191,-207
2021-12-23 17:43:04.034201,-214
2021-12-23 17:43:04.034211,-240
2021-12-23 17:43:04.034221,-233
2021-12-23 17:43:04.034231,-174
2021-12-23 17:43:04.034241,-165
2021-12-23 17:43:04.034251,-191
2021-12-23 17:43:04.034261,-170
2021-12-23 17:43:04.034271,-142
2021-12-23 17:43:04.034281,-130
2021-12-23 17:43:04.034291,-88
2021-12-23 17:43:04.034301,-67
2021-12-23 17:43:04.034311,-81
2021-12-23 17:43:04.034321,-69
2021-12-23 17:43:04.034331,-51
2021-12-23 17:43:04.034341,-53
2021-12-23 17:43:04.258412,-67
2021-12-23 17:43:04.258443,-62
2021-12-23 17:43:04.258455,-23
2021-12-23 17:43:04.258465,-11
2021-12-23 17:43:04.258476,-16
2021-12-23 17:43:04.258486,9
2021-12-23 17:43:04.258496,4
2021-12-23 17:43:04.258506,-32
2021-12-23 17:43:04.258516,-37
2021-12-23 17:43:04.258526,-23
2021-12-23 17:43:04.258536,-9
2021-12-23 17:43:04.258547,6
2021-12-23 17:43:04.258557,-18
2021-12-23 17:43:04.258567,-37
2021-12-23 17:43:04.258577,-13
2021-12-23 17:43:04.258587,-9
2021-12-23 17:43:04.258597,-18
2021-12-23 17:43:04.258607,11
2021-12-23 17:43:04.258617,44
2021-12-23 17:43:04.258627,18
2021-12-23 17:43:04.258637,-2
2021-12-23 17:43:04.258647,6
2021-12-23 17:43:04.258657,9
2021-12-23 17:43:04.258667,11
2021-12-23 17:43:04.258677,23
2021-12-23 17:43:04.258687,20
2021-12-23 17:43:04.258697,16
2021-12-23 17:43:04.258707,13
2021-12-23 17:43:04.258717,9
2021-12-23 17:43:04.258727,27
2021-12-23 17:43:04.573265,48
2021-12-23 17:43:04.573300,58
2021-12-23 17:43:04.573313,186
2021-12-23 17:43:04.573324,473
2021-12-23 17:43:04.573338,608
2021-12-23 17:43:04.573356,338
2021-12-23 17:43:04.573367,-230
2021-12-23 17:43:04.573377,-585
2021-12-23 17:43:04.573387,-370
2021-12-23 17:43:04.573398,-93
2021-12-23 17:43:04.573408,-111
2021-12-23 17:43:04.573418,-60
2021-12-23 17:43:04.573427,93
2021-12-23 17:43:04.573438,102
2021-12-23 17:43:04.573448,76
2021-12-23 17:43:04.573458,128
2021-12-23 17:43:04.573468,146
2021-12-23 17:43:04.573483,109
2021-12-23 17:43:04.573493,93
2021-12-23 17:43:04.573503,102
2021-12-23 17:43:04.573513,121
2021-12-23 17:43:04.573523,114
2021-12-23 17:43:04.573533,67
2021-12-23 17:43:04.573543,44
2021-12-23 17:43:04.573553,95
2021-12-23 17:43:04.573563,153
2021-12-23 17:43:04.573573,163
2021-12-23 17:43:04.573583,179
2021-12-23 17:43:04.573593,226
2021-12-23 17:43:04.573603,263
2021-12-23 17:43:04.707836,275
2021-12-23 17:43:04.707868,293
2021-12-23 17:43:04.707880,331
2021-12-23 17:43:04.707890,321
2021-12-23 17:43:04.707900,258
2021-12-23 17:43:04.707910,195
2021-12-23 17:43:04.707919,118
2021-12-23 17:43:04.707929,30
2021-12-23 17:43:04.707939,-44
2021-12-23 17:43:04.707949,-102
2021-12-23 17:43:04.707959,-146
2021-12-23 17:43:04.707969,-186
2021-12-23 17:43:04.707978,-216
2021-12-23 17:43:04.707988,-214
2021-12-23 17:43:04.707998,-191
2021-12-23 17:43:04.708008,-188
2021-12-23 17:43:04.708018,-207
2021-12-23 17:43:04.708027,-198
2021-12-23 17:43:04.708037,-156
2021-12-23 17:43:04.708047,-130
2021-12-23 17:43:04.708057,-114
2021-12-23 17:43:04.708067,-100
2021-12-23 17:43:04.708076,-118
2021-12-23 17:43:04.708086,-137
2021-12-23 17:43:04.708096,-114
2021-12-23 17:43:04.708106,-90
2021-12-23 17:43:04.708115,-81
2021-12-23 17:43:04.708125,-72
2021-12-23 17:43:04.708135,-90
2021-12-23 17:43:04.708145,-100
2021-12-23 17:43:04.888641,-58
2021-12-23 17:43:04.888671,-18
2021-12-23 17:43:04.888683,-20
2021-12-23 17:43:04.888694,-44
2021-12-23 17:43:04.888703,-74
2021-12-23 17:43:04.888713,-81
2021-12-23 17:43:04.888723,-58
2021-12-23 17:43:04.888733,-46
2021-12-23 17:43:04.888742,-41
2021-12-23 17:43:04.888752,-25
2021-12-23 17:43:04.888762,-37
2021-12-23 17:43:04.888772,-34
2021-12-23 17:43:04.888782,-13
2021-12-23 17:43:04.888792,-41
2021-12-23 17:43:04.888802,-74
2021-12-23 17:43:04.888811,-65
2021-12-23 17:43:04.888821,-48
2021-12-23 17:43:04.888831,-32
2021-12-23 17:43:04.888841,0
2021-12-23 17:43:04.888850,23
2021-12-23 17:43:04.888860,32
2021-12-23 17:43:04.888870,27
2021-12-23 17:43:04.888880,0
2021-12-23 17:43:04.888889,-25
2021-12-23 17:43:04.888899,-32
2021-12-23 17:43:04.888909,-25
2021-12-23 17:43:04.888919,-20
2021-12-23 17:43:04.888929,-51
2021-12-23 17:43:04.888938,-88
2021-12-23 17:43:04.888955,-74
2021-12-23 17:43:05.158812,-39
2021-12-23 17:43:05.158843,-13
2021-12-23 17:43:05.158855,27
2021-12-23 17:43:05.158866,149
2021-12-23 17:43:05.158876,361
2021-12-23 17:43:05.158886,491
2021-12-23 17:43:05.158896,214
2021-12-23 17:43:05.158906,-403
2021-12-23 17:43:05.158916,-659
2021-12-23 17:43:05.158925,-321
2021-12-23 17:43:05.158935,-88
2021-12-23 17:43:05.158945,-121
2021-12-23 17:43:05.158955,-20
2021-12-23 17:43:05.158965,111
2021-12-23 17:43:05.158975,109
2021-12-23 17:43:05.158985,67
2021-12-23 17:43:05.158995,34
2021-12-23 17:43:05.159004,53
2021-12-23 17:43:05.159014,111
2021-12-23 17:43:05.159024,107
2021-12-23 17:43:05.159034,65
2021-12-23 17:43:05.159044,55
2021-12-23 17:43:05.159053,65
2021-12-23 17:43:05.159063,93
2021-12-23 17:43:05.159073,144
2021-12-23 17:43:05.159083,195
2021-12-23 17:43:05.159093,212
2021-12-23 17:43:05.159103,223
2021-12-23 17:43:05.159113,270
2021-12-23 17:43:05.159123,312
2021-12-23 17:43:05.517609,333
2021-12-23 17:43:05.517640,356
2021-12-23 17:43:05.517652,361
2021-12-23 17:43:05.517663,342
2021-12-23 17:43:05.517673,333
2021-12-23 17:43:05.517683,298
2021-12-23 17:43:05.517693,219
2021-12-23 17:43:05.517703,174
2021-12-23 17:43:05.517712,102
2021-12-23 17:43:05.517722,-46
2021-12-23 17:43:05.517732,-123
2021-12-23 17:43:05.517742,-123
2021-12-23 17:43:05.517751,-137
2021-12-23 17:43:05.517761,-151
2021-12-23 17:43:05.517771,-165
2021-12-23 17:43:05.517781,-191
2021-12-23 17:43:05.517790,-195
2021-12-23 17:43:05.517800,-186
2021-12-23 17:43:05.517810,-177
2021-12-23 17:43:05.517819,-153
2021-12-23 17:43:05.517829,-146
2021-12-23 17:43:05.517838,-156
2021-12-23 17:43:05.517848,-135
2021-12-23 17:43:05.517858,-102
2021-12-23 17:43:05.517867,-83
2021-12-23 17:43:05.517877,-69
2021-12-23 17:43:05.517887,-53
2021-12-23 17:43:05.517897,-44
2021-12-23 17:43:05.517906,-34
2021-12-23 17:43:05.517916,-25
2021-12-23 17:43:05.652736,-20
2021-12-23 17:43:05.652767,-25
2021-12-23 17:43:05.652779,-30
2021-12-23 17:43:05.652790,-58
2021-12-23 17:43:05.652800,-81
2021-12-23 17:43:05.652809,-53
2021-12-23 17:43:05.652819,-18
2021-12-23 17:43:05.652829,-16
2021-12-23 17:43:05.652839,-58
2021-12-23 17:43:05.652849,-95
2021-12-23 17:43:05.652859,-60
2021-12-23 17:43:05.652868,-20
2021-12-23 17:43:05.652878,-18
2021-12-23 17:43:05.652888,-13
2021-12-23 17:43:05.652898,-30
2021-12-23 17:43:05.652908,-46
2021-12-23 17:43:05.652918,-23
2021-12-23 17:43:05.652928,0
2021-12-23 17:43:05.652938,-6
2021-12-23 17:43:05.652948,-30
2021-12-23 17:43:05.652966,-46
2021-12-23 17:43:05.652976,-39
2021-12-23 17:43:05.652987,0
2021-12-23 17:43:05.652997,25
2021-12-23 17:43:05.653007,-11
2021-12-23 17:43:05.653017,-48
2021-12-23 17:43:05.653027,-53
2021-12-23 17:43:05.653037,-62
2021-12-23 17:43:05.653047,-65
2021-12-23 17:43:05.653057,-39
2021-12-23 17:43:05.877885,-18
2021-12-23 17:43:05.877915,-23
2021-12-23 17:43:05.877927,-4
2021-12-23 17:43:05.877938,23
2021-12-23 17:43:05.877948,44
2021-12-23 17:43:05.877958,212
2021-12-23 17:43:05.877969,512
2021-12-23 17:43:05.877979,561
2021-12-23 17:43:05.877989,165
2021-12-23 17:43:05.877999,-412
2021-12-23 17:43:05.878009,-627
2021-12-23 17:43:05.878020,-296
2021-12-23 17:43:05.878030,-55
2021-12-23 17:43:05.878040,-135
2021-12-23 17:43:05.878050,-104
2021-12-23 17:43:05.878060,13
2021-12-23 17:43:05.878070,9
2021-12-23 17:43:05.878081,0
2021-12-23 17:43:05.878091,55
2021-12-23 17:43:05.878101,81
2021-12-23 17:43:05.878111,44
2021-12-23 17:43:05.878121,16
2021-12-23 17:43:05.878131,34
2021-12-23 17:43:05.878141,65
2021-12-23 17:43:05.878152,81
2021-12-23 17:43:05.878162,102
2021-12-23 17:43:05.878172,125
2021-12-23 17:43:05.878182,151
2021-12-23 17:43:05.878192,188
2021-12-23 17:43:05.878202,219
2021-12-23 17:43:06.058494,230
2021-12-23 17:43:06.058525,247
2021-12-23 17:43:06.058537,303
2021-12-23 17:43:06.058547,366
2021-12-23 17:43:06.058557,356
2021-12-23 17:43:06.058567,331
2021-12-23 17:43:06.058577,310
2021-12-23 17:43:06.058587,254
2021-12-23 17:43:06.058597,174
2021-12-23 17:43:06.058607,79
2021-12-23 17:43:06.058617,-18
2021-12-23 17:43:06.058627,-83
2021-12-23 17:43:06.058637,-151
2021-12-23 17:43:06.058647,-212
2021-12-23 17:43:06.058657,-223
2021-12-23 17:43:06.058667,-237
2021-12-23 17:43:06.058677,-249
2021-12-23 17:43:06.058687,-237
2021-12-23 17:43:06.058697,-226
2021-12-23 17:43:06.058707,-207
2021-12-23 17:43:06.058717,-172
2021-12-23 17:43:06.058727,-142
2021-12-23 17:43:06.058736,-123
2021-12-23 17:43:06.058746,-137
2021-12-23 17:43:06.058756,-170
2021-12-23 17:43:06.058766,-165
2021-12-23 17:43:06.058776,-130
2021-12-23 17:43:06.058786,-109
2021-12-23 17:43:06.058796,-104
2021-12-23 17:43:06.058806,-95
2021-12-23 17:43:06.283941,-62
2021-12-23 17:43:06.283973,-32
2021-12-23 17:43:06.283985,-37
2021-12-23 17:43:06.283995,-46
2021-12-23 17:43:06.284005,-32
2021-12-23 17:43:06.284015,-48
2021-12-23 17:43:06.284025,-88
2021-12-23 17:43:06.284035,-76
2021-12-23 17:43:06.284045,-51
2021-12-23 17:43:06.284055,-44
2021-12-23 17:43:06.284065,-41
2021-12-23 17:43:06.284075,-51
2021-12-23 17:43:06.284085,-51
2021-12-23 17:43:06.284095,-32
2021-12-23 17:43:06.284105,-37
2021-12-23 17:43:06.284115,-51
2021-12-23 17:43:06.284124,-67
2021-12-23 17:43:06.284134,-93
2021-12-23 17:43:06.284144,-76
2021-12-23 17:43:06.284154,-27
2021-12-23 17:43:06.284164,-25
2021-12-23 17:43:06.284174,-55
2021-12-23 17:43:06.284189,-23
2021-12-23 17:43:06.284200,30
2021-12-23 17:43:06.284210,11
2021-12-23 17:43:06.284220,-27
2021-12-23 17:43:06.284230,-44
2021-12-23 17:43:06.284240,-48
2021-12-23 17:43:06.284250,-39
2021-12-23 17:43:06.284260,-37
2021-12-23 17:43:06.508377,-34
2021-12-23 17:43:06.508451,-6
2021-12-23 17:43:06.508478,2
2021-12-23 17:43:06.508499,-23
2021-12-23 17:43:06.508517,-30
2021-12-23 17:43:06.508535,-11
2021-12-23 17:43:06.508553,32
2021-12-23 17:43:06.508572,179
2021-12-23 17:43:06.508591,417
2021-12-23 17:43:06.508609,482
2021-12-23 17:43:06.508628,151
2021-12-23 17:43:06.508647,-435
2021-12-23 17:43:06.508658,-732
2021-12-23 17:43:06.508669,-435
2021-12-23 17:43:06.508679,-137
2021-12-23 17:43:06.508689,-191
2021-12-23 17:43:06.508699,-156
2021-12-23 17:43:06.508709,20
2021-12-23 17:43:06.508719,37
2021-12-23 17:43:06.508729,-13
2021-12-23 17:43:06.508739,32
2021-12-23 17:43:06.508749,69
2021-12-23 17:43:06.508759,34
2021-12-23 17:43:06.508769,39
2021-12-23 17:43:06.508779,88
2021-12-23 17:43:06.508789,104
2021-12-23 17:43:06.508799,111
2021-12-23 17:43:06.508809,135
2021-12-23 17:43:06.508825,142
2021-12-23 17:43:06.508835,137
2021-12-23 17:43:06.733396,172
2021-12-23 17:43:06.733427,228
2021-12-23 17:43:06.733439,251
2021-12-23 17:43:06.733450,242
2021-12-23 17:43:06.733460,258
2021-12-23 17:43:06.733471,293
2021-12-23 17:43:06.733481,300
2021-12-23 17:43:06.733491,307
2021-12-23 17:43:06.733501,319
2021-12-23 17:43:06.733510,279
2021-12-23 17:43:06.733520,179
2021-12-23 17:43:06.733530,90
2021-12-23 17:43:06.733540,34
2021-12-23 17:43:06.733550,-23
2021-12-23 17:43:06.733560,-76
2021-12-23 17:43:06.733570,-118
2021-12-23 17:43:06.733580,-158
2021-12-23 17:43:06.733590,-174
2021-12-23 17:43:06.733600,-165
2021-12-23 17:43:06.733609,-156
2021-12-23 17:43:06.733619,-153
2021-12-23 17:43:06.733629,-149
2021-12-23 17:43:06.733639,-116
2021-12-23 17:43:06.733649,-83
2021-12-23 17:43:06.733658,-93
2021-12-23 17:43:06.733668,-67
2021-12-23 17:43:06.733678,-30
2021-12-23 17:43:06.733688,-53
2021-12-23 17:43:06.733698,-74
2021-12-23 17:43:06.733708,-62
2021-12-23 17:43:07.003804,-62
2021-12-23 17:43:07.003836,-48
2021-12-23 17:43:07.003848,-34
2021-12-23 17:43:07.003859,-58
2021-12-23 17:43:07.003869,-79
2021-12-23 17:43:07.003879,-62
2021-12-23 17:43:07.003889,-48
2021-12-23 17:43:07.003899,-44
2021-12-23 17:43:07.003908,-37
2021-12-23 17:43:07.003918,-58
2021-12-23 17:43:07.003928,-90
2021-12-23 17:43:07.003938,-74
2021-12-23 17:43:07.003948,-41
2021-12-23 17:43:07.003958,-39
2021-12-23 17:43:07.003968,-58
2021-12-23 17:43:07.003978,-83
2021-12-23 17:43:07.003987,-81
2021-12-23 17:43:07.003997,-62
2021-12-23 17:43:07.004007,-65
2021-12-23 17:43:07.004017,-55
2021-12-23 17:43:07.004027,-60
2021-12-23 17:43:07.004037,-125
2021-12-23 17:43:07.004046,-135
2021-12-23 17:43:07.004056,-41
2021-12-23 17:43:07.004066,-9
2021-12-23 17:43:07.004076,-41
2021-12-23 17:43:07.004086,-11
2021-12-23 17:43:07.004096,11
2021-12-23 17:43:07.004106,-23
2021-12-23 17:43:07.004116,-30
2021-12-23 17:43:07.228174,-9
2021-12-23 17:43:07.228194,-20
2021-12-23 17:43:07.228202,-69
2021-12-23 17:43:07.228209,-83
2021-12-23 17:43:07.228215,-32
2021-12-23 17:43:07.228227,-6
2021-12-23 17:43:07.228234,-41
2021-12-23 17:43:07.228241,-62
2021-12-23 17:43:07.228247,-51
2021-12-23 17:43:07.228254,-65
2021-12-23 17:43:07.228260,13
2021-12-23 17:43:07.228267,286
2021-12-23 17:43:07.228274,454
2021-12-23 17:43:07.228280,202
2021-12-23 17:43:07.228287,-389
2021-12-23 17:43:07.228294,-788
2021-12-23 17:43:07.228300,-526
2021-12-23 17:43:07.228307,-95
2021-12-23 17:43:07.228313,-51
2021-12-23 17:43:07.228320,-58
2021-12-23 17:43:07.228326,55
2021-12-23 17:43:07.228333,55
2021-12-23 17:43:07.228339,32
2021-12-23 17:43:07.228346,83
2021-12-23 17:43:07.228352,114
2021-12-23 17:43:07.228359,111
2021-12-23 17:43:07.228365,104
2021-12-23 17:43:07.228372,114
2021-12-23 17:43:07.228378,153
2021-12-23 17:43:07.228385,184
2021-12-23 17:43:07.497372,191
2021-12-23 17:43:07.497402,223
2021-12-23 17:43:07.497414,251
2021-12-23 17:43:07.497424,214
2021-12-23 17:43:07.497434,188
2021-12-23 17:43:07.497444,249
2021-12-23 17:43:07.497454,317
2021-12-23 17:43:07.497464,307
2021-12-23 17:43:07.497474,275
2021-12-23 17:43:07.497484,307
2021-12-23 17:43:07.497494,361
2021-12-23 17:43:07.497504,340
2021-12-23 17:43:07.497514,282
2021-12-23 17:43:07.497524,233
2021-12-23 17:43:07.497534,139
2021-12-23 17:43:07.497544,34
2021-12-23 17:43:07.497554,-23
2021-12-23 17:43:07.497564,-48
2021-12-23 17:43:07.497574,-67
2021-12-23 17:43:07.497584,-100
2021-12-23 17:43:07.497594,-132
2021-12-23 17:43:07.497604,-144
2021-12-23 17:43:07.497614,-144
2021-12-23 17:43:07.497624,-130
2021-12-23 17:43:07.497634,-118
2021-12-23 17:43:07.497644,-95
2021-12-23 17:43:07.497654,-97
2021-12-23 17:43:07.497664,-156
2021-12-23 17:43:07.497674,-146
2021-12-23 17:43:07.497684,-69
2021-12-23 17:43:07.678817,-53
2021-12-23 17:43:07.678848,-72
2021-12-23 17:43:07.678860,-67
2021-12-23 17:43:07.678870,-53
2021-12-23 17:43:07.678880,-37
2021-12-23 17:43:07.678891,-34
2021-12-23 17:43:07.678900,-51
2021-12-23 17:43:07.678910,-102
2021-12-23 17:43:07.678920,-149
2021-12-23 17:43:07.678930,-116
2021-12-23 17:43:07.678940,-72
2021-12-23 17:43:07.678950,-90
2021-12-23 17:43:07.678960,-135
2021-12-23 17:43:07.678970,-165
2021-12-23 17:43:07.678979,-151
2021-12-23 17:43:07.678989,-114
2021-12-23 17:43:07.678999,-118
2021-12-23 17:43:07.679009,-146
2021-12-23 17:43:07.679019,-146
2021-12-23 17:43:07.679029,-130
2021-12-23 17:43:07.679038,-144
2021-12-23 17:43:07.679048,-156
2021-12-23 17:43:07.679058,-123
2021-12-23 17:43:07.679068,-86
2021-12-23 17:43:07.679078,-83
2021-12-23 17:43:07.679088,-86
2021-12-23 17:43:07.679097,-81
2021-12-23 17:43:07.679107,-86
2021-12-23 17:43:07.679117,-62
2021-12-23 17:43:07.679127,-25
2021-12-23 17:43:07.903821,-30
2021-12-23 17:43:07.903853,-32
2021-12-23 17:43:07.903865,-18
2021-12-23 17:43:07.903876,-30
2021-12-23 17:43:07.903885,-30
2021-12-23 17:43:07.903895,-6
2021-12-23 17:43:07.903905,-30
2021-12-23 17:43:07.903915,-86
2021-12-23 17:43:07.903925,-109
2021-12-23 17:43:07.903935,-116
2021-12-23 17:43:07.903945,-125
2021-12-23 17:43:07.903954,-128
2021-12-23 17:43:07.903964,-111
2021-12-23 17:43:07.903974,-9
2021-12-23 17:43:07.903984,228
2021-12-23 17:43:07.903994,415
2021-12-23 17:43:07.904004,226
2021-12-23 17:43:07.904014,-326
2021-12-23 17:43:07.904024,-736
2021-12-23 17:43:07.904033,-568
2021-12-23 17:43:07.904043,-191
2021-12-23 17:43:07.904053,-86
2021-12-23 17:43:07.904063,-53
2021-12-23 17:43:07.904073,53
2021-12-23 17:43:07.904083,62
2021-12-23 17:43:07.904093,27
2021-12-23 17:43:07.904103,53
2021-12-23 17:43:07.904113,69
2021-12-23 17:43:07.904123,86
2021-12-23 17:43:07.904133,139
2021-12-23 17:43:08.173960,172
2021-12-23 17:43:08.173997,160
2021-12-23 17:43:08.174010,121
2021-12-23 17:43:08.174021,97
2021-12-23 17:43:08.174031,116
2021-12-23 17:43:08.174041,139
2021-12-23 17:43:08.174051,158
2021-12-23 17:43:08.174061,186
2021-12-23 17:43:08.174070,207
2021-12-23 17:43:08.174080,223
2021-12-23 17:43:08.174090,251
2021-12-23 17:43:08.174100,270
2021-12-23 17:43:08.174110,251
2021-12-23 17:43:08.174120,244
2021-12-23 17:43:08.174130,265
2021-12-23 17:43:08.174140,240
2021-12-23 17:43:08.174150,188
2021-12-23 17:43:08.174160,149
2021-12-23 17:43:08.174203,97
2021-12-23 17:43:08.174212,27
2021-12-23 17:43:08.174222,-39
2021-12-23 17:43:08.174233,-93
2021-12-23 17:43:08.174243,-135
2021-12-23 17:43:08.174253,-167
2021-12-23 17:43:08.174263,-188
2021-12-23 17:43:08.174273,-156
2021-12-23 17:43:08.174282,-100
2021-12-23 17:43:08.174292,-88
2021-12-23 17:43:08.174302,-88
2021-12-23 17:43:08.174313,-72
2021-12-23 17:43:08.353392,-65
2021-12-23 17:43:08.353422,-58
2021-12-23 17:43:08.353435,-44
2021-12-23 17:43:08.353445,-20
2021-12-23 17:43:08.353455,-32
2021-12-23 17:43:08.353465,-69
2021-12-23 17:43:08.353476,-48
2021-12-23 17:43:08.353486,-2
2021-12-23 17:43:08.353496,-11
2021-12-23 17:43:08.353506,-27
2021-12-23 17:43:08.353516,4
2021-12-23 17:43:08.353526,20
2021-12-23 17:43:08.353536,2
2021-12-23 17:43:08.353547,0
2021-12-23 17:43:08.353557,16
2021-12-23 17:43:08.353567,13
2021-12-23 17:43:08.353577,-18
2021-12-23 17:43:08.353587,-58
2021-12-23 17:43:08.353597,-60
2021-12-23 17:43:08.353607,-11
2021-12-23 17:43:08.353617,-2
2021-12-23 17:43:08.353627,-62
2021-12-23 17:43:08.353637,-74
2021-12-23 17:43:08.353647,-6
2021-12-23 17:43:08.353657,6
2021-12-23 17:43:08.353667,-32
2021-12-23 17:43:08.353677,-20
2021-12-23 17:43:08.353687,0
2021-12-23 17:43:08.353697,-16
2021-12-23 17:43:08.353707,-37
2021-12-23 17:43:08.667798,11
2021-12-23 17:43:08.667829,90
2021-12-23 17:43:08.667841,72
2021-12-23 17:43:08.667852,2
2021-12-23 17:43:08.667862,-25
2021-12-23 17:43:08.667872,-30
2021-12-23 17:43:08.667882,-16
2021-12-23 17:43:08.667892,-37
2021-12-23 17:43:08.667902,-93
2021-12-23 17:43:08.667912,-90
2021-12-23 17:43:08.667922,-67
2021-12-23 17:43:08.667932,-79
2021-12-23 17:43:08.667942,-81
2021-12-23 17:43:08.667952,-76
2021-12-23 17:43:08.667962,-53
2021-12-23 17:43:08.667972,102
2021-12-23 17:43:08.667982,349
2021-12-23 17:43:08.667992,370
2021-12-23 17:43:08.668002,-67
2021-12-23 17:43:08.668012,-643
2021-12-23 17:43:08.668022,-680
2021-12-23 17:43:08.668032,-258
2021-12-23 17:43:08.668042,-100
2021-12-23 17:43:08.668052,-153
2021-12-23 17:43:08.668062,-27
2021-12-23 17:43:08.668072,83
2021-12-23 17:43:08.668081,48
2021-12-23 17:43:08.668091,27
2021-12-23 17:43:08.668101,72
2021-12-23 17:43:08.668111,123
2021-12-23 17:43:08.848232,139
2021-12-23 17:43:08.848251,144
2021-12-23 17:43:08.848259,156
2021-12-23 17:43:08.848266,151
2021-12-23 17:43:08.848273,135
2021-12-23 17:43:08.848279,146
2021-12-23 17:43:08.848286,191
2021-12-23 17:43:08.848292,219
2021-12-23 17:43:08.848298,244
2021-12-23 17:43:08.848305,275
2021-12-23 17:43:08.848311,277
2021-12-23 17:43:08.848318,314
2021-12-23 17:43:08.848324,382
2021-12-23 17:43:08.848331,403
2021-12-23 17:43:08.848337,401
2021-12-23 17:43:08.848343,377
2021-12-23 17:43:08.848350,303
2021-12-23 17:43:08.848356,251
2021-12-23 17:43:08.848363,237
2021-12-23 17:43:08.848369,177
2021-12-23 17:43:08.848375,72
2021-12-23 17:43:08.848382,-9
2021-12-23 17:43:08.848388,-46
2021-12-23 17:43:08.848395,-69
2021-12-23 17:43:08.848401,-95
2021-12-23 17:43:08.848408,-102
2021-12-23 17:43:08.848414,-116
2021-12-23 17:43:08.848420,-142
2021-12-23 17:43:08.848427,-125
2021-12-23 17:43:08.848433,-67
2021-12-23 17:43:09.163349,-34
2021-12-23 17:43:09.163380,-32
2021-12-23 17:43:09.163392,-30
2021-12-23 17:43:09.163403,-32
2021-12-23 17:43:09.163412,-34
2021-12-23 17:43:09.163422,-11
2021-12-23 17:43:09.163432,11
2021-12-23 17:43:09.163442,4
2021-12-23 17:43:09.163452,-6
2021-12-23 17:43:09.163462,-11
2021-12-23 17:43:09.163472,9
2021-12-23 17:43:09.163486,18
2021-12-23 17:43:09.163497,-34
2021-12-23 17:43:09.163506,-88
2021-12-23 17:43:09.163516,-100
2021-12-23 17:43:09.163526,-114
2021-12-23 17:43:09.163536,-102
2021-12-23 17:43:09.163546,-67
2021-12-23 17:43:09.163556,-76
2021-12-23 17:43:09.163566,-95
2021-12-23 17:43:09.163575,-93
2021-12-23 17:43:09.163585,-114
2021-12-23 17:43:09.163595,-132
2021-12-23 17:43:09.163605,-107
2021-12-23 17:43:09.163615,-86
2021-12-23 17:43:09.163625,-86
2021-12-23 17:43:09.163635,-79
2021-12-23 17:43:09.163645,-58
2021-12-23 17:43:09.163655,-44
2021-12-23 17:43:09.163665,-46
2021-12-23 17:43:09.298389,-27
2021-12-23 17:43:09.298411,16
2021-12-23 17:43:09.298419,11
2021-12-23 17:43:09.298425,-48
2021-12-23 17:43:09.298432,-53
2021-12-23 17:43:09.298438,-16
2021-12-23 17:43:09.298445,4
2021-12-23 17:43:09.298452,23
2021-12-23 17:43:09.298458,2
2021-12-23 17:43:09.298464,-46
2021-12-23 17:43:09.298471,-44
2021-12-23 17:43:09.298477,-2
2021-12-23 17:43:09.298484,9
2021-12-23 17:43:09.298490,0
2021-12-23 17:43:09.298497,20
2021-12-23 17:43:09.298503,184
2021-12-23 17:43:09.298510,445
2021-12-23 17:43:09.298516,454
2021-12-23 17:43:09.298523,-16
2021-12-23 17:43:09.298529,-613
2021-12-23 17:43:09.298535,-694
2021-12-23 17:43:09.298542,-300
2021-12-23 17:43:09.298548,-81
2021-12-23 17:43:09.298555,-81
2021-12-23 17:43:09.298561,4
2021-12-23 17:43:09.298568,65
2021-12-23 17:43:09.298574,34
2021-12-23 17:43:09.298581,55
2021-12-23 17:43:09.298587,86
2021-12-23 17:43:09.298594,72
2021-12-23 17:43:09.566831,90
2021-12-23 17:43:09.566855,139
2021-12-23 17:43:09.566867,167
2021-12-23 17:43:09.566877,165
2021-12-23 17:43:09.566888,158
2021-12-23 17:43:09.566899,193
2021-12-23 17:43:09.566909,235
2021-12-23 17:43:09.566920,216
2021-12-23 17:43:09.566930,191
2021-12-23 17:43:09.566940,228
2021-12-23 17:43:09.566950,286
2021-12-23 17:43:09.566959,326
2021-12-23 17:43:09.566968,359
2021-12-23 17:43:09.566973,356
2021-12-23 17:43:09.566979,317
2021-12-23 17:43:09.566984,293
2021-12-23 17:43:09.566989,289
2021-12-23 17:43:09.566994,279
2021-12-23 17:43:09.566999,207
2021-12-23 17:43:09.567004,74
2021-12-23 17:43:09.567010,-16
2021-12-23 17:43:09.567015,-76
2021-12-23 17:43:09.567020,-146
2021-12-23 17:43:09.567025,-179
2021-12-23 17:43:09.567030,-207
2021-12-23 17:43:09.567035,-240
2021-12-23 17:43:09.567040,-221
2021-12-23 17:43:09.567045,-179
2021-12-23 17:43:09.567050,-156
2021-12-23 17:43:09.567056,-151
2021-12-23 17:43:09.791889,-151
2021-12-23 17:43:09.791912,-125
2021-12-23 17:43:09.791920,-97
2021-12-23 17:43:09.791927,-104
2021-12-23 17:43:09.791934,-107
2021-12-23 17:43:09.791940,-79
2021-12-23 17:43:09.791947,-74
2021-12-23 17:43:09.791953,-74
2021-12-23 17:43:09.791960,-62
2021-12-23 17:43:09.791966,-65
2021-12-23 17:43:09.791972,-60
2021-12-23 17:43:09.791979,-53
2021-12-23 17:43:09.791985,-76
2021-12-23 17:43:09.791992,-88
2021-12-23 17:43:09.791998,-72
2021-12-23 17:43:09.792004,-76
2021-12-23 17:43:09.792011,-58
2021-12-23 17:43:09.792017,-13
2021-12-23 17:43:09.792024,-27
2021-12-23 17:43:09.792030,-55
2021-12-23 17:43:09.792036,-37
2021-12-23 17:43:09.792043,-27
2021-12-23 17:43:09.792049,-51
2021-12-23 17:43:09.792056,-74
2021-12-23 17:43:09.792062,-81
2021-12-23 17:43:09.792068,-81
2021-12-23 17:43:09.792075,-72
2021-12-23 17:43:09.792081,-46
2021-12-23 17:43:09.792088,-44
2021-12-23 17:43:09.792094,-55
2021-12-23 17:43:09.973481,-53
2021-12-23 17:43:09.973512,-41
2021-12-23 17:43:09.973524,-13
2021-12-23 17:43:09.973534,20
2021-12-23 17:43:09.973545,6
2021-12-23 17:43:09.973555,-46
2021-12-23 17:43:09.973565,-67
2021-12-23 17:43:09.973575,-30
2021-12-23 17:43:09.973585,-11
2021-12-23 17:43:09.973595,-34
2021-12-23 17:43:09.973605,-39
2021-12-23 17:43:09.973615,-37
2021-12-23 17:43:09.973625,-46
2021-12-23 17:43:09.973635,-18
2021-12-23 17:43:09.973645,27
2021-12-23 17:43:09.973655,39
2021-12-23 17:43:09.973665,116
2021-12-23 17:43:09.973675,335
2021-12-23 17:43:09.973684,452
2021-12-23 17:43:09.973694,186
2021-12-23 17:43:09.973704,-377
2021-12-23 17:43:09.973714,-715
2021-12-23 17:43:09.973724,-459
2021-12-23 17:43:09.973734,-128
2021-12-23 17:43:09.973744,-130
2021-12-23 17:43:09.973754,-123
2021-12-23 17:43:09.973764,-30
2021-12-23 17:43:09.973774,-44
2021-12-23 17:43:09.973784,-39
2021-12-23 17:43:09.973794,27
2021-12-23 17:43:10.198988,37
2021-12-23 17:43:10.199019,32
2021-12-23 17:43:10.199030,72
2021-12-23 17:43:10.199041,88
2021-12-23 17:43:10.199050,65
2021-12-23 17:43:10.199060,53
2021-12-23 17:43:10.199070,74
2021-12-23 17:43:10.199079,118
2021-12-23 17:43:10.199094,156
2021-12-23 17:43:10.199104,181
2021-12-23 17:43:10.199114,200
2021-12-23 17:43:10.199124,195
2021-12-23 17:43:10.199133,216
2021-12-23 17:43:10.199143,265
2021-12-23 17:43:10.199153,300
2021-12-23 17:43:10.199163,326
2021-12-23 17:43:10.199173,333
2021-12-23 17:43:10.199183,291
2021-12-23 17:43:10.199192,251
2021-12-23 17:43:10.199202,233
2021-12-23 17:43:10.199212,158
2021-12-23 17:43:10.199222,58
2021-12-23 17:43:10.199232,-4
2021-12-23 17:43:10.199242,-55
2021-12-23 17:43:10.199252,-93
2021-12-23 17:43:10.199262,-114
2021-12-23 17:43:10.199272,-137
2021-12-23 17:43:10.199282,-128
2021-12-23 17:43:10.199292,-130
2021-12-23 17:43:10.199302,-167
2021-12-23 17:43:10.468394,-158
2021-12-23 17:43:10.468424,-114
2021-12-23 17:43:10.468436,-109
2021-12-23 17:43:10.468446,-107
2021-12-23 17:43:10.468456,-93
2021-12-23 17:43:10.468466,-97
2021-12-23 17:43:10.468475,-83
2021-12-23 17:43:10.468485,-44
2021-12-23 17:43:10.468495,-27
2021-12-23 17:43:10.468504,-51
2021-12-23 17:43:10.468514,-76
2021-12-23 17:43:10.468523,-72
2021-12-23 17:43:10.468533,-46
2021-12-23 17:43:10.468543,-37
2021-12-23 17:43:10.468552,-46
2021-12-23 17:43:10.468562,-53
2021-12-23 17:43:10.468571,-44
2021-12-23 17:43:10.468581,-30
2021-12-23 17:43:10.468590,-16
2021-12-23 17:43:10.468600,4
2021-12-23 17:43:10.468610,4
2021-12-23 17:43:10.468620,-11
2021-12-23 17:43:10.468629,-16
2021-12-23 17:43:10.468639,-16
2021-12-23 17:43:10.468649,-16
2021-12-23 17:43:10.468658,-2
2021-12-23 17:43:10.468668,-2
2021-12-23 17:43:10.468678,-18
2021-12-23 17:43:10.468687,-39
2021-12-23 17:43:10.468697,-81
2021-12-23 17:43:10.737773,-123
2021-12-23 17:43:10.737804,-107
2021-12-23 17:43:10.737815,-79
2021-12-23 17:43:10.737826,-107
2021-12-23 17:43:10.737836,-132
2021-12-23 17:43:10.737846,-111
2021-12-23 17:43:10.737856,-109
2021-12-23 17:43:10.737866,-102
2021-12-23 17:43:10.737876,-60
2021-12-23 17:43:10.737886,-69
2021-12-23 17:43:10.737896,-102
2021-12-23 17:43:10.737906,-76
2021-12-23 17:43:10.737916,-51
2021-12-23 17:43:10.737926,-48
2021-12-23 17:43:10.737936,-30
2021-12-23 17:43:10.737946,-25
2021-12-23 17:43:10.737956,-18
2021-12-23 17:43:10.737966,90
2021-12-23 17:43:10.737976,321
2021-12-23 17:43:10.737986,473
2021-12-23 17:43:10.737996,244
2021-12-23 17:43:10.738006,-340
2021-12-23 17:43:10.738016,-687
2021-12-23 17:43:10.738026,-408
2021-12-23 17:43:10.738036,-44
2021-12-23 17:43:10.738046,-16
2021-12-23 17:43:10.738056,6
2021-12-23 17:43:10.738066,130
2021-12-23 17:43:10.738076,158
2021-12-23 17:43:10.738086,130
2021-12-23 17:43:10.918981,142
2021-12-23 17:43:10.919011,160
2021-12-23 17:43:10.919023,137
2021-12-23 17:43:10.919033,102
2021-12-23 17:43:10.919042,135
2021-12-23 17:43:10.919052,188
2021-12-23 17:43:10.919062,200
2021-12-23 17:43:10.919071,212
2021-12-23 17:43:10.919081,216
2021-12-23 17:43:10.919091,198
2021-12-23 17:43:10.919101,216
2021-12-23 17:43:10.919110,279
2021-12-23 17:43:10.919120,326
2021-12-23 17:43:10.919130,352
2021-12-23 17:43:10.919139,361
2021-12-23 17:43:10.919149,377
2021-12-23 17:43:10.919159,391
2021-12-23 17:43:10.919168,384
2021-12-23 17:43:10.919178,375
2021-12-23 17:43:10.919188,363
2021-12-23 17:43:10.919198,300
2021-12-23 17:43:10.919207,191
2021-12-23 17:43:10.919217,100
2021-12-23 17:43:10.919226,53
2021-12-23 17:43:10.919236,16
2021-12-23 17:43:10.919246,-25
2021-12-23 17:43:10.919256,-48
2021-12-23 17:43:10.919265,-51
2021-12-23 17:43:10.919275,-53
2021-12-23 17:43:10.919285,-53
2021-12-23 17:43:11.188076,-53
2021-12-23 17:43:11.188098,-53
2021-12-23 17:43:11.188106,-55
2021-12-23 17:43:11.188112,-69
2021-12-23 17:43:11.188119,-104
2021-12-23 17:43:11.188125,-135
2021-12-23 17:43:11.188132,-111
2021-12-23 17:43:11.188139,-93
2021-12-23 17:43:11.188145,-125
2021-12-23 17:43:11.188152,-139
2021-12-23 17:43:11.188159,-109
2021-12-23 17:43:11.188165,-90
2021-12-23 17:43:11.188172,-86
2021-12-23 17:43:11.188179,-83
2021-12-23 17:43:11.188185,-109
2021-12-23 17:43:11.188192,-125
2021-12-23 17:43:11.188198,-104
2021-12-23 17:43:11.188205,-83
2021-12-23 17:43:11.188212,-72
2021-12-23 17:43:11.188218,-65
2021-12-23 17:43:11.188225,-60
2021-12-23 17:43:11.188231,-53
2021-12-23 17:43:11.188238,-34
2021-12-23 17:43:11.188245,-23
2021-12-23 17:43:11.188251,-18
2021-12-23 17:43:11.188258,-23
2021-12-23 17:43:11.188264,-37
2021-12-23 17:43:11.188271,-46
2021-12-23 17:43:11.188277,-58
2021-12-23 17:43:11.188284,-74
2021-12-23 17:43:11.413368,-65
2021-12-23 17:43:11.413398,-44
2021-12-23 17:43:11.413410,-44
2021-12-23 17:43:11.413420,-39
2021-12-23 17:43:11.413430,-2
2021-12-23 17:43:11.413440,20
2021-12-23 17:43:11.413450,-9
2021-12-23 17:43:11.413460,-69
2021-12-23 17:43:11.413470,-116
2021-12-23 17:43:11.413480,-144
2021-12-23 17:43:11.413489,-151
2021-12-23 17:43:11.413499,-130
2021-12-23 17:43:11.413509,-118
2021-12-23 17:43:11.413519,-151
2021-12-23 17:43:11.413529,-170
2021-12-23 17:43:11.413539,-153
2021-12-23 17:43:11.413549,-146
2021-12-23 17:43:11.413559,-146
2021-12-23 17:43:11.413569,-125
2021-12-23 17:43:11.413579,-51
2021-12-23 17:43:11.413589,153
2021-12-23 17:43:11.413598,380
2021-12-23 17:43:11.413609,291
2021-12-23 17:43:11.413623,-244
2021-12-23 17:43:11.413633,-809
2021-12-23 17:43:11.413643,-788
2021-12-23 17:43:11.413653,-391
2021-12-23 17:43:11.413663,-263
2021-12-23 17:43:11.413673,-261
2021-12-23 17:43:11.413683,-125
2021-12-23 17:43:11.636443,-76
2021-12-23 17:43:11.636463,-125
2021-12-23 17:43:11.636470,-104
2021-12-23 17:43:11.636477,-74
2021-12-23 17:43:11.636484,-72
2021-12-23 17:43:11.636490,-39
2021-12-23 17:43:11.636496,0
2021-12-23 17:43:11.636503,-11
2021-12-23 17:43:11.636509,-37
2021-12-23 17:43:11.636515,-32
2021-12-23 17:43:11.636521,-23
2021-12-23 17:43:11.636528,-44
2021-12-23 17:43:11.636534,-48
2021-12-23 17:43:11.636540,-4
2021-12-23 17:43:11.636547,44
2021-12-23 17:43:11.636553,72
2021-12-23 17:43:11.636559,102
2021-12-23 17:43:11.636565,142
2021-12-23 17:43:11.636572,149
2021-12-23 17:43:11.636578,144
2021-12-23 17:43:11.636584,149
2021-12-23 17:43:11.636591,128
2021-12-23 17:43:11.636597,90
2021-12-23 17:43:11.636603,44
2021-12-23 17:43:11.636609,-37
2021-12-23 17:43:11.636616,-107
2021-12-23 17:43:11.636622,-137
2021-12-23 17:43:11.636628,-188
2021-12-23 17:43:11.636635,-244
2021-12-23 17:43:11.636641,-254
2021-12-23 17:43:11.818384,-237
2021-12-23 17:43:11.818414,-235
2021-12-23 17:43:11.818426,-228
2021-12-23 17:43:11.818436,-205
2021-12-23 17:43:11.818446,-195
2021-12-23 17:43:11.818456,-216
2021-12-23 17:43:11.818466,-228
2021-12-23 17:43:11.818475,-198
2021-12-23 17:43:11.818485,-167
2021-12-23 17:43:11.818495,-174
2021-12-23 17:43:11.818505,-193
2021-12-23 17:43:11.818515,-212
2021-12-23 17:43:11.818525,-228
2021-12-23 17:43:11.818534,-212
2021-12-23 17:43:11.818544,-179
2021-12-23 17:43:11.818554,-163
2021-12-23 17:43:11.818564,-160
2021-12-23 17:43:11.818574,-163
2021-12-23 17:43:11.818583,-156
2021-12-23 17:43:11.818593,-142
2021-12-23 17:43:11.818603,-139
2021-12-23 17:43:11.818613,-139
2021-12-23 17:43:11.818623,-135
2021-12-23 17:43:11.818632,-128
2021-12-23 17:43:11.818642,-114
2021-12-23 17:43:11.818652,-100
2021-12-23 17:43:11.818662,-95
2021-12-23 17:43:11.818672,-90
2021-12-23 17:43:11.818682,-81
2021-12-23 17:43:11.818691,-81
2021-12-23 17:43:12.088937,-83
2021-12-23 17:43:12.088958,-90
2021-12-23 17:43:12.088966,-111
2021-12-23 17:43:12.088973,-114
2021-12-23 17:43:12.088979,-107
2021-12-23 17:43:12.088986,-137
2021-12-23 17:43:12.088992,-144
2021-12-23 17:43:12.088998,-83
2021-12-23 17:43:12.089005,-44
2021-12-23 17:43:12.089011,-55
2021-12-23 17:43:12.089018,-81
2021-12-23 17:43:12.089024,-109
2021-12-23 17:43:12.089031,-135
2021-12-23 17:43:12.089037,-149
2021-12-23 17:43:12.089043,-149
2021-12-23 17:43:12.089050,-158
2021-12-23 17:43:12.089056,-195
2021-12-23 17:43:12.089063,-216
2021-12-23 17:43:12.089069,-163
2021-12-23 17:43:12.089075,-104
2021-12-23 17:43:12.089082,-107
2021-12-23 17:43:12.089088,-69
2021-12-23 17:43:12.089095,139
2021-12-23 17:43:12.089101,440
2021-12-23 17:43:12.089108,526
2021-12-23 17:43:12.089114,170
2021-12-23 17:43:12.089121,-435
2021-12-23 17:43:12.089127,-676
2021-12-23 17:43:12.089134,-387
2021-12-23 17:43:12.089140,-165
2021-12-23 17:43:12.269053,-179
2021-12-23 17:43:12.269083,-104
2021-12-23 17:43:12.269095,-13
2021-12-23 17:43:12.269106,-44
2021-12-23 17:43:12.269116,-79
2021-12-23 17:43:12.269126,-60
2021-12-23 17:43:12.269136,-23
2021-12-23 17:43:12.269146,9
2021-12-23 17:43:12.269156,23
2021-12-23 17:43:12.269165,23
2021-12-23 17:43:12.269175,18
2021-12-23 17:43:12.269185,39
2021-12-23 17:43:12.269195,86
2021-12-23 17:43:12.269205,121
2021-12-23 17:43:12.269215,121
2021-12-23 17:43:12.269225,107
2021-12-23 17:43:12.269235,118
2021-12-23 17:43:12.269245,163
2021-12-23 17:43:12.269255,216
2021-12-23 17:43:12.269265,256
2021-12-23 17:43:12.269275,282
2021-12-23 17:43:12.269285,282
2021-12-23 17:43:12.269295,263
2021-12-23 17:43:12.269304,251
2021-12-23 17:43:12.269314,242
2021-12-23 17:43:12.269324,205
2021-12-23 17:43:12.269334,135
2021-12-23 17:43:12.269344,58
2021-12-23 17:43:12.269354,-9
2021-12-23 17:43:12.269364,-53
2021-12-23 17:43:12.538548,-83
2021-12-23 17:43:12.538579,-109
2021-12-23 17:43:12.538590,-128
2021-12-23 17:43:12.538601,-167
2021-12-23 17:43:12.538610,-198
2021-12-23 17:43:12.538620,-172
2021-12-23 17:43:12.538630,-123
2021-12-23 17:43:12.538640,-104
2021-12-23 17:43:12.538649,-104
2021-12-23 17:43:12.538659,-123
2021-12-23 17:43:12.538669,-130
2021-12-23 17:43:12.538678,-100
2021-12-23 17:43:12.538688,-72
2021-12-23 17:43:12.538697,-58
2021-12-23 17:43:12.538707,-46
2021-12-23 17:43:12.538717,-44
2021-12-23 17:43:12.538726,-51
2021-12-23 17:43:12.538736,-53
2021-12-23 17:43:12.538746,-37
2021-12-23 17:43:12.538755,-18
2021-12-23 17:43:12.538765,-18
2021-12-23 17:43:12.538775,-53
2021-12-23 17:43:12.538785,-90
2021-12-23 17:43:12.538794,-67
2021-12-23 17:43:12.538804,-27
2021-12-23 17:43:12.538814,-20
2021-12-23 17:43:12.538823,-27
2021-12-23 17:43:12.538833,-39
2021-12-23 17:43:12.538842,-37
2021-12-23 17:43:12.538852,-18
2021-12-23 17:43:12.763863,0
2021-12-23 17:43:12.763894,9
2021-12-23 17:43:12.763906,-2
2021-12-23 17:43:12.763917,-37
2021-12-23 17:43:12.763927,-48
2021-12-23 17:43:12.763937,-18
2021-12-23 17:43:12.763947,4
2021-12-23 17:43:12.763957,11
2021-12-23 17:43:12.763967,9
2021-12-23 17:43:12.763977,-6
2021-12-23 17:43:12.763987,-13
2021-12-23 17:43:12.763997,-9
2021-12-23 17:43:12.764007,-6
2021-12-23 17:43:12.764017,-6
2021-12-23 17:43:12.764027,-25
2021-12-23 17:43:12.764037,-58
2021-12-23 17:43:12.764047,-48
2021-12-23 17:43:12.764057,-16
2021-12-23 17:43:12.764067,-20
2021-12-23 17:43:12.764077,-41
2021-12-23 17:43:12.764087,-41
2021-12-23 17:43:12.764097,-25
2021-12-23 17:43:12.764107,39
2021-12-23 17:43:12.764117,251
2021-12-23 17:43:12.764127,552
2021-12-23 17:43:12.764137,596
2021-12-23 17:43:12.764147,156
2021-12-23 17:43:12.764157,-463
2021-12-23 17:43:12.764167,-603
2021-12-23 17:43:12.764182,-237
2021-12-23 17:43:12.988839,-44
2021-12-23 17:43:12.988861,-81
2021-12-23 17:43:12.988869,-4
2021-12-23 17:43:12.988875,72
2021-12-23 17:43:12.988882,48
2021-12-23 17:43:12.988888,67
2021-12-23 17:43:12.988895,121
2021-12-23 17:43:12.988901,114
2021-12-23 17:43:12.988907,72
2021-12-23 17:43:12.988914,79
2021-12-23 17:43:12.988920,125
2021-12-23 17:43:12.988926,153
2021-12-23 17:43:12.988933,165
2021-12-23 17:43:12.988939,170
2021-12-23 17:43:12.988946,165
2021-12-23 17:43:12.988952,186
2021-12-23 17:43:12.988959,233
2021-12-23 17:43:12.988966,275
2021-12-23 17:43:12.988972,319
2021-12-23 17:43:12.988978,356
2021-12-23 17:43:12.988985,363
2021-12-23 17:43:12.988991,354
2021-12-23 17:43:12.988998,361
2021-12-23 17:43:12.989004,366
2021-12-23 17:43:12.989011,338
2021-12-23 17:43:12.989018,282
2021-12-23 17:43:12.989025,195
2021-12-23 17:43:12.989032,86
2021-12-23 17:43:12.989038,-4
2021-12-23 17:43:12.989045,-53
2021-12-23 17:43:13.213453,-88
2021-12-23 17:43:13.213484,-123
2021-12-23 17:43:13.213496,-156
2021-12-23 17:43:13.213507,-174
2021-12-23 17:43:13.213516,-165
2021-12-23 17:43:13.213526,-144
2021-12-23 17:43:13.213536,-142
2021-12-23 17:43:13.213546,-151
2021-12-23 17:43:13.213555,-153
2021-12-23 17:43:13.213565,-132
2021-12-23 17:43:13.213575,-97
2021-12-23 17:43:13.213585,-67
2021-12-23 17:43:13.213594,-65
2021-12-23 17:43:13.213604,-90
2021-12-23 17:43:13.213614,-90
2021-12-23 17:43:13.213623,-58
2021-12-23 17:43:13.213633,-41
2021-12-23 17:43:13.213643,-34
2021-12-23 17:43:13.213653,-25
2021-12-23 17:43:13.213662,-30
2021-12-23 17:43:13.213672,-27
2021-12-23 17:43:13.213682,-16
2021-12-23 17:43:13.213692,-23
2021-12-23 17:43:13.213702,-44
2021-12-23 17:43:13.213711,-46
2021-12-23 17:43:13.213721,-37
2021-12-23 17:43:13.213731,-27
2021-12-23 17:43:13.213741,-25
2021-12-23 17:43:13.213750,-23
2021-12-23 17:43:13.213760,-9
2021-12-23 17:43:13.438517,0
2021-12-23 17:43:13.438547,0
2021-12-23 17:43:13.438559,0
2021-12-23 17:43:13.438569,-2
2021-12-23 17:43:13.438580,4
2021-12-23 17:43:13.438590,34
2021-12-23 17:43:13.438600,27
2021-12-23 17:43:13.438610,-11
2021-12-23 17:43:13.438620,-18
2021-12-23 17:43:13.438630,-13
2021-12-23 17:43:13.438640,-16
2021-12-23 17:43:13.438650,-11
2021-12-23 17:43:13.438659,-27
2021-12-23 17:43:13.438670,-41
2021-12-23 17:43:13.438679,-18
2021-12-23 17:43:13.438690,9
2021-12-23 17:43:13.438700,13
2021-12-23 17:43:13.438709,9
2021-12-23 17:43:13.438719,16
2021-12-23 17:43:13.438729,65
2021-12-23 17:43:13.438739,226
2021-12-23 17:43:13.438750,496
2021-12-23 17:43:13.438760,620
2021-12-23 17:43:13.438770,296
2021-12-23 17:43:13.438780,-349
2021-12-23 17:43:13.438790,-594
2021-12-23 17:43:13.438800,-226
2021-12-23 17:43:13.438810,-2
2021-12-23 17:43:13.438820,-97
2021-12-23 17:43:13.438830,-37
2021-12-23 17:43:13.706863,79
2021-12-23 17:43:13.706885,34
2021-12-23 17:43:13.706892,-20
2021-12-23 17:43:13.706899,2
2021-12-23 17:43:13.706906,34
2021-12-23 17:43:13.706912,37
2021-12-23 17:43:13.706921,25
2021-12-23 17:43:13.706928,44
2021-12-23 17:43:13.706934,81
2021-12-23 17:43:13.706941,97
2021-12-23 17:43:13.706947,111
2021-12-23 17:43:13.706953,125
2021-12-23 17:43:13.706960,128
2021-12-23 17:43:13.706966,170
2021-12-23 17:43:13.706973,228
2021-12-23 17:43:13.706979,249
2021-12-23 17:43:13.706986,279
2021-12-23 17:43:13.706992,321
2021-12-23 17:43:13.706999,321
2021-12-23 17:43:13.707005,314
2021-12-23 17:43:13.707012,328
2021-12-23 17:43:13.707018,317
2021-12-23 17:43:13.707024,261
2021-12-23 17:43:13.707030,188
2021-12-23 17:43:13.707037,111
2021-12-23 17:43:13.707043,34
2021-12-23 17:43:13.707050,-51
2021-12-23 17:43:13.707056,-132
2021-12-23 17:43:13.707062,-167
2021-12-23 17:43:13.707069,-172
2021-12-23 17:43:13.933507,-174
2021-12-23 17:43:13.933537,-165
2021-12-23 17:43:13.933549,-151
2021-12-23 17:43:13.933559,-149
2021-12-23 17:43:13.933569,-151
2021-12-23 17:43:13.933579,-160
2021-12-23 17:43:13.933589,-156
2021-12-23 17:43:13.933599,-116
2021-12-23 17:43:13.933609,-88
2021-12-23 17:43:13.933618,-88
2021-12-23 17:43:13.933628,-95
2021-12-23 17:43:13.933638,-107
2021-12-23 17:43:13.933648,-97
2021-12-23 17:43:13.933658,-69
2021-12-23 17:43:13.933668,-55
2021-12-23 17:43:13.933677,-48
2021-12-23 17:43:13.933687,-41
2021-12-23 17:43:13.933697,-41
2021-12-23 17:43:13.933707,-30
2021-12-23 17:43:13.933716,-16
2021-12-23 17:43:13.933726,-16
2021-12-23 17:43:13.933736,-20
2021-12-23 17:43:13.933746,-18
2021-12-23 17:43:13.933755,-25
2021-12-23 17:43:13.933765,-18
2021-12-23 17:43:13.933775,2
2021-12-23 17:43:13.933785,4
2021-12-23 17:43:13.933795,-9
2021-12-23 17:43:13.933805,-16
2021-12-23 17:43:13.933815,-16
2021-12-23 17:43:14.113908,6
2021-12-23 17:43:14.113938,41
2021-12-23 17:43:14.113950,53
2021-12-23 17:43:14.113960,37
2021-12-23 17:43:14.113970,-13
2021-12-23 17:43:14.113980,-67
2021-12-23 17:43:14.113989,-67
2021-12-23 17:43:14.113999,-72
2021-12-23 17:43:14.114009,-109
2021-12-23 17:43:14.114018,-118
2021-12-23 17:43:14.114028,-121
2021-12-23 17:43:14.114038,-121
2021-12-23 17:43:14.114048,-90
2021-12-23 17:43:14.114058,-62
2021-12-23 17:43:14.114067,-48
2021-12-23 17:43:14.114077,-4
2021-12-23 17:43:14.114087,156
2021-12-23 17:43:14.114097,426
2021-12-23 17:43:14.114106,512
2021-12-23 17:43:14.114116,174
2021-12-23 17:43:14.114126,-387
2021-12-23 17:43:14.114136,-580
2021-12-23 17:43:14.114145,-251
2021-12-23 17:43:14.114155,-23
2021-12-23 17:43:14.114165,-55
2021-12-23 17:43:14.114174,25
2021-12-23 17:43:14.114184,114
2021-12-23 17:43:14.114194,46
2021-12-23 17:43:14.114204,20
2021-12-23 17:43:14.114213,65
2021-12-23 17:43:14.383578,51
2021-12-23 17:43:14.383608,34
2021-12-23 17:43:14.383620,62
2021-12-23 17:43:14.383630,55
2021-12-23 17:43:14.383640,32
2021-12-23 17:43:14.383650,58
2021-12-23 17:43:14.383660,100
2021-12-23 17:43:14.383670,125
2021-12-23 17:43:14.383680,151
2021-12-23 17:43:14.383690,151
2021-12-23 17:43:14.383700,156
2021-12-23 17:43:14.383710,207
2021-12-23 17:43:14.383721,261
2021-12-23 17:43:14.383731,286
2021-12-23 17:43:14.383741,300
2021-12-23 17:43:14.383751,293
2021-12-23 17:43:14.383761,277
2021-12-23 17:43:14.383771,268
2021-12-23 17:43:14.383781,235
2021-12-23 17:43:14.383791,165
2021-12-23 17:43:14.383801,86
2021-12-23 17:43:14.383811,0
2021-12-23 17:43:14.383821,-72
2021-12-23 17:43:14.383831,-107
2021-12-23 17:43:14.383841,-125
2021-12-23 17:43:14.383851,-142
2021-12-23 17:43:14.383861,-158
2021-12-23 17:43:14.383871,-170
2021-12-23 17:43:14.383886,-167
2021-12-23 17:43:14.383896,-142
2021-12-23 17:43:14.652766,-116
2021-12-23 17:43:14.652797,-102
2021-12-23 17:43:14.652809,-104
2021-12-23 17:43:14.652819,-123
2021-12-23 17:43:14.652829,-109
2021-12-23 17:43:14.652839,-72
2021-12-23 17:43:14.652849,-51
2021-12-23 17:43:14.652859,-39
2021-12-23 17:43:14.652869,-53
2021-12-23 17:43:14.652878,-88
2021-12-23 17:43:14.652888,-81
2021-12-23 17:43:14.652898,-44
2021-12-23 17:43:14.652908,-39
2021-12-23 17:43:14.652918,-83
2021-12-23 17:43:14.652928,-139
2021-12-23 17:43:14.652938,-160
2021-12-23 17:43:14.652948,-130
2021-12-23 17:43:14.652958,-100
2021-12-23 17:43:14.652967,-93
2021-12-23 17:43:14.652977,-86
2021-12-23 17:43:14.652987,-90
2021-12-23 17:43:14.652997,-107
2021-12-23 17:43:14.653007,-93
2021-12-23 17:43:14.653017,-58
2021-12-23 17:43:14.653026,-37
2021-12-23 17:43:14.653036,-23
2021-12-23 17:43:14.653046,-16
2021-12-23 17:43:14.653056,-11
2021-12-23 17:43:14.653066,-2
2021-12-23 17:43:14.653076,0
2021-12-23 17:43:14.922980,-4
2021-12-23 17:43:14.923011,-2
2021-12-23 17:43:14.923023,-18
2021-12-23 17:43:14.923033,-39
2021-12-23 17:43:14.923042,-41
2021-12-23 17:43:14.923052,-60
2021-12-23 17:43:14.923062,-76
2021-12-23 17:43:14.923072,-67
2021-12-23 17:43:14.923082,-67
2021-12-23 17:43:14.923091,-65
2021-12-23 17:43:14.923101,37
2021-12-23 17:43:14.923111,305
2021-12-23 17:43:14.923121,540
2021-12-23 17:43:14.923131,417
2021-12-23 17:43:14.923141,-114
2021-12-23 17:43:14.923150,-610
2021-12-23 17:43:14.923160,-533
2021-12-23 17:43:14.923170,-139
2021-12-23 17:43:14.923180,-41
2021-12-23 17:43:14.923189,-67
2021-12-23 17:43:14.923199,30
2021-12-23 17:43:14.923209,67
2021-12-23 17:43:14.923219,41
2021-12-23 17:43:14.923229,79
2021-12-23 17:43:14.923239,118
2021-12-23 17:43:14.923248,107
2021-12-23 17:43:14.923258,107
2021-12-23 17:43:14.923268,118
2021-12-23 17:43:14.923278,114
2021-12-23 17:43:14.923288,123
2021-12-23 17:43:15.148533,139
2021-12-23 17:43:15.148564,130
2021-12-23 17:43:15.148575,135
2021-12-23 17:43:15.148585,167
2021-12-23 17:43:15.148595,200
2021-12-23 17:43:15.148605,240
2021-12-23 17:43:15.148615,258
2021-12-23 17:43:15.148625,242
2021-12-23 17:43:15.148635,244
2021-12-23 17:43:15.148645,272
2021-12-23 17:43:15.148655,282
2021-12-23 17:43:15.148665,270
2021-12-23 17:43:15.148675,235
2021-12-23 17:43:15.148685,151
2021-12-23 17:43:15.148695,48
2021-12-23 17:43:15.148705,-27
2021-12-23 17:43:15.148715,-93
2021-12-23 17:43:15.148725,-151
2021-12-23 17:43:15.148734,-212
2021-12-23 17:43:15.148744,-268
2021-12-23 17:43:15.148754,-279
2021-12-23 17:43:15.148764,-265
2021-12-23 17:43:15.148774,-251
2021-12-23 17:43:15.148784,-237
2021-12-23 17:43:15.148794,-230
2021-12-23 17:43:15.148804,-226
2021-12-23 17:43:15.148814,-207
2021-12-23 17:43:15.148824,-186
2021-12-23 17:43:15.148834,-167
2021-12-23 17:43:15.148843,-144
2021-12-23 17:43:15.418229,-130
2021-12-23 17:43:15.418259,-123
2021-12-23 17:43:15.418271,-109
2021-12-23 17:43:15.418281,-97
2021-12-23 17:43:15.418291,-88
2021-12-23 17:43:15.418301,-69
2021-12-23 17:43:15.418311,-62
2021-12-23 17:43:15.418321,-58
2021-12-23 17:43:15.418331,-58
2021-12-23 17:43:15.418341,-86
2021-12-23 17:43:15.418351,-93
2021-12-23 17:43:15.418361,-76
2021-12-23 17:43:15.418371,-93
2021-12-23 17:43:15.418381,-118
2021-12-23 17:43:15.418391,-100
2021-12-23 17:43:15.418401,-93
2021-12-23 17:43:15.418410,-102
2021-12-23 17:43:15.418420,-93
2021-12-23 17:43:15.418430,-95
2021-12-23 17:43:15.418440,-97
2021-12-23 17:43:15.418450,-72
2021-12-23 17:43:15.418460,-55
2021-12-23 17:43:15.418469,-44
2021-12-23 17:43:15.418479,-30
2021-12-23 17:43:15.418489,-53
2021-12-23 17:43:15.418499,-83
2021-12-23 17:43:15.418509,-69
2021-12-23 17:43:15.418518,-55
2021-12-23 17:43:15.418528,-55
2021-12-23 17:43:15.418538,-46
2021-12-23 17:43:15.508476,-41
2021-12-23 17:43:15.508506,-34
2021-12-23 17:43:15.508518,-23
2021-12-23 17:43:15.508528,-23
2021-12-23 17:43:15.508537,-13
2021-12-23 17:43:15.508547,11
2021-12-23 17:43:15.508557,111
2021-12-23 17:43:15.508567,380
2021-12-23 17:43:15.508576,606
2021-12-23 17:43:15.508586,449
2021-12-23 17:43:15.508596,-111
2021-12-23 17:43:15.508606,-643
2021-12-23 17:43:15.508615,-585
2021-12-23 17:43:15.508625,-193
2021-12-23 17:43:15.508635,-102
2021-12-23 17:43:15.508644,-125
2021-12-23 17:43:15.508654,-6
2021-12-23 17:43:15.508664,32
2021-12-23 17:43:15.508673,-11
2021-12-23 17:43:15.508683,25
2021-12-23 17:43:15.508693,69
2021-12-23 17:43:15.508703,65
2021-12-23 17:43:15.508712,74
2021-12-23 17:43:15.508722,86
2021-12-23 17:43:15.508732,65
2021-12-23 17:43:15.508742,53
2021-12-23 17:43:15.508751,76
2021-12-23 17:43:15.508761,111
2021-12-23 17:43:15.508771,130
2021-12-23 17:43:15.508781,142
2021-12-23 17:43:15.777568,151
2021-12-23 17:43:15.777598,177
2021-12-23 17:43:15.777610,212
2021-12-23 17:43:15.777620,226
2021-12-23 17:43:15.777630,221
2021-12-23 17:43:15.777640,214
2021-12-23 17:43:15.777650,205
2021-12-23 17:43:15.777660,200
2021-12-23 17:43:15.777669,184
2021-12-23 17:43:15.777679,123
2021-12-23 17:43:15.777688,13
2021-12-23 17:43:15.777698,-95
2021-12-23 17:43:15.777708,-172
2021-12-23 17:43:15.777718,-228
2021-12-23 17:43:15.777728,-272
2021-12-23 17:43:15.777737,-303
2021-12-23 17:43:15.777747,-317
2021-12-23 17:43:15.777757,-317
2021-12-23 17:43:15.777766,-298
2021-12-23 17:43:15.777776,-270
2021-12-23 17:43:15.777786,-254
2021-12-23 17:43:15.777795,-242
2021-12-23 17:43:15.777805,-226
2021-12-23 17:43:15.777815,-205
2021-12-23 17:43:15.777824,-181
2021-12-23 17:43:15.777834,-153
2021-12-23 17:43:15.777844,-132
2021-12-23 17:43:15.777854,-123
2021-12-23 17:43:15.777864,-121
2021-12-23 17:43:15.777873,-107
2021-12-23 17:43:16.003937,-81
2021-12-23 17:43:16.003968,-62
2021-12-23 17:43:16.003980,-58
2021-12-23 17:43:16.003990,-67
2021-12-23 17:43:16.004000,-97
2021-12-23 17:43:16.004010,-109
2021-12-23 17:43:16.004020,-81
2021-12-23 17:43:16.004030,-62
2021-12-23 17:43:16.004040,-65
2021-12-23 17:43:16.004050,-72
2021-12-23 17:43:16.004060,-95
2021-12-23 17:43:16.004070,-104
2021-12-23 17:43:16.004080,-76
2021-12-23 17:43:16.004090,-58
2021-12-23 17:43:16.004100,-76
2021-12-23 17:43:16.004110,-109
2021-12-23 17:43:16.004120,-118
2021-12-23 17:43:16.004130,-90
2021-12-23 17:43:16.004140,-58
2021-12-23 17:43:16.004150,-34
2021-12-23 17:43:16.004160,-16
2021-12-23 17:43:16.004170,-9
2021-12-23 17:43:16.004180,-18
2021-12-23 17:43:16.004190,-20
2021-12-23 17:43:16.004200,-13
2021-12-23 17:43:16.004210,-4
2021-12-23 17:43:16.004220,4
2021-12-23 17:43:16.004230,0
2021-12-23 17:43:16.004240,-4
2021-12-23 17:43:16.004250,9
2021-12-23 17:43:16.272840,-4
2021-12-23 17:43:16.272871,-37
2021-12-23 17:43:16.272883,-34
2021-12-23 17:43:16.272893,-27
2021-12-23 17:43:16.272903,13
2021-12-23 17:43:16.272913,247
2021-12-23 17:43:16.272922,582
2021-12-23 17:43:16.272932,648
2021-12-23 17:43:16.272941,251
2021-12-23 17:43:16.272951,-380
2021-12-23 17:43:16.272961,-617
2021-12-23 17:43:16.272970,-284
2021-12-23 17:43:16.272980,-44
2021-12-23 17:43:16.272990,-69
2021-12-23 17:43:16.272999,0
2021-12-23 17:43:16.273009,58
2021-12-23 17:43:16.273019,-6
2021-12-23 17:43:16.273028,-16
2021-12-23 17:43:16.273038,41
2021-12-23 17:43:16.273048,65
2021-12-23 17:43:16.273057,69
2021-12-23 17:43:16.273067,74
2021-12-23 17:43:16.273076,90
2021-12-23 17:43:16.273099,125
2021-12-23 17:43:16.273109,158
2021-12-23 17:43:16.273119,181
2021-12-23 17:43:16.273129,202
2021-12-23 17:43:16.273139,221
2021-12-23 17:43:16.273149,249
2021-12-23 17:43:16.273158,298
2021-12-23 17:43:16.543313,342
2021-12-23 17:43:16.543344,375
2021-12-23 17:43:16.543356,384
2021-12-23 17:43:16.543366,366
2021-12-23 17:43:16.543376,352
2021-12-23 17:43:16.543386,342
2021-12-23 17:43:16.543396,312
2021-12-23 17:43:16.543439,265
2021-12-23 17:43:16.543449,179
2021-12-23 17:43:16.543459,53
2021-12-23 17:43:16.543469,-23
2021-12-23 17:43:16.543479,-55
2021-12-23 17:43:16.543489,-104
2021-12-23 17:43:16.543499,-149
2021-12-23 17:43:16.543509,-186
2021-12-23 17:43:16.543519,-219
2021-12-23 17:43:16.543529,-214
2021-12-23 17:43:16.543539,-179
2021-12-23 17:43:16.543548,-172
2021-12-23 17:43:16.543558,-193
2021-12-23 17:43:16.543568,-202
2021-12-23 17:43:16.543578,-191
2021-12-23 17:43:16.543588,-158
2021-12-23 17:43:16.543598,-125
2021-12-23 17:43:16.543608,-102
2021-12-23 17:43:16.543617,-86
2021-12-23 17:43:16.543627,-88
2021-12-23 17:43:16.543637,-93
2021-12-23 17:43:16.543647,-74
2021-12-23 17:43:16.543657,-48
2021-12-23 17:43:16.768204,-32
2021-12-23 17:43:16.768235,-23
2021-12-23 17:43:16.768247,-25
2021-12-23 17:43:16.768257,-37
2021-12-23 17:43:16.768267,-34
2021-12-23 17:43:16.768277,-44
2021-12-23 17:43:16.768287,-76
2021-12-23 17:43:16.768297,-79
2021-12-23 17:43:16.768307,-67
2021-12-23 17:43:16.768317,-76
2021-12-23 17:43:16.768327,-65
2021-12-23 17:43:16.768337,-32
2021-12-23 17:43:16.768347,-30
2021-12-23 17:43:16.768357,-46
2021-12-23 17:43:16.768367,-60
2021-12-23 17:43:16.768376,-58
2021-12-23 17:43:16.768386,-32
2021-12-23 17:43:16.768396,-9
2021-12-23 17:43:16.768406,9
2021-12-23 17:43:16.768416,18
2021-12-23 17:43:16.768426,-16
2021-12-23 17:43:16.768436,-62
2021-12-23 17:43:16.768446,-62
2021-12-23 17:43:16.768456,-37
2021-12-23 17:43:16.768466,-27
2021-12-23 17:43:16.768476,-39
2021-12-23 17:43:16.768486,-44
2021-12-23 17:43:16.768496,-30
2021-12-23 17:43:16.768505,-9
2021-12-23 17:43:16.768515,6
2021-12-23 17:43:16.903516,16
2021-12-23 17:43:16.903547,25
2021-12-23 17:43:16.903559,32
2021-12-23 17:43:16.903569,102
2021-12-23 17:43:16.903579,354
2021-12-23 17:43:16.903589,673
2021-12-23 17:43:16.903599,683
2021-12-23 17:43:16.903609,198
2021-12-23 17:43:16.903619,-410
2021-12-23 17:43:16.903629,-484
2021-12-23 17:43:16.903639,-104
2021-12-23 17:43:16.903649,27
2021-12-23 17:43:16.903659,-39
2021-12-23 17:43:16.903669,58
2021-12-23 17:43:16.903679,144
2021-12-23 17:43:16.903689,114
2021-12-23 17:43:16.903699,123
2021-12-23 17:43:16.903709,170
2021-12-23 17:43:16.903719,156
2021-12-23 17:43:16.903729,128
2021-12-23 17:43:16.903739,146
2021-12-23 17:43:16.903749,172
2021-12-23 17:43:16.903759,170
2021-12-23 17:43:16.903769,160
2021-12-23 17:43:16.903779,170
2021-12-23 17:43:16.903788,193
2021-12-23 17:43:16.903798,221
2021-12-23 17:43:16.903808,254
2021-12-23 17:43:16.903818,291
2021-12-23 17:43:16.903828,335
2021-12-23 17:43:17.173400,368
2021-12-23 17:43:17.173430,380
2021-12-23 17:43:17.173442,387
2021-12-23 17:43:17.173452,375
2021-12-23 17:43:17.173462,347
2021-12-23 17:43:17.173473,314
2021-12-23 17:43:17.173483,223
2021-12-23 17:43:17.173492,100
2021-12-23 17:43:17.173502,32
2021-12-23 17:43:17.173512,-20
2021-12-23 17:43:17.173522,-97
2021-12-23 17:43:17.173532,-191
2021-12-23 17:43:17.173542,-277
2021-12-23 17:43:17.173552,-291
2021-12-23 17:43:17.173562,-263
2021-12-23 17:43:17.173572,-265
2021-12-23 17:43:17.173582,-272
2021-12-23 17:43:17.173592,-240
2021-12-23 17:43:17.173602,-216
2021-12-23 17:43:17.173612,-212
2021-12-23 17:43:17.173622,-193
2021-12-23 17:43:17.173632,-172
2021-12-23 17:43:17.173642,-156
2021-12-23 17:43:17.173652,-137
2021-12-23 17:43:17.173662,-135
2021-12-23 17:43:17.173672,-151
2021-12-23 17:43:17.173682,-144
2021-12-23 17:43:17.173692,-109
2021-12-23 17:43:17.173702,-79
2021-12-23 17:43:17.173712,-58
2021-12-23 17:43:17.443882,-51
2021-12-23 17:43:17.443912,-44
2021-12-23 17:43:17.443924,-39
2021-12-23 17:43:17.443934,-37
2021-12-23 17:43:17.443944,-27
2021-12-23 17:43:17.443954,-25
2021-12-23 17:43:17.443964,-41
2021-12-23 17:43:17.443974,-39
2021-12-23 17:43:17.443984,-18
2021-12-23 17:43:17.443993,-13
2021-12-23 17:43:17.444003,-9
2021-12-23 17:43:17.444013,-25
2021-12-23 17:43:17.444023,-62
2021-12-23 17:43:17.444033,-51
2021-12-23 17:43:17.444043,-11
2021-12-23 17:43:17.444052,-4
2021-12-23 17:43:17.444063,0
2021-12-23 17:43:17.444072,20
2021-12-23 17:43:17.444083,30
2021-12-23 17:43:17.444092,32
2021-12-23 17:43:17.444102,27
2021-12-23 17:43:17.444112,20
2021-12-23 17:43:17.444122,25
2021-12-23 17:43:17.444132,27
2021-12-23 17:43:17.444142,25
2021-12-23 17:43:17.444152,41
2021-12-23 17:43:17.444162,46
2021-12-23 17:43:17.444172,13
2021-12-23 17:43:17.444182,-6
2021-12-23 17:43:17.444192,13
2021-12-23 17:43:17.622203,46
2021-12-23 17:43:17.622222,109
2021-12-23 17:43:17.622230,298
2021-12-23 17:43:17.622237,594
2021-12-23 17:43:17.622243,711
2021-12-23 17:43:17.622250,356
2021-12-23 17:43:17.622257,-296
2021-12-23 17:43:17.622263,-564
2021-12-23 17:43:17.622270,-249
2021-12-23 17:43:17.622276,-30
2021-12-23 17:43:17.622283,-79
2021-12-23 17:43:17.622289,-13
2021-12-23 17:43:17.622296,93
2021-12-23 17:43:17.622302,83
2021-12-23 17:43:17.622309,81
2021-12-23 17:43:17.622315,118
2021-12-23 17:43:17.622322,118
2021-12-23 17:43:17.622328,88
2021-12-23 17:43:17.622335,83
2021-12-23 17:43:17.622341,121
2021-12-23 17:43:17.622348,146
2021-12-23 17:43:17.622354,149
2021-12-23 17:43:17.622361,151
2021-12-23 17:43:17.622367,158
2021-12-23 17:43:17.622374,193
2021-12-23 17:43:17.622380,247
2021-12-23 17:43:17.622387,277
2021-12-23 17:43:17.622393,303
2021-12-23 17:43:17.622400,338
2021-12-23 17:43:17.622407,349
2021-12-23 17:43:17.847753,331
2021-12-23 17:43:17.847784,317
2021-12-23 17:43:17.847796,305
2021-12-23 17:43:17.847806,249
2021-12-23 17:43:17.847816,149
2021-12-23 17:43:17.847826,55
2021-12-23 17:43:17.847835,-9
2021-12-23 17:43:17.847845,-72
2021-12-23 17:43:17.847855,-137
2021-12-23 17:43:17.847864,-209
2021-12-23 17:43:17.847874,-270
2021-12-23 17:43:17.847884,-289
2021-12-23 17:43:17.847894,-272
2021-12-23 17:43:17.847903,-263
2021-12-23 17:43:17.847913,-258
2021-12-23 17:43:17.847923,-263
2021-12-23 17:43:17.847932,-270
2021-12-23 17:43:17.847942,-254
2021-12-23 17:43:17.847952,-240
2021-12-23 17:43:17.847962,-235
2021-12-23 17:43:17.847971,-212
2021-12-23 17:43:17.847981,-195
2021-12-23 17:43:17.847991,-195
2021-12-23 17:43:17.848000,-174
2021-12-23 17:43:17.848010,-132
2021-12-23 17:43:17.848020,-97
2021-12-23 17:43:17.848029,-86
2021-12-23 17:43:17.848039,-95
2021-12-23 17:43:17.848048,-95
2021-12-23 17:43:17.848058,-74
2021-12-23 17:43:18.208001,-65
2021-12-23 17:43:18.208023,-83
2021-12-23 17:43:18.208031,-102
2021-12-23 17:43:18.208037,-123
2021-12-23 17:43:18.208044,-144
2021-12-23 17:43:18.208050,-125
2021-12-23 17:43:18.208056,-93
2021-12-23 17:43:18.208063,-86
2021-12-23 17:43:18.208069,-86
2021-12-23 17:43:18.208076,-107
2021-12-23 17:43:18.208082,-125
2021-12-23 17:43:18.208089,-104
2021-12-23 17:43:18.208095,-76
2021-12-23 17:43:18.208102,-72
2021-12-23 17:43:18.208108,-79
2021-12-23 17:43:18.208115,-81
2021-12-23 17:43:18.208121,-76
2021-12-23 17:43:18.208127,-53
2021-12-23 17:43:18.208134,-27
2021-12-23 17:43:18.208140,-2
2021-12-23 17:43:18.208147,13
2021-12-23 17:43:18.208154,0
2021-12-23 17:43:18.208160,-41
2021-12-23 17:43:18.208167,-83
2021-12-23 17:43:18.208173,-74
2021-12-23 17:43:18.208180,-39
2021-12-23 17:43:18.208186,-37
2021-12-23 17:43:18.208192,-51
2021-12-23 17:43:18.208199,-37
2021-12-23 17:43:18.208205,-11
2021-12-23 17:43:18.343640,2
2021-12-23 17:43:18.343671,11
2021-12-23 17:43:18.343683,20
2021-12-23 17:43:18.343693,27
2021-12-23 17:43:18.343702,123
2021-12-23 17:43:18.343712,401
2021-12-23 17:43:18.343722,617
2021-12-23 17:43:18.343732,442
2021-12-23 17:43:18.343741,-107
2021-12-23 17:43:18.343751,-594
2021-12-23 17:43:18.343761,-501
2021-12-23 17:43:18.343771,-118
2021-12-23 17:43:18.343780,-20
2021-12-23 17:43:18.343790,-9
2021-12-23 17:43:18.343800,104
2021-12-23 17:43:18.343809,118
2021-12-23 17:43:18.343819,88
2021-12-23 17:43:18.343839,132
2021-12-23 17:43:18.343849,165
2021-12-23 17:43:18.343859,163
2021-12-23 17:43:18.343869,160
2021-12-23 17:43:18.343879,156
2021-12-23 17:43:18.343888,170
2021-12-23 17:43:18.343898,205
2021-12-23 17:43:18.343908,226
2021-12-23 17:43:18.343918,233
2021-12-23 17:43:18.343928,214
2021-12-23 17:43:18.343937,193
2021-12-23 17:43:18.343947,219
2021-12-23 17:43:18.343957,256
2021-12-23 17:43:18.612513,275
2021-12-23 17:43:18.612529,305
2021-12-23 17:43:18.612535,319
2021-12-23 17:43:18.612541,300
2021-12-23 17:43:18.612546,296
2021-12-23 17:43:18.612551,279
2021-12-23 17:43:18.612557,226
2021-12-23 17:43:18.612562,160
2021-12-23 17:43:18.612567,69
2021-12-23 17:43:18.612573,-37
2021-12-23 17:43:18.612578,-100
2021-12-23 17:43:18.612583,-139
2021-12-23 17:43:18.612588,-195
2021-12-23 17:43:18.612594,-254
2021-12-23 17:43:18.612599,-286
2021-12-23 17:43:18.612604,-284
2021-12-23 17:43:18.612610,-254
2021-12-23 17:43:18.612615,-223
2021-12-23 17:43:18.612620,-209
2021-12-23 17:43:18.612626,-214
2021-12-23 17:43:18.612631,-230
2021-12-23 17:43:18.612636,-219
2021-12-23 17:43:18.612642,-184
2021-12-23 17:43:18.612647,-158
2021-12-23 17:43:18.612652,-144
2021-12-23 17:43:18.612658,-132
2021-12-23 17:43:18.612663,-125
2021-12-23 17:43:18.612668,-125
2021-12-23 17:43:18.612673,-146
2021-12-23 17:43:18.612679,-160
2021-12-23 17:43:18.748563,-135
2021-12-23 17:43:18.748586,-114
2021-12-23 17:43:18.748594,-125
2021-12-23 17:43:18.748600,-123
2021-12-23 17:43:18.748607,-97
2021-12-23 17:43:18.748613,-79
2021-12-23 17:43:18.748620,-76
2021-12-23 17:43:18.748626,-90
2021-12-23 17:43:18.748633,-100
2021-12-23 17:43:18.748639,-90
2021-12-23 17:43:18.748646,-76
2021-12-23 17:43:18.748652,-62
2021-12-23 17:43:18.748658,-60
2021-12-23 17:43:18.748665,-76
2021-12-23 17:43:18.748672,-83
2021-12-23 17:43:18.748678,-69
2021-12-23 17:43:18.748684,-53
2021-12-23 17:43:18.748691,-39
2021-12-23 17:43:18.748697,-41
2021-12-23 17:43:18.748704,-67
2021-12-23 17:43:18.748710,-69
2021-12-23 17:43:18.748717,-58
2021-12-23 17:43:18.748723,-55
2021-12-23 17:43:18.748730,-41
2021-12-23 17:43:18.748736,-32
2021-12-23 17:43:18.748742,-37
2021-12-23 17:43:18.748749,-27
2021-12-23 17:43:18.748755,-4
2021-12-23 17:43:18.748762,4
2021-12-23 17:43:18.748768,-2
2021-12-23 17:43:19.018923,-11
2021-12-23 17:43:19.018954,-27
2021-12-23 17:43:19.018966,-37
2021-12-23 17:43:19.018977,-32
2021-12-23 17:43:19.018987,-20
2021-12-23 17:43:19.018997,-11
2021-12-23 17:43:19.019007,-27
2021-12-23 17:43:19.019017,-48
2021-12-23 17:43:19.019027,-48
2021-12-23 17:43:19.019037,-60
2021-12-23 17:43:19.019047,-74
2021-12-23 17:43:19.019057,-37
2021-12-23 17:43:19.019067,46
2021-12-23 17:43:19.019077,261
2021-12-23 17:43:19.019087,547
2021-12-23 17:43:19.019097,547
2021-12-23 17:43:19.019107,97
2021-12-23 17:43:19.019117,-461
2021-12-23 17:43:19.019127,-559
2021-12-23 17:43:19.019137,-214
2021-12-23 17:43:19.019147,-44
2021-12-23 17:43:19.019157,-81
2021-12-23 17:43:19.019167,0
2021-12-23 17:43:19.019177,58
2021-12-23 17:43:19.019187,6
2021-12-23 17:43:19.019197,16
2021-12-23 17:43:19.019207,65
2021-12-23 17:43:19.019217,65
2021-12-23 17:43:19.019227,69
2021-12-23 17:43:19.019237,97
2021-12-23 17:43:19.198932,107
2021-12-23 17:43:19.198963,121
2021-12-23 17:43:19.198975,146
2021-12-23 17:43:19.198985,153
2021-12-23 17:43:19.198995,142
2021-12-23 17:43:19.199005,118
2021-12-23 17:43:19.199015,114
2021-12-23 17:43:19.199025,156
2021-12-23 17:43:19.199034,214
2021-12-23 17:43:19.199044,247
2021-12-23 17:43:19.199054,270
2021-12-23 17:43:19.199064,279
2021-12-23 17:43:19.199074,272
2021-12-23 17:43:19.199084,282
2021-12-23 17:43:19.199094,277
2021-12-23 17:43:19.199104,223
2021-12-23 17:43:19.199114,149
2021-12-23 17:43:19.199124,60
2021-12-23 17:43:19.199134,-37
2021-12-23 17:43:19.199144,-95
2021-12-23 17:43:19.199154,-128
2021-12-23 17:43:19.199163,-167
2021-12-23 17:43:19.199173,-188
2021-12-23 17:43:19.199183,-193
2021-12-23 17:43:19.199193,-191
2021-12-23 17:43:19.199203,-172
2021-12-23 17:43:19.199213,-153
2021-12-23 17:43:19.199223,-151
2021-12-23 17:43:19.199233,-139
2021-12-23 17:43:19.199243,-118
2021-12-23 17:43:19.468613,-107
2021-12-23 17:43:19.468643,-81
2021-12-23 17:43:19.468655,-55
2021-12-23 17:43:19.468665,-55
2021-12-23 17:43:19.468675,-62
2021-12-23 17:43:19.468685,-69
2021-12-23 17:43:19.468695,-67
2021-12-23 17:43:19.468704,-39
2021-12-23 17:43:19.468714,-25
2021-12-23 17:43:19.468724,-30
2021-12-23 17:43:19.468734,-39
2021-12-23 17:43:19.468744,-58
2021-12-23 17:43:19.468754,-62
2021-12-23 17:43:19.468764,-62
2021-12-23 17:43:19.468774,-76
2021-12-23 17:43:19.468784,-79
2021-12-23 17:43:19.468794,-67
2021-12-23 17:43:19.468803,-65
2021-12-23 17:43:19.468813,-53
2021-12-23 17:43:19.468823,-32
2021-12-23 17:43:19.468833,-27
2021-12-23 17:43:19.468843,-32
2021-12-23 17:43:19.468853,-32
2021-12-23 17:43:19.468863,-27
2021-12-23 17:43:19.468873,-27
2021-12-23 17:43:19.468883,-30
2021-12-23 17:43:19.468893,-32
2021-12-23 17:43:19.468903,-30
2021-12-23 17:43:19.468912,-30
2021-12-23 17:43:19.468922,-27
2021-12-23 17:43:19.648888,-16
2021-12-23 17:43:19.648918,4
2021-12-23 17:43:19.648930,6
2021-12-23 17:43:19.648940,-11
2021-12-23 17:43:19.648950,-37
2021-12-23 17:43:19.648960,-46
2021-12-23 17:43:19.648970,-32
2021-12-23 17:43:19.648980,-16
2021-12-23 17:43:19.648990,-16
2021-12-23 17:43:19.649000,-18
2021-12-23 17:43:19.649009,-32
2021-12-23 17:43:19.649019,-44
2021-12-23 17:43:19.649029,-16
2021-12-23 17:43:19.649039,18
2021-12-23 17:43:19.649049,16
2021-12-23 17:43:19.649059,-34
2021-12-23 17:43:19.649069,-111
2021-12-23 17:43:19.649079,-135
2021-12-23 17:43:19.649089,-107
2021-12-23 17:43:19.649098,-107
2021-12-23 17:43:19.649108,-135
2021-12-23 17:43:19.649118,-139
2021-12-23 17:43:19.649128,-128
2021-12-23 17:43:19.649138,-118
2021-12-23 17:43:19.649148,-104
2021-12-23 17:43:19.649158,-83
2021-12-23 17:43:19.649167,-72
2021-12-23 17:43:19.649177,-27
2021-12-23 17:43:19.649187,184
2021-12-23 17:43:19.649197,505
2021-12-23 17:43:19.962714,585
2021-12-23 17:43:19.962744,230
2021-12-23 17:43:19.962756,-352
2021-12-23 17:43:19.962766,-615
2021-12-23 17:43:19.962776,-347
2021-12-23 17:43:19.962786,-95
2021-12-23 17:43:19.962795,-88
2021-12-23 17:43:19.962805,-13
2021-12-23 17:43:19.962815,67
2021-12-23 17:43:19.962825,20
2021-12-23 17:43:19.962835,0
2021-12-23 17:43:19.962845,55
2021-12-23 17:43:19.962855,83
2021-12-23 17:43:19.962864,88
2021-12-23 17:43:19.962874,114
2021-12-23 17:43:19.962884,121
2021-12-23 17:43:19.962894,114
2021-12-23 17:43:19.962903,125
2021-12-23 17:43:19.962913,142
2021-12-23 17:43:19.962923,165
2021-12-23 17:43:19.962933,195
2021-12-23 17:43:19.962942,212
2021-12-23 17:43:19.962952,233
2021-12-23 17:43:19.962962,279
2021-12-23 17:43:19.962972,324
2021-12-23 17:43:19.962982,361
2021-12-23 17:43:19.962991,387
2021-12-23 17:43:19.963001,373
2021-12-23 17:43:19.963011,361
2021-12-23 17:43:19.963021,363
2021-12-23 17:43:20.188476,338
2021-12-23 17:43:20.188499,279
2021-12-23 17:43:20.188506,200
2021-12-23 17:43:20.188513,104
2021-12-23 17:43:20.188519,27
2021-12-23 17:43:20.188526,-6
2021-12-23 17:43:20.188533,-37
2021-12-23 17:43:20.188540,-72
2021-12-23 17:43:20.188546,-109
2021-12-23 17:43:20.188553,-149
2021-12-23 17:43:20.188560,-144
2021-12-23 17:43:20.188567,-104
2021-12-23 17:43:20.188573,-88
2021-12-23 17:43:20.188579,-83
2021-12-23 17:43:20.188586,-93
2021-12-23 17:43:20.188592,-132
2021-12-23 17:43:20.188599,-163
2021-12-23 17:43:20.188605,-146
2021-12-23 17:43:20.188612,-114
2021-12-23 17:43:20.188618,-118
2021-12-23 17:43:20.188625,-144
2021-12-23 17:43:20.188631,-144
2021-12-23 17:43:20.188638,-132
2021-12-23 17:43:20.188644,-130
2021-12-23 17:43:20.188650,-125
2021-12-23 17:43:20.188657,-111
2021-12-23 17:43:20.188663,-111
2021-12-23 17:43:20.188670,-121
2021-12-23 17:43:20.188676,-109
2021-12-23 17:43:20.188683,-90
2021-12-23 17:43:20.368992,-81
2021-12-23 17:43:20.369023,-74
2021-12-23 17:43:20.369035,-83
2021-12-23 17:43:20.369046,-97
2021-12-23 17:43:20.369056,-83
2021-12-23 17:43:20.369065,-58
2021-12-23 17:43:20.369075,-44
2021-12-23 17:43:20.369085,-44
2021-12-23 17:43:20.369094,-51
2021-12-23 17:43:20.369104,-53
2021-12-23 17:43:20.369114,-39
2021-12-23 17:43:20.369123,-20
2021-12-23 17:43:20.369133,-11
2021-12-23 17:43:20.369142,-25
2021-12-23 17:43:20.369152,-60
2021-12-23 17:43:20.369162,-83
2021-12-23 17:43:20.369171,-81
2021-12-23 17:43:20.369181,-76
2021-12-23 17:43:20.369191,-86
2021-12-23 17:43:20.369200,-109
2021-12-23 17:43:20.369210,-139
2021-12-23 17:43:20.369219,-163
2021-12-23 17:43:20.369229,-165
2021-12-23 17:43:20.369239,-146
2021-12-23 17:43:20.369248,-137
2021-12-23 17:43:20.369258,-137
2021-12-23 17:43:20.369267,-132
2021-12-23 17:43:20.369277,-109
2021-12-23 17:43:20.369287,-76
2021-12-23 17:43:20.369296,-58
2021-12-23 17:43:20.593488,-39
2021-12-23 17:43:20.593510,-34
2021-12-23 17:43:20.593518,-53
2021-12-23 17:43:20.593525,-69
2021-12-23 17:43:20.593531,-60
2021-12-23 17:43:20.593538,-37
2021-12-23 17:43:20.593544,-34
2021-12-23 17:43:20.593550,-62
2021-12-23 17:43:20.593557,-76
2021-12-23 17:43:20.593563,-58
2021-12-23 17:43:20.593569,-39
2021-12-23 17:43:20.593576,-32
2021-12-23 17:43:20.593582,-27
2021-12-23 17:43:20.593588,-37
2021-12-23 17:43:20.593603,27
2021-12-23 17:43:20.593609,289
2021-12-23 17:43:20.593616,592
2021-12-23 17:43:20.593622,603
2021-12-23 17:43:20.593629,193
2021-12-23 17:43:20.593635,-368
2021-12-23 17:43:20.593642,-510
2021-12-23 17:43:20.593649,-212
2021-12-23 17:43:20.593655,-81
2021-12-23 17:43:20.593662,-128
2021-12-23 17:43:20.593668,-46
2021-12-23 17:43:20.593675,16
2021-12-23 17:43:20.593681,-9
2021-12-23 17:43:20.593688,9
2021-12-23 17:43:20.593694,58
2021-12-23 17:43:20.593701,76
2021-12-23 17:43:20.818361,83
2021-12-23 17:43:20.818391,100
2021-12-23 17:43:20.818403,118
2021-12-23 17:43:20.818414,132
2021-12-23 17:43:20.818424,151
2021-12-23 17:43:20.818434,174
2021-12-23 17:43:20.818444,177
2021-12-23 17:43:20.818454,174
2021-12-23 17:43:20.818464,212
2021-12-23 17:43:20.818474,256
2021-12-23 17:43:20.818484,286
2021-12-23 17:43:20.818494,319
2021-12-23 17:43:20.818504,333
2021-12-23 17:43:20.818514,328
2021-12-23 17:43:20.818524,342
2021-12-23 17:43:20.818534,352
2021-12-23 17:43:20.818543,335
2021-12-23 17:43:20.818553,300
2021-12-23 17:43:20.818563,235
2021-12-23 17:43:20.818573,153
2021-12-23 17:43:20.818583,83
2021-12-23 17:43:20.818593,11
2021-12-23 17:43:20.818603,-67
2021-12-23 17:43:20.818613,-111
2021-12-23 17:43:20.818623,-135
2021-12-23 17:43:20.818633,-172
2021-12-23 17:43:20.818643,-205
2021-12-23 17:43:20.818653,-200
2021-12-23 17:43:20.818663,-174
2021-12-23 17:43:20.818673,-163
2021-12-23 17:43:21.043612,-158
2021-12-23 17:43:21.043637,-139
2021-12-23 17:43:21.043645,-114
2021-12-23 17:43:21.043652,-102
2021-12-23 17:43:21.043658,-90
2021-12-23 17:43:21.043664,-88
2021-12-23 17:43:21.043671,-104
2021-12-23 17:43:21.043677,-95
2021-12-23 17:43:21.043684,-72
2021-12-23 17:43:21.043690,-62
2021-12-23 17:43:21.043697,-55
2021-12-23 17:43:21.043703,-67
2021-12-23 17:43:21.043710,-88
2021-12-23 17:43:21.043716,-81
2021-12-23 17:43:21.043723,-81
2021-12-23 17:43:21.043729,-102
2021-12-23 17:43:21.043736,-111
2021-12-23 17:43:21.043742,-125
2021-12-23 17:43:21.043749,-137
2021-12-23 17:43:21.043755,-121
2021-12-23 17:43:21.043762,-107
2021-12-23 17:43:21.043768,-111
2021-12-23 17:43:21.043775,-104
2021-12-23 17:43:21.043781,-95
2021-12-23 17:43:21.043787,-90
2021-12-23 17:43:21.043794,-76
2021-12-23 17:43:21.043800,-72
2021-12-23 17:43:21.043807,-109
2021-12-23 17:43:21.043813,-146
2021-12-23 17:43:21.043820,-137
2021-12-23 17:43:21.268916,-109
2021-12-23 17:43:21.268946,-100
2021-12-23 17:43:21.268958,-93
2021-12-23 17:43:21.268968,-86
2021-12-23 17:43:21.268978,-90
2021-12-23 17:43:21.268988,-111
2021-12-23 17:43:21.268998,-107
2021-12-23 17:43:21.269008,-76
2021-12-23 17:43:21.269018,-65
2021-12-23 17:43:21.269028,-69
2021-12-23 17:43:21.269038,-72
2021-12-23 17:43:21.269048,-88
2021-12-23 17:43:21.269058,-93
2021-12-23 17:43:21.269068,-58
2021-12-23 17:43:21.269078,-32
2021-12-23 17:43:21.269088,-23
2021-12-23 17:43:21.269098,-9
2021-12-23 17:43:21.269108,-2
2021-12-23 17:43:21.269118,16
2021-12-23 17:43:21.269128,37
2021-12-23 17:43:21.269138,27
2021-12-23 17:43:21.269148,6
2021-12-23 17:43:21.269158,2
2021-12-23 17:43:21.269168,9
2021-12-23 17:43:21.269178,20
2021-12-23 17:43:21.269188,34
2021-12-23 17:43:21.269198,41
2021-12-23 17:43:21.269208,48
2021-12-23 17:43:21.269218,55
2021-12-23 17:43:21.269227,48
2021-12-23 17:43:21.537789,37
2021-12-23 17:43:21.537821,67
2021-12-23 17:43:21.537833,219
2021-12-23 17:43:21.537843,503
2021-12-23 17:43:21.537853,692
2021-12-23 17:43:21.537863,503
2021-12-23 17:43:21.537873,-34
2021-12-23 17:43:21.537883,-473
2021-12-23 17:43:21.537892,-356
2021-12-23 17:43:21.537902,-39
2021-12-23 17:43:21.537912,-16
2021-12-23 17:43:21.537921,-18
2021-12-23 17:43:21.537931,109
2021-12-23 17:43:21.537941,149
2021-12-23 17:43:21.537951,121
2021-12-23 17:43:21.537961,142
2021-12-23 17:43:21.537970,158
2021-12-23 17:43:21.537980,156
2021-12-23 17:43:21.537990,184
2021-12-23 17:43:21.537999,209
2021-12-23 17:43:21.538009,195
2021-12-23 17:43:21.538019,179
2021-12-23 17:43:21.538029,193
2021-12-23 17:43:21.538038,223
2021-12-23 17:43:21.538048,258
2021-12-23 17:43:21.538058,289
2021-12-23 17:43:21.538068,312
2021-12-23 17:43:21.538077,326
2021-12-23 17:43:21.538087,349
2021-12-23 17:43:21.538097,391
2021-12-23 17:43:21.763678,429
2021-12-23 17:43:21.763709,426
2021-12-23 17:43:21.763720,366
2021-12-23 17:43:21.763731,286
2021-12-23 17:43:21.763741,244
2021-12-23 17:43:21.763751,223
2021-12-23 17:43:21.763760,170
2021-12-23 17:43:21.763770,97
2021-12-23 17:43:21.763780,25
2021-12-23 17:43:21.763790,-69
2021-12-23 17:43:21.763800,-151
2021-12-23 17:43:21.763810,-165
2021-12-23 17:43:21.763819,-177
2021-12-23 17:43:21.763829,-209
2021-12-23 17:43:21.763839,-226
2021-12-23 17:43:21.763849,-256
2021-12-23 17:43:21.763859,-272
2021-12-23 17:43:21.763869,-233
2021-12-23 17:43:21.763879,-195
2021-12-23 17:43:21.763888,-184
2021-12-23 17:43:21.763898,-170
2021-12-23 17:43:21.763908,-170
2021-12-23 17:43:21.763918,-160
2021-12-23 17:43:21.763927,-125
2021-12-23 17:43:21.763937,-100
2021-12-23 17:43:21.763947,-93
2021-12-23 17:43:21.763957,-83
2021-12-23 17:43:21.763967,-83
2021-12-23 17:43:21.763976,-79
2021-12-23 17:43:21.763986,-60
2021-12-23 17:43:22.077056,-44
2021-12-23 17:43:22.077088,-37
2021-12-23 17:43:22.077100,-30
2021-12-23 17:43:22.077111,-48
2021-12-23 17:43:22.077120,-74
2021-12-23 17:43:22.077130,-58
2021-12-23 17:43:22.077140,-30
2021-12-23 17:43:22.077149,-30
2021-12-23 17:43:22.077159,-60
2021-12-23 17:43:22.077168,-88
2021-12-23 17:43:22.077178,-74
2021-12-23 17:43:22.077188,-39
2021-12-23 17:43:22.077197,-25
2021-12-23 17:43:22.077207,-23
2021-12-23 17:43:22.077216,-41
2021-12-23 17:43:22.077226,-72
2021-12-23 17:43:22.077236,-53
2021-12-23 17:43:22.077245,-13
2021-12-23 17:43:22.077255,-9
2021-12-23 17:43:22.077265,-13
2021-12-23 17:43:22.077274,-11
2021-12-23 17:43:22.077284,-16
2021-12-23 17:43:22.077293,-6
2021-12-23 17:43:22.077303,13
2021-12-23 17:43:22.077313,23
2021-12-23 17:43:22.077322,25
2021-12-23 17:43:22.077332,27
2021-12-23 17:43:22.077342,25
2021-12-23 17:43:22.077351,46
2021-12-23 17:43:22.077361,83
2021-12-23 17:43:22.258846,104
2021-12-23 17:43:22.258878,100
2021-12-23 17:43:22.258889,79
2021-12-23 17:43:22.258899,55
2021-12-23 17:43:22.258909,48
2021-12-23 17:43:22.258919,51
2021-12-23 17:43:22.258929,41
2021-12-23 17:43:22.258938,27
2021-12-23 17:43:22.258948,-2
2021-12-23 17:43:22.258958,-32
2021-12-23 17:43:22.258968,-13
2021-12-23 17:43:22.258977,23
2021-12-23 17:43:22.259019,25
2021-12-23 17:43:22.259030,27
2021-12-23 17:43:22.259040,55
2021-12-23 17:43:22.259049,228
2021-12-23 17:43:22.259059,547
2021-12-23 17:43:22.259069,671
2021-12-23 17:43:22.259078,326
2021-12-23 17:43:22.259088,-326
2021-12-23 17:43:22.259098,-624
2021-12-23 17:43:22.259107,-291
2021-12-23 17:43:22.259117,-23
2021-12-23 17:43:22.259127,-79
2021-12-23 17:43:22.259137,-13
2021-12-23 17:43:22.259146,114
2021-12-23 17:43:22.259156,79
2021-12-23 17:43:22.259165,53
2021-12-23 17:43:22.259175,111
2021-12-23 17:43:22.259185,137
2021-12-23 17:43:22.484096,132
2021-12-23 17:43:22.484126,146
2021-12-23 17:43:22.484138,156
2021-12-23 17:43:22.484149,163
2021-12-23 17:43:22.484159,184
2021-12-23 17:43:22.484168,212
2021-12-23 17:43:22.484178,242
2021-12-23 17:43:22.484188,268
2021-12-23 17:43:22.484198,275
2021-12-23 17:43:22.484207,286
2021-12-23 17:43:22.484217,328
2021-12-23 17:43:22.484227,373
2021-12-23 17:43:22.484236,394
2021-12-23 17:43:22.484246,382
2021-12-23 17:43:22.484256,361
2021-12-23 17:43:22.484265,345
2021-12-23 17:43:22.484275,312
2021-12-23 17:43:22.484285,265
2021-12-23 17:43:22.484294,179
2021-12-23 17:43:22.484304,62
2021-12-23 17:43:22.484314,-25
2021-12-23 17:43:22.484324,-81
2021-12-23 17:43:22.484334,-135
2021-12-23 17:43:22.484343,-174
2021-12-23 17:43:22.484353,-202
2021-12-23 17:43:22.484363,-228
2021-12-23 17:43:22.484372,-237
2021-12-23 17:43:22.484382,-230
2021-12-23 17:43:22.484392,-219
2021-12-23 17:43:22.484402,-195
2021-12-23 17:43:22.752959,-181
2021-12-23 17:43:22.752983,-172
2021-12-23 17:43:22.752990,-158
2021-12-23 17:43:22.752997,-144
2021-12-23 17:43:22.753003,-130
2021-12-23 17:43:22.753010,-109
2021-12-23 17:43:22.753016,-107
2021-12-23 17:43:22.753022,-111
2021-12-23 17:43:22.753029,-100
2021-12-23 17:43:22.753035,-97
2021-12-23 17:43:22.753041,-116
2021-12-23 17:43:22.753048,-114
2021-12-23 17:43:22.753054,-123
2021-12-23 17:43:22.753060,-167
2021-12-23 17:43:22.753067,-195
2021-12-23 17:43:22.753073,-186
2021-12-23 17:43:22.753079,-167
2021-12-23 17:43:22.753085,-160
2021-12-23 17:43:22.753092,-177
2021-12-23 17:43:22.753098,-184
2021-12-23 17:43:22.753104,-160
2021-12-23 17:43:22.753111,-144
2021-12-23 17:43:22.753117,-135
2021-12-23 17:43:22.753123,-123
2021-12-23 17:43:22.753129,-118
2021-12-23 17:43:22.753136,-109
2021-12-23 17:43:22.753142,-88
2021-12-23 17:43:22.753148,-81
2021-12-23 17:43:22.753154,-79
2021-12-23 17:43:22.753161,-62
2021-12-23 17:43:22.888961,-53
2021-12-23 17:43:22.888992,-39
2021-12-23 17:43:22.889004,-30
2021-12-23 17:43:22.889014,-39
2021-12-23 17:43:22.889024,-41
2021-12-23 17:43:22.889033,-39
2021-12-23 17:43:22.889043,-44
2021-12-23 17:43:22.889052,-25
2021-12-23 17:43:22.889062,4
2021-12-23 17:43:22.889072,16
2021-12-23 17:43:22.889081,27
2021-12-23 17:43:22.889091,30
2021-12-23 17:43:22.889101,-6
2021-12-23 17:43:22.889110,-25
2021-12-23 17:43:22.889120,0
2021-12-23 17:43:22.889130,9
2021-12-23 17:43:22.889139,0
2021-12-23 17:43:22.889149,-9
2021-12-23 17:43:22.889159,-23
2021-12-23 17:43:22.889168,-16
2021-12-23 17:43:22.889178,4
2021-12-23 17:43:22.889188,9
2021-12-23 17:43:22.889198,20
2021-12-23 17:43:22.889208,67
2021-12-23 17:43:22.889217,251
2021-12-23 17:43:22.889227,550
2021-12-23 17:43:22.889237,620
2021-12-23 17:43:22.889246,207
2021-12-23 17:43:22.889256,-412
2021-12-23 17:43:22.889265,-587
2021-12-23 17:43:23.113979,-237
2021-12-23 17:43:23.114010,-34
2021-12-23 17:43:23.114022,-72
2021-12-23 17:43:23.114032,16
2021-12-23 17:43:23.114042,97
2021-12-23 17:43:23.114052,41
2021-12-23 17:43:23.114062,34
2021-12-23 17:43:23.114072,97
2021-12-23 17:43:23.114082,107
2021-12-23 17:43:23.114091,100
2021-12-23 17:43:23.114101,111
2021-12-23 17:43:23.114111,102
2021-12-23 17:43:23.114121,104
2021-12-23 17:43:23.114130,128
2021-12-23 17:43:23.114140,123
2021-12-23 17:43:23.114149,118
2021-12-23 17:43:23.114159,151
2021-12-23 17:43:23.114169,184
2021-12-23 17:43:23.114179,212
2021-12-23 17:43:23.114194,221
2021-12-23 17:43:23.114204,212
2021-12-23 17:43:23.114214,237
2021-12-23 17:43:23.114224,272
2021-12-23 17:43:23.114234,251
2021-12-23 17:43:23.114244,226
2021-12-23 17:43:23.114254,214
2021-12-23 17:43:23.114264,156
2021-12-23 17:43:23.114273,79
2021-12-23 17:43:23.114283,4
2021-12-23 17:43:23.114293,-76
2021-12-23 17:43:23.337672,-135
2021-12-23 17:43:23.337688,-177
2021-12-23 17:43:23.337693,-221
2021-12-23 17:43:23.337698,-256
2021-12-23 17:43:23.337703,-286
2021-12-23 17:43:23.337707,-300
2021-12-23 17:43:23.337711,-279
2021-12-23 17:43:23.337716,-249
2021-12-23 17:43:23.337720,-233
2021-12-23 17:43:23.337725,-240
2021-12-23 17:43:23.337729,-261
2021-12-23 17:43:23.337734,-254
2021-12-23 17:43:23.337738,-214
2021-12-23 17:43:23.337743,-184
2021-12-23 17:43:23.337747,-170
2021-12-23 17:43:23.337752,-170
2021-12-23 17:43:23.337756,-174
2021-12-23 17:43:23.337761,-160
2021-12-23 17:43:23.337765,-132
2021-12-23 17:43:23.337770,-107
2021-12-23 17:43:23.337774,-100
2021-12-23 17:43:23.337779,-107
2021-12-23 17:43:23.337783,-107
2021-12-23 17:43:23.337788,-86
2021-12-23 17:43:23.337792,-65
2021-12-23 17:43:23.337797,-55
2021-12-23 17:43:23.337801,-48
2021-12-23 17:43:23.337805,-53
2021-12-23 17:43:23.337810,-60
2021-12-23 17:43:23.337814,-44
2021-12-23 17:43:23.697971,-25
2021-12-23 17:43:23.697987,-27
2021-12-23 17:43:23.697992,-25
2021-12-23 17:43:23.697997,-44
2021-12-23 17:43:23.698002,-76
2021-12-23 17:43:23.698006,-62
2021-12-23 17:43:23.698010,-25
2021-12-23 17:43:23.698015,-16
2021-12-23 17:43:23.698020,-25
2021-12-23 17:43:23.698024,-48
2021-12-23 17:43:23.698028,-65
2021-12-23 17:43:23.698033,-48
2021-12-23 17:43:23.698037,-27
2021-12-23 17:43:23.698042,-25
2021-12-23 17:43:23.698046,-23
2021-12-23 17:43:23.698051,-27
2021-12-23 17:43:23.698055,-23
2021-12-23 17:43:23.698059,0
2021-12-23 17:43:23.698064,0
2021-12-23 17:43:23.698068,-4
2021-12-23 17:43:23.698073,18
2021-12-23 17:43:23.698077,6
2021-12-23 17:43:23.698082,-25
2021-12-23 17:43:23.698086,-9
2021-12-23 17:43:23.698091,-2
2021-12-23 17:43:23.698095,-48
2021-12-23 17:43:23.698099,-74
2021-12-23 17:43:23.698104,-60
2021-12-23 17:43:23.698108,-46
2021-12-23 17:43:23.698113,-34
2021-12-23 17:43:23.877339,-18
2021-12-23 17:43:23.877359,-4
2021-12-23 17:43:23.877365,18
2021-12-23 17:43:23.877370,90
2021-12-23 17:43:23.877374,324
2021-12-23 17:43:23.877378,620
2021-12-23 17:43:23.877383,610
2021-12-23 17:43:23.877387,179
2021-12-23 17:43:23.877392,-387
2021-12-23 17:43:23.877396,-545
2021-12-23 17:43:23.877401,-209
2021-12-23 17:43:23.877405,9
2021-12-23 17:43:23.877410,4
2021-12-23 17:43:23.877414,88
2021-12-23 17:43:23.877418,135
2021-12-23 17:43:23.877423,55
2021-12-23 17:43:23.877427,41
2021-12-23 17:43:23.877432,86
2021-12-23 17:43:23.877436,97
2021-12-23 17:43:23.877440,97
2021-12-23 17:43:23.877445,90
2021-12-23 17:43:23.877449,86
2021-12-23 17:43:23.877454,116
2021-12-23 17:43:23.877458,149
2021-12-23 17:43:23.877462,158
2021-12-23 17:43:23.877467,151
2021-12-23 17:43:23.877471,137
2021-12-23 17:43:23.877476,149
2021-12-23 17:43:23.877480,205
2021-12-23 17:43:23.877484,268
2021-12-23 17:43:24.146674,310
2021-12-23 17:43:24.146690,345
2021-12-23 17:43:24.146696,356
2021-12-23 17:43:24.146700,349
2021-12-23 17:43:24.146705,359
2021-12-23 17:43:24.146709,366
2021-12-23 17:43:24.146714,326
2021-12-23 17:43:24.146718,233
2021-12-23 17:43:24.146723,104
2021-12-23 17:43:24.146727,-13
2021-12-23 17:43:24.146731,-88
2021-12-23 17:43:24.146736,-151
2021-12-23 17:43:24.146740,-200
2021-12-23 17:43:24.146745,-235
2021-12-23 17:43:24.146749,-277
2021-12-23 17:43:24.146753,-296
2021-12-23 17:43:24.146758,-270
2021-12-23 17:43:24.146762,-247
2021-12-23 17:43:24.146767,-233
2021-12-23 17:43:24.146771,-228
2021-12-23 17:43:24.146775,-233
2021-12-23 17:43:24.146780,-230
2021-12-23 17:43:24.146784,-223
2021-12-23 17:43:24.146789,-214
2021-12-23 17:43:24.146793,-191
2021-12-23 17:43:24.146798,-177
2021-12-23 17:43:24.146802,-174
2021-12-23 17:43:24.146807,-163
2021-12-23 17:43:24.146811,-139
2021-12-23 17:43:24.146815,-123
2021-12-23 17:43:24.372932,-118
2021-12-23 17:43:24.372954,-144
2021-12-23 17:43:24.372962,-167
2021-12-23 17:43:24.372968,-151
2021-12-23 17:43:24.372975,-130
2021-12-23 17:43:24.372981,-123
2021-12-23 17:43:24.372987,-111
2021-12-23 17:43:24.372994,-107
2021-12-23 17:43:24.373000,-114
2021-12-23 17:43:24.373006,-107
2021-12-23 17:43:24.373013,-93
2021-12-23 17:43:24.373019,-74
2021-12-23 17:43:24.373025,-72
2021-12-23 17:43:24.373032,-100
2021-12-23 17:43:24.373038,-114
2021-12-23 17:43:24.373044,-90
2021-12-23 17:43:24.373050,-74
2021-12-23 17:43:24.373057,-62
2021-12-23 17:43:24.373063,-58
2021-12-23 17:43:24.373069,-81
2021-12-23 17:43:24.373076,-88
2021-12-23 17:43:24.373082,-67
2021-12-23 17:43:24.373089,-58
2021-12-23 17:43:24.373095,-60
2021-12-23 17:43:24.373101,-88
2021-12-23 17:43:24.373107,-111
2021-12-23 17:43:24.373114,-88
2021-12-23 17:43:24.373120,-58
2021-12-23 17:43:24.373126,-37
2021-12-23 17:43:24.373133,-11
2021-12-23 17:43:24.552800,0
2021-12-23 17:43:24.552821,2
2021-12-23 17:43:24.552828,4
2021-12-23 17:43:24.552835,-11
2021-12-23 17:43:24.552842,-13
2021-12-23 17:43:24.552848,4
2021-12-23 17:43:24.552855,-4
2021-12-23 17:43:24.552861,-34
2021-12-23 17:43:24.552868,-30
2021-12-23 17:43:24.552874,-11
2021-12-23 17:43:24.552881,2
2021-12-23 17:43:24.552887,9
2021-12-23 17:43:24.552894,-6
2021-12-23 17:43:24.552900,-6
2021-12-23 17:43:24.552907,88
2021-12-23 17:43:24.552913,335
2021-12-23 17:43:24.552919,615
2021-12-23 17:43:24.552926,599
2021-12-23 17:43:24.552932,151
2021-12-23 17:43:24.552939,-398
2021-12-23 17:43:24.552945,-501
2021-12-23 17:43:24.552951,-170
2021-12-23 17:43:24.552958,18
2021-12-23 17:43:24.552964,16
2021-12-23 17:43:24.552971,97
2021-12-23 17:43:24.552977,144
2021-12-23 17:43:24.552983,93
2021-12-23 17:43:24.552990,83
2021-12-23 17:43:24.552996,130
2021-12-23 17:43:24.553003,146
2021-12-23 17:43:24.822942,144
2021-12-23 17:43:24.822974,160
2021-12-23 17:43:24.822980,177
2021-12-23 17:43:24.822986,165
2021-12-23 17:43:24.822991,170
2021-12-23 17:43:24.822996,200
2021-12-23 17:43:24.823001,188
2021-12-23 17:43:24.823006,167
2021-12-23 17:43:24.823012,209
2021-12-23 17:43:24.823017,254
2021-12-23 17:43:24.823022,277
2021-12-23 17:43:24.823027,298
2021-12-23 17:43:24.823032,305
2021-12-23 17:43:24.823037,314
2021-12-23 17:43:24.823042,340
2021-12-23 17:43:24.823047,342
2021-12-23 17:43:24.823053,314
2021-12-23 17:43:24.823058,254
2021-12-23 17:43:24.823063,167
2021-12-23 17:43:24.823068,97
2021-12-23 17:43:24.823073,32
2021-12-23 17:43:24.823078,-41
2021-12-23 17:43:24.823083,-95
2021-12-23 17:43:24.823089,-132
2021-12-23 17:43:24.823094,-170
2021-12-23 17:43:24.823099,-195
2021-12-23 17:43:24.823104,-212
2021-12-23 17:43:24.823109,-237
2021-12-23 17:43:24.823114,-279
2021-12-23 17:43:24.823120,-284
2021-12-23 17:43:25.003170,-247
2021-12-23 17:43:25.003191,-221
2021-12-23 17:43:25.003199,-214
2021-12-23 17:43:25.003206,-193
2021-12-23 17:43:25.003212,-186
2021-12-23 17:43:25.003219,-191
2021-12-23 17:43:25.003225,-174
2021-12-23 17:43:25.003232,-146
2021-12-23 17:43:25.003238,-137
2021-12-23 17:43:25.003245,-132
2021-12-23 17:43:25.003251,-130
2021-12-23 17:43:25.003258,-137
2021-12-23 17:43:25.003264,-123
2021-12-23 17:43:25.003271,-95
2021-12-23 17:43:25.003277,-88
2021-12-23 17:43:25.003284,-93
2021-12-23 17:43:25.003290,-107
2021-12-23 17:43:25.003297,-135
2021-12-23 17:43:25.003303,-130
2021-12-23 17:43:25.003310,-102
2021-12-23 17:43:25.003316,-90
2021-12-23 17:43:25.003323,-95
2021-12-23 17:43:25.003329,-107
2021-12-23 17:43:25.003336,-121
2021-12-23 17:43:25.003342,-107
2021-12-23 17:43:25.003348,-76
2021-12-23 17:43:25.003355,-67
2021-12-23 17:43:25.003361,-72
2021-12-23 17:43:25.003368,-69
2021-12-23 17:43:25.003374,-74
2021-12-23 17:43:25.183797,-88
2021-12-23 17:43:25.183829,-86
2021-12-23 17:43:25.183844,-67
2021-12-23 17:43:25.183857,-67
2021-12-23 17:43:25.183869,-81
2021-12-23 17:43:25.183881,-74
2021-12-23 17:43:25.183893,-51
2021-12-23 17:43:25.183905,-34
2021-12-23 17:43:25.183917,-37
2021-12-23 17:43:25.183929,-55
2021-12-23 17:43:25.183941,-83
2021-12-23 17:43:25.183953,-111
2021-12-23 17:43:25.183965,-111
2021-12-23 17:43:25.183977,-76
2021-12-23 17:43:25.183989,-51
2021-12-23 17:43:25.184001,-58
2021-12-23 17:43:25.184013,-79
2021-12-23 17:43:25.184024,-86
2021-12-23 17:43:25.184036,-76
2021-12-23 17:43:25.184048,-62
2021-12-23 17:43:25.184060,-48
2021-12-23 17:43:25.184072,-51
2021-12-23 17:43:25.184084,-55
2021-12-23 17:43:25.184096,-34
2021-12-23 17:43:25.184109,-16
2021-12-23 17:43:25.184121,-9
2021-12-23 17:43:25.184133,2
2021-12-23 17:43:25.184176,4
2021-12-23 17:43:25.184188,20
2021-12-23 17:43:25.184200,167
2021-12-23 17:43:25.452803,470
2021-12-23 17:43:25.452824,676
2021-12-23 17:43:25.452832,477
2021-12-23 17:43:25.452839,-109
2021-12-23 17:43:25.452845,-594
2021-12-23 17:43:25.452852,-475
2021-12-23 17:43:25.452858,-107
2021-12-23 17:43:25.452865,-27
2021-12-23 17:43:25.452871,-25
2021-12-23 17:43:25.452878,58
2021-12-23 17:43:25.452884,62
2021-12-23 17:43:25.452890,55
2021-12-23 17:43:25.452897,104
2021-12-23 17:43:25.452903,128
2021-12-23 17:43:25.452910,123
2021-12-23 17:43:25.452916,128
2021-12-23 17:43:25.452923,135
2021-12-23 17:43:25.452929,160
2021-12-23 17:43:25.452935,198
2021-12-23 17:43:25.452942,216
2021-12-23 17:43:25.452948,209
2021-12-23 17:43:25.452955,202
2021-12-23 17:43:25.452961,226
2021-12-23 17:43:25.452967,270
2021-12-23 17:43:25.452974,305
2021-12-23 17:43:25.452980,335
2021-12-23 17:43:25.452987,363
2021-12-23 17:43:25.452993,375
2021-12-23 17:43:25.452999,382
2021-12-23 17:43:25.453006,398
2021-12-23 17:43:25.812481,398
2021-12-23 17:43:25.812498,375
2021-12-23 17:43:25.812504,324
2021-12-23 17:43:25.812508,228
2021-12-23 17:43:25.812513,111
2021-12-23 17:43:25.812518,27
2021-12-23 17:43:25.812522,-11
2021-12-23 17:43:25.812527,-53
2021-12-23 17:43:25.812531,-125
2021-12-23 17:43:25.812536,-191
2021-12-23 17:43:25.812540,-186
2021-12-23 17:43:25.812545,-156
2021-12-23 17:43:25.812549,-167
2021-12-23 17:43:25.812554,-191
2021-12-23 17:43:25.812558,-205
2021-12-23 17:43:25.812563,-237
2021-12-23 17:43:25.812567,-254
2021-12-23 17:43:25.812572,-249
2021-12-23 17:43:25.812576,-258
2021-12-23 17:43:25.812580,-244
2021-12-23 17:43:25.812585,-226
2021-12-23 17:43:25.812589,-233
2021-12-23 17:43:25.812594,-212
2021-12-23 17:43:25.812598,-167
2021-12-23 17:43:25.812603,-149
2021-12-23 17:43:25.812607,-149
2021-12-23 17:43:25.812612,-156
2021-12-23 17:43:25.812616,-160
2021-12-23 17:43:25.812621,-142
2021-12-23 17:43:25.812625,-111
2021-12-23 17:43:26.037370,-100
2021-12-23 17:43:26.037391,-97
2021-12-23 17:43:26.037399,-107
2021-12-23 17:43:26.037406,-114
2021-12-23 17:43:26.037412,-97
2021-12-23 17:43:26.037419,-79
2021-12-23 17:43:26.037426,-97
2021-12-23 17:43:26.037432,-128
2021-12-23 17:43:26.037439,-146
2021-12-23 17:43:26.037445,-149
2021-12-23 17:43:26.037452,-128
2021-12-23 17:43:26.037458,-102
2021-12-23 17:43:26.037465,-88
2021-12-23 17:43:26.037471,-88
2021-12-23 17:43:26.037478,-95
2021-12-23 17:43:26.037484,-95
2021-12-23 17:43:26.037491,-74
2021-12-23 17:43:26.037497,-51
2021-12-23 17:43:26.037504,-41
2021-12-23 17:43:26.037510,-46
2021-12-23 17:43:26.037517,-58
2021-12-23 17:43:26.037524,-53
2021-12-23 17:43:26.037530,-32
2021-12-23 17:43:26.037537,-6
2021-12-23 17:43:26.037543,2
2021-12-23 17:43:26.037550,-25
2021-12-23 17:43:26.037556,-62
2021-12-23 17:43:26.037563,-55
2021-12-23 17:43:26.037569,-13
2021-12-23 17:43:26.037576,20
2021-12-23 17:43:26.171657,34
2021-12-23 17:43:26.171674,30
2021-12-23 17:43:26.171681,27
2021-12-23 17:43:26.171686,20
2021-12-23 17:43:26.171691,13
2021-12-23 17:43:26.171700,20
2021-12-23 17:43:26.171705,34
2021-12-23 17:43:26.171711,34
2021-12-23 17:43:26.171716,20
2021-12-23 17:43:26.171721,4
2021-12-23 17:43:26.171726,13
2021-12-23 17:43:26.171731,37
2021-12-23 17:43:26.171737,44
2021-12-23 17:43:26.171742,32
2021-12-23 17:43:26.171747,27
2021-12-23 17:43:26.171752,69
2021-12-23 17:43:26.171757,249
2021-12-23 17:43:26.171763,564
2021-12-23 17:43:26.171768,713
2021-12-23 17:43:26.171773,426
2021-12-23 17:43:26.171778,-179
2021-12-23 17:43:26.171783,-531
2021-12-23 17:43:26.171789,-300
2021-12-23 17:43:26.171794,-30
2021-12-23 17:43:26.171799,-86
2021-12-23 17:43:26.171804,-83
2021-12-23 17:43:26.171810,46
2021-12-23 17:43:26.171815,58
2021-12-23 17:43:26.171820,37
2021-12-23 17:43:26.171825,88
2021-12-23 17:43:26.398308,109
2021-12-23 17:43:26.398330,93
2021-12-23 17:43:26.398338,107
2021-12-23 17:43:26.398345,116
2021-12-23 17:43:26.398351,111
2021-12-23 17:43:26.398358,135
2021-12-23 17:43:26.398364,149
2021-12-23 17:43:26.398371,139
2021-12-23 17:43:26.398377,163
2021-12-23 17:43:26.398384,193
2021-12-23 17:43:26.398390,198
2021-12-23 17:43:26.398397,209
2021-12-23 17:43:26.398403,233
2021-12-23 17:43:26.398410,254
2021-12-23 17:43:26.398416,282
2021-12-23 17:43:26.398423,300
2021-12-23 17:43:26.398429,303
2021-12-23 17:43:26.398436,305
2021-12-23 17:43:26.398442,286
2021-12-23 17:43:26.398449,226
2021-12-23 17:43:26.398455,149
2021-12-23 17:43:26.398462,74
2021-12-23 17:43:26.398468,9
2021-12-23 17:43:26.398475,-51
2021-12-23 17:43:26.398482,-109
2021-12-23 17:43:26.398488,-149
2021-12-23 17:43:26.398495,-174
2021-12-23 17:43:26.398501,-205
2021-12-23 17:43:26.398507,-228
2021-12-23 17:43:26.398514,-221
2021-12-23 17:43:26.578018,-209
2021-12-23 17:43:26.578042,-200
2021-12-23 17:43:26.578050,-181
2021-12-23 17:43:26.578057,-167
2021-12-23 17:43:26.578063,-158
2021-12-23 17:43:26.578070,-158
2021-12-23 17:43:26.578076,-167
2021-12-23 17:43:26.578083,-151
2021-12-23 17:43:26.578089,-123
2021-12-23 17:43:26.578096,-118
2021-12-23 17:43:26.578102,-107
2021-12-23 17:43:26.578109,-86
2021-12-23 17:43:26.578115,-93
2021-12-23 17:43:26.578153,-107
2021-12-23 17:43:26.578160,-90
2021-12-23 17:43:26.578166,-81
2021-12-23 17:43:26.578173,-83
2021-12-23 17:43:26.578179,-93
2021-12-23 17:43:26.578185,-107
2021-12-23 17:43:26.578192,-102
2021-12-23 17:43:26.578198,-81
2021-12-23 17:43:26.578205,-72
2021-12-23 17:43:26.578215,-65
2021-12-23 17:43:26.578226,-60
2021-12-23 17:43:26.578232,-58
2021-12-23 17:43:26.578242,-41
2021-12-23 17:43:26.578252,-25
2021-12-23 17:43:26.578259,-27
2021-12-23 17:43:26.578265,-30
2021-12-23 17:43:26.578272,-46
2021-12-23 17:43:26.892575,-72
2021-12-23 17:43:26.892596,-58
2021-12-23 17:43:26.892606,-34
2021-12-23 17:43:26.892614,-32
2021-12-23 17:43:26.892622,-39
2021-12-23 17:43:26.892630,-53
2021-12-23 17:43:26.892638,-67
2021-12-23 17:43:26.892645,-55
2021-12-23 17:43:26.892653,-37
2021-12-23 17:43:26.892661,-34
2021-12-23 17:43:26.892669,-41
2021-12-23 17:43:26.892677,-39
2021-12-23 17:43:26.892685,-18
2021-12-23 17:43:26.892693,9
2021-12-23 17:43:26.892701,2
2021-12-23 17:43:26.892708,-34
2021-12-23 17:43:26.892717,-48
2021-12-23 17:43:26.892725,-39
2021-12-23 17:43:26.892732,-25
2021-12-23 17:43:26.892740,-6
2021-12-23 17:43:26.892748,2
2021-12-23 17:43:26.892756,4
2021-12-23 17:43:26.892764,2
2021-12-23 17:43:26.892773,4
2021-12-23 17:43:26.892782,18
2021-12-23 17:43:26.892791,44
2021-12-23 17:43:26.892799,65
2021-12-23 17:43:26.892807,104
2021-12-23 17:43:26.892815,256
2021-12-23 17:43:26.892823,543
2021-12-23 17:43:27.028549,708
2021-12-23 17:43:27.028566,440
2021-12-23 17:43:27.028572,-191
2021-12-23 17:43:27.028577,-557
2021-12-23 17:43:27.028582,-303
2021-12-23 17:43:27.028588,-11
2021-12-23 17:43:27.028593,-11
2021-12-23 17:43:27.028598,46
2021-12-23 17:43:27.028603,160
2021-12-23 17:43:27.028608,142
2021-12-23 17:43:27.028613,95
2021-12-23 17:43:27.028618,109
2021-12-23 17:43:27.028623,116
2021-12-23 17:43:27.028628,118
2021-12-23 17:43:27.028634,142
2021-12-23 17:43:27.028639,153
2021-12-23 17:43:27.028644,146
2021-12-23 17:43:27.028649,153
2021-12-23 17:43:27.028654,179
2021-12-23 17:43:27.028659,216
2021-12-23 17:43:27.028664,247
2021-12-23 17:43:27.028669,258
2021-12-23 17:43:27.028675,265
2021-12-23 17:43:27.028680,303
2021-12-23 17:43:27.028685,361
2021-12-23 17:43:27.028690,401
2021-12-23 17:43:27.028695,408
2021-12-23 17:43:27.028700,401
2021-12-23 17:43:27.028705,391
2021-12-23 17:43:27.028710,382
2021-12-23 17:43:27.298307,352
2021-12-23 17:43:27.298352,296
2021-12-23 17:43:27.298375,216
2021-12-23 17:43:27.298383,95
2021-12-23 17:43:27.298390,-55
2021-12-23 17:43:27.298397,-167
2021-12-23 17:43:27.298403,-223
2021-12-23 17:43:27.298410,-256
2021-12-23 17:43:27.298416,-282
2021-12-23 17:43:27.298423,-317
2021-12-23 17:43:27.298429,-331
2021-12-23 17:43:27.298436,-300
2021-12-23 17:43:27.298442,-272
2021-12-23 17:43:27.298449,-258
2021-12-23 17:43:27.298455,-240
2021-12-23 17:43:27.298462,-237
2021-12-23 17:43:27.298468,-230
2021-12-23 17:43:27.298475,-198
2021-12-23 17:43:27.298481,-191
2021-12-23 17:43:27.298487,-200
2021-12-23 17:43:27.298494,-186
2021-12-23 17:43:27.298500,-179
2021-12-23 17:43:27.298507,-165
2021-12-23 17:43:27.298513,-130
2021-12-23 17:43:27.298520,-109
2021-12-23 17:43:27.298526,-102
2021-12-23 17:43:27.298533,-95
2021-12-23 17:43:27.298539,-93
2021-12-23 17:43:27.298546,-90
2021-12-23 17:43:27.298552,-74
2021-12-23 17:43:27.522529,-58
2021-12-23 17:43:27.522545,-48
2021-12-23 17:43:27.522550,-53
2021-12-23 17:43:27.522555,-65
2021-12-23 17:43:27.522559,-58
2021-12-23 17:43:27.522563,-41
2021-12-23 17:43:27.522568,-27
2021-12-23 17:43:27.522572,-16
2021-12-23 17:43:27.522577,-27
2021-12-23 17:43:27.522581,-62
2021-12-23 17:43:27.522585,-62
2021-12-23 17:43:27.522590,-30
2021-12-23 17:43:27.522594,-16
2021-12-23 17:43:27.522599,-11
2021-12-23 17:43:27.522603,-34
2021-12-23 17:43:27.522607,-74
2021-12-23 17:43:27.522612,-65
2021-12-23 17:43:27.522616,-27
2021-12-23 17:43:27.522621,-9
2021-12-23 17:43:27.522625,9
2021-12-23 17:43:27.522630,11
2021-12-23 17:43:27.522634,-9
2021-12-23 17:43:27.522639,0
2021-12-23 17:43:27.522643,23
2021-12-23 17:43:27.522648,18
2021-12-23 17:43:27.522652,11
2021-12-23 17:43:27.522657,11
2021-12-23 17:43:27.522661,2
2021-12-23 17:43:27.522665,6
2021-12-23 17:43:27.522670,25
2021-12-23 17:43:27.747998,39
2021-12-23 17:43:27.748013,46
2021-12-23 17:43:27.748018,39
2021-12-23 17:43:27.748023,32
2021-12-23 17:43:27.748028,53
2021-12-23 17:43:27.748032,125
2021-12-23 17:43:27.748037,326
2021-12-23 17:43:27.748041,606
2021-12-23 17:43:27.748046,664
2021-12-23 17:43:27.748050,270
2021-12-23 17:43:27.748055,-387
2021-12-23 17:43:27.748059,-652
2021-12-23 17:43:27.748064,-291
2021-12-23 17:43:27.748068,-39
2021-12-23 17:43:27.748073,-116
2021-12-23 17:43:27.748077,-53
2021-12-23 17:43:27.748082,76
2021-12-23 17:43:27.748086,62
2021-12-23 17:43:27.748091,53
2021-12-23 17:43:27.748095,95
2021-12-23 17:43:27.748100,95
2021-12-23 17:43:27.748104,72
2021-12-23 17:43:27.748109,67
2021-12-23 17:43:27.748113,69
2021-12-23 17:43:27.748118,88
2021-12-23 17:43:27.748122,114
2021-12-23 17:43:27.748127,125
2021-12-23 17:43:27.748131,146
2021-12-23 17:43:27.748136,181
2021-12-23 17:43:27.748140,221
2021-12-23 17:43:27.972476,254
2021-12-23 17:43:27.972491,286
2021-12-23 17:43:27.972496,310
2021-12-23 17:43:27.972501,335
2021-12-23 17:43:27.972505,359
2021-12-23 17:43:27.972510,370
2021-12-23 17:43:27.972514,363
2021-12-23 17:43:27.972519,317
2021-12-23 17:43:27.972523,249
2021-12-23 17:43:27.972528,184
2021-12-23 17:43:27.972532,116
2021-12-23 17:43:27.972537,44
2021-12-23 17:43:27.972541,-34
2021-12-23 17:43:27.972546,-128
2021-12-23 17:43:27.972550,-212
2021-12-23 17:43:27.972555,-244
2021-12-23 17:43:27.972559,-256
2021-12-23 17:43:27.972564,-272
2021-12-23 17:43:27.972568,-275
2021-12-23 17:43:27.972573,-268
2021-12-23 17:43:27.972577,-261
2021-12-23 17:43:27.972582,-247
2021-12-23 17:43:27.972586,-226
2021-12-23 17:43:27.972590,-207
2021-12-23 17:43:27.972595,-205
2021-12-23 17:43:27.972599,-207
2021-12-23 17:43:27.972604,-188
2021-12-23 17:43:27.972608,-167
2021-12-23 17:43:27.972613,-153
2021-12-23 17:43:27.972617,-132
2021-12-23 17:43:28.241650,-118
2021-12-23 17:43:28.241668,-116
2021-12-23 17:43:28.241675,-109
2021-12-23 17:43:28.241680,-100
2021-12-23 17:43:28.241685,-93
2021-12-23 17:43:28.241690,-81
2021-12-23 17:43:28.241696,-95
2021-12-23 17:43:28.241701,-121
2021-12-23 17:43:28.241706,-114
2021-12-23 17:43:28.241711,-97
2021-12-23 17:43:28.241717,-93
2021-12-23 17:43:28.241722,-90
2021-12-23 17:43:28.241731,-104
2021-12-23 17:43:28.241740,-118
2021-12-23 17:43:28.241748,-100
2021-12-23 17:43:28.241753,-102
2021-12-23 17:43:28.241758,-144
2021-12-23 17:43:28.241763,-156
2021-12-23 17:43:28.241769,-137
2021-12-23 17:43:28.241774,-123
2021-12-23 17:43:28.241779,-109
2021-12-23 17:43:28.241784,-100
2021-12-23 17:43:28.241789,-93
2021-12-23 17:43:28.241794,-83
2021-12-23 17:43:28.241800,-79
2021-12-23 17:43:28.241805,-81
2021-12-23 17:43:28.241811,-93
2021-12-23 17:43:28.241817,-107
2021-12-23 17:43:28.241822,-83
2021-12-23 17:43:28.241827,-46
2021-12-23 17:43:28.422857,-34
2021-12-23 17:43:28.422885,-23
2021-12-23 17:43:28.422899,-4
2021-12-23 17:43:28.422912,-11
2021-12-23 17:43:28.422924,-32
2021-12-23 17:43:28.422936,-44
2021-12-23 17:43:28.422948,-62
2021-12-23 17:43:28.422960,-58
2021-12-23 17:43:28.422972,-34
2021-12-23 17:43:28.422983,-32
2021-12-23 17:43:28.422995,-34
2021-12-23 17:43:28.423007,-37
2021-12-23 17:43:28.423019,-53
2021-12-23 17:43:28.423031,-41
2021-12-23 17:43:28.423043,-4
2021-12-23 17:43:28.423055,51
2021-12-23 17:43:28.423068,249
2021-12-23 17:43:28.423081,557
2021-12-23 17:43:28.423093,638
2021-12-23 17:43:28.423106,303
2021-12-23 17:43:28.423118,-286
2021-12-23 17:43:28.423130,-573
2021-12-23 17:43:28.423141,-289
2021-12-23 17:43:28.423152,-18
2021-12-23 17:43:28.423163,-25
2021-12-23 17:43:28.423174,46
2021-12-23 17:43:28.423186,156
2021-12-23 17:43:28.423197,128
2021-12-23 17:43:28.423209,95
2021-12-23 17:43:28.423221,107
2021-12-23 17:43:28.648771,114
2021-12-23 17:43:28.648801,132
2021-12-23 17:43:28.648806,146
2021-12-23 17:43:28.648818,135
2021-12-23 17:43:28.648823,123
2021-12-23 17:43:28.648829,118
2021-12-23 17:43:28.648859,128
2021-12-23 17:43:28.648871,160
2021-12-23 17:43:28.648879,193
2021-12-23 17:43:28.648886,214
2021-12-23 17:43:28.648895,230
2021-12-23 17:43:28.648902,242
2021-12-23 17:43:28.648907,272
2021-12-23 17:43:28.648911,324
2021-12-23 17:43:28.648916,349
2021-12-23 17:43:28.648920,345
2021-12-23 17:43:28.648925,338
2021-12-23 17:43:28.648929,321
2021-12-23 17:43:28.648934,286
2021-12-23 17:43:28.648938,237
2021-12-23 17:43:28.648942,158
2021-12-23 17:43:28.648948,34
2021-12-23 17:43:28.648953,-90
2021-12-23 17:43:28.648957,-153
2021-12-23 17:43:28.648962,-177
2021-12-23 17:43:28.648967,-223
2021-12-23 17:43:28.648973,-261
2021-12-23 17:43:28.648979,-279
2021-12-23 17:43:28.648984,-303
2021-12-23 17:43:28.648991,-305
2021-12-23 17:43:28.873087,-291
2021-12-23 17:43:28.873103,-291
2021-12-23 17:43:28.873108,-286
2021-12-23 17:43:28.873113,-279
2021-12-23 17:43:28.873117,-293
2021-12-23 17:43:28.873122,-291
2021-12-23 17:43:28.873126,-251
2021-12-23 17:43:28.873130,-219
2021-12-23 17:43:28.873135,-212
2021-12-23 17:43:28.873139,-216
2021-12-23 17:43:28.873144,-226
2021-12-23 17:43:28.873148,-219
2021-12-23 17:43:28.873152,-184
2021-12-23 17:43:28.873157,-160
2021-12-23 17:43:28.873161,-156
2021-12-23 17:43:28.873165,-156
2021-12-23 17:43:28.873170,-156
2021-12-23 17:43:28.873174,-144
2021-12-23 17:43:28.873181,-125
2021-12-23 17:43:28.873189,-111
2021-12-23 17:43:28.873197,-104
2021-12-23 17:43:28.873202,-109
2021-12-23 17:43:28.873206,-114
2021-12-23 17:43:28.873211,-100
2021-12-23 17:43:28.873215,-76
2021-12-23 17:43:28.873219,-62
2021-12-23 17:43:28.873224,-55
2021-12-23 17:43:28.873228,-62
2021-12-23 17:43:28.873233,-67
2021-12-23 17:43:28.873237,-46
2021-12-23 17:43:29.188782,-25
2021-12-23 17:43:29.188816,-20
2021-12-23 17:43:29.188829,-37
2021-12-23 17:43:29.188842,-90
2021-12-23 17:43:29.188854,-121
2021-12-23 17:43:29.188866,-90
2021-12-23 17:43:29.188878,-58
2021-12-23 17:43:29.188890,-53
2021-12-23 17:43:29.188902,-53
2021-12-23 17:43:29.188914,-83
2021-12-23 17:43:29.188925,-114
2021-12-23 17:43:29.188937,-86
2021-12-23 17:43:29.188949,-34
2021-12-23 17:43:29.188960,-4
2021-12-23 17:43:29.188972,13
2021-12-23 17:43:29.188983,13
2021-12-23 17:43:29.188995,13
2021-12-23 17:43:29.189006,25
2021-12-23 17:43:29.189018,18
2021-12-23 17:43:29.189029,6
2021-12-23 17:43:29.189041,-4
2021-12-23 17:43:29.189084,-23
2021-12-23 17:43:29.189095,-13
2021-12-23 17:43:29.189107,20
2021-12-23 17:43:29.189118,39
2021-12-23 17:43:29.189129,46
2021-12-23 17:43:29.189140,48
2021-12-23 17:43:29.189151,30
2021-12-23 17:43:29.189162,4
2021-12-23 17:43:29.189173,41
2021-12-23 17:43:29.368281,233
2021-12-23 17:43:29.368307,543
2021-12-23 17:43:29.368316,671
2021-12-23 17:43:29.368323,389
2021-12-23 17:43:29.368330,-191
2021-12-23 17:43:29.368336,-578
2021-12-23 17:43:29.368343,-377
2021-12-23 17:43:29.368349,-55
2021-12-23 17:43:29.368408,-39
2021-12-23 17:43:29.368416,-30
2021-12-23 17:43:29.368422,72
2021-12-23 17:43:29.368429,90
2021-12-23 17:43:29.368435,88
2021-12-23 17:43:29.368442,135
2021-12-23 17:43:29.368449,137
2021-12-23 17:43:29.368455,95
2021-12-23 17:43:29.368462,107
2021-12-23 17:43:29.368468,135
2021-12-23 17:43:29.368475,123
2021-12-23 17:43:29.368481,128
2021-12-23 17:43:29.368488,144
2021-12-23 17:43:29.368495,135
2021-12-23 17:43:29.368501,156
2021-12-23 17:43:29.368508,209
2021-12-23 17:43:29.368514,247
2021-12-23 17:43:29.368521,279
2021-12-23 17:43:29.368527,310
2021-12-23 17:43:29.368534,324
2021-12-23 17:43:29.368541,356
2021-12-23 17:43:29.368547,396
2021-12-23 17:43:29.593206,403
2021-12-23 17:43:29.593226,384
2021-12-23 17:43:29.593234,347
2021-12-23 17:43:29.593241,282
2021-12-23 17:43:29.593247,207
2021-12-23 17:43:29.593254,130
2021-12-23 17:43:29.593260,39
2021-12-23 17:43:29.593267,-65
2021-12-23 17:43:29.593273,-153
2021-12-23 17:43:29.593280,-202
2021-12-23 17:43:29.593286,-219
2021-12-23 17:43:29.593292,-226
2021-12-23 17:43:29.593299,-237
2021-12-23 17:43:29.593305,-263
2021-12-23 17:43:29.593312,-293
2021-12-23 17:43:29.593318,-282
2021-12-23 17:43:29.593325,-223
2021-12-23 17:43:29.593331,-174
2021-12-23 17:43:29.593338,-165
2021-12-23 17:43:29.593344,-184
2021-12-23 17:43:29.593350,-200
2021-12-23 17:43:29.593357,-179
2021-12-23 17:43:29.593363,-142
2021-12-23 17:43:29.593370,-125
2021-12-23 17:43:29.593376,-109
2021-12-23 17:43:29.593382,-95
2021-12-23 17:43:29.593389,-90
2021-12-23 17:43:29.593395,-86
2021-12-23 17:43:29.593402,-69
2021-12-23 17:43:29.593408,-41
2021-12-23 17:43:29.862491,-27
2021-12-23 17:43:29.862507,-41
2021-12-23 17:43:29.862512,-67
2021-12-23 17:43:29.862517,-102
2021-12-23 17:43:29.862521,-116
2021-12-23 17:43:29.862526,-83
2021-12-23 17:43:29.862530,-69
2021-12-23 17:43:29.862535,-107
2021-12-23 17:43:29.862539,-144
2021-12-23 17:43:29.862544,-151
2021-12-23 17:43:29.862548,-137
2021-12-23 17:43:29.862553,-114
2021-12-23 17:43:29.862557,-102
2021-12-23 17:43:29.862562,-109
2021-12-23 17:43:29.862566,-114
2021-12-23 17:43:29.862571,-102
2021-12-23 17:43:29.862575,-79
2021-12-23 17:43:29.862580,-58
2021-12-23 17:43:29.862584,-48
2021-12-23 17:43:29.862589,-51
2021-12-23 17:43:29.862593,-44
2021-12-23 17:43:29.862598,-39
2021-12-23 17:43:29.862602,-44
2021-12-23 17:43:29.862607,-25
2021-12-23 17:43:29.862611,11
2021-12-23 17:43:29.862616,23
2021-12-23 17:43:29.862620,23
2021-12-23 17:43:29.862625,44
2021-12-23 17:43:29.862629,76
2021-12-23 17:43:29.862634,81
2021-12-23 17:43:30.043453,51
2021-12-23 17:43:30.043475,23
2021-12-23 17:43:30.043483,27
2021-12-23 17:43:30.043489,48
2021-12-23 17:43:30.043496,62
2021-12-23 17:43:30.043502,65
2021-12-23 17:43:30.043509,48
2021-12-23 17:43:30.043515,23
2021-12-23 17:43:30.043521,27
2021-12-23 17:43:30.043528,53
2021-12-23 17:43:30.043534,53
2021-12-23 17:43:30.043541,72
2021-12-23 17:43:30.043547,212
2021-12-23 17:43:30.043553,477
2021-12-23 17:43:30.043560,613
2021-12-23 17:43:30.043566,333
2021-12-23 17:43:30.043572,-265
2021-12-23 17:43:30.043579,-578
2021-12-23 17:43:30.043585,-282
2021-12-23 17:43:30.043592,13
2021-12-23 17:43:30.043598,-9
2021-12-23 17:43:30.043604,27
