Time,ECG
2021-12-23 17:32:57.569653,-53
2021-12-23 17:32:57.569672,-79
2021-12-23 17:32:57.569680,-93
2021-12-23 17:32:57.569687,-118
2021-12-23 17:32:57.569694,-109
2021-12-23 17:32:57.569701,-72
2021-12-23 17:32:57.569707,-55
2021-12-23 17:32:57.569714,-46
2021-12-23 17:32:57.569720,-53
2021-12-23 17:32:57.569727,-88
2021-12-23 17:32:57.569733,-102
2021-12-23 17:32:57.569740,-76
2021-12-23 17:32:57.569746,-65
2021-12-23 17:32:57.569752,-76
2021-12-23 17:32:57.569759,-76
2021-12-23 17:32:57.569765,-76
2021-12-23 17:32:57.569772,-83
2021-12-23 17:32:57.569780,-67
2021-12-23 17:32:57.569786,-53
2021-12-23 17:32:57.569793,-62
2021-12-23 17:32:57.569799,-69
2021-12-23 17:32:57.569805,-76
2021-12-23 17:32:57.569812,-74
2021-12-23 17:32:57.569818,-51
2021-12-23 17:32:57.569825,-37
2021-12-23 17:32:57.569831,-32
2021-12-23 17:32:57.569838,-16
2021-12-23 17:32:57.569844,-13
2021-12-23 17:32:57.569851,-6
2021-12-23 17:32:57.569857,60
2021-12-23 17:32:57.705240,242
2021-12-23 17:32:57.705262,498
2021-12-23 17:32:57.705270,561
2021-12-23 17:32:57.705277,265
2021-12-23 17:32:57.705283,-261
2021-12-23 17:32:57.705290,-615
2021-12-23 17:32:57.705298,-445
2021-12-23 17:32:57.705305,-146
2021-12-23 17:32:57.705311,-128
2021-12-23 17:32:57.705318,-139
2021-12-23 17:32:57.705324,-41
2021-12-23 17:32:57.705331,2
2021-12-23 17:32:57.705338,-4
2021-12-23 17:32:57.705344,20
2021-12-23 17:32:57.705351,23
2021-12-23 17:32:57.705358,-16
2021-12-23 17:32:57.705364,-9
2021-12-23 17:32:57.705372,-2
2021-12-23 17:32:57.705378,-72
2021-12-23 17:32:57.705385,-88
2021-12-23 17:32:57.705391,-48
2021-12-23 17:32:57.705398,-109
2021-12-23 17:32:57.705404,-111
2021-12-23 17:32:57.705411,-2
2021-12-23 17:32:57.705417,53
2021-12-23 17:32:57.705424,72
2021-12-23 17:32:57.705430,114
2021-12-23 17:32:57.705437,137
2021-12-23 17:32:57.705444,156
2021-12-23 17:32:57.705452,191
2021-12-23 17:32:57.975818,205
2021-12-23 17:32:57.975848,186
2021-12-23 17:32:57.975860,132
2021-12-23 17:32:57.975870,39
2021-12-23 17:32:57.975880,-62
2021-12-23 17:32:57.975890,-146
2021-12-23 17:32:57.975900,-198
2021-12-23 17:32:57.975910,-240
2021-12-23 17:32:57.975920,-300
2021-12-23 17:32:57.975930,-335
2021-12-23 17:32:57.975940,-303
2021-12-23 17:32:57.975950,-275
2021-12-23 17:32:57.975960,-289
2021-12-23 17:32:57.975976,-277
2021-12-23 17:32:57.975986,-265
2021-12-23 17:32:57.975996,-286
2021-12-23 17:32:57.976006,-270
2021-12-23 17:32:57.976016,-221
2021-12-23 17:32:57.976025,-188
2021-12-23 17:32:57.976035,-174
2021-12-23 17:32:57.976045,-181
2021-12-23 17:32:57.976055,-179
2021-12-23 17:32:57.976065,-144
2021-12-23 17:32:57.976075,-116
2021-12-23 17:32:57.976085,-107
2021-12-23 17:32:57.976095,-97
2021-12-23 17:32:57.976105,-95
2021-12-23 17:32:57.976115,-93
2021-12-23 17:32:57.976124,-76
2021-12-23 17:32:57.976135,-60
2021-12-23 17:32:58.199371,-51
2021-12-23 17:32:58.199392,-53
2021-12-23 17:32:58.199399,-65
2021-12-23 17:32:58.199406,-65
2021-12-23 17:32:58.199412,-46
2021-12-23 17:32:58.199419,-39
2021-12-23 17:32:58.199425,-67
2021-12-23 17:32:58.199432,-111
2021-12-23 17:32:58.199438,-125
2021-12-23 17:32:58.199444,-107
2021-12-23 17:32:58.199451,-90
2021-12-23 17:32:58.199457,-83
2021-12-23 17:32:58.199464,-83
2021-12-23 17:32:58.199470,-109
2021-12-23 17:32:58.199477,-121
2021-12-23 17:32:58.199483,-37
2021-12-23 17:32:58.199490,53
2021-12-23 17:32:58.199499,25
2021-12-23 17:32:58.199505,-30
2021-12-23 17:32:58.199512,-4
2021-12-23 17:32:58.199519,34
2021-12-23 17:32:58.199525,0
2021-12-23 17:32:58.199532,-83
2021-12-23 17:32:58.199538,-114
2021-12-23 17:32:58.199545,-62
2021-12-23 17:32:58.199551,-72
2021-12-23 17:32:58.199557,-144
2021-12-23 17:32:58.199564,-132
2021-12-23 17:32:58.199570,-65
2021-12-23 17:32:58.199577,-20
2021-12-23 17:32:58.424809,-11
2021-12-23 17:32:58.424841,-18
2021-12-23 17:32:58.424853,2
2021-12-23 17:32:58.424863,65
2021-12-23 17:32:58.424874,188
2021-12-23 17:32:58.424884,412
2021-12-23 17:32:58.424894,603
2021-12-23 17:32:58.424911,505
2021-12-23 17:32:58.424921,79
2021-12-23 17:32:58.424931,-461
2021-12-23 17:32:58.424941,-592
2021-12-23 17:32:58.424951,-254
2021-12-23 17:32:58.424961,-121
2021-12-23 17:32:58.424971,-188
2021-12-23 17:32:58.424981,-72
2021-12-23 17:32:58.424991,20
2021-12-23 17:32:58.425001,-18
2021-12-23 17:32:58.425011,-4
2021-12-23 17:32:58.425021,32
2021-12-23 17:32:58.425031,23
2021-12-23 17:32:58.425041,34
2021-12-23 17:32:58.425051,62
2021-12-23 17:32:58.425061,76
2021-12-23 17:32:58.425071,93
2021-12-23 17:32:58.425081,114
2021-12-23 17:32:58.425091,132
2021-12-23 17:32:58.425100,160
2021-12-23 17:32:58.425110,191
2021-12-23 17:32:58.425120,233
2021-12-23 17:32:58.425131,279
2021-12-23 17:32:58.605344,310
2021-12-23 17:32:58.605367,333
2021-12-23 17:32:58.605374,366
2021-12-23 17:32:58.605379,380
2021-12-23 17:32:58.605385,377
2021-12-23 17:32:58.605391,363
2021-12-23 17:32:58.605396,312
2021-12-23 17:32:58.605401,247
2021-12-23 17:32:58.605407,181
2021-12-23 17:32:58.605412,97
2021-12-23 17:32:58.605417,-2
2021-12-23 17:32:58.605422,-102
2021-12-23 17:32:58.605427,-174
2021-12-23 17:32:58.605432,-191
2021-12-23 17:32:58.605437,-186
2021-12-23 17:32:58.605442,-198
2021-12-23 17:32:58.605447,-195
2021-12-23 17:32:58.605452,-181
2021-12-23 17:32:58.605457,-174
2021-12-23 17:32:58.605462,-151
2021-12-23 17:32:58.605468,-130
2021-12-23 17:32:58.605473,-135
2021-12-23 17:32:58.605478,-125
2021-12-23 17:32:58.605483,-114
2021-12-23 17:32:58.605498,-114
2021-12-23 17:32:58.605504,-100
2021-12-23 17:32:58.605509,-86
2021-12-23 17:32:58.605514,-97
2021-12-23 17:32:58.605519,-100
2021-12-23 17:32:58.605524,-90
2021-12-23 17:32:58.829819,-95
2021-12-23 17:32:58.829848,-118
2021-12-23 17:32:58.829861,-151
2021-12-23 17:32:58.829873,-160
2021-12-23 17:32:58.829885,-151
2021-12-23 17:32:58.829897,-170
2021-12-23 17:32:58.829909,-184
2021-12-23 17:32:58.829922,-156
2021-12-23 17:32:58.829934,-132
2021-12-23 17:32:58.829946,-137
2021-12-23 17:32:58.829958,-137
2021-12-23 17:32:58.829970,-153
2021-12-23 17:32:58.829982,-179
2021-12-23 17:32:58.829994,-174
2021-12-23 17:32:58.830006,-151
2021-12-23 17:32:58.830018,-142
2021-12-23 17:32:58.830030,-137
2021-12-23 17:32:58.830042,-132
2021-12-23 17:32:58.830054,-137
2021-12-23 17:32:58.830066,-142
2021-12-23 17:32:58.830078,-132
2021-12-23 17:32:58.830090,-121
2021-12-23 17:32:58.830104,-123
2021-12-23 17:32:58.830116,-125
2021-12-23 17:32:58.830128,-116
2021-12-23 17:32:58.830140,-100
2021-12-23 17:32:58.830152,-86
2021-12-23 17:32:58.830164,-83
2021-12-23 17:32:58.830175,-81
2021-12-23 17:32:58.830187,-62
2021-12-23 17:32:59.055132,-32
2021-12-23 17:32:59.055154,-11
2021-12-23 17:32:59.055162,-13
2021-12-23 17:32:59.055168,-37
2021-12-23 17:32:59.055175,-65
2021-12-23 17:32:59.055181,-69
2021-12-23 17:32:59.055187,-48
2021-12-23 17:32:59.055194,-32
2021-12-23 17:32:59.055200,-34
2021-12-23 17:32:59.055207,-39
2021-12-23 17:32:59.055213,-67
2021-12-23 17:32:59.055219,-100
2021-12-23 17:32:59.055226,-81
2021-12-23 17:32:59.055232,-48
2021-12-23 17:32:59.055238,-16
2021-12-23 17:32:59.055245,153
2021-12-23 17:32:59.055251,412
2021-12-23 17:32:59.055257,435
2021-12-23 17:32:59.055264,102
2021-12-23 17:32:59.055270,-417
2021-12-23 17:32:59.055276,-631
2021-12-23 17:32:59.055283,-335
2021-12-23 17:32:59.055289,-102
2021-12-23 17:32:59.055295,-121
2021-12-23 17:32:59.055305,-32
2021-12-23 17:32:59.055312,74
2021-12-23 17:32:59.055318,51
2021-12-23 17:32:59.055325,41
2021-12-23 17:32:59.055331,74
2021-12-23 17:32:59.055338,83
2021-12-23 17:32:59.369139,95
2021-12-23 17:32:59.369170,125
2021-12-23 17:32:59.369182,142
2021-12-23 17:32:59.369193,125
2021-12-23 17:32:59.369203,109
2021-12-23 17:32:59.369213,137
2021-12-23 17:32:59.369223,172
2021-12-23 17:32:59.369233,170
2021-12-23 17:32:59.369243,174
2021-12-23 17:32:59.369254,200
2021-12-23 17:32:59.369264,212
2021-12-23 17:32:59.369274,251
2021-12-23 17:32:59.369284,317
2021-12-23 17:32:59.369294,349
2021-12-23 17:32:59.369304,356
2021-12-23 17:32:59.369314,345
2021-12-23 17:32:59.369324,312
2021-12-23 17:32:59.369334,256
2021-12-23 17:32:59.369345,193
2021-12-23 17:32:59.369355,123
2021-12-23 17:32:59.369365,39
2021-12-23 17:32:59.369375,-46
2021-12-23 17:32:59.369385,-104
2021-12-23 17:32:59.369395,-116
2021-12-23 17:32:59.369405,-116
2021-12-23 17:32:59.369415,-121
2021-12-23 17:32:59.369425,-123
2021-12-23 17:32:59.369435,-135
2021-12-23 17:32:59.369445,-130
2021-12-23 17:32:59.369456,-97
2021-12-23 17:32:59.550428,-72
2021-12-23 17:32:59.550451,-51
2021-12-23 17:32:59.550459,-41
2021-12-23 17:32:59.550465,-51
2021-12-23 17:32:59.550472,-39
2021-12-23 17:32:59.550478,-2
2021-12-23 17:32:59.550484,16
2021-12-23 17:32:59.550491,25
2021-12-23 17:32:59.550497,27
2021-12-23 17:32:59.550504,2
2021-12-23 17:32:59.550510,-4
2021-12-23 17:32:59.550517,30
2021-12-23 17:32:59.550523,46
2021-12-23 17:32:59.550529,44
2021-12-23 17:32:59.550535,32
2021-12-23 17:32:59.550542,-9
2021-12-23 17:32:59.550548,-25
2021-12-23 17:32:59.550554,6
2021-12-23 17:32:59.550561,9
2021-12-23 17:32:59.550567,-34
2021-12-23 17:32:59.550573,-65
2021-12-23 17:32:59.550580,-69
2021-12-23 17:32:59.550586,-58
2021-12-23 17:32:59.550592,-39
2021-12-23 17:32:59.550599,-23
2021-12-23 17:32:59.550605,-20
2021-12-23 17:32:59.550611,-30
2021-12-23 17:32:59.550618,-34
2021-12-23 17:32:59.550624,-25
2021-12-23 17:32:59.550630,-13
2021-12-23 17:32:59.819857,-6
2021-12-23 17:32:59.819887,6
2021-12-23 17:32:59.819899,11
2021-12-23 17:32:59.819909,2
2021-12-23 17:32:59.819919,16
2021-12-23 17:32:59.819929,53
2021-12-23 17:32:59.819939,62
2021-12-23 17:32:59.819949,37
2021-12-23 17:32:59.819958,-2
2021-12-23 17:32:59.819968,-25
2021-12-23 17:32:59.819985,-9
2021-12-23 17:32:59.819996,4
2021-12-23 17:32:59.820006,-44
2021-12-23 17:32:59.820016,-118
2021-12-23 17:32:59.820026,-160
2021-12-23 17:32:59.820036,-167
2021-12-23 17:32:59.820046,-151
2021-12-23 17:32:59.820056,-107
2021-12-23 17:32:59.820066,-46
2021-12-23 17:32:59.820076,76
2021-12-23 17:32:59.820086,303
2021-12-23 17:32:59.820096,461
2021-12-23 17:32:59.820106,289
2021-12-23 17:32:59.820116,-242
2021-12-23 17:32:59.820126,-671
2021-12-23 17:32:59.820136,-489
2021-12-23 17:32:59.820146,-116
2021-12-23 17:32:59.820156,-107
2021-12-23 17:32:59.820166,-121
2021-12-23 17:32:59.820176,37
2021-12-23 17:33:00.000324,88
2021-12-23 17:33:00.000344,46
2021-12-23 17:33:00.000352,65
2021-12-23 17:33:00.000359,93
2021-12-23 17:33:00.000366,95
2021-12-23 17:33:00.000375,116
2021-12-23 17:33:00.000386,142
2021-12-23 17:33:00.000393,128
2021-12-23 17:33:00.000400,114
2021-12-23 17:33:00.000406,137
2021-12-23 17:33:00.000413,174
2021-12-23 17:33:00.000419,214
2021-12-23 17:33:00.000426,247
2021-12-23 17:33:00.000432,256
2021-12-23 17:33:00.000439,270
2021-12-23 17:33:00.000446,312
2021-12-23 17:33:00.000452,354
2021-12-23 17:33:00.000459,377
2021-12-23 17:33:00.000465,387
2021-12-23 17:33:00.000472,370
2021-12-23 17:33:00.000478,349
2021-12-23 17:33:00.000485,319
2021-12-23 17:33:00.000491,235
2021-12-23 17:33:00.000498,123
2021-12-23 17:33:00.000504,41
2021-12-23 17:33:00.000516,-25
2021-12-23 17:33:00.000522,-90
2021-12-23 17:33:00.000529,-125
2021-12-23 17:33:00.000535,-137
2021-12-23 17:33:00.000542,-135
2021-12-23 17:33:00.269891,-135
2021-12-23 17:33:00.269922,-139
2021-12-23 17:33:00.269935,-132
2021-12-23 17:33:00.269945,-118
2021-12-23 17:33:00.269955,-107
2021-12-23 17:33:00.269964,-86
2021-12-23 17:33:00.269974,-86
2021-12-23 17:33:00.269984,-109
2021-12-23 17:33:00.269994,-111
2021-12-23 17:33:00.270004,-109
2021-12-23 17:33:00.270014,-102
2021-12-23 17:33:00.270024,-46
2021-12-23 17:33:00.270033,-11
2021-12-23 17:33:00.270043,-44
2021-12-23 17:33:00.270053,-41
2021-12-23 17:33:00.270063,-13
2021-12-23 17:33:00.270073,-16
2021-12-23 17:33:00.270082,-18
2021-12-23 17:33:00.270092,-46
2021-12-23 17:33:00.270102,-100
2021-12-23 17:33:00.270112,-95
2021-12-23 17:33:00.270122,-67
2021-12-23 17:33:00.270131,-74
2021-12-23 17:33:00.270141,-72
2021-12-23 17:33:00.270151,-62
2021-12-23 17:33:00.270161,-81
2021-12-23 17:33:00.270171,-88
2021-12-23 17:33:00.270181,-79
2021-12-23 17:33:00.270190,-74
2021-12-23 17:33:00.270200,-62
2021-12-23 17:33:00.628985,-55
2021-12-23 17:33:00.629007,-48
2021-12-23 17:33:00.629014,-32
2021-12-23 17:33:00.629021,-18
2021-12-23 17:33:00.629028,-6
2021-12-23 17:33:00.629034,-13
2021-12-23 17:33:00.629040,-53
2021-12-23 17:33:00.629047,-72
2021-12-23 17:33:00.629053,-44
2021-12-23 17:33:00.629059,-30
2021-12-23 17:33:00.629066,-44
2021-12-23 17:33:00.629072,-67
2021-12-23 17:33:00.629079,-90
2021-12-23 17:33:00.629085,-100
2021-12-23 17:33:00.629092,-102
2021-12-23 17:33:00.629098,-97
2021-12-23 17:33:00.629108,-74
2021-12-23 17:33:00.629115,-34
2021-12-23 17:33:00.629121,83
2021-12-23 17:33:00.629128,347
2021-12-23 17:33:00.629134,519
2021-12-23 17:33:00.629140,300
2021-12-23 17:33:00.629147,-279
2021-12-23 17:33:00.629153,-683
2021-12-23 17:33:00.629160,-447
2021-12-23 17:33:00.629166,-90
2021-12-23 17:33:00.629173,-107
2021-12-23 17:33:00.629179,-128
2021-12-23 17:33:00.629185,4
2021-12-23 17:33:00.629192,30
2021-12-23 17:33:00.720213,2
2021-12-23 17:33:00.720244,51
2021-12-23 17:33:00.720256,81
2021-12-23 17:33:00.720266,60
2021-12-23 17:33:00.720276,65
2021-12-23 17:33:00.720286,76
2021-12-23 17:33:00.720296,69
2021-12-23 17:33:00.720306,93
2021-12-23 17:33:00.720316,132
2021-12-23 17:33:00.720326,156
2021-12-23 17:33:00.720336,177
2021-12-23 17:33:00.720346,198
2021-12-23 17:33:00.720356,233
2021-12-23 17:33:00.720366,284
2021-12-23 17:33:00.720376,326
2021-12-23 17:33:00.720386,349
2021-12-23 17:33:00.720396,356
2021-12-23 17:33:00.720406,331
2021-12-23 17:33:00.720416,307
2021-12-23 17:33:00.720426,303
2021-12-23 17:33:00.720436,268
2021-12-23 17:33:00.720446,188
2021-12-23 17:33:00.720455,102
2021-12-23 17:33:00.720465,9
2021-12-23 17:33:00.720475,-97
2021-12-23 17:33:00.720485,-163
2021-12-23 17:33:00.720495,-167
2021-12-23 17:33:00.720505,-184
2021-12-23 17:33:00.720515,-216
2021-12-23 17:33:00.720525,-242
2021-12-23 17:33:00.945892,-247
2021-12-23 17:33:00.945924,-202
2021-12-23 17:33:00.945936,-188
2021-12-23 17:33:00.945946,-251
2021-12-23 17:33:00.945956,-263
2021-12-23 17:33:00.945967,-184
2021-12-23 17:33:00.945976,-123
2021-12-23 17:33:00.945986,-109
2021-12-23 17:33:00.945996,-97
2021-12-23 17:33:00.946005,-90
2021-12-23 17:33:00.946015,-109
2021-12-23 17:33:00.946025,-118
2021-12-23 17:33:00.946035,-88
2021-12-23 17:33:00.946050,-58
2021-12-23 17:33:00.946061,-51
2021-12-23 17:33:00.946070,-60
2021-12-23 17:33:00.946080,-88
2021-12-23 17:33:00.946090,-116
2021-12-23 17:33:00.946100,-118
2021-12-23 17:33:00.946110,-97
2021-12-23 17:33:00.946120,-90
2021-12-23 17:33:00.946130,-102
2021-12-23 17:33:00.946140,-111
2021-12-23 17:33:00.946150,-104
2021-12-23 17:33:00.946160,-86
2021-12-23 17:33:00.946170,-72
2021-12-23 17:33:00.946180,-79
2021-12-23 17:33:00.946190,-93
2021-12-23 17:33:00.946200,-86
2021-12-23 17:33:00.946210,-62
2021-12-23 17:33:01.214827,-62
2021-12-23 17:33:01.214857,-76
2021-12-23 17:33:01.214869,-67
2021-12-23 17:33:01.214880,-55
2021-12-23 17:33:01.214890,-60
2021-12-23 17:33:01.214900,-58
2021-12-23 17:33:01.214910,-44
2021-12-23 17:33:01.214919,-32
2021-12-23 17:33:01.214929,-30
2021-12-23 17:33:01.214939,-69
2021-12-23 17:33:01.214949,-114
2021-12-23 17:33:01.214959,-107
2021-12-23 17:33:01.214969,-100
2021-12-23 17:33:01.214978,-109
2021-12-23 17:33:01.214988,-104
2021-12-23 17:33:01.214998,-116
2021-12-23 17:33:01.215007,-116
2021-12-23 17:33:01.215017,9
2021-12-23 17:33:01.215027,277
2021-12-23 17:33:01.215037,515
2021-12-23 17:33:01.215047,442
2021-12-23 17:33:01.215056,-46
2021-12-23 17:33:01.215066,-603
2021-12-23 17:33:01.215076,-603
2021-12-23 17:33:01.215086,-198
2021-12-23 17:33:01.215096,-79
2021-12-23 17:33:01.215105,-123
2021-12-23 17:33:01.215115,-16
2021-12-23 17:33:01.215125,27
2021-12-23 17:33:01.215135,-39
2021-12-23 17:33:01.438955,-37
2021-12-23 17:33:01.438985,18
2021-12-23 17:33:01.438997,18
2021-12-23 17:33:01.439007,-9
2021-12-23 17:33:01.439017,9
2021-12-23 17:33:01.439027,53
2021-12-23 17:33:01.439037,81
2021-12-23 17:33:01.439047,100
2021-12-23 17:33:01.439058,114
2021-12-23 17:33:01.439068,111
2021-12-23 17:33:01.439078,137
2021-12-23 17:33:01.439088,198
2021-12-23 17:33:01.439098,251
2021-12-23 17:33:01.439108,293
2021-12-23 17:33:01.439118,307
2021-12-23 17:33:01.439128,296
2021-12-23 17:33:01.439138,305
2021-12-23 17:33:01.439155,331
2021-12-23 17:33:01.439165,321
2021-12-23 17:33:01.439175,284
2021-12-23 17:33:01.439185,207
2021-12-23 17:33:01.439195,93
2021-12-23 17:33:01.439205,9
2021-12-23 17:33:01.439215,-34
2021-12-23 17:33:01.439226,-86
2021-12-23 17:33:01.439235,-128
2021-12-23 17:33:01.439246,-158
2021-12-23 17:33:01.439255,-184
2021-12-23 17:33:01.439266,-179
2021-12-23 17:33:01.439275,-146
2021-12-23 17:33:01.620586,-128
2021-12-23 17:33:01.620618,-118
2021-12-23 17:33:01.620630,-118
2021-12-23 17:33:01.620641,-123
2021-12-23 17:33:01.620651,-121
2021-12-23 17:33:01.620661,-128
2021-12-23 17:33:01.620671,-123
2021-12-23 17:33:01.620681,-107
2021-12-23 17:33:01.620691,-125
2021-12-23 17:33:01.620702,-142
2021-12-23 17:33:01.620712,-104
2021-12-23 17:33:01.620722,-69
2021-12-23 17:33:01.620732,-60
2021-12-23 17:33:01.620742,-65
2021-12-23 17:33:01.620752,-95
2021-12-23 17:33:01.620762,-107
2021-12-23 17:33:01.620772,-79
2021-12-23 17:33:01.620782,-67
2021-12-23 17:33:01.620792,-83
2021-12-23 17:33:01.620802,-86
2021-12-23 17:33:01.620812,-90
2021-12-23 17:33:01.620822,-109
2021-12-23 17:33:01.620832,-114
2021-12-23 17:33:01.620842,-86
2021-12-23 17:33:01.620852,-58
2021-12-23 17:33:01.620862,-60
2021-12-23 17:33:01.620872,-76
2021-12-23 17:33:01.620882,-86
2021-12-23 17:33:01.620892,-79
2021-12-23 17:33:01.620902,-65
2021-12-23 17:33:01.845672,-58
2021-12-23 17:33:01.845704,-62
2021-12-23 17:33:01.845716,-60
2021-12-23 17:33:01.845726,-44
2021-12-23 17:33:01.845736,-46
2021-12-23 17:33:01.845747,-93
2021-12-23 17:33:01.845757,-142
2021-12-23 17:33:01.845767,-174
2021-12-23 17:33:01.845777,-195
2021-12-23 17:33:01.845787,-181
2021-12-23 17:33:01.845797,-172
2021-12-23 17:33:01.845808,-179
2021-12-23 17:33:01.845818,-177
2021-12-23 17:33:01.845828,-200
2021-12-23 17:33:01.845838,-226
2021-12-23 17:33:01.845849,-207
2021-12-23 17:33:01.845859,-181
2021-12-23 17:33:01.845869,-153
2021-12-23 17:33:01.845879,-83
2021-12-23 17:33:01.845889,88
2021-12-23 17:33:01.845899,354
2021-12-23 17:33:01.845909,461
2021-12-23 17:33:01.845919,188
2021-12-23 17:33:01.845930,-361
2021-12-23 17:33:01.845940,-713
2021-12-23 17:33:01.845950,-482
2021-12-23 17:33:01.845960,-151
2021-12-23 17:33:01.845970,-137
2021-12-23 17:33:01.845980,-88
2021-12-23 17:33:01.845995,58
2021-12-23 17:33:02.070901,51
2021-12-23 17:33:02.070931,11
2021-12-23 17:33:02.070944,55
2021-12-23 17:33:02.070954,74
2021-12-23 17:33:02.070964,65
2021-12-23 17:33:02.070973,93
2021-12-23 17:33:02.070983,107
2021-12-23 17:33:02.070993,79
2021-12-23 17:33:02.071003,76
2021-12-23 17:33:02.071012,95
2021-12-23 17:33:02.071022,116
2021-12-23 17:33:02.071032,158
2021-12-23 17:33:02.071042,184
2021-12-23 17:33:02.071051,191
2021-12-23 17:33:02.071061,240
2021-12-23 17:33:02.071071,298
2021-12-23 17:33:02.071081,331
2021-12-23 17:33:02.071090,363
2021-12-23 17:33:02.071100,370
2021-12-23 17:33:02.071110,349
2021-12-23 17:33:02.071119,333
2021-12-23 17:33:02.071129,284
2021-12-23 17:33:02.071139,193
2021-12-23 17:33:02.071149,104
2021-12-23 17:33:02.071159,25
2021-12-23 17:33:02.071168,-44
2021-12-23 17:33:02.071178,-100
2021-12-23 17:33:02.071188,-142
2021-12-23 17:33:02.071198,-158
2021-12-23 17:33:02.071208,-151
2021-12-23 17:33:02.295692,-151
2021-12-23 17:33:02.295722,-151
2021-12-23 17:33:02.295735,-144
2021-12-23 17:33:02.295745,-135
2021-12-23 17:33:02.295755,-114
2021-12-23 17:33:02.295765,-107
2021-12-23 17:33:02.295776,-130
2021-12-23 17:33:02.295786,-125
2021-12-23 17:33:02.295796,-93
2021-12-23 17:33:02.295806,-104
2021-12-23 17:33:02.295816,-151
2021-12-23 17:33:02.295826,-198
2021-12-23 17:33:02.295836,-212
2021-12-23 17:33:02.295846,-177
2021-12-23 17:33:02.295856,-139
2021-12-23 17:33:02.295866,-128
2021-12-23 17:33:02.295876,-111
2021-12-23 17:33:02.295886,-95
2021-12-23 17:33:02.295896,-95
2021-12-23 17:33:02.295907,-95
2021-12-23 17:33:02.295917,-83
2021-12-23 17:33:02.295927,-76
2021-12-23 17:33:02.295937,-74
2021-12-23 17:33:02.295947,-88
2021-12-23 17:33:02.295957,-102
2021-12-23 17:33:02.295967,-83
2021-12-23 17:33:02.295977,-65
2021-12-23 17:33:02.295987,-69
2021-12-23 17:33:02.295997,-58
2021-12-23 17:33:02.296007,-44
2021-12-23 17:33:02.520172,-48
2021-12-23 17:33:02.520193,-39
2021-12-23 17:33:02.520201,-11
2021-12-23 17:33:02.520208,13
2021-12-23 17:33:02.520215,18
2021-12-23 17:33:02.520221,-9
2021-12-23 17:33:02.520228,-20
2021-12-23 17:33:02.520235,20
2021-12-23 17:33:02.520241,53
2021-12-23 17:33:02.520248,44
2021-12-23 17:33:02.520255,23
2021-12-23 17:33:02.520261,-11
2021-12-23 17:33:02.520268,-39
2021-12-23 17:33:02.520274,-46
2021-12-23 17:33:02.520281,-51
2021-12-23 17:33:02.520288,-65
2021-12-23 17:33:02.520294,-76
2021-12-23 17:33:02.520301,-90
2021-12-23 17:33:02.520308,-97
2021-12-23 17:33:02.520314,-76
2021-12-23 17:33:02.520324,-48
2021-12-23 17:33:02.520330,-32
2021-12-23 17:33:02.520338,6
2021-12-23 17:33:02.520344,172
2021-12-23 17:33:02.520351,473
2021-12-23 17:33:02.520358,636
2021-12-23 17:33:02.520364,396
2021-12-23 17:33:02.520371,-193
2021-12-23 17:33:02.520378,-631
2021-12-23 17:33:02.520384,-433
2021-12-23 17:33:02.745742,-65
2021-12-23 17:33:02.745773,-44
2021-12-23 17:33:02.745785,-30
2021-12-23 17:33:02.745795,88
2021-12-23 17:33:02.745805,69
2021-12-23 17:33:02.745815,25
2021-12-23 17:33:02.745825,79
2021-12-23 17:33:02.745835,118
2021-12-23 17:33:02.745845,116
2021-12-23 17:33:02.745855,121
2021-12-23 17:33:02.745865,107
2021-12-23 17:33:02.745875,93
2021-12-23 17:33:02.745884,128
2021-12-23 17:33:02.745894,149
2021-12-23 17:33:02.745904,60
2021-12-23 17:33:02.745914,-76
2021-12-23 17:33:02.745924,-111
2021-12-23 17:33:02.745934,-39
2021-12-23 17:33:02.745944,37
2021-12-23 17:33:02.745954,90
2021-12-23 17:33:02.745964,139
2021-12-23 17:33:02.745974,165
2021-12-23 17:33:02.745984,163
2021-12-23 17:33:02.745994,174
2021-12-23 17:33:02.746004,184
2021-12-23 17:33:02.746014,149
2021-12-23 17:33:02.746024,76
2021-12-23 17:33:02.746034,-16
2021-12-23 17:33:02.746043,-114
2021-12-23 17:33:02.746053,-170
2021-12-23 17:33:03.059867,-193
2021-12-23 17:33:03.059898,-216
2021-12-23 17:33:03.059909,-244
2021-12-23 17:33:03.059920,-289
2021-12-23 17:33:03.059930,-321
2021-12-23 17:33:03.059940,-291
2021-12-23 17:33:03.059950,-251
2021-12-23 17:33:03.059960,-242
2021-12-23 17:33:03.059970,-226
2021-12-23 17:33:03.059980,-223
2021-12-23 17:33:03.059990,-244
2021-12-23 17:33:03.059999,-221
2021-12-23 17:33:03.060009,-158
2021-12-23 17:33:03.060019,-118
2021-12-23 17:33:03.060029,-81
2021-12-23 17:33:03.060040,30
2021-12-23 17:33:03.060049,167
2021-12-23 17:33:03.060059,156
2021-12-23 17:33:03.060069,86
2021-12-23 17:33:03.060079,116
2021-12-23 17:33:03.060089,153
2021-12-23 17:33:03.060099,123
2021-12-23 17:33:03.060109,104
2021-12-23 17:33:03.060119,125
2021-12-23 17:33:03.060129,132
2021-12-23 17:33:03.060138,125
2021-12-23 17:33:03.060148,123
2021-12-23 17:33:03.060158,104
2021-12-23 17:33:03.060168,97
2021-12-23 17:33:03.060178,114
2021-12-23 17:33:03.240404,125
2021-12-23 17:33:03.240435,125
2021-12-23 17:33:03.240447,107
2021-12-23 17:33:03.240457,67
2021-12-23 17:33:03.240467,48
2021-12-23 17:33:03.240477,60
2021-12-23 17:33:03.240487,76
2021-12-23 17:33:03.240497,83
2021-12-23 17:33:03.240507,67
2021-12-23 17:33:03.240517,39
2021-12-23 17:33:03.240527,46
2021-12-23 17:33:03.240537,79
2021-12-23 17:33:03.240547,81
2021-12-23 17:33:03.240557,67
2021-12-23 17:33:03.240567,44
2021-12-23 17:33:03.240577,-6
2021-12-23 17:33:03.240587,-16
2021-12-23 17:33:03.240597,32
2021-12-23 17:33:03.240607,44
2021-12-23 17:33:03.240617,6
2021-12-23 17:33:03.240627,-23
2021-12-23 17:33:03.240636,-32
2021-12-23 17:33:03.240651,-41
2021-12-23 17:33:03.240661,-48
2021-12-23 17:33:03.240671,-11
2021-12-23 17:33:03.240681,130
2021-12-23 17:33:03.240691,375
2021-12-23 17:33:03.240701,519
2021-12-23 17:33:03.240711,282
2021-12-23 17:33:03.240721,-328
2021-12-23 17:33:03.508635,-727
2021-12-23 17:33:03.508666,-452
2021-12-23 17:33:03.508678,-107
2021-12-23 17:33:03.508689,-144
2021-12-23 17:33:03.508699,-118
2021-12-23 17:33:03.508710,51
2021-12-23 17:33:03.508720,69
2021-12-23 17:33:03.508731,25
2021-12-23 17:33:03.508741,39
2021-12-23 17:33:03.508751,44
2021-12-23 17:33:03.508761,48
2021-12-23 17:33:03.508771,83
2021-12-23 17:33:03.508782,111
2021-12-23 17:33:03.508792,111
2021-12-23 17:33:03.508802,93
2021-12-23 17:33:03.508812,100
2021-12-23 17:33:03.508822,151
2021-12-23 17:33:03.508832,202
2021-12-23 17:33:03.508843,235
2021-12-23 17:33:03.508853,272
2021-12-23 17:33:03.508863,300
2021-12-23 17:33:03.508873,298
2021-12-23 17:33:03.508883,310
2021-12-23 17:33:03.508893,356
2021-12-23 17:33:03.508904,382
2021-12-23 17:33:03.508914,373
2021-12-23 17:33:03.508924,338
2021-12-23 17:33:03.508934,277
2021-12-23 17:33:03.508944,216
2021-12-23 17:33:03.508955,149
2021-12-23 17:33:03.690545,62
2021-12-23 17:33:03.690575,-20
2021-12-23 17:33:03.690588,-74
2021-12-23 17:33:03.690598,-109
2021-12-23 17:33:03.690609,-130
2021-12-23 17:33:03.690619,-123
2021-12-23 17:33:03.690629,-116
2021-12-23 17:33:03.690639,-139
2021-12-23 17:33:03.690649,-163
2021-12-23 17:33:03.690659,-142
2021-12-23 17:33:03.690669,-114
2021-12-23 17:33:03.690679,-95
2021-12-23 17:33:03.690689,-81
2021-12-23 17:33:03.690699,-93
2021-12-23 17:33:03.690709,-107
2021-12-23 17:33:03.690719,-86
2021-12-23 17:33:03.690729,-55
2021-12-23 17:33:03.690739,-37
2021-12-23 17:33:03.690749,-27
2021-12-23 17:33:03.690759,-23
2021-12-23 17:33:03.690769,-16
2021-12-23 17:33:03.690779,-9
2021-12-23 17:33:03.690789,-9
2021-12-23 17:33:03.690799,-20
2021-12-23 17:33:03.690809,-37
2021-12-23 17:33:03.690819,-46
2021-12-23 17:33:03.690829,-41
2021-12-23 17:33:03.690839,-67
2021-12-23 17:33:03.690848,-111
2021-12-23 17:33:03.690858,-109
2021-12-23 17:33:03.915402,-86
2021-12-23 17:33:03.915433,-93
2021-12-23 17:33:03.915446,-90
2021-12-23 17:33:03.915456,-76
2021-12-23 17:33:03.915466,-65
2021-12-23 17:33:03.915476,-53
2021-12-23 17:33:03.915486,-60
2021-12-23 17:33:03.915496,-90
2021-12-23 17:33:03.915506,-100
2021-12-23 17:33:03.915516,-79
2021-12-23 17:33:03.915527,-62
2021-12-23 17:33:03.915537,-67
2021-12-23 17:33:03.915547,-97
2021-12-23 17:33:03.915557,-123
2021-12-23 17:33:03.915567,-104
2021-12-23 17:33:03.915577,-86
2021-12-23 17:33:03.915587,-81
2021-12-23 17:33:03.915597,-65
2021-12-23 17:33:03.915607,-60
2021-12-23 17:33:03.915617,-67
2021-12-23 17:33:03.915627,-53
2021-12-23 17:33:03.915637,-27
2021-12-23 17:33:03.915647,9
2021-12-23 17:33:03.915657,130
2021-12-23 17:33:03.915667,375
2021-12-23 17:33:03.915677,578
2021-12-23 17:33:03.915687,456
2021-12-23 17:33:03.915697,-60
2021-12-23 17:33:03.915707,-580
2021-12-23 17:33:03.915717,-519
2021-12-23 17:33:04.140515,-142
2021-12-23 17:33:04.140546,-83
2021-12-23 17:33:04.140559,-135
2021-12-23 17:33:04.140569,-25
2021-12-23 17:33:04.140579,32
2021-12-23 17:33:04.140598,-11
2021-12-23 17:33:04.140609,-30
2021-12-23 17:33:04.140619,-2
2021-12-23 17:33:04.140629,18
2021-12-23 17:33:04.140639,20
2021-12-23 17:33:04.140649,41
2021-12-23 17:33:04.140659,53
2021-12-23 17:33:04.140669,41
2021-12-23 17:33:04.140679,58
2021-12-23 17:33:04.140689,100
2021-12-23 17:33:04.140699,135
2021-12-23 17:33:04.140709,165
2021-12-23 17:33:04.140719,195
2021-12-23 17:33:04.140729,230
2021-12-23 17:33:04.140739,275
2021-12-23 17:33:04.140749,321
2021-12-23 17:33:04.140759,340
2021-12-23 17:33:04.140769,342
2021-12-23 17:33:04.140779,342
2021-12-23 17:33:04.140789,317
2021-12-23 17:33:04.140799,270
2021-12-23 17:33:04.140809,188
2021-12-23 17:33:04.140819,58
2021-12-23 17:33:04.140828,-53
2021-12-23 17:33:04.140838,-107
2021-12-23 17:33:04.365658,-149
2021-12-23 17:33:04.365689,-179
2021-12-23 17:33:04.365701,-191
2021-12-23 17:33:04.365712,-223
2021-12-23 17:33:04.365722,-289
2021-12-23 17:33:04.365732,-331
2021-12-23 17:33:04.365742,-310
2021-12-23 17:33:04.365751,-261
2021-12-23 17:33:04.365761,-240
2021-12-23 17:33:04.365771,-233
2021-12-23 17:33:04.365781,-226
2021-12-23 17:33:04.365791,-230
2021-12-23 17:33:04.365801,-216
2021-12-23 17:33:04.365811,-179
2021-12-23 17:33:04.365821,-153
2021-12-23 17:33:04.365831,-160
2021-12-23 17:33:04.365841,-256
2021-12-23 17:33:04.365851,-398
2021-12-23 17:33:04.365861,-375
2021-12-23 17:33:04.365871,-160
2021-12-23 17:33:04.365881,11
2021-12-23 17:33:04.365891,-4
2021-12-23 17:33:04.365900,-55
2021-12-23 17:33:04.365910,-27
2021-12-23 17:33:04.365920,-4
2021-12-23 17:33:04.365930,-4
2021-12-23 17:33:04.365940,0
2021-12-23 17:33:04.365950,-2
2021-12-23 17:33:04.365960,-11
2021-12-23 17:33:04.365970,-23
2021-12-23 17:33:04.680031,-34
2021-12-23 17:33:04.680062,-25
2021-12-23 17:33:04.680074,-16
2021-12-23 17:33:04.680084,-23
2021-12-23 17:33:04.680094,-44
2021-12-23 17:33:04.680105,-65
2021-12-23 17:33:04.680115,-58
2021-12-23 17:33:04.680125,-39
2021-12-23 17:33:04.680134,-32
2021-12-23 17:33:04.680144,-37
2021-12-23 17:33:04.680154,-76
2021-12-23 17:33:04.680164,-107
2021-12-23 17:33:04.680174,-86
2021-12-23 17:33:04.680184,-58
2021-12-23 17:33:04.680193,-53
2021-12-23 17:33:04.680204,-79
2021-12-23 17:33:04.680213,-107
2021-12-23 17:33:04.680223,-69
2021-12-23 17:33:04.680233,-11
2021-12-23 17:33:04.680243,-11
2021-12-23 17:33:04.680252,-11
2021-12-23 17:33:04.680262,23
2021-12-23 17:33:04.680272,123
2021-12-23 17:33:04.680282,382
2021-12-23 17:33:04.680292,641
2021-12-23 17:33:04.680302,566
2021-12-23 17:33:04.680312,76
2021-12-23 17:33:04.680322,-491
2021-12-23 17:33:04.680332,-545
2021-12-23 17:33:04.680342,-177
2021-12-23 17:33:04.905889,-58
2021-12-23 17:33:04.905920,-123
2021-12-23 17:33:04.905932,-41
2021-12-23 17:33:04.905942,-2
2021-12-23 17:33:04.905952,-62
2021-12-23 17:33:04.905962,-44
2021-12-23 17:33:04.905972,18
2021-12-23 17:33:04.905982,37
2021-12-23 17:33:04.905992,41
2021-12-23 17:33:04.906002,34
2021-12-23 17:33:04.906012,11
2021-12-23 17:33:04.906022,20
2021-12-23 17:33:04.906032,60
2021-12-23 17:33:04.906042,88
2021-12-23 17:33:04.906052,100
2021-12-23 17:33:04.906062,102
2021-12-23 17:33:04.906072,116
2021-12-23 17:33:04.906082,179
2021-12-23 17:33:04.906092,244
2021-12-23 17:33:04.906102,282
2021-12-23 17:33:04.906112,305
2021-12-23 17:33:04.906122,300
2021-12-23 17:33:04.906131,284
2021-12-23 17:33:04.906141,284
2021-12-23 17:33:04.906151,261
2021-12-23 17:33:04.906161,188
2021-12-23 17:33:04.906171,93
2021-12-23 17:33:04.906181,-11
2021-12-23 17:33:04.906191,-88
2021-12-23 17:33:04.906201,-123
2021-12-23 17:33:05.085260,-146
2021-12-23 17:33:05.085301,-160
2021-12-23 17:33:05.085314,-174
2021-12-23 17:33:05.085325,-209
2021-12-23 17:33:05.085335,-226
2021-12-23 17:33:05.085345,-191
2021-12-23 17:33:05.085355,-160
2021-12-23 17:33:05.085365,-149
2021-12-23 17:33:05.085375,-151
2021-12-23 17:33:05.085385,-163
2021-12-23 17:33:05.085395,-153
2021-12-23 17:33:05.085405,-116
2021-12-23 17:33:05.085415,-90
2021-12-23 17:33:05.085425,-81
2021-12-23 17:33:05.085435,-88
2021-12-23 17:33:05.085445,-114
2021-12-23 17:33:05.085455,-104
2021-12-23 17:33:05.085465,-62
2021-12-23 17:33:05.085475,-39
2021-12-23 17:33:05.085485,-34
2021-12-23 17:33:05.085495,-51
2021-12-23 17:33:05.085505,-79
2021-12-23 17:33:05.085515,-69
2021-12-23 17:33:05.085525,-41
2021-12-23 17:33:05.085535,-34
2021-12-23 17:33:05.085544,-32
2021-12-23 17:33:05.085554,-41
2021-12-23 17:33:05.085564,-55
2021-12-23 17:33:05.085574,-44
2021-12-23 17:33:05.085584,-20
2021-12-23 17:33:05.355194,-13
2021-12-23 17:33:05.355224,-9
2021-12-23 17:33:05.355236,-18
2021-12-23 17:33:05.355247,-39
2021-12-23 17:33:05.355257,-34
2021-12-23 17:33:05.355267,-44
2021-12-23 17:33:05.355277,-76
2021-12-23 17:33:05.355287,-86
2021-12-23 17:33:05.355297,-88
2021-12-23 17:33:05.355307,-100
2021-12-23 17:33:05.355317,-76
2021-12-23 17:33:05.355327,-62
2021-12-23 17:33:05.355337,-76
2021-12-23 17:33:05.355347,-86
2021-12-23 17:33:05.355358,-102
2021-12-23 17:33:05.355368,-132
2021-12-23 17:33:05.355378,-158
2021-12-23 17:33:05.355388,-158
2021-12-23 17:33:05.355397,-128
2021-12-23 17:33:05.355407,-109
2021-12-23 17:33:05.355417,-118
2021-12-23 17:33:05.355427,-104
2021-12-23 17:33:05.355437,-58
2021-12-23 17:33:05.355447,18
2021-12-23 17:33:05.355457,219
2021-12-23 17:33:05.355467,494
2021-12-23 17:33:05.355477,538
2021-12-23 17:33:05.355487,198
2021-12-23 17:33:05.355497,-366
2021-12-23 17:33:05.355507,-666
2021-12-23 17:33:05.578904,-403
2021-12-23 17:33:05.578928,-132
2021-12-23 17:33:05.578936,-163
2021-12-23 17:33:05.578943,-109
2021-12-23 17:33:05.578950,6
2021-12-23 17:33:05.578957,2
2021-12-23 17:33:05.578964,-9
2021-12-23 17:33:05.578970,13
2021-12-23 17:33:05.578977,0
2021-12-23 17:33:05.578983,2
2021-12-23 17:33:05.578989,34
2021-12-23 17:33:05.578996,58
2021-12-23 17:33:05.579002,67
2021-12-23 17:33:05.579009,62
2021-12-23 17:33:05.579015,62
2021-12-23 17:33:05.579022,90
2021-12-23 17:33:05.579028,132
2021-12-23 17:33:05.579034,177
2021-12-23 17:33:05.579041,214
2021-12-23 17:33:05.579047,230
2021-12-23 17:33:05.579054,251
2021-12-23 17:33:05.579060,296
2021-12-23 17:33:05.579066,324
2021-12-23 17:33:05.579073,331
2021-12-23 17:33:05.579079,326
2021-12-23 17:33:05.579085,291
2021-12-23 17:33:05.579092,226
2021-12-23 17:33:05.579098,144
2021-12-23 17:33:05.579104,60
2021-12-23 17:33:05.579111,-13
2021-12-23 17:33:05.805283,-81
2021-12-23 17:33:05.805314,-132
2021-12-23 17:33:05.805326,-163
2021-12-23 17:33:05.805337,-181
2021-12-23 17:33:05.805347,-181
2021-12-23 17:33:05.805358,-165
2021-12-23 17:33:05.805368,-174
2021-12-23 17:33:05.805378,-198
2021-12-23 17:33:05.805388,-191
2021-12-23 17:33:05.805399,-191
2021-12-23 17:33:05.805409,-202
2021-12-23 17:33:05.805419,-184
2021-12-23 17:33:05.805429,-179
2021-12-23 17:33:05.805439,-195
2021-12-23 17:33:05.805449,-177
2021-12-23 17:33:05.805459,-149
2021-12-23 17:33:05.805469,-132
2021-12-23 17:33:05.805479,-114
2021-12-23 17:33:05.805488,-109
2021-12-23 17:33:05.805498,-107
2021-12-23 17:33:05.805508,-83
2021-12-23 17:33:05.805518,-81
2021-12-23 17:33:05.805528,-111
2021-12-23 17:33:05.805538,-135
2021-12-23 17:33:05.805548,-130
2021-12-23 17:33:05.805558,-116
2021-12-23 17:33:05.805568,-102
2021-12-23 17:33:05.805578,-97
2021-12-23 17:33:05.805588,-95
2021-12-23 17:33:05.805598,-86
2021-12-23 17:33:06.029869,-79
2021-12-23 17:33:06.029900,-74
2021-12-23 17:33:06.029912,-62
2021-12-23 17:33:06.029922,-51
2021-12-23 17:33:06.029932,-51
2021-12-23 17:33:06.029942,-74
2021-12-23 17:33:06.029952,-111
2021-12-23 17:33:06.029962,-130
2021-12-23 17:33:06.029972,-132
2021-12-23 17:33:06.029982,-116
2021-12-23 17:33:06.029992,-86
2021-12-23 17:33:06.030010,-88
2021-12-23 17:33:06.030021,-100
2021-12-23 17:33:06.030031,-62
2021-12-23 17:33:06.030041,-23
2021-12-23 17:33:06.030051,-16
2021-12-23 17:33:06.030061,-16
2021-12-23 17:33:06.030071,-37
2021-12-23 17:33:06.030081,-69
2021-12-23 17:33:06.030091,-58
2021-12-23 17:33:06.030101,-34
2021-12-23 17:33:06.030111,-34
2021-12-23 17:33:06.030121,-27
2021-12-23 17:33:06.030131,-25
2021-12-23 17:33:06.030141,-30
2021-12-23 17:33:06.030151,-2
2021-12-23 17:33:06.030161,18
2021-12-23 17:33:06.030171,11
2021-12-23 17:33:06.030182,39
2021-12-23 17:33:06.030192,151
2021-12-23 17:33:06.210339,396
2021-12-23 17:33:06.210370,629
2021-12-23 17:33:06.210383,529
2021-12-23 17:33:06.210393,-9
2021-12-23 17:33:06.210404,-587
2021-12-23 17:33:06.210414,-587
2021-12-23 17:33:06.210424,-198
2021-12-23 17:33:06.210434,-93
2021-12-23 17:33:06.210444,-132
2021-12-23 17:33:06.210454,-4
2021-12-23 17:33:06.210464,46
2021-12-23 17:33:06.210474,-27
2021-12-23 17:33:06.210484,-25
2021-12-23 17:33:06.210494,16
2021-12-23 17:33:06.210504,2
2021-12-23 17:33:06.210514,2
2021-12-23 17:33:06.210524,32
2021-12-23 17:33:06.210534,39
2021-12-23 17:33:06.210544,58
2021-12-23 17:33:06.210554,102
2021-12-23 17:33:06.210564,132
2021-12-23 17:33:06.210574,151
2021-12-23 17:33:06.210584,184
2021-12-23 17:33:06.210594,216
2021-12-23 17:33:06.210604,258
2021-12-23 17:33:06.210614,321
2021-12-23 17:33:06.210624,370
2021-12-23 17:33:06.210634,380
2021-12-23 17:33:06.210644,361
2021-12-23 17:33:06.210654,328
2021-12-23 17:33:06.435278,312
2021-12-23 17:33:06.435309,291
2021-12-23 17:33:06.435321,221
2021-12-23 17:33:06.435331,128
2021-12-23 17:33:06.435341,25
2021-12-23 17:33:06.435351,-74
2021-12-23 17:33:06.435361,-125
2021-12-23 17:33:06.435371,-142
2021-12-23 17:33:06.435380,-170
2021-12-23 17:33:06.435390,-200
2021-12-23 17:33:06.435400,-221
2021-12-23 17:33:06.435410,-221
2021-12-23 17:33:06.435419,-184
2021-12-23 17:33:06.435429,-149
2021-12-23 17:33:06.435439,-149
2021-12-23 17:33:06.435448,-181
2021-12-23 17:33:06.435458,-198
2021-12-23 17:33:06.435468,-167
2021-12-23 17:33:06.435477,-128
2021-12-23 17:33:06.435487,-107
2021-12-23 17:33:06.435497,-86
2021-12-23 17:33:06.435506,-74
2021-12-23 17:33:06.435516,-76
2021-12-23 17:33:06.435526,-60
2021-12-23 17:33:06.435535,-27
2021-12-23 17:33:06.435545,-6
2021-12-23 17:33:06.435554,-9
2021-12-23 17:33:06.435564,-18
2021-12-23 17:33:06.435574,-16
2021-12-23 17:33:06.435583,2
2021-12-23 17:33:06.705295,4
2021-12-23 17:33:06.705319,6
2021-12-23 17:33:06.705327,18
2021-12-23 17:33:06.705334,-18
2021-12-23 17:33:06.705340,-51
2021-12-23 17:33:06.705347,-25
2021-12-23 17:33:06.705353,0
2021-12-23 17:33:06.705360,-2
2021-12-23 17:33:06.705366,0
2021-12-23 17:33:06.705373,-23
2021-12-23 17:33:06.705379,-58
2021-12-23 17:33:06.705386,-69
2021-12-23 17:33:06.705392,-74
2021-12-23 17:33:06.705399,-67
2021-12-23 17:33:06.705405,-51
2021-12-23 17:33:06.705412,-58
2021-12-23 17:33:06.705418,-58
2021-12-23 17:33:06.705425,-44
2021-12-23 17:33:06.705431,-46
2021-12-23 17:33:06.705438,-48
2021-12-23 17:33:06.705444,-55
2021-12-23 17:33:06.705450,-74
2021-12-23 17:33:06.705457,-65
2021-12-23 17:33:06.705463,-34
2021-12-23 17:33:06.705469,-30
2021-12-23 17:33:06.705476,-25
2021-12-23 17:33:06.705482,-11
2021-12-23 17:33:06.705488,-23
2021-12-23 17:33:06.705495,-30
2021-12-23 17:33:06.705501,2
2021-12-23 17:33:06.930596,44
2021-12-23 17:33:06.930627,86
2021-12-23 17:33:06.930639,200
2021-12-23 17:33:06.930649,412
2021-12-23 17:33:06.930660,531
2021-12-23 17:33:06.930670,324
2021-12-23 17:33:06.930679,-247
2021-12-23 17:33:06.930689,-704
2021-12-23 17:33:06.930699,-508
2021-12-23 17:33:06.930709,-144
2021-12-23 17:33:06.930719,-146
2021-12-23 17:33:06.930729,-128
2021-12-23 17:33:06.930738,32
2021-12-23 17:33:06.930748,51
2021-12-23 17:33:06.930758,-9
2021-12-23 17:33:06.930768,-11
2021-12-23 17:33:06.930778,18
2021-12-23 17:33:06.930787,44
2021-12-23 17:33:06.930797,65
2021-12-23 17:33:06.930807,69
2021-12-23 17:33:06.930817,51
2021-12-23 17:33:06.930827,48
2021-12-23 17:33:06.930836,86
2021-12-23 17:33:06.930846,125
2021-12-23 17:33:06.930856,158
2021-12-23 17:33:06.930865,205
2021-12-23 17:33:06.930875,244
2021-12-23 17:33:06.930885,270
2021-12-23 17:33:06.930895,307
2021-12-23 17:33:06.930905,356
2021-12-23 17:33:07.200544,398
2021-12-23 17:33:07.200565,417
2021-12-23 17:33:07.200573,391
2021-12-23 17:33:07.200580,331
2021-12-23 17:33:07.200587,277
2021-12-23 17:33:07.200593,219
2021-12-23 17:33:07.200600,137
2021-12-23 17:33:07.200606,48
2021-12-23 17:33:07.200619,-41
2021-12-23 17:33:07.200625,-116
2021-12-23 17:33:07.200632,-137
2021-12-23 17:33:07.200639,-135
2021-12-23 17:33:07.200645,-132
2021-12-23 17:33:07.200651,-139
2021-12-23 17:33:07.200658,-167
2021-12-23 17:33:07.200664,-174
2021-12-23 17:33:07.200671,-137
2021-12-23 17:33:07.200677,-111
2021-12-23 17:33:07.200684,-109
2021-12-23 17:33:07.200690,-102
2021-12-23 17:33:07.200697,-97
2021-12-23 17:33:07.200703,-114
2021-12-23 17:33:07.200710,-123
2021-12-23 17:33:07.200716,-102
2021-12-23 17:33:07.200723,-69
2021-12-23 17:33:07.200729,-48
2021-12-23 17:33:07.200736,-39
2021-12-23 17:33:07.200742,-39
2021-12-23 17:33:07.200749,-32
2021-12-23 17:33:07.200755,-16
2021-12-23 17:33:07.380563,-6
2021-12-23 17:33:07.380595,-11
2021-12-23 17:33:07.380607,-13
2021-12-23 17:33:07.380618,-18
2021-12-23 17:33:07.380628,-18
2021-12-23 17:33:07.380638,-2
2021-12-23 17:33:07.380648,6
2021-12-23 17:33:07.380658,6
2021-12-23 17:33:07.380668,0
2021-12-23 17:33:07.380678,-55
2021-12-23 17:33:07.380688,-121
2021-12-23 17:33:07.380699,-97
2021-12-23 17:33:07.380709,-67
2021-12-23 17:33:07.380719,-123
2021-12-23 17:33:07.380729,-170
2021-12-23 17:33:07.380739,-139
2021-12-23 17:33:07.380749,-111
2021-12-23 17:33:07.380759,-102
2021-12-23 17:33:07.380769,-90
2021-12-23 17:33:07.380779,-97
2021-12-23 17:33:07.380789,-104
2021-12-23 17:33:07.380799,-83
2021-12-23 17:33:07.380809,-76
2021-12-23 17:33:07.380819,-102
2021-12-23 17:33:07.380829,-125
2021-12-23 17:33:07.380839,-125
2021-12-23 17:33:07.380849,-102
2021-12-23 17:33:07.380859,-88
2021-12-23 17:33:07.380869,-81
2021-12-23 17:33:07.380880,-62
2021-12-23 17:33:07.648701,-48
2021-12-23 17:33:07.648732,-48
2021-12-23 17:33:07.648744,-34
2021-12-23 17:33:07.648754,2
2021-12-23 17:33:07.648765,69
2021-12-23 17:33:07.648774,254
2021-12-23 17:33:07.648784,491
2021-12-23 17:33:07.648794,487
2021-12-23 17:33:07.648804,79
2021-12-23 17:33:07.648813,-515
2021-12-23 17:33:07.648823,-699
2021-12-23 17:33:07.648833,-333
2021-12-23 17:33:07.648843,-128
2021-12-23 17:33:07.648852,-205
2021-12-23 17:33:07.648862,-121
2021-12-23 17:33:07.648872,-2
2021-12-23 17:33:07.648882,-11
2021-12-23 17:33:07.648892,-2
2021-12-23 17:33:07.648902,39
2021-12-23 17:33:07.648911,37
2021-12-23 17:33:07.648921,39
2021-12-23 17:33:07.648931,62
2021-12-23 17:33:07.648941,76
2021-12-23 17:33:07.648951,95
2021-12-23 17:33:07.648961,111
2021-12-23 17:33:07.648970,107
2021-12-23 17:33:07.648980,102
2021-12-23 17:33:07.648990,128
2021-12-23 17:33:07.648999,188
2021-12-23 17:33:07.649009,240
2021-12-23 17:33:07.830718,263
2021-12-23 17:33:07.830749,310
2021-12-23 17:33:07.830761,373
2021-12-23 17:33:07.830771,382
2021-12-23 17:33:07.830781,361
2021-12-23 17:33:07.830791,335
2021-12-23 17:33:07.830801,265
2021-12-23 17:33:07.830811,188
2021-12-23 17:33:07.830821,128
2021-12-23 17:33:07.830830,46
2021-12-23 17:33:07.830840,-32
2021-12-23 17:33:07.830850,-102
2021-12-23 17:33:07.830860,-172
2021-12-23 17:33:07.830870,-186
2021-12-23 17:33:07.830880,-170
2021-12-23 17:33:07.830889,-221
2021-12-23 17:33:07.830899,-293
2021-12-23 17:33:07.830909,-291
2021-12-23 17:33:07.830919,-247
2021-12-23 17:33:07.830929,-214
2021-12-23 17:33:07.830939,-200
2021-12-23 17:33:07.830949,-195
2021-12-23 17:33:07.830959,-181
2021-12-23 17:33:07.830968,-146
2021-12-23 17:33:07.830978,-97
2021-12-23 17:33:07.830988,-74
2021-12-23 17:33:07.830998,-88
2021-12-23 17:33:07.831008,-93
2021-12-23 17:33:07.831018,-93
2021-12-23 17:33:07.831028,-104
2021-12-23 17:33:08.055239,-88
2021-12-23 17:33:08.055271,-53
2021-12-23 17:33:08.055283,-39
2021-12-23 17:33:08.055293,-41
2021-12-23 17:33:08.055304,-51
2021-12-23 17:33:08.055314,-83
2021-12-23 17:33:08.055324,-90
2021-12-23 17:33:08.055334,-44
2021-12-23 17:33:08.055345,-23
2021-12-23 17:33:08.055355,-44
2021-12-23 17:33:08.055365,-55
2021-12-23 17:33:08.055375,-74
2021-12-23 17:33:08.055385,-104
2021-12-23 17:33:08.055395,-95
2021-12-23 17:33:08.055406,-67
2021-12-23 17:33:08.055416,-69
2021-12-23 17:33:08.055426,-72
2021-12-23 17:33:08.055436,-67
2021-12-23 17:33:08.055446,-67
2021-12-23 17:33:08.055456,-60
2021-12-23 17:33:08.055466,-48
2021-12-23 17:33:08.055477,-23
2021-12-23 17:33:08.055487,-9
2021-12-23 17:33:08.055497,-18
2021-12-23 17:33:08.055507,-9
2021-12-23 17:33:08.055517,23
2021-12-23 17:33:08.055527,44
2021-12-23 17:33:08.055537,44
2021-12-23 17:33:08.055547,25
2021-12-23 17:33:08.055557,-11
2021-12-23 17:33:08.324435,-46
2021-12-23 17:33:08.324466,-32
2021-12-23 17:33:08.324474,2
2021-12-23 17:33:08.324481,-18
2021-12-23 17:33:08.324488,-81
2021-12-23 17:33:08.324494,-90
2021-12-23 17:33:08.324501,-51
2021-12-23 17:33:08.324507,-65
2021-12-23 17:33:08.324514,-102
2021-12-23 17:33:08.324520,-88
2021-12-23 17:33:08.324526,-65
2021-12-23 17:33:08.324533,62
2021-12-23 17:33:08.324539,368
2021-12-23 17:33:08.324546,529
2021-12-23 17:33:08.324552,284
2021-12-23 17:33:08.324559,-249
2021-12-23 17:33:08.324565,-664
2021-12-23 17:33:08.324571,-517
2021-12-23 17:33:08.324578,-165
2021-12-23 17:33:08.324584,-130
2021-12-23 17:33:08.324591,-128
2021-12-23 17:33:08.324597,-37
2021-12-23 17:33:08.324603,-79
2021-12-23 17:33:08.324613,-107
2021-12-23 17:33:08.324620,-18
2021-12-23 17:33:08.324626,13
2021-12-23 17:33:08.324633,-4
2021-12-23 17:33:08.324640,16
2021-12-23 17:33:08.324646,53
2021-12-23 17:33:08.324653,83
2021-12-23 17:33:08.550518,121
2021-12-23 17:33:08.550540,139
2021-12-23 17:33:08.550548,109
2021-12-23 17:33:08.550555,69
2021-12-23 17:33:08.550562,79
2021-12-23 17:33:08.550568,135
2021-12-23 17:33:08.550575,188
2021-12-23 17:33:08.550581,249
2021-12-23 17:33:08.550588,305
2021-12-23 17:33:08.550594,291
2021-12-23 17:33:08.550601,256
2021-12-23 17:33:08.550607,277
2021-12-23 17:33:08.550614,286
2021-12-23 17:33:08.550620,247
2021-12-23 17:33:08.550627,191
2021-12-23 17:33:08.550633,100
2021-12-23 17:33:08.550640,-9
2021-12-23 17:33:08.550647,-69
2021-12-23 17:33:08.550653,-97
2021-12-23 17:33:08.550660,-114
2021-12-23 17:33:08.550666,-111
2021-12-23 17:33:08.550673,-104
2021-12-23 17:33:08.550680,-121
2021-12-23 17:33:08.550686,-116
2021-12-23 17:33:08.550693,-81
2021-12-23 17:33:08.550699,-62
2021-12-23 17:33:08.550707,-62
2021-12-23 17:33:08.550718,-65
2021-12-23 17:33:08.550729,-65
2021-12-23 17:33:08.550736,-60
2021-12-23 17:33:08.775481,-55
2021-12-23 17:33:08.775512,-55
2021-12-23 17:33:08.775524,-58
2021-12-23 17:33:08.775534,-79
2021-12-23 17:33:08.775544,-83
2021-12-23 17:33:08.775554,-34
2021-12-23 17:33:08.775564,30
2021-12-23 17:33:08.775574,53
2021-12-23 17:33:08.775584,37
2021-12-23 17:33:08.775594,2
2021-12-23 17:33:08.775604,-30
2021-12-23 17:33:08.775614,-62
2021-12-23 17:33:08.775624,-72
2021-12-23 17:33:08.775634,-16
2021-12-23 17:33:08.775645,0
2021-12-23 17:33:08.775655,-88
2021-12-23 17:33:08.775665,-163
2021-12-23 17:33:08.775675,-202
2021-12-23 17:33:08.775685,-237
2021-12-23 17:33:08.775695,-198
2021-12-23 17:33:08.775705,-125
2021-12-23 17:33:08.775715,-95
2021-12-23 17:33:08.775725,-55
2021-12-23 17:33:08.775735,25
2021-12-23 17:33:08.775745,65
2021-12-23 17:33:08.775755,48
2021-12-23 17:33:08.775765,16
2021-12-23 17:33:08.775775,-20
2021-12-23 17:33:08.775785,-32
2021-12-23 17:33:08.775795,-11
2021-12-23 17:33:09.045228,9
2021-12-23 17:33:09.045259,11
2021-12-23 17:33:09.045272,-18
2021-12-23 17:33:09.045282,-67
2021-12-23 17:33:09.045292,-93
2021-12-23 17:33:09.045302,-123
2021-12-23 17:33:09.045313,-149
2021-12-23 17:33:09.045322,-128
2021-12-23 17:33:09.045332,-135
2021-12-23 17:33:09.045342,-188
2021-12-23 17:33:09.045352,-200
2021-12-23 17:33:09.045363,-165
2021-12-23 17:33:09.045373,-86
2021-12-23 17:33:09.045383,-9
2021-12-23 17:33:09.045393,-25
2021-12-23 17:33:09.045403,-76
2021-12-23 17:33:09.045413,-48
2021-12-23 17:33:09.045423,-4
2021-12-23 17:33:09.045433,-4
2021-12-23 17:33:09.045442,-4
2021-12-23 17:33:09.045453,4
2021-12-23 17:33:09.045463,11
2021-12-23 17:33:09.045473,139
2021-12-23 17:33:09.045483,429
2021-12-23 17:33:09.045493,599
2021-12-23 17:33:09.045503,422
2021-12-23 17:33:09.045513,-30
2021-12-23 17:33:09.045523,-442
2021-12-23 17:33:09.045533,-380
2021-12-23 17:33:09.045543,-62
2021-12-23 17:33:09.225241,4
2021-12-23 17:33:09.225273,-4
2021-12-23 17:33:09.225285,74
2021-12-23 17:33:09.225296,86
2021-12-23 17:33:09.225306,79
2021-12-23 17:33:09.225316,128
2021-12-23 17:33:09.225326,137
2021-12-23 17:33:09.225336,116
2021-12-23 17:33:09.225346,125
2021-12-23 17:33:09.225355,135
2021-12-23 17:33:09.225365,142
2021-12-23 17:33:09.225375,170
2021-12-23 17:33:09.225385,191
2021-12-23 17:33:09.225395,184
2021-12-23 17:33:09.225405,181
2021-12-23 17:33:09.225415,219
2021-12-23 17:33:09.225425,265
2021-12-23 17:33:09.225435,300
2021-12-23 17:33:09.225445,338
2021-12-23 17:33:09.225455,361
2021-12-23 17:33:09.225465,375
2021-12-23 17:33:09.225475,403
2021-12-23 17:33:09.225484,417
2021-12-23 17:33:09.225494,410
2021-12-23 17:33:09.225504,382
2021-12-23 17:33:09.225514,312
2021-12-23 17:33:09.225524,221
2021-12-23 17:33:09.225534,135
2021-12-23 17:33:09.225544,55
2021-12-23 17:33:09.225554,4
2021-12-23 17:33:09.495522,-37
2021-12-23 17:33:09.495544,-83
2021-12-23 17:33:09.495552,-137
2021-12-23 17:33:09.495558,-177
2021-12-23 17:33:09.495565,-163
2021-12-23 17:33:09.495571,-139
2021-12-23 17:33:09.495578,-158
2021-12-23 17:33:09.495584,-174
2021-12-23 17:33:09.495590,-153
2021-12-23 17:33:09.495597,-146
2021-12-23 17:33:09.495603,-156
2021-12-23 17:33:09.495610,-142
2021-12-23 17:33:09.495616,-156
2021-12-23 17:33:09.495622,-179
2021-12-23 17:33:09.495629,-135
2021-12-23 17:33:09.495635,-93
2021-12-23 17:33:09.495642,-111
2021-12-23 17:33:09.495648,-107
2021-12-23 17:33:09.495655,-88
2021-12-23 17:33:09.495661,-93
2021-12-23 17:33:09.495667,-90
2021-12-23 17:33:09.495674,-72
2021-12-23 17:33:09.495680,-51
2021-12-23 17:33:09.495687,-39
2021-12-23 17:33:09.495693,-48
2021-12-23 17:33:09.495700,-48
2021-12-23 17:33:09.495706,-39
2021-12-23 17:33:09.495712,-48
2021-12-23 17:33:09.495719,-39
2021-12-23 17:33:09.495725,-16
2021-12-23 17:33:09.719150,-25
2021-12-23 17:33:09.719181,-32
2021-12-23 17:33:09.719194,-20
2021-12-23 17:33:09.719204,-25
2021-12-23 17:33:09.719215,-39
2021-12-23 17:33:09.719226,-65
2021-12-23 17:33:09.719236,-111
2021-12-23 17:33:09.719246,-144
2021-12-23 17:33:09.719256,-151
2021-12-23 17:33:09.719266,-172
2021-12-23 17:33:09.719277,-177
2021-12-23 17:33:09.719287,-142
2021-12-23 17:33:09.719297,-116
2021-12-23 17:33:09.719307,-118
2021-12-23 17:33:09.719317,-104
2021-12-23 17:33:09.719327,-88
2021-12-23 17:33:09.719337,-74
2021-12-23 17:33:09.719348,-58
2021-12-23 17:33:09.719358,-62
2021-12-23 17:33:09.719368,-67
2021-12-23 17:33:09.719378,-74
2021-12-23 17:33:09.719388,-83
2021-12-23 17:33:09.719398,-69
2021-12-23 17:33:09.719408,-58
2021-12-23 17:33:09.719418,-48
2021-12-23 17:33:09.719428,-27
2021-12-23 17:33:09.719438,-32
2021-12-23 17:33:09.719448,-48
2021-12-23 17:33:09.719458,-39
2021-12-23 17:33:09.719474,-30
2021-12-23 17:33:09.989310,-23
2021-12-23 17:33:09.989340,6
2021-12-23 17:33:09.989352,93
2021-12-23 17:33:09.989363,331
2021-12-23 17:33:09.989373,603
2021-12-23 17:33:09.989383,592
2021-12-23 17:33:09.989394,174
2021-12-23 17:33:09.989404,-426
2021-12-23 17:33:09.989414,-603
2021-12-23 17:33:09.989424,-244
2021-12-23 17:33:09.989435,-69
2021-12-23 17:33:09.989445,-170
2021-12-23 17:33:09.989455,-95
2021-12-23 17:33:09.989466,13
2021-12-23 17:33:09.989476,-30
2021-12-23 17:33:09.989486,-44
2021-12-23 17:33:09.989496,11
2021-12-23 17:33:09.989507,25
2021-12-23 17:33:09.989517,27
2021-12-23 17:33:09.989527,65
2021-12-23 17:33:09.989538,88
2021-12-23 17:33:09.989548,95
2021-12-23 17:33:09.989558,123
2021-12-23 17:33:09.989568,139
2021-12-23 17:33:09.989578,149
2021-12-23 17:33:09.989589,202
2021-12-23 17:33:09.989599,272
2021-12-23 17:33:09.989609,300
2021-12-23 17:33:09.989620,314
2021-12-23 17:33:09.989630,349
2021-12-23 17:33:10.124457,401
2021-12-23 17:33:10.124477,440
2021-12-23 17:33:10.124485,433
2021-12-23 17:33:10.124491,398
2021-12-23 17:33:10.124498,345
2021-12-23 17:33:10.124504,263
2021-12-23 17:33:10.124511,186
2021-12-23 17:33:10.124517,123
2021-12-23 17:33:10.124523,53
2021-12-23 17:33:10.124530,-25
2021-12-23 17:33:10.124536,-111
2021-12-23 17:33:10.124542,-205
2021-12-23 17:33:10.124549,-209
2021-12-23 17:33:10.124555,-97
2021-12-23 17:33:10.124561,-79
2021-12-23 17:33:10.124567,-156
2021-12-23 17:33:10.124574,-156
2021-12-23 17:33:10.124580,-128
2021-12-23 17:33:10.124586,-149
2021-12-23 17:33:10.124593,-163
2021-12-23 17:33:10.124599,-125
2021-12-23 17:33:10.124605,-100
2021-12-23 17:33:10.124612,-114
2021-12-23 17:33:10.124618,-100
2021-12-23 17:33:10.124624,-53
2021-12-23 17:33:10.124631,-39
2021-12-23 17:33:10.124637,-53
2021-12-23 17:33:10.124643,-107
2021-12-23 17:33:10.124650,-163
2021-12-23 17:33:10.124656,-81
2021-12-23 17:33:10.395645,20
2021-12-23 17:33:10.395676,-18
2021-12-23 17:33:10.395688,-65
2021-12-23 17:33:10.395698,-58
2021-12-23 17:33:10.395709,-79
2021-12-23 17:33:10.395719,-76
2021-12-23 17:33:10.395729,-37
2021-12-23 17:33:10.395739,-34
2021-12-23 17:33:10.395749,-58
2021-12-23 17:33:10.395759,-97
2021-12-23 17:33:10.395769,-151
2021-12-23 17:33:10.395779,-151
2021-12-23 17:33:10.395789,-130
2021-12-23 17:33:10.395799,-184
2021-12-23 17:33:10.395809,-230
2021-12-23 17:33:10.395819,-202
2021-12-23 17:33:10.395829,-184
2021-12-23 17:33:10.395839,-195
2021-12-23 17:33:10.395849,-205
2021-12-23 17:33:10.395859,-198
2021-12-23 17:33:10.395869,-174
2021-12-23 17:33:10.395879,-158
2021-12-23 17:33:10.395889,-151
2021-12-23 17:33:10.395899,-137
2021-12-23 17:33:10.395909,-116
2021-12-23 17:33:10.395919,-100
2021-12-23 17:33:10.395929,-100
2021-12-23 17:33:10.395939,-109
2021-12-23 17:33:10.395949,-100
2021-12-23 17:33:10.395959,-81
2021-12-23 17:33:10.620584,-67
2021-12-23 17:33:10.620614,-55
2021-12-23 17:33:10.620626,-48
2021-12-23 17:33:10.620637,-37
2021-12-23 17:33:10.620647,-13
2021-12-23 17:33:10.620656,16
2021-12-23 17:33:10.620666,114
2021-12-23 17:33:10.620676,352
2021-12-23 17:33:10.620685,547
2021-12-23 17:33:10.620695,373
2021-12-23 17:33:10.620705,-172
2021-12-23 17:33:10.620715,-606
2021-12-23 17:33:10.620725,-463
2021-12-23 17:33:10.620735,-114
2021-12-23 17:33:10.620744,-111
2021-12-23 17:33:10.620754,-160
2021-12-23 17:33:10.620764,18
2021-12-23 17:33:10.620774,107
2021-12-23 17:33:10.620783,62
2021-12-23 17:33:10.620793,109
2021-12-23 17:33:10.620803,158
2021-12-23 17:33:10.620812,93
2021-12-23 17:33:10.620822,55
2021-12-23 17:33:10.620832,95
2021-12-23 17:33:10.620842,97
2021-12-23 17:33:10.620851,88
2021-12-23 17:33:10.620861,137
2021-12-23 17:33:10.620871,170
2021-12-23 17:33:10.620881,172
2021-12-23 17:33:10.620890,237
2021-12-23 17:33:10.845063,324
2021-12-23 17:33:10.845093,340
2021-12-23 17:33:10.845105,319
2021-12-23 17:33:10.845115,352
2021-12-23 17:33:10.845125,419
2021-12-23 17:33:10.845135,408
2021-12-23 17:33:10.845145,352
2021-12-23 17:33:10.845155,373
2021-12-23 17:33:10.845164,363
2021-12-23 17:33:10.845174,247
2021-12-23 17:33:10.845184,149
2021-12-23 17:33:10.845194,79
2021-12-23 17:33:10.845204,-25
2021-12-23 17:33:10.845214,-125
2021-12-23 17:33:10.845224,-153
2021-12-23 17:33:10.845234,-139
2021-12-23 17:33:10.845244,-149
2021-12-23 17:33:10.845253,-177
2021-12-23 17:33:10.845263,-167
2021-12-23 17:33:10.845273,-160
2021-12-23 17:33:10.845283,-228
2021-12-23 17:33:10.845293,-261
2021-12-23 17:33:10.845303,-209
2021-12-23 17:33:10.845312,-216
2021-12-23 17:33:10.845322,-249
2021-12-23 17:33:10.845332,-179
2021-12-23 17:33:10.845342,-128
2021-12-23 17:33:10.845351,-172
2021-12-23 17:33:10.845361,-174
2021-12-23 17:33:10.845371,-135
2021-12-23 17:33:11.070710,-170
2021-12-23 17:33:11.070740,-207
2021-12-23 17:33:11.070752,-163
2021-12-23 17:33:11.070763,-146
2021-12-23 17:33:11.070773,-202
2021-12-23 17:33:11.070783,-198
2021-12-23 17:33:11.070793,-130
2021-12-23 17:33:11.070803,-144
2021-12-23 17:33:11.070813,-198
2021-12-23 17:33:11.070823,-144
2021-12-23 17:33:11.070833,-44
2021-12-23 17:33:11.070843,-30
2021-12-23 17:33:11.070853,-121
2021-12-23 17:33:11.070863,-233
2021-12-23 17:33:11.070874,-289
2021-12-23 17:33:11.070884,-240
2021-12-23 17:33:11.070894,-153
2021-12-23 17:33:11.070904,-170
2021-12-23 17:33:11.070914,-144
2021-12-23 17:33:11.070924,2
2021-12-23 17:33:11.070934,20
2021-12-23 17:33:11.070944,-53
2021-12-23 17:33:11.070954,-44
2021-12-23 17:33:11.070964,-13
2021-12-23 17:33:11.070974,0
2021-12-23 17:33:11.070984,-2
2021-12-23 17:33:11.070994,-25
2021-12-23 17:33:11.071004,-25
2021-12-23 17:33:11.071015,-20
2021-12-23 17:33:11.071024,-27
2021-12-23 17:33:11.295097,-25
2021-12-23 17:33:11.295118,0
2021-12-23 17:33:11.295126,41
2021-12-23 17:33:11.295133,32
2021-12-23 17:33:11.295140,18
2021-12-23 17:33:11.295146,72
2021-12-23 17:33:11.295153,79
2021-12-23 17:33:11.295159,11
2021-12-23 17:33:11.295165,20
2021-12-23 17:33:11.295172,170
2021-12-23 17:33:11.295178,426
2021-12-23 17:33:11.295184,601
2021-12-23 17:33:11.295191,417
2021-12-23 17:33:11.295197,-48
2021-12-23 17:33:11.295203,-389
2021-12-23 17:33:11.295210,-328
2021-12-23 17:33:11.295216,-74
2021-12-23 17:33:11.295222,44
2021-12-23 17:33:11.295229,67
2021-12-23 17:33:11.295235,111
2021-12-23 17:33:11.295242,123
2021-12-23 17:33:11.295248,95
2021-12-23 17:33:11.295254,121
2021-12-23 17:33:11.295261,170
2021-12-23 17:33:11.295267,158
2021-12-23 17:33:11.295273,151
2021-12-23 17:33:11.295280,139
2021-12-23 17:33:11.295286,97
2021-12-23 17:33:11.295295,123
2021-12-23 17:33:11.295302,170
2021-12-23 17:33:11.565089,165
2021-12-23 17:33:11.565120,186
2021-12-23 17:33:11.565132,249
2021-12-23 17:33:11.565142,296
2021-12-23 17:33:11.565152,317
2021-12-23 17:33:11.565162,340
2021-12-23 17:33:11.565172,368
2021-12-23 17:33:11.565182,382
2021-12-23 17:33:11.565192,391
2021-12-23 17:33:11.565202,394
2021-12-23 17:33:11.565212,375
2021-12-23 17:33:11.565222,321
2021-12-23 17:33:11.565232,221
2021-12-23 17:33:11.565242,123
2021-12-23 17:33:11.565252,67
2021-12-23 17:33:11.565262,23
2021-12-23 17:33:11.565272,-32
2021-12-23 17:33:11.565282,-74
2021-12-23 17:33:11.565292,-100
2021-12-23 17:33:11.565302,-104
2021-12-23 17:33:11.565312,-97
2021-12-23 17:33:11.565321,-97
2021-12-23 17:33:11.565331,-107
2021-12-23 17:33:11.565341,-125
2021-12-23 17:33:11.565351,-123
2021-12-23 17:33:11.565361,-86
2021-12-23 17:33:11.565371,-67
2021-12-23 17:33:11.565381,-97
2021-12-23 17:33:11.565391,-128
2021-12-23 17:33:11.565401,-135
2021-12-23 17:33:11.789352,-123
2021-12-23 17:33:11.789374,-97
2021-12-23 17:33:11.789382,-79
2021-12-23 17:33:11.789388,-67
2021-12-23 17:33:11.789395,-53
2021-12-23 17:33:11.789402,-74
2021-12-23 17:33:11.789408,-90
2021-12-23 17:33:11.789415,-67
2021-12-23 17:33:11.789422,-58
2021-12-23 17:33:11.789428,-81
2021-12-23 17:33:11.789435,-93
2021-12-23 17:33:11.789441,-100
2021-12-23 17:33:11.789448,-88
2021-12-23 17:33:11.789454,-62
2021-12-23 17:33:11.789461,-74
2021-12-23 17:33:11.789468,-107
2021-12-23 17:33:11.789474,-144
2021-12-23 17:33:11.789481,-188
2021-12-23 17:33:11.789487,-207
2021-12-23 17:33:11.789494,-200
2021-12-23 17:33:11.789501,-188
2021-12-23 17:33:11.789508,-174
2021-12-23 17:33:11.789514,-153
2021-12-23 17:33:11.789521,-132
2021-12-23 17:33:11.789528,-107
2021-12-23 17:33:11.789535,-88
2021-12-23 17:33:11.789542,-79
2021-12-23 17:33:11.789548,-93
2021-12-23 17:33:11.789555,-118
2021-12-23 17:33:11.789562,-123
2021-12-23 17:33:11.970694,-153
2021-12-23 17:33:11.970716,-214
2021-12-23 17:33:11.970724,-207
2021-12-23 17:33:11.970731,-172
2021-12-23 17:33:11.970738,-200
2021-12-23 17:33:11.970744,-221
2021-12-23 17:33:11.970751,-184
2021-12-23 17:33:11.970757,-137
2021-12-23 17:33:11.970764,-107
2021-12-23 17:33:11.970770,-37
2021-12-23 17:33:11.970777,165
2021-12-23 17:33:11.970784,382
2021-12-23 17:33:11.970790,349
2021-12-23 17:33:11.970797,-44
2021-12-23 17:33:11.970803,-543
2021-12-23 17:33:11.970810,-596
2021-12-23 17:33:11.970816,-233
2021-12-23 17:33:11.970823,-79
2021-12-23 17:33:11.970830,-111
2021-12-23 17:33:11.970836,-6
2021-12-23 17:33:11.970843,60
2021-12-23 17:33:11.970849,9
2021-12-23 17:33:11.970856,9
2021-12-23 17:33:11.970863,53
2021-12-23 17:33:11.970869,74
2021-12-23 17:33:11.970876,107
2021-12-23 17:33:11.970882,139
2021-12-23 17:33:11.970889,130
2021-12-23 17:33:11.970895,121
2021-12-23 17:33:11.970902,153
2021-12-23 17:33:12.240299,188
2021-12-23 17:33:12.240329,202
2021-12-23 17:33:12.240341,207
2021-12-23 17:33:12.240351,188
2021-12-23 17:33:12.240361,181
2021-12-23 17:33:12.240371,244
2021-12-23 17:33:12.240381,319
2021-12-23 17:33:12.240391,345
2021-12-23 17:33:12.240401,352
2021-12-23 17:33:12.240411,333
2021-12-23 17:33:12.240420,282
2021-12-23 17:33:12.240430,249
2021-12-23 17:33:12.240440,228
2021-12-23 17:33:12.240450,151
2021-12-23 17:33:12.240460,46
2021-12-23 17:33:12.240470,-25
2021-12-23 17:33:12.240480,-60
2021-12-23 17:33:12.240490,-90
2021-12-23 17:33:12.240500,-123
2021-12-23 17:33:12.240510,-139
2021-12-23 17:33:12.240519,-142
2021-12-23 17:33:12.240529,-142
2021-12-23 17:33:12.240539,-135
2021-12-23 17:33:12.240549,-111
2021-12-23 17:33:12.240559,-86
2021-12-23 17:33:12.240568,-67
2021-12-23 17:33:12.240578,-65
2021-12-23 17:33:12.240588,-81
2021-12-23 17:33:12.240598,-76
2021-12-23 17:33:12.240608,-58
2021-12-23 17:33:12.465578,-55
2021-12-23 17:33:12.465609,-48
2021-12-23 17:33:12.465621,-48
2021-12-23 17:33:12.465632,-69
2021-12-23 17:33:12.465642,-83
2021-12-23 17:33:12.465651,-88
2021-12-23 17:33:12.465661,-116
2021-12-23 17:33:12.465671,-153
2021-12-23 17:33:12.465681,-158
2021-12-23 17:33:12.465691,-160
2021-12-23 17:33:12.465700,-165
2021-12-23 17:33:12.465710,-146
2021-12-23 17:33:12.465720,-130
2021-12-23 17:33:12.465730,-125
2021-12-23 17:33:12.465739,-135
2021-12-23 17:33:12.465749,-156
2021-12-23 17:33:12.465759,-146
2021-12-23 17:33:12.465769,-123
2021-12-23 17:33:12.465778,-123
2021-12-23 17:33:12.465788,-114
2021-12-23 17:33:12.465798,-109
2021-12-23 17:33:12.465807,-137
2021-12-23 17:33:12.465817,-160
2021-12-23 17:33:12.465827,-137
2021-12-23 17:33:12.465837,-128
2021-12-23 17:33:12.465847,-137
2021-12-23 17:33:12.465856,-135
2021-12-23 17:33:12.465866,-128
2021-12-23 17:33:12.465876,-114
2021-12-23 17:33:12.465886,-83
2021-12-23 17:33:12.735602,-72
2021-12-23 17:33:12.735633,-83
2021-12-23 17:33:12.735645,-100
2021-12-23 17:33:12.735655,-111
2021-12-23 17:33:12.735665,-93
2021-12-23 17:33:12.735674,-76
2021-12-23 17:33:12.735684,-95
2021-12-23 17:33:12.735694,-125
2021-12-23 17:33:12.735704,-144
2021-12-23 17:33:12.735713,-139
2021-12-23 17:33:12.735723,-107
2021-12-23 17:33:12.735732,-46
2021-12-23 17:33:12.735742,137
2021-12-23 17:33:12.735752,422
2021-12-23 17:33:12.735761,512
2021-12-23 17:33:12.735771,214
2021-12-23 17:33:12.735781,-347
2021-12-23 17:33:12.735791,-636
2021-12-23 17:33:12.735800,-331
2021-12-23 17:33:12.735810,-55
2021-12-23 17:33:12.735819,-107
2021-12-23 17:33:12.735829,-60
2021-12-23 17:33:12.735839,67
2021-12-23 17:33:12.735848,55
2021-12-23 17:33:12.735858,44
2021-12-23 17:33:12.735868,86
2021-12-23 17:33:12.735877,83
2021-12-23 17:33:12.735887,34
2021-12-23 17:33:12.735897,-25
2021-12-23 17:33:12.735906,-4
2021-12-23 17:33:12.959423,156
2021-12-23 17:33:12.959445,235
2021-12-23 17:33:12.959453,172
2021-12-23 17:33:12.959460,128
2021-12-23 17:33:12.959466,158
2021-12-23 17:33:12.959473,226
2021-12-23 17:33:12.959480,303
2021-12-23 17:33:12.959486,375
2021-12-23 17:33:12.959493,394
2021-12-23 17:33:12.959499,373
2021-12-23 17:33:12.959505,384
2021-12-23 17:33:12.959512,403
2021-12-23 17:33:12.959518,347
2021-12-23 17:33:12.959525,233
2021-12-23 17:33:12.959531,149
2021-12-23 17:33:12.959538,116
2021-12-23 17:33:12.959544,60
2021-12-23 17:33:12.959551,-18
2021-12-23 17:33:12.959557,-79
2021-12-23 17:33:12.959563,-132
2021-12-23 17:33:12.959570,-188
2021-12-23 17:33:12.959576,-219
2021-12-23 17:33:12.959583,-212
2021-12-23 17:33:12.959589,-177
2021-12-23 17:33:12.959596,-146
2021-12-23 17:33:12.959602,-156
2021-12-23 17:33:12.959609,-167
2021-12-23 17:33:12.959615,-139
2021-12-23 17:33:12.959622,-107
2021-12-23 17:33:12.959628,-102
2021-12-23 17:33:13.230807,-102
2021-12-23 17:33:13.230838,-93
2021-12-23 17:33:13.230850,-67
2021-12-23 17:33:13.230860,-41
2021-12-23 17:33:13.230870,-30
2021-12-23 17:33:13.230880,-23
2021-12-23 17:33:13.230889,-46
2021-12-23 17:33:13.230899,-67
2021-12-23 17:33:13.230909,-46
2021-12-23 17:33:13.230919,-48
2021-12-23 17:33:13.230928,-86
2021-12-23 17:33:13.230938,-104
2021-12-23 17:33:13.230948,-132
2021-12-23 17:33:13.230957,-170
2021-12-23 17:33:13.230967,-153
2021-12-23 17:33:13.230977,-114
2021-12-23 17:33:13.230986,-107
2021-12-23 17:33:13.230996,-109
2021-12-23 17:33:13.231006,-123
2021-12-23 17:33:13.231015,-142
2021-12-23 17:33:13.231025,-132
2021-12-23 17:33:13.231035,-111
2021-12-23 17:33:13.231045,-79
2021-12-23 17:33:13.231059,-44
2021-12-23 17:33:13.231069,-44
2021-12-23 17:33:13.231079,-48
2021-12-23 17:33:13.231089,-34
2021-12-23 17:33:13.231099,-41
2021-12-23 17:33:13.231109,-48
2021-12-23 17:33:13.231119,-30
2021-12-23 17:33:13.365626,-32
2021-12-23 17:33:13.365656,-44
2021-12-23 17:33:13.365668,-34
2021-12-23 17:33:13.365678,-41
2021-12-23 17:33:13.365688,-60
2021-12-23 17:33:13.365698,-76
2021-12-23 17:33:13.365708,-125
2021-12-23 17:33:13.365718,-130
2021-12-23 17:33:13.365728,-65
2021-12-23 17:33:13.365738,25
2021-12-23 17:33:13.365747,223
2021-12-23 17:33:13.365757,456
2021-12-23 17:33:13.365767,373
2021-12-23 17:33:13.365777,-156
2021-12-23 17:33:13.365788,-669
2021-12-23 17:33:13.365797,-573
2021-12-23 17:33:13.365807,-172
2021-12-23 17:33:13.365817,-114
2021-12-23 17:33:13.365826,-181
2021-12-23 17:33:13.365836,-46
2021-12-23 17:33:13.365846,34
2021-12-23 17:33:13.365855,-11
2021-12-23 17:33:13.365865,0
2021-12-23 17:33:13.365875,16
2021-12-23 17:33:13.365885,-6
2021-12-23 17:33:13.365894,16
2021-12-23 17:33:13.365904,58
2021-12-23 17:33:13.365914,72
2021-12-23 17:33:13.365924,97
2021-12-23 17:33:13.365933,118
2021-12-23 17:33:13.589561,128
2021-12-23 17:33:13.589581,163
2021-12-23 17:33:13.589589,205
2021-12-23 17:33:13.589595,228
2021-12-23 17:33:13.589602,256
2021-12-23 17:33:13.589609,270
2021-12-23 17:33:13.589615,286
2021-12-23 17:33:13.589621,338
2021-12-23 17:33:13.589628,361
2021-12-23 17:33:13.589634,335
2021-12-23 17:33:13.589641,293
2021-12-23 17:33:13.589647,235
2021-12-23 17:33:13.589654,160
2021-12-23 17:33:13.589660,86
2021-12-23 17:33:13.589667,-11
2021-12-23 17:33:13.589673,-118
2021-12-23 17:33:13.589680,-172
2021-12-23 17:33:13.589686,-186
2021-12-23 17:33:13.589693,-198
2021-12-23 17:33:13.589699,-200
2021-12-23 17:33:13.589705,-188
2021-12-23 17:33:13.589712,-181
2021-12-23 17:33:13.589718,-191
2021-12-23 17:33:13.589725,-214
2021-12-23 17:33:13.589731,-205
2021-12-23 17:33:13.589742,-139
2021-12-23 17:33:13.589749,-93
2021-12-23 17:33:13.589756,-95
2021-12-23 17:33:13.589762,-100
2021-12-23 17:33:13.589769,-118
2021-12-23 17:33:13.859475,-130
2021-12-23 17:33:13.859506,-58
2021-12-23 17:33:13.859516,0
2021-12-23 17:33:13.859523,-30
2021-12-23 17:33:13.859530,-65
2021-12-23 17:33:13.859536,-67
2021-12-23 17:33:13.859543,-55
2021-12-23 17:33:13.859549,-41
2021-12-23 17:33:13.859556,-32
2021-12-23 17:33:13.859562,-46
2021-12-23 17:33:13.859569,-81
2021-12-23 17:33:13.859575,-90
2021-12-23 17:33:13.859582,-72
2021-12-23 17:33:13.859588,-55
2021-12-23 17:33:13.859595,-48
2021-12-23 17:33:13.859601,-55
2021-12-23 17:33:13.859608,-74
2021-12-23 17:33:13.859614,-79
2021-12-23 17:33:13.859621,-51
2021-12-23 17:33:13.859627,-13
2021-12-23 17:33:13.859634,-30
2021-12-23 17:33:13.859640,-109
2021-12-23 17:33:13.859647,-247
2021-12-23 17:33:13.859653,-382
2021-12-23 17:33:13.859660,-382
2021-12-23 17:33:13.859666,-256
2021-12-23 17:33:13.859673,-132
2021-12-23 17:33:13.859679,-97
2021-12-23 17:33:13.859686,-97
2021-12-23 17:33:13.859692,-65
2021-12-23 17:33:14.175351,-37
2021-12-23 17:33:14.175382,-41
2021-12-23 17:33:14.175394,-34
2021-12-23 17:33:14.175404,-32
2021-12-23 17:33:14.175414,-6
2021-12-23 17:33:14.175424,186
2021-12-23 17:33:14.175434,470
2021-12-23 17:33:14.175444,512
2021-12-23 17:33:14.175454,111
2021-12-23 17:33:14.175464,-503
2021-12-23 17:33:14.175474,-666
2021-12-23 17:33:14.175484,-263
2021-12-23 17:33:14.175494,-65
2021-12-23 17:33:14.175504,-144
2021-12-23 17:33:14.175514,-62
2021-12-23 17:33:14.175524,13
2021-12-23 17:33:14.175534,-51
2021-12-23 17:33:14.175544,-51
2021-12-23 17:33:14.175553,-11
2021-12-23 17:33:14.175563,-34
2021-12-23 17:33:14.175573,-41
2021-12-23 17:33:14.175583,-16
2021-12-23 17:33:14.175593,-9
2021-12-23 17:33:14.175603,11
2021-12-23 17:33:14.175613,58
2021-12-23 17:33:14.175623,100
2021-12-23 17:33:14.175633,118
2021-12-23 17:33:14.175643,125
2021-12-23 17:33:14.175653,158
2021-12-23 17:33:14.175663,216
2021-12-23 17:33:14.310100,263
2021-12-23 17:33:14.310122,296
2021-12-23 17:33:14.310130,317
2021-12-23 17:33:14.310137,312
2021-12-23 17:33:14.310143,312
2021-12-23 17:33:14.310150,317
2021-12-23 17:33:14.310157,284
2021-12-23 17:33:14.310163,216
2021-12-23 17:33:14.310170,111
2021-12-23 17:33:14.310176,-11
2021-12-23 17:33:14.310183,-81
2021-12-23 17:33:14.310189,-102
2021-12-23 17:33:14.310196,-135
2021-12-23 17:33:14.310202,-160
2021-12-23 17:33:14.310209,-172
2021-12-23 17:33:14.310215,-191
2021-12-23 17:33:14.310222,-193
2021-12-23 17:33:14.310229,-158
2021-12-23 17:33:14.310235,-128
2021-12-23 17:33:14.310242,-121
2021-12-23 17:33:14.310248,-132
2021-12-23 17:33:14.310254,-139
2021-12-23 17:33:14.310261,-118
2021-12-23 17:33:14.310267,-86
2021-12-23 17:33:14.310274,-67
2021-12-23 17:33:14.310280,-62
2021-12-23 17:33:14.310287,-79
2021-12-23 17:33:14.310293,-93
2021-12-23 17:33:14.310300,-88
2021-12-23 17:33:14.310306,-102
2021-12-23 17:33:14.579749,-118
2021-12-23 17:33:14.579779,-95
2021-12-23 17:33:14.579792,-90
2021-12-23 17:33:14.579803,-109
2021-12-23 17:33:14.579813,-90
2021-12-23 17:33:14.579823,-60
2021-12-23 17:33:14.579833,-60
2021-12-23 17:33:14.579843,-72
2021-12-23 17:33:14.579853,-102
2021-12-23 17:33:14.579864,-121
2021-12-23 17:33:14.579874,-93
2021-12-23 17:33:14.579884,-62
2021-12-23 17:33:14.579894,-55
2021-12-23 17:33:14.579904,-60
2021-12-23 17:33:14.579914,-88
2021-12-23 17:33:14.579924,-179
2021-12-23 17:33:14.579934,-249
2021-12-23 17:33:14.579944,-104
2021-12-23 17:33:14.579954,58
2021-12-23 17:33:14.579964,-11
2021-12-23 17:33:14.579974,-76
2021-12-23 17:33:14.579984,-23
2021-12-23 17:33:14.579994,-30
2021-12-23 17:33:14.580004,-81
2021-12-23 17:33:14.580014,-72
2021-12-23 17:33:14.580024,-65
2021-12-23 17:33:14.580034,-86
2021-12-23 17:33:14.580044,-81
2021-12-23 17:33:14.580054,-46
2021-12-23 17:33:14.580064,18
2021-12-23 17:33:14.760217,188
2021-12-23 17:33:14.760248,452
2021-12-23 17:33:14.760259,564
2021-12-23 17:33:14.760269,303
2021-12-23 17:33:14.760280,-258
2021-12-23 17:33:14.760289,-615
2021-12-23 17:33:14.760299,-366
2021-12-23 17:33:14.760309,-74
2021-12-23 17:33:14.760319,-132
2021-12-23 17:33:14.760329,-100
2021-12-23 17:33:14.760339,74
2021-12-23 17:33:14.760349,114
2021-12-23 17:33:14.760358,86
2021-12-23 17:33:14.760368,60
2021-12-23 17:33:14.760378,13
2021-12-23 17:33:14.760388,20
2021-12-23 17:33:14.760398,53
2021-12-23 17:33:14.760408,48
2021-12-23 17:33:14.760417,53
2021-12-23 17:33:14.760427,62
2021-12-23 17:33:14.760437,51
2021-12-23 17:33:14.760447,62
2021-12-23 17:33:14.760456,111
2021-12-23 17:33:14.760466,167
2021-12-23 17:33:14.760476,188
2021-12-23 17:33:14.760486,191
2021-12-23 17:33:14.760496,219
2021-12-23 17:33:14.760505,249
2021-12-23 17:33:14.760515,270
2021-12-23 17:33:14.760525,289
2021-12-23 17:33:14.985833,298
2021-12-23 17:33:14.985865,300
2021-12-23 17:33:14.985877,228
2021-12-23 17:33:14.985887,104
2021-12-23 17:33:14.985897,-13
2021-12-23 17:33:14.985907,-121
2021-12-23 17:33:14.985917,-200
2021-12-23 17:33:14.985927,-270
2021-12-23 17:33:14.985937,-312
2021-12-23 17:33:14.985947,-298
2021-12-23 17:33:14.985957,-265
2021-12-23 17:33:14.985967,-237
2021-12-23 17:33:14.985976,-235
2021-12-23 17:33:14.985986,-249
2021-12-23 17:33:14.985996,-256
2021-12-23 17:33:14.986006,-254
2021-12-23 17:33:14.986016,-233
2021-12-23 17:33:14.986025,-195
2021-12-23 17:33:14.986035,-153
2021-12-23 17:33:14.986045,-114
2021-12-23 17:33:14.986054,-111
2021-12-23 17:33:14.986064,-116
2021-12-23 17:33:14.986074,-81
2021-12-23 17:33:14.986084,-41
2021-12-23 17:33:14.986094,-37
2021-12-23 17:33:14.986104,-39
2021-12-23 17:33:14.986113,-48
2021-12-23 17:33:14.986123,-74
2021-12-23 17:33:14.986133,-53
2021-12-23 17:33:14.986142,-27
2021-12-23 17:33:15.210294,-51
2021-12-23 17:33:15.210325,-44
2021-12-23 17:33:15.210337,-13
2021-12-23 17:33:15.210347,-27
2021-12-23 17:33:15.210357,-39
2021-12-23 17:33:15.210367,-39
2021-12-23 17:33:15.210377,-62
2021-12-23 17:33:15.210387,-67
2021-12-23 17:33:15.210397,-44
2021-12-23 17:33:15.210407,-30
2021-12-23 17:33:15.210417,-16
2021-12-23 17:33:15.210427,-9
2021-12-23 17:33:15.210437,-23
2021-12-23 17:33:15.210446,-39
2021-12-23 17:33:15.210456,-67
2021-12-23 17:33:15.210466,-65
2021-12-23 17:33:15.210476,-4
2021-12-23 17:33:15.210502,2
2021-12-23 17:33:15.210513,-32
2021-12-23 17:33:15.210523,-2
2021-12-23 17:33:15.210533,27
2021-12-23 17:33:15.210544,13
2021-12-23 17:33:15.210554,13
2021-12-23 17:33:15.210564,27
2021-12-23 17:33:15.210574,27
2021-12-23 17:33:15.210584,46
2021-12-23 17:33:15.210594,93
2021-12-23 17:33:15.210604,240
2021-12-23 17:33:15.210615,482
2021-12-23 17:33:15.210625,480
2021-12-23 17:33:15.435612,13
2021-12-23 17:33:15.435643,-538
2021-12-23 17:33:15.435655,-545
2021-12-23 17:33:15.435666,-144
2021-12-23 17:33:15.435676,-27
2021-12-23 17:33:15.435685,-116
2021-12-23 17:33:15.435695,-25
2021-12-23 17:33:15.435705,79
2021-12-23 17:33:15.435714,53
2021-12-23 17:33:15.435724,25
2021-12-23 17:33:15.435734,0
2021-12-23 17:33:15.435743,-46
2021-12-23 17:33:15.435753,-27
2021-12-23 17:33:15.435763,30
2021-12-23 17:33:15.435773,48
2021-12-23 17:33:15.435782,48
2021-12-23 17:33:15.435792,72
2021-12-23 17:33:15.435802,109
2021-12-23 17:33:15.435811,146
2021-12-23 17:33:15.435821,167
2021-12-23 17:33:15.435831,184
2021-12-23 17:33:15.435840,219
2021-12-23 17:33:15.435850,254
2021-12-23 17:33:15.435860,272
2021-12-23 17:33:15.435869,296
2021-12-23 17:33:15.435879,324
2021-12-23 17:33:15.435888,326
2021-12-23 17:33:15.435898,284
2021-12-23 17:33:15.435908,212
2021-12-23 17:33:15.435918,44
2021-12-23 17:33:15.660104,-202
2021-12-23 17:33:15.660124,-286
2021-12-23 17:33:15.660132,-163
2021-12-23 17:33:15.660138,-109
2021-12-23 17:33:15.660145,-223
2021-12-23 17:33:15.660151,-272
2021-12-23 17:33:15.660159,-207
2021-12-23 17:33:15.660166,-195
2021-12-23 17:33:15.660172,-212
2021-12-23 17:33:15.660178,-219
2021-12-23 17:33:15.660185,-249
2021-12-23 17:33:15.660191,-240
2021-12-23 17:33:15.660198,-181
2021-12-23 17:33:15.660204,-156
2021-12-23 17:33:15.660211,-158
2021-12-23 17:33:15.660217,-142
2021-12-23 17:33:15.660224,-130
2021-12-23 17:33:15.660230,-123
2021-12-23 17:33:15.660236,-83
2021-12-23 17:33:15.660243,-48
2021-12-23 17:33:15.660249,-58
2021-12-23 17:33:15.660255,-62
2021-12-23 17:33:15.660262,-44
2021-12-23 17:33:15.660268,-30
2021-12-23 17:33:15.660275,-20
2021-12-23 17:33:15.660281,-16
2021-12-23 17:33:15.660288,-6
2021-12-23 17:33:15.660294,-20
2021-12-23 17:33:15.660300,-44
2021-12-23 17:33:15.660307,-34
2021-12-23 17:33:16.018974,-20
2021-12-23 17:33:16.019005,-16
2021-12-23 17:33:16.019017,-25
2021-12-23 17:33:16.019027,-74
2021-12-23 17:33:16.019037,-107
2021-12-23 17:33:16.019047,-72
2021-12-23 17:33:16.019058,-37
2021-12-23 17:33:16.019068,-20
2021-12-23 17:33:16.019078,-11
2021-12-23 17:33:16.019088,-53
2021-12-23 17:33:16.019098,-100
2021-12-23 17:33:16.019108,-72
2021-12-23 17:33:16.019118,-37
2021-12-23 17:33:16.019128,-32
2021-12-23 17:33:16.019138,-27
2021-12-23 17:33:16.019149,-39
2021-12-23 17:33:16.019158,-72
2021-12-23 17:33:16.019169,-72
2021-12-23 17:33:16.019179,-37
2021-12-23 17:33:16.019189,-6
2021-12-23 17:33:16.019199,13
2021-12-23 17:33:16.019209,76
2021-12-23 17:33:16.019219,268
2021-12-23 17:33:16.019229,512
2021-12-23 17:33:16.019239,496
2021-12-23 17:33:16.019249,55
2021-12-23 17:33:16.019259,-517
2021-12-23 17:33:16.019269,-585
2021-12-23 17:33:16.019279,-174
2021-12-23 17:33:16.019289,-23
2021-12-23 17:33:16.155451,-90
2021-12-23 17:33:16.155482,32
2021-12-23 17:33:16.155494,130
2021-12-23 17:33:16.155505,72
2021-12-23 17:33:16.155515,58
2021-12-23 17:33:16.155525,86
2021-12-23 17:33:16.155534,81
2021-12-23 17:33:16.155544,88
2021-12-23 17:33:16.155554,88
2021-12-23 17:33:16.155564,65
2021-12-23 17:33:16.155573,86
2021-12-23 17:33:16.155583,130
2021-12-23 17:33:16.155593,153
2021-12-23 17:33:16.155603,184
2021-12-23 17:33:16.155612,207
2021-12-23 17:33:16.155622,212
2021-12-23 17:33:16.155632,249
2021-12-23 17:33:16.155641,314
2021-12-23 17:33:16.155651,363
2021-12-23 17:33:16.155661,380
2021-12-23 17:33:16.155671,340
2021-12-23 17:33:16.155681,277
2021-12-23 17:33:16.155690,244
2021-12-23 17:33:16.155700,200
2021-12-23 17:33:16.155710,121
2021-12-23 17:33:16.155720,39
2021-12-23 17:33:16.155729,-46
2021-12-23 17:33:16.155739,-135
2021-12-23 17:33:16.155749,-181
2021-12-23 17:33:16.155759,-191
2021-12-23 17:33:16.380723,-202
2021-12-23 17:33:16.380753,-214
2021-12-23 17:33:16.380766,-230
2021-12-23 17:33:16.380776,-237
2021-12-23 17:33:16.380786,-212
2021-12-23 17:33:16.380796,-186
2021-12-23 17:33:16.380806,-191
2021-12-23 17:33:16.380816,-221
2021-12-23 17:33:16.380826,-249
2021-12-23 17:33:16.380836,-235
2021-12-23 17:33:16.380846,-200
2021-12-23 17:33:16.380856,-172
2021-12-23 17:33:16.380865,-149
2021-12-23 17:33:16.380875,-144
2021-12-23 17:33:16.380885,-167
2021-12-23 17:33:16.380895,-167
2021-12-23 17:33:16.380905,-128
2021-12-23 17:33:16.380915,-107
2021-12-23 17:33:16.380925,-100
2021-12-23 17:33:16.380935,-88
2021-12-23 17:33:16.380945,-90
2021-12-23 17:33:16.380955,-128
2021-12-23 17:33:16.380965,-167
2021-12-23 17:33:16.380975,-153
2021-12-23 17:33:16.380985,-116
2021-12-23 17:33:16.380995,-118
2021-12-23 17:33:16.381005,-139
2021-12-23 17:33:16.381015,-132
2021-12-23 17:33:16.381025,-104
2021-12-23 17:33:16.381035,-81
2021-12-23 17:33:16.605200,-60
2021-12-23 17:33:16.605223,-48
2021-12-23 17:33:16.605230,-51
2021-12-23 17:33:16.605237,-48
2021-12-23 17:33:16.605244,-39
2021-12-23 17:33:16.605251,-34
2021-12-23 17:33:16.605257,-41
2021-12-23 17:33:16.605264,-62
2021-12-23 17:33:16.605271,-97
2021-12-23 17:33:16.605277,-111
2021-12-23 17:33:16.605284,-102
2021-12-23 17:33:16.605290,-81
2021-12-23 17:33:16.605298,-72
2021-12-23 17:33:16.605309,-83
2021-12-23 17:33:16.605320,-79
2021-12-23 17:33:16.605327,-27
2021-12-23 17:33:16.605334,109
2021-12-23 17:33:16.605340,366
2021-12-23 17:33:16.605347,554
2021-12-23 17:33:16.605354,396
2021-12-23 17:33:16.605360,-121
2021-12-23 17:33:16.605367,-568
2021-12-23 17:33:16.605373,-431
2021-12-23 17:33:16.605380,-62
2021-12-23 17:33:16.605386,-32
2021-12-23 17:33:16.605392,-53
2021-12-23 17:33:16.605399,83
2021-12-23 17:33:16.605405,116
2021-12-23 17:33:16.605412,72
2021-12-23 17:33:16.605418,102
2021-12-23 17:33:16.830749,114
2021-12-23 17:33:16.830779,83
2021-12-23 17:33:16.830791,93
2021-12-23 17:33:16.830801,116
2021-12-23 17:33:16.830811,121
2021-12-23 17:33:16.830821,139
2021-12-23 17:33:16.830831,144
2021-12-23 17:33:16.830841,128
2021-12-23 17:33:16.830851,151
2021-12-23 17:33:16.830861,198
2021-12-23 17:33:16.830871,226
2021-12-23 17:33:16.830881,240
2021-12-23 17:33:16.830891,249
2021-12-23 17:33:16.830901,265
2021-12-23 17:33:16.830911,298
2021-12-23 17:33:16.830921,314
2021-12-23 17:33:16.830931,303
2021-12-23 17:33:16.830941,272
2021-12-23 17:33:16.830951,216
2021-12-23 17:33:16.830961,135
2021-12-23 17:33:16.830971,51
2021-12-23 17:33:16.830981,-32
2021-12-23 17:33:16.830991,-111
2021-12-23 17:33:16.831001,-177
2021-12-23 17:33:16.831010,-219
2021-12-23 17:33:16.831020,-249
2021-12-23 17:33:16.831030,-268
2021-12-23 17:33:16.831040,-286
2021-12-23 17:33:16.831050,-319
2021-12-23 17:33:16.831060,-326
2021-12-23 17:33:17.055161,-296
2021-12-23 17:33:17.055192,-265
2021-12-23 17:33:17.055204,-247
2021-12-23 17:33:17.055214,-240
2021-12-23 17:33:17.055224,-228
2021-12-23 17:33:17.055234,-223
2021-12-23 17:33:17.055244,-233
2021-12-23 17:33:17.055254,-219
2021-12-23 17:33:17.055264,-186
2021-12-23 17:33:17.055274,-170
2021-12-23 17:33:17.055284,-146
2021-12-23 17:33:17.055294,-135
2021-12-23 17:33:17.055304,-174
2021-12-23 17:33:17.055314,-195
2021-12-23 17:33:17.055324,-165
2021-12-23 17:33:17.055334,-146
2021-12-23 17:33:17.055344,-144
2021-12-23 17:33:17.055354,-142
2021-12-23 17:33:17.055364,-135
2021-12-23 17:33:17.055373,-121
2021-12-23 17:33:17.055383,-100
2021-12-23 17:33:17.055393,-97
2021-12-23 17:33:17.055403,-100
2021-12-23 17:33:17.055413,-100
2021-12-23 17:33:17.055423,-97
2021-12-23 17:33:17.055433,-76
2021-12-23 17:33:17.055443,-58
2021-12-23 17:33:17.055453,-58
2021-12-23 17:33:17.055463,-44
2021-12-23 17:33:17.055473,-20
2021-12-23 17:33:17.280124,-6
2021-12-23 17:33:17.280154,2
2021-12-23 17:33:17.280167,-6
2021-12-23 17:33:17.280177,-23
2021-12-23 17:33:17.280188,-30
2021-12-23 17:33:17.280198,-46
2021-12-23 17:33:17.280208,-55
2021-12-23 17:33:17.280218,-27
2021-12-23 17:33:17.280228,-11
2021-12-23 17:33:17.280238,-18
2021-12-23 17:33:17.280248,-25
2021-12-23 17:33:17.280258,-39
2021-12-23 17:33:17.280268,-27
2021-12-23 17:33:17.280278,34
2021-12-23 17:33:17.280288,151
2021-12-23 17:33:17.280298,368
2021-12-23 17:33:17.280308,545
2021-12-23 17:33:17.280318,419
2021-12-23 17:33:17.280328,-72
2021-12-23 17:33:17.280338,-554
2021-12-23 17:33:17.280348,-473
2021-12-23 17:33:17.280358,-100
2021-12-23 17:33:17.280368,-46
2021-12-23 17:33:17.280377,-65
2021-12-23 17:33:17.280387,79
2021-12-23 17:33:17.280397,130
2021-12-23 17:33:17.280407,83
2021-12-23 17:33:17.280418,88
2021-12-23 17:33:17.280428,88
2021-12-23 17:33:17.280438,76
2021-12-23 17:33:17.505728,102
2021-12-23 17:33:17.505759,130
2021-12-23 17:33:17.505771,137
2021-12-23 17:33:17.505782,116
2021-12-23 17:33:17.505792,65
2021-12-23 17:33:17.505802,46
2021-12-23 17:33:17.505812,102
2021-12-23 17:33:17.505822,160
2021-12-23 17:33:17.505832,198
2021-12-23 17:33:17.505842,233
2021-12-23 17:33:17.505852,247
2021-12-23 17:33:17.505862,261
2021-12-23 17:33:17.505872,303
2021-12-23 17:33:17.505882,333
2021-12-23 17:33:17.505935,328
2021-12-23 17:33:17.505945,303
2021-12-23 17:33:17.505955,240
2021-12-23 17:33:17.505965,142
2021-12-23 17:33:17.505975,44
2021-12-23 17:33:17.505985,-37
2021-12-23 17:33:17.505995,-121
2021-12-23 17:33:17.506005,-202
2021-12-23 17:33:17.506015,-258
2021-12-23 17:33:17.506025,-282
2021-12-23 17:33:17.506035,-270
2021-12-23 17:33:17.506045,-251
2021-12-23 17:33:17.506055,-249
2021-12-23 17:33:17.506065,-251
2021-12-23 17:33:17.506075,-247
2021-12-23 17:33:17.506085,-223
2021-12-23 17:33:17.865098,-195
2021-12-23 17:33:17.865128,-179
2021-12-23 17:33:17.865141,-179
2021-12-23 17:33:17.865151,-202
2021-12-23 17:33:17.865162,-221
2021-12-23 17:33:17.865172,-195
2021-12-23 17:33:17.865182,-156
2021-12-23 17:33:17.865192,-137
2021-12-23 17:33:17.865202,-128
2021-12-23 17:33:17.865212,-142
2021-12-23 17:33:17.865221,-160
2021-12-23 17:33:17.865231,-135
2021-12-23 17:33:17.865241,-100
2021-12-23 17:33:17.865251,-88
2021-12-23 17:33:17.865261,-88
2021-12-23 17:33:17.865271,-100
2021-12-23 17:33:17.865281,-107
2021-12-23 17:33:17.865291,-88
2021-12-23 17:33:17.865301,-79
2021-12-23 17:33:17.865311,-104
2021-12-23 17:33:17.865321,-118
2021-12-23 17:33:17.865331,-111
2021-12-23 17:33:17.865341,-100
2021-12-23 17:33:17.865351,-81
2021-12-23 17:33:17.865361,-65
2021-12-23 17:33:17.865371,-53
2021-12-23 17:33:17.865381,-48
2021-12-23 17:33:17.865390,-58
2021-12-23 17:33:17.865400,-58
2021-12-23 17:33:17.865410,-34
2021-12-23 17:33:18.089345,-18
2021-12-23 17:33:18.089369,-13
2021-12-23 17:33:18.089377,-16
2021-12-23 17:33:18.089384,-34
2021-12-23 17:33:18.089390,-41
2021-12-23 17:33:18.089397,-16
2021-12-23 17:33:18.089435,9
2021-12-23 17:33:18.089442,18
2021-12-23 17:33:18.089448,27
2021-12-23 17:33:18.089454,9
2021-12-23 17:33:18.089461,-25
2021-12-23 17:33:18.089467,-16
2021-12-23 17:33:18.089474,4
2021-12-23 17:33:18.089480,-6
2021-12-23 17:33:18.089487,-37
2021-12-23 17:33:18.089494,-65
2021-12-23 17:33:18.089500,-53
2021-12-23 17:33:18.089507,-23
2021-12-23 17:33:18.089513,-11
2021-12-23 17:33:18.089520,-4
2021-12-23 17:33:18.089526,-2
2021-12-23 17:33:18.089533,-25
2021-12-23 17:33:18.089539,-32
2021-12-23 17:33:18.089546,9
2021-12-23 17:33:18.089552,121
2021-12-23 17:33:18.089559,359
2021-12-23 17:33:18.089565,538
2021-12-23 17:33:18.089571,398
2021-12-23 17:33:18.089578,-34
2021-12-23 17:33:18.089585,-510
2021-12-23 17:33:18.225142,-538
2021-12-23 17:33:18.225173,-174
2021-12-23 17:33:18.225184,-51
2021-12-23 17:33:18.225195,-93
2021-12-23 17:33:18.225205,16
2021-12-23 17:33:18.225215,90
2021-12-23 17:33:18.225225,62
2021-12-23 17:33:18.225235,62
2021-12-23 17:33:18.225245,65
2021-12-23 17:33:18.225255,46
2021-12-23 17:33:18.225265,65
2021-12-23 17:33:18.225275,102
2021-12-23 17:33:18.225285,121
2021-12-23 17:33:18.225295,128
2021-12-23 17:33:18.225305,109
2021-12-23 17:33:18.225315,93
2021-12-23 17:33:18.225325,114
2021-12-23 17:33:18.225334,144
2021-12-23 17:33:18.225344,165
2021-12-23 17:33:18.225354,198
2021-12-23 17:33:18.225364,237
2021-12-23 17:33:18.225374,270
2021-12-23 17:33:18.225384,289
2021-12-23 17:33:18.225394,291
2021-12-23 17:33:18.225404,279
2021-12-23 17:33:18.225414,256
2021-12-23 17:33:18.225424,202
2021-12-23 17:33:18.225434,135
2021-12-23 17:33:18.225444,72
2021-12-23 17:33:18.225453,11
2021-12-23 17:33:18.450590,-62
2021-12-23 17:33:18.450621,-139
2021-12-23 17:33:18.450633,-188
2021-12-23 17:33:18.450643,-209
2021-12-23 17:33:18.450654,-209
2021-12-23 17:33:18.450664,-193
2021-12-23 17:33:18.450674,-191
2021-12-23 17:33:18.450684,-216
2021-12-23 17:33:18.450694,-230
2021-12-23 17:33:18.450704,-205
2021-12-23 17:33:18.450714,-177
2021-12-23 17:33:18.450724,-158
2021-12-23 17:33:18.450734,-139
2021-12-23 17:33:18.450744,-153
2021-12-23 17:33:18.450754,-191
2021-12-23 17:33:18.450764,-216
2021-12-23 17:33:18.450774,-207
2021-12-23 17:33:18.450784,-170
2021-12-23 17:33:18.450793,-151
2021-12-23 17:33:18.450803,-146
2021-12-23 17:33:18.450813,-128
2021-12-23 17:33:18.450823,-107
2021-12-23 17:33:18.450833,-104
2021-12-23 17:33:18.450843,-90
2021-12-23 17:33:18.450853,-69
2021-12-23 17:33:18.450863,-81
2021-12-23 17:33:18.450873,-100
2021-12-23 17:33:18.450883,-88
2021-12-23 17:33:18.450893,-67
2021-12-23 17:33:18.450903,-53
2021-12-23 17:33:18.675114,-51
2021-12-23 17:33:18.675144,-55
2021-12-23 17:33:18.675157,-46
2021-12-23 17:33:18.675167,-39
2021-12-23 17:33:18.675177,-37
2021-12-23 17:33:18.675187,-23
2021-12-23 17:33:18.675197,-34
2021-12-23 17:33:18.675206,-69
2021-12-23 17:33:18.675216,-55
2021-12-23 17:33:18.675226,-32
2021-12-23 17:33:18.675236,-41
2021-12-23 17:33:18.675246,-46
2021-12-23 17:33:18.675255,-48
2021-12-23 17:33:18.675265,-65
2021-12-23 17:33:18.675275,-51
2021-12-23 17:33:18.675285,-18
2021-12-23 17:33:18.675295,-2
2021-12-23 17:33:18.675305,2
2021-12-23 17:33:18.675315,-4
2021-12-23 17:33:18.675325,-20
2021-12-23 17:33:18.675335,-34
2021-12-23 17:33:18.675344,-41
2021-12-23 17:33:18.675354,-32
2021-12-23 17:33:18.675364,-18
2021-12-23 17:33:18.675374,-18
2021-12-23 17:33:18.675384,-11
2021-12-23 17:33:18.675394,-16
2021-12-23 17:33:18.675403,-51
2021-12-23 17:33:18.675413,-62
2021-12-23 17:33:18.675423,-30
2021-12-23 17:33:18.900743,-2
2021-12-23 17:33:18.900774,44
2021-12-23 17:33:18.900786,209
2021-12-23 17:33:18.900796,470
2021-12-23 17:33:18.900806,573
2021-12-23 17:33:18.900816,265
2021-12-23 17:33:18.900825,-361
2021-12-23 17:33:18.900835,-662
2021-12-23 17:33:18.900845,-298
2021-12-23 17:33:18.900855,-6
2021-12-23 17:33:18.900864,-104
2021-12-23 17:33:18.900874,-95
2021-12-23 17:33:18.900884,9
2021-12-23 17:33:18.900894,-13
2021-12-23 17:33:18.900903,-34
2021-12-23 17:33:18.900913,6
2021-12-23 17:33:18.900923,20
2021-12-23 17:33:18.900932,16
2021-12-23 17:33:18.900942,27
2021-12-23 17:33:18.900952,51
2021-12-23 17:33:18.900961,53
2021-12-23 17:33:18.900971,27
2021-12-23 17:33:18.900980,34
2021-12-23 17:33:18.900990,79
2021-12-23 17:33:18.900999,118
2021-12-23 17:33:18.901009,153
2021-12-23 17:33:18.901019,198
2021-12-23 17:33:18.901028,242
2021-12-23 17:33:18.901038,282
2021-12-23 17:33:18.901048,303
2021-12-23 17:33:19.125304,312
2021-12-23 17:33:19.125334,331
2021-12-23 17:33:19.125346,331
2021-12-23 17:33:19.125357,289
2021-12-23 17:33:19.125367,212
2021-12-23 17:33:19.125377,104
2021-12-23 17:33:19.125387,6
2021-12-23 17:33:19.125396,-44
2021-12-23 17:33:19.125406,-86
2021-12-23 17:33:19.125416,-144
2021-12-23 17:33:19.125426,-193
2021-12-23 17:33:19.125436,-221
2021-12-23 17:33:19.125446,-223
2021-12-23 17:33:19.125456,-207
2021-12-23 17:33:19.125466,-200
2021-12-23 17:33:19.125476,-191
2021-12-23 17:33:19.125485,-174
2021-12-23 17:33:19.125495,-167
2021-12-23 17:33:19.125505,-156
2021-12-23 17:33:19.125515,-123
2021-12-23 17:33:19.125524,-97
2021-12-23 17:33:19.125534,-100
2021-12-23 17:33:19.125544,-97
2021-12-23 17:33:19.125554,-79
2021-12-23 17:33:19.125564,-48
2021-12-23 17:33:19.125573,-25
2021-12-23 17:33:19.125583,-20
2021-12-23 17:33:19.125593,-20
2021-12-23 17:33:19.125603,-20
2021-12-23 17:33:19.125613,-9
2021-12-23 17:33:19.395727,2
2021-12-23 17:33:19.395758,-11
2021-12-23 17:33:19.395770,-39
2021-12-23 17:33:19.395780,-53
2021-12-23 17:33:19.395790,-69
2021-12-23 17:33:19.395800,-86
2021-12-23 17:33:19.395810,-67
2021-12-23 17:33:19.395820,-48
2021-12-23 17:33:19.395830,-55
2021-12-23 17:33:19.395840,-62
2021-12-23 17:33:19.395849,-72
2021-12-23 17:33:19.395859,-76
2021-12-23 17:33:19.395869,-53
2021-12-23 17:33:19.395879,-39
2021-12-23 17:33:19.395888,-62
2021-12-23 17:33:19.395898,-88
2021-12-23 17:33:19.395908,-90
2021-12-23 17:33:19.395917,-79
2021-12-23 17:33:19.395927,-58
2021-12-23 17:33:19.395937,-30
2021-12-23 17:33:19.395947,-6
2021-12-23 17:33:19.395956,-2
2021-12-23 17:33:19.395966,-9
2021-12-23 17:33:19.395976,-18
2021-12-23 17:33:19.395986,-16
2021-12-23 17:33:19.395995,-9
2021-12-23 17:33:19.396005,-41
2021-12-23 17:33:19.396015,-100
2021-12-23 17:33:19.396024,-102
2021-12-23 17:33:19.396034,-67
2021-12-23 17:33:19.620485,-48
2021-12-23 17:33:19.620504,-30
2021-12-23 17:33:19.620512,-18
2021-12-23 17:33:19.620519,-34
2021-12-23 17:33:19.620526,-6
2021-12-23 17:33:19.620533,158
2021-12-23 17:33:19.620540,415
2021-12-23 17:33:19.620546,533
2021-12-23 17:33:19.620553,293
2021-12-23 17:33:19.620559,-310
2021-12-23 17:33:19.620566,-750
2021-12-23 17:33:19.620573,-487
2021-12-23 17:33:19.620579,-111
2021-12-23 17:33:19.620586,-139
2021-12-23 17:33:19.620592,-130
2021-12-23 17:33:19.620599,-11
2021-12-23 17:33:19.620605,-34
2021-12-23 17:33:19.620612,-48
2021-12-23 17:33:19.620619,18
2021-12-23 17:33:19.620625,37
2021-12-23 17:33:19.620632,30
2021-12-23 17:33:19.620638,39
2021-12-23 17:33:19.620645,48
2021-12-23 17:33:19.620651,67
2021-12-23 17:33:19.620658,97
2021-12-23 17:33:19.620664,123
2021-12-23 17:33:19.620671,156
2021-12-23 17:33:19.620677,184
2021-12-23 17:33:19.620684,209
2021-12-23 17:33:19.620691,256
2021-12-23 17:33:19.845287,303
2021-12-23 17:33:19.845318,342
2021-12-23 17:33:19.845330,370
2021-12-23 17:33:19.845341,373
2021-12-23 17:33:19.845351,366
2021-12-23 17:33:19.845361,342
2021-12-23 17:33:19.845370,293
2021-12-23 17:33:19.845380,249
2021-12-23 17:33:19.845390,170
2021-12-23 17:33:19.845400,32
2021-12-23 17:33:19.845409,-65
2021-12-23 17:33:19.845419,-93
2021-12-23 17:33:19.845429,-121
2021-12-23 17:33:19.845439,-149
2021-12-23 17:33:19.845448,-191
2021-12-23 17:33:19.845458,-237
2021-12-23 17:33:19.845468,-219
2021-12-23 17:33:19.845477,-172
2021-12-23 17:33:19.845487,-165
2021-12-23 17:33:19.845497,-156
2021-12-23 17:33:19.845506,-149
2021-12-23 17:33:19.845516,-163
2021-12-23 17:33:19.845526,-144
2021-12-23 17:33:19.845535,-109
2021-12-23 17:33:19.845545,-88
2021-12-23 17:33:19.845555,-60
2021-12-23 17:33:19.845564,-41
2021-12-23 17:33:19.845574,-62
2021-12-23 17:33:19.845584,-69
2021-12-23 17:33:19.845593,-37
2021-12-23 17:33:20.114434,-13
2021-12-23 17:33:20.114465,-18
2021-12-23 17:33:20.114477,-48
2021-12-23 17:33:20.114487,-65
2021-12-23 17:33:20.114497,-53
2021-12-23 17:33:20.114507,-32
2021-12-23 17:33:20.114517,-20
2021-12-23 17:33:20.114527,-51
2021-12-23 17:33:20.114537,-123
2021-12-23 17:33:20.114547,-156
2021-12-23 17:33:20.114557,-137
2021-12-23 17:33:20.114567,-121
2021-12-23 17:33:20.114576,-111
2021-12-23 17:33:20.114586,-109
2021-12-23 17:33:20.114596,-137
2021-12-23 17:33:20.114606,-151
2021-12-23 17:33:20.114616,-121
2021-12-23 17:33:20.114626,-95
2021-12-23 17:33:20.114636,-90
2021-12-23 17:33:20.114651,-93
2021-12-23 17:33:20.114661,-107
2021-12-23 17:33:20.114671,-116
2021-12-23 17:33:20.114681,-95
2021-12-23 17:33:20.114691,-62
2021-12-23 17:33:20.114701,-41
2021-12-23 17:33:20.114711,-37
2021-12-23 17:33:20.114721,-39
2021-12-23 17:33:20.114731,-34
2021-12-23 17:33:20.114741,-11
2021-12-23 17:33:20.114751,11
2021-12-23 17:33:20.295733,13
2021-12-23 17:33:20.295763,-16
2021-12-23 17:33:20.295775,-60
2021-12-23 17:33:20.295785,-74
2021-12-23 17:33:20.295795,-67
2021-12-23 17:33:20.295805,-69
2021-12-23 17:33:20.295815,-86
2021-12-23 17:33:20.295825,-116
2021-12-23 17:33:20.295834,-139
2021-12-23 17:33:20.295844,-146
2021-12-23 17:33:20.295854,-144
2021-12-23 17:33:20.295864,-111
2021-12-23 17:33:20.295874,-37
2021-12-23 17:33:20.295884,125
2021-12-23 17:33:20.295894,375
2021-12-23 17:33:20.295904,459
2021-12-23 17:33:20.295914,153
2021-12-23 17:33:20.295924,-410
2021-12-23 17:33:20.295934,-676
2021-12-23 17:33:20.295944,-363
2021-12-23 17:33:20.295954,-102
2021-12-23 17:33:20.295964,-151
2021-12-23 17:33:20.295974,-81
2021-12-23 17:33:20.295984,53
2021-12-23 17:33:20.295994,32
2021-12-23 17:33:20.296004,6
2021-12-23 17:33:20.296013,51
2021-12-23 17:33:20.296023,72
2021-12-23 17:33:20.296033,74
2021-12-23 17:33:20.296043,100
2021-12-23 17:33:20.520280,116
2021-12-23 17:33:20.520312,121
2021-12-23 17:33:20.520324,130
2021-12-23 17:33:20.520335,156
2021-12-23 17:33:20.520345,198
2021-12-23 17:33:20.520355,235
2021-12-23 17:33:20.520365,235
2021-12-23 17:33:20.520375,228
2021-12-23 17:33:20.520385,228
2021-12-23 17:33:20.520395,240
2021-12-23 17:33:20.520406,291
2021-12-23 17:33:20.520416,314
2021-12-23 17:33:20.520426,268
2021-12-23 17:33:20.520436,233
2021-12-23 17:33:20.520446,228
2021-12-23 17:33:20.520456,181
2021-12-23 17:33:20.520466,93
2021-12-23 17:33:20.520476,18
2021-12-23 17:33:20.520487,-55
2021-12-23 17:33:20.520497,-125
2021-12-23 17:33:20.520507,-158
2021-12-23 17:33:20.520517,-177
2021-12-23 17:33:20.520527,-195
2021-12-23 17:33:20.520538,-188
2021-12-23 17:33:20.520548,-179
2021-12-23 17:33:20.520558,-172
2021-12-23 17:33:20.520568,-158
2021-12-23 17:33:20.520578,-156
2021-12-23 17:33:20.520588,-139
2021-12-23 17:33:20.520598,-116
2021-12-23 17:33:20.789923,-137
2021-12-23 17:33:20.789943,-151
2021-12-23 17:33:20.789951,-114
2021-12-23 17:33:20.789958,-107
2021-12-23 17:33:20.789965,-102
2021-12-23 17:33:20.789971,-76
2021-12-23 17:33:20.789978,-97
2021-12-23 17:33:20.789984,-100
2021-12-23 17:33:20.789991,-60
2021-12-23 17:33:20.789997,-53
2021-12-23 17:33:20.790004,-62
2021-12-23 17:33:20.790011,-69
2021-12-23 17:33:20.790017,-88
2021-12-23 17:33:20.790024,-107
2021-12-23 17:33:20.790030,-121
2021-12-23 17:33:20.790037,-118
2021-12-23 17:33:20.790043,-95
2021-12-23 17:33:20.790050,-88
2021-12-23 17:33:20.790056,-102
2021-12-23 17:33:20.790063,-95
2021-12-23 17:33:20.790069,-72
2021-12-23 17:33:20.790076,-69
2021-12-23 17:33:20.790082,-76
2021-12-23 17:33:20.790089,-69
2021-12-23 17:33:20.790095,-62
2021-12-23 17:33:20.790102,-46
2021-12-23 17:33:20.790108,-41
2021-12-23 17:33:20.790115,-62
2021-12-23 17:33:20.790122,-74
2021-12-23 17:33:20.790128,-93
2021-12-23 17:33:20.970850,-121
2021-12-23 17:33:20.970880,-107
2021-12-23 17:33:20.970892,-81
2021-12-23 17:33:20.970902,-86
2021-12-23 17:33:20.970912,-86
2021-12-23 17:33:20.970922,-86
2021-12-23 17:33:20.970932,-86
2021-12-23 17:33:20.970942,-62
2021-12-23 17:33:20.970952,-51
2021-12-23 17:33:20.970962,-65
2021-12-23 17:33:20.970972,-60
2021-12-23 17:33:20.970982,-46
2021-12-23 17:33:20.970991,-58
2021-12-23 17:33:20.971001,-97
2021-12-23 17:33:20.971011,-128
2021-12-23 17:33:20.971021,-137
2021-12-23 17:33:20.971031,-156
2021-12-23 17:33:20.971041,-170
2021-12-23 17:33:20.971051,-142
2021-12-23 17:33:20.971061,-90
2021-12-23 17:33:20.971070,-34
2021-12-23 17:33:20.971080,116
2021-12-23 17:33:20.971090,382
2021-12-23 17:33:20.971100,503
2021-12-23 17:33:20.971110,261
2021-12-23 17:33:20.971121,-282
2021-12-23 17:33:20.971130,-636
2021-12-23 17:33:20.971140,-375
2021-12-23 17:33:20.971150,-48
2021-12-23 17:33:20.971160,-72
2021-12-23 17:33:21.195315,-41
2021-12-23 17:33:21.195345,93
2021-12-23 17:33:21.195357,95
2021-12-23 17:33:21.195367,62
2021-12-23 17:33:21.195376,76
2021-12-23 17:33:21.195386,72
2021-12-23 17:33:21.195396,81
2021-12-23 17:33:21.195406,123
2021-12-23 17:33:21.195415,144
2021-12-23 17:33:21.195425,135
2021-12-23 17:33:21.195435,121
2021-12-23 17:33:21.195444,135
2021-12-23 17:33:21.195454,181
2021-12-23 17:33:21.195463,223
2021-12-23 17:33:21.195473,254
2021-12-23 17:33:21.195483,282
2021-12-23 17:33:21.195492,310
2021-12-23 17:33:21.195502,340
2021-12-23 17:33:21.195512,359
2021-12-23 17:33:21.195521,377
2021-12-23 17:33:21.195531,396
2021-12-23 17:33:21.195541,382
2021-12-23 17:33:21.195550,345
2021-12-23 17:33:21.195560,303
2021-12-23 17:33:21.195570,233
2021-12-23 17:33:21.195579,153
2021-12-23 17:33:21.195589,76
2021-12-23 17:33:21.195599,0
2021-12-23 17:33:21.195609,-67
2021-12-23 17:33:21.195618,-95
2021-12-23 17:33:21.510109,-90
2021-12-23 17:33:21.510139,-88
2021-12-23 17:33:21.510152,-121
2021-12-23 17:33:21.510162,-174
2021-12-23 17:33:21.510172,-188
2021-12-23 17:33:21.510182,-160
2021-12-23 17:33:21.510192,-139
2021-12-23 17:33:21.510202,-118
2021-12-23 17:33:21.510212,-107
2021-12-23 17:33:21.510222,-135
2021-12-23 17:33:21.510232,-153
2021-12-23 17:33:21.510242,-123
2021-12-23 17:33:21.510252,-88
2021-12-23 17:33:21.510262,-67
2021-12-23 17:33:21.510272,-55
2021-12-23 17:33:21.510282,-60
2021-12-23 17:33:21.510292,-58
2021-12-23 17:33:21.510302,-34
2021-12-23 17:33:21.510312,-27
2021-12-23 17:33:21.510322,-55
2021-12-23 17:33:21.510331,-97
2021-12-23 17:33:21.510341,-102
2021-12-23 17:33:21.510351,-83
2021-12-23 17:33:21.510361,-72
2021-12-23 17:33:21.510371,-69
2021-12-23 17:33:21.510381,-79
2021-12-23 17:33:21.510391,-93
2021-12-23 17:33:21.510401,-116
2021-12-23 17:33:21.510411,-135
2021-12-23 17:33:21.510421,-121
2021-12-23 17:33:21.690435,-100
2021-12-23 17:33:21.690456,-90
2021-12-23 17:33:21.690464,-93
2021-12-23 17:33:21.690471,-107
2021-12-23 17:33:21.690478,-97
2021-12-23 17:33:21.690484,-79
2021-12-23 17:33:21.690490,-72
2021-12-23 17:33:21.690497,-69
2021-12-23 17:33:21.690503,-88
2021-12-23 17:33:21.690509,-123
2021-12-23 17:33:21.690516,-114
2021-12-23 17:33:21.690522,-69
2021-12-23 17:33:21.690528,-44
2021-12-23 17:33:21.690535,-27
2021-12-23 17:33:21.690541,-16
2021-12-23 17:33:21.690548,-20
2021-12-23 17:33:21.690554,-25
2021-12-23 17:33:21.690560,-20
2021-12-23 17:33:21.690567,-11
2021-12-23 17:33:21.690573,-9
2021-12-23 17:33:21.690579,-30
2021-12-23 17:33:21.690586,-81
2021-12-23 17:33:21.690593,-107
2021-12-23 17:33:21.690599,-76
2021-12-23 17:33:21.690605,-46
2021-12-23 17:33:21.690611,-44
2021-12-23 17:33:21.690618,-41
2021-12-23 17:33:21.690624,-20
2021-12-23 17:33:21.690630,65
2021-12-23 17:33:21.690637,293
2021-12-23 17:33:21.915877,545
2021-12-23 17:33:21.915908,536
2021-12-23 17:33:21.915920,139
2021-12-23 17:33:21.915930,-435
2021-12-23 17:33:21.915941,-573
2021-12-23 17:33:21.915951,-172
2021-12-23 17:33:21.915961,23
2021-12-23 17:33:21.915971,-65
2021-12-23 17:33:21.915981,-4
2021-12-23 17:33:21.915991,79
2021-12-23 17:33:21.916001,65
2021-12-23 17:33:21.916011,79
2021-12-23 17:33:21.916021,116
2021-12-23 17:33:21.916031,107
2021-12-23 17:33:21.916041,69
2021-12-23 17:33:21.916051,62
2021-12-23 17:33:21.916061,95
2021-12-23 17:33:21.916103,142
2021-12-23 17:33:21.916114,186
2021-12-23 17:33:21.916123,212
2021-12-23 17:33:21.916134,214
2021-12-23 17:33:21.916143,219
2021-12-23 17:33:21.916153,249
2021-12-23 17:33:21.916163,286
2021-12-23 17:33:21.916174,282
2021-12-23 17:33:21.916184,256
2021-12-23 17:33:21.916194,265
2021-12-23 17:33:21.916204,298
2021-12-23 17:33:21.916213,314
2021-12-23 17:33:21.916223,317
2021-12-23 17:33:22.184921,298
2021-12-23 17:33:22.184953,226
2021-12-23 17:33:22.184965,125
2021-12-23 17:33:22.184975,39
2021-12-23 17:33:22.184985,-23
2021-12-23 17:33:22.184995,-69
2021-12-23 17:33:22.185005,-118
2021-12-23 17:33:22.185014,-170
2021-12-23 17:33:22.185024,-202
2021-12-23 17:33:22.185034,-200
2021-12-23 17:33:22.185044,-177
2021-12-23 17:33:22.185054,-149
2021-12-23 17:33:22.185064,-153
2021-12-23 17:33:22.185074,-202
2021-12-23 17:33:22.185084,-228
2021-12-23 17:33:22.185093,-202
2021-12-23 17:33:22.185103,-174
2021-12-23 17:33:22.185113,-163
2021-12-23 17:33:22.185123,-153
2021-12-23 17:33:22.185133,-137
2021-12-23 17:33:22.185143,-111
2021-12-23 17:33:22.185153,-97
2021-12-23 17:33:22.185162,-86
2021-12-23 17:33:22.185172,-60
2021-12-23 17:33:22.185182,-51
2021-12-23 17:33:22.185225,-60
2021-12-23 17:33:22.185235,-67
2021-12-23 17:33:22.185245,-62
2021-12-23 17:33:22.185255,-39
2021-12-23 17:33:22.185265,-30
2021-12-23 17:33:22.365315,-46
2021-12-23 17:33:22.365346,-58
2021-12-23 17:33:22.365358,-53
2021-12-23 17:33:22.365368,-41
2021-12-23 17:33:22.365378,-39
2021-12-23 17:33:22.365388,-51
2021-12-23 17:33:22.365398,-81
2021-12-23 17:33:22.365408,-116
2021-12-23 17:33:22.365417,-135
2021-12-23 17:33:22.365427,-135
2021-12-23 17:33:22.365437,-123
2021-12-23 17:33:22.365447,-116
2021-12-23 17:33:22.365457,-142
2021-12-23 17:33:22.365467,-167
2021-12-23 17:33:22.365477,-137
2021-12-23 17:33:22.365487,-109
2021-12-23 17:33:22.365497,-109
2021-12-23 17:33:22.365507,-109
2021-12-23 17:33:22.365517,-118
2021-12-23 17:33:22.365527,-130
2021-12-23 17:33:22.365537,-116
2021-12-23 17:33:22.365547,-114
2021-12-23 17:33:22.365557,-111
2021-12-23 17:33:22.365567,-83
2021-12-23 17:33:22.365577,-67
2021-12-23 17:33:22.365587,-74
2021-12-23 17:33:22.365597,-67
2021-12-23 17:33:22.365607,-67
2021-12-23 17:33:22.365617,-79
2021-12-23 17:33:22.365627,-69
2021-12-23 17:33:22.590094,-83
2021-12-23 17:33:22.590117,-135
2021-12-23 17:33:22.590125,-130
2021-12-23 17:33:22.590131,-86
2021-12-23 17:33:22.590138,-79
2021-12-23 17:33:22.590145,-100
2021-12-23 17:33:22.590151,-114
2021-12-23 17:33:22.590157,-104
2021-12-23 17:33:22.590164,-81
2021-12-23 17:33:22.590170,-86
2021-12-23 17:33:22.590177,-76
2021-12-23 17:33:22.590183,-41
2021-12-23 17:33:22.590190,-13
2021-12-23 17:33:22.590196,107
2021-12-23 17:33:22.590203,366
2021-12-23 17:33:22.590209,475
2021-12-23 17:33:22.590216,263
2021-12-23 17:33:22.590222,-144
2021-12-23 17:33:22.590229,-529
2021-12-23 17:33:22.590235,-468
2021-12-23 17:33:22.590242,-102
2021-12-23 17:33:22.590248,-9
2021-12-23 17:33:22.590255,-25
2021-12-23 17:33:22.590261,76
2021-12-23 17:33:22.590267,111
2021-12-23 17:33:22.590274,97
2021-12-23 17:33:22.590280,118
2021-12-23 17:33:22.590287,116
2021-12-23 17:33:22.590293,121
2021-12-23 17:33:22.590300,151
2021-12-23 17:33:22.815597,146
2021-12-23 17:33:22.815627,139
2021-12-23 17:33:22.815639,170
2021-12-23 17:33:22.815649,188
2021-12-23 17:33:22.815659,191
2021-12-23 17:33:22.815669,193
2021-12-23 17:33:22.815679,198
2021-12-23 17:33:22.815689,237
2021-12-23 17:33:22.815699,298
2021-12-23 17:33:22.815709,328
2021-12-23 17:33:22.815719,338
2021-12-23 17:33:22.815729,345
2021-12-23 17:33:22.815739,354
2021-12-23 17:33:22.815749,373
2021-12-23 17:33:22.815759,370
2021-12-23 17:33:22.815769,324
2021-12-23 17:33:22.815779,247
2021-12-23 17:33:22.815788,167
2021-12-23 17:33:22.815798,86
2021-12-23 17:33:22.815808,11
2021-12-23 17:33:22.815818,-55
2021-12-23 17:33:22.815828,-118
2021-12-23 17:33:22.815838,-160
2021-12-23 17:33:22.815848,-177
2021-12-23 17:33:22.815858,-172
2021-12-23 17:33:22.815868,-151
2021-12-23 17:33:22.815878,-142
2021-12-23 17:33:22.815888,-144
2021-12-23 17:33:22.815898,-139
2021-12-23 17:33:22.815908,-118
2021-12-23 17:33:23.084858,-104
2021-12-23 17:33:23.084882,-111
2021-12-23 17:33:23.084890,-116
2021-12-23 17:33:23.084896,-125
2021-12-23 17:33:23.084903,-165
2021-12-23 17:33:23.084913,-200
2021-12-23 17:33:23.084920,-200
2021-12-23 17:33:23.084926,-170
2021-12-23 17:33:23.084933,-137
2021-12-23 17:33:23.084939,-142
2021-12-23 17:33:23.084945,-170
2021-12-23 17:33:23.084952,-174
2021-12-23 17:33:23.084958,-153
2021-12-23 17:33:23.084965,-151
2021-12-23 17:33:23.084971,-160
2021-12-23 17:33:23.084977,-177
2021-12-23 17:33:23.084984,-188
2021-12-23 17:33:23.084990,-160
2021-12-23 17:33:23.084997,-132
2021-12-23 17:33:23.085003,-130
2021-12-23 17:33:23.085009,-123
2021-12-23 17:33:23.085016,-125
2021-12-23 17:33:23.085022,-139
2021-12-23 17:33:23.085029,-135
2021-12-23 17:33:23.085035,-109
2021-12-23 17:33:23.085041,-83
2021-12-23 17:33:23.085048,-76
2021-12-23 17:33:23.085054,-83
2021-12-23 17:33:23.085061,-93
2021-12-23 17:33:23.085067,-88
2021-12-23 17:33:23.310227,-67
2021-12-23 17:33:23.310257,-30
2021-12-23 17:33:23.310269,-16
2021-12-23 17:33:23.310279,-51
2021-12-23 17:33:23.310289,-90
2021-12-23 17:33:23.310299,-74
2021-12-23 17:33:23.310309,-48
2021-12-23 17:33:23.310319,-37
2021-12-23 17:33:23.310329,-25
2021-12-23 17:33:23.310339,-44
2021-12-23 17:33:23.310348,-74
2021-12-23 17:33:23.310358,-53
2021-12-23 17:33:23.310368,-6
2021-12-23 17:33:23.310378,18
2021-12-23 17:33:23.310388,2
2021-12-23 17:33:23.310397,-51
2021-12-23 17:33:23.310407,-76
2021-12-23 17:33:23.310417,-41
2021-12-23 17:33:23.310427,-11
2021-12-23 17:33:23.310436,-6
2021-12-23 17:33:23.310446,4
2021-12-23 17:33:23.310456,-9
2021-12-23 17:33:23.310466,-25
2021-12-23 17:33:23.310476,6
2021-12-23 17:33:23.310486,46
2021-12-23 17:33:23.310496,72
2021-12-23 17:33:23.310505,151
2021-12-23 17:33:23.310515,326
2021-12-23 17:33:23.310525,503
2021-12-23 17:33:23.310535,475
2021-12-23 17:33:23.624528,100
2021-12-23 17:33:23.624558,-433
2021-12-23 17:33:23.624570,-501
2021-12-23 17:33:23.624581,-88
2021-12-23 17:33:23.624591,60
2021-12-23 17:33:23.624601,-32
2021-12-23 17:33:23.624611,58
2021-12-23 17:33:23.624620,153
2021-12-23 17:33:23.624630,111
2021-12-23 17:33:23.624640,86
2021-12-23 17:33:23.624650,97
2021-12-23 17:33:23.624659,69
2021-12-23 17:33:23.624669,58
2021-12-23 17:33:23.624679,100
2021-12-23 17:33:23.624689,100
2021-12-23 17:33:23.624698,74
2021-12-23 17:33:23.624708,104
2021-12-23 17:33:23.624718,153
2021-12-23 17:33:23.624728,177
2021-12-23 17:33:23.624737,207
2021-12-23 17:33:23.624747,240
2021-12-23 17:33:23.624757,265
2021-12-23 17:33:23.624767,310
2021-12-23 17:33:23.624776,349
2021-12-23 17:33:23.624786,352
2021-12-23 17:33:23.624796,363
2021-12-23 17:33:23.624805,382
2021-12-23 17:33:23.624815,349
2021-12-23 17:33:23.624825,300
2021-12-23 17:33:23.624835,268
2021-12-23 17:33:23.759972,202
2021-12-23 17:33:23.759994,100
2021-12-23 17:33:23.760002,11
2021-12-23 17:33:23.760009,-53
2021-12-23 17:33:23.760016,-102
2021-12-23 17:33:23.760022,-130
2021-12-23 17:33:23.760029,-139
2021-12-23 17:33:23.760035,-146
2021-12-23 17:33:23.760043,-170
2021-12-23 17:33:23.760049,-179
2021-12-23 17:33:23.760056,-149
2021-12-23 17:33:23.760063,-116
2021-12-23 17:33:23.760069,-107
2021-12-23 17:33:23.760076,-111
2021-12-23 17:33:23.760083,-121
2021-12-23 17:33:23.760089,-114
2021-12-23 17:33:23.760096,-104
2021-12-23 17:33:23.760102,-111
2021-12-23 17:33:23.760109,-121
2021-12-23 17:33:23.760115,-144
2021-12-23 17:33:23.760122,-174
2021-12-23 17:33:23.760129,-158
2021-12-23 17:33:23.760135,-125
2021-12-23 17:33:23.760142,-111
2021-12-23 17:33:23.760148,-107
2021-12-23 17:33:23.760155,-116
2021-12-23 17:33:23.760161,-125
2021-12-23 17:33:23.760168,-114
2021-12-23 17:33:23.760174,-104
2021-12-23 17:33:23.760181,-97
2021-12-23 17:33:24.030087,-83
2021-12-23 17:33:24.030109,-88
2021-12-23 17:33:24.030117,-102
2021-12-23 17:33:24.030124,-90
2021-12-23 17:33:24.030131,-74
2021-12-23 17:33:24.030137,-65
2021-12-23 17:33:24.030144,-62
2021-12-23 17:33:24.030151,-81
2021-12-23 17:33:24.030157,-104
2021-12-23 17:33:24.030164,-107
2021-12-23 17:33:24.030171,-114
2021-12-23 17:33:24.030178,-116
2021-12-23 17:33:24.030184,-111
2021-12-23 17:33:24.030191,-130
2021-12-23 17:33:24.030198,-137
2021-12-23 17:33:24.030204,-107
2021-12-23 17:33:24.030211,-111
2021-12-23 17:33:24.030217,-142
2021-12-23 17:33:24.030224,-123
2021-12-23 17:33:24.030231,-100
2021-12-23 17:33:24.030237,-116
2021-12-23 17:33:24.030244,-125
2021-12-23 17:33:24.030251,-102
2021-12-23 17:33:24.030257,-67
2021-12-23 17:33:24.030264,-48
2021-12-23 17:33:24.030271,-53
2021-12-23 17:33:24.030277,-62
2021-12-23 17:33:24.030284,-58
2021-12-23 17:33:24.030290,-39
2021-12-23 17:33:24.030297,-32
2021-12-23 17:33:24.253814,-23
2021-12-23 17:33:24.253835,25
2021-12-23 17:33:24.253843,135
2021-12-23 17:33:24.253850,335
2021-12-23 17:33:24.253857,503
2021-12-23 17:33:24.253863,377
2021-12-23 17:33:24.253870,-156
2021-12-23 17:33:24.253876,-676
2021-12-23 17:33:24.253883,-505
2021-12-23 17:33:24.253889,-34
2021-12-23 17:33:24.253896,0
2021-12-23 17:33:24.253902,-60
2021-12-23 17:33:24.253909,74
2021-12-23 17:33:24.253915,118
2021-12-23 17:33:24.253922,83
2021-12-23 17:33:24.253928,107
2021-12-23 17:33:24.253935,144
2021-12-23 17:33:24.253941,167
2021-12-23 17:33:24.253948,151
2021-12-23 17:33:24.253954,111
2021-12-23 17:33:24.253961,118
2021-12-23 17:33:24.253967,153
2021-12-23 17:33:24.253974,184
2021-12-23 17:33:24.253980,226
2021-12-23 17:33:24.253987,249
2021-12-23 17:33:24.253993,256
2021-12-23 17:33:24.254000,233
2021-12-23 17:33:24.254006,172
2021-12-23 17:33:24.254012,261
2021-12-23 17:33:24.254019,454
2021-12-23 17:33:24.435662,466
2021-12-23 17:33:24.435692,384
2021-12-23 17:33:24.435704,380
2021-12-23 17:33:24.435714,366
2021-12-23 17:33:24.435724,303
2021-12-23 17:33:24.435734,226
2021-12-23 17:33:24.435744,123
2021-12-23 17:33:24.435754,27
2021-12-23 17:33:24.435764,-25
2021-12-23 17:33:24.435774,-76
2021-12-23 17:33:24.435784,-125
2021-12-23 17:33:24.435793,-165
2021-12-23 17:33:24.435803,-202
2021-12-23 17:33:24.435813,-209
2021-12-23 17:33:24.435823,-212
2021-12-23 17:33:24.435833,-228
2021-12-23 17:33:24.435843,-214
2021-12-23 17:33:24.435853,-202
2021-12-23 17:33:24.435862,-207
2021-12-23 17:33:24.435872,-177
2021-12-23 17:33:24.435882,-144
2021-12-23 17:33:24.435892,-165
2021-12-23 17:33:24.435902,-214
2021-12-23 17:33:24.435912,-254
2021-12-23 17:33:24.435922,-256
2021-12-23 17:33:24.435932,-237
2021-12-23 17:33:24.435942,-247
2021-12-23 17:33:24.435952,-249
2021-12-23 17:33:24.435962,-205
2021-12-23 17:33:24.435972,-174
2021-12-23 17:33:24.660478,-174
2021-12-23 17:33:24.660509,-163
2021-12-23 17:33:24.660520,-151
2021-12-23 17:33:24.660530,-160
2021-12-23 17:33:24.660540,-177
2021-12-23 17:33:24.660550,-195
2021-12-23 17:33:24.660560,-202
2021-12-23 17:33:24.660570,-184
2021-12-23 17:33:24.660580,-174
2021-12-23 17:33:24.660589,-174
2021-12-23 17:33:24.660599,-170
2021-12-23 17:33:24.660609,-179
2021-12-23 17:33:24.660618,-170
2021-12-23 17:33:24.660628,-135
2021-12-23 17:33:24.660638,-118
2021-12-23 17:33:24.660648,-132
2021-12-23 17:33:24.660657,-156
2021-12-23 17:33:24.660667,-170
2021-12-23 17:33:24.660677,-163
2021-12-23 17:33:24.660686,-146
2021-12-23 17:33:24.660696,-130
2021-12-23 17:33:24.660706,-111
2021-12-23 17:33:24.660715,-102
2021-12-23 17:33:24.660725,-86
2021-12-23 17:33:24.660735,-62
2021-12-23 17:33:24.660745,-44
2021-12-23 17:33:24.660754,-39
2021-12-23 17:33:24.660764,-46
2021-12-23 17:33:24.660774,-67
2021-12-23 17:33:24.660783,-74
2021-12-23 17:33:24.885437,-55
2021-12-23 17:33:24.885459,-32
2021-12-23 17:33:24.885467,-18
2021-12-23 17:33:24.885473,-18
2021-12-23 17:33:24.885480,-39
2021-12-23 17:33:24.885486,-58
2021-12-23 17:33:24.885493,-34
2021-12-23 17:33:24.885499,0
2021-12-23 17:33:24.885506,30
2021-12-23 17:33:24.885512,93
2021-12-23 17:33:24.885519,233
2021-12-23 17:33:24.885525,398
2021-12-23 17:33:24.885532,356
2021-12-23 17:33:24.885538,46
2021-12-23 17:33:24.885545,-366
2021-12-23 17:33:24.885551,-561
2021-12-23 17:33:24.885558,-307
2021-12-23 17:33:24.885564,-41
2021-12-23 17:33:24.885571,-51
2021-12-23 17:33:24.885577,2
2021-12-23 17:33:24.885584,111
2021-12-23 17:33:24.885590,88
2021-12-23 17:33:24.885596,60
2021-12-23 17:33:24.885603,109
2021-12-23 17:33:24.885609,132
2021-12-23 17:33:24.885616,128
2021-12-23 17:33:24.885622,146
2021-12-23 17:33:24.885628,142
2021-12-23 17:33:24.885635,102
2021-12-23 17:33:24.885641,102
2021-12-23 17:33:25.155193,146
2021-12-23 17:33:25.155224,179
2021-12-23 17:33:25.155236,198
2021-12-23 17:33:25.155247,186
2021-12-23 17:33:25.155256,172
2021-12-23 17:33:25.155266,214
2021-12-23 17:33:25.155276,289
2021-12-23 17:33:25.155286,340
2021-12-23 17:33:25.155295,356
2021-12-23 17:33:25.155305,317
2021-12-23 17:33:25.155315,263
2021-12-23 17:33:25.155325,251
2021-12-23 17:33:25.155334,233
2021-12-23 17:33:25.155344,163
2021-12-23 17:33:25.155354,81
2021-12-23 17:33:25.155364,-6
2021-12-23 17:33:25.155374,-81
2021-12-23 17:33:25.155383,-114
2021-12-23 17:33:25.155393,-123
2021-12-23 17:33:25.155403,-139
2021-12-23 17:33:25.155413,-177
2021-12-23 17:33:25.155422,-216
2021-12-23 17:33:25.155432,-200
2021-12-23 17:33:25.155442,-153
2021-12-23 17:33:25.155451,-144
2021-12-23 17:33:25.155461,-139
2021-12-23 17:33:25.155471,-116
2021-12-23 17:33:25.155480,-114
2021-12-23 17:33:25.155490,-116
2021-12-23 17:33:25.155500,-95
2021-12-23 17:33:25.380504,-76
2021-12-23 17:33:25.380534,-86
2021-12-23 17:33:25.380546,-111
2021-12-23 17:33:25.380557,-144
2021-12-23 17:33:25.380567,-228
2021-12-23 17:33:25.380577,-324
2021-12-23 17:33:25.380587,-240
2021-12-23 17:33:25.380597,-107
2021-12-23 17:33:25.380606,-237
2021-12-23 17:33:25.380616,-419
2021-12-23 17:33:25.380626,-352
2021-12-23 17:33:25.380636,-258
2021-12-23 17:33:25.380646,-282
2021-12-23 17:33:25.380656,-272
2021-12-23 17:33:25.380666,-258
2021-12-23 17:33:25.380676,-293
2021-12-23 17:33:25.380686,-277
2021-12-23 17:33:25.380696,-230
2021-12-23 17:33:25.380706,-216
2021-12-23 17:33:25.380716,-205
2021-12-23 17:33:25.380726,-198
2021-12-23 17:33:25.380735,-214
2021-12-23 17:33:25.380745,-200
2021-12-23 17:33:25.380755,-102
2021-12-23 17:33:25.380765,27
2021-12-23 17:33:25.380775,67
2021-12-23 17:33:25.380785,25
2021-12-23 17:33:25.380795,6
2021-12-23 17:33:25.380804,30
2021-12-23 17:33:25.380814,46
2021-12-23 17:33:25.604555,46
2021-12-23 17:33:25.604576,48
2021-12-23 17:33:25.604586,48
2021-12-23 17:33:25.604593,37
2021-12-23 17:33:25.604599,2
2021-12-23 17:33:25.604604,-27
2021-12-23 17:33:25.604609,-16
2021-12-23 17:33:25.604615,-13
2021-12-23 17:33:25.604620,-53
2021-12-23 17:33:25.604625,-67
2021-12-23 17:33:25.604630,-39
2021-12-23 17:33:25.604636,-20
2021-12-23 17:33:25.604641,-9
2021-12-23 17:33:25.604646,-6
2021-12-23 17:33:25.604651,-30
2021-12-23 17:33:25.604657,-23
2021-12-23 17:33:25.604662,53
2021-12-23 17:33:25.604667,167
2021-12-23 17:33:25.604673,314
2021-12-23 17:33:25.604678,324
2021-12-23 17:33:25.604683,67
2021-12-23 17:33:25.604688,-291
2021-12-23 17:33:25.604693,-529
2021-12-23 17:33:25.604699,-396
2021-12-23 17:33:25.604704,-81
2021-12-23 17:33:25.604709,-9
2021-12-23 17:33:25.604714,-4
2021-12-23 17:33:25.604720,102
2021-12-23 17:33:25.604725,139
2021-12-23 17:33:25.604738,123
2021-12-23 17:33:25.830450,156
2021-12-23 17:33:25.830481,177
2021-12-23 17:33:25.830492,158
2021-12-23 17:33:25.830503,163
2021-12-23 17:33:25.830513,186
2021-12-23 17:33:25.830523,193
2021-12-23 17:33:25.830533,186
2021-12-23 17:33:25.830543,179
2021-12-23 17:33:25.830553,181
2021-12-23 17:33:25.830562,202
2021-12-23 17:33:25.830572,228
2021-12-23 17:33:25.830582,258
2021-12-23 17:33:25.830591,284
2021-12-23 17:33:25.830601,296
2021-12-23 17:33:25.830611,305
2021-12-23 17:33:25.830620,319
2021-12-23 17:33:25.830630,328
2021-12-23 17:33:25.830640,326
2021-12-23 17:33:25.830649,298
2021-12-23 17:33:25.830659,258
2021-12-23 17:33:25.830669,205
2021-12-23 17:33:25.830678,125
2021-12-23 17:33:25.830688,51
2021-12-23 17:33:25.830698,-2
2021-12-23 17:33:25.830707,-51
2021-12-23 17:33:25.830717,-100
2021-12-23 17:33:25.830726,-146
2021-12-23 17:33:25.830736,-191
2021-12-23 17:33:25.830746,-181
2021-12-23 17:33:25.830755,-146
2021-12-23 17:33:26.054961,-142
2021-12-23 17:33:26.054992,-137
2021-12-23 17:33:26.055004,-111
2021-12-23 17:33:26.055014,-107
2021-12-23 17:33:26.055024,-109
2021-12-23 17:33:26.055034,-90
2021-12-23 17:33:26.055044,-100
2021-12-23 17:33:26.055054,-123
2021-12-23 17:33:26.055064,-114
2021-12-23 17:33:26.055074,-139
2021-12-23 17:33:26.055084,-195
2021-12-23 17:33:26.055094,-188
2021-12-23 17:33:26.055104,-193
2021-12-23 17:33:26.055114,-235
2021-12-23 17:33:26.055125,-205
2021-12-23 17:33:26.055135,-156
2021-12-23 17:33:26.055145,-160
2021-12-23 17:33:26.055155,-160
2021-12-23 17:33:26.055165,-151
2021-12-23 17:33:26.055175,-156
2021-12-23 17:33:26.055185,-149
2021-12-23 17:33:26.055196,-128
2021-12-23 17:33:26.055206,-109
2021-12-23 17:33:26.055216,-100
2021-12-23 17:33:26.055226,-116
2021-12-23 17:33:26.055236,-116
2021-12-23 17:33:26.055246,-88
2021-12-23 17:33:26.055256,-88
2021-12-23 17:33:26.055266,-111
2021-12-23 17:33:26.055276,-123
2021-12-23 17:33:26.323900,-123
2021-12-23 17:33:26.323955,-118
2021-12-23 17:33:26.323963,-104
2021-12-23 17:33:26.323969,-95
2021-12-23 17:33:26.323976,-86
2021-12-23 17:33:26.323982,-90
2021-12-23 17:33:26.323989,-114
2021-12-23 17:33:26.323995,-111
2021-12-23 17:33:26.324055,-90
2021-12-23 17:33:26.324062,-81
2021-12-23 17:33:26.324069,-76
2021-12-23 17:33:26.324076,-93
2021-12-23 17:33:26.324082,-121
2021-12-23 17:33:26.324089,-100
2021-12-23 17:33:26.324096,-62
2021-12-23 17:33:26.324102,-48
2021-12-23 17:33:26.324109,-34
2021-12-23 17:33:26.324115,-25
2021-12-23 17:33:26.324122,-41
2021-12-23 17:33:26.324128,-46
2021-12-23 17:33:26.324135,-25
2021-12-23 17:33:26.324141,-13
2021-12-23 17:33:26.324148,-18
2021-12-23 17:33:26.324154,-25
2021-12-23 17:33:26.324161,-27
2021-12-23 17:33:26.324167,-9
2021-12-23 17:33:26.324174,9
2021-12-23 17:33:26.324181,18
2021-12-23 17:33:26.324187,58
2021-12-23 17:33:26.324194,109
2021-12-23 17:33:26.505624,160
2021-12-23 17:33:26.505654,261
2021-12-23 17:33:26.505666,265
2021-12-23 17:33:26.505676,18
2021-12-23 17:33:26.505686,-352
2021-12-23 17:33:26.505696,-557
2021-12-23 17:33:26.505706,-349
2021-12-23 17:33:26.505716,-39
2021-12-23 17:33:26.505726,6
2021-12-23 17:33:26.505736,30
2021-12-23 17:33:26.505746,116
2021-12-23 17:33:26.505756,109
2021-12-23 17:33:26.505766,74
2021-12-23 17:33:26.505776,93
2021-12-23 17:33:26.505786,83
2021-12-23 17:33:26.505796,41
2021-12-23 17:33:26.505806,37
2021-12-23 17:33:26.505816,65
2021-12-23 17:33:26.505826,86
2021-12-23 17:33:26.505836,111
2021-12-23 17:33:26.505846,137
2021-12-23 17:33:26.505856,151
2021-12-23 17:33:26.505865,158
2021-12-23 17:33:26.505875,163
2021-12-23 17:33:26.505885,195
2021-12-23 17:33:26.505895,244
2021-12-23 17:33:26.505905,270
2021-12-23 17:33:26.505915,286
2021-12-23 17:33:26.505925,305
2021-12-23 17:33:26.505935,317
2021-12-23 17:33:26.775231,321
2021-12-23 17:33:26.775253,296
2021-12-23 17:33:26.775260,216
2021-12-23 17:33:26.775267,116
2021-12-23 17:33:26.775274,25
2021-12-23 17:33:26.775280,-44
2021-12-23 17:33:26.775287,-88
2021-12-23 17:33:26.775293,-121
2021-12-23 17:33:26.775299,-156
2021-12-23 17:33:26.775305,-191
2021-12-23 17:33:26.775311,-233
2021-12-23 17:33:26.775318,-247
2021-12-23 17:33:26.775324,-216
2021-12-23 17:33:26.775330,-193
2021-12-23 17:33:26.775337,-188
2021-12-23 17:33:26.775343,-172
2021-12-23 17:33:26.775349,-165
2021-12-23 17:33:26.775355,-158
2021-12-23 17:33:26.775362,-125
2021-12-23 17:33:26.775368,-95
2021-12-23 17:33:26.775374,-97
2021-12-23 17:33:26.775381,-107
2021-12-23 17:33:26.775387,-97
2021-12-23 17:33:26.775393,-81
2021-12-23 17:33:26.775399,-90
2021-12-23 17:33:26.775406,-90
2021-12-23 17:33:26.775412,-86
2021-12-23 17:33:26.775418,-116
2021-12-23 17:33:26.775425,-137
2021-12-23 17:33:26.775431,-116
2021-12-23 17:33:27.045050,-100
2021-12-23 17:33:27.045082,-90
2021-12-23 17:33:27.045094,-79
2021-12-23 17:33:27.045104,-90
2021-12-23 17:33:27.045114,-125
2021-12-23 17:33:27.045124,-139
2021-12-23 17:33:27.045134,-107
2021-12-23 17:33:27.045144,-83
2021-12-23 17:33:27.045154,-100
2021-12-23 17:33:27.045164,-123
2021-12-23 17:33:27.045174,-132
