Time,ECG
2021-12-23 18:03:06.902195,27
2021-12-23 18:03:06.902209,4
2021-12-23 18:03:06.902215,79
2021-12-23 18:03:06.902221,167
2021-12-23 18:03:06.902225,125
2021-12-23 18:03:06.902231,123
2021-12-23 18:03:06.902235,177
2021-12-23 18:03:06.902240,193
2021-12-23 18:03:06.902244,198
2021-12-23 18:03:06.902249,195
2021-12-23 18:03:06.902253,186
2021-12-23 18:03:06.902258,216
2021-12-23 18:03:06.902262,261
2021-12-23 18:03:06.902267,272
2021-12-23 18:03:06.902271,293
2021-12-23 18:03:06.902276,326
2021-12-23 18:03:06.902280,349
2021-12-23 18:03:06.902285,391
2021-12-23 18:03:06.902290,440
2021-12-23 18:03:06.902294,454
2021-12-23 18:03:06.902298,452
2021-12-23 18:03:06.902303,459
2021-12-23 18:03:06.902307,452
2021-12-23 18:03:06.902312,429
2021-12-23 18:03:06.902316,403
2021-12-23 18:03:06.902321,342
2021-12-23 18:03:06.902326,219
2021-12-23 18:03:06.902330,102
2021-12-23 18:03:06.902334,39
2021-12-23 18:03:06.902339,-18
2021-12-23 18:03:07.179911,-88
2021-12-23 18:03:07.179933,-107
2021-12-23 18:03:07.179941,-109
2021-12-23 18:03:07.179947,-170
2021-12-23 18:03:07.179954,-198
2021-12-23 18:03:07.179961,-156
2021-12-23 18:03:07.179968,-137
2021-12-23 18:03:07.179975,-139
2021-12-23 18:03:07.179982,-137
2021-12-23 18:03:07.179988,-149
2021-12-23 18:03:07.179995,-151
2021-12-23 18:03:07.180001,-137
2021-12-23 18:03:07.180008,-142
2021-12-23 18:03:07.180014,-170
2021-12-23 18:03:07.180021,-200
2021-12-23 18:03:07.180027,-198
2021-12-23 18:03:07.180034,-165
2021-12-23 18:03:07.180042,-125
2021-12-23 18:03:07.180049,-104
2021-12-23 18:03:07.180055,-109
2021-12-23 18:03:07.180062,-121
2021-12-23 18:03:07.180069,-135
2021-12-23 18:03:07.180107,-137
2021-12-23 18:03:07.180114,-109
2021-12-23 18:03:07.180120,-93
2021-12-23 18:03:07.180127,-88
2021-12-23 18:03:07.180133,-69
2021-12-23 18:03:07.180140,-81
2021-12-23 18:03:07.180146,-109
2021-12-23 18:03:07.180154,-88
2021-12-23 18:03:07.450720,-60
2021-12-23 18:03:07.450751,-74
2021-12-23 18:03:07.450764,-97
2021-12-23 18:03:07.450775,-88
2021-12-23 18:03:07.450785,-69
2021-12-23 18:03:07.450795,-67
2021-12-23 18:03:07.450805,-55
2021-12-23 18:03:07.450815,-32
2021-12-23 18:03:07.450825,-51
2021-12-23 18:03:07.450835,-83
2021-12-23 18:03:07.450845,-39
2021-12-23 18:03:07.450855,44
2021-12-23 18:03:07.450865,114
2021-12-23 18:03:07.450881,279
2021-12-23 18:03:07.450891,494
2021-12-23 18:03:07.450901,445
2021-12-23 18:03:07.450911,-32
2021-12-23 18:03:07.450921,-613
2021-12-23 18:03:07.450931,-645
2021-12-23 18:03:07.450941,-191
2021-12-23 18:03:07.450951,-6
2021-12-23 18:03:07.450961,-67
2021-12-23 18:03:07.450971,46
2021-12-23 18:03:07.450981,165
2021-12-23 18:03:07.450990,149
2021-12-23 18:03:07.451000,149
2021-12-23 18:03:07.451010,135
2021-12-23 18:03:07.451020,18
2021-12-23 18:03:07.451030,9
2021-12-23 18:03:07.451042,188
2021-12-23 18:03:07.586849,251
2021-12-23 18:03:07.586881,186
2021-12-23 18:03:07.586893,209
2021-12-23 18:03:07.586904,258
2021-12-23 18:03:07.586914,270
2021-12-23 18:03:07.586924,314
2021-12-23 18:03:07.586933,368
2021-12-23 18:03:07.586943,389
2021-12-23 18:03:07.586953,403
2021-12-23 18:03:07.586963,431
2021-12-23 18:03:07.586973,459
2021-12-23 18:03:07.586983,475
2021-12-23 18:03:07.586993,470
2021-12-23 18:03:07.587003,424
2021-12-23 18:03:07.587012,335
2021-12-23 18:03:07.587022,233
2021-12-23 18:03:07.587032,135
2021-12-23 18:03:07.587047,53
2021-12-23 18:03:07.587057,-18
2021-12-23 18:03:07.587067,-109
2021-12-23 18:03:07.587110,-191
2021-12-23 18:03:07.587120,-214
2021-12-23 18:03:07.587130,-195
2021-12-23 18:03:07.587139,-191
2021-12-23 18:03:07.587149,-198
2021-12-23 18:03:07.587159,-205
2021-12-23 18:03:07.587168,-202
2021-12-23 18:03:07.587178,-186
2021-12-23 18:03:07.587188,-151
2021-12-23 18:03:07.587197,-118
2021-12-23 18:03:07.811917,-107
2021-12-23 18:03:07.811948,-104
2021-12-23 18:03:07.811960,-116
2021-12-23 18:03:07.811970,-130
2021-12-23 18:03:07.811981,-97
2021-12-23 18:03:07.811991,-58
2021-12-23 18:03:07.812001,-74
2021-12-23 18:03:07.812019,-123
2021-12-23 18:03:07.812029,-149
2021-12-23 18:03:07.812039,-149
2021-12-23 18:03:07.812050,-153
2021-12-23 18:03:07.812060,-151
2021-12-23 18:03:07.812070,-153
2021-12-23 18:03:07.812080,-184
2021-12-23 18:03:07.812090,-202
2021-12-23 18:03:07.812100,-184
2021-12-23 18:03:07.812110,-160
2021-12-23 18:03:07.812120,-142
2021-12-23 18:03:07.812130,-128
2021-12-23 18:03:07.812140,-116
2021-12-23 18:03:07.812150,-102
2021-12-23 18:03:07.812160,-109
2021-12-23 18:03:07.812170,-125
2021-12-23 18:03:07.812181,-116
2021-12-23 18:03:07.812191,-100
2021-12-23 18:03:07.812201,-97
2021-12-23 18:03:07.812211,-86
2021-12-23 18:03:07.812221,-86
2021-12-23 18:03:07.812231,-88
2021-12-23 18:03:07.812242,-67
2021-12-23 18:03:08.081322,-46
2021-12-23 18:03:08.081354,-23
2021-12-23 18:03:08.081366,44
2021-12-23 18:03:08.081377,193
2021-12-23 18:03:08.081387,352
2021-12-23 18:03:08.081397,275
2021-12-23 18:03:08.081407,-186
2021-12-23 18:03:08.081417,-771
2021-12-23 18:03:08.081427,-883
2021-12-23 18:03:08.081437,-438
2021-12-23 18:03:08.081447,-69
2021-12-23 18:03:08.081457,-9
2021-12-23 18:03:08.081466,13
2021-12-23 18:03:08.081476,72
2021-12-23 18:03:08.081486,93
2021-12-23 18:03:08.081496,95
2021-12-23 18:03:08.081506,114
2021-12-23 18:03:08.081516,125
2021-12-23 18:03:08.081526,139
2021-12-23 18:03:08.081536,163
2021-12-23 18:03:08.081546,181
2021-12-23 18:03:08.081556,191
2021-12-23 18:03:08.081566,214
2021-12-23 18:03:08.081576,244
2021-12-23 18:03:08.081593,258
2021-12-23 18:03:08.081603,254
2021-12-23 18:03:08.081613,251
2021-12-23 18:03:08.081623,289
2021-12-23 18:03:08.081633,338
2021-12-23 18:03:08.081643,361
2021-12-23 18:03:08.261345,382
2021-12-23 18:03:08.261365,403
2021-12-23 18:03:08.261373,401
2021-12-23 18:03:08.261380,377
2021-12-23 18:03:08.261387,338
2021-12-23 18:03:08.261394,263
2021-12-23 18:03:08.261400,151
2021-12-23 18:03:08.261407,48
2021-12-23 18:03:08.261414,-20
2021-12-23 18:03:08.261420,-88
2021-12-23 18:03:08.261427,-160
2021-12-23 18:03:08.261433,-226
2021-12-23 18:03:08.261440,-254
2021-12-23 18:03:08.261446,-237
2021-12-23 18:03:08.261453,-228
2021-12-23 18:03:08.261459,-235
2021-12-23 18:03:08.261466,-235
2021-12-23 18:03:08.261472,-242
2021-12-23 18:03:08.261479,-244
2021-12-23 18:03:08.261485,-209
2021-12-23 18:03:08.261492,-181
2021-12-23 18:03:08.261499,-179
2021-12-23 18:03:08.261507,-170
2021-12-23 18:03:08.261513,-156
2021-12-23 18:03:08.261520,-144
2021-12-23 18:03:08.261526,-121
2021-12-23 18:03:08.261533,-102
2021-12-23 18:03:08.261539,-102
2021-12-23 18:03:08.261546,-100
2021-12-23 18:03:08.261552,-90
2021-12-23 18:03:08.531884,-81
2021-12-23 18:03:08.531914,-79
2021-12-23 18:03:08.531927,-93
2021-12-23 18:03:08.531937,-116
2021-12-23 18:03:08.531947,-139
2021-12-23 18:03:08.531957,-172
2021-12-23 18:03:08.531967,-172
2021-12-23 18:03:08.531977,-142
2021-12-23 18:03:08.531987,-146
2021-12-23 18:03:08.531997,-174
2021-12-23 18:03:08.532007,-195
2021-12-23 18:03:08.532017,-216
2021-12-23 18:03:08.532027,-209
2021-12-23 18:03:08.532037,-179
2021-12-23 18:03:08.532047,-174
2021-12-23 18:03:08.532056,-181
2021-12-23 18:03:08.532066,-174
2021-12-23 18:03:08.532076,-160
2021-12-23 18:03:08.532086,-144
2021-12-23 18:03:08.532096,-118
2021-12-23 18:03:08.532106,-69
2021-12-23 18:03:08.532116,4
2021-12-23 18:03:08.532126,174
2021-12-23 18:03:08.532136,426
2021-12-23 18:03:08.532151,456
2021-12-23 18:03:08.532161,55
2021-12-23 18:03:08.532171,-538
2021-12-23 18:03:08.532181,-736
2021-12-23 18:03:08.532191,-361
2021-12-23 18:03:08.532201,-65
2021-12-23 18:03:08.711494,-86
2021-12-23 18:03:08.711525,-44
2021-12-23 18:03:08.711537,39
2021-12-23 18:03:08.711548,4
2021-12-23 18:03:08.711558,-32
2021-12-23 18:03:08.711568,4
2021-12-23 18:03:08.711579,44
2021-12-23 18:03:08.711589,65
2021-12-23 18:03:08.711599,86
2021-12-23 18:03:08.711609,86
2021-12-23 18:03:08.711619,86
2021-12-23 18:03:08.711629,118
2021-12-23 18:03:08.711638,160
2021-12-23 18:03:08.711648,191
2021-12-23 18:03:08.711658,221
2021-12-23 18:03:08.711668,240
2021-12-23 18:03:08.711678,249
2021-12-23 18:03:08.711688,291
2021-12-23 18:03:08.711698,345
2021-12-23 18:03:08.711708,370
2021-12-23 18:03:08.711718,391
2021-12-23 18:03:08.711728,394
2021-12-23 18:03:08.711738,361
2021-12-23 18:03:08.711748,314
2021-12-23 18:03:08.711758,249
2021-12-23 18:03:08.711767,160
2021-12-23 18:03:08.711777,72
2021-12-23 18:03:08.711787,-16
2021-12-23 18:03:08.711797,-93
2021-12-23 18:03:08.711807,-130
2021-12-23 18:03:09.026734,-137
2021-12-23 18:03:09.026775,-146
2021-12-23 18:03:09.026787,-167
2021-12-23 18:03:09.026798,-212
2021-12-23 18:03:09.026808,-244
2021-12-23 18:03:09.026817,-226
2021-12-23 18:03:09.026827,-195
2021-12-23 18:03:09.026837,-184
2021-12-23 18:03:09.026847,-191
2021-12-23 18:03:09.026856,-207
2021-12-23 18:03:09.026866,-200
2021-12-23 18:03:09.026876,-172
2021-12-23 18:03:09.026885,-179
2021-12-23 18:03:09.026895,-191
2021-12-23 18:03:09.026905,-160
2021-12-23 18:03:09.026915,-146
2021-12-23 18:03:09.026925,-144
2021-12-23 18:03:09.026935,-121
2021-12-23 18:03:09.026944,-102
2021-12-23 18:03:09.026954,-86
2021-12-23 18:03:09.026964,-76
2021-12-23 18:03:09.026973,-88
2021-12-23 18:03:09.026983,-97
2021-12-23 18:03:09.026993,-83
2021-12-23 18:03:09.027002,-62
2021-12-23 18:03:09.027012,-65
2021-12-23 18:03:09.027022,-86
2021-12-23 18:03:09.027031,-97
2021-12-23 18:03:09.027042,-86
2021-12-23 18:03:09.027052,-79
2021-12-23 18:03:09.250135,-72
2021-12-23 18:03:09.250165,-69
2021-12-23 18:03:09.250177,-97
2021-12-23 18:03:09.250187,-121
2021-12-23 18:03:09.250197,-100
2021-12-23 18:03:09.250207,-93
2021-12-23 18:03:09.250217,-132
2021-12-23 18:03:09.250226,-158
2021-12-23 18:03:09.250236,-165
2021-12-23 18:03:09.250246,-177
2021-12-23 18:03:09.250264,-160
2021-12-23 18:03:09.250275,-102
2021-12-23 18:03:09.250285,-34
2021-12-23 18:03:09.250295,111
2021-12-23 18:03:09.250305,354
2021-12-23 18:03:09.250315,454
2021-12-23 18:03:09.250325,184
2021-12-23 18:03:09.250335,-375
2021-12-23 18:03:09.250345,-722
2021-12-23 18:03:09.250355,-473
2021-12-23 18:03:09.250364,-137
2021-12-23 18:03:09.250374,-132
2021-12-23 18:03:09.250384,-90
2021-12-23 18:03:09.250394,44
2021-12-23 18:03:09.250404,48
2021-12-23 18:03:09.250414,30
2021-12-23 18:03:09.250424,65
2021-12-23 18:03:09.250434,74
2021-12-23 18:03:09.250444,76
2021-12-23 18:03:09.250454,109
2021-12-23 18:03:09.566342,149
2021-12-23 18:03:09.566374,170
2021-12-23 18:03:09.566386,167
2021-12-23 18:03:09.566397,184
2021-12-23 18:03:09.566407,219
2021-12-23 18:03:09.566417,256
2021-12-23 18:03:09.566427,293
2021-12-23 18:03:09.566437,319
2021-12-23 18:03:09.566446,326
2021-12-23 18:03:09.566456,347
2021-12-23 18:03:09.566466,396
2021-12-23 18:03:09.566476,433
2021-12-23 18:03:09.566486,438
2021-12-23 18:03:09.566496,405
2021-12-23 18:03:09.566506,342
2021-12-23 18:03:09.566516,277
2021-12-23 18:03:09.566526,186
2021-12-23 18:03:09.566536,72
2021-12-23 18:03:09.566546,-2
2021-12-23 18:03:09.566556,-58
2021-12-23 18:03:09.566565,-128
2021-12-23 18:03:09.566575,-170
2021-12-23 18:03:09.566585,-170
2021-12-23 18:03:09.566595,-153
2021-12-23 18:03:09.566605,-142
2021-12-23 18:03:09.566623,-151
2021-12-23 18:03:09.566633,-160
2021-12-23 18:03:09.566643,-165
2021-12-23 18:03:09.566654,-160
2021-12-23 18:03:09.566664,-139
2021-12-23 18:03:09.656774,-123
2021-12-23 18:03:09.656806,-125
2021-12-23 18:03:09.656818,-109
2021-12-23 18:03:09.656828,-83
2021-12-23 18:03:09.656838,-67
2021-12-23 18:03:09.656848,-55
2021-12-23 18:03:09.656858,-60
2021-12-23 18:03:09.656868,-81
2021-12-23 18:03:09.656878,-81
2021-12-23 18:03:09.656888,-67
2021-12-23 18:03:09.656898,-62
2021-12-23 18:03:09.656908,-67
2021-12-23 18:03:09.656918,-93
2021-12-23 18:03:09.656928,-121
2021-12-23 18:03:09.656938,-100
2021-12-23 18:03:09.656948,-83
2021-12-23 18:03:09.656958,-93
2021-12-23 18:03:09.656968,-90
2021-12-23 18:03:09.656978,-97
2021-12-23 18:03:09.656988,-132
2021-12-23 18:03:09.656998,-149
2021-12-23 18:03:09.657008,-149
2021-12-23 18:03:09.657018,-146
2021-12-23 18:03:09.657027,-123
2021-12-23 18:03:09.657037,-100
2021-12-23 18:03:09.657047,-100
2021-12-23 18:03:09.657057,-104
2021-12-23 18:03:09.657068,-118
2021-12-23 18:03:09.657077,-135
2021-12-23 18:03:09.657088,-118
2021-12-23 18:03:09.881459,-118
2021-12-23 18:03:09.881489,-142
2021-12-23 18:03:09.881502,-135
2021-12-23 18:03:09.881512,-109
2021-12-23 18:03:09.881523,-95
2021-12-23 18:03:09.881533,-95
2021-12-23 18:03:09.881543,-111
2021-12-23 18:03:09.881553,-104
2021-12-23 18:03:09.881563,-18
2021-12-23 18:03:09.881574,200
2021-12-23 18:03:09.881584,461
2021-12-23 18:03:09.881594,461
2021-12-23 18:03:09.881604,30
2021-12-23 18:03:09.881615,-538
2021-12-23 18:03:09.881625,-655
2021-12-23 18:03:09.881635,-272
2021-12-23 18:03:09.881650,-41
2021-12-23 18:03:09.881661,-60
2021-12-23 18:03:09.881671,16
2021-12-23 18:03:09.881681,95
2021-12-23 18:03:09.881691,48
2021-12-23 18:03:09.881701,27
2021-12-23 18:03:09.881712,74
2021-12-23 18:03:09.881722,97
2021-12-23 18:03:09.881732,93
2021-12-23 18:03:09.881742,118
2021-12-23 18:03:09.881752,149
2021-12-23 18:03:09.881763,163
2021-12-23 18:03:09.881773,188
2021-12-23 18:03:09.881783,221
2021-12-23 18:03:10.106702,235
2021-12-23 18:03:10.106733,261
2021-12-23 18:03:10.106746,310
2021-12-23 18:03:10.106756,347
2021-12-23 18:03:10.106766,370
2021-12-23 18:03:10.106777,389
2021-12-23 18:03:10.106787,403
2021-12-23 18:03:10.106797,417
2021-12-23 18:03:10.106807,422
2021-12-23 18:03:10.106817,405
2021-12-23 18:03:10.106827,373
2021-12-23 18:03:10.106837,300
2021-12-23 18:03:10.106847,191
2021-12-23 18:03:10.106857,104
2021-12-23 18:03:10.106867,41
2021-12-23 18:03:10.106878,-23
2021-12-23 18:03:10.106888,-74
2021-12-23 18:03:10.106898,-121
2021-12-23 18:03:10.106908,-170
2021-12-23 18:03:10.106918,-177
2021-12-23 18:03:10.106928,-165
2021-12-23 18:03:10.106938,-184
2021-12-23 18:03:10.106948,-207
2021-12-23 18:03:10.106958,-207
2021-12-23 18:03:10.106968,-191
2021-12-23 18:03:10.106978,-163
2021-12-23 18:03:10.106988,-135
2021-12-23 18:03:10.106998,-130
2021-12-23 18:03:10.107008,-125
2021-12-23 18:03:10.107018,-102
2021-12-23 18:03:10.331782,-86
2021-12-23 18:03:10.331815,-69
2021-12-23 18:03:10.331826,-46
2021-12-23 18:03:10.331837,-44
2021-12-23 18:03:10.331847,-67
2021-12-23 18:03:10.331857,-83
2021-12-23 18:03:10.331867,-74
2021-12-23 18:03:10.331877,-51
2021-12-23 18:03:10.331887,-39
2021-12-23 18:03:10.331897,-46
2021-12-23 18:03:10.331907,-67
2021-12-23 18:03:10.331916,-81
2021-12-23 18:03:10.331926,-81
2021-12-23 18:03:10.331945,-81
2021-12-23 18:03:10.331955,-95
2021-12-23 18:03:10.331965,-107
2021-12-23 18:03:10.331975,-123
2021-12-23 18:03:10.331985,-132
2021-12-23 18:03:10.331995,-125
2021-12-23 18:03:10.332005,-114
2021-12-23 18:03:10.332014,-107
2021-12-23 18:03:10.332024,-97
2021-12-23 18:03:10.332034,-86
2021-12-23 18:03:10.332044,-65
2021-12-23 18:03:10.332054,-55
2021-12-23 18:03:10.332063,-62
2021-12-23 18:03:10.332073,-65
2021-12-23 18:03:10.332083,-74
2021-12-23 18:03:10.332093,-90
2021-12-23 18:03:10.332103,-88
2021-12-23 18:03:10.556442,-69
2021-12-23 18:03:10.556473,-58
2021-12-23 18:03:10.556485,-55
2021-12-23 18:03:10.556495,-67
2021-12-23 18:03:10.556505,-90
2021-12-23 18:03:10.556515,-93
2021-12-23 18:03:10.556525,-53
2021-12-23 18:03:10.556535,-16
2021-12-23 18:03:10.556545,58
2021-12-23 18:03:10.556555,265
2021-12-23 18:03:10.556565,496
2021-12-23 18:03:10.556575,452
2021-12-23 18:03:10.556585,16
2021-12-23 18:03:10.556595,-515
2021-12-23 18:03:10.556605,-550
2021-12-23 18:03:10.556615,-151
2021-12-23 18:03:10.556625,18
2021-12-23 18:03:10.556635,-16
2021-12-23 18:03:10.556645,81
2021-12-23 18:03:10.556655,158
2021-12-23 18:03:10.556665,121
2021-12-23 18:03:10.556675,109
2021-12-23 18:03:10.556684,128
2021-12-23 18:03:10.556694,109
2021-12-23 18:03:10.556704,97
2021-12-23 18:03:10.556714,135
2021-12-23 18:03:10.556724,146
2021-12-23 18:03:10.556733,111
2021-12-23 18:03:10.556743,135
2021-12-23 18:03:10.556753,202
2021-12-23 18:03:10.825757,235
2021-12-23 18:03:10.825777,261
2021-12-23 18:03:10.825785,303
2021-12-23 18:03:10.825792,307
2021-12-23 18:03:10.825799,300
2021-12-23 18:03:10.825806,352
2021-12-23 18:03:10.825812,405
2021-12-23 18:03:10.825819,412
2021-12-23 18:03:10.825825,394
2021-12-23 18:03:10.825832,345
2021-12-23 18:03:10.825838,282
2021-12-23 18:03:10.825845,240
2021-12-23 18:03:10.825852,174
2021-12-23 18:03:10.825858,69
2021-12-23 18:03:10.825865,-20
2021-12-23 18:03:10.825871,-90
2021-12-23 18:03:10.825878,-132
2021-12-23 18:03:10.825887,-142
2021-12-23 18:03:10.825894,-146
2021-12-23 18:03:10.825901,-156
2021-12-23 18:03:10.825907,-163
2021-12-23 18:03:10.825914,-170
2021-12-23 18:03:10.825920,-158
2021-12-23 18:03:10.825927,-128
2021-12-23 18:03:10.825934,-102
2021-12-23 18:03:10.825940,-81
2021-12-23 18:03:10.825947,-74
2021-12-23 18:03:10.825953,-81
2021-12-23 18:03:10.825960,-81
2021-12-23 18:03:10.825966,-79
2021-12-23 18:03:11.051292,-69
2021-12-23 18:03:11.051323,-41
2021-12-23 18:03:11.051335,-34
2021-12-23 18:03:11.051346,-55
2021-12-23 18:03:11.051356,-58
2021-12-23 18:03:11.051366,-51
2021-12-23 18:03:11.051376,-65
2021-12-23 18:03:11.051386,-79
2021-12-23 18:03:11.051396,-114
2021-12-23 18:03:11.051406,-156
2021-12-23 18:03:11.051417,-135
2021-12-23 18:03:11.051427,-97
2021-12-23 18:03:11.051437,-104
2021-12-23 18:03:11.051447,-123
2021-12-23 18:03:11.051457,-142
2021-12-23 18:03:11.051467,-165
2021-12-23 18:03:11.051478,-142
2021-12-23 18:03:11.051488,-100
2021-12-23 18:03:11.051498,-93
2021-12-23 18:03:11.051508,-79
2021-12-23 18:03:11.051518,-58
2021-12-23 18:03:11.051528,-60
2021-12-23 18:03:11.051538,-62
2021-12-23 18:03:11.051548,-55
2021-12-23 18:03:11.051559,-53
2021-12-23 18:03:11.051569,-44
2021-12-23 18:03:11.051580,-41
2021-12-23 18:03:11.051590,-41
2021-12-23 18:03:11.051600,-41
2021-12-23 18:03:11.051610,-62
2021-12-23 18:03:11.364935,-97
2021-12-23 18:03:11.364966,-107
2021-12-23 18:03:11.364979,-86
2021-12-23 18:03:11.364989,-44
2021-12-23 18:03:11.364999,86
2021-12-23 18:03:11.365010,345
2021-12-23 18:03:11.365019,498
2021-12-23 18:03:11.365029,230
2021-12-23 18:03:11.365040,-410
2021-12-23 18:03:11.365050,-736
2021-12-23 18:03:11.365060,-377
2021-12-23 18:03:11.365070,-25
2021-12-23 18:03:11.365080,-60
2021-12-23 18:03:11.365090,-51
2021-12-23 18:03:11.365100,55
2021-12-23 18:03:11.365110,62
2021-12-23 18:03:11.365120,60
2021-12-23 18:03:11.365130,111
2021-12-23 18:03:11.365140,135
2021-12-23 18:03:11.365149,132
2021-12-23 18:03:11.365159,144
2021-12-23 18:03:11.365169,165
2021-12-23 18:03:11.365179,186
2021-12-23 18:03:11.365189,221
2021-12-23 18:03:11.365199,251
2021-12-23 18:03:11.365208,261
2021-12-23 18:03:11.365218,282
2021-12-23 18:03:11.365228,324
2021-12-23 18:03:11.365238,363
2021-12-23 18:03:11.365252,403
2021-12-23 18:03:11.546087,438
2021-12-23 18:03:11.546119,452
2021-12-23 18:03:11.546131,438
2021-12-23 18:03:11.546142,396
2021-12-23 18:03:11.546152,361
2021-12-23 18:03:11.546162,345
2021-12-23 18:03:11.546172,296
2021-12-23 18:03:11.546181,207
2021-12-23 18:03:11.546191,118
2021-12-23 18:03:11.546201,39
2021-12-23 18:03:11.546211,-16
2021-12-23 18:03:11.546221,-53
2021-12-23 18:03:11.546230,-102
2021-12-23 18:03:11.546240,-146
2021-12-23 18:03:11.546250,-158
2021-12-23 18:03:11.546259,-158
2021-12-23 18:03:11.546269,-149
2021-12-23 18:03:11.546279,-128
2021-12-23 18:03:11.546289,-132
2021-12-23 18:03:11.546299,-156
2021-12-23 18:03:11.546308,-137
2021-12-23 18:03:11.546318,-97
2021-12-23 18:03:11.546328,-93
2021-12-23 18:03:11.546338,-88
2021-12-23 18:03:11.546347,-74
2021-12-23 18:03:11.546357,-83
2021-12-23 18:03:11.546367,-95
2021-12-23 18:03:11.546377,-90
2021-12-23 18:03:11.546386,-102
2021-12-23 18:03:11.546396,-109
2021-12-23 18:03:11.771711,-100
2021-12-23 18:03:11.771743,-93
2021-12-23 18:03:11.771754,-97
2021-12-23 18:03:11.771765,-109
2021-12-23 18:03:11.771775,-125
2021-12-23 18:03:11.771785,-179
2021-12-23 18:03:11.771795,-247
2021-12-23 18:03:11.771805,-256
2021-12-23 18:03:11.771815,-221
2021-12-23 18:03:11.771825,-209
2021-12-23 18:03:11.771835,-193
2021-12-23 18:03:11.771845,-165
2021-12-23 18:03:11.771855,-172
2021-12-23 18:03:11.771865,-174
2021-12-23 18:03:11.771875,-144
2021-12-23 18:03:11.771885,-137
2021-12-23 18:03:11.771895,-149
2021-12-23 18:03:11.771905,-158
2021-12-23 18:03:11.771915,-195
2021-12-23 18:03:11.771925,-221
2021-12-23 18:03:11.771936,-191
2021-12-23 18:03:11.771946,-167
2021-12-23 18:03:11.771956,-156
2021-12-23 18:03:11.771966,-137
2021-12-23 18:03:11.771976,-114
2021-12-23 18:03:11.771986,-67
2021-12-23 18:03:11.771996,11
2021-12-23 18:03:11.772006,181
2021-12-23 18:03:11.772016,422
2021-12-23 18:03:11.772026,445
2021-12-23 18:03:12.041722,62
2021-12-23 18:03:12.041753,-463
2021-12-23 18:03:12.041765,-573
2021-12-23 18:03:12.041775,-205
2021-12-23 18:03:12.041785,9
2021-12-23 18:03:12.041795,-20
2021-12-23 18:03:12.041805,62
2021-12-23 18:03:12.041815,156
2021-12-23 18:03:12.041824,137
2021-12-23 18:03:12.041834,137
2021-12-23 18:03:12.041844,167
2021-12-23 18:03:12.041853,153
2021-12-23 18:03:12.041863,137
2021-12-23 18:03:12.041873,167
2021-12-23 18:03:12.041883,195
2021-12-23 18:03:12.041893,198
2021-12-23 18:03:12.041903,219
2021-12-23 18:03:12.041912,228
2021-12-23 18:03:12.041922,226
2021-12-23 18:03:12.041932,270
2021-12-23 18:03:12.041946,324
2021-12-23 18:03:12.041956,342
2021-12-23 18:03:12.041966,363
2021-12-23 18:03:12.041976,373
2021-12-23 18:03:12.041986,368
2021-12-23 18:03:12.041996,387
2021-12-23 18:03:12.042006,391
2021-12-23 18:03:12.042016,361
2021-12-23 18:03:12.042026,317
2021-12-23 18:03:12.042036,244
2021-12-23 18:03:12.220942,160
2021-12-23 18:03:12.220966,93
2021-12-23 18:03:12.220974,20
2021-12-23 18:03:12.220981,-53
2021-12-23 18:03:12.220988,-107
2021-12-23 18:03:12.220995,-135
2021-12-23 18:03:12.221001,-139
2021-12-23 18:03:12.221008,-132
2021-12-23 18:03:12.221014,-149
2021-12-23 18:03:12.221021,-181
2021-12-23 18:03:12.221028,-191
2021-12-23 18:03:12.221034,-198
2021-12-23 18:03:12.221041,-200
2021-12-23 18:03:12.221047,-172
2021-12-23 18:03:12.221054,-142
2021-12-23 18:03:12.221060,-156
2021-12-23 18:03:12.221067,-184
2021-12-23 18:03:12.221073,-188
2021-12-23 18:03:12.221080,-179
2021-12-23 18:03:12.221086,-167
2021-12-23 18:03:12.221093,-151
2021-12-23 18:03:12.221099,-151
2021-12-23 18:03:12.221106,-174
2021-12-23 18:03:12.221112,-186
2021-12-23 18:03:12.221119,-163
2021-12-23 18:03:12.221125,-137
2021-12-23 18:03:12.221132,-139
2021-12-23 18:03:12.221138,-151
2021-12-23 18:03:12.221145,-156
2021-12-23 18:03:12.221151,-151
2021-12-23 18:03:12.401897,-137
2021-12-23 18:03:12.401929,-118
2021-12-23 18:03:12.401941,-114
2021-12-23 18:03:12.401951,-125
2021-12-23 18:03:12.401961,-130
2021-12-23 18:03:12.401971,-114
2021-12-23 18:03:12.401981,-97
2021-12-23 18:03:12.401991,-102
2021-12-23 18:03:12.402002,-111
2021-12-23 18:03:12.402012,-104
2021-12-23 18:03:12.402055,-97
2021-12-23 18:03:12.402064,-102
2021-12-23 18:03:12.402075,-95
2021-12-23 18:03:12.402085,-72
2021-12-23 18:03:12.402095,-60
2021-12-23 18:03:12.402105,-76
2021-12-23 18:03:12.402115,-88
2021-12-23 18:03:12.402125,-58
2021-12-23 18:03:12.402135,44
2021-12-23 18:03:12.402145,270
2021-12-23 18:03:12.402155,417
2021-12-23 18:03:12.402165,284
2021-12-23 18:03:12.402175,-62
2021-12-23 18:03:12.402185,-596
2021-12-23 18:03:12.402195,-823
2021-12-23 18:03:12.402206,-442
2021-12-23 18:03:12.402216,-212
2021-12-23 18:03:12.402225,-298
2021-12-23 18:03:12.402236,-216
2021-12-23 18:03:12.402246,-97
2021-12-23 18:03:12.716653,-116
2021-12-23 18:03:12.716685,-102
2021-12-23 18:03:12.716697,-48
2021-12-23 18:03:12.716708,-72
2021-12-23 18:03:12.716718,-97
2021-12-23 18:03:12.716728,-51
2021-12-23 18:03:12.716738,-2
2021-12-23 18:03:12.716748,9
2021-12-23 18:03:12.716758,20
2021-12-23 18:03:12.716769,34
2021-12-23 18:03:12.716779,55
2021-12-23 18:03:12.716789,125
2021-12-23 18:03:12.716799,270
2021-12-23 18:03:12.716809,389
2021-12-23 18:03:12.716819,303
2021-12-23 18:03:12.716829,235
2021-12-23 18:03:12.716839,417
2021-12-23 18:03:12.716849,415
2021-12-23 18:03:12.716859,167
2021-12-23 18:03:12.716869,83
2021-12-23 18:03:12.716879,37
2021-12-23 18:03:12.716889,-95
2021-12-23 18:03:12.716904,-160
2021-12-23 18:03:12.716914,-177
2021-12-23 18:03:12.716924,-219
2021-12-23 18:03:12.716934,-284
2021-12-23 18:03:12.716944,-331
2021-12-23 18:03:12.716954,-317
2021-12-23 18:03:12.716965,-310
2021-12-23 18:03:12.716975,-347
2021-12-23 18:03:12.941729,-310
2021-12-23 18:03:12.941760,-233
2021-12-23 18:03:12.941773,-237
2021-12-23 18:03:12.941783,-263
2021-12-23 18:03:12.941794,-228
2021-12-23 18:03:12.941803,-198
2021-12-23 18:03:12.941813,-195
2021-12-23 18:03:12.941823,-198
2021-12-23 18:03:12.941833,-223
2021-12-23 18:03:12.941843,-244
2021-12-23 18:03:12.941853,-212
2021-12-23 18:03:12.941863,-172
2021-12-23 18:03:12.941872,-160
2021-12-23 18:03:12.941882,-142
2021-12-23 18:03:12.941892,-135
2021-12-23 18:03:12.941902,-156
2021-12-23 18:03:12.941912,-156
2021-12-23 18:03:12.941922,-121
2021-12-23 18:03:12.941932,-74
2021-12-23 18:03:12.941942,-95
2021-12-23 18:03:12.941952,-219
2021-12-23 18:03:12.941961,-254
2021-12-23 18:03:12.941971,-107
2021-12-23 18:03:12.941981,67
2021-12-23 18:03:12.941991,149
2021-12-23 18:03:12.942001,121
2021-12-23 18:03:12.942011,58
2021-12-23 18:03:12.942021,74
2021-12-23 18:03:12.942031,132
2021-12-23 18:03:12.942041,132
2021-12-23 18:03:13.121264,114
2021-12-23 18:03:13.121295,128
2021-12-23 18:03:13.121306,125
2021-12-23 18:03:13.121317,95
2021-12-23 18:03:13.121327,95
2021-12-23 18:03:13.121337,130
2021-12-23 18:03:13.121347,153
2021-12-23 18:03:13.121357,167
2021-12-23 18:03:13.121367,230
2021-12-23 18:03:13.121377,438
2021-12-23 18:03:13.121387,664
2021-12-23 18:03:13.121397,575
2021-12-23 18:03:13.121407,95
2021-12-23 18:03:13.121417,-408
2021-12-23 18:03:13.121427,-410
2021-12-23 18:03:13.121437,-53
2021-12-23 18:03:13.121447,51
2021-12-23 18:03:13.121457,2
2021-12-23 18:03:13.121468,109
2021-12-23 18:03:13.121478,158
2021-12-23 18:03:13.121488,100
2021-12-23 18:03:13.121498,121
2021-12-23 18:03:13.121508,153
2021-12-23 18:03:13.121518,111
2021-12-23 18:03:13.121528,100
2021-12-23 18:03:13.121537,137
2021-12-23 18:03:13.121547,149
2021-12-23 18:03:13.121557,153
2021-12-23 18:03:13.121567,174
2021-12-23 18:03:13.121577,135
2021-12-23 18:03:13.390542,142
2021-12-23 18:03:13.390573,300
2021-12-23 18:03:13.390585,361
2021-12-23 18:03:13.390596,307
2021-12-23 18:03:13.390606,338
2021-12-23 18:03:13.390616,398
2021-12-23 18:03:13.390626,391
2021-12-23 18:03:13.390635,354
2021-12-23 18:03:13.390645,331
2021-12-23 18:03:13.390655,310
2021-12-23 18:03:13.390665,263
2021-12-23 18:03:13.390675,188
2021-12-23 18:03:13.390685,93
2021-12-23 18:03:13.390695,-16
2021-12-23 18:03:13.390705,-95
2021-12-23 18:03:13.390715,-156
2021-12-23 18:03:13.390725,-235
2021-12-23 18:03:13.390735,-219
2021-12-23 18:03:13.390745,-130
2021-12-23 18:03:13.390755,-158
2021-12-23 18:03:13.390765,-209
2021-12-23 18:03:13.390774,-184
2021-12-23 18:03:13.390784,-167
2021-12-23 18:03:13.390794,-186
2021-12-23 18:03:13.390804,-298
2021-12-23 18:03:13.390814,-347
2021-12-23 18:03:13.390824,-149
2021-12-23 18:03:13.390834,-51
2021-12-23 18:03:13.390844,-153
2021-12-23 18:03:13.390854,-151
2021-12-23 18:03:13.571119,-93
2021-12-23 18:03:13.571136,-109
2021-12-23 18:03:13.571143,-114
2021-12-23 18:03:13.571153,-100
2021-12-23 18:03:13.571162,-125
2021-12-23 18:03:13.571175,-139
2021-12-23 18:03:13.571185,-114
2021-12-23 18:03:13.571194,-93
2021-12-23 18:03:13.571204,-93
2021-12-23 18:03:13.571214,-95
2021-12-23 18:03:13.571222,-86
2021-12-23 18:03:13.571232,-83
2021-12-23 18:03:13.571241,-104
2021-12-23 18:03:13.571251,-109
2021-12-23 18:03:13.571261,-81
2021-12-23 18:03:13.571271,-62
2021-12-23 18:03:13.571280,-48
2021-12-23 18:03:13.571290,-39
2021-12-23 18:03:13.571299,-58
2021-12-23 18:03:13.571309,-79
2021-12-23 18:03:13.571318,-76
2021-12-23 18:03:13.571328,-88
2021-12-23 18:03:13.571337,-93
2021-12-23 18:03:13.571346,-76
2021-12-23 18:03:13.571352,-69
2021-12-23 18:03:13.571357,-58
2021-12-23 18:03:13.571362,-44
2021-12-23 18:03:13.571367,-79
2021-12-23 18:03:13.571372,-93
2021-12-23 18:03:13.571378,44
2021-12-23 18:03:13.930649,298
2021-12-23 18:03:13.930670,477
2021-12-23 18:03:13.930678,359
2021-12-23 18:03:13.930685,-93
2021-12-23 18:03:13.930691,-573
2021-12-23 18:03:13.930698,-587
2021-12-23 18:03:13.930705,-223
2021-12-23 18:03:13.930711,-58
2021-12-23 18:03:13.930718,-53
2021-12-23 18:03:13.930724,46
2021-12-23 18:03:13.930731,102
2021-12-23 18:03:13.930737,65
2021-12-23 18:03:13.930744,62
2021-12-23 18:03:13.930750,100
2021-12-23 18:03:13.930757,116
2021-12-23 18:03:13.930763,123
2021-12-23 18:03:13.930770,149
2021-12-23 18:03:13.930776,165
2021-12-23 18:03:13.930783,177
2021-12-23 18:03:13.930789,207
2021-12-23 18:03:13.930796,240
2021-12-23 18:03:13.930802,258
2021-12-23 18:03:13.930809,279
2021-12-23 18:03:13.930815,300
2021-12-23 18:03:13.930822,328
2021-12-23 18:03:13.930828,380
2021-12-23 18:03:13.930835,417
2021-12-23 18:03:13.930841,426
2021-12-23 18:03:13.930848,424
2021-12-23 18:03:13.930854,403
2021-12-23 18:03:14.065639,368
2021-12-23 18:03:14.065669,331
2021-12-23 18:03:14.065681,261
2021-12-23 18:03:14.065692,156
2021-12-23 18:03:14.065702,51
2021-12-23 18:03:14.065712,-39
2021-12-23 18:03:14.065723,-97
2021-12-23 18:03:14.065733,-114
2021-12-23 18:03:14.065743,-128
2021-12-23 18:03:14.065753,-149
2021-12-23 18:03:14.065763,-158
2021-12-23 18:03:14.065773,-160
2021-12-23 18:03:14.065783,-149
2021-12-23 18:03:14.065793,-125
2021-12-23 18:03:14.065803,-114
2021-12-23 18:03:14.065813,-111
2021-12-23 18:03:14.065822,-104
2021-12-23 18:03:14.065832,-93
2021-12-23 18:03:14.065842,-74
2021-12-23 18:03:14.065852,-53
2021-12-23 18:03:14.065862,-58
2021-12-23 18:03:14.065872,-90
2021-12-23 18:03:14.065882,-121
2021-12-23 18:03:14.065892,-123
2021-12-23 18:03:14.065902,-125
2021-12-23 18:03:14.065912,-149
2021-12-23 18:03:14.065922,-160
2021-12-23 18:03:14.065932,-156
2021-12-23 18:03:14.065942,-172
2021-12-23 18:03:14.065952,-174
2021-12-23 18:03:14.246728,-139
2021-12-23 18:03:14.246759,-114
2021-12-23 18:03:14.246771,-128
2021-12-23 18:03:14.246781,-174
2021-12-23 18:03:14.246792,-209
2021-12-23 18:03:14.246802,-188
2021-12-23 18:03:14.246811,-160
2021-12-23 18:03:14.246821,-151
2021-12-23 18:03:14.246831,-142
2021-12-23 18:03:14.246841,-139
2021-12-23 18:03:14.246851,-151
2021-12-23 18:03:14.246861,-137
2021-12-23 18:03:14.246871,-104
2021-12-23 18:03:14.246881,-97
2021-12-23 18:03:14.246891,-118
2021-12-23 18:03:14.246901,-139
2021-12-23 18:03:14.246911,-123
2021-12-23 18:03:14.246921,-86
2021-12-23 18:03:14.246931,-76
2021-12-23 18:03:14.246941,-69
2021-12-23 18:03:14.246951,-53
2021-12-23 18:03:14.246960,-55
2021-12-23 18:03:14.246970,-55
2021-12-23 18:03:14.246980,-9
2021-12-23 18:03:14.246990,74
2021-12-23 18:03:14.247001,256
2021-12-23 18:03:14.247011,498
2021-12-23 18:03:14.247021,498
2021-12-23 18:03:14.247031,123
2021-12-23 18:03:14.247041,-396
2021-12-23 18:03:14.561295,-596
2021-12-23 18:03:14.561320,-275
2021-12-23 18:03:14.561328,6
2021-12-23 18:03:14.561335,-32
2021-12-23 18:03:14.561342,-2
2021-12-23 18:03:14.561349,116
2021-12-23 18:03:14.561355,121
2021-12-23 18:03:14.561362,111
2021-12-23 18:03:14.561368,144
2021-12-23 18:03:14.561375,121
2021-12-23 18:03:14.561381,102
2021-12-23 18:03:14.561387,146
2021-12-23 18:03:14.561394,149
2021-12-23 18:03:14.561400,135
2021-12-23 18:03:14.561407,181
2021-12-23 18:03:14.561413,212
2021-12-23 18:03:14.561420,249
2021-12-23 18:03:14.561426,300
2021-12-23 18:03:14.561433,328
2021-12-23 18:03:14.561439,363
2021-12-23 18:03:14.561446,403
2021-12-23 18:03:14.561452,417
2021-12-23 18:03:14.561458,431
2021-12-23 18:03:14.561465,459
2021-12-23 18:03:14.561471,466
2021-12-23 18:03:14.561478,447
2021-12-23 18:03:14.561484,382
2021-12-23 18:03:14.561491,195
2021-12-23 18:03:14.561497,58
2021-12-23 18:03:14.561504,118
2021-12-23 18:03:14.786783,97
2021-12-23 18:03:14.786816,-46
2021-12-23 18:03:14.786828,-107
2021-12-23 18:03:14.786838,-153
2021-12-23 18:03:14.786848,-226
2021-12-23 18:03:14.786858,-219
2021-12-23 18:03:14.786868,-125
2021-12-23 18:03:14.786877,-86
2021-12-23 18:03:14.786887,-144
2021-12-23 18:03:14.786897,-184
2021-12-23 18:03:14.786907,-153
2021-12-23 18:03:14.786917,-123
2021-12-23 18:03:14.786927,-111
2021-12-23 18:03:14.786936,-100
2021-12-23 18:03:14.786946,-114
2021-12-23 18:03:14.786956,-137
2021-12-23 18:03:14.786966,-116
2021-12-23 18:03:14.787008,-81
2021-12-23 18:03:14.787018,-72
2021-12-23 18:03:14.787028,-74
2021-12-23 18:03:14.787037,-100
2021-12-23 18:03:14.787047,-139
2021-12-23 18:03:14.787057,-142
2021-12-23 18:03:14.787067,-123
2021-12-23 18:03:14.787076,-135
2021-12-23 18:03:14.787086,-144
2021-12-23 18:03:14.787096,-146
2021-12-23 18:03:14.787106,-151
2021-12-23 18:03:14.787116,-139
2021-12-23 18:03:14.787125,-123
2021-12-23 18:03:15.011203,-123
2021-12-23 18:03:15.011234,-144
2021-12-23 18:03:15.011246,-170
2021-12-23 18:03:15.011257,-170
2021-12-23 18:03:15.011267,-149
2021-12-23 18:03:15.011277,-130
2021-12-23 18:03:15.011287,-114
2021-12-23 18:03:15.011296,-102
2021-12-23 18:03:15.011306,-102
2021-12-23 18:03:15.011316,-93
2021-12-23 18:03:15.011326,-69
2021-12-23 18:03:15.011336,-65
2021-12-23 18:03:15.011346,-74
2021-12-23 18:03:15.011356,-86
2021-12-23 18:03:15.011366,-104
2021-12-23 18:03:15.011376,-104
2021-12-23 18:03:15.011386,-79
2021-12-23 18:03:15.011396,-62
2021-12-23 18:03:15.011405,-58
2021-12-23 18:03:15.011415,-67
2021-12-23 18:03:15.011425,-79
2021-12-23 18:03:15.011435,-51
2021-12-23 18:03:15.011445,37
2021-12-23 18:03:15.011455,242
2021-12-23 18:03:15.011465,480
2021-12-23 18:03:15.011476,435
2021-12-23 18:03:15.011486,13
2021-12-23 18:03:15.011496,-494
2021-12-23 18:03:15.011506,-587
2021-12-23 18:03:15.011516,-221
2021-12-23 18:03:15.191706,6
2021-12-23 18:03:15.191737,-9
2021-12-23 18:03:15.191750,60
2021-12-23 18:03:15.191761,111
2021-12-23 18:03:15.191771,69
2021-12-23 18:03:15.191781,88
2021-12-23 18:03:15.191791,128
2021-12-23 18:03:15.191800,97
2021-12-23 18:03:15.191810,88
2021-12-23 18:03:15.191820,128
2021-12-23 18:03:15.191830,149
2021-12-23 18:03:15.191840,165
2021-12-23 18:03:15.191849,200
2021-12-23 18:03:15.191859,214
2021-12-23 18:03:15.191869,191
2021-12-23 18:03:15.191879,195
2021-12-23 18:03:15.191888,247
2021-12-23 18:03:15.191898,296
2021-12-23 18:03:15.191908,314
2021-12-23 18:03:15.191918,321
2021-12-23 18:03:15.191927,338
2021-12-23 18:03:15.191937,354
2021-12-23 18:03:15.191947,356
2021-12-23 18:03:15.191957,345
2021-12-23 18:03:15.191966,303
2021-12-23 18:03:15.191976,219
2021-12-23 18:03:15.191986,130
2021-12-23 18:03:15.191996,53
2021-12-23 18:03:15.192005,-4
2021-12-23 18:03:15.192015,-53
2021-12-23 18:03:15.460562,-114
2021-12-23 18:03:15.460593,-149
2021-12-23 18:03:15.460605,-149
2021-12-23 18:03:15.460615,-163
2021-12-23 18:03:15.460625,-177
2021-12-23 18:03:15.460635,-181
2021-12-23 18:03:15.460644,-214
2021-12-23 18:03:15.460654,-237
2021-12-23 18:03:15.460664,-207
2021-12-23 18:03:15.460673,-184
2021-12-23 18:03:15.460683,-174
2021-12-23 18:03:15.460702,-144
2021-12-23 18:03:15.460712,-137
2021-12-23 18:03:15.460722,-144
2021-12-23 18:03:15.460732,-116
2021-12-23 18:03:15.460742,-102
2021-12-23 18:03:15.460752,-114
2021-12-23 18:03:15.460762,-125
2021-12-23 18:03:15.460771,-144
2021-12-23 18:03:15.460781,-153
2021-12-23 18:03:15.460791,-135
2021-12-23 18:03:15.460801,-125
2021-12-23 18:03:15.460811,-123
2021-12-23 18:03:15.460821,-116
2021-12-23 18:03:15.460831,-118
2021-12-23 18:03:15.460840,-116
2021-12-23 18:03:15.460850,-107
2021-12-23 18:03:15.460860,-104
2021-12-23 18:03:15.460870,-100
2021-12-23 18:03:15.460879,-88
2021-12-23 18:03:15.685643,-88
2021-12-23 18:03:15.685674,-88
2021-12-23 18:03:15.685686,-74
2021-12-23 18:03:15.685696,-62
2021-12-23 18:03:15.685706,-60
2021-12-23 18:03:15.685716,-58
2021-12-23 18:03:15.685726,-62
2021-12-23 18:03:15.685736,-74
2021-12-23 18:03:15.685746,-81
2021-12-23 18:03:15.685755,-74
2021-12-23 18:03:15.685765,-72
2021-12-23 18:03:15.685775,-95
2021-12-23 18:03:15.685785,-102
2021-12-23 18:03:15.685794,-72
2021-12-23 18:03:15.685804,-44
2021-12-23 18:03:15.685814,-37
2021-12-23 18:03:15.685824,-32
2021-12-23 18:03:15.685833,-30
2021-12-23 18:03:15.685843,-46
2021-12-23 18:03:15.685853,-69
2021-12-23 18:03:15.685863,-51
2021-12-23 18:03:15.685873,48
2021-12-23 18:03:15.685883,268
2021-12-23 18:03:15.685893,494
2021-12-23 18:03:15.685903,422
2021-12-23 18:03:15.685912,-44
2021-12-23 18:03:15.685922,-554
2021-12-23 18:03:15.685932,-573
2021-12-23 18:03:15.685942,-167
2021-12-23 18:03:15.685952,11
2021-12-23 18:03:15.866257,-23
2021-12-23 18:03:15.866289,86
2021-12-23 18:03:15.866301,184
2021-12-23 18:03:15.866312,153
2021-12-23 18:03:15.866322,137
2021-12-23 18:03:15.866332,153
2021-12-23 18:03:15.866342,153
2021-12-23 18:03:15.866352,174
2021-12-23 18:03:15.866362,212
2021-12-23 18:03:15.866372,207
2021-12-23 18:03:15.866382,184
2021-12-23 18:03:15.866391,205
2021-12-23 18:03:15.866401,240
2021-12-23 18:03:15.866411,258
2021-12-23 18:03:15.866421,300
2021-12-23 18:03:15.866431,352
2021-12-23 18:03:15.866441,356
2021-12-23 18:03:15.866450,342
2021-12-23 18:03:15.866460,363
2021-12-23 18:03:15.866470,408
2021-12-23 18:03:15.866480,424
2021-12-23 18:03:15.866489,398
2021-12-23 18:03:15.866499,368
2021-12-23 18:03:15.866509,342
2021-12-23 18:03:15.866519,272
2021-12-23 18:03:15.866529,184
2021-12-23 18:03:15.866538,128
2021-12-23 18:03:15.866548,65
2021-12-23 18:03:15.866558,-18
2021-12-23 18:03:15.866568,-53
2021-12-23 18:03:16.136266,-48
2021-12-23 18:03:16.136297,-65
2021-12-23 18:03:16.136309,-88
2021-12-23 18:03:16.136319,-97
2021-12-23 18:03:16.136329,-121
2021-12-23 18:03:16.136339,-137
2021-12-23 18:03:16.136350,-100
2021-12-23 18:03:16.136360,-62
2021-12-23 18:03:16.136369,-58
2021-12-23 18:03:16.136380,-74
2021-12-23 18:03:16.136390,-100
2021-12-23 18:03:16.136400,-125
2021-12-23 18:03:16.136409,-142
2021-12-23 18:03:16.136419,-137
2021-12-23 18:03:16.136429,-116
2021-12-23 18:03:16.136439,-121
2021-12-23 18:03:16.136449,-135
2021-12-23 18:03:16.136459,-121
2021-12-23 18:03:16.136469,-86
2021-12-23 18:03:16.136479,-72
2021-12-23 18:03:16.136489,-88
2021-12-23 18:03:16.136499,-107
2021-12-23 18:03:16.136509,-93
2021-12-23 18:03:16.136519,-74
2021-12-23 18:03:16.136528,-109
2021-12-23 18:03:16.136538,-142
2021-12-23 18:03:16.136548,-128
2021-12-23 18:03:16.136558,-135
2021-12-23 18:03:16.136568,-142
2021-12-23 18:03:16.136578,-107
2021-12-23 18:03:16.406756,-79
2021-12-23 18:03:16.406788,-69
2021-12-23 18:03:16.406800,-55
2021-12-23 18:03:16.406811,-72
2021-12-23 18:03:16.406821,-88
2021-12-23 18:03:16.406831,-51
2021-12-23 18:03:16.406841,-11
2021-12-23 18:03:16.406850,-20
2021-12-23 18:03:16.406860,-32
2021-12-23 18:03:16.406870,-30
2021-12-23 18:03:16.406880,-23
2021-12-23 18:03:16.406890,-11
2021-12-23 18:03:16.406900,2
2021-12-23 18:03:16.406910,-6
2021-12-23 18:03:16.406920,-34
2021-12-23 18:03:16.406929,-46
2021-12-23 18:03:16.406939,0
2021-12-23 18:03:16.406949,97
2021-12-23 18:03:16.406959,251
2021-12-23 18:03:16.406969,482
2021-12-23 18:03:16.406979,526
2021-12-23 18:03:16.406989,109
2021-12-23 18:03:16.406998,-477
2021-12-23 18:03:16.407008,-575
2021-12-23 18:03:16.407018,-163
2021-12-23 18:03:16.407028,72
2021-12-23 18:03:16.407038,30
2021-12-23 18:03:16.407047,90
2021-12-23 18:03:16.407057,198
2021-12-23 18:03:16.407067,207
2021-12-23 18:03:16.587043,207
2021-12-23 18:03:16.587076,233
2021-12-23 18:03:16.587088,235
2021-12-23 18:03:16.587099,226
2021-12-23 18:03:16.587109,240
2021-12-23 18:03:16.587119,272
2021-12-23 18:03:16.587128,300
2021-12-23 18:03:16.587138,314
2021-12-23 18:03:16.587153,300
2021-12-23 18:03:16.587163,282
2021-12-23 18:03:16.587173,298
2021-12-23 18:03:16.587183,340
2021-12-23 18:03:16.587193,375
2021-12-23 18:03:16.587203,415
2021-12-23 18:03:16.587213,435
2021-12-23 18:03:16.587222,415
2021-12-23 18:03:16.587232,405
2021-12-23 18:03:16.587242,412
2021-12-23 18:03:16.587252,403
2021-12-23 18:03:16.587262,373
2021-12-23 18:03:16.587272,300
2021-12-23 18:03:16.587282,177
2021-12-23 18:03:16.587292,86
2021-12-23 18:03:16.587302,32
2021-12-23 18:03:16.587312,-20
2021-12-23 18:03:16.587322,-60
2021-12-23 18:03:16.587332,-81
2021-12-23 18:03:16.587374,-111
2021-12-23 18:03:16.587385,-123
2021-12-23 18:03:16.587395,-104
2021-12-23 18:03:16.811761,-109
2021-12-23 18:03:16.811792,-158
2021-12-23 18:03:16.811804,-186
2021-12-23 18:03:16.811815,-186
2021-12-23 18:03:16.811825,-188
2021-12-23 18:03:16.811834,-177
2021-12-23 18:03:16.811844,-149
2021-12-23 18:03:16.811854,-149
2021-12-23 18:03:16.811864,-172
2021-12-23 18:03:16.811874,-172
2021-12-23 18:03:16.811884,-149
2021-12-23 18:03:16.811893,-125
2021-12-23 18:03:16.811903,-109
2021-12-23 18:03:16.811913,-116
2021-12-23 18:03:16.811923,-146
2021-12-23 18:03:16.811932,-153
2021-12-23 18:03:16.811942,-151
2021-12-23 18:03:16.811952,-163
2021-12-23 18:03:16.811962,-167
2021-12-23 18:03:16.811971,-153
2021-12-23 18:03:16.811981,-142
2021-12-23 18:03:16.811991,-135
2021-12-23 18:03:16.812001,-114
2021-12-23 18:03:16.812010,-90
2021-12-23 18:03:16.812020,-90
2021-12-23 18:03:16.812030,-102
2021-12-23 18:03:16.812040,-107
2021-12-23 18:03:16.812049,-97
2021-12-23 18:03:16.812059,-76
2021-12-23 18:03:16.812069,-53
2021-12-23 18:03:17.035914,-27
2021-12-23 18:03:17.035936,-11
2021-12-23 18:03:17.035944,-16
2021-12-23 18:03:17.035951,-30
2021-12-23 18:03:17.035958,-39
2021-12-23 18:03:17.035965,-23
2021-12-23 18:03:17.035971,-13
2021-12-23 18:03:17.035978,-39
2021-12-23 18:03:17.035985,-55
2021-12-23 18:03:17.035991,-39
2021-12-23 18:03:17.035998,-18
2021-12-23 18:03:17.036005,-18
2021-12-23 18:03:17.036011,-6
2021-12-23 18:03:17.036018,27
2021-12-23 18:03:17.036024,93
2021-12-23 18:03:17.036031,261
2021-12-23 18:03:17.036038,452
2021-12-23 18:03:17.036044,361
2021-12-23 18:03:17.036051,-81
2021-12-23 18:03:17.036058,-543
2021-12-23 18:03:17.036064,-554
2021-12-23 18:03:17.036071,-177
2021-12-23 18:03:17.036077,6
2021-12-23 18:03:17.036084,-2
2021-12-23 18:03:17.036091,95
2021-12-23 18:03:17.036097,160
2021-12-23 18:03:17.036104,128
2021-12-23 18:03:17.036110,146
2021-12-23 18:03:17.036117,179
2021-12-23 18:03:17.036124,151
2021-12-23 18:03:17.396266,137
2021-12-23 18:03:17.396297,170
2021-12-23 18:03:17.396310,188
2021-12-23 18:03:17.396320,193
2021-12-23 18:03:17.396330,219
2021-12-23 18:03:17.396340,216
2021-12-23 18:03:17.396350,158
2021-12-23 18:03:17.396360,144
2021-12-23 18:03:17.396370,209
2021-12-23 18:03:17.396380,254
2021-12-23 18:03:17.396390,268
2021-12-23 18:03:17.396400,307
2021-12-23 18:03:17.396410,319
2021-12-23 18:03:17.396420,293
2021-12-23 18:03:17.396430,286
2021-12-23 18:03:17.396440,284
2021-12-23 18:03:17.396450,247
2021-12-23 18:03:17.396460,177
2021-12-23 18:03:17.396470,100
2021-12-23 18:03:17.396480,41
2021-12-23 18:03:17.396490,-27
2021-12-23 18:03:17.396500,-137
2021-12-23 18:03:17.396510,-209
2021-12-23 18:03:17.396520,-230
2021-12-23 18:03:17.396530,-265
2021-12-23 18:03:17.396540,-282
2021-12-23 18:03:17.396550,-261
2021-12-23 18:03:17.396560,-254
2021-12-23 18:03:17.396570,-244
2021-12-23 18:03:17.396580,-226
2021-12-23 18:03:17.575087,-216
2021-12-23 18:03:17.575119,-193
2021-12-23 18:03:17.575131,-172
2021-12-23 18:03:17.575141,-165
2021-12-23 18:03:17.575151,-149
2021-12-23 18:03:17.575160,-139
2021-12-23 18:03:17.575170,-158
2021-12-23 18:03:17.575179,-146
2021-12-23 18:03:17.575189,-111
2021-12-23 18:03:17.575199,-111
2021-12-23 18:03:17.575208,-111
2021-12-23 18:03:17.575218,-97
2021-12-23 18:03:17.575228,-97
2021-12-23 18:03:17.575237,-95
2021-12-23 18:03:17.575247,-90
2021-12-23 18:03:17.575257,-90
2021-12-23 18:03:17.575266,-88
2021-12-23 18:03:17.575276,-97
2021-12-23 18:03:17.575285,-111
2021-12-23 18:03:17.575295,-97
2021-12-23 18:03:17.575305,-81
2021-12-23 18:03:17.575314,-83
2021-12-23 18:03:17.575324,-86
2021-12-23 18:03:17.575334,-81
2021-12-23 18:03:17.575343,-93
2021-12-23 18:03:17.575353,-88
2021-12-23 18:03:17.575362,-69
2021-12-23 18:03:17.575372,-55
2021-12-23 18:03:17.575382,-41
2021-12-23 18:03:17.575391,-32
2021-12-23 18:03:17.756828,-20
2021-12-23 18:03:17.756860,-4
2021-12-23 18:03:17.756872,-9
2021-12-23 18:03:17.756882,-27
2021-12-23 18:03:17.756892,-39
2021-12-23 18:03:17.756901,-55
2021-12-23 18:03:17.756911,-53
2021-12-23 18:03:17.756921,-37
2021-12-23 18:03:17.756931,-34
2021-12-23 18:03:17.756940,-32
2021-12-23 18:03:17.756950,-25
2021-12-23 18:03:17.756960,-30
2021-12-23 18:03:17.756970,20
2021-12-23 18:03:17.756980,193
2021-12-23 18:03:17.756990,426
2021-12-23 18:03:17.756999,452
2021-12-23 18:03:17.757009,83
2021-12-23 18:03:17.757019,-480
2021-12-23 18:03:17.757029,-694
2021-12-23 18:03:17.757039,-363
2021-12-23 18:03:17.757049,-86
2021-12-23 18:03:17.757058,-95
2021-12-23 18:03:17.757068,-27
2021-12-23 18:03:17.757083,79
2021-12-23 18:03:17.757093,62
2021-12-23 18:03:17.757103,51
2021-12-23 18:03:17.757113,67
2021-12-23 18:03:17.757123,62
2021-12-23 18:03:17.757133,69
2021-12-23 18:03:17.757143,95
2021-12-23 18:03:17.936206,109
2021-12-23 18:03:17.936236,142
2021-12-23 18:03:17.936248,181
2021-12-23 18:03:17.936259,188
2021-12-23 18:03:17.936269,191
2021-12-23 18:03:17.936279,230
2021-12-23 18:03:17.936289,279
2021-12-23 18:03:17.936298,298
2021-12-23 18:03:17.936308,312
2021-12-23 18:03:17.936318,321
2021-12-23 18:03:17.936328,314
2021-12-23 18:03:17.936337,307
2021-12-23 18:03:17.936347,317
2021-12-23 18:03:17.936357,303
2021-12-23 18:03:17.936367,258
2021-12-23 18:03:17.936377,174
2021-12-23 18:03:17.936386,67
2021-12-23 18:03:17.936396,-20
2021-12-23 18:03:17.936406,-79
2021-12-23 18:03:17.936416,-130
2021-12-23 18:03:17.936426,-184
2021-12-23 18:03:17.936436,-221
2021-12-23 18:03:17.936445,-240
2021-12-23 18:03:17.936455,-237
2021-12-23 18:03:17.936465,-228
2021-12-23 18:03:17.936475,-214
2021-12-23 18:03:17.936484,-198
2021-12-23 18:03:17.936494,-200
2021-12-23 18:03:17.936504,-209
2021-12-23 18:03:17.936514,-193
2021-12-23 18:03:18.250585,-158
2021-12-23 18:03:18.250616,-137
2021-12-23 18:03:18.250628,-135
2021-12-23 18:03:18.250638,-156
2021-12-23 18:03:18.250648,-170
2021-12-23 18:03:18.250658,-144
2021-12-23 18:03:18.250668,-118
2021-12-23 18:03:18.250678,-109
2021-12-23 18:03:18.250688,-107
2021-12-23 18:03:18.250697,-125
2021-12-23 18:03:18.250707,-139
2021-12-23 18:03:18.250717,-118
2021-12-23 18:03:18.250727,-104
2021-12-23 18:03:18.250736,-104
2021-12-23 18:03:18.250746,-93
2021-12-23 18:03:18.250756,-107
2021-12-23 18:03:18.250766,-151
2021-12-23 18:03:18.250775,-167
2021-12-23 18:03:18.250785,-144
2021-12-23 18:03:18.250795,-130
2021-12-23 18:03:18.250805,-132
2021-12-23 18:03:18.250814,-128
2021-12-23 18:03:18.250824,-118
2021-12-23 18:03:18.250834,-104
2021-12-23 18:03:18.250843,-79
2021-12-23 18:03:18.250853,-41
2021-12-23 18:03:18.250863,-25
2021-12-23 18:03:18.250873,-37
2021-12-23 18:03:18.250882,-30
2021-12-23 18:03:18.250892,-37
2021-12-23 18:03:18.431262,-81
2021-12-23 18:03:18.431283,-88
2021-12-23 18:03:18.431290,-60
2021-12-23 18:03:18.431297,-67
2021-12-23 18:03:18.431304,-72
2021-12-23 18:03:18.431310,-39
2021-12-23 18:03:18.431317,-16
2021-12-23 18:03:18.431323,-16
2021-12-23 18:03:18.431330,-27
2021-12-23 18:03:18.431336,-23
2021-12-23 18:03:18.431342,41
2021-12-23 18:03:18.431349,237
2021-12-23 18:03:18.431355,477
2021-12-23 18:03:18.431362,440
2021-12-23 18:03:18.431368,-41
2021-12-23 18:03:18.431375,-622
2021-12-23 18:03:18.431381,-692
2021-12-23 18:03:18.431388,-284
2021-12-23 18:03:18.431394,-53
2021-12-23 18:03:18.431401,-41
2021-12-23 18:03:18.431407,46
2021-12-23 18:03:18.431413,90
2021-12-23 18:03:18.431420,60
2021-12-23 18:03:18.431426,88
2021-12-23 18:03:18.431433,135
2021-12-23 18:03:18.431439,135
2021-12-23 18:03:18.431446,132
2021-12-23 18:03:18.431452,144
2021-12-23 18:03:18.431459,167
2021-12-23 18:03:18.431465,193
2021-12-23 18:03:18.701376,216
2021-12-23 18:03:18.701399,219
2021-12-23 18:03:18.701407,205
2021-12-23 18:03:18.701414,230
2021-12-23 18:03:18.701420,279
2021-12-23 18:03:18.701427,303
2021-12-23 18:03:18.701433,328
2021-12-23 18:03:18.701439,345
2021-12-23 18:03:18.701446,310
2021-12-23 18:03:18.701452,282
2021-12-23 18:03:18.701459,279
2021-12-23 18:03:18.701465,263
2021-12-23 18:03:18.701471,233
2021-12-23 18:03:18.701478,172
2021-12-23 18:03:18.701484,62
2021-12-23 18:03:18.701491,-37
2021-12-23 18:03:18.701497,-90
2021-12-23 18:03:18.701504,-135
2021-12-23 18:03:18.701510,-174
2021-12-23 18:03:18.701516,-195
2021-12-23 18:03:18.701523,-212
2021-12-23 18:03:18.701529,-237
2021-12-23 18:03:18.701535,-272
2021-12-23 18:03:18.701542,-286
2021-12-23 18:03:18.701548,-256
2021-12-23 18:03:18.701555,-226
2021-12-23 18:03:18.701561,-223
2021-12-23 18:03:18.701567,-219
2021-12-23 18:03:18.701574,-186
2021-12-23 18:03:18.701580,-149
2021-12-23 18:03:18.970542,-135
2021-12-23 18:03:18.970572,-137
2021-12-23 18:03:18.970584,-128
2021-12-23 18:03:18.970595,-130
2021-12-23 18:03:18.970605,-144
2021-12-23 18:03:18.970615,-135
2021-12-23 18:03:18.970624,-118
2021-12-23 18:03:18.970634,-137
2021-12-23 18:03:18.970644,-156
2021-12-23 18:03:18.970654,-139
2021-12-23 18:03:18.970664,-118
2021-12-23 18:03:18.970673,-97
2021-12-23 18:03:18.970683,-88
2021-12-23 18:03:18.970693,-90
2021-12-23 18:03:18.970703,-88
2021-12-23 18:03:18.970713,-81
2021-12-23 18:03:18.970722,-79
2021-12-23 18:03:18.970732,-69
2021-12-23 18:03:18.970742,-76
2021-12-23 18:03:18.970752,-97
2021-12-23 18:03:18.970761,-74
2021-12-23 18:03:18.970771,-30
2021-12-23 18:03:18.970781,-6
2021-12-23 18:03:18.970791,6
2021-12-23 18:03:18.970801,9
2021-12-23 18:03:18.970811,-23
2021-12-23 18:03:18.970821,-34
2021-12-23 18:03:18.970830,-18
2021-12-23 18:03:18.970840,-4
2021-12-23 18:03:18.970850,2
2021-12-23 18:03:19.151275,6
2021-12-23 18:03:19.151306,13
2021-12-23 18:03:19.151318,23
2021-12-23 18:03:19.151328,18
2021-12-23 18:03:19.151338,34
2021-12-23 18:03:19.151347,86
2021-12-23 18:03:19.151357,186
2021-12-23 18:03:19.151367,394
2021-12-23 18:03:19.151377,505
2021-12-23 18:03:19.151386,172
2021-12-23 18:03:19.151396,-426
2021-12-23 18:03:19.151406,-648
2021-12-23 18:03:19.151416,-335
2021-12-23 18:03:19.151425,-69
2021-12-23 18:03:19.151435,-53
2021-12-23 18:03:19.151445,25
2021-12-23 18:03:19.151455,128
2021-12-23 18:03:19.151464,111
2021-12-23 18:03:19.151474,76
2021-12-23 18:03:19.151484,93
2021-12-23 18:03:19.151493,116
2021-12-23 18:03:19.151503,123
2021-12-23 18:03:19.151513,142
2021-12-23 18:03:19.151522,160
2021-12-23 18:03:19.151532,160
2021-12-23 18:03:19.151541,167
2021-12-23 18:03:19.151551,195
2021-12-23 18:03:19.151561,205
2021-12-23 18:03:19.151570,188
2021-12-23 18:03:19.151585,191
2021-12-23 18:03:19.331602,226
2021-12-23 18:03:19.331633,263
2021-12-23 18:03:19.331645,293
2021-12-23 18:03:19.331656,312
2021-12-23 18:03:19.331666,314
2021-12-23 18:03:19.331675,291
2021-12-23 18:03:19.331685,242
2021-12-23 18:03:19.331695,191
2021-12-23 18:03:19.331705,118
2021-12-23 18:03:19.331715,27
2021-12-23 18:03:19.331724,-46
2021-12-23 18:03:19.331734,-114
2021-12-23 18:03:19.331744,-177
2021-12-23 18:03:19.331753,-209
2021-12-23 18:03:19.331763,-228
2021-12-23 18:03:19.331773,-254
2021-12-23 18:03:19.331783,-270
2021-12-23 18:03:19.331792,-279
2021-12-23 18:03:19.331802,-277
2021-12-23 18:03:19.331811,-242
2021-12-23 18:03:19.331821,-212
2021-12-23 18:03:19.331831,-209
2021-12-23 18:03:19.331840,-198
2021-12-23 18:03:19.331850,-174
2021-12-23 18:03:19.331860,-156
2021-12-23 18:03:19.331869,-132
2021-12-23 18:03:19.331879,-118
2021-12-23 18:03:19.331889,-116
2021-12-23 18:03:19.331898,-102
2021-12-23 18:03:19.331908,-90
2021-12-23 18:03:19.690451,-86
2021-12-23 18:03:19.690483,-67
2021-12-23 18:03:19.690496,-58
2021-12-23 18:03:19.690506,-60
2021-12-23 18:03:19.690516,-69
2021-12-23 18:03:19.690526,-86
2021-12-23 18:03:19.690536,-83
2021-12-23 18:03:19.690546,-55
2021-12-23 18:03:19.690556,-55
2021-12-23 18:03:19.690566,-86
2021-12-23 18:03:19.690575,-114
2021-12-23 18:03:19.690585,-132
2021-12-23 18:03:19.690595,-118
2021-12-23 18:03:19.690605,-83
2021-12-23 18:03:19.690615,-58
2021-12-23 18:03:19.690624,-39
2021-12-23 18:03:19.690634,-32
2021-12-23 18:03:19.690644,-34
2021-12-23 18:03:19.690654,-25
2021-12-23 18:03:19.690664,-25
2021-12-23 18:03:19.690674,-23
2021-12-23 18:03:19.690684,-16
2021-12-23 18:03:19.690693,-9
2021-12-23 18:03:19.690703,-4
2021-12-23 18:03:19.690713,4
2021-12-23 18:03:19.690723,18
2021-12-23 18:03:19.690733,30
2021-12-23 18:03:19.690743,46
2021-12-23 18:03:19.690753,81
2021-12-23 18:03:19.690763,177
2021-12-23 18:03:19.781607,412
2021-12-23 18:03:19.781639,617
2021-12-23 18:03:19.781652,401
2021-12-23 18:03:19.781662,-230
2021-12-23 18:03:19.781673,-666
2021-12-23 18:03:19.781683,-449
2021-12-23 18:03:19.781693,-44
2021-12-23 18:03:19.781703,32
2021-12-23 18:03:19.781713,37
2021-12-23 18:03:19.781723,149
2021-12-23 18:03:19.781733,170
2021-12-23 18:03:19.781743,135
2021-12-23 18:03:19.781753,142
2021-12-23 18:03:19.781763,146
2021-12-23 18:03:19.781773,144
2021-12-23 18:03:19.781783,153
2021-12-23 18:03:19.781793,144
2021-12-23 18:03:19.781803,146
2021-12-23 18:03:19.781813,181
2021-12-23 18:03:19.781823,221
2021-12-23 18:03:19.781833,244
2021-12-23 18:03:19.781843,242
2021-12-23 18:03:19.781853,233
2021-12-23 18:03:19.781863,265
2021-12-23 18:03:19.781873,317
2021-12-23 18:03:19.781883,345
2021-12-23 18:03:19.781893,361
2021-12-23 18:03:19.781903,361
2021-12-23 18:03:19.781913,354
2021-12-23 18:03:19.781923,359
2021-12-23 18:03:20.096641,347
2021-12-23 18:03:20.096679,300
2021-12-23 18:03:20.096692,233
2021-12-23 18:03:20.096702,116
2021-12-23 18:03:20.096712,-13
2021-12-23 18:03:20.096722,-83
2021-12-23 18:03:20.096732,-125
2021-12-23 18:03:20.096742,-179
2021-12-23 18:03:20.096751,-212
2021-12-23 18:03:20.096761,-247
2021-12-23 18:03:20.096771,-275
2021-12-23 18:03:20.096781,-249
2021-12-23 18:03:20.096790,-212
2021-12-23 18:03:20.096800,-207
2021-12-23 18:03:20.096810,-226
2021-12-23 18:03:20.096820,-240
2021-12-23 18:03:20.096830,-221
2021-12-23 18:03:20.096840,-186
2021-12-23 18:03:20.096849,-156
2021-12-23 18:03:20.096859,-132
2021-12-23 18:03:20.096869,-125
2021-12-23 18:03:20.096879,-135
2021-12-23 18:03:20.096888,-128
2021-12-23 18:03:20.096898,-104
2021-12-23 18:03:20.096908,-88
2021-12-23 18:03:20.096918,-79
2021-12-23 18:03:20.096928,-81
2021-12-23 18:03:20.096937,-95
2021-12-23 18:03:20.096947,-86
2021-12-23 18:03:20.096957,-65
2021-12-23 18:03:20.277012,-60
2021-12-23 18:03:20.277049,-62
2021-12-23 18:03:20.277062,-65
2021-12-23 18:03:20.277073,-65
2021-12-23 18:03:20.277083,-51
2021-12-23 18:03:20.277093,-25
2021-12-23 18:03:20.277104,-2
2021-12-23 18:03:20.277114,20
2021-12-23 18:03:20.277124,27
2021-12-23 18:03:20.277134,-13
2021-12-23 18:03:20.277144,-69
2021-12-23 18:03:20.277154,-62
2021-12-23 18:03:20.277165,-25
2021-12-23 18:03:20.277175,-20
2021-12-23 18:03:20.277185,-51
2021-12-23 18:03:20.277195,-88
2021-12-23 18:03:20.277205,-100
2021-12-23 18:03:20.277216,-86
2021-12-23 18:03:20.277226,-55
2021-12-23 18:03:20.277236,-23
2021-12-23 18:03:20.277246,4
2021-12-23 18:03:20.277256,146
2021-12-23 18:03:20.277267,426
2021-12-23 18:03:20.277277,473
2021-12-23 18:03:20.277287,27
2021-12-23 18:03:20.277297,-557
2021-12-23 18:03:20.277308,-650
2021-12-23 18:03:20.277318,-254
2021-12-23 18:03:20.277328,-34
2021-12-23 18:03:20.277338,-51
2021-12-23 18:03:20.591269,58
2021-12-23 18:03:20.591300,163
2021-12-23 18:03:20.591312,123
2021-12-23 18:03:20.591323,104
2021-12-23 18:03:20.591333,153
2021-12-23 18:03:20.591343,172
2021-12-23 18:03:20.591353,181
2021-12-23 18:03:20.591363,191
2021-12-23 18:03:20.591373,163
2021-12-23 18:03:20.591383,142
2021-12-23 18:03:20.591393,179
2021-12-23 18:03:20.591403,214
2021-12-23 18:03:20.591413,228
2021-12-23 18:03:20.591423,249
2021-12-23 18:03:20.591433,256
2021-12-23 18:03:20.591443,263
2021-12-23 18:03:20.591453,300
2021-12-23 18:03:20.591463,333
2021-12-23 18:03:20.591473,319
2021-12-23 18:03:20.591483,296
2021-12-23 18:03:20.591492,286
2021-12-23 18:03:20.591502,263
2021-12-23 18:03:20.591512,223
2021-12-23 18:03:20.591522,184
2021-12-23 18:03:20.591532,125
2021-12-23 18:03:20.591542,46
2021-12-23 18:03:20.591552,-30
2021-12-23 18:03:20.591562,-79
2021-12-23 18:03:20.591572,-97
2021-12-23 18:03:20.591582,-121
2021-12-23 18:03:20.770576,-172
2021-12-23 18:03:20.770607,-200
2021-12-23 18:03:20.770620,-198
2021-12-23 18:03:20.770630,-209
2021-12-23 18:03:20.770640,-209
2021-12-23 18:03:20.770650,-179
2021-12-23 18:03:20.770660,-163
2021-12-23 18:03:20.770670,-172
2021-12-23 18:03:20.770680,-170
2021-12-23 18:03:20.770690,-156
2021-12-23 18:03:20.770700,-142
2021-12-23 18:03:20.770710,-123
2021-12-23 18:03:20.770720,-118
2021-12-23 18:03:20.770730,-144
2021-12-23 18:03:20.770740,-172
2021-12-23 18:03:20.770750,-186
2021-12-23 18:03:20.770760,-193
2021-12-23 18:03:20.770770,-174
2021-12-23 18:03:20.770780,-174
2021-12-23 18:03:20.770790,-219
2021-12-23 18:03:20.770800,-249
2021-12-23 18:03:20.770810,-244
2021-12-23 18:03:20.770820,-226
2021-12-23 18:03:20.770830,-209
2021-12-23 18:03:20.770840,-209
2021-12-23 18:03:20.770850,-216
2021-12-23 18:03:20.770860,-205
2021-12-23 18:03:20.770870,-177
2021-12-23 18:03:20.770885,-146
2021-12-23 18:03:20.770895,-116
2021-12-23 18:03:20.951279,-104
2021-12-23 18:03:20.951310,-107
2021-12-23 18:03:20.951323,-116
2021-12-23 18:03:20.951333,-130
2021-12-23 18:03:20.951343,-118
2021-12-23 18:03:20.951353,-95
2021-12-23 18:03:20.951363,-111
2021-12-23 18:03:20.951373,-137
2021-12-23 18:03:20.951383,-114
2021-12-23 18:03:20.951393,-95
2021-12-23 18:03:20.951404,-88
2021-12-23 18:03:20.951414,-53
2021-12-23 18:03:20.951424,-16
2021-12-23 18:03:20.951434,72
2021-12-23 18:03:20.951444,321
2021-12-23 18:03:20.951454,494
2021-12-23 18:03:20.951464,240
2021-12-23 18:03:20.951474,-349
2021-12-23 18:03:20.951484,-718
2021-12-23 18:03:20.951494,-480
2021-12-23 18:03:20.951504,-104
2021-12-23 18:03:20.951514,-58
2021-12-23 18:03:20.951524,-44
2021-12-23 18:03:20.951534,72
2021-12-23 18:03:20.951544,88
2021-12-23 18:03:20.951554,65
2021-12-23 18:03:20.951564,107
2021-12-23 18:03:20.951574,132
2021-12-23 18:03:20.951584,135
2021-12-23 18:03:20.951594,156
2021-12-23 18:03:21.265621,172
2021-12-23 18:03:21.265653,188
2021-12-23 18:03:21.265665,219
2021-12-23 18:03:21.265675,235
2021-12-23 18:03:21.265686,240
2021-12-23 18:03:21.265696,228
2021-12-23 18:03:21.265706,216
2021-12-23 18:03:21.265716,244
2021-12-23 18:03:21.265726,289
2021-12-23 18:03:21.265736,310
2021-12-23 18:03:21.265746,326
2021-12-23 18:03:21.265756,328
2021-12-23 18:03:21.265766,300
2021-12-23 18:03:21.265776,286
2021-12-23 18:03:21.265786,286
2021-12-23 18:03:21.265796,237
2021-12-23 18:03:21.265806,160
2021-12-23 18:03:21.265816,86
2021-12-23 18:03:21.265825,6
2021-12-23 18:03:21.265835,-51
2021-12-23 18:03:21.265845,-104
2021-12-23 18:03:21.265855,-181
2021-12-23 18:03:21.265865,-219
2021-12-23 18:03:21.265875,-200
2021-12-23 18:03:21.265885,-214
2021-12-23 18:03:21.265895,-230
2021-12-23 18:03:21.265905,-200
2021-12-23 18:03:21.265915,-195
2021-12-23 18:03:21.265925,-214
2021-12-23 18:03:21.265935,-219
2021-12-23 18:03:21.445512,-214
2021-12-23 18:03:21.445534,-195
2021-12-23 18:03:21.445541,-177
2021-12-23 18:03:21.445548,-170
2021-12-23 18:03:21.445555,-160
2021-12-23 18:03:21.445561,-149
2021-12-23 18:03:21.445568,-142
2021-12-23 18:03:21.445574,-128
2021-12-23 18:03:21.445581,-109
2021-12-23 18:03:21.445587,-107
2021-12-23 18:03:21.445594,-128
2021-12-23 18:03:21.445600,-156
2021-12-23 18:03:21.445607,-149
2021-12-23 18:03:21.445613,-121
2021-12-23 18:03:21.445620,-118
2021-12-23 18:03:21.445626,-125
2021-12-23 18:03:21.445633,-137
2021-12-23 18:03:21.445639,-156
2021-12-23 18:03:21.445646,-149
2021-12-23 18:03:21.445652,-121
2021-12-23 18:03:21.445658,-109
2021-12-23 18:03:21.445665,-102
2021-12-23 18:03:21.445671,-88
2021-12-23 18:03:21.445678,-76
2021-12-23 18:03:21.445684,-65
2021-12-23 18:03:21.445691,-69
2021-12-23 18:03:21.445697,-104
2021-12-23 18:03:21.445704,-130
2021-12-23 18:03:21.445710,-123
2021-12-23 18:03:21.445717,-109
2021-12-23 18:03:21.670359,-93
2021-12-23 18:03:21.670391,-67
2021-12-23 18:03:21.670402,-53
2021-12-23 18:03:21.670413,-58
2021-12-23 18:03:21.670423,-69
2021-12-23 18:03:21.670432,-53
2021-12-23 18:03:21.670442,39
2021-12-23 18:03:21.670452,268
2021-12-23 18:03:21.670462,522
2021-12-23 18:03:21.670472,447
2021-12-23 18:03:21.670482,-88
2021-12-23 18:03:21.670492,-650
2021-12-23 18:03:21.670502,-634
2021-12-23 18:03:21.670512,-209
2021-12-23 18:03:21.670522,-34
2021-12-23 18:03:21.670531,-53
2021-12-23 18:03:21.670541,48
2021-12-23 18:03:21.670551,121
2021-12-23 18:03:21.670561,104
2021-12-23 18:03:21.670571,128
2021-12-23 18:03:21.670580,163
2021-12-23 18:03:21.670590,156
2021-12-23 18:03:21.670600,146
2021-12-23 18:03:21.670609,172
2021-12-23 18:03:21.670619,209
2021-12-23 18:03:21.670629,230
2021-12-23 18:03:21.670639,228
2021-12-23 18:03:21.670648,205
2021-12-23 18:03:21.670658,193
2021-12-23 18:03:21.670668,214
2021-12-23 18:03:21.941189,258
2021-12-23 18:03:21.941220,300
2021-12-23 18:03:21.941232,321
2021-12-23 18:03:21.941242,293
2021-12-23 18:03:21.941252,263
2021-12-23 18:03:21.941262,289
2021-12-23 18:03:21.941272,307
2021-12-23 18:03:21.941282,286
2021-12-23 18:03:21.941292,247
2021-12-23 18:03:21.941302,160
2021-12-23 18:03:21.941312,39
2021-12-23 18:03:21.941322,-30
2021-12-23 18:03:21.941332,-65
2021-12-23 18:03:21.941342,-118
2021-12-23 18:03:21.941352,-165
2021-12-23 18:03:21.941362,-191
2021-12-23 18:03:21.941372,-202
2021-12-23 18:03:21.941382,-195
2021-12-23 18:03:21.941393,-177
2021-12-23 18:03:21.941403,-165
2021-12-23 18:03:21.941413,-160
2021-12-23 18:03:21.941423,-160
2021-12-23 18:03:21.941433,-144
2021-12-23 18:03:21.941443,-114
2021-12-23 18:03:21.941453,-90
2021-12-23 18:03:21.941463,-88
2021-12-23 18:03:21.941473,-97
2021-12-23 18:03:21.941483,-118
2021-12-23 18:03:21.941493,-139
2021-12-23 18:03:21.941503,-142
2021-12-23 18:03:22.121261,-142
2021-12-23 18:03:22.121293,-158
2021-12-23 18:03:22.121305,-158
2021-12-23 18:03:22.121315,-158
2021-12-23 18:03:22.121326,-158
2021-12-23 18:03:22.121336,-142
2021-12-23 18:03:22.121347,-128
2021-12-23 18:03:22.121357,-123
2021-12-23 18:03:22.121367,-139
2021-12-23 18:03:22.121377,-160
2021-12-23 18:03:22.121386,-146
2021-12-23 18:03:22.121396,-118
2021-12-23 18:03:22.121406,-111
2021-12-23 18:03:22.121417,-109
2021-12-23 18:03:22.121427,-128
2021-12-23 18:03:22.121437,-165
2021-12-23 18:03:22.121447,-158
2021-12-23 18:03:22.121457,-125
2021-12-23 18:03:22.121467,-114
2021-12-23 18:03:22.121477,-104
2021-12-23 18:03:22.121487,-90
2021-12-23 18:03:22.121497,-76
2021-12-23 18:03:22.121507,-46
2021-12-23 18:03:22.121516,-16
2021-12-23 18:03:22.121526,-18
2021-12-23 18:03:22.121536,-44
2021-12-23 18:03:22.121546,-65
2021-12-23 18:03:22.121556,-62
2021-12-23 18:03:22.121566,-41
2021-12-23 18:03:22.121576,-20
2021-12-23 18:03:22.481190,-11
2021-12-23 18:03:22.481221,-4
2021-12-23 18:03:22.481232,-23
2021-12-23 18:03:22.481243,-55
2021-12-23 18:03:22.481253,-34
2021-12-23 18:03:22.481263,55
2021-12-23 18:03:22.481274,265
2021-12-23 18:03:22.481284,540
2021-12-23 18:03:22.481294,510
2021-12-23 18:03:22.481304,16
2021-12-23 18:03:22.481314,-540
2021-12-23 18:03:22.481324,-599
2021-12-23 18:03:22.481334,-214
2021-12-23 18:03:22.481344,-18
2021-12-23 18:03:22.481354,-53
2021-12-23 18:03:22.481364,34
2021-12-23 18:03:22.481374,128
2021-12-23 18:03:22.481385,104
2021-12-23 18:03:22.481395,121
2021-12-23 18:03:22.481405,172
2021-12-23 18:03:22.481415,172
2021-12-23 18:03:22.481425,165
2021-12-23 18:03:22.481435,191
2021-12-23 18:03:22.481445,214
2021-12-23 18:03:22.481455,235
2021-12-23 18:03:22.481465,265
2021-12-23 18:03:22.481475,277
2021-12-23 18:03:22.481485,277
2021-12-23 18:03:22.481495,305
2021-12-23 18:03:22.481505,354
2021-12-23 18:03:22.616708,380
2021-12-23 18:03:22.616732,373
2021-12-23 18:03:22.616744,373
2021-12-23 18:03:22.616755,394
2021-12-23 18:03:22.616765,375
2021-12-23 18:03:22.616776,333
2021-12-23 18:03:22.616786,324
2021-12-23 18:03:22.616797,303
2021-12-23 18:03:22.616809,242
2021-12-23 18:03:22.616821,174
2021-12-23 18:03:22.616832,111
2021-12-23 18:03:22.616845,46
2021-12-23 18:03:22.616853,-18
2021-12-23 18:03:22.616860,-88
2021-12-23 18:03:22.616866,-132
2021-12-23 18:03:22.616873,-144
2021-12-23 18:03:22.616879,-139
2021-12-23 18:03:22.616886,-123
2021-12-23 18:03:22.616892,-125
2021-12-23 18:03:22.616899,-153
2021-12-23 18:03:22.616905,-156
2021-12-23 18:03:22.616915,-132
2021-12-23 18:03:22.616927,-118
2021-12-23 18:03:22.616952,-121
2021-12-23 18:03:22.616964,-125
2021-12-23 18:03:22.616971,-125
2021-12-23 18:03:22.616978,-116
2021-12-23 18:03:22.616984,-109
2021-12-23 18:03:22.616991,-109
2021-12-23 18:03:22.616997,-111
2021-12-23 18:03:22.841215,-128
2021-12-23 18:03:22.841246,-151
2021-12-23 18:03:22.841259,-149
2021-12-23 18:03:22.841269,-137
2021-12-23 18:03:22.841279,-130
2021-12-23 18:03:22.841289,-118
2021-12-23 18:03:22.841299,-125
2021-12-23 18:03:22.841309,-170
2021-12-23 18:03:22.841319,-209
2021-12-23 18:03:22.841330,-207
2021-12-23 18:03:22.841339,-181
2021-12-23 18:03:22.841350,-167
2021-12-23 18:03:22.841360,-179
2021-12-23 18:03:22.841370,-191
2021-12-23 18:03:22.841379,-179
2021-12-23 18:03:22.841389,-170
2021-12-23 18:03:22.841399,-167
2021-12-23 18:03:22.841409,-163
2021-12-23 18:03:22.841419,-172
2021-12-23 18:03:22.841429,-170
2021-12-23 18:03:22.841439,-135
2021-12-23 18:03:22.841449,-102
2021-12-23 18:03:22.841459,-76
2021-12-23 18:03:22.841469,-51
2021-12-23 18:03:22.841479,-53
2021-12-23 18:03:22.841489,-69
2021-12-23 18:03:22.841499,-69
2021-12-23 18:03:22.841509,-60
2021-12-23 18:03:22.841519,-53
2021-12-23 18:03:22.841529,-44
2021-12-23 18:03:23.066177,-44
2021-12-23 18:03:23.066206,-34
2021-12-23 18:03:23.066218,-18
2021-12-23 18:03:23.066229,-4
2021-12-23 18:03:23.066239,23
2021-12-23 18:03:23.066249,102
2021-12-23 18:03:23.066259,310
2021-12-23 18:03:23.066269,578
2021-12-23 18:03:23.066279,531
2021-12-23 18:03:23.066289,-6
2021-12-23 18:03:23.066299,-585
2021-12-23 18:03:23.066309,-613
2021-12-23 18:03:23.066319,-226
2021-12-23 18:03:23.066329,-30
2021-12-23 18:03:23.066339,-23
2021-12-23 18:03:23.066349,81
2021-12-23 18:03:23.066359,153
2021-12-23 18:03:23.066369,107
2021-12-23 18:03:23.066379,83
2021-12-23 18:03:23.066388,118
2021-12-23 18:03:23.066398,146
2021-12-23 18:03:23.066408,160
2021-12-23 18:03:23.066418,186
2021-12-23 18:03:23.066428,209
2021-12-23 18:03:23.066438,226
2021-12-23 18:03:23.066448,240
2021-12-23 18:03:23.066458,237
2021-12-23 18:03:23.066468,237
2021-12-23 18:03:23.066478,265
2021-12-23 18:03:23.066488,298
2021-12-23 18:03:23.246705,326
2021-12-23 18:03:23.246737,361
2021-12-23 18:03:23.246749,391
2021-12-23 18:03:23.246759,401
2021-12-23 18:03:23.246769,387
2021-12-23 18:03:23.246779,359
2021-12-23 18:03:23.246789,331
2021-12-23 18:03:23.246799,310
2021-12-23 18:03:23.246809,256
2021-12-23 18:03:23.246819,167
2021-12-23 18:03:23.246829,79
2021-12-23 18:03:23.246839,6
2021-12-23 18:03:23.246849,-62
2021-12-23 18:03:23.246859,-137
2021-12-23 18:03:23.246869,-198
2021-12-23 18:03:23.246879,-209
2021-12-23 18:03:23.246889,-226
2021-12-23 18:03:23.246899,-256
2021-12-23 18:03:23.246909,-237
2021-12-23 18:03:23.246919,-209
2021-12-23 18:03:23.246929,-219
2021-12-23 18:03:23.246939,-223
2021-12-23 18:03:23.246949,-207
2021-12-23 18:03:23.246959,-193
2021-12-23 18:03:23.246969,-181
2021-12-23 18:03:23.246978,-165
2021-12-23 18:03:23.246988,-149
2021-12-23 18:03:23.246998,-151
2021-12-23 18:03:23.247008,-151
2021-12-23 18:03:23.247018,-121
2021-12-23 18:03:23.471207,-93
2021-12-23 18:03:23.471229,-83
2021-12-23 18:03:23.471237,-81
2021-12-23 18:03:23.471244,-90
2021-12-23 18:03:23.471269,-114
2021-12-23 18:03:23.471279,-128
2021-12-23 18:03:23.471289,-104
2021-12-23 18:03:23.471299,-72
2021-12-23 18:03:23.471308,-69
2021-12-23 18:03:23.471318,-81
2021-12-23 18:03:23.471328,-90
2021-12-23 18:03:23.471338,-100
2021-12-23 18:03:23.471347,-109
2021-12-23 18:03:23.471357,-114
2021-12-23 18:03:23.471367,-111
2021-12-23 18:03:23.471377,-116
2021-12-23 18:03:23.471386,-111
2021-12-23 18:03:23.471396,-79
2021-12-23 18:03:23.471406,-46
2021-12-23 18:03:23.471416,-37
2021-12-23 18:03:23.471426,-25
2021-12-23 18:03:23.471435,-6
2021-12-23 18:03:23.471445,-9
2021-12-23 18:03:23.471455,-11
2021-12-23 18:03:23.471464,-2
2021-12-23 18:03:23.471474,2
2021-12-23 18:03:23.471484,9
2021-12-23 18:03:23.471494,20
2021-12-23 18:03:23.471503,23
2021-12-23 18:03:23.471513,30
2021-12-23 18:03:23.830365,41
2021-12-23 18:03:23.830386,46
2021-12-23 18:03:23.830394,48
2021-12-23 18:03:23.830401,34
2021-12-23 18:03:23.830407,65
2021-12-23 18:03:23.830414,289
2021-12-23 18:03:23.830421,589
2021-12-23 18:03:23.830427,578
2021-12-23 18:03:23.830434,100
2021-12-23 18:03:23.830440,-494
2021-12-23 18:03:23.830447,-554
2021-12-23 18:03:23.830453,-128
2021-12-23 18:03:23.830460,55
2021-12-23 18:03:23.830466,18
2021-12-23 18:03:23.830472,114
2021-12-23 18:03:23.830479,153
2021-12-23 18:03:23.830485,97
2021-12-23 18:03:23.830492,144
2021-12-23 18:03:23.830498,207
2021-12-23 18:03:23.830504,158
2021-12-23 18:03:23.830511,86
2021-12-23 18:03:23.830517,86
2021-12-23 18:03:23.830523,125
2021-12-23 18:03:23.830530,165
2021-12-23 18:03:23.830536,200
2021-12-23 18:03:23.830542,242
2021-12-23 18:03:23.830549,263
2021-12-23 18:03:23.830555,261
2021-12-23 18:03:23.830562,286
2021-12-23 18:03:23.830568,340
2021-12-23 18:03:24.011082,377
2021-12-23 18:03:24.011107,396
2021-12-23 18:03:24.011118,410
2021-12-23 18:03:24.011127,403
2021-12-23 18:03:24.011137,389
2021-12-23 18:03:24.011147,384
2021-12-23 18:03:24.011157,352
2021-12-23 18:03:24.011167,279
2021-12-23 18:03:24.011176,181
2021-12-23 18:03:24.011186,86
2021-12-23 18:03:24.011195,20
2021-12-23 18:03:24.011205,-32
2021-12-23 18:03:24.011214,-88
2021-12-23 18:03:24.011224,-130
2021-12-23 18:03:24.011234,-184
2021-12-23 18:03:24.011244,-247
2021-12-23 18:03:24.011253,-256
2021-12-23 18:03:24.011263,-242
2021-12-23 18:03:24.011273,-216
2021-12-23 18:03:24.011280,-179
2021-12-23 18:03:24.011286,-181
2021-12-23 18:03:24.011291,-198
2021-12-23 18:03:24.011296,-167
2021-12-23 18:03:24.011302,-125
2021-12-23 18:03:24.011307,-123
2021-12-23 18:03:24.011312,-118
2021-12-23 18:03:24.011317,-100
2021-12-23 18:03:24.011323,-90
2021-12-23 18:03:24.011328,-81
2021-12-23 18:03:24.011333,-62
2021-12-23 18:03:24.236216,-51
2021-12-23 18:03:24.236246,-48
2021-12-23 18:03:24.236259,-60
2021-12-23 18:03:24.236269,-74
2021-12-23 18:03:24.236280,-65
2021-12-23 18:03:24.236289,-48
2021-12-23 18:03:24.236299,-44
2021-12-23 18:03:24.236309,-41
2021-12-23 18:03:24.236319,-41
2021-12-23 18:03:24.236329,-48
2021-12-23 18:03:24.236339,-46
2021-12-23 18:03:24.236349,-30
2021-12-23 18:03:24.236359,-30
2021-12-23 18:03:24.236369,-48
2021-12-23 18:03:24.236379,-62
2021-12-23 18:03:24.236389,-58
2021-12-23 18:03:24.236399,-30
2021-12-23 18:03:24.236409,0
2021-12-23 18:03:24.236419,-2
2021-12-23 18:03:24.236429,-48
2021-12-23 18:03:24.236439,-104
2021-12-23 18:03:24.236449,-102
2021-12-23 18:03:24.236458,-69
2021-12-23 18:03:24.236468,-53
2021-12-23 18:03:24.236478,-44
2021-12-23 18:03:24.236488,-65
2021-12-23 18:03:24.236498,-104
2021-12-23 18:03:24.236508,-90
2021-12-23 18:03:24.236518,-44
2021-12-23 18:03:24.236528,-9
2021-12-23 18:03:24.416745,58
2021-12-23 18:03:24.416777,235
2021-12-23 18:03:24.416789,487
2021-12-23 18:03:24.416800,524
2021-12-23 18:03:24.416810,90
2021-12-23 18:03:24.416820,-512
2021-12-23 18:03:24.416830,-578
2021-12-23 18:03:24.416840,-153
2021-12-23 18:03:24.416850,16
2021-12-23 18:03:24.416859,-30
2021-12-23 18:03:24.416869,76
2021-12-23 18:03:24.416879,156
2021-12-23 18:03:24.416889,104
2021-12-23 18:03:24.416899,88
2021-12-23 18:03:24.416909,107
2021-12-23 18:03:24.416919,114
2021-12-23 18:03:24.416929,137
2021-12-23 18:03:24.416939,167
2021-12-23 18:03:24.416981,172
2021-12-23 18:03:24.416991,160
2021-12-23 18:03:24.417001,158
2021-12-23 18:03:24.417011,163
2021-12-23 18:03:24.417020,186
2021-12-23 18:03:24.417030,235
2021-12-23 18:03:24.417040,275
2021-12-23 18:03:24.417050,300
2021-12-23 18:03:24.417060,331
2021-12-23 18:03:24.417070,356
2021-12-23 18:03:24.417080,370
2021-12-23 18:03:24.417089,384
2021-12-23 18:03:24.685845,375
2021-12-23 18:03:24.685875,345
2021-12-23 18:03:24.685887,296
2021-12-23 18:03:24.685898,209
2021-12-23 18:03:24.685908,109
2021-12-23 18:03:24.685917,23
2021-12-23 18:03:24.685928,-79
2021-12-23 18:03:24.685937,-177
2021-12-23 18:03:24.685947,-212
2021-12-23 18:03:24.685957,-221
2021-12-23 18:03:24.685967,-235
2021-12-23 18:03:24.685977,-237
2021-12-23 18:03:24.685987,-247
2021-12-23 18:03:24.685997,-261
2021-12-23 18:03:24.686007,-244
2021-12-23 18:03:24.686017,-219
2021-12-23 18:03:24.686027,-202
2021-12-23 18:03:24.686047,-179
2021-12-23 18:03:24.686058,-172
2021-12-23 18:03:24.686067,-167
2021-12-23 18:03:24.686077,-146
2021-12-23 18:03:24.686087,-137
2021-12-23 18:03:24.686097,-142
2021-12-23 18:03:24.686107,-151
2021-12-23 18:03:24.686117,-151
2021-12-23 18:03:24.686127,-132
2021-12-23 18:03:24.686137,-114
2021-12-23 18:03:24.686147,-111
2021-12-23 18:03:24.686157,-107
2021-12-23 18:03:24.686167,-100
2021-12-23 18:03:24.955870,-118
2021-12-23 18:03:24.955902,-149
2021-12-23 18:03:24.955914,-135
2021-12-23 18:03:24.955924,-107
2021-12-23 18:03:24.955934,-107
2021-12-23 18:03:24.955945,-111
2021-12-23 18:03:24.955955,-130
2021-12-23 18:03:24.955965,-137
2021-12-23 18:03:24.955975,-123
2021-12-23 18:03:24.955985,-116
2021-12-23 18:03:24.955995,-109
2021-12-23 18:03:24.956004,-100
2021-12-23 18:03:24.956014,-102
2021-12-23 18:03:24.956024,-74
2021-12-23 18:03:24.956034,-32
2021-12-23 18:03:24.956044,-20
2021-12-23 18:03:24.956054,-27
2021-12-23 18:03:24.956064,-41
2021-12-23 18:03:24.956074,-55
2021-12-23 18:03:24.956084,-41
2021-12-23 18:03:24.956094,-23
2021-12-23 18:03:24.956104,-23
2021-12-23 18:03:24.956114,-23
2021-12-23 18:03:24.956124,-18
2021-12-23 18:03:24.956134,-30
2021-12-23 18:03:24.956144,-34
2021-12-23 18:03:24.956154,-6
2021-12-23 18:03:24.956164,65
2021-12-23 18:03:24.956174,249
2021-12-23 18:03:24.956184,512
2021-12-23 18:03:25.091670,545
2021-12-23 18:03:25.091711,146
2021-12-23 18:03:25.091724,-442
2021-12-23 18:03:25.091734,-617
2021-12-23 18:03:25.091745,-268
2021-12-23 18:03:25.091755,-53
2021-12-23 18:03:25.091765,-81
2021-12-23 18:03:25.091775,20
2021-12-23 18:03:25.091785,123
2021-12-23 18:03:25.091796,86
2021-12-23 18:03:25.091806,69
2021-12-23 18:03:25.091816,90
2021-12-23 18:03:25.091825,90
2021-12-23 18:03:25.091835,114
2021-12-23 18:03:25.091845,158
2021-12-23 18:03:25.091856,170
2021-12-23 18:03:25.091865,163
2021-12-23 18:03:25.091875,170
2021-12-23 18:03:25.091885,198
2021-12-23 18:03:25.091895,233
2021-12-23 18:03:25.091905,261
2021-12-23 18:03:25.091915,284
2021-12-23 18:03:25.091925,300
2021-12-23 18:03:25.091935,324
2021-12-23 18:03:25.091945,368
2021-12-23 18:03:25.091955,389
2021-12-23 18:03:25.091965,354
2021-12-23 18:03:25.091974,303
2021-12-23 18:03:25.091984,261
2021-12-23 18:03:25.091994,209
2021-12-23 18:03:25.316226,153
2021-12-23 18:03:25.316256,93
2021-12-23 18:03:25.316269,0
2021-12-23 18:03:25.316279,-102
2021-12-23 18:03:25.316290,-177
2021-12-23 18:03:25.316300,-228
2021-12-23 18:03:25.316310,-275
2021-12-23 18:03:25.316319,-321
2021-12-23 18:03:25.316329,-333
2021-12-23 18:03:25.316339,-328
2021-12-23 18:03:25.316349,-340
2021-12-23 18:03:25.316359,-326
2021-12-23 18:03:25.316369,-279
2021-12-23 18:03:25.316379,-251
2021-12-23 18:03:25.316389,-240
2021-12-23 18:03:25.316399,-223
2021-12-23 18:03:25.316409,-209
2021-12-23 18:03:25.316419,-195
2021-12-23 18:03:25.316429,-167
2021-12-23 18:03:25.316439,-139
2021-12-23 18:03:25.316449,-130
2021-12-23 18:03:25.316459,-135
2021-12-23 18:03:25.316468,-128
2021-12-23 18:03:25.316478,-104
2021-12-23 18:03:25.316488,-81
2021-12-23 18:03:25.316498,-74
2021-12-23 18:03:25.316508,-62
2021-12-23 18:03:25.316518,-48
2021-12-23 18:03:25.316528,-51
2021-12-23 18:03:25.316538,-81
2021-12-23 18:03:25.631835,-93
2021-12-23 18:03:25.631868,-60
2021-12-23 18:03:25.631880,-44
2021-12-23 18:03:25.631890,-76
2021-12-23 18:03:25.631900,-95
2021-12-23 18:03:25.631910,-74
2021-12-23 18:03:25.631919,-60
2021-12-23 18:03:25.631929,-53
2021-12-23 18:03:25.631939,-51
2021-12-23 18:03:25.631948,-81
2021-12-23 18:03:25.631958,-109
2021-12-23 18:03:25.631968,-69
2021-12-23 18:03:25.631977,-20
2021-12-23 18:03:25.631987,-4
2021-12-23 18:03:25.631997,16
2021-12-23 18:03:25.632007,20
2021-12-23 18:03:25.632016,-2
2021-12-23 18:03:25.632026,-13
2021-12-23 18:03:25.632036,-4
2021-12-23 18:03:25.632045,9
2021-12-23 18:03:25.632055,18
2021-12-23 18:03:25.632064,16
2021-12-23 18:03:25.632074,20
2021-12-23 18:03:25.632084,37
2021-12-23 18:03:25.632093,44
2021-12-23 18:03:25.632103,53
2021-12-23 18:03:25.632113,65
2021-12-23 18:03:25.632122,95
2021-12-23 18:03:25.632132,277
2021-12-23 18:03:25.632142,559
2021-12-23 18:03:25.855914,571
2021-12-23 18:03:25.855946,118
2021-12-23 18:03:25.855958,-482
2021-12-23 18:03:25.855969,-627
2021-12-23 18:03:25.855979,-240
2021-12-23 18:03:25.855989,9
2021-12-23 18:03:25.855999,-9
2021-12-23 18:03:25.856009,83
2021-12-23 18:03:25.856019,163
2021-12-23 18:03:25.856029,90
2021-12-23 18:03:25.856039,86
2021-12-23 18:03:25.856050,158
2021-12-23 18:03:25.856060,149
2021-12-23 18:03:25.856070,104
2021-12-23 18:03:25.856080,102
2021-12-23 18:03:25.856090,111
2021-12-23 18:03:25.856100,128
2021-12-23 18:03:25.856110,163
2021-12-23 18:03:25.856120,193
2021-12-23 18:03:25.856130,202
2021-12-23 18:03:25.856140,191
2021-12-23 18:03:25.856150,177
2021-12-23 18:03:25.856160,200
2021-12-23 18:03:25.856170,249
2021-12-23 18:03:25.856181,286
2021-12-23 18:03:25.856191,307
2021-12-23 18:03:25.856201,312
2021-12-23 18:03:25.856211,296
2021-12-23 18:03:25.856221,279
2021-12-23 18:03:25.856231,258
2021-12-23 18:03:26.035419,205
2021-12-23 18:03:26.035435,123
2021-12-23 18:03:26.035441,30
2021-12-23 18:03:26.035446,-76
2021-12-23 18:03:26.035451,-158
2021-12-23 18:03:26.035456,-184
2021-12-23 18:03:26.035461,-200
2021-12-23 18:03:26.035465,-237
2021-12-23 18:03:26.035470,-265
2021-12-23 18:03:26.035475,-268
2021-12-23 18:03:26.035480,-251
2021-12-23 18:03:26.035484,-230
2021-12-23 18:03:26.035489,-207
2021-12-23 18:03:26.035494,-198
2021-12-23 18:03:26.035499,-216
2021-12-23 18:03:26.035503,-212
2021-12-23 18:03:26.035508,-170
2021-12-23 18:03:26.035513,-132
2021-12-23 18:03:26.035517,-114
2021-12-23 18:03:26.035522,-116
2021-12-23 18:03:26.035527,-142
2021-12-23 18:03:26.035531,-144
2021-12-23 18:03:26.035536,-114
2021-12-23 18:03:26.035541,-88
2021-12-23 18:03:26.035545,-79
2021-12-23 18:03:26.035550,-76
2021-12-23 18:03:26.035555,-81
2021-12-23 18:03:26.035560,-81
2021-12-23 18:03:26.035564,-62
2021-12-23 18:03:26.035569,-39
2021-12-23 18:03:26.306651,-23
2021-12-23 18:03:26.306682,-23
2021-12-23 18:03:26.306694,-34
2021-12-23 18:03:26.306705,-41
2021-12-23 18:03:26.306715,-51
2021-12-23 18:03:26.306725,-72
2021-12-23 18:03:26.306735,-76
2021-12-23 18:03:26.306745,-81
2021-12-23 18:03:26.306756,-97
2021-12-23 18:03:26.306766,-90
2021-12-23 18:03:26.306776,-62
2021-12-23 18:03:26.306786,-48
2021-12-23 18:03:26.306796,-55
2021-12-23 18:03:26.306806,-88
2021-12-23 18:03:26.306816,-102
2021-12-23 18:03:26.306826,-72
2021-12-23 18:03:26.306836,-37
2021-12-23 18:03:26.306846,-32
2021-12-23 18:03:26.306856,-58
2021-12-23 18:03:26.306866,-90
2021-12-23 18:03:26.306876,-97
2021-12-23 18:03:26.306886,-90
2021-12-23 18:03:26.306897,-83
2021-12-23 18:03:26.306907,-62
2021-12-23 18:03:26.306917,-51
2021-12-23 18:03:26.306927,-60
2021-12-23 18:03:26.306937,-79
2021-12-23 18:03:26.306947,-83
2021-12-23 18:03:26.306957,-65
2021-12-23 18:03:26.306967,-41
2021-12-23 18:03:26.486663,-18
2021-12-23 18:03:26.486694,76
2021-12-23 18:03:26.486706,328
2021-12-23 18:03:26.486717,571
2021-12-23 18:03:26.486726,463
2021-12-23 18:03:26.486736,-51
2021-12-23 18:03:26.486746,-582
2021-12-23 18:03:26.486756,-566
2021-12-23 18:03:26.486765,-174
2021-12-23 18:03:26.486775,-37
2021-12-23 18:03:26.486785,-39
2021-12-23 18:03:26.486795,90
2021-12-23 18:03:26.486804,123
2021-12-23 18:03:26.486814,53
2021-12-23 18:03:26.486824,76
2021-12-23 18:03:26.486833,123
2021-12-23 18:03:26.486843,118
2021-12-23 18:03:26.486853,132
2021-12-23 18:03:26.486862,135
2021-12-23 18:03:26.486872,111
2021-12-23 18:03:26.486882,121
2021-12-23 18:03:26.486891,144
2021-12-23 18:03:26.486901,158
2021-12-23 18:03:26.486911,184
2021-12-23 18:03:26.486920,212
2021-12-23 18:03:26.486930,237
2021-12-23 18:03:26.486940,270
2021-12-23 18:03:26.486950,298
2021-12-23 18:03:26.486959,326
2021-12-23 18:03:26.486969,349
2021-12-23 18:03:26.801037,342
2021-12-23 18:03:26.801058,331
2021-12-23 18:03:26.801066,319
2021-12-23 18:03:26.801073,275
2021-12-23 18:03:26.801079,207
2021-12-23 18:03:26.801086,123
2021-12-23 18:03:26.801092,23
2021-12-23 18:03:26.801099,-48
2021-12-23 18:03:26.801105,-100
2021-12-23 18:03:26.801112,-174
2021-12-23 18:03:26.801118,-221
2021-12-23 18:03:26.801125,-230
2021-12-23 18:03:26.801131,-251
2021-12-23 18:03:26.801138,-256
2021-12-23 18:03:26.801144,-226
2021-12-23 18:03:26.801151,-209
2021-12-23 18:03:26.801157,-205
2021-12-23 18:03:26.801163,-188
2021-12-23 18:03:26.801170,-172
2021-12-23 18:03:26.801176,-156
2021-12-23 18:03:26.801183,-132
2021-12-23 18:03:26.801189,-109
2021-12-23 18:03:26.801196,-90
2021-12-23 18:03:26.801202,-102
2021-12-23 18:03:26.801208,-128
2021-12-23 18:03:26.801215,-111
2021-12-23 18:03:26.801221,-90
2021-12-23 18:03:26.801228,-93
2021-12-23 18:03:26.801234,-79
2021-12-23 18:03:26.801241,-60
2021-12-23 18:03:26.981660,-65
2021-12-23 18:03:26.981691,-62
2021-12-23 18:03:26.981703,-44
2021-12-23 18:03:26.981713,-41
2021-12-23 18:03:26.981723,-58
2021-12-23 18:03:26.981733,-74
2021-12-23 18:03:26.981743,-79
2021-12-23 18:03:26.981753,-65
2021-12-23 18:03:26.981762,-55
2021-12-23 18:03:26.981772,-53
2021-12-23 18:03:26.981782,-48
2021-12-23 18:03:26.981792,-58
2021-12-23 18:03:26.981802,-65
2021-12-23 18:03:26.981811,-46
2021-12-23 18:03:26.981839,-32
2021-12-23 18:03:26.981850,-37
2021-12-23 18:03:26.981860,-55
2021-12-23 18:03:26.981870,-86
2021-12-23 18:03:26.981880,-81
2021-12-23 18:03:26.981890,-37
2021-12-23 18:03:26.981900,-11
2021-12-23 18:03:26.981910,-6
2021-12-23 18:03:26.981920,-2
2021-12-23 18:03:26.981930,6
2021-12-23 18:03:26.981940,11
2021-12-23 18:03:26.981950,-2
2021-12-23 18:03:26.981960,-25
2021-12-23 18:03:26.981970,-41
2021-12-23 18:03:26.981980,-39
2021-12-23 18:03:26.981989,-37
2021-12-23 18:03:27.251216,-30
2021-12-23 18:03:27.251247,-13
2021-12-23 18:03:27.251260,-6
2021-12-23 18:03:27.251270,-11
2021-12-23 18:03:27.251281,-23
2021-12-23 18:03:27.251291,-11
2021-12-23 18:03:27.251301,114
2021-12-23 18:03:27.251311,389
2021-12-23 18:03:27.251321,585
2021-12-23 18:03:27.251331,380
2021-12-23 18:03:27.251341,-207
2021-12-23 18:03:27.251351,-641
2021-12-23 18:03:27.251361,-461
2021-12-23 18:03:27.251371,-93
2021-12-23 18:03:27.251381,-41
2021-12-23 18:03:27.251391,-37
2021-12-23 18:03:27.251401,72
2021-12-23 18:03:27.251411,81
2021-12-23 18:03:27.251421,46
2021-12-23 18:03:27.251431,69
2021-12-23 18:03:27.251442,83
2021-12-23 18:03:27.251451,58
2021-12-23 18:03:27.251461,55
2021-12-23 18:03:27.251471,90
2021-12-23 18:03:27.251481,118
2021-12-23 18:03:27.251491,139
2021-12-23 18:03:27.251501,160
2021-12-23 18:03:27.251511,170
2021-12-23 18:03:27.251521,172
2021-12-23 18:03:27.251531,177
2021-12-23 18:03:27.431626,193
2021-12-23 18:03:27.431657,237
2021-12-23 18:03:27.431669,282
2021-12-23 18:03:27.431679,289
2021-12-23 18:03:27.431700,286
2021-12-23 18:03:27.431710,303
2021-12-23 18:03:27.431720,310
2021-12-23 18:03:27.431730,293
2021-12-23 18:03:27.431741,251
2021-12-23 18:03:27.431751,158
2021-12-23 18:03:27.431760,44
2021-12-23 18:03:27.431771,-25
2021-12-23 18:03:27.431781,-67
2021-12-23 18:03:27.431790,-111
2021-12-23 18:03:27.431800,-156
2021-12-23 18:03:27.431810,-209
2021-12-23 18:03:27.431820,-237
2021-12-23 18:03:27.431830,-214
2021-12-23 18:03:27.431840,-188
2021-12-23 18:03:27.431850,-181
2021-12-23 18:03:27.431860,-181
2021-12-23 18:03:27.431870,-193
2021-12-23 18:03:27.431880,-186
2021-12-23 18:03:27.431890,-144
2021-12-23 18:03:27.431900,-118
2021-12-23 18:03:27.431910,-109
2021-12-23 18:03:27.431919,-90
2021-12-23 18:03:27.431929,-81
2021-12-23 18:03:27.431939,-76
2021-12-23 18:03:27.431949,-51
2021-12-23 18:03:27.746193,-25
2021-12-23 18:03:27.746224,-20
2021-12-23 18:03:27.746236,-27
2021-12-23 18:03:27.746246,-39
2021-12-23 18:03:27.746256,-37
2021-12-23 18:03:27.746266,-23
2021-12-23 18:03:27.746276,-9
2021-12-23 18:03:27.746286,2
2021-12-23 18:03:27.746295,-9
2021-12-23 18:03:27.746305,-46
2021-12-23 18:03:27.746315,-51
2021-12-23 18:03:27.746325,-18
2021-12-23 18:03:27.746334,-11
2021-12-23 18:03:27.746344,-16
2021-12-23 18:03:27.746354,-23
2021-12-23 18:03:27.746363,-51
2021-12-23 18:03:27.746373,-53
2021-12-23 18:03:27.746382,-41
2021-12-23 18:03:27.746392,-51
2021-12-23 18:03:27.746402,-55
2021-12-23 18:03:27.746411,-53
2021-12-23 18:03:27.746421,-67
2021-12-23 18:03:27.746431,-58
2021-12-23 18:03:27.746440,-27
2021-12-23 18:03:27.746450,-9
2021-12-23 18:03:27.746460,-11
2021-12-23 18:03:27.746469,-18
2021-12-23 18:03:27.746479,-23
2021-12-23 18:03:27.746489,-30
2021-12-23 18:03:27.746499,-30
2021-12-23 18:03:27.925036,-20
2021-12-23 18:03:27.925067,-6
2021-12-23 18:03:27.925080,-6
2021-12-23 18:03:27.925090,-23
2021-12-23 18:03:27.925100,-44
2021-12-23 18:03:27.925110,-74
2021-12-23 18:03:27.925119,-67
2021-12-23 18:03:27.925129,-37
2021-12-23 18:03:27.925139,-20
2021-12-23 18:03:27.925149,104
2021-12-23 18:03:27.925159,401
2021-12-23 18:03:27.925169,552
2021-12-23 18:03:27.925178,237
2021-12-23 18:03:27.925188,-412
2021-12-23 18:03:27.925198,-736
2021-12-23 18:03:27.925208,-405
2021-12-23 18:03:27.925218,-81
2021-12-23 18:03:27.925228,-111
2021-12-23 18:03:27.925237,-74
2021-12-23 18:03:27.925247,34
2021-12-23 18:03:27.925257,-4
2021-12-23 18:03:27.925267,-32
2021-12-23 18:03:27.925277,23
2021-12-23 18:03:27.925286,53
2021-12-23 18:03:27.925296,55
2021-12-23 18:03:27.925306,72
2021-12-23 18:03:27.925316,74
2021-12-23 18:03:27.925326,81
2021-12-23 18:03:27.925335,116
2021-12-23 18:03:27.925345,156
2021-12-23 18:03:28.150374,184
2021-12-23 18:03:28.150395,205
2021-12-23 18:03:28.150403,221
2021-12-23 18:03:28.150410,251
2021-12-23 18:03:28.150416,298
2021-12-23 18:03:28.150423,340
2021-12-23 18:03:28.150429,363
2021-12-23 18:03:28.150436,352
2021-12-23 18:03:28.150442,319
2021-12-23 18:03:28.150448,300
2021-12-23 18:03:28.150455,286
2021-12-23 18:03:28.150461,244
2021-12-23 18:03:28.150468,163
2021-12-23 18:03:28.150474,53
2021-12-23 18:03:28.150481,-48
2021-12-23 18:03:28.150487,-100
2021-12-23 18:03:28.150494,-128
2021-12-23 18:03:28.150500,-163
2021-12-23 18:03:28.150506,-179
2021-12-23 18:03:28.150513,-181
2021-12-23 18:03:28.150519,-193
2021-12-23 18:03:28.150526,-219
2021-12-23 18:03:28.150532,-219
2021-12-23 18:03:28.150538,-188
2021-12-23 18:03:28.150545,-170
2021-12-23 18:03:28.150551,-160
2021-12-23 18:03:28.150558,-137
2021-12-23 18:03:28.150564,-118
2021-12-23 18:03:28.150571,-102
2021-12-23 18:03:28.150577,-81
2021-12-23 18:03:28.331584,-67
2021-12-23 18:03:28.331616,-65
2021-12-23 18:03:28.331628,-55
2021-12-23 18:03:28.331639,-46
2021-12-23 18:03:28.331649,-39
2021-12-23 18:03:28.331659,-23
2021-12-23 18:03:28.331669,-20
2021-12-23 18:03:28.331679,-41
2021-12-23 18:03:28.331689,-51
2021-12-23 18:03:28.331699,-55
2021-12-23 18:03:28.331709,-93
2021-12-23 18:03:28.331719,-118
2021-12-23 18:03:28.331729,-116
2021-12-23 18:03:28.331739,-123
2021-12-23 18:03:28.331749,-125
2021-12-23 18:03:28.331759,-107
2021-12-23 18:03:28.331769,-90
2021-12-23 18:03:28.331779,-79
2021-12-23 18:03:28.331789,-83
2021-12-23 18:03:28.331799,-95
2021-12-23 18:03:28.331809,-97
2021-12-23 18:03:28.331819,-104
2021-12-23 18:03:28.331829,-104
2021-12-23 18:03:28.331839,-107
2021-12-23 18:03:28.331849,-123
2021-12-23 18:03:28.331859,-102
2021-12-23 18:03:28.331869,-58
2021-12-23 18:03:28.331879,-55
2021-12-23 18:03:28.331889,-69
2021-12-23 18:03:28.331899,-69
2021-12-23 18:03:28.556093,-69
2021-12-23 18:03:28.556124,-58
2021-12-23 18:03:28.556136,-46
2021-12-23 18:03:28.556147,-48
2021-12-23 18:03:28.556157,-44
2021-12-23 18:03:28.556167,-37
2021-12-23 18:03:28.556178,-53
2021-12-23 18:03:28.556188,-46
2021-12-23 18:03:28.556198,6
2021-12-23 18:03:28.556208,93
2021-12-23 18:03:28.556218,298
2021-12-23 18:03:28.556228,529
2021-12-23 18:03:28.556238,449
2021-12-23 18:03:28.556248,-62
2021-12-23 18:03:28.556258,-620
2021-12-23 18:03:28.556268,-638
2021-12-23 18:03:28.556278,-244
2021-12-23 18:03:28.556288,-100
2021-12-23 18:03:28.556298,-135
2021-12-23 18:03:28.556308,-9
2021-12-23 18:03:28.556319,81
2021-12-23 18:03:28.556328,46
2021-12-23 18:03:28.556338,51
2021-12-23 18:03:28.556348,86
2021-12-23 18:03:28.556358,83
2021-12-23 18:03:28.556368,79
2021-12-23 18:03:28.556378,86
2021-12-23 18:03:28.556388,102
2021-12-23 18:03:28.556398,123
2021-12-23 18:03:28.556408,139
2021-12-23 18:03:28.781518,158
2021-12-23 18:03:28.781549,195
2021-12-23 18:03:28.781561,228
2021-12-23 18:03:28.781571,251
2021-12-23 18:03:28.781581,284
2021-12-23 18:03:28.781591,298
2021-12-23 18:03:28.781601,305
2021-12-23 18:03:28.781611,333
2021-12-23 18:03:28.781621,354
2021-12-23 18:03:28.781631,333
2021-12-23 18:03:28.781641,291
2021-12-23 18:03:28.781651,237
2021-12-23 18:03:28.781661,170
2021-12-23 18:03:28.781671,100
2021-12-23 18:03:28.781681,16
2021-12-23 18:03:28.781691,-97
2021-12-23 18:03:28.781701,-191
2021-12-23 18:03:28.781711,-216
2021-12-23 18:03:28.781721,-214
2021-12-23 18:03:28.781731,-219
2021-12-23 18:03:28.781741,-219
2021-12-23 18:03:28.781751,-219
2021-12-23 18:03:28.781761,-212
2021-12-23 18:03:28.781771,-195
2021-12-23 18:03:28.781781,-172
2021-12-23 18:03:28.781791,-149
2021-12-23 18:03:28.781801,-139
2021-12-23 18:03:28.781811,-149
2021-12-23 18:03:28.781821,-153
2021-12-23 18:03:28.781831,-139
2021-12-23 18:03:29.050073,-114
2021-12-23 18:03:29.050091,-90
2021-12-23 18:03:29.050097,-79
2021-12-23 18:03:29.050102,-83
2021-12-23 18:03:29.050108,-100
2021-12-23 18:03:29.050113,-102
2021-12-23 18:03:29.050118,-81
2021-12-23 18:03:29.050123,-62
2021-12-23 18:03:29.050129,-53
2021-12-23 18:03:29.050134,-58
2021-12-23 18:03:29.050140,-83
2021-12-23 18:03:29.050145,-95
2021-12-23 18:03:29.050150,-74
2021-12-23 18:03:29.050155,-51
2021-12-23 18:03:29.050161,-46
2021-12-23 18:03:29.050167,-48
2021-12-23 18:03:29.050172,-51
2021-12-23 18:03:29.050177,-53
2021-12-23 18:03:29.050182,-58
2021-12-23 18:03:29.050188,-62
2021-12-23 18:03:29.050193,-65
2021-12-23 18:03:29.050198,-72
2021-12-23 18:03:29.050203,-79
2021-12-23 18:03:29.050208,-60
2021-12-23 18:03:29.050214,-32
2021-12-23 18:03:29.050219,-16
2021-12-23 18:03:29.050224,-6
2021-12-23 18:03:29.050229,6
2021-12-23 18:03:29.050235,4
2021-12-23 18:03:29.050240,-27
2021-12-23 18:03:29.320487,-55
2021-12-23 18:03:29.320518,-39
2021-12-23 18:03:29.320530,-23
2021-12-23 18:03:29.320541,-48
2021-12-23 18:03:29.320551,-69
2021-12-23 18:03:29.320561,-51
2021-12-23 18:03:29.320571,-23
2021-12-23 18:03:29.320581,-13
2021-12-23 18:03:29.320591,-4
2021-12-23 18:03:29.320601,4
2021-12-23 18:03:29.320611,74
2021-12-23 18:03:29.320621,310
2021-12-23 18:03:29.320631,512
2021-12-23 18:03:29.320641,314
2021-12-23 18:03:29.320651,-258
2021-12-23 18:03:29.320661,-713
2021-12-23 18:03:29.320671,-592
2021-12-23 18:03:29.320681,-202
2021-12-23 18:03:29.320691,-93
2021-12-23 18:03:29.320701,-83
2021-12-23 18:03:29.320711,-2
2021-12-23 18:03:29.320721,-18
2021-12-23 18:03:29.320731,-46
2021-12-23 18:03:29.320741,13
2021-12-23 18:03:29.320750,46
2021-12-23 18:03:29.320760,53
2021-12-23 18:03:29.320771,76
2021-12-23 18:03:29.320780,86
2021-12-23 18:03:29.320790,97
2021-12-23 18:03:29.320800,137
2021-12-23 18:03:29.546778,170
2021-12-23 18:03:29.546809,172
2021-12-23 18:03:29.546822,167
2021-12-23 18:03:29.546832,186
2021-12-23 18:03:29.546842,230
2021-12-23 18:03:29.546851,279
2021-12-23 18:03:29.546861,321
2021-12-23 18:03:29.546871,359
2021-12-23 18:03:29.546881,370
2021-12-23 18:03:29.546890,347
2021-12-23 18:03:29.546900,335
2021-12-23 18:03:29.546910,340
2021-12-23 18:03:29.546919,305
2021-12-23 18:03:29.546929,230
2021-12-23 18:03:29.546939,125
2021-12-23 18:03:29.546949,4
2021-12-23 18:03:29.546958,-74
2021-12-23 18:03:29.546968,-109
2021-12-23 18:03:29.546978,-132
2021-12-23 18:03:29.546999,-146
2021-12-23 18:03:29.547009,-167
2021-12-23 18:03:29.547019,-195
2021-12-23 18:03:29.547029,-186
2021-12-23 18:03:29.547039,-158
2021-12-23 18:03:29.547049,-144
2021-12-23 18:03:29.547059,-135
2021-12-23 18:03:29.547069,-125
2021-12-23 18:03:29.547078,-123
2021-12-23 18:03:29.547088,-97
2021-12-23 18:03:29.547098,-53
2021-12-23 18:03:29.726139,-25
2021-12-23 18:03:29.726170,-20
2021-12-23 18:03:29.726182,-32
2021-12-23 18:03:29.726193,-53
2021-12-23 18:03:29.726203,-60
2021-12-23 18:03:29.726213,-46
2021-12-23 18:03:29.726223,-32
2021-12-23 18:03:29.726233,-27
2021-12-23 18:03:29.726243,-25
2021-12-23 18:03:29.726252,-27
2021-12-23 18:03:29.726262,-20
2021-12-23 18:03:29.726272,-4
2021-12-23 18:03:29.726282,9
2021-12-23 18:03:29.726291,-2
2021-12-23 18:03:29.726301,-39
2021-12-23 18:03:29.726311,-48
2021-12-23 18:03:29.726320,-25
2021-12-23 18:03:29.726330,-25
2021-12-23 18:03:29.726339,-44
2021-12-23 18:03:29.726349,-62
2021-12-23 18:03:29.726359,-90
2021-12-23 18:03:29.726368,-100
2021-12-23 18:03:29.726378,-83
2021-12-23 18:03:29.726387,-69
2021-12-23 18:03:29.726397,-60
2021-12-23 18:03:29.726407,-48
2021-12-23 18:03:29.726416,-62
2021-12-23 18:03:29.726426,-86
2021-12-23 18:03:29.726436,-58
2021-12-23 18:03:29.726445,-20
2021-12-23 18:03:30.039482,-27
2021-12-23 18:03:30.039499,-53
2021-12-23 18:03:30.039505,-60
2021-12-23 18:03:30.039511,-55
2021-12-23 18:03:30.039516,-41
2021-12-23 18:03:30.039521,-44
2021-12-23 18:03:30.039526,-67
2021-12-23 18:03:30.039531,-88
2021-12-23 18:03:30.039536,-90
2021-12-23 18:03:30.039541,-81
2021-12-23 18:03:30.039546,-65
2021-12-23 18:03:30.039551,4
2021-12-23 18:03:30.039556,200
2021-12-23 18:03:30.039561,412
2021-12-23 18:03:30.039566,349
2021-12-23 18:03:30.039571,-93
2021-12-23 18:03:30.039576,-620
2021-12-23 18:03:30.039581,-699
2021-12-23 18:03:30.039586,-326
2021-12-23 18:03:30.039591,-114
2021-12-23 18:03:30.039596,-118
2021-12-23 18:03:30.039601,-18
2021-12-23 18:03:30.039606,62
2021-12-23 18:03:30.039611,39
2021-12-23 18:03:30.039616,53
2021-12-23 18:03:30.039621,90
2021-12-23 18:03:30.039626,100
2021-12-23 18:03:30.039631,111
2021-12-23 18:03:30.039636,137
2021-12-23 18:03:30.039641,158
2021-12-23 18:03:30.176766,170
2021-12-23 18:03:30.176798,184
2021-12-23 18:03:30.176810,209
2021-12-23 18:03:30.176821,233
2021-12-23 18:03:30.176830,261
2021-12-23 18:03:30.176840,305
2021-12-23 18:03:30.176850,345
2021-12-23 18:03:30.176860,368
2021-12-23 18:03:30.176869,377
2021-12-23 18:03:30.176879,391
2021-12-23 18:03:30.176889,410
2021-12-23 18:03:30.176899,412
2021-12-23 18:03:30.176908,377
2021-12-23 18:03:30.176918,319
2021-12-23 18:03:30.176928,258
2021-12-23 18:03:30.176937,184
2021-12-23 18:03:30.176947,90
2021-12-23 18:03:30.176957,11
2021-12-23 18:03:30.176967,-69
2021-12-23 18:03:30.176977,-139
2021-12-23 18:03:30.176987,-163
2021-12-23 18:03:30.176996,-174
2021-12-23 18:03:30.177006,-184
2021-12-23 18:03:30.177016,-174
2021-12-23 18:03:30.177025,-172
2021-12-23 18:03:30.177035,-160
2021-12-23 18:03:30.177045,-128
2021-12-23 18:03:30.177054,-121
2021-12-23 18:03:30.177064,-116
2021-12-23 18:03:30.177074,-86
2021-12-23 18:03:30.491782,-74
2021-12-23 18:03:30.491814,-93
2021-12-23 18:03:30.491826,-121
2021-12-23 18:03:30.491837,-128
2021-12-23 18:03:30.491847,-102
2021-12-23 18:03:30.491857,-97
2021-12-23 18:03:30.491867,-121
2021-12-23 18:03:30.491877,-111
2021-12-23 18:03:30.491887,-79
2021-12-23 18:03:30.491897,-86
2021-12-23 18:03:30.491907,-111
2021-12-23 18:03:30.491917,-123
2021-12-23 18:03:30.491927,-137
2021-12-23 18:03:30.491937,-132
2021-12-23 18:03:30.491947,-109
2021-12-23 18:03:30.491957,-102
2021-12-23 18:03:30.491966,-102
2021-12-23 18:03:30.491977,-100
2021-12-23 18:03:30.491987,-86
2021-12-23 18:03:30.491997,-69
2021-12-23 18:03:30.492006,-67
2021-12-23 18:03:30.492016,-79
2021-12-23 18:03:30.492026,-81
2021-12-23 18:03:30.492036,-86
2021-12-23 18:03:30.492046,-90
2021-12-23 18:03:30.492056,-81
2021-12-23 18:03:30.492066,-74
2021-12-23 18:03:30.492076,-72
2021-12-23 18:03:30.492086,-55
2021-12-23 18:03:30.492096,-27
2021-12-23 18:03:30.626596,-9
2021-12-23 18:03:30.626627,2
2021-12-23 18:03:30.626639,0
2021-12-23 18:03:30.626650,-13
2021-12-23 18:03:30.626660,-20
2021-12-23 18:03:30.626670,-34
2021-12-23 18:03:30.626680,-55
2021-12-23 18:03:30.626690,-44
2021-12-23 18:03:30.626699,-25
2021-12-23 18:03:30.626709,-23
2021-12-23 18:03:30.626719,-16
2021-12-23 18:03:30.626729,-11
2021-12-23 18:03:30.626738,-11
2021-12-23 18:03:30.626748,37
2021-12-23 18:03:30.626758,193
2021-12-23 18:03:30.626768,442
2021-12-23 18:03:30.626778,491
2021-12-23 18:03:30.626787,86
2021-12-23 18:03:30.626797,-508
2021-12-23 18:03:30.626807,-694
2021-12-23 18:03:30.626817,-363
2021-12-23 18:03:30.626826,-102
2021-12-23 18:03:30.626836,-104
2021-12-23 18:03:30.626846,-41
2021-12-23 18:03:30.626855,55
2021-12-23 18:03:30.626865,48
2021-12-23 18:03:30.626875,46
2021-12-23 18:03:30.626884,81
2021-12-23 18:03:30.626894,81
2021-12-23 18:03:30.626904,83
2021-12-23 18:03:30.850856,118
2021-12-23 18:03:30.850879,153
2021-12-23 18:03:30.850887,165
2021-12-23 18:03:30.850894,170
2021-12-23 18:03:30.850901,167
2021-12-23 18:03:30.850907,167
2021-12-23 18:03:30.850946,200
2021-12-23 18:03:30.850952,221
2021-12-23 18:03:30.850959,214
2021-12-23 18:03:30.850965,235
2021-12-23 18:03:30.850971,261
2021-12-23 18:03:30.850978,268
2021-12-23 18:03:30.850984,296
2021-12-23 18:03:30.850991,310
2021-12-23 18:03:30.850997,270
2021-12-23 18:03:30.851003,223
2021-12-23 18:03:30.851010,172
2021-12-23 18:03:30.851016,97
2021-12-23 18:03:30.851023,32
2021-12-23 18:03:30.851029,-25
2021-12-23 18:03:30.851035,-100
2021-12-23 18:03:30.851042,-160
2021-12-23 18:03:30.851048,-202
2021-12-23 18:03:30.851055,-214
2021-12-23 18:03:30.851061,-191
2021-12-23 18:03:30.851068,-163
2021-12-23 18:03:30.851074,-163
2021-12-23 18:03:30.851080,-174
2021-12-23 18:03:30.851087,-167
2021-12-23 18:03:30.851093,-146
2021-12-23 18:03:31.076139,-125
2021-12-23 18:03:31.076170,-100
2021-12-23 18:03:31.076182,-83
2021-12-23 18:03:31.076193,-86
2021-12-23 18:03:31.076203,-90
2021-12-23 18:03:31.076213,-76
2021-12-23 18:03:31.076223,-58
2021-12-23 18:03:31.076233,-46
2021-12-23 18:03:31.076243,-39
2021-12-23 18:03:31.076253,-58
2021-12-23 18:03:31.076263,-86
2021-12-23 18:03:31.076273,-69
2021-12-23 18:03:31.076283,-37
2021-12-23 18:03:31.076293,-20
2021-12-23 18:03:31.076303,-16
2021-12-23 18:03:31.076313,-37
2021-12-23 18:03:31.076323,-67
2021-12-23 18:03:31.076333,-53
2021-12-23 18:03:31.076343,-18
2021-12-23 18:03:31.076353,-9
2021-12-23 18:03:31.076363,-30
2021-12-23 18:03:31.076373,-44
2021-12-23 18:03:31.076383,-25
2021-12-23 18:03:31.076393,16
2021-12-23 18:03:31.076403,34
2021-12-23 18:03:31.076414,18
2021-12-23 18:03:31.076424,-6
2021-12-23 18:03:31.076434,-39
2021-12-23 18:03:31.076444,-46
2021-12-23 18:03:31.076454,-23
2021-12-23 18:03:31.346822,2
2021-12-23 18:03:31.346853,20
2021-12-23 18:03:31.346866,16
2021-12-23 18:03:31.346876,-4
2021-12-23 18:03:31.346886,-6
2021-12-23 18:03:31.346896,-6
2021-12-23 18:03:31.346906,-16
2021-12-23 18:03:31.346916,0
2021-12-23 18:03:31.346926,9
2021-12-23 18:03:31.346936,-25
2021-12-23 18:03:31.346945,-46
2021-12-23 18:03:31.346955,-20
2021-12-23 18:03:31.346965,6
2021-12-23 18:03:31.346975,2
2021-12-23 18:03:31.346985,-48
2021-12-23 18:03:31.346994,-86
2021-12-23 18:03:31.347004,6
2021-12-23 18:03:31.347014,261
2021-12-23 18:03:31.347024,508
2021-12-23 18:03:31.347034,429
2021-12-23 18:03:31.347043,-83
2021-12-23 18:03:31.347053,-669
2021-12-23 18:03:31.347063,-699
2021-12-23 18:03:31.347073,-275
2021-12-23 18:03:31.347082,-102
2021-12-23 18:03:31.347092,-130
2021-12-23 18:03:31.347102,-23
2021-12-23 18:03:31.347112,37
2021-12-23 18:03:31.347121,9
2021-12-23 18:03:31.347131,48
2021-12-23 18:03:31.571861,104
2021-12-23 18:03:31.571892,109
2021-12-23 18:03:31.571905,102
2021-12-23 18:03:31.571915,107
2021-12-23 18:03:31.571925,114
2021-12-23 18:03:31.571935,139
2021-12-23 18:03:31.571945,184
2021-12-23 18:03:31.571955,219
2021-12-23 18:03:31.571965,237
2021-12-23 18:03:31.571975,240
2021-12-23 18:03:31.571985,251
2021-12-23 18:03:31.571995,314
2021-12-23 18:03:31.572005,394
2021-12-23 18:03:31.572014,403
2021-12-23 18:03:31.572024,368
2021-12-23 18:03:31.572034,366
2021-12-23 18:03:31.572044,380
2021-12-23 18:03:31.572054,368
2021-12-23 18:03:31.572064,328
2021-12-23 18:03:31.572074,256
2021-12-23 18:03:31.572085,156
2021-12-23 18:03:31.572095,51
2021-12-23 18:03:31.572105,-34
2021-12-23 18:03:31.572115,-69
2021-12-23 18:03:31.572125,-76
2021-12-23 18:03:31.572135,-107
2021-12-23 18:03:31.572145,-137
2021-12-23 18:03:31.572155,-139
2021-12-23 18:03:31.572164,-128
2021-12-23 18:03:31.572174,-116
2021-12-23 18:03:31.795698,-118
2021-12-23 18:03:31.795719,-125
2021-12-23 18:03:31.795727,-109
2021-12-23 18:03:31.795734,-86
2021-12-23 18:03:31.795740,-62
2021-12-23 18:03:31.795747,-48
2021-12-23 18:03:31.795754,-53
2021-12-23 18:03:31.795760,-65
2021-12-23 18:03:31.795767,-67
2021-12-23 18:03:31.795774,-60
2021-12-23 18:03:31.795780,-51
2021-12-23 18:03:31.795787,-27
2021-12-23 18:03:31.795793,-2
2021-12-23 18:03:31.795800,-11
2021-12-23 18:03:31.795807,-34
2021-12-23 18:03:31.795815,-39
2021-12-23 18:03:31.795821,-41
2021-12-23 18:03:31.795828,-37
2021-12-23 18:03:31.795835,-25
2021-12-23 18:03:31.795841,-18
2021-12-23 18:03:31.795848,-37
2021-12-23 18:03:31.795855,-74
2021-12-23 18:03:31.795861,-79
2021-12-23 18:03:31.795868,-67
2021-12-23 18:03:31.795875,-93
2021-12-23 18:03:31.795881,-111
2021-12-23 18:03:31.795888,-90
2021-12-23 18:03:31.795894,-81
2021-12-23 18:03:31.795901,-93
2021-12-23 18:03:31.795908,-97
2021-12-23 18:03:32.064739,-93
2021-12-23 18:03:32.064766,-76
2021-12-23 18:03:32.064774,-46
2021-12-23 18:03:32.064781,-37
2021-12-23 18:03:32.064787,-53
2021-12-23 18:03:32.064794,-46
2021-12-23 18:03:32.064800,-30
2021-12-23 18:03:32.064807,-60
2021-12-23 18:03:32.064813,-88
2021-12-23 18:03:32.064820,-72
2021-12-23 18:03:32.064826,-51
2021-12-23 18:03:32.064833,-39
2021-12-23 18:03:32.064839,-34
2021-12-23 18:03:32.064846,-13
2021-12-23 18:03:32.064852,30
2021-12-23 18:03:32.064859,86
2021-12-23 18:03:32.064865,263
2021-12-23 18:03:32.064872,533
2021-12-23 18:03:32.064878,559
2021-12-23 18:03:32.064885,123
2021-12-23 18:03:32.064891,-491
2021-12-23 18:03:32.064898,-603
2021-12-23 18:03:32.064904,-191
2021-12-23 18:03:32.064910,-6
2021-12-23 18:03:32.064917,-93
2021-12-23 18:03:32.064923,-11
2021-12-23 18:03:32.064930,100
2021-12-23 18:03:32.064936,83
2021-12-23 18:03:32.064943,81
2021-12-23 18:03:32.064949,114
2021-12-23 18:03:32.246679,125
2021-12-23 18:03:32.246710,139
2021-12-23 18:03:32.246722,160
2021-12-23 18:03:32.246732,158
2021-12-23 18:03:32.246742,170
2021-12-23 18:03:32.246752,202
2021-12-23 18:03:32.246762,205
2021-12-23 18:03:32.246772,214
2021-12-23 18:03:32.246782,265
2021-12-23 18:03:32.246791,307
2021-12-23 18:03:32.246801,335
2021-12-23 18:03:32.246811,366
2021-12-23 18:03:32.246821,373
2021-12-23 18:03:32.246831,377
2021-12-23 18:03:32.246840,403
2021-12-23 18:03:32.246850,394
2021-12-23 18:03:32.246860,354
2021-12-23 18:03:32.246870,314
2021-12-23 18:03:32.246879,242
2021-12-23 18:03:32.246889,146
2021-12-23 18:03:32.246899,72
2021-12-23 18:03:32.246909,2
2021-12-23 18:03:32.246919,-60
2021-12-23 18:03:32.246929,-107
2021-12-23 18:03:32.246938,-137
2021-12-23 18:03:32.246948,-179
2021-12-23 18:03:32.246958,-240
2021-12-23 18:03:32.246968,-268
2021-12-23 18:03:32.246978,-237
2021-12-23 18:03:32.246988,-212
2021-12-23 18:03:32.471892,-209
2021-12-23 18:03:32.471923,-179
2021-12-23 18:03:32.471936,-149
2021-12-23 18:03:32.471946,-149
2021-12-23 18:03:32.471956,-149
2021-12-23 18:03:32.471971,-151
2021-12-23 18:03:32.471981,-144
2021-12-23 18:03:32.471991,-97
2021-12-23 18:03:32.472001,-72
2021-12-23 18:03:32.472010,-88
2021-12-23 18:03:32.472020,-90
2021-12-23 18:03:32.472030,-93
2021-12-23 18:03:32.472040,-104
2021-12-23 18:03:32.472049,-81
2021-12-23 18:03:32.472059,-65
2021-12-23 18:03:32.472069,-79
2021-12-23 18:03:32.472079,-81
2021-12-23 18:03:32.472088,-72
2021-12-23 18:03:32.472098,-65
2021-12-23 18:03:32.472108,-51
2021-12-23 18:03:32.472117,-48
2021-12-23 18:03:32.472127,-58
2021-12-23 18:03:32.472137,-60
2021-12-23 18:03:32.472147,-58
2021-12-23 18:03:32.472156,-46
2021-12-23 18:03:32.472166,-25
2021-12-23 18:03:32.472176,-16
2021-12-23 18:03:32.472186,-13
2021-12-23 18:03:32.472195,-27
2021-12-23 18:03:32.472205,-51
2021-12-23 18:03:32.696720,-51
2021-12-23 18:03:32.696752,-51
2021-12-23 18:03:32.696764,-72
2021-12-23 18:03:32.696774,-81
2021-12-23 18:03:32.696784,-86
2021-12-23 18:03:32.696794,-104
2021-12-23 18:03:32.696804,-95
2021-12-23 18:03:32.696814,-62
2021-12-23 18:03:32.696823,-53
2021-12-23 18:03:32.696833,-62
2021-12-23 18:03:32.696843,-67
2021-12-23 18:03:32.696853,-37
2021-12-23 18:03:32.696863,79
2021-12-23 18:03:32.696873,307
2021-12-23 18:03:32.696883,498
2021-12-23 18:03:32.696893,368
2021-12-23 18:03:32.696903,-151
2021-12-23 18:03:32.696913,-655
2021-12-23 18:03:32.696923,-568
2021-12-23 18:03:32.696933,-135
2021-12-23 18:03:32.696943,-18
2021-12-23 18:03:32.696953,-60
2021-12-23 18:03:32.696963,37
2021-12-23 18:03:32.696973,88
2021-12-23 18:03:32.696983,48
2021-12-23 18:03:32.696993,53
2021-12-23 18:03:32.697002,81
2021-12-23 18:03:32.697012,81
2021-12-23 18:03:32.697022,81
2021-12-23 18:03:32.697032,95
2021-12-23 18:03:32.965673,81
2021-12-23 18:03:32.965704,44
2021-12-23 18:03:32.965717,51
2021-12-23 18:03:32.965727,74
2021-12-23 18:03:32.965737,72
2021-12-23 18:03:32.965747,100
2021-12-23 18:03:32.965757,167
2021-12-23 18:03:32.965766,221
2021-12-23 18:03:32.965776,251
2021-12-23 18:03:32.965786,261
2021-12-23 18:03:32.965796,254
2021-12-23 18:03:32.965805,268
2021-12-23 18:03:32.965815,289
2021-12-23 18:03:32.965825,268
2021-12-23 18:03:32.965835,209
2021-12-23 18:03:32.965844,118
2021-12-23 18:03:32.965854,16
2021-12-23 18:03:32.965864,-53
2021-12-23 18:03:32.965874,-102
2021-12-23 18:03:32.965883,-151
2021-12-23 18:03:32.965893,-193
2021-12-23 18:03:32.965903,-233
2021-12-23 18:03:32.965913,-242
2021-12-23 18:03:32.965923,-219
2021-12-23 18:03:32.965932,-198
2021-12-23 18:03:32.965942,-191
2021-12-23 18:03:32.965952,-179
2021-12-23 18:03:32.965962,-179
2021-12-23 18:03:32.965971,-170
2021-12-23 18:03:32.965981,-137
2021-12-23 18:03:33.191750,-111
2021-12-23 18:03:33.191781,-104
2021-12-23 18:03:33.191793,-128
2021-12-23 18:03:33.191803,-170
2021-12-23 18:03:33.191814,-163
2021-12-23 18:03:33.191824,-116
2021-12-23 18:03:33.191834,-95
2021-12-23 18:03:33.191844,-90
2021-12-23 18:03:33.191854,-90
2021-12-23 18:03:33.191864,-111
2021-12-23 18:03:33.191874,-114
2021-12-23 18:03:33.191884,-83
2021-12-23 18:03:33.191894,-69
2021-12-23 18:03:33.191904,-65
2021-12-23 18:03:33.191914,-67
2021-12-23 18:03:33.191924,-86
2021-12-23 18:03:33.191934,-86
2021-12-23 18:03:33.191944,-67
2021-12-23 18:03:33.191954,-58
2021-12-23 18:03:33.191964,-51
2021-12-23 18:03:33.191974,-48
2021-12-23 18:03:33.191984,-55
2021-12-23 18:03:33.191994,-39
2021-12-23 18:03:33.192003,-6
2021-12-23 18:03:33.192013,11
2021-12-23 18:03:33.192024,23
2021-12-23 18:03:33.192034,11
2021-12-23 18:03:33.192044,-20
2021-12-23 18:03:33.192054,-16
2021-12-23 18:03:33.192064,9
2021-12-23 18:03:33.416756,4
2021-12-23 18:03:33.416788,-16
2021-12-23 18:03:33.416801,-25
2021-12-23 18:03:33.416811,-37
2021-12-23 18:03:33.416821,-55
2021-12-23 18:03:33.416831,-53
2021-12-23 18:03:33.416841,-41
2021-12-23 18:03:33.416851,-32
2021-12-23 18:03:33.416861,76
2021-12-23 18:03:33.416870,314
2021-12-23 18:03:33.416880,396
2021-12-23 18:03:33.416890,81
2021-12-23 18:03:33.416900,-475
2021-12-23 18:03:33.416910,-727
2021-12-23 18:03:33.416919,-422
2021-12-23 18:03:33.416929,-135
2021-12-23 18:03:33.416939,-130
2021-12-23 18:03:33.416949,-48
2021-12-23 18:03:33.416959,79
2021-12-23 18:03:33.416968,69
2021-12-23 18:03:33.417011,46
2021-12-23 18:03:33.417021,81
2021-12-23 18:03:33.417031,93
2021-12-23 18:03:33.417040,81
2021-12-23 18:03:33.417050,97
2021-12-23 18:03:33.417060,104
2021-12-23 18:03:33.417069,86
2021-12-23 18:03:33.417079,100
2021-12-23 18:03:33.417089,135
2021-12-23 18:03:33.417099,165
2021-12-23 18:03:33.731275,202
2021-12-23 18:03:33.731306,240
2021-12-23 18:03:33.731319,263
2021-12-23 18:03:33.731329,291
2021-12-23 18:03:33.731339,335
2021-12-23 18:03:33.731349,366
2021-12-23 18:03:33.731358,354
2021-12-23 18:03:33.731368,310
2021-12-23 18:03:33.731378,270
2021-12-23 18:03:33.731388,242
2021-12-23 18:03:33.731398,186
2021-12-23 18:03:33.731407,100
2021-12-23 18:03:33.731417,11
2021-12-23 18:03:33.731427,-83
2021-12-23 18:03:33.731437,-172
2021-12-23 18:03:33.731446,-214
2021-12-23 18:03:33.731456,-226
2021-12-23 18:03:33.731466,-233
2021-12-23 18:03:33.731475,-233
2021-12-23 18:03:33.731485,-230
2021-12-23 18:03:33.731495,-226
2021-12-23 18:03:33.731504,-214
2021-12-23 18:03:33.731514,-195
2021-12-23 18:03:33.731524,-177
2021-12-23 18:03:33.731533,-160
2021-12-23 18:03:33.731543,-146
2021-12-23 18:03:33.731553,-130
2021-12-23 18:03:33.731563,-111
2021-12-23 18:03:33.731572,-93
2021-12-23 18:03:33.731582,-76
2021-12-23 18:03:33.955969,-65
2021-12-23 18:03:33.956000,-60
2021-12-23 18:03:33.956012,-51
2021-12-23 18:03:33.956022,-41
2021-12-23 18:03:33.956032,-32
2021-12-23 18:03:33.956042,-18
2021-12-23 18:03:33.956052,-20
2021-12-23 18:03:33.956061,-39
2021-12-23 18:03:33.956071,-60
2021-12-23 18:03:33.956081,-72
2021-12-23 18:03:33.956090,-62
2021-12-23 18:03:33.956100,-67
2021-12-23 18:03:33.956110,-123
2021-12-23 18:03:33.956119,-163
2021-12-23 18:03:33.956129,-137
2021-12-23 18:03:33.956139,-116
2021-12-23 18:03:33.956148,-121
2021-12-23 18:03:33.956158,-107
2021-12-23 18:03:33.956168,-93
2021-12-23 18:03:33.956178,-86
2021-12-23 18:03:33.956188,-69
2021-12-23 18:03:33.956197,-55
2021-12-23 18:03:33.956207,-32
2021-12-23 18:03:33.956217,-9
2021-12-23 18:03:33.956227,-18
2021-12-23 18:03:33.956236,-41
2021-12-23 18:03:33.956246,-41
2021-12-23 18:03:33.956256,-39
2021-12-23 18:03:33.956265,-34
2021-12-23 18:03:33.956275,-23
2021-12-23 18:03:34.225610,-25
2021-12-23 18:03:34.225641,-37
2021-12-23 18:03:34.225652,-48
2021-12-23 18:03:34.225663,-51
2021-12-23 18:03:34.225673,-41
2021-12-23 18:03:34.225683,-25
2021-12-23 18:03:34.225693,-13
2021-12-23 18:03:34.225703,88
2021-12-23 18:03:34.225713,335
2021-12-23 18:03:34.225723,510
2021-12-23 18:03:34.225732,324
2021-12-23 18:03:34.225742,-223
2021-12-23 18:03:34.225752,-694
2021-12-23 18:03:34.225762,-564
2021-12-23 18:03:34.225772,-149
2021-12-23 18:03:34.225782,-62
2021-12-23 18:03:34.225792,-65
2021-12-23 18:03:34.225802,58
2021-12-23 18:03:34.225812,69
2021-12-23 18:03:34.225822,34
2021-12-23 18:03:34.225832,86
2021-12-23 18:03:34.225842,116
2021-12-23 18:03:34.225852,109
2021-12-23 18:03:34.225861,116
2021-12-23 18:03:34.225871,116
2021-12-23 18:03:34.225881,116
2021-12-23 18:03:34.225891,132
2021-12-23 18:03:34.225901,137
2021-12-23 18:03:34.225911,158
2021-12-23 18:03:34.225920,193
2021-12-23 18:03:34.361789,219
2021-12-23 18:03:34.361820,258
2021-12-23 18:03:34.361833,305
2021-12-23 18:03:34.361843,333
2021-12-23 18:03:34.361853,352
2021-12-23 18:03:34.361863,356
2021-12-23 18:03:34.361873,347
2021-12-23 18:03:34.361883,347
2021-12-23 18:03:34.361893,335
2021-12-23 18:03:34.361903,277
2021-12-23 18:03:34.361913,184
2021-12-23 18:03:34.361923,62
2021-12-23 18:03:34.361933,-53
2021-12-23 18:03:34.361943,-125
2021-12-23 18:03:34.361953,-170
2021-12-23 18:03:34.361963,-212
2021-12-23 18:03:34.361973,-240
2021-12-23 18:03:34.361983,-270
2021-12-23 18:03:34.361993,-293
2021-12-23 18:03:34.362003,-268
2021-12-23 18:03:34.362013,-240
2021-12-23 18:03:34.362023,-237
2021-12-23 18:03:34.362033,-228
2021-12-23 18:03:34.362043,-214
2021-12-23 18:03:34.362053,-198
2021-12-23 18:03:34.362063,-163
2021-12-23 18:03:34.362073,-139
2021-12-23 18:03:34.362083,-137
2021-12-23 18:03:34.362093,-132
2021-12-23 18:03:34.362103,-121
2021-12-23 18:03:34.631310,-95
2021-12-23 18:03:34.631330,-69
2021-12-23 18:03:34.631338,-60
2021-12-23 18:03:34.631345,-62
2021-12-23 18:03:34.631352,-76
2021-12-23 18:03:34.631358,-88
2021-12-23 18:03:34.631365,-72
2021-12-23 18:03:34.631372,-51
2021-12-23 18:03:34.631378,-46
2021-12-23 18:03:34.631385,-51
2021-12-23 18:03:34.631391,-51
2021-12-23 18:03:34.631398,-39
2021-12-23 18:03:34.631404,-23
2021-12-23 18:03:34.631410,-13
2021-12-23 18:03:34.631417,-30
2021-12-23 18:03:34.631423,-60
2021-12-23 18:03:34.631430,-76
2021-12-23 18:03:34.631436,-74
2021-12-23 18:03:34.631443,-58
2021-12-23 18:03:34.631449,-41
2021-12-23 18:03:34.631456,-34
2021-12-23 18:03:34.631463,-44
2021-12-23 18:03:34.631469,-53
2021-12-23 18:03:34.631476,-44
2021-12-23 18:03:34.631482,-20
2021-12-23 18:03:34.631489,0
2021-12-23 18:03:34.631495,16
2021-12-23 18:03:34.631502,27
2021-12-23 18:03:34.631508,37
2021-12-23 18:03:34.631515,46
2021-12-23 18:03:34.766663,51
2021-12-23 18:03:34.766696,44
2021-12-23 18:03:34.766708,41
2021-12-23 18:03:34.766719,20
2021-12-23 18:03:34.766729,-23
2021-12-23 18:03:34.766739,-27
2021-12-23 18:03:34.766749,4
2021-12-23 18:03:34.766759,16
2021-12-23 18:03:34.766768,6
2021-12-23 18:03:34.766778,-4
2021-12-23 18:03:34.766788,-9
2021-12-23 18:03:34.766798,30
2021-12-23 18:03:34.766807,146
2021-12-23 18:03:34.766817,375
2021-12-23 18:03:34.766827,578
2021-12-23 18:03:34.766837,442
2021-12-23 18:03:34.766847,-97
2021-12-23 18:03:34.766856,-622
2021-12-23 18:03:34.766866,-550
2021-12-23 18:03:34.766876,-116
2021-12-23 18:03:34.766886,6
2021-12-23 18:03:34.766896,-34
2021-12-23 18:03:34.766906,53
2021-12-23 18:03:34.766916,86
2021-12-23 18:03:34.766925,53
2021-12-23 18:03:34.766935,90
2021-12-23 18:03:34.766945,109
2021-12-23 18:03:34.766955,79
2021-12-23 18:03:34.766965,79
2021-12-23 18:03:34.766974,100
2021-12-23 18:03:35.036365,109
2021-12-23 18:03:35.036396,132
2021-12-23 18:03:35.036408,149
2021-12-23 18:03:35.036419,128
2021-12-23 18:03:35.036429,135
2021-12-23 18:03:35.036439,200
2021-12-23 18:03:35.036449,251
2021-12-23 18:03:35.036459,282
2021-12-23 18:03:35.036469,305
2021-12-23 18:03:35.036479,310
2021-12-23 18:03:35.036489,319
2021-12-23 18:03:35.036499,347
2021-12-23 18:03:35.036509,352
2021-12-23 18:03:35.036519,331
2021-12-23 18:03:35.036528,286
2021-12-23 18:03:35.036539,202
2021-12-23 18:03:35.036549,114
2021-12-23 18:03:35.036559,46
2021-12-23 18:03:35.036569,-41
2021-12-23 18:03:35.036578,-132
2021-12-23 18:03:35.036588,-181
2021-12-23 18:03:35.036598,-209
2021-12-23 18:03:35.036608,-219
2021-12-23 18:03:35.036618,-207
2021-12-23 18:03:35.036628,-195
2021-12-23 18:03:35.036638,-179
2021-12-23 18:03:35.036648,-174
2021-12-23 18:03:35.036658,-177
2021-12-23 18:03:35.036668,-160
2021-12-23 18:03:35.036678,-130
2021-12-23 18:03:35.261826,-111
2021-12-23 18:03:35.261857,-95
2021-12-23 18:03:35.261870,-86
2021-12-23 18:03:35.261880,-81
2021-12-23 18:03:35.261890,-62
2021-12-23 18:03:35.261900,-32
2021-12-23 18:03:35.261911,-16
2021-12-23 18:03:35.261921,-16
2021-12-23 18:03:35.261931,-44
2021-12-23 18:03:35.261941,-69
2021-12-23 18:03:35.261951,-48
2021-12-23 18:03:35.261961,-20
2021-12-23 18:03:35.261971,-23
2021-12-23 18:03:35.261981,-32
2021-12-23 18:03:35.261991,-53
2021-12-23 18:03:35.262001,-72
2021-12-23 18:03:35.262011,-51
2021-12-23 18:03:35.262021,-18
2021-12-23 18:03:35.262031,-2
2021-12-23 18:03:35.262041,9
2021-12-23 18:03:35.262051,0
2021-12-23 18:03:35.262061,-23
2021-12-23 18:03:35.262071,-11
2021-12-23 18:03:35.262081,9
2021-12-23 18:03:35.262091,11
2021-12-23 18:03:35.262101,11
2021-12-23 18:03:35.262112,6
2021-12-23 18:03:35.262122,-2
2021-12-23 18:03:35.262132,-23
2021-12-23 18:03:35.262142,-44
2021-12-23 18:03:35.486380,-37
2021-12-23 18:03:35.486412,-34
2021-12-23 18:03:35.486424,-44
2021-12-23 18:03:35.486435,-27
2021-12-23 18:03:35.486445,4
2021-12-23 18:03:35.486455,32
2021-12-23 18:03:35.486465,34
2021-12-23 18:03:35.486475,0
2021-12-23 18:03:35.486485,-37
2021-12-23 18:03:35.486495,-39
2021-12-23 18:03:35.486505,-34
2021-12-23 18:03:35.486515,-37
2021-12-23 18:03:35.486525,-34
2021-12-23 18:03:35.486534,-53
2021-12-23 18:03:35.486544,-79
2021-12-23 18:03:35.486554,-69
2021-12-23 18:03:35.486564,-46
2021-12-23 18:03:35.486573,-34
2021-12-23 18:03:35.486583,-16
2021-12-23 18:03:35.486593,-9
2021-12-23 18:03:35.486603,2
2021-12-23 18:03:35.486613,100
2021-12-23 18:03:35.486623,326
2021-12-23 18:03:35.486632,501
2021-12-23 18:03:35.486642,363
2021-12-23 18:03:35.486652,-144
2021-12-23 18:03:35.486662,-627
2021-12-23 18:03:35.486672,-522
2021-12-23 18:03:35.486682,-109
2021-12-23 18:03:35.486691,-23
2021-12-23 18:03:35.711791,-48
2021-12-23 18:03:35.711823,58
2021-12-23 18:03:35.711835,79
2021-12-23 18:03:35.711845,39
2021-12-23 18:03:35.711855,69
2021-12-23 18:03:35.711865,95
2021-12-23 18:03:35.711874,81
2021-12-23 18:03:35.711884,76
2021-12-23 18:03:35.712011,90
2021-12-23 18:03:35.712023,100
2021-12-23 18:03:35.712033,118
2021-12-23 18:03:35.712043,144
2021-12-23 18:03:35.712053,139
2021-12-23 18:03:35.712063,144
2021-12-23 18:03:35.712073,200
2021-12-23 18:03:35.712082,254
2021-12-23 18:03:35.712093,284
2021-12-23 18:03:35.712102,335
2021-12-23 18:03:35.712112,377
2021-12-23 18:03:35.712122,382
2021-12-23 18:03:35.712132,391
2021-12-23 18:03:35.712142,391
2021-12-23 18:03:35.712152,370
2021-12-23 18:03:35.712162,340
2021-12-23 18:03:35.712172,272
2021-12-23 18:03:35.712182,165
2021-12-23 18:03:35.712192,72
2021-12-23 18:03:35.712202,0
2021-12-23 18:03:35.712212,-60
2021-12-23 18:03:35.712222,-102
2021-12-23 18:03:35.981805,-130
2021-12-23 18:03:35.981828,-149
2021-12-23 18:03:35.981836,-144
2021-12-23 18:03:35.981842,-163
2021-12-23 18:03:35.981849,-207
2021-12-23 18:03:35.981855,-223
2021-12-23 18:03:35.981862,-214
2021-12-23 18:03:35.981868,-202
2021-12-23 18:03:35.981874,-179
2021-12-23 18:03:35.981880,-153
2021-12-23 18:03:35.981887,-137
2021-12-23 18:03:35.981893,-125
2021-12-23 18:03:35.981899,-135
2021-12-23 18:03:35.981905,-130
2021-12-23 18:03:35.981912,-107
2021-12-23 18:03:35.981918,-90
2021-12-23 18:03:35.981924,-79
2021-12-23 18:03:35.981930,-67
2021-12-23 18:03:35.981937,-62
2021-12-23 18:03:35.981943,-48
2021-12-23 18:03:35.981949,-34
2021-12-23 18:03:35.981955,-37
2021-12-23 18:03:35.981961,-34
2021-12-23 18:03:35.981968,-27
2021-12-23 18:03:35.981974,-32
2021-12-23 18:03:35.981980,-27
2021-12-23 18:03:35.981986,-20
2021-12-23 18:03:35.981993,-41
2021-12-23 18:03:35.981999,-48
2021-12-23 18:03:35.982005,-30
2021-12-23 18:03:36.205011,-25
2021-12-23 18:03:36.205043,-23
2021-12-23 18:03:36.205055,-9
2021-12-23 18:03:36.205065,-4
2021-12-23 18:03:36.205075,-11
2021-12-23 18:03:36.205085,-37
2021-12-23 18:03:36.205095,-74
2021-12-23 18:03:36.205105,-69
2021-12-23 18:03:36.205115,-51
2021-12-23 18:03:36.205124,-65
2021-12-23 18:03:36.205134,-76
2021-12-23 18:03:36.205144,-72
2021-12-23 18:03:36.205154,-55
2021-12-23 18:03:36.205164,-16
2021-12-23 18:03:36.205174,9
2021-12-23 18:03:36.205183,2
2021-12-23 18:03:36.205193,-4
2021-12-23 18:03:36.205203,-23
2021-12-23 18:03:36.205213,-44
2021-12-23 18:03:36.205223,-37
2021-12-23 18:03:36.205232,-30
2021-12-23 18:03:36.205242,-34
2021-12-23 18:03:36.205252,-34
2021-12-23 18:03:36.205262,-27
2021-12-23 18:03:36.205271,-13
2021-12-23 18:03:36.205281,6
2021-12-23 18:03:36.205291,13
2021-12-23 18:03:36.205301,4
2021-12-23 18:03:36.205311,-6
2021-12-23 18:03:36.205320,4
2021-12-23 18:03:36.431551,123
2021-12-23 18:03:36.431574,377
2021-12-23 18:03:36.431582,529
2021-12-23 18:03:36.431589,279
2021-12-23 18:03:36.431596,-338
2021-12-23 18:03:36.431602,-769
2021-12-23 18:03:36.431609,-533
