Time,ECG
2021-12-23 17:22:54.401545,-356
2021-12-23 17:22:54.401559,-564
2021-12-23 17:22:54.401565,-228
2021-12-23 17:22:54.401570,-27
2021-12-23 17:22:54.401574,-132
2021-12-23 17:22:54.401579,-76
2021-12-23 17:22:54.401583,53
2021-12-23 17:22:54.401588,48
2021-12-23 17:22:54.401592,51
2021-12-23 17:22:54.401597,76
2021-12-23 17:22:54.401601,53
2021-12-23 17:22:54.401606,46
2021-12-23 17:22:54.401611,81
2021-12-23 17:22:54.401615,118
2021-12-23 17:22:54.401620,146
2021-12-23 17:22:54.401624,125
2021-12-23 17:22:54.401629,90
2021-12-23 17:22:54.401633,130
2021-12-23 17:22:54.401638,181
2021-12-23 17:22:54.401642,179
2021-12-23 17:22:54.401647,202
2021-12-23 17:22:54.401651,242
2021-12-23 17:22:54.401656,233
2021-12-23 17:22:54.401660,219
2021-12-23 17:22:54.401665,207
2021-12-23 17:22:54.401669,167
2021-12-23 17:22:54.401674,128
2021-12-23 17:22:54.401679,100
2021-12-23 17:22:54.401683,65
2021-12-23 17:22:54.401687,4
2021-12-23 17:22:54.583214,-72
2021-12-23 17:22:54.583231,-125
2021-12-23 17:22:54.583236,-144
2021-12-23 17:22:54.583241,-163
2021-12-23 17:22:54.583245,-200
2021-12-23 17:22:54.583250,-235
2021-12-23 17:22:54.583255,-226
2021-12-23 17:22:54.583260,-179
2021-12-23 17:22:54.583265,-165
2021-12-23 17:22:54.583269,-207
2021-12-23 17:22:54.583273,-226
2021-12-23 17:22:54.583278,-209
2021-12-23 17:22:54.583282,-207
2021-12-23 17:22:54.583287,-195
2021-12-23 17:22:54.583291,-200
2021-12-23 17:22:54.583296,-242
2021-12-23 17:22:54.583300,-244
2021-12-23 17:22:54.583306,-195
2021-12-23 17:22:54.583310,-149
2021-12-23 17:22:54.583315,-139
2021-12-23 17:22:54.583319,-160
2021-12-23 17:22:54.583324,-181
2021-12-23 17:22:54.583329,-172
2021-12-23 17:22:54.583333,-139
2021-12-23 17:22:54.583338,-116
2021-12-23 17:22:54.583342,-102
2021-12-23 17:22:54.583347,-114
2021-12-23 17:22:54.583351,-137
2021-12-23 17:22:54.583356,-135
2021-12-23 17:22:54.583362,-109
2021-12-23 17:22:54.853228,-97
2021-12-23 17:22:54.853244,-95
2021-12-23 17:22:54.853249,-86
2021-12-23 17:22:54.853254,-81
2021-12-23 17:22:54.853259,-74
2021-12-23 17:22:54.853263,-55
2021-12-23 17:22:54.853268,-48
2021-12-23 17:22:54.853272,-83
2021-12-23 17:22:54.853276,-132
2021-12-23 17:22:54.853281,-153
2021-12-23 17:22:54.853286,-137
2021-12-23 17:22:54.853290,-114
2021-12-23 17:22:54.853294,-104
2021-12-23 17:22:54.853302,-93
2021-12-23 17:22:54.853307,-104
2021-12-23 17:22:54.853312,-130
2021-12-23 17:22:54.853316,-86
2021-12-23 17:22:54.853321,41
2021-12-23 17:22:54.853325,251
2021-12-23 17:22:54.853330,380
2021-12-23 17:22:54.853335,195
2021-12-23 17:22:54.853339,-258
2021-12-23 17:22:54.853344,-617
2021-12-23 17:22:54.853348,-454
2021-12-23 17:22:54.853352,-83
2021-12-23 17:22:54.853357,-27
2021-12-23 17:22:54.853362,-44
2021-12-23 17:22:54.853366,53
2021-12-23 17:22:54.853371,76
2021-12-23 17:22:54.853385,44
2021-12-23 17:22:55.033587,39
2021-12-23 17:22:55.033603,27
2021-12-23 17:22:55.033608,13
2021-12-23 17:22:55.033613,27
2021-12-23 17:22:55.033618,62
2021-12-23 17:22:55.033622,97
2021-12-23 17:22:55.033627,123
2021-12-23 17:22:55.033631,144
2021-12-23 17:22:55.033636,142
2021-12-23 17:22:55.033641,125
2021-12-23 17:22:55.033645,146
2021-12-23 17:22:55.033650,195
2021-12-23 17:22:55.033654,230
2021-12-23 17:22:55.033659,230
2021-12-23 17:22:55.033663,202
2021-12-23 17:22:55.033668,200
2021-12-23 17:22:55.033673,223
2021-12-23 17:22:55.033679,230
2021-12-23 17:22:55.033684,205
2021-12-23 17:22:55.033688,125
2021-12-23 17:22:55.033693,6
2021-12-23 17:22:55.033697,-76
2021-12-23 17:22:55.033702,-107
2021-12-23 17:22:55.033707,-142
2021-12-23 17:22:55.033711,-174
2021-12-23 17:22:55.033715,-181
2021-12-23 17:22:55.033720,-186
2021-12-23 17:22:55.033725,-181
2021-12-23 17:22:55.033729,-172
2021-12-23 17:22:55.033734,-156
2021-12-23 17:22:55.347236,-137
2021-12-23 17:22:55.347251,-139
2021-12-23 17:22:55.347257,-139
2021-12-23 17:22:55.347262,-111
2021-12-23 17:22:55.347266,-102
2021-12-23 17:22:55.347271,-102
2021-12-23 17:22:55.347275,-97
2021-12-23 17:22:55.347284,-118
2021-12-23 17:22:55.347289,-125
2021-12-23 17:22:55.347293,-83
2021-12-23 17:22:55.347298,-88
2021-12-23 17:22:55.347303,-144
2021-12-23 17:22:55.347307,-160
2021-12-23 17:22:55.347312,-172
2021-12-23 17:22:55.347316,-219
2021-12-23 17:22:55.347321,-233
2021-12-23 17:22:55.347325,-195
2021-12-23 17:22:55.347330,-179
2021-12-23 17:22:55.347334,-195
2021-12-23 17:22:55.347339,-198
2021-12-23 17:22:55.347344,-193
2021-12-23 17:22:55.347348,-177
2021-12-23 17:22:55.347353,-142
2021-12-23 17:22:55.347357,-130
2021-12-23 17:22:55.347362,-132
2021-12-23 17:22:55.347366,-107
2021-12-23 17:22:55.347371,-79
2021-12-23 17:22:55.347375,-83
2021-12-23 17:22:55.347380,-88
2021-12-23 17:22:55.347385,-86
2021-12-23 17:22:55.483661,-88
2021-12-23 17:22:55.483676,-88
2021-12-23 17:22:55.483681,-86
2021-12-23 17:22:55.483686,-90
2021-12-23 17:22:55.483690,-90
2021-12-23 17:22:55.483695,-100
2021-12-23 17:22:55.483699,-153
2021-12-23 17:22:55.483704,-188
2021-12-23 17:22:55.483708,-130
2021-12-23 17:22:55.483713,-2
2021-12-23 17:22:55.483717,179
2021-12-23 17:22:55.483722,305
2021-12-23 17:22:55.483726,146
2021-12-23 17:22:55.483731,-296
2021-12-23 17:22:55.483735,-673
2021-12-23 17:22:55.483740,-550
2021-12-23 17:22:55.483744,-146
2021-12-23 17:22:55.483748,-58
2021-12-23 17:22:55.483753,-114
2021-12-23 17:22:55.483757,-6
2021-12-23 17:22:55.483762,44
2021-12-23 17:22:55.483766,9
2021-12-23 17:22:55.483771,32
2021-12-23 17:22:55.483775,76
2021-12-23 17:22:55.483783,67
2021-12-23 17:22:55.483788,51
2021-12-23 17:22:55.483793,76
2021-12-23 17:22:55.483797,109
2021-12-23 17:22:55.483802,128
2021-12-23 17:22:55.483806,137
2021-12-23 17:22:55.798740,149
2021-12-23 17:22:55.798757,174
2021-12-23 17:22:55.798762,193
2021-12-23 17:22:55.798767,188
2021-12-23 17:22:55.798771,226
2021-12-23 17:22:55.798776,256
2021-12-23 17:22:55.798780,223
2021-12-23 17:22:55.798785,228
2021-12-23 17:22:55.798789,261
2021-12-23 17:22:55.798793,244
2021-12-23 17:22:55.798798,207
2021-12-23 17:22:55.798802,149
2021-12-23 17:22:55.798807,67
2021-12-23 17:22:55.798811,13
2021-12-23 17:22:55.798816,-51
2021-12-23 17:22:55.798820,-160
2021-12-23 17:22:55.798824,-219
2021-12-23 17:22:55.798829,-209
2021-12-23 17:22:55.798833,-195
2021-12-23 17:22:55.798838,-184
2021-12-23 17:22:55.798842,-184
2021-12-23 17:22:55.798846,-186
2021-12-23 17:22:55.798853,-165
2021-12-23 17:22:55.798857,-144
2021-12-23 17:22:55.798861,-139
2021-12-23 17:22:55.798866,-130
2021-12-23 17:22:55.798870,-109
2021-12-23 17:22:55.798875,-95
2021-12-23 17:22:55.798879,-95
2021-12-23 17:22:55.798884,-97
2021-12-23 17:22:55.933519,-74
2021-12-23 17:22:55.933535,-37
2021-12-23 17:22:55.933541,-44
2021-12-23 17:22:55.933545,-65
2021-12-23 17:22:55.933550,-72
2021-12-23 17:22:55.933554,-79
2021-12-23 17:22:55.933559,-83
2021-12-23 17:22:55.933563,-107
2021-12-23 17:22:55.933568,-130
2021-12-23 17:22:55.933572,-137
2021-12-23 17:22:55.933577,-158
2021-12-23 17:22:55.933581,-188
2021-12-23 17:22:55.933586,-200
2021-12-23 17:22:55.933590,-177
2021-12-23 17:22:55.933594,-165
2021-12-23 17:22:55.933599,-172
2021-12-23 17:22:55.933603,-167
2021-12-23 17:22:55.933607,-170
2021-12-23 17:22:55.933612,-160
2021-12-23 17:22:55.933616,-130
2021-12-23 17:22:55.933621,-123
2021-12-23 17:22:55.933625,-125
2021-12-23 17:22:55.933630,-114
2021-12-23 17:22:55.933634,-111
2021-12-23 17:22:55.933643,-125
2021-12-23 17:22:55.933648,-121
2021-12-23 17:22:55.933652,-93
2021-12-23 17:22:55.933656,-88
2021-12-23 17:22:55.933661,-116
2021-12-23 17:22:55.933666,-118
2021-12-23 17:22:56.158552,-72
2021-12-23 17:22:56.158567,-46
2021-12-23 17:22:56.158572,-51
2021-12-23 17:22:56.158577,-44
2021-12-23 17:22:56.158581,-37
2021-12-23 17:22:56.158586,37
2021-12-23 17:22:56.158590,251
2021-12-23 17:22:56.158595,370
2021-12-23 17:22:56.158599,123
2021-12-23 17:22:56.158604,-410
2021-12-23 17:22:56.158608,-690
2021-12-23 17:22:56.158613,-347
2021-12-23 17:22:56.158617,4
2021-12-23 17:22:56.158622,-32
2021-12-23 17:22:56.158626,-16
2021-12-23 17:22:56.158631,111
2021-12-23 17:22:56.158635,86
2021-12-23 17:22:56.158640,41
2021-12-23 17:22:56.158645,86
2021-12-23 17:22:56.158649,95
2021-12-23 17:22:56.158654,74
2021-12-23 17:22:56.158658,97
2021-12-23 17:22:56.158663,107
2021-12-23 17:22:56.158667,102
2021-12-23 17:22:56.158672,139
2021-12-23 17:22:56.158676,191
2021-12-23 17:22:56.158681,202
2021-12-23 17:22:56.158685,177
2021-12-23 17:22:56.158690,181
2021-12-23 17:22:56.158694,240
2021-12-23 17:22:56.428547,289
2021-12-23 17:22:56.428563,310
2021-12-23 17:22:56.428568,305
2021-12-23 17:22:56.428573,254
2021-12-23 17:22:56.428577,209
2021-12-23 17:22:56.428582,223
2021-12-23 17:22:56.428587,221
2021-12-23 17:22:56.428591,160
2021-12-23 17:22:56.428596,72
2021-12-23 17:22:56.428600,-37
2021-12-23 17:22:56.428605,-86
2021-12-23 17:22:56.428610,-90
2021-12-23 17:22:56.428614,-132
2021-12-23 17:22:56.428619,-153
2021-12-23 17:22:56.428623,-151
2021-12-23 17:22:56.428628,-193
2021-12-23 17:22:56.428632,-223
2021-12-23 17:22:56.428637,-195
2021-12-23 17:22:56.428641,-165
2021-12-23 17:22:56.428645,-156
2021-12-23 17:22:56.428650,-149
2021-12-23 17:22:56.428654,-153
2021-12-23 17:22:56.428659,-144
2021-12-23 17:22:56.428663,-118
2021-12-23 17:22:56.428668,-111
2021-12-23 17:22:56.428672,-86
2021-12-23 17:22:56.428677,-67
2021-12-23 17:22:56.428682,-90
2021-12-23 17:22:56.428686,-97
2021-12-23 17:22:56.428690,-72
2021-12-23 17:22:56.653211,-69
2021-12-23 17:22:56.653228,-97
2021-12-23 17:22:56.653233,-116
2021-12-23 17:22:56.653238,-130
2021-12-23 17:22:56.653242,-135
2021-12-23 17:22:56.653247,-128
2021-12-23 17:22:56.653251,-121
2021-12-23 17:22:56.653256,-123
2021-12-23 17:22:56.653260,-144
2021-12-23 17:22:56.653265,-167
2021-12-23 17:22:56.653273,-153
2021-12-23 17:22:56.653278,-128
2021-12-23 17:22:56.653283,-128
2021-12-23 17:22:56.653287,-135
2021-12-23 17:22:56.653291,-146
2021-12-23 17:22:56.653296,-158
2021-12-23 17:22:56.653300,-139
2021-12-23 17:22:56.653305,-102
2021-12-23 17:22:56.653309,-79
2021-12-23 17:22:56.653314,-72
2021-12-23 17:22:56.653319,-95
2021-12-23 17:22:56.653323,-121
2021-12-23 17:22:56.653327,-102
2021-12-23 17:22:56.653332,-102
2021-12-23 17:22:56.653336,-125
2021-12-23 17:22:56.653341,-109
2021-12-23 17:22:56.653345,-83
2021-12-23 17:22:56.653350,-93
2021-12-23 17:22:56.653355,-95
2021-12-23 17:22:56.653359,-58
2021-12-23 17:22:56.878619,-37
2021-12-23 17:22:56.878635,-2
2021-12-23 17:22:56.878641,172
2021-12-23 17:22:56.878646,401
2021-12-23 17:22:56.878650,359
2021-12-23 17:22:56.878655,-83
2021-12-23 17:22:56.878659,-552
2021-12-23 17:22:56.878664,-512
2021-12-23 17:22:56.878669,-165
2021-12-23 17:22:56.878673,-76
2021-12-23 17:22:56.878678,-95
2021-12-23 17:22:56.878682,30
2021-12-23 17:22:56.878687,86
2021-12-23 17:22:56.878691,30
2021-12-23 17:22:56.878696,20
2021-12-23 17:22:56.878700,48
2021-12-23 17:22:56.878705,62
2021-12-23 17:22:56.878709,83
2021-12-23 17:22:56.878714,118
2021-12-23 17:22:56.878718,116
2021-12-23 17:22:56.878723,90
2021-12-23 17:22:56.878727,95
2021-12-23 17:22:56.878732,88
2021-12-23 17:22:56.878736,69
2021-12-23 17:22:56.878741,114
2021-12-23 17:22:56.878748,163
2021-12-23 17:22:56.878753,149
2021-12-23 17:22:56.878757,144
2021-12-23 17:22:56.878762,184
2021-12-23 17:22:56.878766,226
2021-12-23 17:22:57.103134,221
2021-12-23 17:22:57.103150,172
2021-12-23 17:22:57.103155,139
2021-12-23 17:22:57.103160,111
2021-12-23 17:22:57.103165,48
2021-12-23 17:22:57.103169,-6
2021-12-23 17:22:57.103174,-55
2021-12-23 17:22:57.103178,-139
2021-12-23 17:22:57.103183,-200
2021-12-23 17:22:57.103187,-200
2021-12-23 17:22:57.103192,-186
2021-12-23 17:22:57.103196,-172
2021-12-23 17:22:57.103201,-170
2021-12-23 17:22:57.103205,-200
2021-12-23 17:22:57.103210,-214
2021-12-23 17:22:57.103214,-177
2021-12-23 17:22:57.103219,-132
2021-12-23 17:22:57.103223,-118
2021-12-23 17:22:57.103228,-116
2021-12-23 17:22:57.103232,-116
2021-12-23 17:22:57.103237,-111
2021-12-23 17:22:57.103241,-86
2021-12-23 17:22:57.103246,-69
2021-12-23 17:22:57.103250,-97
2021-12-23 17:22:57.103255,-132
2021-12-23 17:22:57.103259,-137
2021-12-23 17:22:57.103264,-165
2021-12-23 17:22:57.103268,-202
2021-12-23 17:22:57.103273,-172
2021-12-23 17:22:57.103277,-146
2021-12-23 17:22:57.372302,-174
2021-12-23 17:22:57.372320,-177
2021-12-23 17:22:57.372325,-165
2021-12-23 17:22:57.372330,-172
2021-12-23 17:22:57.372335,-153
2021-12-23 17:22:57.372339,-128
2021-12-23 17:22:57.372344,-160
2021-12-23 17:22:57.372348,-191
2021-12-23 17:22:57.372352,-158
2021-12-23 17:22:57.372357,-146
2021-12-23 17:22:57.372361,-158
2021-12-23 17:22:57.372366,-139
2021-12-23 17:22:57.372371,-146
2021-12-23 17:22:57.372375,-158
2021-12-23 17:22:57.372379,-137
2021-12-23 17:22:57.372384,-132
2021-12-23 17:22:57.372393,-109
2021-12-23 17:22:57.372397,-55
2021-12-23 17:22:57.372402,-60
2021-12-23 17:22:57.372407,-93
2021-12-23 17:22:57.372411,-79
2021-12-23 17:22:57.372416,-58
2021-12-23 17:22:57.372420,-55
2021-12-23 17:22:57.372425,-46
2021-12-23 17:22:57.372429,-46
2021-12-23 17:22:57.372434,-51
2021-12-23 17:22:57.372438,-48
2021-12-23 17:22:57.372443,-81
2021-12-23 17:22:57.372447,-142
2021-12-23 17:22:57.372452,-151
2021-12-23 17:22:57.553260,-107
2021-12-23 17:22:57.553277,65
2021-12-23 17:22:57.553283,347
2021-12-23 17:22:57.553288,398
2021-12-23 17:22:57.553292,13
2021-12-23 17:22:57.553297,-519
2021-12-23 17:22:57.553301,-624
2021-12-23 17:22:57.553306,-256
2021-12-23 17:22:57.553310,-69
2021-12-23 17:22:57.553315,-121
2021-12-23 17:22:57.553319,-23
2021-12-23 17:22:57.553323,46
2021-12-23 17:22:57.553328,-23
2021-12-23 17:22:57.553332,-2
2021-12-23 17:22:57.553337,72
2021-12-23 17:22:57.553341,67
2021-12-23 17:22:57.553346,60
2021-12-23 17:22:57.553350,88
2021-12-23 17:22:57.553355,109
2021-12-23 17:22:57.553359,123
2021-12-23 17:22:57.553364,146
2021-12-23 17:22:57.553368,167
2021-12-23 17:22:57.553372,167
2021-12-23 17:22:57.553377,160
2021-12-23 17:22:57.553381,181
2021-12-23 17:22:57.553386,223
2021-12-23 17:22:57.553390,254
2021-12-23 17:22:57.553395,268
2021-12-23 17:22:57.553399,275
2021-12-23 17:22:57.553403,268
2021-12-23 17:22:57.778164,233
2021-12-23 17:22:57.778181,186
2021-12-23 17:22:57.778186,146
2021-12-23 17:22:57.778191,111
2021-12-23 17:22:57.778196,46
2021-12-23 17:22:57.778200,-37
2021-12-23 17:22:57.778205,-74
2021-12-23 17:22:57.778209,-86
2021-12-23 17:22:57.778213,-130
2021-12-23 17:22:57.778218,-163
2021-12-23 17:22:57.778222,-179
2021-12-23 17:22:57.778227,-186
2021-12-23 17:22:57.778231,-160
2021-12-23 17:22:57.778238,-139
2021-12-23 17:22:57.778243,-128
2021-12-23 17:22:57.778247,-121
2021-12-23 17:22:57.778252,-149
2021-12-23 17:22:57.778256,-156
2021-12-23 17:22:57.778261,-130
2021-12-23 17:22:57.778265,-123
2021-12-23 17:22:57.778270,-121
2021-12-23 17:22:57.778274,-109
2021-12-23 17:22:57.778279,-118
2021-12-23 17:22:57.778283,-125
2021-12-23 17:22:57.778287,-95
2021-12-23 17:22:57.778292,-74
2021-12-23 17:22:57.778296,-88
2021-12-23 17:22:57.778301,-95
2021-12-23 17:22:57.778306,-72
2021-12-23 17:22:57.778310,-51
2021-12-23 17:22:58.003693,-37
2021-12-23 17:22:58.003711,-41
2021-12-23 17:22:58.003716,-53
2021-12-23 17:22:58.003721,-100
2021-12-23 17:22:58.003725,-186
2021-12-23 17:22:58.003730,-186
2021-12-23 17:22:58.003734,-111
2021-12-23 17:22:58.003739,-90
2021-12-23 17:22:58.003744,-109
2021-12-23 17:22:58.003748,-128
2021-12-23 17:22:58.003753,-163
2021-12-23 17:22:58.003757,-149
2021-12-23 17:22:58.003761,-79
2021-12-23 17:22:58.003766,-46
2021-12-23 17:22:58.003770,-51
2021-12-23 17:22:58.003775,-46
2021-12-23 17:22:58.003779,-32
2021-12-23 17:22:58.003784,-13
2021-12-23 17:22:58.003788,-13
2021-12-23 17:22:58.003793,-23
2021-12-23 17:22:58.003797,-6
2021-12-23 17:22:58.003802,-6
2021-12-23 17:22:58.003806,-32
2021-12-23 17:22:58.003810,-18
2021-12-23 17:22:58.003815,23
2021-12-23 17:22:58.003819,44
2021-12-23 17:22:58.003824,48
2021-12-23 17:22:58.003828,39
2021-12-23 17:22:58.003833,41
2021-12-23 17:22:58.003837,167
2021-12-23 17:22:58.318568,433
2021-12-23 17:22:58.318583,561
2021-12-23 17:22:58.318588,244
2021-12-23 17:22:58.318593,-387
2021-12-23 17:22:58.318598,-624
2021-12-23 17:22:58.318602,-240
2021-12-23 17:22:58.318607,11
2021-12-23 17:22:58.318611,-48
2021-12-23 17:22:58.318616,16
2021-12-23 17:22:58.318620,83
2021-12-23 17:22:58.318625,25
2021-12-23 17:22:58.318629,51
2021-12-23 17:22:58.318633,125
2021-12-23 17:22:58.318638,111
2021-12-23 17:22:58.318642,81
2021-12-23 17:22:58.318647,79
2021-12-23 17:22:58.318651,102
2021-12-23 17:22:58.318658,149
2021-12-23 17:22:58.318663,165
2021-12-23 17:22:58.318667,170
2021-12-23 17:22:58.318672,198
2021-12-23 17:22:58.318676,200
2021-12-23 17:22:58.318681,219
2021-12-23 17:22:58.318685,284
2021-12-23 17:22:58.318690,317
2021-12-23 17:22:58.318694,310
2021-12-23 17:22:58.318699,314
2021-12-23 17:22:58.318703,305
2021-12-23 17:22:58.318708,286
2021-12-23 17:22:58.318713,279
2021-12-23 17:22:58.498150,256
2021-12-23 17:22:58.498165,216
2021-12-23 17:22:58.498171,163
2021-12-23 17:22:58.498175,81
2021-12-23 17:22:58.498180,11
2021-12-23 17:22:58.498184,-48
2021-12-23 17:22:58.498189,-102
2021-12-23 17:22:58.498194,-144
2021-12-23 17:22:58.498198,-193
2021-12-23 17:22:58.498203,-244
2021-12-23 17:22:58.498207,-258
2021-12-23 17:22:58.498212,-235
2021-12-23 17:22:58.498216,-219
2021-12-23 17:22:58.498221,-202
2021-12-23 17:22:58.498225,-179
2021-12-23 17:22:58.498230,-198
2021-12-23 17:22:58.498234,-205
2021-12-23 17:22:58.498239,-149
2021-12-23 17:22:58.498244,-104
2021-12-23 17:22:58.498248,-114
2021-12-23 17:22:58.498253,-146
2021-12-23 17:22:58.498257,-153
2021-12-23 17:22:58.498262,-123
2021-12-23 17:22:58.498266,-97
2021-12-23 17:22:58.498270,-97
2021-12-23 17:22:58.498275,-83
2021-12-23 17:22:58.498279,-69
2021-12-23 17:22:58.498284,-95
2021-12-23 17:22:58.498288,-104
2021-12-23 17:22:58.498293,-72
2021-12-23 17:22:58.723250,-39
2021-12-23 17:22:58.723267,-32
2021-12-23 17:22:58.723272,-67
2021-12-23 17:22:58.723277,-93
2021-12-23 17:22:58.723281,-60
2021-12-23 17:22:58.723286,-4
2021-12-23 17:22:58.723290,9
2021-12-23 17:22:58.723295,-23
2021-12-23 17:22:58.723299,-69
2021-12-23 17:22:58.723304,-104
2021-12-23 17:22:58.723308,-93
2021-12-23 17:22:58.723313,-44
2021-12-23 17:22:58.723317,-30
2021-12-23 17:22:58.723322,-67
2021-12-23 17:22:58.723326,-100
2021-12-23 17:22:58.723330,-86
2021-12-23 17:22:58.723335,-65
2021-12-23 17:22:58.723340,-51
2021-12-23 17:22:58.723344,-30
2021-12-23 17:22:58.723349,-18
2021-12-23 17:22:58.723353,-30
2021-12-23 17:22:58.723357,-23
2021-12-23 17:22:58.723362,4
2021-12-23 17:22:58.723366,34
2021-12-23 17:22:58.723371,128
2021-12-23 17:22:58.723375,321
2021-12-23 17:22:58.723380,431
2021-12-23 17:22:58.723384,177
2021-12-23 17:22:58.723388,-359
2021-12-23 17:22:58.723395,-564
2021-12-23 17:22:58.993560,-212
2021-12-23 17:22:58.993576,41
2021-12-23 17:22:58.993581,-9
2021-12-23 17:22:58.993586,32
2021-12-23 17:22:58.993590,125
2021-12-23 17:22:58.993595,109
2021-12-23 17:22:58.993599,83
2021-12-23 17:22:58.993604,69
2021-12-23 17:22:58.993608,55
2021-12-23 17:22:58.993612,88
2021-12-23 17:22:58.993617,111
2021-12-23 17:22:58.993621,83
2021-12-23 17:22:58.993626,60
2021-12-23 17:22:58.993630,53
2021-12-23 17:22:58.993634,67
2021-12-23 17:22:58.993639,72
2021-12-23 17:22:58.993643,48
2021-12-23 17:22:58.993648,74
2021-12-23 17:22:58.993652,130
2021-12-23 17:22:58.993657,149
2021-12-23 17:22:58.993661,177
2021-12-23 17:22:58.993666,207
2021-12-23 17:22:58.993670,207
2021-12-23 17:22:58.993674,205
2021-12-23 17:22:58.993679,184
2021-12-23 17:22:58.993683,142
2021-12-23 17:22:58.993688,93
2021-12-23 17:22:58.993692,6
2021-12-23 17:22:58.993696,-74
2021-12-23 17:22:58.993701,-114
2021-12-23 17:22:59.173180,-167
2021-12-23 17:22:59.173196,-228
2021-12-23 17:22:59.173201,-235
2021-12-23 17:22:59.173206,-230
2021-12-23 17:22:59.173210,-242
2021-12-23 17:22:59.173215,-233
2021-12-23 17:22:59.173219,-214
2021-12-23 17:22:59.173224,-212
2021-12-23 17:22:59.173228,-200
2021-12-23 17:22:59.173233,-188
2021-12-23 17:22:59.173237,-181
2021-12-23 17:22:59.173241,-139
2021-12-23 17:22:59.173246,-109
2021-12-23 17:22:59.173250,-130
2021-12-23 17:22:59.173255,-153
2021-12-23 17:22:59.173259,-139
2021-12-23 17:22:59.173264,-111
2021-12-23 17:22:59.173268,-107
2021-12-23 17:22:59.173272,-135
2021-12-23 17:22:59.173277,-146
2021-12-23 17:22:59.173282,-114
2021-12-23 17:22:59.173286,-97
2021-12-23 17:22:59.173290,-102
2021-12-23 17:22:59.173295,-97
2021-12-23 17:22:59.173299,-88
2021-12-23 17:22:59.173304,-74
2021-12-23 17:22:59.173308,-69
2021-12-23 17:22:59.173313,-81
2021-12-23 17:22:59.173317,-81
2021-12-23 17:22:59.173322,-69
2021-12-23 17:22:59.487356,-60
2021-12-23 17:22:59.487372,-55
2021-12-23 17:22:59.487378,-44
2021-12-23 17:22:59.487383,-39
2021-12-23 17:22:59.487387,-41
2021-12-23 17:22:59.487392,-27
2021-12-23 17:22:59.487396,-25
2021-12-23 17:22:59.487401,-46
2021-12-23 17:22:59.487405,-51
2021-12-23 17:22:59.487410,-39
2021-12-23 17:22:59.487414,-27
2021-12-23 17:22:59.487419,-44
2021-12-23 17:22:59.487423,-74
2021-12-23 17:22:59.487428,-51
2021-12-23 17:22:59.487433,-32
2021-12-23 17:22:59.487437,-72
2021-12-23 17:22:59.487442,-97
2021-12-23 17:22:59.487446,-83
2021-12-23 17:22:59.487451,-55
2021-12-23 17:22:59.487455,62
2021-12-23 17:22:59.487462,298
2021-12-23 17:22:59.487467,438
2021-12-23 17:22:59.487471,256
2021-12-23 17:22:59.487476,-244
2021-12-23 17:22:59.487481,-636
2021-12-23 17:22:59.487485,-452
2021-12-23 17:22:59.487490,-109
2021-12-23 17:22:59.487494,-121
2021-12-23 17:22:59.487499,-146
2021-12-23 17:22:59.487503,2
2021-12-23 17:22:59.668190,44
2021-12-23 17:22:59.668206,4
2021-12-23 17:22:59.668212,34
2021-12-23 17:22:59.668216,67
2021-12-23 17:22:59.668221,48
2021-12-23 17:22:59.668225,6
2021-12-23 17:22:59.668230,11
2021-12-23 17:22:59.668234,74
2021-12-23 17:22:59.668238,104
2021-12-23 17:22:59.668243,100
2021-12-23 17:22:59.668247,104
2021-12-23 17:22:59.668252,100
2021-12-23 17:22:59.668256,111
2021-12-23 17:22:59.668261,174
2021-12-23 17:22:59.668265,223
2021-12-23 17:22:59.668270,226
2021-12-23 17:22:59.668274,221
2021-12-23 17:22:59.668279,223
2021-12-23 17:22:59.668283,207
2021-12-23 17:22:59.668288,174
2021-12-23 17:22:59.668292,128
2021-12-23 17:22:59.668297,60
2021-12-23 17:22:59.668301,-27
2021-12-23 17:22:59.668306,-109
2021-12-23 17:22:59.668310,-156
2021-12-23 17:22:59.668314,-177
2021-12-23 17:22:59.668319,-195
2021-12-23 17:22:59.668323,-228
2021-12-23 17:22:59.668328,-261
2021-12-23 17:22:59.668332,-265
2021-12-23 17:22:59.848617,-237
2021-12-23 17:22:59.848632,-181
2021-12-23 17:22:59.848637,-149
2021-12-23 17:22:59.848642,-181
2021-12-23 17:22:59.848646,-233
2021-12-23 17:22:59.848651,-237
2021-12-23 17:22:59.848655,-195
2021-12-23 17:22:59.848660,-153
2021-12-23 17:22:59.848665,-144
2021-12-23 17:22:59.848669,-146
2021-12-23 17:22:59.848674,-128
2021-12-23 17:22:59.848678,-102
2021-12-23 17:22:59.848683,-95
2021-12-23 17:22:59.848687,-93
2021-12-23 17:22:59.848692,-88
2021-12-23 17:22:59.848696,-107
2021-12-23 17:22:59.848701,-142
2021-12-23 17:22:59.848706,-132
2021-12-23 17:22:59.848710,-102
2021-12-23 17:22:59.848715,-125
2021-12-23 17:22:59.848719,-144
2021-12-23 17:22:59.848724,-130
2021-12-23 17:22:59.848728,-132
2021-12-23 17:22:59.848733,-130
2021-12-23 17:22:59.848737,-107
2021-12-23 17:22:59.848742,-104
2021-12-23 17:22:59.848746,-121
2021-12-23 17:22:59.848751,-146
2021-12-23 17:22:59.848755,-153
2021-12-23 17:22:59.848760,-116
2021-12-23 17:23:00.118631,-79
2021-12-23 17:23:00.118652,-67
2021-12-23 17:23:00.118662,-76
2021-12-23 17:23:00.118670,-114
2021-12-23 17:23:00.118679,-135
2021-12-23 17:23:00.118687,-109
2021-12-23 17:23:00.118695,-86
2021-12-23 17:23:00.118703,-81
2021-12-23 17:23:00.118711,-76
2021-12-23 17:23:00.118719,-97
2021-12-23 17:23:00.118728,-123
2021-12-23 17:23:00.118736,-107
2021-12-23 17:23:00.118744,-74
2021-12-23 17:23:00.118752,-60
2021-12-23 17:23:00.118760,-9
2021-12-23 17:23:00.118767,188
2021-12-23 17:23:00.118774,459
2021-12-23 17:23:00.118779,480
2021-12-23 17:23:00.118784,100
2021-12-23 17:23:00.118788,-431
2021-12-23 17:23:00.118793,-554
2021-12-23 17:23:00.118797,-226
2021-12-23 17:23:00.118805,-86
2021-12-23 17:23:00.118809,-146
2021-12-23 17:23:00.118814,-51
2021-12-23 17:23:00.118818,27
2021-12-23 17:23:00.118823,13
2021-12-23 17:23:00.118828,23
2021-12-23 17:23:00.118832,34
2021-12-23 17:23:00.118837,32
2021-12-23 17:23:00.343145,55
2021-12-23 17:23:00.343161,104
2021-12-23 17:23:00.343166,93
2021-12-23 17:23:00.343171,37
2021-12-23 17:23:00.343175,72
2021-12-23 17:23:00.343180,179
2021-12-23 17:23:00.343184,207
2021-12-23 17:23:00.343189,158
2021-12-23 17:23:00.343193,149
2021-12-23 17:23:00.343198,177
2021-12-23 17:23:00.343202,212
2021-12-23 17:23:00.343207,242
2021-12-23 17:23:00.343211,242
2021-12-23 17:23:00.343216,258
2021-12-23 17:23:00.343220,219
2021-12-23 17:23:00.343225,69
2021-12-23 17:23:00.343229,11
2021-12-23 17:23:00.343233,100
2021-12-23 17:23:00.343238,69
2021-12-23 17:23:00.343242,-102
2021-12-23 17:23:00.343247,-184
2021-12-23 17:23:00.343251,-191
2021-12-23 17:23:00.343256,-268
2021-12-23 17:23:00.343260,-319
2021-12-23 17:23:00.343265,-256
2021-12-23 17:23:00.343269,-223
2021-12-23 17:23:00.343274,-277
2021-12-23 17:23:00.343278,-286
2021-12-23 17:23:00.343282,-254
2021-12-23 17:23:00.343287,-261
2021-12-23 17:23:00.568203,-265
2021-12-23 17:23:00.568220,-212
2021-12-23 17:23:00.568225,-186
2021-12-23 17:23:00.568230,-254
2021-12-23 17:23:00.568235,-310
2021-12-23 17:23:00.568239,-242
2021-12-23 17:23:00.568244,-144
2021-12-23 17:23:00.568249,-151
2021-12-23 17:23:00.568253,-209
2021-12-23 17:23:00.568258,-216
2021-12-23 17:23:00.568262,-191
2021-12-23 17:23:00.568266,-172
2021-12-23 17:23:00.568271,-156
2021-12-23 17:23:00.568275,-179
2021-12-23 17:23:00.568280,-230
2021-12-23 17:23:00.568285,-179
2021-12-23 17:23:00.568289,-102
2021-12-23 17:23:00.568294,-125
2021-12-23 17:23:00.568298,-139
2021-12-23 17:23:00.568303,-111
2021-12-23 17:23:00.568307,-128
2021-12-23 17:23:00.568312,-165
2021-12-23 17:23:00.568317,-151
2021-12-23 17:23:00.568321,-74
2021-12-23 17:23:00.568325,-27
2021-12-23 17:23:00.568330,-102
2021-12-23 17:23:00.568334,-177
2021-12-23 17:23:00.568339,-104
2021-12-23 17:23:00.568344,0
2021-12-23 17:23:00.568348,-6
2021-12-23 17:23:00.793498,-44
2021-12-23 17:23:00.793513,-34
2021-12-23 17:23:00.793519,-48
2021-12-23 17:23:00.793524,-74
2021-12-23 17:23:00.793528,-51
2021-12-23 17:23:00.793533,-32
2021-12-23 17:23:00.793537,-51
2021-12-23 17:23:00.793542,-74
2021-12-23 17:23:00.793546,-90
2021-12-23 17:23:00.793551,-53
2021-12-23 17:23:00.793555,18
2021-12-23 17:23:00.793560,86
2021-12-23 17:23:00.793564,249
2021-12-23 17:23:00.793569,456
2021-12-23 17:23:00.793574,449
2021-12-23 17:23:00.793578,104
2021-12-23 17:23:00.793583,-398
2021-12-23 17:23:00.793587,-540
2021-12-23 17:23:00.793592,-209
2021-12-23 17:23:00.793596,-37
2021-12-23 17:23:00.793601,-93
2021-12-23 17:23:00.793605,-9
2021-12-23 17:23:00.793610,72
2021-12-23 17:23:00.793614,30
2021-12-23 17:23:00.793619,18
2021-12-23 17:23:00.793623,41
2021-12-23 17:23:00.793628,58
2021-12-23 17:23:00.793632,51
2021-12-23 17:23:00.793637,20
2021-12-23 17:23:00.793641,69
2021-12-23 17:23:01.018112,121
2021-12-23 17:23:01.018130,95
2021-12-23 17:23:01.018135,104
2021-12-23 17:23:01.018140,172
2021-12-23 17:23:01.018145,209
2021-12-23 17:23:01.018152,209
2021-12-23 17:23:01.018156,221
2021-12-23 17:23:01.018161,233
2021-12-23 17:23:01.018165,216
2021-12-23 17:23:01.018170,193
2021-12-23 17:23:01.018174,202
2021-12-23 17:23:01.018179,205
2021-12-23 17:23:01.018184,121
2021-12-23 17:23:01.018188,23
2021-12-23 17:23:01.018193,-13
2021-12-23 17:23:01.018197,-69
2021-12-23 17:23:01.018202,-137
2021-12-23 17:23:01.018206,-160
2021-12-23 17:23:01.018211,-198
2021-12-23 17:23:01.018215,-256
2021-12-23 17:23:01.018220,-261
2021-12-23 17:23:01.018225,-233
2021-12-23 17:23:01.018229,-230
2021-12-23 17:23:01.018234,-242
2021-12-23 17:23:01.018238,-219
2021-12-23 17:23:01.018242,-165
2021-12-23 17:23:01.018247,-149
2021-12-23 17:23:01.018251,-174
2021-12-23 17:23:01.018256,-151
2021-12-23 17:23:01.018260,-125
2021-12-23 17:23:01.243575,-146
2021-12-23 17:23:01.243592,-130
2021-12-23 17:23:01.243598,-79
2021-12-23 17:23:01.243603,-67
2021-12-23 17:23:01.243607,-74
2021-12-23 17:23:01.243612,-88
2021-12-23 17:23:01.243616,-100
2021-12-23 17:23:01.243621,-58
2021-12-23 17:23:01.243625,-25
2021-12-23 17:23:01.243630,-62
2021-12-23 17:23:01.243634,-100
2021-12-23 17:23:01.243639,-104
2021-12-23 17:23:01.243643,-95
2021-12-23 17:23:01.243648,-67
2021-12-23 17:23:01.243653,-60
2021-12-23 17:23:01.243657,-62
2021-12-23 17:23:01.243662,-39
2021-12-23 17:23:01.243666,-27
2021-12-23 17:23:01.243671,-41
2021-12-23 17:23:01.243675,-30
2021-12-23 17:23:01.243680,16
2021-12-23 17:23:01.243684,20
2021-12-23 17:23:01.243689,-16
2021-12-23 17:23:01.243694,-2
2021-12-23 17:23:01.243698,30
2021-12-23 17:23:01.243703,23
2021-12-23 17:23:01.243707,48
2021-12-23 17:23:01.243712,88
2021-12-23 17:23:01.243716,79
2021-12-23 17:23:01.243721,69
2021-12-23 17:23:01.512189,67
2021-12-23 17:23:01.512204,25
2021-12-23 17:23:01.512209,-9
2021-12-23 17:23:01.512214,13
2021-12-23 17:23:01.512218,16
2021-12-23 17:23:01.512223,-11
2021-12-23 17:23:01.512228,2
2021-12-23 17:23:01.512232,32
2021-12-23 17:23:01.512237,41
2021-12-23 17:23:01.512241,46
2021-12-23 17:23:01.512245,51
2021-12-23 17:23:01.512250,191
2021-12-23 17:23:01.512254,475
2021-12-23 17:23:01.512259,538
2021-12-23 17:23:01.512263,135
2021-12-23 17:23:01.512268,-461
2021-12-23 17:23:01.512272,-578
2021-12-23 17:23:01.512277,-181
2021-12-23 17:23:01.512281,-32
2021-12-23 17:23:01.512286,-107
2021-12-23 17:23:01.512290,4
2021-12-23 17:23:01.512294,79
2021-12-23 17:23:01.512299,27
2021-12-23 17:23:01.512303,58
2021-12-23 17:23:01.512308,111
2021-12-23 17:23:01.512312,109
2021-12-23 17:23:01.512316,128
2021-12-23 17:23:01.512321,151
2021-12-23 17:23:01.512326,146
2021-12-23 17:23:01.512331,167
2021-12-23 17:23:01.693125,195
2021-12-23 17:23:01.693142,191
2021-12-23 17:23:01.693147,214
2021-12-23 17:23:01.693152,214
2021-12-23 17:23:01.693157,163
2021-12-23 17:23:01.693161,209
2021-12-23 17:23:01.693166,310
2021-12-23 17:23:01.693170,317
2021-12-23 17:23:01.693175,307
2021-12-23 17:23:01.693179,321
2021-12-23 17:23:01.693184,261
2021-12-23 17:23:01.693188,165
2021-12-23 17:23:01.693193,137
2021-12-23 17:23:01.693197,116
2021-12-23 17:23:01.693202,20
2021-12-23 17:23:01.693206,-81
2021-12-23 17:23:01.693211,-125
2021-12-23 17:23:01.693215,-130
2021-12-23 17:23:01.693220,-156
2021-12-23 17:23:01.693224,-188
2021-12-23 17:23:01.693229,-184
2021-12-23 17:23:01.693233,-177
2021-12-23 17:23:01.693238,-202
2021-12-23 17:23:01.693242,-191
2021-12-23 17:23:01.693247,-142
2021-12-23 17:23:01.693251,-109
2021-12-23 17:23:01.693256,-93
2021-12-23 17:23:01.693260,-90
2021-12-23 17:23:01.693265,-83
2021-12-23 17:23:01.693269,-55
2021-12-23 17:23:01.963597,-23
2021-12-23 17:23:01.963622,-23
2021-12-23 17:23:01.963628,-44
2021-12-23 17:23:01.963632,-67
2021-12-23 17:23:01.963637,-95
2021-12-23 17:23:01.963642,-102
2021-12-23 17:23:01.963646,-95
2021-12-23 17:23:01.963651,-81
2021-12-23 17:23:01.963655,-65
2021-12-23 17:23:01.963660,-79
2021-12-23 17:23:01.963664,-95
2021-12-23 17:23:01.963669,-81
2021-12-23 17:23:01.963673,-48
2021-12-23 17:23:01.963678,-32
2021-12-23 17:23:01.963682,-69
2021-12-23 17:23:01.963687,-88
2021-12-23 17:23:01.963691,-41
2021-12-23 17:23:01.963696,-27
2021-12-23 17:23:01.963700,-55
2021-12-23 17:23:01.963705,-41
2021-12-23 17:23:01.963709,-48
2021-12-23 17:23:01.963714,-95
2021-12-23 17:23:01.963718,-69
2021-12-23 17:23:01.963723,-13
2021-12-23 17:23:01.963727,-32
2021-12-23 17:23:01.963731,-46
2021-12-23 17:23:01.963736,-4
2021-12-23 17:23:01.963740,-11
2021-12-23 17:23:01.963745,-53
2021-12-23 17:23:01.963749,-37
2021-12-23 17:23:02.188805,6
2021-12-23 17:23:02.188825,30
2021-12-23 17:23:02.188830,18
2021-12-23 17:23:02.188835,-6
2021-12-23 17:23:02.188839,2
2021-12-23 17:23:02.188844,65
2021-12-23 17:23:02.188848,191
2021-12-23 17:23:02.188853,370
2021-12-23 17:23:02.188857,456
2021-12-23 17:23:02.188862,249
2021-12-23 17:23:02.188866,-279
2021-12-23 17:23:02.188871,-617
2021-12-23 17:23:02.188875,-328
2021-12-23 17:23:02.188880,2
2021-12-23 17:23:02.188885,-58
2021-12-23 17:23:02.188889,-79
2021-12-23 17:23:02.188894,34
2021-12-23 17:23:02.188898,46
2021-12-23 17:23:02.188903,32
2021-12-23 17:23:02.188907,60
2021-12-23 17:23:02.188912,44
2021-12-23 17:23:02.188916,34
2021-12-23 17:23:02.188921,86
2021-12-23 17:23:02.188925,128
2021-12-23 17:23:02.188930,137
2021-12-23 17:23:02.188934,146
2021-12-23 17:23:02.188938,151
2021-12-23 17:23:02.188943,158
2021-12-23 17:23:02.188947,191
2021-12-23 17:23:02.188952,240
2021-12-23 17:23:02.457903,284
2021-12-23 17:23:02.457919,303
2021-12-23 17:23:02.457925,298
2021-12-23 17:23:02.457930,298
2021-12-23 17:23:02.457934,305
2021-12-23 17:23:02.457939,300
2021-12-23 17:23:02.457943,284
2021-12-23 17:23:02.457948,240
2021-12-23 17:23:02.457952,142
2021-12-23 17:23:02.457957,16
2021-12-23 17:23:02.457961,-76
2021-12-23 17:23:02.457966,-139
2021-12-23 17:23:02.457970,-181
2021-12-23 17:23:02.457975,-233
2021-12-23 17:23:02.457979,-298
2021-12-23 17:23:02.457984,-300
2021-12-23 17:23:02.457989,-263
2021-12-23 17:23:02.457993,-258
2021-12-23 17:23:02.457998,-240
2021-12-23 17:23:02.458002,-209
2021-12-23 17:23:02.458007,-207
2021-12-23 17:23:02.458011,-193
2021-12-23 17:23:02.458016,-163
2021-12-23 17:23:02.458020,-137
2021-12-23 17:23:02.458025,-146
2021-12-23 17:23:02.458029,-191
2021-12-23 17:23:02.458034,-198
2021-12-23 17:23:02.458038,-163
2021-12-23 17:23:02.458043,-132
2021-12-23 17:23:02.458047,-109
2021-12-23 17:23:02.683563,-95
2021-12-23 17:23:02.683580,-90
2021-12-23 17:23:02.683585,-100
2021-12-23 17:23:02.683590,-95
2021-12-23 17:23:02.683595,-74
2021-12-23 17:23:02.683599,-79
2021-12-23 17:23:02.683604,-100
2021-12-23 17:23:02.683608,-111
2021-12-23 17:23:02.683613,-104
2021-12-23 17:23:02.683618,-79
2021-12-23 17:23:02.683622,-72
2021-12-23 17:23:02.683627,-88
2021-12-23 17:23:02.683631,-130
2021-12-23 17:23:02.683636,-181
2021-12-23 17:23:02.683640,-170
2021-12-23 17:23:02.683645,-123
2021-12-23 17:23:02.683649,-109
2021-12-23 17:23:02.683654,-102
2021-12-23 17:23:02.683658,-72
2021-12-23 17:23:02.683663,-48
2021-12-23 17:23:02.683667,-44
2021-12-23 17:23:02.683672,-53
2021-12-23 17:23:02.683676,-67
2021-12-23 17:23:02.683681,-55
2021-12-23 17:23:02.683685,-44
2021-12-23 17:23:02.683690,-53
2021-12-23 17:23:02.683694,-48
2021-12-23 17:23:02.683699,-30
2021-12-23 17:23:02.683703,-25
2021-12-23 17:23:02.683708,-27
2021-12-23 17:23:02.863097,-25
2021-12-23 17:23:02.863114,-9
2021-12-23 17:23:02.863119,69
2021-12-23 17:23:02.863124,270
2021-12-23 17:23:02.863129,505
2021-12-23 17:23:02.863133,540
2021-12-23 17:23:02.863138,184
2021-12-23 17:23:02.863142,-415
2021-12-23 17:23:02.863147,-575
2021-12-23 17:23:02.863151,-179
2021-12-23 17:23:02.863156,2
2021-12-23 17:23:02.863166,-97
2021-12-23 17:23:02.863171,-37
2021-12-23 17:23:02.863175,46
2021-12-23 17:23:02.863180,-16
2021-12-23 17:23:02.863184,-37
2021-12-23 17:23:02.863189,39
2021-12-23 17:23:02.863193,60
2021-12-23 17:23:02.863198,6
2021-12-23 17:23:02.863202,6
2021-12-23 17:23:02.863207,51
2021-12-23 17:23:02.863211,62
2021-12-23 17:23:02.863216,79
2021-12-23 17:23:02.863220,111
2021-12-23 17:23:02.863225,132
2021-12-23 17:23:02.863229,177
2021-12-23 17:23:02.863234,223
2021-12-23 17:23:02.863238,228
2021-12-23 17:23:02.863243,228
2021-12-23 17:23:02.863247,251
2021-12-23 17:23:03.088637,254
2021-12-23 17:23:03.088655,219
2021-12-23 17:23:03.088660,191
2021-12-23 17:23:03.088665,151
2021-12-23 17:23:03.088669,81
2021-12-23 17:23:03.088674,-6
2021-12-23 17:23:03.088679,-86
2021-12-23 17:23:03.088683,-130
2021-12-23 17:23:03.088688,-193
2021-12-23 17:23:03.088692,-272
2021-12-23 17:23:03.088697,-291
2021-12-23 17:23:03.088701,-300
2021-12-23 17:23:03.088706,-331
2021-12-23 17:23:03.088710,-307
2021-12-23 17:23:03.088715,-263
2021-12-23 17:23:03.088719,-282
2021-12-23 17:23:03.088724,-296
2021-12-23 17:23:03.088728,-279
2021-12-23 17:23:03.088732,-272
2021-12-23 17:23:03.088737,-242
2021-12-23 17:23:03.088742,-193
2021-12-23 17:23:03.088746,-181
2021-12-23 17:23:03.088750,-172
2021-12-23 17:23:03.088755,-149
2021-12-23 17:23:03.088759,-135
2021-12-23 17:23:03.088764,-118
2021-12-23 17:23:03.088768,-109
2021-12-23 17:23:03.088773,-109
2021-12-23 17:23:03.088777,-97
2021-12-23 17:23:03.088782,-95
2021-12-23 17:23:03.313573,-102
2021-12-23 17:23:03.313591,-76
2021-12-23 17:23:03.313596,-41
2021-12-23 17:23:03.313601,-55
2021-12-23 17:23:03.313606,-97
2021-12-23 17:23:03.313610,-121
2021-12-23 17:23:03.313615,-109
2021-12-23 17:23:03.313619,-79
2021-12-23 17:23:03.313624,-65
2021-12-23 17:23:03.313628,-72
2021-12-23 17:23:03.313633,-88
2021-12-23 17:23:03.313637,-107
2021-12-23 17:23:03.313642,-107
2021-12-23 17:23:03.313646,-86
2021-12-23 17:23:03.313651,-65
2021-12-23 17:23:03.313655,-55
2021-12-23 17:23:03.313660,-60
2021-12-23 17:23:03.313664,-69
2021-12-23 17:23:03.313669,-67
2021-12-23 17:23:03.313673,-41
2021-12-23 17:23:03.313678,-30
2021-12-23 17:23:03.313682,-53
2021-12-23 17:23:03.313687,-76
2021-12-23 17:23:03.313691,-60
2021-12-23 17:23:03.313696,-34
2021-12-23 17:23:03.313700,-16
2021-12-23 17:23:03.313705,-2
2021-12-23 17:23:03.313709,2
2021-12-23 17:23:03.313714,-6
2021-12-23 17:23:03.313718,-6
2021-12-23 17:23:03.581839,23
2021-12-23 17:23:03.581856,153
2021-12-23 17:23:03.581862,422
2021-12-23 17:23:03.581867,594
2021-12-23 17:23:03.581871,424
2021-12-23 17:23:03.581876,-76
2021-12-23 17:23:03.581881,-578
2021-12-23 17:23:03.581885,-526
2021-12-23 17:23:03.581890,-158
2021-12-23 17:23:03.581895,-116
2021-12-23 17:23:03.581899,-170
2021-12-23 17:23:03.581904,-32
2021-12-23 17:23:03.581908,20
2021-12-23 17:23:03.581913,-32
2021-12-23 17:23:03.581918,-11
2021-12-23 17:23:03.581922,27
2021-12-23 17:23:03.581927,30
2021-12-23 17:23:03.581931,39
2021-12-23 17:23:03.581936,62
2021-12-23 17:23:03.581940,79
2021-12-23 17:23:03.581945,69
2021-12-23 17:23:03.581949,60
2021-12-23 17:23:03.581954,88
2021-12-23 17:23:03.581958,135
2021-12-23 17:23:03.581963,170
2021-12-23 17:23:03.581967,205
2021-12-23 17:23:03.581972,235
2021-12-23 17:23:03.581976,237
2021-12-23 17:23:03.581981,226
2021-12-23 17:23:03.581985,230
2021-12-23 17:23:03.808746,240
2021-12-23 17:23:03.808770,219
2021-12-23 17:23:03.808780,158
2021-12-23 17:23:03.808789,74
2021-12-23 17:23:03.808798,-6
2021-12-23 17:23:03.808807,-55
2021-12-23 17:23:03.808816,-88
2021-12-23 17:23:03.808825,-137
2021-12-23 17:23:03.808834,-200
2021-12-23 17:23:03.808843,-254
2021-12-23 17:23:03.808852,-270
2021-12-23 17:23:03.808860,-240
2021-12-23 17:23:03.808865,-216
2021-12-23 17:23:03.808869,-202
2021-12-23 17:23:03.808874,-195
2021-12-23 17:23:03.808878,-205
2021-12-23 17:23:03.808882,-193
2021-12-23 17:23:03.808887,-151
2021-12-23 17:23:03.808891,-109
2021-12-23 17:23:03.808896,-86
2021-12-23 17:23:03.808900,-93
2021-12-23 17:23:03.808905,-118
2021-12-23 17:23:03.808909,-128
2021-12-23 17:23:03.808913,-104
2021-12-23 17:23:03.808918,-74
2021-12-23 17:23:03.808922,-55
2021-12-23 17:23:03.808927,-46
2021-12-23 17:23:03.808931,-48
2021-12-23 17:23:03.808936,-51
2021-12-23 17:23:03.808940,-41
2021-12-23 17:23:04.033700,-34
2021-12-23 17:23:04.033716,-32
2021-12-23 17:23:04.033722,-34
2021-12-23 17:23:04.033726,-39
2021-12-23 17:23:04.033731,-25
2021-12-23 17:23:04.033735,-16
2021-12-23 17:23:04.033740,-13
2021-12-23 17:23:04.033744,-13
2021-12-23 17:23:04.033754,-46
2021-12-23 17:23:04.033758,-86
2021-12-23 17:23:04.033763,-65
2021-12-23 17:23:04.033768,-41
2021-12-23 17:23:04.033772,-90
2021-12-23 17:23:04.033777,-139
2021-12-23 17:23:04.033781,-146
2021-12-23 17:23:04.033786,-146
2021-12-23 17:23:04.033790,-118
2021-12-23 17:23:04.033795,-65
2021-12-23 17:23:04.033799,-41
2021-12-23 17:23:04.033804,-34
2021-12-23 17:23:04.033808,-44
2021-12-23 17:23:04.033813,-69
2021-12-23 17:23:04.033817,-60
2021-12-23 17:23:04.033822,-44
2021-12-23 17:23:04.033826,-69
2021-12-23 17:23:04.033831,-79
2021-12-23 17:23:04.033835,-53
2021-12-23 17:23:04.033840,-55
2021-12-23 17:23:04.033844,-55
2021-12-23 17:23:04.033849,-27
2021-12-23 17:23:04.258164,-13
2021-12-23 17:23:04.258179,-6
2021-12-23 17:23:04.258185,100
2021-12-23 17:23:04.258189,352
2021-12-23 17:23:04.258194,529
2021-12-23 17:23:04.258198,375
2021-12-23 17:23:04.258203,-144
2021-12-23 17:23:04.258207,-585
2021-12-23 17:23:04.258212,-410
2021-12-23 17:23:04.258216,-69
2021-12-23 17:23:04.258221,-83
2021-12-23 17:23:04.258225,-74
2021-12-23 17:23:04.258229,60
2021-12-23 17:23:04.258234,39
2021-12-23 17:23:04.258238,-27
2021-12-23 17:23:04.258243,11
2021-12-23 17:23:04.258247,53
2021-12-23 17:23:04.258251,60
2021-12-23 17:23:04.258256,88
2021-12-23 17:23:04.258260,104
2021-12-23 17:23:04.258265,104
2021-12-23 17:23:04.258269,118
2021-12-23 17:23:04.258273,142
2021-12-23 17:23:04.258278,163
2021-12-23 17:23:04.258282,167
2021-12-23 17:23:04.258286,153
2021-12-23 17:23:04.258291,139
2021-12-23 17:23:04.258295,146
2021-12-23 17:23:04.258300,184
2021-12-23 17:23:04.258304,219
2021-12-23 17:23:04.483923,216
2021-12-23 17:23:04.483946,200
2021-12-23 17:23:04.483956,191
2021-12-23 17:23:04.483965,165
2021-12-23 17:23:04.483974,125
2021-12-23 17:23:04.483983,81
2021-12-23 17:23:04.483992,2
2021-12-23 17:23:04.484001,-93
2021-12-23 17:23:04.484010,-144
2021-12-23 17:23:04.484019,-163
2021-12-23 17:23:04.484027,-188
2021-12-23 17:23:04.484036,-202
2021-12-23 17:23:04.484045,-209
2021-12-23 17:23:04.484054,-230
2021-12-23 17:23:04.484063,-223
2021-12-23 17:23:04.484071,-188
2021-12-23 17:23:04.484080,-174
2021-12-23 17:23:04.484089,-184
2021-12-23 17:23:04.484098,-207
2021-12-23 17:23:04.484106,-209
2021-12-23 17:23:04.484115,-174
2021-12-23 17:23:04.484124,-158
2021-12-23 17:23:04.484132,-153
2021-12-23 17:23:04.484141,-125
2021-12-23 17:23:04.484150,-111
2021-12-23 17:23:04.484159,-111
2021-12-23 17:23:04.484167,-90
2021-12-23 17:23:04.484176,-93
2021-12-23 17:23:04.484185,-132
2021-12-23 17:23:04.484193,-130
2021-12-23 17:23:04.708516,-102
2021-12-23 17:23:04.708533,-97
2021-12-23 17:23:04.708539,-100
2021-12-23 17:23:04.708543,-88
2021-12-23 17:23:04.708548,-76
2021-12-23 17:23:04.708552,-74
2021-12-23 17:23:04.708557,-100
2021-12-23 17:23:04.708561,-111
2021-12-23 17:23:04.708566,-88
2021-12-23 17:23:04.708570,-69
2021-12-23 17:23:04.708575,-67
2021-12-23 17:23:04.708579,-67
2021-12-23 17:23:04.708584,-90
2021-12-23 17:23:04.708588,-95
2021-12-23 17:23:04.708593,-69
2021-12-23 17:23:04.708597,-58
2021-12-23 17:23:04.708602,-46
2021-12-23 17:23:04.708606,-20
2021-12-23 17:23:04.708611,-9
2021-12-23 17:23:04.708615,0
2021-12-23 17:23:04.708620,16
2021-12-23 17:23:04.708624,9
2021-12-23 17:23:04.708629,-2
2021-12-23 17:23:04.708633,9
2021-12-23 17:23:04.708638,11
2021-12-23 17:23:04.708642,9
2021-12-23 17:23:04.708647,25
2021-12-23 17:23:04.708651,37
2021-12-23 17:23:04.708656,27
2021-12-23 17:23:04.708660,-4
2021-12-23 17:23:04.933544,-32
2021-12-23 17:23:04.933561,0
2021-12-23 17:23:04.933567,130
2021-12-23 17:23:04.933571,338
2021-12-23 17:23:04.933576,445
2021-12-23 17:23:04.933580,174
2021-12-23 17:23:04.933585,-410
2021-12-23 17:23:04.933589,-631
2021-12-23 17:23:04.933594,-258
2021-12-23 17:23:04.933599,-6
2021-12-23 17:23:04.933603,-74
2021-12-23 17:23:04.933608,-32
2021-12-23 17:23:04.933612,72
2021-12-23 17:23:04.933617,72
2021-12-23 17:23:04.933621,62
2021-12-23 17:23:04.933625,95
2021-12-23 17:23:04.933630,111
2021-12-23 17:23:04.933634,107
2021-12-23 17:23:04.933639,118
2021-12-23 17:23:04.933643,144
2021-12-23 17:23:04.933648,158
2021-12-23 17:23:04.933652,153
2021-12-23 17:23:04.933657,132
2021-12-23 17:23:04.933662,97
2021-12-23 17:23:04.933666,83
2021-12-23 17:23:04.933671,123
2021-12-23 17:23:04.933675,163
2021-12-23 17:23:04.933680,179
2021-12-23 17:23:04.933684,200
2021-12-23 17:23:04.933689,216
2021-12-23 17:23:05.203567,214
2021-12-23 17:23:05.203584,198
2021-12-23 17:23:05.203589,151
2021-12-23 17:23:05.203594,102
2021-12-23 17:23:05.203599,55
2021-12-23 17:23:05.203603,-16
2021-12-23 17:23:05.203608,-72
2021-12-23 17:23:05.203612,-90
2021-12-23 17:23:05.203617,-121
2021-12-23 17:23:05.203621,-167
2021-12-23 17:23:05.203626,-205
2021-12-23 17:23:05.203630,-223
2021-12-23 17:23:05.203635,-200
2021-12-23 17:23:05.203639,-146
2021-12-23 17:23:05.203644,-102
2021-12-23 17:23:05.203648,-93
2021-12-23 17:23:05.203653,-95
2021-12-23 17:23:05.203657,-79
2021-12-23 17:23:05.203661,-51
2021-12-23 17:23:05.203666,-20
2021-12-23 17:23:05.203670,-16
2021-12-23 17:23:05.203675,-46
2021-12-23 17:23:05.203679,-58
2021-12-23 17:23:05.203689,-44
2021-12-23 17:23:05.203694,-37
2021-12-23 17:23:05.203699,-25
2021-12-23 17:23:05.203703,-25
2021-12-23 17:23:05.203708,-48
2021-12-23 17:23:05.203712,-58
2021-12-23 17:23:05.203716,-41
2021-12-23 17:23:05.383529,-27
2021-12-23 17:23:05.383545,-18
2021-12-23 17:23:05.383551,-13
2021-12-23 17:23:05.383556,-30
2021-12-23 17:23:05.383560,-58
2021-12-23 17:23:05.383565,-48
2021-12-23 17:23:05.383569,-18
2021-12-23 17:23:05.383574,-6
2021-12-23 17:23:05.383578,-9
2021-12-23 17:23:05.383583,-39
2021-12-23 17:23:05.383587,-74
2021-12-23 17:23:05.383592,-58
2021-12-23 17:23:05.383596,-16
2021-12-23 17:23:05.383601,4
2021-12-23 17:23:05.383605,13
2021-12-23 17:23:05.383610,0
2021-12-23 17:23:05.383615,-32
2021-12-23 17:23:05.383619,-39
2021-12-23 17:23:05.383624,-23
2021-12-23 17:23:05.383628,-6
2021-12-23 17:23:05.383633,0
2021-12-23 17:23:05.383637,-16
2021-12-23 17:23:05.383642,-13
2021-12-23 17:23:05.383646,44
2021-12-23 17:23:05.383651,86
2021-12-23 17:23:05.383656,53
2021-12-23 17:23:05.383660,18
2021-12-23 17:23:05.383665,32
2021-12-23 17:23:05.383669,104
2021-12-23 17:23:05.383674,263
2021-12-23 17:23:05.742228,331
2021-12-23 17:23:05.742245,13
2021-12-23 17:23:05.742251,-531
2021-12-23 17:23:05.742255,-664
2021-12-23 17:23:05.742260,-293
2021-12-23 17:23:05.742265,-111
2021-12-23 17:23:05.742269,-186
2021-12-23 17:23:05.742274,-100
2021-12-23 17:23:05.742278,-2
2021-12-23 17:23:05.742283,-65
2021-12-23 17:23:05.742287,-88
2021-12-23 17:23:05.742291,-16
2021-12-23 17:23:05.742296,18
2021-12-23 17:23:05.742300,23
2021-12-23 17:23:05.742305,44
2021-12-23 17:23:05.742309,46
2021-12-23 17:23:05.742314,53
2021-12-23 17:23:05.742318,93
2021-12-23 17:23:05.742323,130
2021-12-23 17:23:05.742327,151
2021-12-23 17:23:05.742332,170
2021-12-23 17:23:05.742336,200
2021-12-23 17:23:05.742341,277
2021-12-23 17:23:05.742345,349
2021-12-23 17:23:05.742350,349
2021-12-23 17:23:05.742354,338
2021-12-23 17:23:05.742359,349
2021-12-23 17:23:05.742363,319
2021-12-23 17:23:05.742368,261
2021-12-23 17:23:05.742372,188
2021-12-23 17:23:05.878563,107
2021-12-23 17:23:05.878582,114
2021-12-23 17:23:05.878588,93
2021-12-23 17:23:05.878593,-53
2021-12-23 17:23:05.878598,-86
2021-12-23 17:23:05.878602,-2
2021-12-23 17:23:05.878607,-27
2021-12-23 17:23:05.878611,-109
2021-12-23 17:23:05.878616,-142
2021-12-23 17:23:05.878621,-142
2021-12-23 17:23:05.878625,-107
2021-12-23 17:23:05.878630,-60
2021-12-23 17:23:05.878634,-53
2021-12-23 17:23:05.878639,-93
2021-12-23 17:23:05.878643,-86
2021-12-23 17:23:05.878648,-44
2021-12-23 17:23:05.878653,-39
2021-12-23 17:23:05.878657,-34
2021-12-23 17:23:05.878662,-2
2021-12-23 17:23:05.878666,2
2021-12-23 17:23:05.878671,-39
2021-12-23 17:23:05.878675,-102
2021-12-23 17:23:05.878680,-160
2021-12-23 17:23:05.878684,-179
2021-12-23 17:23:05.878689,-163
2021-12-23 17:23:05.878694,-146
2021-12-23 17:23:05.878698,-146
2021-12-23 17:23:05.878703,-146
2021-12-23 17:23:05.878707,-116
2021-12-23 17:23:05.878712,-76
2021-12-23 17:23:06.103124,-86
2021-12-23 17:23:06.103140,-123
2021-12-23 17:23:06.103146,-128
2021-12-23 17:23:06.103151,-121
2021-12-23 17:23:06.103155,-149
2021-12-23 17:23:06.103160,-170
2021-12-23 17:23:06.103165,-151
2021-12-23 17:23:06.103169,-156
2021-12-23 17:23:06.103174,-186
2021-12-23 17:23:06.103178,-181
2021-12-23 17:23:06.103183,-160
2021-12-23 17:23:06.103187,-146
2021-12-23 17:23:06.103192,-135
2021-12-23 17:23:06.103196,-165
2021-12-23 17:23:06.103201,-212
2021-12-23 17:23:06.103206,-200
2021-12-23 17:23:06.103210,-158
2021-12-23 17:23:06.103215,-137
2021-12-23 17:23:06.103219,-130
2021-12-23 17:23:06.103224,-123
2021-12-23 17:23:06.103228,-118
2021-12-23 17:23:06.103233,-104
2021-12-23 17:23:06.103237,-93
2021-12-23 17:23:06.103242,-88
2021-12-23 17:23:06.103246,-46
2021-12-23 17:23:06.103251,123
2021-12-23 17:23:06.103255,335
2021-12-23 17:23:06.103260,312
2021-12-23 17:23:06.103265,-86
2021-12-23 17:23:06.103269,-566
2021-12-23 17:23:06.328576,-580
2021-12-23 17:23:06.328592,-205
2021-12-23 17:23:06.328598,-62
2021-12-23 17:23:06.328602,-100
2021-12-23 17:23:06.328607,4
2021-12-23 17:23:06.328612,81
2021-12-23 17:23:06.328616,41
2021-12-23 17:23:06.328621,13
2021-12-23 17:23:06.328625,27
2021-12-23 17:23:06.328630,39
2021-12-23 17:23:06.328634,53
2021-12-23 17:23:06.328639,67
2021-12-23 17:23:06.328643,46
2021-12-23 17:23:06.328648,11
2021-12-23 17:23:06.328653,30
2021-12-23 17:23:06.328657,55
2021-12-23 17:23:06.328662,48
2021-12-23 17:23:06.328666,60
2021-12-23 17:23:06.328671,83
2021-12-23 17:23:06.328675,86
2021-12-23 17:23:06.328680,111
2021-12-23 17:23:06.328684,139
2021-12-23 17:23:06.328689,144
2021-12-23 17:23:06.328693,151
2021-12-23 17:23:06.328698,142
2021-12-23 17:23:06.328702,111
2021-12-23 17:23:06.328707,86
2021-12-23 17:23:06.328712,46
2021-12-23 17:23:06.328716,-11
2021-12-23 17:23:06.328721,-62
2021-12-23 17:23:06.553261,-114
2021-12-23 17:23:06.553284,-156
2021-12-23 17:23:06.553290,-179
2021-12-23 17:23:06.553295,-200
2021-12-23 17:23:06.553300,-200
2021-12-23 17:23:06.553305,-191
2021-12-23 17:23:06.553309,-212
2021-12-23 17:23:06.553314,-219
2021-12-23 17:23:06.553318,-186
2021-12-23 17:23:06.553323,-191
2021-12-23 17:23:06.553328,-230
2021-12-23 17:23:06.553332,-233
2021-12-23 17:23:06.553337,-221
2021-12-23 17:23:06.553341,-221
2021-12-23 17:23:06.553346,-223
2021-12-23 17:23:06.553350,-226
2021-12-23 17:23:06.553355,-200
2021-12-23 17:23:06.553360,-172
2021-12-23 17:23:06.553364,-167
2021-12-23 17:23:06.553369,-158
2021-12-23 17:23:06.553374,-132
2021-12-23 17:23:06.553378,-118
2021-12-23 17:23:06.553383,-111
2021-12-23 17:23:06.553387,-102
2021-12-23 17:23:06.553392,-100
2021-12-23 17:23:06.553396,-90
2021-12-23 17:23:06.553401,-65
2021-12-23 17:23:06.553405,-58
2021-12-23 17:23:06.553410,-65
2021-12-23 17:23:06.553417,-58
2021-12-23 17:23:06.778106,-53
2021-12-23 17:23:06.778123,-48
2021-12-23 17:23:06.778128,-41
2021-12-23 17:23:06.778133,-44
2021-12-23 17:23:06.778138,-46
2021-12-23 17:23:06.778142,-60
2021-12-23 17:23:06.778147,-72
2021-12-23 17:23:06.778151,-39
2021-12-23 17:23:06.778156,-4
2021-12-23 17:23:06.778161,-11
2021-12-23 17:23:06.778165,-32
2021-12-23 17:23:06.778170,-60
2021-12-23 17:23:06.778175,-76
2021-12-23 17:23:06.778179,-58
2021-12-23 17:23:06.778184,-39
2021-12-23 17:23:06.778188,-55
2021-12-23 17:23:06.778193,-81
2021-12-23 17:23:06.778198,-95
2021-12-23 17:23:06.778202,-81
2021-12-23 17:23:06.778207,-55
2021-12-23 17:23:06.778211,-44
2021-12-23 17:23:06.778216,41
2021-12-23 17:23:06.778221,289
2021-12-23 17:23:06.778225,449
2021-12-23 17:23:06.778230,235
2021-12-23 17:23:06.778235,-275
2021-12-23 17:23:06.778239,-606
2021-12-23 17:23:06.778244,-394
2021-12-23 17:23:06.778248,-72
2021-12-23 17:23:06.778253,-48
2021-12-23 17:23:07.003579,-13
2021-12-23 17:23:07.003596,116
2021-12-23 17:23:07.003601,121
2021-12-23 17:23:07.003606,74
2021-12-23 17:23:07.003611,83
2021-12-23 17:23:07.003615,76
2021-12-23 17:23:07.003620,69
2021-12-23 17:23:07.003625,102
2021-12-23 17:23:07.003629,130
2021-12-23 17:23:07.003634,139
2021-12-23 17:23:07.003638,135
2021-12-23 17:23:07.003643,118
2021-12-23 17:23:07.003648,128
2021-12-23 17:23:07.003652,156
2021-12-23 17:23:07.003657,146
2021-12-23 17:23:07.003661,100
2021-12-23 17:23:07.003666,102
2021-12-23 17:23:07.003671,149
2021-12-23 17:23:07.003675,137
2021-12-23 17:23:07.003680,114
2021-12-23 17:23:07.003685,151
2021-12-23 17:23:07.003689,184
2021-12-23 17:23:07.003694,184
2021-12-23 17:23:07.003698,160
2021-12-23 17:23:07.003703,69
2021-12-23 17:23:07.003707,-65
2021-12-23 17:23:07.003712,-135
2021-12-23 17:23:07.003717,-149
2021-12-23 17:23:07.003721,-207
2021-12-23 17:23:07.003726,-258
2021-12-23 17:23:07.228534,-240
2021-12-23 17:23:07.228551,-209
2021-12-23 17:23:07.228556,-193
2021-12-23 17:23:07.228561,-149
2021-12-23 17:23:07.228565,-114
2021-12-23 17:23:07.228570,-132
2021-12-23 17:23:07.228574,-123
2021-12-23 17:23:07.228579,-13
2021-12-23 17:23:07.228584,60
2021-12-23 17:23:07.228588,23
2021-12-23 17:23:07.228593,-11
2021-12-23 17:23:07.228597,4
2021-12-23 17:23:07.228602,18
2021-12-23 17:23:07.228607,4
2021-12-23 17:23:07.228611,-34
2021-12-23 17:23:07.228616,-53
2021-12-23 17:23:07.228620,4
2021-12-23 17:23:07.228625,79
2021-12-23 17:23:07.228629,88
2021-12-23 17:23:07.228634,65
2021-12-23 17:23:07.228639,58
2021-12-23 17:23:07.228643,53
2021-12-23 17:23:07.228647,60
2021-12-23 17:23:07.228652,79
2021-12-23 17:23:07.228656,93
2021-12-23 17:23:07.228661,100
2021-12-23 17:23:07.228665,100
2021-12-23 17:23:07.228670,79
2021-12-23 17:23:07.228675,65
2021-12-23 17:23:07.228679,79
2021-12-23 17:23:07.498547,95
2021-12-23 17:23:07.498562,97
2021-12-23 17:23:07.498568,93
2021-12-23 17:23:07.498572,67
2021-12-23 17:23:07.498577,53
2021-12-23 17:23:07.498582,88
2021-12-23 17:23:07.498586,118
2021-12-23 17:23:07.498591,114
2021-12-23 17:23:07.498595,88
2021-12-23 17:23:07.498600,44
2021-12-23 17:23:07.498604,27
2021-12-23 17:23:07.498609,53
2021-12-23 17:23:07.498613,74
2021-12-23 17:23:07.498618,79
2021-12-23 17:23:07.498622,74
2021-12-23 17:23:07.498627,65
2021-12-23 17:23:07.498631,76
2021-12-23 17:23:07.498636,116
2021-12-23 17:23:07.498640,170
2021-12-23 17:23:07.498645,317
2021-12-23 17:23:07.498649,501
2021-12-23 17:23:07.498654,431
2021-12-23 17:23:07.498659,-13
2021-12-23 17:23:07.498663,-531
2021-12-23 17:23:07.498668,-559
2021-12-23 17:23:07.498672,-158
2021-12-23 17:23:07.498676,-2
2021-12-23 17:23:07.498681,-58
2021-12-23 17:23:07.498686,51
2021-12-23 17:23:07.498690,139
2021-12-23 17:23:07.766791,109
2021-12-23 17:23:07.766807,116
2021-12-23 17:23:07.766813,135
2021-12-23 17:23:07.766818,121
2021-12-23 17:23:07.766822,142
2021-12-23 17:23:07.766827,179
2021-12-23 17:23:07.766832,188
2021-12-23 17:23:07.766837,198
2021-12-23 17:23:07.766841,188
2021-12-23 17:23:07.766846,163
2021-12-23 17:23:07.766851,184
2021-12-23 17:23:07.766855,212
2021-12-23 17:23:07.766860,212
2021-12-23 17:23:07.766865,221
2021-12-23 17:23:07.766869,205
2021-12-23 17:23:07.766874,179
2021-12-23 17:23:07.766879,202
2021-12-23 17:23:07.766883,228
2021-12-23 17:23:07.766888,212
2021-12-23 17:23:07.766893,193
2021-12-23 17:23:07.766897,160
2021-12-23 17:23:07.766902,100
2021-12-23 17:23:07.766906,44
2021-12-23 17:23:07.766911,-4
2021-12-23 17:23:07.766916,-76
2021-12-23 17:23:07.766921,-151
2021-12-23 17:23:07.766925,-186
2021-12-23 17:23:07.766930,-198
2021-12-23 17:23:07.766935,-198
2021-12-23 17:23:07.766939,-184
2021-12-23 17:23:07.948552,-165
2021-12-23 17:23:07.948569,-149
2021-12-23 17:23:07.948575,-132
2021-12-23 17:23:07.948579,-118
2021-12-23 17:23:07.948584,-97
2021-12-23 17:23:07.948588,-65
2021-12-23 17:23:07.948593,-53
2021-12-23 17:23:07.948597,-74
2021-12-23 17:23:07.948602,-97
2021-12-23 17:23:07.948606,-83
2021-12-23 17:23:07.948611,-46
2021-12-23 17:23:07.948616,-32
2021-12-23 17:23:07.948620,-32
2021-12-23 17:23:07.948625,-53
2021-12-23 17:23:07.948629,-83
2021-12-23 17:23:07.948633,-74
2021-12-23 17:23:07.948638,-53
2021-12-23 17:23:07.948643,-51
2021-12-23 17:23:07.948647,-34
2021-12-23 17:23:07.948652,-20
2021-12-23 17:23:07.948656,-34
2021-12-23 17:23:07.948661,-39
2021-12-23 17:23:07.948665,-20
2021-12-23 17:23:07.948670,-4
2021-12-23 17:23:07.948675,4
2021-12-23 17:23:07.948679,-13
2021-12-23 17:23:07.948684,-76
2021-12-23 17:23:07.948688,-111
2021-12-23 17:23:07.948693,-79
2021-12-23 17:23:07.948697,-39
2021-12-23 17:23:08.173537,-27
2021-12-23 17:23:08.173554,-20
2021-12-23 17:23:08.173559,-13
2021-12-23 17:23:08.173564,-11
2021-12-23 17:23:08.173569,-11
2021-12-23 17:23:08.173573,-9
2021-12-23 17:23:08.173578,-18
2021-12-23 17:23:08.173582,-46
2021-12-23 17:23:08.173587,-46
2021-12-23 17:23:08.173591,-20
2021-12-23 17:23:08.173596,-2
2021-12-23 17:23:08.173600,9
2021-12-23 17:23:08.173605,2
2021-12-23 17:23:08.173609,-9
2021-12-23 17:23:08.173614,48
2021-12-23 17:23:08.173618,228
2021-12-23 17:23:08.173623,449
2021-12-23 17:23:08.173628,435
2021-12-23 17:23:08.173632,-39
2021-12-23 17:23:08.173637,-585
2021-12-23 17:23:08.173641,-536
2021-12-23 17:23:08.173646,-118
2021-12-23 17:23:08.173650,-11
2021-12-23 17:23:08.173655,-44
2021-12-23 17:23:08.173659,76
2021-12-23 17:23:08.173664,128
2021-12-23 17:23:08.173668,88
2021-12-23 17:23:08.173673,102
2021-12-23 17:23:08.173680,109
2021-12-23 17:23:08.173685,79
2021-12-23 17:23:08.398715,90
2021-12-23 17:23:08.398732,125
2021-12-23 17:23:08.398737,128
2021-12-23 17:23:08.398742,128
2021-12-23 17:23:08.398747,153
2021-12-23 17:23:08.398751,177
2021-12-23 17:23:08.398756,170
2021-12-23 17:23:08.398760,179
2021-12-23 17:23:08.398765,219
2021-12-23 17:23:08.398769,249
2021-12-23 17:23:08.398774,265
2021-12-23 17:23:08.398779,261
2021-12-23 17:23:08.398783,223
2021-12-23 17:23:08.398788,195
2021-12-23 17:23:08.398792,184
2021-12-23 17:23:08.398797,142
2021-12-23 17:23:08.398801,93
2021-12-23 17:23:08.398806,53
2021-12-23 17:23:08.398810,-13
2021-12-23 17:23:08.398815,-67
2021-12-23 17:23:08.398820,-100
2021-12-23 17:23:08.398824,-146
2021-12-23 17:23:08.398829,-172
2021-12-23 17:23:08.398833,-172
2021-12-23 17:23:08.398838,-179
2021-12-23 17:23:08.398842,-170
2021-12-23 17:23:08.398847,-151
2021-12-23 17:23:08.398851,-139
2021-12-23 17:23:08.398856,-128
2021-12-23 17:23:08.398860,-109
2021-12-23 17:23:08.668122,-118
2021-12-23 17:23:08.668138,-167
2021-12-23 17:23:08.668143,-184
2021-12-23 17:23:08.668148,-153
2021-12-23 17:23:08.668153,-135
2021-12-23 17:23:08.668157,-153
2021-12-23 17:23:08.668162,-163
2021-12-23 17:23:08.668166,-132
2021-12-23 17:23:08.668171,-109
2021-12-23 17:23:08.668175,-111
2021-12-23 17:23:08.668180,-107
2021-12-23 17:23:08.668184,-114
2021-12-23 17:23:08.668188,-130
2021-12-23 17:23:08.668193,-109
2021-12-23 17:23:08.668198,-83
2021-12-23 17:23:08.668202,-88
2021-12-23 17:23:08.668207,-90
2021-12-23 17:23:08.668211,-88
2021-12-23 17:23:08.668216,-83
2021-12-23 17:23:08.668220,-67
2021-12-23 17:23:08.668225,-55
2021-12-23 17:23:08.668229,-53
2021-12-23 17:23:08.668233,-51
2021-12-23 17:23:08.668238,-37
2021-12-23 17:23:08.668242,-6
2021-12-23 17:23:08.668247,9
2021-12-23 17:23:08.668251,6
2021-12-23 17:23:08.668256,-6
2021-12-23 17:23:08.668260,-25
2021-12-23 17:23:08.668265,-25
2021-12-23 17:23:08.893575,-9
2021-12-23 17:23:08.893592,-2
2021-12-23 17:23:08.893597,-27
2021-12-23 17:23:08.893602,-58
2021-12-23 17:23:08.893607,-53
2021-12-23 17:23:08.893611,-32
2021-12-23 17:23:08.893616,-2
2021-12-23 17:23:08.893620,48
2021-12-23 17:23:08.893625,170
2021-12-23 17:23:08.893630,384
2021-12-23 17:23:08.893634,438
2021-12-23 17:23:08.893639,65
2021-12-23 17:23:08.893644,-498
2021-12-23 17:23:08.893648,-636
2021-12-23 17:23:08.893653,-254
2021-12-23 17:23:08.893657,-13
2021-12-23 17:23:08.893662,-72
2021-12-23 17:23:08.893667,-30
2021-12-23 17:23:08.893671,86
2021-12-23 17:23:08.893676,69
2021-12-23 17:23:08.893680,32
2021-12-23 17:23:08.893685,58
2021-12-23 17:23:08.893690,65
2021-12-23 17:23:08.893694,58
2021-12-23 17:23:08.893699,86
2021-12-23 17:23:08.893704,114
2021-12-23 17:23:08.893708,123
2021-12-23 17:23:08.893713,128
2021-12-23 17:23:08.893717,132
2021-12-23 17:23:08.893722,156
2021-12-23 17:23:09.073535,193
2021-12-23 17:23:09.073552,221
2021-12-23 17:23:09.073557,235
2021-12-23 17:23:09.073562,242
2021-12-23 17:23:09.073567,240
2021-12-23 17:23:09.073571,233
2021-12-23 17:23:09.073576,219
2021-12-23 17:23:09.073580,172
2021-12-23 17:23:09.073585,116
2021-12-23 17:23:09.073589,67
2021-12-23 17:23:09.073594,0
2021-12-23 17:23:09.073598,-69
2021-12-23 17:23:09.073603,-123
2021-12-23 17:23:09.073608,-172
2021-12-23 17:23:09.073612,-230
2021-12-23 17:23:09.073617,-305
2021-12-23 17:23:09.073621,-345
2021-12-23 17:23:09.073626,-317
2021-12-23 17:23:09.073631,-286
2021-12-23 17:23:09.073635,-277
2021-12-23 17:23:09.073640,-261
2021-12-23 17:23:09.073644,-256
2021-12-23 17:23:09.073649,-256
2021-12-23 17:23:09.073653,-219
2021-12-23 17:23:09.073658,-177
2021-12-23 17:23:09.073662,-163
2021-12-23 17:23:09.073667,-156
2021-12-23 17:23:09.073671,-158
2021-12-23 17:23:09.073676,-156
2021-12-23 17:23:09.073680,-130
2021-12-23 17:23:09.388347,-102
2021-12-23 17:23:09.388364,-95
2021-12-23 17:23:09.388370,-102
2021-12-23 17:23:09.388374,-137
2021-12-23 17:23:09.388379,-158
2021-12-23 17:23:09.388383,-132
2021-12-23 17:23:09.388388,-130
2021-12-23 17:23:09.388392,-153
2021-12-23 17:23:09.388397,-160
2021-12-23 17:23:09.388401,-184
2021-12-23 17:23:09.388406,-198
2021-12-23 17:23:09.388410,-167
2021-12-23 17:23:09.388415,-137
2021-12-23 17:23:09.388419,-123
2021-12-23 17:23:09.388423,-118
2021-12-23 17:23:09.388428,-128
2021-12-23 17:23:09.388432,-107
2021-12-23 17:23:09.388437,-65
2021-12-23 17:23:09.388441,-51
2021-12-23 17:23:09.388446,-48
2021-12-23 17:23:09.388450,-67
2021-12-23 17:23:09.388455,-93
2021-12-23 17:23:09.388459,-81
2021-12-23 17:23:09.388463,-51
2021-12-23 17:23:09.388468,-39
2021-12-23 17:23:09.388472,-34
2021-12-23 17:23:09.388477,-34
2021-12-23 17:23:09.388481,-44
2021-12-23 17:23:09.388486,-23
2021-12-23 17:23:09.388490,25
2021-12-23 17:23:09.568249,123
2021-12-23 17:23:09.568265,321
2021-12-23 17:23:09.568270,438
2021-12-23 17:23:09.568275,207
2021-12-23 17:23:09.568279,-282
2021-12-23 17:23:09.568284,-603
2021-12-23 17:23:09.568289,-401
2021-12-23 17:23:09.568293,-30
2021-12-23 17:23:09.568298,11
2021-12-23 17:23:09.568303,-18
2021-12-23 17:23:09.568307,93
2021-12-23 17:23:09.568312,121
2021-12-23 17:23:09.568316,44
2021-12-23 17:23:09.568321,20
2021-12-23 17:23:09.568326,16
2021-12-23 17:23:09.568331,-23
2021-12-23 17:23:09.568335,-25
2021-12-23 17:23:09.568340,23
2021-12-23 17:23:09.568344,53
2021-12-23 17:23:09.568349,51
2021-12-23 17:23:09.568353,34
2021-12-23 17:23:09.568358,34
2021-12-23 17:23:09.568362,74
2021-12-23 17:23:09.568367,118
2021-12-23 17:23:09.568371,151
2021-12-23 17:23:09.568376,172
2021-12-23 17:23:09.568380,179
2021-12-23 17:23:09.568385,184
2021-12-23 17:23:09.568389,195
2021-12-23 17:23:09.568394,207
2021-12-23 17:23:09.881700,198
2021-12-23 17:23:09.881717,165
2021-12-23 17:23:09.881722,111
2021-12-23 17:23:09.881727,55
2021-12-23 17:23:09.881732,6
2021-12-23 17:23:09.881736,-39
2021-12-23 17:23:09.881741,-81
2021-12-23 17:23:09.881746,-146
2021-12-23 17:23:09.881750,-226
2021-12-23 17:23:09.881755,-258
2021-12-23 17:23:09.881759,-275
2021-12-23 17:23:09.881764,-303
2021-12-23 17:23:09.881768,-289
2021-12-23 17:23:09.881773,-277
2021-12-23 17:23:09.881777,-296
2021-12-23 17:23:09.881782,-282
2021-12-23 17:23:09.881787,-242
2021-12-23 17:23:09.881791,-216
2021-12-23 17:23:09.881796,-200
2021-12-23 17:23:09.881800,-191
2021-12-23 17:23:09.881805,-186
2021-12-23 17:23:09.881809,-177
2021-12-23 17:23:09.881814,-156
2021-12-23 17:23:09.881819,-135
2021-12-23 17:23:09.881823,-123
2021-12-23 17:23:09.881828,-125
2021-12-23 17:23:09.881832,-125
2021-12-23 17:23:09.881837,-116
2021-12-23 17:23:09.881841,-107
2021-12-23 17:23:09.881846,-93
2021-12-23 17:23:10.018510,-83
2021-12-23 17:23:10.018526,-88
2021-12-23 17:23:10.018532,-95
2021-12-23 17:23:10.018537,-93
2021-12-23 17:23:10.018541,-83
2021-12-23 17:23:10.018546,-72
2021-12-23 17:23:10.018550,-76
2021-12-23 17:23:10.018555,-100
2021-12-23 17:23:10.018559,-88
2021-12-23 17:23:10.018564,-53
2021-12-23 17:23:10.018568,-37
2021-12-23 17:23:10.018573,-32
2021-12-23 17:23:10.018577,-58
2021-12-23 17:23:10.018582,-88
2021-12-23 17:23:10.018586,-74
2021-12-23 17:23:10.018591,-55
2021-12-23 17:23:10.018595,-58
2021-12-23 17:23:10.018600,-90
2021-12-23 17:23:10.018604,-151
2021-12-23 17:23:10.018609,-170
2021-12-23 17:23:10.018613,-125
2021-12-23 17:23:10.018618,-83
2021-12-23 17:23:10.018622,0
2021-12-23 17:23:10.018629,226
2021-12-23 17:23:10.018634,415
2021-12-23 17:23:10.018638,265
2021-12-23 17:23:10.018643,-223
2021-12-23 17:23:10.018647,-634
2021-12-23 17:23:10.018652,-505
2021-12-23 17:23:10.018656,-118
2021-12-23 17:23:10.243578,-30
2021-12-23 17:23:10.243594,-34
2021-12-23 17:23:10.243600,83
2021-12-23 17:23:10.243604,111
2021-12-23 17:23:10.243609,72
2021-12-23 17:23:10.243613,97
2021-12-23 17:23:10.243618,100
2021-12-23 17:23:10.243622,76
2021-12-23 17:23:10.243626,102
2021-12-23 17:23:10.243631,128
2021-12-23 17:23:10.243635,132
2021-12-23 17:23:10.243640,135
2021-12-23 17:23:10.243644,114
2021-12-23 17:23:10.243648,97
2021-12-23 17:23:10.243653,109
2021-12-23 17:23:10.243657,111
2021-12-23 17:23:10.243662,125
2021-12-23 17:23:10.243666,170
2021-12-23 17:23:10.243671,198
2021-12-23 17:23:10.243675,214
2021-12-23 17:23:10.243680,228
2021-12-23 17:23:10.243684,226
2021-12-23 17:23:10.243689,209
2021-12-23 17:23:10.243693,191
2021-12-23 17:23:10.243698,149
2021-12-23 17:23:10.243702,97
2021-12-23 17:23:10.243706,46
2021-12-23 17:23:10.243711,-16
2021-12-23 17:23:10.243715,-62
2021-12-23 17:23:10.243720,-90
2021-12-23 17:23:10.468551,-116
2021-12-23 17:23:10.468568,-125
2021-12-23 17:23:10.468574,-118
2021-12-23 17:23:10.468578,-123
2021-12-23 17:23:10.468583,-151
2021-12-23 17:23:10.468588,-191
2021-12-23 17:23:10.468592,-200
2021-12-23 17:23:10.468597,-174
2021-12-23 17:23:10.468601,-170
2021-12-23 17:23:10.468605,-174
2021-12-23 17:23:10.468610,-165
2021-12-23 17:23:10.468615,-179
2021-12-23 17:23:10.468619,-191
2021-12-23 17:23:10.468623,-163
2021-12-23 17:23:10.468628,-139
2021-12-23 17:23:10.468632,-146
2021-12-23 17:23:10.468637,-160
2021-12-23 17:23:10.468641,-167
2021-12-23 17:23:10.468646,-151
2021-12-23 17:23:10.468650,-125
2021-12-23 17:23:10.468655,-121
2021-12-23 17:23:10.468659,-123
2021-12-23 17:23:10.468664,-114
2021-12-23 17:23:10.468668,-123
2021-12-23 17:23:10.468673,-160
2021-12-23 17:23:10.468677,-149
2021-12-23 17:23:10.468682,-118
2021-12-23 17:23:10.468686,-132
2021-12-23 17:23:10.468691,-146
2021-12-23 17:23:10.468695,-130
2021-12-23 17:23:10.693529,-109
2021-12-23 17:23:10.693545,-81
2021-12-23 17:23:10.693550,-55
2021-12-23 17:23:10.693555,-46
2021-12-23 17:23:10.693560,-60
2021-12-23 17:23:10.693564,-90
2021-12-23 17:23:10.693569,-100
2021-12-23 17:23:10.693573,-76
2021-12-23 17:23:10.693578,-55
2021-12-23 17:23:10.693583,-60
2021-12-23 17:23:10.693587,-90
2021-12-23 17:23:10.693592,-104
2021-12-23 17:23:10.693596,-69
2021-12-23 17:23:10.693601,-37
2021-12-23 17:23:10.693605,-32
2021-12-23 17:23:10.693610,-11
2021-12-23 17:23:10.693614,102
2021-12-23 17:23:10.693619,352
2021-12-23 17:23:10.693623,498
2021-12-23 17:23:10.693628,228
2021-12-23 17:23:10.693632,-349
2021-12-23 17:23:10.693637,-673
2021-12-23 17:23:10.693641,-410
2021-12-23 17:23:10.693646,-55
2021-12-23 17:23:10.693650,-23
2021-12-23 17:23:10.693655,2
2021-12-23 17:23:10.693659,109
2021-12-23 17:23:10.693664,100
2021-12-23 17:23:10.693668,65
2021-12-23 17:23:10.693673,107
2021-12-23 17:23:10.962992,144
2021-12-23 17:23:10.963009,144
2021-12-23 17:23:10.963014,149
2021-12-23 17:23:10.963019,132
2021-12-23 17:23:10.963023,107
2021-12-23 17:23:10.963028,132
2021-12-23 17:23:10.963032,181
2021-12-23 17:23:10.963037,202
2021-12-23 17:23:10.963041,207
2021-12-23 17:23:10.963046,188
2021-12-23 17:23:10.963050,167
2021-12-23 17:23:10.963054,198
2021-12-23 17:23:10.963059,247
2021-12-23 17:23:10.963063,263
2021-12-23 17:23:10.963068,258
2021-12-23 17:23:10.963072,237
2021-12-23 17:23:10.963077,205
2021-12-23 17:23:10.963081,188
2021-12-23 17:23:10.963086,170
2021-12-23 17:23:10.963090,118
2021-12-23 17:23:10.963095,34
2021-12-23 17:23:10.963099,-72
2021-12-23 17:23:10.963104,-135
2021-12-23 17:23:10.963108,-125
2021-12-23 17:23:10.963113,-123
2021-12-23 17:23:10.963117,-144
2021-12-23 17:23:10.963121,-146
2021-12-23 17:23:10.963126,-158
2021-12-23 17:23:10.963131,-186
2021-12-23 17:23:10.963135,-200
2021-12-23 17:23:11.188349,-181
2021-12-23 17:23:11.188367,-165
2021-12-23 17:23:11.188372,-191
2021-12-23 17:23:11.188377,-216
2021-12-23 17:23:11.188382,-209
2021-12-23 17:23:11.188386,-188
2021-12-23 17:23:11.188390,-167
2021-12-23 17:23:11.188395,-149
2021-12-23 17:23:11.188399,-153
2021-12-23 17:23:11.188404,-184
2021-12-23 17:23:11.188408,-186
2021-12-23 17:23:11.188412,-151
2021-12-23 17:23:11.188417,-137
2021-12-23 17:23:11.188421,-135
2021-12-23 17:23:11.188426,-137
2021-12-23 17:23:11.188430,-158
2021-12-23 17:23:11.188434,-146
2021-12-23 17:23:11.188439,-107
2021-12-23 17:23:11.188443,-102
2021-12-23 17:23:11.188448,-100
2021-12-23 17:23:11.188452,-86
2021-12-23 17:23:11.188456,-104
2021-12-23 17:23:11.188461,-130
2021-12-23 17:23:11.188465,-132
2021-12-23 17:23:11.188469,-111
2021-12-23 17:23:11.188474,-83
2021-12-23 17:23:11.188478,-74
2021-12-23 17:23:11.188483,-69
2021-12-23 17:23:11.188487,-48
2021-12-23 17:23:11.188491,-41
2021-12-23 17:23:11.413516,-46
2021-12-23 17:23:11.413533,-39
2021-12-23 17:23:11.413538,-39
2021-12-23 17:23:11.413543,-51
2021-12-23 17:23:11.413548,-37
2021-12-23 17:23:11.413552,-13
2021-12-23 17:23:11.413557,-2
2021-12-23 17:23:11.413561,4
2021-12-23 17:23:11.413566,-6
2021-12-23 17:23:11.413570,9
2021-12-23 17:23:11.413575,149
2021-12-23 17:23:11.413580,384
2021-12-23 17:23:11.413587,468
2021-12-23 17:23:11.413594,130
2021-12-23 17:23:11.413601,-482
2021-12-23 17:23:11.413608,-687
2021-12-23 17:23:11.413615,-284
2021-12-23 17:23:11.413620,11
2021-12-23 17:23:11.413624,-23
2021-12-23 17:23:11.413629,32
2021-12-23 17:23:11.413633,132
2021-12-23 17:23:11.413638,104
2021-12-23 17:23:11.413642,104
2021-12-23 17:23:11.413647,158
2021-12-23 17:23:11.413651,142
2021-12-23 17:23:11.413656,95
2021-12-23 17:23:11.413660,109
2021-12-23 17:23:11.413665,132
2021-12-23 17:23:11.413669,142
2021-12-23 17:23:11.413674,179
2021-12-23 17:23:11.638113,216
2021-12-23 17:23:11.638129,221
2021-12-23 17:23:11.638134,223
2021-12-23 17:23:11.638139,249
2021-12-23 17:23:11.638144,258
2021-12-23 17:23:11.638148,228
2021-12-23 17:23:11.638153,207
2021-12-23 17:23:11.638157,200
2021-12-23 17:23:11.638162,165
2021-12-23 17:23:11.638166,142
2021-12-23 17:23:11.638170,151
2021-12-23 17:23:11.638175,135
2021-12-23 17:23:11.638179,79
2021-12-23 17:23:11.638184,0
2021-12-23 17:23:11.638188,-81
2021-12-23 17:23:11.638193,-128
2021-12-23 17:23:11.638197,-139
2021-12-23 17:23:11.638202,-153
2021-12-23 17:23:11.638206,-172
2021-12-23 17:23:11.638211,-179
2021-12-23 17:23:11.638216,-177
2021-12-23 17:23:11.638220,-170
2021-12-23 17:23:11.638224,-151
2021-12-23 17:23:11.638229,-114
2021-12-23 17:23:11.638233,-86
2021-12-23 17:23:11.638238,-81
2021-12-23 17:23:11.638242,-104
2021-12-23 17:23:11.638247,-128
2021-12-23 17:23:11.638251,-125
2021-12-23 17:23:11.638256,-107
2021-12-23 17:23:11.951699,-104
2021-12-23 17:23:11.951715,-125
2021-12-23 17:23:11.951721,-139
2021-12-23 17:23:11.951725,-130
2021-12-23 17:23:11.951730,-114
2021-12-23 17:23:11.951734,-104
2021-12-23 17:23:11.951739,-118
2021-12-23 17:23:11.951743,-153
2021-12-23 17:23:11.951748,-153
2021-12-23 17:23:11.951752,-139
2021-12-23 17:23:11.951756,-135
2021-12-23 17:23:11.951761,-121
2021-12-23 17:23:11.951765,-121
2021-12-23 17:23:11.951770,-149
2021-12-23 17:23:11.951774,-146
2021-12-23 17:23:11.951778,-121
2021-12-23 17:23:11.951783,-111
2021-12-23 17:23:11.951787,-90
2021-12-23 17:23:11.951792,-69
2021-12-23 17:23:11.951796,-60
2021-12-23 17:23:11.951800,-62
2021-12-23 17:23:11.951805,-74
2021-12-23 17:23:11.951809,-69
2021-12-23 17:23:11.951814,-48
2021-12-23 17:23:11.951818,-51
2021-12-23 17:23:11.951822,-55
2021-12-23 17:23:11.951827,-37
2021-12-23 17:23:11.951831,-30
2021-12-23 17:23:11.951835,-51
2021-12-23 17:23:11.951840,-58
2021-12-23 17:23:12.133559,-30
2021-12-23 17:23:12.133576,55
2021-12-23 17:23:12.133582,247
2021-12-23 17:23:12.133586,424
2021-12-23 17:23:12.133591,293
2021-12-23 17:23:12.133595,-237
2021-12-23 17:23:12.133600,-701
2021-12-23 17:23:12.133604,-540
2021-12-23 17:23:12.133608,-107
2021-12-23 17:23:12.133613,-48
2021-12-23 17:23:12.133617,-128
2021-12-23 17:23:12.133622,-39
2021-12-23 17:23:12.133626,0
2021-12-23 17:23:12.133631,-37
2021-12-23 17:23:12.133635,-4
2021-12-23 17:23:12.133640,34
2021-12-23 17:23:12.133644,39
2021-12-23 17:23:12.133651,55
2021-12-23 17:23:12.133656,81
2021-12-23 17:23:12.133660,104
2021-12-23 17:23:12.133664,125
2021-12-23 17:23:12.133669,142
2021-12-23 17:23:12.133673,160
2021-12-23 17:23:12.133678,186
2021-12-23 17:23:12.133682,205
2021-12-23 17:23:12.133686,237
2021-12-23 17:23:12.133691,272
2021-12-23 17:23:12.133695,277
2021-12-23 17:23:12.133700,282
2021-12-23 17:23:12.133704,289
2021-12-23 17:23:12.313559,254
2021-12-23 17:23:12.313576,193
2021-12-23 17:23:12.313581,142
2021-12-23 17:23:12.313586,83
2021-12-23 17:23:12.313590,18
2021-12-23 17:23:12.313595,-53
2021-12-23 17:23:12.313599,-123
2021-12-23 17:23:12.313604,-144
2021-12-23 17:23:12.313608,-158
2021-12-23 17:23:12.313613,-191
2021-12-23 17:23:12.313617,-205
2021-12-23 17:23:12.313622,-221
2021-12-23 17:23:12.313626,-233
2021-12-23 17:23:12.313631,-193
2021-12-23 17:23:12.313635,-156
2021-12-23 17:23:12.313640,-158
2021-12-23 17:23:12.313645,-165
2021-12-23 17:23:12.313649,-165
2021-12-23 17:23:12.313654,-156
2021-12-23 17:23:12.313658,-123
2021-12-23 17:23:12.313663,-104
2021-12-23 17:23:12.313667,-100
2021-12-23 17:23:12.313672,-88
2021-12-23 17:23:12.313676,-86
2021-12-23 17:23:12.313681,-97
2021-12-23 17:23:12.313685,-102
2021-12-23 17:23:12.313690,-107
2021-12-23 17:23:12.313694,-128
2021-12-23 17:23:12.313699,-146
2021-12-23 17:23:12.313703,-144
2021-12-23 17:23:12.583224,-130
2021-12-23 17:23:12.583239,-114
2021-12-23 17:23:12.583244,-128
2021-12-23 17:23:12.583249,-177
2021-12-23 17:23:12.583253,-216
2021-12-23 17:23:12.583258,-219
2021-12-23 17:23:12.583262,-193
2021-12-23 17:23:12.583267,-165
2021-12-23 17:23:12.583271,-151
2021-12-23 17:23:12.583276,-139
2021-12-23 17:23:12.583280,-144
2021-12-23 17:23:12.583284,-158
2021-12-23 17:23:12.583289,-144
2021-12-23 17:23:12.583293,-135
2021-12-23 17:23:12.583298,-142
2021-12-23 17:23:12.583302,-153
2021-12-23 17:23:12.583307,-184
2021-12-23 17:23:12.583314,-193
2021-12-23 17:23:12.583319,-153
2021-12-23 17:23:12.583323,-116
2021-12-23 17:23:12.583328,-107
2021-12-23 17:23:12.583332,-90
2021-12-23 17:23:12.583336,-51
2021-12-23 17:23:12.583341,83
2021-12-23 17:23:12.583345,307
2021-12-23 17:23:12.583350,345
2021-12-23 17:23:12.583354,-2
2021-12-23 17:23:12.583359,-526
2021-12-23 17:23:12.583363,-692
2021-12-23 17:23:12.583368,-324
2021-12-23 17:23:12.807925,-30
2021-12-23 17:23:12.807942,-37
2021-12-23 17:23:12.807947,23
2021-12-23 17:23:12.807952,114
2021-12-23 17:23:12.807956,76
2021-12-23 17:23:12.807961,46
2021-12-23 17:23:12.807965,79
2021-12-23 17:23:12.807970,104
2021-12-23 17:23:12.807974,104
2021-12-23 17:23:12.807979,88
2021-12-23 17:23:12.807983,65
2021-12-23 17:23:12.807988,81
2021-12-23 17:23:12.807992,125
2021-12-23 17:23:12.807996,149
2021-12-23 17:23:12.808001,158
2021-12-23 17:23:12.808005,149
2021-12-23 17:23:12.808010,135
2021-12-23 17:23:12.808014,172
2021-12-23 17:23:12.808019,226
2021-12-23 17:23:12.808023,244
2021-12-23 17:23:12.808027,251
2021-12-23 17:23:12.808032,237
2021-12-23 17:23:12.808036,212
2021-12-23 17:23:12.808041,205
2021-12-23 17:23:12.808045,186
2021-12-23 17:23:12.808049,121
2021-12-23 17:23:12.808054,30
2021-12-23 17:23:12.808058,-48
2021-12-23 17:23:12.808063,-97
2021-12-23 17:23:12.808067,-121
2021-12-23 17:23:13.078563,-132
2021-12-23 17:23:13.078579,-139
2021-12-23 17:23:13.078585,-156
2021-12-23 17:23:13.078589,-184
2021-12-23 17:23:13.078594,-184
2021-12-23 17:23:13.078598,-149
2021-12-23 17:23:13.078603,-135
2021-12-23 17:23:13.078607,-149
2021-12-23 17:23:13.078612,-158
2021-12-23 17:23:13.078616,-174
2021-12-23 17:23:13.078621,-177
2021-12-23 17:23:13.078625,-137
2021-12-23 17:23:13.078630,-104
2021-12-23 17:23:13.078634,-95
2021-12-23 17:23:13.078638,-95
2021-12-23 17:23:13.078643,-111
2021-12-23 17:23:13.078647,-109
2021-12-23 17:23:13.078652,-95
2021-12-23 17:23:13.078656,-104
2021-12-23 17:23:13.078660,-109
2021-12-23 17:23:13.078665,-125
2021-12-23 17:23:13.078669,-191
2021-12-23 17:23:13.078674,-228
2021-12-23 17:23:13.078678,-191
2021-12-23 17:23:13.078682,-160
2021-12-23 17:23:13.078687,-165
2021-12-23 17:23:13.078691,-174
2021-12-23 17:23:13.078696,-181
2021-12-23 17:23:13.078700,-165
2021-12-23 17:23:13.078704,-137
2021-12-23 17:23:13.258480,-121
2021-12-23 17:23:13.258495,-104
2021-12-23 17:23:13.258500,-95
2021-12-23 17:23:13.258505,-97
2021-12-23 17:23:13.258510,-83
2021-12-23 17:23:13.258514,-72
2021-12-23 17:23:13.258519,-79
2021-12-23 17:23:13.258523,-69
2021-12-23 17:23:13.258528,-62
2021-12-23 17:23:13.258532,-93
2021-12-23 17:23:13.258537,-102
2021-12-23 17:23:13.258541,-60
2021-12-23 17:23:13.258546,-37
2021-12-23 17:23:13.258550,-46
2021-12-23 17:23:13.258554,-60
2021-12-23 17:23:13.258559,-18
2021-12-23 17:23:13.258563,174
2021-12-23 17:23:13.258568,394
2021-12-23 17:23:13.258573,319
2021-12-23 17:23:13.258577,-130
2021-12-23 17:23:13.258582,-638
2021-12-23 17:23:13.258586,-659
2021-12-23 17:23:13.258591,-223
2021-12-23 17:23:13.258595,2
2021-12-23 17:23:13.258600,-18
2021-12-23 17:23:13.258604,55
2021-12-23 17:23:13.258609,102
2021-12-23 17:23:13.258614,65
2021-12-23 17:23:13.258618,81
2021-12-23 17:23:13.258623,125
2021-12-23 17:23:13.528497,137
2021-12-23 17:23:13.528513,142
2021-12-23 17:23:13.528518,142
2021-12-23 17:23:13.528523,144
2021-12-23 17:23:13.528527,174
2021-12-23 17:23:13.528532,209
2021-12-23 17:23:13.528536,221
2021-12-23 17:23:13.528541,202
2021-12-23 17:23:13.528545,198
2021-12-23 17:23:13.528550,237
2021-12-23 17:23:13.528554,265
2021-12-23 17:23:13.528559,249
2021-12-23 17:23:13.528563,247
2021-12-23 17:23:13.528568,251
2021-12-23 17:23:13.528573,221
2021-12-23 17:23:13.528577,205
2021-12-23 17:23:13.528582,209
2021-12-23 17:23:13.528586,174
2021-12-23 17:23:13.528591,86
2021-12-23 17:23:13.528595,-67
2021-12-23 17:23:13.528600,-149
2021-12-23 17:23:13.528604,-58
2021-12-23 17:23:13.528609,-46
2021-12-23 17:23:13.528613,-142
2021-12-23 17:23:13.528618,-153
2021-12-23 17:23:13.528622,-139
2021-12-23 17:23:13.528626,-179
2021-12-23 17:23:13.528631,-226
2021-12-23 17:23:13.528636,-228
2021-12-23 17:23:13.528640,-177
2021-12-23 17:23:13.752466,-146
2021-12-23 17:23:13.752483,-149
2021-12-23 17:23:13.752489,-137
2021-12-23 17:23:13.752494,-125
2021-12-23 17:23:13.752498,-123
2021-12-23 17:23:13.752503,-104
2021-12-23 17:23:13.752508,-107
2021-12-23 17:23:13.752512,-146
2021-12-23 17:23:13.752517,-149
2021-12-23 17:23:13.752521,-116
2021-12-23 17:23:13.752526,-123
2021-12-23 17:23:13.752530,-144
2021-12-23 17:23:13.752535,-149
2021-12-23 17:23:13.752539,-174
2021-12-23 17:23:13.752544,-198
2021-12-23 17:23:13.752548,-181
2021-12-23 17:23:13.752553,-160
2021-12-23 17:23:13.752557,-160
2021-12-23 17:23:13.752562,-174
2021-12-23 17:23:13.752567,-186
2021-12-23 17:23:13.752571,-179
2021-12-23 17:23:13.752576,-167
2021-12-23 17:23:13.752580,-160
2021-12-23 17:23:13.752585,-149
2021-12-23 17:23:13.752589,-135
2021-12-23 17:23:13.752594,-109
2021-12-23 17:23:13.752598,-83
2021-12-23 17:23:13.752603,-74
2021-12-23 17:23:13.752607,-69
2021-12-23 17:23:13.752612,-72
2021-12-23 17:23:14.021735,-97
2021-12-23 17:23:14.021751,-109
2021-12-23 17:23:14.021757,-88
2021-12-23 17:23:14.021761,-60
2021-12-23 17:23:14.021766,-48
2021-12-23 17:23:14.021770,-58
2021-12-23 17:23:14.021775,-121
2021-12-23 17:23:14.021779,-240
2021-12-23 17:23:14.021784,-230
2021-12-23 17:23:14.021788,-13
2021-12-23 17:23:14.021793,235
2021-12-23 17:23:14.021797,433
2021-12-23 17:23:14.021802,449
2021-12-23 17:23:14.021806,53
2021-12-23 17:23:14.021811,-571
2021-12-23 17:23:14.021815,-760
2021-12-23 17:23:14.021819,-375
2021-12-23 17:23:14.021824,-121
2021-12-23 17:23:14.021828,-142
2021-12-23 17:23:14.021833,-51
2021-12-23 17:23:14.021837,74
2021-12-23 17:23:14.021842,95
2021-12-23 17:23:14.021846,118
2021-12-23 17:23:14.021851,142
2021-12-23 17:23:14.021855,128
2021-12-23 17:23:14.021859,139
2021-12-23 17:23:14.021864,163
2021-12-23 17:23:14.021868,167
2021-12-23 17:23:14.021873,202
2021-12-23 17:23:14.021877,233
2021-12-23 17:23:14.158410,230
2021-12-23 17:23:14.158425,254
2021-12-23 17:23:14.158430,275
2021-12-23 17:23:14.158435,244
2021-12-23 17:23:14.158440,228
2021-12-23 17:23:14.158444,256
2021-12-23 17:23:14.158449,256
2021-12-23 17:23:14.158453,251
2021-12-23 17:23:14.158458,263
2021-12-23 17:23:14.158462,226
2021-12-23 17:23:14.158467,149
2021-12-23 17:23:14.158471,86
2021-12-23 17:23:14.158476,60
2021-12-23 17:23:14.158480,39
2021-12-23 17:23:14.158485,-11
2021-12-23 17:23:14.158489,-76
2021-12-23 17:23:14.158494,-130
2021-12-23 17:23:14.158498,-165
2021-12-23 17:23:14.158503,-172
2021-12-23 17:23:14.158507,-144
2021-12-23 17:23:14.158512,-130
2021-12-23 17:23:14.158516,-135
2021-12-23 17:23:14.158521,-123
2021-12-23 17:23:14.158525,-102
2021-12-23 17:23:14.158530,-76
2021-12-23 17:23:14.158534,-46
2021-12-23 17:23:14.158539,-37
2021-12-23 17:23:14.158543,-37
2021-12-23 17:23:14.158548,-20
2021-12-23 17:23:14.158552,-11
2021-12-23 17:23:14.428043,4
2021-12-23 17:23:14.428058,23
2021-12-23 17:23:14.428064,2
2021-12-23 17:23:14.428069,-39
2021-12-23 17:23:14.428073,-74
2021-12-23 17:23:14.428078,-107
2021-12-23 17:23:14.428082,-111
2021-12-23 17:23:14.428086,-90
2021-12-23 17:23:14.428091,-86
2021-12-23 17:23:14.428095,-97
2021-12-23 17:23:14.428100,-111
2021-12-23 17:23:14.428104,-118
2021-12-23 17:23:14.428108,-95
2021-12-23 17:23:14.428113,-67
2021-12-23 17:23:14.428120,-62
2021-12-23 17:23:14.428125,-76
2021-12-23 17:23:14.428129,-88
2021-12-23 17:23:14.428134,-83
2021-12-23 17:23:14.428138,-72
2021-12-23 17:23:14.428142,-88
2021-12-23 17:23:14.428147,-97
2021-12-23 17:23:14.428151,-76
2021-12-23 17:23:14.428156,-58
2021-12-23 17:23:14.428160,-46
2021-12-23 17:23:14.428164,-16
2021-12-23 17:23:14.428169,-2
2021-12-23 17:23:14.428173,-16
2021-12-23 17:23:14.428178,-37
2021-12-23 17:23:14.428182,-41
2021-12-23 17:23:14.428187,-20
2021-12-23 17:23:14.608486,-2
2021-12-23 17:23:14.608501,0
2021-12-23 17:23:14.608507,2
2021-12-23 17:23:14.608511,-25
2021-12-23 17:23:14.608516,-69
2021-12-23 17:23:14.608521,-55
2021-12-23 17:23:14.608525,65
2021-12-23 17:23:14.608530,319
2021-12-23 17:23:14.608534,554
2021-12-23 17:23:14.608539,405
2021-12-23 17:23:14.608543,-174
2021-12-23 17:23:14.608547,-603
2021-12-23 17:23:14.608552,-415
2021-12-23 17:23:14.608556,-58
2021-12-23 17:23:14.608561,-23
2021-12-23 17:23:14.608566,-60
2021-12-23 17:23:14.608570,30
2021-12-23 17:23:14.608574,83
2021-12-23 17:23:14.608579,69
2021-12-23 17:23:14.608584,83
2021-12-23 17:23:14.608588,102
2021-12-23 17:23:14.608592,69
2021-12-23 17:23:14.608597,55
2021-12-23 17:23:14.608601,102
2021-12-23 17:23:14.608606,146
2021-12-23 17:23:14.608610,174
2021-12-23 17:23:14.608614,200
2021-12-23 17:23:14.608619,191
2021-12-23 17:23:14.608623,186
2021-12-23 17:23:14.608628,230
2021-12-23 17:23:14.878531,289
2021-12-23 17:23:14.878548,314
2021-12-23 17:23:14.878553,312
2021-12-23 17:23:14.878558,286
2021-12-23 17:23:14.878562,256
2021-12-23 17:23:14.878567,258
2021-12-23 17:23:14.878571,263
2021-12-23 17:23:14.878576,240
2021-12-23 17:23:14.878580,174
2021-12-23 17:23:14.878584,72
2021-12-23 17:23:14.878589,-6
2021-12-23 17:23:14.878593,-37
2021-12-23 17:23:14.878598,-72
2021-12-23 17:23:14.878602,-104
2021-12-23 17:23:14.878606,-121
2021-12-23 17:23:14.878611,-128
2021-12-23 17:23:14.878615,-100
2021-12-23 17:23:14.878620,-48
2021-12-23 17:23:14.878624,-13
2021-12-23 17:23:14.878629,-2
2021-12-23 17:23:14.878633,-6
2021-12-23 17:23:14.878637,-6
2021-12-23 17:23:14.878642,9
2021-12-23 17:23:14.878646,0
2021-12-23 17:23:14.878651,-16
2021-12-23 17:23:14.878655,0
2021-12-23 17:23:14.878660,0
2021-12-23 17:23:14.878664,-20
2021-12-23 17:23:14.878668,-11
2021-12-23 17:23:14.878673,-11
2021-12-23 17:23:15.103080,-16
2021-12-23 17:23:15.103096,2
2021-12-23 17:23:15.103102,2
2021-12-23 17:23:15.103106,-11
2021-12-23 17:23:15.103111,4
2021-12-23 17:23:15.103116,23
2021-12-23 17:23:15.103120,23
2021-12-23 17:23:15.103125,20
2021-12-23 17:23:15.103129,-4
2021-12-23 17:23:15.103134,-30
2021-12-23 17:23:15.103138,-4
2021-12-23 17:23:15.103143,27
2021-12-23 17:23:15.103147,41
2021-12-23 17:23:15.103152,51
2021-12-23 17:23:15.103156,13
2021-12-23 17:23:15.103161,-60
2021-12-23 17:23:15.103165,-83
2021-12-23 17:23:15.103170,-41
2021-12-23 17:23:15.103174,-2
2021-12-23 17:23:15.103179,13
2021-12-23 17:23:15.103183,23
2021-12-23 17:23:15.103188,37
2021-12-23 17:23:15.103192,53
2021-12-23 17:23:15.103197,58
2021-12-23 17:23:15.103201,44
2021-12-23 17:23:15.103206,18
2021-12-23 17:23:15.103210,-4
2021-12-23 17:23:15.103215,6
2021-12-23 17:23:15.103219,41
2021-12-23 17:23:15.103224,58
2021-12-23 17:23:15.328495,69
2021-12-23 17:23:15.328511,72
2021-12-23 17:23:15.328517,55
2021-12-23 17:23:15.328521,116
2021-12-23 17:23:15.328526,375
2021-12-23 17:23:15.328530,701
2021-12-23 17:23:15.328535,708
2021-12-23 17:23:15.328540,184
2021-12-23 17:23:15.328544,-438
2021-12-23 17:23:15.328549,-452
2021-12-23 17:23:15.328553,-67
2021-12-23 17:23:15.328558,39
2021-12-23 17:23:15.328562,0
2021-12-23 17:23:15.328567,88
2021-12-23 17:23:15.328571,118
2021-12-23 17:23:15.328576,79
2021-12-23 17:23:15.328580,109
2021-12-23 17:23:15.328585,153
2021-12-23 17:23:15.328589,153
2021-12-23 17:23:15.328594,146
2021-12-23 17:23:15.328598,156
2021-12-23 17:23:15.328603,184
2021-12-23 17:23:15.328607,212
2021-12-23 17:23:15.328612,237
2021-12-23 17:23:15.328616,254
2021-12-23 17:23:15.328620,261
2021-12-23 17:23:15.328625,270
2021-12-23 17:23:15.328629,258
2021-12-23 17:23:15.328634,242
2021-12-23 17:23:15.328638,275
2021-12-23 17:23:15.553274,310
2021-12-23 17:23:15.553320,300
2021-12-23 17:23:15.553325,289
2021-12-23 17:23:15.553330,286
2021-12-23 17:23:15.553334,272
2021-12-23 17:23:15.553339,244
2021-12-23 17:23:15.553344,172
2021-12-23 17:23:15.553348,72
2021-12-23 17:23:15.553352,16
2021-12-23 17:23:15.553357,-18
2021-12-23 17:23:15.553361,-65
2021-12-23 17:23:15.553366,-86
2021-12-23 17:23:15.553370,-100
2021-12-23 17:23:15.553375,-132
2021-12-23 17:23:15.553379,-139
2021-12-23 17:23:15.553384,-114
2021-12-23 17:23:15.553388,-102
2021-12-23 17:23:15.553392,-90
2021-12-23 17:23:15.553397,-79
2021-12-23 17:23:15.553401,-81
2021-12-23 17:23:15.553406,-107
2021-12-23 17:23:15.553410,-156
2021-12-23 17:23:15.553415,-170
2021-12-23 17:23:15.553419,-149
2021-12-23 17:23:15.553423,-144
2021-12-23 17:23:15.553428,-139
2021-12-23 17:23:15.553432,-123
2021-12-23 17:23:15.553437,-125
2021-12-23 17:23:15.553441,-130
2021-12-23 17:23:15.553446,-137
2021-12-23 17:23:15.778426,-156
2021-12-23 17:23:15.778441,-151
2021-12-23 17:23:15.778446,-130
2021-12-23 17:23:15.778451,-125
2021-12-23 17:23:15.778456,-116
2021-12-23 17:23:15.778460,-114
2021-12-23 17:23:15.778464,-139
2021-12-23 17:23:15.778469,-146
2021-12-23 17:23:15.778473,-130
2021-12-23 17:23:15.778478,-128
2021-12-23 17:23:15.778482,-125
2021-12-23 17:23:15.778487,-128
2021-12-23 17:23:15.778491,-158
2021-12-23 17:23:15.778496,-158
2021-12-23 17:23:15.778500,-121
2021-12-23 17:23:15.778505,-107
2021-12-23 17:23:15.778509,-88
2021-12-23 17:23:15.778514,-55
2021-12-23 17:23:15.778518,-60
2021-12-23 17:23:15.778522,-86
2021-12-23 17:23:15.778527,-76
2021-12-23 17:23:15.778531,-58
2021-12-23 17:23:15.778536,-58
2021-12-23 17:23:15.778540,-48
2021-12-23 17:23:15.778545,-30
2021-12-23 17:23:15.778549,-27
2021-12-23 17:23:15.778554,-23
2021-12-23 17:23:15.778558,-6
2021-12-23 17:23:15.778563,9
2021-12-23 17:23:15.778567,60
2021-12-23 17:23:16.047124,261
2021-12-23 17:23:16.047141,536
2021-12-23 17:23:16.047146,536
2021-12-23 17:23:16.047151,65
2021-12-23 17:23:16.047156,-517
2021-12-23 17:23:16.047160,-559
2021-12-23 17:23:16.047165,-174
2021-12-23 17:23:16.047169,-51
2021-12-23 17:23:16.047174,-104
2021-12-23 17:23:16.047178,11
2021-12-23 17:23:16.047183,90
2021-12-23 17:23:16.047187,30
2021-12-23 17:23:16.047191,25
2021-12-23 17:23:16.047196,93
2021-12-23 17:23:16.047200,104
2021-12-23 17:23:16.047205,88
2021-12-23 17:23:16.047209,111
2021-12-23 17:23:16.047214,132
2021-12-23 17:23:16.047218,123
2021-12-23 17:23:16.047223,125
2021-12-23 17:23:16.047227,149
2021-12-23 17:23:16.047232,177
2021-12-23 17:23:16.047236,195
2021-12-23 17:23:16.047241,198
2021-12-23 17:23:16.047245,219
2021-12-23 17:23:16.047249,258
2021-12-23 17:23:16.047254,247
2021-12-23 17:23:16.047258,205
2021-12-23 17:23:16.047263,205
2021-12-23 17:23:16.047267,209
2021-12-23 17:23:16.228502,191
2021-12-23 17:23:16.228520,177
2021-12-23 17:23:16.228525,132
2021-12-23 17:23:16.228530,23
2021-12-23 17:23:16.228535,-93
2021-12-23 17:23:16.228539,-158
2021-12-23 17:23:16.228544,-179
2021-12-23 17:23:16.228548,-179
2021-12-23 17:23:16.228552,-186
2021-12-23 17:23:16.228557,-205
2021-12-23 17:23:16.228561,-237
2021-12-23 17:23:16.228566,-263
2021-12-23 17:23:16.228570,-240
2021-12-23 17:23:16.228575,-188
2021-12-23 17:23:16.228579,-193
2021-12-23 17:23:16.228584,-235
2021-12-23 17:23:16.228588,-228
2021-12-23 17:23:16.228593,-191
2021-12-23 17:23:16.228597,-165
2021-12-23 17:23:16.228601,-151
2021-12-23 17:23:16.228606,-139
2021-12-23 17:23:16.228610,-128
2021-12-23 17:23:16.228615,-123
2021-12-23 17:23:16.228619,-121
2021-12-23 17:23:16.228624,-107
2021-12-23 17:23:16.228628,-100
2021-12-23 17:23:16.228632,-109
2021-12-23 17:23:16.228637,-116
2021-12-23 17:23:16.228641,-118
2021-12-23 17:23:16.228646,-109
2021-12-23 17:23:16.453148,-74
2021-12-23 17:23:16.453164,-41
2021-12-23 17:23:16.453169,-55
2021-12-23 17:23:16.453174,-107
2021-12-23 17:23:16.453179,-144
2021-12-23 17:23:16.453183,-151
2021-12-23 17:23:16.453187,-149
2021-12-23 17:23:16.453192,-130
2021-12-23 17:23:16.453196,-100
2021-12-23 17:23:16.453200,-107
2021-12-23 17:23:16.453205,-125
2021-12-23 17:23:16.453209,-90
2021-12-23 17:23:16.453213,-58
2021-12-23 17:23:16.453218,-69
2021-12-23 17:23:16.453222,-79
2021-12-23 17:23:16.453226,-72
2021-12-23 17:23:16.453231,-72
2021-12-23 17:23:16.453235,-60
2021-12-23 17:23:16.453239,-32
2021-12-23 17:23:16.453244,-11
2021-12-23 17:23:16.453248,-13
2021-12-23 17:23:16.453252,-4
2021-12-23 17:23:16.453257,34
2021-12-23 17:23:16.453261,128
2021-12-23 17:23:16.453265,321
2021-12-23 17:23:16.453270,512
2021-12-23 17:23:16.453274,384
2021-12-23 17:23:16.453278,-160
2021-12-23 17:23:16.453283,-578
2021-12-23 17:23:16.453287,-354
2021-12-23 17:23:16.723060,16
2021-12-23 17:23:16.723077,-6
2021-12-23 17:23:16.723082,-90
2021-12-23 17:23:16.723087,-30
2021-12-23 17:23:16.723092,2
2021-12-23 17:23:16.723096,13
2021-12-23 17:23:16.723101,44
2021-12-23 17:23:16.723105,39
2021-12-23 17:23:16.723110,0
2021-12-23 17:23:16.723115,-9
2021-12-23 17:23:16.723119,13
2021-12-23 17:23:16.723124,27
2021-12-23 17:23:16.723128,39
2021-12-23 17:23:16.723133,69
2021-12-23 17:23:16.723137,74
2021-12-23 17:23:16.723142,58
2021-12-23 17:23:16.723146,97
2021-12-23 17:23:16.723151,160
2021-12-23 17:23:16.723155,198
2021-12-23 17:23:16.723160,237
2021-12-23 17:23:16.723164,261
2021-12-23 17:23:16.723169,244
2021-12-23 17:23:16.723173,249
2021-12-23 17:23:16.723178,256
2021-12-23 17:23:16.723182,207
2021-12-23 17:23:16.723187,132
2021-12-23 17:23:16.723191,55
2021-12-23 17:23:16.723196,-16
2021-12-23 17:23:16.723200,-55
2021-12-23 17:23:16.723205,-76
2021-12-23 17:23:17.037488,-102
2021-12-23 17:23:17.037505,-118
2021-12-23 17:23:17.037511,-151
2021-12-23 17:23:17.037516,-200
2021-12-23 17:23:17.037520,-198
2021-12-23 17:23:17.037525,-177
2021-12-23 17:23:17.037529,-200
2021-12-23 17:23:17.037534,-223
2021-12-23 17:23:17.037538,-233
2021-12-23 17:23:17.037543,-265
2021-12-23 17:23:17.037547,-265
2021-12-23 17:23:17.037552,-205
2021-12-23 17:23:17.037556,-160
2021-12-23 17:23:17.037561,-165
2021-12-23 17:23:17.037565,-216
2021-12-23 17:23:17.037570,-258
2021-12-23 17:23:17.037574,-226
2021-12-23 17:23:17.037578,-170
2021-12-23 17:23:17.037583,-156
2021-12-23 17:23:17.037619,-158
2021-12-23 17:23:17.037624,-158
2021-12-23 17:23:17.037628,-158
2021-12-23 17:23:17.037633,-137
2021-12-23 17:23:17.037637,-109
2021-12-23 17:23:17.037642,-111
2021-12-23 17:23:17.037646,-128
2021-12-23 17:23:17.037651,-142
2021-12-23 17:23:17.037655,-146
2021-12-23 17:23:17.037660,-125
2021-12-23 17:23:17.037664,-100
2021-12-23 17:23:17.218470,-81
2021-12-23 17:23:17.218486,-58
2021-12-23 17:23:17.218491,-51
2021-12-23 17:23:17.218496,-60
2021-12-23 17:23:17.218501,-69
2021-12-23 17:23:17.218505,-74
2021-12-23 17:23:17.218510,-69
2021-12-23 17:23:17.218514,-65
2021-12-23 17:23:17.218519,-107
2021-12-23 17:23:17.218523,-137
2021-12-23 17:23:17.218528,-97
2021-12-23 17:23:17.218532,-69
2021-12-23 17:23:17.218537,-114
2021-12-23 17:23:17.218541,-158
2021-12-23 17:23:17.218546,-146
2021-12-23 17:23:17.218550,-51
2021-12-23 17:23:17.218555,156
2021-12-23 17:23:17.218560,361
2021-12-23 17:23:17.218564,263
2021-12-23 17:23:17.218569,-235
2021-12-23 17:23:17.218574,-676
2021-12-23 17:23:17.218578,-531
2021-12-23 17:23:17.218583,-158
2021-12-23 17:23:17.218587,-125
2021-12-23 17:23:17.218591,-160
2021-12-23 17:23:17.218596,-41
2021-12-23 17:23:17.218600,4
2021-12-23 17:23:17.218605,-11
2021-12-23 17:23:17.218609,25
2021-12-23 17:23:17.218614,62
2021-12-23 17:23:17.398637,58
2021-12-23 17:23:17.398654,58
2021-12-23 17:23:17.398659,83
2021-12-23 17:23:17.398664,81
2021-12-23 17:23:17.398668,60
2021-12-23 17:23:17.398673,72
2021-12-23 17:23:17.398677,83
2021-12-23 17:23:17.398682,60
2021-12-23 17:23:17.398686,69
2021-12-23 17:23:17.398698,118
2021-12-23 17:23:17.398703,151
2021-12-23 17:23:17.398707,174
2021-12-23 17:23:17.398712,202
2021-12-23 17:23:17.398717,202
2021-12-23 17:23:17.398721,167
2021-12-23 17:23:17.398726,149
2021-12-23 17:23:17.398730,137
2021-12-23 17:23:17.398735,83
2021-12-23 17:23:17.398739,-13
2021-12-23 17:23:17.398744,-104
2021-12-23 17:23:17.398748,-144
2021-12-23 17:23:17.398753,-167
2021-12-23 17:23:17.398757,-191
2021-12-23 17:23:17.398762,-209
2021-12-23 17:23:17.398766,-228
2021-12-23 17:23:17.398771,-226
2021-12-23 17:23:17.398775,-223
2021-12-23 17:23:17.398780,-247
2021-12-23 17:23:17.398784,-268
2021-12-23 17:23:17.398789,-263
2021-12-23 17:23:17.623152,-249
2021-12-23 17:23:17.623167,-226
2021-12-23 17:23:17.623173,-207
2021-12-23 17:23:17.623177,-202
2021-12-23 17:23:17.623182,-181
2021-12-23 17:23:17.623187,-174
2021-12-23 17:23:17.623191,-209
2021-12-23 17:23:17.623196,-209
2021-12-23 17:23:17.623200,-165
2021-12-23 17:23:17.623205,-153
2021-12-23 17:23:17.623209,-156
2021-12-23 17:23:17.623214,-149
2021-12-23 17:23:17.623219,-165
2021-12-23 17:23:17.623225,-186
2021-12-23 17:23:17.623229,-219
2021-12-23 17:23:17.623234,-277
2021-12-23 17:23:17.623238,-298
2021-12-23 17:23:17.623243,-268
2021-12-23 17:23:17.623248,-251
2021-12-23 17:23:17.623252,-242
2021-12-23 17:23:17.623256,-212
2021-12-23 17:23:17.623261,-179
2021-12-23 17:23:17.623266,-156
2021-12-23 17:23:17.623270,-132
2021-12-23 17:23:17.623274,-121
2021-12-23 17:23:17.623279,-116
2021-12-23 17:23:17.623283,-123
2021-12-23 17:23:17.623288,-125
2021-12-23 17:23:17.623292,-116
2021-12-23 17:23:17.623297,-107
2021-12-23 17:23:17.848500,-74
2021-12-23 17:23:17.848517,-39
2021-12-23 17:23:17.848522,-65
2021-12-23 17:23:17.848527,-100
2021-12-23 17:23:17.848532,-74
2021-12-23 17:23:17.848536,-46
2021-12-23 17:23:17.848541,30
2021-12-23 17:23:17.848546,277
2021-12-23 17:23:17.848550,435
2021-12-23 17:23:17.848555,207
2021-12-23 17:23:17.848560,-300
2021-12-23 17:23:17.848564,-659
2021-12-23 17:23:17.848569,-468
2021-12-23 17:23:17.848573,-100
2021-12-23 17:23:17.848578,-58
2021-12-23 17:23:17.848582,-72
2021-12-23 17:23:17.848587,39
2021-12-23 17:23:17.848591,62
2021-12-23 17:23:17.848596,20
2021-12-23 17:23:17.848600,53
2021-12-23 17:23:17.848605,97
2021-12-23 17:23:17.848609,95
2021-12-23 17:23:17.848614,97
2021-12-23 17:23:17.848619,97
2021-12-23 17:23:17.848623,93
2021-12-23 17:23:17.848628,118
2021-12-23 17:23:17.848632,144
2021-12-23 17:23:17.848637,142
2021-12-23 17:23:17.848641,163
2021-12-23 17:23:17.848646,205
2021-12-23 17:23:18.116856,240
2021-12-23 17:23:18.116872,272
2021-12-23 17:23:18.116877,291
2021-12-23 17:23:18.116882,277
2021-12-23 17:23:18.116887,242
2021-12-23 17:23:18.116891,202
2021-12-23 17:23:18.116895,184
2021-12-23 17:23:18.116900,181
2021-12-23 17:23:18.116904,139
2021-12-23 17:23:18.116909,46
2021-12-23 17:23:18.116913,-46
2021-12-23 17:23:18.116918,-95
2021-12-23 17:23:18.116922,-116
2021-12-23 17:23:18.116927,-135
2021-12-23 17:23:18.116931,-163
2021-12-23 17:23:18.116936,-186
2021-12-23 17:23:18.116940,-186
2021-12-23 17:23:18.116944,-174
2021-12-23 17:23:18.116949,-153
2021-12-23 17:23:18.116953,-158
2021-12-23 17:23:18.116958,-221
2021-12-23 17:23:18.116962,-258
2021-12-23 17:23:18.116967,-237
2021-12-23 17:23:18.116971,-228
2021-12-23 17:23:18.116975,-209
2021-12-23 17:23:18.116980,-170
2021-12-23 17:23:18.116984,-160
2021-12-23 17:23:18.116989,-174
2021-12-23 17:23:18.116993,-170
2021-12-23 17:23:18.116998,-151
2021-12-23 17:23:18.343086,-139
2021-12-23 17:23:18.343103,-121
2021-12-23 17:23:18.343108,-109
2021-12-23 17:23:18.343113,-135
2021-12-23 17:23:18.343117,-170
2021-12-23 17:23:18.343122,-151
2021-12-23 17:23:18.343126,-118
2021-12-23 17:23:18.343131,-114
2021-12-23 17:23:18.343135,-111
2021-12-23 17:23:18.343140,-137
2021-12-23 17:23:18.343144,-177
2021-12-23 17:23:18.343148,-153
2021-12-23 17:23:18.343153,-100
2021-12-23 17:23:18.343157,-83
2021-12-23 17:23:18.343162,-76
2021-12-23 17:23:18.343166,-65
2021-12-23 17:23:18.343171,-51
2021-12-23 17:23:18.343175,-30
2021-12-23 17:23:18.343180,-25
2021-12-23 17:23:18.343184,-34
2021-12-23 17:23:18.343189,-34
2021-12-23 17:23:18.343193,-51
2021-12-23 17:23:18.343198,-72
2021-12-23 17:23:18.343202,-44
2021-12-23 17:23:18.343207,-4
2021-12-23 17:23:18.343211,2
2021-12-23 17:23:18.343216,4
2021-12-23 17:23:18.343220,9
2021-12-23 17:23:18.343224,16
2021-12-23 17:23:18.343229,142
2021-12-23 17:23:18.613542,408
2021-12-23 17:23:18.613558,554
2021-12-23 17:23:18.613563,347
2021-12-23 17:23:18.613568,-165
2021-12-23 17:23:18.613573,-531
2021-12-23 17:23:18.613577,-321
2021-12-23 17:23:18.613582,18
2021-12-23 17:23:18.613586,37
2021-12-23 17:23:18.613591,30
2021-12-23 17:23:18.613595,90
2021-12-23 17:23:18.613600,76
2021-12-23 17:23:18.613604,93
2021-12-23 17:23:18.613608,158
2021-12-23 17:23:18.613613,172
2021-12-23 17:23:18.613617,146
2021-12-23 17:23:18.613622,125
2021-12-23 17:23:18.613626,135
2021-12-23 17:23:18.613631,165
2021-12-23 17:23:18.613635,170
2021-12-23 17:23:18.613640,177
2021-12-23 17:23:18.613644,198
2021-12-23 17:23:18.613649,221
2021-12-23 17:23:18.613653,247
2021-12-23 17:23:18.613657,258
2021-12-23 17:23:18.613662,228
2021-12-23 17:23:18.613666,179
2021-12-23 17:23:18.613671,146
2021-12-23 17:23:18.613675,156
2021-12-23 17:23:18.613680,170
2021-12-23 17:23:18.613684,151
2021-12-23 17:23:18.837394,139
2021-12-23 17:23:18.837410,130
2021-12-23 17:23:18.837416,58
2021-12-23 17:23:18.837420,-41
2021-12-23 17:23:18.837425,-83
2021-12-23 17:23:18.837430,-100
2021-12-23 17:23:18.837434,-130
2021-12-23 17:23:18.837439,-156
2021-12-23 17:23:18.837443,-198
2021-12-23 17:23:18.837447,-228
2021-12-23 17:23:18.837452,-202
2021-12-23 17:23:18.837456,-165
2021-12-23 17:23:18.837461,-153
2021-12-23 17:23:18.837465,-142
2021-12-23 17:23:18.837470,-144
2021-12-23 17:23:18.837474,-151
2021-12-23 17:23:18.837479,-139
2021-12-23 17:23:18.837483,-123
2021-12-23 17:23:18.837487,-114
2021-12-23 17:23:18.837492,-146
2021-12-23 17:23:18.837496,-212
2021-12-23 17:23:18.837501,-214
2021-12-23 17:23:18.837505,-167
2021-12-23 17:23:18.837510,-153
2021-12-23 17:23:18.837514,-146
2021-12-23 17:23:18.837518,-132
2021-12-23 17:23:18.837523,-158
2021-12-23 17:23:18.837527,-188
2021-12-23 17:23:18.837532,-167
2021-12-23 17:23:18.837536,-132
2021-12-23 17:23:19.018538,-111
2021-12-23 17:23:19.018554,-102
2021-12-23 17:23:19.018560,-118
2021-12-23 17:23:19.018565,-142
2021-12-23 17:23:19.018569,-137
2021-12-23 17:23:19.018574,-114
2021-12-23 17:23:19.018578,-109
2021-12-23 17:23:19.018583,-125
2021-12-23 17:23:19.018587,-137
2021-12-23 17:23:19.018592,-118
2021-12-23 17:23:19.018596,-79
2021-12-23 17:23:19.018601,-53
2021-12-23 17:23:19.018605,-67
2021-12-23 17:23:19.018609,-118
2021-12-23 17:23:19.018614,-156
2021-12-23 17:23:19.018618,-135
2021-12-23 17:23:19.018623,-95
2021-12-23 17:23:19.018627,-79
2021-12-23 17:23:19.018632,-76
2021-12-23 17:23:19.018636,-76
2021-12-23 17:23:19.018641,-69
2021-12-23 17:23:19.018645,-46
2021-12-23 17:23:19.018650,-18
2021-12-23 17:23:19.018654,51
2021-12-23 17:23:19.018659,256
2021-12-23 17:23:19.018663,482
2021-12-23 17:23:19.018668,415
2021-12-23 17:23:19.018673,-76
2021-12-23 17:23:19.018677,-606
2021-12-23 17:23:19.018682,-538
2021-12-23 17:23:19.243511,-116
2021-12-23 17:23:19.243526,-67
2021-12-23 17:23:19.243532,-153
2021-12-23 17:23:19.243536,-16
2021-12-23 17:23:19.243541,48
2021-12-23 17:23:19.243546,0
2021-12-23 17:23:19.243550,11
2021-12-23 17:23:19.243555,32
2021-12-23 17:23:19.243559,27
2021-12-23 17:23:19.243564,44
2021-12-23 17:23:19.243568,65
2021-12-23 17:23:19.243573,88
2021-12-23 17:23:19.243578,97
2021-12-23 17:23:19.243582,83
2021-12-23 17:23:19.243587,104
2021-12-23 17:23:19.243591,151
2021-12-23 17:23:19.243596,174
2021-12-23 17:23:19.243600,205
2021-12-23 17:23:19.243605,240
2021-12-23 17:23:19.243609,261
2021-12-23 17:23:19.243614,270
2021-12-23 17:23:19.243618,261
2021-12-23 17:23:19.243623,240
2021-12-23 17:23:19.243628,214
2021-12-23 17:23:19.243632,188
2021-12-23 17:23:19.243637,158
2021-12-23 17:23:19.243641,114
2021-12-23 17:23:19.243646,39
2021-12-23 17:23:19.243650,-30
2021-12-23 17:23:19.243655,-72
2021-12-23 17:23:19.512948,-118
2021-12-23 17:23:19.512965,-144
2021-12-23 17:23:19.512970,-132
2021-12-23 17:23:19.512975,-144
2021-12-23 17:23:19.512979,-172
2021-12-23 17:23:19.512984,-172
2021-12-23 17:23:19.512988,-158
2021-12-23 17:23:19.512993,-146
2021-12-23 17:23:19.512997,-125
2021-12-23 17:23:19.513001,-107
2021-12-23 17:23:19.513006,-93
2021-12-23 17:23:19.513010,-90
2021-12-23 17:23:19.513015,-111
2021-12-23 17:23:19.513019,-121
2021-12-23 17:23:19.513023,-118
2021-12-23 17:23:19.513028,-125
2021-12-23 17:23:19.513032,-132
2021-12-23 17:23:19.513037,-146
2021-12-23 17:23:19.513041,-156
2021-12-23 17:23:19.513046,-149
2021-12-23 17:23:19.513050,-144
2021-12-23 17:23:19.513054,-144
2021-12-23 17:23:19.513059,-123
2021-12-23 17:23:19.513093,-102
2021-12-23 17:23:19.513098,-109
2021-12-23 17:23:19.513102,-111
2021-12-23 17:23:19.513107,-102
2021-12-23 17:23:19.513111,-104
2021-12-23 17:23:19.513116,-107
2021-12-23 17:23:19.513120,-95
2021-12-23 17:23:19.737388,-81
2021-12-23 17:23:19.737403,-76
2021-12-23 17:23:19.737408,-93
2021-12-23 17:23:19.737413,-95
2021-12-23 17:23:19.737417,-76
2021-12-23 17:23:19.737421,-93
2021-12-23 17:23:19.737426,-137
2021-12-23 17:23:19.737430,-172
2021-12-23 17:23:19.737435,-186
2021-12-23 17:23:19.737439,-167
2021-12-23 17:23:19.737443,-146
2021-12-23 17:23:19.737448,-170
2021-12-23 17:23:19.737452,-181
2021-12-23 17:23:19.737456,-135
2021-12-23 17:23:19.737461,-100
2021-12-23 17:23:19.737465,-95
2021-12-23 17:23:19.737470,-65
2021-12-23 17:23:19.737474,44
2021-12-23 17:23:19.737479,268
2021-12-23 17:23:19.737483,401
2021-12-23 17:23:19.737487,137
2021-12-23 17:23:19.737492,-431
2021-12-23 17:23:19.737496,-683
2021-12-23 17:23:19.737501,-326
2021-12-23 17:23:19.737505,6
2021-12-23 17:23:19.737509,-11
2021-12-23 17:23:19.737514,16
2021-12-23 17:23:19.737518,111
2021-12-23 17:23:19.737523,65
2021-12-23 17:23:19.737527,25
2021-12-23 17:23:19.918618,97
2021-12-23 17:23:19.918634,149
2021-12-23 17:23:19.918640,146
2021-12-23 17:23:19.918644,132
2021-12-23 17:23:19.918649,83
2021-12-23 17:23:19.918656,60
2021-12-23 17:23:19.918661,116
2021-12-23 17:23:19.918665,163
2021-12-23 17:23:19.918670,167
2021-12-23 17:23:19.918674,181
2021-12-23 17:23:19.918679,193
2021-12-23 17:23:19.918683,200
2021-12-23 17:23:19.918688,240
2021-12-23 17:23:19.918692,286
2021-12-23 17:23:19.918697,296
2021-12-23 17:23:19.918701,277
2021-12-23 17:23:19.918706,244
2021-12-23 17:23:19.918710,205
2021-12-23 17:23:19.918715,167
2021-12-23 17:23:19.918719,137
2021-12-23 17:23:19.918724,79
2021-12-23 17:23:19.918728,-2
2021-12-23 17:23:19.918733,-65
2021-12-23 17:23:19.918737,-102
2021-12-23 17:23:19.918741,-121
2021-12-23 17:23:19.918746,-121
2021-12-23 17:23:19.918750,-121
2021-12-23 17:23:19.918755,-132
2021-12-23 17:23:19.918759,-137
2021-12-23 17:23:19.918764,-109
2021-12-23 17:23:20.231725,-72
2021-12-23 17:23:20.231741,-55
2021-12-23 17:23:20.231747,-44
2021-12-23 17:23:20.231751,-62
2021-12-23 17:23:20.231756,-111
2021-12-23 17:23:20.231760,-107
2021-12-23 17:23:20.231765,-72
2021-12-23 17:23:20.231769,-67
2021-12-23 17:23:20.231774,-65
2021-12-23 17:23:20.231778,-95
2021-12-23 17:23:20.231783,-158
2021-12-23 17:23:20.231787,-146
2021-12-23 17:23:20.231792,-125
2021-12-23 17:23:20.231796,-193
2021-12-23 17:23:20.231801,-249
2021-12-23 17:23:20.231805,-226
2021-12-23 17:23:20.231810,-209
2021-12-23 17:23:20.231814,-205
2021-12-23 17:23:20.231818,-177
2021-12-23 17:23:20.231823,-158
2021-12-23 17:23:20.231827,-165
2021-12-23 17:23:20.231832,-174
2021-12-23 17:23:20.231836,-156
2021-12-23 17:23:20.231841,-123
2021-12-23 17:23:20.231845,-93
2021-12-23 17:23:20.231850,-60
2021-12-23 17:23:20.231854,-53
2021-12-23 17:23:20.231859,-86
2021-12-23 17:23:20.231863,-95
2021-12-23 17:23:20.231868,-53
2021-12-23 17:23:20.458432,-39
2021-12-23 17:23:20.458447,-72
2021-12-23 17:23:20.458453,-83
2021-12-23 17:23:20.458457,-69
2021-12-23 17:23:20.458462,-48
2021-12-23 17:23:20.458466,-20
2021-12-23 17:23:20.458471,4
2021-12-23 17:23:20.458475,13
2021-12-23 17:23:20.458480,2
2021-12-23 17:23:20.458484,67
2021-12-23 17:23:20.458489,279
2021-12-23 17:23:20.458493,363
2021-12-23 17:23:20.458498,44
2021-12-23 17:23:20.458502,-473
2021-12-23 17:23:20.458507,-634
2021-12-23 17:23:20.458511,-347
2021-12-23 17:23:20.458516,-146
2021-12-23 17:23:20.458520,-123
2021-12-23 17:23:20.458525,0
2021-12-23 17:23:20.458530,114
2021-12-23 17:23:20.458534,81
2021-12-23 17:23:20.458539,48
2021-12-23 17:23:20.458543,88
2021-12-23 17:23:20.458548,132
2021-12-23 17:23:20.458552,156
2021-12-23 17:23:20.458556,181
2021-12-23 17:23:20.458561,181
2021-12-23 17:23:20.458565,132
2021-12-23 17:23:20.458570,111
2021-12-23 17:23:20.458574,165
2021-12-23 17:23:20.638145,219
2021-12-23 17:23:20.638159,235
2021-12-23 17:23:20.638165,242
2021-12-23 17:23:20.638170,256
2021-12-23 17:23:20.638174,282
2021-12-23 17:23:20.638179,307
2021-12-23 17:23:20.638184,321
2021-12-23 17:23:20.638188,307
2021-12-23 17:23:20.638193,263
2021-12-23 17:23:20.638197,200
2021-12-23 17:23:20.638202,116
2021-12-23 17:23:20.638206,27
2021-12-23 17:23:20.638211,-18
2021-12-23 17:23:20.638215,-55
2021-12-23 17:23:20.638220,-128
2021-12-23 17:23:20.638225,-174
2021-12-23 17:23:20.638229,-172
2021-12-23 17:23:20.638234,-174
2021-12-23 17:23:20.638238,-198
2021-12-23 17:23:20.638243,-251
2021-12-23 17:23:20.638247,-310
2021-12-23 17:23:20.638252,-296
2021-12-23 17:23:20.638256,-242
2021-12-23 17:23:20.638261,-207
2021-12-23 17:23:20.638265,-181
2021-12-23 17:23:20.638270,-163
2021-12-23 17:23:20.638274,-170
2021-12-23 17:23:20.638279,-165
2021-12-23 17:23:20.638283,-130
2021-12-23 17:23:20.638288,-104
2021-12-23 17:23:20.863043,-100
2021-12-23 17:23:20.863059,-100
2021-12-23 17:23:20.863064,-109
2021-12-23 17:23:20.863069,-130
2021-12-23 17:23:20.863073,-137
2021-12-23 17:23:20.863078,-125
2021-12-23 17:23:20.863082,-151
2021-12-23 17:23:20.863086,-209
2021-12-23 17:23:20.863091,-223
2021-12-23 17:23:20.863095,-200
2021-12-23 17:23:20.863100,-191
2021-12-23 17:23:20.863104,-188
2021-12-23 17:23:20.863108,-177
2021-12-23 17:23:20.863113,-195
2021-12-23 17:23:20.863117,-263
2021-12-23 17:23:20.863121,-291
2021-12-23 17:23:20.863126,-219
2021-12-23 17:23:20.863130,-153
2021-12-23 17:23:20.863135,-144
2021-12-23 17:23:20.863139,-144
2021-12-23 17:23:20.863143,-172
2021-12-23 17:23:20.863148,-195
2021-12-23 17:23:20.863152,-153
2021-12-23 17:23:20.863156,-118
2021-12-23 17:23:20.863161,-125
2021-12-23 17:23:20.863165,-107
2021-12-23 17:23:20.863170,-62
2021-12-23 17:23:20.863174,-48
2021-12-23 17:23:20.863178,-53
2021-12-23 17:23:20.863183,-20
2021-12-23 17:23:21.088396,74
2021-12-23 17:23:21.088413,261
2021-12-23 17:23:21.088418,398
2021-12-23 17:23:21.088423,207
2021-12-23 17:23:21.088428,-305
2021-12-23 17:23:21.088432,-666
2021-12-23 17:23:21.088437,-473
2021-12-23 17:23:21.088441,-128
2021-12-23 17:23:21.088446,-79
2021-12-23 17:23:21.088451,-51
2021-12-23 17:23:21.088455,74
2021-12-23 17:23:21.088460,93
2021-12-23 17:23:21.088464,41
2021-12-23 17:23:21.088469,41
2021-12-23 17:23:21.088473,51
2021-12-23 17:23:21.088478,46
2021-12-23 17:23:21.088483,79
2021-12-23 17:23:21.088487,102
2021-12-23 17:23:21.088492,74
2021-12-23 17:23:21.088496,93
2021-12-23 17:23:21.088501,167
2021-12-23 17:23:21.088505,181
2021-12-23 17:23:21.088510,170
2021-12-23 17:23:21.088514,212
2021-12-23 17:23:21.088518,242
2021-12-23 17:23:21.088523,214
2021-12-23 17:23:21.088528,198
2021-12-23 17:23:21.088532,230
2021-12-23 17:23:21.088537,244
2021-12-23 17:23:21.088541,226
2021-12-23 17:23:21.313489,205
2021-12-23 17:23:21.313506,184
2021-12-23 17:23:21.313512,132
2021-12-23 17:23:21.313517,51
2021-12-23 17:23:21.313521,-18
2021-12-23 17:23:21.313526,-67
2021-12-23 17:23:21.313530,-144
2021-12-23 17:23:21.313535,-184
2021-12-23 17:23:21.313539,-170
2021-12-23 17:23:21.313544,-179
2021-12-23 17:23:21.313548,-193
2021-12-23 17:23:21.313561,-198
2021-12-23 17:23:21.313565,-219
2021-12-23 17:23:21.313570,-205
2021-12-23 17:23:21.313574,-158
2021-12-23 17:23:21.313579,-153
2021-12-23 17:23:21.313583,-170
2021-12-23 17:23:21.313588,-158
2021-12-23 17:23:21.313592,-130
2021-12-23 17:23:21.313596,-102
2021-12-23 17:23:21.313601,-74
2021-12-23 17:23:21.313605,-67
2021-12-23 17:23:21.313610,-67
2021-12-23 17:23:21.313614,-55
2021-12-23 17:23:21.313619,-46
2021-12-23 17:23:21.313623,-48
2021-12-23 17:23:21.313628,-55
2021-12-23 17:23:21.313632,-67
2021-12-23 17:23:21.313637,-86
2021-12-23 17:23:21.313642,-100
2021-12-23 17:23:21.537929,-90
2021-12-23 17:23:21.537945,-72
2021-12-23 17:23:21.537951,-67
2021-12-23 17:23:21.537955,-67
2021-12-23 17:23:21.537960,-69
2021-12-23 17:23:21.537964,-93
2021-12-23 17:23:21.537969,-104
2021-12-23 17:23:21.537973,-55
2021-12-23 17:23:21.537977,-11
2021-12-23 17:23:21.537982,-13
2021-12-23 17:23:21.537986,-27
2021-12-23 17:23:21.537990,-55
2021-12-23 17:23:21.537995,-79
2021-12-23 17:23:21.537999,-53
2021-12-23 17:23:21.538004,-20
2021-12-23 17:23:21.538008,-27
2021-12-23 17:23:21.538013,-44
2021-12-23 17:23:21.538017,-60
2021-12-23 17:23:21.538021,-93
2021-12-23 17:23:21.538026,-93
2021-12-23 17:23:21.538030,-46
2021-12-23 17:23:21.538034,25
2021-12-23 17:23:21.538039,200
2021-12-23 17:23:21.538043,405
2021-12-23 17:23:21.538048,340
2021-12-23 17:23:21.538052,-90
2021-12-23 17:23:21.538057,-554
2021-12-23 17:23:21.538061,-536
2021-12-23 17:23:21.538065,-137
2021-12-23 17:23:21.538070,23
2021-12-23 17:23:21.763495,-23
2021-12-23 17:23:21.763512,16
2021-12-23 17:23:21.763517,48
2021-12-23 17:23:21.763522,30
2021-12-23 17:23:21.763527,23
2021-12-23 17:23:21.763531,25
2021-12-23 17:23:21.763535,44
2021-12-23 17:23:21.763540,81
2021-12-23 17:23:21.763544,104
2021-12-23 17:23:21.763549,97
2021-12-23 17:23:21.763553,86
2021-12-23 17:23:21.763558,97
2021-12-23 17:23:21.763562,135
2021-12-23 17:23:21.763567,158
2021-12-23 17:23:21.763571,179
2021-12-23 17:23:21.763576,198
2021-12-23 17:23:21.763580,207
2021-12-23 17:23:21.763585,230
2021-12-23 17:23:21.763589,270
2021-12-23 17:23:21.763594,279
2021-12-23 17:23:21.763598,242
2021-12-23 17:23:21.763602,193
2021-12-23 17:23:21.763607,167
2021-12-23 17:23:21.763611,144
2021-12-23 17:23:21.763616,76
2021-12-23 17:23:21.763620,-2
2021-12-23 17:23:21.763624,-51
2021-12-23 17:23:21.763629,-100
2021-12-23 17:23:21.763633,-149
2021-12-23 17:23:21.763638,-158
2021-12-23 17:23:22.033501,-151
2021-12-23 17:23:22.033518,-144
2021-12-23 17:23:22.033523,-144
2021-12-23 17:23:22.033528,-170
2021-12-23 17:23:22.033532,-200
2021-12-23 17:23:22.033537,-174
2021-12-23 17:23:22.033541,-125
2021-12-23 17:23:22.033546,-107
2021-12-23 17:23:22.033550,-93
2021-12-23 17:23:22.033555,-102
2021-12-23 17:23:22.033559,-121
2021-12-23 17:23:22.033563,-95
2021-12-23 17:23:22.033568,-62
2021-12-23 17:23:22.033572,-58
2021-12-23 17:23:22.033577,-60
2021-12-23 17:23:22.033581,-76
2021-12-23 17:23:22.033586,-107
2021-12-23 17:23:22.033590,-109
2021-12-23 17:23:22.033595,-104
2021-12-23 17:23:22.033599,-123
2021-12-23 17:23:22.033604,-135
2021-12-23 17:23:22.033608,-135
2021-12-23 17:23:22.033613,-160
2021-12-23 17:23:22.033617,-172
2021-12-23 17:23:22.033622,-151
2021-12-23 17:23:22.033626,-139
2021-12-23 17:23:22.033630,-142
2021-12-23 17:23:22.033635,-144
2021-12-23 17:23:22.033639,-128
2021-12-23 17:23:22.033644,-93
2021-12-23 17:23:22.302147,-69
2021-12-23 17:23:22.302164,-65
2021-12-23 17:23:22.302170,-83
2021-12-23 17:23:22.302174,-125
2021-12-23 17:23:22.302179,-130
2021-12-23 17:23:22.302183,-86
2021-12-23 17:23:22.302188,-93
2021-12-23 17:23:22.302192,-156
2021-12-23 17:23:22.302197,-181
2021-12-23 17:23:22.302201,-177
2021-12-23 17:23:22.302205,-158
2021-12-23 17:23:22.302210,-111
2021-12-23 17:23:22.302214,-41
2021-12-23 17:23:22.302219,114
2021-12-23 17:23:22.302223,352
2021-12-23 17:23:22.302228,403
2021-12-23 17:23:22.302232,55
2021-12-23 17:23:22.302236,-512
2021-12-23 17:23:22.302241,-699
2021-12-23 17:23:22.302245,-303
2021-12-23 17:23:22.302250,-32
2021-12-23 17:23:22.302254,-102
2021-12-23 17:23:22.302258,-32
2021-12-23 17:23:22.302263,104
2021-12-23 17:23:22.302267,62
2021-12-23 17:23:22.302272,27
2021-12-23 17:23:22.302276,67
2021-12-23 17:23:22.302280,65
2021-12-23 17:23:22.302285,65
2021-12-23 17:23:22.302289,107
2021-12-23 17:23:22.483389,135
2021-12-23 17:23:22.483405,149
2021-12-23 17:23:22.483410,151
2021-12-23 17:23:22.483415,156
2021-12-23 17:23:22.483419,191
2021-12-23 17:23:22.483423,237
2021-12-23 17:23:22.483428,270
2021-12-23 17:23:22.483432,286
2021-12-23 17:23:22.483437,268
2021-12-23 17:23:22.483441,244
2021-12-23 17:23:22.483445,263
2021-12-23 17:23:22.483450,282
2021-12-23 17:23:22.483454,268
2021-12-23 17:23:22.483459,233
2021-12-23 17:23:22.483463,160
2021-12-23 17:23:22.483468,76
2021-12-23 17:23:22.483472,13
2021-12-23 17:23:22.483476,-58
2021-12-23 17:23:22.483481,-128
2021-12-23 17:23:22.483485,-158
2021-12-23 17:23:22.483490,-188
2021-12-23 17:23:22.483494,-230
2021-12-23 17:23:22.483499,-221
2021-12-23 17:23:22.483503,-177
2021-12-23 17:23:22.483507,-153
2021-12-23 17:23:22.483512,-156
2021-12-23 17:23:22.483516,-156
2021-12-23 17:23:22.483521,-144
2021-12-23 17:23:22.483525,-125
2021-12-23 17:23:22.483530,-118
2021-12-23 17:23:22.708040,-88
2021-12-23 17:23:22.708057,-51
2021-12-23 17:23:22.708063,-62
2021-12-23 17:23:22.708067,-81
2021-12-23 17:23:22.708072,-39
2021-12-23 17:23:22.708076,-2
2021-12-23 17:23:22.708081,-18
2021-12-23 17:23:22.708085,-53
2021-12-23 17:23:22.708090,-79
2021-12-23 17:23:22.708094,-93
2021-12-23 17:23:22.708099,-88
2021-12-23 17:23:22.708103,-86
2021-12-23 17:23:22.708108,-160
2021-12-23 17:23:22.708112,-268
2021-12-23 17:23:22.708117,-272
2021-12-23 17:23:22.708121,-223
2021-12-23 17:23:22.708125,-207
2021-12-23 17:23:22.708130,-198
2021-12-23 17:23:22.708134,-188
2021-12-23 17:23:22.708139,-221
2021-12-23 17:23:22.708143,-251
2021-12-23 17:23:22.708148,-212
2021-12-23 17:23:22.708152,-160
2021-12-23 17:23:22.708156,-160
2021-12-23 17:23:22.708161,-174
2021-12-23 17:23:22.708165,-142
2021-12-23 17:23:22.708170,-102
2021-12-23 17:23:22.708174,-121
2021-12-23 17:23:22.708178,-156
2021-12-23 17:23:22.708183,-151
2021-12-23 17:23:22.933459,-116
2021-12-23 17:23:22.933475,-104
2021-12-23 17:23:22.933481,-109
2021-12-23 17:23:22.933486,-46
2021-12-23 17:23:22.933490,167
2021-12-23 17:23:22.933495,408
2021-12-23 17:23:22.933499,296
2021-12-23 17:23:22.933504,-286
2021-12-23 17:23:22.933508,-743
2021-12-23 17:23:22.933513,-505
2021-12-23 17:23:22.933517,-76
2021-12-23 17:23:22.933521,-55
2021-12-23 17:23:22.933526,-111
2021-12-23 17:23:22.933530,0
2021-12-23 17:23:22.933535,55
2021-12-23 17:23:22.933539,44
2021-12-23 17:23:22.933544,74
2021-12-23 17:23:22.933548,107
2021-12-23 17:23:22.933553,104
2021-12-23 17:23:22.933557,114
2021-12-23 17:23:22.933562,139
2021-12-23 17:23:22.933566,149
2021-12-23 17:23:22.933571,160
2021-12-23 17:23:22.933575,188
2021-12-23 17:23:22.933580,202
2021-12-23 17:23:22.933584,223
2021-12-23 17:23:22.933589,263
2021-12-23 17:23:22.933594,272
2021-12-23 17:23:22.933598,282
2021-12-23 17:23:22.933602,319
2021-12-23 17:23:23.158482,284
2021-12-23 17:23:23.158498,226
2021-12-23 17:23:23.158504,282
2021-12-23 17:23:23.158508,305
2021-12-23 17:23:23.158513,235
2021-12-23 17:23:23.158517,170
2021-12-23 17:23:23.158522,81
2021-12-23 17:23:23.158526,0
2021-12-23 17:23:23.158572,-16
2021-12-23 17:23:23.158577,-48
2021-12-23 17:23:23.158582,-109
2021-12-23 17:23:23.158586,-160
2021-12-23 17:23:23.158591,-209
2021-12-23 17:23:23.158595,-212
2021-12-23 17:23:23.158600,-181
2021-12-23 17:23:23.158604,-177
2021-12-23 17:23:23.158609,-156
2021-12-23 17:23:23.158613,-132
2021-12-23 17:23:23.158618,-160
2021-12-23 17:23:23.158622,-172
2021-12-23 17:23:23.158627,-135
2021-12-23 17:23:23.158631,-118
2021-12-23 17:23:23.158636,-116
2021-12-23 17:23:23.158640,-93
2021-12-23 17:23:23.158645,-81
2021-12-23 17:23:23.158650,-81
2021-12-23 17:23:23.158654,-62
2021-12-23 17:23:23.158658,-48
2021-12-23 17:23:23.158663,-51
2021-12-23 17:23:23.158668,-53
2021-12-23 17:23:23.428006,-48
2021-12-23 17:23:23.428021,-37
2021-12-23 17:23:23.428027,-74
2021-12-23 17:23:23.428032,-139
2021-12-23 17:23:23.428036,-158
2021-12-23 17:23:23.428041,-172
2021-12-23 17:23:23.428045,-198
2021-12-23 17:23:23.428050,-181
2021-12-23 17:23:23.428054,-151
2021-12-23 17:23:23.428059,-144
2021-12-23 17:23:23.428063,-153
2021-12-23 17:23:23.428068,-184
2021-12-23 17:23:23.428073,-186
2021-12-23 17:23:23.428077,-151
2021-12-23 17:23:23.428082,-135
2021-12-23 17:23:23.428086,-137
2021-12-23 17:23:23.428091,-132
2021-12-23 17:23:23.428095,-137
2021-12-23 17:23:23.428100,-118
2021-12-23 17:23:23.428104,-72
2021-12-23 17:23:23.428109,-53
2021-12-23 17:23:23.428113,-44
2021-12-23 17:23:23.428118,16
2021-12-23 17:23:23.428122,181
2021-12-23 17:23:23.428127,352
2021-12-23 17:23:23.428131,251
2021-12-23 17:23:23.428136,-195
2021-12-23 17:23:23.428140,-617
2021-12-23 17:23:23.428145,-543
2021-12-23 17:23:23.428149,-165
2021-12-23 17:23:23.608400,-53
2021-12-23 17:23:23.608415,-97
2021-12-23 17:23:23.608421,13
2021-12-23 17:23:23.608426,95
2021-12-23 17:23:23.608430,39
2021-12-23 17:23:23.608435,20
2021-12-23 17:23:23.608439,79
2021-12-23 17:23:23.608444,104
2021-12-23 17:23:23.608448,107
2021-12-23 17:23:23.608453,128
2021-12-23 17:23:23.608457,123
2021-12-23 17:23:23.608462,102
2021-12-23 17:23:23.608467,142
2021-12-23 17:23:23.608471,195
2021-12-23 17:23:23.608476,179
2021-12-23 17:23:23.608480,163
2021-12-23 17:23:23.608485,193
2021-12-23 17:23:23.608489,207
2021-12-23 17:23:23.608494,209
2021-12-23 17:23:23.608498,235
2021-12-23 17:23:23.608503,254
2021-12-23 17:23:23.608507,158
2021-12-23 17:23:23.608512,-18
2021-12-23 17:23:23.608516,-13
2021-12-23 17:23:23.608521,107
2021-12-23 17:23:23.608525,65
2021-12-23 17:23:23.608530,-23
2021-12-23 17:23:23.608534,-48
2021-12-23 17:23:23.608539,-114
2021-12-23 17:23:23.608543,-160
2021-12-23 17:23:23.923039,-142
2021-12-23 17:23:23.923056,-174
2021-12-23 17:23:23.923061,-240
2021-12-23 17:23:23.923065,-216
2021-12-23 17:23:23.923070,-207
2021-12-23 17:23:23.923074,-261
