Time,ECG
2021-12-23 17:48:02.041703,-107
2021-12-23 17:48:02.041718,-88
2021-12-23 17:48:02.041724,-93
2021-12-23 17:48:02.041729,-88
2021-12-23 17:48:02.041733,-95
2021-12-23 17:48:02.041738,-109
2021-12-23 17:48:02.041743,-90
2021-12-23 17:48:02.041747,-74
2021-12-23 17:48:02.041752,-67
2021-12-23 17:48:02.041757,69
2021-12-23 17:48:02.041762,377
2021-12-23 17:48:02.041766,575
2021-12-23 17:48:02.041771,410
2021-12-23 17:48:02.041775,-97
2021-12-23 17:48:02.041780,-554
2021-12-23 17:48:02.041785,-473
2021-12-23 17:48:02.041789,-156
2021-12-23 17:48:02.041794,-100
2021-12-23 17:48:02.041799,-74
2021-12-23 17:48:02.041803,58
2021-12-23 17:48:02.041808,74
2021-12-23 17:48:02.041812,30
2021-12-23 17:48:02.041817,55
2021-12-23 17:48:02.041821,95
2021-12-23 17:48:02.041826,109
2021-12-23 17:48:02.041831,128
2021-12-23 17:48:02.041836,149
2021-12-23 17:48:02.041840,149
2021-12-23 17:48:02.041845,151
2021-12-23 17:48:02.041849,179
2021-12-23 17:48:02.321153,214
2021-12-23 17:48:02.321185,240
2021-12-23 17:48:02.321197,261
2021-12-23 17:48:02.321208,272
2021-12-23 17:48:02.321218,272
2021-12-23 17:48:02.321228,310
2021-12-23 17:48:02.321272,375
2021-12-23 17:48:02.321282,410
2021-12-23 17:48:02.321292,415
2021-12-23 17:48:02.321302,408
2021-12-23 17:48:02.321312,375
2021-12-23 17:48:02.321322,347
2021-12-23 17:48:02.321332,312
2021-12-23 17:48:02.321342,249
2021-12-23 17:48:02.321352,160
2021-12-23 17:48:02.321361,53
2021-12-23 17:48:02.321371,-37
2021-12-23 17:48:02.321382,-69
2021-12-23 17:48:02.321392,-90
2021-12-23 17:48:02.321402,-118
2021-12-23 17:48:02.321412,-132
2021-12-23 17:48:02.321422,-142
2021-12-23 17:48:02.321432,-149
2021-12-23 17:48:02.321442,-132
2021-12-23 17:48:02.321452,-104
2021-12-23 17:48:02.321461,-83
2021-12-23 17:48:02.321472,-79
2021-12-23 17:48:02.321481,-90
2021-12-23 17:48:02.321491,-72
2021-12-23 17:48:02.321505,-27
2021-12-23 17:48:02.501957,-18
2021-12-23 17:48:02.501988,-39
2021-12-23 17:48:02.501999,-58
2021-12-23 17:48:02.502010,-90
2021-12-23 17:48:02.502020,-104
2021-12-23 17:48:02.502030,-69
2021-12-23 17:48:02.502040,-48
2021-12-23 17:48:02.502050,-53
2021-12-23 17:48:02.502059,-53
2021-12-23 17:48:02.502069,-55
2021-12-23 17:48:02.502079,-55
2021-12-23 17:48:02.502089,-48
2021-12-23 17:48:02.502100,-65
2021-12-23 17:48:02.502116,-76
2021-12-23 17:48:02.502126,-81
2021-12-23 17:48:02.502136,-111
2021-12-23 17:48:02.502146,-111
2021-12-23 17:48:02.502156,-76
2021-12-23 17:48:02.502167,-67
2021-12-23 17:48:02.502177,-74
2021-12-23 17:48:02.502187,-88
2021-12-23 17:48:02.502197,-114
2021-12-23 17:48:02.502207,-111
2021-12-23 17:48:02.502217,-95
2021-12-23 17:48:02.502227,-102
2021-12-23 17:48:02.502237,-116
2021-12-23 17:48:02.502246,-135
2021-12-23 17:48:02.502256,-142
2021-12-23 17:48:02.502266,-118
2021-12-23 17:48:02.502279,-104
2021-12-23 17:48:02.771589,-102
2021-12-23 17:48:02.771620,-100
2021-12-23 17:48:02.771632,-109
2021-12-23 17:48:02.771642,-121
2021-12-23 17:48:02.771652,-107
2021-12-23 17:48:02.771662,-72
2021-12-23 17:48:02.771672,-39
2021-12-23 17:48:02.771682,-37
2021-12-23 17:48:02.771692,-67
2021-12-23 17:48:02.771702,-74
2021-12-23 17:48:02.771712,-60
2021-12-23 17:48:02.771721,-58
2021-12-23 17:48:02.771731,-51
2021-12-23 17:48:02.771741,-44
2021-12-23 17:48:02.771751,-69
2021-12-23 17:48:02.771761,-93
2021-12-23 17:48:02.771770,-65
2021-12-23 17:48:02.771786,-37
2021-12-23 17:48:02.771796,-37
2021-12-23 17:48:02.771806,-46
2021-12-23 17:48:02.771816,-69
2021-12-23 17:48:02.771826,-65
2021-12-23 17:48:02.771836,-13
2021-12-23 17:48:02.771846,132
2021-12-23 17:48:02.771856,429
2021-12-23 17:48:02.771866,666
2021-12-23 17:48:02.771876,536
2021-12-23 17:48:02.771886,9
2021-12-23 17:48:02.771895,-494
2021-12-23 17:48:02.771905,-417
2021-12-23 17:48:02.907376,-58
2021-12-23 17:48:02.907399,-9
2021-12-23 17:48:02.907407,-37
2021-12-23 17:48:02.907414,79
2021-12-23 17:48:02.907420,114
2021-12-23 17:48:02.907427,93
2021-12-23 17:48:02.907433,144
2021-12-23 17:48:02.907445,170
2021-12-23 17:48:02.907451,118
2021-12-23 17:48:02.907457,95
2021-12-23 17:48:02.907464,144
2021-12-23 17:48:02.907470,174
2021-12-23 17:48:02.907477,170
2021-12-23 17:48:02.907483,165
2021-12-23 17:48:02.907489,163
2021-12-23 17:48:02.907496,172
2021-12-23 17:48:02.907502,200
2021-12-23 17:48:02.907508,230
2021-12-23 17:48:02.907515,254
2021-12-23 17:48:02.907521,263
2021-12-23 17:48:02.907528,284
2021-12-23 17:48:02.907534,324
2021-12-23 17:48:02.907541,356
2021-12-23 17:48:02.907547,377
2021-12-23 17:48:02.907553,368
2021-12-23 17:48:02.907560,328
2021-12-23 17:48:02.907566,286
2021-12-23 17:48:02.907573,237
2021-12-23 17:48:02.907579,165
2021-12-23 17:48:02.907586,88
2021-12-23 17:48:03.176232,11
2021-12-23 17:48:03.176252,-51
2021-12-23 17:48:03.176261,-86
2021-12-23 17:48:03.176268,-116
2021-12-23 17:48:03.176274,-135
2021-12-23 17:48:03.176281,-135
2021-12-23 17:48:03.176287,-139
2021-12-23 17:48:03.176294,-160
2021-12-23 17:48:03.176301,-165
2021-12-23 17:48:03.176307,-163
2021-12-23 17:48:03.176314,-151
2021-12-23 17:48:03.176320,-130
2021-12-23 17:48:03.176327,-149
2021-12-23 17:48:03.176334,-158
2021-12-23 17:48:03.176342,-114
2021-12-23 17:48:03.176349,-107
2021-12-23 17:48:03.176355,-111
2021-12-23 17:48:03.176362,-81
2021-12-23 17:48:03.176368,-83
2021-12-23 17:48:03.176375,-102
2021-12-23 17:48:03.176381,-74
2021-12-23 17:48:03.176388,-51
2021-12-23 17:48:03.176394,-53
2021-12-23 17:48:03.176401,-48
2021-12-23 17:48:03.176412,-55
2021-12-23 17:48:03.176418,-55
2021-12-23 17:48:03.176425,-37
2021-12-23 17:48:03.176431,-34
2021-12-23 17:48:03.176438,-27
2021-12-23 17:48:03.176445,-13
2021-12-23 17:48:03.356618,-30
2021-12-23 17:48:03.356639,-53
2021-12-23 17:48:03.356646,-53
2021-12-23 17:48:03.356653,-67
2021-12-23 17:48:03.356659,-90
2021-12-23 17:48:03.356666,-102
2021-12-23 17:48:03.356672,-125
2021-12-23 17:48:03.356679,-128
2021-12-23 17:48:03.356685,-104
2021-12-23 17:48:03.356692,-100
2021-12-23 17:48:03.356698,-97
2021-12-23 17:48:03.356705,-90
2021-12-23 17:48:03.356711,-118
2021-12-23 17:48:03.356717,-149
2021-12-23 17:48:03.356724,-177
2021-12-23 17:48:03.356730,-191
2021-12-23 17:48:03.356737,-163
2021-12-23 17:48:03.356743,-146
2021-12-23 17:48:03.356750,-146
2021-12-23 17:48:03.356756,-116
2021-12-23 17:48:03.356763,-107
2021-12-23 17:48:03.356769,-125
2021-12-23 17:48:03.356777,-102
2021-12-23 17:48:03.356784,-79
2021-12-23 17:48:03.356790,-97
2021-12-23 17:48:03.356797,-107
2021-12-23 17:48:03.356803,-90
2021-12-23 17:48:03.356810,-81
2021-12-23 17:48:03.356816,-74
2021-12-23 17:48:03.356823,-65
2021-12-23 17:48:03.581404,-48
2021-12-23 17:48:03.581425,-34
2021-12-23 17:48:03.581432,-27
2021-12-23 17:48:03.581439,-25
2021-12-23 17:48:03.581446,-16
2021-12-23 17:48:03.581452,-13
2021-12-23 17:48:03.581459,53
2021-12-23 17:48:03.581465,300
2021-12-23 17:48:03.581472,587
2021-12-23 17:48:03.581478,599
2021-12-23 17:48:03.581485,167
2021-12-23 17:48:03.581491,-470
2021-12-23 17:48:03.581498,-617
2021-12-23 17:48:03.581504,-193
2021-12-23 17:48:03.581510,6
2021-12-23 17:48:03.581517,-69
2021-12-23 17:48:03.581523,13
2021-12-23 17:48:03.581530,123
2021-12-23 17:48:03.581536,111
2021-12-23 17:48:03.581543,121
2021-12-23 17:48:03.581549,167
2021-12-23 17:48:03.581555,158
2021-12-23 17:48:03.581562,114
2021-12-23 17:48:03.581568,102
2021-12-23 17:48:03.581581,149
2021-12-23 17:48:03.581589,193
2021-12-23 17:48:03.581596,205
2021-12-23 17:48:03.581602,226
2021-12-23 17:48:03.581609,237
2021-12-23 17:48:03.581615,254
2021-12-23 17:48:03.807421,303
2021-12-23 17:48:03.807452,356
2021-12-23 17:48:03.807464,396
2021-12-23 17:48:03.807474,415
2021-12-23 17:48:03.807484,403
2021-12-23 17:48:03.807494,394
2021-12-23 17:48:03.807504,417
2021-12-23 17:48:03.807514,426
2021-12-23 17:48:03.807524,396
2021-12-23 17:48:03.807534,347
2021-12-23 17:48:03.807544,254
2021-12-23 17:48:03.807554,135
2021-12-23 17:48:03.807564,67
2021-12-23 17:48:03.807574,23
2021-12-23 17:48:03.807584,-51
2021-12-23 17:48:03.807594,-121
2021-12-23 17:48:03.807604,-156
2021-12-23 17:48:03.807614,-165
2021-12-23 17:48:03.807624,-165
2021-12-23 17:48:03.807634,-177
2021-12-23 17:48:03.807643,-219
2021-12-23 17:48:03.807653,-244
2021-12-23 17:48:03.807663,-219
2021-12-23 17:48:03.807673,-195
2021-12-23 17:48:03.807683,-202
2021-12-23 17:48:03.807693,-193
2021-12-23 17:48:03.807703,-163
2021-12-23 17:48:03.807713,-153
2021-12-23 17:48:03.807723,-153
2021-12-23 17:48:03.807732,-128
2021-12-23 17:48:04.122125,-97
2021-12-23 17:48:04.122147,-83
2021-12-23 17:48:04.122155,-93
2021-12-23 17:48:04.122163,-137
2021-12-23 17:48:04.122169,-174
2021-12-23 17:48:04.122176,-160
2021-12-23 17:48:04.122182,-144
2021-12-23 17:48:04.122189,-142
2021-12-23 17:48:04.122195,-144
2021-12-23 17:48:04.122202,-172
2021-12-23 17:48:04.122208,-200
2021-12-23 17:48:04.122215,-179
2021-12-23 17:48:04.122221,-146
2021-12-23 17:48:04.122228,-135
2021-12-23 17:48:04.122234,-139
2021-12-23 17:48:04.122241,-151
2021-12-23 17:48:04.122247,-135
2021-12-23 17:48:04.122254,-97
2021-12-23 17:48:04.122261,-95
2021-12-23 17:48:04.122267,-95
2021-12-23 17:48:04.122274,-79
2021-12-23 17:48:04.122281,-90
2021-12-23 17:48:04.122287,-95
2021-12-23 17:48:04.122294,-67
2021-12-23 17:48:04.122300,-60
2021-12-23 17:48:04.122307,-74
2021-12-23 17:48:04.122313,-90
2021-12-23 17:48:04.122320,-100
2021-12-23 17:48:04.122326,-74
2021-12-23 17:48:04.122333,-34
2021-12-23 17:48:04.390605,-20
2021-12-23 17:48:04.390635,-6
2021-12-23 17:48:04.390648,4
2021-12-23 17:48:04.390658,-20
2021-12-23 17:48:04.390668,-37
2021-12-23 17:48:04.390679,-13
2021-12-23 17:48:04.390689,0
2021-12-23 17:48:04.390699,2
2021-12-23 17:48:04.390709,-2
2021-12-23 17:48:04.390719,-30
2021-12-23 17:48:04.390737,-37
2021-12-23 17:48:04.390747,-13
2021-12-23 17:48:04.390757,2
2021-12-23 17:48:04.390768,25
2021-12-23 17:48:04.390778,53
2021-12-23 17:48:04.390788,137
2021-12-23 17:48:04.390798,394
2021-12-23 17:48:04.390808,671
2021-12-23 17:48:04.390818,617
2021-12-23 17:48:04.390829,128
2021-12-23 17:48:04.390839,-468
2021-12-23 17:48:04.390849,-540
2021-12-23 17:48:04.390859,-137
2021-12-23 17:48:04.390869,23
2021-12-23 17:48:04.390879,-37
2021-12-23 17:48:04.390889,34
2021-12-23 17:48:04.390899,74
2021-12-23 17:48:04.390909,18
2021-12-23 17:48:04.390919,11
2021-12-23 17:48:04.390930,44
2021-12-23 17:48:04.527376,72
2021-12-23 17:48:04.527407,95
2021-12-23 17:48:04.527420,102
2021-12-23 17:48:04.527430,102
2021-12-23 17:48:04.527440,125
2021-12-23 17:48:04.527450,163
2021-12-23 17:48:04.527460,188
2021-12-23 17:48:04.527470,198
2021-12-23 17:48:04.527480,195
2021-12-23 17:48:04.527491,195
2021-12-23 17:48:04.527501,237
2021-12-23 17:48:04.527511,298
2021-12-23 17:48:04.527521,335
2021-12-23 17:48:04.527531,349
2021-12-23 17:48:04.527541,328
2021-12-23 17:48:04.527551,298
2021-12-23 17:48:04.527561,305
2021-12-23 17:48:04.527570,305
2021-12-23 17:48:04.527581,258
2021-12-23 17:48:04.527591,172
2021-12-23 17:48:04.527601,55
2021-12-23 17:48:04.527611,-48
2021-12-23 17:48:04.527621,-102
2021-12-23 17:48:04.527631,-132
2021-12-23 17:48:04.527641,-167
2021-12-23 17:48:04.527657,-200
2021-12-23 17:48:04.527667,-221
2021-12-23 17:48:04.527678,-228
2021-12-23 17:48:04.527688,-212
2021-12-23 17:48:04.527698,-191
2021-12-23 17:48:04.751933,-202
2021-12-23 17:48:04.751964,-221
2021-12-23 17:48:04.751976,-216
2021-12-23 17:48:04.751987,-202
2021-12-23 17:48:04.751997,-188
2021-12-23 17:48:04.752007,-163
2021-12-23 17:48:04.752017,-158
2021-12-23 17:48:04.752027,-188
2021-12-23 17:48:04.752037,-205
2021-12-23 17:48:04.752047,-195
2021-12-23 17:48:04.752057,-191
2021-12-23 17:48:04.752066,-184
2021-12-23 17:48:04.752076,-172
2021-12-23 17:48:04.752086,-186
2021-12-23 17:48:04.752096,-205
2021-12-23 17:48:04.752106,-186
2021-12-23 17:48:04.752115,-160
2021-12-23 17:48:04.752125,-156
2021-12-23 17:48:04.752135,-151
2021-12-23 17:48:04.752145,-149
2021-12-23 17:48:04.752154,-156
2021-12-23 17:48:04.752164,-139
2021-12-23 17:48:04.752174,-114
2021-12-23 17:48:04.752184,-104
2021-12-23 17:48:04.752194,-104
2021-12-23 17:48:04.752203,-102
2021-12-23 17:48:04.752213,-100
2021-12-23 17:48:04.752223,-93
2021-12-23 17:48:04.752233,-79
2021-12-23 17:48:04.752243,-72
2021-12-23 17:48:04.976909,-97
2021-12-23 17:48:04.976940,-132
2021-12-23 17:48:04.976952,-139
2021-12-23 17:48:04.976962,-139
2021-12-23 17:48:04.976972,-137
2021-12-23 17:48:04.976982,-121
2021-12-23 17:48:04.976991,-128
2021-12-23 17:48:04.977001,-153
2021-12-23 17:48:04.977011,-142
2021-12-23 17:48:04.977021,-107
2021-12-23 17:48:04.977030,-79
2021-12-23 17:48:04.977040,-58
2021-12-23 17:48:04.977050,-65
2021-12-23 17:48:04.977059,-79
2021-12-23 17:48:04.977069,-62
2021-12-23 17:48:04.977079,-58
2021-12-23 17:48:04.977092,-72
2021-12-23 17:48:04.977102,-58
2021-12-23 17:48:04.977112,-46
2021-12-23 17:48:04.977122,-46
2021-12-23 17:48:04.977132,-27
2021-12-23 17:48:04.977142,-13
2021-12-23 17:48:04.977151,-16
2021-12-23 17:48:04.977161,-4
2021-12-23 17:48:04.977171,2
2021-12-23 17:48:04.977181,9
2021-12-23 17:48:04.977191,51
2021-12-23 17:48:04.977201,181
2021-12-23 17:48:04.977211,454
2021-12-23 17:48:04.977221,671
2021-12-23 17:48:05.247198,547
2021-12-23 17:48:05.247229,65
2021-12-23 17:48:05.247241,-440
2021-12-23 17:48:05.247252,-452
2021-12-23 17:48:05.247262,-109
2021-12-23 17:48:05.247273,-11
2021-12-23 17:48:05.247283,-51
2021-12-23 17:48:05.247293,46
2021-12-23 17:48:05.247303,100
2021-12-23 17:48:05.247313,67
2021-12-23 17:48:05.247324,97
2021-12-23 17:48:05.247334,128
2021-12-23 17:48:05.247344,95
2021-12-23 17:48:05.247354,95
2021-12-23 17:48:05.247364,146
2021-12-23 17:48:05.247375,172
2021-12-23 17:48:05.247385,170
2021-12-23 17:48:05.247395,184
2021-12-23 17:48:05.247405,195
2021-12-23 17:48:05.247415,198
2021-12-23 17:48:05.247425,214
2021-12-23 17:48:05.247435,244
2021-12-23 17:48:05.247445,279
2021-12-23 17:48:05.247456,312
2021-12-23 17:48:05.247466,338
2021-12-23 17:48:05.247476,373
2021-12-23 17:48:05.247486,403
2021-12-23 17:48:05.247496,410
2021-12-23 17:48:05.247506,403
2021-12-23 17:48:05.247516,377
2021-12-23 17:48:05.427358,324
2021-12-23 17:48:05.427388,263
2021-12-23 17:48:05.427400,191
2021-12-23 17:48:05.427411,97
2021-12-23 17:48:05.427421,9
2021-12-23 17:48:05.427431,-83
2021-12-23 17:48:05.427441,-174
2021-12-23 17:48:05.427451,-195
2021-12-23 17:48:05.427461,-184
2021-12-23 17:48:05.427471,-207
2021-12-23 17:48:05.427481,-233
2021-12-23 17:48:05.427491,-244
2021-12-23 17:48:05.427501,-247
2021-12-23 17:48:05.427515,-242
2021-12-23 17:48:05.427526,-254
2021-12-23 17:48:05.427536,-251
2021-12-23 17:48:05.427546,-226
2021-12-23 17:48:05.427556,-219
2021-12-23 17:48:05.427566,-214
2021-12-23 17:48:05.427576,-188
2021-12-23 17:48:05.427586,-181
2021-12-23 17:48:05.427596,-186
2021-12-23 17:48:05.427606,-172
2021-12-23 17:48:05.427616,-158
2021-12-23 17:48:05.427626,-151
2021-12-23 17:48:05.427636,-130
2021-12-23 17:48:05.427646,-111
2021-12-23 17:48:05.427656,-114
2021-12-23 17:48:05.427667,-109
2021-12-23 17:48:05.427677,-86
2021-12-23 17:48:05.786634,-69
2021-12-23 17:48:05.786698,-58
2021-12-23 17:48:05.786709,-53
2021-12-23 17:48:05.786720,-67
2021-12-23 17:48:05.786730,-100
2021-12-23 17:48:05.786740,-118
2021-12-23 17:48:05.786751,-95
2021-12-23 17:48:05.786761,-69
2021-12-23 17:48:05.786771,-86
2021-12-23 17:48:05.786781,-123
2021-12-23 17:48:05.786791,-142
2021-12-23 17:48:05.786801,-128
2021-12-23 17:48:05.786811,-95
2021-12-23 17:48:05.786821,-76
2021-12-23 17:48:05.786831,-60
2021-12-23 17:48:05.786841,-55
2021-12-23 17:48:05.786851,-81
2021-12-23 17:48:05.786861,-81
2021-12-23 17:48:05.786872,-39
2021-12-23 17:48:05.786882,-2
2021-12-23 17:48:05.786892,-2
2021-12-23 17:48:05.786901,-20
2021-12-23 17:48:05.786911,-25
2021-12-23 17:48:05.786921,-9
2021-12-23 17:48:05.786931,2
2021-12-23 17:48:05.786941,11
2021-12-23 17:48:05.786951,23
2021-12-23 17:48:05.786961,23
2021-12-23 17:48:05.786971,20
2021-12-23 17:48:05.786981,37
2021-12-23 17:48:05.922148,60
2021-12-23 17:48:05.922179,76
2021-12-23 17:48:05.922191,88
2021-12-23 17:48:05.922201,88
2021-12-23 17:48:05.922211,62
2021-12-23 17:48:05.922221,44
2021-12-23 17:48:05.922231,58
2021-12-23 17:48:05.922241,76
2021-12-23 17:48:05.922251,79
2021-12-23 17:48:05.922261,74
2021-12-23 17:48:05.922271,44
2021-12-23 17:48:05.922281,9
2021-12-23 17:48:05.922291,20
2021-12-23 17:48:05.922301,58
2021-12-23 17:48:05.922311,62
2021-12-23 17:48:05.922321,46
2021-12-23 17:48:05.922331,142
2021-12-23 17:48:05.922345,426
2021-12-23 17:48:05.922355,648
2021-12-23 17:48:05.922365,531
2021-12-23 17:48:05.922375,67
2021-12-23 17:48:05.922385,-452
2021-12-23 17:48:05.922395,-461
2021-12-23 17:48:05.922405,-81
2021-12-23 17:48:05.922416,32
2021-12-23 17:48:05.922426,0
2021-12-23 17:48:05.922436,90
2021-12-23 17:48:05.922446,109
2021-12-23 17:48:05.922456,55
2021-12-23 17:48:05.922466,79
2021-12-23 17:48:06.192139,118
2021-12-23 17:48:06.192170,116
2021-12-23 17:48:06.192182,123
2021-12-23 17:48:06.192192,137
2021-12-23 17:48:06.192202,149
2021-12-23 17:48:06.192212,172
2021-12-23 17:48:06.192222,191
2021-12-23 17:48:06.192232,212
2021-12-23 17:48:06.192242,221
2021-12-23 17:48:06.192252,202
2021-12-23 17:48:06.192261,214
2021-12-23 17:48:06.192271,275
2021-12-23 17:48:06.192281,305
2021-12-23 17:48:06.192291,300
2021-12-23 17:48:06.192301,312
2021-12-23 17:48:06.192311,314
2021-12-23 17:48:06.192321,317
2021-12-23 17:48:06.192331,335
2021-12-23 17:48:06.192340,328
2021-12-23 17:48:06.192350,284
2021-12-23 17:48:06.192360,214
2021-12-23 17:48:06.192370,116
2021-12-23 17:48:06.192380,20
2021-12-23 17:48:06.192390,-62
2021-12-23 17:48:06.192399,-135
2021-12-23 17:48:06.192409,-172
2021-12-23 17:48:06.192419,-202
2021-12-23 17:48:06.192429,-235
2021-12-23 17:48:06.192438,-233
2021-12-23 17:48:06.192448,-202
2021-12-23 17:48:06.416291,-188
2021-12-23 17:48:06.416322,-186
2021-12-23 17:48:06.416334,-186
2021-12-23 17:48:06.416344,-188
2021-12-23 17:48:06.416354,-174
2021-12-23 17:48:06.416364,-135
2021-12-23 17:48:06.416374,-100
2021-12-23 17:48:06.416385,-102
2021-12-23 17:48:06.416395,-130
2021-12-23 17:48:06.416405,-139
2021-12-23 17:48:06.416415,-116
2021-12-23 17:48:06.416426,-88
2021-12-23 17:48:06.416436,-74
2021-12-23 17:48:06.416447,-62
2021-12-23 17:48:06.416457,-62
2021-12-23 17:48:06.416467,-88
2021-12-23 17:48:06.416477,-114
2021-12-23 17:48:06.416487,-125
2021-12-23 17:48:06.416498,-128
2021-12-23 17:48:06.416508,-132
2021-12-23 17:48:06.416518,-153
2021-12-23 17:48:06.416528,-149
2021-12-23 17:48:06.416538,-109
2021-12-23 17:48:06.416548,-88
2021-12-23 17:48:06.416558,-88
2021-12-23 17:48:06.416568,-88
2021-12-23 17:48:06.416578,-90
2021-12-23 17:48:06.416589,-86
2021-12-23 17:48:06.416599,-67
2021-12-23 17:48:06.416614,-46
2021-12-23 17:48:06.597248,-37
2021-12-23 17:48:06.597279,-39
2021-12-23 17:48:06.597292,-39
2021-12-23 17:48:06.597302,-27
2021-12-23 17:48:06.597312,-4
2021-12-23 17:48:06.597323,11
2021-12-23 17:48:06.597333,9
2021-12-23 17:48:06.597343,-13
2021-12-23 17:48:06.597353,-37
2021-12-23 17:48:06.597363,-25
2021-12-23 17:48:06.597373,-9
2021-12-23 17:48:06.597384,-2
2021-12-23 17:48:06.597394,0
2021-12-23 17:48:06.597404,-13
2021-12-23 17:48:06.597414,-25
2021-12-23 17:48:06.597424,-2
2021-12-23 17:48:06.597434,9
2021-12-23 17:48:06.597445,-9
2021-12-23 17:48:06.597455,-2
2021-12-23 17:48:06.597465,9
2021-12-23 17:48:06.597475,-16
2021-12-23 17:48:06.597485,-27
2021-12-23 17:48:06.597495,0
2021-12-23 17:48:06.597505,20
2021-12-23 17:48:06.597515,16
2021-12-23 17:48:06.597525,11
2021-12-23 17:48:06.597535,18
2021-12-23 17:48:06.597545,23
2021-12-23 17:48:06.597555,32
2021-12-23 17:48:06.597565,41
2021-12-23 17:48:06.911746,53
2021-12-23 17:48:06.911777,88
2021-12-23 17:48:06.911790,200
2021-12-23 17:48:06.911800,447
2021-12-23 17:48:06.911810,669
2021-12-23 17:48:06.911820,552
2021-12-23 17:48:06.911830,16
2021-12-23 17:48:06.911840,-503
2021-12-23 17:48:06.911849,-412
2021-12-23 17:48:06.911859,-25
2021-12-23 17:48:06.911869,27
2021-12-23 17:48:06.911878,-6
2021-12-23 17:48:06.911888,95
2021-12-23 17:48:06.911898,95
2021-12-23 17:48:06.911908,55
2021-12-23 17:48:06.911917,102
2021-12-23 17:48:06.911927,130
2021-12-23 17:48:06.911937,130
2021-12-23 17:48:06.911946,132
2021-12-23 17:48:06.911956,125
2021-12-23 17:48:06.911966,139
2021-12-23 17:48:06.911976,160
2021-12-23 17:48:06.911985,142
2021-12-23 17:48:06.911995,118
2021-12-23 17:48:06.912005,144
2021-12-23 17:48:06.912014,193
2021-12-23 17:48:06.912024,226
2021-12-23 17:48:06.912034,249
2021-12-23 17:48:06.912044,293
2021-12-23 17:48:06.912053,342
2021-12-23 17:48:07.046580,356
2021-12-23 17:48:07.046612,368
2021-12-23 17:48:07.046624,396
2021-12-23 17:48:07.046634,396
2021-12-23 17:48:07.046644,352
2021-12-23 17:48:07.046654,272
2021-12-23 17:48:07.046664,163
2021-12-23 17:48:07.046674,60
2021-12-23 17:48:07.046684,-13
2021-12-23 17:48:07.046694,-86
2021-12-23 17:48:07.046704,-146
2021-12-23 17:48:07.046714,-181
2021-12-23 17:48:07.046724,-205
2021-12-23 17:48:07.046734,-214
2021-12-23 17:48:07.046744,-216
2021-12-23 17:48:07.046754,-226
2021-12-23 17:48:07.046764,-223
2021-12-23 17:48:07.046773,-216
2021-12-23 17:48:07.046783,-219
2021-12-23 17:48:07.046793,-202
2021-12-23 17:48:07.046812,-200
2021-12-23 17:48:07.046823,-221
2021-12-23 17:48:07.046833,-198
2021-12-23 17:48:07.046843,-177
2021-12-23 17:48:07.046852,-188
2021-12-23 17:48:07.046862,-167
2021-12-23 17:48:07.046872,-142
2021-12-23 17:48:07.046882,-146
2021-12-23 17:48:07.046892,-125
2021-12-23 17:48:07.046902,-100
2021-12-23 17:48:07.361567,-104
2021-12-23 17:48:07.361597,-95
2021-12-23 17:48:07.361609,-74
2021-12-23 17:48:07.361619,-81
2021-12-23 17:48:07.361629,-95
2021-12-23 17:48:07.361639,-104
2021-12-23 17:48:07.361649,-100
2021-12-23 17:48:07.361659,-74
2021-12-23 17:48:07.361669,-62
2021-12-23 17:48:07.361679,-72
2021-12-23 17:48:07.361689,-79
2021-12-23 17:48:07.361698,-95
2021-12-23 17:48:07.361708,-102
2021-12-23 17:48:07.361718,-62
2021-12-23 17:48:07.361728,-30
2021-12-23 17:48:07.361738,-41
2021-12-23 17:48:07.361748,-51
2021-12-23 17:48:07.361758,-41
2021-12-23 17:48:07.361767,-30
2021-12-23 17:48:07.361777,-16
2021-12-23 17:48:07.361787,-9
2021-12-23 17:48:07.361797,-16
2021-12-23 17:48:07.361807,-32
2021-12-23 17:48:07.361817,-41
2021-12-23 17:48:07.361826,4
2021-12-23 17:48:07.361836,60
2021-12-23 17:48:07.361846,51
2021-12-23 17:48:07.361856,25
2021-12-23 17:48:07.361866,6
2021-12-23 17:48:07.361875,-20
2021-12-23 17:48:07.541019,-27
2021-12-23 17:48:07.541051,-18
2021-12-23 17:48:07.541063,-13
2021-12-23 17:48:07.541073,-13
2021-12-23 17:48:07.541083,-37
2021-12-23 17:48:07.541093,-60
2021-12-23 17:48:07.541102,-39
2021-12-23 17:48:07.541112,-9
2021-12-23 17:48:07.541122,-4
2021-12-23 17:48:07.541132,-6
2021-12-23 17:48:07.541142,0
2021-12-23 17:48:07.541152,51
2021-12-23 17:48:07.541162,242
2021-12-23 17:48:07.541172,522
2021-12-23 17:48:07.541182,589
2021-12-23 17:48:07.541191,233
2021-12-23 17:48:07.541201,-375
2021-12-23 17:48:07.541211,-615
2021-12-23 17:48:07.541221,-254
2021-12-23 17:48:07.541231,18
2021-12-23 17:48:07.541240,-16
2021-12-23 17:48:07.541250,41
2021-12-23 17:48:07.541260,128
2021-12-23 17:48:07.541270,104
2021-12-23 17:48:07.541279,102
2021-12-23 17:48:07.541289,104
2021-12-23 17:48:07.541299,79
2021-12-23 17:48:07.541309,67
2021-12-23 17:48:07.541318,76
2021-12-23 17:48:07.541328,100
2021-12-23 17:48:07.811581,128
2021-12-23 17:48:07.811613,156
2021-12-23 17:48:07.811625,179
2021-12-23 17:48:07.811636,172
2021-12-23 17:48:07.811646,149
2021-12-23 17:48:07.811656,174
2021-12-23 17:48:07.811666,233
2021-12-23 17:48:07.811676,282
2021-12-23 17:48:07.811687,319
2021-12-23 17:48:07.811697,314
2021-12-23 17:48:07.811707,305
2021-12-23 17:48:07.811717,335
2021-12-23 17:48:07.811727,347
2021-12-23 17:48:07.811737,321
2021-12-23 17:48:07.811747,293
2021-12-23 17:48:07.811757,240
2021-12-23 17:48:07.811767,139
2021-12-23 17:48:07.811777,46
2021-12-23 17:48:07.811787,-32
2021-12-23 17:48:07.811797,-114
2021-12-23 17:48:07.811807,-188
2021-12-23 17:48:07.811817,-254
2021-12-23 17:48:07.811835,-275
2021-12-23 17:48:07.811846,-247
2021-12-23 17:48:07.811856,-237
2021-12-23 17:48:07.811866,-247
2021-12-23 17:48:07.811876,-247
2021-12-23 17:48:07.811886,-258
2021-12-23 17:48:07.811896,-256
2021-12-23 17:48:07.811906,-221
2021-12-23 17:48:08.035947,-181
2021-12-23 17:48:08.035979,-160
2021-12-23 17:48:08.035991,-158
2021-12-23 17:48:08.036001,-172
2021-12-23 17:48:08.036011,-195
2021-12-23 17:48:08.036021,-207
2021-12-23 17:48:08.036031,-181
2021-12-23 17:48:08.036041,-149
2021-12-23 17:48:08.036051,-160
2021-12-23 17:48:08.036061,-191
2021-12-23 17:48:08.036071,-184
2021-12-23 17:48:08.036081,-146
2021-12-23 17:48:08.036091,-128
2021-12-23 17:48:08.036101,-132
2021-12-23 17:48:08.036111,-149
2021-12-23 17:48:08.036121,-165
2021-12-23 17:48:08.036131,-158
2021-12-23 17:48:08.036141,-130
2021-12-23 17:48:08.036151,-107
2021-12-23 17:48:08.036161,-104
2021-12-23 17:48:08.036171,-123
2021-12-23 17:48:08.036181,-137
2021-12-23 17:48:08.036191,-123
2021-12-23 17:48:08.036201,-100
2021-12-23 17:48:08.036210,-86
2021-12-23 17:48:08.036220,-55
2021-12-23 17:48:08.036230,-46
2021-12-23 17:48:08.036240,-81
2021-12-23 17:48:08.036250,-93
2021-12-23 17:48:08.036260,-72
2021-12-23 17:48:08.216391,-69
2021-12-23 17:48:08.216413,-79
2021-12-23 17:48:08.216421,-83
2021-12-23 17:48:08.216428,-86
2021-12-23 17:48:08.216435,-65
2021-12-23 17:48:08.216441,-18
2021-12-23 17:48:08.216448,9
2021-12-23 17:48:08.216454,-4
2021-12-23 17:48:08.216461,-34
2021-12-23 17:48:08.216467,-41
2021-12-23 17:48:08.216474,-20
2021-12-23 17:48:08.216480,-11
2021-12-23 17:48:08.216486,-27
2021-12-23 17:48:08.216493,-39
2021-12-23 17:48:08.216499,-41
2021-12-23 17:48:08.216506,-41
2021-12-23 17:48:08.216512,-41
2021-12-23 17:48:08.216519,-13
2021-12-23 17:48:08.216525,20
2021-12-23 17:48:08.216532,9
2021-12-23 17:48:08.216538,-4
2021-12-23 17:48:08.216545,32
2021-12-23 17:48:08.216551,142
2021-12-23 17:48:08.216558,394
2021-12-23 17:48:08.216564,631
2021-12-23 17:48:08.216571,515
2021-12-23 17:48:08.216577,23
2021-12-23 17:48:08.216584,-482
2021-12-23 17:48:08.216590,-519
2021-12-23 17:48:08.216597,-153
2021-12-23 17:48:08.531302,20
2021-12-23 17:48:08.531333,-11
2021-12-23 17:48:08.531345,60
2021-12-23 17:48:08.531355,118
2021-12-23 17:48:08.531365,79
2021-12-23 17:48:08.531375,83
2021-12-23 17:48:08.531385,114
2021-12-23 17:48:08.531395,88
2021-12-23 17:48:08.531405,62
2021-12-23 17:48:08.531415,62
2021-12-23 17:48:08.531425,41
2021-12-23 17:48:08.531435,51
2021-12-23 17:48:08.531444,90
2021-12-23 17:48:08.531454,81
2021-12-23 17:48:08.531464,79
2021-12-23 17:48:08.531474,130
2021-12-23 17:48:08.531484,165
2021-12-23 17:48:08.531493,191
2021-12-23 17:48:08.531503,237
2021-12-23 17:48:08.531513,270
2021-12-23 17:48:08.531523,293
2021-12-23 17:48:08.531533,324
2021-12-23 17:48:08.531543,347
2021-12-23 17:48:08.531553,356
2021-12-23 17:48:08.531563,345
2021-12-23 17:48:08.531572,298
2021-12-23 17:48:08.531582,223
2021-12-23 17:48:08.531592,114
2021-12-23 17:48:08.531602,4
2021-12-23 17:48:08.531612,-65
2021-12-23 17:48:08.666518,-125
2021-12-23 17:48:08.666547,-198
2021-12-23 17:48:08.666559,-258
2021-12-23 17:48:08.666570,-289
2021-12-23 17:48:08.666580,-279
2021-12-23 17:48:08.666595,-272
2021-12-23 17:48:08.666605,-293
2021-12-23 17:48:08.666615,-293
2021-12-23 17:48:08.666625,-272
2021-12-23 17:48:08.666635,-261
2021-12-23 17:48:08.666646,-249
2021-12-23 17:48:08.666656,-221
2021-12-23 17:48:08.666666,-212
2021-12-23 17:48:08.666676,-202
2021-12-23 17:48:08.666686,-172
2021-12-23 17:48:08.666696,-144
2021-12-23 17:48:08.666706,-123
2021-12-23 17:48:08.666716,-107
2021-12-23 17:48:08.666726,-128
2021-12-23 17:48:08.666736,-149
2021-12-23 17:48:08.666746,-121
2021-12-23 17:48:08.666756,-102
2021-12-23 17:48:08.666766,-104
2021-12-23 17:48:08.666776,-100
2021-12-23 17:48:08.666786,-102
2021-12-23 17:48:08.666796,-104
2021-12-23 17:48:08.666806,-93
2021-12-23 17:48:08.666816,-95
2021-12-23 17:48:08.666827,-90
2021-12-23 17:48:08.666836,-81
2021-12-23 17:48:08.891691,-81
2021-12-23 17:48:08.891712,-62
2021-12-23 17:48:08.891720,-58
2021-12-23 17:48:08.891727,-69
2021-12-23 17:48:08.891734,-53
2021-12-23 17:48:08.891740,-81
2021-12-23 17:48:08.891747,-139
2021-12-23 17:48:08.891753,-130
2021-12-23 17:48:08.891760,-95
2021-12-23 17:48:08.891766,-88
2021-12-23 17:48:08.891773,-76
2021-12-23 17:48:08.891779,-72
2021-12-23 17:48:08.891786,-100
2021-12-23 17:48:08.891792,-104
2021-12-23 17:48:08.891799,-100
2021-12-23 17:48:08.891805,-132
2021-12-23 17:48:08.891812,-135
2021-12-23 17:48:08.891818,-95
2021-12-23 17:48:08.891825,-93
2021-12-23 17:48:08.891832,-79
2021-12-23 17:48:08.891838,-30
2021-12-23 17:48:08.891844,-32
2021-12-23 17:48:08.891851,-65
2021-12-23 17:48:08.891857,-58
2021-12-23 17:48:08.891864,-41
2021-12-23 17:48:08.891870,-46
2021-12-23 17:48:08.891876,-37
2021-12-23 17:48:08.891883,-18
2021-12-23 17:48:08.891889,-9
2021-12-23 17:48:08.891896,-9
2021-12-23 17:48:09.161416,-2
2021-12-23 17:48:09.161447,16
2021-12-23 17:48:09.161459,44
2021-12-23 17:48:09.161469,97
2021-12-23 17:48:09.161479,265
2021-12-23 17:48:09.161489,503
2021-12-23 17:48:09.161499,533
2021-12-23 17:48:09.161509,193
2021-12-23 17:48:09.161519,-349
2021-12-23 17:48:09.161528,-622
2021-12-23 17:48:09.161538,-373
2021-12-23 17:48:09.161548,-95
2021-12-23 17:48:09.161558,-76
2021-12-23 17:48:09.161568,-2
2021-12-23 17:48:09.161578,111
2021-12-23 17:48:09.161587,90
2021-12-23 17:48:09.161597,60
2021-12-23 17:48:09.161607,81
2021-12-23 17:48:09.161616,93
2021-12-23 17:48:09.161626,116
2021-12-23 17:48:09.161636,135
2021-12-23 17:48:09.161645,125
2021-12-23 17:48:09.161655,135
2021-12-23 17:48:09.161665,170
2021-12-23 17:48:09.161674,188
2021-12-23 17:48:09.161684,205
2021-12-23 17:48:09.161694,233
2021-12-23 17:48:09.161704,261
2021-12-23 17:48:09.161713,289
2021-12-23 17:48:09.161723,317
2021-12-23 17:48:09.342097,354
2021-12-23 17:48:09.342128,394
2021-12-23 17:48:09.342140,419
2021-12-23 17:48:09.342150,419
2021-12-23 17:48:09.342160,398
2021-12-23 17:48:09.342170,368
2021-12-23 17:48:09.342180,335
2021-12-23 17:48:09.342190,291
2021-12-23 17:48:09.342199,214
2021-12-23 17:48:09.342209,86
2021-12-23 17:48:09.342219,-53
2021-12-23 17:48:09.342229,-160
2021-12-23 17:48:09.342239,-219
2021-12-23 17:48:09.342248,-237
2021-12-23 17:48:09.342258,-242
2021-12-23 17:48:09.342268,-263
2021-12-23 17:48:09.342278,-293
2021-12-23 17:48:09.342287,-291
2021-12-23 17:48:09.342297,-251
2021-12-23 17:48:09.342307,-221
2021-12-23 17:48:09.342317,-233
2021-12-23 17:48:09.342327,-275
2021-12-23 17:48:09.342337,-289
2021-12-23 17:48:09.342346,-244
2021-12-23 17:48:09.342356,-207
2021-12-23 17:48:09.342366,-205
2021-12-23 17:48:09.342376,-188
2021-12-23 17:48:09.342386,-177
2021-12-23 17:48:09.342395,-177
2021-12-23 17:48:09.342405,-144
2021-12-23 17:48:09.656348,-107
2021-12-23 17:48:09.656391,-107
2021-12-23 17:48:09.656404,-104
2021-12-23 17:48:09.656414,-109
2021-12-23 17:48:09.656424,-146
2021-12-23 17:48:09.656434,-139
2021-12-23 17:48:09.656444,-102
2021-12-23 17:48:09.656454,-93
2021-12-23 17:48:09.656464,-86
2021-12-23 17:48:09.656474,-93
2021-12-23 17:48:09.656484,-139
2021-12-23 17:48:09.656494,-158
2021-12-23 17:48:09.656504,-142
2021-12-23 17:48:09.656514,-116
2021-12-23 17:48:09.656523,-100
2021-12-23 17:48:09.656533,-109
2021-12-23 17:48:09.656543,-114
2021-12-23 17:48:09.656553,-95
2021-12-23 17:48:09.656563,-74
2021-12-23 17:48:09.656573,-46
2021-12-23 17:48:09.656583,-27
2021-12-23 17:48:09.656593,-60
2021-12-23 17:48:09.656603,-65
2021-12-23 17:48:09.656613,-13
2021-12-23 17:48:09.656623,4
2021-12-23 17:48:09.656633,-13
2021-12-23 17:48:09.656643,-13
2021-12-23 17:48:09.656653,-13
2021-12-23 17:48:09.656663,-16
2021-12-23 17:48:09.656673,4
2021-12-23 17:48:09.881673,37
2021-12-23 17:48:09.881704,69
2021-12-23 17:48:09.881716,76
2021-12-23 17:48:09.881727,60
2021-12-23 17:48:09.881737,55
2021-12-23 17:48:09.881747,60
2021-12-23 17:48:09.881758,55
2021-12-23 17:48:09.881768,60
2021-12-23 17:48:09.881778,44
2021-12-23 17:48:09.881788,-6
2021-12-23 17:48:09.881799,-9
2021-12-23 17:48:09.881809,48
2021-12-23 17:48:09.881819,53
2021-12-23 17:48:09.881829,4
2021-12-23 17:48:09.881840,-27
2021-12-23 17:48:09.881850,-37
2021-12-23 17:48:09.881860,-9
2021-12-23 17:48:09.881870,86
2021-12-23 17:48:09.881880,298
2021-12-23 17:48:09.881891,554
2021-12-23 17:48:09.881901,531
2021-12-23 17:48:09.881911,88
2021-12-23 17:48:09.881921,-435
2021-12-23 17:48:09.881931,-545
2021-12-23 17:48:09.881941,-216
2021-12-23 17:48:09.881951,9
2021-12-23 17:48:09.881962,11
2021-12-23 17:48:09.881971,51
2021-12-23 17:48:09.881982,88
2021-12-23 17:48:09.881992,90
2021-12-23 17:48:10.061563,128
2021-12-23 17:48:10.061593,149
2021-12-23 17:48:10.061605,135
2021-12-23 17:48:10.061615,130
2021-12-23 17:48:10.061625,144
2021-12-23 17:48:10.061635,163
2021-12-23 17:48:10.061644,167
2021-12-23 17:48:10.061654,160
2021-12-23 17:48:10.061664,142
2021-12-23 17:48:10.061673,151
2021-12-23 17:48:10.061683,200
2021-12-23 17:48:10.061693,233
2021-12-23 17:48:10.061702,251
2021-12-23 17:48:10.061712,296
2021-12-23 17:48:10.061722,333
2021-12-23 17:48:10.061732,331
2021-12-23 17:48:10.061741,338
2021-12-23 17:48:10.061751,377
2021-12-23 17:48:10.061761,394
2021-12-23 17:48:10.061770,354
2021-12-23 17:48:10.061780,291
2021-12-23 17:48:10.061789,233
2021-12-23 17:48:10.061799,170
2021-12-23 17:48:10.061809,97
2021-12-23 17:48:10.061818,20
2021-12-23 17:48:10.061828,-51
2021-12-23 17:48:10.061838,-118
2021-12-23 17:48:10.061848,-179
2021-12-23 17:48:10.061858,-200
2021-12-23 17:48:10.061867,-188
2021-12-23 17:48:10.376521,-207
2021-12-23 17:48:10.376552,-244
2021-12-23 17:48:10.376564,-237
2021-12-23 17:48:10.376574,-207
2021-12-23 17:48:10.376584,-205
2021-12-23 17:48:10.376594,-195
2021-12-23 17:48:10.376604,-172
2021-12-23 17:48:10.376614,-181
2021-12-23 17:48:10.376624,-195
2021-12-23 17:48:10.376634,-181
2021-12-23 17:48:10.376643,-158
2021-12-23 17:48:10.376653,-128
2021-12-23 17:48:10.376663,-114
2021-12-23 17:48:10.376673,-149
2021-12-23 17:48:10.376682,-167
2021-12-23 17:48:10.376692,-132
2021-12-23 17:48:10.376702,-128
2021-12-23 17:48:10.376712,-153
2021-12-23 17:48:10.376721,-142
2021-12-23 17:48:10.376731,-130
2021-12-23 17:48:10.376741,-139
2021-12-23 17:48:10.376751,-128
2021-12-23 17:48:10.376761,-111
2021-12-23 17:48:10.376770,-114
2021-12-23 17:48:10.376780,-104
2021-12-23 17:48:10.376790,-76
2021-12-23 17:48:10.376800,-76
2021-12-23 17:48:10.376809,-81
2021-12-23 17:48:10.376819,-58
2021-12-23 17:48:10.376829,-44
2021-12-23 17:48:10.555527,-44
2021-12-23 17:48:10.555557,-44
2021-12-23 17:48:10.555569,-53
2021-12-23 17:48:10.555580,-86
2021-12-23 17:48:10.555590,-111
2021-12-23 17:48:10.555600,-93
2021-12-23 17:48:10.555610,-86
2021-12-23 17:48:10.555620,-107
2021-12-23 17:48:10.555630,-97
2021-12-23 17:48:10.555640,-81
2021-12-23 17:48:10.555650,-76
2021-12-23 17:48:10.555671,-62
2021-12-23 17:48:10.555682,-72
2021-12-23 17:48:10.555692,-100
2021-12-23 17:48:10.555702,-83
2021-12-23 17:48:10.555712,-53
2021-12-23 17:48:10.555722,-41
2021-12-23 17:48:10.555732,-20
2021-12-23 17:48:10.555742,0
2021-12-23 17:48:10.555752,-2
2021-12-23 17:48:10.555762,-13
2021-12-23 17:48:10.555772,-18
2021-12-23 17:48:10.555782,-16
2021-12-23 17:48:10.555792,-20
2021-12-23 17:48:10.555802,-27
2021-12-23 17:48:10.555812,-20
2021-12-23 17:48:10.555822,-4
2021-12-23 17:48:10.555832,-4
2021-12-23 17:48:10.555842,-4
2021-12-23 17:48:10.555852,2
2021-12-23 17:48:10.736453,4
2021-12-23 17:48:10.736483,20
2021-12-23 17:48:10.736495,58
2021-12-23 17:48:10.736506,158
2021-12-23 17:48:10.736516,405
2021-12-23 17:48:10.736526,643
2021-12-23 17:48:10.736536,529
2021-12-23 17:48:10.736546,32
2021-12-23 17:48:10.736556,-468
2021-12-23 17:48:10.736566,-494
2021-12-23 17:48:10.736575,-139
2021-12-23 17:48:10.736586,2
2021-12-23 17:48:10.736596,-37
2021-12-23 17:48:10.736606,67
2021-12-23 17:48:10.736615,142
2021-12-23 17:48:10.736625,107
2021-12-23 17:48:10.736635,137
2021-12-23 17:48:10.736645,177
2021-12-23 17:48:10.736655,153
2021-12-23 17:48:10.736665,165
2021-12-23 17:48:10.736675,202
2021-12-23 17:48:10.736684,167
2021-12-23 17:48:10.736694,130
2021-12-23 17:48:10.736704,160
2021-12-23 17:48:10.736714,186
2021-12-23 17:48:10.736724,191
2021-12-23 17:48:10.736734,228
2021-12-23 17:48:10.736744,268
2021-12-23 17:48:10.736754,291
2021-12-23 17:48:10.736764,328
2021-12-23 17:48:11.006630,373
2021-12-23 17:48:11.006661,403
2021-12-23 17:48:11.006673,419
2021-12-23 17:48:11.006683,417
2021-12-23 17:48:11.006693,408
2021-12-23 17:48:11.006703,377
2021-12-23 17:48:11.006714,310
2021-12-23 17:48:11.006724,244
2021-12-23 17:48:11.006734,167
2021-12-23 17:48:11.006744,46
2021-12-23 17:48:11.006754,-55
2021-12-23 17:48:11.006764,-130
2021-12-23 17:48:11.006774,-181
2021-12-23 17:48:11.006784,-195
2021-12-23 17:48:11.006794,-228
2021-12-23 17:48:11.006804,-282
2021-12-23 17:48:11.006814,-291
2021-12-23 17:48:11.006824,-286
2021-12-23 17:48:11.006834,-289
2021-12-23 17:48:11.006844,-256
2021-12-23 17:48:11.006854,-226
2021-12-23 17:48:11.006864,-223
2021-12-23 17:48:11.006874,-214
2021-12-23 17:48:11.006884,-195
2021-12-23 17:48:11.006894,-188
2021-12-23 17:48:11.006904,-174
2021-12-23 17:48:11.006914,-160
2021-12-23 17:48:11.006924,-146
2021-12-23 17:48:11.006934,-130
2021-12-23 17:48:11.006944,-116
2021-12-23 17:48:11.231943,-109
2021-12-23 17:48:11.231973,-100
2021-12-23 17:48:11.231985,-90
2021-12-23 17:48:11.231995,-95
2021-12-23 17:48:11.232005,-128
2021-12-23 17:48:11.232015,-174
2021-12-23 17:48:11.232024,-181
2021-12-23 17:48:11.232034,-160
2021-12-23 17:48:11.232044,-156
2021-12-23 17:48:11.232053,-144
2021-12-23 17:48:11.232063,-123
2021-12-23 17:48:11.232073,-128
2021-12-23 17:48:11.232082,-132
2021-12-23 17:48:11.232092,-118
2021-12-23 17:48:11.232102,-116
2021-12-23 17:48:11.232112,-125
2021-12-23 17:48:11.232122,-116
2021-12-23 17:48:11.232132,-88
2021-12-23 17:48:11.232141,-58
2021-12-23 17:48:11.232151,-44
2021-12-23 17:48:11.232161,-41
2021-12-23 17:48:11.232170,-32
2021-12-23 17:48:11.232180,-30
2021-12-23 17:48:11.232190,-39
2021-12-23 17:48:11.232199,-4
2021-12-23 17:48:11.232209,34
2021-12-23 17:48:11.232219,6
2021-12-23 17:48:11.232229,-16
2021-12-23 17:48:11.232239,11
2021-12-23 17:48:11.232248,39
2021-12-23 17:48:11.456493,53
2021-12-23 17:48:11.456523,60
2021-12-23 17:48:11.456535,74
2021-12-23 17:48:11.456546,69
2021-12-23 17:48:11.456556,41
2021-12-23 17:48:11.456566,39
2021-12-23 17:48:11.456576,60
2021-12-23 17:48:11.456586,69
2021-12-23 17:48:11.456595,65
2021-12-23 17:48:11.456605,44
2021-12-23 17:48:11.456615,18
2021-12-23 17:48:11.456625,25
2021-12-23 17:48:11.456636,60
2021-12-23 17:48:11.456645,72
2021-12-23 17:48:11.456655,30
2021-12-23 17:48:11.456665,6
2021-12-23 17:48:11.456675,123
2021-12-23 17:48:11.456685,405
2021-12-23 17:48:11.456695,622
2021-12-23 17:48:11.456705,433
2021-12-23 17:48:11.456715,-181
2021-12-23 17:48:11.456725,-638
2021-12-23 17:48:11.456735,-422
2021-12-23 17:48:11.456745,-30
2021-12-23 17:48:11.456755,11
2021-12-23 17:48:11.456765,27
2021-12-23 17:48:11.456775,144
2021-12-23 17:48:11.456785,132
2021-12-23 17:48:11.456795,88
2021-12-23 17:48:11.456805,139
2021-12-23 17:48:11.681699,167
2021-12-23 17:48:11.681729,144
2021-12-23 17:48:11.681741,139
2021-12-23 17:48:11.681751,146
2021-12-23 17:48:11.681761,165
2021-12-23 17:48:11.681771,202
2021-12-23 17:48:11.681781,219
2021-12-23 17:48:11.681791,223
2021-12-23 17:48:11.681809,230
2021-12-23 17:48:11.681820,233
2021-12-23 17:48:11.681830,256
2021-12-23 17:48:11.681840,303
2021-12-23 17:48:11.681849,349
2021-12-23 17:48:11.681859,391
2021-12-23 17:48:11.681869,403
2021-12-23 17:48:11.681879,368
2021-12-23 17:48:11.681889,361
2021-12-23 17:48:11.681899,391
2021-12-23 17:48:11.681909,373
2021-12-23 17:48:11.681919,303
2021-12-23 17:48:11.681929,226
2021-12-23 17:48:11.681939,142
2021-12-23 17:48:11.681949,48
2021-12-23 17:48:11.681959,-39
2021-12-23 17:48:11.681969,-102
2021-12-23 17:48:11.681979,-139
2021-12-23 17:48:11.681989,-193
2021-12-23 17:48:11.681999,-247
2021-12-23 17:48:11.682009,-254
2021-12-23 17:48:11.682019,-251
2021-12-23 17:48:11.906936,-265
2021-12-23 17:48:11.906966,-249
2021-12-23 17:48:11.906978,-223
2021-12-23 17:48:11.906989,-219
2021-12-23 17:48:11.906999,-205
2021-12-23 17:48:11.907009,-170
2021-12-23 17:48:11.907019,-144
2021-12-23 17:48:11.907029,-151
2021-12-23 17:48:11.907039,-167
2021-12-23 17:48:11.907048,-172
2021-12-23 17:48:11.907058,-149
2021-12-23 17:48:11.907068,-121
2021-12-23 17:48:11.907078,-111
2021-12-23 17:48:11.907088,-123
2021-12-23 17:48:11.907098,-151
2021-12-23 17:48:11.907108,-151
2021-12-23 17:48:11.907118,-118
2021-12-23 17:48:11.907128,-97
2021-12-23 17:48:11.907137,-90
2021-12-23 17:48:11.907147,-83
2021-12-23 17:48:11.907157,-109
2021-12-23 17:48:11.907167,-146
2021-12-23 17:48:11.907177,-132
2021-12-23 17:48:11.907187,-93
2021-12-23 17:48:11.907197,-88
2021-12-23 17:48:11.907207,-97
2021-12-23 17:48:11.907217,-95
2021-12-23 17:48:11.907227,-88
2021-12-23 17:48:11.907236,-76
2021-12-23 17:48:11.907246,-62
2021-12-23 17:48:12.130782,-51
2021-12-23 17:48:12.130798,-60
2021-12-23 17:48:12.130805,-81
2021-12-23 17:48:12.130810,-79
2021-12-23 17:48:12.130815,-62
2021-12-23 17:48:12.130821,-51
2021-12-23 17:48:12.130826,-32
2021-12-23 17:48:12.130831,-37
2021-12-23 17:48:12.130836,-53
2021-12-23 17:48:12.130842,-39
2021-12-23 17:48:12.130847,-9
2021-12-23 17:48:12.130852,0
2021-12-23 17:48:12.130857,-9
2021-12-23 17:48:12.130862,-41
2021-12-23 17:48:12.130868,-67
2021-12-23 17:48:12.130873,-55
2021-12-23 17:48:12.130878,-34
2021-12-23 17:48:12.130883,-16
2021-12-23 17:48:12.130888,0
2021-12-23 17:48:12.130893,-4
2021-12-23 17:48:12.130899,-11
2021-12-23 17:48:12.130904,-4
2021-12-23 17:48:12.130909,13
2021-12-23 17:48:12.130914,48
2021-12-23 17:48:12.130919,111
2021-12-23 17:48:12.130925,291
2021-12-23 17:48:12.130930,554
2021-12-23 17:48:12.130935,585
2021-12-23 17:48:12.130940,193
2021-12-23 17:48:12.130945,-363
2021-12-23 17:48:12.357236,-538
2021-12-23 17:48:12.357268,-202
2021-12-23 17:48:12.357280,25
2021-12-23 17:48:12.357290,-20
2021-12-23 17:48:12.357300,27
2021-12-23 17:48:12.357310,132
2021-12-23 17:48:12.357320,109
2021-12-23 17:48:12.357329,72
2021-12-23 17:48:12.357339,107
2021-12-23 17:48:12.357348,128
2021-12-23 17:48:12.357358,125
2021-12-23 17:48:12.357368,128
2021-12-23 17:48:12.357377,100
2021-12-23 17:48:12.357387,83
2021-12-23 17:48:12.357396,121
2021-12-23 17:48:12.357406,146
2021-12-23 17:48:12.357415,153
2021-12-23 17:48:12.357425,186
2021-12-23 17:48:12.357434,212
2021-12-23 17:48:12.357444,228
2021-12-23 17:48:12.357454,261
2021-12-23 17:48:12.357464,300
2021-12-23 17:48:12.357473,335
2021-12-23 17:48:12.357483,366
2021-12-23 17:48:12.357492,368
2021-12-23 17:48:12.357502,335
2021-12-23 17:48:12.357511,279
2021-12-23 17:48:12.357521,223
2021-12-23 17:48:12.357530,179
2021-12-23 17:48:12.357540,116
2021-12-23 17:48:12.625102,23
2021-12-23 17:48:12.625133,-58
2021-12-23 17:48:12.625145,-114
2021-12-23 17:48:12.625155,-163
2021-12-23 17:48:12.625165,-214
2021-12-23 17:48:12.625175,-270
2021-12-23 17:48:12.625185,-324
2021-12-23 17:48:12.625194,-331
2021-12-23 17:48:12.625204,-305
2021-12-23 17:48:12.625214,-293
2021-12-23 17:48:12.625223,-286
2021-12-23 17:48:12.625233,-282
2021-12-23 17:48:12.625243,-293
2021-12-23 17:48:12.625252,-268
2021-12-23 17:48:12.625262,-226
2021-12-23 17:48:12.625272,-223
2021-12-23 17:48:12.625281,-214
2021-12-23 17:48:12.625291,-188
2021-12-23 17:48:12.625301,-181
2021-12-23 17:48:12.625310,-170
2021-12-23 17:48:12.625320,-142
2021-12-23 17:48:12.625330,-132
2021-12-23 17:48:12.625340,-130
2021-12-23 17:48:12.625349,-125
2021-12-23 17:48:12.625359,-118
2021-12-23 17:48:12.625369,-104
2021-12-23 17:48:12.625378,-93
2021-12-23 17:48:12.625388,-93
2021-12-23 17:48:12.625398,-86
2021-12-23 17:48:12.625407,-83
2021-12-23 17:48:12.806913,-83
2021-12-23 17:48:12.806943,-62
2021-12-23 17:48:12.806955,-46
2021-12-23 17:48:12.806965,-46
2021-12-23 17:48:12.806975,-48
2021-12-23 17:48:12.806985,-69
2021-12-23 17:48:12.806994,-95
2021-12-23 17:48:12.807004,-97
2021-12-23 17:48:12.807014,-97
2021-12-23 17:48:12.807024,-100
2021-12-23 17:48:12.807034,-104
2021-12-23 17:48:12.807044,-121
2021-12-23 17:48:12.807054,-121
2021-12-23 17:48:12.807063,-100
2021-12-23 17:48:12.807073,-95
2021-12-23 17:48:12.807083,-90
2021-12-23 17:48:12.807093,-79
2021-12-23 17:48:12.807103,-74
2021-12-23 17:48:12.807113,-51
2021-12-23 17:48:12.807123,-11
2021-12-23 17:48:12.807133,0
2021-12-23 17:48:12.807143,-2
2021-12-23 17:48:12.807153,4
2021-12-23 17:48:12.807167,-2
2021-12-23 17:48:12.807177,-11
2021-12-23 17:48:12.807187,-9
2021-12-23 17:48:12.807197,0
2021-12-23 17:48:12.807207,13
2021-12-23 17:48:12.807217,13
2021-12-23 17:48:12.807227,9
2021-12-23 17:48:13.031706,13
2021-12-23 17:48:13.031728,-6
2021-12-23 17:48:13.031736,-46
2021-12-23 17:48:13.031742,-48
2021-12-23 17:48:13.031749,-46
2021-12-23 17:48:13.031755,-32
2021-12-23 17:48:13.031762,128
2021-12-23 17:48:13.031768,435
2021-12-23 17:48:13.031775,575
2021-12-23 17:48:13.031781,296
2021-12-23 17:48:13.031788,-289
2021-12-23 17:48:13.031794,-673
2021-12-23 17:48:13.031800,-468
2021-12-23 17:48:13.031807,-118
2021-12-23 17:48:13.031813,-76
2021-12-23 17:48:13.031820,-58
2021-12-23 17:48:13.031826,46
2021-12-23 17:48:13.031833,53
2021-12-23 17:48:13.031839,41
2021-12-23 17:48:13.031846,93
2021-12-23 17:48:13.031852,116
2021-12-23 17:48:13.031859,104
2021-12-23 17:48:13.031865,111
2021-12-23 17:48:13.031871,114
2021-12-23 17:48:13.031878,109
2021-12-23 17:48:13.031884,128
2021-12-23 17:48:13.031891,163
2021-12-23 17:48:13.031897,179
2021-12-23 17:48:13.031904,177
2021-12-23 17:48:13.031910,198
2021-12-23 17:48:13.301625,249
2021-12-23 17:48:13.301655,293
2021-12-23 17:48:13.301666,312
2021-12-23 17:48:13.301677,312
2021-12-23 17:48:13.301687,310
2021-12-23 17:48:13.301696,335
2021-12-23 17:48:13.301706,356
2021-12-23 17:48:13.301716,356
2021-12-23 17:48:13.301726,331
2021-12-23 17:48:13.301736,256
2021-12-23 17:48:13.301745,151
2021-12-23 17:48:13.301755,58
2021-12-23 17:48:13.301765,-27
2021-12-23 17:48:13.301775,-90
2021-12-23 17:48:13.301784,-144
2021-12-23 17:48:13.301794,-216
2021-12-23 17:48:13.301804,-254
2021-12-23 17:48:13.301814,-251
2021-12-23 17:48:13.301823,-265
2021-12-23 17:48:13.301833,-272
2021-12-23 17:48:13.301843,-256
2021-12-23 17:48:13.301853,-270
2021-12-23 17:48:13.301863,-270
2021-12-23 17:48:13.301872,-219
2021-12-23 17:48:13.301882,-181
2021-12-23 17:48:13.301892,-177
2021-12-23 17:48:13.301902,-170
2021-12-23 17:48:13.301911,-172
2021-12-23 17:48:13.301921,-170
2021-12-23 17:48:13.301931,-142
2021-12-23 17:48:13.527073,-121
2021-12-23 17:48:13.527103,-109
2021-12-23 17:48:13.527116,-100
2021-12-23 17:48:13.527126,-107
2021-12-23 17:48:13.527136,-104
2021-12-23 17:48:13.527146,-90
2021-12-23 17:48:13.527156,-118
2021-12-23 17:48:13.527165,-146
2021-12-23 17:48:13.527175,-142
2021-12-23 17:48:13.527185,-160
2021-12-23 17:48:13.527195,-170
2021-12-23 17:48:13.527205,-135
2021-12-23 17:48:13.527215,-123
2021-12-23 17:48:13.527225,-144
2021-12-23 17:48:13.527235,-177
2021-12-23 17:48:13.527244,-200
2021-12-23 17:48:13.527254,-177
2021-12-23 17:48:13.527264,-142
2021-12-23 17:48:13.527274,-128
2021-12-23 17:48:13.527284,-118
2021-12-23 17:48:13.527293,-121
2021-12-23 17:48:13.527303,-125
2021-12-23 17:48:13.527313,-109
2021-12-23 17:48:13.527323,-79
2021-12-23 17:48:13.527333,-65
2021-12-23 17:48:13.527343,-65
2021-12-23 17:48:13.527352,-65
2021-12-23 17:48:13.527362,-65
2021-12-23 17:48:13.527372,-62
2021-12-23 17:48:13.527382,-46
2021-12-23 17:48:13.751488,-20
2021-12-23 17:48:13.751518,0
2021-12-23 17:48:13.751530,6
2021-12-23 17:48:13.751541,4
2021-12-23 17:48:13.751551,18
2021-12-23 17:48:13.751561,48
2021-12-23 17:48:13.751571,58
2021-12-23 17:48:13.751581,32
2021-12-23 17:48:13.751591,-16
2021-12-23 17:48:13.751601,-44
2021-12-23 17:48:13.751611,-18
2021-12-23 17:48:13.751621,16
2021-12-23 17:48:13.751631,27
2021-12-23 17:48:13.751641,13
2021-12-23 17:48:13.751651,-20
2021-12-23 17:48:13.751662,-53
2021-12-23 17:48:13.751672,-58
2021-12-23 17:48:13.751681,-34
2021-12-23 17:48:13.751692,0
2021-12-23 17:48:13.751701,95
2021-12-23 17:48:13.751712,326
2021-12-23 17:48:13.751722,552
2021-12-23 17:48:13.751732,477
2021-12-23 17:48:13.751742,55
2021-12-23 17:48:13.751752,-422
2021-12-23 17:48:13.751762,-498
2021-12-23 17:48:13.751772,-177
2021-12-23 17:48:13.751782,4
2021-12-23 17:48:13.751792,2
2021-12-23 17:48:13.751802,90
2021-12-23 17:48:13.976609,158
2021-12-23 17:48:13.976640,132
2021-12-23 17:48:13.976651,125
2021-12-23 17:48:13.976662,151
2021-12-23 17:48:13.976672,160
2021-12-23 17:48:13.976681,172
2021-12-23 17:48:13.976691,188
2021-12-23 17:48:13.976701,156
2021-12-23 17:48:13.976711,128
2021-12-23 17:48:13.976721,153
2021-12-23 17:48:13.976731,181
2021-12-23 17:48:13.976741,174
2021-12-23 17:48:13.976751,151
2021-12-23 17:48:13.976761,139
2021-12-23 17:48:13.976771,163
2021-12-23 17:48:13.976781,205
2021-12-23 17:48:13.976791,237
2021-12-23 17:48:13.976801,268
2021-12-23 17:48:13.976810,286
2021-12-23 17:48:13.976820,279
2021-12-23 17:48:13.976830,279
2021-12-23 17:48:13.976840,279
2021-12-23 17:48:13.976850,249
2021-12-23 17:48:13.976860,198
2021-12-23 17:48:13.976870,128
2021-12-23 17:48:13.976880,37
2021-12-23 17:48:13.976890,-39
2021-12-23 17:48:13.976900,-97
2021-12-23 17:48:13.976910,-144
2021-12-23 17:48:13.976920,-179
2021-12-23 17:48:14.201902,-209
2021-12-23 17:48:14.201947,-237
2021-12-23 17:48:14.201959,-254
2021-12-23 17:48:14.201969,-251
2021-12-23 17:48:14.201979,-237
2021-12-23 17:48:14.201989,-221
2021-12-23 17:48:14.201999,-219
2021-12-23 17:48:14.202009,-230
2021-12-23 17:48:14.202018,-221
2021-12-23 17:48:14.202028,-191
2021-12-23 17:48:14.202038,-177
2021-12-23 17:48:14.202048,-165
2021-12-23 17:48:14.202058,-163
2021-12-23 17:48:14.202068,-170
2021-12-23 17:48:14.202078,-156
2021-12-23 17:48:14.202088,-137
2021-12-23 17:48:14.202097,-123
2021-12-23 17:48:14.202107,-107
2021-12-23 17:48:14.202117,-109
2021-12-23 17:48:14.202127,-130
2021-12-23 17:48:14.202136,-144
2021-12-23 17:48:14.202146,-135
2021-12-23 17:48:14.202156,-118
2021-12-23 17:48:14.202166,-100
2021-12-23 17:48:14.202175,-83
2021-12-23 17:48:14.202185,-81
2021-12-23 17:48:14.202195,-83
2021-12-23 17:48:14.202205,-72
2021-12-23 17:48:14.202215,-53
2021-12-23 17:48:14.202229,-46
2021-12-23 17:48:14.427061,-53
2021-12-23 17:48:14.427092,-41
2021-12-23 17:48:14.427104,-27
2021-12-23 17:48:14.427115,-39
2021-12-23 17:48:14.427125,-37
2021-12-23 17:48:14.427135,-11
2021-12-23 17:48:14.427145,-25
2021-12-23 17:48:14.427155,-44
2021-12-23 17:48:14.427165,-23
2021-12-23 17:48:14.427175,-4
2021-12-23 17:48:14.427185,-4
2021-12-23 17:48:14.427195,-18
2021-12-23 17:48:14.427205,-46
2021-12-23 17:48:14.427215,-37
2021-12-23 17:48:14.427225,-2
2021-12-23 17:48:14.427235,4
2021-12-23 17:48:14.427245,9
2021-12-23 17:48:14.427255,6
2021-12-23 17:48:14.427265,-6
2021-12-23 17:48:14.427275,4
2021-12-23 17:48:14.427285,13
2021-12-23 17:48:14.427295,-25
2021-12-23 17:48:14.427305,-51
2021-12-23 17:48:14.427315,-37
2021-12-23 17:48:14.427325,-30
2021-12-23 17:48:14.427335,-25
2021-12-23 17:48:14.427345,-9
2021-12-23 17:48:14.427355,-9
2021-12-23 17:48:14.427365,-6
2021-12-23 17:48:14.427375,6
2021-12-23 17:48:14.695483,16
2021-12-23 17:48:14.695514,34
2021-12-23 17:48:14.695526,95
2021-12-23 17:48:14.695536,265
2021-12-23 17:48:14.695547,547
2021-12-23 17:48:14.695557,657
2021-12-23 17:48:14.695567,352
2021-12-23 17:48:14.695577,-233
2021-12-23 17:48:14.695587,-559
2021-12-23 17:48:14.695597,-298
2021-12-23 17:48:14.695607,2
2021-12-23 17:48:14.695617,-32
2021-12-23 17:48:14.695627,-13
2021-12-23 17:48:14.695637,128
2021-12-23 17:48:14.695647,149
2021-12-23 17:48:14.695657,114
2021-12-23 17:48:14.695667,135
2021-12-23 17:48:14.695677,165
2021-12-23 17:48:14.695687,174
2021-12-23 17:48:14.695697,191
2021-12-23 17:48:14.695707,214
2021-12-23 17:48:14.695717,228
2021-12-23 17:48:14.695727,235
2021-12-23 17:48:14.695737,228
2021-12-23 17:48:14.695747,216
2021-12-23 17:48:14.695757,228
2021-12-23 17:48:14.695767,261
2021-12-23 17:48:14.695777,296
2021-12-23 17:48:14.695787,321
2021-12-23 17:48:14.695797,352
2021-12-23 17:48:14.877027,398
2021-12-23 17:48:14.877057,431
2021-12-23 17:48:14.877069,426
2021-12-23 17:48:14.877079,415
2021-12-23 17:48:14.877089,398
2021-12-23 17:48:14.877099,363
2021-12-23 17:48:14.877109,317
2021-12-23 17:48:14.877118,263
2021-12-23 17:48:14.877128,184
2021-12-23 17:48:14.877138,79
2021-12-23 17:48:14.877148,-27
2021-12-23 17:48:14.877157,-86
2021-12-23 17:48:14.877167,-93
2021-12-23 17:48:14.877177,-109
2021-12-23 17:48:14.877186,-142
2021-12-23 17:48:14.877196,-170
2021-12-23 17:48:14.877206,-200
2021-12-23 17:48:14.877215,-223
2021-12-23 17:48:14.877225,-212
2021-12-23 17:48:14.877235,-184
2021-12-23 17:48:14.877244,-174
2021-12-23 17:48:14.877254,-179
2021-12-23 17:48:14.877263,-188
2021-12-23 17:48:14.877273,-200
2021-12-23 17:48:14.877283,-195
2021-12-23 17:48:14.877292,-172
2021-12-23 17:48:14.877302,-167
2021-12-23 17:48:14.877311,-186
2021-12-23 17:48:14.877321,-181
2021-12-23 17:48:14.877331,-144
2021-12-23 17:48:15.190776,-125
2021-12-23 17:48:15.190806,-114
2021-12-23 17:48:15.190818,-104
2021-12-23 17:48:15.190828,-135
2021-12-23 17:48:15.190838,-170
2021-12-23 17:48:15.190848,-144
2021-12-23 17:48:15.190858,-107
2021-12-23 17:48:15.190868,-100
2021-12-23 17:48:15.190878,-102
2021-12-23 17:48:15.190888,-121
2021-12-23 17:48:15.190898,-132
2021-12-23 17:48:15.190908,-104
2021-12-23 17:48:15.190918,-79
2021-12-23 17:48:15.190928,-76
2021-12-23 17:48:15.190938,-72
2021-12-23 17:48:15.190949,-74
2021-12-23 17:48:15.190959,-86
2021-12-23 17:48:15.190969,-67
2021-12-23 17:48:15.190979,-37
2021-12-23 17:48:15.190989,-23
2021-12-23 17:48:15.190999,-18
2021-12-23 17:48:15.191009,-16
2021-12-23 17:48:15.191019,-4
2021-12-23 17:48:15.191029,20
2021-12-23 17:48:15.191039,41
2021-12-23 17:48:15.191049,53
2021-12-23 17:48:15.191059,44
2021-12-23 17:48:15.191069,16
2021-12-23 17:48:15.191079,-9
2021-12-23 17:48:15.191089,-6
2021-12-23 17:48:15.371881,18
2021-12-23 17:48:15.371912,37
2021-12-23 17:48:15.371924,34
2021-12-23 17:48:15.371934,20
2021-12-23 17:48:15.371944,23
2021-12-23 17:48:15.371954,46
2021-12-23 17:48:15.371964,65
2021-12-23 17:48:15.371974,86
2021-12-23 17:48:15.371984,128
2021-12-23 17:48:15.371994,263
2021-12-23 17:48:15.372003,522
2021-12-23 17:48:15.372013,629
2021-12-23 17:48:15.372023,277
2021-12-23 17:48:15.372033,-345
2021-12-23 17:48:15.372043,-589
2021-12-23 17:48:15.372053,-265
2021-12-23 17:48:15.372063,-4
2021-12-23 17:48:15.372073,-20
2021-12-23 17:48:15.372083,37
2021-12-23 17:48:15.372093,130
2021-12-23 17:48:15.372103,93
2021-12-23 17:48:15.372112,60
2021-12-23 17:48:15.372122,109
2021-12-23 17:48:15.372132,137
2021-12-23 17:48:15.372142,142
2021-12-23 17:48:15.372152,167
2021-12-23 17:48:15.372161,177
2021-12-23 17:48:15.372171,153
2021-12-23 17:48:15.372181,132
2021-12-23 17:48:15.372191,125
2021-12-23 17:48:15.596843,139
2021-12-23 17:48:15.596874,177
2021-12-23 17:48:15.596886,221
2021-12-23 17:48:15.596896,256
2021-12-23 17:48:15.596906,296
2021-12-23 17:48:15.596916,335
2021-12-23 17:48:15.596925,361
2021-12-23 17:48:15.596935,373
2021-12-23 17:48:15.596945,352
2021-12-23 17:48:15.596954,319
2021-12-23 17:48:15.596964,321
2021-12-23 17:48:15.596974,300
2021-12-23 17:48:15.596984,226
2021-12-23 17:48:15.596994,130
2021-12-23 17:48:15.597003,23
2021-12-23 17:48:15.597013,-69
2021-12-23 17:48:15.597023,-114
2021-12-23 17:48:15.597033,-139
2021-12-23 17:48:15.597042,-174
2021-12-23 17:48:15.597052,-195
2021-12-23 17:48:15.597062,-193
2021-12-23 17:48:15.597071,-195
2021-12-23 17:48:15.597081,-200
2021-12-23 17:48:15.597091,-167
2021-12-23 17:48:15.597100,-137
2021-12-23 17:48:15.597110,-144
2021-12-23 17:48:15.597120,-151
2021-12-23 17:48:15.597129,-144
2021-12-23 17:48:15.597139,-144
2021-12-23 17:48:15.597149,-132
2021-12-23 17:48:15.821055,-123
2021-12-23 17:48:15.821077,-153
2021-12-23 17:48:15.821085,-177
2021-12-23 17:48:15.821092,-167
2021-12-23 17:48:15.821099,-153
2021-12-23 17:48:15.821105,-135
2021-12-23 17:48:15.821111,-116
2021-12-23 17:48:15.821118,-144
2021-12-23 17:48:15.821124,-179
2021-12-23 17:48:15.821131,-167
2021-12-23 17:48:15.821137,-142
2021-12-23 17:48:15.821144,-128
2021-12-23 17:48:15.821150,-128
2021-12-23 17:48:15.821157,-146
2021-12-23 17:48:15.821163,-156
2021-12-23 17:48:15.821169,-139
2021-12-23 17:48:15.821176,-132
2021-12-23 17:48:15.821182,-121
2021-12-23 17:48:15.821189,-97
2021-12-23 17:48:15.821195,-100
2021-12-23 17:48:15.821201,-109
2021-12-23 17:48:15.821208,-97
2021-12-23 17:48:15.821214,-74
2021-12-23 17:48:15.821221,-62
2021-12-23 17:48:15.821227,-69
2021-12-23 17:48:15.821234,-74
2021-12-23 17:48:15.821240,-65
2021-12-23 17:48:15.821247,-44
2021-12-23 17:48:15.821257,-11
2021-12-23 17:48:15.821263,9
2021-12-23 17:48:16.091948,11
2021-12-23 17:48:16.091979,18
2021-12-23 17:48:16.091991,18
2021-12-23 17:48:16.092002,-23
2021-12-23 17:48:16.092012,-79
2021-12-23 17:48:16.092022,-81
2021-12-23 17:48:16.092032,-76
2021-12-23 17:48:16.092042,-97
2021-12-23 17:48:16.092052,-90
2021-12-23 17:48:16.092062,-62
2021-12-23 17:48:16.092072,-53
2021-12-23 17:48:16.092082,-51
2021-12-23 17:48:16.092092,-60
2021-12-23 17:48:16.092102,-60
2021-12-23 17:48:16.092112,-18
2021-12-23 17:48:16.092122,69
2021-12-23 17:48:16.092132,282
2021-12-23 17:48:16.092142,552
2021-12-23 17:48:16.092152,547
2021-12-23 17:48:16.092162,104
2021-12-23 17:48:16.092173,-459
2021-12-23 17:48:16.092183,-566
2021-12-23 17:48:16.092194,-195
2021-12-23 17:48:16.092204,4
2021-12-23 17:48:16.092214,-32
2021-12-23 17:48:16.092224,55
2021-12-23 17:48:16.092234,144
2021-12-23 17:48:16.092244,114
2021-12-23 17:48:16.092254,116
2021-12-23 17:48:16.092264,160
2021-12-23 17:48:16.271816,160
2021-12-23 17:48:16.271846,160
2021-12-23 17:48:16.271858,188
2021-12-23 17:48:16.271868,195
2021-12-23 17:48:16.271878,205
2021-12-23 17:48:16.271888,230
2021-12-23 17:48:16.271898,233
2021-12-23 17:48:16.271907,228
2021-12-23 17:48:16.271917,258
2021-12-23 17:48:16.271927,293
2021-12-23 17:48:16.271936,317
2021-12-23 17:48:16.271946,335
2021-12-23 17:48:16.271956,349
2021-12-23 17:48:16.271966,366
2021-12-23 17:48:16.271975,366
2021-12-23 17:48:16.271985,354
2021-12-23 17:48:16.271995,359
2021-12-23 17:48:16.272005,335
2021-12-23 17:48:16.272014,261
2021-12-23 17:48:16.272024,193
2021-12-23 17:48:16.272034,123
2021-12-23 17:48:16.272044,32
2021-12-23 17:48:16.272054,-39
2021-12-23 17:48:16.272064,-100
2021-12-23 17:48:16.272073,-156
2021-12-23 17:48:16.272083,-163
2021-12-23 17:48:16.272093,-163
2021-12-23 17:48:16.272102,-184
2021-12-23 17:48:16.272112,-184
2021-12-23 17:48:16.272122,-177
2021-12-23 17:48:16.541348,-174
2021-12-23 17:48:16.541379,-153
2021-12-23 17:48:16.541391,-135
2021-12-23 17:48:16.541401,-135
2021-12-23 17:48:16.541411,-132
2021-12-23 17:48:16.541421,-146
2021-12-23 17:48:16.541430,-177
2021-12-23 17:48:16.541440,-179
2021-12-23 17:48:16.541450,-198
2021-12-23 17:48:16.541460,-263
2021-12-23 17:48:16.541469,-293
2021-12-23 17:48:16.541479,-272
2021-12-23 17:48:16.541489,-258
2021-12-23 17:48:16.541499,-247
2021-12-23 17:48:16.541508,-223
2021-12-23 17:48:16.541518,-214
2021-12-23 17:48:16.541527,-216
2021-12-23 17:48:16.541537,-209
2021-12-23 17:48:16.541547,-193
2021-12-23 17:48:16.541556,-174
2021-12-23 17:48:16.541566,-158
2021-12-23 17:48:16.541576,-158
2021-12-23 17:48:16.541585,-167
2021-12-23 17:48:16.541595,-156
2021-12-23 17:48:16.541605,-137
2021-12-23 17:48:16.541614,-125
2021-12-23 17:48:16.541624,-111
2021-12-23 17:48:16.541634,-111
2021-12-23 17:48:16.541643,-111
2021-12-23 17:48:16.541653,-100
2021-12-23 17:48:16.810679,-83
2021-12-23 17:48:16.810710,-69
2021-12-23 17:48:16.810721,-53
2021-12-23 17:48:16.810732,-60
2021-12-23 17:48:16.810742,-97
2021-12-23 17:48:16.810752,-123
2021-12-23 17:48:16.810762,-102
2021-12-23 17:48:16.810772,-69
2021-12-23 17:48:16.810782,-44
2021-12-23 17:48:16.810792,-34
2021-12-23 17:48:16.810802,-53
2021-12-23 17:48:16.810812,-51
2021-12-23 17:48:16.810822,-13
2021-12-23 17:48:16.810832,-4
2021-12-23 17:48:16.810842,-23
2021-12-23 17:48:16.810852,-46
2021-12-23 17:48:16.810862,-72
2021-12-23 17:48:16.810872,-74
2021-12-23 17:48:16.810882,-53
2021-12-23 17:48:16.810892,-39
2021-12-23 17:48:16.810902,-32
2021-12-23 17:48:16.810912,-30
2021-12-23 17:48:16.810922,-30
2021-12-23 17:48:16.810932,-13
2021-12-23 17:48:16.810942,18
2021-12-23 17:48:16.810952,74
2021-12-23 17:48:16.810962,233
2021-12-23 17:48:16.810972,489
2021-12-23 17:48:16.810982,585
2021-12-23 17:48:16.810992,331
2021-12-23 17:48:16.992034,-160
2021-12-23 17:48:16.992065,-519
2021-12-23 17:48:16.992077,-356
2021-12-23 17:48:16.992087,-34
2021-12-23 17:48:16.992097,-20
2021-12-23 17:48:16.992107,-6
2021-12-23 17:48:16.992117,118
2021-12-23 17:48:16.992127,132
2021-12-23 17:48:16.992136,102
2021-12-23 17:48:16.992146,102
2021-12-23 17:48:16.992156,93
2021-12-23 17:48:16.992166,97
2021-12-23 17:48:16.992176,104
2021-12-23 17:48:16.992186,104
2021-12-23 17:48:16.992195,118
2021-12-23 17:48:16.992205,100
2021-12-23 17:48:16.992215,83
2021-12-23 17:48:16.992225,130
2021-12-23 17:48:16.992234,177
2021-12-23 17:48:16.992244,200
2021-12-23 17:48:16.992254,233
2021-12-23 17:48:16.992264,254
2021-12-23 17:48:16.992273,279
2021-12-23 17:48:16.992283,338
2021-12-23 17:48:16.992293,375
2021-12-23 17:48:16.992302,368
2021-12-23 17:48:16.992312,349
2021-12-23 17:48:16.992322,331
2021-12-23 17:48:16.992332,307
2021-12-23 17:48:16.992342,272
2021-12-23 17:48:17.216398,209
2021-12-23 17:48:17.216428,123
2021-12-23 17:48:17.216440,37
2021-12-23 17:48:17.216450,-51
2021-12-23 17:48:17.216460,-114
2021-12-23 17:48:17.216470,-135
2021-12-23 17:48:17.216480,-142
2021-12-23 17:48:17.216490,-142
2021-12-23 17:48:17.216500,-163
2021-12-23 17:48:17.216510,-205
2021-12-23 17:48:17.216520,-205
2021-12-23 17:48:17.216530,-163
2021-12-23 17:48:17.216539,-137
2021-12-23 17:48:17.216549,-142
2021-12-23 17:48:17.216559,-177
2021-12-23 17:48:17.216569,-214
2021-12-23 17:48:17.216579,-198
2021-12-23 17:48:17.216589,-167
2021-12-23 17:48:17.216599,-179
2021-12-23 17:48:17.216609,-184
2021-12-23 17:48:17.216618,-177
2021-12-23 17:48:17.216628,-186
2021-12-23 17:48:17.216638,-174
2021-12-23 17:48:17.216648,-146
2021-12-23 17:48:17.216658,-135
2021-12-23 17:48:17.216668,-130
2021-12-23 17:48:17.216678,-132
2021-12-23 17:48:17.216687,-142
2021-12-23 17:48:17.216697,-130
2021-12-23 17:48:17.216707,-109
2021-12-23 17:48:17.442042,-102
2021-12-23 17:48:17.442073,-95
2021-12-23 17:48:17.442085,-95
2021-12-23 17:48:17.442095,-104
2021-12-23 17:48:17.442105,-97
2021-12-23 17:48:17.442115,-81
2021-12-23 17:48:17.442124,-72
2021-12-23 17:48:17.442134,-79
2021-12-23 17:48:17.442143,-109
2021-12-23 17:48:17.442153,-118
2021-12-23 17:48:17.442163,-81
2021-12-23 17:48:17.442173,-58
2021-12-23 17:48:17.442182,-58
2021-12-23 17:48:17.442192,-60
2021-12-23 17:48:17.442202,-86
2021-12-23 17:48:17.442212,-118
2021-12-23 17:48:17.442221,-132
2021-12-23 17:48:17.442231,-128
2021-12-23 17:48:17.442241,-86
2021-12-23 17:48:17.442250,-51
2021-12-23 17:48:17.442260,-81
2021-12-23 17:48:17.442270,-123
2021-12-23 17:48:17.442280,-90
2021-12-23 17:48:17.442289,-44
2021-12-23 17:48:17.442299,-58
2021-12-23 17:48:17.442309,-86
2021-12-23 17:48:17.442318,-90
2021-12-23 17:48:17.442328,-81
2021-12-23 17:48:17.442338,-51
2021-12-23 17:48:17.442347,-30
2021-12-23 17:48:17.666604,-27
2021-12-23 17:48:17.666634,-25
2021-12-23 17:48:17.666646,-23
2021-12-23 17:48:17.666656,-30
2021-12-23 17:48:17.666666,-20
2021-12-23 17:48:17.666676,16
2021-12-23 17:48:17.666685,74
2021-12-23 17:48:17.666695,216
2021-12-23 17:48:17.666705,459
2021-12-23 17:48:17.666715,552
2021-12-23 17:48:17.666724,270
2021-12-23 17:48:17.666734,-240
2021-12-23 17:48:17.666744,-550
2021-12-23 17:48:17.666754,-370
2021-12-23 17:48:17.666763,-79
2021-12-23 17:48:17.666773,-30
2021-12-23 17:48:17.666783,9
2021-12-23 17:48:17.666793,104
2021-12-23 17:48:17.666802,86
2021-12-23 17:48:17.666812,39
2021-12-23 17:48:17.666822,74
2021-12-23 17:48:17.666832,111
2021-12-23 17:48:17.666841,111
2021-12-23 17:48:17.666860,132
2021-12-23 17:48:17.666871,160
2021-12-23 17:48:17.666881,167
2021-12-23 17:48:17.666890,170
2021-12-23 17:48:17.666900,191
2021-12-23 17:48:17.666910,235
2021-12-23 17:48:17.666920,268
2021-12-23 17:48:17.936448,272
2021-12-23 17:48:17.936477,291
2021-12-23 17:48:17.936489,326
2021-12-23 17:48:17.936499,356
2021-12-23 17:48:17.936509,394
2021-12-23 17:48:17.936518,433
2021-12-23 17:48:17.936528,433
2021-12-23 17:48:17.936538,398
2021-12-23 17:48:17.936548,382
2021-12-23 17:48:17.936557,354
2021-12-23 17:48:17.936567,291
2021-12-23 17:48:17.936577,214
2021-12-23 17:48:17.936587,109
2021-12-23 17:48:17.936597,-2
2021-12-23 17:48:17.936607,-67
2021-12-23 17:48:17.936617,-114
2021-12-23 17:48:17.936627,-142
2021-12-23 17:48:17.936637,-151
2021-12-23 17:48:17.936646,-170
2021-12-23 17:48:17.936656,-188
2021-12-23 17:48:17.936666,-202
2021-12-23 17:48:17.936676,-205
2021-12-23 17:48:17.936686,-188
2021-12-23 17:48:17.936696,-167
2021-12-23 17:48:17.936705,-160
2021-12-23 17:48:17.936715,-149
2021-12-23 17:48:17.936725,-151
2021-12-23 17:48:17.936735,-181
2021-12-23 17:48:17.936745,-177
2021-12-23 17:48:17.936754,-144
2021-12-23 17:48:18.116908,-142
2021-12-23 17:48:18.116939,-151
2021-12-23 17:48:18.116951,-137
2021-12-23 17:48:18.116962,-137
2021-12-23 17:48:18.116972,-156
2021-12-23 17:48:18.116982,-158
2021-12-23 17:48:18.116992,-149
2021-12-23 17:48:18.117002,-144
2021-12-23 17:48:18.117012,-135
2021-12-23 17:48:18.117021,-125
2021-12-23 17:48:18.117031,-118
2021-12-23 17:48:18.117041,-125
2021-12-23 17:48:18.117051,-151
2021-12-23 17:48:18.117060,-146
2021-12-23 17:48:18.117070,-121
2021-12-23 17:48:18.117080,-116
2021-12-23 17:48:18.117090,-114
2021-12-23 17:48:18.117099,-118
2021-12-23 17:48:18.117109,-139
2021-12-23 17:48:18.117119,-123
2021-12-23 17:48:18.117128,-95
2021-12-23 17:48:18.117138,-107
2021-12-23 17:48:18.117148,-128
2021-12-23 17:48:18.117157,-132
2021-12-23 17:48:18.117167,-125
2021-12-23 17:48:18.117177,-104
2021-12-23 17:48:18.117187,-88
2021-12-23 17:48:18.117196,-90
2021-12-23 17:48:18.117206,-83
2021-12-23 17:48:18.117216,-67
2021-12-23 17:48:18.341939,-58
2021-12-23 17:48:18.341969,-48
2021-12-23 17:48:18.341981,-30
2021-12-23 17:48:18.341991,-11
2021-12-23 17:48:18.342001,-6
2021-12-23 17:48:18.342011,-18
2021-12-23 17:48:18.342021,-18
2021-12-23 17:48:18.342031,-4
2021-12-23 17:48:18.342041,0
2021-12-23 17:48:18.342051,-16
2021-12-23 17:48:18.342060,-32
2021-12-23 17:48:18.342070,-39
2021-12-23 17:48:18.342079,-39
2021-12-23 17:48:18.342089,-23
2021-12-23 17:48:18.342099,-11
2021-12-23 17:48:18.342108,-4
2021-12-23 17:48:18.342118,11
2021-12-23 17:48:18.342128,11
2021-12-23 17:48:18.342138,20
2021-12-23 17:48:18.342148,60
2021-12-23 17:48:18.342158,121
2021-12-23 17:48:18.342167,291
2021-12-23 17:48:18.342177,557
2021-12-23 17:48:18.342187,608
2021-12-23 17:48:18.342196,221
2021-12-23 17:48:18.342206,-375
2021-12-23 17:48:18.342216,-557
2021-12-23 17:48:18.342226,-198
2021-12-23 17:48:18.342236,25
2021-12-23 17:48:18.342245,-27
2021-12-23 17:48:18.566626,53
2021-12-23 17:48:18.566659,184
2021-12-23 17:48:18.566670,149
2021-12-23 17:48:18.566681,72
2021-12-23 17:48:18.566691,62
2021-12-23 17:48:18.566700,72
2021-12-23 17:48:18.566710,39
2021-12-23 17:48:18.566720,0
2021-12-23 17:48:18.566730,65
2021-12-23 17:48:18.566740,186
2021-12-23 17:48:18.566750,186
2021-12-23 17:48:18.566759,142
2021-12-23 17:48:18.566769,191
2021-12-23 17:48:18.566779,249
2021-12-23 17:48:18.566789,272
2021-12-23 17:48:18.566799,284
2021-12-23 17:48:18.566808,291
2021-12-23 17:48:18.566818,342
2021-12-23 17:48:18.566828,417
2021-12-23 17:48:18.566838,438
2021-12-23 17:48:18.566847,433
2021-12-23 17:48:18.566857,435
2021-12-23 17:48:18.566867,401
2021-12-23 17:48:18.566877,333
2021-12-23 17:48:18.566887,291
2021-12-23 17:48:18.566897,240
2021-12-23 17:48:18.566907,121
2021-12-23 17:48:18.566916,-6
2021-12-23 17:48:18.566926,-72
2021-12-23 17:48:18.566936,-100
2021-12-23 17:48:18.925673,-118
2021-12-23 17:48:18.925703,-123
2021-12-23 17:48:18.925715,-139
2021-12-23 17:48:18.925725,-188
2021-12-23 17:48:18.925735,-209
2021-12-23 17:48:18.925745,-174
2021-12-23 17:48:18.925755,-142
2021-12-23 17:48:18.925765,-132
2021-12-23 17:48:18.925775,-128
2021-12-23 17:48:18.925784,-144
2021-12-23 17:48:18.925794,-158
2021-12-23 17:48:18.925804,-130
2021-12-23 17:48:18.925814,-90
2021-12-23 17:48:18.925824,-69
2021-12-23 17:48:18.925834,-81
2021-12-23 17:48:18.925844,-116
2021-12-23 17:48:18.925853,-130
2021-12-23 17:48:18.925863,-125
2021-12-23 17:48:18.925873,-111
2021-12-23 17:48:18.925883,-88
2021-12-23 17:48:18.925893,-88
2021-12-23 17:48:18.925903,-114
2021-12-23 17:48:18.925913,-114
2021-12-23 17:48:18.925923,-95
2021-12-23 17:48:18.925933,-86
2021-12-23 17:48:18.925942,-79
2021-12-23 17:48:18.925952,-72
2021-12-23 17:48:18.925962,-88
2021-12-23 17:48:18.925972,-121
2021-12-23 17:48:18.925982,-130
2021-12-23 17:48:19.061469,-104
2021-12-23 17:48:19.061500,-79
2021-12-23 17:48:19.061512,-83
2021-12-23 17:48:19.061522,-100
2021-12-23 17:48:19.061532,-90
2021-12-23 17:48:19.061542,-69
2021-12-23 17:48:19.061552,-60
2021-12-23 17:48:19.061561,-51
2021-12-23 17:48:19.061571,-62
2021-12-23 17:48:19.061581,-97
2021-12-23 17:48:19.061591,-90
2021-12-23 17:48:19.061601,-46
2021-12-23 17:48:19.061611,-20
2021-12-23 17:48:19.061621,-11
2021-12-23 17:48:19.061630,-30
2021-12-23 17:48:19.061640,-81
2021-12-23 17:48:19.061650,-86
2021-12-23 17:48:19.061660,-46
2021-12-23 17:48:19.061669,-32
2021-12-23 17:48:19.061679,-34
2021-12-23 17:48:19.061689,-51
2021-12-23 17:48:19.061699,-74
2021-12-23 17:48:19.061708,-62
2021-12-23 17:48:19.061718,-32
2021-12-23 17:48:19.061728,-20
2021-12-23 17:48:19.061737,-4
2021-12-23 17:48:19.061747,13
2021-12-23 17:48:19.061757,65
2021-12-23 17:48:19.061767,268
2021-12-23 17:48:19.061777,536
2021-12-23 17:48:19.286909,505
2021-12-23 17:48:19.286939,20
2021-12-23 17:48:19.286951,-545
2021-12-23 17:48:19.286962,-599
2021-12-23 17:48:19.286972,-198
2021-12-23 17:48:19.286981,-6
2021-12-23 17:48:19.286991,-32
2021-12-23 17:48:19.287001,51
2021-12-23 17:48:19.287011,100
2021-12-23 17:48:19.287021,51
2021-12-23 17:48:19.287031,74
2021-12-23 17:48:19.287040,125
2021-12-23 17:48:19.287050,123
2021-12-23 17:48:19.287060,123
2021-12-23 17:48:19.287070,121
2021-12-23 17:48:19.287080,107
2021-12-23 17:48:19.287090,135
2021-12-23 17:48:19.287100,184
2021-12-23 17:48:19.287110,207
2021-12-23 17:48:19.287120,216
2021-12-23 17:48:19.287129,230
2021-12-23 17:48:19.287139,244
2021-12-23 17:48:19.287149,282
2021-12-23 17:48:19.287159,338
2021-12-23 17:48:19.287169,377
2021-12-23 17:48:19.287179,396
2021-12-23 17:48:19.287189,403
2021-12-23 17:48:19.287199,394
2021-12-23 17:48:19.287208,373
2021-12-23 17:48:19.287218,342
2021-12-23 17:48:19.512211,305
2021-12-23 17:48:19.512242,244
2021-12-23 17:48:19.512254,132
2021-12-23 17:48:19.512264,13
2021-12-23 17:48:19.512274,-44
2021-12-23 17:48:19.512284,-74
2021-12-23 17:48:19.512294,-128
2021-12-23 17:48:19.512304,-179
2021-12-23 17:48:19.512313,-209
2021-12-23 17:48:19.512323,-216
2021-12-23 17:48:19.512333,-202
2021-12-23 17:48:19.512343,-177
2021-12-23 17:48:19.512352,-172
2021-12-23 17:48:19.512362,-200
2021-12-23 17:48:19.512372,-247
2021-12-23 17:48:19.512382,-261
2021-12-23 17:48:19.512391,-226
2021-12-23 17:48:19.512401,-184
2021-12-23 17:48:19.512411,-172
2021-12-23 17:48:19.512421,-172
2021-12-23 17:48:19.512431,-174
2021-12-23 17:48:19.512440,-181
2021-12-23 17:48:19.512450,-184
2021-12-23 17:48:19.512460,-179
2021-12-23 17:48:19.512469,-181
2021-12-23 17:48:19.512479,-181
2021-12-23 17:48:19.512489,-172
2021-12-23 17:48:19.512499,-163
2021-12-23 17:48:19.512508,-153
2021-12-23 17:48:19.512518,-144
2021-12-23 17:48:19.781439,-139
2021-12-23 17:48:19.781469,-137
2021-12-23 17:48:19.781481,-132
2021-12-23 17:48:19.781491,-132
2021-12-23 17:48:19.781501,-149
2021-12-23 17:48:19.781511,-165
2021-12-23 17:48:19.781521,-172
2021-12-23 17:48:19.781531,-179
2021-12-23 17:48:19.781541,-172
2021-12-23 17:48:19.781551,-153
2021-12-23 17:48:19.781561,-139
2021-12-23 17:48:19.781571,-123
2021-12-23 17:48:19.781581,-137
2021-12-23 17:48:19.781591,-160
2021-12-23 17:48:19.781600,-151
2021-12-23 17:48:19.781610,-135
2021-12-23 17:48:19.781620,-128
2021-12-23 17:48:19.781684,-102
2021-12-23 17:48:19.781695,-81
2021-12-23 17:48:19.781705,-76
2021-12-23 17:48:19.781715,-58
2021-12-23 17:48:19.781725,-37
2021-12-23 17:48:19.781736,-41
2021-12-23 17:48:19.781746,-48
2021-12-23 17:48:19.781756,-53
2021-12-23 17:48:19.781766,-48
2021-12-23 17:48:19.781776,-32
2021-12-23 17:48:19.781786,-23
2021-12-23 17:48:19.781796,-18
2021-12-23 17:48:19.781806,-11
2021-12-23 17:48:19.962114,-13
2021-12-23 17:48:19.962144,-9
2021-12-23 17:48:19.962156,6
2021-12-23 17:48:19.962166,18
2021-12-23 17:48:19.962176,55
2021-12-23 17:48:19.962186,172
2021-12-23 17:48:19.962196,391
2021-12-23 17:48:19.962206,564
2021-12-23 17:48:19.962215,429
2021-12-23 17:48:19.962225,-46
2021-12-23 17:48:19.962235,-517
2021-12-23 17:48:19.962245,-515
2021-12-23 17:48:19.962255,-172
2021-12-23 17:48:19.962264,-23
2021-12-23 17:48:19.962274,-18
2021-12-23 17:48:19.962284,76
2021-12-23 17:48:19.962294,123
2021-12-23 17:48:19.962304,83
2021-12-23 17:48:19.962313,79
2021-12-23 17:48:19.962323,104
2021-12-23 17:48:19.962333,88
2021-12-23 17:48:19.962343,53
2021-12-23 17:48:19.962352,69
2021-12-23 17:48:19.962362,102
2021-12-23 17:48:19.962372,114
2021-12-23 17:48:19.962382,137
2021-12-23 17:48:19.962391,165
2021-12-23 17:48:19.962401,179
2021-12-23 17:48:19.962411,202
2021-12-23 17:48:19.962421,233
2021-12-23 17:48:20.231824,258
2021-12-23 17:48:20.231845,300
2021-12-23 17:48:20.231853,347
2021-12-23 17:48:20.231860,370
2021-12-23 17:48:20.231866,366
2021-12-23 17:48:20.231873,333
2021-12-23 17:48:20.231879,303
2021-12-23 17:48:20.231886,300
2021-12-23 17:48:20.231892,254
2021-12-23 17:48:20.231899,149
2021-12-23 17:48:20.231905,51
2021-12-23 17:48:20.231912,-41
2021-12-23 17:48:20.231919,-123
2021-12-23 17:48:20.231925,-158
2021-12-23 17:48:20.231932,-186
2021-12-23 17:48:20.231938,-221
2021-12-23 17:48:20.231945,-235
2021-12-23 17:48:20.231951,-233
2021-12-23 17:48:20.231958,-221
2021-12-23 17:48:20.231964,-202
2021-12-23 17:48:20.231971,-191
2021-12-23 17:48:20.231977,-186
2021-12-23 17:48:20.231984,-172
2021-12-23 17:48:20.231990,-153
2021-12-23 17:48:20.231996,-130
2021-12-23 17:48:20.232003,-104
2021-12-23 17:48:20.232009,-95
2021-12-23 17:48:20.232016,-111
2021-12-23 17:48:20.232022,-128
2021-12-23 17:48:20.232029,-132
2021-12-23 17:48:20.411268,-132
2021-12-23 17:48:20.411290,-128
2021-12-23 17:48:20.411297,-114
2021-12-23 17:48:20.411304,-116
2021-12-23 17:48:20.411311,-144
2021-12-23 17:48:20.411317,-160
2021-12-23 17:48:20.411323,-142
2021-12-23 17:48:20.411330,-121
2021-12-23 17:48:20.411336,-123
2021-12-23 17:48:20.411342,-128
2021-12-23 17:48:20.411349,-137
2021-12-23 17:48:20.411355,-144
2021-12-23 17:48:20.411362,-123
2021-12-23 17:48:20.411368,-100
2021-12-23 17:48:20.411374,-100
2021-12-23 17:48:20.411381,-111
2021-12-23 17:48:20.411387,-130
2021-12-23 17:48:20.411393,-132
2021-12-23 17:48:20.411400,-102
2021-12-23 17:48:20.411406,-79
2021-12-23 17:48:20.411412,-76
2021-12-23 17:48:20.411419,-79
2021-12-23 17:48:20.411425,-76
2021-12-23 17:48:20.411431,-62
2021-12-23 17:48:20.411438,-44
2021-12-23 17:48:20.411444,-44
2021-12-23 17:48:20.411450,-90
2021-12-23 17:48:20.411457,-142
2021-12-23 17:48:20.411463,-128
2021-12-23 17:48:20.411469,-76
2021-12-23 17:48:20.726915,-48
2021-12-23 17:48:20.726946,-27
2021-12-23 17:48:20.726958,-13
2021-12-23 17:48:20.726968,-51
2021-12-23 17:48:20.726978,-97
2021-12-23 17:48:20.726988,-83
2021-12-23 17:48:20.726998,-48
2021-12-23 17:48:20.727008,-44
2021-12-23 17:48:20.727018,-48
2021-12-23 17:48:20.727028,-65
2021-12-23 17:48:20.727038,-83
2021-12-23 17:48:20.727048,-67
2021-12-23 17:48:20.727058,-53
2021-12-23 17:48:20.727068,-69
2021-12-23 17:48:20.727078,-65
2021-12-23 17:48:20.727088,-34
2021-12-23 17:48:20.727098,41
2021-12-23 17:48:20.727108,277
2021-12-23 17:48:20.727118,538
2021-12-23 17:48:20.727128,475
2021-12-23 17:48:20.727138,32
2021-12-23 17:48:20.727148,-468
2021-12-23 17:48:20.727158,-529
2021-12-23 17:48:20.727168,-174
2021-12-23 17:48:20.727178,9
2021-12-23 17:48:20.727188,-2
2021-12-23 17:48:20.727198,81
2021-12-23 17:48:20.727208,137
2021-12-23 17:48:20.727218,107
2021-12-23 17:48:20.727228,116
2021-12-23 17:48:20.949813,149
2021-12-23 17:48:20.949833,160
2021-12-23 17:48:20.949841,172
2021-12-23 17:48:20.949847,177
2021-12-23 17:48:20.949854,174
2021-12-23 17:48:20.949861,193
2021-12-23 17:48:20.949867,219
2021-12-23 17:48:20.949874,237
2021-12-23 17:48:20.949880,242
2021-12-23 17:48:20.949887,228
2021-12-23 17:48:20.949893,240
2021-12-23 17:48:20.949900,291
2021-12-23 17:48:20.949906,333
2021-12-23 17:48:20.949913,359
2021-12-23 17:48:20.949919,370
2021-12-23 17:48:20.949926,352
2021-12-23 17:48:20.949933,338
2021-12-23 17:48:20.949939,363
2021-12-23 17:48:20.949946,363
2021-12-23 17:48:20.949952,310
2021-12-23 17:48:20.949959,212
2021-12-23 17:48:20.949965,97
2021-12-23 17:48:20.949972,27
2021-12-23 17:48:20.949978,-11
2021-12-23 17:48:20.949985,-65
2021-12-23 17:48:20.949992,-111
2021-12-23 17:48:20.949998,-149
2021-12-23 17:48:20.950005,-193
2021-12-23 17:48:20.950011,-195
2021-12-23 17:48:20.950018,-165
2021-12-23 17:48:21.131965,-153
2021-12-23 17:48:21.131996,-160
2021-12-23 17:48:21.132008,-193
2021-12-23 17:48:21.132018,-212
2021-12-23 17:48:21.132028,-172
2021-12-23 17:48:21.132038,-132
2021-12-23 17:48:21.132048,-130
2021-12-23 17:48:21.132059,-132
2021-12-23 17:48:21.132068,-165
2021-12-23 17:48:21.132078,-212
2021-12-23 17:48:21.132088,-205
2021-12-23 17:48:21.132098,-177
2021-12-23 17:48:21.132108,-158
2021-12-23 17:48:21.132118,-163
2021-12-23 17:48:21.132128,-214
2021-12-23 17:48:21.132138,-233
2021-12-23 17:48:21.132148,-195
2021-12-23 17:48:21.132157,-195
2021-12-23 17:48:21.132168,-221
2021-12-23 17:48:21.132178,-219
2021-12-23 17:48:21.132188,-202
2021-12-23 17:48:21.132198,-177
2021-12-23 17:48:21.132207,-160
2021-12-23 17:48:21.132217,-158
2021-12-23 17:48:21.132227,-142
2021-12-23 17:48:21.132237,-139
2021-12-23 17:48:21.132247,-160
2021-12-23 17:48:21.132257,-160
2021-12-23 17:48:21.132267,-128
2021-12-23 17:48:21.132277,-102
2021-12-23 17:48:21.402060,-107
2021-12-23 17:48:21.402081,-111
2021-12-23 17:48:21.402089,-95
2021-12-23 17:48:21.402096,-72
2021-12-23 17:48:21.402102,-69
2021-12-23 17:48:21.402109,-76
2021-12-23 17:48:21.402115,-67
2021-12-23 17:48:21.402121,-88
2021-12-23 17:48:21.402128,-121
2021-12-23 17:48:21.402134,-104
2021-12-23 17:48:21.402141,-62
2021-12-23 17:48:21.402147,-27
2021-12-23 17:48:21.402154,-16
2021-12-23 17:48:21.402160,-39
2021-12-23 17:48:21.402166,-41
2021-12-23 17:48:21.402173,-20
2021-12-23 17:48:21.402179,-25
2021-12-23 17:48:21.402186,-48
2021-12-23 17:48:21.402192,-72
2021-12-23 17:48:21.402198,-74
2021-12-23 17:48:21.402205,-46
2021-12-23 17:48:21.402211,-44
2021-12-23 17:48:21.402217,-60
2021-12-23 17:48:21.402224,-16
2021-12-23 17:48:21.402230,30
2021-12-23 17:48:21.402237,4
2021-12-23 17:48:21.402243,-13
2021-12-23 17:48:21.402249,20
2021-12-23 17:48:21.402256,130
2021-12-23 17:48:21.402262,382
2021-12-23 17:48:21.581500,643
2021-12-23 17:48:21.581531,554
2021-12-23 17:48:21.581543,53
2021-12-23 17:48:21.581553,-466
2021-12-23 17:48:21.581563,-494
2021-12-23 17:48:21.581573,-125
2021-12-23 17:48:21.581583,46
2021-12-23 17:48:21.581593,23
2021-12-23 17:48:21.581603,76
2021-12-23 17:48:21.581613,76
2021-12-23 17:48:21.581623,46
2021-12-23 17:48:21.581633,118
2021-12-23 17:48:21.581643,153
2021-12-23 17:48:21.581653,97
2021-12-23 17:48:21.581663,102
2021-12-23 17:48:21.581673,149
2021-12-23 17:48:21.581683,149
2021-12-23 17:48:21.581693,151
2021-12-23 17:48:21.581703,160
2021-12-23 17:48:21.581712,158
2021-12-23 17:48:21.581722,170
2021-12-23 17:48:21.581732,198
2021-12-23 17:48:21.581742,214
2021-12-23 17:48:21.581752,235
2021-12-23 17:48:21.581762,305
2021-12-23 17:48:21.581772,354
2021-12-23 17:48:21.581782,338
2021-12-23 17:48:21.581792,324
2021-12-23 17:48:21.581802,335
2021-12-23 17:48:21.581812,333
2021-12-23 17:48:21.850943,303
2021-12-23 17:48:21.850973,275
2021-12-23 17:48:21.850985,230
2021-12-23 17:48:21.850995,149
2021-12-23 17:48:21.851005,67
2021-12-23 17:48:21.851016,-25
2021-12-23 17:48:21.851026,-114
2021-12-23 17:48:21.851036,-104
2021-12-23 17:48:21.851045,-111
2021-12-23 17:48:21.851055,-200
2021-12-23 17:48:21.851065,-221
2021-12-23 17:48:21.851075,-191
2021-12-23 17:48:21.851084,-226
2021-12-23 17:48:21.851094,-242
2021-12-23 17:48:21.851104,-214
2021-12-23 17:48:21.851113,-170
2021-12-23 17:48:21.851123,-109
2021-12-23 17:48:21.851133,-132
2021-12-23 17:48:21.851142,-205
2021-12-23 17:48:21.851152,-179
2021-12-23 17:48:21.851162,-111
2021-12-23 17:48:21.851172,-107
2021-12-23 17:48:21.851181,-144
2021-12-23 17:48:21.851191,-177
2021-12-23 17:48:21.851201,-179
2021-12-23 17:48:21.851211,-165
2021-12-23 17:48:21.851220,-174
2021-12-23 17:48:21.851230,-165
2021-12-23 17:48:21.851240,-132
2021-12-23 17:48:21.851250,-151
2021-12-23 17:48:22.032121,-163
2021-12-23 17:48:22.032151,-118
2021-12-23 17:48:22.032163,-90
2021-12-23 17:48:22.032173,-83
2021-12-23 17:48:22.032183,-102
2021-12-23 17:48:22.032193,-132
2021-12-23 17:48:22.032202,-144
2021-12-23 17:48:22.032212,-116
2021-12-23 17:48:22.032222,-62
2021-12-23 17:48:22.032231,-88
2021-12-23 17:48:22.032241,-130
2021-12-23 17:48:22.032250,-83
2021-12-23 17:48:22.032260,-114
2021-12-23 17:48:22.032270,-226
2021-12-23 17:48:22.032284,-186
2021-12-23 17:48:22.032310,-74
2021-12-23 17:48:22.032320,-118
2021-12-23 17:48:22.032330,-198
2021-12-23 17:48:22.032340,-144
2021-12-23 17:48:22.032350,-58
2021-12-23 17:48:22.032360,-37
2021-12-23 17:48:22.032370,-46
2021-12-23 17:48:22.032380,-58
2021-12-23 17:48:22.032390,-81
2021-12-23 17:48:22.032400,-104
2021-12-23 17:48:22.032410,-90
2021-12-23 17:48:22.032420,-37
2021-12-23 17:48:22.032429,-30
2021-12-23 17:48:22.032439,-79
2021-12-23 17:48:22.032449,-93
2021-12-23 17:48:22.256524,-58
2021-12-23 17:48:22.256555,-65
2021-12-23 17:48:22.256566,-62
2021-12-23 17:48:22.256576,-6
2021-12-23 17:48:22.256586,-11
2021-12-23 17:48:22.256596,-18
2021-12-23 17:48:22.256606,174
2021-12-23 17:48:22.256616,501
2021-12-23 17:48:22.256626,673
2021-12-23 17:48:22.256636,466
2021-12-23 17:48:22.256646,-130
2021-12-23 17:48:22.256656,-648
2021-12-23 17:48:22.256666,-526
2021-12-23 17:48:22.256676,-111
2021-12-23 17:48:22.256687,-58
2021-12-23 17:48:22.256697,-100
2021-12-23 17:48:22.256707,51
2021-12-23 17:48:22.256717,104
2021-12-23 17:48:22.256727,86
2021-12-23 17:48:22.256736,158
2021-12-23 17:48:22.256746,193
2021-12-23 17:48:22.256756,163
2021-12-23 17:48:22.256766,135
2021-12-23 17:48:22.256776,160
2021-12-23 17:48:22.256786,223
2021-12-23 17:48:22.256796,235
2021-12-23 17:48:22.256806,212
2021-12-23 17:48:22.256816,223
2021-12-23 17:48:22.256826,270
2021-12-23 17:48:22.256836,366
2021-12-23 17:48:22.527030,403
2021-12-23 17:48:22.527062,347
2021-12-23 17:48:22.527073,403
2021-12-23 17:48:22.527084,489
2021-12-23 17:48:22.527093,387
2021-12-23 17:48:22.527103,319
2021-12-23 17:48:22.527113,438
2021-12-23 17:48:22.527123,512
2021-12-23 17:48:22.527133,482
2021-12-23 17:48:22.527143,380
2021-12-23 17:48:22.527153,188
2021-12-23 17:48:22.527163,165
2021-12-23 17:48:22.527173,226
2021-12-23 17:48:22.527183,9
2021-12-23 17:48:22.527193,-181
2021-12-23 17:48:22.527203,-88
2021-12-23 17:48:22.527213,-20
2021-12-23 17:48:22.527222,-95
2021-12-23 17:48:22.527232,-125
2021-12-23 17:48:22.527242,-188
2021-12-23 17:48:22.527252,-312
2021-12-23 17:48:22.527262,-177
2021-12-23 17:48:22.527272,-2
2021-12-23 17:48:22.527315,-72
2021-12-23 17:48:22.527325,-83
2021-12-23 17:48:22.527334,-20
2021-12-23 17:48:22.527344,-11
2021-12-23 17:48:22.527354,-13
2021-12-23 17:48:22.527363,-6
2021-12-23 17:48:22.527373,-6
2021-12-23 17:48:22.796929,-16
2021-12-23 17:48:22.796959,13
2021-12-23 17:48:22.796971,44
2021-12-23 17:48:22.796982,-6
2021-12-23 17:48:22.796992,-79
2021-12-23 17:48:22.797002,-76
2021-12-23 17:48:22.797012,-41
2021-12-23 17:48:22.797021,-34
2021-12-23 17:48:22.797031,-39
2021-12-23 17:48:22.797041,-107
2021-12-23 17:48:22.797051,-158
2021-12-23 17:48:22.797061,-58
2021-12-23 17:48:22.797071,25
2021-12-23 17:48:22.797081,-51
2021-12-23 17:48:22.797091,-172
2021-12-23 17:48:22.797101,-195
2021-12-23 17:48:22.797111,-102
2021-12-23 17:48:22.797121,-13
2021-12-23 17:48:22.797130,-34
2021-12-23 17:48:22.797140,-90
2021-12-23 17:48:22.797150,-69
2021-12-23 17:48:22.797160,20
2021-12-23 17:48:22.797170,51
2021-12-23 17:48:22.797180,-30
2021-12-23 17:48:22.797190,-62
2021-12-23 17:48:22.797200,9
2021-12-23 17:48:22.797210,9
2021-12-23 17:48:22.797220,-76
2021-12-23 17:48:22.797230,-58
2021-12-23 17:48:22.797240,-20
2021-12-23 17:48:23.019944,-13
2021-12-23 17:48:23.019964,93
2021-12-23 17:48:23.019972,100
2021-12-23 17:48:23.019979,-13
2021-12-23 17:48:23.019986,-20
2021-12-23 17:48:23.019992,-6
2021-12-23 17:48:23.019998,-18
2021-12-23 17:48:23.020005,-6
2021-12-23 17:48:23.020011,39
2021-12-23 17:48:23.020017,272
2021-12-23 17:48:23.020024,622
2021-12-23 17:48:23.020030,783
2021-12-23 17:48:23.020036,487
2021-12-23 17:48:23.020042,-247
2021-12-23 17:48:23.020049,-729
2021-12-23 17:48:23.020055,-564
2021-12-23 17:48:23.020061,-321
2021-12-23 17:48:23.020068,-198
2021-12-23 17:48:23.020074,37
2021-12-23 17:48:23.020080,209
2021-12-23 17:48:23.020087,109
2021-12-23 17:48:23.020093,-20
2021-12-23 17:48:23.020099,114
2021-12-23 17:48:23.020106,319
2021-12-23 17:48:23.020112,256
2021-12-23 17:48:23.020118,81
2021-12-23 17:48:23.020125,149
2021-12-23 17:48:23.020131,277
2021-12-23 17:48:23.020137,249
2021-12-23 17:48:23.020144,270
2021-12-23 17:48:23.201992,352
2021-12-23 17:48:23.202023,363
2021-12-23 17:48:23.202035,333
2021-12-23 17:48:23.202045,338
2021-12-23 17:48:23.202055,359
2021-12-23 17:48:23.202065,373
2021-12-23 17:48:23.202075,419
2021-12-23 17:48:23.202084,401
2021-12-23 17:48:23.202094,296
2021-12-23 17:48:23.202104,338
2021-12-23 17:48:23.202113,426
2021-12-23 17:48:23.202123,291
2021-12-23 17:48:23.202133,151
2021-12-23 17:48:23.202142,121
2021-12-23 17:48:23.202152,25
2021-12-23 17:48:23.202162,-55
2021-12-23 17:48:23.202171,-34
2021-12-23 17:48:23.202181,-16
2021-12-23 17:48:23.202191,-86
2021-12-23 17:48:23.202200,-193
2021-12-23 17:48:23.202210,-205
2021-12-23 17:48:23.202220,-184
2021-12-23 17:48:23.202229,-214
2021-12-23 17:48:23.202239,-216
2021-12-23 17:48:23.202248,-177
2021-12-23 17:48:23.202258,-132
2021-12-23 17:48:23.202268,-118
2021-12-23 17:48:23.202278,-97
2021-12-23 17:48:23.202288,-20
2021-12-23 17:48:23.202298,6
2021-12-23 17:48:23.471966,-16
2021-12-23 17:48:23.471996,-23
2021-12-23 17:48:23.472007,-23
2021-12-23 17:48:23.472018,11
2021-12-23 17:48:23.472028,13
2021-12-23 17:48:23.472037,-60
2021-12-23 17:48:23.472047,-79
2021-12-23 17:48:23.472057,-60
2021-12-23 17:48:23.472067,-114
2021-12-23 17:48:23.472077,-153
2021-12-23 17:48:23.472087,-109
2021-12-23 17:48:23.472097,-107
2021-12-23 17:48:23.472106,-188
2021-12-23 17:48:23.472116,-202
2021-12-23 17:48:23.472126,-165
2021-12-23 17:48:23.472136,-212
2021-12-23 17:48:23.472146,-249
2021-12-23 17:48:23.472155,-186
2021-12-23 17:48:23.472165,-146
2021-12-23 17:48:23.472175,-193
2021-12-23 17:48:23.472185,-230
2021-12-23 17:48:23.472195,-184
2021-12-23 17:48:23.472205,-72
2021-12-23 17:48:23.472215,-62
2021-12-23 17:48:23.472225,-163
2021-12-23 17:48:23.472234,-142
2021-12-23 17:48:23.472244,-32
2021-12-23 17:48:23.472254,-69
2021-12-23 17:48:23.472264,-188
2021-12-23 17:48:23.472274,-193
2021-12-23 17:48:23.651610,-132
2021-12-23 17:48:23.651641,-137
2021-12-23 17:48:23.651653,-156
2021-12-23 17:48:23.651663,-137
2021-12-23 17:48:23.651673,-116
2021-12-23 17:48:23.651682,-81
2021-12-23 17:48:23.651692,-72
2021-12-23 17:48:23.651702,-123
2021-12-23 17:48:23.651711,-123
2021-12-23 17:48:23.651721,16
2021-12-23 17:48:23.651731,293
2021-12-23 17:48:23.651741,666
2021-12-23 17:48:23.651750,813
2021-12-23 17:48:23.651760,319
2021-12-23 17:48:23.651770,-487
2021-12-23 17:48:23.651779,-708
2021-12-23 17:48:23.651789,-342
2021-12-23 17:48:23.651799,-181
2021-12-23 17:48:23.651808,-186
2021-12-23 17:48:23.651818,-27
2021-12-23 17:48:23.651828,58
2021-12-23 17:48:23.651837,44
2021-12-23 17:48:23.651847,81
2021-12-23 17:48:23.651857,97
2021-12-23 17:48:23.651866,95
2021-12-23 17:48:23.651876,151
2021-12-23 17:48:23.651886,181
2021-12-23 17:48:23.651895,170
2021-12-23 17:48:23.651905,202
2021-12-23 17:48:23.651915,216
2021-12-23 17:48:23.966746,186
2021-12-23 17:48:23.966777,237
2021-12-23 17:48:23.966789,335
2021-12-23 17:48:23.966799,377
2021-12-23 17:48:23.966809,345
2021-12-23 17:48:23.966819,321
2021-12-23 17:48:23.966829,382
2021-12-23 17:48:23.966839,438
2021-12-23 17:48:23.966849,456
2021-12-23 17:48:23.966858,468
2021-12-23 17:48:23.966868,424
2021-12-23 17:48:23.966878,361
2021-12-23 17:48:23.966888,356
2021-12-23 17:48:23.966898,321
2021-12-23 17:48:23.966908,179
2021-12-23 17:48:23.966918,53
2021-12-23 17:48:23.966928,-4
2021-12-23 17:48:23.966938,-79
2021-12-23 17:48:23.966948,-151
2021-12-23 17:48:23.966958,-151
2021-12-23 17:48:23.966967,-128
2021-12-23 17:48:23.966977,-165
2021-12-23 17:48:23.966987,-207
2021-12-23 17:48:23.966997,-200
2021-12-23 17:48:23.967007,-151
2021-12-23 17:48:23.967016,-142
2021-12-23 17:48:23.967026,-205
2021-12-23 17:48:23.967036,-214
2021-12-23 17:48:23.967046,-142
2021-12-23 17:48:23.967056,-97
2021-12-23 17:48:24.101416,-107
2021-12-23 17:48:24.101437,-135
2021-12-23 17:48:24.101445,-137
2021-12-23 17:48:24.101452,-90
2021-12-23 17:48:24.101458,-79
2021-12-23 17:48:24.101465,-125
2021-12-23 17:48:24.101471,-135
2021-12-23 17:48:24.101478,-93
2021-12-23 17:48:24.101484,-48
2021-12-23 17:48:24.101490,-25
2021-12-23 17:48:24.101497,-72
2021-12-23 17:48:24.101503,-109
2021-12-23 17:48:24.101510,-58
2021-12-23 17:48:24.101516,-34
2021-12-23 17:48:24.101522,-79
2021-12-23 17:48:24.101529,-107
2021-12-23 17:48:24.101535,-149
2021-12-23 17:48:24.101542,-160
2021-12-23 17:48:24.101548,-60
2021-12-23 17:48:24.101554,-62
2021-12-23 17:48:24.101561,-209
2021-12-23 17:48:24.101567,-237
2021-12-23 17:48:24.101574,-170
2021-12-23 17:48:24.101580,-165
2021-12-23 17:48:24.101586,-181
2021-12-23 17:48:24.101593,-174
2021-12-23 17:48:24.101599,-144
2021-12-23 17:48:24.101606,-62
2021-12-23 17:48:24.101612,-32
2021-12-23 17:48:24.101618,-100
2021-12-23 17:48:24.462211,-146
2021-12-23 17:48:24.462242,-107
2021-12-23 17:48:24.462253,-86
2021-12-23 17:48:24.462264,-163
2021-12-23 17:48:24.462274,-195
2021-12-23 17:48:24.462283,-125
2021-12-23 17:48:24.462293,-107
2021-12-23 17:48:24.462303,-67
2021-12-23 17:48:24.462313,-20
2021-12-23 17:48:24.462322,-109
2021-12-23 17:48:24.462332,-144
2021-12-23 17:48:24.462342,-34
2021-12-23 17:48:24.462352,67
2021-12-23 17:48:24.462362,291
2021-12-23 17:48:24.462372,620
2021-12-23 17:48:24.462381,718
2021-12-23 17:48:24.462391,310
2021-12-23 17:48:24.462401,-459
2021-12-23 17:48:24.462410,-783
2021-12-23 17:48:24.462420,-429
2021-12-23 17:48:24.462430,-151
2021-12-23 17:48:24.462440,-121
2021-12-23 17:48:24.462450,0
2021-12-23 17:48:24.462460,104
2021-12-23 17:48:24.462469,65
2021-12-23 17:48:24.462479,76
2021-12-23 17:48:24.462489,158
2021-12-23 17:48:24.462499,151
2021-12-23 17:48:24.462508,132
2021-12-23 17:48:24.462518,158
2021-12-23 17:48:24.597191,151
2021-12-23 17:48:24.597222,167
2021-12-23 17:48:24.597234,230
2021-12-23 17:48:24.597244,265
2021-12-23 17:48:24.597254,272
2021-12-23 17:48:24.597264,307
2021-12-23 17:48:24.597274,347
2021-12-23 17:48:24.597284,380
2021-12-23 17:48:24.597293,447
2021-12-23 17:48:24.597303,452
2021-12-23 17:48:24.597313,403
2021-12-23 17:48:24.597322,440
2021-12-23 17:48:24.597332,470
2021-12-23 17:48:24.597342,456
2021-12-23 17:48:24.597351,477
2021-12-23 17:48:24.597361,431
2021-12-23 17:48:24.597371,282
2021-12-23 17:48:24.597381,151
2021-12-23 17:48:24.597390,107
2021-12-23 17:48:24.597405,65
2021-12-23 17:48:24.597415,-53
2021-12-23 17:48:24.597425,-160
2021-12-23 17:48:24.597435,-205
2021-12-23 17:48:24.597445,-212
2021-12-23 17:48:24.597455,-191
2021-12-23 17:48:24.597465,-202
2021-12-23 17:48:24.597475,-235
2021-12-23 17:48:24.597485,-251
2021-12-23 17:48:24.597495,-205
2021-12-23 17:48:24.597505,-137
2021-12-23 17:48:24.821522,-184
2021-12-23 17:48:24.821544,-212
2021-12-23 17:48:24.821551,-137
2021-12-23 17:48:24.821558,-116
2021-12-23 17:48:24.821565,-144
2021-12-23 17:48:24.821571,-132
2021-12-23 17:48:24.821578,-81
2021-12-23 17:48:24.821584,-67
2021-12-23 17:48:24.821590,-158
2021-12-23 17:48:24.821597,-212
2021-12-23 17:48:24.821603,-139
2021-12-23 17:48:24.821610,-97
2021-12-23 17:48:24.821616,-116
2021-12-23 17:48:24.821623,-93
2021-12-23 17:48:24.821629,-83
2021-12-23 17:48:24.821636,-135
2021-12-23 17:48:24.821642,-163
2021-12-23 17:48:24.821649,-167
2021-12-23 17:48:24.821655,-179
2021-12-23 17:48:24.821662,-146
2021-12-23 17:48:24.821668,-107
2021-12-23 17:48:24.821674,-146
2021-12-23 17:48:24.821681,-163
2021-12-23 17:48:24.821687,-62
2021-12-23 17:48:24.821693,-27
2021-12-23 17:48:24.821700,-114
2021-12-23 17:48:24.821706,-121
2021-12-23 17:48:24.821713,-62
2021-12-23 17:48:24.821719,-104
2021-12-23 17:48:24.821725,-174
2021-12-23 17:48:25.090190,-170
2021-12-23 17:48:25.090220,-137
2021-12-23 17:48:25.090232,-121
2021-12-23 17:48:25.090242,-130
2021-12-23 17:48:25.090252,-121
2021-12-23 17:48:25.090263,-74
2021-12-23 17:48:25.090272,-46
2021-12-23 17:48:25.090282,-109
2021-12-23 17:48:25.090292,-174
2021-12-23 17:48:25.090302,-128
2021-12-23 17:48:25.090312,-97
2021-12-23 17:48:25.090322,-123
2021-12-23 17:48:25.090331,-130
2021-12-23 17:48:25.090341,-135
2021-12-23 17:48:25.090353,-156
2021-12-23 17:48:25.090363,-179
2021-12-23 17:48:25.090373,-142
2021-12-23 17:48:25.090383,-86
2021-12-23 17:48:25.090393,-97
2021-12-23 17:48:25.090403,-2
2021-12-23 17:48:25.090413,328
2021-12-23 17:48:25.090423,627
2021-12-23 17:48:25.090433,622
2021-12-23 17:48:25.090443,146
2021-12-23 17:48:25.090453,-596
2021-12-23 17:48:25.090463,-769
2021-12-23 17:48:25.090473,-282
2021-12-23 17:48:25.090482,-67
2021-12-23 17:48:25.090492,-156
2021-12-23 17:48:25.090502,-20
2021-12-23 17:48:25.271989,90
2021-12-23 17:48:25.272019,37
2021-12-23 17:48:25.272031,69
2021-12-23 17:48:25.272041,100
2021-12-23 17:48:25.272051,93
2021-12-23 17:48:25.272061,151
2021-12-23 17:48:25.272071,186
2021-12-23 17:48:25.272081,153
2021-12-23 17:48:25.272090,151
2021-12-23 17:48:25.272100,209
2021-12-23 17:48:25.272110,242
2021-12-23 17:48:25.272120,233
2021-12-23 17:48:25.272130,247
2021-12-23 17:48:25.272140,265
2021-12-23 17:48:25.272150,314
2021-12-23 17:48:25.272160,375
2021-12-23 17:48:25.272169,398
2021-12-23 17:48:25.272179,459
2021-12-23 17:48:25.272189,545
2021-12-23 17:48:25.272199,529
2021-12-23 17:48:25.272209,454
2021-12-23 17:48:25.272219,426
2021-12-23 17:48:25.272228,389
2021-12-23 17:48:25.272238,282
2021-12-23 17:48:25.272248,177
2021-12-23 17:48:25.272258,116
2021-12-23 17:48:25.272268,34
2021-12-23 17:48:25.272278,-93
2021-12-23 17:48:25.272288,-149
2021-12-23 17:48:25.272297,-114
2021-12-23 17:48:25.496720,-135
2021-12-23 17:48:25.496750,-172
2021-12-23 17:48:25.496763,-149
2021-12-23 17:48:25.496773,-167
2021-12-23 17:48:25.496783,-207
2021-12-23 17:48:25.496793,-163
2021-12-23 17:48:25.496803,-125
2021-12-23 17:48:25.496813,-142
2021-12-23 17:48:25.496823,-130
2021-12-23 17:48:25.496833,-90
2021-12-23 17:48:25.496843,-88
2021-12-23 17:48:25.496852,-118
2021-12-23 17:48:25.496862,-104
2021-12-23 17:48:25.496872,-67
2021-12-23 17:48:25.496882,-83
2021-12-23 17:48:25.496892,-79
2021-12-23 17:48:25.496902,-30
2021-12-23 17:48:25.496912,-39
2021-12-23 17:48:25.496922,-74
2021-12-23 17:48:25.496932,-72
2021-12-23 17:48:25.496942,-62
2021-12-23 17:48:25.496952,-104
2021-12-23 17:48:25.496962,-151
2021-12-23 17:48:25.496972,-142
2021-12-23 17:48:25.496982,-135
2021-12-23 17:48:25.496992,-116
2021-12-23 17:48:25.497002,-76
2021-12-23 17:48:25.497011,-111
2021-12-23 17:48:25.497021,-130
2021-12-23 17:48:25.497031,-69
2021-12-23 17:48:25.722138,-58
2021-12-23 17:48:25.722168,-72
2021-12-23 17:48:25.722180,-74
2021-12-23 17:48:25.722191,-100
2021-12-23 17:48:25.722201,-79
2021-12-23 17:48:25.722210,-25
2021-12-23 17:48:25.722220,-51
2021-12-23 17:48:25.722230,-58
2021-12-23 17:48:25.722240,-37
2021-12-23 17:48:25.722250,-65
2021-12-23 17:48:25.722260,-88
2021-12-23 17:48:25.722270,-97
2021-12-23 17:48:25.722280,-107
2021-12-23 17:48:25.722289,-97
2021-12-23 17:48:25.722299,-88
2021-12-23 17:48:25.722309,-118
2021-12-23 17:48:25.722319,-130
2021-12-23 17:48:25.722329,-90
2021-12-23 17:48:25.722339,-83
2021-12-23 17:48:25.722349,-97
2021-12-23 17:48:25.722358,-88
2021-12-23 17:48:25.722368,-88
2021-12-23 17:48:25.722378,-90
2021-12-23 17:48:25.722388,-69
2021-12-23 17:48:25.722398,-46
2021-12-23 17:48:25.722408,-25
2021-12-23 17:48:25.722418,72
2021-12-23 17:48:25.722428,359
2021-12-23 17:48:25.722438,704
2021-12-23 17:48:25.722448,704
2021-12-23 17:48:25.947148,142
2021-12-23 17:48:25.947180,-582
2021-12-23 17:48:25.947192,-708
2021-12-23 17:48:25.947202,-305
2021-12-23 17:48:25.947212,-144
2021-12-23 17:48:25.947222,-153
2021-12-23 17:48:25.947231,16
2021-12-23 17:48:25.947241,102
2021-12-23 17:48:25.947251,53
2021-12-23 17:48:25.947261,81
2021-12-23 17:48:25.947271,111
2021-12-23 17:48:25.947281,86
2021-12-23 17:48:25.947291,95
2021-12-23 17:48:25.947301,130
2021-12-23 17:48:25.947310,156
2021-12-23 17:48:25.947320,174
2021-12-23 17:48:25.947330,163
2021-12-23 17:48:25.947357,153
2021-12-23 17:48:25.947367,226
2021-12-23 17:48:25.947377,324
2021-12-23 17:48:25.947387,359
2021-12-23 17:48:25.947396,403
2021-12-23 17:48:25.947406,447
2021-12-23 17:48:25.947416,449
2021-12-23 17:48:25.947426,489
2021-12-23 17:48:25.947468,524
2021-12-23 17:48:25.947478,480
2021-12-23 17:48:25.947488,440
2021-12-23 17:48:25.947498,433
2021-12-23 17:48:25.947508,377
2021-12-23 17:48:26.216695,258
2021-12-23 17:48:26.216720,181
2021-12-23 17:48:26.216727,142
2021-12-23 17:48:26.216734,6
2021-12-23 17:48:26.216739,-163
2021-12-23 17:48:26.216744,-179
2021-12-23 17:48:26.216750,-163
2021-12-23 17:48:26.216755,-221
2021-12-23 17:48:26.216760,-223
2021-12-23 17:48:26.216766,-212
2021-12-23 17:48:26.216771,-240
2021-12-23 17:48:26.216776,-226
2021-12-23 17:48:26.216781,-198
2021-12-23 17:48:26.216786,-172
2021-12-23 17:48:26.216792,-156
2021-12-23 17:48:26.216797,-191
2021-12-23 17:48:26.216802,-202
2021-12-23 17:48:26.216807,-144
2021-12-23 17:48:26.216812,-88
2021-12-23 17:48:26.216817,-41
2021-12-23 17:48:26.216823,-20
2021-12-23 17:48:26.216828,-46
2021-12-23 17:48:26.216833,-65
2021-12-23 17:48:26.216838,-58
2021-12-23 17:48:26.216843,-39
2021-12-23 17:48:26.216848,-27
2021-12-23 17:48:26.216853,-48
2021-12-23 17:48:26.216859,-69
2021-12-23 17:48:26.216864,-76
2021-12-23 17:48:26.216869,-90
2021-12-23 17:48:26.442066,-79
2021-12-23 17:48:26.442097,-55
2021-12-23 17:48:26.442108,-83
2021-12-23 17:48:26.442119,-125
2021-12-23 17:48:26.442128,-121
2021-12-23 17:48:26.442138,-72
2021-12-23 17:48:26.442148,-23
2021-12-23 17:48:26.442158,-53
2021-12-23 17:48:26.442168,-104
2021-12-23 17:48:26.442178,-100
2021-12-23 17:48:26.442188,-65
2021-12-23 17:48:26.442198,-46
2021-12-23 17:48:26.442208,-46
2021-12-23 17:48:26.442217,-67
2021-12-23 17:48:26.442227,-109
2021-12-23 17:48:26.442237,-100
2021-12-23 17:48:26.442247,-30
2021-12-23 17:48:26.442257,-39
2021-12-23 17:48:26.442267,-114
2021-12-23 17:48:26.442276,-88
2021-12-23 17:48:26.442286,-51
2021-12-23 17:48:26.442296,-123
2021-12-23 17:48:26.442306,-160
2021-12-23 17:48:26.442316,-81
2021-12-23 17:48:26.442325,-37
2021-12-23 17:48:26.442335,-79
2021-12-23 17:48:26.442345,-104
2021-12-23 17:48:26.442355,-107
2021-12-23 17:48:26.442365,-125
2021-12-23 17:48:26.442374,-76
2021-12-23 17:48:26.666792,34
2021-12-23 17:48:26.666822,128
2021-12-23 17:48:26.666834,356
2021-12-23 17:48:26.666844,669
2021-12-23 17:48:26.666854,624
2021-12-23 17:48:26.666863,32
2021-12-23 17:48:26.666873,-692
2021-12-23 17:48:26.666883,-783
2021-12-23 17:48:26.666893,-331
2021-12-23 17:48:26.666902,-158
2021-12-23 17:48:26.666912,-209
2021-12-23 17:48:26.666922,-62
2021-12-23 17:48:26.666932,60
2021-12-23 17:48:26.666941,16
2021-12-23 17:48:26.666951,0
2021-12-23 17:48:26.666961,37
2021-12-23 17:48:26.666970,48
2021-12-23 17:48:26.666980,51
2021-12-23 17:48:26.666990,88
2021-12-23 17:48:26.666999,121
2021-12-23 17:48:26.667009,118
2021-12-23 17:48:26.667019,116
2021-12-23 17:48:26.667029,163
2021-12-23 17:48:26.667039,263
2021-12-23 17:48:26.667048,293
2021-12-23 17:48:26.667058,261
2021-12-23 17:48:26.667068,310
2021-12-23 17:48:26.667078,384
2021-12-23 17:48:26.667087,410
2021-12-23 17:48:26.667097,459
2021-12-23 17:48:26.981165,508
2021-12-23 17:48:26.981196,508
2021-12-23 17:48:26.981208,477
2021-12-23 17:48:26.981218,424
2021-12-23 17:48:26.981228,335
2021-12-23 17:48:26.981238,228
2021-12-23 17:48:26.981248,132
2021-12-23 17:48:26.981258,34
2021-12-23 17:48:26.981268,-60
2021-12-23 17:48:26.981278,-116
2021-12-23 17:48:26.981288,-156
2021-12-23 17:48:26.981298,-205
2021-12-23 17:48:26.981308,-223
2021-12-23 17:48:26.981318,-219
2021-12-23 17:48:26.981328,-214
2021-12-23 17:48:26.981338,-174
2021-12-23 17:48:26.981348,-125
2021-12-23 17:48:26.981358,-81
2021-12-23 17:48:26.981367,-39
2021-12-23 17:48:26.981377,-34
2021-12-23 17:48:26.981387,-37
2021-12-23 17:48:26.981397,-11
2021-12-23 17:48:26.981407,6
2021-12-23 17:48:26.981417,-11
2021-12-23 17:48:26.981427,-81
2021-12-23 17:48:26.981437,-107
2021-12-23 17:48:26.981447,4
2021-12-23 17:48:26.981457,41
2021-12-23 17:48:26.981467,-79
2021-12-23 17:48:26.981477,-125
2021-12-23 17:48:27.160886,-109
2021-12-23 17:48:27.160915,-128
2021-12-23 17:48:27.160928,-116
2021-12-23 17:48:27.160938,-109
2021-12-23 17:48:27.160948,-156
2021-12-23 17:48:27.160958,-172
2021-12-23 17:48:27.160968,-137
2021-12-23 17:48:27.160978,-118
2021-12-23 17:48:27.160988,-153
2021-12-23 17:48:27.160998,-209
2021-12-23 17:48:27.161008,-195
2021-12-23 17:48:27.161019,-156
2021-12-23 17:48:27.161029,-188
2021-12-23 17:48:27.161039,-219
2021-12-23 17:48:27.161049,-186
2021-12-23 17:48:27.161059,-156
2021-12-23 17:48:27.161069,-153
2021-12-23 17:48:27.161079,-149
2021-12-23 17:48:27.161089,-146
2021-12-23 17:48:27.161099,-165
2021-12-23 17:48:27.161108,-179
2021-12-23 17:48:27.161118,-156
2021-12-23 17:48:27.161128,-125
2021-12-23 17:48:27.161138,-139
2021-12-23 17:48:27.161148,-160
2021-12-23 17:48:27.161158,-125
2021-12-23 17:48:27.161168,-95
2021-12-23 17:48:27.161178,-114
2021-12-23 17:48:27.161188,-104
2021-12-23 17:48:27.161198,-86
2021-12-23 17:48:27.341606,-86
2021-12-23 17:48:27.341636,-65
2021-12-23 17:48:27.341648,-51
2021-12-23 17:48:27.341659,-51
2021-12-23 17:48:27.341669,-20
2021-12-23 17:48:27.341679,-18
2021-12-23 17:48:27.341689,-81
2021-12-23 17:48:27.341699,-132
2021-12-23 17:48:27.341709,-151
2021-12-23 17:48:27.341719,-144
2021-12-23 17:48:27.341729,-58
2021-12-23 17:48:27.341739,149
2021-12-23 17:48:27.341750,438
2021-12-23 17:48:27.341760,589
2021-12-23 17:48:27.341770,368
2021-12-23 17:48:27.341780,-249
2021-12-23 17:48:27.341790,-711
2021-12-23 17:48:27.341801,-496
2021-12-23 17:48:27.341811,-144
2021-12-23 17:48:27.341821,-118
2021-12-23 17:48:27.341831,-79
2021-12-23 17:48:27.341841,39
2021-12-23 17:48:27.341851,41
2021-12-23 17:48:27.341861,20
2021-12-23 17:48:27.341871,51
2021-12-23 17:48:27.341881,76
2021-12-23 17:48:27.341891,83
2021-12-23 17:48:27.341901,97
2021-12-23 17:48:27.341911,123
2021-12-23 17:48:27.341921,142
2021-12-23 17:48:27.566657,163
2021-12-23 17:48:27.566679,195
2021-12-23 17:48:27.566687,212
2021-12-23 17:48:27.566693,219
2021-12-23 17:48:27.566700,240
2021-12-23 17:48:27.566709,249
2021-12-23 17:48:27.566716,256
2021-12-23 17:48:27.566722,298
2021-12-23 17:48:27.566729,342
2021-12-23 17:48:27.566735,359
2021-12-23 17:48:27.566741,349
2021-12-23 17:48:27.566748,317
2021-12-23 17:48:27.566754,293
2021-12-23 17:48:27.566760,275
2021-12-23 17:48:27.566767,186
2021-12-23 17:48:27.566773,76
2021-12-23 17:48:27.566779,0
2021-12-23 17:48:27.566786,-86
2021-12-23 17:48:27.566792,-163
2021-12-23 17:48:27.566799,-202
2021-12-23 17:48:27.566805,-228
2021-12-23 17:48:27.566811,-242
2021-12-23 17:48:27.566818,-223
2021-12-23 17:48:27.566824,-207
2021-12-23 17:48:27.566831,-209
2021-12-23 17:48:27.566837,-198
2021-12-23 17:48:27.566843,-184
2021-12-23 17:48:27.566850,-184
2021-12-23 17:48:27.566856,-186
2021-12-23 17:48:27.566862,-191
2021-12-23 17:48:27.792212,-191
2021-12-23 17:48:27.792242,-177
2021-12-23 17:48:27.792254,-158
2021-12-23 17:48:27.792264,-153
2021-12-23 17:48:27.792274,-167
2021-12-23 17:48:27.792284,-179
2021-12-23 17:48:27.792294,-158
2021-12-23 17:48:27.792304,-123
2021-12-23 17:48:27.792314,-116
2021-12-23 17:48:27.792324,-137
2021-12-23 17:48:27.792334,-170
2021-12-23 17:48:27.792344,-188
2021-12-23 17:48:27.792354,-179
2021-12-23 17:48:27.792364,-156
2021-12-23 17:48:27.792374,-144
2021-12-23 17:48:27.792384,-156
2021-12-23 17:48:27.792394,-160
2021-12-23 17:48:27.792404,-142
2021-12-23 17:48:27.792413,-116
2021-12-23 17:48:27.792423,-100
2021-12-23 17:48:27.792433,-90
2021-12-23 17:48:27.792444,-109
2021-12-23 17:48:27.792454,-139
2021-12-23 17:48:27.792464,-146
2021-12-23 17:48:27.792474,-142
2021-12-23 17:48:27.792484,-130
2021-12-23 17:48:27.792493,-109
2021-12-23 17:48:27.792503,-121
2021-12-23 17:48:27.792513,-146
2021-12-23 17:48:27.792523,-132
2021-12-23 17:48:28.107220,-109
2021-12-23 17:48:28.107250,-109
2021-12-23 17:48:28.107261,-116
2021-12-23 17:48:28.107271,-125
2021-12-23 17:48:28.107281,-135
2021-12-23 17:48:28.107291,-111
2021-12-23 17:48:28.107301,-74
2021-12-23 17:48:28.107311,-60
2021-12-23 17:48:28.107320,-62
2021-12-23 17:48:28.107330,-95
2021-12-23 17:48:28.107340,-121
2021-12-23 17:48:28.107349,-95
2021-12-23 17:48:28.107359,-69
2021-12-23 17:48:28.107369,-90
2021-12-23 17:48:28.107379,-121
2021-12-23 17:48:28.107388,-121
2021-12-23 17:48:28.107398,-102
2021-12-23 17:48:28.107408,-83
2021-12-23 17:48:28.107417,-67
2021-12-23 17:48:28.107427,-72
2021-12-23 17:48:28.107437,-86
2021-12-23 17:48:28.107446,16
2021-12-23 17:48:28.107456,324
2021-12-23 17:48:28.107466,578
2021-12-23 17:48:28.107476,477
2021-12-23 17:48:28.107486,11
2021-12-23 17:48:28.107495,-480
2021-12-23 17:48:28.107505,-454
2021-12-23 17:48:28.107515,-111
2021-12-23 17:48:28.107524,-39
2021-12-23 17:48:28.286965,-62
2021-12-23 17:48:28.286996,48
2021-12-23 17:48:28.287008,81
2021-12-23 17:48:28.287018,34
2021-12-23 17:48:28.287028,62
2021-12-23 17:48:28.287038,114
2021-12-23 17:48:28.287048,123
2021-12-23 17:48:28.287058,137
2021-12-23 17:48:28.287068,144
2021-12-23 17:48:28.287078,123
2021-12-23 17:48:28.287087,128
2021-12-23 17:48:28.287097,172
2021-12-23 17:48:28.287107,200
2021-12-23 17:48:28.287117,209
2021-12-23 17:48:28.287127,233
2021-12-23 17:48:28.287137,258
2021-12-23 17:48:28.287146,265
2021-12-23 17:48:28.287156,291
2021-12-23 17:48:28.287166,347
2021-12-23 17:48:28.287176,387
2021-12-23 17:48:28.287185,384
2021-12-23 17:48:28.287195,359
2021-12-23 17:48:28.287205,354
2021-12-23 17:48:28.287215,356
2021-12-23 17:48:28.287224,331
2021-12-23 17:48:28.287234,265
2021-12-23 17:48:28.287244,170
2021-12-23 17:48:28.287254,79
2021-12-23 17:48:28.287264,27
2021-12-23 17:48:28.287274,-6
2021-12-23 17:48:28.512218,-39
2021-12-23 17:48:28.512249,-67
2021-12-23 17:48:28.512261,-116
2021-12-23 17:48:28.512271,-153
2021-12-23 17:48:28.512281,-139
2021-12-23 17:48:28.512291,-114
2021-12-23 17:48:28.512301,-104
2021-12-23 17:48:28.512310,-102
2021-12-23 17:48:28.512320,-123
2021-12-23 17:48:28.512330,-139
2021-12-23 17:48:28.512340,-107
2021-12-23 17:48:28.512350,-72
2021-12-23 17:48:28.512360,-65
2021-12-23 17:48:28.512370,-74
2021-12-23 17:48:28.512379,-95
2021-12-23 17:48:28.512389,-102
2021-12-23 17:48:28.512399,-79
2021-12-23 17:48:28.512409,-74
2021-12-23 17:48:28.512419,-93
2021-12-23 17:48:28.512429,-90
2021-12-23 17:48:28.512439,-86
2021-12-23 17:48:28.512449,-93
2021-12-23 17:48:28.512458,-79
2021-12-23 17:48:28.512468,-58
2021-12-23 17:48:28.512478,-74
2021-12-23 17:48:28.512488,-121
2021-12-23 17:48:28.512498,-160
2021-12-23 17:48:28.512507,-174
2021-12-23 17:48:28.512517,-170
2021-12-23 17:48:28.512527,-146
2021-12-23 17:48:28.736566,-125
2021-12-23 17:48:28.736596,-130
2021-12-23 17:48:28.736608,-142
2021-12-23 17:48:28.736619,-130
2021-12-23 17:48:28.736629,-107
2021-12-23 17:48:28.736639,-95
2021-12-23 17:48:28.736649,-97
2021-12-23 17:48:28.736659,-118
2021-12-23 17:48:28.736669,-144
2021-12-23 17:48:28.736679,-132
2021-12-23 17:48:28.736689,-109
2021-12-23 17:48:28.736699,-102
2021-12-23 17:48:28.736709,-93
2021-12-23 17:48:28.736719,-76
2021-12-23 17:48:28.736729,-69
2021-12-23 17:48:28.736739,-60
2021-12-23 17:48:28.736749,-41
2021-12-23 17:48:28.736759,-34
2021-12-23 17:48:28.736769,-39
2021-12-23 17:48:28.736779,-44
2021-12-23 17:48:28.736789,-60
2021-12-23 17:48:28.736798,-65
2021-12-23 17:48:28.736808,-46
2021-12-23 17:48:28.736818,-27
2021-12-23 17:48:28.736828,-27
2021-12-23 17:48:28.736838,-25
2021-12-23 17:48:28.736848,-13
2021-12-23 17:48:28.736858,0
2021-12-23 17:48:28.736868,16
2021-12-23 17:48:28.736879,46
2021-12-23 17:48:28.961298,153
2021-12-23 17:48:28.961325,394
2021-12-23 17:48:28.961337,596
2021-12-23 17:48:28.961348,466
2021-12-23 17:48:28.961359,-39
2021-12-23 17:48:28.961371,-463
2021-12-23 17:48:28.961383,-324
2021-12-23 17:48:28.961394,-20
2021-12-23 17:48:28.961404,-20
2021-12-23 17:48:28.961415,-16
2021-12-23 17:48:28.961425,116
2021-12-23 17:48:28.961436,144
2021-12-23 17:48:28.961447,97
2021-12-23 17:48:28.961459,109
2021-12-23 17:48:28.961470,144
2021-12-23 17:48:28.961482,146
2021-12-23 17:48:28.961493,153
2021-12-23 17:48:28.961576,177
2021-12-23 17:48:28.961594,181
2021-12-23 17:48:28.961650,193
2021-12-23 17:48:28.961661,226
2021-12-23 17:48:28.961668,235
2021-12-23 17:48:28.961675,228
2021-12-23 17:48:28.961728,251
2021-12-23 17:48:28.961738,291
2021-12-23 17:48:28.961744,321
2021-12-23 17:48:28.961751,349
2021-12-23 17:48:28.961804,382
2021-12-23 17:48:28.961814,412
2021-12-23 17:48:28.961820,433
2021-12-23 17:48:29.230285,424
2021-12-23 17:48:29.230316,375
2021-12-23 17:48:29.230325,333
2021-12-23 17:48:29.230334,312
2021-12-23 17:48:29.230342,263
2021-12-23 17:48:29.230349,165
2021-12-23 17:48:29.230357,53
2021-12-23 17:48:29.230365,-9
2021-12-23 17:48:29.230373,-44
2021-12-23 17:48:29.230381,-102
2021-12-23 17:48:29.230389,-149
2021-12-23 17:48:29.230396,-170
2021-12-23 17:48:29.230404,-191
2021-12-23 17:48:29.230411,-181
2021-12-23 17:48:29.230419,-151
2021-12-23 17:48:29.230428,-142
2021-12-23 17:48:29.230434,-132
2021-12-23 17:48:29.230443,-118
2021-12-23 17:48:29.230451,-109
2021-12-23 17:48:29.230458,-90
2021-12-23 17:48:29.230466,-69
2021-12-23 17:48:29.230475,-60
2021-12-23 17:48:29.230481,-51
2021-12-23 17:48:29.230489,-48
2021-12-23 17:48:29.230497,-58
2021-12-23 17:48:29.230504,-53
2021-12-23 17:48:29.230513,-41
2021-12-23 17:48:29.230555,-37
2021-12-23 17:48:29.230571,-27
2021-12-23 17:48:29.230579,-18
2021-12-23 17:48:29.411670,-25
2021-12-23 17:48:29.411701,-41
2021-12-23 17:48:29.411713,-55
2021-12-23 17:48:29.411723,-69
2021-12-23 17:48:29.411733,-102
2021-12-23 17:48:29.411742,-132
2021-12-23 17:48:29.411752,-125
2021-12-23 17:48:29.411762,-102
2021-12-23 17:48:29.411771,-97
2021-12-23 17:48:29.411781,-100
2021-12-23 17:48:29.411791,-104
2021-12-23 17:48:29.411801,-132
2021-12-23 17:48:29.411811,-142
2021-12-23 17:48:29.411820,-107
2021-12-23 17:48:29.411830,-90
2021-12-23 17:48:29.411840,-102
2021-12-23 17:48:29.411849,-109
2021-12-23 17:48:29.411859,-102
2021-12-23 17:48:29.411869,-79
2021-12-23 17:48:29.411879,-48
2021-12-23 17:48:29.411888,-37
2021-12-23 17:48:29.411898,-30
2021-12-23 17:48:29.411908,-13
2021-12-23 17:48:29.411918,-4
2021-12-23 17:48:29.411927,-11
2021-12-23 17:48:29.411937,-34
2021-12-23 17:48:29.411947,-62
2021-12-23 17:48:29.411956,-65
2021-12-23 17:48:29.411966,-58
2021-12-23 17:48:29.411976,-62
2021-12-23 17:48:29.636528,-48
2021-12-23 17:48:29.636558,-23
2021-12-23 17:48:29.636569,-20
2021-12-23 17:48:29.636579,-39
2021-12-23 17:48:29.636589,-58
2021-12-23 17:48:29.636599,-62
2021-12-23 17:48:29.636608,-53
2021-12-23 17:48:29.636618,9
2021-12-23 17:48:29.636628,219
2021-12-23 17:48:29.636638,410
2021-12-23 17:48:29.636648,228
2021-12-23 17:48:29.636657,-310
2021-12-23 17:48:29.636667,-683
2021-12-23 17:48:29.636677,-463
2021-12-23 17:48:29.636687,-107
2021-12-23 17:48:29.636696,-104
2021-12-23 17:48:29.636706,-128
2021-12-23 17:48:29.636716,13
2021-12-23 17:48:29.636725,62
2021-12-23 17:48:29.636735,27
2021-12-23 17:48:29.636745,44
2021-12-23 17:48:29.636754,60
2021-12-23 17:48:29.636764,48
2021-12-23 17:48:29.636774,60
2021-12-23 17:48:29.636783,97
2021-12-23 17:48:29.636793,125
2021-12-23 17:48:29.636803,137
2021-12-23 17:48:29.636812,139
2021-12-23 17:48:29.636822,149
2021-12-23 17:48:29.636832,170
2021-12-23 17:48:29.906669,193
2021-12-23 17:48:29.906699,223
2021-12-23 17:48:29.906711,247
2021-12-23 17:48:29.906721,233
2021-12-23 17:48:29.906731,226
2021-12-23 17:48:29.906741,272
2021-12-23 17:48:29.906751,317
2021-12-23 17:48:29.906761,321
2021-12-23 17:48:29.906771,310
2021-12-23 17:48:29.906781,265
2021-12-23 17:48:29.906791,193
2021-12-23 17:48:29.906800,137
2021-12-23 17:48:29.906810,83
2021-12-23 17:48:29.906820,18
2021-12-23 17:48:29.906830,-48
2021-12-23 17:48:29.906840,-128
2021-12-23 17:48:29.906850,-207
2021-12-23 17:48:29.906860,-226
2021-12-23 17:48:29.906870,-202
2021-12-23 17:48:29.906896,-198
2021-12-23 17:48:29.906906,-209
2021-12-23 17:48:29.906916,-214
2021-12-23 17:48:29.906926,-193
2021-12-23 17:48:29.906936,-170
2021-12-23 17:48:29.906946,-151
2021-12-23 17:48:29.906955,-121
2021-12-23 17:48:29.906965,-93
2021-12-23 17:48:29.906975,-83
2021-12-23 17:48:29.906985,-90
2021-12-23 17:48:29.906995,-111
2021-12-23 17:48:30.131877,-128
2021-12-23 17:48:30.131908,-102
2021-12-23 17:48:30.131919,-88
2021-12-23 17:48:30.131930,-111
2021-12-23 17:48:30.131940,-97
2021-12-23 17:48:30.131949,-16
2021-12-23 17:48:30.131959,86
2021-12-23 17:48:30.131969,116
2021-12-23 17:48:30.131979,67
2021-12-23 17:48:30.131988,37
2021-12-23 17:48:30.131998,41
2021-12-23 17:48:30.132008,-27
2021-12-23 17:48:30.132017,-165
2021-12-23 17:48:30.132027,-202
2021-12-23 17:48:30.132036,-104
2021-12-23 17:48:30.132046,-55
2021-12-23 17:48:30.132056,-102
2021-12-23 17:48:30.132065,-151
2021-12-23 17:48:30.132075,-123
2021-12-23 17:48:30.132084,-27
2021-12-23 17:48:30.132094,-4
2021-12-23 17:48:30.132104,-6
2021-12-23 17:48:30.132114,65
2021-12-23 17:48:30.132124,86
2021-12-23 17:48:30.132133,55
2021-12-23 17:48:30.132143,58
2021-12-23 17:48:30.132153,53
2021-12-23 17:48:30.132162,62
2021-12-23 17:48:30.132172,121
2021-12-23 17:48:30.132181,130
2021-12-23 17:48:30.356924,88
2021-12-23 17:48:30.356954,72
2021-12-23 17:48:30.356967,46
2021-12-23 17:48:30.356977,13
2021-12-23 17:48:30.356987,58
2021-12-23 17:48:30.356997,118
2021-12-23 17:48:30.357007,116
2021-12-23 17:48:30.357017,107
2021-12-23 17:48:30.357027,88
2021-12-23 17:48:30.357037,51
2021-12-23 17:48:30.357047,53
2021-12-23 17:48:30.357057,104
2021-12-23 17:48:30.357067,172
2021-12-23 17:48:30.357077,279
2021-12-23 17:48:30.357087,482
2021-12-23 17:48:30.357097,638
2021-12-23 17:48:30.357107,475
2021-12-23 17:48:30.357117,-30
2021-12-23 17:48:30.357127,-503
2021-12-23 17:48:30.357137,-477
2021-12-23 17:48:30.357147,-76
2021-12-23 17:48:30.357157,121
2021-12-23 17:48:30.357167,81
2021-12-23 17:48:30.357177,158
2021-12-23 17:48:30.357186,268
2021-12-23 17:48:30.357196,247
2021-12-23 17:48:30.357206,219
2021-12-23 17:48:30.357216,233
2021-12-23 17:48:30.357226,221
2021-12-23 17:48:30.357236,230
2021-12-23 17:48:30.581762,284
2021-12-23 17:48:30.581793,303
2021-12-23 17:48:30.581804,305
2021-12-23 17:48:30.581815,333
2021-12-23 17:48:30.581825,347
2021-12-23 17:48:30.581835,333
2021-12-23 17:48:30.581845,319
2021-12-23 17:48:30.581855,321
2021-12-23 17:48:30.581865,375
2021-12-23 17:48:30.581875,435
2021-12-23 17:48:30.581885,449
2021-12-23 17:48:30.581895,470
2021-12-23 17:48:30.581905,524
2021-12-23 17:48:30.581915,487
2021-12-23 17:48:30.581925,312
2021-12-23 17:48:30.581935,242
2021-12-23 17:48:30.581944,368
2021-12-23 17:48:30.581954,293
2021-12-23 17:48:30.581964,-51
2021-12-23 17:48:30.581974,-90
2021-12-23 17:48:30.581984,114
2021-12-23 17:48:30.581994,13
2021-12-23 17:48:30.582004,-142
2021-12-23 17:48:30.582014,-53
2021-12-23 17:48:30.582023,-9
2021-12-23 17:48:30.582033,-205
2021-12-23 17:48:30.582043,-347
2021-12-23 17:48:30.582053,-123
2021-12-23 17:48:30.582063,67
2021-12-23 17:48:30.582073,-34
2021-12-23 17:48:30.806848,-58
2021-12-23 17:48:30.806879,39
2021-12-23 17:48:30.806891,41
2021-12-23 17:48:30.806901,6
2021-12-23 17:48:30.806912,4
2021-12-23 17:48:30.806922,-9
2021-12-23 17:48:30.806932,-46
2021-12-23 17:48:30.806942,-67
2021-12-23 17:48:30.807071,-60
2021-12-23 17:48:30.807083,-62
2021-12-23 17:48:30.807093,-60
2021-12-23 17:48:30.807103,-39
2021-12-23 17:48:30.807113,-67
2021-12-23 17:48:30.807123,-128
2021-12-23 17:48:30.807133,-128
2021-12-23 17:48:30.807143,-104
2021-12-23 17:48:30.807153,-118
2021-12-23 17:48:30.807163,-114
2021-12-23 17:48:30.807173,-97
2021-12-23 17:48:30.807183,-111
2021-12-23 17:48:30.807193,-118
2021-12-23 17:48:30.807203,-107
2021-12-23 17:48:30.807213,-95
2021-12-23 17:48:30.807223,-83
2021-12-23 17:48:30.807233,-88
2021-12-23 17:48:30.807243,-95
2021-12-23 17:48:30.807253,-81
2021-12-23 17:48:30.807263,-72
2021-12-23 17:48:30.807273,-74
2021-12-23 17:48:30.807283,-69
2021-12-23 17:48:31.076461,-51
2021-12-23 17:48:31.076492,-23
2021-12-23 17:48:31.076504,4
2021-12-23 17:48:31.076515,20
2021-12-23 17:48:31.076525,23
2021-12-23 17:48:31.076535,9
2021-12-23 17:48:31.076545,-13
2021-12-23 17:48:31.076555,-30
2021-12-23 17:48:31.076565,-37
2021-12-23 17:48:31.076575,-51
2021-12-23 17:48:31.076585,-62
2021-12-23 17:48:31.076595,-65
2021-12-23 17:48:31.076605,-65
2021-12-23 17:48:31.076615,-55
2021-12-23 17:48:31.076625,-51
2021-12-23 17:48:31.076635,-51
2021-12-23 17:48:31.076644,-39
2021-12-23 17:48:31.076654,-16
2021-12-23 17:48:31.076664,20
2021-12-23 17:48:31.076674,116
2021-12-23 17:48:31.076684,363
2021-12-23 17:48:31.076694,655
2021-12-23 17:48:31.076704,634
2021-12-23 17:48:31.076714,95
2021-12-23 17:48:31.076724,-550
2021-12-23 17:48:31.076734,-578
2021-12-23 17:48:31.076745,-135
2021-12-23 17:48:31.076755,16
2021-12-23 17:48:31.076764,-18
2021-12-23 17:48:31.076775,114
2021-12-23 17:48:31.300546,205
2021-12-23 17:48:31.300577,181
2021-12-23 17:48:31.300589,209
2021-12-23 17:48:31.300599,251
2021-12-23 17:48:31.300609,249
2021-12-23 17:48:31.300619,249
2021-12-23 17:48:31.300629,277
2021-12-23 17:48:31.300639,310
2021-12-23 17:48:31.300649,340
2021-12-23 17:48:31.300658,361
2021-12-23 17:48:31.300668,331
2021-12-23 17:48:31.300678,286
2021-12-23 17:48:31.300688,305
2021-12-23 17:48:31.300698,370
2021-12-23 17:48:31.300708,408
2021-12-23 17:48:31.300718,424
2021-12-23 17:48:31.300728,459
2021-12-23 17:48:31.300738,505
2021-12-23 17:48:31.300748,529
2021-12-23 17:48:31.300758,540
2021-12-23 17:48:31.300767,557
2021-12-23 17:48:31.300777,545
2021-12-23 17:48:31.300787,494
2021-12-23 17:48:31.300797,435
2021-12-23 17:48:31.300807,384
2021-12-23 17:48:31.300817,317
2021-12-23 17:48:31.300827,244
2021-12-23 17:48:31.300837,191
2021-12-23 17:48:31.300847,142
2021-12-23 17:48:31.300857,95
2021-12-23 17:48:31.481547,60
2021-12-23 17:48:31.481579,46
2021-12-23 17:48:31.481591,58
2021-12-23 17:48:31.481602,65
2021-12-23 17:48:31.481612,51
2021-12-23 17:48:31.481622,41
2021-12-23 17:48:31.481632,53
