Time,ECG
2021-12-23 17:27:55.875690,-135
2021-12-23 17:27:55.875704,-130
2021-12-23 17:27:55.875712,-114
2021-12-23 17:27:55.875720,-137
2021-12-23 17:27:55.875726,-170
2021-12-23 17:27:55.875731,-146
2021-12-23 17:27:55.875735,-107
2021-12-23 17:27:55.875740,-102
2021-12-23 17:27:55.875744,-102
2021-12-23 17:27:55.875749,-128
2021-12-23 17:27:55.875753,-163
2021-12-23 17:27:55.875758,-146
2021-12-23 17:27:55.875763,-107
2021-12-23 17:27:55.875767,-95
2021-12-23 17:27:55.875772,-90
2021-12-23 17:27:55.875776,-86
2021-12-23 17:27:55.875781,-74
2021-12-23 17:27:55.875785,-48
2021-12-23 17:27:55.875803,-44
2021-12-23 17:27:55.875808,-95
2021-12-23 17:27:55.875812,-139
2021-12-23 17:27:55.875816,-130
2021-12-23 17:27:55.875820,-107
2021-12-23 17:27:55.875824,-88
2021-12-23 17:27:55.875828,-69
2021-12-23 17:27:55.875833,-53
2021-12-23 17:27:55.875837,-51
2021-12-23 17:27:55.875842,-55
2021-12-23 17:27:55.875846,-46
2021-12-23 17:27:55.875850,9
2021-12-23 17:27:56.072530,188
2021-12-23 17:27:56.072551,463
2021-12-23 17:27:56.072559,529
2021-12-23 17:27:56.072566,156
2021-12-23 17:27:56.072573,-403
2021-12-23 17:27:56.072579,-568
2021-12-23 17:27:56.072587,-240
2021-12-23 17:27:56.072594,-16
2021-12-23 17:27:56.072600,-62
2021-12-23 17:27:56.072607,-32
2021-12-23 17:27:56.072613,58
2021-12-23 17:27:56.072620,62
2021-12-23 17:27:56.072626,67
2021-12-23 17:27:56.072633,104
2021-12-23 17:27:56.072639,95
2021-12-23 17:27:56.072646,58
2021-12-23 17:27:56.072652,79
2021-12-23 17:27:56.072660,125
2021-12-23 17:27:56.072666,146
2021-12-23 17:27:56.072673,163
2021-12-23 17:27:56.072681,177
2021-12-23 17:27:56.072688,181
2021-12-23 17:27:56.072694,209
2021-12-23 17:27:56.072701,256
2021-12-23 17:27:56.072707,289
2021-12-23 17:27:56.072746,298
2021-12-23 17:27:56.072752,296
2021-12-23 17:27:56.072759,307
2021-12-23 17:27:56.072765,328
2021-12-23 17:27:56.072774,340
2021-12-23 17:27:56.297453,331
2021-12-23 17:27:56.297502,300
2021-12-23 17:27:56.297513,226
2021-12-23 17:27:56.297523,116
2021-12-23 17:27:56.297531,11
2021-12-23 17:27:56.297540,-55
2021-12-23 17:27:56.297549,-90
2021-12-23 17:27:56.297556,-137
2021-12-23 17:27:56.297566,-195
2021-12-23 17:27:56.297574,-223
2021-12-23 17:27:56.297584,-202
2021-12-23 17:27:56.297595,-174
2021-12-23 17:27:56.297605,-160
2021-12-23 17:27:56.297631,-151
2021-12-23 17:27:56.297645,-151
2021-12-23 17:27:56.297659,-144
2021-12-23 17:27:56.297682,-121
2021-12-23 17:27:56.297710,-116
2021-12-23 17:27:56.297741,-123
2021-12-23 17:27:56.297774,-130
2021-12-23 17:27:56.297809,-167
2021-12-23 17:27:56.297840,-186
2021-12-23 17:27:56.297869,-149
2021-12-23 17:27:56.297890,-125
2021-12-23 17:27:56.297914,-160
2021-12-23 17:27:56.297938,-209
2021-12-23 17:27:56.297958,-209
2021-12-23 17:27:56.297984,-184
2021-12-23 17:27:56.298007,-174
2021-12-23 17:27:56.298050,-165
2021-12-23 17:27:56.478431,-149
2021-12-23 17:27:56.478461,-144
2021-12-23 17:27:56.478472,-149
2021-12-23 17:27:56.478482,-137
2021-12-23 17:27:56.478492,-107
2021-12-23 17:27:56.478502,-90
2021-12-23 17:27:56.478512,-109
2021-12-23 17:27:56.478522,-137
2021-12-23 17:27:56.478531,-142
2021-12-23 17:27:56.478541,-142
2021-12-23 17:27:56.478551,-142
2021-12-23 17:27:56.478560,-118
2021-12-23 17:27:56.478570,-102
2021-12-23 17:27:56.478580,-125
2021-12-23 17:27:56.478589,-135
2021-12-23 17:27:56.478599,-107
2021-12-23 17:27:56.478609,-88
2021-12-23 17:27:56.478624,-81
2021-12-23 17:27:56.478634,-55
2021-12-23 17:27:56.478643,55
2021-12-23 17:27:56.478653,321
2021-12-23 17:27:56.478663,545
2021-12-23 17:27:56.478673,384
2021-12-23 17:27:56.478682,-170
2021-12-23 17:27:56.478692,-573
2021-12-23 17:27:56.478702,-377
2021-12-23 17:27:56.478712,-41
2021-12-23 17:27:56.478721,-30
2021-12-23 17:27:56.478731,-25
2021-12-23 17:27:56.478741,104
2021-12-23 17:27:56.792975,123
2021-12-23 17:27:56.793006,81
2021-12-23 17:27:56.793018,114
2021-12-23 17:27:56.793028,142
2021-12-23 17:27:56.793038,139
2021-12-23 17:27:56.793048,158
2021-12-23 17:27:56.793058,163
2021-12-23 17:27:56.793075,135
2021-12-23 17:27:56.793086,118
2021-12-23 17:27:56.793096,130
2021-12-23 17:27:56.793106,163
2021-12-23 17:27:56.793116,205
2021-12-23 17:27:56.793126,216
2021-12-23 17:27:56.793136,221
2021-12-23 17:27:56.793146,265
2021-12-23 17:27:56.793156,317
2021-12-23 17:27:56.793166,342
2021-12-23 17:27:56.793176,354
2021-12-23 17:27:56.793186,349
2021-12-23 17:27:56.793196,338
2021-12-23 17:27:56.793206,321
2021-12-23 17:27:56.793216,263
2021-12-23 17:27:56.793226,165
2021-12-23 17:27:56.793236,65
2021-12-23 17:27:56.793246,-13
2021-12-23 17:27:56.793256,-67
2021-12-23 17:27:56.793266,-109
2021-12-23 17:27:56.793276,-139
2021-12-23 17:27:56.793286,-153
2021-12-23 17:27:56.793298,-174
2021-12-23 17:27:56.973345,-205
2021-12-23 17:27:56.973374,-193
2021-12-23 17:27:56.973386,-160
2021-12-23 17:27:56.973396,-163
2021-12-23 17:27:56.973406,-146
2021-12-23 17:27:56.973416,-107
2021-12-23 17:27:56.973426,-93
2021-12-23 17:27:56.973436,-79
2021-12-23 17:27:56.973446,-53
2021-12-23 17:27:56.973455,-53
2021-12-23 17:27:56.973465,-74
2021-12-23 17:27:56.973475,-104
2021-12-23 17:27:56.973485,-125
2021-12-23 17:27:56.973495,-104
2021-12-23 17:27:56.973505,-83
2021-12-23 17:27:56.973515,-109
2021-12-23 17:27:56.973525,-128
2021-12-23 17:27:56.973535,-151
2021-12-23 17:27:56.973545,-186
2021-12-23 17:27:56.973554,-172
2021-12-23 17:27:56.973564,-149
2021-12-23 17:27:56.973574,-158
2021-12-23 17:27:56.973584,-153
2021-12-23 17:27:56.973594,-142
2021-12-23 17:27:56.973610,-142
2021-12-23 17:27:56.973621,-109
2021-12-23 17:27:56.973631,-74
2021-12-23 17:27:56.973641,-81
2021-12-23 17:27:56.973651,-90
2021-12-23 17:27:56.973661,-93
2021-12-23 17:27:57.198404,-93
2021-12-23 17:27:57.198434,-76
2021-12-23 17:27:57.198445,-62
2021-12-23 17:27:57.198455,-67
2021-12-23 17:27:57.198465,-76
2021-12-23 17:27:57.198475,-88
2021-12-23 17:27:57.198485,-90
2021-12-23 17:27:57.198495,-58
2021-12-23 17:27:57.198505,-16
2021-12-23 17:27:57.198515,81
2021-12-23 17:27:57.198525,333
2021-12-23 17:27:57.198535,543
2021-12-23 17:27:57.198545,335
2021-12-23 17:27:57.198555,-254
2021-12-23 17:27:57.198565,-610
2021-12-23 17:27:57.198575,-359
2021-12-23 17:27:57.198585,-48
2021-12-23 17:27:57.198594,-88
2021-12-23 17:27:57.198604,-86
2021-12-23 17:27:57.198614,58
2021-12-23 17:27:57.198624,79
2021-12-23 17:27:57.198634,46
2021-12-23 17:27:57.198647,74
2021-12-23 17:27:57.198657,93
2021-12-23 17:27:57.198667,97
2021-12-23 17:27:57.198677,125
2021-12-23 17:27:57.198687,146
2021-12-23 17:27:57.198697,149
2021-12-23 17:27:57.198707,158
2021-12-23 17:27:57.198717,177
2021-12-23 17:27:57.377387,207
2021-12-23 17:27:57.377409,249
2021-12-23 17:27:57.377417,282
2021-12-23 17:27:57.377424,298
2021-12-23 17:27:57.377431,321
2021-12-23 17:27:57.377437,324
2021-12-23 17:27:57.377444,310
2021-12-23 17:27:57.377450,335
2021-12-23 17:27:57.377457,356
2021-12-23 17:27:57.377463,312
2021-12-23 17:27:57.377470,240
2021-12-23 17:27:57.377476,177
2021-12-23 17:27:57.377483,125
2021-12-23 17:27:57.377489,55
2021-12-23 17:27:57.377531,-46
2021-12-23 17:27:57.377538,-137
2021-12-23 17:27:57.377544,-191
2021-12-23 17:27:57.377551,-212
2021-12-23 17:27:57.377557,-212
2021-12-23 17:27:57.377564,-216
2021-12-23 17:27:57.377570,-223
2021-12-23 17:27:57.377577,-221
2021-12-23 17:27:57.377583,-216
2021-12-23 17:27:57.377590,-200
2021-12-23 17:27:57.377600,-167
2021-12-23 17:27:57.377606,-132
2021-12-23 17:27:57.377613,-121
2021-12-23 17:27:57.377619,-125
2021-12-23 17:27:57.377626,-121
2021-12-23 17:27:57.377633,-93
2021-12-23 17:27:57.648534,-69
2021-12-23 17:27:57.648564,-55
2021-12-23 17:27:57.648575,-46
2021-12-23 17:27:57.648585,-67
2021-12-23 17:27:57.648595,-102
2021-12-23 17:27:57.648605,-86
2021-12-23 17:27:57.648615,-55
2021-12-23 17:27:57.648625,-51
2021-12-23 17:27:57.648635,-58
2021-12-23 17:27:57.648645,-83
2021-12-23 17:27:57.648655,-123
2021-12-23 17:27:57.648665,-135
2021-12-23 17:27:57.648675,-121
2021-12-23 17:27:57.648685,-118
2021-12-23 17:27:57.648695,-135
2021-12-23 17:27:57.648704,-137
2021-12-23 17:27:57.648714,-130
2021-12-23 17:27:57.648724,-128
2021-12-23 17:27:57.648734,-116
2021-12-23 17:27:57.648744,-111
2021-12-23 17:27:57.648754,-125
2021-12-23 17:27:57.648764,-132
2021-12-23 17:27:57.648774,-116
2021-12-23 17:27:57.648784,-93
2021-12-23 17:27:57.648794,-76
2021-12-23 17:27:57.648804,-65
2021-12-23 17:27:57.648814,-65
2021-12-23 17:27:57.648824,-74
2021-12-23 17:27:57.648834,-53
2021-12-23 17:27:57.648844,41
2021-12-23 17:27:57.872871,261
2021-12-23 17:27:57.872901,501
2021-12-23 17:27:57.872913,445
2021-12-23 17:27:57.872923,-30
2021-12-23 17:27:57.872933,-529
2021-12-23 17:27:57.872944,-475
2021-12-23 17:27:57.872953,-88
2021-12-23 17:27:57.872963,2
2021-12-23 17:27:57.872973,-69
2021-12-23 17:27:57.872983,2
2021-12-23 17:27:57.872992,48
2021-12-23 17:27:57.873002,-6
2021-12-23 17:27:57.873012,-23
2021-12-23 17:27:57.873021,20
2021-12-23 17:27:57.873031,20
2021-12-23 17:27:57.873041,-11
2021-12-23 17:27:57.873050,13
2021-12-23 17:27:57.873060,55
2021-12-23 17:27:57.873070,51
2021-12-23 17:27:57.873079,51
2021-12-23 17:27:57.873089,79
2021-12-23 17:27:57.873099,100
2021-12-23 17:27:57.873108,132
2021-12-23 17:27:57.873118,188
2021-12-23 17:27:57.873128,240
2021-12-23 17:27:57.873137,275
2021-12-23 17:27:57.873147,293
2021-12-23 17:27:57.873157,291
2021-12-23 17:27:57.873167,303
2021-12-23 17:27:57.873176,317
2021-12-23 17:27:58.098352,298
2021-12-23 17:27:58.098382,251
2021-12-23 17:27:58.098394,174
2021-12-23 17:27:58.098405,76
2021-12-23 17:27:58.098415,4
2021-12-23 17:27:58.098426,-34
2021-12-23 17:27:58.098436,-72
2021-12-23 17:27:58.098446,-109
2021-12-23 17:27:58.098456,-160
2021-12-23 17:27:58.098467,-186
2021-12-23 17:27:58.098483,-165
2021-12-23 17:27:58.098493,-132
2021-12-23 17:27:58.098504,-121
2021-12-23 17:27:58.098514,-135
2021-12-23 17:27:58.098524,-174
2021-12-23 17:27:58.098534,-184
2021-12-23 17:27:58.098544,-146
2021-12-23 17:27:58.098555,-114
2021-12-23 17:27:58.098565,-97
2021-12-23 17:27:58.098575,-86
2021-12-23 17:27:58.098586,-97
2021-12-23 17:27:58.098596,-116
2021-12-23 17:27:58.098606,-95
2021-12-23 17:27:58.098616,-65
2021-12-23 17:27:58.098626,-51
2021-12-23 17:27:58.098636,-51
2021-12-23 17:27:58.098646,-60
2021-12-23 17:27:58.098657,-58
2021-12-23 17:27:58.098667,-44
2021-12-23 17:27:58.098677,-34
2021-12-23 17:27:58.366992,-34
2021-12-23 17:27:58.367014,-37
2021-12-23 17:27:58.367022,-48
2021-12-23 17:27:58.367028,-53
2021-12-23 17:27:58.367035,-39
2021-12-23 17:27:58.367041,-27
2021-12-23 17:27:58.367048,-44
2021-12-23 17:27:58.367054,-74
2021-12-23 17:27:58.367061,-100
2021-12-23 17:27:58.367067,-114
2021-12-23 17:27:58.367073,-109
2021-12-23 17:27:58.367080,-104
2021-12-23 17:27:58.367086,-118
2021-12-23 17:27:58.367092,-144
2021-12-23 17:27:58.367099,-153
2021-12-23 17:27:58.367105,-142
2021-12-23 17:27:58.367111,-153
2021-12-23 17:27:58.367117,-191
2021-12-23 17:27:58.367124,-198
2021-12-23 17:27:58.367130,-177
2021-12-23 17:27:58.367136,-149
2021-12-23 17:27:58.367143,-20
2021-12-23 17:27:58.367149,230
2021-12-23 17:27:58.367155,370
2021-12-23 17:27:58.367162,151
2021-12-23 17:27:58.367172,-377
2021-12-23 17:27:58.367179,-711
2021-12-23 17:27:58.367186,-452
2021-12-23 17:27:58.367192,-107
2021-12-23 17:27:58.367199,-86
2021-12-23 17:27:58.548046,-62
2021-12-23 17:27:58.548077,44
2021-12-23 17:27:58.548089,48
2021-12-23 17:27:58.548099,27
2021-12-23 17:27:58.548109,65
2021-12-23 17:27:58.548118,90
2021-12-23 17:27:58.548128,67
2021-12-23 17:27:58.548138,53
2021-12-23 17:27:58.548148,76
2021-12-23 17:27:58.548157,100
2021-12-23 17:27:58.548167,123
2021-12-23 17:27:58.548177,151
2021-12-23 17:27:58.548187,151
2021-12-23 17:27:58.548197,144
2021-12-23 17:27:58.548207,184
2021-12-23 17:27:58.548216,235
2021-12-23 17:27:58.548226,268
2021-12-23 17:27:58.548236,310
2021-12-23 17:27:58.548246,335
2021-12-23 17:27:58.548256,338
2021-12-23 17:27:58.548265,342
2021-12-23 17:27:58.548275,328
2021-12-23 17:27:58.548285,293
2021-12-23 17:27:58.548295,240
2021-12-23 17:27:58.548304,146
2021-12-23 17:27:58.548314,41
2021-12-23 17:27:58.548324,-18
2021-12-23 17:27:58.548334,-60
2021-12-23 17:27:58.548344,-97
2021-12-23 17:27:58.548354,-116
2021-12-23 17:27:58.772892,-128
2021-12-23 17:27:58.772923,-125
2021-12-23 17:27:58.772935,-114
2021-12-23 17:27:58.772945,-109
2021-12-23 17:27:58.772956,-104
2021-12-23 17:27:58.772966,-107
2021-12-23 17:27:58.772976,-135
2021-12-23 17:27:58.772986,-151
2021-12-23 17:27:58.772996,-125
2021-12-23 17:27:58.773006,-109
2021-12-23 17:27:58.773016,-102
2021-12-23 17:27:58.773027,-102
2021-12-23 17:27:58.773037,-118
2021-12-23 17:27:58.773047,-107
2021-12-23 17:27:58.773057,-83
2021-12-23 17:27:58.773067,-83
2021-12-23 17:27:58.773082,-72
2021-12-23 17:27:58.773092,-60
2021-12-23 17:27:58.773102,-62
2021-12-23 17:27:58.773112,-51
2021-12-23 17:27:58.773122,-37
2021-12-23 17:27:58.773132,-48
2021-12-23 17:27:58.773143,-88
2021-12-23 17:27:58.773153,-130
2021-12-23 17:27:58.773163,-121
2021-12-23 17:27:58.773173,-93
2021-12-23 17:27:58.773184,-114
2021-12-23 17:27:58.773194,-149
2021-12-23 17:27:58.773204,-146
2021-12-23 17:27:58.773214,-146
2021-12-23 17:27:58.998169,-158
2021-12-23 17:27:58.998200,-149
2021-12-23 17:27:58.998211,-146
2021-12-23 17:27:58.998222,-142
2021-12-23 17:27:58.998232,-125
2021-12-23 17:27:58.998242,-142
2021-12-23 17:27:58.998252,-163
2021-12-23 17:27:58.998262,-149
2021-12-23 17:27:58.998272,-130
2021-12-23 17:27:58.998281,-130
2021-12-23 17:27:58.998291,-137
2021-12-23 17:27:58.998301,-151
2021-12-23 17:27:58.998311,-146
2021-12-23 17:27:58.998321,-114
2021-12-23 17:27:58.998331,-97
2021-12-23 17:27:58.998341,-93
2021-12-23 17:27:58.998351,-69
2021-12-23 17:27:58.998361,39
2021-12-23 17:27:58.998371,293
2021-12-23 17:27:58.998381,508
2021-12-23 17:27:58.998391,373
2021-12-23 17:27:58.998401,-139
2021-12-23 17:27:58.998412,-582
2021-12-23 17:27:58.998422,-447
2021-12-23 17:27:58.998431,-76
2021-12-23 17:27:58.998442,-27
2021-12-23 17:27:58.998452,-39
2021-12-23 17:27:58.998462,69
2021-12-23 17:27:58.998472,72
2021-12-23 17:27:58.998482,23
2021-12-23 17:27:59.222828,69
2021-12-23 17:27:59.222858,116
2021-12-23 17:27:59.222870,109
2021-12-23 17:27:59.222881,107
2021-12-23 17:27:59.222891,102
2021-12-23 17:27:59.222901,90
2021-12-23 17:27:59.222912,118
2021-12-23 17:27:59.222922,160
2021-12-23 17:27:59.222932,179
2021-12-23 17:27:59.222942,186
2021-12-23 17:27:59.222952,188
2021-12-23 17:27:59.222962,207
2021-12-23 17:27:59.222972,261
2021-12-23 17:27:59.222986,314
2021-12-23 17:27:59.222997,340
2021-12-23 17:27:59.223007,342
2021-12-23 17:27:59.223017,338
2021-12-23 17:27:59.223027,333
2021-12-23 17:27:59.223037,321
2021-12-23 17:27:59.223047,279
2021-12-23 17:27:59.223057,207
2021-12-23 17:27:59.223067,114
2021-12-23 17:27:59.223077,27
2021-12-23 17:27:59.223087,-25
2021-12-23 17:27:59.223097,-53
2021-12-23 17:27:59.223107,-72
2021-12-23 17:27:59.223117,-93
2021-12-23 17:27:59.223127,-144
2021-12-23 17:27:59.223137,-214
2021-12-23 17:27:59.223147,-228
2021-12-23 17:27:59.493273,-205
2021-12-23 17:27:59.493303,-207
2021-12-23 17:27:59.493315,-202
2021-12-23 17:27:59.493325,-209
2021-12-23 17:27:59.493335,-233
2021-12-23 17:27:59.493346,-219
2021-12-23 17:27:59.493356,-179
2021-12-23 17:27:59.493366,-151
2021-12-23 17:27:59.493375,-142
2021-12-23 17:27:59.493385,-167
2021-12-23 17:27:59.493395,-191
2021-12-23 17:27:59.493405,-158
2021-12-23 17:27:59.493415,-118
2021-12-23 17:27:59.493425,-109
2021-12-23 17:27:59.493435,-116
2021-12-23 17:27:59.493445,-153
2021-12-23 17:27:59.493455,-177
2021-12-23 17:27:59.493465,-151
2021-12-23 17:27:59.493475,-128
2021-12-23 17:27:59.493485,-130
2021-12-23 17:27:59.493495,-144
2021-12-23 17:27:59.493505,-170
2021-12-23 17:27:59.493515,-181
2021-12-23 17:27:59.493525,-179
2021-12-23 17:27:59.493535,-186
2021-12-23 17:27:59.493545,-186
2021-12-23 17:27:59.493555,-193
2021-12-23 17:27:59.493564,-214
2021-12-23 17:27:59.493574,-202
2021-12-23 17:27:59.493585,-172
2021-12-23 17:27:59.718061,-172
2021-12-23 17:27:59.718091,-179
2021-12-23 17:27:59.718103,-186
2021-12-23 17:27:59.718114,-198
2021-12-23 17:27:59.718124,-170
2021-12-23 17:27:59.718133,-118
2021-12-23 17:27:59.718143,-97
2021-12-23 17:27:59.718153,-95
2021-12-23 17:27:59.718163,-132
2021-12-23 17:27:59.718172,-193
2021-12-23 17:27:59.718182,-191
2021-12-23 17:27:59.718192,-146
2021-12-23 17:27:59.718202,-132
2021-12-23 17:27:59.718211,-130
2021-12-23 17:27:59.718221,-144
2021-12-23 17:27:59.718231,-181
2021-12-23 17:27:59.718240,-167
2021-12-23 17:27:59.718255,-114
2021-12-23 17:27:59.718265,-72
2021-12-23 17:27:59.718275,67
2021-12-23 17:27:59.718285,340
2021-12-23 17:27:59.718295,487
2021-12-23 17:27:59.718305,265
2021-12-23 17:27:59.718315,-261
2021-12-23 17:27:59.718325,-613
2021-12-23 17:27:59.718335,-384
2021-12-23 17:27:59.718345,-74
2021-12-23 17:27:59.718355,-90
2021-12-23 17:27:59.718365,-65
2021-12-23 17:27:59.718375,72
2021-12-23 17:27:59.941836,81
2021-12-23 17:27:59.941853,58
2021-12-23 17:27:59.941859,88
2021-12-23 17:27:59.941865,65
2021-12-23 17:27:59.941870,-2
2021-12-23 17:27:59.941876,-6
2021-12-23 17:27:59.941881,44
2021-12-23 17:27:59.941886,60
2021-12-23 17:27:59.941891,39
2021-12-23 17:27:59.941896,48
2021-12-23 17:27:59.941901,102
2021-12-23 17:27:59.941906,146
2021-12-23 17:27:59.941912,188
2021-12-23 17:27:59.941917,226
2021-12-23 17:27:59.941922,235
2021-12-23 17:27:59.941927,251
2021-12-23 17:27:59.941932,293
2021-12-23 17:27:59.941937,317
2021-12-23 17:27:59.941943,303
2021-12-23 17:27:59.941948,279
2021-12-23 17:27:59.941954,247
2021-12-23 17:27:59.941959,184
2021-12-23 17:27:59.941964,100
2021-12-23 17:27:59.941970,20
2021-12-23 17:27:59.941975,-44
2021-12-23 17:27:59.941980,-95
2021-12-23 17:27:59.941985,-137
2021-12-23 17:27:59.941990,-163
2021-12-23 17:27:59.941995,-165
2021-12-23 17:27:59.942000,-151
2021-12-23 17:28:00.168168,-163
2021-12-23 17:28:00.168200,-188
2021-12-23 17:28:00.168212,-102
2021-12-23 17:28:00.168223,81
2021-12-23 17:28:00.168233,130
2021-12-23 17:28:00.168243,55
2021-12-23 17:28:00.168252,51
2021-12-23 17:28:00.168262,58
2021-12-23 17:28:00.168272,-13
2021-12-23 17:28:00.168282,-48
2021-12-23 17:28:00.168292,4
2021-12-23 17:28:00.168301,18
2021-12-23 17:28:00.168311,-58
2021-12-23 17:28:00.168321,-137
2021-12-23 17:28:00.168331,-160
2021-12-23 17:28:00.168341,-165
2021-12-23 17:28:00.168351,-179
2021-12-23 17:28:00.168360,-174
2021-12-23 17:28:00.168370,-170
2021-12-23 17:28:00.168380,-188
2021-12-23 17:28:00.168390,-186
2021-12-23 17:28:00.168400,-167
2021-12-23 17:28:00.168409,-151
2021-12-23 17:28:00.168419,-123
2021-12-23 17:28:00.168429,-102
2021-12-23 17:28:00.168439,-104
2021-12-23 17:28:00.168449,-107
2021-12-23 17:28:00.168458,-104
2021-12-23 17:28:00.168468,-107
2021-12-23 17:28:00.168482,-102
2021-12-23 17:28:00.436223,-97
2021-12-23 17:28:00.436255,-97
2021-12-23 17:28:00.436267,-100
2021-12-23 17:28:00.436278,-109
2021-12-23 17:28:00.436288,-107
2021-12-23 17:28:00.436298,-88
2021-12-23 17:28:00.436308,-97
2021-12-23 17:28:00.436318,-121
2021-12-23 17:28:00.436328,-114
2021-12-23 17:28:00.436339,-123
2021-12-23 17:28:00.436349,-151
2021-12-23 17:28:00.436359,-149
2021-12-23 17:28:00.436369,-158
2021-12-23 17:28:00.436379,-188
2021-12-23 17:28:00.436389,-163
2021-12-23 17:28:00.436399,-114
2021-12-23 17:28:00.436409,-100
2021-12-23 17:28:00.436420,-104
2021-12-23 17:28:00.436430,-95
2021-12-23 17:28:00.436440,-79
2021-12-23 17:28:00.436450,-67
2021-12-23 17:28:00.436460,-60
2021-12-23 17:28:00.436470,-2
2021-12-23 17:28:00.436480,200
2021-12-23 17:28:00.436490,484
2021-12-23 17:28:00.436501,571
2021-12-23 17:28:00.436511,258
2021-12-23 17:28:00.436521,-310
2021-12-23 17:28:00.436531,-547
2021-12-23 17:28:00.436541,-221
2021-12-23 17:28:00.617989,23
2021-12-23 17:28:00.618020,-16
2021-12-23 17:28:00.618032,48
2021-12-23 17:28:00.618042,142
2021-12-23 17:28:00.618052,111
2021-12-23 17:28:00.618062,93
2021-12-23 17:28:00.618072,100
2021-12-23 17:28:00.618082,81
2021-12-23 17:28:00.618092,79
2021-12-23 17:28:00.618101,95
2021-12-23 17:28:00.618111,93
2021-12-23 17:28:00.618121,60
2021-12-23 17:28:00.618131,48
2021-12-23 17:28:00.618140,86
2021-12-23 17:28:00.618150,123
2021-12-23 17:28:00.618160,142
2021-12-23 17:28:00.618169,174
2021-12-23 17:28:00.618179,214
2021-12-23 17:28:00.618189,242
2021-12-23 17:28:00.618199,282
2021-12-23 17:28:00.618209,314
2021-12-23 17:28:00.618218,324
2021-12-23 17:28:00.618228,321
2021-12-23 17:28:00.618238,312
2021-12-23 17:28:00.618247,284
2021-12-23 17:28:00.618257,249
2021-12-23 17:28:00.618267,188
2021-12-23 17:28:00.618277,100
2021-12-23 17:28:00.618286,16
2021-12-23 17:28:00.618296,-60
2021-12-23 17:28:00.842571,-123
2021-12-23 17:28:00.842602,-151
2021-12-23 17:28:00.842614,-177
2021-12-23 17:28:00.842625,-219
2021-12-23 17:28:00.842635,-237
2021-12-23 17:28:00.842645,-254
2021-12-23 17:28:00.842655,-256
2021-12-23 17:28:00.842665,-209
2021-12-23 17:28:00.842675,-174
2021-12-23 17:28:00.842685,-174
2021-12-23 17:28:00.842695,-177
2021-12-23 17:28:00.842705,-184
2021-12-23 17:28:00.842715,-193
2021-12-23 17:28:00.842724,-181
2021-12-23 17:28:00.842734,-170
2021-12-23 17:28:00.842744,-198
2021-12-23 17:28:00.842754,-240
2021-12-23 17:28:00.842764,-226
2021-12-23 17:28:00.842774,-186
2021-12-23 17:28:00.842783,-167
2021-12-23 17:28:00.842798,-149
2021-12-23 17:28:00.842808,-130
2021-12-23 17:28:00.842818,-137
2021-12-23 17:28:00.842828,-137
2021-12-23 17:28:00.842838,-104
2021-12-23 17:28:00.842848,-67
2021-12-23 17:28:00.842858,-55
2021-12-23 17:28:00.842868,-69
2021-12-23 17:28:00.842878,-79
2021-12-23 17:28:00.842887,-60
2021-12-23 17:28:01.068013,-32
2021-12-23 17:28:01.068045,-23
2021-12-23 17:28:01.068057,-18
2021-12-23 17:28:01.068068,-27
2021-12-23 17:28:01.068078,-58
2021-12-23 17:28:01.068088,-69
2021-12-23 17:28:01.068098,-41
2021-12-23 17:28:01.068108,-20
2021-12-23 17:28:01.068118,-30
2021-12-23 17:28:01.068128,-46
2021-12-23 17:28:01.068138,-67
2021-12-23 17:28:01.068148,-69
2021-12-23 17:28:01.068158,-32
2021-12-23 17:28:01.068168,9
2021-12-23 17:28:01.068178,11
2021-12-23 17:28:01.068188,-13
2021-12-23 17:28:01.068199,-30
2021-12-23 17:28:01.068209,-25
2021-12-23 17:28:01.068219,-11
2021-12-23 17:28:01.068229,11
2021-12-23 17:28:01.068239,27
2021-12-23 17:28:01.068249,20
2021-12-23 17:28:01.068258,16
2021-12-23 17:28:01.068268,27
2021-12-23 17:28:01.068278,41
2021-12-23 17:28:01.068288,60
2021-12-23 17:28:01.068298,76
2021-12-23 17:28:01.068308,88
2021-12-23 17:28:01.068318,219
2021-12-23 17:28:01.068328,489
2021-12-23 17:28:01.338219,589
2021-12-23 17:28:01.338249,235
2021-12-23 17:28:01.338262,-366
2021-12-23 17:28:01.338272,-571
2021-12-23 17:28:01.338283,-216
2021-12-23 17:28:01.338293,25
2021-12-23 17:28:01.338303,-16
2021-12-23 17:28:01.338313,53
2021-12-23 17:28:01.338324,167
2021-12-23 17:28:01.338334,123
2021-12-23 17:28:01.338344,72
2021-12-23 17:28:01.338354,123
2021-12-23 17:28:01.338364,165
2021-12-23 17:28:01.338375,174
2021-12-23 17:28:01.338385,188
2021-12-23 17:28:01.338395,184
2021-12-23 17:28:01.338405,153
2021-12-23 17:28:01.338415,153
2021-12-23 17:28:01.338425,184
2021-12-23 17:28:01.338435,205
2021-12-23 17:28:01.338445,209
2021-12-23 17:28:01.338455,191
2021-12-23 17:28:01.338466,163
2021-12-23 17:28:01.338476,200
2021-12-23 17:28:01.338486,270
2021-12-23 17:28:01.338496,291
2021-12-23 17:28:01.338506,291
2021-12-23 17:28:01.338516,282
2021-12-23 17:28:01.338526,256
2021-12-23 17:28:01.338536,235
2021-12-23 17:28:01.563018,198
2021-12-23 17:28:01.563049,128
2021-12-23 17:28:01.563061,37
2021-12-23 17:28:01.563071,-55
2021-12-23 17:28:01.563081,-111
2021-12-23 17:28:01.563091,-123
2021-12-23 17:28:01.563101,-139
2021-12-23 17:28:01.563112,-170
2021-12-23 17:28:01.563121,-209
2021-12-23 17:28:01.563131,-228
2021-12-23 17:28:01.563141,-212
2021-12-23 17:28:01.563152,-184
2021-12-23 17:28:01.563161,-170
2021-12-23 17:28:01.563171,-156
2021-12-23 17:28:01.563181,-156
2021-12-23 17:28:01.563191,-170
2021-12-23 17:28:01.563201,-151
2021-12-23 17:28:01.563211,-114
2021-12-23 17:28:01.563221,-107
2021-12-23 17:28:01.563231,-118
2021-12-23 17:28:01.563241,-116
2021-12-23 17:28:01.563251,-104
2021-12-23 17:28:01.563267,-88
2021-12-23 17:28:01.563277,-65
2021-12-23 17:28:01.563287,-46
2021-12-23 17:28:01.563297,-37
2021-12-23 17:28:01.563307,-44
2021-12-23 17:28:01.563317,-53
2021-12-23 17:28:01.563327,-37
2021-12-23 17:28:01.563337,-20
2021-12-23 17:28:01.787594,-18
2021-12-23 17:28:01.787617,-11
2021-12-23 17:28:01.787625,-6
2021-12-23 17:28:01.787632,-11
2021-12-23 17:28:01.787638,-2
2021-12-23 17:28:01.787646,16
2021-12-23 17:28:01.787652,32
2021-12-23 17:28:01.787659,32
2021-12-23 17:28:01.787666,0
2021-12-23 17:28:01.787672,-20
2021-12-23 17:28:01.787679,-4
2021-12-23 17:28:01.787685,27
2021-12-23 17:28:01.787692,55
2021-12-23 17:28:01.787698,58
2021-12-23 17:28:01.787705,34
2021-12-23 17:28:01.787711,25
2021-12-23 17:28:01.787718,32
2021-12-23 17:28:01.787724,11
2021-12-23 17:28:01.787731,-6
2021-12-23 17:28:01.787737,11
2021-12-23 17:28:01.787744,11
2021-12-23 17:28:01.787751,-30
2021-12-23 17:28:01.787757,-37
2021-12-23 17:28:01.787764,-2
2021-12-23 17:28:01.787774,11
2021-12-23 17:28:01.787780,16
2021-12-23 17:28:01.787787,11
2021-12-23 17:28:01.787794,23
2021-12-23 17:28:01.787800,205
2021-12-23 17:28:01.787807,473
2021-12-23 17:28:02.012481,456
2021-12-23 17:28:02.012511,4
2021-12-23 17:28:02.012524,-508
2021-12-23 17:28:02.012535,-477
2021-12-23 17:28:02.012545,-74
2021-12-23 17:28:02.012555,30
2021-12-23 17:28:02.012565,-34
2021-12-23 17:28:02.012576,48
2021-12-23 17:28:02.012586,93
2021-12-23 17:28:02.012596,53
2021-12-23 17:28:02.012606,55
2021-12-23 17:28:02.012616,83
2021-12-23 17:28:02.012626,62
2021-12-23 17:28:02.012636,25
2021-12-23 17:28:02.012646,37
2021-12-23 17:28:02.012656,76
2021-12-23 17:28:02.012666,90
2021-12-23 17:28:02.012676,109
2021-12-23 17:28:02.012686,137
2021-12-23 17:28:02.012696,149
2021-12-23 17:28:02.012706,181
2021-12-23 17:28:02.012717,240
2021-12-23 17:28:02.012727,258
2021-12-23 17:28:02.012737,249
2021-12-23 17:28:02.012747,254
2021-12-23 17:28:02.012757,263
2021-12-23 17:28:02.012767,268
2021-12-23 17:28:02.012777,272
2021-12-23 17:28:02.012787,261
2021-12-23 17:28:02.012797,233
2021-12-23 17:28:02.238090,174
2021-12-23 17:28:02.238122,88
2021-12-23 17:28:02.238134,-4
2021-12-23 17:28:02.238144,-74
2021-12-23 17:28:02.238154,-109
2021-12-23 17:28:02.238164,-137
2021-12-23 17:28:02.238174,-177
2021-12-23 17:28:02.238184,-198
2021-12-23 17:28:02.238194,-184
2021-12-23 17:28:02.238205,-172
2021-12-23 17:28:02.238215,-165
2021-12-23 17:28:02.238225,-137
2021-12-23 17:28:02.238235,-116
2021-12-23 17:28:02.238245,-123
2021-12-23 17:28:02.238255,-114
2021-12-23 17:28:02.238265,-86
2021-12-23 17:28:02.238275,-72
2021-12-23 17:28:02.238285,-60
2021-12-23 17:28:02.238295,-44
2021-12-23 17:28:02.238305,-39
2021-12-23 17:28:02.238315,-23
2021-12-23 17:28:02.238325,-13
2021-12-23 17:28:02.238335,-37
2021-12-23 17:28:02.238345,-39
2021-12-23 17:28:02.238355,-30
2021-12-23 17:28:02.238365,-53
2021-12-23 17:28:02.238375,-51
2021-12-23 17:28:02.238385,-9
2021-12-23 17:28:02.238395,4
2021-12-23 17:28:02.238405,-4
2021-12-23 17:28:02.506303,-16
2021-12-23 17:28:02.506334,-44
2021-12-23 17:28:02.506346,-90
2021-12-23 17:28:02.506356,-111
2021-12-23 17:28:02.506366,-102
2021-12-23 17:28:02.506384,-97
2021-12-23 17:28:02.506394,-109
2021-12-23 17:28:02.506404,-100
2021-12-23 17:28:02.506414,-88
2021-12-23 17:28:02.506424,-109
2021-12-23 17:28:02.506434,-116
2021-12-23 17:28:02.506444,-95
2021-12-23 17:28:02.506454,-83
2021-12-23 17:28:02.506464,-60
2021-12-23 17:28:02.506474,-51
2021-12-23 17:28:02.506484,-86
2021-12-23 17:28:02.506494,-93
2021-12-23 17:28:02.506503,-58
2021-12-23 17:28:02.506513,-44
2021-12-23 17:28:02.506523,-37
2021-12-23 17:28:02.506533,-23
2021-12-23 17:28:02.506543,-27
2021-12-23 17:28:02.506553,-48
2021-12-23 17:28:02.506563,-48
2021-12-23 17:28:02.506573,-13
2021-12-23 17:28:02.506583,69
2021-12-23 17:28:02.506593,247
2021-12-23 17:28:02.506603,445
2021-12-23 17:28:02.506612,422
2021-12-23 17:28:02.506622,51
2021-12-23 17:28:02.732344,-452
2021-12-23 17:28:02.732375,-554
2021-12-23 17:28:02.732388,-198
2021-12-23 17:28:02.732398,-34
2021-12-23 17:28:02.732409,-135
2021-12-23 17:28:02.732419,-95
2021-12-23 17:28:02.732429,-9
2021-12-23 17:28:02.732439,-20
2021-12-23 17:28:02.732450,-20
2021-12-23 17:28:02.732460,11
2021-12-23 17:28:02.732470,23
2021-12-23 17:28:02.732481,20
2021-12-23 17:28:02.732491,41
2021-12-23 17:28:02.732501,76
2021-12-23 17:28:02.732511,107
2021-12-23 17:28:02.732521,125
2021-12-23 17:28:02.732531,142
2021-12-23 17:28:02.732542,165
2021-12-23 17:28:02.732552,195
2021-12-23 17:28:02.732562,235
2021-12-23 17:28:02.732572,272
2021-12-23 17:28:02.732582,300
2021-12-23 17:28:02.732593,317
2021-12-23 17:28:02.732603,321
2021-12-23 17:28:02.732613,324
2021-12-23 17:28:02.732623,335
2021-12-23 17:28:02.732633,338
2021-12-23 17:28:02.732643,293
2021-12-23 17:28:02.732654,200
2021-12-23 17:28:02.732664,93
2021-12-23 17:28:02.912349,9
2021-12-23 17:28:02.912372,-34
2021-12-23 17:28:02.912380,-81
2021-12-23 17:28:02.912387,-128
2021-12-23 17:28:02.912393,-146
2021-12-23 17:28:02.912400,-163
2021-12-23 17:28:02.912407,-186
2021-12-23 17:28:02.912413,-212
2021-12-23 17:28:02.912420,-228
2021-12-23 17:28:02.912426,-237
2021-12-23 17:28:02.912433,-251
2021-12-23 17:28:02.912439,-233
2021-12-23 17:28:02.912446,-177
2021-12-23 17:28:02.912452,-149
2021-12-23 17:28:02.912459,-146
2021-12-23 17:28:02.912465,-144
2021-12-23 17:28:02.912472,-137
2021-12-23 17:28:02.912478,-100
2021-12-23 17:28:02.912485,-55
2021-12-23 17:28:02.912491,-44
2021-12-23 17:28:02.912498,-37
2021-12-23 17:28:02.912504,-30
2021-12-23 17:28:02.912511,-30
2021-12-23 17:28:02.912517,-11
2021-12-23 17:28:02.912524,6
2021-12-23 17:28:02.912530,9
2021-12-23 17:28:02.912537,9
2021-12-23 17:28:02.912544,0
2021-12-23 17:28:02.912550,-18
2021-12-23 17:28:02.912557,-16
2021-12-23 17:28:03.183073,-13
2021-12-23 17:28:03.183105,-34
2021-12-23 17:28:03.183117,-51
2021-12-23 17:28:03.183127,-72
2021-12-23 17:28:03.183137,-102
2021-12-23 17:28:03.183147,-102
2021-12-23 17:28:03.183157,-90
2021-12-23 17:28:03.183167,-74
2021-12-23 17:28:03.183177,-55
2021-12-23 17:28:03.183186,-72
2021-12-23 17:28:03.183196,-90
2021-12-23 17:28:03.183206,-72
2021-12-23 17:28:03.183216,-60
2021-12-23 17:28:03.183225,-65
2021-12-23 17:28:03.183235,-67
2021-12-23 17:28:03.183245,-72
2021-12-23 17:28:03.183254,-69
2021-12-23 17:28:03.183264,-48
2021-12-23 17:28:03.183274,-39
2021-12-23 17:28:03.183283,-41
2021-12-23 17:28:03.183293,-41
2021-12-23 17:28:03.183303,-37
2021-12-23 17:28:03.183313,53
2021-12-23 17:28:03.183323,300
2021-12-23 17:28:03.183333,505
2021-12-23 17:28:03.183343,380
2021-12-23 17:28:03.183353,-107
2021-12-23 17:28:03.183362,-589
2021-12-23 17:28:03.183372,-519
2021-12-23 17:28:03.183382,-139
2021-12-23 17:28:03.452491,-72
2021-12-23 17:28:03.452530,-100
2021-12-23 17:28:03.452543,11
2021-12-23 17:28:03.452553,11
2021-12-23 17:28:03.452564,-46
2021-12-23 17:28:03.452574,2
2021-12-23 17:28:03.452584,48
2021-12-23 17:28:03.452594,51
2021-12-23 17:28:03.452604,48
2021-12-23 17:28:03.452614,32
2021-12-23 17:28:03.452624,41
2021-12-23 17:28:03.452634,76
2021-12-23 17:28:03.452644,60
2021-12-23 17:28:03.452654,39
2021-12-23 17:28:03.452664,55
2021-12-23 17:28:03.452674,65
2021-12-23 17:28:03.452684,90
2021-12-23 17:28:03.452694,156
2021-12-23 17:28:03.452704,207
2021-12-23 17:28:03.452714,235
2021-12-23 17:28:03.452724,244
2021-12-23 17:28:03.452733,240
2021-12-23 17:28:03.452743,242
2021-12-23 17:28:03.452753,244
2021-12-23 17:28:03.452763,212
2021-12-23 17:28:03.452773,144
2021-12-23 17:28:03.452783,53
2021-12-23 17:28:03.452793,-34
2021-12-23 17:28:03.452803,-86
2021-12-23 17:28:03.452813,-107
2021-12-23 17:28:03.677667,-128
2021-12-23 17:28:03.677698,-146
2021-12-23 17:28:03.677709,-163
2021-12-23 17:28:03.677720,-172
2021-12-23 17:28:03.677730,-172
2021-12-23 17:28:03.677740,-179
2021-12-23 17:28:03.677750,-174
2021-12-23 17:28:03.677760,-163
2021-12-23 17:28:03.677770,-181
2021-12-23 17:28:03.677780,-191
2021-12-23 17:28:03.677791,-149
2021-12-23 17:28:03.677801,-114
2021-12-23 17:28:03.677811,-100
2021-12-23 17:28:03.677821,-97
2021-12-23 17:28:03.677831,-118
2021-12-23 17:28:03.677841,-128
2021-12-23 17:28:03.677851,-95
2021-12-23 17:28:03.677861,-65
2021-12-23 17:28:03.677871,-58
2021-12-23 17:28:03.677881,-62
2021-12-23 17:28:03.677891,-69
2021-12-23 17:28:03.677901,-72
2021-12-23 17:28:03.677911,-58
2021-12-23 17:28:03.677921,-39
2021-12-23 17:28:03.677931,-30
2021-12-23 17:28:03.677941,-34
2021-12-23 17:28:03.677951,-44
2021-12-23 17:28:03.677961,-39
2021-12-23 17:28:03.677971,-23
2021-12-23 17:28:03.677981,-11
2021-12-23 17:28:03.857619,-4
2021-12-23 17:28:03.857650,-11
2021-12-23 17:28:03.857662,-30
2021-12-23 17:28:03.857672,-32
2021-12-23 17:28:03.857682,-16
2021-12-23 17:28:03.857692,2
2021-12-23 17:28:03.857702,6
2021-12-23 17:28:03.857712,-11
2021-12-23 17:28:03.857722,-27
2021-12-23 17:28:03.857732,-20
2021-12-23 17:28:03.857742,-18
2021-12-23 17:28:03.857752,-25
2021-12-23 17:28:03.857762,-32
2021-12-23 17:28:03.857772,-55
2021-12-23 17:28:03.857782,-72
2021-12-23 17:28:03.857791,-60
2021-12-23 17:28:03.857802,-41
2021-12-23 17:28:03.857811,-41
2021-12-23 17:28:03.857821,-88
2021-12-23 17:28:03.857831,-139
2021-12-23 17:28:03.857841,-109
2021-12-23 17:28:03.857851,44
2021-12-23 17:28:03.857861,305
2021-12-23 17:28:03.857871,482
2021-12-23 17:28:03.857881,284
2021-12-23 17:28:03.857891,-282
2021-12-23 17:28:03.857901,-657
2021-12-23 17:28:03.857911,-398
2021-12-23 17:28:03.857921,-62
2021-12-23 17:28:03.857931,-90
2021-12-23 17:28:04.127506,-88
2021-12-23 17:28:04.127536,23
2021-12-23 17:28:04.127548,2
2021-12-23 17:28:04.127559,-41
2021-12-23 17:28:04.127569,6
2021-12-23 17:28:04.127579,34
2021-12-23 17:28:04.127589,2
2021-12-23 17:28:04.127599,-6
2021-12-23 17:28:04.127609,13
2021-12-23 17:28:04.127619,9
2021-12-23 17:28:04.127629,11
2021-12-23 17:28:04.127638,44
2021-12-23 17:28:04.127648,41
2021-12-23 17:28:04.127658,39
2021-12-23 17:28:04.127668,90
2021-12-23 17:28:04.127677,137
2021-12-23 17:28:04.127687,163
2021-12-23 17:28:04.127697,205
2021-12-23 17:28:04.127707,235
2021-12-23 17:28:04.127716,247
2021-12-23 17:28:04.127726,258
2021-12-23 17:28:04.127736,251
2021-12-23 17:28:04.127746,226
2021-12-23 17:28:04.127755,181
2021-12-23 17:28:04.127765,102
2021-12-23 17:28:04.127775,20
2021-12-23 17:28:04.127785,-39
2021-12-23 17:28:04.127794,-93
2021-12-23 17:28:04.127804,-132
2021-12-23 17:28:04.127814,-156
2021-12-23 17:28:04.307664,-170
2021-12-23 17:28:04.307694,-167
2021-12-23 17:28:04.307706,-153
2021-12-23 17:28:04.307716,-151
2021-12-23 17:28:04.307726,-144
2021-12-23 17:28:04.307736,-142
2021-12-23 17:28:04.307746,-158
2021-12-23 17:28:04.307756,-144
2021-12-23 17:28:04.307766,-109
2021-12-23 17:28:04.307776,-100
2021-12-23 17:28:04.307786,-102
2021-12-23 17:28:04.307806,-114
2021-12-23 17:28:04.307816,-132
2021-12-23 17:28:04.307826,-111
2021-12-23 17:28:04.307836,-79
2021-12-23 17:28:04.307846,-74
2021-12-23 17:28:04.307857,-74
2021-12-23 17:28:04.307867,-81
2021-12-23 17:28:04.307877,-97
2021-12-23 17:28:04.307887,-83
2021-12-23 17:28:04.307897,-60
2021-12-23 17:28:04.307907,-67
2021-12-23 17:28:04.307917,-65
2021-12-23 17:28:04.307927,-51
2021-12-23 17:28:04.307937,-76
2021-12-23 17:28:04.307947,-109
2021-12-23 17:28:04.307957,-93
2021-12-23 17:28:04.307967,-79
2021-12-23 17:28:04.307977,-90
2021-12-23 17:28:04.307987,-90
2021-12-23 17:28:04.576907,-74
2021-12-23 17:28:04.576938,-53
2021-12-23 17:28:04.576950,-39
2021-12-23 17:28:04.576960,-41
2021-12-23 17:28:04.576970,-60
2021-12-23 17:28:04.576980,-76
2021-12-23 17:28:04.576990,-60
2021-12-23 17:28:04.577000,-23
2021-12-23 17:28:04.577010,-11
2021-12-23 17:28:04.577020,-30
2021-12-23 17:28:04.577030,-69
2021-12-23 17:28:04.577039,-116
2021-12-23 17:28:04.577049,-125
2021-12-23 17:28:04.577059,-114
2021-12-23 17:28:04.577069,-123
2021-12-23 17:28:04.577079,-132
2021-12-23 17:28:04.577089,-125
2021-12-23 17:28:04.577098,-118
2021-12-23 17:28:04.577108,-107
2021-12-23 17:28:04.577118,-81
2021-12-23 17:28:04.577128,-32
2021-12-23 17:28:04.577138,100
2021-12-23 17:28:04.577148,335
2021-12-23 17:28:04.577158,456
2021-12-23 17:28:04.577168,193
2021-12-23 17:28:04.577178,-356
2021-12-23 17:28:04.577187,-638
2021-12-23 17:28:04.577197,-349
2021-12-23 17:28:04.577207,-48
2021-12-23 17:28:04.577217,-55
2021-12-23 17:28:04.757523,-9
2021-12-23 17:28:04.757554,118
2021-12-23 17:28:04.757566,109
2021-12-23 17:28:04.757577,41
2021-12-23 17:28:04.757587,20
2021-12-23 17:28:04.757597,-2
2021-12-23 17:28:04.757607,-18
2021-12-23 17:28:04.757617,-2
2021-12-23 17:28:04.757628,16
2021-12-23 17:28:04.757638,4
2021-12-23 17:28:04.757648,-27
2021-12-23 17:28:04.757658,-23
2021-12-23 17:28:04.757668,25
2021-12-23 17:28:04.757678,60
2021-12-23 17:28:04.757689,69
2021-12-23 17:28:04.757699,62
2021-12-23 17:28:04.757709,51
2021-12-23 17:28:04.757719,79
2021-12-23 17:28:04.757729,135
2021-12-23 17:28:04.757739,160
2021-12-23 17:28:04.757749,167
2021-12-23 17:28:04.757759,160
2021-12-23 17:28:04.757770,132
2021-12-23 17:28:04.757780,86
2021-12-23 17:28:04.757790,37
2021-12-23 17:28:04.757800,-13
2021-12-23 17:28:04.757810,-76
2021-12-23 17:28:04.757820,-146
2021-12-23 17:28:04.757830,-202
2021-12-23 17:28:04.757840,-235
2021-12-23 17:28:05.027500,-272
2021-12-23 17:28:05.027532,-286
2021-12-23 17:28:05.027544,-268
2021-12-23 17:28:05.027554,-286
2021-12-23 17:28:05.027564,-312
2021-12-23 17:28:05.027574,-268
2021-12-23 17:28:05.027584,-212
2021-12-23 17:28:05.027594,-193
2021-12-23 17:28:05.027604,-186
2021-12-23 17:28:05.027614,-193
2021-12-23 17:28:05.027624,-200
2021-12-23 17:28:05.027634,-170
2021-12-23 17:28:05.027644,-135
2021-12-23 17:28:05.027654,-114
2021-12-23 17:28:05.027663,-95
2021-12-23 17:28:05.027673,-95
2021-12-23 17:28:05.027683,-95
2021-12-23 17:28:05.027693,-88
2021-12-23 17:28:05.027703,-90
2021-12-23 17:28:05.027713,-79
2021-12-23 17:28:05.027723,-58
2021-12-23 17:28:05.027732,-69
2021-12-23 17:28:05.027742,-74
2021-12-23 17:28:05.027752,-46
2021-12-23 17:28:05.027762,-27
2021-12-23 17:28:05.027772,-25
2021-12-23 17:28:05.027782,-23
2021-12-23 17:28:05.027791,-30
2021-12-23 17:28:05.027801,-32
2021-12-23 17:28:05.027811,-16
2021-12-23 17:28:05.253081,-2
2021-12-23 17:28:05.253113,9
2021-12-23 17:28:05.253125,11
2021-12-23 17:28:05.253135,9
2021-12-23 17:28:05.253145,23
2021-12-23 17:28:05.253156,55
2021-12-23 17:28:05.253166,79
2021-12-23 17:28:05.253176,79
2021-12-23 17:28:05.253185,34
2021-12-23 17:28:05.253195,-11
2021-12-23 17:28:05.253205,2
2021-12-23 17:28:05.253215,41
2021-12-23 17:28:05.253225,39
2021-12-23 17:28:05.253235,37
2021-12-23 17:28:05.253245,30
2021-12-23 17:28:05.253255,-16
2021-12-23 17:28:05.253265,-30
2021-12-23 17:28:05.253275,11
2021-12-23 17:28:05.253285,58
2021-12-23 17:28:05.253295,165
2021-12-23 17:28:05.253305,368
2021-12-23 17:28:05.253315,445
2021-12-23 17:28:05.253324,142
2021-12-23 17:28:05.253334,-412
2021-12-23 17:28:05.253344,-575
2021-12-23 17:28:05.253354,-170
2021-12-23 17:28:05.253364,53
2021-12-23 17:28:05.253374,-46
2021-12-23 17:28:05.253384,27
2021-12-23 17:28:05.253394,172
2021-12-23 17:28:05.478155,163
2021-12-23 17:28:05.478186,144
2021-12-23 17:28:05.478198,170
2021-12-23 17:28:05.478208,153
2021-12-23 17:28:05.478218,146
2021-12-23 17:28:05.478228,151
2021-12-23 17:28:05.478238,128
2021-12-23 17:28:05.478248,111
2021-12-23 17:28:05.478270,93
2021-12-23 17:28:05.478281,83
2021-12-23 17:28:05.478291,111
2021-12-23 17:28:05.478301,142
2021-12-23 17:28:05.478311,163
2021-12-23 17:28:05.478321,184
2021-12-23 17:28:05.478332,188
2021-12-23 17:28:05.478342,202
2021-12-23 17:28:05.478352,235
2021-12-23 17:28:05.478362,265
2021-12-23 17:28:05.478372,275
2021-12-23 17:28:05.478382,251
2021-12-23 17:28:05.478392,193
2021-12-23 17:28:05.478402,102
2021-12-23 17:28:05.478412,13
2021-12-23 17:28:05.478422,-34
2021-12-23 17:28:05.478432,-74
2021-12-23 17:28:05.478442,-139
2021-12-23 17:28:05.478452,-195
2021-12-23 17:28:05.478462,-202
2021-12-23 17:28:05.478473,-186
2021-12-23 17:28:05.478483,-167
2021-12-23 17:28:05.702719,-153
2021-12-23 17:28:05.702749,-144
2021-12-23 17:28:05.702761,-137
2021-12-23 17:28:05.702771,-125
2021-12-23 17:28:05.702781,-111
2021-12-23 17:28:05.702791,-86
2021-12-23 17:28:05.702801,-69
2021-12-23 17:28:05.702811,-81
2021-12-23 17:28:05.702821,-93
2021-12-23 17:28:05.702831,-81
2021-12-23 17:28:05.702841,-58
2021-12-23 17:28:05.702851,-37
2021-12-23 17:28:05.702860,-27
2021-12-23 17:28:05.702870,-53
2021-12-23 17:28:05.702880,-72
2021-12-23 17:28:05.702890,-58
2021-12-23 17:28:05.702900,-37
2021-12-23 17:28:05.702910,-25
2021-12-23 17:28:05.702919,-23
2021-12-23 17:28:05.702929,-25
2021-12-23 17:28:05.702939,-23
2021-12-23 17:28:05.702949,-23
2021-12-23 17:28:05.702959,-25
2021-12-23 17:28:05.702969,-37
2021-12-23 17:28:05.702978,-65
2021-12-23 17:28:05.702988,-74
2021-12-23 17:28:05.702998,-53
2021-12-23 17:28:05.703008,-37
2021-12-23 17:28:05.703018,-23
2021-12-23 17:28:05.703028,-2
2021-12-23 17:28:05.927370,9
2021-12-23 17:28:05.927395,13
2021-12-23 17:28:05.927404,9
2021-12-23 17:28:05.927411,-6
2021-12-23 17:28:05.927417,-4
2021-12-23 17:28:05.927424,11
2021-12-23 17:28:05.927430,-4
2021-12-23 17:28:05.927437,-34
2021-12-23 17:28:05.927443,-32
2021-12-23 17:28:05.927449,-18
2021-12-23 17:28:05.927456,-16
2021-12-23 17:28:05.927462,-27
2021-12-23 17:28:05.927468,-65
2021-12-23 17:28:05.927475,-34
2021-12-23 17:28:05.927481,170
2021-12-23 17:28:05.927487,382
2021-12-23 17:28:05.927494,300
2021-12-23 17:28:05.927500,-156
2021-12-23 17:28:05.927506,-643
2021-12-23 17:28:05.927513,-601
2021-12-23 17:28:05.927519,-195
2021-12-23 17:28:05.927525,-86
2021-12-23 17:28:05.927532,-128
2021-12-23 17:28:05.927538,0
2021-12-23 17:28:05.927545,51
2021-12-23 17:28:05.927551,-13
2021-12-23 17:28:05.927557,-9
2021-12-23 17:28:05.927564,39
2021-12-23 17:28:05.927570,53
2021-12-23 17:28:05.927576,58
2021-12-23 17:28:06.152972,79
2021-12-23 17:28:06.153004,104
2021-12-23 17:28:06.153016,130
2021-12-23 17:28:06.153026,142
2021-12-23 17:28:06.153036,156
2021-12-23 17:28:06.153046,172
2021-12-23 17:28:06.153056,174
2021-12-23 17:28:06.153066,181
2021-12-23 17:28:06.153075,205
2021-12-23 17:28:06.153085,219
2021-12-23 17:28:06.153095,226
2021-12-23 17:28:06.153105,209
2021-12-23 17:28:06.153115,188
2021-12-23 17:28:06.153125,193
2021-12-23 17:28:06.153135,184
2021-12-23 17:28:06.153145,128
2021-12-23 17:28:06.153154,62
2021-12-23 17:28:06.153164,-4
2021-12-23 17:28:06.153174,-74
2021-12-23 17:28:06.153184,-125
2021-12-23 17:28:06.153194,-156
2021-12-23 17:28:06.153204,-181
2021-12-23 17:28:06.153214,-191
2021-12-23 17:28:06.153224,-186
2021-12-23 17:28:06.153233,-184
2021-12-23 17:28:06.153243,-160
2021-12-23 17:28:06.153253,-139
2021-12-23 17:28:06.153263,-158
2021-12-23 17:28:06.153272,-177
2021-12-23 17:28:06.153282,-153
2021-12-23 17:28:06.377830,-123
2021-12-23 17:28:06.377862,-104
2021-12-23 17:28:06.377875,-81
2021-12-23 17:28:06.377886,-72
2021-12-23 17:28:06.377896,-81
2021-12-23 17:28:06.377906,-90
2021-12-23 17:28:06.377916,-81
2021-12-23 17:28:06.377927,-51
2021-12-23 17:28:06.377937,-39
2021-12-23 17:28:06.377947,-46
2021-12-23 17:28:06.377957,-55
2021-12-23 17:28:06.377967,-72
2021-12-23 17:28:06.377978,-74
2021-12-23 17:28:06.377988,-46
2021-12-23 17:28:06.377998,-32
2021-12-23 17:28:06.378008,-37
2021-12-23 17:28:06.378018,-39
2021-12-23 17:28:06.378028,-65
2021-12-23 17:28:06.378038,-109
2021-12-23 17:28:06.378049,-107
2021-12-23 17:28:06.378059,-74
2021-12-23 17:28:06.378069,-69
2021-12-23 17:28:06.378079,-72
2021-12-23 17:28:06.378089,-51
2021-12-23 17:28:06.378099,-20
2021-12-23 17:28:06.378109,2
2021-12-23 17:28:06.378120,0
2021-12-23 17:28:06.378130,-13
2021-12-23 17:28:06.378140,-16
2021-12-23 17:28:06.378150,-23
2021-12-23 17:28:06.647254,-39
2021-12-23 17:28:06.647284,-18
2021-12-23 17:28:06.647297,6
2021-12-23 17:28:06.647308,-9
2021-12-23 17:28:06.647318,-27
2021-12-23 17:28:06.647328,-9
2021-12-23 17:28:06.647338,51
2021-12-23 17:28:06.647349,137
2021-12-23 17:28:06.647359,286
2021-12-23 17:28:06.647369,487
2021-12-23 17:28:06.647379,491
2021-12-23 17:28:06.647390,125
2021-12-23 17:28:06.647400,-380
2021-12-23 17:28:06.647410,-482
2021-12-23 17:28:06.647420,-102
2021-12-23 17:28:06.647431,128
2021-12-23 17:28:06.647441,67
2021-12-23 17:28:06.647451,132
2021-12-23 17:28:06.647461,247
2021-12-23 17:28:06.647471,223
2021-12-23 17:28:06.647481,202
2021-12-23 17:28:06.647492,223
2021-12-23 17:28:06.647502,212
2021-12-23 17:28:06.647520,214
2021-12-23 17:28:06.647531,240
2021-12-23 17:28:06.647542,258
2021-12-23 17:28:06.647552,268
2021-12-23 17:28:06.647562,270
2021-12-23 17:28:06.647573,268
2021-12-23 17:28:06.647583,291
2021-12-23 17:28:06.872726,321
2021-12-23 17:28:06.872757,326
2021-12-23 17:28:06.872769,321
2021-12-23 17:28:06.872779,314
2021-12-23 17:28:06.872789,305
2021-12-23 17:28:06.872799,307
2021-12-23 17:28:06.872809,310
2021-12-23 17:28:06.872819,296
2021-12-23 17:28:06.872828,261
2021-12-23 17:28:06.872838,184
2021-12-23 17:28:06.872848,95
2021-12-23 17:28:06.872858,34
2021-12-23 17:28:06.872867,-18
2021-12-23 17:28:06.872877,-79
2021-12-23 17:28:06.872887,-132
2021-12-23 17:28:06.872897,-195
2021-12-23 17:28:06.872906,-230
2021-12-23 17:28:06.872916,-209
2021-12-23 17:28:06.872925,-184
2021-12-23 17:28:06.872935,-177
2021-12-23 17:28:06.872945,-179
2021-12-23 17:28:06.872954,-184
2021-12-23 17:28:06.872964,-170
2021-12-23 17:28:06.872974,-156
2021-12-23 17:28:06.872984,-177
2021-12-23 17:28:06.872993,-174
2021-12-23 17:28:06.873003,-144
2021-12-23 17:28:06.873013,-139
2021-12-23 17:28:06.873023,-132
2021-12-23 17:28:06.873033,-90
2021-12-23 17:28:07.097712,-67
2021-12-23 17:28:07.097734,-58
2021-12-23 17:28:07.097741,-46
2021-12-23 17:28:07.097748,-65
2021-12-23 17:28:07.097755,-88
2021-12-23 17:28:07.097761,-62
2021-12-23 17:28:07.097768,-34
2021-12-23 17:28:07.097775,-34
2021-12-23 17:28:07.097781,-58
2021-12-23 17:28:07.097788,-90
2021-12-23 17:28:07.097794,-88
2021-12-23 17:28:07.097801,-58
2021-12-23 17:28:07.097807,-48
2021-12-23 17:28:07.097814,-48
2021-12-23 17:28:07.097820,-62
2021-12-23 17:28:07.097827,-88
2021-12-23 17:28:07.097834,-72
2021-12-23 17:28:07.097840,-27
2021-12-23 17:28:07.097847,-2
2021-12-23 17:28:07.097853,11
2021-12-23 17:28:07.097860,2
2021-12-23 17:28:07.097866,-27
2021-12-23 17:28:07.097873,-27
2021-12-23 17:28:07.097879,2
2021-12-23 17:28:07.097886,16
2021-12-23 17:28:07.097893,18
2021-12-23 17:28:07.097899,13
2021-12-23 17:28:07.097906,6
2021-12-23 17:28:07.097912,20
2021-12-23 17:28:07.097919,44
2021-12-23 17:28:07.368226,62
2021-12-23 17:28:07.368257,97
2021-12-23 17:28:07.368269,209
2021-12-23 17:28:07.368280,440
2021-12-23 17:28:07.368290,589
2021-12-23 17:28:07.368300,347
2021-12-23 17:28:07.368310,-223
2021-12-23 17:28:07.368320,-575
2021-12-23 17:28:07.368330,-370
2021-12-23 17:28:07.368340,-83
2021-12-23 17:28:07.368350,-76
2021-12-23 17:28:07.368360,-46
2021-12-23 17:28:07.368370,79
2021-12-23 17:28:07.368380,69
2021-12-23 17:28:07.368390,6
2021-12-23 17:28:07.368400,34
2021-12-23 17:28:07.368410,79
2021-12-23 17:28:07.368420,86
2021-12-23 17:28:07.368430,107
2021-12-23 17:28:07.368440,125
2021-12-23 17:28:07.368450,118
2021-12-23 17:28:07.368460,130
2021-12-23 17:28:07.368470,170
2021-12-23 17:28:07.368480,198
2021-12-23 17:28:07.368490,223
2021-12-23 17:28:07.368500,254
2021-12-23 17:28:07.368510,270
2021-12-23 17:28:07.368520,289
2021-12-23 17:28:07.368530,326
2021-12-23 17:28:07.368540,324
2021-12-23 17:28:07.547664,284
2021-12-23 17:28:07.547686,277
2021-12-23 17:28:07.547694,265
2021-12-23 17:28:07.547701,209
2021-12-23 17:28:07.547708,156
2021-12-23 17:28:07.547715,83
2021-12-23 17:28:07.547721,-18
2021-12-23 17:28:07.547728,-107
2021-12-23 17:28:07.547734,-177
2021-12-23 17:28:07.547741,-223
2021-12-23 17:28:07.547747,-226
2021-12-23 17:28:07.547753,-216
2021-12-23 17:28:07.547760,-228
2021-12-23 17:28:07.547766,-254
2021-12-23 17:28:07.547773,-261
2021-12-23 17:28:07.547779,-242
2021-12-23 17:28:07.547786,-219
2021-12-23 17:28:07.547792,-191
2021-12-23 17:28:07.547799,-181
2021-12-23 17:28:07.547805,-193
2021-12-23 17:28:07.547812,-186
2021-12-23 17:28:07.547818,-163
2021-12-23 17:28:07.547824,-139
2021-12-23 17:28:07.547831,-109
2021-12-23 17:28:07.547837,-97
2021-12-23 17:28:07.547844,-100
2021-12-23 17:28:07.547850,-86
2021-12-23 17:28:07.547857,-72
2021-12-23 17:28:07.547863,-62
2021-12-23 17:28:07.547869,-46
2021-12-23 17:28:07.818177,-41
2021-12-23 17:28:07.818208,-46
2021-12-23 17:28:07.818220,-32
2021-12-23 17:28:07.818230,-37
2021-12-23 17:28:07.818241,-41
2021-12-23 17:28:07.818251,-25
2021-12-23 17:28:07.818261,-46
2021-12-23 17:28:07.818271,-86
2021-12-23 17:28:07.818281,-72
2021-12-23 17:28:07.818291,-67
2021-12-23 17:28:07.818301,-95
2021-12-23 17:28:07.818311,-81
2021-12-23 17:28:07.818321,-60
2021-12-23 17:28:07.818331,-62
2021-12-23 17:28:07.818341,-55
2021-12-23 17:28:07.818351,-65
2021-12-23 17:28:07.818361,-79
2021-12-23 17:28:07.818371,-60
2021-12-23 17:28:07.818381,-48
2021-12-23 17:28:07.818391,-39
2021-12-23 17:28:07.818401,-18
2021-12-23 17:28:07.818411,-18
2021-12-23 17:28:07.818422,-16
2021-12-23 17:28:07.818432,11
2021-12-23 17:28:07.818442,32
2021-12-23 17:28:07.818452,48
2021-12-23 17:28:07.818462,158
2021-12-23 17:28:07.818472,396
2021-12-23 17:28:07.818482,566
2021-12-23 17:28:07.818492,368
2021-12-23 17:28:07.998307,-184
2021-12-23 17:28:07.998337,-540
2021-12-23 17:28:07.998349,-296
2021-12-23 17:28:07.998360,23
2021-12-23 17:28:07.998370,-6
2021-12-23 17:28:07.998380,-58
2021-12-23 17:28:07.998390,13
2021-12-23 17:28:07.998400,48
2021-12-23 17:28:07.998410,48
2021-12-23 17:28:07.998420,53
2021-12-23 17:28:07.998430,48
2021-12-23 17:28:07.998440,53
2021-12-23 17:28:07.998450,58
2021-12-23 17:28:07.998460,65
2021-12-23 17:28:07.998470,93
2021-12-23 17:28:07.998480,116
2021-12-23 17:28:07.998490,132
2021-12-23 17:28:07.998500,139
2021-12-23 17:28:07.998510,142
2021-12-23 17:28:07.998520,186
2021-12-23 17:28:07.998530,235
2021-12-23 17:28:07.998540,258
2021-12-23 17:28:07.998550,286
2021-12-23 17:28:07.998560,310
2021-12-23 17:28:07.998570,317
2021-12-23 17:28:07.998580,324
2021-12-23 17:28:07.998590,324
2021-12-23 17:28:07.998600,300
2021-12-23 17:28:07.998609,235
2021-12-23 17:28:07.998624,149
2021-12-23 17:28:08.312770,76
2021-12-23 17:28:08.312801,4
2021-12-23 17:28:08.312813,-74
2021-12-23 17:28:08.312824,-142
2021-12-23 17:28:08.312834,-195
2021-12-23 17:28:08.312844,-244
2021-12-23 17:28:08.312854,-254
2021-12-23 17:28:08.312864,-226
2021-12-23 17:28:08.312874,-207
2021-12-23 17:28:08.312884,-205
2021-12-23 17:28:08.312895,-209
2021-12-23 17:28:08.312905,-216
2021-12-23 17:28:08.312915,-205
2021-12-23 17:28:08.312925,-195
2021-12-23 17:28:08.312935,-205
2021-12-23 17:28:08.312945,-191
2021-12-23 17:28:08.312956,-167
2021-12-23 17:28:08.312966,-160
2021-12-23 17:28:08.312976,-142
2021-12-23 17:28:08.312986,-109
2021-12-23 17:28:08.312996,-95
2021-12-23 17:28:08.313006,-93
2021-12-23 17:28:08.313016,-86
2021-12-23 17:28:08.313026,-76
2021-12-23 17:28:08.313037,-72
2021-12-23 17:28:08.313047,-60
2021-12-23 17:28:08.313057,-46
2021-12-23 17:28:08.313067,-53
2021-12-23 17:28:08.313077,-67
2021-12-23 17:28:08.313087,-62
2021-12-23 17:28:08.448265,-46
2021-12-23 17:28:08.448296,-37
2021-12-23 17:28:08.448309,-25
2021-12-23 17:28:08.448319,-27
2021-12-23 17:28:08.448329,-58
2021-12-23 17:28:08.448340,-60
2021-12-23 17:28:08.448350,-20
2021-12-23 17:28:08.448360,2
2021-12-23 17:28:08.448371,-11
2021-12-23 17:28:08.448381,-41
2021-12-23 17:28:08.448391,-72
2021-12-23 17:28:08.448402,-81
2021-12-23 17:28:08.448412,-60
2021-12-23 17:28:08.448422,-30
2021-12-23 17:28:08.448432,-25
2021-12-23 17:28:08.448442,-53
2021-12-23 17:28:08.448453,-65
2021-12-23 17:28:08.448463,-27
2021-12-23 17:28:08.448473,27
2021-12-23 17:28:08.448483,130
2021-12-23 17:28:08.448493,352
2021-12-23 17:28:08.448504,515
2021-12-23 17:28:08.448514,314
2021-12-23 17:28:08.448524,-212
2021-12-23 17:28:08.448534,-578
2021-12-23 17:28:08.448544,-389
2021-12-23 17:28:08.448555,-46
2021-12-23 17:28:08.448565,-34
2021-12-23 17:28:08.448575,-48
2021-12-23 17:28:08.448585,90
2021-12-23 17:28:08.761529,128
2021-12-23 17:28:08.761560,95
2021-12-23 17:28:08.761572,118
2021-12-23 17:28:08.761582,111
2021-12-23 17:28:08.761592,72
2021-12-23 17:28:08.761602,97
2021-12-23 17:28:08.761612,144
2021-12-23 17:28:08.761622,153
2021-12-23 17:28:08.761632,153
2021-12-23 17:28:08.761642,130
2021-12-23 17:28:08.761652,114
2021-12-23 17:28:08.761662,156
2021-12-23 17:28:08.761672,207
2021-12-23 17:28:08.761682,235
2021-12-23 17:28:08.761692,261
2021-12-23 17:28:08.761702,275
2021-12-23 17:28:08.761712,284
2021-12-23 17:28:08.761722,289
2021-12-23 17:28:08.761732,270
2021-12-23 17:28:08.761742,261
2021-12-23 17:28:08.761752,242
2021-12-23 17:28:08.761762,170
2021-12-23 17:28:08.761772,88
2021-12-23 17:28:08.761782,39
2021-12-23 17:28:08.761792,-16
2021-12-23 17:28:08.761802,-76
2021-12-23 17:28:08.761812,-114
2021-12-23 17:28:08.761822,-146
2021-12-23 17:28:08.761831,-163
2021-12-23 17:28:08.761841,-149
2021-12-23 17:28:08.942635,-132
2021-12-23 17:28:08.942659,-146
2021-12-23 17:28:08.942667,-177
2021-12-23 17:28:08.942673,-195
2021-12-23 17:28:08.942680,-188
2021-12-23 17:28:08.942687,-170
2021-12-23 17:28:08.942693,-149
2021-12-23 17:28:08.942700,-132
2021-12-23 17:28:08.942707,-144
2021-12-23 17:28:08.942713,-174
2021-12-23 17:28:08.942720,-160
2021-12-23 17:28:08.942726,-121
2021-12-23 17:28:08.942733,-104
2021-12-23 17:28:08.942739,-100
2021-12-23 17:28:08.942746,-116
2021-12-23 17:28:08.942752,-163
2021-12-23 17:28:08.942759,-193
2021-12-23 17:28:08.942765,-200
2021-12-23 17:28:08.942771,-181
2021-12-23 17:28:08.942778,-174
2021-12-23 17:28:08.942784,-209
2021-12-23 17:28:08.942791,-223
2021-12-23 17:28:08.942797,-188
2021-12-23 17:28:08.942804,-158
2021-12-23 17:28:08.942810,-153
2021-12-23 17:28:08.942817,-144
2021-12-23 17:28:08.942824,-142
2021-12-23 17:28:08.942830,-137
2021-12-23 17:28:08.942837,-111
2021-12-23 17:28:08.942843,-76
2021-12-23 17:28:09.167643,-53
2021-12-23 17:28:09.167663,-39
2021-12-23 17:28:09.167671,-51
2021-12-23 17:28:09.167678,-76
2021-12-23 17:28:09.167684,-74
2021-12-23 17:28:09.167691,-48
2021-12-23 17:28:09.167697,-34
2021-12-23 17:28:09.167704,-41
2021-12-23 17:28:09.167710,-69
2021-12-23 17:28:09.167716,-81
2021-12-23 17:28:09.167723,-53
2021-12-23 17:28:09.167729,-25
2021-12-23 17:28:09.167735,-4
2021-12-23 17:28:09.167742,32
2021-12-23 17:28:09.167748,149
2021-12-23 17:28:09.167754,373
2021-12-23 17:28:09.167761,447
2021-12-23 17:28:09.167767,156
2021-12-23 17:28:09.167774,-352
2021-12-23 17:28:09.167780,-580
2021-12-23 17:28:09.167786,-289
2021-12-23 17:28:09.167795,-37
2021-12-23 17:28:09.167801,-83
2021-12-23 17:28:09.167807,-27
2021-12-23 17:28:09.167814,95
2021-12-23 17:28:09.167820,74
2021-12-23 17:28:09.167827,46
2021-12-23 17:28:09.167833,86
2021-12-23 17:28:09.167839,107
2021-12-23 17:28:09.167846,116
2021-12-23 17:28:09.392134,139
2021-12-23 17:28:09.392153,149
2021-12-23 17:28:09.392160,149
2021-12-23 17:28:09.392165,163
2021-12-23 17:28:09.392170,191
2021-12-23 17:28:09.392175,216
2021-12-23 17:28:09.392180,226
2021-12-23 17:28:09.392186,207
2021-12-23 17:28:09.392191,205
2021-12-23 17:28:09.392196,244
2021-12-23 17:28:09.392201,286
2021-12-23 17:28:09.392206,307
2021-12-23 17:28:09.392211,307
2021-12-23 17:28:09.392216,275
2021-12-23 17:28:09.392222,240
2021-12-23 17:28:09.392227,214
2021-12-23 17:28:09.392232,165
2021-12-23 17:28:09.392237,97
2021-12-23 17:28:09.392242,25
2021-12-23 17:28:09.392247,-46
2021-12-23 17:28:09.392253,-97
2021-12-23 17:28:09.392258,-142
2021-12-23 17:28:09.392263,-205
2021-12-23 17:28:09.392268,-251
2021-12-23 17:28:09.392273,-263
2021-12-23 17:28:09.392278,-254
2021-12-23 17:28:09.392283,-233
2021-12-23 17:28:09.392288,-214
2021-12-23 17:28:09.392293,-205
2021-12-23 17:28:09.392298,-198
2021-12-23 17:28:09.618358,-202
2021-12-23 17:28:09.618389,-209
2021-12-23 17:28:09.618401,-212
2021-12-23 17:28:09.618411,-202
2021-12-23 17:28:09.618421,-181
2021-12-23 17:28:09.618431,-163
2021-12-23 17:28:09.618441,-177
2021-12-23 17:28:09.618451,-193
2021-12-23 17:28:09.618461,-172
2021-12-23 17:28:09.618471,-151
2021-12-23 17:28:09.618481,-144
2021-12-23 17:28:09.618491,-135
2021-12-23 17:28:09.618501,-146
2021-12-23 17:28:09.618511,-163
2021-12-23 17:28:09.618521,-144
2021-12-23 17:28:09.618531,-128
2021-12-23 17:28:09.618541,-123
2021-12-23 17:28:09.618551,-111
2021-12-23 17:28:09.618561,-111
2021-12-23 17:28:09.618571,-111
2021-12-23 17:28:09.618581,-100
2021-12-23 17:28:09.618591,-90
2021-12-23 17:28:09.618601,-79
2021-12-23 17:28:09.618611,-67
2021-12-23 17:28:09.618621,-60
2021-12-23 17:28:09.618631,-55
2021-12-23 17:28:09.618641,-65
2021-12-23 17:28:09.618651,-69
2021-12-23 17:28:09.618666,-60
2021-12-23 17:28:09.618676,-65
2021-12-23 17:28:09.842416,-72
2021-12-23 17:28:09.842441,-53
2021-12-23 17:28:09.842449,-34
2021-12-23 17:28:09.842456,-34
2021-12-23 17:28:09.842462,-32
2021-12-23 17:28:09.842469,-39
2021-12-23 17:28:09.842476,-67
2021-12-23 17:28:09.842483,-51
2021-12-23 17:28:09.842489,-4
2021-12-23 17:28:09.842496,55
2021-12-23 17:28:09.842502,240
2021-12-23 17:28:09.842509,459
2021-12-23 17:28:09.842515,401
2021-12-23 17:28:09.842522,2
2021-12-23 17:28:09.842529,-475
2021-12-23 17:28:09.842535,-552
2021-12-23 17:28:09.842542,-188
2021-12-23 17:28:09.842548,2
2021-12-23 17:28:09.842555,-30
2021-12-23 17:28:09.842562,67
2021-12-23 17:28:09.842568,144
2021-12-23 17:28:09.842575,104
2021-12-23 17:28:09.842581,109
2021-12-23 17:28:09.842588,144
2021-12-23 17:28:09.842594,142
2021-12-23 17:28:09.842601,156
2021-12-23 17:28:09.842607,174
2021-12-23 17:28:09.842613,128
2021-12-23 17:28:09.842620,74
2021-12-23 17:28:09.842626,93
2021-12-23 17:28:10.067453,137
2021-12-23 17:28:10.067476,149
2021-12-23 17:28:10.067484,151
2021-12-23 17:28:10.067491,174
2021-12-23 17:28:10.067498,200
2021-12-23 17:28:10.067504,205
2021-12-23 17:28:10.067511,223
2021-12-23 17:28:10.067517,265
2021-12-23 17:28:10.067524,279
2021-12-23 17:28:10.067530,261
2021-12-23 17:28:10.067537,228
2021-12-23 17:28:10.067543,170
2021-12-23 17:28:10.067550,107
2021-12-23 17:28:10.067556,53
2021-12-23 17:28:10.067563,-11
2021-12-23 17:28:10.067570,-81
2021-12-23 17:28:10.067576,-130
2021-12-23 17:28:10.067583,-158
2021-12-23 17:28:10.067589,-165
2021-12-23 17:28:10.067596,-153
2021-12-23 17:28:10.067602,-149
2021-12-23 17:28:10.067609,-153
2021-12-23 17:28:10.067615,-151
2021-12-23 17:28:10.067622,-149
2021-12-23 17:28:10.067628,-153
2021-12-23 17:28:10.067635,-144
2021-12-23 17:28:10.067641,-142
2021-12-23 17:28:10.067648,-160
2021-12-23 17:28:10.067654,-163
2021-12-23 17:28:10.067661,-156
2021-12-23 17:28:10.293372,-165
2021-12-23 17:28:10.293402,-158
2021-12-23 17:28:10.293414,-137
2021-12-23 17:28:10.293424,-144
2021-12-23 17:28:10.293434,-172
2021-12-23 17:28:10.293443,-170
2021-12-23 17:28:10.293453,-137
2021-12-23 17:28:10.293463,-118
2021-12-23 17:28:10.293472,-116
2021-12-23 17:28:10.293482,-128
2021-12-23 17:28:10.293492,-151
2021-12-23 17:28:10.293502,-151
2021-12-23 17:28:10.293511,-118
2021-12-23 17:28:10.293521,-97
2021-12-23 17:28:10.293531,-97
2021-12-23 17:28:10.293541,-102
2021-12-23 17:28:10.293550,-107
2021-12-23 17:28:10.293560,-97
2021-12-23 17:28:10.293570,-79
2021-12-23 17:28:10.293579,-65
2021-12-23 17:28:10.293589,-58
2021-12-23 17:28:10.293599,-60
2021-12-23 17:28:10.293609,-53
2021-12-23 17:28:10.293618,-20
2021-12-23 17:28:10.293628,6
2021-12-23 17:28:10.293638,13
2021-12-23 17:28:10.293648,6
2021-12-23 17:28:10.293657,-18
2021-12-23 17:28:10.293667,-27
2021-12-23 17:28:10.293677,-6
2021-12-23 17:28:10.563315,13
2021-12-23 17:28:10.563345,4
2021-12-23 17:28:10.563357,-53
2021-12-23 17:28:10.563368,-139
2021-12-23 17:28:10.563378,-163
2021-12-23 17:28:10.563388,-102
2021-12-23 17:28:10.563398,-58
2021-12-23 17:28:10.563408,11
2021-12-23 17:28:10.563418,221
2021-12-23 17:28:10.563428,417
2021-12-23 17:28:10.563439,317
2021-12-23 17:28:10.563449,-95
2021-12-23 17:28:10.563459,-543
2021-12-23 17:28:10.563469,-526
2021-12-23 17:28:10.563478,-144
2021-12-23 17:28:10.563489,-23
2021-12-23 17:28:10.563499,-65
2021-12-23 17:28:10.563509,55
2021-12-23 17:28:10.563518,125
2021-12-23 17:28:10.563528,88
2021-12-23 17:28:10.563538,95
2021-12-23 17:28:10.563548,118
2021-12-23 17:28:10.563558,121
2021-12-23 17:28:10.563567,142
2021-12-23 17:28:10.563577,165
2021-12-23 17:28:10.563587,170
2021-12-23 17:28:10.563597,156
2021-12-23 17:28:10.563607,144
2021-12-23 17:28:10.563616,163
2021-12-23 17:28:10.563626,205
2021-12-23 17:28:10.876800,235
2021-12-23 17:28:10.876830,270
2021-12-23 17:28:10.876842,300
2021-12-23 17:28:10.876852,307
2021-12-23 17:28:10.876862,305
2021-12-23 17:28:10.876872,321
2021-12-23 17:28:10.876882,345
2021-12-23 17:28:10.876892,345
2021-12-23 17:28:10.876902,296
2021-12-23 17:28:10.876912,207
2021-12-23 17:28:10.876922,139
2021-12-23 17:28:10.876932,93
2021-12-23 17:28:10.876942,32
2021-12-23 17:28:10.876952,-27
2021-12-23 17:28:10.876962,-100
2021-12-23 17:28:10.876972,-170
2021-12-23 17:28:10.876982,-181
2021-12-23 17:28:10.876991,-174
2021-12-23 17:28:10.877001,-191
2021-12-23 17:28:10.877012,-198
2021-12-23 17:28:10.877022,-202
2021-12-23 17:28:10.877032,-219
2021-12-23 17:28:10.877042,-207
2021-12-23 17:28:10.877052,-174
2021-12-23 17:28:10.877061,-149
2021-12-23 17:28:10.877071,-132
2021-12-23 17:28:10.877081,-128
2021-12-23 17:28:10.877091,-128
2021-12-23 17:28:10.877101,-114
2021-12-23 17:28:10.877111,-95
2021-12-23 17:28:11.057732,-72
2021-12-23 17:28:11.057777,-60
2021-12-23 17:28:11.057789,-72
2021-12-23 17:28:11.057799,-88
2021-12-23 17:28:11.057810,-74
2021-12-23 17:28:11.057820,-58
2021-12-23 17:28:11.057830,-72
2021-12-23 17:28:11.057840,-90
2021-12-23 17:28:11.057850,-109
2021-12-23 17:28:11.057860,-144
2021-12-23 17:28:11.057870,-142
2021-12-23 17:28:11.057880,-97
2021-12-23 17:28:11.057890,-83
2021-12-23 17:28:11.057900,-109
2021-12-23 17:28:11.057910,-130
2021-12-23 17:28:11.057920,-130
2021-12-23 17:28:11.057930,-111
2021-12-23 17:28:11.057940,-86
2021-12-23 17:28:11.057950,-69
2021-12-23 17:28:11.057959,-86
2021-12-23 17:28:11.057969,-114
2021-12-23 17:28:11.057979,-93
2021-12-23 17:28:11.057989,-44
2021-12-23 17:28:11.057999,-30
2021-12-23 17:28:11.058009,-34
2021-12-23 17:28:11.058018,-37
2021-12-23 17:28:11.058028,-51
2021-12-23 17:28:11.058038,-48
2021-12-23 17:28:11.058048,-23
2021-12-23 17:28:11.058058,-4
2021-12-23 17:28:11.238203,2
2021-12-23 17:28:11.238234,2
2021-12-23 17:28:11.238246,-2
2021-12-23 17:28:11.238257,4
2021-12-23 17:28:11.238267,27
2021-12-23 17:28:11.238276,76
2021-12-23 17:28:11.238286,221
2021-12-23 17:28:11.238296,470
2021-12-23 17:28:11.238306,550
2021-12-23 17:28:11.238315,214
2021-12-23 17:28:11.238325,-354
2021-12-23 17:28:11.238335,-557
2021-12-23 17:28:11.238345,-212
2021-12-23 17:28:11.238355,13
2021-12-23 17:28:11.238365,-55
2021-12-23 17:28:11.238374,6
2021-12-23 17:28:11.238384,132
2021-12-23 17:28:11.238394,123
2021-12-23 17:28:11.238403,100
2021-12-23 17:28:11.238413,102
2021-12-23 17:28:11.238423,79
2021-12-23 17:28:11.238432,67
2021-12-23 17:28:11.238442,90
2021-12-23 17:28:11.238452,118
2021-12-23 17:28:11.238462,135
2021-12-23 17:28:11.238472,139
2021-12-23 17:28:11.238482,160
2021-12-23 17:28:11.238491,191
2021-12-23 17:28:11.238501,216
2021-12-23 17:28:11.238511,244
2021-12-23 17:28:11.507902,275
2021-12-23 17:28:11.507932,300
2021-12-23 17:28:11.507944,328
2021-12-23 17:28:11.507954,345
2021-12-23 17:28:11.507964,345
2021-12-23 17:28:11.507974,349
2021-12-23 17:28:11.507984,319
2021-12-23 17:28:11.507994,249
2021-12-23 17:28:11.508004,193
2021-12-23 17:28:11.508014,121
2021-12-23 17:28:11.508023,6
2021-12-23 17:28:11.508033,-76
2021-12-23 17:28:11.508043,-130
2021-12-23 17:28:11.508053,-200
2021-12-23 17:28:11.508063,-268
2021-12-23 17:28:11.508073,-324
2021-12-23 17:28:11.508082,-331
2021-12-23 17:28:11.508092,-296
2021-12-23 17:28:11.508102,-289
2021-12-23 17:28:11.508112,-282
2021-12-23 17:28:11.508122,-251
2021-12-23 17:28:11.508131,-226
2021-12-23 17:28:11.508141,-205
2021-12-23 17:28:11.508191,-179
2021-12-23 17:28:11.508202,-163
2021-12-23 17:28:11.508211,-146
2021-12-23 17:28:11.508221,-130
2021-12-23 17:28:11.508231,-125
2021-12-23 17:28:11.508241,-102
2021-12-23 17:28:11.508251,-83
2021-12-23 17:28:11.688204,-93
2021-12-23 17:28:11.688226,-81
2021-12-23 17:28:11.688233,-60
2021-12-23 17:28:11.688240,-67
2021-12-23 17:28:11.688247,-69
2021-12-23 17:28:11.688253,-74
2021-12-23 17:28:11.688260,-102
2021-12-23 17:28:11.688266,-97
2021-12-23 17:28:11.688272,-65
2021-12-23 17:28:11.688279,-62
2021-12-23 17:28:11.688285,-69
2021-12-23 17:28:11.688292,-67
2021-12-23 17:28:11.688298,-83
2021-12-23 17:28:11.688304,-83
2021-12-23 17:28:11.688311,-60
2021-12-23 17:28:11.688317,-55
2021-12-23 17:28:11.688324,-55
2021-12-23 17:28:11.688330,-62
2021-12-23 17:28:11.688336,-67
2021-12-23 17:28:11.688343,-32
2021-12-23 17:28:11.688349,-6
2021-12-23 17:28:11.688355,-34
2021-12-23 17:28:11.688362,-48
2021-12-23 17:28:11.688368,-32
2021-12-23 17:28:11.688374,-25
2021-12-23 17:28:11.688381,-20
2021-12-23 17:28:11.688387,-9
2021-12-23 17:28:11.688394,-2
2021-12-23 17:28:11.688400,0
2021-12-23 17:28:11.688407,4
2021-12-23 17:28:11.913034,20
2021-12-23 17:28:11.913065,60
2021-12-23 17:28:11.913077,149
2021-12-23 17:28:11.913088,347
2021-12-23 17:28:11.913098,538
2021-12-23 17:28:11.913107,389
2021-12-23 17:28:11.913117,-158
2021-12-23 17:28:11.913127,-578
2021-12-23 17:28:11.913137,-391
2021-12-23 17:28:11.913147,-30
2021-12-23 17:28:11.913157,-18
2021-12-23 17:28:11.913166,-60
2021-12-23 17:28:11.913176,72
2021-12-23 17:28:11.913186,118
2021-12-23 17:28:11.913195,41
2021-12-23 17:28:11.913205,16
2021-12-23 17:28:11.913215,46
2021-12-23 17:28:11.913225,55
2021-12-23 17:28:11.913234,67
2021-12-23 17:28:11.913244,97
2021-12-23 17:28:11.913253,79
2021-12-23 17:28:11.913263,34
2021-12-23 17:28:11.913273,51
2021-12-23 17:28:11.913282,100
2021-12-23 17:28:11.913292,130
2021-12-23 17:28:11.913302,163
2021-12-23 17:28:11.913312,202
2021-12-23 17:28:11.913321,230
2021-12-23 17:28:11.913331,249
2021-12-23 17:28:11.913341,275
2021-12-23 17:28:12.137995,300
2021-12-23 17:28:12.138016,303
2021-12-23 17:28:12.138024,286
2021-12-23 17:28:12.138031,242
2021-12-23 17:28:12.138037,160
2021-12-23 17:28:12.138044,74
2021-12-23 17:28:12.138051,4
2021-12-23 17:28:12.138057,-69
2021-12-23 17:28:12.138064,-132
2021-12-23 17:28:12.138070,-198
2021-12-23 17:28:12.138077,-270
2021-12-23 17:28:12.138083,-284
2021-12-23 17:28:12.138090,-247
2021-12-23 17:28:12.138096,-230
2021-12-23 17:28:12.138103,-230
2021-12-23 17:28:12.138109,-233
2021-12-23 17:28:12.138116,-235
2021-12-23 17:28:12.138122,-219
2021-12-23 17:28:12.138129,-181
2021-12-23 17:28:12.138135,-156
2021-12-23 17:28:12.138142,-149
2021-12-23 17:28:12.138148,-151
2021-12-23 17:28:12.138154,-146
2021-12-23 17:28:12.138161,-114
2021-12-23 17:28:12.138167,-86
2021-12-23 17:28:12.138174,-76
2021-12-23 17:28:12.138180,-69
2021-12-23 17:28:12.138187,-74
2021-12-23 17:28:12.138193,-79
2021-12-23 17:28:12.138200,-55
2021-12-23 17:28:12.408148,-32
2021-12-23 17:28:12.408179,-27
2021-12-23 17:28:12.408191,-34
2021-12-23 17:28:12.408202,-67
2021-12-23 17:28:12.408212,-100
2021-12-23 17:28:12.408222,-76
2021-12-23 17:28:12.408231,-44
2021-12-23 17:28:12.408241,-37
2021-12-23 17:28:12.408251,-48
2021-12-23 17:28:12.408260,-81
2021-12-23 17:28:12.408270,-104
2021-12-23 17:28:12.408279,-81
2021-12-23 17:28:12.408289,-48
2021-12-23 17:28:12.408299,-34
2021-12-23 17:28:12.408308,-25
2021-12-23 17:28:12.408318,-23
2021-12-23 17:28:12.408327,-13
2021-12-23 17:28:12.408337,2
2021-12-23 17:28:12.408347,-16
2021-12-23 17:28:12.408357,-46
2021-12-23 17:28:12.408366,-46
2021-12-23 17:28:12.408376,-39
2021-12-23 17:28:12.408385,-34
2021-12-23 17:28:12.408395,-11
2021-12-23 17:28:12.408405,2
2021-12-23 17:28:12.408415,-4
2021-12-23 17:28:12.408425,-44
2021-12-23 17:28:12.408434,-83
2021-12-23 17:28:12.408444,-53
2021-12-23 17:28:12.408453,32
2021-12-23 17:28:12.677883,193
2021-12-23 17:28:12.677914,426
2021-12-23 17:28:12.677925,459
2021-12-23 17:28:12.677935,95
2021-12-23 17:28:12.677946,-422
2021-12-23 17:28:12.677956,-552
2021-12-23 17:28:12.677966,-202
2021-12-23 17:28:12.677975,2
2021-12-23 17:28:12.677985,-83
2021-12-23 17:28:12.677995,-48
2021-12-23 17:28:12.678005,53
2021-12-23 17:28:12.678015,48
2021-12-23 17:28:12.678024,48
2021-12-23 17:28:12.678034,83
2021-12-23 17:28:12.678044,65
2021-12-23 17:28:12.678054,27
2021-12-23 17:28:12.678063,58
2021-12-23 17:28:12.678073,102
2021-12-23 17:28:12.678083,116
2021-12-23 17:28:12.678093,128
2021-12-23 17:28:12.678103,130
2021-12-23 17:28:12.678112,125
2021-12-23 17:28:12.678122,160
2021-12-23 17:28:12.678132,207
2021-12-23 17:28:12.678142,244
2021-12-23 17:28:12.678151,275
2021-12-23 17:28:12.678161,291
2021-12-23 17:28:12.678171,291
2021-12-23 17:28:12.678181,300
2021-12-23 17:28:12.678190,296
2021-12-23 17:28:12.991150,258
2021-12-23 17:28:12.991170,205
2021-12-23 17:28:12.991177,123
2021-12-23 17:28:12.991184,20
2021-12-23 17:28:12.991191,-46
2021-12-23 17:28:12.991197,-90
2021-12-23 17:28:12.991204,-137
2021-12-23 17:28:12.991211,-184
2021-12-23 17:28:12.991217,-233
2021-12-23 17:28:12.991224,-254
2021-12-23 17:28:12.991230,-235
2021-12-23 17:28:12.991237,-209
2021-12-23 17:28:12.991243,-198
2021-12-23 17:28:12.991250,-193
2021-12-23 17:28:12.991256,-198
2021-12-23 17:28:12.991263,-193
2021-12-23 17:28:12.991270,-163
2021-12-23 17:28:12.991276,-132
2021-12-23 17:28:12.991283,-121
2021-12-23 17:28:12.991289,-128
2021-12-23 17:28:12.991296,-142
2021-12-23 17:28:12.991303,-142
2021-12-23 17:28:12.991309,-142
2021-12-23 17:28:12.991316,-142
2021-12-23 17:28:12.991322,-118
2021-12-23 17:28:12.991329,-107
2021-12-23 17:28:12.991335,-116
2021-12-23 17:28:12.991342,-109
2021-12-23 17:28:12.991349,-86
2021-12-23 17:28:12.991355,-72
2021-12-23 17:28:13.082891,-62
2021-12-23 17:28:13.082914,-60
2021-12-23 17:28:13.082921,-100
2021-12-23 17:28:13.082928,-137
2021-12-23 17:28:13.082934,-111
2021-12-23 17:28:13.082941,-74
2021-12-23 17:28:13.082947,-86
2021-12-23 17:28:13.082954,-116
2021-12-23 17:28:13.082960,-125
2021-12-23 17:28:13.082966,-109
2021-12-23 17:28:13.082973,-90
2021-12-23 17:28:13.082979,-76
2021-12-23 17:28:13.082986,-69
2021-12-23 17:28:13.082992,-79
2021-12-23 17:28:13.082999,-72
2021-12-23 17:28:13.083005,-51
2021-12-23 17:28:13.083011,-41
2021-12-23 17:28:13.083018,-46
2021-12-23 17:28:13.083024,-46
2021-12-23 17:28:13.083030,-41
2021-12-23 17:28:13.083037,-37
2021-12-23 17:28:13.083043,-30
2021-12-23 17:28:13.083049,-18
2021-12-23 17:28:13.083056,-2
2021-12-23 17:28:13.083062,-16
2021-12-23 17:28:13.083068,-27
2021-12-23 17:28:13.083075,6
2021-12-23 17:28:13.083081,69
2021-12-23 17:28:13.083087,223
2021-12-23 17:28:13.083094,452
2021-12-23 17:28:13.307883,463
2021-12-23 17:28:13.307914,97
2021-12-23 17:28:13.307926,-429
2021-12-23 17:28:13.307936,-608
2021-12-23 17:28:13.307946,-263
2021-12-23 17:28:13.307956,4
2021-12-23 17:28:13.307966,-41
2021-12-23 17:28:13.307976,-13
2021-12-23 17:28:13.307985,81
2021-12-23 17:28:13.307995,67
2021-12-23 17:28:13.308005,58
2021-12-23 17:28:13.308014,95
2021-12-23 17:28:13.308024,79
2021-12-23 17:28:13.308034,55
2021-12-23 17:28:13.308043,88
2021-12-23 17:28:13.308053,116
2021-12-23 17:28:13.308063,123
2021-12-23 17:28:13.308072,146
2021-12-23 17:28:13.308082,163
2021-12-23 17:28:13.308092,177
2021-12-23 17:28:13.308101,209
2021-12-23 17:28:13.308111,235
2021-12-23 17:28:13.308121,261
2021-12-23 17:28:13.308130,293
2021-12-23 17:28:13.308140,296
2021-12-23 17:28:13.308150,279
2021-12-23 17:28:13.308159,258
2021-12-23 17:28:13.308169,214
2021-12-23 17:28:13.308179,186
2021-12-23 17:28:13.308189,167
2021-12-23 17:28:13.578272,107
2021-12-23 17:28:13.578303,32
2021-12-23 17:28:13.578315,-27
2021-12-23 17:28:13.578326,-93
2021-12-23 17:28:13.578336,-146
2021-12-23 17:28:13.578346,-188
2021-12-23 17:28:13.578356,-237
2021-12-23 17:28:13.578366,-275
2021-12-23 17:28:13.578376,-298
2021-12-23 17:28:13.578385,-296
2021-12-23 17:28:13.578395,-272
2021-12-23 17:28:13.578405,-270
2021-12-23 17:28:13.578415,-277
2021-12-23 17:28:13.578424,-242
2021-12-23 17:28:13.578434,-207
2021-12-23 17:28:13.578444,-200
2021-12-23 17:28:13.578453,-181
2021-12-23 17:28:13.578467,-160
2021-12-23 17:28:13.578477,-149
2021-12-23 17:28:13.578487,-128
2021-12-23 17:28:13.578497,-104
2021-12-23 17:28:13.578507,-97
2021-12-23 17:28:13.578517,-90
2021-12-23 17:28:13.578527,-81
2021-12-23 17:28:13.578537,-72
2021-12-23 17:28:13.578547,-53
2021-12-23 17:28:13.578557,-41
2021-12-23 17:28:13.578567,-53
2021-12-23 17:28:13.578577,-79
2021-12-23 17:28:13.578587,-95
2021-12-23 17:28:13.757953,-81
2021-12-23 17:28:13.757983,-55
2021-12-23 17:28:13.757995,-48
2021-12-23 17:28:13.758006,-51
2021-12-23 17:28:13.758016,-62
2021-12-23 17:28:13.758026,-83
2021-12-23 17:28:13.758036,-86
2021-12-23 17:28:13.758045,-58
2021-12-23 17:28:13.758055,-48
2021-12-23 17:28:13.758065,-55
2021-12-23 17:28:13.758075,-51
2021-12-23 17:28:13.758085,-37
2021-12-23 17:28:13.758095,-18
2021-12-23 17:28:13.758104,4
2021-12-23 17:28:13.758114,23
2021-12-23 17:28:13.758124,25
2021-12-23 17:28:13.758134,6
2021-12-23 17:28:13.758144,-23
2021-12-23 17:28:13.758154,-25
2021-12-23 17:28:13.758164,0
2021-12-23 17:28:13.758173,6
2021-12-23 17:28:13.758183,-2
2021-12-23 17:28:13.758193,-2
2021-12-23 17:28:13.758203,2
2021-12-23 17:28:13.758213,18
2021-12-23 17:28:13.758223,41
2021-12-23 17:28:13.758233,51
2021-12-23 17:28:13.758243,48
2021-12-23 17:28:13.758252,114
2021-12-23 17:28:13.758262,328
2021-12-23 17:28:13.982596,491
2021-12-23 17:28:13.982626,317
2021-12-23 17:28:13.982638,-167
2021-12-23 17:28:13.982648,-599
2021-12-23 17:28:13.982658,-517
2021-12-23 17:28:13.982668,-135
2021-12-23 17:28:13.982678,-23
2021-12-23 17:28:13.982688,-32
2021-12-23 17:28:13.982698,72
2021-12-23 17:28:13.982708,88
2021-12-23 17:28:13.982717,20
2021-12-23 17:28:13.982727,32
2021-12-23 17:28:13.982737,60
2021-12-23 17:28:13.982747,27
2021-12-23 17:28:13.982757,20
2021-12-23 17:28:13.982767,51
2021-12-23 17:28:13.982777,58
2021-12-23 17:28:13.982786,74
2021-12-23 17:28:13.982796,116
2021-12-23 17:28:13.982806,142
2021-12-23 17:28:13.982816,146
2021-12-23 17:28:13.982826,146
2021-12-23 17:28:13.982836,153
2021-12-23 17:28:13.982845,177
2021-12-23 17:28:13.982855,219
2021-12-23 17:28:13.982865,256
2021-12-23 17:28:13.982875,265
2021-12-23 17:28:13.982885,251
2021-12-23 17:28:13.982895,230
2021-12-23 17:28:13.982905,221
2021-12-23 17:28:14.298216,195
2021-12-23 17:28:14.298247,125
2021-12-23 17:28:14.298259,16
2021-12-23 17:28:14.298269,-111
2021-12-23 17:28:14.298279,-195
2021-12-23 17:28:14.298289,-198
2021-12-23 17:28:14.298298,-193
2021-12-23 17:28:14.298308,-212
2021-12-23 17:28:14.298318,-226
2021-12-23 17:28:14.298328,-249
2021-12-23 17:28:14.298338,-261
2021-12-23 17:28:14.298348,-228
2021-12-23 17:28:14.298357,-186
2021-12-23 17:28:14.298367,-170
2021-12-23 17:28:14.298377,-158
2021-12-23 17:28:14.298387,-144
2021-12-23 17:28:14.298396,-123
2021-12-23 17:28:14.298406,-97
2021-12-23 17:28:14.298416,-79
2021-12-23 17:28:14.298426,-65
2021-12-23 17:28:14.298436,-55
2021-12-23 17:28:14.298445,-53
2021-12-23 17:28:14.298455,-51
2021-12-23 17:28:14.298465,-30
2021-12-23 17:28:14.298475,-11
2021-12-23 17:28:14.298484,-2
2021-12-23 17:28:14.298494,2
2021-12-23 17:28:14.298504,-9
2021-12-23 17:28:14.298514,-18
2021-12-23 17:28:14.298524,2
2021-12-23 17:28:14.478094,18
2021-12-23 17:28:14.478116,25
2021-12-23 17:28:14.478123,20
2021-12-23 17:28:14.478130,-4
2021-12-23 17:28:14.478137,-27
2021-12-23 17:28:14.478143,-27
2021-12-23 17:28:14.478150,-6
2021-12-23 17:28:14.478156,4
2021-12-23 17:28:14.478163,-18
2021-12-23 17:28:14.478169,-37
2021-12-23 17:28:14.478176,-23
2021-12-23 17:28:14.478182,-2
2021-12-23 17:28:14.478189,13
2021-12-23 17:28:14.478196,32
2021-12-23 17:28:14.478202,34
2021-12-23 17:28:14.478209,25
2021-12-23 17:28:14.478215,32
2021-12-23 17:28:14.478222,32
2021-12-23 17:28:14.478228,-11
2021-12-23 17:28:14.478235,-53
2021-12-23 17:28:14.478241,-62
2021-12-23 17:28:14.478248,-74
2021-12-23 17:28:14.478254,-65
2021-12-23 17:28:14.478261,-37
2021-12-23 17:28:14.478268,-16
2021-12-23 17:28:14.478274,-20
2021-12-23 17:28:14.478281,-39
2021-12-23 17:28:14.478287,-23
2021-12-23 17:28:14.478294,55
2021-12-23 17:28:14.478300,251
2021-12-23 17:28:14.703001,484
2021-12-23 17:28:14.703031,417
2021-12-23 17:28:14.703043,-104
2021-12-23 17:28:14.703053,-601
2021-12-23 17:28:14.703063,-477
2021-12-23 17:28:14.703073,-62
2021-12-23 17:28:14.703083,-6
2021-12-23 17:28:14.703093,-95
2021-12-23 17:28:14.703103,-4
2021-12-23 17:28:14.703113,53
2021-12-23 17:28:14.703123,27
2021-12-23 17:28:14.703133,55
2021-12-23 17:28:14.703143,100
2021-12-23 17:28:14.703152,83
2021-12-23 17:28:14.703162,55
2021-12-23 17:28:14.703172,74
2021-12-23 17:28:14.703182,109
2021-12-23 17:28:14.703192,121
2021-12-23 17:28:14.703202,121
2021-12-23 17:28:14.703212,128
2021-12-23 17:28:14.703222,125
2021-12-23 17:28:14.703232,128
2021-12-23 17:28:14.703242,165
2021-12-23 17:28:14.703251,219
2021-12-23 17:28:14.703261,242
2021-12-23 17:28:14.703272,247
2021-12-23 17:28:14.703282,263
2021-12-23 17:28:14.703292,275
2021-12-23 17:28:14.703301,263
2021-12-23 17:28:14.703311,237
2021-12-23 17:28:14.971238,205
2021-12-23 17:28:14.971262,142
2021-12-23 17:28:14.971269,48
2021-12-23 17:28:14.971276,-27
2021-12-23 17:28:14.971283,-62
2021-12-23 17:28:14.971289,-86
2021-12-23 17:28:14.971296,-130
2021-12-23 17:28:14.971315,-184
2021-12-23 17:28:14.971321,-228
2021-12-23 17:28:14.971328,-235
2021-12-23 17:28:14.971334,-205
2021-12-23 17:28:14.971341,-184
2021-12-23 17:28:14.971347,-188
2021-12-23 17:28:14.971353,-195
2021-12-23 17:28:14.971360,-172
2021-12-23 17:28:14.971366,-144
2021-12-23 17:28:14.971373,-125
2021-12-23 17:28:14.971379,-104
2021-12-23 17:28:14.971385,-88
2021-12-23 17:28:14.971392,-79
2021-12-23 17:28:14.971398,-69
2021-12-23 17:28:14.971405,-55
2021-12-23 17:28:14.971411,-39
2021-12-23 17:28:14.971417,-30
2021-12-23 17:28:14.971423,-58
2021-12-23 17:28:14.971430,-95
2021-12-23 17:28:14.971436,-86
2021-12-23 17:28:14.971443,-62
2021-12-23 17:28:14.971449,-58
2021-12-23 17:28:14.971455,-44
2021-12-23 17:28:15.197483,-37
2021-12-23 17:28:15.197514,-39
2021-12-23 17:28:15.197526,-32
2021-12-23 17:28:15.197536,-25
2021-12-23 17:28:15.197546,-23
2021-12-23 17:28:15.197556,-20
2021-12-23 17:28:15.197566,-37
2021-12-23 17:28:15.197576,-62
2021-12-23 17:28:15.197585,-53
2021-12-23 17:28:15.197595,-39
2021-12-23 17:28:15.197604,-58
2021-12-23 17:28:15.197614,-83
2021-12-23 17:28:15.197623,-95
2021-12-23 17:28:15.197633,-88
2021-12-23 17:28:15.197643,-60
2021-12-23 17:28:15.197652,-32
2021-12-23 17:28:15.197662,-20
2021-12-23 17:28:15.197672,-20
2021-12-23 17:28:15.197681,-34
2021-12-23 17:28:15.197691,-32
2021-12-23 17:28:15.197700,-13
2021-12-23 17:28:15.197710,-9
2021-12-23 17:28:15.197720,-4
2021-12-23 17:28:15.197729,0
2021-12-23 17:28:15.197739,-16
2021-12-23 17:28:15.197749,-25
2021-12-23 17:28:15.197758,0
2021-12-23 17:28:15.197768,20
2021-12-23 17:28:15.197778,93
2021-12-23 17:28:15.197787,303
2021-12-23 17:28:15.378019,508
2021-12-23 17:28:15.378049,403
2021-12-23 17:28:15.378061,-104
2021-12-23 17:28:15.378072,-568
2021-12-23 17:28:15.378082,-431
2021-12-23 17:28:15.378092,-65
2021-12-23 17:28:15.378101,-44
2021-12-23 17:28:15.378111,-65
2021-12-23 17:28:15.378121,86
2021-12-23 17:28:15.378130,123
2021-12-23 17:28:15.378140,83
2021-12-23 17:28:15.378149,118
2021-12-23 17:28:15.378159,132
2021-12-23 17:28:15.378169,102
2021-12-23 17:28:15.378178,118
2021-12-23 17:28:15.378188,137
2021-12-23 17:28:15.378198,111
2021-12-23 17:28:15.378207,79
2021-12-23 17:28:15.378217,76
2021-12-23 17:28:15.378226,95
2021-12-23 17:28:15.378236,114
2021-12-23 17:28:15.378246,137
2021-12-23 17:28:15.378255,167
2021-12-23 17:28:15.378265,191
2021-12-23 17:28:15.378275,221
2021-12-23 17:28:15.378284,256
2021-12-23 17:28:15.378294,268
2021-12-23 17:28:15.378304,258
2021-12-23 17:28:15.378313,249
2021-12-23 17:28:15.378323,209
2021-12-23 17:28:15.603001,111
2021-12-23 17:28:15.603031,20
2021-12-23 17:28:15.603043,-25
2021-12-23 17:28:15.603054,-83
2021-12-23 17:28:15.603063,-165
2021-12-23 17:28:15.603074,-221
2021-12-23 17:28:15.603084,-235
2021-12-23 17:28:15.603093,-219
2021-12-23 17:28:15.603103,-209
2021-12-23 17:28:15.603113,-214
2021-12-23 17:28:15.603123,-226
2021-12-23 17:28:15.603133,-233
2021-12-23 17:28:15.603142,-209
2021-12-23 17:28:15.603152,-170
2021-12-23 17:28:15.603162,-174
2021-12-23 17:28:15.603172,-200
2021-12-23 17:28:15.603182,-188
2021-12-23 17:28:15.603191,-153
2021-12-23 17:28:15.603201,-130
2021-12-23 17:28:15.603211,-109
2021-12-23 17:28:15.603221,-93
2021-12-23 17:28:15.603231,-83
2021-12-23 17:28:15.603241,-81
2021-12-23 17:28:15.603251,-74
2021-12-23 17:28:15.603260,-58
2021-12-23 17:28:15.603270,-37
2021-12-23 17:28:15.603280,-27
2021-12-23 17:28:15.603290,-37
2021-12-23 17:28:15.603300,-46
2021-12-23 17:28:15.603310,-39
2021-12-23 17:28:15.827539,-20
2021-12-23 17:28:15.827570,-6
2021-12-23 17:28:15.827582,0
2021-12-23 17:28:15.827593,-18
2021-12-23 17:28:15.827603,-53
2021-12-23 17:28:15.827613,-65
2021-12-23 17:28:15.827623,-39
2021-12-23 17:28:15.827632,-18
2021-12-23 17:28:15.827642,-13
2021-12-23 17:28:15.827652,-32
2021-12-23 17:28:15.827662,-62
2021-12-23 17:28:15.827672,-62
2021-12-23 17:28:15.827682,-37
2021-12-23 17:28:15.827692,-20
2021-12-23 17:28:15.827706,-16
2021-12-23 17:28:15.827716,-13
2021-12-23 17:28:15.827726,-20
2021-12-23 17:28:15.827736,-18
2021-12-23 17:28:15.827746,9
2021-12-23 17:28:15.827756,32
2021-12-23 17:28:15.827766,0
2021-12-23 17:28:15.827776,-55
2021-12-23 17:28:15.827785,-65
2021-12-23 17:28:15.827795,-34
2021-12-23 17:28:15.827805,-20
2021-12-23 17:28:15.827815,-13
2021-12-23 17:28:15.827825,-4
2021-12-23 17:28:15.827835,-18
2021-12-23 17:28:15.827845,-25
2021-12-23 17:28:15.827855,4
2021-12-23 17:28:16.097684,48
2021-12-23 17:28:16.097707,137
2021-12-23 17:28:16.097715,335
2021-12-23 17:28:16.097722,484
2021-12-23 17:28:16.097728,326
2021-12-23 17:28:16.097735,-142
2021-12-23 17:28:16.097742,-601
2021-12-23 17:28:16.097748,-547
2021-12-23 17:28:16.097755,-163
2021-12-23 17:28:16.097761,-90
2021-12-23 17:28:16.097767,-146
2021-12-23 17:28:16.097774,-4
2021-12-23 17:28:16.097780,55
2021-12-23 17:28:16.097787,-11
2021-12-23 17:28:16.097793,-6
2021-12-23 17:28:16.097799,4
2021-12-23 17:28:16.097806,-25
2021-12-23 17:28:16.097812,-2
2021-12-23 17:28:16.097819,25
2021-12-23 17:28:16.097825,4
2021-12-23 17:28:16.097832,9
2021-12-23 17:28:16.097838,32
2021-12-23 17:28:16.097845,51
2021-12-23 17:28:16.097851,86
2021-12-23 17:28:16.097857,130
2021-12-23 17:28:16.097864,167
2021-12-23 17:28:16.097870,195
2021-12-23 17:28:16.097877,207
2021-12-23 17:28:16.097883,226
2021-12-23 17:28:16.097889,254
2021-12-23 17:28:16.323083,268
2021-12-23 17:28:16.323104,268
2021-12-23 17:28:16.323112,240
2021-12-23 17:28:16.323118,174
2021-12-23 17:28:16.323125,111
2021-12-23 17:28:16.323132,62
2021-12-23 17:28:16.323138,4
2021-12-23 17:28:16.323144,-51
2021-12-23 17:28:16.323151,-118
2021-12-23 17:28:16.323157,-186
2021-12-23 17:28:16.323164,-195
2021-12-23 17:28:16.323170,-167
2021-12-23 17:28:16.323177,-156
2021-12-23 17:28:16.323183,-153
2021-12-23 17:28:16.323189,-167
2021-12-23 17:28:16.323196,-191
2021-12-23 17:28:16.323202,-165
2021-12-23 17:28:16.323209,-118
2021-12-23 17:28:16.323215,-100
2021-12-23 17:28:16.323221,-88
2021-12-23 17:28:16.323228,-83
2021-12-23 17:28:16.323234,-100
2021-12-23 17:28:16.323241,-90
2021-12-23 17:28:16.323247,-53
2021-12-23 17:28:16.323253,-32
2021-12-23 17:28:16.323260,-32
2021-12-23 17:28:16.323266,-39
2021-12-23 17:28:16.323273,-44
2021-12-23 17:28:16.323279,-27
2021-12-23 17:28:16.323285,-9
2021-12-23 17:28:16.591799,4
2021-12-23 17:28:16.591822,11
2021-12-23 17:28:16.591829,0
2021-12-23 17:28:16.591836,-18
2021-12-23 17:28:16.591843,-11
2021-12-23 17:28:16.591849,13
2021-12-23 17:28:16.591856,25
2021-12-23 17:28:16.591862,6
2021-12-23 17:28:16.591869,-30
2021-12-23 17:28:16.591875,-41
2021-12-23 17:28:16.591882,-30
2021-12-23 17:28:16.591888,-58
2021-12-23 17:28:16.591895,-90
2021-12-23 17:28:16.591901,-90
2021-12-23 17:28:16.591908,-100
2021-12-23 17:28:16.591914,-107
2021-12-23 17:28:16.591921,-79
2021-12-23 17:28:16.591927,-69
2021-12-23 17:28:16.591933,-95
2021-12-23 17:28:16.591940,-109
2021-12-23 17:28:16.591946,-102
2021-12-23 17:28:16.591953,-97
2021-12-23 17:28:16.591959,-102
2021-12-23 17:28:16.591966,-100
2021-12-23 17:28:16.591972,-76
2021-12-23 17:28:16.591978,-53
2021-12-23 17:28:16.591985,-62
2021-12-23 17:28:16.591991,-76
2021-12-23 17:28:16.591998,-72
2021-12-23 17:28:16.592004,-53
2021-12-23 17:28:16.773089,-39
2021-12-23 17:28:16.773120,-39
2021-12-23 17:28:16.773132,-41
2021-12-23 17:28:16.773142,-37
2021-12-23 17:28:16.773152,-27
2021-12-23 17:28:16.773163,-6
2021-12-23 17:28:16.773173,6
2021-12-23 17:28:16.773183,30
2021-12-23 17:28:16.773193,163
2021-12-23 17:28:16.773203,394
2021-12-23 17:28:16.773212,419
2021-12-23 17:28:16.773222,76
2021-12-23 17:28:16.773232,-461
2021-12-23 17:28:16.773242,-727
2021-12-23 17:28:16.773252,-431
2021-12-23 17:28:16.773262,-116
2021-12-23 17:28:16.773272,-111
2021-12-23 17:28:16.773282,-55
2021-12-23 17:28:16.773292,41
2021-12-23 17:28:16.773302,6
2021-12-23 17:28:16.773312,-4
2021-12-23 17:28:16.773322,39
2021-12-23 17:28:16.773332,51
2021-12-23 17:28:16.773342,60
2021-12-23 17:28:16.773384,74
2021-12-23 17:28:16.773394,65
2021-12-23 17:28:16.773404,72
2021-12-23 17:28:16.773414,102
2021-12-23 17:28:16.773424,125
2021-12-23 17:28:16.773434,149
2021-12-23 17:28:17.040853,174
2021-12-23 17:28:17.040873,198
2021-12-23 17:28:17.040881,233
2021-12-23 17:28:17.040888,263
2021-12-23 17:28:17.040895,289
2021-12-23 17:28:17.040901,317
2021-12-23 17:28:17.040908,305
2021-12-23 17:28:17.040914,272
2021-12-23 17:28:17.040921,270
2021-12-23 17:28:17.040928,254
2021-12-23 17:28:17.040934,193
2021-12-23 17:28:17.040941,121
2021-12-23 17:28:17.040947,30
2021-12-23 17:28:17.040954,-55
2021-12-23 17:28:17.040960,-100
2021-12-23 17:28:17.040967,-125
2021-12-23 17:28:17.040974,-167
2021-12-23 17:28:17.040980,-219
2021-12-23 17:28:17.041052,-249
2021-12-23 17:28:17.041078,-226
2021-12-23 17:28:17.041090,-195
2021-12-23 17:28:17.041097,-188
2021-12-23 17:28:17.041104,-172
2021-12-23 17:28:17.041110,-146
2021-12-23 17:28:17.041117,-137
2021-12-23 17:28:17.041124,-118
2021-12-23 17:28:17.041131,-102
2021-12-23 17:28:17.041137,-125
2021-12-23 17:28:17.041144,-123
2021-12-23 17:28:17.041150,-88
2021-12-23 17:28:17.267375,-74
2021-12-23 17:28:17.267406,-65
2021-12-23 17:28:17.267417,-48
2021-12-23 17:28:17.267428,-41
2021-12-23 17:28:17.267437,-30
2021-12-23 17:28:17.267447,-27
2021-12-23 17:28:17.267457,-48
2021-12-23 17:28:17.267466,-46
2021-12-23 17:28:17.267476,-30
2021-12-23 17:28:17.267486,-32
2021-12-23 17:28:17.267495,-23
2021-12-23 17:28:17.267505,-25
2021-12-23 17:28:17.267515,-55
2021-12-23 17:28:17.267524,-55
2021-12-23 17:28:17.267534,-25
2021-12-23 17:28:17.267544,-27
2021-12-23 17:28:17.267553,-51
2021-12-23 17:28:17.267563,-58
2021-12-23 17:28:17.267573,-55
2021-12-23 17:28:17.267582,-48
2021-12-23 17:28:17.267592,-30
2021-12-23 17:28:17.267602,-23
2021-12-23 17:28:17.267611,-23
2021-12-23 17:28:17.267621,-25
2021-12-23 17:28:17.267631,-20
2021-12-23 17:28:17.267640,-9
2021-12-23 17:28:17.267650,-4
2021-12-23 17:28:17.267660,2
2021-12-23 17:28:17.267670,9
2021-12-23 17:28:17.267680,0
2021-12-23 17:28:17.492541,11
2021-12-23 17:28:17.492571,53
2021-12-23 17:28:17.492583,69
2021-12-23 17:28:17.492593,58
2021-12-23 17:28:17.492603,44
2021-12-23 17:28:17.492613,18
2021-12-23 17:28:17.492623,4
2021-12-23 17:28:17.492632,16
2021-12-23 17:28:17.492642,4
2021-12-23 17:28:17.492652,-27
2021-12-23 17:28:17.492662,-51
2021-12-23 17:28:17.492672,-67
2021-12-23 17:28:17.492681,-60
2021-12-23 17:28:17.492691,-32
2021-12-23 17:28:17.492701,-4
2021-12-23 17:28:17.492711,72
2021-12-23 17:28:17.492721,286
2021-12-23 17:28:17.492730,468
2021-12-23 17:28:17.492740,310
2021-12-23 17:28:17.492750,-177
2021-12-23 17:28:17.492760,-573
2021-12-23 17:28:17.492769,-475
2021-12-23 17:28:17.492779,-151
2021-12-23 17:28:17.492789,-62
2021-12-23 17:28:17.492799,-51
2021-12-23 17:28:17.492808,55
2021-12-23 17:28:17.492818,97
2021-12-23 17:28:17.492828,60
2021-12-23 17:28:17.492838,62
2021-12-23 17:28:17.492847,95
2021-12-23 17:28:17.673125,102
2021-12-23 17:28:17.673156,86
2021-12-23 17:28:17.673168,95
2021-12-23 17:28:17.673179,107
2021-12-23 17:28:17.673189,100
2021-12-23 17:28:17.673198,116
2021-12-23 17:28:17.673208,163
2021-12-23 17:28:17.673218,193
2021-12-23 17:28:17.673228,221
2021-12-23 17:28:17.673237,247
2021-12-23 17:28:17.673247,242
2021-12-23 17:28:17.673257,254
2021-12-23 17:28:17.673267,305
2021-12-23 17:28:17.673276,333
2021-12-23 17:28:17.673286,324
2021-12-23 17:28:17.673296,305
2021-12-23 17:28:17.673306,270
2021-12-23 17:28:17.673315,228
2021-12-23 17:28:17.673325,184
2021-12-23 17:28:17.673335,123
2021-12-23 17:28:17.673345,46
2021-12-23 17:28:17.673355,-30
2021-12-23 17:28:17.673365,-90
2021-12-23 17:28:17.673374,-114
2021-12-23 17:28:17.673384,-104
2021-12-23 17:28:17.673394,-102
2021-12-23 17:28:17.673404,-116
2021-12-23 17:28:17.673413,-132
2021-12-23 17:28:17.673423,-123
2021-12-23 17:28:17.673433,-93
2021-12-23 17:28:17.942758,-72
2021-12-23 17:28:17.942789,-60
2021-12-23 17:28:17.942801,-67
2021-12-23 17:28:17.942811,-121
2021-12-23 17:28:17.942821,-149
2021-12-23 17:28:17.942832,-100
2021-12-23 17:28:17.942842,-60
2021-12-23 17:28:17.942851,-55
2021-12-23 17:28:17.942861,-55
2021-12-23 17:28:17.942871,-74
2021-12-23 17:28:17.942881,-90
2021-12-23 17:28:17.942891,-60
2021-12-23 17:28:17.942901,-30
2021-12-23 17:28:17.942911,-25
2021-12-23 17:28:17.942921,-27
2021-12-23 17:28:17.942931,-46
2021-12-23 17:28:17.942940,-67
2021-12-23 17:28:17.942950,-69
2021-12-23 17:28:17.942960,-60
2021-12-23 17:28:17.942970,-51
2021-12-23 17:28:17.942980,-60
2021-12-23 17:28:17.942990,-76
2021-12-23 17:28:17.943000,-65
2021-12-23 17:28:17.943009,-41
2021-12-23 17:28:17.943019,-30
2021-12-23 17:28:17.943029,-23
2021-12-23 17:28:17.943039,-23
2021-12-23 17:28:17.943049,-51
2021-12-23 17:28:17.943059,-93
2021-12-23 17:28:17.943069,-104
2021-12-23 17:28:18.211719,-76
2021-12-23 17:28:18.211749,-53
2021-12-23 17:28:18.211761,-65
2021-12-23 17:28:18.211771,-83
2021-12-23 17:28:18.211781,-88
2021-12-23 17:28:18.211791,-93
2021-12-23 17:28:18.211801,-93
2021-12-23 17:28:18.211811,-76
2021-12-23 17:28:18.211821,-102
2021-12-23 17:28:18.211831,-151
2021-12-23 17:28:18.211841,-137
2021-12-23 17:28:18.211851,-104
2021-12-23 17:28:18.211860,-102
2021-12-23 17:28:18.211870,-90
2021-12-23 17:28:18.211880,-97
2021-12-23 17:28:18.211890,-146
2021-12-23 17:28:18.211900,-146
2021-12-23 17:28:18.211910,-100
2021-12-23 17:28:18.211920,-86
2021-12-23 17:28:18.211930,-93
2021-12-23 17:28:18.211940,-93
2021-12-23 17:28:18.211950,-90
2021-12-23 17:28:18.211960,-72
2021-12-23 17:28:18.211969,-41
2021-12-23 17:28:18.211979,-23
2021-12-23 17:28:18.211990,2
2021-12-23 17:28:18.212000,93
2021-12-23 17:28:18.212010,319
2021-12-23 17:28:18.212020,536
2021-12-23 17:28:18.212030,405
2021-12-23 17:28:18.437471,-132
2021-12-23 17:28:18.437501,-543
2021-12-23 17:28:18.437513,-340
2021-12-23 17:28:18.437524,4
2021-12-23 17:28:18.437534,23
2021-12-23 17:28:18.437544,-11
2021-12-23 17:28:18.437554,-2
2021-12-23 17:28:18.437563,-11
2021-12-23 17:28:18.437573,79
2021-12-23 17:28:18.437583,142
2021-12-23 17:28:18.437593,107
2021-12-23 17:28:18.437603,125
2021-12-23 17:28:18.437613,165
2021-12-23 17:28:18.437622,142
2021-12-23 17:28:18.437632,114
2021-12-23 17:28:18.437642,132
2021-12-23 17:28:18.437652,167
2021-12-23 17:28:18.437661,193
2021-12-23 17:28:18.437671,219
2021-12-23 17:28:18.437733,230
2021-12-23 17:28:18.437744,233
2021-12-23 17:28:18.437753,251
2021-12-23 17:28:18.437764,286
2021-12-23 17:28:18.437773,310
2021-12-23 17:28:18.437783,328
2021-12-23 17:28:18.437793,333
2021-12-23 17:28:18.437803,319
2021-12-23 17:28:18.437813,300
2021-12-23 17:28:18.437823,270
2021-12-23 17:28:18.437833,219
2021-12-23 17:28:18.617916,153
2021-12-23 17:28:18.617947,76
2021-12-23 17:28:18.617958,-4
2021-12-23 17:28:18.617969,-95
2021-12-23 17:28:18.617979,-160
2021-12-23 17:28:18.617989,-156
2021-12-23 17:28:18.617999,-135
2021-12-23 17:28:18.618009,-146
2021-12-23 17:28:18.618019,-158
2021-12-23 17:28:18.618029,-174
2021-12-23 17:28:18.618039,-172
2021-12-23 17:28:18.618049,-132
2021-12-23 17:28:18.618059,-118
2021-12-23 17:28:18.618069,-139
2021-12-23 17:28:18.618079,-132
2021-12-23 17:28:18.618089,-100
2021-12-23 17:28:18.618099,-100
2021-12-23 17:28:18.618109,-116
2021-12-23 17:28:18.618119,-118
2021-12-23 17:28:18.618129,-128
2021-12-23 17:28:18.618139,-125
2021-12-23 17:28:18.618149,-109
2021-12-23 17:28:18.618159,-93
2021-12-23 17:28:18.618169,-81
2021-12-23 17:28:18.618179,-76
2021-12-23 17:28:18.618189,-79
2021-12-23 17:28:18.618199,-72
2021-12-23 17:28:18.618209,-67
2021-12-23 17:28:18.618219,-60
2021-12-23 17:28:18.618229,-44
2021-12-23 17:28:18.842070,-44
2021-12-23 17:28:18.842090,-55
2021-12-23 17:28:18.842098,-51
2021-12-23 17:28:18.842104,-46
2021-12-23 17:28:18.842111,-41
2021-12-23 17:28:18.842117,-41
2021-12-23 17:28:18.842124,-65
2021-12-23 17:28:18.842130,-86
2021-12-23 17:28:18.842137,-79
2021-12-23 17:28:18.842143,-86
2021-12-23 17:28:18.842150,-107
2021-12-23 17:28:18.842156,-137
2021-12-23 17:28:18.842162,-184
2021-12-23 17:28:18.842169,-191
2021-12-23 17:28:18.842175,-167
2021-12-23 17:28:18.842182,-174
2021-12-23 17:28:18.842188,-174
2021-12-23 17:28:18.842195,-156
2021-12-23 17:28:18.842201,-146
2021-12-23 17:28:18.842208,-130
2021-12-23 17:28:18.842214,-100
2021-12-23 17:28:18.842221,-81
2021-12-23 17:28:18.842227,-58
2021-12-23 17:28:18.842234,-39
2021-12-23 17:28:18.842240,-62
2021-12-23 17:28:18.842247,-76
2021-12-23 17:28:18.842253,-58
2021-12-23 17:28:18.842260,-53
2021-12-23 17:28:18.842266,-48
2021-12-23 17:28:18.842273,-34
2021-12-23 17:28:19.110813,-32
2021-12-23 17:28:19.110836,-25
2021-12-23 17:28:19.110844,-16
2021-12-23 17:28:19.110851,-18
2021-12-23 17:28:19.110858,-6
2021-12-23 17:28:19.110864,41
2021-12-23 17:28:19.110871,202
2021-12-23 17:28:19.110877,456
2021-12-23 17:28:19.110884,475
2021-12-23 17:28:19.110890,20
2021-12-23 17:28:19.110897,-559
2021-12-23 17:28:19.110903,-634
2021-12-23 17:28:19.110909,-284
2021-12-23 17:28:19.110916,-153
2021-12-23 17:28:19.110922,-191
2021-12-23 17:28:19.110929,-79
2021-12-23 17:28:19.110935,2
2021-12-23 17:28:19.110942,-44
2021-12-23 17:28:19.110948,-30
2021-12-23 17:28:19.110955,39
2021-12-23 17:28:19.110961,60
2021-12-23 17:28:19.110968,58
2021-12-23 17:28:19.110974,72
2021-12-23 17:28:19.110981,79
2021-12-23 17:28:19.110987,93
2021-12-23 17:28:19.110994,128
2021-12-23 17:28:19.111000,151
2021-12-23 17:28:19.111006,163
2021-12-23 17:28:19.111013,181
2021-12-23 17:28:19.111019,209
2021-12-23 17:28:19.292892,240
2021-12-23 17:28:19.292922,284
2021-12-23 17:28:19.292934,324
2021-12-23 17:28:19.292944,342
2021-12-23 17:28:19.292954,326
2021-12-23 17:28:19.292963,282
2021-12-23 17:28:19.292973,263
2021-12-23 17:28:19.292983,263
2021-12-23 17:28:19.292992,216
2021-12-23 17:28:19.293002,125
2021-12-23 17:28:19.293012,20
2021-12-23 17:28:19.293022,-62
2021-12-23 17:28:19.293031,-102
2021-12-23 17:28:19.293041,-123
2021-12-23 17:28:19.293051,-156
2021-12-23 17:28:19.293060,-200
2021-12-23 17:28:19.293070,-240
2021-12-23 17:28:19.293079,-244
2021-12-23 17:28:19.293089,-214
2021-12-23 17:28:19.293099,-184
2021-12-23 17:28:19.293108,-172
2021-12-23 17:28:19.293118,-163
2021-12-23 17:28:19.293128,-151
2021-12-23 17:28:19.293137,-137
2021-12-23 17:28:19.293147,-114
2021-12-23 17:28:19.293157,-88
2021-12-23 17:28:19.293167,-72
2021-12-23 17:28:19.293176,-65
2021-12-23 17:28:19.293186,-60
2021-12-23 17:28:19.293196,-55
2021-12-23 17:28:19.517866,-37
2021-12-23 17:28:19.517896,-16
2021-12-23 17:28:19.517908,-9
2021-12-23 17:28:19.517918,-30
2021-12-23 17:28:19.517928,-69
2021-12-23 17:28:19.517938,-74
2021-12-23 17:28:19.517948,-48
2021-12-23 17:28:19.517958,-41
2021-12-23 17:28:19.517967,-55
2021-12-23 17:28:19.517977,-90
2021-12-23 17:28:19.517987,-132
2021-12-23 17:28:19.517997,-151
2021-12-23 17:28:19.518007,-142
2021-12-23 17:28:19.518017,-128
2021-12-23 17:28:19.518027,-137
2021-12-23 17:28:19.518036,-191
2021-12-23 17:28:19.518046,-237
2021-12-23 17:28:19.518056,-230
2021-12-23 17:28:19.518066,-212
2021-12-23 17:28:19.518076,-195
2021-12-23 17:28:19.518086,-177
2021-12-23 17:28:19.518096,-174
2021-12-23 17:28:19.518106,-177
2021-12-23 17:28:19.518116,-156
2021-12-23 17:28:19.518126,-128
2021-12-23 17:28:19.518135,-114
2021-12-23 17:28:19.518145,-107
2021-12-23 17:28:19.518155,-118
2021-12-23 17:28:19.518165,-130
2021-12-23 17:28:19.518175,-111
2021-12-23 17:28:19.787593,-81
2021-12-23 17:28:19.787625,-65
2021-12-23 17:28:19.787636,-62
2021-12-23 17:28:19.787647,-83
2021-12-23 17:28:19.787656,-88
2021-12-23 17:28:19.787666,-51
2021-12-23 17:28:19.787676,-32
2021-12-23 17:28:19.787686,-44
2021-12-23 17:28:19.787695,-53
2021-12-23 17:28:19.787705,-76
2021-12-23 17:28:19.787715,-88
2021-12-23 17:28:19.787725,-62
2021-12-23 17:28:19.787734,-32
2021-12-23 17:28:19.787744,-18
2021-12-23 17:28:19.787754,-16
2021-12-23 17:28:19.787764,-27
2021-12-23 17:28:19.787774,-23
2021-12-23 17:28:19.787797,58
2021-12-23 17:28:19.787807,268
2021-12-23 17:28:19.787817,515
2021-12-23 17:28:19.787827,517
2021-12-23 17:28:19.787957,90
2021-12-23 17:28:19.788010,-470
2021-12-23 17:28:19.788031,-531
2021-12-23 17:28:19.788050,-142
2021-12-23 17:28:19.788061,11
2021-12-23 17:28:19.788085,-39
2021-12-23 17:28:19.788092,44
2021-12-23 17:28:19.788099,123
2021-12-23 17:28:19.788105,107
2021-12-23 17:28:20.012478,116
2021-12-23 17:28:20.012509,158
2021-12-23 17:28:20.012521,156
2021-12-23 17:28:20.012531,137
2021-12-23 17:28:20.012541,156
2021-12-23 17:28:20.012550,193
2021-12-23 17:28:20.012560,209
2021-12-23 17:28:20.012570,219
2021-12-23 17:28:20.012579,212
2021-12-23 17:28:20.012589,191
2021-12-23 17:28:20.012599,216
2021-12-23 17:28:20.012609,277
2021-12-23 17:28:20.012618,314
2021-12-23 17:28:20.012628,340
2021-12-23 17:28:20.012638,347
2021-12-23 17:28:20.012647,335
2021-12-23 17:28:20.012657,352
2021-12-23 17:28:20.012667,380
2021-12-23 17:28:20.012677,366
2021-12-23 17:28:20.012686,319
2021-12-23 17:28:20.012696,221
2021-12-23 17:28:20.012706,76
2021-12-23 17:28:20.012715,-20
2021-12-23 17:28:20.012725,-53
2021-12-23 17:28:20.012735,-93
2021-12-23 17:28:20.012745,-142
2021-12-23 17:28:20.012755,-177
2021-12-23 17:28:20.012764,-193
2021-12-23 17:28:20.012774,-186
2021-12-23 17:28:20.012784,-163
2021-12-23 17:28:20.282589,-144
2021-12-23 17:28:20.282619,-137
2021-12-23 17:28:20.282631,-137
2021-12-23 17:28:20.282642,-130
2021-12-23 17:28:20.282652,-111
2021-12-23 17:28:20.282662,-79
2021-12-23 17:28:20.282672,-55
2021-12-23 17:28:20.282682,-65
2021-12-23 17:28:20.282692,-95
2021-12-23 17:28:20.282702,-93
2021-12-23 17:28:20.282712,-62
2021-12-23 17:28:20.282722,-65
2021-12-23 17:28:20.282731,-76
2021-12-23 17:28:20.282741,-88
2021-12-23 17:28:20.282751,-130
2021-12-23 17:28:20.282761,-151
2021-12-23 17:28:20.282771,-118
2021-12-23 17:28:20.282781,-88
2021-12-23 17:28:20.282790,-74
2021-12-23 17:28:20.282800,-60
2021-12-23 17:28:20.282810,-60
2021-12-23 17:28:20.282836,-60
2021-12-23 17:28:20.282846,-69
2021-12-23 17:28:20.282856,-207
2021-12-23 17:28:20.282866,-419
2021-12-23 17:28:20.282876,-452
2021-12-23 17:28:20.282885,-338
2021-12-23 17:28:20.282895,-240
2021-12-23 17:28:20.282905,-97
2021-12-23 17:28:20.282915,37
2021-12-23 17:28:20.462910,4
2021-12-23 17:28:20.462940,-102
2021-12-23 17:28:20.462952,-153
2021-12-23 17:28:20.462962,-163
2021-12-23 17:28:20.462972,-132
2021-12-23 17:28:20.462982,-55
2021-12-23 17:28:20.462992,4
2021-12-23 17:28:20.463002,44
2021-12-23 17:28:20.463012,100
2021-12-23 17:28:20.463022,130
2021-12-23 17:28:20.463032,121
2021-12-23 17:28:20.463042,123
2021-12-23 17:28:20.463052,139
2021-12-23 17:28:20.463062,116
2021-12-23 17:28:20.463071,55
2021-12-23 17:28:20.463081,32
2021-12-23 17:28:20.463091,86
2021-12-23 17:28:20.463101,146
2021-12-23 17:28:20.463111,135
2021-12-23 17:28:20.463121,107
2021-12-23 17:28:20.463131,123
2021-12-23 17:28:20.463140,153
2021-12-23 17:28:20.463150,151
2021-12-23 17:28:20.463160,137
2021-12-23 17:28:20.463170,116
2021-12-23 17:28:20.463180,-11
2021-12-23 17:28:20.463190,-153
2021-12-23 17:28:20.463200,-76
2021-12-23 17:28:20.463210,16
2021-12-23 17:28:20.463220,-2
2021-12-23 17:28:20.687913,46
2021-12-23 17:28:20.687934,132
2021-12-23 17:28:20.687942,170
2021-12-23 17:28:20.687948,258
2021-12-23 17:28:20.687955,522
2021-12-23 17:28:20.687961,790
2021-12-23 17:28:20.687968,685
2021-12-23 17:28:20.687975,121
2021-12-23 17:28:20.687981,-429
2021-12-23 17:28:20.687988,-373
2021-12-23 17:28:20.687995,4
2021-12-23 17:28:20.688001,81
2021-12-23 17:28:20.688008,27
2021-12-23 17:28:20.688014,132
2021-12-23 17:28:20.688021,193
2021-12-23 17:28:20.688027,160
2021-12-23 17:28:20.688034,170
2021-12-23 17:28:20.688040,198
2021-12-23 17:28:20.688047,184
2021-12-23 17:28:20.688053,181
2021-12-23 17:28:20.688059,209
2021-12-23 17:28:20.688066,219
2021-12-23 17:28:20.688072,228
2021-12-23 17:28:20.688079,251
2021-12-23 17:28:20.688085,258
2021-12-23 17:28:20.688092,265
2021-12-23 17:28:20.688099,268
2021-12-23 17:28:20.688105,251
2021-12-23 17:28:20.688112,258
2021-12-23 17:28:20.688118,307
2021-12-23 17:28:20.912584,342
2021-12-23 17:28:20.912615,359
2021-12-23 17:28:20.912626,380
2021-12-23 17:28:20.912636,375
2021-12-23 17:28:20.912646,345
2021-12-23 17:28:20.912656,289
2021-12-23 17:28:20.912666,202
2021-12-23 17:28:20.912676,135
2021-12-23 17:28:20.912686,76
2021-12-23 17:28:20.912696,9
2021-12-23 17:28:20.912706,-37
2021-12-23 17:28:20.912716,-83
2021-12-23 17:28:20.912726,-139
2021-12-23 17:28:20.912736,-153
2021-12-23 17:28:20.912746,-142
2021-12-23 17:28:20.912756,-149
2021-12-23 17:28:20.912766,-151
2021-12-23 17:28:20.912776,-151
2021-12-23 17:28:20.912786,-156
2021-12-23 17:28:20.912796,-137
2021-12-23 17:28:20.912806,-132
2021-12-23 17:28:20.912816,-179
2021-12-23 17:28:20.912826,-214
2021-12-23 17:28:20.912836,-258
2021-12-23 17:28:20.912846,-373
2021-12-23 17:28:20.912856,-396
2021-12-23 17:28:20.912866,-200
2021-12-23 17:28:20.912876,-13
2021-12-23 17:28:20.912886,-27
2021-12-23 17:28:20.912896,-104
2021-12-23 17:28:21.181235,-97
2021-12-23 17:28:21.181258,-100
2021-12-23 17:28:21.181265,-167
2021-12-23 17:28:21.181272,-191
2021-12-23 17:28:21.181279,-177
2021-12-23 17:28:21.181286,-205
2021-12-23 17:28:21.181292,-212
2021-12-23 17:28:21.181299,-177
2021-12-23 17:28:21.181305,-172
2021-12-23 17:28:21.181312,-179
2021-12-23 17:28:21.181318,-184
2021-12-23 17:28:21.181325,-214
2021-12-23 17:28:21.181331,-230
2021-12-23 17:28:21.181338,-219
2021-12-23 17:28:21.181344,-214
2021-12-23 17:28:21.181351,-221
2021-12-23 17:28:21.181357,-233
2021-12-23 17:28:21.181364,-237
2021-12-23 17:28:21.181370,-214
2021-12-23 17:28:21.181377,-181
2021-12-23 17:28:21.181383,-174
2021-12-23 17:28:21.181390,-181
2021-12-23 17:28:21.181396,-186
2021-12-23 17:28:21.181403,-172
2021-12-23 17:28:21.181409,-146
2021-12-23 17:28:21.181416,-125
2021-12-23 17:28:21.181423,-116
2021-12-23 17:28:21.181429,-121
2021-12-23 17:28:21.181436,-135
2021-12-23 17:28:21.181442,-125
2021-12-23 17:28:21.408072,-100
2021-12-23 17:28:21.408103,-107
2021-12-23 17:28:21.408115,-132
2021-12-23 17:28:21.408125,-146
2021-12-23 17:28:21.408135,-167
2021-12-23 17:28:21.408231,-170
2021-12-23 17:28:21.408242,-123
2021-12-23 17:28:21.408252,-90
2021-12-23 17:28:21.408262,-88
2021-12-23 17:28:21.408271,-93
2021-12-23 17:28:21.408281,-104
2021-12-23 17:28:21.408291,-116
2021-12-23 17:28:21.408301,-109
2021-12-23 17:28:21.408311,-93
2021-12-23 17:28:21.408321,-83
2021-12-23 17:28:21.408331,-88
2021-12-23 17:28:21.408341,-95
2021-12-23 17:28:21.408350,-81
2021-12-23 17:28:21.408360,-48
2021-12-23 17:28:21.408370,-34
2021-12-23 17:28:21.408380,-34
2021-12-23 17:28:21.408390,-16
2021-12-23 17:28:21.408400,125
2021-12-23 17:28:21.408410,419
2021-12-23 17:28:21.408420,615
2021-12-23 17:28:21.408430,415
2021-12-23 17:28:21.408440,-170
2021-12-23 17:28:21.408450,-596
2021-12-23 17:28:21.408460,-389
2021-12-23 17:28:21.408470,-51
2021-12-23 17:28:21.632407,-37
2021-12-23 17:28:21.632438,-11
2021-12-23 17:28:21.632449,102
2021-12-23 17:28:21.632460,62
2021-12-23 17:28:21.632470,-11
2021-12-23 17:28:21.632479,34
2021-12-23 17:28:21.632489,67
2021-12-23 17:28:21.632499,18
2021-12-23 17:28:21.632508,-13
2021-12-23 17:28:21.632518,-11
2021-12-23 17:28:21.632528,-6
2021-12-23 17:28:21.632537,16
2021-12-23 17:28:21.632547,53
2021-12-23 17:28:21.632557,79
2021-12-23 17:28:21.632566,90
2021-12-23 17:28:21.632576,79
2021-12-23 17:28:21.632586,93
2021-12-23 17:28:21.632595,156
2021-12-23 17:28:21.632605,216
2021-12-23 17:28:21.632614,256
2021-12-23 17:28:21.632624,282
2021-12-23 17:28:21.632634,270
2021-12-23 17:28:21.632643,251
2021-12-23 17:28:21.632653,254
2021-12-23 17:28:21.632662,230
2021-12-23 17:28:21.632672,151
2021-12-23 17:28:21.632682,44
2021-12-23 17:28:21.632692,-55
2021-12-23 17:28:21.632702,-137
2021-12-23 17:28:21.632711,-195
2021-12-23 17:28:21.902815,-221
2021-12-23 17:28:21.902846,-240
2021-12-23 17:28:21.902858,-284
2021-12-23 17:28:21.902868,-312
2021-12-23 17:28:21.902878,-275
2021-12-23 17:28:21.902888,-265
2021-12-23 17:28:21.902897,-284
2021-12-23 17:28:21.902907,-249
2021-12-23 17:28:21.902917,-242
2021-12-23 17:28:21.902927,-275
2021-12-23 17:28:21.902937,-230
2021-12-23 17:28:21.902946,-165
2021-12-23 17:28:21.902956,-170
2021-12-23 17:28:21.902966,-179
2021-12-23 17:28:21.902976,-179
2021-12-23 17:28:21.902986,-193
2021-12-23 17:28:21.902995,-172
2021-12-23 17:28:21.903005,-128
2021-12-23 17:28:21.903015,-104
2021-12-23 17:28:21.903025,-93
2021-12-23 17:28:21.903035,-83
2021-12-23 17:28:21.903045,-88
2021-12-23 17:28:21.903054,-88
2021-12-23 17:28:21.903064,-62
2021-12-23 17:28:21.903074,-48
2021-12-23 17:28:21.903084,-58
2021-12-23 17:28:21.903094,-83
2021-12-23 17:28:21.903104,-97
2021-12-23 17:28:21.903113,-48
2021-12-23 17:28:21.903123,16
2021-12-23 17:28:22.082758,9
2021-12-23 17:28:22.082791,-25
2021-12-23 17:28:22.082804,-16
2021-12-23 17:28:22.082814,-9
2021-12-23 17:28:22.082824,-18
2021-12-23 17:28:22.082834,-11
2021-12-23 17:28:22.082844,2
2021-12-23 17:28:22.082854,-6
2021-12-23 17:28:22.082864,-27
2021-12-23 17:28:22.082874,-27
2021-12-23 17:28:22.082884,-2
2021-12-23 17:28:22.082894,20
2021-12-23 17:28:22.082904,-9
2021-12-23 17:28:22.082914,-83
2021-12-23 17:28:22.082924,-109
2021-12-23 17:28:22.082934,-72
2021-12-23 17:28:22.082944,-51
2021-12-23 17:28:22.082954,-53
2021-12-23 17:28:22.082964,-44
2021-12-23 17:28:22.082974,-58
2021-12-23 17:28:22.082984,-81
2021-12-23 17:28:22.082993,-60
2021-12-23 17:28:22.083003,-18
2021-12-23 17:28:22.083013,6
2021-12-23 17:28:22.083023,25
2021-12-23 17:28:22.083033,27
2021-12-23 17:28:22.083043,13
2021-12-23 17:28:22.083053,4
2021-12-23 17:28:22.083063,18
2021-12-23 17:28:22.083073,44
2021-12-23 17:28:22.307783,51
2021-12-23 17:28:22.307813,65
2021-12-23 17:28:22.307825,76
2021-12-23 17:28:22.307835,46
2021-12-23 17:28:22.307845,30
2021-12-23 17:28:22.307855,79
2021-12-23 17:28:22.307865,139
2021-12-23 17:28:22.307875,263
2021-12-23 17:28:22.307885,531
2021-12-23 17:28:22.307895,715
2021-12-23 17:28:22.307905,466
2021-12-23 17:28:22.307915,-160
2021-12-23 17:28:22.307925,-543
2021-12-23 17:28:22.307935,-321
2021-12-23 17:28:22.307945,-62
2021-12-23 17:28:22.307955,-86
2021-12-23 17:28:22.307964,-41
2021-12-23 17:28:22.307974,81
2021-12-23 17:28:22.307984,79
2021-12-23 17:28:22.307994,55
2021-12-23 17:28:22.308004,81
2021-12-23 17:28:22.308014,104
2021-12-23 17:28:22.308024,146
2021-12-23 17:28:22.308034,193
2021-12-23 17:28:22.308044,198
2021-12-23 17:28:22.308053,198
2021-12-23 17:28:22.308063,209
2021-12-23 17:28:22.308073,191
2021-12-23 17:28:22.308083,153
2021-12-23 17:28:22.308093,144
2021-12-23 17:28:22.532706,165
2021-12-23 17:28:22.532736,205
2021-12-23 17:28:22.532748,256
2021-12-23 17:28:22.532759,286
2021-12-23 17:28:22.532769,312
2021-12-23 17:28:22.532779,338
2021-12-23 17:28:22.532789,305
2021-12-23 17:28:22.532799,228
2021-12-23 17:28:22.532809,193
2021-12-23 17:28:22.532819,146
2021-12-23 17:28:22.532829,55
2021-12-23 17:28:22.532839,-37
2021-12-23 17:28:22.532849,-160
2021-12-23 17:28:22.532859,-258
2021-12-23 17:28:22.532869,-284
2021-12-23 17:28:22.532879,-317
2021-12-23 17:28:22.532889,-342
2021-12-23 17:28:22.532899,-324
2021-12-23 17:28:22.532908,-324
2021-12-23 17:28:22.532918,-359
2021-12-23 17:28:22.532928,-349
2021-12-23 17:28:22.532938,-314
2021-12-23 17:28:22.532948,-293
2021-12-23 17:28:22.532958,-275
2021-12-23 17:28:22.532968,-256
2021-12-23 17:28:22.532978,-233
2021-12-23 17:28:22.532988,-200
2021-12-23 17:28:22.532998,-184
2021-12-23 17:28:22.533007,-167
2021-12-23 17:28:22.533017,-144
2021-12-23 17:28:22.757500,-132
2021-12-23 17:28:22.757531,-116
2021-12-23 17:28:22.757543,-95
2021-12-23 17:28:22.757553,-90
2021-12-23 17:28:22.757563,-88
2021-12-23 17:28:22.757573,-95
2021-12-23 17:28:22.757582,-104
2021-12-23 17:28:22.757592,-74
2021-12-23 17:28:22.757602,-55
2021-12-23 17:28:22.757611,-76
2021-12-23 17:28:22.757621,-88
2021-12-23 17:28:22.757631,-97
2021-12-23 17:28:22.757640,-109
2021-12-23 17:28:22.757650,-111
2021-12-23 17:28:22.757660,-121
2021-12-23 17:28:22.757669,-130
2021-12-23 17:28:22.757679,-123
2021-12-23 17:28:22.757689,-123
2021-12-23 17:28:22.757698,-118
2021-12-23 17:28:22.757708,-88
2021-12-23 17:28:22.757718,-65
2021-12-23 17:28:22.757727,-74
2021-12-23 17:28:22.757737,-79
2021-12-23 17:28:22.757747,-72
2021-12-23 17:28:22.757756,-67
2021-12-23 17:28:22.757766,-44
2021-12-23 17:28:22.757776,-9
2021-12-23 17:28:22.757786,4
2021-12-23 17:28:22.757795,4
2021-12-23 17:28:22.757805,-2
2021-12-23 17:28:22.982442,-16
2021-12-23 17:28:22.982473,-13
2021-12-23 17:28:22.982485,4
2021-12-23 17:28:22.982495,2
2021-12-23 17:28:22.982506,-25
2021-12-23 17:28:22.982516,-44
2021-12-23 17:28:22.982526,-30
2021-12-23 17:28:22.982536,-11
2021-12-23 17:28:22.982545,-9
2021-12-23 17:28:22.982555,-9
2021-12-23 17:28:22.982565,32
2021-12-23 17:28:22.982575,214
2021-12-23 17:28:22.982585,512
2021-12-23 17:28:22.982595,599
2021-12-23 17:28:22.982605,186
2021-12-23 17:28:22.982615,-473
2021-12-23 17:28:22.982625,-645
2021-12-23 17:28:22.982634,-244
2021-12-23 17:28:22.982644,-23
2021-12-23 17:28:22.982654,-83
2021-12-23 17:28:22.982664,-6
2021-12-23 17:28:22.982674,88
2021-12-23 17:28:22.982684,53
2021-12-23 17:28:22.982694,30
2021-12-23 17:28:22.982703,13
2021-12-23 17:28:22.982713,-25
2021-12-23 17:28:22.982723,-2
2021-12-23 17:28:22.982733,34
2021-12-23 17:28:22.982743,27
2021-12-23 17:28:22.982753,44
2021-12-23 17:28:23.251955,93
2021-12-23 17:28:23.251985,116
2021-12-23 17:28:23.251997,132
2021-12-23 17:28:23.252007,149
2021-12-23 17:28:23.252017,146
2021-12-23 17:28:23.252027,170
2021-12-23 17:28:23.252037,235
2021-12-23 17:28:23.252046,289
2021-12-23 17:28:23.252056,314
2021-12-23 17:28:23.252066,317
2021-12-23 17:28:23.252075,284
2021-12-23 17:28:23.252085,261
2021-12-23 17:28:23.252095,258
2021-12-23 17:28:23.252105,228
2021-12-23 17:28:23.252114,137
2021-12-23 17:28:23.252124,18
2021-12-23 17:28:23.252134,-88
2021-12-23 17:28:23.252144,-170
2021-12-23 17:28:23.252153,-240
2021-12-23 17:28:23.252163,-291
2021-12-23 17:28:23.252173,-298
2021-12-23 17:28:23.252182,-300
2021-12-23 17:28:23.252192,-312
2021-12-23 17:28:23.252201,-291
2021-12-23 17:28:23.252211,-254
2021-12-23 17:28:23.252221,-230
2021-12-23 17:28:23.252231,-219
2021-12-23 17:28:23.252240,-226
2021-12-23 17:28:23.252250,-223
2021-12-23 17:28:23.252260,-188
2021-12-23 17:28:23.477502,-149
2021-12-23 17:28:23.477532,-137
2021-12-23 17:28:23.477544,-144
2021-12-23 17:28:23.477554,-179
2021-12-23 17:28:23.477564,-207
2021-12-23 17:28:23.477574,-167
2021-12-23 17:28:23.477584,-114
2021-12-23 17:28:23.477594,-88
2021-12-23 17:28:23.477604,-88
2021-12-23 17:28:23.477614,-111
2021-12-23 17:28:23.477624,-125
2021-12-23 17:28:23.477634,-107
2021-12-23 17:28:23.477643,-81
2021-12-23 17:28:23.477653,-69
2021-12-23 17:28:23.477663,-81
2021-12-23 17:28:23.477673,-116
2021-12-23 17:28:23.477683,-118
2021-12-23 17:28:23.477693,-76
2021-12-23 17:28:23.477703,-53
2021-12-23 17:28:23.477713,-74
2021-12-23 17:28:23.477723,-104
2021-12-23 17:28:23.477733,-118
2021-12-23 17:28:23.477742,-100
2021-12-23 17:28:23.477752,-69
2021-12-23 17:28:23.477762,-51
2021-12-23 17:28:23.477772,-30
2021-12-23 17:28:23.477782,-18
2021-12-23 17:28:23.477792,-30
2021-12-23 17:28:23.477801,-20
2021-12-23 17:28:23.477811,-11
2021-12-23 17:28:23.702826,-58
2021-12-23 17:28:23.702857,-90
2021-12-23 17:28:23.702869,-79
2021-12-23 17:28:23.702879,-74
2021-12-23 17:28:23.702889,-60
2021-12-23 17:28:23.702899,-27
2021-12-23 17:28:23.702909,-11
2021-12-23 17:28:23.702918,-11
2021-12-23 17:28:23.702928,-25
2021-12-23 17:28:23.702938,-37
2021-12-23 17:28:23.702948,58
2021-12-23 17:28:23.702958,338
2021-12-23 17:28:23.702967,641
2021-12-23 17:28:23.702977,624
2021-12-23 17:28:23.702987,65
2021-12-23 17:28:23.702997,-592
2021-12-23 17:28:23.703007,-550
2021-12-23 17:28:23.703017,-88
2021-12-23 17:28:23.703026,-4
2021-12-23 17:28:23.703036,-67
2021-12-23 17:28:23.703046,46
2021-12-23 17:28:23.703056,81
2021-12-23 17:28:23.703065,20
2021-12-23 17:28:23.703075,48
2021-12-23 17:28:23.703085,97
2021-12-23 17:28:23.703094,90
2021-12-23 17:28:23.703104,86
2021-12-23 17:28:23.703114,104
2021-12-23 17:28:23.703124,128
2021-12-23 17:28:23.703134,158
2021-12-23 17:28:23.927401,193
2021-12-23 17:28:23.927432,223
2021-12-23 17:28:23.927444,233
2021-12-23 17:28:23.927454,242
2021-12-23 17:28:23.927464,282
2021-12-23 17:28:23.927473,328
2021-12-23 17:28:23.927483,352
2021-12-23 17:28:23.927493,352
2021-12-23 17:28:23.927503,340
2021-12-23 17:28:23.927512,340
2021-12-23 17:28:23.927522,361
2021-12-23 17:28:23.927532,347
2021-12-23 17:28:23.927541,291
2021-12-23 17:28:23.927551,207
2021-12-23 17:28:23.927560,97
2021-12-23 17:28:23.927570,9
2021-12-23 17:28:23.927580,-37
2021-12-23 17:28:23.927590,-76
2021-12-23 17:28:23.927599,-114
2021-12-23 17:28:23.927609,-137
2021-12-23 17:28:23.927619,-158
2021-12-23 17:28:23.927628,-165
2021-12-23 17:28:23.927638,-151
2021-12-23 17:28:23.927648,-144
2021-12-23 17:28:23.927657,-163
2021-12-23 17:28:23.927667,-172
2021-12-23 17:28:23.927677,-156
2021-12-23 17:28:23.927687,-142
2021-12-23 17:28:23.927697,-144
2021-12-23 17:28:23.927706,-137
2021-12-23 17:28:24.151554,-135
2021-12-23 17:28:24.151576,-153
2021-12-23 17:28:24.151583,-146
2021-12-23 17:28:24.151590,-125
2021-12-23 17:28:24.151597,-125
2021-12-23 17:28:24.151604,-135
2021-12-23 17:28:24.151610,-170
2021-12-23 17:28:24.151617,-207
2021-12-23 17:28:24.151623,-200
2021-12-23 17:28:24.151630,-170
2021-12-23 17:28:24.151636,-158
2021-12-23 17:28:24.151643,-151
2021-12-23 17:28:24.151649,-156
2021-12-23 17:28:24.151656,-181
2021-12-23 17:28:24.151662,-181
2021-12-23 17:28:24.151669,-151
2021-12-23 17:28:24.151675,-123
2021-12-23 17:28:24.151682,-97
2021-12-23 17:28:24.151688,-44
2021-12-23 17:28:24.151695,88
2021-12-23 17:28:24.151702,216
2021-12-23 17:28:24.151708,200
2021-12-23 17:28:24.151715,156
2021-12-23 17:28:24.151731,186
2021-12-23 17:28:24.151737,195
2021-12-23 17:28:24.151744,165
2021-12-23 17:28:24.151751,151
2021-12-23 17:28:24.151757,158
2021-12-23 17:28:24.151764,174
2021-12-23 17:28:24.151770,179
2021-12-23 17:28:24.376906,149
2021-12-23 17:28:24.376923,116
2021-12-23 17:28:24.376928,123
2021-12-23 17:28:24.376933,128
2021-12-23 17:28:24.376937,123
2021-12-23 17:28:24.376942,132
2021-12-23 17:28:24.376946,114
2021-12-23 17:28:24.376951,86
2021-12-23 17:28:24.376955,107
2021-12-23 17:28:24.376960,139
2021-12-23 17:28:24.376964,177
2021-12-23 17:28:24.376969,317
2021-12-23 17:28:24.376973,557
2021-12-23 17:28:24.376978,706
2021-12-23 17:28:24.376982,505
2021-12-23 17:28:24.376987,-81
2021-12-23 17:28:24.376992,-491
2021-12-23 17:28:24.376996,-240
2021-12-23 17:28:24.377001,88
2021-12-23 17:28:24.377005,46
2021-12-23 17:28:24.377010,51
2021-12-23 17:28:24.377015,188
2021-12-23 17:28:24.377019,200
2021-12-23 17:28:24.377024,165
2021-12-23 17:28:24.377028,195
2021-12-23 17:28:24.377033,216
2021-12-23 17:28:24.377037,212
2021-12-23 17:28:24.377042,205
2021-12-23 17:28:24.377046,191
2021-12-23 17:28:24.377051,195
2021-12-23 17:28:24.602152,226
2021-12-23 17:28:24.602168,254
2021-12-23 17:28:24.602173,265
2021-12-23 17:28:24.602178,284
2021-12-23 17:28:24.602183,321
2021-12-23 17:28:24.602187,340
2021-12-23 17:28:24.602192,340
2021-12-23 17:28:24.602196,384
2021-12-23 17:28:24.602244,435
2021-12-23 17:28:24.602250,433
2021-12-23 17:28:24.602254,391
2021-12-23 17:28:24.602259,326
2021-12-23 17:28:24.602263,268
2021-12-23 17:28:24.602268,237
2021-12-23 17:28:24.602272,186
2021-12-23 17:28:24.602277,93
2021-12-23 17:28:24.602281,11
2021-12-23 17:28:24.602286,-53
2021-12-23 17:28:24.602290,-104
2021-12-23 17:28:24.602295,-107
2021-12-23 17:28:24.602299,-111
2021-12-23 17:28:24.602304,-156
2021-12-23 17:28:24.602308,-186
2021-12-23 17:28:24.602313,-174
2021-12-23 17:28:24.602317,-156
2021-12-23 17:28:24.602322,-139
2021-12-23 17:28:24.602326,-121
2021-12-23 17:28:24.602331,-114
2021-12-23 17:28:24.602335,-104
2021-12-23 17:28:24.602340,-93
2021-12-23 17:28:24.826403,-102
2021-12-23 17:28:24.826420,-93
2021-12-23 17:28:24.826426,-72
2021-12-23 17:28:24.826432,-72
2021-12-23 17:28:24.826437,-86
2021-12-23 17:28:24.826443,-95
2021-12-23 17:28:24.826448,-88
2021-12-23 17:28:24.826453,-60
2021-12-23 17:28:24.826458,-51
2021-12-23 17:28:24.826463,-60
2021-12-23 17:28:24.826469,-72
2021-12-23 17:28:24.826474,-86
2021-12-23 17:28:24.826479,-83
2021-12-23 17:28:24.826484,-72
2021-12-23 17:28:24.826489,-90
2021-12-23 17:28:24.826494,-116
2021-12-23 17:28:24.826499,-135
2021-12-23 17:28:24.826505,-149
2021-12-23 17:28:24.826510,-135
2021-12-23 17:28:24.826515,-111
2021-12-23 17:28:24.826520,-100
2021-12-23 17:28:24.826525,-93
2021-12-23 17:28:24.826530,-88
2021-12-23 17:28:24.826535,-79
2021-12-23 17:28:24.826540,-76
2021-12-23 17:28:24.826545,-76
2021-12-23 17:28:24.826551,-69
2021-12-23 17:28:24.826556,-65
2021-12-23 17:28:24.826561,-74
2021-12-23 17:28:24.826566,-72
2021-12-23 17:28:25.096908,-53
2021-12-23 17:28:25.096924,-51
2021-12-23 17:28:25.096929,-67
2021-12-23 17:28:25.096934,-76
2021-12-23 17:28:25.096938,-51
2021-12-23 17:28:25.096943,102
2021-12-23 17:28:25.096947,380
2021-12-23 17:28:25.096952,505
2021-12-23 17:28:25.096956,219
2021-12-23 17:28:25.096961,-380
2021-12-23 17:28:25.096965,-697
2021-12-23 17:28:25.096970,-380
2021-12-23 17:28:25.096974,-72
2021-12-23 17:28:25.096979,-111
2021-12-23 17:28:25.096984,-65
2021-12-23 17:28:25.096988,55
2021-12-23 17:28:25.096993,18
2021-12-23 17:28:25.096997,-32
2021-12-23 17:28:25.097002,20
2021-12-23 17:28:25.097006,62
2021-12-23 17:28:25.097011,53
2021-12-23 17:28:25.097015,55
2021-12-23 17:28:25.097020,76
2021-12-23 17:28:25.097024,107
2021-12-23 17:28:25.097029,139
2021-12-23 17:28:25.097033,165
2021-12-23 17:28:25.097038,186
2021-12-23 17:28:25.097042,207
2021-12-23 17:28:25.097047,228
2021-12-23 17:28:25.097051,275
2021-12-23 17:28:25.365845,328
2021-12-23 17:28:25.365867,368
2021-12-23 17:28:25.365875,394
2021-12-23 17:28:25.365882,391
2021-12-23 17:28:25.365888,361
2021-12-23 17:28:25.365895,340
2021-12-23 17:28:25.365901,321
2021-12-23 17:28:25.365908,268
2021-12-23 17:28:25.365914,170
2021-12-23 17:28:25.365920,44
2021-12-23 17:28:25.365927,-51
2021-12-23 17:28:25.365934,-86
2021-12-23 17:28:25.365940,-104
2021-12-23 17:28:25.365947,-123
2021-12-23 17:28:25.365953,-144
2021-12-23 17:28:25.365960,-184
