Time,ECG
2021-12-23 17:17:53.129070,-111
2021-12-23 17:17:53.129087,-151
2021-12-23 17:17:53.129093,-179
2021-12-23 17:17:53.129099,-149
2021-12-23 17:17:53.129104,-107
2021-12-23 17:17:53.129110,-97
2021-12-23 17:17:53.129115,-83
2021-12-23 17:17:53.129121,-81
2021-12-23 17:17:53.129126,-121
2021-12-23 17:17:53.129132,-130
2021-12-23 17:17:53.129137,-102
2021-12-23 17:17:53.129142,-109
2021-12-23 17:17:53.129147,-123
2021-12-23 17:17:53.129152,-128
2021-12-23 17:17:53.129158,-149
2021-12-23 17:17:53.129164,-151
2021-12-23 17:17:53.129172,-118
2021-12-23 17:17:53.129181,-95
2021-12-23 17:17:53.129189,-90
2021-12-23 17:17:53.129197,-93
2021-12-23 17:17:53.129205,-86
2021-12-23 17:17:53.129242,-76
2021-12-23 17:17:53.129257,-72
2021-12-23 17:17:53.129264,-60
2021-12-23 17:17:53.129273,-39
2021-12-23 17:17:53.129282,-34
2021-12-23 17:17:53.129313,-39
2021-12-23 17:17:53.129320,-20
2021-12-23 17:17:53.129325,2
2021-12-23 17:17:53.129331,18
2021-12-23 17:17:53.354752,32
2021-12-23 17:17:53.354783,18
2021-12-23 17:17:53.354795,-4
2021-12-23 17:17:53.354806,0
2021-12-23 17:17:53.354816,23
2021-12-23 17:17:53.354826,44
2021-12-23 17:17:53.354838,32
2021-12-23 17:17:53.354848,-6
2021-12-23 17:17:53.354858,-20
2021-12-23 17:17:53.354868,-11
2021-12-23 17:17:53.354878,-16
2021-12-23 17:17:53.354888,2
2021-12-23 17:17:53.354898,62
2021-12-23 17:17:53.354908,200
2021-12-23 17:17:53.354918,408
2021-12-23 17:17:53.354928,431
2021-12-23 17:17:53.354938,25
2021-12-23 17:17:53.354949,-538
2021-12-23 17:17:53.354959,-606
2021-12-23 17:17:53.354969,-195
2021-12-23 17:17:53.354979,-20
2021-12-23 17:17:53.354989,-88
2021-12-23 17:17:53.354999,6
2021-12-23 17:17:53.355010,114
2021-12-23 17:17:53.355020,81
2021-12-23 17:17:53.355030,72
2021-12-23 17:17:53.355040,114
2021-12-23 17:17:53.355050,114
2021-12-23 17:17:53.355060,111
2021-12-23 17:17:53.355074,146
2021-12-23 17:17:53.535240,156
2021-12-23 17:17:53.535269,135
2021-12-23 17:17:53.535281,135
2021-12-23 17:17:53.535292,146
2021-12-23 17:17:53.535302,146
2021-12-23 17:17:53.535312,149
2021-12-23 17:17:53.535322,160
2021-12-23 17:17:53.535331,153
2021-12-23 17:17:53.535341,165
2021-12-23 17:17:53.535351,205
2021-12-23 17:17:53.535361,216
2021-12-23 17:17:53.535371,198
2021-12-23 17:17:53.535380,163
2021-12-23 17:17:53.535396,125
2021-12-23 17:17:53.535405,76
2021-12-23 17:17:53.535416,-13
2021-12-23 17:17:53.535426,-100
2021-12-23 17:17:53.535436,-158
2021-12-23 17:17:53.535446,-230
2021-12-23 17:17:53.535456,-268
2021-12-23 17:17:53.535466,-258
2021-12-23 17:17:53.535476,-261
2021-12-23 17:17:53.535486,-261
2021-12-23 17:17:53.535496,-247
2021-12-23 17:17:53.535505,-240
2021-12-23 17:17:53.535515,-214
2021-12-23 17:17:53.535525,-181
2021-12-23 17:17:53.535535,-172
2021-12-23 17:17:53.535545,-153
2021-12-23 17:17:53.535574,-135
2021-12-23 17:17:53.759798,-125
2021-12-23 17:17:53.759829,-100
2021-12-23 17:17:53.759841,-74
2021-12-23 17:17:53.759851,-74
2021-12-23 17:17:53.759861,-72
2021-12-23 17:17:53.759871,-83
2021-12-23 17:17:53.759880,-104
2021-12-23 17:17:53.759890,-79
2021-12-23 17:17:53.759900,-48
2021-12-23 17:17:53.759910,-58
2021-12-23 17:17:53.759919,-69
2021-12-23 17:17:53.759929,-79
2021-12-23 17:17:53.759939,-95
2021-12-23 17:17:53.759949,-74
2021-12-23 17:17:53.759958,-51
2021-12-23 17:17:53.759968,-60
2021-12-23 17:17:53.759978,-72
2021-12-23 17:17:53.759994,-83
2021-12-23 17:17:53.760004,-95
2021-12-23 17:17:53.760014,-74
2021-12-23 17:17:53.760024,-55
2021-12-23 17:17:53.760033,-60
2021-12-23 17:17:53.760043,-67
2021-12-23 17:17:53.760053,-62
2021-12-23 17:17:53.760063,-48
2021-12-23 17:17:53.760072,-27
2021-12-23 17:17:53.760082,-9
2021-12-23 17:17:53.760092,0
2021-12-23 17:17:53.760102,4
2021-12-23 17:17:53.760112,2
2021-12-23 17:17:53.984792,2
2021-12-23 17:17:53.984822,6
2021-12-23 17:17:53.984834,4
2021-12-23 17:17:53.984845,0
2021-12-23 17:17:53.984855,-27
2021-12-23 17:17:53.984865,-74
2021-12-23 17:17:53.984875,-76
2021-12-23 17:17:53.984892,-39
2021-12-23 17:17:53.984902,-32
2021-12-23 17:17:53.984912,-41
2021-12-23 17:17:53.984922,-39
2021-12-23 17:17:53.984932,-39
2021-12-23 17:17:53.984942,60
2021-12-23 17:17:53.984953,300
2021-12-23 17:17:53.984962,375
2021-12-23 17:17:53.984973,16
2021-12-23 17:17:53.984983,-552
2021-12-23 17:17:53.984993,-697
2021-12-23 17:17:53.985002,-305
2021-12-23 17:17:53.985013,-100
2021-12-23 17:17:53.985023,-179
2021-12-23 17:17:53.985033,-97
2021-12-23 17:17:53.985043,9
2021-12-23 17:17:53.985052,-11
2021-12-23 17:17:53.985062,0
2021-12-23 17:17:53.985072,51
2021-12-23 17:17:53.985082,46
2021-12-23 17:17:53.985092,16
2021-12-23 17:17:53.985102,11
2021-12-23 17:17:53.985113,11
2021-12-23 17:17:54.253458,11
2021-12-23 17:17:54.253488,37
2021-12-23 17:17:54.253500,62
2021-12-23 17:17:54.253510,46
2021-12-23 17:17:54.253520,30
2021-12-23 17:17:54.253529,60
2021-12-23 17:17:54.253539,118
2021-12-23 17:17:54.253549,163
2021-12-23 17:17:54.253559,186
2021-12-23 17:17:54.253569,177
2021-12-23 17:17:54.253579,139
2021-12-23 17:17:54.253588,130
2021-12-23 17:17:54.253598,135
2021-12-23 17:17:54.253608,100
2021-12-23 17:17:54.253618,34
2021-12-23 17:17:54.253628,-41
2021-12-23 17:17:54.253638,-116
2021-12-23 17:17:54.253647,-156
2021-12-23 17:17:54.253657,-167
2021-12-23 17:17:54.253667,-179
2021-12-23 17:17:54.253676,-202
2021-12-23 17:17:54.253686,-235
2021-12-23 17:17:54.253696,-242
2021-12-23 17:17:54.253706,-202
2021-12-23 17:17:54.253721,-170
2021-12-23 17:17:54.253732,-153
2021-12-23 17:17:54.253742,-142
2021-12-23 17:17:54.253752,-149
2021-12-23 17:17:54.253762,-146
2021-12-23 17:17:54.253772,-104
2021-12-23 17:17:54.479071,-69
2021-12-23 17:17:54.479091,-60
2021-12-23 17:17:54.479099,-62
2021-12-23 17:17:54.479105,-95
2021-12-23 17:17:54.479112,-116
2021-12-23 17:17:54.479119,-79
2021-12-23 17:17:54.479125,-46
2021-12-23 17:17:54.479132,-34
2021-12-23 17:17:54.479138,-39
2021-12-23 17:17:54.479145,-86
2021-12-23 17:17:54.479152,-109
2021-12-23 17:17:54.479158,-67
2021-12-23 17:17:54.479165,-39
2021-12-23 17:17:54.479171,-46
2021-12-23 17:17:54.479178,-48
2021-12-23 17:17:54.479184,-58
2021-12-23 17:17:54.479191,-86
2021-12-23 17:17:54.479197,-121
2021-12-23 17:17:54.479204,-121
2021-12-23 17:17:54.479210,-83
2021-12-23 17:17:54.479217,-79
2021-12-23 17:17:54.479223,-104
2021-12-23 17:17:54.479232,-104
2021-12-23 17:17:54.479239,-107
2021-12-23 17:17:54.479246,-118
2021-12-23 17:17:54.479252,-97
2021-12-23 17:17:54.479259,-88
2021-12-23 17:17:54.479265,-107
2021-12-23 17:17:54.479272,-86
2021-12-23 17:17:54.479279,-46
2021-12-23 17:17:54.705054,-53
2021-12-23 17:17:54.705075,-69
2021-12-23 17:17:54.705082,-79
2021-12-23 17:17:54.705089,-104
2021-12-23 17:17:54.705095,-104
2021-12-23 17:17:54.705101,-67
2021-12-23 17:17:54.705108,-51
2021-12-23 17:17:54.705114,-53
2021-12-23 17:17:54.705121,-79
2021-12-23 17:17:54.705127,-116
2021-12-23 17:17:54.705133,-100
2021-12-23 17:17:54.705140,-55
2021-12-23 17:17:54.705146,-23
2021-12-23 17:17:54.705153,23
2021-12-23 17:17:54.705159,139
2021-12-23 17:17:54.705165,310
2021-12-23 17:17:54.705172,333
2021-12-23 17:17:54.705178,37
2021-12-23 17:17:54.705185,-442
2021-12-23 17:17:54.705191,-620
2021-12-23 17:17:54.705198,-300
2021-12-23 17:17:54.705204,-62
2021-12-23 17:17:54.705211,-102
2021-12-23 17:17:54.705217,-46
2021-12-23 17:17:54.705228,34
2021-12-23 17:17:54.705235,-44
2021-12-23 17:17:54.705241,-107
2021-12-23 17:17:54.705248,-62
2021-12-23 17:17:54.705254,-32
2021-12-23 17:17:54.705261,-30
2021-12-23 17:17:54.930238,0
2021-12-23 17:17:54.930268,20
2021-12-23 17:17:54.930279,13
2021-12-23 17:17:54.930289,20
2021-12-23 17:17:54.930299,53
2021-12-23 17:17:54.930309,90
2021-12-23 17:17:54.930319,118
2021-12-23 17:17:54.930328,123
2021-12-23 17:17:54.930338,116
2021-12-23 17:17:54.930348,142
2021-12-23 17:17:54.930357,191
2021-12-23 17:17:54.930367,216
2021-12-23 17:17:54.930377,221
2021-12-23 17:17:54.930386,193
2021-12-23 17:17:54.930396,137
2021-12-23 17:17:54.930406,97
2021-12-23 17:17:54.930415,62
2021-12-23 17:17:54.930425,9
2021-12-23 17:17:54.930435,-51
2021-12-23 17:17:54.930445,-104
2021-12-23 17:17:54.930454,-151
2021-12-23 17:17:54.930464,-198
2021-12-23 17:17:54.930474,-254
2021-12-23 17:17:54.930483,-265
2021-12-23 17:17:54.930493,-228
2021-12-23 17:17:54.930503,-214
2021-12-23 17:17:54.930513,-228
2021-12-23 17:17:54.930523,-242
2021-12-23 17:17:54.930532,-233
2021-12-23 17:17:54.930542,-193
2021-12-23 17:17:55.154471,-165
2021-12-23 17:17:55.154494,-163
2021-12-23 17:17:55.154502,-151
2021-12-23 17:17:55.154509,-132
2021-12-23 17:17:55.154515,-116
2021-12-23 17:17:55.154522,-93
2021-12-23 17:17:55.154529,-90
2021-12-23 17:17:55.154536,-121
2021-12-23 17:17:55.154542,-121
2021-12-23 17:17:55.154549,-95
2021-12-23 17:17:55.154555,-79
2021-12-23 17:17:55.154562,-62
2021-12-23 17:17:55.154568,-65
2021-12-23 17:17:55.154575,-100
2021-12-23 17:17:55.154581,-102
2021-12-23 17:17:55.154588,-76
2021-12-23 17:17:55.154595,-67
2021-12-23 17:17:55.154601,-53
2021-12-23 17:17:55.154608,-44
2021-12-23 17:17:55.154614,-51
2021-12-23 17:17:55.154621,-46
2021-12-23 17:17:55.154627,-39
2021-12-23 17:17:55.154634,-37
2021-12-23 17:17:55.154640,-23
2021-12-23 17:17:55.154647,-4
2021-12-23 17:17:55.154653,-9
2021-12-23 17:17:55.154660,-34
2021-12-23 17:17:55.154667,-55
2021-12-23 17:17:55.154673,-62
2021-12-23 17:17:55.154679,-83
2021-12-23 17:17:55.380205,-107
2021-12-23 17:17:55.380235,-86
2021-12-23 17:17:55.380247,-48
2021-12-23 17:17:55.380257,-46
2021-12-23 17:17:55.380267,-39
2021-12-23 17:17:55.380277,-41
2021-12-23 17:17:55.380286,-88
2021-12-23 17:17:55.380296,-118
2021-12-23 17:17:55.380306,-86
2021-12-23 17:17:55.380316,-62
2021-12-23 17:17:55.380333,-60
2021-12-23 17:17:55.380344,-55
2021-12-23 17:17:55.380354,-76
2021-12-23 17:17:55.380364,-88
2021-12-23 17:17:55.380374,-55
2021-12-23 17:17:55.380384,-20
2021-12-23 17:17:55.380394,25
2021-12-23 17:17:55.380404,142
2021-12-23 17:17:55.380414,298
2021-12-23 17:17:55.380424,289
2021-12-23 17:17:55.380434,4
2021-12-23 17:17:55.380445,-435
2021-12-23 17:17:55.380455,-673
2021-12-23 17:17:55.380465,-412
2021-12-23 17:17:55.380475,-100
2021-12-23 17:17:55.380485,-83
2021-12-23 17:17:55.380495,-55
2021-12-23 17:17:55.380505,9
2021-12-23 17:17:55.380515,-48
2021-12-23 17:17:55.380525,-90
2021-12-23 17:17:55.604849,-48
2021-12-23 17:17:55.604881,-44
2021-12-23 17:17:55.604888,-62
2021-12-23 17:17:55.604894,-44
2021-12-23 17:17:55.604899,-20
2021-12-23 17:17:55.604904,-34
2021-12-23 17:17:55.604910,-41
2021-12-23 17:17:55.604915,0
2021-12-23 17:17:55.604920,39
2021-12-23 17:17:55.604926,53
2021-12-23 17:17:55.604931,72
2021-12-23 17:17:55.604936,76
2021-12-23 17:17:55.604941,86
2021-12-23 17:17:55.604946,139
2021-12-23 17:17:55.604951,177
2021-12-23 17:17:55.604957,167
2021-12-23 17:17:55.604962,163
2021-12-23 17:17:55.604967,153
2021-12-23 17:17:55.604972,128
2021-12-23 17:17:55.604977,93
2021-12-23 17:17:55.604982,39
2021-12-23 17:17:55.604987,-27
2021-12-23 17:17:55.604993,-86
2021-12-23 17:17:55.604998,-125
2021-12-23 17:17:55.605003,-146
2021-12-23 17:17:55.605014,-149
2021-12-23 17:17:55.605020,-149
2021-12-23 17:17:55.605025,-151
2021-12-23 17:17:55.605030,-158
2021-12-23 17:17:55.605035,-149
2021-12-23 17:17:55.829947,-116
2021-12-23 17:17:55.829969,-86
2021-12-23 17:17:55.829977,-90
2021-12-23 17:17:55.829984,-123
2021-12-23 17:17:55.829990,-163
2021-12-23 17:17:55.829997,-177
2021-12-23 17:17:55.830003,-151
2021-12-23 17:17:55.830010,-114
2021-12-23 17:17:55.830022,-102
2021-12-23 17:17:55.830028,-109
2021-12-23 17:17:55.830048,-135
2021-12-23 17:17:55.830053,-149
2021-12-23 17:17:55.830058,-114
2021-12-23 17:17:55.830063,-81
2021-12-23 17:17:55.830068,-86
2021-12-23 17:17:55.830073,-88
2021-12-23 17:17:55.830078,-88
2021-12-23 17:17:55.830083,-81
2021-12-23 17:17:55.830088,-58
2021-12-23 17:17:55.830093,-34
2021-12-23 17:17:55.830098,-32
2021-12-23 17:17:55.830104,-44
2021-12-23 17:17:55.830109,-51
2021-12-23 17:17:55.830114,-37
2021-12-23 17:17:55.830119,-13
2021-12-23 17:17:55.830124,-11
2021-12-23 17:17:55.830129,-34
2021-12-23 17:17:55.830134,-62
2021-12-23 17:17:55.830139,-65
2021-12-23 17:17:55.830144,-53
2021-12-23 17:17:56.054488,-48
2021-12-23 17:17:56.054511,-39
2021-12-23 17:17:56.054519,-53
2021-12-23 17:17:56.054525,-132
2021-12-23 17:17:56.054532,-207
2021-12-23 17:17:56.054539,-195
2021-12-23 17:17:56.054545,-151
2021-12-23 17:17:56.054552,-118
2021-12-23 17:17:56.054558,-111
2021-12-23 17:17:56.054565,-151
2021-12-23 17:17:56.054571,-188
2021-12-23 17:17:56.054578,-184
2021-12-23 17:17:56.054585,-165
2021-12-23 17:17:56.054591,-142
2021-12-23 17:17:56.054598,-121
2021-12-23 17:17:56.054604,-135
2021-12-23 17:17:56.054614,-144
2021-12-23 17:17:56.054621,-114
2021-12-23 17:17:56.054628,-102
2021-12-23 17:17:56.054634,-107
2021-12-23 17:17:56.054641,-86
2021-12-23 17:17:56.054647,-37
2021-12-23 17:17:56.054654,104
2021-12-23 17:17:56.054661,244
2021-12-23 17:17:56.054667,114
2021-12-23 17:17:56.054674,-307
2021-12-23 17:17:56.054680,-690
2021-12-23 17:17:56.054687,-615
2021-12-23 17:17:56.054693,-230
2021-12-23 17:17:56.054700,-86
2021-12-23 17:17:56.412786,-95
2021-12-23 17:17:56.412805,2
2021-12-23 17:17:56.412813,30
2021-12-23 17:17:56.412820,-48
2021-12-23 17:17:56.412827,-60
2021-12-23 17:17:56.412833,-6
2021-12-23 17:17:56.412839,6
2021-12-23 17:17:56.412846,-9
2021-12-23 17:17:56.412852,-27
2021-12-23 17:17:56.412858,-51
2021-12-23 17:17:56.412865,-39
2021-12-23 17:17:56.412871,11
2021-12-23 17:17:56.412877,53
2021-12-23 17:17:56.412884,76
2021-12-23 17:17:56.412890,97
2021-12-23 17:17:56.412896,118
2021-12-23 17:17:56.412903,149
2021-12-23 17:17:56.412909,193
2021-12-23 17:17:56.412916,226
2021-12-23 17:17:56.412922,237
2021-12-23 17:17:56.412928,233
2021-12-23 17:17:56.412935,202
2021-12-23 17:17:56.412941,177
2021-12-23 17:17:56.412947,158
2021-12-23 17:17:56.412954,107
2021-12-23 17:17:56.412961,41
2021-12-23 17:17:56.412967,-23
2021-12-23 17:17:56.412974,-88
2021-12-23 17:17:56.412980,-118
2021-12-23 17:17:56.412986,-118
2021-12-23 17:17:56.549913,-116
2021-12-23 17:17:56.550025,-114
2021-12-23 17:17:56.550081,-125
2021-12-23 17:17:56.550132,-142
2021-12-23 17:17:56.550146,-121
2021-12-23 17:17:56.550158,-67
2021-12-23 17:17:56.550170,-34
2021-12-23 17:17:56.550181,-27
2021-12-23 17:17:56.550193,-60
2021-12-23 17:17:56.550206,-130
2021-12-23 17:17:56.550217,-151
2021-12-23 17:17:56.550229,-93
2021-12-23 17:17:56.550241,-55
2021-12-23 17:17:56.550258,-65
2021-12-23 17:17:56.550265,-86
2021-12-23 17:17:56.550271,-93
2021-12-23 17:17:56.550278,-55
2021-12-23 17:17:56.550284,-32
2021-12-23 17:17:56.550291,-55
2021-12-23 17:17:56.550297,-72
2021-12-23 17:17:56.550304,-83
2021-12-23 17:17:56.550310,-104
2021-12-23 17:17:56.550317,-86
2021-12-23 17:17:56.550323,-44
2021-12-23 17:17:56.550330,-27
2021-12-23 17:17:56.550336,-30
2021-12-23 17:17:56.550343,-46
2021-12-23 17:17:56.550349,-48
2021-12-23 17:17:56.550356,-34
2021-12-23 17:17:56.550362,-30
2021-12-23 17:17:56.819821,-48
2021-12-23 17:17:56.819839,-69
2021-12-23 17:17:56.819845,-83
2021-12-23 17:17:56.819850,-86
2021-12-23 17:17:56.819856,-76
2021-12-23 17:17:56.819861,-67
2021-12-23 17:17:56.819866,-69
2021-12-23 17:17:56.819871,-93
2021-12-23 17:17:56.819876,-128
2021-12-23 17:17:56.819881,-130
2021-12-23 17:17:56.819886,-107
2021-12-23 17:17:56.819891,-102
2021-12-23 17:17:56.819896,-111
2021-12-23 17:17:56.819901,-123
2021-12-23 17:17:56.819907,-139
2021-12-23 17:17:56.819912,-144
2021-12-23 17:17:56.819917,-132
2021-12-23 17:17:56.819922,-118
2021-12-23 17:17:56.819927,-109
2021-12-23 17:17:56.819932,-107
2021-12-23 17:17:56.819937,-107
2021-12-23 17:17:56.819942,-100
2021-12-23 17:17:56.819947,-102
2021-12-23 17:17:56.819952,-116
2021-12-23 17:17:56.819957,-118
2021-12-23 17:17:56.819962,-125
2021-12-23 17:17:56.819967,-100
2021-12-23 17:17:56.819972,62
2021-12-23 17:17:56.819978,286
2021-12-23 17:17:56.819983,263
2021-12-23 17:17:56.999564,-137
2021-12-23 17:17:56.999586,-608
2021-12-23 17:17:56.999593,-634
2021-12-23 17:17:56.999600,-261
2021-12-23 17:17:56.999607,-74
2021-12-23 17:17:56.999613,-88
2021-12-23 17:17:56.999619,-23
2021-12-23 17:17:56.999626,2
2021-12-23 17:17:56.999632,-39
2021-12-23 17:17:56.999639,-18
2021-12-23 17:17:56.999645,20
2021-12-23 17:17:56.999651,23
2021-12-23 17:17:56.999658,23
2021-12-23 17:17:56.999664,18
2021-12-23 17:17:56.999671,-30
2021-12-23 17:17:56.999677,-74
2021-12-23 17:17:56.999684,-44
2021-12-23 17:17:56.999696,2
2021-12-23 17:17:56.999703,-4
2021-12-23 17:17:56.999710,-6
2021-12-23 17:17:56.999716,34
2021-12-23 17:17:56.999723,79
2021-12-23 17:17:56.999729,123
2021-12-23 17:17:56.999736,167
2021-12-23 17:17:56.999742,158
2021-12-23 17:17:56.999748,123
2021-12-23 17:17:56.999755,123
2021-12-23 17:17:56.999762,123
2021-12-23 17:17:56.999768,90
2021-12-23 17:17:56.999775,44
2021-12-23 17:17:57.224290,-18
2021-12-23 17:17:57.224311,-81
2021-12-23 17:17:57.224319,-118
2021-12-23 17:17:57.224326,-153
2021-12-23 17:17:57.224334,-174
2021-12-23 17:17:57.224341,-186
2021-12-23 17:17:57.224347,-221
2021-12-23 17:17:57.224354,-230
2021-12-23 17:17:57.224360,-193
2021-12-23 17:17:57.224367,-177
2021-12-23 17:17:57.224373,-172
2021-12-23 17:17:57.224380,-158
2021-12-23 17:17:57.224386,-167
2021-12-23 17:17:57.224392,-165
2021-12-23 17:17:57.224399,-132
2021-12-23 17:17:57.224405,-146
2021-12-23 17:17:57.224412,-165
2021-12-23 17:17:57.224419,-144
2021-12-23 17:17:57.224425,-128
2021-12-23 17:17:57.224431,-118
2021-12-23 17:17:57.224438,-95
2021-12-23 17:17:57.224444,-88
2021-12-23 17:17:57.224451,-86
2021-12-23 17:17:57.224457,-79
2021-12-23 17:17:57.224464,-76
2021-12-23 17:17:57.224502,-67
2021-12-23 17:17:57.224509,-55
2021-12-23 17:17:57.224515,-58
2021-12-23 17:17:57.224522,-60
2021-12-23 17:17:57.224528,-62
2021-12-23 17:17:57.449863,-81
2021-12-23 17:17:57.449884,-97
2021-12-23 17:17:57.449892,-90
2021-12-23 17:17:57.449898,-88
2021-12-23 17:17:57.449905,-100
2021-12-23 17:17:57.449911,-118
2021-12-23 17:17:57.449918,-135
2021-12-23 17:17:57.449924,-118
2021-12-23 17:17:57.449931,-95
2021-12-23 17:17:57.449942,-102
2021-12-23 17:17:57.449953,-118
2021-12-23 17:17:57.449963,-137
2021-12-23 17:17:57.449975,-151
2021-12-23 17:17:57.449986,-128
2021-12-23 17:17:57.449995,-86
2021-12-23 17:17:57.450002,-69
2021-12-23 17:17:57.450008,-62
2021-12-23 17:17:57.450015,-60
2021-12-23 17:17:57.450022,-79
2021-12-23 17:17:57.450028,-90
2021-12-23 17:17:57.450035,-118
2021-12-23 17:17:57.450041,-170
2021-12-23 17:17:57.450048,-184
2021-12-23 17:17:57.450054,-174
2021-12-23 17:17:57.450060,-179
2021-12-23 17:17:57.450067,-184
2021-12-23 17:17:57.450073,-188
2021-12-23 17:17:57.450080,-184
2021-12-23 17:17:57.450086,-170
2021-12-23 17:17:57.450096,-156
2021-12-23 17:17:57.674961,-74
2021-12-23 17:17:57.674982,151
2021-12-23 17:17:57.674990,356
2021-12-23 17:17:57.674996,207
2021-12-23 17:17:57.675003,-326
2021-12-23 17:17:57.675009,-760
2021-12-23 17:17:57.675015,-613
2021-12-23 17:17:57.675022,-223
2021-12-23 17:17:57.675028,-135
2021-12-23 17:17:57.675034,-149
2021-12-23 17:17:57.675041,-60
2021-12-23 17:17:57.675047,-44
2021-12-23 17:17:57.675053,-62
2021-12-23 17:17:57.675059,-16
2021-12-23 17:17:57.675066,11
2021-12-23 17:17:57.675072,-2
2021-12-23 17:17:57.675078,-2
2021-12-23 17:17:57.675085,20
2021-12-23 17:17:57.675091,46
2021-12-23 17:17:57.675097,51
2021-12-23 17:17:57.675103,39
2021-12-23 17:17:57.675110,44
2021-12-23 17:17:57.675116,72
2021-12-23 17:17:57.675122,102
2021-12-23 17:17:57.675128,144
2021-12-23 17:17:57.675135,188
2021-12-23 17:17:57.675141,214
2021-12-23 17:17:57.675147,212
2021-12-23 17:17:57.675153,202
2021-12-23 17:17:57.675160,212
2021-12-23 17:17:57.900213,221
2021-12-23 17:17:57.900244,207
2021-12-23 17:17:57.900256,158
2021-12-23 17:17:57.900266,65
2021-12-23 17:17:57.900276,-39
2021-12-23 17:17:57.900286,-93
2021-12-23 17:17:57.900296,-109
2021-12-23 17:17:57.900306,-135
2021-12-23 17:17:57.900316,-156
2021-12-23 17:17:57.900327,-193
2021-12-23 17:17:57.900338,-233
2021-12-23 17:17:57.900348,-216
2021-12-23 17:17:57.900358,-167
2021-12-23 17:17:57.900367,-144
2021-12-23 17:17:57.900378,-139
2021-12-23 17:17:57.900388,-142
2021-12-23 17:17:57.900397,-135
2021-12-23 17:17:57.900407,-102
2021-12-23 17:17:57.900417,-69
2021-12-23 17:17:57.900427,-51
2021-12-23 17:17:57.900437,-44
2021-12-23 17:17:57.900447,-67
2021-12-23 17:17:57.900457,-90
2021-12-23 17:17:57.900467,-72
2021-12-23 17:17:57.900477,-34
2021-12-23 17:17:57.900487,-46
2021-12-23 17:17:57.900497,-109
2021-12-23 17:17:57.900507,-144
2021-12-23 17:17:57.900517,-121
2021-12-23 17:17:57.900527,-109
2021-12-23 17:17:58.169462,-130
2021-12-23 17:17:58.169484,-121
2021-12-23 17:17:58.169492,-111
2021-12-23 17:17:58.169499,-163
2021-12-23 17:17:58.169505,-195
2021-12-23 17:17:58.169512,-151
2021-12-23 17:17:58.169519,-114
2021-12-23 17:17:58.169525,-109
2021-12-23 17:17:58.169531,-125
2021-12-23 17:17:58.169538,-170
2021-12-23 17:17:58.169544,-179
2021-12-23 17:17:58.169551,-132
2021-12-23 17:17:58.169557,-100
2021-12-23 17:17:58.169564,-100
2021-12-23 17:17:58.169570,-109
2021-12-23 17:17:58.169577,-121
2021-12-23 17:17:58.169583,-107
2021-12-23 17:17:58.169589,-60
2021-12-23 17:17:58.169595,-20
2021-12-23 17:17:58.169602,-2
2021-12-23 17:17:58.169611,-16
2021-12-23 17:17:58.169618,-58
2021-12-23 17:17:58.169624,-90
2021-12-23 17:17:58.169631,-118
2021-12-23 17:17:58.169637,-135
2021-12-23 17:17:58.169644,-128
2021-12-23 17:17:58.169650,-137
2021-12-23 17:17:58.169657,-151
2021-12-23 17:17:58.169663,-137
2021-12-23 17:17:58.169670,-111
2021-12-23 17:17:58.437757,-97
2021-12-23 17:17:58.437777,-83
2021-12-23 17:17:58.437785,-74
2021-12-23 17:17:58.437792,-9
2021-12-23 17:17:58.437799,219
2021-12-23 17:17:58.437806,410
2021-12-23 17:17:58.437813,214
2021-12-23 17:17:58.437820,-312
2021-12-23 17:17:58.437827,-685
2021-12-23 17:17:58.437834,-515
2021-12-23 17:17:58.437841,-156
2021-12-23 17:17:58.437848,-76
2021-12-23 17:17:58.437855,-62
2021-12-23 17:17:58.437862,32
2021-12-23 17:17:58.437869,9
2021-12-23 17:17:58.437877,-51
2021-12-23 17:17:58.437884,-2
2021-12-23 17:17:58.437891,48
2021-12-23 17:17:58.437898,46
2021-12-23 17:17:58.437905,58
2021-12-23 17:17:58.437912,67
2021-12-23 17:17:58.437919,65
2021-12-23 17:17:58.437926,86
2021-12-23 17:17:58.437933,121
2021-12-23 17:17:58.437940,144
2021-12-23 17:17:58.437947,149
2021-12-23 17:17:58.437954,142
2021-12-23 17:17:58.437961,158
2021-12-23 17:17:58.437968,205
2021-12-23 17:17:58.437975,240
2021-12-23 17:17:58.619422,237
2021-12-23 17:17:58.619437,186
2021-12-23 17:17:58.619442,137
2021-12-23 17:17:58.619447,137
2021-12-23 17:17:58.619452,137
2021-12-23 17:17:58.619456,100
2021-12-23 17:17:58.619461,46
2021-12-23 17:17:58.619465,-30
2021-12-23 17:17:58.619470,-125
2021-12-23 17:17:58.619474,-172
2021-12-23 17:17:58.619479,-172
2021-12-23 17:17:58.619483,-179
2021-12-23 17:17:58.619487,-198
2021-12-23 17:17:58.619492,-223
2021-12-23 17:17:58.619496,-242
2021-12-23 17:17:58.619501,-223
2021-12-23 17:17:58.619505,-184
2021-12-23 17:17:58.619510,-153
2021-12-23 17:17:58.619514,-135
2021-12-23 17:17:58.619519,-125
2021-12-23 17:17:58.619523,-118
2021-12-23 17:17:58.619528,-102
2021-12-23 17:17:58.619532,-81
2021-12-23 17:17:58.619537,-62
2021-12-23 17:17:58.619541,-53
2021-12-23 17:17:58.619546,-55
2021-12-23 17:17:58.619550,-62
2021-12-23 17:17:58.619555,-83
2021-12-23 17:17:58.619559,-107
2021-12-23 17:17:58.619564,-88
2021-12-23 17:17:58.889094,-60
2021-12-23 17:17:58.889136,-86
2021-12-23 17:17:58.889147,-121
2021-12-23 17:17:58.889155,-116
2021-12-23 17:17:58.889163,-97
2021-12-23 17:17:58.889172,-88
2021-12-23 17:17:58.889180,-100
2021-12-23 17:17:58.889188,-130
2021-12-23 17:17:58.889195,-135
2021-12-23 17:17:58.889199,-121
2021-12-23 17:17:58.889204,-107
2021-12-23 17:17:58.889209,-95
2021-12-23 17:17:58.889213,-114
2021-12-23 17:17:58.889218,-153
2021-12-23 17:17:58.889222,-144
2021-12-23 17:17:58.889226,-118
2021-12-23 17:17:58.889231,-109
2021-12-23 17:17:58.889235,-90
2021-12-23 17:17:58.889240,-76
2021-12-23 17:17:58.889244,-69
2021-12-23 17:17:58.889249,-44
2021-12-23 17:17:58.889253,-34
2021-12-23 17:17:58.889260,-48
2021-12-23 17:17:58.889264,-58
2021-12-23 17:17:58.889269,-79
2021-12-23 17:17:58.889273,-90
2021-12-23 17:17:58.889278,-93
2021-12-23 17:17:58.889282,-114
2021-12-23 17:17:58.889287,-118
2021-12-23 17:17:58.889291,-107
2021-12-23 17:17:59.068992,-121
2021-12-23 17:17:59.069008,-121
2021-12-23 17:17:59.069014,-97
2021-12-23 17:17:59.069018,-83
2021-12-23 17:17:59.069023,37
2021-12-23 17:17:59.069028,310
2021-12-23 17:17:59.069032,417
2021-12-23 17:17:59.069037,74
2021-12-23 17:17:59.069041,-491
2021-12-23 17:17:59.069046,-711
2021-12-23 17:17:59.069050,-412
2021-12-23 17:17:59.069055,-146
2021-12-23 17:17:59.069059,-167
2021-12-23 17:17:59.069064,-118
2021-12-23 17:17:59.069068,6
2021-12-23 17:17:59.069073,4
2021-12-23 17:17:59.069077,-20
2021-12-23 17:17:59.069082,-2
2021-12-23 17:17:59.069087,-23
2021-12-23 17:17:59.069091,-18
2021-12-23 17:17:59.069096,32
2021-12-23 17:17:59.069100,53
2021-12-23 17:17:59.069104,65
2021-12-23 17:17:59.069109,88
2021-12-23 17:17:59.069113,100
2021-12-23 17:17:59.069118,116
2021-12-23 17:17:59.069122,153
2021-12-23 17:17:59.069127,179
2021-12-23 17:17:59.069131,202
2021-12-23 17:17:59.069136,233
2021-12-23 17:17:59.294594,251
2021-12-23 17:17:59.294615,237
2021-12-23 17:17:59.294623,144
2021-12-23 17:17:59.294630,76
2021-12-23 17:17:59.294637,163
2021-12-23 17:17:59.294643,160
2021-12-23 17:17:59.294649,-23
2021-12-23 17:17:59.294656,-67
2021-12-23 17:17:59.294662,23
2021-12-23 17:17:59.294669,-18
2021-12-23 17:17:59.294675,-111
2021-12-23 17:17:59.294682,-149
2021-12-23 17:17:59.294688,-179
2021-12-23 17:17:59.294694,-179
2021-12-23 17:17:59.294701,-158
2021-12-23 17:17:59.294707,-163
2021-12-23 17:17:59.294713,-163
2021-12-23 17:17:59.294720,-149
2021-12-23 17:17:59.294726,-128
2021-12-23 17:17:59.294733,-97
2021-12-23 17:17:59.294739,-79
2021-12-23 17:17:59.294746,-79
2021-12-23 17:17:59.294752,-69
2021-12-23 17:17:59.294758,-60
2021-12-23 17:17:59.294765,-48
2021-12-23 17:17:59.294771,-25
2021-12-23 17:17:59.294777,-11
2021-12-23 17:17:59.294784,-16
2021-12-23 17:17:59.294790,-18
2021-12-23 17:17:59.294797,-6
2021-12-23 17:17:59.519730,-6
2021-12-23 17:17:59.519761,-9
2021-12-23 17:17:59.519773,0
2021-12-23 17:17:59.519783,-16
2021-12-23 17:17:59.519793,-93
2021-12-23 17:17:59.519803,-153
2021-12-23 17:17:59.519812,-128
2021-12-23 17:17:59.519822,-88
2021-12-23 17:17:59.519832,-86
2021-12-23 17:17:59.519842,-95
2021-12-23 17:17:59.519851,-118
2021-12-23 17:17:59.519861,-153
2021-12-23 17:17:59.519871,-181
2021-12-23 17:17:59.519880,-195
2021-12-23 17:17:59.519890,-184
2021-12-23 17:17:59.519900,-174
2021-12-23 17:17:59.519909,-181
2021-12-23 17:17:59.519919,-165
2021-12-23 17:17:59.519929,-123
2021-12-23 17:17:59.519938,-83
2021-12-23 17:17:59.519948,-65
2021-12-23 17:17:59.519958,-67
2021-12-23 17:17:59.519967,-81
2021-12-23 17:17:59.519977,-79
2021-12-23 17:17:59.519986,-58
2021-12-23 17:17:59.519996,-48
2021-12-23 17:17:59.520006,-58
2021-12-23 17:17:59.520015,-88
2021-12-23 17:17:59.520025,-118
2021-12-23 17:17:59.520035,-123
2021-12-23 17:17:59.745202,-114
2021-12-23 17:17:59.745233,-107
2021-12-23 17:17:59.745245,-102
2021-12-23 17:17:59.745255,-116
2021-12-23 17:17:59.745265,-69
2021-12-23 17:17:59.745283,149
2021-12-23 17:17:59.745294,359
2021-12-23 17:17:59.745304,207
2021-12-23 17:17:59.745314,-300
2021-12-23 17:17:59.745324,-720
2021-12-23 17:17:59.745334,-601
2021-12-23 17:17:59.745345,-226
2021-12-23 17:17:59.745355,-123
2021-12-23 17:17:59.745365,-121
2021-12-23 17:17:59.745375,-13
2021-12-23 17:17:59.745385,4
2021-12-23 17:17:59.745395,-41
2021-12-23 17:17:59.745405,0
2021-12-23 17:17:59.745415,46
2021-12-23 17:17:59.745426,39
2021-12-23 17:17:59.745436,44
2021-12-23 17:17:59.745446,58
2021-12-23 17:17:59.745456,58
2021-12-23 17:17:59.745466,76
2021-12-23 17:17:59.745476,104
2021-12-23 17:17:59.745486,128
2021-12-23 17:17:59.745496,160
2021-12-23 17:17:59.745506,179
2021-12-23 17:17:59.745516,198
2021-12-23 17:17:59.745526,244
2021-12-23 17:18:00.014565,284
2021-12-23 17:18:00.014586,303
2021-12-23 17:18:00.014594,298
2021-12-23 17:18:00.014601,251
2021-12-23 17:18:00.014612,212
2021-12-23 17:18:00.014624,209
2021-12-23 17:18:00.014632,188
2021-12-23 17:18:00.014638,114
2021-12-23 17:18:00.014645,0
2021-12-23 17:18:00.014653,-104
2021-12-23 17:18:00.014661,-142
2021-12-23 17:18:00.014669,-146
2021-12-23 17:18:00.014678,-158
2021-12-23 17:18:00.014686,-156
2021-12-23 17:18:00.014693,-158
2021-12-23 17:18:00.014701,-179
2021-12-23 17:18:00.014709,-179
2021-12-23 17:18:00.014717,-184
2021-12-23 17:18:00.014725,-209
2021-12-23 17:18:00.014732,-179
2021-12-23 17:18:00.014740,-144
2021-12-23 17:18:00.014748,-163
2021-12-23 17:18:00.014756,-146
2021-12-23 17:18:00.014764,-95
2021-12-23 17:18:00.014772,-72
2021-12-23 17:18:00.014780,-69
2021-12-23 17:18:00.014788,-74
2021-12-23 17:18:00.014796,-81
2021-12-23 17:18:00.014803,-58
2021-12-23 17:18:00.014810,-23
2021-12-23 17:18:00.239748,-11
2021-12-23 17:18:00.239779,-9
2021-12-23 17:18:00.239792,-16
2021-12-23 17:18:00.239802,-34
2021-12-23 17:18:00.239812,-32
2021-12-23 17:18:00.239822,-6
2021-12-23 17:18:00.239831,16
2021-12-23 17:18:00.239841,20
2021-12-23 17:18:00.239851,-25
2021-12-23 17:18:00.239861,-104
2021-12-23 17:18:00.239871,-142
2021-12-23 17:18:00.239881,-123
2021-12-23 17:18:00.239890,-102
2021-12-23 17:18:00.239900,-116
2021-12-23 17:18:00.239910,-156
2021-12-23 17:18:00.239920,-165
2021-12-23 17:18:00.239929,-130
2021-12-23 17:18:00.239939,-97
2021-12-23 17:18:00.239949,-83
2021-12-23 17:18:00.239959,-55
2021-12-23 17:18:00.239969,-51
2021-12-23 17:18:00.239978,-74
2021-12-23 17:18:00.239988,-76
2021-12-23 17:18:00.239998,-55
2021-12-23 17:18:00.240007,-48
2021-12-23 17:18:00.240017,-53
2021-12-23 17:18:00.240027,-60
2021-12-23 17:18:00.240037,-62
2021-12-23 17:18:00.240047,-46
2021-12-23 17:18:00.240057,-23
2021-12-23 17:18:00.508842,-13
2021-12-23 17:18:00.508873,-18
2021-12-23 17:18:00.508885,9
2021-12-23 17:18:00.508895,191
2021-12-23 17:18:00.508906,424
2021-12-23 17:18:00.508916,359
2021-12-23 17:18:00.508926,-104
2021-12-23 17:18:00.508936,-613
2021-12-23 17:18:00.508946,-645
2021-12-23 17:18:00.508956,-268
2021-12-23 17:18:00.508966,-93
2021-12-23 17:18:00.508976,-125
2021-12-23 17:18:00.508986,-74
2021-12-23 17:18:00.508996,-58
2021-12-23 17:18:00.509006,-104
2021-12-23 17:18:00.509016,-81
2021-12-23 17:18:00.509026,-37
2021-12-23 17:18:00.509036,-25
2021-12-23 17:18:00.509046,-9
2021-12-23 17:18:00.509056,6
2021-12-23 17:18:00.509066,11
2021-12-23 17:18:00.509076,27
2021-12-23 17:18:00.509086,34
2021-12-23 17:18:00.509096,6
2021-12-23 17:18:00.509106,6
2021-12-23 17:18:00.509116,48
2021-12-23 17:18:00.509126,81
2021-12-23 17:18:00.509136,102
2021-12-23 17:18:00.509146,121
2021-12-23 17:18:00.509157,151
2021-12-23 17:18:00.690206,202
2021-12-23 17:18:00.690241,226
2021-12-23 17:18:00.690254,195
2021-12-23 17:18:00.690265,158
2021-12-23 17:18:00.690275,135
2021-12-23 17:18:00.690285,104
2021-12-23 17:18:00.690295,20
2021-12-23 17:18:00.690305,-83
2021-12-23 17:18:00.690315,-128
2021-12-23 17:18:00.690325,-149
2021-12-23 17:18:00.690335,-174
2021-12-23 17:18:00.690345,-181
2021-12-23 17:18:00.690355,-200
2021-12-23 17:18:00.690365,-247
2021-12-23 17:18:00.690375,-265
2021-12-23 17:18:00.690385,-244
2021-12-23 17:18:00.690395,-209
2021-12-23 17:18:00.690405,-174
2021-12-23 17:18:00.690415,-163
2021-12-23 17:18:00.690425,-156
2021-12-23 17:18:00.690435,-128
2021-12-23 17:18:00.690445,-107
2021-12-23 17:18:00.690455,-93
2021-12-23 17:18:00.690465,-79
2021-12-23 17:18:00.690475,-79
2021-12-23 17:18:00.690485,-72
2021-12-23 17:18:00.690495,-51
2021-12-23 17:18:00.690505,-53
2021-12-23 17:18:00.690515,-53
2021-12-23 17:18:00.690525,-39
2021-12-23 17:18:00.914778,-41
2021-12-23 17:18:00.914809,-44
2021-12-23 17:18:00.914821,-32
2021-12-23 17:18:00.914831,-34
2021-12-23 17:18:00.914841,-37
2021-12-23 17:18:00.914851,-37
2021-12-23 17:18:00.914861,-69
2021-12-23 17:18:00.914871,-83
2021-12-23 17:18:00.914881,-60
2021-12-23 17:18:00.914891,-55
2021-12-23 17:18:00.914901,-65
2021-12-23 17:18:00.914911,-67
2021-12-23 17:18:00.914921,-83
2021-12-23 17:18:00.914931,-79
2021-12-23 17:18:00.914941,-58
2021-12-23 17:18:00.914951,-83
2021-12-23 17:18:00.914961,-116
2021-12-23 17:18:00.914971,-118
2021-12-23 17:18:00.914981,-118
2021-12-23 17:18:00.914991,-118
2021-12-23 17:18:00.915002,-102
2021-12-23 17:18:00.915011,-93
2021-12-23 17:18:00.915021,-90
2021-12-23 17:18:00.915031,-81
2021-12-23 17:18:00.915041,-76
2021-12-23 17:18:00.915051,-60
2021-12-23 17:18:00.915061,-41
2021-12-23 17:18:00.915071,-41
2021-12-23 17:18:00.915081,-41
2021-12-23 17:18:00.915091,-32
2021-12-23 17:18:01.139784,95
2021-12-23 17:18:01.139815,377
2021-12-23 17:18:01.139838,475
2021-12-23 17:18:01.139849,107
2021-12-23 17:18:01.139859,-480
2021-12-23 17:18:01.139869,-676
2021-12-23 17:18:01.139879,-345
2021-12-23 17:18:01.139889,-109
2021-12-23 17:18:01.139899,-151
2021-12-23 17:18:01.139908,-104
2021-12-23 17:18:01.139918,-34
2021-12-23 17:18:01.139928,-86
2021-12-23 17:18:01.139938,-102
2021-12-23 17:18:01.139948,-37
2021-12-23 17:18:01.139958,-9
2021-12-23 17:18:01.139968,-25
2021-12-23 17:18:01.139978,0
2021-12-23 17:18:01.139988,32
2021-12-23 17:18:01.140038,23
2021-12-23 17:18:01.140050,30
2021-12-23 17:18:01.140064,65
2021-12-23 17:18:01.140074,79
2021-12-23 17:18:01.140084,95
2021-12-23 17:18:01.140094,135
2021-12-23 17:18:01.140104,181
2021-12-23 17:18:01.140115,219
2021-12-23 17:18:01.140125,242
2021-12-23 17:18:01.140135,254
2021-12-23 17:18:01.140145,251
2021-12-23 17:18:01.140155,237
2021-12-23 17:18:01.409118,219
2021-12-23 17:18:01.409139,200
2021-12-23 17:18:01.409147,160
2021-12-23 17:18:01.409153,81
2021-12-23 17:18:01.409160,-32
2021-12-23 17:18:01.409167,-116
2021-12-23 17:18:01.409174,-128
2021-12-23 17:18:01.409180,-135
2021-12-23 17:18:01.409187,-163
2021-12-23 17:18:01.409193,-177
2021-12-23 17:18:01.409200,-191
2021-12-23 17:18:01.409207,-202
2021-12-23 17:18:01.409213,-167
2021-12-23 17:18:01.409220,-125
2021-12-23 17:18:01.409227,-123
2021-12-23 17:18:01.409234,-125
2021-12-23 17:18:01.409240,-111
2021-12-23 17:18:01.409247,-88
2021-12-23 17:18:01.409253,-58
2021-12-23 17:18:01.409260,-48
2021-12-23 17:18:01.409267,-76
2021-12-23 17:18:01.409273,-100
2021-12-23 17:18:01.409280,-86
2021-12-23 17:18:01.409286,-60
2021-12-23 17:18:01.409293,-30
2021-12-23 17:18:01.409299,-9
2021-12-23 17:18:01.409306,-13
2021-12-23 17:18:01.409312,-27
2021-12-23 17:18:01.409319,-27
2021-12-23 17:18:01.409326,-6
2021-12-23 17:18:01.635193,13
2021-12-23 17:18:01.635224,4
2021-12-23 17:18:01.635236,4
2021-12-23 17:18:01.635246,2
2021-12-23 17:18:01.635256,-48
2021-12-23 17:18:01.635266,-90
2021-12-23 17:18:01.635276,-62
2021-12-23 17:18:01.635286,-27
2021-12-23 17:18:01.635296,-32
2021-12-23 17:18:01.635306,-60
2021-12-23 17:18:01.635315,-65
2021-12-23 17:18:01.635329,-27
2021-12-23 17:18:01.635339,-4
2021-12-23 17:18:01.635350,-6
2021-12-23 17:18:01.635359,-13
2021-12-23 17:18:01.635369,-48
2021-12-23 17:18:01.635379,-79
2021-12-23 17:18:01.635389,-60
2021-12-23 17:18:01.635399,-48
2021-12-23 17:18:01.635409,-69
2021-12-23 17:18:01.635419,-65
2021-12-23 17:18:01.635429,-60
2021-12-23 17:18:01.635439,-83
2021-12-23 17:18:01.635449,-69
2021-12-23 17:18:01.635459,-6
2021-12-23 17:18:01.635469,114
2021-12-23 17:18:01.635479,335
2021-12-23 17:18:01.635489,487
2021-12-23 17:18:01.635499,258
2021-12-23 17:18:01.635509,-324
2021-12-23 17:18:01.860204,-648
2021-12-23 17:18:01.860235,-338
2021-12-23 17:18:01.860247,-4
2021-12-23 17:18:01.860258,-46
2021-12-23 17:18:01.860268,-37
2021-12-23 17:18:01.860278,109
2021-12-23 17:18:01.860288,137
2021-12-23 17:18:01.860298,104
2021-12-23 17:18:01.860308,104
2021-12-23 17:18:01.860317,74
2021-12-23 17:18:01.860327,39
2021-12-23 17:18:01.860337,51
2021-12-23 17:18:01.860347,76
2021-12-23 17:18:01.860357,81
2021-12-23 17:18:01.860367,48
2021-12-23 17:18:01.860377,20
2021-12-23 17:18:01.860387,53
2021-12-23 17:18:01.860396,116
2021-12-23 17:18:01.860406,156
2021-12-23 17:18:01.860416,186
2021-12-23 17:18:01.860426,205
2021-12-23 17:18:01.860436,209
2021-12-23 17:18:01.860446,230
2021-12-23 17:18:01.860455,242
2021-12-23 17:18:01.860465,205
2021-12-23 17:18:01.860475,160
2021-12-23 17:18:01.860485,125
2021-12-23 17:18:01.860495,60
2021-12-23 17:18:01.860505,-2
2021-12-23 17:18:01.860515,-41
2021-12-23 17:18:02.084481,-93
2021-12-23 17:18:02.084505,-135
2021-12-23 17:18:02.084513,-167
2021-12-23 17:18:02.084520,-202
2021-12-23 17:18:02.084527,-198
2021-12-23 17:18:02.084533,-160
2021-12-23 17:18:02.084539,-142
2021-12-23 17:18:02.084546,-149
2021-12-23 17:18:02.084552,-172
2021-12-23 17:18:02.084559,-202
2021-12-23 17:18:02.084565,-216
2021-12-23 17:18:02.084572,-209
2021-12-23 17:18:02.084578,-170
2021-12-23 17:18:02.084584,-146
2021-12-23 17:18:02.084591,-172
2021-12-23 17:18:02.084597,-177
2021-12-23 17:18:02.084604,-135
2021-12-23 17:18:02.084610,-104
2021-12-23 17:18:02.084616,-83
2021-12-23 17:18:02.084623,-67
2021-12-23 17:18:02.084630,-76
2021-12-23 17:18:02.084636,-79
2021-12-23 17:18:02.084642,-58
2021-12-23 17:18:02.084649,-37
2021-12-23 17:18:02.084655,-32
2021-12-23 17:18:02.084662,-39
2021-12-23 17:18:02.084668,-65
2021-12-23 17:18:02.084674,-90
2021-12-23 17:18:02.084681,-81
2021-12-23 17:18:02.084687,-48
2021-12-23 17:18:02.310221,-32
2021-12-23 17:18:02.310253,-32
2021-12-23 17:18:02.310265,-30
2021-12-23 17:18:02.310276,-23
2021-12-23 17:18:02.310286,-6
2021-12-23 17:18:02.310296,13
2021-12-23 17:18:02.310306,2
2021-12-23 17:18:02.310316,-39
2021-12-23 17:18:02.310326,-74
2021-12-23 17:18:02.310336,-69
2021-12-23 17:18:02.310346,-44
2021-12-23 17:18:02.310356,-16
2021-12-23 17:18:02.310365,-9
2021-12-23 17:18:02.310375,-37
2021-12-23 17:18:02.310385,-58
2021-12-23 17:18:02.310395,-25
2021-12-23 17:18:02.310404,25
2021-12-23 17:18:02.310414,95
2021-12-23 17:18:02.310424,286
2021-12-23 17:18:02.310434,501
2021-12-23 17:18:02.310444,408
2021-12-23 17:18:02.310454,-118
2021-12-23 17:18:02.310463,-648
2021-12-23 17:18:02.310473,-571
2021-12-23 17:18:02.310483,-139
2021-12-23 17:18:02.310493,-37
2021-12-23 17:18:02.310503,-90
2021-12-23 17:18:02.310512,11
2021-12-23 17:18:02.310522,55
2021-12-23 17:18:02.310532,9
2021-12-23 17:18:02.578313,34
2021-12-23 17:18:02.578337,65
2021-12-23 17:18:02.578345,53
2021-12-23 17:18:02.578351,62
2021-12-23 17:18:02.578358,93
2021-12-23 17:18:02.578364,111
2021-12-23 17:18:02.578371,107
2021-12-23 17:18:02.578377,93
2021-12-23 17:18:02.578384,109
2021-12-23 17:18:02.578390,142
2021-12-23 17:18:02.578397,177
2021-12-23 17:18:02.578403,219
2021-12-23 17:18:02.578409,223
2021-12-23 17:18:02.578416,193
2021-12-23 17:18:02.578422,193
2021-12-23 17:18:02.578428,188
2021-12-23 17:18:02.578435,118
2021-12-23 17:18:02.578441,60
2021-12-23 17:18:02.578447,51
2021-12-23 17:18:02.578454,13
2021-12-23 17:18:02.578460,-60
2021-12-23 17:18:02.578467,-130
2021-12-23 17:18:02.578473,-181
2021-12-23 17:18:02.578479,-221
2021-12-23 17:18:02.578486,-254
2021-12-23 17:18:02.578492,-263
2021-12-23 17:18:02.578498,-258
2021-12-23 17:18:02.578505,-258
2021-12-23 17:18:02.578511,-237
2021-12-23 17:18:02.578518,-223
2021-12-23 17:18:02.759756,-242
2021-12-23 17:18:02.759787,-240
2021-12-23 17:18:02.759799,-200
2021-12-23 17:18:02.759809,-179
2021-12-23 17:18:02.759820,-174
2021-12-23 17:18:02.759830,-167
2021-12-23 17:18:02.759840,-186
2021-12-23 17:18:02.759849,-181
2021-12-23 17:18:02.759864,-139
2021-12-23 17:18:02.759874,-123
2021-12-23 17:18:02.759884,-121
2021-12-23 17:18:02.759894,-118
2021-12-23 17:18:02.759904,-135
2021-12-23 17:18:02.759914,-130
2021-12-23 17:18:02.759924,-95
2021-12-23 17:18:02.759934,-90
2021-12-23 17:18:02.759944,-97
2021-12-23 17:18:02.759953,-88
2021-12-23 17:18:02.759963,-88
2021-12-23 17:18:02.759973,-90
2021-12-23 17:18:02.759983,-79
2021-12-23 17:18:02.759993,-74
2021-12-23 17:18:02.760003,-79
2021-12-23 17:18:02.760013,-72
2021-12-23 17:18:02.760023,-58
2021-12-23 17:18:02.760032,-34
2021-12-23 17:18:02.760042,-11
2021-12-23 17:18:02.760052,-6
2021-12-23 17:18:02.760062,-18
2021-12-23 17:18:02.760072,-44
2021-12-23 17:18:03.030325,-51
2021-12-23 17:18:03.030356,-32
2021-12-23 17:18:03.030369,-55
2021-12-23 17:18:03.030380,-97
2021-12-23 17:18:03.030390,-93
2021-12-23 17:18:03.030400,-90
2021-12-23 17:18:03.030410,-107
2021-12-23 17:18:03.030420,-74
2021-12-23 17:18:03.030431,-23
2021-12-23 17:18:03.030441,41
2021-12-23 17:18:03.030451,219
2021-12-23 17:18:03.030461,422
2021-12-23 17:18:03.030471,368
2021-12-23 17:18:03.030482,-37
2021-12-23 17:18:03.030492,-536
2021-12-23 17:18:03.030502,-585
2021-12-23 17:18:03.030512,-198
2021-12-23 17:18:03.030522,-37
2021-12-23 17:18:03.030532,-79
2021-12-23 17:18:03.030542,30
2021-12-23 17:18:03.030552,104
2021-12-23 17:18:03.030562,30
2021-12-23 17:18:03.030573,-37
2021-12-23 17:18:03.030583,-46
2021-12-23 17:18:03.030593,-13
2021-12-23 17:18:03.030603,25
2021-12-23 17:18:03.030613,41
2021-12-23 17:18:03.030623,41
2021-12-23 17:18:03.030633,51
2021-12-23 17:18:03.030643,74
2021-12-23 17:18:03.209541,97
2021-12-23 17:18:03.209587,130
2021-12-23 17:18:03.209601,163
2021-12-23 17:18:03.209610,177
2021-12-23 17:18:03.209618,184
2021-12-23 17:18:03.209626,209
2021-12-23 17:18:03.209635,251
2021-12-23 17:18:03.209643,270
2021-12-23 17:18:03.209651,265
2021-12-23 17:18:03.209658,237
2021-12-23 17:18:03.209663,163
2021-12-23 17:18:03.209668,76
2021-12-23 17:18:03.209687,37
2021-12-23 17:18:03.209715,-13
2021-12-23 17:18:03.209724,-118
2021-12-23 17:18:03.209733,-219
2021-12-23 17:18:03.209741,-286
2021-12-23 17:18:03.209749,-324
2021-12-23 17:18:03.209758,-310
2021-12-23 17:18:03.209766,-279
2021-12-23 17:18:03.209774,-272
2021-12-23 17:18:03.209782,-279
2021-12-23 17:18:03.209790,-277
2021-12-23 17:18:03.209799,-249
2021-12-23 17:18:03.209807,-214
2021-12-23 17:18:03.209815,-200
2021-12-23 17:18:03.209823,-193
2021-12-23 17:18:03.209832,-186
2021-12-23 17:18:03.209840,-181
2021-12-23 17:18:03.209848,-160
2021-12-23 17:18:03.480239,-130
2021-12-23 17:18:03.480271,-107
2021-12-23 17:18:03.480283,-100
2021-12-23 17:18:03.480293,-125
2021-12-23 17:18:03.480303,-156
2021-12-23 17:18:03.480314,-149
2021-12-23 17:18:03.480324,-144
2021-12-23 17:18:03.480334,-153
2021-12-23 17:18:03.480344,-137
2021-12-23 17:18:03.480354,-149
2021-12-23 17:18:03.480364,-188
2021-12-23 17:18:03.480374,-170
2021-12-23 17:18:03.480384,-128
2021-12-23 17:18:03.480394,-114
2021-12-23 17:18:03.480404,-111
2021-12-23 17:18:03.480414,-123
2021-12-23 17:18:03.480424,-128
2021-12-23 17:18:03.480433,-88
2021-12-23 17:18:03.480444,-48
2021-12-23 17:18:03.480453,-41
2021-12-23 17:18:03.480464,-55
2021-12-23 17:18:03.480473,-83
2021-12-23 17:18:03.480483,-86
2021-12-23 17:18:03.480493,-55
2021-12-23 17:18:03.480503,-39
2021-12-23 17:18:03.480513,-32
2021-12-23 17:18:03.480523,-23
2021-12-23 17:18:03.480533,-41
2021-12-23 17:18:03.480543,-86
2021-12-23 17:18:03.480553,-95
2021-12-23 17:18:03.705002,-39
2021-12-23 17:18:03.705024,46
2021-12-23 17:18:03.705032,202
2021-12-23 17:18:03.705039,403
2021-12-23 17:18:03.705046,396
2021-12-23 17:18:03.705052,65
2021-12-23 17:18:03.705059,-415
2021-12-23 17:18:03.705066,-596
2021-12-23 17:18:03.705072,-314
2021-12-23 17:18:03.705079,-114
2021-12-23 17:18:03.705086,-132
2021-12-23 17:18:03.705092,-34
2021-12-23 17:18:03.705099,67
2021-12-23 17:18:03.705106,39
2021-12-23 17:18:03.705112,13
2021-12-23 17:18:03.705119,4
2021-12-23 17:18:03.705125,11
2021-12-23 17:18:03.705132,51
2021-12-23 17:18:03.705138,79
2021-12-23 17:18:03.705144,90
2021-12-23 17:18:03.705151,95
2021-12-23 17:18:03.705157,90
2021-12-23 17:18:03.705164,90
2021-12-23 17:18:03.705170,107
2021-12-23 17:18:03.705176,144
2021-12-23 17:18:03.705183,186
2021-12-23 17:18:03.705189,200
2021-12-23 17:18:03.705196,207
2021-12-23 17:18:03.705202,237
2021-12-23 17:18:03.705209,265
2021-12-23 17:18:03.930134,272
2021-12-23 17:18:03.930156,263
2021-12-23 17:18:03.930164,221
2021-12-23 17:18:03.930171,149
2021-12-23 17:18:03.930177,86
2021-12-23 17:18:03.930184,32
2021-12-23 17:18:03.930190,-25
2021-12-23 17:18:03.930197,-93
2021-12-23 17:18:03.930203,-181
2021-12-23 17:18:03.930210,-240
2021-12-23 17:18:03.930217,-249
2021-12-23 17:18:03.930223,-244
2021-12-23 17:18:03.930230,-223
2021-12-23 17:18:03.930236,-216
2021-12-23 17:18:03.930243,-261
2021-12-23 17:18:03.930249,-291
2021-12-23 17:18:03.930256,-261
2021-12-23 17:18:03.930262,-249
2021-12-23 17:18:03.930269,-258
2021-12-23 17:18:03.930275,-244
2021-12-23 17:18:03.930282,-237
2021-12-23 17:18:03.930288,-237
2021-12-23 17:18:03.930295,-205
2021-12-23 17:18:03.930305,-167
2021-12-23 17:18:03.930311,-160
2021-12-23 17:18:03.930318,-163
2021-12-23 17:18:03.930325,-153
2021-12-23 17:18:03.930331,-142
2021-12-23 17:18:03.930338,-125
2021-12-23 17:18:03.930344,-107
2021-12-23 17:18:04.154772,-93
2021-12-23 17:18:04.154803,-95
2021-12-23 17:18:04.154815,-109
2021-12-23 17:18:04.154826,-144
2021-12-23 17:18:04.154836,-177
2021-12-23 17:18:04.154846,-153
2021-12-23 17:18:04.154856,-135
2021-12-23 17:18:04.154867,-186
2021-12-23 17:18:04.154877,-223
2021-12-23 17:18:04.154887,-193
2021-12-23 17:18:04.154897,-158
2021-12-23 17:18:04.154907,-149
2021-12-23 17:18:04.154917,-170
2021-12-23 17:18:04.154927,-200
2021-12-23 17:18:04.154937,-188
2021-12-23 17:18:04.154948,-151
2021-12-23 17:18:04.154958,-142
2021-12-23 17:18:04.154968,-139
2021-12-23 17:18:04.154978,-132
2021-12-23 17:18:04.154988,-132
2021-12-23 17:18:04.154998,-125
2021-12-23 17:18:04.155008,-111
2021-12-23 17:18:04.155018,-97
2021-12-23 17:18:04.155028,-79
2021-12-23 17:18:04.155038,-69
2021-12-23 17:18:04.155048,-72
2021-12-23 17:18:04.155058,-60
2021-12-23 17:18:04.155069,-27
2021-12-23 17:18:04.155079,44
2021-12-23 17:18:04.155089,240
2021-12-23 17:18:04.380241,447
2021-12-23 17:18:04.380272,382
2021-12-23 17:18:04.380284,2
2021-12-23 17:18:04.380295,-466
2021-12-23 17:18:04.380305,-573
2021-12-23 17:18:04.380315,-202
2021-12-23 17:18:04.380325,6
2021-12-23 17:18:04.380335,-72
2021-12-23 17:18:04.380345,-9
2021-12-23 17:18:04.380354,81
2021-12-23 17:18:04.380364,51
2021-12-23 17:18:04.380374,55
2021-12-23 17:18:04.380384,74
2021-12-23 17:18:04.380395,34
2021-12-23 17:18:04.380405,16
2021-12-23 17:18:04.380415,23
2021-12-23 17:18:04.380425,46
2021-12-23 17:18:04.380434,81
2021-12-23 17:18:04.380444,90
2021-12-23 17:18:04.380454,97
2021-12-23 17:18:04.380464,116
2021-12-23 17:18:04.380474,125
2021-12-23 17:18:04.380484,149
2021-12-23 17:18:04.380494,198
2021-12-23 17:18:04.380504,221
2021-12-23 17:18:04.380514,235
2021-12-23 17:18:04.380524,263
2021-12-23 17:18:04.380534,265
2021-12-23 17:18:04.380544,247
2021-12-23 17:18:04.380554,226
2021-12-23 17:18:04.648408,170
2021-12-23 17:18:04.648440,93
2021-12-23 17:18:04.648452,23
2021-12-23 17:18:04.648462,-44
2021-12-23 17:18:04.648472,-97
2021-12-23 17:18:04.648482,-142
2021-12-23 17:18:04.648491,-198
2021-12-23 17:18:04.648501,-212
2021-12-23 17:18:04.648511,-198
2021-12-23 17:18:04.648520,-237
2021-12-23 17:18:04.648530,-286
2021-12-23 17:18:04.648540,-277
2021-12-23 17:18:04.648549,-284
2021-12-23 17:18:04.648559,-303
2021-12-23 17:18:04.648569,-282
2021-12-23 17:18:04.648579,-282
2021-12-23 17:18:04.648588,-326
2021-12-23 17:18:04.648598,-338
2021-12-23 17:18:04.648608,-303
2021-12-23 17:18:04.648617,-265
2021-12-23 17:18:04.648627,-247
2021-12-23 17:18:04.648637,-237
2021-12-23 17:18:04.648647,-223
2021-12-23 17:18:04.648657,-207
2021-12-23 17:18:04.648666,-188
2021-12-23 17:18:04.648676,-167
2021-12-23 17:18:04.648686,-149
2021-12-23 17:18:04.648695,-144
2021-12-23 17:18:04.648705,-139
2021-12-23 17:18:04.648714,-132
2021-12-23 17:18:04.830230,-123
2021-12-23 17:18:04.830261,-102
2021-12-23 17:18:04.830273,-93
2021-12-23 17:18:04.830283,-100
2021-12-23 17:18:04.830293,-102
2021-12-23 17:18:04.830303,-123
2021-12-23 17:18:04.830313,-142
2021-12-23 17:18:04.830323,-121
2021-12-23 17:18:04.830333,-100
2021-12-23 17:18:04.830343,-109
2021-12-23 17:18:04.830353,-123
2021-12-23 17:18:04.830363,-142
2021-12-23 17:18:04.830372,-146
2021-12-23 17:18:04.830382,-123
2021-12-23 17:18:04.830392,-104
2021-12-23 17:18:04.830402,-104
2021-12-23 17:18:04.830412,-100
2021-12-23 17:18:04.830422,-97
2021-12-23 17:18:04.830431,-102
2021-12-23 17:18:04.830441,-95
2021-12-23 17:18:04.830451,-67
2021-12-23 17:18:04.830461,-60
2021-12-23 17:18:04.830471,-86
2021-12-23 17:18:04.830480,-93
2021-12-23 17:18:04.830490,-67
2021-12-23 17:18:04.830500,-41
2021-12-23 17:18:04.830510,-37
2021-12-23 17:18:04.830520,-39
2021-12-23 17:18:04.830530,-37
2021-12-23 17:18:04.830539,-34
2021-12-23 17:18:05.054824,-16
2021-12-23 17:18:05.054855,11
2021-12-23 17:18:05.054867,30
2021-12-23 17:18:05.054878,67
2021-12-23 17:18:05.054888,200
2021-12-23 17:18:05.054898,396
2021-12-23 17:18:05.054908,415
2021-12-23 17:18:05.054917,107
2021-12-23 17:18:05.054927,-377
2021-12-23 17:18:05.054937,-582
2021-12-23 17:18:05.054947,-298
2021-12-23 17:18:05.054957,-51
2021-12-23 17:18:05.054967,-53
2021-12-23 17:18:05.054977,20
2021-12-23 17:18:05.054987,93
2021-12-23 17:18:05.054997,4
2021-12-23 17:18:05.055007,-51
2021-12-23 17:18:05.055017,-2
2021-12-23 17:18:05.055027,6
2021-12-23 17:18:05.055037,-9
2021-12-23 17:18:05.055047,-4
2021-12-23 17:18:05.055057,-20
2021-12-23 17:18:05.055073,-23
2021-12-23 17:18:05.055083,18
2021-12-23 17:18:05.055106,60
2021-12-23 17:18:05.055112,86
2021-12-23 17:18:05.055119,116
2021-12-23 17:18:05.055125,132
2021-12-23 17:18:05.055131,153
2021-12-23 17:18:05.055138,202
2021-12-23 17:18:05.324762,251
2021-12-23 17:18:05.324793,272
2021-12-23 17:18:05.324805,272
2021-12-23 17:18:05.324816,233
2021-12-23 17:18:05.324826,167
2021-12-23 17:18:05.324837,137
2021-12-23 17:18:05.324847,109
2021-12-23 17:18:05.324857,39
2021-12-23 17:18:05.324868,-34
2021-12-23 17:18:05.324878,-128
2021-12-23 17:18:05.324888,-230
2021-12-23 17:18:05.324898,-256
2021-12-23 17:18:05.324908,-249
2021-12-23 17:18:05.324918,-270
2021-12-23 17:18:05.324928,-282
2021-12-23 17:18:05.324938,-282
2021-12-23 17:18:05.324948,-277
2021-12-23 17:18:05.324958,-247
2021-12-23 17:18:05.324968,-209
2021-12-23 17:18:05.324979,-188
2021-12-23 17:18:05.324989,-181
2021-12-23 17:18:05.324999,-195
2021-12-23 17:18:05.325009,-219
2021-12-23 17:18:05.325019,-207
2021-12-23 17:18:05.325029,-165
2021-12-23 17:18:05.325039,-137
2021-12-23 17:18:05.325049,-146
2021-12-23 17:18:05.325059,-160
2021-12-23 17:18:05.325069,-142
2021-12-23 17:18:05.325083,-104
2021-12-23 17:18:05.550298,-81
2021-12-23 17:18:05.550331,-67
2021-12-23 17:18:05.550343,-65
2021-12-23 17:18:05.550353,-86
2021-12-23 17:18:05.550363,-83
2021-12-23 17:18:05.550373,-48
2021-12-23 17:18:05.550382,-30
2021-12-23 17:18:05.550392,-30
2021-12-23 17:18:05.550402,-51
2021-12-23 17:18:05.550411,-97
2021-12-23 17:18:05.550421,-97
2021-12-23 17:18:05.550431,-53
2021-12-23 17:18:05.550440,-34
2021-12-23 17:18:05.550450,-37
2021-12-23 17:18:05.550460,-53
2021-12-23 17:18:05.550469,-90
2021-12-23 17:18:05.550479,-88
2021-12-23 17:18:05.550489,-53
2021-12-23 17:18:05.550498,-39
2021-12-23 17:18:05.550508,-32
2021-12-23 17:18:05.550518,-51
2021-12-23 17:18:05.550528,-109
2021-12-23 17:18:05.550538,-128
2021-12-23 17:18:05.550547,-81
2021-12-23 17:18:05.550557,-79
2021-12-23 17:18:05.550566,-111
2021-12-23 17:18:05.550576,-102
2021-12-23 17:18:05.550586,-72
2021-12-23 17:18:05.550595,-51
2021-12-23 17:18:05.550605,-32
2021-12-23 17:18:05.775207,-32
2021-12-23 17:18:05.775238,-39
2021-12-23 17:18:05.775250,-46
2021-12-23 17:18:05.775260,-48
2021-12-23 17:18:05.775271,-34
2021-12-23 17:18:05.775280,-11
2021-12-23 17:18:05.775290,-2
2021-12-23 17:18:05.775300,-11
2021-12-23 17:18:05.775310,-44
2021-12-23 17:18:05.775320,-65
2021-12-23 17:18:05.775329,-25
2021-12-23 17:18:05.775339,30
2021-12-23 17:18:05.775349,125
2021-12-23 17:18:05.775359,314
2021-12-23 17:18:05.775369,412
2021-12-23 17:18:05.775379,212
2021-12-23 17:18:05.775389,-244
2021-12-23 17:18:05.775398,-615
2021-12-23 17:18:05.775408,-463
2021-12-23 17:18:05.775418,-100
2021-12-23 17:18:05.775428,-60
2021-12-23 17:18:05.775438,-74
2021-12-23 17:18:05.775448,48
2021-12-23 17:18:05.775457,74
2021-12-23 17:18:05.775467,41
2021-12-23 17:18:05.775477,76
2021-12-23 17:18:05.775487,79
2021-12-23 17:18:05.775497,34
2021-12-23 17:18:05.775506,51
2021-12-23 17:18:05.775516,104
2021-12-23 17:18:05.999894,123
2021-12-23 17:18:05.999915,123
2021-12-23 17:18:05.999923,125
2021-12-23 17:18:05.999930,135
2021-12-23 17:18:05.999936,156
2021-12-23 17:18:05.999943,177
2021-12-23 17:18:05.999949,179
2021-12-23 17:18:05.999956,165
2021-12-23 17:18:05.999962,144
2021-12-23 17:18:05.999968,153
2021-12-23 17:18:05.999975,188
2021-12-23 17:18:05.999981,202
2021-12-23 17:18:05.999988,179
2021-12-23 17:18:05.999994,114
2021-12-23 17:18:06.000001,41
2021-12-23 17:18:06.000007,-16
2021-12-23 17:18:06.000014,-74
2021-12-23 17:18:06.000020,-132
2021-12-23 17:18:06.000027,-177
2021-12-23 17:18:06.000033,-216
2021-12-23 17:18:06.000040,-237
2021-12-23 17:18:06.000046,-242
2021-12-23 17:18:06.000052,-233
2021-12-23 17:18:06.000059,-212
2021-12-23 17:18:06.000065,-195
2021-12-23 17:18:06.000072,-214
2021-12-23 17:18:06.000078,-258
2021-12-23 17:18:06.000085,-282
2021-12-23 17:18:06.000091,-265
2021-12-23 17:18:06.000097,-254
2021-12-23 17:18:06.224778,-244
2021-12-23 17:18:06.224808,-221
2021-12-23 17:18:06.224820,-193
2021-12-23 17:18:06.224831,-177
2021-12-23 17:18:06.224841,-158
2021-12-23 17:18:06.224851,-132
2021-12-23 17:18:06.224861,-146
2021-12-23 17:18:06.224871,-177
2021-12-23 17:18:06.224880,-158
2021-12-23 17:18:06.224890,-123
2021-12-23 17:18:06.224900,-111
2021-12-23 17:18:06.224910,-104
2021-12-23 17:18:06.224920,-121
2021-12-23 17:18:06.224930,-144
2021-12-23 17:18:06.224939,-125
2021-12-23 17:18:06.224949,-104
2021-12-23 17:18:06.224972,-102
2021-12-23 17:18:06.224982,-86
2021-12-23 17:18:06.224991,-81
2021-12-23 17:18:06.225001,-86
2021-12-23 17:18:06.225016,-72
2021-12-23 17:18:06.225026,-55
2021-12-23 17:18:06.225036,-46
2021-12-23 17:18:06.225046,-41
2021-12-23 17:18:06.225056,-48
2021-12-23 17:18:06.225066,-41
2021-12-23 17:18:06.225076,-23
2021-12-23 17:18:06.225086,-25
2021-12-23 17:18:06.225096,-25
2021-12-23 17:18:06.225106,-20
2021-12-23 17:18:06.450232,-46
2021-12-23 17:18:06.450263,-67
2021-12-23 17:18:06.450275,-39
2021-12-23 17:18:06.450285,-23
2021-12-23 17:18:06.450296,-30
2021-12-23 17:18:06.450306,-39
2021-12-23 17:18:06.450316,-69
2021-12-23 17:18:06.450326,-76
2021-12-23 17:18:06.450336,-58
2021-12-23 17:18:06.450346,-65
2021-12-23 17:18:06.450356,-69
2021-12-23 17:18:06.450367,-76
2021-12-23 17:18:06.450377,-100
2021-12-23 17:18:06.450387,-95
2021-12-23 17:18:06.450397,-62
2021-12-23 17:18:06.450407,-55
2021-12-23 17:18:06.450417,-55
2021-12-23 17:18:06.450427,-51
2021-12-23 17:18:06.450437,-44
2021-12-23 17:18:06.450447,-11
2021-12-23 17:18:06.450457,62
2021-12-23 17:18:06.450467,242
2021-12-23 17:18:06.450477,484
2021-12-23 17:18:06.450488,496
2021-12-23 17:18:06.450498,76
2021-12-23 17:18:06.450508,-473
2021-12-23 17:18:06.450518,-538
2021-12-23 17:18:06.450528,-170
2021-12-23 17:18:06.450538,-39
2021-12-23 17:18:06.450548,-107
2021-12-23 17:18:06.763869,-32
2021-12-23 17:18:06.763900,-16
2021-12-23 17:18:06.763912,-128
2021-12-23 17:18:06.763922,-149
2021-12-23 17:18:06.763932,-102
2021-12-23 17:18:06.763942,-111
2021-12-23 17:18:06.763952,-109
2021-12-23 17:18:06.763961,-58
2021-12-23 17:18:06.763971,-32
2021-12-23 17:18:06.763981,-20
2021-12-23 17:18:06.763990,-11
2021-12-23 17:18:06.764000,-9
2021-12-23 17:18:06.764010,23
2021-12-23 17:18:06.764020,83
2021-12-23 17:18:06.764029,128
2021-12-23 17:18:06.764039,153
2021-12-23 17:18:06.764049,177
2021-12-23 17:18:06.764059,202
2021-12-23 17:18:06.764069,235
2021-12-23 17:18:06.764079,261
2021-12-23 17:18:06.764088,251
2021-12-23 17:18:06.764098,221
2021-12-23 17:18:06.764108,167
2021-12-23 17:18:06.764117,93
2021-12-23 17:18:06.764127,34
2021-12-23 17:18:06.764137,-9
2021-12-23 17:18:06.764147,-65
2021-12-23 17:18:06.764157,-128
2021-12-23 17:18:06.764166,-160
2021-12-23 17:18:06.764176,-160
2021-12-23 17:18:06.900369,-146
2021-12-23 17:18:06.900391,-135
2021-12-23 17:18:06.900399,-130
2021-12-23 17:18:06.900406,-130
2021-12-23 17:18:06.900413,-144
2021-12-23 17:18:06.900419,-151
2021-12-23 17:18:06.900426,-116
2021-12-23 17:18:06.900432,-83
2021-12-23 17:18:06.900439,-74
2021-12-23 17:18:06.900446,-76
2021-12-23 17:18:06.900452,-93
2021-12-23 17:18:06.900459,-90
2021-12-23 17:18:06.900465,-51
2021-12-23 17:18:06.900472,-25
2021-12-23 17:18:06.900478,-23
2021-12-23 17:18:06.900485,-25
2021-12-23 17:18:06.900491,-55
2021-12-23 17:18:06.900498,-67
2021-12-23 17:18:06.900504,-32
2021-12-23 17:18:06.900511,-9
2021-12-23 17:18:06.900518,-11
2021-12-23 17:18:06.900524,-20
2021-12-23 17:18:06.900531,-27
2021-12-23 17:18:06.900537,-11
2021-12-23 17:18:06.900544,4
2021-12-23 17:18:06.900550,9
2021-12-23 17:18:06.900557,9
2021-12-23 17:18:06.900564,-20
2021-12-23 17:18:06.900573,-55
2021-12-23 17:18:06.900580,-39
2021-12-23 17:18:07.214768,-9
2021-12-23 17:18:07.214799,-4
2021-12-23 17:18:07.214811,-16
2021-12-23 17:18:07.214821,-53
2021-12-23 17:18:07.214832,-93
2021-12-23 17:18:07.214842,-72
2021-12-23 17:18:07.214852,-72
2021-12-23 17:18:07.214862,-128
2021-12-23 17:18:07.214872,-123
2021-12-23 17:18:07.214883,-95
2021-12-23 17:18:07.214893,-118
2021-12-23 17:18:07.214903,-116
2021-12-23 17:18:07.214913,-79
2021-12-23 17:18:07.214923,-62
2021-12-23 17:18:07.214933,-62
2021-12-23 17:18:07.214943,-74
2021-12-23 17:18:07.214953,-76
2021-12-23 17:18:07.214963,-51
2021-12-23 17:18:07.214973,-27
2021-12-23 17:18:07.214983,-30
2021-12-23 17:18:07.214994,-48
2021-12-23 17:18:07.215004,-74
2021-12-23 17:18:07.215014,-76
2021-12-23 17:18:07.215024,-25
2021-12-23 17:18:07.215034,137
2021-12-23 17:18:07.215044,375
2021-12-23 17:18:07.215054,405
2021-12-23 17:18:07.215064,-20
2021-12-23 17:18:07.215074,-617
2021-12-23 17:18:07.215084,-671
2021-12-23 17:18:07.395185,-216
2021-12-23 17:18:07.395216,-11
2021-12-23 17:18:07.395227,-81
2021-12-23 17:18:07.395238,-18
2021-12-23 17:18:07.395248,74
2021-12-23 17:18:07.395258,65
2021-12-23 17:18:07.395268,67
2021-12-23 17:18:07.395278,102
2021-12-23 17:18:07.395288,90
2021-12-23 17:18:07.395298,60
2021-12-23 17:18:07.395308,74
2021-12-23 17:18:07.395318,114
2021-12-23 17:18:07.395328,132
2021-12-23 17:18:07.395338,151
2021-12-23 17:18:07.395348,151
2021-12-23 17:18:07.395358,125
2021-12-23 17:18:07.395368,149
2021-12-23 17:18:07.395378,212
2021-12-23 17:18:07.395388,251
2021-12-23 17:18:07.395398,279
2021-12-23 17:18:07.395408,286
2021-12-23 17:18:07.395418,254
2021-12-23 17:18:07.395428,247
2021-12-23 17:18:07.395438,272
2021-12-23 17:18:07.395448,258
2021-12-23 17:18:07.395458,198
2021-12-23 17:18:07.395468,114
2021-12-23 17:18:07.395478,27
2021-12-23 17:18:07.395488,-25
2021-12-23 17:18:07.395499,-60
2021-12-23 17:18:07.665053,-100
2021-12-23 17:18:07.665084,-125
2021-12-23 17:18:07.665096,-144
2021-12-23 17:18:07.665106,-163
2021-12-23 17:18:07.665116,-151
2021-12-23 17:18:07.665126,-121
2021-12-23 17:18:07.665136,-102
2021-12-23 17:18:07.665146,-109
2021-12-23 17:18:07.665156,-144
2021-12-23 17:18:07.665166,-153
2021-12-23 17:18:07.665176,-139
2021-12-23 17:18:07.665186,-153
2021-12-23 17:18:07.665196,-184
2021-12-23 17:18:07.665206,-209
2021-12-23 17:18:07.665216,-223
2021-12-23 17:18:07.665226,-207
2021-12-23 17:18:07.665236,-170
2021-12-23 17:18:07.665245,-137
2021-12-23 17:18:07.665255,-116
2021-12-23 17:18:07.665265,-121
2021-12-23 17:18:07.665275,-151
2021-12-23 17:18:07.665285,-151
2021-12-23 17:18:07.665295,-128
2021-12-23 17:18:07.665305,-116
2021-12-23 17:18:07.665314,-107
2021-12-23 17:18:07.665324,-102
2021-12-23 17:18:07.665334,-114
2021-12-23 17:18:07.665344,-114
2021-12-23 17:18:07.665354,-95
2021-12-23 17:18:07.665364,-79
2021-12-23 17:18:07.844719,-72
2021-12-23 17:18:07.844750,-69
2021-12-23 17:18:07.844761,-81
2021-12-23 17:18:07.844772,-86
2021-12-23 17:18:07.844782,-74
2021-12-23 17:18:07.844792,-58
2021-12-23 17:18:07.844802,-58
2021-12-23 17:18:07.844812,-86
2021-12-23 17:18:07.844821,-111
2021-12-23 17:18:07.844831,-93
2021-12-23 17:18:07.844842,-58
2021-12-23 17:18:07.844852,-51
2021-12-23 17:18:07.844862,-86
2021-12-23 17:18:07.844871,-137
2021-12-23 17:18:07.844881,-165
2021-12-23 17:18:07.844891,-172
2021-12-23 17:18:07.844901,-163
2021-12-23 17:18:07.844911,-139
2021-12-23 17:18:07.844921,-144
2021-12-23 17:18:07.844931,-177
2021-12-23 17:18:07.844941,-177
2021-12-23 17:18:07.844951,-151
2021-12-23 17:18:07.844961,-130
2021-12-23 17:18:07.844971,-93
2021-12-23 17:18:07.844980,-20
2021-12-23 17:18:07.844990,125
2021-12-23 17:18:07.845000,333
2021-12-23 17:18:07.845010,354
2021-12-23 17:18:07.845020,2
2021-12-23 17:18:07.845030,-519
2021-12-23 17:18:08.069763,-669
2021-12-23 17:18:08.069794,-307
2021-12-23 17:18:08.069806,-65
2021-12-23 17:18:08.069816,-104
2021-12-23 17:18:08.069827,-32
2021-12-23 17:18:08.069837,72
2021-12-23 17:18:08.069847,20
2021-12-23 17:18:08.069857,-27
2021-12-23 17:18:08.069868,13
2021-12-23 17:18:08.069878,39
2021-12-23 17:18:08.069888,39
2021-12-23 17:18:08.069898,60
2021-12-23 17:18:08.069908,48
2021-12-23 17:18:08.069918,27
2021-12-23 17:18:08.069928,44
2021-12-23 17:18:08.069939,51
2021-12-23 17:18:08.069949,58
2021-12-23 17:18:08.069959,86
2021-12-23 17:18:08.069969,74
2021-12-23 17:18:08.069979,86
2021-12-23 17:18:08.069989,158
2021-12-23 17:18:08.069999,193
2021-12-23 17:18:08.070010,202
2021-12-23 17:18:08.070020,223
2021-12-23 17:18:08.070030,212
2021-12-23 17:18:08.070040,177
2021-12-23 17:18:08.070050,146
2021-12-23 17:18:08.070060,90
2021-12-23 17:18:08.070071,16
2021-12-23 17:18:08.070081,-48
2021-12-23 17:18:08.295235,-107
2021-12-23 17:18:08.295266,-144
2021-12-23 17:18:08.295279,-158
2021-12-23 17:18:08.295289,-172
2021-12-23 17:18:08.295299,-179
2021-12-23 17:18:08.295309,-188
2021-12-23 17:18:08.295319,-214
2021-12-23 17:18:08.295329,-200
2021-12-23 17:18:08.295339,-160
2021-12-23 17:18:08.295349,-153
2021-12-23 17:18:08.295359,-149
2021-12-23 17:18:08.295369,-149
2021-12-23 17:18:08.295379,-163
2021-12-23 17:18:08.295388,-146
2021-12-23 17:18:08.295398,-111
2021-12-23 17:18:08.295408,-107
2021-12-23 17:18:08.295418,-135
2021-12-23 17:18:08.295428,-174
2021-12-23 17:18:08.295438,-174
2021-12-23 17:18:08.295448,-135
2021-12-23 17:18:08.295457,-116
2021-12-23 17:18:08.295467,-118
2021-12-23 17:18:08.295477,-107
2021-12-23 17:18:08.295487,-100
2021-12-23 17:18:08.295496,-104
2021-12-23 17:18:08.295506,-88
2021-12-23 17:18:08.295516,-74
2021-12-23 17:18:08.295526,-79
2021-12-23 17:18:08.295535,-83
2021-12-23 17:18:08.295545,-81
2021-12-23 17:18:08.519743,-76
2021-12-23 17:18:08.519774,-60
2021-12-23 17:18:08.519786,-53
2021-12-23 17:18:08.519796,-65
2021-12-23 17:18:08.519806,-86
2021-12-23 17:18:08.519816,-114
2021-12-23 17:18:08.519826,-116
2021-12-23 17:18:08.519835,-83
2021-12-23 17:18:08.519845,-79
2021-12-23 17:18:08.519855,-102
2021-12-23 17:18:08.519865,-116
2021-12-23 17:18:08.519875,-146
2021-12-23 17:18:08.519885,-177
2021-12-23 17:18:08.519895,-163
2021-12-23 17:18:08.519905,-151
2021-12-23 17:18:08.519914,-158
2021-12-23 17:18:08.519924,-158
2021-12-23 17:18:08.519934,-151
2021-12-23 17:18:08.519944,-158
2021-12-23 17:18:08.519953,-170
2021-12-23 17:18:08.519963,-163
2021-12-23 17:18:08.519973,-149
2021-12-23 17:18:08.519983,-142
2021-12-23 17:18:08.519993,-137
2021-12-23 17:18:08.520002,-79
2021-12-23 17:18:08.520012,128
2021-12-23 17:18:08.520022,289
2021-12-23 17:18:08.520032,97
2021-12-23 17:18:08.520042,-373
2021-12-23 17:18:08.520052,-736
2021-12-23 17:18:08.788212,-599
2021-12-23 17:18:08.788232,-195
2021-12-23 17:18:08.788239,-83
2021-12-23 17:18:08.788246,-114
2021-12-23 17:18:08.788253,-51
2021-12-23 17:18:08.788259,-34
2021-12-23 17:18:08.788266,-39
2021-12-23 17:18:08.788272,2
2021-12-23 17:18:08.788279,23
2021-12-23 17:18:08.788285,2
2021-12-23 17:18:08.788292,-18
2021-12-23 17:18:08.788298,-6
2021-12-23 17:18:08.788305,32
2021-12-23 17:18:08.788311,65
2021-12-23 17:18:08.788318,86
2021-12-23 17:18:08.788324,95
2021-12-23 17:18:08.788331,104
2021-12-23 17:18:08.788337,132
2021-12-23 17:18:08.788343,179
2021-12-23 17:18:08.788350,216
2021-12-23 17:18:08.788356,223
2021-12-23 17:18:08.788363,200
2021-12-23 17:18:08.788369,193
2021-12-23 17:18:08.788382,219
2021-12-23 17:18:08.788389,228
2021-12-23 17:18:08.788395,200
2021-12-23 17:18:08.788402,149
2021-12-23 17:18:08.788408,69
2021-12-23 17:18:08.788415,-16
2021-12-23 17:18:08.788421,-65
2021-12-23 17:18:09.015211,-90
2021-12-23 17:18:09.015242,-116
2021-12-23 17:18:09.015254,-144
2021-12-23 17:18:09.015265,-193
2021-12-23 17:18:09.015275,-226
2021-12-23 17:18:09.015285,-195
2021-12-23 17:18:09.015295,-156
2021-12-23 17:18:09.015305,-144
2021-12-23 17:18:09.015315,-142
2021-12-23 17:18:09.015324,-172
2021-12-23 17:18:09.015334,-193
2021-12-23 17:18:09.015344,-156
2021-12-23 17:18:09.015354,-114
2021-12-23 17:18:09.015364,-104
2021-12-23 17:18:09.015374,-97
2021-12-23 17:18:09.015384,-100
2021-12-23 17:18:09.015393,-100
2021-12-23 17:18:09.015403,-72
2021-12-23 17:18:09.015413,-41
2021-12-23 17:18:09.015423,-30
2021-12-23 17:18:09.015433,-30
2021-12-23 17:18:09.015443,-62
2021-12-23 17:18:09.015453,-109
2021-12-23 17:18:09.015462,-125
2021-12-23 17:18:09.015472,-109
2021-12-23 17:18:09.015482,-88
2021-12-23 17:18:09.015492,-88
2021-12-23 17:18:09.015501,-109
2021-12-23 17:18:09.015511,-123
2021-12-23 17:18:09.015521,-149
2021-12-23 17:18:09.239837,-170
2021-12-23 17:18:09.239867,-144
2021-12-23 17:18:09.239879,-130
2021-12-23 17:18:09.239889,-156
2021-12-23 17:18:09.239900,-151
2021-12-23 17:18:09.239910,-116
2021-12-23 17:18:09.239920,-102
2021-12-23 17:18:09.239930,-95
2021-12-23 17:18:09.239940,-109
2021-12-23 17:18:09.239950,-139
2021-12-23 17:18:09.239960,-118
2021-12-23 17:18:09.239970,-67
2021-12-23 17:18:09.239980,-55
2021-12-23 17:18:09.239990,-76
2021-12-23 17:18:09.240000,-130
2021-12-23 17:18:09.240010,-186
2021-12-23 17:18:09.240020,-181
2021-12-23 17:18:09.240030,-167
2021-12-23 17:18:09.240040,-163
2021-12-23 17:18:09.240050,-146
2021-12-23 17:18:09.240060,-146
2021-12-23 17:18:09.240070,-160
2021-12-23 17:18:09.240080,-137
2021-12-23 17:18:09.240090,-93
2021-12-23 17:18:09.240100,-46
2021-12-23 17:18:09.240110,79
2021-12-23 17:18:09.240120,265
2021-12-23 17:18:09.240131,242
2021-12-23 17:18:09.240141,-109
2021-12-23 17:18:09.240151,-559
2021-12-23 17:18:09.465204,-657
2021-12-23 17:18:09.465235,-307
2021-12-23 17:18:09.465247,-81
2021-12-23 17:18:09.465258,-107
2021-12-23 17:18:09.465268,-32
2021-12-23 17:18:09.465278,62
2021-12-23 17:18:09.465288,48
2021-12-23 17:18:09.465298,39
2021-12-23 17:18:09.465307,30
2021-12-23 17:18:09.465317,9
2021-12-23 17:18:09.465327,27
2021-12-23 17:18:09.465337,65
2021-12-23 17:18:09.465347,83
2021-12-23 17:18:09.465357,81
2021-12-23 17:18:09.465366,62
2021-12-23 17:18:09.465376,67
2021-12-23 17:18:09.465386,111
2021-12-23 17:18:09.465395,153
2021-12-23 17:18:09.465405,181
2021-12-23 17:18:09.465415,205
2021-12-23 17:18:09.465425,223
2021-12-23 17:18:09.465434,244
2021-12-23 17:18:09.465444,265
2021-12-23 17:18:09.465454,279
2021-12-23 17:18:09.465464,275
2021-12-23 17:18:09.465473,247
2021-12-23 17:18:09.465483,179
2021-12-23 17:18:09.465493,90
2021-12-23 17:18:09.465502,20
2021-12-23 17:18:09.465512,-11
2021-12-23 17:18:09.690206,-55
2021-12-23 17:18:09.690237,-116
2021-12-23 17:18:09.690249,-153
2021-12-23 17:18:09.690259,-177
2021-12-23 17:18:09.690269,-223
2021-12-23 17:18:09.690279,-247
2021-12-23 17:18:09.690288,-223
2021-12-23 17:18:09.690298,-235
2021-12-23 17:18:09.690308,-258
2021-12-23 17:18:09.690317,-223
2021-12-23 17:18:09.690327,-174
2021-12-23 17:18:09.690337,-153
2021-12-23 17:18:09.690346,-146
2021-12-23 17:18:09.690356,-156
2021-12-23 17:18:09.690366,-158
2021-12-23 17:18:09.690375,-137
2021-12-23 17:18:09.690385,-116
2021-12-23 17:18:09.690394,-97
2021-12-23 17:18:09.690404,-81
2021-12-23 17:18:09.690414,-83
2021-12-23 17:18:09.690423,-83
2021-12-23 17:18:09.690433,-76
2021-12-23 17:18:09.690443,-67
2021-12-23 17:18:09.690452,-53
2021-12-23 17:18:09.690462,-51
2021-12-23 17:18:09.690472,-51
2021-12-23 17:18:09.690481,-39
2021-12-23 17:18:09.690491,-34
2021-12-23 17:18:09.690501,-51
2021-12-23 17:18:09.690511,-83
2021-12-23 17:18:09.914422,-116
2021-12-23 17:18:09.914446,-123
2021-12-23 17:18:09.914454,-109
2021-12-23 17:18:09.914461,-111
2021-12-23 17:18:09.914467,-114
2021-12-23 17:18:09.914474,-104
2021-12-23 17:18:09.914480,-128
2021-12-23 17:18:09.914486,-156
2021-12-23 17:18:09.914493,-137
2021-12-23 17:18:09.914499,-116
2021-12-23 17:18:09.914505,-114
2021-12-23 17:18:09.914511,-95
2021-12-23 17:18:09.914518,-95
2021-12-23 17:18:09.914524,-102
2021-12-23 17:18:09.914530,-83
2021-12-23 17:18:09.914537,-76
2021-12-23 17:18:09.914543,-88
2021-12-23 17:18:09.914549,-79
2021-12-23 17:18:09.914555,-76
2021-12-23 17:18:09.914562,-79
2021-12-23 17:18:09.914568,-67
2021-12-23 17:18:09.914574,-60
2021-12-23 17:18:09.914580,-74
2021-12-23 17:18:09.914587,-90
2021-12-23 17:18:09.914593,-104
2021-12-23 17:18:09.914599,-102
2021-12-23 17:18:09.914605,-62
2021-12-23 17:18:09.914612,88
2021-12-23 17:18:09.914618,312
2021-12-23 17:18:09.914624,333
2021-12-23 17:18:10.139729,-30
2021-12-23 17:18:10.139759,-564
2021-12-23 17:18:10.139771,-729
2021-12-23 17:18:10.139782,-370
2021-12-23 17:18:10.139792,-93
2021-12-23 17:18:10.139802,-125
2021-12-23 17:18:10.139812,-97
2021-12-23 17:18:10.139822,-6
2021-12-23 17:18:10.139831,-16
2021-12-23 17:18:10.139841,-65
2021-12-23 17:18:10.139851,-93
2021-12-23 17:18:10.139861,-100
2021-12-23 17:18:10.139870,-93
2021-12-23 17:18:10.139880,-60
2021-12-23 17:18:10.139890,-30
2021-12-23 17:18:10.139900,-16
2021-12-23 17:18:10.139909,2
2021-12-23 17:18:10.139919,27
2021-12-23 17:18:10.139929,51
2021-12-23 17:18:10.139939,90
2021-12-23 17:18:10.139949,128
2021-12-23 17:18:10.139958,151
2021-12-23 17:18:10.139968,184
2021-12-23 17:18:10.139978,209
2021-12-23 17:18:10.139987,216
2021-12-23 17:18:10.139997,230
2021-12-23 17:18:10.140006,235
2021-12-23 17:18:10.140016,214
2021-12-23 17:18:10.140026,174
2021-12-23 17:18:10.140035,118
2021-12-23 17:18:10.454755,55
2021-12-23 17:18:10.454787,9
2021-12-23 17:18:10.454799,-53
2021-12-23 17:18:10.454809,-144
2021-12-23 17:18:10.454819,-207
2021-12-23 17:18:10.454829,-233
2021-12-23 17:18:10.454839,-230
2021-12-23 17:18:10.454849,-198
2021-12-23 17:18:10.454858,-177
2021-12-23 17:18:10.454868,-191
2021-12-23 17:18:10.454877,-202
2021-12-23 17:18:10.454887,-198
2021-12-23 17:18:10.454897,-172
2021-12-23 17:18:10.454906,-132
2021-12-23 17:18:10.454916,-109
2021-12-23 17:18:10.454926,-102
2021-12-23 17:18:10.454935,-102
2021-12-23 17:18:10.454945,-93
2021-12-23 17:18:10.454954,-69
2021-12-23 17:18:10.454964,-48
2021-12-23 17:18:10.454974,-41
2021-12-23 17:18:10.454983,-34
2021-12-23 17:18:10.454993,-32
2021-12-23 17:18:10.455003,-37
2021-12-23 17:18:10.455012,-27
2021-12-23 17:18:10.455022,-2
2021-12-23 17:18:10.455032,4
2021-12-23 17:18:10.455041,-11
2021-12-23 17:18:10.455051,-23
2021-12-23 17:18:10.455061,-18
2021-12-23 17:18:10.589726,-6
2021-12-23 17:18:10.589746,11
2021-12-23 17:18:10.589753,18
2021-12-23 17:18:10.589760,11
2021-12-23 17:18:10.589767,2
2021-12-23 17:18:10.589773,-11
2021-12-23 17:18:10.589780,-20
2021-12-23 17:18:10.589786,-2
2021-12-23 17:18:10.589793,-6
2021-12-23 17:18:10.589800,-69
2021-12-23 17:18:10.589806,-111
2021-12-23 17:18:10.589813,-93
2021-12-23 17:18:10.589819,-58
2021-12-23 17:18:10.589826,-34
2021-12-23 17:18:10.589832,-23
2021-12-23 17:18:10.589838,-41
2021-12-23 17:18:10.589845,-88
2021-12-23 17:18:10.589852,-104
2021-12-23 17:18:10.589858,-76
2021-12-23 17:18:10.589864,-51
2021-12-23 17:18:10.589871,-53
2021-12-23 17:18:10.589878,-79
2021-12-23 17:18:10.589884,-107
2021-12-23 17:18:10.589891,-90
2021-12-23 17:18:10.589897,-48
2021-12-23 17:18:10.589903,-32
2021-12-23 17:18:10.589910,-23
2021-12-23 17:18:10.589916,-11
2021-12-23 17:18:10.589923,76
2021-12-23 17:18:10.589929,314
2021-12-23 17:18:10.993887,477
2021-12-23 17:18:10.993917,233
2021-12-23 17:18:10.993936,-359
2021-12-23 17:18:10.993954,-762
2021-12-23 17:18:10.993972,-554
2021-12-23 17:18:10.993991,-153
2021-12-23 17:18:10.994003,-97
2021-12-23 17:18:10.994013,-139
2021-12-23 17:18:10.994023,-60
2021-12-23 17:18:10.994033,-62
2021-12-23 17:18:10.994043,-109
2021-12-23 17:18:10.994052,-58
2021-12-23 17:18:10.994062,-4
2021-12-23 17:18:10.994072,-2
2021-12-23 17:18:10.994082,9
2021-12-23 17:18:10.994092,16
2021-12-23 17:18:10.994102,16
2021-12-23 17:18:10.994121,53
2021-12-23 17:18:10.994132,95
2021-12-23 17:18:10.994142,125
2021-12-23 17:18:10.994152,149
2021-12-23 17:18:10.994162,156
2021-12-23 17:18:10.994172,179
2021-12-23 17:18:10.994181,230
2021-12-23 17:18:10.994191,268
2021-12-23 17:18:10.994201,289
2021-12-23 17:18:10.994211,286
2021-12-23 17:18:10.994221,254
2021-12-23 17:18:10.994231,233
2021-12-23 17:18:10.994241,223
2021-12-23 17:18:11.084678,186
2021-12-23 17:18:11.084700,123
2021-12-23 17:18:11.084708,46
2021-12-23 17:18:11.084715,-27
2021-12-23 17:18:11.084722,-69
2021-12-23 17:18:11.084728,-83
2021-12-23 17:18:11.084735,-86
2021-12-23 17:18:11.084741,-86
2021-12-23 17:18:11.084748,-100
2021-12-23 17:18:11.084754,-137
2021-12-23 17:18:11.084761,-146
2021-12-23 17:18:11.084767,-102
2021-12-23 17:18:11.084774,-65
2021-12-23 17:18:11.084780,-65
2021-12-23 17:18:11.084787,-86
2021-12-23 17:18:11.084793,-107
2021-12-23 17:18:11.084800,-88
2021-12-23 17:18:11.084806,-48
2021-12-23 17:18:11.084813,-16
2021-12-23 17:18:11.084819,4
2021-12-23 17:18:11.084826,-18
2021-12-23 17:18:11.084832,-76
2021-12-23 17:18:11.084839,-79
2021-12-23 17:18:11.084845,-30
2021-12-23 17:18:11.084852,-16
2021-12-23 17:18:11.084858,-37
2021-12-23 17:18:11.084865,-67
2021-12-23 17:18:11.084871,-88
2021-12-23 17:18:11.084878,-62
2021-12-23 17:18:11.084884,-30
2021-12-23 17:18:11.354788,-25
2021-12-23 17:18:11.354819,-25
2021-12-23 17:18:11.354830,-34
2021-12-23 17:18:11.354840,-46
2021-12-23 17:18:11.354851,-30
2021-12-23 17:18:11.354860,-11
2021-12-23 17:18:11.354870,-13
2021-12-23 17:18:11.354880,-30
2021-12-23 17:18:11.354889,-51
2021-12-23 17:18:11.354899,-53
2021-12-23 17:18:11.354909,-37
2021-12-23 17:18:11.354918,-53
2021-12-23 17:18:11.354928,-88
2021-12-23 17:18:11.354938,-109
2021-12-23 17:18:11.354948,-132
2021-12-23 17:18:11.354957,-146
2021-12-23 17:18:11.354967,-121
2021-12-23 17:18:11.354977,-86
2021-12-23 17:18:11.354987,-74
2021-12-23 17:18:11.354997,-72
2021-12-23 17:18:11.355006,-74
2021-12-23 17:18:11.355016,-69
2021-12-23 17:18:11.355026,-41
2021-12-23 17:18:11.355035,0
2021-12-23 17:18:11.355045,41
2021-12-23 17:18:11.355055,144
2021-12-23 17:18:11.355065,359
2021-12-23 17:18:11.355075,452
2021-12-23 17:18:11.355084,144
2021-12-23 17:18:11.355094,-417
2021-12-23 17:18:11.535051,-636
2021-12-23 17:18:11.535081,-296
2021-12-23 17:18:11.535093,-2
2021-12-23 17:18:11.535103,-34
2021-12-23 17:18:11.535114,-20
2021-12-23 17:18:11.535124,83
2021-12-23 17:18:11.535134,62
2021-12-23 17:18:11.535144,-32
2021-12-23 17:18:11.535154,-32
2021-12-23 17:18:11.535164,16
2021-12-23 17:18:11.535174,20
2021-12-23 17:18:11.535184,32
2021-12-23 17:18:11.535193,55
2021-12-23 17:18:11.535203,44
2021-12-23 17:18:11.535213,30
2021-12-23 17:18:11.535223,60
2021-12-23 17:18:11.535233,95
2021-12-23 17:18:11.535243,121
2021-12-23 17:18:11.535253,137
2021-12-23 17:18:11.535263,139
2021-12-23 17:18:11.535273,153
2021-12-23 17:18:11.535283,186
2021-12-23 17:18:11.535293,205
2021-12-23 17:18:11.535302,212
2021-12-23 17:18:11.535312,200
2021-12-23 17:18:11.535322,160
2021-12-23 17:18:11.535332,83
2021-12-23 17:18:11.535342,-16
2021-12-23 17:18:11.535352,-74
2021-12-23 17:18:11.535362,-102
2021-12-23 17:18:11.759708,-160
2021-12-23 17:18:11.759737,-205
2021-12-23 17:18:11.759749,-209
2021-12-23 17:18:11.759760,-223
2021-12-23 17:18:11.759770,-226
2021-12-23 17:18:11.759780,-205
2021-12-23 17:18:11.759789,-223
2021-12-23 17:18:11.759799,-244
2021-12-23 17:18:11.759809,-212
2021-12-23 17:18:11.759820,-177
2021-12-23 17:18:11.759830,-160
2021-12-23 17:18:11.759840,-144
2021-12-23 17:18:11.759850,-156
2021-12-23 17:18:11.759859,-165
2021-12-23 17:18:11.759869,-149
2021-12-23 17:18:11.759879,-160
2021-12-23 17:18:11.759889,-172
2021-12-23 17:18:11.759899,-142
2021-12-23 17:18:11.759909,-128
2021-12-23 17:18:11.759919,-132
2021-12-23 17:18:11.759929,-116
2021-12-23 17:18:11.759939,-102
2021-12-23 17:18:11.759949,-97
2021-12-23 17:18:11.759959,-90
2021-12-23 17:18:11.759969,-90
2021-12-23 17:18:11.759979,-79
2021-12-23 17:18:11.759988,-65
2021-12-23 17:18:11.759998,-69
2021-12-23 17:18:11.760008,-65
2021-12-23 17:18:11.760018,-58
2021-12-23 17:18:11.985224,-62
2021-12-23 17:18:11.985254,-62
2021-12-23 17:18:11.985266,-48
2021-12-23 17:18:11.985276,-51
2021-12-23 17:18:11.985286,-51
2021-12-23 17:18:11.985296,-55
2021-12-23 17:18:11.985306,-72
2021-12-23 17:18:11.985315,-53
2021-12-23 17:18:11.985325,-30
2021-12-23 17:18:11.985335,-41
2021-12-23 17:18:11.985345,-55
2021-12-23 17:18:11.985355,-74
2021-12-23 17:18:11.985364,-114
2021-12-23 17:18:11.985374,-125
2021-12-23 17:18:11.985384,-107
2021-12-23 17:18:11.985393,-100
2021-12-23 17:18:11.985403,-104
2021-12-23 17:18:11.985413,-111
2021-12-23 17:18:11.985423,-109
2021-12-23 17:18:11.985432,-65
2021-12-23 17:18:11.985443,2
2021-12-23 17:18:11.985453,125
2021-12-23 17:18:11.985463,303
2021-12-23 17:18:11.985472,279
2021-12-23 17:18:11.985482,-86
2021-12-23 17:18:11.985492,-538
2021-12-23 17:18:11.985502,-638
2021-12-23 17:18:11.985512,-284
2021-12-23 17:18:11.985521,-25
2021-12-23 17:18:11.985532,-41
2021-12-23 17:18:12.210246,16
2021-12-23 17:18:12.210277,100
2021-12-23 17:18:12.210286,30
2021-12-23 17:18:12.210292,-37
2021-12-23 17:18:12.210299,-20
2021-12-23 17:18:12.210306,-39
2021-12-23 17:18:12.210312,-65
2021-12-23 17:18:12.210319,-37
2021-12-23 17:18:12.210325,-30
2021-12-23 17:18:12.210332,-41
2021-12-23 17:18:12.210338,-39
2021-12-23 17:18:12.210345,-39
2021-12-23 17:18:12.210351,-16
2021-12-23 17:18:12.210357,34
2021-12-23 17:18:12.210364,65
2021-12-23 17:18:12.210370,79
2021-12-23 17:18:12.210377,100
2021-12-23 17:18:12.210383,123
2021-12-23 17:18:12.210390,137
2021-12-23 17:18:12.210396,123
2021-12-23 17:18:12.210403,95
2021-12-23 17:18:12.210409,79
2021-12-23 17:18:12.210416,46
2021-12-23 17:18:12.210422,-9
2021-12-23 17:18:12.210429,-58
2021-12-23 17:18:12.210435,-95
2021-12-23 17:18:12.210441,-135
2021-12-23 17:18:12.210448,-179
2021-12-23 17:18:12.210454,-214
2021-12-23 17:18:12.210461,-216
2021-12-23 17:18:12.434752,-193
2021-12-23 17:18:12.434784,-172
2021-12-23 17:18:12.434796,-170
2021-12-23 17:18:12.434806,-186
2021-12-23 17:18:12.434816,-212
2021-12-23 17:18:12.434826,-205
2021-12-23 17:18:12.434835,-158
2021-12-23 17:18:12.434845,-123
2021-12-23 17:18:12.434855,-116
2021-12-23 17:18:12.434864,-130
2021-12-23 17:18:12.434874,-151
2021-12-23 17:18:12.434884,-139
2021-12-23 17:18:12.434893,-102
2021-12-23 17:18:12.434903,-79
2021-12-23 17:18:12.434913,-76
2021-12-23 17:18:12.434922,-79
2021-12-23 17:18:12.434932,-83
2021-12-23 17:18:12.434942,-67
2021-12-23 17:18:12.434951,-41
2021-12-23 17:18:12.434961,-32
2021-12-23 17:18:12.434971,-39
2021-12-23 17:18:12.434981,-60
2021-12-23 17:18:12.434990,-72
2021-12-23 17:18:12.435000,-51
2021-12-23 17:18:12.435009,-30
2021-12-23 17:18:12.435019,-25
2021-12-23 17:18:12.435029,-25
2021-12-23 17:18:12.435038,-37
2021-12-23 17:18:12.435048,-44
2021-12-23 17:18:12.435058,-18
2021-12-23 17:18:12.705216,16
2021-12-23 17:18:12.705296,32
2021-12-23 17:18:12.705360,30
2021-12-23 17:18:12.705386,-6
2021-12-23 17:18:12.705433,-51
2021-12-23 17:18:12.705452,-39
2021-12-23 17:18:12.705464,-9
2021-12-23 17:18:12.705474,-18
2021-12-23 17:18:12.705484,-83
2021-12-23 17:18:12.705493,-151
2021-12-23 17:18:12.705504,-146
2021-12-23 17:18:12.705513,-107
2021-12-23 17:18:12.705523,-111
2021-12-23 17:18:12.705533,-114
2021-12-23 17:18:12.705543,-74
2021-12-23 17:18:12.705553,-20
2021-12-23 17:18:12.705563,142
2021-12-23 17:18:12.705573,359
2021-12-23 17:18:12.705583,272
2021-12-23 17:18:12.705593,-188
2021-12-23 17:18:12.705603,-638
2021-12-23 17:18:12.705613,-603
2021-12-23 17:18:12.705623,-214
2021-12-23 17:18:12.705633,-51
2021-12-23 17:18:12.705642,-74
2021-12-23 17:18:12.705652,20
2021-12-23 17:18:12.705662,72
2021-12-23 17:18:12.705672,16
2021-12-23 17:18:12.705682,25
2021-12-23 17:18:12.705697,74
2021-12-23 17:18:13.018306,81
2021-12-23 17:18:13.018328,88
2021-12-23 17:18:13.018335,102
2021-12-23 17:18:13.018342,83
2021-12-23 17:18:13.018349,74
2021-12-23 17:18:13.018355,88
2021-12-23 17:18:13.018362,104
2021-12-23 17:18:13.018368,102
2021-12-23 17:18:13.018375,74
2021-12-23 17:18:13.018381,60
2021-12-23 17:18:13.018388,97
2021-12-23 17:18:13.018394,149
2021-12-23 17:18:13.018400,174
2021-12-23 17:18:13.018407,184
2021-12-23 17:18:13.018413,156
2021-12-23 17:18:13.018420,102
2021-12-23 17:18:13.018426,90
2021-12-23 17:18:13.018432,86
2021-12-23 17:18:13.018439,37
2021-12-23 17:18:13.018445,-30
2021-12-23 17:18:13.018452,-102
2021-12-23 17:18:13.018458,-163
2021-12-23 17:18:13.018464,-181
2021-12-23 17:18:13.018471,-179
2021-12-23 17:18:13.018477,-188
2021-12-23 17:18:13.018483,-216
2021-12-23 17:18:13.018490,-254
2021-12-23 17:18:13.018497,-256
2021-12-23 17:18:13.018503,-214
2021-12-23 17:18:13.018509,-165
2021-12-23 17:18:13.154754,-139
2021-12-23 17:18:13.154784,-125
2021-12-23 17:18:13.154796,-123
2021-12-23 17:18:13.154806,-123
2021-12-23 17:18:13.154817,-100
2021-12-23 17:18:13.154827,-69
2021-12-23 17:18:13.154836,-58
2021-12-23 17:18:13.154846,-72
2021-12-23 17:18:13.154856,-104
2021-12-23 17:18:13.154866,-109
2021-12-23 17:18:13.154876,-79
2021-12-23 17:18:13.154886,-51
2021-12-23 17:18:13.154896,-44
2021-12-23 17:18:13.154906,-65
2021-12-23 17:18:13.154926,-114
2021-12-23 17:18:13.154937,-130
2021-12-23 17:18:13.154947,-95
2021-12-23 17:18:13.154957,-67
2021-12-23 17:18:13.154967,-69
2021-12-23 17:18:13.154976,-90
2021-12-23 17:18:13.154986,-118
2021-12-23 17:18:13.154996,-118
2021-12-23 17:18:13.155006,-93
2021-12-23 17:18:13.155016,-76
2021-12-23 17:18:13.155026,-69
2021-12-23 17:18:13.155036,-67
2021-12-23 17:18:13.155046,-74
2021-12-23 17:18:13.155056,-86
2021-12-23 17:18:13.155066,-81
2021-12-23 17:18:13.155076,-48
2021-12-23 17:18:13.380194,-30
2021-12-23 17:18:13.380225,-53
2021-12-23 17:18:13.380237,-72
2021-12-23 17:18:13.380247,-60
2021-12-23 17:18:13.380257,-44
2021-12-23 17:18:13.380267,-27
2021-12-23 17:18:13.380277,-32
2021-12-23 17:18:13.380287,-65
2021-12-23 17:18:13.380296,-76
2021-12-23 17:18:13.380306,-51
2021-12-23 17:18:13.380316,-25
2021-12-23 17:18:13.380326,2
2021-12-23 17:18:13.380336,53
2021-12-23 17:18:13.380346,205
2021-12-23 17:18:13.380356,375
2021-12-23 17:18:13.380366,240
2021-12-23 17:18:13.380376,-258
2021-12-23 17:18:13.380386,-659
2021-12-23 17:18:13.380396,-519
2021-12-23 17:18:13.380406,-142
2021-12-23 17:18:13.380416,-34
2021-12-23 17:18:13.380426,-32
2021-12-23 17:18:13.380435,69
2021-12-23 17:18:13.380445,104
2021-12-23 17:18:13.380455,62
2021-12-23 17:18:13.380465,69
2021-12-23 17:18:13.380475,100
2021-12-23 17:18:13.380485,100
2021-12-23 17:18:13.380495,104
2021-12-23 17:18:13.380505,102
2021-12-23 17:18:13.604762,81
2021-12-23 17:18:13.604793,88
2021-12-23 17:18:13.604805,123
2021-12-23 17:18:13.604815,137
2021-12-23 17:18:13.604825,146
2021-12-23 17:18:13.604835,146
2021-12-23 17:18:13.604845,123
2021-12-23 17:18:13.604855,104
2021-12-23 17:18:13.604865,121
2021-12-23 17:18:13.604875,142
2021-12-23 17:18:13.604885,158
2021-12-23 17:18:13.604895,156
2021-12-23 17:18:13.604905,111
2021-12-23 17:18:13.604916,65
2021-12-23 17:18:13.604925,44
2021-12-23 17:18:13.604935,-4
2021-12-23 17:18:13.604946,-69
2021-12-23 17:18:13.604956,-114
2021-12-23 17:18:13.604966,-160
2021-12-23 17:18:13.604976,-216
2021-12-23 17:18:13.604986,-277
2021-12-23 17:18:13.604996,-312
2021-12-23 17:18:13.605006,-286
2021-12-23 17:18:13.605016,-251
2021-12-23 17:18:13.605026,-249
2021-12-23 17:18:13.605036,-233
2021-12-23 17:18:13.605046,-195
2021-12-23 17:18:13.605056,-172
2021-12-23 17:18:13.605066,-158
2021-12-23 17:18:13.605076,-144
2021-12-23 17:18:13.830198,-139
2021-12-23 17:18:13.830228,-146
2021-12-23 17:18:13.830241,-156
2021-12-23 17:18:13.830251,-146
2021-12-23 17:18:13.830261,-123
2021-12-23 17:18:13.830271,-132
2021-12-23 17:18:13.830281,-158
2021-12-23 17:18:13.830290,-128
2021-12-23 17:18:13.830300,-97
2021-12-23 17:18:13.830309,-109
2021-12-23 17:18:13.830319,-111
2021-12-23 17:18:13.830329,-118
2021-12-23 17:18:13.830338,-142
2021-12-23 17:18:13.830348,-121
2021-12-23 17:18:13.830358,-83
2021-12-23 17:18:13.830367,-86
2021-12-23 17:18:13.830377,-90
2021-12-23 17:18:13.830387,-81
2021-12-23 17:18:13.830397,-79
2021-12-23 17:18:13.830406,-69
2021-12-23 17:18:13.830416,-53
2021-12-23 17:18:13.830425,-41
2021-12-23 17:18:13.830435,-34
2021-12-23 17:18:13.830445,-27
2021-12-23 17:18:13.830454,-4
2021-12-23 17:18:13.830464,20
2021-12-23 17:18:13.830474,20
2021-12-23 17:18:13.830484,9
2021-12-23 17:18:13.830493,0
2021-12-23 17:18:13.830503,4
2021-12-23 17:18:14.054777,18
2021-12-23 17:18:14.054799,27
2021-12-23 17:18:14.054806,20
2021-12-23 17:18:14.054813,-9
2021-12-23 17:18:14.054820,-48
2021-12-23 17:18:14.054826,-65
2021-12-23 17:18:14.054833,-46
2021-12-23 17:18:14.054839,-9
2021-12-23 17:18:14.054846,41
2021-12-23 17:18:14.054853,174
2021-12-23 17:18:14.054859,382
2021-12-23 17:18:14.054866,408
2021-12-23 17:18:14.054872,48
2021-12-23 17:18:14.054879,-491
2021-12-23 17:18:14.054885,-659
2021-12-23 17:18:14.054892,-312
2021-12-23 17:18:14.054898,-44
2021-12-23 17:18:14.054905,-58
2021-12-23 17:18:14.054911,6
2021-12-23 17:18:14.054918,121
2021-12-23 17:18:14.054924,107
2021-12-23 17:18:14.054931,79
2021-12-23 17:18:14.054937,93
2021-12-23 17:18:14.054944,97
2021-12-23 17:18:14.054950,116
2021-12-23 17:18:14.054956,137
2021-12-23 17:18:14.054963,104
2021-12-23 17:18:14.054969,55
2021-12-23 17:18:14.054976,67
2021-12-23 17:18:14.054982,111
2021-12-23 17:18:14.281010,146
2021-12-23 17:18:14.281028,186
2021-12-23 17:18:14.281034,219
2021-12-23 17:18:14.281039,216
2021-12-23 17:18:14.281045,193
2021-12-23 17:18:14.281050,177
2021-12-23 17:18:14.281055,177
2021-12-23 17:18:14.281061,172
2021-12-23 17:18:14.281066,153
2021-12-23 17:18:14.281071,97
2021-12-23 17:18:14.281077,11
2021-12-23 17:18:14.281082,-48
2021-12-23 17:18:14.281087,-76
2021-12-23 17:18:14.281092,-118
2021-12-23 17:18:14.281098,-160
2021-12-23 17:18:14.281103,-202
2021-12-23 17:18:14.281108,-240
2021-12-23 17:18:14.281113,-247
2021-12-23 17:18:14.281119,-223
2021-12-23 17:18:14.281124,-200
2021-12-23 17:18:14.281129,-191
2021-12-23 17:18:14.281135,-202
2021-12-23 17:18:14.281140,-195
2021-12-23 17:18:14.281145,-149
2021-12-23 17:18:14.281150,-114
2021-12-23 17:18:14.281156,-100
2021-12-23 17:18:14.281161,-83
2021-12-23 17:18:14.281166,-88
2021-12-23 17:18:14.281171,-93
2021-12-23 17:18:14.281177,-60
2021-12-23 17:18:14.595255,-27
2021-12-23 17:18:14.595285,-18
2021-12-23 17:18:14.595297,-20
2021-12-23 17:18:14.595307,-51
2021-12-23 17:18:14.595317,-76
2021-12-23 17:18:14.595327,-53
2021-12-23 17:18:14.595337,-34
2021-12-23 17:18:14.595347,-55
2021-12-23 17:18:14.595356,-88
2021-12-23 17:18:14.595366,-125
2021-12-23 17:18:14.595376,-142
2021-12-23 17:18:14.595386,-107
2021-12-23 17:18:14.595396,-72
2021-12-23 17:18:14.595406,-62
2021-12-23 17:18:14.595415,-55
2021-12-23 17:18:14.595425,-62
2021-12-23 17:18:14.595435,-65
2021-12-23 17:18:14.595445,-41
2021-12-23 17:18:14.595454,-11
2021-12-23 17:18:14.595464,11
2021-12-23 17:18:14.595474,16
2021-12-23 17:18:14.595484,-4
2021-12-23 17:18:14.595494,-13
2021-12-23 17:18:14.595503,4
2021-12-23 17:18:14.595513,18
2021-12-23 17:18:14.595523,32
2021-12-23 17:18:14.595533,37
2021-12-23 17:18:14.595543,9
2021-12-23 17:18:14.595553,11
2021-12-23 17:18:14.595562,44
2021-12-23 17:18:14.775264,51
2021-12-23 17:18:14.775295,53
2021-12-23 17:18:14.775307,41
2021-12-23 17:18:14.775318,76
2021-12-23 17:18:14.775328,293
2021-12-23 17:18:14.775338,484
2021-12-23 17:18:14.775348,258
2021-12-23 17:18:14.775358,-331
2021-12-23 17:18:14.775368,-671
2021-12-23 17:18:14.775378,-398
2021-12-23 17:18:14.775388,-39
2021-12-23 17:18:14.775398,-6
2021-12-23 17:18:14.775408,6
2021-12-23 17:18:14.775418,121
2021-12-23 17:18:14.775428,109
2021-12-23 17:18:14.775438,27
2021-12-23 17:18:14.775448,37
2021-12-23 17:18:14.775459,72
2021-12-23 17:18:14.775469,83
2021-12-23 17:18:14.775479,83
2021-12-23 17:18:14.775489,53
2021-12-23 17:18:14.775499,37
2021-12-23 17:18:14.775512,79
2021-12-23 17:18:14.775560,123
2021-12-23 17:18:14.775572,142
2021-12-23 17:18:14.775583,167
2021-12-23 17:18:14.775593,188
2021-12-23 17:18:14.775603,200
2021-12-23 17:18:14.775610,237
2021-12-23 17:18:14.775617,277
2021-12-23 17:18:15.133840,284
2021-12-23 17:18:15.133870,279
2021-12-23 17:18:15.133883,261
2021-12-23 17:18:15.133893,216
2021-12-23 17:18:15.133903,184
2021-12-23 17:18:15.133913,144
2021-12-23 17:18:15.133922,76
2021-12-23 17:18:15.133932,-13
2021-12-23 17:18:15.133942,-123
2021-12-23 17:18:15.133952,-195
2021-12-23 17:18:15.133962,-212
2021-12-23 17:18:15.133972,-251
2021-12-23 17:18:15.133982,-305
2021-12-23 17:18:15.133992,-317
2021-12-23 17:18:15.134002,-324
2021-12-23 17:18:15.134012,-317
2021-12-23 17:18:15.134021,-275
2021-12-23 17:18:15.134031,-235
2021-12-23 17:18:15.134041,-212
2021-12-23 17:18:15.134051,-209
2021-12-23 17:18:15.134061,-212
2021-12-23 17:18:15.134071,-188
2021-12-23 17:18:15.134080,-163
2021-12-23 17:18:15.134090,-137
2021-12-23 17:18:15.134100,-121
2021-12-23 17:18:15.134110,-123
2021-12-23 17:18:15.134120,-118
2021-12-23 17:18:15.134130,-109
2021-12-23 17:18:15.134140,-97
2021-12-23 17:18:15.134149,-79
2021-12-23 17:18:15.224148,-74
2021-12-23 17:18:15.224169,-83
2021-12-23 17:18:15.224176,-88
2021-12-23 17:18:15.224181,-83
2021-12-23 17:18:15.224187,-72
2021-12-23 17:18:15.224192,-69
2021-12-23 17:18:15.224197,-65
2021-12-23 17:18:15.224202,-74
2021-12-23 17:18:15.224208,-121
2021-12-23 17:18:15.224213,-146
2021-12-23 17:18:15.224218,-107
2021-12-23 17:18:15.224224,-65
2021-12-23 17:18:15.224229,-58
2021-12-23 17:18:15.224234,-69
2021-12-23 17:18:15.224239,-86
2021-12-23 17:18:15.224244,-95
2021-12-23 17:18:15.224249,-86
2021-12-23 17:18:15.224255,-72
2021-12-23 17:18:15.224260,-86
2021-12-23 17:18:15.224265,-111
2021-12-23 17:18:15.224270,-104
2021-12-23 17:18:15.224275,-88
2021-12-23 17:18:15.224280,-76
2021-12-23 17:18:15.224285,-55
2021-12-23 17:18:15.224290,-51
2021-12-23 17:18:15.224295,-46
2021-12-23 17:18:15.224301,62
2021-12-23 17:18:15.224306,284
2021-12-23 17:18:15.224311,394
2021-12-23 17:18:15.224316,144
2021-12-23 17:18:15.450196,-394
2021-12-23 17:18:15.450227,-697
2021-12-23 17:18:15.450239,-412
2021-12-23 17:18:15.450249,-55
2021-12-23 17:18:15.450259,-37
2021-12-23 17:18:15.450280,-23
2021-12-23 17:18:15.450290,65
2021-12-23 17:18:15.450300,44
2021-12-23 17:18:15.450310,30
2021-12-23 17:18:15.450320,69
2021-12-23 17:18:15.450330,79
2021-12-23 17:18:15.450340,62
2021-12-23 17:18:15.450350,44
2021-12-23 17:18:15.450360,23
2021-12-23 17:18:15.450370,25
2021-12-23 17:18:15.450380,30
2021-12-23 17:18:15.450390,18
2021-12-23 17:18:15.450400,39
2021-12-23 17:18:15.450409,74
2021-12-23 17:18:15.450419,104
2021-12-23 17:18:15.450429,142
2021-12-23 17:18:15.450439,174
2021-12-23 17:18:15.450449,193
2021-12-23 17:18:15.450459,207
2021-12-23 17:18:15.450468,207
2021-12-23 17:18:15.450478,195
2021-12-23 17:18:15.450488,184
2021-12-23 17:18:15.450498,144
2021-12-23 17:18:15.450508,86
2021-12-23 17:18:15.450518,18
2021-12-23 17:18:15.675192,-48
2021-12-23 17:18:15.675223,-88
2021-12-23 17:18:15.675234,-114
2021-12-23 17:18:15.675244,-144
2021-12-23 17:18:15.675254,-170
2021-12-23 17:18:15.675264,-214
2021-12-23 17:18:15.675274,-254
2021-12-23 17:18:15.675284,-237
2021-12-23 17:18:15.675294,-230
2021-12-23 17:18:15.675304,-249
2021-12-23 17:18:15.675314,-237
2021-12-23 17:18:15.675324,-237
2021-12-23 17:18:15.675334,-265
2021-12-23 17:18:15.675344,-277
2021-12-23 17:18:15.675353,-284
2021-12-23 17:18:15.675363,-268
2021-12-23 17:18:15.675373,-230
2021-12-23 17:18:15.675383,-226
2021-12-23 17:18:15.675393,-242
2021-12-23 17:18:15.675407,-216
2021-12-23 17:18:15.675417,-181
2021-12-23 17:18:15.675427,-181
2021-12-23 17:18:15.675437,-177
2021-12-23 17:18:15.675447,-167
2021-12-23 17:18:15.675457,-160
2021-12-23 17:18:15.675467,-139
2021-12-23 17:18:15.675477,-121
2021-12-23 17:18:15.675487,-125
2021-12-23 17:18:15.675496,-137
2021-12-23 17:18:15.675506,-142
2021-12-23 17:18:15.900187,-130
2021-12-23 17:18:15.900218,-107
2021-12-23 17:18:15.900230,-100
2021-12-23 17:18:15.900241,-97
2021-12-23 17:18:15.900251,-100
2021-12-23 17:18:15.900261,-111
2021-12-23 17:18:15.900271,-104
2021-12-23 17:18:15.900281,-76
2021-12-23 17:18:15.900291,-81
2021-12-23 17:18:15.900301,-97
2021-12-23 17:18:15.900311,-109
2021-12-23 17:18:15.900321,-123
2021-12-23 17:18:15.900331,-109
2021-12-23 17:18:15.900341,-76
2021-12-23 17:18:15.900351,-67
2021-12-23 17:18:15.900362,-72
2021-12-23 17:18:15.900372,-69
2021-12-23 17:18:15.900382,-41
2021-12-23 17:18:15.900392,20
2021-12-23 17:18:15.900403,149
2021-12-23 17:18:15.900413,317
2021-12-23 17:18:15.900423,305
2021-12-23 17:18:15.900433,-51
2021-12-23 17:18:15.900443,-545
2021-12-23 17:18:15.900453,-673
2021-12-23 17:18:15.900463,-296
2021-12-23 17:18:15.900473,-9
2021-12-23 17:18:15.900483,-32
2021-12-23 17:18:15.900493,9
2021-12-23 17:18:15.900503,107
2021-12-23 17:18:16.124407,100
2021-12-23 17:18:16.124430,93
2021-12-23 17:18:16.124438,123
2021-12-23 17:18:16.124445,104
2021-12-23 17:18:16.124451,55
2021-12-23 17:18:16.124457,65
2021-12-23 17:18:16.124463,109
2021-12-23 17:18:16.124470,130
2021-12-23 17:18:16.124476,125
2021-12-23 17:18:16.124482,100
2021-12-23 17:18:16.124489,74
2021-12-23 17:18:16.124495,100
2021-12-23 17:18:16.124501,153
2021-12-23 17:18:16.124507,191
2021-12-23 17:18:16.124514,214
2021-12-23 17:18:16.124520,221
2021-12-23 17:18:16.124526,209
2021-12-23 17:18:16.124532,214
2021-12-23 17:18:16.124539,195
2021-12-23 17:18:16.124545,121
2021-12-23 17:18:16.124551,58
2021-12-23 17:18:16.124557,2
2021-12-23 17:18:16.124564,-83
2021-12-23 17:18:16.124570,-139
2021-12-23 17:18:16.124576,-153
2021-12-23 17:18:16.124582,-172
2021-12-23 17:18:16.124589,-200
2021-12-23 17:18:16.124595,-221
2021-12-23 17:18:16.124601,-221
2021-12-23 17:18:16.124607,-195
2021-12-23 17:18:16.395055,-179
2021-12-23 17:18:16.395085,-191
2021-12-23 17:18:16.395096,-212
2021-12-23 17:18:16.395107,-254
2021-12-23 17:18:16.395117,-286
2021-12-23 17:18:16.395127,-247
2021-12-23 17:18:16.395137,-195
2021-12-23 17:18:16.395147,-186
2021-12-23 17:18:16.395157,-188
2021-12-23 17:18:16.395167,-212
2021-12-23 17:18:16.395177,-216
2021-12-23 17:18:16.395187,-179
2021-12-23 17:18:16.395197,-146
2021-12-23 17:18:16.395207,-137
2021-12-23 17:18:16.395217,-135
2021-12-23 17:18:16.395227,-144
2021-12-23 17:18:16.395237,-144
2021-12-23 17:18:16.395247,-118
2021-12-23 17:18:16.395257,-97
2021-12-23 17:18:16.395267,-93
2021-12-23 17:18:16.395277,-95
2021-12-23 17:18:16.395287,-109
2021-12-23 17:18:16.395297,-111
2021-12-23 17:18:16.395307,-114
2021-12-23 17:18:16.395317,-130
2021-12-23 17:18:16.395327,-125
2021-12-23 17:18:16.395337,-109
2021-12-23 17:18:16.395347,-114
2021-12-23 17:18:16.395357,-90
2021-12-23 17:18:16.395367,-44
2021-12-23 17:18:16.620217,-23
2021-12-23 17:18:16.620247,-27
2021-12-23 17:18:16.620259,-48
2021-12-23 17:18:16.620269,-72
2021-12-23 17:18:16.620279,-58
2021-12-23 17:18:16.620289,-23
2021-12-23 17:18:16.620299,-6
2021-12-23 17:18:16.620309,-11
2021-12-23 17:18:16.620319,-44
2021-12-23 17:18:16.620329,-81
2021-12-23 17:18:16.620338,-58
2021-12-23 17:18:16.620348,-4
2021-12-23 17:18:16.620358,46
2021-12-23 17:18:16.620368,181
2021-12-23 17:18:16.620378,373
2021-12-23 17:18:16.620388,345
2021-12-23 17:18:16.620397,-11
2021-12-23 17:18:16.620407,-477
2021-12-23 17:18:16.620417,-617
2021-12-23 17:18:16.620427,-270
2021-12-23 17:18:16.620437,2
2021-12-23 17:18:16.620447,-11
2021-12-23 17:18:16.620457,48
2021-12-23 17:18:16.620466,135
2021-12-23 17:18:16.620476,69
2021-12-23 17:18:16.620486,-2
2021-12-23 17:18:16.620496,9
2021-12-23 17:18:16.620506,25
2021-12-23 17:18:16.620515,39
2021-12-23 17:18:16.620525,74
2021-12-23 17:18:16.844750,102
2021-12-23 17:18:16.844781,109
2021-12-23 17:18:16.844793,109
2021-12-23 17:18:16.844803,104
2021-12-23 17:18:16.844813,104
2021-12-23 17:18:16.844822,132
2021-12-23 17:18:16.844832,174
2021-12-23 17:18:16.844842,181
2021-12-23 17:18:16.844851,163
2021-12-23 17:18:16.844861,174
2021-12-23 17:18:16.844871,207
2021-12-23 17:18:16.844880,221
2021-12-23 17:18:16.844890,212
2021-12-23 17:18:16.844900,172
2021-12-23 17:18:16.844909,97
2021-12-23 17:18:16.844919,39
2021-12-23 17:18:16.844929,-4
2021-12-23 17:18:16.844939,-55
2021-12-23 17:18:16.844948,-97
2021-12-23 17:18:16.844958,-137
2021-12-23 17:18:16.844968,-172
2021-12-23 17:18:16.844977,-188
2021-12-23 17:18:16.844987,-181
2021-12-23 17:18:16.844997,-156
2021-12-23 17:18:16.845006,-137
2021-12-23 17:18:16.845016,-153
2021-12-23 17:18:16.845026,-188
2021-12-23 17:18:16.845035,-214
2021-12-23 17:18:16.845045,-242
2021-12-23 17:18:16.845055,-249
2021-12-23 17:18:17.113858,-219
2021-12-23 17:18:17.113888,-198
2021-12-23 17:18:17.113900,-195
2021-12-23 17:18:17.113910,-188
2021-12-23 17:18:17.113920,-170
2021-12-23 17:18:17.113930,-144
2021-12-23 17:18:17.113940,-149
2021-12-23 17:18:17.113950,-177
2021-12-23 17:18:17.113960,-174
2021-12-23 17:18:17.113970,-151
2021-12-23 17:18:17.113979,-137
2021-12-23 17:18:17.113989,-123
2021-12-23 17:18:17.113999,-128
2021-12-23 17:18:17.114009,-156
2021-12-23 17:18:17.114019,-158
2021-12-23 17:18:17.114028,-139
2021-12-23 17:18:17.114038,-128
2021-12-23 17:18:17.114048,-114
2021-12-23 17:18:17.114058,-111
2021-12-23 17:18:17.114068,-121
2021-12-23 17:18:17.114078,-114
2021-12-23 17:18:17.114088,-102
2021-12-23 17:18:17.114098,-88
2021-12-23 17:18:17.114108,-62
2021-12-23 17:18:17.114117,-46
2021-12-23 17:18:17.114127,-39
2021-12-23 17:18:17.114137,-27
2021-12-23 17:18:17.114147,-25
2021-12-23 17:18:17.114157,-44
2021-12-23 17:18:17.114167,-76
2021-12-23 17:18:17.295212,-123
2021-12-23 17:18:17.295242,-123
2021-12-23 17:18:17.295254,-86
2021-12-23 17:18:17.295264,-81
2021-12-23 17:18:17.295274,-83
2021-12-23 17:18:17.295284,-62
2021-12-23 17:18:17.295294,-74
2021-12-23 17:18:17.295304,-79
2021-12-23 17:18:17.295313,-23
2021-12-23 17:18:17.295323,121
2021-12-23 17:18:17.295333,352
2021-12-23 17:18:17.295343,405
2021-12-23 17:18:17.295352,34
2021-12-23 17:18:17.295362,-526
2021-12-23 17:18:17.295372,-708
2021-12-23 17:18:17.295382,-338
2021-12-23 17:18:17.295392,-20
2021-12-23 17:18:17.295402,-34
2021-12-23 17:18:17.295411,0
2021-12-23 17:18:17.295421,104
2021-12-23 17:18:17.295431,97
2021-12-23 17:18:17.295441,76
2021-12-23 17:18:17.295451,114
2021-12-23 17:18:17.295461,128
2021-12-23 17:18:17.295470,114
2021-12-23 17:18:17.295480,130
2021-12-23 17:18:17.295490,160
2021-12-23 17:18:17.295499,170
2021-12-23 17:18:17.295509,179
2021-12-23 17:18:17.295519,195
2021-12-23 17:18:17.564731,191
2021-12-23 17:18:17.564762,167
2021-12-23 17:18:17.564774,163
2021-12-23 17:18:17.564784,188
2021-12-23 17:18:17.564794,228
2021-12-23 17:18:17.564804,226
2021-12-23 17:18:17.564814,200
2021-12-23 17:18:17.564824,216
2021-12-23 17:18:17.564834,226
2021-12-23 17:18:17.564844,188
2021-12-23 17:18:17.564855,146
2021-12-23 17:18:17.564864,86
2021-12-23 17:18:17.564874,-4
2021-12-23 17:18:17.564884,-60
2021-12-23 17:18:17.564894,-88
2021-12-23 17:18:17.564904,-130
2021-12-23 17:18:17.564914,-163
2021-12-23 17:18:17.564924,-170
2021-12-23 17:18:17.564934,-160
2021-12-23 17:18:17.564944,-144
2021-12-23 17:18:17.564953,-139
2021-12-23 17:18:17.564963,-142
2021-12-23 17:18:17.564973,-149
2021-12-23 17:18:17.564983,-156
2021-12-23 17:18:17.564993,-139
2021-12-23 17:18:17.565003,-125
2021-12-23 17:18:17.565012,-139
2021-12-23 17:18:17.565022,-135
2021-12-23 17:18:17.565032,-111
2021-12-23 17:18:17.565042,-111
2021-12-23 17:18:17.745221,-109
2021-12-23 17:18:17.745251,-79
2021-12-23 17:18:17.745263,-76
2021-12-23 17:18:17.745274,-107
2021-12-23 17:18:17.745284,-144
2021-12-23 17:18:17.745294,-181
2021-12-23 17:18:17.745303,-188
2021-12-23 17:18:17.745313,-151
2021-12-23 17:18:17.745323,-128
2021-12-23 17:18:17.745333,-139
2021-12-23 17:18:17.745343,-165
2021-12-23 17:18:17.745353,-181
2021-12-23 17:18:17.745363,-158
2021-12-23 17:18:17.745373,-123
2021-12-23 17:18:17.745383,-118
2021-12-23 17:18:17.745393,-125
2021-12-23 17:18:17.745403,-142
2021-12-23 17:18:17.745412,-149
2021-12-23 17:18:17.745422,-121
2021-12-23 17:18:17.745432,-76
2021-12-23 17:18:17.745442,-60
2021-12-23 17:18:17.745452,-72
2021-12-23 17:18:17.745462,-88
2021-12-23 17:18:17.745472,-86
2021-12-23 17:18:17.745482,-62
2021-12-23 17:18:17.745492,-39
2021-12-23 17:18:17.745502,-30
2021-12-23 17:18:17.745512,-34
2021-12-23 17:18:17.745522,-41
2021-12-23 17:18:17.745533,-30
2021-12-23 17:18:17.969856,-2
2021-12-23 17:18:17.969878,25
2021-12-23 17:18:17.969886,46
2021-12-23 17:18:17.969893,74
2021-12-23 17:18:17.969900,202
2021-12-23 17:18:17.969906,419
2021-12-23 17:18:17.969913,370
2021-12-23 17:18:17.969919,-139
2021-12-23 17:18:17.969926,-662
2021-12-23 17:18:17.969932,-601
2021-12-23 17:18:17.969939,-191
2021-12-23 17:18:17.969945,-53
2021-12-23 17:18:17.969952,-67
2021-12-23 17:18:17.969958,51
2021-12-23 17:18:17.969965,111
2021-12-23 17:18:17.969971,58
2021-12-23 17:18:17.969978,62
2021-12-23 17:18:17.969984,114
2021-12-23 17:18:17.969991,128
2021-12-23 17:18:17.969997,144
2021-12-23 17:18:17.970004,163
2021-12-23 17:18:17.970010,146
2021-12-23 17:18:17.970017,149
2021-12-23 17:18:17.970023,205
2021-12-23 17:18:17.970030,237
2021-12-23 17:18:17.970036,244
2021-12-23 17:18:17.970043,268
2021-12-23 17:18:17.970049,265
2021-12-23 17:18:17.970056,261
2021-12-23 17:18:17.970062,305
2021-12-23 17:18:18.239755,338
2021-12-23 17:18:18.239785,335
2021-12-23 17:18:18.239797,312
2021-12-23 17:18:18.239807,244
2021-12-23 17:18:18.239817,179
2021-12-23 17:18:18.239827,151
2021-12-23 17:18:18.239837,107
2021-12-23 17:18:18.239847,25
2021-12-23 17:18:18.239857,-76
2021-12-23 17:18:18.239867,-191
2021-12-23 17:18:18.239876,-272
2021-12-23 17:18:18.239886,-282
2021-12-23 17:18:18.239896,-247
2021-12-23 17:18:18.239906,-226
2021-12-23 17:18:18.239915,-228
2021-12-23 17:18:18.239925,-223
2021-12-23 17:18:18.239935,-207
2021-12-23 17:18:18.239945,-172
2021-12-23 17:18:18.239955,-142
2021-12-23 17:18:18.239964,-144
2021-12-23 17:18:18.239974,-158
2021-12-23 17:18:18.239984,-165
2021-12-23 17:18:18.239994,-174
2021-12-23 17:18:18.240004,-165
2021-12-23 17:18:18.240013,-128
2021-12-23 17:18:18.240023,-104
2021-12-23 17:18:18.240033,-111
2021-12-23 17:18:18.240043,-118
2021-12-23 17:18:18.240053,-104
2021-12-23 17:18:18.240063,-81
2021-12-23 17:18:18.465192,-72
2021-12-23 17:18:18.465223,-67
2021-12-23 17:18:18.465235,-76
2021-12-23 17:18:18.465245,-104
2021-12-23 17:18:18.465255,-93
2021-12-23 17:18:18.465265,-58
2021-12-23 17:18:18.465275,-58
2021-12-23 17:18:18.465285,-74
2021-12-23 17:18:18.465295,-97
2021-12-23 17:18:18.465304,-142
2021-12-23 17:18:18.465314,-156
2021-12-23 17:18:18.465324,-130
2021-12-23 17:18:18.465334,-97
2021-12-23 17:18:18.465344,-81
2021-12-23 17:18:18.465353,-97
2021-12-23 17:18:18.465363,-123
2021-12-23 17:18:18.465373,-118
2021-12-23 17:18:18.465383,-100
2021-12-23 17:18:18.465392,-81
2021-12-23 17:18:18.465402,-67
2021-12-23 17:18:18.465412,-69
2021-12-23 17:18:18.465422,-76
2021-12-23 17:18:18.465431,-62
2021-12-23 17:18:18.465441,-37
2021-12-23 17:18:18.465451,-16
2021-12-23 17:18:18.465461,0
2021-12-23 17:18:18.465470,18
2021-12-23 17:18:18.465480,100
2021-12-23 17:18:18.465490,303
2021-12-23 17:18:18.465500,491
2021-12-23 17:18:18.689739,328
2021-12-23 17:18:18.689769,-247
2021-12-23 17:18:18.689781,-680
2021-12-23 17:18:18.689791,-459
2021-12-23 17:18:18.689801,-41
2021-12-23 17:18:18.689816,9
2021-12-23 17:18:18.689826,-4
2021-12-23 17:18:18.689836,93
2021-12-23 17:18:18.689846,86
2021-12-23 17:18:18.689856,41
2021-12-23 17:18:18.689866,79
2021-12-23 17:18:18.689876,97
2021-12-23 17:18:18.689886,60
2021-12-23 17:18:18.689896,37
2021-12-23 17:18:18.689906,30
2021-12-23 17:18:18.689916,11
2021-12-23 17:18:18.689926,-4
2021-12-23 17:18:18.689936,23
2021-12-23 17:18:18.689946,76
2021-12-23 17:18:18.689955,90
2021-12-23 17:18:18.689965,102
2021-12-23 17:18:18.689975,125
2021-12-23 17:18:18.689985,139
2021-12-23 17:18:18.689995,167
2021-12-23 17:18:18.690005,195
2021-12-23 17:18:18.690015,186
2021-12-23 17:18:18.690025,165
2021-12-23 17:18:18.690035,146
2021-12-23 17:18:18.690044,123
2021-12-23 17:18:18.690054,74
2021-12-23 17:18:18.915208,4
2021-12-23 17:18:18.915238,-65
2021-12-23 17:18:18.915250,-116
2021-12-23 17:18:18.915260,-156
2021-12-23 17:18:18.915270,-172
2021-12-23 17:18:18.915280,-170
2021-12-23 17:18:18.915290,-184
2021-12-23 17:18:18.915300,-216
2021-12-23 17:18:18.915310,-226
2021-12-23 17:18:18.915320,-202
2021-12-23 17:18:18.915329,-172
2021-12-23 17:18:18.915339,-149
2021-12-23 17:18:18.915349,-158
2021-12-23 17:18:18.915358,-209
2021-12-23 17:18:18.915368,-244
2021-12-23 17:18:18.915378,-237
2021-12-23 17:18:18.915388,-228
2021-12-23 17:18:18.915397,-228
2021-12-23 17:18:18.915407,-216
2021-12-23 17:18:18.915417,-198
2021-12-23 17:18:18.915427,-184
2021-12-23 17:18:18.915436,-177
2021-12-23 17:18:18.915446,-160
2021-12-23 17:18:18.915456,-137
2021-12-23 17:18:18.915465,-132
2021-12-23 17:18:18.915475,-142
2021-12-23 17:18:18.915485,-137
2021-12-23 17:18:18.915494,-123
2021-12-23 17:18:18.915504,-109
2021-12-23 17:18:18.915514,-104
2021-12-23 17:18:19.228425,-109
2021-12-23 17:18:19.228450,-104
2021-12-23 17:18:19.228461,-97
2021-12-23 17:18:19.228470,-100
2021-12-23 17:18:19.228480,-90
2021-12-23 17:18:19.228490,-86
2021-12-23 17:18:19.228499,-109
2021-12-23 17:18:19.228509,-109
2021-12-23 17:18:19.228518,-74
2021-12-23 17:18:19.228528,-62
2021-12-23 17:18:19.228537,-69
2021-12-23 17:18:19.228547,-83
2021-12-23 17:18:19.228556,-109
2021-12-23 17:18:19.228565,-111
2021-12-23 17:18:19.228581,-81
2021-12-23 17:18:19.228591,-88
2021-12-23 17:18:19.228600,-118
2021-12-23 17:18:19.228609,-118
2021-12-23 17:18:19.228619,-102
2021-12-23 17:18:19.228628,-83
2021-12-23 17:18:19.228638,-51
2021-12-23 17:18:19.228647,-25
2021-12-23 17:18:19.228657,60
2021-12-23 17:18:19.228666,249
2021-12-23 17:18:19.228676,277
2021-12-23 17:18:19.228685,-53
2021-12-23 17:18:19.228695,-540
2021-12-23 17:18:19.228705,-685
2021-12-23 17:18:19.228714,-319
2021-12-23 17:18:19.228724,-48
2021-12-23 17:18:19.364104,-81
2021-12-23 17:18:19.364124,-16
2021-12-23 17:18:19.364132,90
2021-12-23 17:18:19.364139,60
2021-12-23 17:18:19.364146,37
2021-12-23 17:18:19.364152,53
2021-12-23 17:18:19.364159,34
2021-12-23 17:18:19.364165,48
2021-12-23 17:18:19.364172,90
2021-12-23 17:18:19.364178,95
2021-12-23 17:18:19.364185,90
2021-12-23 17:18:19.364191,83
2021-12-23 17:18:19.364198,79
2021-12-23 17:18:19.364204,111
2021-12-23 17:18:19.364211,135
2021-12-23 17:18:19.364217,130
2021-12-23 17:18:19.364224,163
2021-12-23 17:18:19.364297,202
2021-12-23 17:18:19.364305,191
2021-12-23 17:18:19.364311,184
2021-12-23 17:18:19.364318,205
2021-12-23 17:18:19.364324,191
2021-12-23 17:18:19.364331,149
2021-12-23 17:18:19.364337,107
2021-12-23 17:18:19.364343,58
2021-12-23 17:18:19.364350,6
2021-12-23 17:18:19.364356,-46
2021-12-23 17:18:19.364363,-97
2021-12-23 17:18:19.364369,-137
2021-12-23 17:18:19.364375,-158
2021-12-23 17:18:19.589775,-156
2021-12-23 17:18:19.589791,-139
2021-12-23 17:18:19.589798,-135
2021-12-23 17:18:19.589803,-142
2021-12-23 17:18:19.589808,-160
2021-12-23 17:18:19.589813,-179
2021-12-23 17:18:19.589818,-181
2021-12-23 17:18:19.589824,-167
2021-12-23 17:18:19.589829,-163
2021-12-23 17:18:19.589834,-184
2021-12-23 17:18:19.589839,-214
2021-12-23 17:18:19.589844,-219
2021-12-23 17:18:19.589849,-186
2021-12-23 17:18:19.589855,-158
2021-12-23 17:18:19.589860,-149
2021-12-23 17:18:19.589865,-149
2021-12-23 17:18:19.589870,-149
2021-12-23 17:18:19.589875,-139
2021-12-23 17:18:19.589880,-116
2021-12-23 17:18:19.589886,-111
2021-12-23 17:18:19.589891,-142
2021-12-23 17:18:19.589896,-163
2021-12-23 17:18:19.589901,-151
2021-12-23 17:18:19.589907,-135
2021-12-23 17:18:19.589912,-116
2021-12-23 17:18:19.589917,-97
2021-12-23 17:18:19.589922,-104
2021-12-23 17:18:19.589928,-163
2021-12-23 17:18:19.589933,-216
2021-12-23 17:18:19.589938,-184
2021-12-23 17:18:19.815197,-132
2021-12-23 17:18:19.815228,-125
2021-12-23 17:18:19.815240,-116
2021-12-23 17:18:19.815250,-114
2021-12-23 17:18:19.815260,-139
2021-12-23 17:18:19.815269,-130
2021-12-23 17:18:19.815279,-100
2021-12-23 17:18:19.815289,-97
2021-12-23 17:18:19.815299,-100
2021-12-23 17:18:19.815309,-116
2021-12-23 17:18:19.815319,-149
2021-12-23 17:18:19.815329,-130
2021-12-23 17:18:19.815339,-86
2021-12-23 17:18:19.815349,-69
2021-12-23 17:18:19.815358,-65
2021-12-23 17:18:19.815368,-62
2021-12-23 17:18:19.815378,-48
2021-12-23 17:18:19.815387,27
2021-12-23 17:18:19.815397,202
2021-12-23 17:18:19.815407,398
2021-12-23 17:18:19.815416,347
2021-12-23 17:18:19.815426,-60
2021-12-23 17:18:19.815436,-554
2021-12-23 17:18:19.815445,-617
2021-12-23 17:18:19.815455,-212
2021-12-23 17:18:19.815465,25
2021-12-23 17:18:19.815475,-2
2021-12-23 17:18:19.815484,48
2021-12-23 17:18:19.815494,109
2021-12-23 17:18:19.815504,95
2021-12-23 17:18:20.083846,109
2021-12-23 17:18:20.083862,144
2021-12-23 17:18:20.083867,128
2021-12-23 17:18:20.083872,81
2021-12-23 17:18:20.083877,72
2021-12-23 17:18:20.083881,111
2021-12-23 17:18:20.083886,130
2021-12-23 17:18:20.083890,114
2021-12-23 17:18:20.083895,104
2021-12-23 17:18:20.083899,93
2021-12-23 17:18:20.083904,102
2021-12-23 17:18:20.083908,153
2021-12-23 17:18:20.083913,200
2021-12-23 17:18:20.083918,221
2021-12-23 17:18:20.083922,230
2021-12-23 17:18:20.083927,216
2021-12-23 17:18:20.083931,202
2021-12-23 17:18:20.083936,209
2021-12-23 17:18:20.083940,200
2021-12-23 17:18:20.083945,156
2021-12-23 17:18:20.083949,88
2021-12-23 17:18:20.083954,0
2021-12-23 17:18:20.083958,-65
2021-12-23 17:18:20.083963,-109
2021-12-23 17:18:20.083967,-160
2021-12-23 17:18:20.083972,-191
2021-12-23 17:18:20.083976,-198
2021-12-23 17:18:20.083981,-209
2021-12-23 17:18:20.083985,-209
2021-12-23 17:18:20.083990,-200
2021-12-23 17:18:20.310126,-195
2021-12-23 17:18:20.310148,-188
2021-12-23 17:18:20.310156,-212
2021-12-23 17:18:20.310163,-263
2021-12-23 17:18:20.310170,-277
2021-12-23 17:18:20.310177,-233
2021-12-23 17:18:20.310183,-193
2021-12-23 17:18:20.310190,-191
2021-12-23 17:18:20.310196,-216
2021-12-23 17:18:20.310203,-235
2021-12-23 17:18:20.310209,-205
2021-12-23 17:18:20.310216,-163
2021-12-23 17:18:20.310222,-151
2021-12-23 17:18:20.310228,-153
2021-12-23 17:18:20.310235,-177
2021-12-23 17:18:20.310241,-198
2021-12-23 17:18:20.310248,-167
2021-12-23 17:18:20.310254,-130
2021-12-23 17:18:20.310261,-118
2021-12-23 17:18:20.310267,-114
2021-12-23 17:18:20.310274,-116
2021-12-23 17:18:20.310280,-118
2021-12-23 17:18:20.310286,-102
2021-12-23 17:18:20.310293,-81
2021-12-23 17:18:20.310299,-67
2021-12-23 17:18:20.310306,-69
2021-12-23 17:18:20.310312,-95
2021-12-23 17:18:20.310319,-114
2021-12-23 17:18:20.310325,-93
2021-12-23 17:18:20.310332,-55
2021-12-23 17:18:20.535186,-32
2021-12-23 17:18:20.535217,-18
2021-12-23 17:18:20.535228,-18
2021-12-23 17:18:20.535239,-30
2021-12-23 17:18:20.535249,-32
2021-12-23 17:18:20.535258,-13
2021-12-23 17:18:20.535268,0
2021-12-23 17:18:20.535278,-27
2021-12-23 17:18:20.535287,-69
2021-12-23 17:18:20.535297,-65
2021-12-23 17:18:20.535307,-32
2021-12-23 17:18:20.535317,-16
2021-12-23 17:18:20.535326,-9
2021-12-23 17:18:20.535336,-20
2021-12-23 17:18:20.535346,-27
2021-12-23 17:18:20.535355,65
2021-12-23 17:18:20.535365,286
2021-12-23 17:18:20.535375,431
2021-12-23 17:18:20.535385,242
2021-12-23 17:18:20.535395,-242
2021-12-23 17:18:20.535404,-608
2021-12-23 17:18:20.535414,-431
2021-12-23 17:18:20.535424,-48
2021-12-23 17:18:20.535433,27
2021-12-23 17:18:20.535443,27
2021-12-23 17:18:20.535453,121
2021-12-23 17:18:20.535463,121
2021-12-23 17:18:20.535472,79
2021-12-23 17:18:20.535482,81
2021-12-23 17:18:20.535492,86
2021-12-23 17:18:20.759744,83
2021-12-23 17:18:20.759774,74
2021-12-23 17:18:20.759786,65
2021-12-23 17:18:20.759796,79
2021-12-23 17:18:20.759806,100
2021-12-23 17:18:20.759816,123
2021-12-23 17:18:20.759825,128
2021-12-23 17:18:20.759835,111
2021-12-23 17:18:20.759845,107
2021-12-23 17:18:20.759854,100
2021-12-23 17:18:20.759864,100
2021-12-23 17:18:20.759874,151
2021-12-23 17:18:20.759883,170
2021-12-23 17:18:20.759893,132
2021-12-23 17:18:20.759902,128
2021-12-23 17:18:20.759912,135
2021-12-23 17:18:20.759922,109
2021-12-23 17:18:20.759931,69
2021-12-23 17:18:20.759941,9
2021-12-23 17:18:20.759951,-65
2021-12-23 17:18:20.759961,-116
2021-12-23 17:18:20.759971,-149
2021-12-23 17:18:20.759980,-179
2021-12-23 17:18:20.759990,-219
2021-12-23 17:18:20.760000,-244
2021-12-23 17:18:20.760009,-251
2021-12-23 17:18:20.760019,-261
2021-12-23 17:18:20.760029,-263
2021-12-23 17:18:20.760038,-235
2021-12-23 17:18:20.760048,-216
2021-12-23 17:18:20.985173,-230
2021-12-23 17:18:20.985204,-228
2021-12-23 17:18:20.985216,-198
2021-12-23 17:18:20.985226,-184
2021-12-23 17:18:20.985236,-177
2021-12-23 17:18:20.985246,-163
2021-12-23 17:18:20.985256,-181
2021-12-23 17:18:20.985266,-188
2021-12-23 17:18:20.985276,-153
2021-12-23 17:18:20.985286,-144
2021-12-23 17:18:20.985296,-151
2021-12-23 17:18:20.985306,-146
2021-12-23 17:18:20.985316,-156
2021-12-23 17:18:20.985326,-156
2021-12-23 17:18:20.985336,-130
2021-12-23 17:18:20.985346,-121
2021-12-23 17:18:20.985356,-118
2021-12-23 17:18:20.985366,-109
2021-12-23 17:18:20.985376,-109
2021-12-23 17:18:20.985386,-100
2021-12-23 17:18:20.985396,-81
2021-12-23 17:18:20.985406,-79
2021-12-23 17:18:20.985416,-69
2021-12-23 17:18:20.985426,-62
2021-12-23 17:18:20.985436,-69
2021-12-23 17:18:20.985446,-65
2021-12-23 17:18:20.985456,-51
2021-12-23 17:18:20.985466,-48
2021-12-23 17:18:20.985475,-46
2021-12-23 17:18:20.985486,-39
2021-12-23 17:18:21.298409,-23
2021-12-23 17:18:21.298431,-4
2021-12-23 17:18:21.298438,-20
2021-12-23 17:18:21.298445,-53
2021-12-23 17:18:21.298452,-60
2021-12-23 17:18:21.298458,-76
2021-12-23 17:18:21.298465,-104
2021-12-23 17:18:21.298471,-81
2021-12-23 17:18:21.298478,-48
2021-12-23 17:18:21.298511,-51
2021-12-23 17:18:21.298519,-62
2021-12-23 17:18:21.298525,-79
2021-12-23 17:18:21.298532,-86
2021-12-23 17:18:21.298577,-67
2021-12-23 17:18:21.298595,-81
2021-12-23 17:18:21.298608,-83
2021-12-23 17:18:21.298642,90
2021-12-23 17:18:21.298652,326
2021-12-23 17:18:21.298659,293
2021-12-23 17:18:21.298666,-86
2021-12-23 17:18:21.298672,-547
2021-12-23 17:18:21.298679,-608
2021-12-23 17:18:21.298685,-230
2021-12-23 17:18:21.298692,-25
2021-12-23 17:18:21.298698,-46
2021-12-23 17:18:21.298705,48
2021-12-23 17:18:21.298712,114
2021-12-23 17:18:21.298718,44
2021-12-23 17:18:21.298725,18
2021-12-23 17:18:21.298731,55
2021-12-23 17:18:21.434593,69
2021-12-23 17:18:21.434614,81
2021-12-23 17:18:21.434621,97
2021-12-23 17:18:21.434628,95
2021-12-23 17:18:21.434634,76
2021-12-23 17:18:21.434641,79
2021-12-23 17:18:21.434647,114
2021-12-23 17:18:21.434653,149
2021-12-23 17:18:21.434660,170
2021-12-23 17:18:21.434666,179
2021-12-23 17:18:21.434673,172
2021-12-23 17:18:21.434679,167
2021-12-23 17:18:21.434685,200
2021-12-23 17:18:21.434692,233
2021-12-23 17:18:21.434698,233
2021-12-23 17:18:21.434704,207
2021-12-23 17:18:21.434711,146
2021-12-23 17:18:21.434717,79
2021-12-23 17:18:21.434723,46
2021-12-23 17:18:21.434730,-9
2021-12-23 17:18:21.434736,-100
2021-12-23 17:18:21.434743,-174
2021-12-23 17:18:21.434749,-228
2021-12-23 17:18:21.434755,-254
2021-12-23 17:18:21.434762,-244
2021-12-23 17:18:21.434768,-226
2021-12-23 17:18:21.434774,-216
2021-12-23 17:18:21.434781,-230
2021-12-23 17:18:21.434787,-237
2021-12-23 17:18:21.434793,-207
2021-12-23 17:18:21.660070,-167
2021-12-23 17:18:21.660091,-151
2021-12-23 17:18:21.660099,-142
2021-12-23 17:18:21.660106,-156
2021-12-23 17:18:21.660112,-181
2021-12-23 17:18:21.660119,-177
2021-12-23 17:18:21.660125,-167
2021-12-23 17:18:21.660132,-172
2021-12-23 17:18:21.660138,-156
2021-12-23 17:18:21.660147,-160
2021-12-23 17:18:21.660159,-195
2021-12-23 17:18:21.660169,-179
2021-12-23 17:18:21.660181,-132
2021-12-23 17:18:21.660193,-118
2021-12-23 17:18:21.660202,-121
2021-12-23 17:18:21.660213,-123
2021-12-23 17:18:21.660223,-130
2021-12-23 17:18:21.660233,-116
2021-12-23 17:18:21.660245,-88
2021-12-23 17:18:21.660257,-102
2021-12-23 17:18:21.660270,-160
2021-12-23 17:18:21.660278,-181
2021-12-23 17:18:21.660284,-151
2021-12-23 17:18:21.660291,-123
2021-12-23 17:18:21.660297,-109
2021-12-23 17:18:21.660304,-95
2021-12-23 17:18:21.660311,-95
2021-12-23 17:18:21.660317,-114
2021-12-23 17:18:21.660324,-107
2021-12-23 17:18:21.660330,-72
2021-12-23 17:18:21.929731,-48
2021-12-23 17:18:21.929761,-37
2021-12-23 17:18:21.929774,-25
2021-12-23 17:18:21.929784,-58
2021-12-23 17:18:21.929794,-86
2021-12-23 17:18:21.929804,-60
2021-12-23 17:18:21.929814,-34
2021-12-23 17:18:21.929824,-41
2021-12-23 17:18:21.929912,-76
2021-12-23 17:18:21.929924,-130
2021-12-23 17:18:21.929934,-130
2021-12-23 17:18:21.929944,-83
2021-12-23 17:18:21.929954,-62
2021-12-23 17:18:21.929964,-48
2021-12-23 17:18:21.929974,-37
2021-12-23 17:18:21.929984,-25
2021-12-23 17:18:21.929994,88
2021-12-23 17:18:21.930004,347
2021-12-23 17:18:21.930014,487
2021-12-23 17:18:21.930024,219
2021-12-23 17:18:21.930034,-356
2021-12-23 17:18:21.930044,-673
2021-12-23 17:18:21.930054,-401
2021-12-23 17:18:21.930064,-55
2021-12-23 17:18:21.930074,-32
2021-12-23 17:18:21.930084,-9
2021-12-23 17:18:21.930094,93
2021-12-23 17:18:21.930104,74
2021-12-23 17:18:21.930114,46
2021-12-23 17:18:21.930124,102
2021-12-23 17:18:22.154874,125
2021-12-23 17:18:22.154907,118
2021-12-23 17:18:22.154919,123
2021-12-23 17:18:22.154929,121
2021-12-23 17:18:22.154939,125
2021-12-23 17:18:22.154949,160
2021-12-23 17:18:22.154959,191
2021-12-23 17:18:22.154969,198
2021-12-23 17:18:22.154979,179
2021-12-23 17:18:22.154989,158
2021-12-23 17:18:22.154999,170
2021-12-23 17:18:22.155009,195
2021-12-23 17:18:22.155019,228
2021-12-23 17:18:22.155029,237
2021-12-23 17:18:22.155039,181
2021-12-23 17:18:22.155049,121
2021-12-23 17:18:22.155058,104
2021-12-23 17:18:22.155068,74
2021-12-23 17:18:22.155078,16
2021-12-23 17:18:22.155088,-32
2021-12-23 17:18:22.155098,-100
2021-12-23 17:18:22.155107,-165
2021-12-23 17:18:22.155117,-184
2021-12-23 17:18:22.155127,-184
2021-12-23 17:18:22.155137,-193
2021-12-23 17:18:22.155147,-216
2021-12-23 17:18:22.155156,-256
2021-12-23 17:18:22.155166,-282
2021-12-23 17:18:22.155176,-254
2021-12-23 17:18:22.155186,-214
2021-12-23 17:18:22.380211,-191
2021-12-23 17:18:22.380293,-167
2021-12-23 17:18:22.380302,-151
2021-12-23 17:18:22.380335,-149
2021-12-23 17:18:22.380358,-130
2021-12-23 17:18:22.380371,-97
2021-12-23 17:18:22.380383,-74
2021-12-23 17:18:22.380410,-90
2021-12-23 17:18:22.380418,-121
2021-12-23 17:18:22.380425,-116
2021-12-23 17:18:22.380431,-88
2021-12-23 17:18:22.380438,-72
2021-12-23 17:18:22.380444,-97
2021-12-23 17:18:22.380451,-153
2021-12-23 17:18:22.380457,-167
2021-12-23 17:18:22.380464,-132
2021-12-23 17:18:22.380470,-109
2021-12-23 17:18:22.380477,-100
2021-12-23 17:18:22.380483,-86
2021-12-23 17:18:22.380490,-86
2021-12-23 17:18:22.380496,-100
2021-12-23 17:18:22.380503,-100
2021-12-23 17:18:22.380509,-83
2021-12-23 17:18:22.380516,-62
2021-12-23 17:18:22.380522,-46
2021-12-23 17:18:22.380529,-32
2021-12-23 17:18:22.380535,-23
2021-12-23 17:18:22.380542,-13
2021-12-23 17:18:22.380548,2
2021-12-23 17:18:22.380555,20
2021-12-23 17:18:22.604801,2
2021-12-23 17:18:22.604831,-27
2021-12-23 17:18:22.604843,-11
2021-12-23 17:18:22.604853,13
2021-12-23 17:18:22.604863,11
2021-12-23 17:18:22.604873,18
