Time,ECG
2021-12-27 14:17:53.906042,-196
2021-12-27 14:17:53.906056,-189
2021-12-27 14:17:53.906061,-179
2021-12-27 14:17:53.906064,-167
2021-12-27 14:17:53.906067,-155
2021-12-27 14:17:53.906071,-141
2021-12-27 14:17:53.906074,-124
2021-12-27 14:17:53.906077,-115
2021-12-27 14:17:53.906080,-112
2021-12-27 14:17:53.906083,-105
2021-12-27 14:17:53.906086,-100
2021-12-27 14:17:53.906089,-95
2021-12-27 14:17:53.906092,-86
2021-12-27 14:17:53.906096,-76
2021-12-27 14:17:53.906099,-79
2021-12-27 14:17:53.906115,-83
2021-12-27 14:17:53.906118,-81
2021-12-27 14:17:53.906121,-79
2021-12-27 14:17:53.906124,-81
2021-12-27 14:17:53.906127,-79
2021-12-27 14:17:53.906130,-69
2021-12-27 14:17:53.906132,-71
2021-12-27 14:17:53.906135,-76
2021-12-27 14:17:53.906138,-67
2021-12-27 14:17:53.906141,-57
2021-12-27 14:17:53.906144,-55
2021-12-27 14:17:53.906147,-52
2021-12-27 14:17:53.906150,-57
2021-12-27 14:17:53.906153,-52
2021-12-27 14:17:53.906156,-43
2021-12-27 14:17:54.096777,-38
2021-12-27 14:17:54.096793,-40
2021-12-27 14:17:54.096797,-35
2021-12-27 14:17:54.096801,-35
2021-12-27 14:17:54.096805,-38
2021-12-27 14:17:54.096808,-31
2021-12-27 14:17:54.096813,-26
2021-12-27 14:17:54.096816,-21
2021-12-27 14:17:54.096820,-21
2021-12-27 14:17:54.096824,-23
2021-12-27 14:17:54.096827,-23
2021-12-27 14:17:54.096831,-21
2021-12-27 14:17:54.096834,-19
2021-12-27 14:17:54.096838,-16
2021-12-27 14:17:54.096842,-16
2021-12-27 14:17:54.096845,-21
2021-12-27 14:17:54.096849,-23
2021-12-27 14:17:54.096853,-9
2021-12-27 14:17:54.096857,23
2021-12-27 14:17:54.096860,47
2021-12-27 14:17:54.096864,38
2021-12-27 14:17:54.096868,19
2021-12-27 14:17:54.096871,14
2021-12-27 14:17:54.096875,4
2021-12-27 14:17:54.096879,-7
2021-12-27 14:17:54.096882,-11
2021-12-27 14:17:54.096886,-16
2021-12-27 14:17:54.096890,-16
2021-12-27 14:17:54.096893,-14
2021-12-27 14:17:54.096899,-9
2021-12-27 14:17:54.340919,-4
2021-12-27 14:17:54.340940,-4
2021-12-27 14:17:54.340945,-9
2021-12-27 14:17:54.340950,-14
2021-12-27 14:17:54.340955,-38
2021-12-27 14:17:54.340959,-88
2021-12-27 14:17:54.340964,-103
2021-12-27 14:17:54.340968,139
2021-12-27 14:17:54.340973,898
2021-12-27 14:17:54.340977,1826
2021-12-27 14:17:54.340982,1847
2021-12-27 14:17:54.340986,659
2021-12-27 14:17:54.340991,-405
2021-12-27 14:17:54.341000,-476
2021-12-27 14:17:54.341004,-285
2021-12-27 14:17:54.341009,-266
2021-12-27 14:17:54.341013,-155
2021-12-27 14:17:54.341018,-45
2021-12-27 14:17:54.341022,-69
2021-12-27 14:17:54.341027,-76
2021-12-27 14:17:54.341031,-21
2021-12-27 14:17:54.341036,-4
2021-12-27 14:17:54.341040,-7
2021-12-27 14:17:54.341044,11
2021-12-27 14:17:54.341049,35
2021-12-27 14:17:54.341053,50
2021-12-27 14:17:54.341058,67
2021-12-27 14:17:54.341062,93
2021-12-27 14:17:54.341067,124
2021-12-27 14:17:54.341072,155
2021-12-27 14:17:54.729622,184
2021-12-27 14:17:54.729650,215
2021-12-27 14:17:54.729658,254
2021-12-27 14:17:54.729665,287
2021-12-27 14:17:54.729673,318
2021-12-27 14:17:54.729679,345
2021-12-27 14:17:54.729686,354
2021-12-27 14:17:54.729693,352
2021-12-27 14:17:54.729700,340
2021-12-27 14:17:54.729707,321
2021-12-27 14:17:54.729714,285
2021-12-27 14:17:54.729721,218
2021-12-27 14:17:54.729728,122
2021-12-27 14:17:54.729735,16
2021-12-27 14:17:54.729742,-79
2021-12-27 14:17:54.729749,-148
2021-12-27 14:17:54.729771,-198
2021-12-27 14:17:54.729785,-232
2021-12-27 14:17:54.729792,-246
2021-12-27 14:17:54.729799,-246
2021-12-27 14:17:54.729806,-244
2021-12-27 14:17:54.729813,-239
2021-12-27 14:17:54.729820,-227
2021-12-27 14:17:54.729827,-215
2021-12-27 14:17:54.729834,-201
2021-12-27 14:17:54.729841,-189
2021-12-27 14:17:54.729886,-182
2021-12-27 14:17:54.729915,-172
2021-12-27 14:17:54.729922,-158
2021-12-27 14:17:54.729929,-146
2021-12-27 14:17:54.827909,-136
2021-12-27 14:17:54.827931,-131
2021-12-27 14:17:54.827937,-127
2021-12-27 14:17:54.827942,-119
2021-12-27 14:17:54.827946,-112
2021-12-27 14:17:54.827951,-105
2021-12-27 14:17:54.827955,-100
2021-12-27 14:17:54.827967,-95
2021-12-27 14:17:54.827972,-95
2021-12-27 14:17:54.827977,-100
2021-12-27 14:17:54.827982,-95
2021-12-27 14:17:54.827986,-88
2021-12-27 14:17:54.827991,-91
2021-12-27 14:17:54.827995,-88
2021-12-27 14:17:54.828000,-86
2021-12-27 14:17:54.828004,-91
2021-12-27 14:17:54.828009,-91
2021-12-27 14:17:54.828013,-86
2021-12-27 14:17:54.828018,-81
2021-12-27 14:17:54.828022,-79
2021-12-27 14:17:54.828027,-79
2021-12-27 14:17:54.828031,-74
2021-12-27 14:17:54.828035,-74
2021-12-27 14:17:54.828040,-76
2021-12-27 14:17:54.828044,-71
2021-12-27 14:17:54.828049,-64
2021-12-27 14:17:54.828053,-62
2021-12-27 14:17:54.828058,-64
2021-12-27 14:17:54.828062,-64
2021-12-27 14:17:54.828068,-64
2021-12-27 14:17:55.023380,-62
2021-12-27 14:17:55.023406,-59
2021-12-27 14:17:55.023416,-57
2021-12-27 14:17:55.023425,-57
2021-12-27 14:17:55.023433,-59
2021-12-27 14:17:55.023442,-57
2021-12-27 14:17:55.023450,-50
2021-12-27 14:17:55.023457,-47
2021-12-27 14:17:55.023464,-45
2021-12-27 14:17:55.023472,-45
2021-12-27 14:17:55.023480,-50
2021-12-27 14:17:55.023489,-57
2021-12-27 14:17:55.023496,-52
2021-12-27 14:17:55.023504,-38
2021-12-27 14:17:55.023512,-16
2021-12-27 14:17:55.023520,9
2021-12-27 14:17:55.023528,4
2021-12-27 14:17:55.023536,-16
2021-12-27 14:17:55.023545,-19
2021-12-27 14:17:55.023553,-14
2021-12-27 14:17:55.023561,-26
2021-12-27 14:17:55.023569,-43
2021-12-27 14:17:55.023577,-50
2021-12-27 14:17:55.023585,-50
2021-12-27 14:17:55.023599,-50
2021-12-27 14:17:55.023608,-50
2021-12-27 14:17:55.023615,-47
2021-12-27 14:17:55.023623,-45
2021-12-27 14:17:55.023631,-43
2021-12-27 14:17:55.023639,-43
2021-12-27 14:17:55.315199,-55
2021-12-27 14:17:55.315218,-95
2021-12-27 14:17:55.315223,-141
2021-12-27 14:17:55.315228,-26
2021-12-27 14:17:55.315232,541
2021-12-27 14:17:55.315237,1490
2021-12-27 14:17:55.315241,1974
2021-12-27 14:17:55.315247,1217
2021-12-27 14:17:55.315255,-28
2021-12-27 14:17:55.315263,-476
2021-12-27 14:17:55.315268,-318
2021-12-27 14:17:55.315272,-239
2021-12-27 14:17:55.315280,-184
2021-12-27 14:17:55.315288,-93
2021-12-27 14:17:55.315295,-88
2021-12-27 14:17:55.315300,-100
2021-12-27 14:17:55.315304,-57
2021-12-27 14:17:55.315308,-28
2021-12-27 14:17:55.315313,-19
2021-12-27 14:17:55.315317,2
2021-12-27 14:17:55.315321,28
2021-12-27 14:17:55.315326,45
2021-12-27 14:17:55.315332,67
2021-12-27 14:17:55.315337,100
2021-12-27 14:17:55.315341,129
2021-12-27 14:17:55.315346,155
2021-12-27 14:17:55.315350,184
2021-12-27 14:17:55.315354,218
2021-12-27 14:17:55.315359,251
2021-12-27 14:17:55.315363,287
2021-12-27 14:17:55.511554,325
2021-12-27 14:17:55.511582,357
2021-12-27 14:17:55.511590,378
2021-12-27 14:17:55.511598,397
2021-12-27 14:17:55.511604,400
2021-12-27 14:17:55.511611,385
2021-12-27 14:17:55.511618,359
2021-12-27 14:17:55.511625,311
2021-12-27 14:17:55.511631,227
2021-12-27 14:17:55.511638,127
2021-12-27 14:17:55.511645,33
2021-12-27 14:17:55.511652,-50
2021-12-27 14:17:55.511659,-119
2021-12-27 14:17:55.511666,-165
2021-12-27 14:17:55.511672,-186
2021-12-27 14:17:55.511679,-196
2021-12-27 14:17:55.511686,-194
2021-12-27 14:17:55.511693,-189
2021-12-27 14:17:55.511700,-179
2021-12-27 14:17:55.511706,-170
2021-12-27 14:17:55.511713,-160
2021-12-27 14:17:55.511720,-150
2021-12-27 14:17:55.511727,-134
2021-12-27 14:17:55.511733,-112
2021-12-27 14:17:55.511745,-95
2021-12-27 14:17:55.511752,-93
2021-12-27 14:17:55.511760,-91
2021-12-27 14:17:55.511767,-79
2021-12-27 14:17:55.511774,-69
2021-12-27 14:17:55.511780,-69
2021-12-27 14:17:55.706272,-57
2021-12-27 14:17:55.706299,-50
2021-12-27 14:17:55.706308,-52
2021-12-27 14:17:55.706315,-50
2021-12-27 14:17:55.706322,-43
2021-12-27 14:17:55.706329,-35
2021-12-27 14:17:55.706336,-23
2021-12-27 14:17:55.706343,-16
2021-12-27 14:17:55.706350,-16
2021-12-27 14:17:55.706357,-21
2021-12-27 14:17:55.706365,-23
2021-12-27 14:17:55.706372,-19
2021-12-27 14:17:55.706378,-11
2021-12-27 14:17:55.706385,-2
2021-12-27 14:17:55.706392,-2
2021-12-27 14:17:55.706399,-9
2021-12-27 14:17:55.706406,-4
2021-12-27 14:17:55.706413,0
2021-12-27 14:17:55.706420,4
2021-12-27 14:17:55.706427,11
2021-12-27 14:17:55.706434,16
2021-12-27 14:17:55.706441,11
2021-12-27 14:17:55.706448,14
2021-12-27 14:17:55.706455,26
2021-12-27 14:17:55.706462,26
2021-12-27 14:17:55.706468,23
2021-12-27 14:17:55.706475,26
2021-12-27 14:17:55.706482,33
2021-12-27 14:17:55.706489,33
2021-12-27 14:17:55.706496,33
2021-12-27 14:17:55.949483,35
2021-12-27 14:17:55.949501,40
2021-12-27 14:17:55.949506,35
2021-12-27 14:17:55.949511,26
2021-12-27 14:17:55.949516,23
2021-12-27 14:17:55.949520,26
2021-12-27 14:17:55.949525,38
2021-12-27 14:17:55.949529,62
2021-12-27 14:17:55.949534,88
2021-12-27 14:17:55.949538,91
2021-12-27 14:17:55.949543,62
2021-12-27 14:17:55.949548,40
2021-12-27 14:17:55.949552,38
2021-12-27 14:17:55.949557,31
2021-12-27 14:17:55.949561,16
2021-12-27 14:17:55.949566,16
2021-12-27 14:17:55.949570,28
2021-12-27 14:17:55.949575,26
2021-12-27 14:17:55.949580,19
2021-12-27 14:17:55.949584,21
2021-12-27 14:17:55.949589,21
2021-12-27 14:17:55.949593,21
2021-12-27 14:17:55.949598,21
2021-12-27 14:17:55.949602,7
2021-12-27 14:17:55.949608,-23
2021-12-27 14:17:55.949643,-55
2021-12-27 14:17:55.949652,76
2021-12-27 14:17:55.949657,675
2021-12-27 14:17:55.949662,1644
2021-12-27 14:17:55.949667,2001
2021-12-27 14:17:56.241293,1018
2021-12-27 14:17:56.241310,-232
2021-12-27 14:17:56.241315,-500
2021-12-27 14:17:56.241319,-289
2021-12-27 14:17:56.241322,-256
2021-12-27 14:17:56.241326,-174
2021-12-27 14:17:56.241329,-14
2021-12-27 14:17:56.241333,9
2021-12-27 14:17:56.241336,-11
2021-12-27 14:17:56.241340,33
2021-12-27 14:17:56.241347,59
2021-12-27 14:17:56.241351,55
2021-12-27 14:17:56.241354,81
2021-12-27 14:17:56.241358,107
2021-12-27 14:17:56.241361,115
2021-12-27 14:17:56.241365,134
2021-12-27 14:17:56.241368,158
2021-12-27 14:17:56.241372,179
2021-12-27 14:17:56.241375,210
2021-12-27 14:17:56.241379,246
2021-12-27 14:17:56.241382,270
2021-12-27 14:17:56.241385,304
2021-12-27 14:17:56.241389,349
2021-12-27 14:17:56.241392,383
2021-12-27 14:17:56.241396,402
2021-12-27 14:17:56.241399,417
2021-12-27 14:17:56.241402,424
2021-12-27 14:17:56.241406,417
2021-12-27 14:17:56.241409,400
2021-12-27 14:17:56.241413,361
2021-12-27 14:17:56.437663,297
2021-12-27 14:17:56.437682,208
2021-12-27 14:17:56.437688,105
2021-12-27 14:17:56.437693,7
2021-12-27 14:17:56.437697,-79
2021-12-27 14:17:56.437702,-141
2021-12-27 14:17:56.437706,-177
2021-12-27 14:17:56.437711,-198
2021-12-27 14:17:56.437715,-210
2021-12-27 14:17:56.437720,-213
2021-12-27 14:17:56.437724,-206
2021-12-27 14:17:56.437728,-191
2021-12-27 14:17:56.437733,-177
2021-12-27 14:17:56.437737,-170
2021-12-27 14:17:56.437741,-165
2021-12-27 14:17:56.437746,-155
2021-12-27 14:17:56.437750,-146
2021-12-27 14:17:56.437754,-139
2021-12-27 14:17:56.437759,-131
2021-12-27 14:17:56.437763,-122
2021-12-27 14:17:56.437768,-112
2021-12-27 14:17:56.437772,-105
2021-12-27 14:17:56.437776,-100
2021-12-27 14:17:56.437781,-93
2021-12-27 14:17:56.437785,-83
2021-12-27 14:17:56.437794,-79
2021-12-27 14:17:56.437799,-81
2021-12-27 14:17:56.437804,-81
2021-12-27 14:17:56.437808,-74
2021-12-27 14:17:56.437813,-69
2021-12-27 14:17:56.681097,-67
2021-12-27 14:17:56.681119,-64
2021-12-27 14:17:56.681124,-59
2021-12-27 14:17:56.681129,-62
2021-12-27 14:17:56.681133,-67
2021-12-27 14:17:56.681138,-64
2021-12-27 14:17:56.681142,-62
2021-12-27 14:17:56.681147,-59
2021-12-27 14:17:56.681151,-55
2021-12-27 14:17:56.681156,-52
2021-12-27 14:17:56.681160,-52
2021-12-27 14:17:56.681165,-45
2021-12-27 14:17:56.681169,-40
2021-12-27 14:17:56.681174,-40
2021-12-27 14:17:56.681178,-40
2021-12-27 14:17:56.681183,-45
2021-12-27 14:17:56.681188,-47
2021-12-27 14:17:56.681192,-35
2021-12-27 14:17:56.681197,-23
2021-12-27 14:17:56.681201,-19
2021-12-27 14:17:56.681206,-23
2021-12-27 14:17:56.681210,-26
2021-12-27 14:17:56.681215,-21
2021-12-27 14:17:56.681219,-19
2021-12-27 14:17:56.681224,-21
2021-12-27 14:17:56.681228,-21
2021-12-27 14:17:56.681233,-19
2021-12-27 14:17:56.681237,-2
2021-12-27 14:17:56.681242,23
2021-12-27 14:17:56.681247,35
2021-12-27 14:17:56.971831,28
2021-12-27 14:17:56.971846,28
2021-12-27 14:17:56.971851,28
2021-12-27 14:17:56.971855,9
2021-12-27 14:17:56.971859,-4
2021-12-27 14:17:56.971862,-11
2021-12-27 14:17:56.971866,-23
2021-12-27 14:17:56.971869,-23
2021-12-27 14:17:56.971873,-21
2021-12-27 14:17:56.971876,-23
2021-12-27 14:17:56.971880,-26
2021-12-27 14:17:56.971884,-26
2021-12-27 14:17:56.971887,-28
2021-12-27 14:17:56.971891,-33
2021-12-27 14:17:56.971894,-67
2021-12-27 14:17:56.971898,-124
2021-12-27 14:17:56.971906,-59
2021-12-27 14:17:56.971910,433
2021-12-27 14:17:56.971914,1402
2021-12-27 14:17:56.971917,2077
2021-12-27 14:17:56.971921,1493
2021-12-27 14:17:56.971924,122
2021-12-27 14:17:56.971928,-551
2021-12-27 14:17:56.971931,-385
2021-12-27 14:17:56.971935,-237
2021-12-27 14:17:56.971939,-206
2021-12-27 14:17:56.971942,-105
2021-12-27 14:17:56.971946,-74
2021-12-27 14:17:56.971949,-93
2021-12-27 14:17:56.971953,-62
2021-12-27 14:17:57.120141,-28
2021-12-27 14:17:57.120168,-23
2021-12-27 14:17:57.120177,-7
2021-12-27 14:17:57.120184,19
2021-12-27 14:17:57.120191,40
2021-12-27 14:17:57.120198,62
2021-12-27 14:17:57.120205,86
2021-12-27 14:17:57.120212,107
2021-12-27 14:17:57.120219,136
2021-12-27 14:17:57.120227,167
2021-12-27 14:17:57.120234,196
2021-12-27 14:17:57.120240,234
2021-12-27 14:17:57.120247,278
2021-12-27 14:17:57.120254,309
2021-12-27 14:17:57.120261,337
2021-12-27 14:17:57.120268,364
2021-12-27 14:17:57.120275,376
2021-12-27 14:17:57.120282,373
2021-12-27 14:17:57.120289,364
2021-12-27 14:17:57.120296,335
2021-12-27 14:17:57.120303,275
2021-12-27 14:17:57.120310,194
2021-12-27 14:17:57.120317,93
2021-12-27 14:17:57.120323,-16
2021-12-27 14:17:57.120330,-107
2021-12-27 14:17:57.120337,-167
2021-12-27 14:17:57.120344,-213
2021-12-27 14:17:57.120351,-239
2021-12-27 14:17:57.120358,-242
2021-12-27 14:17:57.120365,-237
2021-12-27 14:17:57.314727,-234
2021-12-27 14:17:57.314749,-227
2021-12-27 14:17:57.314755,-210
2021-12-27 14:17:57.314760,-196
2021-12-27 14:17:57.314764,-184
2021-12-27 14:17:57.314769,-170
2021-12-27 14:17:57.314773,-150
2021-12-27 14:17:57.314778,-139
2021-12-27 14:17:57.314782,-136
2021-12-27 14:17:57.314787,-129
2021-12-27 14:17:57.314791,-119
2021-12-27 14:17:57.314796,-112
2021-12-27 14:17:57.314801,-100
2021-12-27 14:17:57.314809,-91
2021-12-27 14:17:57.314814,-86
2021-12-27 14:17:57.314818,-86
2021-12-27 14:17:57.314823,-81
2021-12-27 14:17:57.314827,-69
2021-12-27 14:17:57.314831,-59
2021-12-27 14:17:57.314836,-55
2021-12-27 14:17:57.314840,-50
2021-12-27 14:17:57.314845,-52
2021-12-27 14:17:57.314849,-57
2021-12-27 14:17:57.314853,-47
2021-12-27 14:17:57.314858,-33
2021-12-27 14:17:57.314862,-35
2021-12-27 14:17:57.314866,-45
2021-12-27 14:17:57.314871,-45
2021-12-27 14:17:57.314875,-43
2021-12-27 14:17:57.314880,-47
2021-12-27 14:17:57.607448,-45
2021-12-27 14:17:57.607468,-35
2021-12-27 14:17:57.607473,-40
2021-12-27 14:17:57.607478,-43
2021-12-27 14:17:57.607482,-31
2021-12-27 14:17:57.607487,-26
2021-12-27 14:17:57.607491,-28
2021-12-27 14:17:57.607495,-19
2021-12-27 14:17:57.607500,-16
2021-12-27 14:17:57.607504,-31
2021-12-27 14:17:57.607508,-31
2021-12-27 14:17:57.607513,-23
2021-12-27 14:17:57.607517,-21
2021-12-27 14:17:57.607521,-19
2021-12-27 14:17:57.607525,-21
2021-12-27 14:17:57.607530,-31
2021-12-27 14:17:57.607534,-31
2021-12-27 14:17:57.607538,-28
2021-12-27 14:17:57.607543,-16
2021-12-27 14:17:57.607547,21
2021-12-27 14:17:57.607551,43
2021-12-27 14:17:57.607556,19
2021-12-27 14:17:57.607560,0
2021-12-27 14:17:57.607564,0
2021-12-27 14:17:57.607569,-4
2021-12-27 14:17:57.607573,-14
2021-12-27 14:17:57.607578,-23
2021-12-27 14:17:57.607582,-23
2021-12-27 14:17:57.607586,-19
2021-12-27 14:17:57.607590,-16
2021-12-27 14:17:57.802286,-23
2021-12-27 14:17:57.802308,-26
2021-12-27 14:17:57.802315,-19
2021-12-27 14:17:57.802319,-16
2021-12-27 14:17:57.802324,-33
2021-12-27 14:17:57.802328,-81
2021-12-27 14:17:57.802333,-131
2021-12-27 14:17:57.802338,-23
2021-12-27 14:17:57.802342,529
2021-12-27 14:17:57.802347,1493
2021-12-27 14:17:57.802352,2032
2021-12-27 14:17:57.802356,1277
2021-12-27 14:17:57.802361,-55
2021-12-27 14:17:57.802365,-541
2021-12-27 14:17:57.802370,-330
2021-12-27 14:17:57.802374,-239
2021-12-27 14:17:57.802379,-201
2021-12-27 14:17:57.802388,-81
2021-12-27 14:17:57.802393,-67
2021-12-27 14:17:57.802397,-95
2021-12-27 14:17:57.802402,-57
2021-12-27 14:17:57.802406,-23
2021-12-27 14:17:57.802411,-19
2021-12-27 14:17:57.802415,0
2021-12-27 14:17:57.802420,28
2021-12-27 14:17:57.802424,50
2021-12-27 14:17:57.802429,69
2021-12-27 14:17:57.802433,93
2021-12-27 14:17:57.802438,122
2021-12-27 14:17:57.802443,150
2021-12-27 14:17:58.046427,179
2021-12-27 14:17:58.046456,210
2021-12-27 14:17:58.046464,242
2021-12-27 14:17:58.046472,278
2021-12-27 14:17:58.046479,311
2021-12-27 14:17:58.046486,340
2021-12-27 14:17:58.046493,364
2021-12-27 14:17:58.046499,376
2021-12-27 14:17:58.046506,371
2021-12-27 14:17:58.046513,354
2021-12-27 14:17:58.046520,325
2021-12-27 14:17:58.046527,266
2021-12-27 14:17:58.046534,177
2021-12-27 14:17:58.046541,76
2021-12-27 14:17:58.046548,-21
2021-12-27 14:17:58.046555,-107
2021-12-27 14:17:58.046562,-165
2021-12-27 14:17:58.046570,-196
2021-12-27 14:17:58.046576,-218
2021-12-27 14:17:58.046583,-225
2021-12-27 14:17:58.046590,-220
2021-12-27 14:17:58.046597,-210
2021-12-27 14:17:58.046604,-201
2021-12-27 14:17:58.046611,-189
2021-12-27 14:17:58.046617,-167
2021-12-27 14:17:58.046624,-155
2021-12-27 14:17:58.046631,-148
2021-12-27 14:17:58.046638,-136
2021-12-27 14:17:58.046645,-119
2021-12-27 14:17:58.046652,-107
2021-12-27 14:17:58.241354,-103
2021-12-27 14:17:58.241381,-91
2021-12-27 14:17:58.241390,-86
2021-12-27 14:17:58.241397,-86
2021-12-27 14:17:58.241404,-81
2021-12-27 14:17:58.241411,-69
2021-12-27 14:17:58.241418,-69
2021-12-27 14:17:58.241425,-71
2021-12-27 14:17:58.241432,-64
2021-12-27 14:17:58.241439,-64
2021-12-27 14:17:58.241445,-67
2021-12-27 14:17:58.241452,-67
2021-12-27 14:17:58.241459,-64
2021-12-27 14:17:58.241466,-64
2021-12-27 14:17:58.241473,-64
2021-12-27 14:17:58.241480,-69
2021-12-27 14:17:58.241487,-71
2021-12-27 14:17:58.241494,-69
2021-12-27 14:17:58.241501,-67
2021-12-27 14:17:58.241508,-62
2021-12-27 14:17:58.241515,-64
2021-12-27 14:17:58.241522,-69
2021-12-27 14:17:58.241529,-71
2021-12-27 14:17:58.241536,-64
2021-12-27 14:17:58.241543,-64
2021-12-27 14:17:58.241550,-69
2021-12-27 14:17:58.241557,-67
2021-12-27 14:17:58.241564,-67
2021-12-27 14:17:58.241571,-67
2021-12-27 14:17:58.241583,-62
2021-12-27 14:17:58.630496,-55
2021-12-27 14:17:58.630518,-55
2021-12-27 14:17:58.630523,-57
2021-12-27 14:17:58.630528,-64
2021-12-27 14:17:58.630533,-69
2021-12-27 14:17:58.630537,-79
2021-12-27 14:17:58.630542,-81
2021-12-27 14:17:58.630546,-76
2021-12-27 14:17:58.630551,-69
2021-12-27 14:17:58.630555,-45
2021-12-27 14:17:58.630560,-23
2021-12-27 14:17:58.630565,-40
2021-12-27 14:17:58.630569,-59
2021-12-27 14:17:58.630574,-59
2021-12-27 14:17:58.630579,-74
2021-12-27 14:17:58.630583,-91
2021-12-27 14:17:58.630588,-88
2021-12-27 14:17:58.630593,-79
2021-12-27 14:17:58.630597,-81
2021-12-27 14:17:58.630601,-86
2021-12-27 14:17:58.630606,-86
2021-12-27 14:17:58.630610,-79
2021-12-27 14:17:58.630615,-79
2021-12-27 14:17:58.630619,-86
2021-12-27 14:17:58.630624,-95
2021-12-27 14:17:58.630628,-124
2021-12-27 14:17:58.630633,-172
2021-12-27 14:17:58.630637,-107
2021-12-27 14:17:58.630642,354
2021-12-27 14:17:58.630646,1267
2021-12-27 14:17:58.777355,1898
2021-12-27 14:17:58.777377,1318
2021-12-27 14:17:58.777382,47
2021-12-27 14:17:58.777387,-534
2021-12-27 14:17:58.777392,-395
2021-12-27 14:17:58.777396,-289
2021-12-27 14:17:58.777400,-242
2021-12-27 14:17:58.777405,-131
2021-12-27 14:17:58.777409,-105
2021-12-27 14:17:58.777413,-117
2021-12-27 14:17:58.777418,-79
2021-12-27 14:17:58.777422,-50
2021-12-27 14:17:58.777426,-47
2021-12-27 14:17:58.777431,-31
2021-12-27 14:17:58.777435,-7
2021-12-27 14:17:58.777440,14
2021-12-27 14:17:58.777444,33
2021-12-27 14:17:58.777448,52
2021-12-27 14:17:58.777453,76
2021-12-27 14:17:58.777457,105
2021-12-27 14:17:58.777462,134
2021-12-27 14:17:58.777466,172
2021-12-27 14:17:58.777470,208
2021-12-27 14:17:58.777475,239
2021-12-27 14:17:58.777479,270
2021-12-27 14:17:58.777483,306
2021-12-27 14:17:58.777488,330
2021-12-27 14:17:58.777492,337
2021-12-27 14:17:58.777497,335
2021-12-27 14:17:58.777501,330
2021-12-27 14:17:59.019612,306
2021-12-27 14:17:59.019637,249
2021-12-27 14:17:59.019648,170
2021-12-27 14:17:59.019658,74
2021-12-27 14:17:59.019667,-23
2021-12-27 14:17:59.019676,-100
2021-12-27 14:17:59.019685,-155
2021-12-27 14:17:59.019694,-201
2021-12-27 14:17:59.019703,-232
2021-12-27 14:17:59.019712,-239
2021-12-27 14:17:59.019721,-227
2021-12-27 14:17:59.019730,-218
2021-12-27 14:17:59.019739,-208
2021-12-27 14:17:59.019747,-201
2021-12-27 14:17:59.019785,-196
2021-12-27 14:17:59.019794,-186
2021-12-27 14:17:59.019798,-167
2021-12-27 14:17:59.019803,-150
2021-12-27 14:17:59.019808,-139
2021-12-27 14:17:59.019812,-129
2021-12-27 14:17:59.019822,-129
2021-12-27 14:17:59.019827,-124
2021-12-27 14:17:59.019832,-105
2021-12-27 14:17:59.019836,-86
2021-12-27 14:17:59.019841,-81
2021-12-27 14:17:59.019845,-74
2021-12-27 14:17:59.019850,-64
2021-12-27 14:17:59.019854,-64
2021-12-27 14:17:59.019859,-64
2021-12-27 14:17:59.019863,-57
2021-12-27 14:17:59.215544,-52
2021-12-27 14:17:59.215566,-52
2021-12-27 14:17:59.215573,-50
2021-12-27 14:17:59.215578,-50
2021-12-27 14:17:59.215583,-45
2021-12-27 14:17:59.215588,-38
2021-12-27 14:17:59.215593,-35
2021-12-27 14:17:59.215598,-31
2021-12-27 14:17:59.215603,-26
2021-12-27 14:17:59.215608,-28
2021-12-27 14:17:59.215613,-33
2021-12-27 14:17:59.215618,-26
2021-12-27 14:17:59.215622,-16
2021-12-27 14:17:59.215627,-11
2021-12-27 14:17:59.215632,-9
2021-12-27 14:17:59.215637,-2
2021-12-27 14:17:59.215642,2
2021-12-27 14:17:59.215646,4
2021-12-27 14:17:59.215651,7
2021-12-27 14:17:59.215656,9
2021-12-27 14:17:59.215660,14
2021-12-27 14:17:59.215666,26
2021-12-27 14:17:59.215670,26
2021-12-27 14:17:59.215675,14
2021-12-27 14:17:59.215680,11
2021-12-27 14:17:59.215685,21
2021-12-27 14:17:59.215689,31
2021-12-27 14:17:59.215694,45
2021-12-27 14:17:59.215699,71
2021-12-27 14:17:59.215704,93
2021-12-27 14:17:59.411536,81
2021-12-27 14:17:59.411565,62
2021-12-27 14:17:59.411573,57
2021-12-27 14:17:59.411580,47
2021-12-27 14:17:59.411587,31
2021-12-27 14:17:59.411594,28
2021-12-27 14:17:59.411600,33
2021-12-27 14:17:59.411607,33
2021-12-27 14:17:59.411614,35
2021-12-27 14:17:59.411621,40
2021-12-27 14:17:59.411627,38
2021-12-27 14:17:59.411634,40
2021-12-27 14:17:59.411641,45
2021-12-27 14:17:59.411648,35
2021-12-27 14:17:59.411654,-2
2021-12-27 14:17:59.411661,-43
2021-12-27 14:17:59.411668,86
2021-12-27 14:17:59.411675,678
2021-12-27 14:17:59.411681,1632
2021-12-27 14:17:59.411688,1986
2021-12-27 14:17:59.411695,1030
2021-12-27 14:17:59.411702,-198
2021-12-27 14:17:59.411708,-481
2021-12-27 14:17:59.411715,-285
2021-12-27 14:17:59.411722,-242
2021-12-27 14:17:59.411729,-148
2021-12-27 14:17:59.411736,16
2021-12-27 14:17:59.411742,40
2021-12-27 14:17:59.411749,14
2021-12-27 14:17:59.411756,59
2021-12-27 14:17:59.655289,93
2021-12-27 14:17:59.655316,91
2021-12-27 14:17:59.655325,112
2021-12-27 14:17:59.655332,143
2021-12-27 14:17:59.655339,158
2021-12-27 14:17:59.655346,174
2021-12-27 14:17:59.655353,196
2021-12-27 14:17:59.655360,215
2021-12-27 14:17:59.655366,239
2021-12-27 14:17:59.655373,275
2021-12-27 14:17:59.655380,306
2021-12-27 14:17:59.655388,340
2021-12-27 14:17:59.655395,378
2021-12-27 14:17:59.655402,407
2021-12-27 14:17:59.655408,431
2021-12-27 14:17:59.655415,450
2021-12-27 14:17:59.655422,455
2021-12-27 14:17:59.655429,448
2021-12-27 14:17:59.655436,433
2021-12-27 14:17:59.655443,397
2021-12-27 14:17:59.655450,321
2021-12-27 14:17:59.655457,225
2021-12-27 14:17:59.655468,127
2021-12-27 14:17:59.655475,28
2021-12-27 14:17:59.655482,-62
2021-12-27 14:17:59.655489,-127
2021-12-27 14:17:59.655496,-162
2021-12-27 14:17:59.655503,-189
2021-12-27 14:17:59.655510,-198
2021-12-27 14:17:59.655516,-186
2021-12-27 14:17:59.898616,-177
2021-12-27 14:17:59.898638,-172
2021-12-27 14:17:59.898644,-162
2021-12-27 14:17:59.898649,-150
2021-12-27 14:17:59.898653,-136
2021-12-27 14:17:59.898658,-127
2021-12-27 14:17:59.898662,-124
2021-12-27 14:17:59.898667,-117
2021-12-27 14:17:59.898671,-105
2021-12-27 14:17:59.898676,-100
2021-12-27 14:17:59.898680,-91
2021-12-27 14:17:59.898685,-76
2021-12-27 14:17:59.898689,-74
2021-12-27 14:17:59.898694,-71
2021-12-27 14:17:59.898698,-64
2021-12-27 14:17:59.898703,-57
2021-12-27 14:17:59.898707,-59
2021-12-27 14:17:59.898712,-59
2021-12-27 14:17:59.898716,-52
2021-12-27 14:17:59.898721,-45
2021-12-27 14:17:59.898725,-47
2021-12-27 14:17:59.898730,-55
2021-12-27 14:17:59.898734,-52
2021-12-27 14:17:59.898739,-45
2021-12-27 14:17:59.898743,-45
2021-12-27 14:17:59.898748,-50
2021-12-27 14:17:59.898752,-47
2021-12-27 14:17:59.898757,-43
2021-12-27 14:17:59.898761,-45
2021-12-27 14:17:59.898766,-43
2021-12-27 14:18:00.093572,-33
2021-12-27 14:18:00.093594,-28
2021-12-27 14:18:00.093600,-26
2021-12-27 14:18:00.093605,-28
2021-12-27 14:18:00.093610,-33
2021-12-27 14:18:00.093615,-43
2021-12-27 14:18:00.093619,-45
2021-12-27 14:18:00.093624,-35
2021-12-27 14:18:00.093629,-23
2021-12-27 14:18:00.093633,0
2021-12-27 14:18:00.093638,26
2021-12-27 14:18:00.093642,19
2021-12-27 14:18:00.093647,2
2021-12-27 14:18:00.093651,7
2021-12-27 14:18:00.093656,2
2021-12-27 14:18:00.093661,-21
2021-12-27 14:18:00.093665,-28
2021-12-27 14:18:00.093670,-21
2021-12-27 14:18:00.093674,-14
2021-12-27 14:18:00.093679,-14
2021-12-27 14:18:00.093683,-14
2021-12-27 14:18:00.093688,-14
2021-12-27 14:18:00.093692,-11
2021-12-27 14:18:00.093697,-11
2021-12-27 14:18:00.093701,-23
2021-12-27 14:18:00.093706,-52
2021-12-27 14:18:00.093710,-93
2021-12-27 14:18:00.093715,-11
2021-12-27 14:18:00.093719,488
2021-12-27 14:18:00.093724,1442
2021-12-27 14:18:00.336927,2017
2021-12-27 14:18:00.336947,1294
2021-12-27 14:18:00.336953,-31
2021-12-27 14:18:00.336958,-534
2021-12-27 14:18:00.336962,-352
2021-12-27 14:18:00.336967,-278
2021-12-27 14:18:00.336972,-227
2021-12-27 14:18:00.336976,-69
2021-12-27 14:18:00.336980,-14
2021-12-27 14:18:00.336985,-38
2021-12-27 14:18:00.336989,-4
2021-12-27 14:18:00.336994,26
2021-12-27 14:18:00.336999,28
2021-12-27 14:18:00.337003,47
2021-12-27 14:18:00.337008,76
2021-12-27 14:18:00.337012,91
2021-12-27 14:18:00.337017,105
2021-12-27 14:18:00.337022,131
2021-12-27 14:18:00.337026,158
2021-12-27 14:18:00.337031,186
2021-12-27 14:18:00.337035,220
2021-12-27 14:18:00.337040,254
2021-12-27 14:18:00.337045,289
2021-12-27 14:18:00.337049,330
2021-12-27 14:18:00.337054,369
2021-12-27 14:18:00.337058,397
2021-12-27 14:18:00.337063,414
2021-12-27 14:18:00.337067,419
2021-12-27 14:18:00.337072,414
2021-12-27 14:18:00.337076,400
2021-12-27 14:18:00.581399,354
2021-12-27 14:18:00.581427,273
2021-12-27 14:18:00.581435,174
2021-12-27 14:18:00.581442,67
2021-12-27 14:18:00.581449,-40
2021-12-27 14:18:00.581462,-124
2021-12-27 14:18:00.581469,-186
2021-12-27 14:18:00.581476,-230
2021-12-27 14:18:00.581482,-256
2021-12-27 14:18:00.581489,-261
2021-12-27 14:18:00.581496,-256
2021-12-27 14:18:00.581503,-244
2021-12-27 14:18:00.581510,-232
2021-12-27 14:18:00.581517,-227
2021-12-27 14:18:00.581523,-222
2021-12-27 14:18:00.581530,-208
2021-12-27 14:18:00.581537,-191
2021-12-27 14:18:00.581544,-179
2021-12-27 14:18:00.581551,-165
2021-12-27 14:18:00.581558,-155
2021-12-27 14:18:00.581565,-148
2021-12-27 14:18:00.581572,-136
2021-12-27 14:18:00.581579,-124
2021-12-27 14:18:00.581586,-115
2021-12-27 14:18:00.581592,-110
2021-12-27 14:18:00.581599,-105
2021-12-27 14:18:00.581606,-98
2021-12-27 14:18:00.581613,-86
2021-12-27 14:18:00.581620,-83
2021-12-27 14:18:00.581627,-81
2021-12-27 14:18:00.824422,-76
2021-12-27 14:18:00.824450,-74
2021-12-27 14:18:00.824459,-71
2021-12-27 14:18:00.824466,-74
2021-12-27 14:18:00.824473,-74
2021-12-27 14:18:00.824480,-69
2021-12-27 14:18:00.824487,-64
2021-12-27 14:18:00.824494,-62
2021-12-27 14:18:00.824501,-62
2021-12-27 14:18:00.824508,-64
2021-12-27 14:18:00.824514,-62
2021-12-27 14:18:00.824522,-62
2021-12-27 14:18:00.824529,-59
2021-12-27 14:18:00.824536,-57
2021-12-27 14:18:00.824543,-57
2021-12-27 14:18:00.824549,-57
2021-12-27 14:18:00.824556,-55
2021-12-27 14:18:00.824563,-52
2021-12-27 14:18:00.824570,-47
2021-12-27 14:18:00.824577,-47
2021-12-27 14:18:00.824584,-52
2021-12-27 14:18:00.824591,-59
2021-12-27 14:18:00.824598,-57
2021-12-27 14:18:00.824605,-43
2021-12-27 14:18:00.824612,-11
2021-12-27 14:18:00.824619,16
2021-12-27 14:18:00.824626,9
2021-12-27 14:18:00.824633,-11
2021-12-27 14:18:00.824640,-14
2021-12-27 14:18:00.824647,-21
2021-12-27 14:18:01.067113,-38
2021-12-27 14:18:01.067131,-43
2021-12-27 14:18:01.067137,-38
2021-12-27 14:18:01.067142,-40
2021-12-27 14:18:01.067146,-50
2021-12-27 14:18:01.067151,-55
2021-12-27 14:18:01.067155,-55
2021-12-27 14:18:01.067160,-52
2021-12-27 14:18:01.067164,-55
2021-12-27 14:18:01.067168,-67
2021-12-27 14:18:01.067173,-105
2021-12-27 14:18:01.067177,-150
2021-12-27 14:18:01.067182,-79
2021-12-27 14:18:01.067186,393
2021-12-27 14:18:01.067191,1327
2021-12-27 14:18:01.067195,1982
2021-12-27 14:18:01.067199,1387
2021-12-27 14:18:01.067204,57
2021-12-27 14:18:01.067208,-560
2021-12-27 14:18:01.067213,-405
2021-12-27 14:18:01.067217,-292
2021-12-27 14:18:01.067221,-249
2021-12-27 14:18:01.067226,-119
2021-12-27 14:18:01.067230,-79
2021-12-27 14:18:01.067235,-103
2021-12-27 14:18:01.067239,-69
2021-12-27 14:18:01.067243,-31
2021-12-27 14:18:01.067248,-28
2021-12-27 14:18:01.067252,-11
2021-12-27 14:18:01.067257,19
2021-12-27 14:18:01.263821,35
2021-12-27 14:18:01.263844,52
2021-12-27 14:18:01.263850,83
2021-12-27 14:18:01.263855,110
2021-12-27 14:18:01.263859,131
2021-12-27 14:18:01.263864,162
2021-12-27 14:18:01.263868,196
2021-12-27 14:18:01.263873,230
2021-12-27 14:18:01.263877,266
2021-12-27 14:18:01.263882,297
2021-12-27 14:18:01.263886,323
2021-12-27 14:18:01.263891,347
2021-12-27 14:18:01.263895,357
2021-12-27 14:18:01.263900,347
2021-12-27 14:18:01.263904,333
2021-12-27 14:18:01.263909,299
2021-12-27 14:18:01.263913,239
2021-12-27 14:18:01.263918,150
2021-12-27 14:18:01.263922,45
2021-12-27 14:18:01.263927,-57
2021-12-27 14:18:01.263931,-141
2021-12-27 14:18:01.263936,-203
2021-12-27 14:18:01.263940,-244
2021-12-27 14:18:01.263945,-268
2021-12-27 14:18:01.263950,-275
2021-12-27 14:18:01.263954,-275
2021-12-27 14:18:01.263959,-270
2021-12-27 14:18:01.263963,-263
2021-12-27 14:18:01.263968,-251
2021-12-27 14:18:01.263972,-237
2021-12-27 14:18:01.507803,-225
2021-12-27 14:18:01.507827,-215
2021-12-27 14:18:01.507833,-203
2021-12-27 14:18:01.507837,-191
2021-12-27 14:18:01.507842,-186
2021-12-27 14:18:01.507846,-177
2021-12-27 14:18:01.507851,-165
2021-12-27 14:18:01.507855,-160
2021-12-27 14:18:01.507860,-155
2021-12-27 14:18:01.507864,-146
2021-12-27 14:18:01.507869,-139
2021-12-27 14:18:01.507873,-139
2021-12-27 14:18:01.507878,-139
2021-12-27 14:18:01.507882,-139
2021-12-27 14:18:01.507887,-141
2021-12-27 14:18:01.507891,-139
2021-12-27 14:18:01.507896,-134
2021-12-27 14:18:01.507900,-129
2021-12-27 14:18:01.507904,-127
2021-12-27 14:18:01.507909,-124
2021-12-27 14:18:01.507914,-122
2021-12-27 14:18:01.507918,-117
2021-12-27 14:18:01.507923,-110
2021-12-27 14:18:01.507928,-107
2021-12-27 14:18:01.507932,-103
2021-12-27 14:18:01.507937,-95
2021-12-27 14:18:01.507941,-91
2021-12-27 14:18:01.507946,-88
2021-12-27 14:18:01.507951,-83
2021-12-27 14:18:01.507955,-76
2021-12-27 14:18:01.799000,-74
2021-12-27 14:18:01.799023,-69
2021-12-27 14:18:01.799032,-67
2021-12-27 14:18:01.799040,-64
2021-12-27 14:18:01.799048,-57
2021-12-27 14:18:01.799056,-52
2021-12-27 14:18:01.799060,-52
2021-12-27 14:18:01.799065,-47
2021-12-27 14:18:01.799069,-45
2021-12-27 14:18:01.799074,-47
2021-12-27 14:18:01.799078,-50
2021-12-27 14:18:01.799082,-43
2021-12-27 14:18:01.799087,-40
2021-12-27 14:18:01.799091,-43
2021-12-27 14:18:01.799096,-40
2021-12-27 14:18:01.799100,-38
2021-12-27 14:18:01.799104,-19
2021-12-27 14:18:01.799109,14
2021-12-27 14:18:01.799113,19
2021-12-27 14:18:01.799118,-4
2021-12-27 14:18:01.799122,-11
2021-12-27 14:18:01.799127,-14
2021-12-27 14:18:01.799131,-28
2021-12-27 14:18:01.799136,-38
2021-12-27 14:18:01.799140,-38
2021-12-27 14:18:01.799144,-35
2021-12-27 14:18:01.799149,-31
2021-12-27 14:18:01.799153,-31
2021-12-27 14:18:01.799158,-35
2021-12-27 14:18:01.799162,-31
2021-12-27 14:18:01.946478,-21
2021-12-27 14:18:01.946505,-21
2021-12-27 14:18:01.946514,-40
2021-12-27 14:18:01.946521,-86
2021-12-27 14:18:01.946528,-129
2021-12-27 14:18:01.946535,-4
2021-12-27 14:18:01.946542,584
2021-12-27 14:18:01.946549,1543
2021-12-27 14:18:01.946556,1996
2021-12-27 14:18:01.946563,1195
2021-12-27 14:18:01.946570,-50
2021-12-27 14:18:01.946578,-457
2021-12-27 14:18:01.946585,-280
2021-12-27 14:18:01.946592,-206
2021-12-27 14:18:01.946599,-146
2021-12-27 14:18:01.946606,-50
2021-12-27 14:18:01.946613,-50
2021-12-27 14:18:01.946619,-59
2021-12-27 14:18:01.946626,-19
2021-12-27 14:18:01.946633,7
2021-12-27 14:18:01.946640,16
2021-12-27 14:18:01.946647,38
2021-12-27 14:18:01.946654,59
2021-12-27 14:18:01.946661,79
2021-12-27 14:18:01.946668,100
2021-12-27 14:18:01.946675,127
2021-12-27 14:18:01.946682,162
2021-12-27 14:18:01.946689,186
2021-12-27 14:18:01.946695,213
2021-12-27 14:18:01.946702,254
2021-12-27 14:18:02.190214,294
2021-12-27 14:18:02.190242,335
2021-12-27 14:18:02.190251,371
2021-12-27 14:18:02.190258,397
2021-12-27 14:18:02.190265,419
2021-12-27 14:18:02.190272,433
2021-12-27 14:18:02.190279,436
2021-12-27 14:18:02.190286,421
2021-12-27 14:18:02.190293,390
2021-12-27 14:18:02.190300,340
2021-12-27 14:18:02.190307,256
2021-12-27 14:18:02.190314,148
2021-12-27 14:18:02.190320,43
2021-12-27 14:18:02.190327,-40
2021-12-27 14:18:02.190334,-103
2021-12-27 14:18:02.190341,-153
2021-12-27 14:18:02.190348,-182
2021-12-27 14:18:02.190355,-194
2021-12-27 14:18:02.190361,-194
2021-12-27 14:18:02.190368,-191
2021-12-27 14:18:02.190375,-179
2021-12-27 14:18:02.190382,-162
2021-12-27 14:18:02.190389,-150
2021-12-27 14:18:02.190395,-139
2021-12-27 14:18:02.190402,-127
2021-12-27 14:18:02.190409,-119
2021-12-27 14:18:02.190416,-105
2021-12-27 14:18:02.190423,-93
2021-12-27 14:18:02.190429,-88
2021-12-27 14:18:02.190436,-83
2021-12-27 14:18:02.384759,-67
2021-12-27 14:18:02.384787,-50
2021-12-27 14:18:02.384796,-52
2021-12-27 14:18:02.384803,-52
2021-12-27 14:18:02.384810,-40
2021-12-27 14:18:02.384816,-33
2021-12-27 14:18:02.384823,-28
2021-12-27 14:18:02.384830,-31
2021-12-27 14:18:02.384837,-35
2021-12-27 14:18:02.384844,-31
2021-12-27 14:18:02.384851,-23
2021-12-27 14:18:02.384863,-16
2021-12-27 14:18:02.384870,-9
2021-12-27 14:18:02.384877,-9
2021-12-27 14:18:02.384884,-11
2021-12-27 14:18:02.384891,-7
2021-12-27 14:18:02.384898,-2
2021-12-27 14:18:02.384905,-2
2021-12-27 14:18:02.384912,7
2021-12-27 14:18:02.384918,19
2021-12-27 14:18:02.384925,16
2021-12-27 14:18:02.384932,7
2021-12-27 14:18:02.384939,4
2021-12-27 14:18:02.384946,14
2021-12-27 14:18:02.384952,19
2021-12-27 14:18:02.384959,14
2021-12-27 14:18:02.384966,16
2021-12-27 14:18:02.384973,21
2021-12-27 14:18:02.384980,19
2021-12-27 14:18:02.384986,23
2021-12-27 14:18:02.629133,28
2021-12-27 14:18:02.629195,31
2021-12-27 14:18:02.629204,38
2021-12-27 14:18:02.629211,33
2021-12-27 14:18:02.629218,21
2021-12-27 14:18:02.629225,31
2021-12-27 14:18:02.629232,55
2021-12-27 14:18:02.629239,81
2021-12-27 14:18:02.629246,95
2021-12-27 14:18:02.629253,79
2021-12-27 14:18:02.629260,62
2021-12-27 14:18:02.629267,62
2021-12-27 14:18:02.629274,55
2021-12-27 14:18:02.629281,40
2021-12-27 14:18:02.629288,38
2021-12-27 14:18:02.629294,33
2021-12-27 14:18:02.629301,28
2021-12-27 14:18:02.629308,33
2021-12-27 14:18:02.629315,38
2021-12-27 14:18:02.629322,40
2021-12-27 14:18:02.629329,45
2021-12-27 14:18:02.629336,50
2021-12-27 14:18:02.629343,38
2021-12-27 14:18:02.629350,0
2021-12-27 14:18:02.629357,-43
2021-12-27 14:18:02.629364,33
2021-12-27 14:18:02.629371,515
2021-12-27 14:18:02.629378,1449
2021-12-27 14:18:02.629385,2039
2021-12-27 14:18:02.629392,1330
2021-12-27 14:18:02.872472,-2
2021-12-27 14:18:02.872492,-503
2021-12-27 14:18:02.872498,-306
2021-12-27 14:18:02.872502,-230
2021-12-27 14:18:02.872507,-189
2021-12-27 14:18:02.872512,-31
2021-12-27 14:18:02.872516,28
2021-12-27 14:18:02.872521,4
2021-12-27 14:18:02.872525,33
2021-12-27 14:18:02.872530,69
2021-12-27 14:18:02.872534,71
2021-12-27 14:18:02.872539,86
2021-12-27 14:18:02.872543,115
2021-12-27 14:18:02.872548,134
2021-12-27 14:18:02.872552,146
2021-12-27 14:18:02.872556,165
2021-12-27 14:18:02.872561,198
2021-12-27 14:18:02.872565,227
2021-12-27 14:18:02.872570,246
2021-12-27 14:18:02.872574,278
2021-12-27 14:18:02.872579,321
2021-12-27 14:18:02.872583,354
2021-12-27 14:18:02.872587,381
2021-12-27 14:18:02.872592,412
2021-12-27 14:18:02.872596,436
2021-12-27 14:18:02.872601,433
2021-12-27 14:18:02.872605,424
2021-12-27 14:18:02.872610,419
2021-12-27 14:18:02.872614,390
2021-12-27 14:18:02.872619,318
2021-12-27 14:18:03.163368,225
2021-12-27 14:18:03.163385,124
2021-12-27 14:18:03.163391,23
2021-12-27 14:18:03.163396,-67
2021-12-27 14:18:03.163400,-139
2021-12-27 14:18:03.163405,-184
2021-12-27 14:18:03.163409,-208
2021-12-27 14:18:03.163414,-218
2021-12-27 14:18:03.163418,-220
2021-12-27 14:18:03.163423,-215
2021-12-27 14:18:03.163427,-203
2021-12-27 14:18:03.163432,-191
2021-12-27 14:18:03.163436,-182
2021-12-27 14:18:03.163441,-179
2021-12-27 14:18:03.163445,-170
2021-12-27 14:18:03.163449,-160
2021-12-27 14:18:03.163454,-148
2021-12-27 14:18:03.163458,-127
2021-12-27 14:18:03.163463,-115
2021-12-27 14:18:03.163467,-115
2021-12-27 14:18:03.163471,-110
2021-12-27 14:18:03.163476,-103
2021-12-27 14:18:03.163480,-93
2021-12-27 14:18:03.163485,-76
2021-12-27 14:18:03.163489,-69
2021-12-27 14:18:03.163494,-74
2021-12-27 14:18:03.163498,-74
2021-12-27 14:18:03.163502,-67
2021-12-27 14:18:03.163507,-62
2021-12-27 14:18:03.163511,-64
2021-12-27 14:18:03.408424,-67
2021-12-27 14:18:03.408452,-64
2021-12-27 14:18:03.408461,-62
2021-12-27 14:18:03.408469,-57
2021-12-27 14:18:03.408476,-59
2021-12-27 14:18:03.408483,-57
2021-12-27 14:18:03.408490,-43
2021-12-27 14:18:03.408496,-35
2021-12-27 14:18:03.408503,-43
2021-12-27 14:18:03.408510,-47
2021-12-27 14:18:03.408517,-40
2021-12-27 14:18:03.408524,-35
2021-12-27 14:18:03.408531,-38
2021-12-27 14:18:03.408538,-33
2021-12-27 14:18:03.408544,-26
2021-12-27 14:18:03.408551,-31
2021-12-27 14:18:03.408558,-31
2021-12-27 14:18:03.408565,-23
2021-12-27 14:18:03.408572,-16
2021-12-27 14:18:03.408579,-11
2021-12-27 14:18:03.408586,-9
2021-12-27 14:18:03.408592,-19
2021-12-27 14:18:03.408599,-26
2021-12-27 14:18:03.408606,-11
2021-12-27 14:18:03.408613,21
2021-12-27 14:18:03.408620,52
2021-12-27 14:18:03.408627,45
2021-12-27 14:18:03.408634,19
2021-12-27 14:18:03.408640,21
2021-12-27 14:18:03.408647,26
2021-12-27 14:18:03.652238,7
2021-12-27 14:18:03.652266,-4
2021-12-27 14:18:03.652275,0
2021-12-27 14:18:03.652282,-4
2021-12-27 14:18:03.652289,-14
2021-12-27 14:18:03.652296,-11
2021-12-27 14:18:03.652303,-2
2021-12-27 14:18:03.652309,-2
2021-12-27 14:18:03.652325,-2
2021-12-27 14:18:03.652332,-4
2021-12-27 14:18:03.652339,-23
2021-12-27 14:18:03.652346,-69
2021-12-27 14:18:03.652353,-91
2021-12-27 14:18:03.652360,91
2021-12-27 14:18:03.652367,757
2021-12-27 14:18:03.652375,1723
2021-12-27 14:18:03.652382,1967
2021-12-27 14:18:03.652389,908
2021-12-27 14:18:03.652396,-287
2021-12-27 14:18:03.652403,-493
2021-12-27 14:18:03.652410,-285
2021-12-27 14:18:03.652417,-251
2021-12-27 14:18:03.652423,-162
2021-12-27 14:18:03.652430,-31
2021-12-27 14:18:03.652437,-23
2021-12-27 14:18:03.652444,-28
2021-12-27 14:18:03.652451,19
2021-12-27 14:18:03.652458,38
2021-12-27 14:18:03.652465,38
2021-12-27 14:18:03.652472,67
2021-12-27 14:18:03.847403,98
2021-12-27 14:18:03.847425,119
2021-12-27 14:18:03.847432,136
2021-12-27 14:18:03.847437,155
2021-12-27 14:18:03.847442,179
2021-12-27 14:18:03.847447,213
2021-12-27 14:18:03.847452,244
2021-12-27 14:18:03.847457,278
2021-12-27 14:18:03.847462,321
2021-12-27 14:18:03.847467,359
2021-12-27 14:18:03.847472,390
2021-12-27 14:18:03.847477,412
2021-12-27 14:18:03.847481,426
2021-12-27 14:18:03.847486,431
2021-12-27 14:18:03.847491,426
2021-12-27 14:18:03.847496,407
2021-12-27 14:18:03.847500,366
2021-12-27 14:18:03.847505,297
2021-12-27 14:18:03.847510,198
2021-12-27 14:18:03.847515,86
2021-12-27 14:18:03.847520,-14
2021-12-27 14:18:03.847525,-93
2021-12-27 14:18:03.847530,-150
2021-12-27 14:18:03.847535,-184
2021-12-27 14:18:03.847540,-203
2021-12-27 14:18:03.847545,-215
2021-12-27 14:18:03.847549,-215
2021-12-27 14:18:03.847554,-213
2021-12-27 14:18:03.847559,-210
2021-12-27 14:18:03.847564,-198
2021-12-27 14:18:04.090715,-184
2021-12-27 14:18:04.090740,-174
2021-12-27 14:18:04.090751,-165
2021-12-27 14:18:04.090760,-160
2021-12-27 14:18:04.090768,-153
2021-12-27 14:18:04.090777,-139
2021-12-27 14:18:04.090785,-127
2021-12-27 14:18:04.090793,-119
2021-12-27 14:18:04.090802,-119
2021-12-27 14:18:04.090811,-124
2021-12-27 14:18:04.090819,-119
2021-12-27 14:18:04.090827,-112
2021-12-27 14:18:04.090836,-107
2021-12-27 14:18:04.090844,-107
2021-12-27 14:18:04.090853,-110
2021-12-27 14:18:04.090867,-105
2021-12-27 14:18:04.090876,-98
2021-12-27 14:18:04.090896,-93
2021-12-27 14:18:04.090903,-88
2021-12-27 14:18:04.090908,-93
2021-12-27 14:18:04.090915,-100
2021-12-27 14:18:04.090921,-91
2021-12-27 14:18:04.090928,-81
2021-12-27 14:18:04.090935,-83
2021-12-27 14:18:04.090941,-79
2021-12-27 14:18:04.090948,-69
2021-12-27 14:18:04.090954,-67
2021-12-27 14:18:04.090961,-64
2021-12-27 14:18:04.090967,-59
2021-12-27 14:18:04.090974,-52
2021-12-27 14:18:04.285698,-47
2021-12-27 14:18:04.285721,-45
2021-12-27 14:18:04.285727,-38
2021-12-27 14:18:04.285732,-35
2021-12-27 14:18:04.285736,-33
2021-12-27 14:18:04.285741,-23
2021-12-27 14:18:04.285745,-23
2021-12-27 14:18:04.285750,-28
2021-12-27 14:18:04.285754,-16
2021-12-27 14:18:04.285759,-9
2021-12-27 14:18:04.285763,-14
2021-12-27 14:18:04.285768,-16
2021-12-27 14:18:04.285773,-19
2021-12-27 14:18:04.285777,-9
2021-12-27 14:18:04.285782,16
2021-12-27 14:18:04.285786,43
2021-12-27 14:18:04.285790,45
2021-12-27 14:18:04.285795,28
2021-12-27 14:18:04.285799,28
2021-12-27 14:18:04.285804,31
2021-12-27 14:18:04.285808,11
2021-12-27 14:18:04.285813,-7
2021-12-27 14:18:04.285817,-9
2021-12-27 14:18:04.285821,-2
2021-12-27 14:18:04.285826,7
2021-12-27 14:18:04.285830,11
2021-12-27 14:18:04.285835,11
2021-12-27 14:18:04.285839,14
2021-12-27 14:18:04.285844,14
2021-12-27 14:18:04.285848,11
2021-12-27 14:18:04.579153,-2
2021-12-27 14:18:04.579182,-40
2021-12-27 14:18:04.579191,-81
2021-12-27 14:18:04.579198,45
2021-12-27 14:18:04.579205,630
2021-12-27 14:18:04.579212,1605
2021-12-27 14:18:04.579219,2085
2021-12-27 14:18:04.579226,1265
2021-12-27 14:18:04.579233,-50
2021-12-27 14:18:04.579240,-486
2021-12-27 14:18:04.579246,-278
2021-12-27 14:18:04.579253,-191
2021-12-27 14:18:04.579260,-139
2021-12-27 14:18:04.579267,-26
2021-12-27 14:18:04.579274,-19
2021-12-27 14:18:04.579281,-43
2021-12-27 14:18:04.579288,-9
2021-12-27 14:18:04.579294,16
2021-12-27 14:18:04.579301,23
2021-12-27 14:18:04.579308,43
2021-12-27 14:18:04.579315,64
2021-12-27 14:18:04.579322,83
2021-12-27 14:18:04.579329,105
2021-12-27 14:18:04.579336,127
2021-12-27 14:18:04.579343,148
2021-12-27 14:18:04.579350,179
2021-12-27 14:18:04.579357,210
2021-12-27 14:18:04.579364,239
2021-12-27 14:18:04.579371,268
2021-12-27 14:18:04.579377,299
2021-12-27 14:18:04.821856,333
2021-12-27 14:18:04.821882,361
2021-12-27 14:18:04.821891,378
2021-12-27 14:18:04.821898,383
2021-12-27 14:18:04.821905,376
2021-12-27 14:18:04.821912,359
2021-12-27 14:18:04.821919,321
2021-12-27 14:18:04.821926,251
2021-12-27 14:18:04.821933,162
2021-12-27 14:18:04.821940,59
2021-12-27 14:18:04.821947,-43
2021-12-27 14:18:04.821954,-131
2021-12-27 14:18:04.821961,-196
2021-12-27 14:18:04.821968,-239
2021-12-27 14:18:04.821975,-270
2021-12-27 14:18:04.821982,-287
2021-12-27 14:18:04.821989,-287
2021-12-27 14:18:04.821996,-282
2021-12-27 14:18:04.822003,-280
2021-12-27 14:18:04.822010,-273
2021-12-27 14:18:04.822017,-254
2021-12-27 14:18:04.822024,-244
2021-12-27 14:18:04.822031,-234
2021-12-27 14:18:04.822044,-220
2021-12-27 14:18:04.822051,-210
2021-12-27 14:18:04.822059,-208
2021-12-27 14:18:04.822065,-203
2021-12-27 14:18:04.822072,-189
2021-12-27 14:18:04.822079,-177
2021-12-27 14:18:04.822086,-172
2021-12-27 14:18:04.919220,-170
2021-12-27 14:18:04.919239,-162
2021-12-27 14:18:04.919244,-160
2021-12-27 14:18:04.919249,-153
2021-12-27 14:18:04.919254,-146
2021-12-27 14:18:04.919258,-143
2021-12-27 14:18:04.919262,-141
2021-12-27 14:18:04.919267,-134
2021-12-27 14:18:04.919271,-131
2021-12-27 14:18:04.919276,-131
2021-12-27 14:18:04.919280,-127
2021-12-27 14:18:04.919285,-122
2021-12-27 14:18:04.919289,-115
2021-12-27 14:18:04.919294,-115
2021-12-27 14:18:04.919298,-119
2021-12-27 14:18:04.919302,-119
2021-12-27 14:18:04.919307,-110
2021-12-27 14:18:04.919311,-110
2021-12-27 14:18:04.919316,-105
2021-12-27 14:18:04.919320,-93
2021-12-27 14:18:04.919325,-88
2021-12-27 14:18:04.919330,-95
2021-12-27 14:18:04.919334,-93
2021-12-27 14:18:04.919339,-83
2021-12-27 14:18:04.919343,-76
2021-12-27 14:18:04.919347,-69
2021-12-27 14:18:04.919352,-71
2021-12-27 14:18:04.919356,-74
2021-12-27 14:18:04.919361,-67
2021-12-27 14:18:04.919365,-59
2021-12-27 14:18:05.211033,-59
2021-12-27 14:18:05.211050,-57
2021-12-27 14:18:05.211056,-59
2021-12-27 14:18:05.211061,-59
2021-12-27 14:18:05.211065,-38
2021-12-27 14:18:05.211070,2
2021-12-27 14:18:05.211075,11
2021-12-27 14:18:05.211079,-9
2021-12-27 14:18:05.211084,-21
2021-12-27 14:18:05.211088,-21
2021-12-27 14:18:05.211093,-35
2021-12-27 14:18:05.211097,-47
2021-12-27 14:18:05.211102,-45
2021-12-27 14:18:05.211106,-43
2021-12-27 14:18:05.211111,-38
2021-12-27 14:18:05.211115,-38
2021-12-27 14:18:05.211120,-40
2021-12-27 14:18:05.211124,-38
2021-12-27 14:18:05.211129,-33
2021-12-27 14:18:05.211133,-31
2021-12-27 14:18:05.211138,-35
2021-12-27 14:18:05.211142,-76
2021-12-27 14:18:05.211147,-127
2021-12-27 14:18:05.211151,-21
2021-12-27 14:18:05.211156,512
2021-12-27 14:18:05.211160,1454
2021-12-27 14:18:05.211165,1998
2021-12-27 14:18:05.211169,1298
2021-12-27 14:18:05.211174,28
2021-12-27 14:18:05.211179,-460
2021-12-27 14:18:05.504725,-294
2021-12-27 14:18:05.504745,-201
2021-12-27 14:18:05.504751,-141
2021-12-27 14:18:05.504756,-33
2021-12-27 14:18:05.504760,-23
2021-12-27 14:18:05.504765,-43
2021-12-27 14:18:05.504769,-4
2021-12-27 14:18:05.504774,28
2021-12-27 14:18:05.504778,40
2021-12-27 14:18:05.504783,64
2021-12-27 14:18:05.504787,86
2021-12-27 14:18:05.504792,95
2021-12-27 14:18:05.504797,117
2021-12-27 14:18:05.504801,148
2021-12-27 14:18:05.504806,170
2021-12-27 14:18:05.504810,191
2021-12-27 14:18:05.504815,227
2021-12-27 14:18:05.504819,268
2021-12-27 14:18:05.504824,309
2021-12-27 14:18:05.504828,349
2021-12-27 14:18:05.504833,383
2021-12-27 14:18:05.504837,414
2021-12-27 14:18:05.504842,440
2021-12-27 14:18:05.504846,448
2021-12-27 14:18:05.504851,438
2021-12-27 14:18:05.504855,428
2021-12-27 14:18:05.504859,405
2021-12-27 14:18:05.504864,342
2021-12-27 14:18:05.504869,244
2021-12-27 14:18:05.504873,136
2021-12-27 14:18:05.651808,38
2021-12-27 14:18:05.651836,-50
2021-12-27 14:18:05.651844,-115
2021-12-27 14:18:05.651851,-155
2021-12-27 14:18:05.651858,-179
2021-12-27 14:18:05.651865,-196
2021-12-27 14:18:05.651872,-201
2021-12-27 14:18:05.651879,-194
2021-12-27 14:18:05.651885,-186
2021-12-27 14:18:05.651892,-174
2021-12-27 14:18:05.651899,-158
2021-12-27 14:18:05.651906,-141
2021-12-27 14:18:05.651913,-129
2021-12-27 14:18:05.651919,-119
2021-12-27 14:18:05.651926,-110
2021-12-27 14:18:05.651933,-103
2021-12-27 14:18:05.651940,-93
2021-12-27 14:18:05.651946,-79
2021-12-27 14:18:05.651953,-67
2021-12-27 14:18:05.651960,-62
2021-12-27 14:18:05.651967,-59
2021-12-27 14:18:05.651974,-52
2021-12-27 14:18:05.651980,-47
2021-12-27 14:18:05.651987,-43
2021-12-27 14:18:05.651994,-33
2021-12-27 14:18:05.652001,-33
2021-12-27 14:18:05.652007,-28
2021-12-27 14:18:05.652014,-19
2021-12-27 14:18:05.652021,-16
2021-12-27 14:18:05.652028,-14
2021-12-27 14:18:05.893604,-14
2021-12-27 14:18:05.893621,-9
2021-12-27 14:18:05.893627,-2
2021-12-27 14:18:05.893632,4
2021-12-27 14:18:05.893637,9
2021-12-27 14:18:05.893641,11
2021-12-27 14:18:05.893646,16
2021-12-27 14:18:05.893650,21
2021-12-27 14:18:05.893655,16
2021-12-27 14:18:05.893659,14
2021-12-27 14:18:05.893664,19
2021-12-27 14:18:05.893668,21
2021-12-27 14:18:05.893673,31
2021-12-27 14:18:05.893677,38
2021-12-27 14:18:05.893682,19
2021-12-27 14:18:05.893686,4
2021-12-27 14:18:05.893691,21
2021-12-27 14:18:05.893695,50
2021-12-27 14:18:05.893700,76
2021-12-27 14:18:05.893704,88
2021-12-27 14:18:05.893709,67
2021-12-27 14:18:05.893713,55
2021-12-27 14:18:05.893718,57
2021-12-27 14:18:05.893722,40
2021-12-27 14:18:05.893727,23
2021-12-27 14:18:05.893731,23
2021-12-27 14:18:05.893736,26
2021-12-27 14:18:05.893740,26
2021-12-27 14:18:05.893745,21
2021-12-27 14:18:05.893749,26
2021-12-27 14:18:06.089887,31
2021-12-27 14:18:06.089906,33
2021-12-27 14:18:06.089911,31
2021-12-27 14:18:06.089916,2
2021-12-27 14:18:06.089921,-59
2021-12-27 14:18:06.089925,-81
2021-12-27 14:18:06.089930,158
2021-12-27 14:18:06.089934,913
2021-12-27 14:18:06.089939,1847
2021-12-27 14:18:06.089943,1855
2021-12-27 14:18:06.089948,623
2021-12-27 14:18:06.089952,-424
2021-12-27 14:18:06.089957,-450
2021-12-27 14:18:06.089961,-263
2021-12-27 14:18:06.089966,-251
2021-12-27 14:18:06.089970,-122
2021-12-27 14:18:06.089975,14
2021-12-27 14:18:06.089979,0
2021-12-27 14:18:06.089983,0
2021-12-27 14:18:06.089988,50
2021-12-27 14:18:06.089992,64
2021-12-27 14:18:06.089997,76
2021-12-27 14:18:06.090001,103
2021-12-27 14:18:06.090006,119
2021-12-27 14:18:06.090010,139
2021-12-27 14:18:06.090015,165
2021-12-27 14:18:06.090019,182
2021-12-27 14:18:06.090023,198
2021-12-27 14:18:06.090028,225
2021-12-27 14:18:06.090036,258
2021-12-27 14:18:06.382964,297
2021-12-27 14:18:06.382993,337
2021-12-27 14:18:06.383001,373
2021-12-27 14:18:06.383009,397
2021-12-27 14:18:06.383015,421
2021-12-27 14:18:06.383022,436
2021-12-27 14:18:06.383029,428
2021-12-27 14:18:06.383036,414
2021-12-27 14:18:06.383043,393
2021-12-27 14:18:06.383049,347
2021-12-27 14:18:06.383056,266
2021-12-27 14:18:06.383063,160
2021-12-27 14:18:06.383070,47
2021-12-27 14:18:06.383077,-50
2021-12-27 14:18:06.383084,-119
2021-12-27 14:18:06.383090,-167
2021-12-27 14:18:06.383097,-198
2021-12-27 14:18:06.383104,-208
2021-12-27 14:18:06.383111,-213
2021-12-27 14:18:06.383118,-213
2021-12-27 14:18:06.383125,-201
2021-12-27 14:18:06.383132,-182
2021-12-27 14:18:06.383138,-170
2021-12-27 14:18:06.383145,-165
2021-12-27 14:18:06.383152,-153
2021-12-27 14:18:06.383159,-139
2021-12-27 14:18:06.383165,-124
2021-12-27 14:18:06.383172,-112
2021-12-27 14:18:06.383179,-110
2021-12-27 14:18:06.383186,-105
2021-12-27 14:18:06.625290,-95
2021-12-27 14:18:06.625307,-88
2021-12-27 14:18:06.625312,-79
2021-12-27 14:18:06.625316,-74
2021-12-27 14:18:06.625321,-64
2021-12-27 14:18:06.625327,-62
2021-12-27 14:18:06.625333,-64
2021-12-27 14:18:06.625337,-62
2021-12-27 14:18:06.625340,-62
2021-12-27 14:18:06.625343,-64
2021-12-27 14:18:06.625347,-57
2021-12-27 14:18:06.625353,-50
2021-12-27 14:18:06.625358,-50
2021-12-27 14:18:06.625364,-45
2021-12-27 14:18:06.625368,-45
2021-12-27 14:18:06.625371,-47
2021-12-27 14:18:06.625374,-45
2021-12-27 14:18:06.625378,-38
2021-12-27 14:18:06.625383,-31
2021-12-27 14:18:06.625389,-35
2021-12-27 14:18:06.625395,-40
2021-12-27 14:18:06.625399,-33
2021-12-27 14:18:06.625402,-23
2021-12-27 14:18:06.625405,-26
2021-12-27 14:18:06.625409,-23
2021-12-27 14:18:06.625415,-19
2021-12-27 14:18:06.625420,-26
2021-12-27 14:18:06.625426,-31
2021-12-27 14:18:06.625430,-23
2021-12-27 14:18:06.625433,-7
2021-12-27 14:18:06.821663,21
2021-12-27 14:18:06.821691,38
2021-12-27 14:18:06.821700,23
2021-12-27 14:18:06.821707,14
2021-12-27 14:18:06.821714,11
2021-12-27 14:18:06.821721,-7
2021-12-27 14:18:06.821728,-23
2021-12-27 14:18:06.821735,-14
2021-12-27 14:18:06.821742,-9
2021-12-27 14:18:06.821749,-19
2021-12-27 14:18:06.821755,-21
2021-12-27 14:18:06.821762,-11
2021-12-27 14:18:06.821769,-9
2021-12-27 14:18:06.821776,-11
2021-12-27 14:18:06.821783,-7
2021-12-27 14:18:06.821790,-28
2021-12-27 14:18:06.821797,-83
2021-12-27 14:18:06.821803,-105
2021-12-27 14:18:06.821810,115
2021-12-27 14:18:06.821817,831
2021-12-27 14:18:06.821824,1792
2021-12-27 14:18:06.821831,1946
2021-12-27 14:18:06.821838,810
2021-12-27 14:18:06.821845,-349
2021-12-27 14:18:06.821851,-491
2021-12-27 14:18:06.821858,-285
2021-12-27 14:18:06.821865,-254
2021-12-27 14:18:06.821872,-150
2021-12-27 14:18:06.821879,-23
2021-12-27 14:18:06.821886,-28
2021-12-27 14:18:07.016617,-31
2021-12-27 14:18:07.016645,19
2021-12-27 14:18:07.016654,26
2021-12-27 14:18:07.016662,23
2021-12-27 14:18:07.016669,55
2021-12-27 14:18:07.016676,81
2021-12-27 14:18:07.016683,100
2021-12-27 14:18:07.016690,124
2021-12-27 14:18:07.016697,148
2021-12-27 14:18:07.016704,172
2021-12-27 14:18:07.016711,198
2021-12-27 14:18:07.016718,225
2021-12-27 14:18:07.016725,261
2021-12-27 14:18:07.016732,294
2021-12-27 14:18:07.016739,325
2021-12-27 14:18:07.016746,357
2021-12-27 14:18:07.016753,383
2021-12-27 14:18:07.016760,390
2021-12-27 14:18:07.016767,388
2021-12-27 14:18:07.016774,381
2021-12-27 14:18:07.016781,354
2021-12-27 14:18:07.016788,309
2021-12-27 14:18:07.016795,234
2021-12-27 14:18:07.016802,131
2021-12-27 14:18:07.016809,21
2021-12-27 14:18:07.016817,-67
2021-12-27 14:18:07.016824,-136
2021-12-27 14:18:07.016831,-186
2021-12-27 14:18:07.016838,-215
2021-12-27 14:18:07.016845,-227
2021-12-27 14:18:07.307109,-232
2021-12-27 14:18:07.307126,-225
2021-12-27 14:18:07.307132,-218
2021-12-27 14:18:07.307137,-213
2021-12-27 14:18:07.307141,-208
2021-12-27 14:18:07.307146,-203
2021-12-27 14:18:07.307150,-201
2021-12-27 14:18:07.307155,-189
2021-12-27 14:18:07.307159,-172
2021-12-27 14:18:07.307164,-165
2021-12-27 14:18:07.307168,-160
2021-12-27 14:18:07.307173,-153
2021-12-27 14:18:07.307177,-146
2021-12-27 14:18:07.307182,-139
2021-12-27 14:18:07.307186,-131
2021-12-27 14:18:07.307191,-129
2021-12-27 14:18:07.307195,-127
2021-12-27 14:18:07.307200,-119
2021-12-27 14:18:07.307204,-112
2021-12-27 14:18:07.307209,-110
2021-12-27 14:18:07.307213,-107
2021-12-27 14:18:07.307218,-105
2021-12-27 14:18:07.307223,-100
2021-12-27 14:18:07.307227,-98
2021-12-27 14:18:07.307232,-95
2021-12-27 14:18:07.307236,-98
2021-12-27 14:18:07.307241,-91
2021-12-27 14:18:07.307245,-86
2021-12-27 14:18:07.307249,-86
2021-12-27 14:18:07.307254,-81
2021-12-27 14:18:07.503794,-76
2021-12-27 14:18:07.503823,-74
2021-12-27 14:18:07.503831,-71
2021-12-27 14:18:07.503839,-67
2021-12-27 14:18:07.503845,-64
2021-12-27 14:18:07.503852,-62
2021-12-27 14:18:07.503859,-64
2021-12-27 14:18:07.503866,-69
2021-12-27 14:18:07.503872,-69
2021-12-27 14:18:07.503879,-64
2021-12-27 14:18:07.503886,-55
2021-12-27 14:18:07.503893,-52
2021-12-27 14:18:07.503900,-52
2021-12-27 14:18:07.503906,-59
2021-12-27 14:18:07.503913,-64
2021-12-27 14:18:07.503920,-47
2021-12-27 14:18:07.503927,-16
2021-12-27 14:18:07.503933,2
2021-12-27 14:18:07.503940,-14
2021-12-27 14:18:07.503947,-33
2021-12-27 14:18:07.503954,-33
2021-12-27 14:18:07.503960,-38
2021-12-27 14:18:07.503967,-50
2021-12-27 14:18:07.503974,-52
2021-12-27 14:18:07.503980,-55
2021-12-27 14:18:07.503987,-55
2021-12-27 14:18:07.503994,-50
2021-12-27 14:18:07.504001,-50
2021-12-27 14:18:07.504008,-50
2021-12-27 14:18:07.504014,-43
2021-12-27 14:18:07.698786,-38
2021-12-27 14:18:07.698812,-43
2021-12-27 14:18:07.698821,-67
2021-12-27 14:18:07.698828,-124
2021-12-27 14:18:07.698835,-119
2021-12-27 14:18:07.698842,210
2021-12-27 14:18:07.698849,1049
2021-12-27 14:18:07.698856,1912
2021-12-27 14:18:07.698862,1747
2021-12-27 14:18:07.698869,508
2021-12-27 14:18:07.698876,-414
2021-12-27 14:18:07.698884,-414
2021-12-27 14:18:07.698891,-249
2021-12-27 14:18:07.698898,-213
2021-12-27 14:18:07.698904,-117
2021-12-27 14:18:07.698911,-69
2021-12-27 14:18:07.698918,-95
2021-12-27 14:18:07.698925,-69
2021-12-27 14:18:07.698932,-23
2021-12-27 14:18:07.698939,-16
2021-12-27 14:18:07.698946,-4
2021-12-27 14:18:07.698952,26
2021-12-27 14:18:07.698959,45
2021-12-27 14:18:07.698966,62
2021-12-27 14:18:07.698973,91
2021-12-27 14:18:07.698980,119
2021-12-27 14:18:07.698986,148
2021-12-27 14:18:07.698993,182
2021-12-27 14:18:07.699006,215
2021-12-27 14:18:07.699013,244
2021-12-27 14:18:07.989843,275
2021-12-27 14:18:07.989864,316
2021-12-27 14:18:07.989870,354
2021-12-27 14:18:07.989875,381
2021-12-27 14:18:07.989879,390
2021-12-27 14:18:07.989884,390
2021-12-27 14:18:07.989888,388
2021-12-27 14:18:07.989892,366
2021-12-27 14:18:07.989897,313
2021-12-27 14:18:07.989901,230
2021-12-27 14:18:07.989906,129
2021-12-27 14:18:07.989910,26
2021-12-27 14:18:07.989915,-62
2021-12-27 14:18:07.989919,-129
2021-12-27 14:18:07.989924,-179
2021-12-27 14:18:07.989928,-210
2021-12-27 14:18:07.989964,-220
2021-12-27 14:18:07.989969,-220
2021-12-27 14:18:07.989973,-210
2021-12-27 14:18:07.989977,-203
2021-12-27 14:18:07.989982,-189
2021-12-27 14:18:07.989986,-174
2021-12-27 14:18:07.989991,-162
2021-12-27 14:18:07.989995,-158
2021-12-27 14:18:07.989999,-150
2021-12-27 14:18:07.990004,-146
2021-12-27 14:18:07.990008,-139
2021-12-27 14:18:07.990013,-129
2021-12-27 14:18:07.990017,-119
2021-12-27 14:18:07.990021,-115
2021-12-27 14:18:08.235017,-110
2021-12-27 14:18:08.235040,-98
2021-12-27 14:18:08.235046,-88
2021-12-27 14:18:08.235051,-86
2021-12-27 14:18:08.235056,-81
2021-12-27 14:18:08.235060,-71
2021-12-27 14:18:08.235064,-74
2021-12-27 14:18:08.235069,-74
2021-12-27 14:18:08.235074,-62
2021-12-27 14:18:08.235078,-62
2021-12-27 14:18:08.235083,-67
2021-12-27 14:18:08.235087,-59
2021-12-27 14:18:08.235091,-55
2021-12-27 14:18:08.235096,-62
2021-12-27 14:18:08.235100,-57
2021-12-27 14:18:08.235105,-45
2021-12-27 14:18:08.235109,-43
2021-12-27 14:18:08.235114,-40
2021-12-27 14:18:08.235118,-31
2021-12-27 14:18:08.235123,-26
2021-12-27 14:18:08.235127,-28
2021-12-27 14:18:08.235131,-21
2021-12-27 14:18:08.235136,-19
2021-12-27 14:18:08.235140,-16
2021-12-27 14:18:08.235145,-7
2021-12-27 14:18:08.235149,-2
2021-12-27 14:18:08.235154,2
2021-12-27 14:18:08.235158,4
2021-12-27 14:18:08.235163,9
2021-12-27 14:18:08.235167,14
2021-12-27 14:18:08.478947,11
2021-12-27 14:18:08.478970,11
2021-12-27 14:18:08.478977,19
2021-12-27 14:18:08.478982,55
2021-12-27 14:18:08.478987,86
2021-12-27 14:18:08.478992,79
2021-12-27 14:18:08.478997,62
2021-12-27 14:18:08.479002,50
2021-12-27 14:18:08.479007,33
2021-12-27 14:18:08.479012,31
2021-12-27 14:18:08.479017,33
2021-12-27 14:18:08.479022,21
2021-12-27 14:18:08.479027,19
2021-12-27 14:18:08.479032,28
2021-12-27 14:18:08.479036,28
2021-12-27 14:18:08.479041,26
2021-12-27 14:18:08.479046,23
2021-12-27 14:18:08.479051,16
2021-12-27 14:18:08.479056,26
2021-12-27 14:18:08.479061,23
2021-12-27 14:18:08.479066,-31
2021-12-27 14:18:08.479071,-71
2021-12-27 14:18:08.479076,124
2021-12-27 14:18:08.479081,819
2021-12-27 14:18:08.479086,1780
2021-12-27 14:18:08.479090,1950
2021-12-27 14:18:08.479095,817
2021-12-27 14:18:08.479100,-337
2021-12-27 14:18:08.479105,-469
2021-12-27 14:18:08.479110,-258
2021-12-27 14:18:08.722739,-244
2021-12-27 14:18:08.722762,-134
2021-12-27 14:18:08.722769,16
2021-12-27 14:18:08.722774,11
2021-12-27 14:18:08.722780,-7
2021-12-27 14:18:08.722785,47
2021-12-27 14:18:08.722790,76
2021-12-27 14:18:08.722795,74
2021-12-27 14:18:08.722800,95
2021-12-27 14:18:08.722805,122
2021-12-27 14:18:08.722810,136
2021-12-27 14:18:08.722815,158
2021-12-27 14:18:08.722820,189
2021-12-27 14:18:08.722825,210
2021-12-27 14:18:08.722830,232
2021-12-27 14:18:08.722834,270
2021-12-27 14:18:08.722839,301
2021-12-27 14:18:08.722844,328
2021-12-27 14:18:08.722849,366
2021-12-27 14:18:08.722854,402
2021-12-27 14:18:08.722859,424
2021-12-27 14:18:08.722863,433
2021-12-27 14:18:08.722868,433
2021-12-27 14:18:08.722873,419
2021-12-27 14:18:08.722878,397
2021-12-27 14:18:08.722883,359
2021-12-27 14:18:08.722887,285
2021-12-27 14:18:08.722892,179
2021-12-27 14:18:08.722897,69
2021-12-27 14:18:08.722902,-26
2021-12-27 14:18:08.868607,-103
2021-12-27 14:18:08.868636,-150
2021-12-27 14:18:08.868645,-184
2021-12-27 14:18:08.868652,-203
2021-12-27 14:18:08.868659,-210
2021-12-27 14:18:08.868666,-215
2021-12-27 14:18:08.868673,-206
2021-12-27 14:18:08.868680,-186
2021-12-27 14:18:08.868687,-177
2021-12-27 14:18:08.868693,-172
2021-12-27 14:18:08.868700,-162
2021-12-27 14:18:08.868708,-153
2021-12-27 14:18:08.868715,-148
2021-12-27 14:18:08.868722,-143
2021-12-27 14:18:08.868729,-134
2021-12-27 14:18:08.868736,-124
2021-12-27 14:18:08.868742,-117
2021-12-27 14:18:08.868749,-115
2021-12-27 14:18:08.868756,-112
2021-12-27 14:18:08.868763,-105
2021-12-27 14:18:08.868770,-98
2021-12-27 14:18:08.868777,-93
2021-12-27 14:18:08.868783,-93
2021-12-27 14:18:08.868790,-95
2021-12-27 14:18:08.868797,-93
2021-12-27 14:18:08.868804,-93
2021-12-27 14:18:08.868811,-93
2021-12-27 14:18:08.868817,-91
2021-12-27 14:18:08.868824,-88
2021-12-27 14:18:08.868831,-83
2021-12-27 14:18:09.112817,-83
2021-12-27 14:18:09.112843,-88
2021-12-27 14:18:09.112849,-83
2021-12-27 14:18:09.112854,-76
2021-12-27 14:18:09.112859,-74
2021-12-27 14:18:09.112863,-79
2021-12-27 14:18:09.112868,-86
2021-12-27 14:18:09.112872,-86
2021-12-27 14:18:09.112877,-81
2021-12-27 14:18:09.112881,-79
2021-12-27 14:18:09.112886,-71
2021-12-27 14:18:09.112890,-64
2021-12-27 14:18:09.112895,-67
2021-12-27 14:18:09.112900,-74
2021-12-27 14:18:09.112904,-79
2021-12-27 14:18:09.112909,-64
2021-12-27 14:18:09.112913,-28
2021-12-27 14:18:09.112918,-2
2021-12-27 14:18:09.112922,-9
2021-12-27 14:18:09.112927,-19
2021-12-27 14:18:09.112931,-14
2021-12-27 14:18:09.112936,-28
2021-12-27 14:18:09.112941,-43
2021-12-27 14:18:09.112945,-43
2021-12-27 14:18:09.112950,-50
2021-12-27 14:18:09.112954,-52
2021-12-27 14:18:09.112959,-45
2021-12-27 14:18:09.112963,-45
2021-12-27 14:18:09.112968,-43
2021-12-27 14:18:09.112972,-38
2021-12-27 14:18:09.452917,-38
2021-12-27 14:18:09.452946,-38
2021-12-27 14:18:09.452955,-52
2021-12-27 14:18:09.452962,-103
2021-12-27 14:18:09.452969,-134
2021-12-27 14:18:09.452975,71
2021-12-27 14:18:09.452982,786
2021-12-27 14:18:09.452989,1759
2021-12-27 14:18:09.452996,1967
2021-12-27 14:18:09.453003,891
2021-12-27 14:18:09.453010,-292
2021-12-27 14:18:09.453016,-488
2021-12-27 14:18:09.453023,-285
2021-12-27 14:18:09.453030,-246
2021-12-27 14:18:09.453037,-158
2021-12-27 14:18:09.453043,-52
2021-12-27 14:18:09.453050,-64
2021-12-27 14:18:09.453057,-62
2021-12-27 14:18:09.453064,-7
2021-12-27 14:18:09.453071,7
2021-12-27 14:18:09.453077,7
2021-12-27 14:18:09.453084,33
2021-12-27 14:18:09.453091,57
2021-12-27 14:18:09.453098,74
2021-12-27 14:18:09.453105,100
2021-12-27 14:18:09.453111,124
2021-12-27 14:18:09.453118,150
2021-12-27 14:18:09.453125,179
2021-12-27 14:18:09.453132,213
2021-12-27 14:18:09.453139,251
2021-12-27 14:18:09.551869,287
2021-12-27 14:18:09.551897,325
2021-12-27 14:18:09.551906,357
2021-12-27 14:18:09.551914,378
2021-12-27 14:18:09.551921,393
2021-12-27 14:18:09.551928,395
2021-12-27 14:18:09.551934,385
2021-12-27 14:18:09.551941,366
2021-12-27 14:18:09.551948,323
2021-12-27 14:18:09.551955,244
2021-12-27 14:18:09.551962,143
2021-12-27 14:18:09.551970,31
2021-12-27 14:18:09.551977,-69
2021-12-27 14:18:09.551984,-134
2021-12-27 14:18:09.551991,-179
2021-12-27 14:18:09.551998,-210
2021-12-27 14:18:09.552004,-225
2021-12-27 14:18:09.552011,-225
2021-12-27 14:18:09.552018,-222
2021-12-27 14:18:09.552025,-220
2021-12-27 14:18:09.552032,-206
2021-12-27 14:18:09.552039,-189
2021-12-27 14:18:09.552046,-182
2021-12-27 14:18:09.552058,-182
2021-12-27 14:18:09.552065,-177
2021-12-27 14:18:09.552072,-162
2021-12-27 14:18:09.552079,-148
2021-12-27 14:18:09.552086,-139
2021-12-27 14:18:09.552093,-129
2021-12-27 14:18:09.552100,-119
2021-12-27 14:18:09.794946,-115
2021-12-27 14:18:09.794975,-112
2021-12-27 14:18:09.794984,-110
2021-12-27 14:18:09.794991,-105
2021-12-27 14:18:09.794998,-100
2021-12-27 14:18:09.795005,-95
2021-12-27 14:18:09.795012,-91
2021-12-27 14:18:09.795019,-86
2021-12-27 14:18:09.795026,-88
2021-12-27 14:18:09.795032,-88
2021-12-27 14:18:09.795039,-81
2021-12-27 14:18:09.795046,-76
2021-12-27 14:18:09.795053,-81
2021-12-27 14:18:09.795060,-81
2021-12-27 14:18:09.795067,-71
2021-12-27 14:18:09.795074,-67
2021-12-27 14:18:09.795080,-67
2021-12-27 14:18:09.795087,-59
2021-12-27 14:18:09.795094,-57
2021-12-27 14:18:09.795101,-59
2021-12-27 14:18:09.795108,-52
2021-12-27 14:18:09.795115,-47
2021-12-27 14:18:09.795122,-43
2021-12-27 14:18:09.795129,-40
2021-12-27 14:18:09.795136,-38
2021-12-27 14:18:09.795143,-35
2021-12-27 14:18:09.795150,-35
2021-12-27 14:18:09.795157,-33
2021-12-27 14:18:09.795164,-31
2021-12-27 14:18:09.795171,-31
2021-12-27 14:18:10.038958,-31
2021-12-27 14:18:10.038981,-31
2021-12-27 14:18:10.038987,-28
2021-12-27 14:18:10.038992,-33
2021-12-27 14:18:10.038997,-23
2021-12-27 14:18:10.039001,9
2021-12-27 14:18:10.039006,35
2021-12-27 14:18:10.039010,19
2021-12-27 14:18:10.039015,-7
2021-12-27 14:18:10.039019,-9
2021-12-27 14:18:10.039023,-11
2021-12-27 14:18:10.039028,-21
2021-12-27 14:18:10.039032,-31
2021-12-27 14:18:10.039037,-40
2021-12-27 14:18:10.039041,-45
2021-12-27 14:18:10.039045,-40
2021-12-27 14:18:10.039050,-45
2021-12-27 14:18:10.039054,-55
2021-12-27 14:18:10.039058,-52
2021-12-27 14:18:10.039063,-45
2021-12-27 14:18:10.039067,-52
2021-12-27 14:18:10.039072,-79
2021-12-27 14:18:10.039076,-124
2021-12-27 14:18:10.039081,-146
2021-12-27 14:18:10.039085,71
2021-12-27 14:18:10.039089,795
2021-12-27 14:18:10.039094,1735
2021-12-27 14:18:10.039098,1871
2021-12-27 14:18:10.039103,795
2021-12-27 14:18:10.039107,-309
2021-12-27 14:18:10.234139,-469
2021-12-27 14:18:10.234168,-282
2021-12-27 14:18:10.234176,-246
2021-12-27 14:18:10.234183,-167
2021-12-27 14:18:10.234190,-86
2021-12-27 14:18:10.234197,-93
2021-12-27 14:18:10.234204,-79
2021-12-27 14:18:10.234211,-43
2021-12-27 14:18:10.234217,-35
2021-12-27 14:18:10.234224,-21
2021-12-27 14:18:10.234231,9
2021-12-27 14:18:10.234238,31
2021-12-27 14:18:10.234245,55
2021-12-27 14:18:10.234251,81
2021-12-27 14:18:10.234258,110
2021-12-27 14:18:10.234265,134
2021-12-27 14:18:10.234271,162
2021-12-27 14:18:10.234278,198
2021-12-27 14:18:10.234285,232
2021-12-27 14:18:10.234292,275
2021-12-27 14:18:10.234299,323
2021-12-27 14:18:10.234305,354
2021-12-27 14:18:10.234312,376
2021-12-27 14:18:10.234319,400
2021-12-27 14:18:10.234326,414
2021-12-27 14:18:10.234332,414
2021-12-27 14:18:10.234339,405
2021-12-27 14:18:10.234346,366
2021-12-27 14:18:10.234353,292
2021-12-27 14:18:10.234360,196
2021-12-27 14:18:10.478056,95
2021-12-27 14:18:10.478085,2
2021-12-27 14:18:10.478094,-74
2021-12-27 14:18:10.478101,-124
2021-12-27 14:18:10.478108,-162
2021-12-27 14:18:10.478114,-186
2021-12-27 14:18:10.478121,-184
2021-12-27 14:18:10.478128,-179
2021-12-27 14:18:10.478135,-182
2021-12-27 14:18:10.478142,-167
2021-12-27 14:18:10.478148,-148
2021-12-27 14:18:10.478155,-143
2021-12-27 14:18:10.478162,-134
2021-12-27 14:18:10.478169,-115
2021-12-27 14:18:10.478175,-110
2021-12-27 14:18:10.478182,-105
2021-12-27 14:18:10.478189,-83
2021-12-27 14:18:10.478197,-74
2021-12-27 14:18:10.478203,-71
2021-12-27 14:18:10.478210,-62
2021-12-27 14:18:10.478217,-59
2021-12-27 14:18:10.478224,-57
2021-12-27 14:18:10.478230,-57
2021-12-27 14:18:10.478237,-62
2021-12-27 14:18:10.478244,-67
2021-12-27 14:18:10.478251,-59
2021-12-27 14:18:10.478257,-45
2021-12-27 14:18:10.478264,-50
2021-12-27 14:18:10.478271,-59
2021-12-27 14:18:10.478278,-50
2021-12-27 14:18:10.721360,-43
2021-12-27 14:18:10.721388,-45
2021-12-27 14:18:10.721396,-45
2021-12-27 14:18:10.721403,-43
2021-12-27 14:18:10.721410,-40
2021-12-27 14:18:10.721417,-35
2021-12-27 14:18:10.721424,-45
2021-12-27 14:18:10.721431,-50
2021-12-27 14:18:10.721438,-38
2021-12-27 14:18:10.721445,-31
2021-12-27 14:18:10.721452,-33
2021-12-27 14:18:10.721459,-28
2021-12-27 14:18:10.721466,-23
2021-12-27 14:18:10.721473,-23
2021-12-27 14:18:10.721479,-19
2021-12-27 14:18:10.721486,-16
2021-12-27 14:18:10.721493,-14
2021-12-27 14:18:10.721500,-16
2021-12-27 14:18:10.721507,-21
2021-12-27 14:18:10.721514,-7
2021-12-27 14:18:10.721521,19
2021-12-27 14:18:10.721529,38
2021-12-27 14:18:10.721536,45
2021-12-27 14:18:10.721543,40
2021-12-27 14:18:10.721550,31
2021-12-27 14:18:10.721556,23
2021-12-27 14:18:10.721563,14
2021-12-27 14:18:10.721570,2
2021-12-27 14:18:10.721577,4
2021-12-27 14:18:10.721584,14
2021-12-27 14:18:10.964903,16
2021-12-27 14:18:10.964931,14
2021-12-27 14:18:10.964939,11
2021-12-27 14:18:10.964946,14
2021-12-27 14:18:10.964953,16
2021-12-27 14:18:10.964960,14
2021-12-27 14:18:10.964967,-9
2021-12-27 14:18:10.964974,-67
2021-12-27 14:18:10.964980,-93
2021-12-27 14:18:10.964987,143
2021-12-27 14:18:10.964994,896
2021-12-27 14:18:10.965001,1859
2021-12-27 14:18:10.965008,1958
2021-12-27 14:18:10.965015,781
2021-12-27 14:18:10.965022,-359
2021-12-27 14:18:10.965028,-472
2021-12-27 14:18:10.965035,-263
2021-12-27 14:18:10.965042,-239
2021-12-27 14:18:10.965049,-136
2021-12-27 14:18:10.965056,-11
2021-12-27 14:18:10.965063,-16
2021-12-27 14:18:10.965069,-19
2021-12-27 14:18:10.965076,23
2021-12-27 14:18:10.965083,38
2021-12-27 14:18:10.965090,50
2021-12-27 14:18:10.965097,86
2021-12-27 14:18:10.965104,110
2021-12-27 14:18:10.965111,117
2021-12-27 14:18:10.965118,131
2021-12-27 14:18:10.965125,153
2021-12-27 14:18:11.160252,179
2021-12-27 14:18:11.160280,206
2021-12-27 14:18:11.160288,232
2021-12-27 14:18:11.160295,263
2021-12-27 14:18:11.160302,294
2021-12-27 14:18:11.160309,333
2021-12-27 14:18:11.160315,366
2021-12-27 14:18:11.160322,378
2021-12-27 14:18:11.160329,390
2021-12-27 14:18:11.160336,390
2021-12-27 14:18:11.160343,361
2021-12-27 14:18:11.160349,330
2021-12-27 14:18:11.160356,292
2021-12-27 14:18:11.160363,215
2021-12-27 14:18:11.160370,117
2021-12-27 14:18:11.160376,16
2021-12-27 14:18:11.160383,-74
2021-12-27 14:18:11.160390,-139
2021-12-27 14:18:11.160396,-184
2021-12-27 14:18:11.160403,-213
2021-12-27 14:18:11.160410,-218
2021-12-27 14:18:11.160417,-218
2021-12-27 14:18:11.160424,-213
2021-12-27 14:18:11.160431,-201
2021-12-27 14:18:11.160437,-182
2021-12-27 14:18:11.160444,-167
2021-12-27 14:18:11.160451,-160
2021-12-27 14:18:11.160458,-150
2021-12-27 14:18:11.160465,-139
2021-12-27 14:18:11.160472,-127
2021-12-27 14:18:11.451685,-112
2021-12-27 14:18:11.451715,-100
2021-12-27 14:18:11.451724,-93
2021-12-27 14:18:11.451731,-83
2021-12-27 14:18:11.451738,-79
2021-12-27 14:18:11.451744,-83
2021-12-27 14:18:11.451751,-86
2021-12-27 14:18:11.451758,-79
2021-12-27 14:18:11.451764,-74
2021-12-27 14:18:11.451771,-74
2021-12-27 14:18:11.451778,-74
2021-12-27 14:18:11.451784,-74
2021-12-27 14:18:11.451791,-74
2021-12-27 14:18:11.451798,-71
2021-12-27 14:18:11.451804,-67
2021-12-27 14:18:11.451811,-67
2021-12-27 14:18:11.451818,-69
2021-12-27 14:18:11.451824,-67
2021-12-27 14:18:11.451831,-62
2021-12-27 14:18:11.451838,-55
2021-12-27 14:18:11.451844,-50
2021-12-27 14:18:11.451851,-50
2021-12-27 14:18:11.451857,-45
2021-12-27 14:18:11.451865,-38
2021-12-27 14:18:11.451872,-40
2021-12-27 14:18:11.451878,-40
2021-12-27 14:18:11.451885,-31
2021-12-27 14:18:11.451892,-28
2021-12-27 14:18:11.451898,-23
2021-12-27 14:18:11.451905,-14
2021-12-27 14:18:11.647943,-9
2021-12-27 14:18:11.647972,-14
2021-12-27 14:18:11.647981,-19
2021-12-27 14:18:11.647988,-26
2021-12-27 14:18:11.647995,-31
2021-12-27 14:18:11.648002,-19
2021-12-27 14:18:11.648009,11
2021-12-27 14:18:11.648016,33
2021-12-27 14:18:11.648023,21
2021-12-27 14:18:11.648030,7
2021-12-27 14:18:11.648037,16
2021-12-27 14:18:11.648044,11
2021-12-27 14:18:11.648051,-14
2021-12-27 14:18:11.648058,-28
2021-12-27 14:18:11.648065,-26
2021-12-27 14:18:11.648072,-21
2021-12-27 14:18:11.648079,-19
2021-12-27 14:18:11.648092,-19
2021-12-27 14:18:11.648099,-11
2021-12-27 14:18:11.648106,-4
2021-12-27 14:18:11.648113,-7
2021-12-27 14:18:11.648120,-14
2021-12-27 14:18:11.648127,-35
2021-12-27 14:18:11.648134,-88
2021-12-27 14:18:11.648141,-69
2021-12-27 14:18:11.648148,309
2021-12-27 14:18:11.648155,1203
2021-12-27 14:18:11.648162,2025
2021-12-27 14:18:11.648169,1706
2021-12-27 14:18:11.648176,371
2021-12-27 14:18:11.842593,-488
2021-12-27 14:18:11.842614,-397
2021-12-27 14:18:11.842620,-225
2021-12-27 14:18:11.842625,-196
2021-12-27 14:18:11.842630,-67
2021-12-27 14:18:11.842635,4
2021-12-27 14:18:11.842640,-28
2021-12-27 14:18:11.842645,-7
2021-12-27 14:18:11.842650,38
2021-12-27 14:18:11.842654,43
2021-12-27 14:18:11.842659,57
2021-12-27 14:18:11.842664,86
2021-12-27 14:18:11.842669,100
2021-12-27 14:18:11.842673,119
2021-12-27 14:18:11.842678,141
2021-12-27 14:18:11.842683,158
2021-12-27 14:18:11.842688,186
2021-12-27 14:18:11.842693,222
2021-12-27 14:18:11.842698,256
2021-12-27 14:18:11.842702,294
2021-12-27 14:18:11.842708,333
2021-12-27 14:18:11.842713,364
2021-12-27 14:18:11.842717,395
2021-12-27 14:18:11.842722,419
2021-12-27 14:18:11.842727,433
2021-12-27 14:18:11.842732,436
2021-12-27 14:18:11.842736,421
2021-12-27 14:18:11.842741,388
2021-12-27 14:18:11.842746,335
2021-12-27 14:18:11.842751,249
2021-12-27 14:18:12.183539,131
2021-12-27 14:18:12.183573,21
2021-12-27 14:18:12.183582,-64
2021-12-27 14:18:12.183589,-139
2021-12-27 14:18:12.183597,-194
2021-12-27 14:18:12.183604,-213
2021-12-27 14:18:12.183611,-220
2021-12-27 14:18:12.183617,-225
2021-12-27 14:18:12.183624,-222
2021-12-27 14:18:12.183631,-218
2021-12-27 14:18:12.183638,-215
2021-12-27 14:18:12.183644,-208
2021-12-27 14:18:12.183651,-194
2021-12-27 14:18:12.183658,-179
2021-12-27 14:18:12.183665,-172
2021-12-27 14:18:12.183672,-167
2021-12-27 14:18:12.183679,-160
2021-12-27 14:18:12.183686,-150
2021-12-27 14:18:12.183693,-143
2021-12-27 14:18:12.183700,-143
2021-12-27 14:18:12.183706,-131
2021-12-27 14:18:12.183713,-122
2021-12-27 14:18:12.183720,-119
2021-12-27 14:18:12.183727,-117
2021-12-27 14:18:12.183734,-110
2021-12-27 14:18:12.183741,-105
2021-12-27 14:18:12.183748,-100
2021-12-27 14:18:12.183754,-98
2021-12-27 14:18:12.183761,-95
2021-12-27 14:18:12.183768,-93
2021-12-27 14:18:12.330350,-91
2021-12-27 14:18:12.330404,-86
2021-12-27 14:18:12.330424,-81
2021-12-27 14:18:12.330428,-79
2021-12-27 14:18:12.330431,-81
2021-12-27 14:18:12.330435,-83
2021-12-27 14:18:12.330438,-86
2021-12-27 14:18:12.330442,-86
2021-12-27 14:18:12.330445,-81
2021-12-27 14:18:12.330449,-74
2021-12-27 14:18:12.330452,-69
2021-12-27 14:18:12.330456,-67
2021-12-27 14:18:12.330460,-64
2021-12-27 14:18:12.330463,-55
2021-12-27 14:18:12.330467,-50
2021-12-27 14:18:12.330471,-52
2021-12-27 14:18:12.330474,-55
2021-12-27 14:18:12.330478,-57
2021-12-27 14:18:12.330481,-62
2021-12-27 14:18:12.330485,-67
2021-12-27 14:18:12.330488,-55
2021-12-27 14:18:12.330492,-23
2021-12-27 14:18:12.330495,9
2021-12-27 14:18:12.330499,7
2021-12-27 14:18:12.330503,-14
2021-12-27 14:18:12.330506,-19
2021-12-27 14:18:12.330510,-11
2021-12-27 14:18:12.330513,-21
2021-12-27 14:18:12.330517,-40
2021-12-27 14:18:12.330521,-47
2021-12-27 14:18:12.621734,-40
2021-12-27 14:18:12.621763,-38
2021-12-27 14:18:12.621771,-45
2021-12-27 14:18:12.621778,-31
2021-12-27 14:18:12.621785,0
2021-12-27 14:18:12.621793,-2
2021-12-27 14:18:12.621799,-43
2021-12-27 14:18:12.621806,-67
2021-12-27 14:18:12.621813,-79
2021-12-27 14:18:12.621820,-122
2021-12-27 14:18:12.621827,-38
2021-12-27 14:18:12.621834,500
2021-12-27 14:18:12.621841,1473
2021-12-27 14:18:12.621848,2027
2021-12-27 14:18:12.621855,1279
2021-12-27 14:18:12.621861,-57
2021-12-27 14:18:12.621868,-570
2021-12-27 14:18:12.621875,-383
2021-12-27 14:18:12.621882,-280
2021-12-27 14:18:12.621889,-218
2021-12-27 14:18:12.621896,-71
2021-12-27 14:18:12.621903,-26
2021-12-27 14:18:12.621910,-45
2021-12-27 14:18:12.621916,-7
2021-12-27 14:18:12.621923,28
2021-12-27 14:18:12.621930,35
2021-12-27 14:18:12.621937,59
2021-12-27 14:18:12.621944,88
2021-12-27 14:18:12.621951,107
2021-12-27 14:18:12.621958,139
2021-12-27 14:18:12.914637,172
2021-12-27 14:18:12.914665,196
2021-12-27 14:18:12.914674,225
2021-12-27 14:18:12.914681,256
2021-12-27 14:18:12.914688,287
2021-12-27 14:18:12.914695,328
2021-12-27 14:18:12.914702,381
2021-12-27 14:18:12.914709,417
2021-12-27 14:18:12.914716,440
2021-12-27 14:18:12.914723,460
2021-12-27 14:18:12.914730,457
2021-12-27 14:18:12.914737,450
2021-12-27 14:18:12.914744,448
2021-12-27 14:18:12.914751,412
2021-12-27 14:18:12.914758,333
2021-12-27 14:18:12.914765,230
2021-12-27 14:18:12.914772,124
2021-12-27 14:18:12.914779,19
2021-12-27 14:18:12.914786,-76
2021-12-27 14:18:12.914793,-139
2021-12-27 14:18:12.914801,-174
2021-12-27 14:18:12.914808,-201
2021-12-27 14:18:12.914815,-210
2021-12-27 14:18:12.914822,-198
2021-12-27 14:18:12.914829,-198
2021-12-27 14:18:12.914836,-213
2021-12-27 14:18:12.914843,-218
2021-12-27 14:18:12.914850,-206
2021-12-27 14:18:12.914857,-184
2021-12-27 14:18:12.914864,-158
2021-12-27 14:18:13.059936,-131
2021-12-27 14:18:13.059958,-131
2021-12-27 14:18:13.059964,-143
2021-12-27 14:18:13.059969,-134
2021-12-27 14:18:13.059974,-127
2021-12-27 14:18:13.059978,-153
2021-12-27 14:18:13.059983,-184
2021-12-27 14:18:13.059988,-162
2021-12-27 14:18:13.059992,-105
2021-12-27 14:18:13.059997,-107
2021-12-27 14:18:13.060001,-155
2021-12-27 14:18:13.060006,-172
2021-12-27 14:18:13.060010,-158
2021-12-27 14:18:13.060015,-131
2021-12-27 14:18:13.060020,-110
2021-12-27 14:18:13.060024,-122
2021-12-27 14:18:13.060029,-143
2021-12-27 14:18:13.060033,-148
2021-12-27 14:18:13.060038,-141
2021-12-27 14:18:13.060043,-131
2021-12-27 14:18:13.060047,-139
2021-12-27 14:18:13.060052,-158
2021-12-27 14:18:13.060056,-162
2021-12-27 14:18:13.060061,-153
2021-12-27 14:18:13.060065,-146
2021-12-27 14:18:13.060070,-134
2021-12-27 14:18:13.060075,-105
2021-12-27 14:18:13.060079,-83
2021-12-27 14:18:13.060084,-98
2021-12-27 14:18:13.060088,-107
2021-12-27 14:18:13.256142,-93
2021-12-27 14:18:13.256202,-93
2021-12-27 14:18:13.256210,-98
2021-12-27 14:18:13.256218,-62
2021-12-27 14:18:13.256224,-16
2021-12-27 14:18:13.256231,-11
2021-12-27 14:18:13.256238,-40
2021-12-27 14:18:13.256245,-86
2021-12-27 14:18:13.256251,-100
2021-12-27 14:18:13.256258,-50
2021-12-27 14:18:13.256265,-14
2021-12-27 14:18:13.256272,-31
2021-12-27 14:18:13.256279,-26
2021-12-27 14:18:13.256285,-11
2021-12-27 14:18:13.256292,-43
2021-12-27 14:18:13.256299,-62
2021-12-27 14:18:13.256306,-38
2021-12-27 14:18:13.256312,-21
2021-12-27 14:18:13.256319,-31
2021-12-27 14:18:13.256326,-81
2021-12-27 14:18:13.256333,-127
2021-12-27 14:18:13.256340,69
2021-12-27 14:18:13.256346,798
2021-12-27 14:18:13.256353,1797
2021-12-27 14:18:13.256360,2001
2021-12-27 14:18:13.256367,896
2021-12-27 14:18:13.256374,-275
2021-12-27 14:18:13.256381,-452
2021-12-27 14:18:13.256387,-273
2021-12-27 14:18:13.256394,-268
2021-12-27 14:18:13.741496,-198
2021-12-27 14:18:13.741513,-79
2021-12-27 14:18:13.741518,-35
2021-12-27 14:18:13.741523,-26
2021-12-27 14:18:13.741528,4
2021-12-27 14:18:13.741532,43
2021-12-27 14:18:13.741537,50
2021-12-27 14:18:13.741541,59
2021-12-27 14:18:13.741546,112
2021-12-27 14:18:13.741550,143
2021-12-27 14:18:13.741555,103
2021-12-27 14:18:13.741560,91
2021-12-27 14:18:13.741564,172
2021-12-27 14:18:13.741569,220
2021-12-27 14:18:13.741573,218
2021-12-27 14:18:13.741578,258
2021-12-27 14:18:13.741582,304
2021-12-27 14:18:13.741587,306
2021-12-27 14:18:13.741591,318
2021-12-27 14:18:13.741596,385
2021-12-27 14:18:13.741600,407
2021-12-27 14:18:13.741604,361
2021-12-27 14:18:13.741609,354
2021-12-27 14:18:13.741613,347
2021-12-27 14:18:13.741618,285
2021-12-27 14:18:13.741622,201
2021-12-27 14:18:13.741627,88
2021-12-27 14:18:13.741631,-40
2021-12-27 14:18:13.741636,-88
2021-12-27 14:18:13.741640,-98
2021-12-27 14:18:13.986277,-165
2021-12-27 14:18:13.986305,-208
2021-12-27 14:18:13.986314,-213
2021-12-27 14:18:13.986321,-225
2021-12-27 14:18:13.986328,-220
2021-12-27 14:18:13.986335,-218
2021-12-27 14:18:13.986342,-213
2021-12-27 14:18:13.986349,-174
2021-12-27 14:18:13.986356,-158
2021-12-27 14:18:13.986363,-177
2021-12-27 14:18:13.986370,-189
2021-12-27 14:18:13.986377,-184
2021-12-27 14:18:13.986384,-148
2021-12-27 14:18:13.986391,-107
2021-12-27 14:18:13.986398,-107
2021-12-27 14:18:13.986405,-131
2021-12-27 14:18:13.986412,-136
2021-12-27 14:18:13.986418,-98
2021-12-27 14:18:13.986426,-74
2021-12-27 14:18:13.986433,-86
2021-12-27 14:18:13.986440,-100
2021-12-27 14:18:13.986446,-115
2021-12-27 14:18:13.986453,-124
2021-12-27 14:18:13.986460,-103
2021-12-27 14:18:13.986467,-71
2021-12-27 14:18:13.986474,-76
2021-12-27 14:18:13.986481,-91
2021-12-27 14:18:13.986488,-91
2021-12-27 14:18:13.986495,-88
2021-12-27 14:18:13.986502,-76
2021-12-27 14:18:14.084670,-88
2021-12-27 14:18:14.084698,-117
2021-12-27 14:18:14.084707,-71
2021-12-27 14:18:14.084714,-28
2021-12-27 14:18:14.084721,-88
2021-12-27 14:18:14.084728,-129
2021-12-27 14:18:14.084735,-98
2021-12-27 14:18:14.084742,-67
2021-12-27 14:18:14.084749,-59
2021-12-27 14:18:14.084756,-86
2021-12-27 14:18:14.084763,-103
2021-12-27 14:18:14.084770,-64
2021-12-27 14:18:14.084777,-40
2021-12-27 14:18:14.084785,-62
2021-12-27 14:18:14.084804,-74
2021-12-27 14:18:14.084812,-57
2021-12-27 14:18:14.084819,-31
2021-12-27 14:18:14.084826,-40
2021-12-27 14:18:14.084833,-74
2021-12-27 14:18:14.084840,-76
2021-12-27 14:18:14.084846,-40
2021-12-27 14:18:14.084853,-31
2021-12-27 14:18:14.084860,-43
2021-12-27 14:18:14.084867,-43
2021-12-27 14:18:14.084874,-45
2021-12-27 14:18:14.084881,-40
2021-12-27 14:18:14.084887,-57
2021-12-27 14:18:14.084894,-100
2021-12-27 14:18:14.084901,-98
2021-12-27 14:18:14.084908,-71
2021-12-27 14:18:14.182274,-76
2021-12-27 14:18:14.182292,-98
2021-12-27 14:18:14.182298,-88
2021-12-27 14:18:14.182303,-52
2021-12-27 14:18:14.182307,-52
2021-12-27 14:18:14.182312,-105
2021-12-27 14:18:14.182316,-167
2021-12-27 14:18:14.182321,-191
2021-12-27 14:18:14.182325,-40
2021-12-27 14:18:14.182330,560
2021-12-27 14:18:14.182334,1529
2021-12-27 14:18:14.182339,1922
2021-12-27 14:18:14.182343,1037
2021-12-27 14:18:14.182348,-153
2021-12-27 14:18:14.182353,-469
2021-12-27 14:18:14.182357,-311
2021-12-27 14:18:14.182361,-301
2021-12-27 14:18:14.182366,-244
2021-12-27 14:18:14.182371,-69
2021-12-27 14:18:14.182375,-23
2021-12-27 14:18:14.182380,-69
2021-12-27 14:18:14.182385,-16
2021-12-27 14:18:14.182389,33
2021-12-27 14:18:14.182394,9
2021-12-27 14:18:14.182398,23
2021-12-27 14:18:14.182403,67
2021-12-27 14:18:14.182407,79
2021-12-27 14:18:14.182412,81
2021-12-27 14:18:14.182416,91
2021-12-27 14:18:14.182421,127
2021-12-27 14:18:14.474322,184
2021-12-27 14:18:14.474345,232
2021-12-27 14:18:14.474351,263
2021-12-27 14:18:14.474356,275
2021-12-27 14:18:14.474361,287
2021-12-27 14:18:14.474365,318
2021-12-27 14:18:14.474370,342
2021-12-27 14:18:14.474375,361
2021-12-27 14:18:14.474379,381
2021-12-27 14:18:14.474384,373
2021-12-27 14:18:14.474389,342
2021-12-27 14:18:14.474394,318
2021-12-27 14:18:14.474399,275
2021-12-27 14:18:14.474403,174
2021-12-27 14:18:14.474408,50
2021-12-27 14:18:14.474412,-21
2021-12-27 14:18:14.474417,-71
2021-12-27 14:18:14.474421,-160
2021-12-27 14:18:14.474426,-222
2021-12-27 14:18:14.474430,-208
2021-12-27 14:18:14.474435,-191
2021-12-27 14:18:14.474439,-210
2021-12-27 14:18:14.474444,-198
2021-12-27 14:18:14.474448,-172
2021-12-27 14:18:14.474453,-186
2021-12-27 14:18:14.474457,-196
2021-12-27 14:18:14.474462,-167
2021-12-27 14:18:14.474466,-124
2021-12-27 14:18:14.474471,-110
2021-12-27 14:18:14.474475,-119
2021-12-27 14:18:14.670359,-127
2021-12-27 14:18:14.670387,-143
2021-12-27 14:18:14.670396,-122
2021-12-27 14:18:14.670403,-45
2021-12-27 14:18:14.670410,-50
2021-12-27 14:18:14.670418,-115
2021-12-27 14:18:14.670424,-91
2021-12-27 14:18:14.670431,-50
2021-12-27 14:18:14.670438,-86
2021-12-27 14:18:14.670445,-115
2021-12-27 14:18:14.670452,-81
2021-12-27 14:18:14.670459,-64
2021-12-27 14:18:14.670466,-95
2021-12-27 14:18:14.670473,-100
2021-12-27 14:18:14.670480,-59
2021-12-27 14:18:14.670487,-45
2021-12-27 14:18:14.670493,-67
2021-12-27 14:18:14.670500,-79
2021-12-27 14:18:14.670507,-74
2021-12-27 14:18:14.670514,-64
2021-12-27 14:18:14.670521,-40
2021-12-27 14:18:14.670528,-26
2021-12-27 14:18:14.670534,-67
2021-12-27 14:18:14.670541,-86
2021-12-27 14:18:14.670548,-33
2021-12-27 14:18:14.670555,-28
2021-12-27 14:18:14.670562,-57
2021-12-27 14:18:14.670569,-14
2021-12-27 14:18:14.670576,9
2021-12-27 14:18:14.670583,-35
2021-12-27 14:18:14.914236,-38
2021-12-27 14:18:14.914264,-16
2021-12-27 14:18:14.914272,-35
2021-12-27 14:18:14.914279,-43
2021-12-27 14:18:14.914286,-21
2021-12-27 14:18:14.914293,-26
2021-12-27 14:18:14.914300,-40
2021-12-27 14:18:14.914307,-11
2021-12-27 14:18:14.914314,21
2021-12-27 14:18:14.914321,31
2021-12-27 14:18:14.914328,26
2021-12-27 14:18:14.914335,19
2021-12-27 14:18:14.914342,-4
2021-12-27 14:18:14.914349,-28
2021-12-27 14:18:14.914356,-11
2021-12-27 14:18:14.914363,9
2021-12-27 14:18:14.914370,-11
2021-12-27 14:18:14.914377,-43
2021-12-27 14:18:14.914384,-33
2021-12-27 14:18:14.914390,-9
2021-12-27 14:18:14.914397,-23
2021-12-27 14:18:14.914404,-43
2021-12-27 14:18:14.914411,-26
2021-12-27 14:18:14.914418,-31
2021-12-27 14:18:14.914425,-64
2021-12-27 14:18:14.914432,-93
2021-12-27 14:18:14.914439,-21
2021-12-27 14:18:14.914446,431
2021-12-27 14:18:14.914453,1330
2021-12-27 14:18:14.914460,1898
2021-12-27 14:18:15.205193,1275
2021-12-27 14:18:15.205219,69
2021-12-27 14:18:15.205228,-424
2021-12-27 14:18:15.205236,-280
2021-12-27 14:18:15.205243,-191
2021-12-27 14:18:15.205250,-136
2021-12-27 14:18:15.205257,-28
2021-12-27 14:18:15.205264,-7
2021-12-27 14:18:15.205271,-19
2021-12-27 14:18:15.205278,19
2021-12-27 14:18:15.205285,45
2021-12-27 14:18:15.205292,57
2021-12-27 14:18:15.205299,79
2021-12-27 14:18:15.205306,86
2021-12-27 14:18:15.205313,98
2021-12-27 14:18:15.205320,134
2021-12-27 14:18:15.205327,165
2021-12-27 14:18:15.205334,174
2021-12-27 14:18:15.205341,194
2021-12-27 14:18:15.205348,225
2021-12-27 14:18:15.205355,242
2021-12-27 14:18:15.205362,268
2021-12-27 14:18:15.205369,328
2021-12-27 14:18:15.205376,371
2021-12-27 14:18:15.205383,369
2021-12-27 14:18:15.205390,376
2021-12-27 14:18:15.205404,417
2021-12-27 14:18:15.205411,426
2021-12-27 14:18:15.205432,393
2021-12-27 14:18:15.205436,366
2021-12-27 14:18:15.304034,325
2021-12-27 14:18:15.304063,237
2021-12-27 14:18:15.304071,139
2021-12-27 14:18:15.304079,62
2021-12-27 14:18:15.304086,11
2021-12-27 14:18:15.304093,-35
2021-12-27 14:18:15.304100,-95
2021-12-27 14:18:15.304107,-129
2021-12-27 14:18:15.304114,-122
2021-12-27 14:18:15.304121,-127
2021-12-27 14:18:15.304127,-139
2021-12-27 14:18:15.304134,-127
2021-12-27 14:18:15.304141,-103
2021-12-27 14:18:15.304148,-95
2021-12-27 14:18:15.304155,-91
2021-12-27 14:18:15.304162,-67
2021-12-27 14:18:15.304169,-59
2021-12-27 14:18:15.304177,-76
2021-12-27 14:18:15.304184,-71
2021-12-27 14:18:15.304190,-45
2021-12-27 14:18:15.304197,-47
2021-12-27 14:18:15.304205,-67
2021-12-27 14:18:15.304212,-55
2021-12-27 14:18:15.304219,-43
2021-12-27 14:18:15.304226,-50
2021-12-27 14:18:15.304232,-47
2021-12-27 14:18:15.304239,-55
2021-12-27 14:18:15.304246,-62
2021-12-27 14:18:15.304253,-40
2021-12-27 14:18:15.304260,-31
2021-12-27 14:18:15.594640,-43
2021-12-27 14:18:15.594655,-47
2021-12-27 14:18:15.594661,-50
2021-12-27 14:18:15.594666,-59
2021-12-27 14:18:15.594670,-62
2021-12-27 14:18:15.594675,-55
2021-12-27 14:18:15.594679,-50
2021-12-27 14:18:15.594684,-52
2021-12-27 14:18:15.594688,-52
2021-12-27 14:18:15.594693,-45
2021-12-27 14:18:15.594697,-35
2021-12-27 14:18:15.594702,-38
2021-12-27 14:18:15.594706,-69
2021-12-27 14:18:15.594711,-74
2021-12-27 14:18:15.594715,-40
2021-12-27 14:18:15.594720,-47
2021-12-27 14:18:15.594724,-69
2021-12-27 14:18:15.594729,-50
2021-12-27 14:18:15.594733,-35
2021-12-27 14:18:15.594738,-45
2021-12-27 14:18:15.594742,-62
2021-12-27 14:18:15.594747,-76
2021-12-27 14:18:15.594751,-74
2021-12-27 14:18:15.594756,-52
2021-12-27 14:18:15.594760,-31
2021-12-27 14:18:15.594764,-9
2021-12-27 14:18:15.594769,21
2021-12-27 14:18:15.594774,16
2021-12-27 14:18:15.594778,-21
2021-12-27 14:18:15.594783,-28
2021-12-27 14:18:15.840254,-23
2021-12-27 14:18:15.840281,-40
2021-12-27 14:18:15.840290,-55
2021-12-27 14:18:15.840298,-50
2021-12-27 14:18:15.840305,-28
2021-12-27 14:18:15.840312,-38
2021-12-27 14:18:15.840319,-71
2021-12-27 14:18:15.840326,-62
2021-12-27 14:18:15.840370,-43
2021-12-27 14:18:15.840383,-40
2021-12-27 14:18:15.840443,-38
2021-12-27 14:18:15.840461,-83
2021-12-27 14:18:15.840474,-146
2021-12-27 14:18:15.840487,-50
2021-12-27 14:18:15.840500,419
2021-12-27 14:18:15.840513,1215
2021-12-27 14:18:15.840526,1624
2021-12-27 14:18:15.840540,946
2021-12-27 14:18:15.840554,-110
2021-12-27 14:18:15.840567,-445
2021-12-27 14:18:15.840580,-328
2021-12-27 14:18:15.840593,-285
2021-12-27 14:18:15.840606,-194
2021-12-27 14:18:15.840647,-64
2021-12-27 14:18:15.840662,-50
2021-12-27 14:18:15.840675,-57
2021-12-27 14:18:15.840687,-16
2021-12-27 14:18:15.840698,4
2021-12-27 14:18:15.840706,9
2021-12-27 14:18:15.840713,31
2021-12-27 14:18:16.082524,38
2021-12-27 14:18:16.082543,43
2021-12-27 14:18:16.082548,81
2021-12-27 14:18:16.082553,119
2021-12-27 14:18:16.082556,143
2021-12-27 14:18:16.082560,177
2021-12-27 14:18:16.082564,201
2021-12-27 14:18:16.082567,225
2021-12-27 14:18:16.082571,266
2021-12-27 14:18:16.082575,301
2021-12-27 14:18:16.082578,316
2021-12-27 14:18:16.082582,342
2021-12-27 14:18:16.082586,366
2021-12-27 14:18:16.082589,361
2021-12-27 14:18:16.082593,369
2021-12-27 14:18:16.082597,393
2021-12-27 14:18:16.082600,364
2021-12-27 14:18:16.082604,275
2021-12-27 14:18:16.082608,196
2021-12-27 14:18:16.082611,134
2021-12-27 14:18:16.082615,50
2021-12-27 14:18:16.082619,-28
2021-12-27 14:18:16.082622,-71
2021-12-27 14:18:16.082626,-124
2021-12-27 14:18:16.082630,-170
2021-12-27 14:18:16.082633,-162
2021-12-27 14:18:16.082637,-158
2021-12-27 14:18:16.082641,-174
2021-12-27 14:18:16.082644,-160
2021-12-27 14:18:16.082648,-131
2021-12-27 14:18:16.229946,-127
2021-12-27 14:18:16.229968,-124
2021-12-27 14:18:16.229973,-119
2021-12-27 14:18:16.229978,-103
2021-12-27 14:18:16.229983,-83
2021-12-27 14:18:16.229988,-81
2021-12-27 14:18:16.229992,-83
2021-12-27 14:18:16.229997,-74
2021-12-27 14:18:16.230001,-83
2021-12-27 14:18:16.230006,-98
2021-12-27 14:18:16.230011,-103
2021-12-27 14:18:16.230015,-91
2021-12-27 14:18:16.230020,-81
2021-12-27 14:18:16.230024,-71
2021-12-27 14:18:16.230029,-76
2021-12-27 14:18:16.230033,-98
2021-12-27 14:18:16.230038,-98
2021-12-27 14:18:16.230043,-81
2021-12-27 14:18:16.230047,-83
2021-12-27 14:18:16.230052,-98
2021-12-27 14:18:16.230056,-103
2021-12-27 14:18:16.230060,-103
2021-12-27 14:18:16.230065,-100
2021-12-27 14:18:16.230070,-98
2021-12-27 14:18:16.230075,-100
2021-12-27 14:18:16.230079,-98
2021-12-27 14:18:16.230084,-79
2021-12-27 14:18:16.230089,-62
2021-12-27 14:18:16.230093,-67
2021-12-27 14:18:16.230098,-93
2021-12-27 14:18:16.521513,-103
2021-12-27 14:18:16.521529,-81
2021-12-27 14:18:16.521534,-67
2021-12-27 14:18:16.521539,-74
2021-12-27 14:18:16.521544,-79
2021-12-27 14:18:16.521548,-50
2021-12-27 14:18:16.521552,-21
2021-12-27 14:18:16.521557,-33
2021-12-27 14:18:16.521562,-45
2021-12-27 14:18:16.521566,-43
2021-12-27 14:18:16.521571,-59
2021-12-27 14:18:16.521575,-76
2021-12-27 14:18:16.521580,-76
2021-12-27 14:18:16.521584,-79
2021-12-27 14:18:16.521589,-67
2021-12-27 14:18:16.521593,-55
2021-12-27 14:18:16.521598,-74
2021-12-27 14:18:16.521602,-86
2021-12-27 14:18:16.521607,-83
2021-12-27 14:18:16.521649,-76
2021-12-27 14:18:16.521654,-83
2021-12-27 14:18:16.521659,-119
2021-12-27 14:18:16.521664,-172
2021-12-27 14:18:16.521668,-122
2021-12-27 14:18:16.521673,304
2021-12-27 14:18:16.521678,1191
2021-12-27 14:18:16.521682,1857
2021-12-27 14:18:16.521687,1334
2021-12-27 14:18:16.521691,43
2021-12-27 14:18:16.521696,-579
2021-12-27 14:18:16.766371,-431
2021-12-27 14:18:16.766393,-313
2021-12-27 14:18:16.766400,-285
2021-12-27 14:18:16.766405,-160
2021-12-27 14:18:16.766410,-95
2021-12-27 14:18:16.766415,-107
2021-12-27 14:18:16.766420,-71
2021-12-27 14:18:16.766425,-26
2021-12-27 14:18:16.766430,-23
2021-12-27 14:18:16.766435,-21
2021-12-27 14:18:16.766440,-4
2021-12-27 14:18:16.766444,7
2021-12-27 14:18:16.766449,21
2021-12-27 14:18:16.766454,55
2021-12-27 14:18:16.766459,95
2021-12-27 14:18:16.766464,119
2021-12-27 14:18:16.766468,134
2021-12-27 14:18:16.766473,162
2021-12-27 14:18:16.766478,191
2021-12-27 14:18:16.766483,203
2021-12-27 14:18:16.766488,225
2021-12-27 14:18:16.766492,249
2021-12-27 14:18:16.766497,258
2021-12-27 14:18:16.766502,268
2021-12-27 14:18:16.766507,261
2021-12-27 14:18:16.766512,232
2021-12-27 14:18:16.766517,208
2021-12-27 14:18:16.766522,174
2021-12-27 14:18:16.766526,105
2021-12-27 14:18:16.766531,16
2021-12-27 14:18:16.912719,-59
2021-12-27 14:18:16.912747,-119
2021-12-27 14:18:16.912755,-170
2021-12-27 14:18:16.912763,-215
2021-12-27 14:18:16.912770,-234
2021-12-27 14:18:16.912777,-213
2021-12-27 14:18:16.912784,-194
2021-12-27 14:18:16.912791,-208
2021-12-27 14:18:16.912798,-215
2021-12-27 14:18:16.912805,-203
2021-12-27 14:18:16.912812,-196
2021-12-27 14:18:16.912820,-191
2021-12-27 14:18:16.912826,-179
2021-12-27 14:18:16.912833,-177
2021-12-27 14:18:16.912840,-182
2021-12-27 14:18:16.912847,-184
2021-12-27 14:18:16.912854,-184
2021-12-27 14:18:16.912861,-170
2021-12-27 14:18:16.912867,-143
2021-12-27 14:18:16.912874,-139
2021-12-27 14:18:16.912881,-155
2021-12-27 14:18:16.912888,-162
2021-12-27 14:18:16.912895,-155
2021-12-27 14:18:16.912902,-150
2021-12-27 14:18:16.912909,-155
2021-12-27 14:18:16.912916,-162
2021-12-27 14:18:16.912923,-162
2021-12-27 14:18:16.912930,-148
2021-12-27 14:18:16.912937,-141
2021-12-27 14:18:16.912944,-141
2021-12-27 14:18:17.204488,-141
2021-12-27 14:18:17.204516,-136
2021-12-27 14:18:17.204525,-127
2021-12-27 14:18:17.204532,-124
2021-12-27 14:18:17.204540,-129
2021-12-27 14:18:17.204547,-124
2021-12-27 14:18:17.204554,-107
2021-12-27 14:18:17.204561,-98
2021-12-27 14:18:17.204568,-103
2021-12-27 14:18:17.204575,-93
2021-12-27 14:18:17.204582,-74
2021-12-27 14:18:17.204589,-67
2021-12-27 14:18:17.204596,-71
2021-12-27 14:18:17.204603,-76
2021-12-27 14:18:17.204610,-67
2021-12-27 14:18:17.204617,-26
2021-12-27 14:18:17.204624,21
2021-12-27 14:18:17.204632,19
2021-12-27 14:18:17.204639,4
2021-12-27 14:18:17.204646,16
2021-12-27 14:18:17.204653,16
2021-12-27 14:18:17.204660,0
2021-12-27 14:18:17.204667,7
2021-12-27 14:18:17.204674,14
2021-12-27 14:18:17.204681,14
2021-12-27 14:18:17.204688,28
2021-12-27 14:18:17.204695,38
2021-12-27 14:18:17.204702,28
2021-12-27 14:18:17.204709,28
2021-12-27 14:18:17.204716,43
2021-12-27 14:18:17.448889,43
2021-12-27 14:18:17.448911,21
2021-12-27 14:18:17.448917,-19
2021-12-27 14:18:17.448922,4
2021-12-27 14:18:17.448926,337
2021-12-27 14:18:17.448931,1133
2021-12-27 14:18:17.448936,1850
2021-12-27 14:18:17.448940,1500
2021-12-27 14:18:17.448945,299
2021-12-27 14:18:17.448949,-390
2021-12-27 14:18:17.448954,-316
2021-12-27 14:18:17.448958,-218
2021-12-27 14:18:17.448963,-186
2021-12-27 14:18:17.448967,-40
2021-12-27 14:18:17.448972,59
2021-12-27 14:18:17.448976,43
2021-12-27 14:18:17.448981,50
2021-12-27 14:18:17.448985,86
2021-12-27 14:18:17.448990,91
2021-12-27 14:18:17.448994,95
2021-12-27 14:18:17.448999,119
2021-12-27 14:18:17.449003,131
2021-12-27 14:18:17.449008,139
2021-12-27 14:18:17.449012,158
2021-12-27 14:18:17.449017,179
2021-12-27 14:18:17.449021,194
2021-12-27 14:18:17.449026,215
2021-12-27 14:18:17.449030,242
2021-12-27 14:18:17.449035,266
2021-12-27 14:18:17.449039,289
2021-12-27 14:18:17.739803,306
2021-12-27 14:18:17.739831,321
2021-12-27 14:18:17.739840,335
2021-12-27 14:18:17.739847,337
2021-12-27 14:18:17.739854,330
2021-12-27 14:18:17.739861,318
2021-12-27 14:18:17.739868,292
2021-12-27 14:18:17.739875,242
2021-12-27 14:18:17.739881,172
2021-12-27 14:18:17.739888,88
2021-12-27 14:18:17.739895,-9
2021-12-27 14:18:17.739902,-88
2021-12-27 14:18:17.739909,-141
2021-12-27 14:18:17.739915,-184
2021-12-27 14:18:17.739922,-218
2021-12-27 14:18:17.739929,-230
2021-12-27 14:18:17.739936,-225
2021-12-27 14:18:17.739943,-218
2021-12-27 14:18:17.739949,-213
2021-12-27 14:18:17.739956,-206
2021-12-27 14:18:17.739963,-198
2021-12-27 14:18:17.739971,-189
2021-12-27 14:18:17.739978,-179
2021-12-27 14:18:17.739984,-172
2021-12-27 14:18:17.739991,-162
2021-12-27 14:18:17.739998,-155
2021-12-27 14:18:17.740004,-148
2021-12-27 14:18:17.740011,-139
2021-12-27 14:18:17.740018,-134
2021-12-27 14:18:17.740025,-129
2021-12-27 14:18:17.984860,-122
2021-12-27 14:18:17.984890,-119
2021-12-27 14:18:17.984898,-124
2021-12-27 14:18:17.984905,-127
2021-12-27 14:18:17.984912,-127
2021-12-27 14:18:17.984919,-119
2021-12-27 14:18:17.984926,-103
2021-12-27 14:18:17.984933,-93
2021-12-27 14:18:17.984940,-105
2021-12-27 14:18:17.984946,-115
2021-12-27 14:18:17.984953,-110
2021-12-27 14:18:17.984960,-105
2021-12-27 14:18:17.984967,-103
2021-12-27 14:18:17.984974,-98
2021-12-27 14:18:17.984980,-103
2021-12-27 14:18:17.984987,-115
2021-12-27 14:18:17.984994,-115
2021-12-27 14:18:17.985001,-98
2021-12-27 14:18:17.985008,-81
2021-12-27 14:18:17.985015,-86
2021-12-27 14:18:17.985021,-88
2021-12-27 14:18:17.985028,-50
2021-12-27 14:18:17.985035,-4
2021-12-27 14:18:17.985042,-7
2021-12-27 14:18:17.985048,-28
2021-12-27 14:18:17.985055,-26
2021-12-27 14:18:17.985062,-23
2021-12-27 14:18:17.985069,-45
2021-12-27 14:18:17.985076,-55
2021-12-27 14:18:17.985083,-45
2021-12-27 14:18:18.179316,-38
2021-12-27 14:18:18.179334,-35
2021-12-27 14:18:18.179339,-31
2021-12-27 14:18:18.179343,-28
2021-12-27 14:18:18.179347,-38
2021-12-27 14:18:18.179351,-38
2021-12-27 14:18:18.179355,-35
2021-12-27 14:18:18.179358,-57
2021-12-27 14:18:18.179362,-112
2021-12-27 14:18:18.179365,-105
2021-12-27 14:18:18.179369,196
2021-12-27 14:18:18.179373,970
2021-12-27 14:18:18.179377,1783
2021-12-27 14:18:18.179381,1651
2021-12-27 14:18:18.179384,512
2021-12-27 14:18:18.179388,-340
2021-12-27 14:18:18.179391,-361
2021-12-27 14:18:18.179395,-232
2021-12-27 14:18:18.179399,-189
2021-12-27 14:18:18.179402,-79
2021-12-27 14:18:18.179406,-33
2021-12-27 14:18:18.179410,-57
2021-12-27 14:18:18.179413,-23
2021-12-27 14:18:18.179417,21
2021-12-27 14:18:18.179421,31
2021-12-27 14:18:18.179424,47
2021-12-27 14:18:18.179428,71
2021-12-27 14:18:18.179432,88
2021-12-27 14:18:18.179435,117
2021-12-27 14:18:18.179439,148
2021-12-27 14:18:18.422931,167
2021-12-27 14:18:18.422950,189
2021-12-27 14:18:18.422955,225
2021-12-27 14:18:18.422959,261
2021-12-27 14:18:18.422963,294
2021-12-27 14:18:18.422967,330
2021-12-27 14:18:18.422970,361
2021-12-27 14:18:18.422974,388
2021-12-27 14:18:18.422978,414
2021-12-27 14:18:18.422981,428
2021-12-27 14:18:18.422985,431
2021-12-27 14:18:18.422989,424
2021-12-27 14:18:18.422992,395
2021-12-27 14:18:18.422996,352
2021-12-27 14:18:18.422999,289
2021-12-27 14:18:18.423003,198
2021-12-27 14:18:18.423007,98
2021-12-27 14:18:18.423010,11
2021-12-27 14:18:18.423014,-57
2021-12-27 14:18:18.423018,-105
2021-12-27 14:18:18.423021,-136
2021-12-27 14:18:18.423025,-150
2021-12-27 14:18:18.423028,-150
2021-12-27 14:18:18.423032,-141
2021-12-27 14:18:18.423036,-131
2021-12-27 14:18:18.423039,-129
2021-12-27 14:18:18.423043,-119
2021-12-27 14:18:18.423046,-103
2021-12-27 14:18:18.423050,-88
2021-12-27 14:18:18.423053,-79
2021-12-27 14:18:18.714964,-69
2021-12-27 14:18:18.715039,-52
2021-12-27 14:18:18.715053,-47
2021-12-27 14:18:18.715060,-47
2021-12-27 14:18:18.715068,-38
2021-12-27 14:18:18.715075,-26
2021-12-27 14:18:18.715082,-26
2021-12-27 14:18:18.715088,-26
2021-12-27 14:18:18.715095,-23
2021-12-27 14:18:18.715102,-23
2021-12-27 14:18:18.715109,-23
2021-12-27 14:18:18.715116,-16
2021-12-27 14:18:18.715123,-11
2021-12-27 14:18:18.715130,-16
2021-12-27 14:18:18.715137,-19
2021-12-27 14:18:18.715143,-11
2021-12-27 14:18:18.715150,-2
2021-12-27 14:18:18.715157,-2
2021-12-27 14:18:18.715164,-7
2021-12-27 14:18:18.715171,-4
2021-12-27 14:18:18.715178,-4
2021-12-27 14:18:18.715185,-11
2021-12-27 14:18:18.715192,-14
2021-12-27 14:18:18.715199,-14
2021-12-27 14:18:18.715205,-7
2021-12-27 14:18:18.715212,11
2021-12-27 14:18:18.715219,35
2021-12-27 14:18:18.715226,33
2021-12-27 14:18:18.715233,19
2021-12-27 14:18:18.715240,14
2021-12-27 14:18:18.910979,7
2021-12-27 14:18:18.911007,-7
2021-12-27 14:18:18.911015,-14
2021-12-27 14:18:18.911023,-16
2021-12-27 14:18:18.911030,-14
2021-12-27 14:18:18.911037,-11
2021-12-27 14:18:18.911043,-11
2021-12-27 14:18:18.911050,-11
2021-12-27 14:18:18.911057,-7
2021-12-27 14:18:18.911064,-7
2021-12-27 14:18:18.911071,-21
2021-12-27 14:18:18.911078,-52
2021-12-27 14:18:18.911085,-98
2021-12-27 14:18:18.911092,-57
2021-12-27 14:18:18.911099,335
2021-12-27 14:18:18.911106,1195
2021-12-27 14:18:18.911113,1878
2021-12-27 14:18:18.911120,1406
2021-12-27 14:18:18.911127,155
2021-12-27 14:18:18.911134,-481
2021-12-27 14:18:18.911141,-373
2021-12-27 14:18:18.911148,-273
2021-12-27 14:18:18.911155,-232
2021-12-27 14:18:18.911162,-88
2021-12-27 14:18:18.911169,-19
2021-12-27 14:18:18.911176,-38
2021-12-27 14:18:18.911183,-16
2021-12-27 14:18:18.911190,21
2021-12-27 14:18:18.911197,23
2021-12-27 14:18:18.911204,40
2021-12-27 14:18:19.008580,71
2021-12-27 14:18:19.008608,86
2021-12-27 14:18:19.008617,100
2021-12-27 14:18:19.008624,129
2021-12-27 14:18:19.008631,155
2021-12-27 14:18:19.008638,172
2021-12-27 14:18:19.008645,196
2021-12-27 14:18:19.008652,237
2021-12-27 14:18:19.008659,273
2021-12-27 14:18:19.008666,289
2021-12-27 14:18:19.008673,313
2021-12-27 14:18:19.008680,347
2021-12-27 14:18:19.008687,364
2021-12-27 14:18:19.008693,366
2021-12-27 14:18:19.008700,369
2021-12-27 14:18:19.008707,354
2021-12-27 14:18:19.008714,321
2021-12-27 14:18:19.008721,273
2021-12-27 14:18:19.008728,201
2021-12-27 14:18:19.008734,112
2021-12-27 14:18:19.008741,26
2021-12-27 14:18:19.008748,-50
2021-12-27 14:18:19.008755,-107
2021-12-27 14:18:19.008762,-143
2021-12-27 14:18:19.008769,-160
2021-12-27 14:18:19.008776,-165
2021-12-27 14:18:19.008783,-162
2021-12-27 14:18:19.008790,-158
2021-12-27 14:18:19.008797,-148
2021-12-27 14:18:19.008804,-139
2021-12-27 14:18:19.252388,-131
2021-12-27 14:18:19.252411,-124
2021-12-27 14:18:19.252416,-115
2021-12-27 14:18:19.252421,-103
2021-12-27 14:18:19.252426,-93
2021-12-27 14:18:19.252431,-86
2021-12-27 14:18:19.252435,-83
2021-12-27 14:18:19.252440,-79
2021-12-27 14:18:19.252444,-71
2021-12-27 14:18:19.252449,-67
2021-12-27 14:18:19.252454,-59
2021-12-27 14:18:19.252458,-55
2021-12-27 14:18:19.252463,-57
2021-12-27 14:18:19.252467,-59
2021-12-27 14:18:19.252472,-59
2021-12-27 14:18:19.252476,-55
2021-12-27 14:18:19.252481,-50
2021-12-27 14:18:19.252485,-45
2021-12-27 14:18:19.252490,-43
2021-12-27 14:18:19.252494,-40
2021-12-27 14:18:19.252499,-43
2021-12-27 14:18:19.252503,-47
2021-12-27 14:18:19.252508,-45
2021-12-27 14:18:19.252512,-38
2021-12-27 14:18:19.252517,-35
2021-12-27 14:18:19.252522,-40
2021-12-27 14:18:19.252526,-45
2021-12-27 14:18:19.252531,-52
2021-12-27 14:18:19.252535,-55
2021-12-27 14:18:19.252540,-47
2021-12-27 14:18:19.543934,-19
2021-12-27 14:18:19.543951,11
2021-12-27 14:18:19.543957,9
2021-12-27 14:18:19.543962,-7
2021-12-27 14:18:19.543966,-9
2021-12-27 14:18:19.543982,-14
2021-12-27 14:18:19.543986,-35
2021-12-27 14:18:19.543991,-45
2021-12-27 14:18:19.543995,-47
2021-12-27 14:18:19.544000,-52
2021-12-27 14:18:19.544004,-52
2021-12-27 14:18:19.544009,-45
2021-12-27 14:18:19.544013,-43
2021-12-27 14:18:19.544018,-45
2021-12-27 14:18:19.544022,-47
2021-12-27 14:18:19.544027,-59
2021-12-27 14:18:19.544031,-100
2021-12-27 14:18:19.544036,-150
2021-12-27 14:18:19.544040,-83
2021-12-27 14:18:19.544045,383
2021-12-27 14:18:19.544050,1301
2021-12-27 14:18:19.544054,1936
2021-12-27 14:18:19.544059,1366
2021-12-27 14:18:19.544063,86
2021-12-27 14:18:19.544068,-517
2021-12-27 14:18:19.544072,-373
2021-12-27 14:18:19.544077,-261
2021-12-27 14:18:19.544081,-222
2021-12-27 14:18:19.544086,-105
2021-12-27 14:18:19.544090,-59
2021-12-27 14:18:19.738454,-69
2021-12-27 14:18:19.738470,-28
2021-12-27 14:18:19.738476,2
2021-12-27 14:18:19.738480,0
2021-12-27 14:18:19.738485,31
2021-12-27 14:18:19.738489,59
2021-12-27 14:18:19.738494,64
2021-12-27 14:18:19.738498,86
2021-12-27 14:18:19.738503,119
2021-12-27 14:18:19.738507,134
2021-12-27 14:18:19.738512,153
2021-12-27 14:18:19.738516,189
2021-12-27 14:18:19.738521,230
2021-12-27 14:18:19.738525,266
2021-12-27 14:18:19.738530,306
2021-12-27 14:18:19.738534,340
2021-12-27 14:18:19.738539,359
2021-12-27 14:18:19.738543,383
2021-12-27 14:18:19.738548,385
2021-12-27 14:18:19.738552,364
2021-12-27 14:18:19.738557,361
2021-12-27 14:18:19.738561,347
2021-12-27 14:18:19.738565,287
2021-12-27 14:18:19.738570,206
2021-12-27 14:18:19.738574,115
2021-12-27 14:18:19.738579,23
2021-12-27 14:18:19.738583,-55
2021-12-27 14:18:19.738588,-117
2021-12-27 14:18:19.738592,-158
2021-12-27 14:18:19.738597,-177
2021-12-27 14:18:19.983049,-184
2021-12-27 14:18:19.983071,-184
2021-12-27 14:18:19.983077,-177
2021-12-27 14:18:19.983096,-167
2021-12-27 14:18:19.983101,-160
2021-12-27 14:18:19.983106,-153
2021-12-27 14:18:19.983110,-143
2021-12-27 14:18:19.983115,-131
2021-12-27 14:18:19.983119,-119
2021-12-27 14:18:19.983124,-112
2021-12-27 14:18:19.983129,-110
2021-12-27 14:18:19.983133,-103
2021-12-27 14:18:19.983138,-95
2021-12-27 14:18:19.983142,-88
2021-12-27 14:18:19.983147,-86
2021-12-27 14:18:19.983151,-86
2021-12-27 14:18:19.983156,-81
2021-12-27 14:18:19.983160,-79
2021-12-27 14:18:19.983165,-81
2021-12-27 14:18:19.983169,-79
2021-12-27 14:18:19.983174,-76
2021-12-27 14:18:19.983179,-74
2021-12-27 14:18:19.983183,-69
2021-12-27 14:18:19.983188,-69
2021-12-27 14:18:19.983192,-69
2021-12-27 14:18:19.983197,-62
2021-12-27 14:18:19.983201,-55
2021-12-27 14:18:19.983206,-55
2021-12-27 14:18:19.983210,-55
2021-12-27 14:18:19.983215,-55
2021-12-27 14:18:20.178677,-57
2021-12-27 14:18:20.178699,-59
2021-12-27 14:18:20.178706,-47
2021-12-27 14:18:20.178712,-16
2021-12-27 14:18:20.178717,9
2021-12-27 14:18:20.178722,4
2021-12-27 14:18:20.178727,-9
2021-12-27 14:18:20.178732,-16
2021-12-27 14:18:20.178736,-33
2021-12-27 14:18:20.178741,-47
2021-12-27 14:18:20.178745,-50
2021-12-27 14:18:20.178750,-47
2021-12-27 14:18:20.178754,-52
2021-12-27 14:18:20.178758,-59
2021-12-27 14:18:20.178763,-59
2021-12-27 14:18:20.178768,-50
2021-12-27 14:18:20.178772,-55
2021-12-27 14:18:20.178777,-59
2021-12-27 14:18:20.178782,-67
2021-12-27 14:18:20.178787,-115
2021-12-27 14:18:20.178792,-165
2021-12-27 14:18:20.178797,-35
2021-12-27 14:18:20.178802,544
2021-12-27 14:18:20.178806,1488
2021-12-27 14:18:20.178811,1912
2021-12-27 14:18:20.178816,1047
2021-12-27 14:18:20.178821,-213
2021-12-27 14:18:20.178826,-575
2021-12-27 14:18:20.178830,-371
2021-12-27 14:18:20.178835,-306
2021-12-27 14:18:20.421959,-242
2021-12-27 14:18:20.421980,-105
2021-12-27 14:18:20.421986,-81
2021-12-27 14:18:20.421991,-100
2021-12-27 14:18:20.421995,-57
2021-12-27 14:18:20.422000,-26
2021-12-27 14:18:20.422004,-16
2021-12-27 14:18:20.422009,4
2021-12-27 14:18:20.422013,23
2021-12-27 14:18:20.422018,33
2021-12-27 14:18:20.422022,55
2021-12-27 14:18:20.422027,81
2021-12-27 14:18:20.422032,105
2021-12-27 14:18:20.422036,136
2021-12-27 14:18:20.422041,167
2021-12-27 14:18:20.422045,189
2021-12-27 14:18:20.422050,218
2021-12-27 14:18:20.422054,254
2021-12-27 14:18:20.422059,285
2021-12-27 14:18:20.422063,309
2021-12-27 14:18:20.422068,318
2021-12-27 14:18:20.422072,313
2021-12-27 14:18:20.422077,306
2021-12-27 14:18:20.422081,292
2021-12-27 14:18:20.422086,256
2021-12-27 14:18:20.422091,196
2021-12-27 14:18:20.422095,112
2021-12-27 14:18:20.422100,21
2021-12-27 14:18:20.422104,-59
2021-12-27 14:18:20.422109,-124
2021-12-27 14:18:20.617831,-172
2021-12-27 14:18:20.617859,-198
2021-12-27 14:18:20.617868,-213
2021-12-27 14:18:20.617875,-227
2021-12-27 14:18:20.617882,-234
2021-12-27 14:18:20.617889,-218
2021-12-27 14:18:20.617896,-198
2021-12-27 14:18:20.617903,-191
2021-12-27 14:18:20.617910,-179
2021-12-27 14:18:20.617917,-167
2021-12-27 14:18:20.617924,-153
2021-12-27 14:18:20.617931,-139
2021-12-27 14:18:20.617938,-139
2021-12-27 14:18:20.617945,-136
2021-12-27 14:18:20.617952,-110
2021-12-27 14:18:20.617959,-93
2021-12-27 14:18:20.617966,-107
2021-12-27 14:18:20.617973,-119
2021-12-27 14:18:20.617980,-98
2021-12-27 14:18:20.617987,-79
2021-12-27 14:18:20.617994,-86
2021-12-27 14:18:20.618001,-83
2021-12-27 14:18:20.618008,-74
2021-12-27 14:18:20.618015,-71
2021-12-27 14:18:20.618021,-67
2021-12-27 14:18:20.618029,-64
2021-12-27 14:18:20.618035,-71
2021-12-27 14:18:20.618042,-64
2021-12-27 14:18:20.618049,-45
2021-12-27 14:18:20.618056,-47
2021-12-27 14:18:20.861037,-52
2021-12-27 14:18:20.861065,-43
2021-12-27 14:18:20.861074,-38
2021-12-27 14:18:20.861081,-43
2021-12-27 14:18:20.861088,-40
2021-12-27 14:18:20.861095,-33
2021-12-27 14:18:20.861101,-43
2021-12-27 14:18:20.861108,-43
2021-12-27 14:18:20.861115,-11
2021-12-27 14:18:20.861122,19
2021-12-27 14:18:20.861129,21
2021-12-27 14:18:20.861136,7
2021-12-27 14:18:20.861143,-4
2021-12-27 14:18:20.861150,-11
2021-12-27 14:18:20.861157,-19
2021-12-27 14:18:20.861164,-26
2021-12-27 14:18:20.861171,-23
2021-12-27 14:18:20.861178,-14
2021-12-27 14:18:20.861185,-19
2021-12-27 14:18:20.861192,-23
2021-12-27 14:18:20.861199,-19
2021-12-27 14:18:20.861205,-11
2021-12-27 14:18:20.861212,-9
2021-12-27 14:18:20.861219,-16
2021-12-27 14:18:20.861226,-59
2021-12-27 14:18:20.861233,-103
2021-12-27 14:18:20.861240,11
2021-12-27 14:18:20.861247,551
2021-12-27 14:18:20.861254,1449
2021-12-27 14:18:20.861261,1819
2021-12-27 14:18:21.105241,934
2021-12-27 14:18:21.105270,-246
2021-12-27 14:18:21.105279,-529
2021-12-27 14:18:21.105286,-340
2021-12-27 14:18:21.105293,-299
2021-12-27 14:18:21.105300,-208
2021-12-27 14:18:21.105307,-43
2021-12-27 14:18:21.105314,-16
2021-12-27 14:18:21.105321,-45
2021-12-27 14:18:21.105327,-9
2021-12-27 14:18:21.105334,23
2021-12-27 14:18:21.105341,31
2021-12-27 14:18:21.105349,47
2021-12-27 14:18:21.105355,59
2021-12-27 14:18:21.105362,64
2021-12-27 14:18:21.105369,83
2021-12-27 14:18:21.105376,112
2021-12-27 14:18:21.105383,131
2021-12-27 14:18:21.105390,155
2021-12-27 14:18:21.105396,184
2021-12-27 14:18:21.105403,206
2021-12-27 14:18:21.105410,230
2021-12-27 14:18:21.105417,261
2021-12-27 14:18:21.105424,280
2021-12-27 14:18:21.105431,289
2021-12-27 14:18:21.105438,301
2021-12-27 14:18:21.105445,304
2021-12-27 14:18:21.105452,289
2021-12-27 14:18:21.105459,273
2021-12-27 14:18:21.105466,242
2021-12-27 14:18:21.300284,184
2021-12-27 14:18:21.300312,105
2021-12-27 14:18:21.300320,19
2021-12-27 14:18:21.300327,-59
2021-12-27 14:18:21.300335,-124
2021-12-27 14:18:21.300342,-162
2021-12-27 14:18:21.300349,-189
2021-12-27 14:18:21.300356,-206
2021-12-27 14:18:21.300362,-210
2021-12-27 14:18:21.300369,-208
2021-12-27 14:18:21.300376,-203
2021-12-27 14:18:21.300383,-189
2021-12-27 14:18:21.300390,-174
2021-12-27 14:18:21.300397,-162
2021-12-27 14:18:21.300403,-158
2021-12-27 14:18:21.300410,-155
2021-12-27 14:18:21.300417,-146
2021-12-27 14:18:21.300424,-131
2021-12-27 14:18:21.300431,-124
2021-12-27 14:18:21.300438,-119
2021-12-27 14:18:21.300445,-117
2021-12-27 14:18:21.300452,-115
2021-12-27 14:18:21.300459,-115
2021-12-27 14:18:21.300466,-110
2021-12-27 14:18:21.300473,-105
2021-12-27 14:18:21.300479,-100
2021-12-27 14:18:21.300486,-95
2021-12-27 14:18:21.300493,-93
2021-12-27 14:18:21.300500,-91
2021-12-27 14:18:21.300507,-88
2021-12-27 14:18:21.592635,-83
2021-12-27 14:18:21.592657,-83
2021-12-27 14:18:21.592663,-83
2021-12-27 14:18:21.592669,-86
2021-12-27 14:18:21.592674,-93
2021-12-27 14:18:21.592679,-91
2021-12-27 14:18:21.592684,-83
2021-12-27 14:18:21.592688,-79
2021-12-27 14:18:21.592693,-74
2021-12-27 14:18:21.592697,-76
2021-12-27 14:18:21.592701,-86
2021-12-27 14:18:21.592707,-91
2021-12-27 14:18:21.592712,-81
2021-12-27 14:18:21.592716,-57
2021-12-27 14:18:21.592721,-26
2021-12-27 14:18:21.592726,-14
2021-12-27 14:18:21.592731,-31
2021-12-27 14:18:21.592735,-31
2021-12-27 14:18:21.592740,-28
2021-12-27 14:18:21.592745,-47
2021-12-27 14:18:21.592750,-57
2021-12-27 14:18:21.592754,-47
2021-12-27 14:18:21.592759,-40
2021-12-27 14:18:21.592764,-43
2021-12-27 14:18:21.592769,-45
2021-12-27 14:18:21.592774,-40
2021-12-27 14:18:21.592778,-35
2021-12-27 14:18:21.592783,-40
2021-12-27 14:18:21.592788,-52
2021-12-27 14:18:21.592793,-79
2021-12-27 14:18:21.834441,-134
2021-12-27 14:18:21.834459,-131
2021-12-27 14:18:21.834464,177
2021-12-27 14:18:21.834469,992
2021-12-27 14:18:21.834474,1857
2021-12-27 14:18:21.834479,1725
2021-12-27 14:18:21.834483,484
2021-12-27 14:18:21.834488,-474
2021-12-27 14:18:21.834492,-460
2021-12-27 14:18:21.834497,-263
2021-12-27 14:18:21.834501,-237
2021-12-27 14:18:21.834506,-134
2021-12-27 14:18:21.834510,-62
2021-12-27 14:18:21.834515,-83
2021-12-27 14:18:21.834520,-64
2021-12-27 14:18:21.834524,-19
2021-12-27 14:18:21.834529,-4
2021-12-27 14:18:21.834533,7
2021-12-27 14:18:21.834538,33
2021-12-27 14:18:21.834543,47
2021-12-27 14:18:21.834547,62
2021-12-27 14:18:21.834552,81
2021-12-27 14:18:21.834556,105
2021-12-27 14:18:21.834561,127
2021-12-27 14:18:21.834565,148
2021-12-27 14:18:21.834570,174
2021-12-27 14:18:21.834575,206
2021-12-27 14:18:21.834579,237
2021-12-27 14:18:21.834584,266
2021-12-27 14:18:21.834588,289
2021-12-27 14:18:22.079863,301
2021-12-27 14:18:22.079892,304
2021-12-27 14:18:22.079901,299
2021-12-27 14:18:22.079908,289
2021-12-27 14:18:22.079915,261
2021-12-27 14:18:22.079922,215
2021-12-27 14:18:22.079929,143
2021-12-27 14:18:22.079935,45
2021-12-27 14:18:22.079942,-52
2021-12-27 14:18:22.079949,-124
2021-12-27 14:18:22.079956,-182
2021-12-27 14:18:22.079963,-222
2021-12-27 14:18:22.079970,-242
2021-12-27 14:18:22.079977,-254
2021-12-27 14:18:22.079984,-261
2021-12-27 14:18:22.079991,-249
2021-12-27 14:18:22.079998,-232
2021-12-27 14:18:22.080004,-225
2021-12-27 14:18:22.080011,-213
2021-12-27 14:18:22.080018,-198
2021-12-27 14:18:22.080025,-189
2021-12-27 14:18:22.080032,-179
2021-12-27 14:18:22.080039,-160
2021-12-27 14:18:22.080045,-146
2021-12-27 14:18:22.080052,-143
2021-12-27 14:18:22.080059,-136
2021-12-27 14:18:22.080066,-127
2021-12-27 14:18:22.080073,-124
2021-12-27 14:18:22.080080,-124
2021-12-27 14:18:22.080087,-115
2021-12-27 14:18:22.225480,-105
2021-12-27 14:18:22.225498,-100
2021-12-27 14:18:22.225504,-100
2021-12-27 14:18:22.225508,-100
2021-12-27 14:18:22.225513,-100
2021-12-27 14:18:22.225518,-98
2021-12-27 14:18:22.225522,-98
2021-12-27 14:18:22.225527,-93
2021-12-27 14:18:22.225531,-91
2021-12-27 14:18:22.225535,-91
2021-12-27 14:18:22.225540,-86
2021-12-27 14:18:22.225544,-79
2021-12-27 14:18:22.225549,-76
2021-12-27 14:18:22.225553,-71
2021-12-27 14:18:22.225558,-69
2021-12-27 14:18:22.225562,-67
2021-12-27 14:18:22.225567,-64
2021-12-27 14:18:22.225571,-67
2021-12-27 14:18:22.225576,-71
2021-12-27 14:18:22.225580,-71
2021-12-27 14:18:22.225585,-67
2021-12-27 14:18:22.225589,-57
2021-12-27 14:18:22.225593,-35
2021-12-27 14:18:22.225598,-11
2021-12-27 14:18:22.225602,-11
2021-12-27 14:18:22.225607,-16
2021-12-27 14:18:22.225611,-14
2021-12-27 14:18:22.225616,-28
2021-12-27 14:18:22.225620,-52
2021-12-27 14:18:22.225624,-50
2021-12-27 14:18:22.566959,-33
2021-12-27 14:18:22.566987,-31
2021-12-27 14:18:22.566996,-40
2021-12-27 14:18:22.567003,-50
2021-12-27 14:18:22.567010,-50
2021-12-27 14:18:22.567017,-45
2021-12-27 14:18:22.567024,-45
2021-12-27 14:18:22.567030,-59
2021-12-27 14:18:22.567037,-103
2021-12-27 14:18:22.567044,-143
2021-12-27 14:18:22.567051,-7
2021-12-27 14:18:22.567058,601
2021-12-27 14:18:22.567065,1545
2021-12-27 14:18:22.567072,1890
2021-12-27 14:18:22.567079,982
2021-12-27 14:18:22.567086,-237
2021-12-27 14:18:22.567094,-548
2021-12-27 14:18:22.567100,-325
2021-12-27 14:18:22.567107,-237
2021-12-27 14:18:22.567114,-165
2021-12-27 14:18:22.567121,-59
2021-12-27 14:18:22.567128,-64
2021-12-27 14:18:22.567135,-100
2021-12-27 14:18:22.567142,-71
2021-12-27 14:18:22.567149,-31
2021-12-27 14:18:22.567156,-11
2021-12-27 14:18:22.567163,-2
2021-12-27 14:18:22.567170,21
2021-12-27 14:18:22.567177,59
2021-12-27 14:18:22.567184,88
2021-12-27 14:18:22.907616,86
2021-12-27 14:18:22.907644,93
2021-12-27 14:18:22.907653,129
2021-12-27 14:18:22.907660,160
2021-12-27 14:18:22.907667,186
2021-12-27 14:18:22.907674,227
2021-12-27 14:18:22.907681,242
2021-12-27 14:18:22.907688,237
2021-12-27 14:18:22.907850,246
2021-12-27 14:18:22.907858,261
2021-12-27 14:18:22.907865,275
2021-12-27 14:18:22.907873,289
2021-12-27 14:18:22.907880,261
2021-12-27 14:18:22.907887,198
2021-12-27 14:18:22.907894,143
2021-12-27 14:18:22.907901,79
2021-12-27 14:18:22.907908,-16
2021-12-27 14:18:22.907915,-107
2021-12-27 14:18:22.907922,-160
2021-12-27 14:18:22.907929,-203
2021-12-27 14:18:22.907935,-244
2021-12-27 14:18:22.907942,-266
2021-12-27 14:18:22.907949,-266
2021-12-27 14:18:22.907956,-258
2021-12-27 14:18:22.907963,-244
2021-12-27 14:18:22.907970,-232
2021-12-27 14:18:22.907977,-218
2021-12-27 14:18:22.907983,-206
2021-12-27 14:18:22.907990,-191
2021-12-27 14:18:22.908003,-177
2021-12-27 14:18:23.103410,-167
2021-12-27 14:18:23.103429,-160
2021-12-27 14:18:23.103435,-150
2021-12-27 14:18:23.103439,-146
2021-12-27 14:18:23.103444,-139
2021-12-27 14:18:23.103448,-129
2021-12-27 14:18:23.103453,-122
2021-12-27 14:18:23.103457,-124
2021-12-27 14:18:23.103462,-122
2021-12-27 14:18:23.103466,-115
2021-12-27 14:18:23.103471,-110
2021-12-27 14:18:23.103475,-110
2021-12-27 14:18:23.103480,-105
2021-12-27 14:18:23.103485,-95
2021-12-27 14:18:23.103489,-95
2021-12-27 14:18:23.103494,-93
2021-12-27 14:18:23.103498,-86
2021-12-27 14:18:23.103503,-81
2021-12-27 14:18:23.103507,-81
2021-12-27 14:18:23.103512,-74
2021-12-27 14:18:23.103516,-69
2021-12-27 14:18:23.103520,-64
2021-12-27 14:18:23.103525,-59
2021-12-27 14:18:23.103530,-55
2021-12-27 14:18:23.103534,-50
2021-12-27 14:18:23.103539,-45
2021-12-27 14:18:23.103543,-45
2021-12-27 14:18:23.103548,-45
2021-12-27 14:18:23.103552,-50
2021-12-27 14:18:23.103557,-47
2021-12-27 14:18:23.249673,-21
2021-12-27 14:18:23.249692,9
2021-12-27 14:18:23.249698,14
2021-12-27 14:18:23.249702,4
2021-12-27 14:18:23.249707,2
2021-12-27 14:18:23.249712,9
2021-12-27 14:18:23.249716,0
2021-12-27 14:18:23.249721,-14
2021-12-27 14:18:23.249725,-16
2021-12-27 14:18:23.249730,-19
2021-12-27 14:18:23.249734,-21
2021-12-27 14:18:23.249742,-16
2021-12-27 14:18:23.249747,-14
2021-12-27 14:18:23.249751,-11
2021-12-27 14:18:23.249756,-14
2021-12-27 14:18:23.249760,-28
2021-12-27 14:18:23.249765,-43
2021-12-27 14:18:23.249770,-76
2021-12-27 14:18:23.249774,-127
2021-12-27 14:18:23.249779,-33
2021-12-27 14:18:23.249783,505
2021-12-27 14:18:23.249788,1447
2021-12-27 14:18:23.249792,1948
2021-12-27 14:18:23.249797,1183
2021-12-27 14:18:23.249802,-103
2021-12-27 14:18:23.249806,-546
2021-12-27 14:18:23.249811,-335
2021-12-27 14:18:23.249815,-242
2021-12-27 14:18:23.249822,-196
2021-12-27 14:18:23.249827,-86
2021-12-27 14:18:23.541558,-67
2021-12-27 14:18:23.541574,-83
2021-12-27 14:18:23.541579,-43
2021-12-27 14:18:23.541583,-19
2021-12-27 14:18:23.541587,-16
2021-12-27 14:18:23.541590,4
2021-12-27 14:18:23.541594,28
2021-12-27 14:18:23.541598,45
2021-12-27 14:18:23.541601,64
2021-12-27 14:18:23.541605,86
2021-12-27 14:18:23.541609,100
2021-12-27 14:18:23.541612,122
2021-12-27 14:18:23.541616,150
2021-12-27 14:18:23.541620,182
2021-12-27 14:18:23.541623,215
2021-12-27 14:18:23.541627,246
2021-12-27 14:18:23.541630,273
2021-12-27 14:18:23.541634,289
