Time,ECG
2021-12-27 14:43:02.292596,-26
2021-12-27 14:43:02.292617,-59
2021-12-27 14:43:02.292623,-105
2021-12-27 14:43:02.292627,-177
2021-12-27 14:43:02.292632,-179
2021-12-27 14:43:02.292637,-184
2021-12-27 14:43:02.292642,-201
2021-12-27 14:43:02.292647,-179
2021-12-27 14:43:02.292651,-172
2021-12-27 14:43:02.292656,-184
2021-12-27 14:43:02.292661,-170
2021-12-27 14:43:02.292666,-153
2021-12-27 14:43:02.292670,-148
2021-12-27 14:43:02.292675,-143
2021-12-27 14:43:02.292680,-127
2021-12-27 14:43:02.292684,-119
2021-12-27 14:43:02.292689,-112
2021-12-27 14:43:02.292694,-91
2021-12-27 14:43:02.292698,-95
2021-12-27 14:43:02.292703,-105
2021-12-27 14:43:02.292707,-86
2021-12-27 14:43:02.292712,-69
2021-12-27 14:43:02.292716,-67
2021-12-27 14:43:02.292721,-69
2021-12-27 14:43:02.292725,-71
2021-12-27 14:43:02.292730,-47
2021-12-27 14:43:02.292735,-45
2021-12-27 14:43:02.292740,-83
2021-12-27 14:43:02.292744,-62
2021-12-27 14:43:02.292749,4
2021-12-27 14:43:02.391135,-21
2021-12-27 14:43:02.391163,-71
2021-12-27 14:43:02.391172,-52
2021-12-27 14:43:02.391179,-31
2021-12-27 14:43:02.391186,-45
2021-12-27 14:43:02.391193,-31
2021-12-27 14:43:02.391201,-9
2021-12-27 14:43:02.391208,-26
2021-12-27 14:43:02.391215,-69
2021-12-27 14:43:02.391222,-57
2021-12-27 14:43:02.391229,40
2021-12-27 14:43:02.391236,86
2021-12-27 14:43:02.391243,23
2021-12-27 14:43:02.391250,19
2021-12-27 14:43:02.391257,76
2021-12-27 14:43:02.391263,45
2021-12-27 14:43:02.391271,-19
2021-12-27 14:43:02.391278,-14
2021-12-27 14:43:02.391285,-7
2021-12-27 14:43:02.391292,-7
2021-12-27 14:43:02.391299,4
2021-12-27 14:43:02.391306,-7
2021-12-27 14:43:02.391313,-14
2021-12-27 14:43:02.391320,2
2021-12-27 14:43:02.391326,-14
2021-12-27 14:43:02.391333,-55
2021-12-27 14:43:02.391340,-38
2021-12-27 14:43:02.391347,-35
2021-12-27 14:43:02.391354,-107
2021-12-27 14:43:02.391364,-33
2021-12-27 14:43:02.683579,457
2021-12-27 14:43:02.683602,1351
2021-12-27 14:43:02.683608,1979
2021-12-27 14:43:02.683613,1445
2021-12-27 14:43:02.683618,244
2021-12-27 14:43:02.683622,-299
2021-12-27 14:43:02.683627,-218
2021-12-27 14:43:02.683632,-165
2021-12-27 14:43:02.683636,-117
2021-12-27 14:43:02.683641,-47
2021-12-27 14:43:02.683645,-59
2021-12-27 14:43:02.683650,-45
2021-12-27 14:43:02.683654,9
2021-12-27 14:43:02.683665,2
2021-12-27 14:43:02.683671,-31
2021-12-27 14:43:02.683675,-11
2021-12-27 14:43:02.683680,43
2021-12-27 14:43:02.683685,76
2021-12-27 14:43:02.683689,81
2021-12-27 14:43:02.683694,105
2021-12-27 14:43:02.683698,124
2021-12-27 14:43:02.683703,127
2021-12-27 14:43:02.683707,165
2021-12-27 14:43:02.683712,208
2021-12-27 14:43:02.683716,234
2021-12-27 14:43:02.683721,301
2021-12-27 14:43:02.683726,354
2021-12-27 14:43:02.683730,352
2021-12-27 14:43:02.683735,357
2021-12-27 14:43:02.683741,390
2021-12-27 14:43:02.829572,400
2021-12-27 14:43:02.829595,366
2021-12-27 14:43:02.829600,349
2021-12-27 14:43:02.829605,311
2021-12-27 14:43:02.829610,215
2021-12-27 14:43:02.829614,124
2021-12-27 14:43:02.829619,55
2021-12-27 14:43:02.829624,-16
2021-12-27 14:43:02.829629,-50
2021-12-27 14:43:02.829633,-79
2021-12-27 14:43:02.829639,-174
2021-12-27 14:43:02.829644,-239
2021-12-27 14:43:02.829648,-184
2021-12-27 14:43:02.829653,-124
2021-12-27 14:43:02.829658,-139
2021-12-27 14:43:02.829662,-158
2021-12-27 14:43:02.829667,-134
2021-12-27 14:43:02.829676,-134
2021-12-27 14:43:02.829681,-153
2021-12-27 14:43:02.829685,-112
2021-12-27 14:43:02.829690,-71
2021-12-27 14:43:02.829694,-103
2021-12-27 14:43:02.829699,-129
2021-12-27 14:43:02.829703,-100
2021-12-27 14:43:02.829708,-81
2021-12-27 14:43:02.829712,-110
2021-12-27 14:43:02.829717,-134
2021-12-27 14:43:02.829721,-103
2021-12-27 14:43:02.829726,-57
2021-12-27 14:43:02.829730,-71
2021-12-27 14:43:03.073683,-100
2021-12-27 14:43:03.073711,-86
2021-12-27 14:43:03.073720,-62
2021-12-27 14:43:03.073727,-67
2021-12-27 14:43:03.073734,-81
2021-12-27 14:43:03.073741,-71
2021-12-27 14:43:03.073748,-47
2021-12-27 14:43:03.073763,-35
2021-12-27 14:43:03.073770,-35
2021-12-27 14:43:03.073777,-33
2021-12-27 14:43:03.073784,-35
2021-12-27 14:43:03.073792,-43
2021-12-27 14:43:03.073799,-40
2021-12-27 14:43:03.073806,-16
2021-12-27 14:43:03.073813,14
2021-12-27 14:43:03.073820,16
2021-12-27 14:43:03.073827,21
2021-12-27 14:43:03.073834,43
2021-12-27 14:43:03.073841,16
2021-12-27 14:43:03.073848,-14
2021-12-27 14:43:03.073855,38
2021-12-27 14:43:03.073862,76
2021-12-27 14:43:03.073869,50
2021-12-27 14:43:03.073876,62
2021-12-27 14:43:03.073883,79
2021-12-27 14:43:03.073890,43
2021-12-27 14:43:03.073897,26
2021-12-27 14:43:03.073904,55
2021-12-27 14:43:03.073911,81
2021-12-27 14:43:03.073919,55
2021-12-27 14:43:03.316663,26
2021-12-27 14:43:03.316681,50
2021-12-27 14:43:03.316687,57
2021-12-27 14:43:03.316692,33
2021-12-27 14:43:03.316696,52
2021-12-27 14:43:03.316701,52
2021-12-27 14:43:03.316705,-19
2021-12-27 14:43:03.316710,-71
2021-12-27 14:43:03.316714,59
2021-12-27 14:43:03.316719,577
2021-12-27 14:43:03.316724,1457
2021-12-27 14:43:03.316728,1924
2021-12-27 14:43:03.316733,1222
2021-12-27 14:43:03.316737,110
2021-12-27 14:43:03.316742,-289
2021-12-27 14:43:03.316746,-196
2021-12-27 14:43:03.316751,-146
2021-12-27 14:43:03.316755,-103
2021-12-27 14:43:03.316760,-11
2021-12-27 14:43:03.316764,19
2021-12-27 14:43:03.316769,-14
2021-12-27 14:43:03.316773,-16
2021-12-27 14:43:03.316778,19
2021-12-27 14:43:03.316783,38
2021-12-27 14:43:03.316792,57
2021-12-27 14:43:03.316797,110
2021-12-27 14:43:03.316801,134
2021-12-27 14:43:03.316806,117
2021-12-27 14:43:03.316810,103
2021-12-27 14:43:03.316815,112
2021-12-27 14:43:03.559477,155
2021-12-27 14:43:03.559500,189
2021-12-27 14:43:03.559506,206
2021-12-27 14:43:03.559511,244
2021-12-27 14:43:03.559515,294
2021-12-27 14:43:03.559520,325
2021-12-27 14:43:03.559524,342
2021-12-27 14:43:03.559529,364
2021-12-27 14:43:03.559533,369
2021-12-27 14:43:03.559538,347
2021-12-27 14:43:03.559542,333
2021-12-27 14:43:03.559547,311
2021-12-27 14:43:03.559551,263
2021-12-27 14:43:03.559556,196
2021-12-27 14:43:03.559560,127
2021-12-27 14:43:03.559564,47
2021-12-27 14:43:03.559569,-76
2021-12-27 14:43:03.559574,-196
2021-12-27 14:43:03.559578,-189
2021-12-27 14:43:03.559582,-150
2021-12-27 14:43:03.559587,-189
2021-12-27 14:43:03.559591,-206
2021-12-27 14:43:03.559598,-174
2021-12-27 14:43:03.559603,-174
2021-12-27 14:43:03.559607,-191
2021-12-27 14:43:03.559612,-170
2021-12-27 14:43:03.559616,-119
2021-12-27 14:43:03.559621,-100
2021-12-27 14:43:03.559625,-124
2021-12-27 14:43:03.559629,-117
2021-12-27 14:43:03.805108,-83
2021-12-27 14:43:03.805136,-74
2021-12-27 14:43:03.805145,-76
2021-12-27 14:43:03.805152,-93
2021-12-27 14:43:03.805159,-119
2021-12-27 14:43:03.805166,-122
2021-12-27 14:43:03.805173,-93
2021-12-27 14:43:03.805180,-64
2021-12-27 14:43:03.805187,-71
2021-12-27 14:43:03.805194,-95
2021-12-27 14:43:03.805201,-81
2021-12-27 14:43:03.805208,-67
2021-12-27 14:43:03.805215,-81
2021-12-27 14:43:03.805222,-74
2021-12-27 14:43:03.805229,-55
2021-12-27 14:43:03.805236,-52
2021-12-27 14:43:03.805243,-59
2021-12-27 14:43:03.805250,-67
2021-12-27 14:43:03.805257,-21
2021-12-27 14:43:03.805264,23
2021-12-27 14:43:03.805272,-23
2021-12-27 14:43:03.805279,-81
2021-12-27 14:43:03.805286,-62
2021-12-27 14:43:03.805293,-16
2021-12-27 14:43:03.805307,14
2021-12-27 14:43:03.805314,28
2021-12-27 14:43:03.805321,21
2021-12-27 14:43:03.805329,11
2021-12-27 14:43:03.805336,16
2021-12-27 14:43:03.805343,16
2021-12-27 14:43:03.999633,0
2021-12-27 14:43:03.999656,-11
2021-12-27 14:43:03.999661,-9
2021-12-27 14:43:03.999666,-16
2021-12-27 14:43:03.999671,-33
2021-12-27 14:43:03.999675,-28
2021-12-27 14:43:03.999680,-19
2021-12-27 14:43:03.999684,-26
2021-12-27 14:43:03.999689,-35
2021-12-27 14:43:03.999693,-52
2021-12-27 14:43:03.999698,-105
2021-12-27 14:43:03.999702,-146
2021-12-27 14:43:03.999707,7
2021-12-27 14:43:03.999712,601
2021-12-27 14:43:03.999716,1483
2021-12-27 14:43:03.999721,1783
2021-12-27 14:43:03.999725,956
2021-12-27 14:43:03.999730,-57
2021-12-27 14:43:03.999734,-316
2021-12-27 14:43:03.999739,-218
2021-12-27 14:43:03.999743,-194
2021-12-27 14:43:03.999748,-122
2021-12-27 14:43:03.999752,-35
2021-12-27 14:43:03.999757,-26
2021-12-27 14:43:03.999761,-31
2021-12-27 14:43:03.999765,-9
2021-12-27 14:43:03.999770,14
2021-12-27 14:43:03.999774,31
2021-12-27 14:43:03.999779,47
2021-12-27 14:43:03.999783,67
2021-12-27 14:43:04.243643,95
2021-12-27 14:43:04.243671,141
2021-12-27 14:43:04.243680,170
2021-12-27 14:43:04.243687,158
2021-12-27 14:43:04.243694,143
2021-12-27 14:43:04.243701,196
2021-12-27 14:43:04.243708,254
2021-12-27 14:43:04.243716,256
2021-12-27 14:43:04.243723,294
2021-12-27 14:43:04.243730,381
2021-12-27 14:43:04.243737,421
2021-12-27 14:43:04.243743,414
2021-12-27 14:43:04.243750,405
2021-12-27 14:43:04.243757,405
2021-12-27 14:43:04.243765,421
2021-12-27 14:43:04.243771,402
2021-12-27 14:43:04.243779,318
2021-12-27 14:43:04.243786,198
2021-12-27 14:43:04.243793,95
2021-12-27 14:43:04.243800,14
2021-12-27 14:43:04.243807,-76
2021-12-27 14:43:04.243814,-148
2021-12-27 14:43:04.243821,-155
2021-12-27 14:43:04.243828,-136
2021-12-27 14:43:04.243835,-134
2021-12-27 14:43:04.243842,-170
2021-12-27 14:43:04.243849,-189
2021-12-27 14:43:04.243856,-146
2021-12-27 14:43:04.243863,-155
2021-12-27 14:43:04.243870,-196
2021-12-27 14:43:04.438313,-150
2021-12-27 14:43:04.438343,-112
2021-12-27 14:43:04.438351,-124
2021-12-27 14:43:04.438358,-110
2021-12-27 14:43:04.438365,-79
2021-12-27 14:43:04.438372,-76
2021-12-27 14:43:04.438380,-74
2021-12-27 14:43:04.438386,-69
2021-12-27 14:43:04.438393,-69
2021-12-27 14:43:04.438400,-83
2021-12-27 14:43:04.438412,-95
2021-12-27 14:43:04.438419,-76
2021-12-27 14:43:04.438426,-67
2021-12-27 14:43:04.438433,-93
2021-12-27 14:43:04.438440,-95
2021-12-27 14:43:04.438447,-57
2021-12-27 14:43:04.438454,-55
2021-12-27 14:43:04.438461,-95
2021-12-27 14:43:04.438468,-95
2021-12-27 14:43:04.438475,-67
2021-12-27 14:43:04.438481,-83
2021-12-27 14:43:04.438488,-93
2021-12-27 14:43:04.438495,-35
2021-12-27 14:43:04.438502,35
2021-12-27 14:43:04.438509,31
2021-12-27 14:43:04.438516,-59
2021-12-27 14:43:04.438523,-119
2021-12-27 14:43:04.438530,-81
2021-12-27 14:43:04.438537,-33
2021-12-27 14:43:04.438544,-14
2021-12-27 14:43:04.730052,-69
2021-12-27 14:43:04.730069,-155
2021-12-27 14:43:04.730074,-124
2021-12-27 14:43:04.730078,-57
2021-12-27 14:43:04.730081,-74
2021-12-27 14:43:04.730085,-93
2021-12-27 14:43:04.730089,-74
2021-12-27 14:43:04.730092,-74
2021-12-27 14:43:04.730096,-103
2021-12-27 14:43:04.730100,-143
2021-12-27 14:43:04.730103,-167
2021-12-27 14:43:04.730107,150
2021-12-27 14:43:04.730111,1078
2021-12-27 14:43:04.730114,1898
2021-12-27 14:43:04.730118,1521
2021-12-27 14:43:04.730122,335
2021-12-27 14:43:04.730125,-311
2021-12-27 14:43:04.730129,-299
2021-12-27 14:43:04.730133,-258
2021-12-27 14:43:04.730137,-194
2021-12-27 14:43:04.730140,-64
2021-12-27 14:43:04.730144,-81
2021-12-27 14:43:04.730148,-136
2021-12-27 14:43:04.730151,-62
2021-12-27 14:43:04.730155,4
2021-12-27 14:43:04.730162,-14
2021-12-27 14:43:04.730166,-28
2021-12-27 14:43:04.730170,2
2021-12-27 14:43:04.730173,64
2021-12-27 14:43:04.730177,107
2021-12-27 14:43:04.925945,81
2021-12-27 14:43:04.925968,59
2021-12-27 14:43:04.925974,115
2021-12-27 14:43:04.925979,174
2021-12-27 14:43:04.925984,194
2021-12-27 14:43:04.925988,213
2021-12-27 14:43:04.925993,244
2021-12-27 14:43:04.925998,278
2021-12-27 14:43:04.926002,323
2021-12-27 14:43:04.926007,347
2021-12-27 14:43:04.926011,292
2021-12-27 14:43:04.926016,258
2021-12-27 14:43:04.926021,301
2021-12-27 14:43:04.926025,299
2021-12-27 14:43:04.926030,234
2021-12-27 14:43:04.926034,150
2021-12-27 14:43:04.926039,55
2021-12-27 14:43:04.926044,-31
2021-12-27 14:43:04.926048,-103
2021-12-27 14:43:04.926053,-153
2021-12-27 14:43:04.926058,-165
2021-12-27 14:43:04.926063,-220
2021-12-27 14:43:04.926067,-294
2021-12-27 14:43:04.926072,-256
2021-12-27 14:43:04.926076,-210
2021-12-27 14:43:04.926081,-220
2021-12-27 14:43:04.926085,-201
2021-12-27 14:43:04.926090,-189
2021-12-27 14:43:04.926095,-210
2021-12-27 14:43:04.926099,-196
2021-12-27 14:43:05.266161,-146
2021-12-27 14:43:05.266179,-129
2021-12-27 14:43:05.266185,-148
2021-12-27 14:43:05.266189,-165
2021-12-27 14:43:05.266194,-150
2021-12-27 14:43:05.266199,-117
2021-12-27 14:43:05.266203,-103
2021-12-27 14:43:05.266208,-124
2021-12-27 14:43:05.266212,-139
2021-12-27 14:43:05.266217,-124
2021-12-27 14:43:05.266221,-127
2021-12-27 14:43:05.266226,-127
2021-12-27 14:43:05.266230,-100
2021-12-27 14:43:05.266235,-100
2021-12-27 14:43:05.266239,-117
2021-12-27 14:43:05.266244,-100
2021-12-27 14:43:05.266252,-76
2021-12-27 14:43:05.266256,-76
2021-12-27 14:43:05.266261,-105
2021-12-27 14:43:05.266265,-119
2021-12-27 14:43:05.266270,-103
2021-12-27 14:43:05.266274,-98
2021-12-27 14:43:05.266279,-93
2021-12-27 14:43:05.266283,-69
2021-12-27 14:43:05.266288,-47
2021-12-27 14:43:05.266292,-33
2021-12-27 14:43:05.266297,-31
2021-12-27 14:43:05.266301,-31
2021-12-27 14:43:05.266306,-23
2021-12-27 14:43:05.266310,-47
2021-12-27 14:43:05.363917,-88
2021-12-27 14:43:05.363934,-83
2021-12-27 14:43:05.363940,-62
2021-12-27 14:43:05.363944,-64
2021-12-27 14:43:05.363949,-64
2021-12-27 14:43:05.363953,-59
2021-12-27 14:43:05.363958,-57
2021-12-27 14:43:05.363962,-50
2021-12-27 14:43:05.363967,-47
2021-12-27 14:43:05.363971,-59
2021-12-27 14:43:05.363976,-86
2021-12-27 14:43:05.363980,-127
2021-12-27 14:43:05.363984,-93
2021-12-27 14:43:05.363989,251
2021-12-27 14:43:05.363994,1035
2021-12-27 14:43:05.363998,1704
2021-12-27 14:43:05.364003,1356
2021-12-27 14:43:05.364007,313
2021-12-27 14:43:05.364012,-246
2021-12-27 14:43:05.364016,-254
2021-12-27 14:43:05.364020,-225
2021-12-27 14:43:05.364025,-158
2021-12-27 14:43:05.364029,-47
2021-12-27 14:43:05.364034,-38
2021-12-27 14:43:05.364038,-55
2021-12-27 14:43:05.364043,-21
2021-12-27 14:43:05.364047,7
2021-12-27 14:43:05.364052,11
2021-12-27 14:43:05.364056,21
2021-12-27 14:43:05.364061,35
2021-12-27 14:43:05.654942,55
2021-12-27 14:43:05.654960,83
2021-12-27 14:43:05.654965,112
2021-12-27 14:43:05.654970,131
2021-12-27 14:43:05.654975,155
2021-12-27 14:43:05.654979,179
2021-12-27 14:43:05.654984,208
2021-12-27 14:43:05.654988,244
2021-12-27 14:43:05.654993,278
2021-12-27 14:43:05.654998,311
2021-12-27 14:43:05.655002,340
2021-12-27 14:43:05.655007,359
2021-12-27 14:43:05.655011,371
2021-12-27 14:43:05.655019,376
2021-12-27 14:43:05.655028,373
2021-12-27 14:43:05.655033,357
2021-12-27 14:43:05.655037,309
2021-12-27 14:43:05.655057,232
2021-12-27 14:43:05.655061,141
2021-12-27 14:43:05.655064,59
2021-12-27 14:43:05.655068,-19
2021-12-27 14:43:05.655072,-88
2021-12-27 14:43:05.655075,-136
2021-12-27 14:43:05.655079,-165
2021-12-27 14:43:05.655082,-174
2021-12-27 14:43:05.655086,-172
2021-12-27 14:43:05.655090,-170
2021-12-27 14:43:05.655093,-165
2021-12-27 14:43:05.655097,-150
2021-12-27 14:43:05.655101,-139
2021-12-27 14:43:05.852541,-131
2021-12-27 14:43:05.852569,-124
2021-12-27 14:43:05.852578,-115
2021-12-27 14:43:05.852585,-110
2021-12-27 14:43:05.852592,-100
2021-12-27 14:43:05.852598,-91
2021-12-27 14:43:05.852605,-88
2021-12-27 14:43:05.852612,-88
2021-12-27 14:43:05.852619,-83
2021-12-27 14:43:05.852626,-76
2021-12-27 14:43:05.852632,-69
2021-12-27 14:43:05.852639,-69
2021-12-27 14:43:05.852646,-69
2021-12-27 14:43:05.852653,-64
2021-12-27 14:43:05.852659,-62
2021-12-27 14:43:05.852666,-59
2021-12-27 14:43:05.852673,-50
2021-12-27 14:43:05.852680,-45
2021-12-27 14:43:05.852686,-43
2021-12-27 14:43:05.852693,-33
2021-12-27 14:43:05.852700,-23
2021-12-27 14:43:05.852707,-23
2021-12-27 14:43:05.852714,-16
2021-12-27 14:43:05.852720,-7
2021-12-27 14:43:05.852727,-4
2021-12-27 14:43:05.852734,-9
2021-12-27 14:43:05.852741,-4
2021-12-27 14:43:05.852748,16
2021-12-27 14:43:05.852755,47
2021-12-27 14:43:05.852762,59
2021-12-27 14:43:06.095887,50
2021-12-27 14:43:06.095910,43
2021-12-27 14:43:06.095916,43
2021-12-27 14:43:06.095920,31
2021-12-27 14:43:06.095925,14
2021-12-27 14:43:06.095930,4
2021-12-27 14:43:06.095934,2
2021-12-27 14:43:06.095939,7
2021-12-27 14:43:06.095944,4
2021-12-27 14:43:06.095949,2
2021-12-27 14:43:06.095953,11
2021-12-27 14:43:06.095958,14
2021-12-27 14:43:06.095962,11
2021-12-27 14:43:06.095967,9
2021-12-27 14:43:06.095971,-9
2021-12-27 14:43:06.095976,-71
2021-12-27 14:43:06.095980,-83
2021-12-27 14:43:06.095989,220
2021-12-27 14:43:06.095993,1037
2021-12-27 14:43:06.095998,1888
2021-12-27 14:43:06.096002,1694
2021-12-27 14:43:06.096007,493
2021-12-27 14:43:06.096011,-304
2021-12-27 14:43:06.096016,-304
2021-12-27 14:43:06.096020,-222
2021-12-27 14:43:06.096025,-194
2021-12-27 14:43:06.096029,-55
2021-12-27 14:43:06.096034,31
2021-12-27 14:43:06.096039,7
2021-12-27 14:43:06.096043,19
2021-12-27 14:43:06.290592,62
2021-12-27 14:43:06.290610,74
2021-12-27 14:43:06.290616,81
2021-12-27 14:43:06.290621,107
2021-12-27 14:43:06.290625,131
2021-12-27 14:43:06.290630,153
2021-12-27 14:43:06.290634,172
2021-12-27 14:43:06.290639,189
2021-12-27 14:43:06.290643,220
2021-12-27 14:43:06.290648,251
2021-12-27 14:43:06.290652,273
2021-12-27 14:43:06.290657,311
2021-12-27 14:43:06.290661,359
2021-12-27 14:43:06.290666,388
2021-12-27 14:43:06.290670,405
2021-12-27 14:43:06.290675,424
2021-12-27 14:43:06.290679,431
2021-12-27 14:43:06.290684,426
2021-12-27 14:43:06.290688,419
2021-12-27 14:43:06.290692,395
2021-12-27 14:43:06.290697,349
2021-12-27 14:43:06.290701,275
2021-12-27 14:43:06.290706,184
2021-12-27 14:43:06.290710,88
2021-12-27 14:43:06.290715,0
2021-12-27 14:43:06.290719,-69
2021-12-27 14:43:06.290724,-119
2021-12-27 14:43:06.290728,-148
2021-12-27 14:43:06.290733,-167
2021-12-27 14:43:06.290737,-177
2021-12-27 14:43:06.582978,-174
2021-12-27 14:43:06.583000,-167
2021-12-27 14:43:06.583007,-165
2021-12-27 14:43:06.583012,-158
2021-12-27 14:43:06.583016,-150
2021-12-27 14:43:06.583021,-146
2021-12-27 14:43:06.583026,-134
2021-12-27 14:43:06.583030,-124
2021-12-27 14:43:06.583035,-122
2021-12-27 14:43:06.583039,-122
2021-12-27 14:43:06.583044,-119
2021-12-27 14:43:06.583048,-115
2021-12-27 14:43:06.583053,-110
2021-12-27 14:43:06.583057,-103
2021-12-27 14:43:06.583061,-95
2021-12-27 14:43:06.583066,-88
2021-12-27 14:43:06.583070,-91
2021-12-27 14:43:06.583075,-91
2021-12-27 14:43:06.583079,-86
2021-12-27 14:43:06.583083,-81
2021-12-27 14:43:06.583088,-76
2021-12-27 14:43:06.583092,-74
2021-12-27 14:43:06.583097,-64
2021-12-27 14:43:06.583101,-59
2021-12-27 14:43:06.583106,-62
2021-12-27 14:43:06.583110,-64
2021-12-27 14:43:06.583114,-59
2021-12-27 14:43:06.583119,-45
2021-12-27 14:43:06.583123,-16
2021-12-27 14:43:06.583132,11
2021-12-27 14:43:06.778671,9
2021-12-27 14:43:06.778694,-11
2021-12-27 14:43:06.778699,-16
2021-12-27 14:43:06.778704,-14
2021-12-27 14:43:06.778709,-26
2021-12-27 14:43:06.778713,-40
2021-12-27 14:43:06.778718,-45
2021-12-27 14:43:06.778723,-43
2021-12-27 14:43:06.778727,-43
2021-12-27 14:43:06.778732,-45
2021-12-27 14:43:06.778736,-45
2021-12-27 14:43:06.778741,-35
2021-12-27 14:43:06.778745,-31
2021-12-27 14:43:06.778750,-38
2021-12-27 14:43:06.778755,-62
2021-12-27 14:43:06.778759,-115
2021-12-27 14:43:06.778764,-158
2021-12-27 14:43:06.778768,28
2021-12-27 14:43:06.778773,740
2021-12-27 14:43:06.778778,1747
2021-12-27 14:43:06.778782,2015
2021-12-27 14:43:06.778787,1013
2021-12-27 14:43:06.778791,-127
2021-12-27 14:43:06.778796,-366
2021-12-27 14:43:06.778800,-237
2021-12-27 14:43:06.778805,-213
2021-12-27 14:43:06.778809,-119
2021-12-27 14:43:06.778814,-26
2021-12-27 14:43:06.778819,-40
2021-12-27 14:43:06.778823,-43
2021-12-27 14:43:07.022807,4
2021-12-27 14:43:07.022835,23
2021-12-27 14:43:07.022844,31
2021-12-27 14:43:07.022851,55
2021-12-27 14:43:07.022858,81
2021-12-27 14:43:07.022865,105
2021-12-27 14:43:07.022872,131
2021-12-27 14:43:07.022879,153
2021-12-27 14:43:07.022886,170
2021-12-27 14:43:07.022893,194
2021-12-27 14:43:07.022900,230
2021-12-27 14:43:07.022907,266
2021-12-27 14:43:07.022914,297
2021-12-27 14:43:07.022921,335
2021-12-27 14:43:07.022928,364
2021-12-27 14:43:07.022935,378
2021-12-27 14:43:07.022942,393
2021-12-27 14:43:07.022949,405
2021-12-27 14:43:07.022956,395
2021-12-27 14:43:07.022963,371
2021-12-27 14:43:07.022970,330
2021-12-27 14:43:07.022978,261
2021-12-27 14:43:07.022985,162
2021-12-27 14:43:07.022992,62
2021-12-27 14:43:07.022999,-28
2021-12-27 14:43:07.023006,-105
2021-12-27 14:43:07.023013,-160
2021-12-27 14:43:07.023020,-186
2021-12-27 14:43:07.023027,-198
2021-12-27 14:43:07.023034,-208
2021-12-27 14:43:07.266292,-206
2021-12-27 14:43:07.266321,-191
2021-12-27 14:43:07.266330,-182
2021-12-27 14:43:07.266337,-179
2021-12-27 14:43:07.266344,-172
2021-12-27 14:43:07.266351,-155
2021-12-27 14:43:07.266358,-143
2021-12-27 14:43:07.266365,-136
2021-12-27 14:43:07.266372,-127
2021-12-27 14:43:07.266379,-119
2021-12-27 14:43:07.266386,-117
2021-12-27 14:43:07.266392,-112
2021-12-27 14:43:07.266399,-105
2021-12-27 14:43:07.266406,-103
2021-12-27 14:43:07.266412,-100
2021-12-27 14:43:07.266419,-95
2021-12-27 14:43:07.266426,-95
2021-12-27 14:43:07.266433,-95
2021-12-27 14:43:07.266440,-91
2021-12-27 14:43:07.266446,-86
2021-12-27 14:43:07.266461,-86
2021-12-27 14:43:07.266468,-81
2021-12-27 14:43:07.266475,-76
2021-12-27 14:43:07.266482,-74
2021-12-27 14:43:07.266489,-71
2021-12-27 14:43:07.266496,-67
2021-12-27 14:43:07.266502,-57
2021-12-27 14:43:07.266510,-50
2021-12-27 14:43:07.266517,-50
2021-12-27 14:43:07.266524,-47
2021-12-27 14:43:07.460480,-45
2021-12-27 14:43:07.460502,-40
2021-12-27 14:43:07.460508,-43
2021-12-27 14:43:07.460513,-38
2021-12-27 14:43:07.460518,-7
2021-12-27 14:43:07.460523,26
2021-12-27 14:43:07.460527,28
2021-12-27 14:43:07.460532,9
2021-12-27 14:43:07.460536,7
2021-12-27 14:43:07.460541,9
2021-12-27 14:43:07.460545,-4
2021-12-27 14:43:07.460550,-19
2021-12-27 14:43:07.460555,-31
2021-12-27 14:43:07.460560,-38
2021-12-27 14:43:07.460564,-38
2021-12-27 14:43:07.460569,-35
2021-12-27 14:43:07.460574,-40
2021-12-27 14:43:07.460578,-40
2021-12-27 14:43:07.460583,-40
2021-12-27 14:43:07.460588,-40
2021-12-27 14:43:07.460592,-38
2021-12-27 14:43:07.460597,-67
2021-12-27 14:43:07.460601,-122
2021-12-27 14:43:07.460606,-112
2021-12-27 14:43:07.460610,206
2021-12-27 14:43:07.460615,1028
2021-12-27 14:43:07.460619,1864
2021-12-27 14:43:07.460624,1672
2021-12-27 14:43:07.460628,512
2021-12-27 14:43:07.460633,-268
2021-12-27 14:43:07.752131,-285
2021-12-27 14:43:07.752158,-213
2021-12-27 14:43:07.752167,-177
2021-12-27 14:43:07.752175,-59
2021-12-27 14:43:07.752182,-26
2021-12-27 14:43:07.752189,-55
2021-12-27 14:43:07.752196,-21
2021-12-27 14:43:07.752203,14
2021-12-27 14:43:07.752210,14
2021-12-27 14:43:07.752217,28
2021-12-27 14:43:07.752224,57
2021-12-27 14:43:07.752231,76
2021-12-27 14:43:07.752239,95
2021-12-27 14:43:07.752246,117
2021-12-27 14:43:07.752253,136
2021-12-27 14:43:07.752260,160
2021-12-27 14:43:07.752267,194
2021-12-27 14:43:07.752274,222
2021-12-27 14:43:07.752281,251
2021-12-27 14:43:07.752288,285
2021-12-27 14:43:07.752295,318
2021-12-27 14:43:07.752302,347
2021-12-27 14:43:07.752309,369
2021-12-27 14:43:07.752316,383
2021-12-27 14:43:07.752323,385
2021-12-27 14:43:07.752330,385
2021-12-27 14:43:07.752337,366
2021-12-27 14:43:07.752344,323
2021-12-27 14:43:07.752351,258
2021-12-27 14:43:07.752358,174
2021-12-27 14:43:07.948630,81
2021-12-27 14:43:07.948653,-4
2021-12-27 14:43:07.948660,-76
2021-12-27 14:43:07.948665,-131
2021-12-27 14:43:07.948670,-165
2021-12-27 14:43:07.948674,-177
2021-12-27 14:43:07.948679,-182
2021-12-27 14:43:07.948683,-184
2021-12-27 14:43:07.948688,-177
2021-12-27 14:43:07.948693,-170
2021-12-27 14:43:07.948697,-165
2021-12-27 14:43:07.948702,-153
2021-12-27 14:43:07.948706,-139
2021-12-27 14:43:07.948711,-127
2021-12-27 14:43:07.948716,-119
2021-12-27 14:43:07.948720,-119
2021-12-27 14:43:07.948725,-115
2021-12-27 14:43:07.948729,-105
2021-12-27 14:43:07.948734,-98
2021-12-27 14:43:07.948739,-98
2021-12-27 14:43:07.948743,-100
2021-12-27 14:43:07.948748,-100
2021-12-27 14:43:07.948756,-95
2021-12-27 14:43:07.948761,-93
2021-12-27 14:43:07.948765,-86
2021-12-27 14:43:07.948770,-76
2021-12-27 14:43:07.948774,-74
2021-12-27 14:43:07.948779,-69
2021-12-27 14:43:07.948784,-64
2021-12-27 14:43:07.948788,-62
2021-12-27 14:43:08.143717,-57
2021-12-27 14:43:08.143748,-52
2021-12-27 14:43:08.143757,-52
2021-12-27 14:43:08.143764,-50
2021-12-27 14:43:08.143771,-43
2021-12-27 14:43:08.143778,-38
2021-12-27 14:43:08.143785,-38
2021-12-27 14:43:08.143792,-31
2021-12-27 14:43:08.143799,-23
2021-12-27 14:43:08.143806,-21
2021-12-27 14:43:08.143813,-21
2021-12-27 14:43:08.143820,-21
2021-12-27 14:43:08.143827,-16
2021-12-27 14:43:08.143834,-16
2021-12-27 14:43:08.143841,-16
2021-12-27 14:43:08.143848,-4
2021-12-27 14:43:08.143855,23
2021-12-27 14:43:08.143862,50
2021-12-27 14:43:08.143869,47
2021-12-27 14:43:08.143876,33
2021-12-27 14:43:08.143883,31
2021-12-27 14:43:08.143890,23
2021-12-27 14:43:08.143897,4
2021-12-27 14:43:08.143904,-7
2021-12-27 14:43:08.143911,-11
2021-12-27 14:43:08.143918,-9
2021-12-27 14:43:08.143925,-4
2021-12-27 14:43:08.143932,-7
2021-12-27 14:43:08.143938,-9
2021-12-27 14:43:08.143945,0
2021-12-27 14:43:08.387344,9
2021-12-27 14:43:08.387372,9
2021-12-27 14:43:08.387381,0
2021-12-27 14:43:08.387388,-33
2021-12-27 14:43:08.387395,-81
2021-12-27 14:43:08.387402,-31
2021-12-27 14:43:08.387409,385
2021-12-27 14:43:08.387416,1258
2021-12-27 14:43:08.387423,1910
2021-12-27 14:43:08.387430,1406
2021-12-27 14:43:08.387437,249
2021-12-27 14:43:08.387444,-282
2021-12-27 14:43:08.387451,-227
2021-12-27 14:43:08.387458,-191
2021-12-27 14:43:08.387465,-127
2021-12-27 14:43:08.387472,-7
2021-12-27 14:43:08.387479,4
2021-12-27 14:43:08.387486,-16
2021-12-27 14:43:08.387493,19
2021-12-27 14:43:08.387500,45
2021-12-27 14:43:08.387507,47
2021-12-27 14:43:08.387514,69
2021-12-27 14:43:08.387521,95
2021-12-27 14:43:08.387528,112
2021-12-27 14:43:08.387535,124
2021-12-27 14:43:08.387542,143
2021-12-27 14:43:08.387549,162
2021-12-27 14:43:08.387556,182
2021-12-27 14:43:08.387563,210
2021-12-27 14:43:08.387570,244
2021-12-27 14:43:08.629374,278
2021-12-27 14:43:08.629392,309
2021-12-27 14:43:08.629397,337
2021-12-27 14:43:08.629402,364
2021-12-27 14:43:08.629407,378
2021-12-27 14:43:08.629411,385
2021-12-27 14:43:08.629416,393
2021-12-27 14:43:08.629421,388
2021-12-27 14:43:08.629425,357
2021-12-27 14:43:08.629430,313
2021-12-27 14:43:08.629434,254
2021-12-27 14:43:08.629439,174
2021-12-27 14:43:08.629444,83
2021-12-27 14:43:08.629448,0
2021-12-27 14:43:08.629453,-64
2021-12-27 14:43:08.629458,-115
2021-12-27 14:43:08.629462,-148
2021-12-27 14:43:08.629467,-162
2021-12-27 14:43:08.629471,-162
2021-12-27 14:43:08.629476,-160
2021-12-27 14:43:08.629480,-158
2021-12-27 14:43:08.629485,-150
2021-12-27 14:43:08.629489,-141
2021-12-27 14:43:08.629494,-129
2021-12-27 14:43:08.629498,-117
2021-12-27 14:43:08.629503,-107
2021-12-27 14:43:08.629507,-103
2021-12-27 14:43:08.629512,-100
2021-12-27 14:43:08.629516,-95
2021-12-27 14:43:08.629521,-86
2021-12-27 14:43:08.826215,-81
2021-12-27 14:43:08.826236,-76
2021-12-27 14:43:08.826241,-74
2021-12-27 14:43:08.826246,-79
2021-12-27 14:43:08.826251,-76
2021-12-27 14:43:08.826259,-69
2021-12-27 14:43:08.826264,-67
2021-12-27 14:43:08.826268,-62
2021-12-27 14:43:08.826273,-55
2021-12-27 14:43:08.826278,-59
2021-12-27 14:43:08.826282,-62
2021-12-27 14:43:08.826287,-52
2021-12-27 14:43:08.826291,-47
2021-12-27 14:43:08.826296,-45
2021-12-27 14:43:08.826301,-40
2021-12-27 14:43:08.826305,-35
2021-12-27 14:43:08.826310,-35
2021-12-27 14:43:08.826314,-31
2021-12-27 14:43:08.826319,-26
2021-12-27 14:43:08.826324,-19
2021-12-27 14:43:08.826328,-14
2021-12-27 14:43:08.826333,-11
2021-12-27 14:43:08.826337,-11
2021-12-27 14:43:08.826342,-4
2021-12-27 14:43:08.826346,2
2021-12-27 14:43:08.826351,4
2021-12-27 14:43:08.826355,4
2021-12-27 14:43:08.826360,4
2021-12-27 14:43:08.826365,7
2021-12-27 14:43:08.826369,7
2021-12-27 14:43:09.069878,7
2021-12-27 14:43:09.069901,2
2021-12-27 14:43:09.069907,-2
2021-12-27 14:43:09.069912,14
2021-12-27 14:43:09.069917,45
2021-12-27 14:43:09.069921,62
2021-12-27 14:43:09.069926,52
2021-12-27 14:43:09.069930,40
2021-12-27 14:43:09.069935,38
2021-12-27 14:43:09.069939,31
2021-12-27 14:43:09.069943,14
2021-12-27 14:43:09.069948,0
2021-12-27 14:43:09.069952,-7
2021-12-27 14:43:09.069957,-2
2021-12-27 14:43:09.069961,4
2021-12-27 14:43:09.069966,2
2021-12-27 14:43:09.069970,2
2021-12-27 14:43:09.069975,4
2021-12-27 14:43:09.069979,9
2021-12-27 14:43:09.069984,11
2021-12-27 14:43:09.069988,4
2021-12-27 14:43:09.069992,-28
2021-12-27 14:43:09.069997,-76
2021-12-27 14:43:09.070001,-9
2021-12-27 14:43:09.070006,448
2021-12-27 14:43:09.070010,1342
2021-12-27 14:43:09.070015,1914
2021-12-27 14:43:09.070019,1308
2021-12-27 14:43:09.070024,172
2021-12-27 14:43:09.070028,-275
2021-12-27 14:43:09.362519,-210
2021-12-27 14:43:09.362548,-186
2021-12-27 14:43:09.362557,-110
2021-12-27 14:43:09.362564,2
2021-12-27 14:43:09.362572,4
2021-12-27 14:43:09.362579,-11
2021-12-27 14:43:09.362586,21
2021-12-27 14:43:09.362593,40
2021-12-27 14:43:09.362600,45
2021-12-27 14:43:09.362607,69
2021-12-27 14:43:09.362646,93
2021-12-27 14:43:09.362653,107
2021-12-27 14:43:09.362660,122
2021-12-27 14:43:09.362667,141
2021-12-27 14:43:09.362674,162
2021-12-27 14:43:09.362681,184
2021-12-27 14:43:09.362688,208
2021-12-27 14:43:09.362694,239
2021-12-27 14:43:09.362701,268
2021-12-27 14:43:09.362708,297
2021-12-27 14:43:09.362715,323
2021-12-27 14:43:09.362721,347
2021-12-27 14:43:09.362728,361
2021-12-27 14:43:09.362735,371
2021-12-27 14:43:09.362742,371
2021-12-27 14:43:09.362748,364
2021-12-27 14:43:09.362755,347
2021-12-27 14:43:09.362762,313
2021-12-27 14:43:09.362769,258
2021-12-27 14:43:09.362776,184
2021-12-27 14:43:09.557185,100
2021-12-27 14:43:09.557213,23
2021-12-27 14:43:09.557221,-43
2021-12-27 14:43:09.557229,-93
2021-12-27 14:43:09.557236,-124
2021-12-27 14:43:09.557243,-141
2021-12-27 14:43:09.557250,-148
2021-12-27 14:43:09.557257,-148
2021-12-27 14:43:09.557264,-148
2021-12-27 14:43:09.557271,-146
2021-12-27 14:43:09.557278,-131
2021-12-27 14:43:09.557285,-117
2021-12-27 14:43:09.557292,-110
2021-12-27 14:43:09.557299,-100
2021-12-27 14:43:09.557306,-98
2021-12-27 14:43:09.557313,-95
2021-12-27 14:43:09.557320,-86
2021-12-27 14:43:09.557327,-76
2021-12-27 14:43:09.557334,-74
2021-12-27 14:43:09.557341,-69
2021-12-27 14:43:09.557348,-64
2021-12-27 14:43:09.557355,-64
2021-12-27 14:43:09.557362,-64
2021-12-27 14:43:09.557368,-59
2021-12-27 14:43:09.557375,-52
2021-12-27 14:43:09.557382,-47
2021-12-27 14:43:09.557389,-43
2021-12-27 14:43:09.557396,-45
2021-12-27 14:43:09.557403,-45
2021-12-27 14:43:09.557410,-38
2021-12-27 14:43:09.848350,-28
2021-12-27 14:43:09.848390,-21
2021-12-27 14:43:09.848399,-16
2021-12-27 14:43:09.848406,-16
2021-12-27 14:43:09.848413,-16
2021-12-27 14:43:09.848420,-11
2021-12-27 14:43:09.848427,-7
2021-12-27 14:43:09.848434,2
2021-12-27 14:43:09.848441,9
2021-12-27 14:43:09.848448,9
2021-12-27 14:43:09.848455,7
2021-12-27 14:43:09.848462,9
2021-12-27 14:43:09.848469,19
2021-12-27 14:43:09.848475,26
2021-12-27 14:43:09.848482,28
2021-12-27 14:43:09.848489,28
2021-12-27 14:43:09.848496,26
2021-12-27 14:43:09.848503,28
2021-12-27 14:43:09.848510,35
2021-12-27 14:43:09.848516,40
2021-12-27 14:43:09.848523,38
2021-12-27 14:43:09.848530,35
2021-12-27 14:43:09.848537,38
2021-12-27 14:43:09.848543,57
2021-12-27 14:43:09.848550,91
2021-12-27 14:43:09.848557,110
2021-12-27 14:43:09.848564,98
2021-12-27 14:43:09.848570,79
2021-12-27 14:43:09.848577,74
2021-12-27 14:43:09.848584,67
2021-12-27 14:43:09.996378,52
2021-12-27 14:43:09.996407,43
2021-12-27 14:43:09.996416,38
2021-12-27 14:43:09.996423,38
2021-12-27 14:43:09.996430,40
2021-12-27 14:43:09.996437,38
2021-12-27 14:43:09.996444,35
2021-12-27 14:43:09.996451,40
2021-12-27 14:43:09.996458,45
2021-12-27 14:43:09.996465,43
2021-12-27 14:43:09.996472,23
2021-12-27 14:43:09.996479,-23
2021-12-27 14:43:09.996486,-71
2021-12-27 14:43:09.996493,55
2021-12-27 14:43:09.996500,635
2021-12-27 14:43:09.996507,1567
2021-12-27 14:43:09.996514,1912
2021-12-27 14:43:09.996521,1018
2021-12-27 14:43:09.996529,-86
2021-12-27 14:43:09.996536,-342
2021-12-27 14:43:09.996543,-230
2021-12-27 14:43:09.996550,-220
2021-12-27 14:43:09.996557,-119
2021-12-27 14:43:09.996564,7
2021-12-27 14:43:09.996571,7
2021-12-27 14:43:09.996578,-7
2021-12-27 14:43:09.996584,38
2021-12-27 14:43:09.996592,62
2021-12-27 14:43:09.996599,64
2021-12-27 14:43:09.996606,88
2021-12-27 14:43:10.240059,112
2021-12-27 14:43:10.240086,127
2021-12-27 14:43:10.240096,148
2021-12-27 14:43:10.240103,177
2021-12-27 14:43:10.240110,201
2021-12-27 14:43:10.240117,227
2021-12-27 14:43:10.240124,254
2021-12-27 14:43:10.240131,278
2021-12-27 14:43:10.240138,304
2021-12-27 14:43:10.240144,330
2021-12-27 14:43:10.240151,359
2021-12-27 14:43:10.240158,381
2021-12-27 14:43:10.240165,390
2021-12-27 14:43:10.240172,388
2021-12-27 14:43:10.240179,381
2021-12-27 14:43:10.240186,369
2021-12-27 14:43:10.240193,349
2021-12-27 14:43:10.240200,311
2021-12-27 14:43:10.240207,246
2021-12-27 14:43:10.240213,162
2021-12-27 14:43:10.240220,74
2021-12-27 14:43:10.240227,-2
2021-12-27 14:43:10.240234,-64
2021-12-27 14:43:10.240241,-110
2021-12-27 14:43:10.240248,-136
2021-12-27 14:43:10.240255,-153
2021-12-27 14:43:10.240262,-160
2021-12-27 14:43:10.240268,-160
2021-12-27 14:43:10.240275,-153
2021-12-27 14:43:10.240282,-141
2021-12-27 14:43:10.434836,-131
2021-12-27 14:43:10.434864,-122
2021-12-27 14:43:10.434872,-115
2021-12-27 14:43:10.434879,-110
2021-12-27 14:43:10.434886,-103
2021-12-27 14:43:10.434893,-93
2021-12-27 14:43:10.434900,-88
2021-12-27 14:43:10.434907,-83
2021-12-27 14:43:10.434913,-81
2021-12-27 14:43:10.434920,-83
2021-12-27 14:43:10.434927,-83
2021-12-27 14:43:10.434934,-79
2021-12-27 14:43:10.434940,-76
2021-12-27 14:43:10.434947,-74
2021-12-27 14:43:10.434954,-74
2021-12-27 14:43:10.434961,-76
2021-12-27 14:43:10.434968,-76
2021-12-27 14:43:10.434975,-71
2021-12-27 14:43:10.434982,-69
2021-12-27 14:43:10.434989,-74
2021-12-27 14:43:10.434996,-76
2021-12-27 14:43:10.435002,-74
2021-12-27 14:43:10.435009,-71
2021-12-27 14:43:10.435016,-64
2021-12-27 14:43:10.435023,-59
2021-12-27 14:43:10.435030,-57
2021-12-27 14:43:10.435036,-55
2021-12-27 14:43:10.435044,-52
2021-12-27 14:43:10.435050,-52
2021-12-27 14:43:10.435057,-52
2021-12-27 14:43:10.679029,-47
2021-12-27 14:43:10.679058,-43
2021-12-27 14:43:10.679066,-38
2021-12-27 14:43:10.679073,-38
2021-12-27 14:43:10.679080,-40
2021-12-27 14:43:10.679087,-35
2021-12-27 14:43:10.679094,-31
2021-12-27 14:43:10.679100,-28
2021-12-27 14:43:10.679107,-31
2021-12-27 14:43:10.679114,-26
2021-12-27 14:43:10.679120,-7
2021-12-27 14:43:10.679137,26
2021-12-27 14:43:10.679145,33
2021-12-27 14:43:10.679152,9
2021-12-27 14:43:10.679159,-2
2021-12-27 14:43:10.679165,0
2021-12-27 14:43:10.679172,-16
2021-12-27 14:43:10.679179,-33
2021-12-27 14:43:10.679186,-38
2021-12-27 14:43:10.679193,-40
2021-12-27 14:43:10.679200,-35
2021-12-27 14:43:10.679207,-33
2021-12-27 14:43:10.679214,-33
2021-12-27 14:43:10.679220,-31
2021-12-27 14:43:10.679227,-26
2021-12-27 14:43:10.679234,-23
2021-12-27 14:43:10.679241,-26
2021-12-27 14:43:10.679248,-43
2021-12-27 14:43:10.679255,-91
2021-12-27 14:43:10.679262,-110
2021-12-27 14:43:10.921559,122
2021-12-27 14:43:10.921581,841
2021-12-27 14:43:10.921587,1732
2021-12-27 14:43:10.921592,1775
2021-12-27 14:43:10.921596,723
2021-12-27 14:43:10.921601,-186
2021-12-27 14:43:10.921606,-294
2021-12-27 14:43:10.921610,-210
2021-12-27 14:43:10.921615,-184
2021-12-27 14:43:10.921619,-69
2021-12-27 14:43:10.921624,-4
2021-12-27 14:43:10.921628,-33
2021-12-27 14:43:10.921633,-23
2021-12-27 14:43:10.921637,14
2021-12-27 14:43:10.921642,21
2021-12-27 14:43:10.921646,31
2021-12-27 14:43:10.921650,59
2021-12-27 14:43:10.921655,81
2021-12-27 14:43:10.921659,95
2021-12-27 14:43:10.921664,119
2021-12-27 14:43:10.921668,146
2021-12-27 14:43:10.921673,172
2021-12-27 14:43:10.921677,198
2021-12-27 14:43:10.921682,230
2021-12-27 14:43:10.921686,261
2021-12-27 14:43:10.921690,287
2021-12-27 14:43:10.921695,313
2021-12-27 14:43:10.921699,340
2021-12-27 14:43:10.921704,359
2021-12-27 14:43:10.921708,371
2021-12-27 14:43:11.165908,376
2021-12-27 14:43:11.165929,373
2021-12-27 14:43:11.165935,357
2021-12-27 14:43:11.165940,328
2021-12-27 14:43:11.165952,282
2021-12-27 14:43:11.165956,213
2021-12-27 14:43:11.165961,129
2021-12-27 14:43:11.165965,45
2021-12-27 14:43:11.165970,-28
2021-12-27 14:43:11.165974,-81
2021-12-27 14:43:11.165979,-117
2021-12-27 14:43:11.165983,-139
2021-12-27 14:43:11.165988,-148
2021-12-27 14:43:11.165992,-150
2021-12-27 14:43:11.165997,-153
2021-12-27 14:43:11.166001,-146
2021-12-27 14:43:11.166006,-134
2021-12-27 14:43:11.166010,-127
2021-12-27 14:43:11.166015,-117
2021-12-27 14:43:11.166019,-107
2021-12-27 14:43:11.166024,-100
2021-12-27 14:43:11.166028,-93
2021-12-27 14:43:11.166033,-83
2021-12-27 14:43:11.166037,-76
2021-12-27 14:43:11.166041,-69
2021-12-27 14:43:11.166046,-64
2021-12-27 14:43:11.166050,-62
2021-12-27 14:43:11.166055,-59
2021-12-27 14:43:11.166060,-55
2021-12-27 14:43:11.166064,-50
2021-12-27 14:43:11.410001,-45
2021-12-27 14:43:11.410029,-43
2021-12-27 14:43:11.410037,-43
2021-12-27 14:43:11.410045,-45
2021-12-27 14:43:11.410051,-40
2021-12-27 14:43:11.410058,-35
2021-12-27 14:43:11.410065,-33
2021-12-27 14:43:11.410072,-28
2021-12-27 14:43:11.410079,-28
2021-12-27 14:43:11.410085,-31
2021-12-27 14:43:11.410092,-28
2021-12-27 14:43:11.410099,-21
2021-12-27 14:43:11.410106,-16
2021-12-27 14:43:11.410113,-11
2021-12-27 14:43:11.410119,-9
2021-12-27 14:43:11.410126,-9
2021-12-27 14:43:11.410133,-14
2021-12-27 14:43:11.410140,-11
2021-12-27 14:43:11.410147,-11
2021-12-27 14:43:11.410154,-14
2021-12-27 14:43:11.410160,-16
2021-12-27 14:43:11.410167,-14
2021-12-27 14:43:11.410174,-11
2021-12-27 14:43:11.410181,-9
2021-12-27 14:43:11.410188,-4
2021-12-27 14:43:11.410195,-2
2021-12-27 14:43:11.410201,-2
2021-12-27 14:43:11.410208,0
2021-12-27 14:43:11.410215,2
2021-12-27 14:43:11.410222,-2
2021-12-27 14:43:11.604915,-9
2021-12-27 14:43:11.604937,-9
2021-12-27 14:43:11.604943,11
2021-12-27 14:43:11.604948,45
2021-12-27 14:43:11.604952,55
2021-12-27 14:43:11.604957,38
2021-12-27 14:43:11.604961,28
2021-12-27 14:43:11.604966,31
2021-12-27 14:43:11.604970,21
2021-12-27 14:43:11.604975,4
2021-12-27 14:43:11.604979,-4
2021-12-27 14:43:11.604984,-11
2021-12-27 14:43:11.604988,-4
2021-12-27 14:43:11.604993,2
2021-12-27 14:43:11.604997,0
2021-12-27 14:43:11.605002,0
2021-12-27 14:43:11.605006,4
2021-12-27 14:43:11.605011,4
2021-12-27 14:43:11.605016,-2
2021-12-27 14:43:11.605020,-19
2021-12-27 14:43:11.605024,-67
2021-12-27 14:43:11.605029,-91
2021-12-27 14:43:11.605034,131
2021-12-27 14:43:11.605038,838
2021-12-27 14:43:11.605043,1718
2021-12-27 14:43:11.605047,1768
2021-12-27 14:43:11.605052,738
2021-12-27 14:43:11.605056,-162
2021-12-27 14:43:11.605061,-268
2021-12-27 14:43:11.605066,-191
2021-12-27 14:43:11.896277,-172
2021-12-27 14:43:11.896297,-57
2021-12-27 14:43:11.896302,9
2021-12-27 14:43:11.896307,-19
2021-12-27 14:43:11.896311,-7
2021-12-27 14:43:11.896316,33
2021-12-27 14:43:11.896321,38
2021-12-27 14:43:11.896325,45
2021-12-27 14:43:11.896337,71
2021-12-27 14:43:11.896342,91
2021-12-27 14:43:11.896346,105
2021-12-27 14:43:11.896351,129
2021-12-27 14:43:11.896355,150
2021-12-27 14:43:11.896360,170
2021-12-27 14:43:11.896364,198
2021-12-27 14:43:11.896369,225
2021-12-27 14:43:11.896374,254
2021-12-27 14:43:11.896378,285
2021-12-27 14:43:11.896383,311
2021-12-27 14:43:11.896387,333
2021-12-27 14:43:11.896392,352
2021-12-27 14:43:11.896396,364
2021-12-27 14:43:11.896401,364
2021-12-27 14:43:11.896405,359
2021-12-27 14:43:11.896410,347
2021-12-27 14:43:11.896414,325
2021-12-27 14:43:11.896419,282
2021-12-27 14:43:11.896423,220
2021-12-27 14:43:11.896428,141
2021-12-27 14:43:11.896432,62
2021-12-27 14:43:12.044135,-9
2021-12-27 14:43:12.044163,-67
2021-12-27 14:43:12.044171,-112
2021-12-27 14:43:12.044178,-139
2021-12-27 14:43:12.044186,-150
2021-12-27 14:43:12.044193,-155
2021-12-27 14:43:12.044200,-160
2021-12-27 14:43:12.044207,-162
2021-12-27 14:43:12.044214,-155
2021-12-27 14:43:12.044221,-146
2021-12-27 14:43:12.044228,-134
2021-12-27 14:43:12.044235,-124
2021-12-27 14:43:12.044242,-112
2021-12-27 14:43:12.044249,-105
2021-12-27 14:43:12.044256,-103
2021-12-27 14:43:12.044263,-100
2021-12-27 14:43:12.044270,-93
2021-12-27 14:43:12.044277,-91
2021-12-27 14:43:12.044284,-88
2021-12-27 14:43:12.044291,-83
2021-12-27 14:43:12.044298,-83
2021-12-27 14:43:12.044305,-83
2021-12-27 14:43:12.044312,-79
2021-12-27 14:43:12.044319,-74
2021-12-27 14:43:12.044326,-76
2021-12-27 14:43:12.044333,-79
2021-12-27 14:43:12.044340,-76
2021-12-27 14:43:12.044347,-74
2021-12-27 14:43:12.044354,-71
2021-12-27 14:43:12.044361,-67
2021-12-27 14:43:12.384256,-62
2021-12-27 14:43:12.384284,-57
2021-12-27 14:43:12.384293,-55
2021-12-27 14:43:12.384300,-55
2021-12-27 14:43:12.384307,-55
2021-12-27 14:43:12.384315,-47
2021-12-27 14:43:12.384322,-40
2021-12-27 14:43:12.384329,-35
2021-12-27 14:43:12.384336,-33
2021-12-27 14:43:12.384343,-33
2021-12-27 14:43:12.384350,-33
2021-12-27 14:43:12.384357,-28
2021-12-27 14:43:12.384364,-21
2021-12-27 14:43:12.384371,-16
2021-12-27 14:43:12.384378,-14
2021-12-27 14:43:12.384385,-7
2021-12-27 14:43:12.384391,-4
2021-12-27 14:43:12.384398,-4
2021-12-27 14:43:12.384405,0
2021-12-27 14:43:12.384413,7
2021-12-27 14:43:12.384420,7
2021-12-27 14:43:12.384427,7
2021-12-27 14:43:12.384434,4
2021-12-27 14:43:12.384441,7
2021-12-27 14:43:12.384448,28
2021-12-27 14:43:12.384455,59
2021-12-27 14:43:12.384462,76
2021-12-27 14:43:12.384470,67
2021-12-27 14:43:12.384477,52
2021-12-27 14:43:12.384484,47
2021-12-27 14:43:12.531008,38
2021-12-27 14:43:12.531037,23
2021-12-27 14:43:12.531046,16
2021-12-27 14:43:12.531053,16
2021-12-27 14:43:12.531060,16
2021-12-27 14:43:12.531067,14
2021-12-27 14:43:12.531074,11
2021-12-27 14:43:12.531081,16
2021-12-27 14:43:12.531088,21
2021-12-27 14:43:12.531095,21
2021-12-27 14:43:12.531102,19
2021-12-27 14:43:12.531109,0
2021-12-27 14:43:12.531116,-50
2021-12-27 14:43:12.531123,-79
2021-12-27 14:43:12.531130,95
2021-12-27 14:43:12.531138,728
2021-12-27 14:43:12.531145,1644
2021-12-27 14:43:12.531152,1871
2021-12-27 14:43:12.531159,908
2021-12-27 14:43:12.531166,-115
2021-12-27 14:43:12.531173,-292
2021-12-27 14:43:12.531179,-191
2021-12-27 14:43:12.531186,-182
2021-12-27 14:43:12.531193,-71
2021-12-27 14:43:12.531200,26
2021-12-27 14:43:12.531207,4
2021-12-27 14:43:12.531214,0
2021-12-27 14:43:12.531221,50
2021-12-27 14:43:12.531228,67
2021-12-27 14:43:12.531235,69
2021-12-27 14:43:12.774973,93
2021-12-27 14:43:12.774995,119
2021-12-27 14:43:12.775001,139
2021-12-27 14:43:12.775005,155
2021-12-27 14:43:12.775010,179
2021-12-27 14:43:12.775014,208
2021-12-27 14:43:12.775019,232
2021-12-27 14:43:12.775023,261
2021-12-27 14:43:12.775028,289
2021-12-27 14:43:12.775033,316
2021-12-27 14:43:12.775037,347
2021-12-27 14:43:12.775042,381
2021-12-27 14:43:12.775046,400
2021-12-27 14:43:12.775051,407
2021-12-27 14:43:12.775055,407
2021-12-27 14:43:12.775060,405
2021-12-27 14:43:12.775064,395
2021-12-27 14:43:12.775069,373
2021-12-27 14:43:12.775074,335
2021-12-27 14:43:12.775078,263
2021-12-27 14:43:12.775083,167
2021-12-27 14:43:12.775087,86
2021-12-27 14:43:12.775092,14
2021-12-27 14:43:12.775096,-57
2021-12-27 14:43:12.775101,-105
2021-12-27 14:43:12.775106,-134
2021-12-27 14:43:12.775110,-160
2021-12-27 14:43:12.775115,-172
2021-12-27 14:43:12.775120,-162
2021-12-27 14:43:12.775124,-143
2021-12-27 14:43:12.970399,-143
2021-12-27 14:43:12.970427,-150
2021-12-27 14:43:12.970436,-148
2021-12-27 14:43:12.970443,-139
2021-12-27 14:43:12.970450,-122
2021-12-27 14:43:12.970456,-110
2021-12-27 14:43:12.970463,-107
2021-12-27 14:43:12.970470,-115
2021-12-27 14:43:12.970477,-107
2021-12-27 14:43:12.970484,-81
2021-12-27 14:43:12.970491,-74
2021-12-27 14:43:12.970497,-91
2021-12-27 14:43:12.970504,-103
2021-12-27 14:43:12.970511,-91
2021-12-27 14:43:12.970518,-67
2021-12-27 14:43:12.970525,-69
2021-12-27 14:43:12.970532,-93
2021-12-27 14:43:12.970539,-95
2021-12-27 14:43:12.970546,-88
2021-12-27 14:43:12.970553,-79
2021-12-27 14:43:12.970559,-62
2021-12-27 14:43:12.970566,-71
2021-12-27 14:43:12.970573,-81
2021-12-27 14:43:12.970588,-67
2021-12-27 14:43:12.970596,-74
2021-12-27 14:43:12.970603,-83
2021-12-27 14:43:12.970610,-55
2021-12-27 14:43:12.970617,-55
2021-12-27 14:43:12.970623,-83
2021-12-27 14:43:12.970630,-81
2021-12-27 14:43:13.213425,-57
2021-12-27 14:43:13.213445,-28
2021-12-27 14:43:13.213449,-28
2021-12-27 14:43:13.213453,-69
2021-12-27 14:43:13.213457,-81
2021-12-27 14:43:13.213461,-55
2021-12-27 14:43:13.213465,-67
2021-12-27 14:43:13.213468,-79
2021-12-27 14:43:13.213472,-47
2021-12-27 14:43:13.213476,-40
2021-12-27 14:43:13.213479,-59
2021-12-27 14:43:13.213483,-38
2021-12-27 14:43:13.213487,-14
2021-12-27 14:43:13.213490,-23
2021-12-27 14:43:13.213494,-23
2021-12-27 14:43:13.213497,-11
2021-12-27 14:43:13.213501,-4
2021-12-27 14:43:13.213505,-19
2021-12-27 14:43:13.213508,-57
2021-12-27 14:43:13.213512,-74
2021-12-27 14:43:13.213516,-59
2021-12-27 14:43:13.213519,-59
2021-12-27 14:43:13.213523,-64
2021-12-27 14:43:13.213526,-55
2021-12-27 14:43:13.213530,-38
2021-12-27 14:43:13.213533,-35
2021-12-27 14:43:13.213537,-47
2021-12-27 14:43:13.213540,-59
2021-12-27 14:43:13.213544,-83
2021-12-27 14:43:13.213547,-131
2021-12-27 14:43:13.457472,-105
2021-12-27 14:43:13.457499,270
2021-12-27 14:43:13.457508,1138
2021-12-27 14:43:13.457515,1883
2021-12-27 14:43:13.457522,1512
2021-12-27 14:43:13.457529,304
2021-12-27 14:43:13.457536,-369
2021-12-27 14:43:13.457543,-328
2021-12-27 14:43:13.457550,-270
2021-12-27 14:43:13.457557,-230
2021-12-27 14:43:13.457564,-71
2021-12-27 14:43:13.457571,0
2021-12-27 14:43:13.457578,-50
2021-12-27 14:43:13.457585,-40
2021-12-27 14:43:13.457592,19
2021-12-27 14:43:13.457599,23
2021-12-27 14:43:13.457606,16
2021-12-27 14:43:13.457613,38
2021-12-27 14:43:13.457620,76
2021-12-27 14:43:13.457627,122
2021-12-27 14:43:13.457634,134
2021-12-27 14:43:13.457640,146
2021-12-27 14:43:13.457647,189
2021-12-27 14:43:13.457654,194
2021-12-27 14:43:13.457661,184
2021-12-27 14:43:13.457668,254
2021-12-27 14:43:13.457675,313
2021-12-27 14:43:13.457682,282
2021-12-27 14:43:13.457689,266
2021-12-27 14:43:13.457696,330
2021-12-27 14:43:13.749804,376
2021-12-27 14:43:13.749833,371
2021-12-27 14:43:13.749841,354
2021-12-27 14:43:13.749848,330
2021-12-27 14:43:13.749855,287
2021-12-27 14:43:13.749862,225
2021-12-27 14:43:13.749869,141
2021-12-27 14:43:13.749876,40
2021-12-27 14:43:13.749883,-47
2021-12-27 14:43:13.749891,-112
2021-12-27 14:43:13.749897,-155
2021-12-27 14:43:13.749904,-182
2021-12-27 14:43:13.749911,-196
2021-12-27 14:43:13.749918,-198
2021-12-27 14:43:13.749925,-198
2021-12-27 14:43:13.749932,-208
2021-12-27 14:43:13.749939,-210
2021-12-27 14:43:13.749946,-191
2021-12-27 14:43:13.749953,-167
2021-12-27 14:43:13.749960,-160
2021-12-27 14:43:13.749967,-155
2021-12-27 14:43:13.749974,-143
2021-12-27 14:43:13.749981,-139
2021-12-27 14:43:13.749988,-136
2021-12-27 14:43:13.749995,-122
2021-12-27 14:43:13.750002,-105
2021-12-27 14:43:13.750009,-103
2021-12-27 14:43:13.750016,-122
2021-12-27 14:43:13.750023,-129
2021-12-27 14:43:13.750030,-86
2021-12-27 14:43:13.992761,-52
2021-12-27 14:43:13.992789,-74
2021-12-27 14:43:13.992798,-86
2021-12-27 14:43:13.992805,-64
2021-12-27 14:43:13.992812,-57
2021-12-27 14:43:13.992819,-67
2021-12-27 14:43:13.992826,-57
2021-12-27 14:43:13.992833,-40
2021-12-27 14:43:13.992840,-43
2021-12-27 14:43:13.992847,-64
2021-12-27 14:43:13.992854,-74
2021-12-27 14:43:13.992860,-40
2021-12-27 14:43:13.992867,0
2021-12-27 14:43:13.992874,-2
2021-12-27 14:43:13.992881,-19
2021-12-27 14:43:13.992888,-14
2021-12-27 14:43:13.992895,-4
2021-12-27 14:43:13.992902,-9
2021-12-27 14:43:13.992909,-26
2021-12-27 14:43:13.992916,-31
2021-12-27 14:43:13.992923,-4
2021-12-27 14:43:13.992930,23
2021-12-27 14:43:13.992938,19
2021-12-27 14:43:13.992944,-2
2021-12-27 14:43:13.992951,-9
2021-12-27 14:43:13.992958,-7
2021-12-27 14:43:13.992965,4
2021-12-27 14:43:13.992972,38
2021-12-27 14:43:13.992979,67
2021-12-27 14:43:13.992986,59
2021-12-27 14:43:14.188856,31
2021-12-27 14:43:14.188883,23
2021-12-27 14:43:14.188892,31
2021-12-27 14:43:14.188899,16
2021-12-27 14:43:14.188906,7
2021-12-27 14:43:14.188913,7
2021-12-27 14:43:14.188920,2
2021-12-27 14:43:14.188927,-2
2021-12-27 14:43:14.188934,-2
2021-12-27 14:43:14.188942,0
2021-12-27 14:43:14.188949,-2
2021-12-27 14:43:14.188956,-4
2021-12-27 14:43:14.188963,2
2021-12-27 14:43:14.188970,7
2021-12-27 14:43:14.188977,-21
2021-12-27 14:43:14.188983,-71
2021-12-27 14:43:14.188990,-50
2021-12-27 14:43:14.188997,278
2021-12-27 14:43:14.189004,1085
2021-12-27 14:43:14.189011,1874
2021-12-27 14:43:14.189017,1632
2021-12-27 14:43:14.189024,481
2021-12-27 14:43:14.189031,-242
2021-12-27 14:43:14.189038,-244
2021-12-27 14:43:14.189044,-184
2021-12-27 14:43:14.189051,-136
2021-12-27 14:43:14.189058,-14
2021-12-27 14:43:14.189065,19
2021-12-27 14:43:14.189071,-4
2021-12-27 14:43:14.189078,26
2021-12-27 14:43:14.432613,57
2021-12-27 14:43:14.432641,62
2021-12-27 14:43:14.432649,83
2021-12-27 14:43:14.432657,107
2021-12-27 14:43:14.432664,122
2021-12-27 14:43:14.432671,146
2021-12-27 14:43:14.432678,170
2021-12-27 14:43:14.432685,189
2021-12-27 14:43:14.432692,210
2021-12-27 14:43:14.432699,242
2021-12-27 14:43:14.432707,273
2021-12-27 14:43:14.432714,306
2021-12-27 14:43:14.432721,337
2021-12-27 14:43:14.432728,364
2021-12-27 14:43:14.432735,385
2021-12-27 14:43:14.432742,407
2021-12-27 14:43:14.432749,417
2021-12-27 14:43:14.432756,417
2021-12-27 14:43:14.432763,405
2021-12-27 14:43:14.432770,381
2021-12-27 14:43:14.432777,349
2021-12-27 14:43:14.432784,301
2021-12-27 14:43:14.432791,220
2021-12-27 14:43:14.432798,127
2021-12-27 14:43:14.432805,38
2021-12-27 14:43:14.432812,-31
2021-12-27 14:43:14.432819,-83
2021-12-27 14:43:14.432826,-122
2021-12-27 14:43:14.432833,-139
2021-12-27 14:43:14.432845,-143
2021-12-27 14:43:14.579282,-146
2021-12-27 14:43:14.579309,-141
2021-12-27 14:43:14.579317,-136
2021-12-27 14:43:14.579324,-129
2021-12-27 14:43:14.579331,-115
2021-12-27 14:43:14.579338,-100
2021-12-27 14:43:14.579345,-100
2021-12-27 14:43:14.579352,-95
2021-12-27 14:43:14.579359,-83
2021-12-27 14:43:14.579366,-76
2021-12-27 14:43:14.579373,-71
2021-12-27 14:43:14.579380,-62
2021-12-27 14:43:14.579386,-55
2021-12-27 14:43:14.579393,-47
2021-12-27 14:43:14.579400,-43
2021-12-27 14:43:14.579407,-45
2021-12-27 14:43:14.579414,-45
2021-12-27 14:43:14.579421,-38
2021-12-27 14:43:14.579428,-28
2021-12-27 14:43:14.579435,-28
2021-12-27 14:43:14.579442,-31
2021-12-27 14:43:14.579449,-28
2021-12-27 14:43:14.579456,-21
2021-12-27 14:43:14.579463,-14
2021-12-27 14:43:14.579470,-16
2021-12-27 14:43:14.579476,-11
2021-12-27 14:43:14.579483,-4
2021-12-27 14:43:14.579491,-4
2021-12-27 14:43:14.579498,-2
2021-12-27 14:43:14.579505,4
2021-12-27 14:43:14.920398,11
2021-12-27 14:43:14.920425,14
2021-12-27 14:43:14.920434,16
2021-12-27 14:43:14.920441,16
2021-12-27 14:43:14.920448,19
2021-12-27 14:43:14.920455,19
2021-12-27 14:43:14.920462,16
2021-12-27 14:43:14.920469,16
2021-12-27 14:43:14.920476,28
2021-12-27 14:43:14.920483,55
2021-12-27 14:43:14.920490,76
2021-12-27 14:43:14.920497,76
2021-12-27 14:43:14.920504,64
2021-12-27 14:43:14.920510,59
2021-12-27 14:43:14.920517,52
2021-12-27 14:43:14.920524,35
2021-12-27 14:43:14.920531,23
2021-12-27 14:43:14.920538,16
2021-12-27 14:43:14.920545,19
2021-12-27 14:43:14.920552,26
2021-12-27 14:43:14.920559,23
2021-12-27 14:43:14.920566,23
2021-12-27 14:43:14.920573,21
2021-12-27 14:43:14.920579,23
2021-12-27 14:43:14.920586,28
2021-12-27 14:43:14.920593,16
2021-12-27 14:43:14.920600,-26
2021-12-27 14:43:14.920607,-71
2021-12-27 14:43:14.920614,59
2021-12-27 14:43:14.920621,654
2021-12-27 14:43:15.115342,1603
2021-12-27 14:43:15.115370,1962
2021-12-27 14:43:15.115378,1068
2021-12-27 14:43:15.115385,-59
2021-12-27 14:43:15.115392,-333
2021-12-27 14:43:15.115399,-225
2021-12-27 14:43:15.115406,-210
2021-12-27 14:43:15.115413,-112
2021-12-27 14:43:15.115420,16
2021-12-27 14:43:15.115426,21
2021-12-27 14:43:15.115433,9
2021-12-27 14:43:15.115440,47
2021-12-27 14:43:15.115447,64
2021-12-27 14:43:15.115454,67
2021-12-27 14:43:15.115460,91
2021-12-27 14:43:15.115467,115
2021-12-27 14:43:15.115474,131
2021-12-27 14:43:15.115481,155
2021-12-27 14:43:15.115488,177
2021-12-27 14:43:15.115495,196
2021-12-27 14:43:15.115502,222
2021-12-27 14:43:15.115509,254
2021-12-27 14:43:15.115516,282
2021-12-27 14:43:15.115523,313
2021-12-27 14:43:15.115530,340
2021-12-27 14:43:15.115536,364
2021-12-27 14:43:15.115543,383
2021-12-27 14:43:15.115550,393
2021-12-27 14:43:15.115557,393
2021-12-27 14:43:15.115564,385
2021-12-27 14:43:15.309920,369
2021-12-27 14:43:15.309942,337
2021-12-27 14:43:15.309949,287
2021-12-27 14:43:15.309954,208
2021-12-27 14:43:15.309959,117
2021-12-27 14:43:15.309964,31
2021-12-27 14:43:15.309969,-43
2021-12-27 14:43:15.309974,-105
2021-12-27 14:43:15.309979,-146
2021-12-27 14:43:15.309983,-167
2021-12-27 14:43:15.309987,-179
2021-12-27 14:43:15.309991,-182
2021-12-27 14:43:15.309996,-179
2021-12-27 14:43:15.310000,-177
2021-12-27 14:43:15.310005,-172
2021-12-27 14:43:15.310009,-165
2021-12-27 14:43:15.310014,-155
2021-12-27 14:43:15.310018,-146
2021-12-27 14:43:15.310022,-139
2021-12-27 14:43:15.310027,-136
2021-12-27 14:43:15.310031,-134
2021-12-27 14:43:15.310035,-131
2021-12-27 14:43:15.310040,-124
2021-12-27 14:43:15.310044,-117
2021-12-27 14:43:15.310049,-110
2021-12-27 14:43:15.310053,-107
2021-12-27 14:43:15.310057,-103
2021-12-27 14:43:15.310062,-98
2021-12-27 14:43:15.310066,-95
2021-12-27 14:43:15.310071,-93
2021-12-27 14:43:15.505537,-91
2021-12-27 14:43:15.505565,-88
2021-12-27 14:43:15.505574,-86
2021-12-27 14:43:15.505581,-83
2021-12-27 14:43:15.505588,-81
2021-12-27 14:43:15.505594,-74
2021-12-27 14:43:15.505601,-69
2021-12-27 14:43:15.505609,-69
2021-12-27 14:43:15.505615,-69
2021-12-27 14:43:15.505622,-69
2021-12-27 14:43:15.505629,-64
2021-12-27 14:43:15.505636,-59
2021-12-27 14:43:15.505643,-52
2021-12-27 14:43:15.505650,-52
2021-12-27 14:43:15.505657,-52
2021-12-27 14:43:15.505663,-52
2021-12-27 14:43:15.505670,-50
2021-12-27 14:43:15.505677,-47
2021-12-27 14:43:15.505684,-50
2021-12-27 14:43:15.505691,-52
2021-12-27 14:43:15.505730,-45
2021-12-27 14:43:15.505737,-26
2021-12-27 14:43:15.505744,7
2021-12-27 14:43:15.505751,21
2021-12-27 14:43:15.505758,4
2021-12-27 14:43:15.505765,-4
2021-12-27 14:43:15.505772,-2
2021-12-27 14:43:15.505779,-14
2021-12-27 14:43:15.505786,-28
2021-12-27 14:43:15.505793,-33
2021-12-27 14:43:15.748817,-33
2021-12-27 14:43:15.748840,-28
2021-12-27 14:43:15.748846,-23
2021-12-27 14:43:15.748851,-28
2021-12-27 14:43:15.748856,-31
2021-12-27 14:43:15.748861,-26
2021-12-27 14:43:15.748865,-16
2021-12-27 14:43:15.748870,-21
2021-12-27 14:43:15.748874,-50
2021-12-27 14:43:15.748879,-103
2021-12-27 14:43:15.748883,-107
2021-12-27 14:43:15.748887,177
2021-12-27 14:43:15.748892,951
2021-12-27 14:43:15.748897,1807
2021-12-27 14:43:15.748902,1725
2021-12-27 14:43:15.748907,613
2021-12-27 14:43:15.748911,-234
2021-12-27 14:43:15.748916,-289
2021-12-27 14:43:15.748921,-210
2021-12-27 14:43:15.748925,-184
2021-12-27 14:43:15.748930,-69
2021-12-27 14:43:15.748934,-9
2021-12-27 14:43:15.748939,-26
2021-12-27 14:43:15.748943,-11
2021-12-27 14:43:15.748947,19
2021-12-27 14:43:15.748952,31
2021-12-27 14:43:15.748957,50
2021-12-27 14:43:15.748962,74
2021-12-27 14:43:15.748967,93
2021-12-27 14:43:15.748972,112
2021-12-27 14:43:16.039559,134
2021-12-27 14:43:16.039580,162
2021-12-27 14:43:16.039586,189
2021-12-27 14:43:16.039590,215
2021-12-27 14:43:16.039595,244
2021-12-27 14:43:16.039600,273
2021-12-27 14:43:16.039604,299
2021-12-27 14:43:16.039609,333
2021-12-27 14:43:16.039613,361
2021-12-27 14:43:16.039618,378
2021-12-27 14:43:16.039622,388
2021-12-27 14:43:16.039627,388
2021-12-27 14:43:16.039631,376
2021-12-27 14:43:16.039636,357
2021-12-27 14:43:16.039640,323
2021-12-27 14:43:16.039645,261
2021-12-27 14:43:16.039649,172
2021-12-27 14:43:16.039654,83
2021-12-27 14:43:16.039658,2
2021-12-27 14:43:16.039663,-69
2021-12-27 14:43:16.039667,-122
2021-12-27 14:43:16.039672,-153
2021-12-27 14:43:16.039676,-177
2021-12-27 14:43:16.039681,-191
2021-12-27 14:43:16.039685,-196
2021-12-27 14:43:16.039690,-191
2021-12-27 14:43:16.039694,-184
2021-12-27 14:43:16.039699,-177
2021-12-27 14:43:16.039707,-162
2021-12-27 14:43:16.039715,-153
2021-12-27 14:43:16.284729,-153
2021-12-27 14:43:16.284751,-148
2021-12-27 14:43:16.284756,-139
2021-12-27 14:43:16.284761,-134
2021-12-27 14:43:16.284766,-129
2021-12-27 14:43:16.284770,-119
2021-12-27 14:43:16.284775,-117
2021-12-27 14:43:16.284779,-122
2021-12-27 14:43:16.284784,-115
2021-12-27 14:43:16.284788,-105
2021-12-27 14:43:16.284792,-100
2021-12-27 14:43:16.284797,-100
2021-12-27 14:43:16.284801,-98
2021-12-27 14:43:16.284806,-95
2021-12-27 14:43:16.284810,-93
2021-12-27 14:43:16.284815,-91
2021-12-27 14:43:16.284819,-86
2021-12-27 14:43:16.284824,-81
2021-12-27 14:43:16.284828,-76
2021-12-27 14:43:16.284833,-71
2021-12-27 14:43:16.284837,-67
2021-12-27 14:43:16.284842,-62
2021-12-27 14:43:16.284846,-62
2021-12-27 14:43:16.284850,-55
2021-12-27 14:43:16.284855,-47
2021-12-27 14:43:16.284859,-43
2021-12-27 14:43:16.284864,-40
2021-12-27 14:43:16.284868,-33
2021-12-27 14:43:16.284873,-31
2021-12-27 14:43:16.284877,-33
2021-12-27 14:43:16.431309,-28
2021-12-27 14:43:16.431338,-21
2021-12-27 14:43:16.431346,-23
2021-12-27 14:43:16.431353,-28
2021-12-27 14:43:16.431360,-19
2021-12-27 14:43:16.431367,9
2021-12-27 14:43:16.431374,45
2021-12-27 14:43:16.431381,52
2021-12-27 14:43:16.431388,33
2021-12-27 14:43:16.431394,26
2021-12-27 14:43:16.431401,23
2021-12-27 14:43:16.431408,11
2021-12-27 14:43:16.431415,-2
2021-12-27 14:43:16.431422,-7
2021-12-27 14:43:16.431429,-4
2021-12-27 14:43:16.431435,-7
2021-12-27 14:43:16.431442,-9
2021-12-27 14:43:16.431449,-7
2021-12-27 14:43:16.431456,-2
2021-12-27 14:43:16.431463,-2
2021-12-27 14:43:16.431469,0
2021-12-27 14:43:16.431476,-7
2021-12-27 14:43:16.431483,-40
2021-12-27 14:43:16.431490,-88
2021-12-27 14:43:16.431497,-55
2021-12-27 14:43:16.431504,309
2021-12-27 14:43:16.431510,1152
2021-12-27 14:43:16.431517,1902
2021-12-27 14:43:16.431524,1553
2021-12-27 14:43:16.431531,373
2021-12-27 14:43:16.674904,-287
2021-12-27 14:43:16.674931,-258
2021-12-27 14:43:16.674940,-208
2021-12-27 14:43:16.674947,-162
2021-12-27 14:43:16.674954,-40
2021-12-27 14:43:16.674961,-9
2021-12-27 14:43:16.674968,-35
2021-12-27 14:43:16.674975,-7
2021-12-27 14:43:16.674982,31
2021-12-27 14:43:16.674990,38
2021-12-27 14:43:16.674996,52
2021-12-27 14:43:16.675003,69
2021-12-27 14:43:16.675010,88
2021-12-27 14:43:16.675017,112
2021-12-27 14:43:16.675024,136
2021-12-27 14:43:16.675030,158
2021-12-27 14:43:16.675037,184
2021-12-27 14:43:16.675044,215
2021-12-27 14:43:16.675051,246
2021-12-27 14:43:16.675058,278
2021-12-27 14:43:16.675065,311
2021-12-27 14:43:16.675072,337
2021-12-27 14:43:16.675079,361
2021-12-27 14:43:16.675085,381
2021-12-27 14:43:16.675092,390
2021-12-27 14:43:16.675099,390
2021-12-27 14:43:16.675106,381
2021-12-27 14:43:16.675113,361
2021-12-27 14:43:16.675120,325
2021-12-27 14:43:16.675127,263
2021-12-27 14:43:16.918879,177
2021-12-27 14:43:16.918906,88
2021-12-27 14:43:16.918915,9
2021-12-27 14:43:16.918922,-62
2021-12-27 14:43:16.918929,-117
2021-12-27 14:43:16.918937,-150
2021-12-27 14:43:16.918944,-172
2021-12-27 14:43:16.918950,-182
2021-12-27 14:43:16.918957,-182
2021-12-27 14:43:16.918964,-174
2021-12-27 14:43:16.918971,-165
2021-12-27 14:43:16.918978,-155
2021-12-27 14:43:16.918985,-148
2021-12-27 14:43:16.918992,-141
2021-12-27 14:43:16.918999,-131
2021-12-27 14:43:16.919006,-119
2021-12-27 14:43:16.919013,-112
2021-12-27 14:43:16.919020,-105
2021-12-27 14:43:16.919027,-95
2021-12-27 14:43:16.919034,-91
2021-12-27 14:43:16.919041,-91
2021-12-27 14:43:16.919048,-88
2021-12-27 14:43:16.919054,-83
2021-12-27 14:43:16.919061,-81
2021-12-27 14:43:16.919068,-81
2021-12-27 14:43:16.919075,-81
2021-12-27 14:43:16.919082,-81
2021-12-27 14:43:16.919089,-76
2021-12-27 14:43:16.919096,-74
2021-12-27 14:43:16.919103,-71
2021-12-27 14:43:17.114044,-67
2021-12-27 14:43:17.114071,-59
2021-12-27 14:43:17.114081,-62
2021-12-27 14:43:17.114088,-69
2021-12-27 14:43:17.114095,-71
2021-12-27 14:43:17.114102,-67
2021-12-27 14:43:17.114109,-64
2021-12-27 14:43:17.114116,-62
2021-12-27 14:43:17.114123,-64
2021-12-27 14:43:17.114130,-62
2021-12-27 14:43:17.114137,-52
2021-12-27 14:43:17.114144,-40
2021-12-27 14:43:17.114151,-33
2021-12-27 14:43:17.114158,-35
2021-12-27 14:43:17.114165,-38
2021-12-27 14:43:17.114172,-33
2021-12-27 14:43:17.114179,-23
2021-12-27 14:43:17.114186,-21
2021-12-27 14:43:17.114193,-26
2021-12-27 14:43:17.114200,-19
2021-12-27 14:43:17.114207,11
2021-12-27 14:43:17.114214,45
2021-12-27 14:43:17.114221,50
2021-12-27 14:43:17.114228,35
2021-12-27 14:43:17.114234,33
2021-12-27 14:43:17.114241,31
2021-12-27 14:43:17.114248,19
2021-12-27 14:43:17.114255,2
2021-12-27 14:43:17.114262,-7
2021-12-27 14:43:17.114269,-4
2021-12-27 14:43:17.356802,0
2021-12-27 14:43:17.356824,0
2021-12-27 14:43:17.356830,0
2021-12-27 14:43:17.356835,2
2021-12-27 14:43:17.356840,2
2021-12-27 14:43:17.356844,7
2021-12-27 14:43:17.356849,0
2021-12-27 14:43:17.356854,-31
2021-12-27 14:43:17.356858,-79
2021-12-27 14:43:17.356863,-62
2021-12-27 14:43:17.356867,275
2021-12-27 14:43:17.356872,1112
2021-12-27 14:43:17.356877,1893
2021-12-27 14:43:17.356881,1591
2021-12-27 14:43:17.356886,409
2021-12-27 14:43:17.356890,-294
2021-12-27 14:43:17.356895,-270
2021-12-27 14:43:17.356899,-203
2021-12-27 14:43:17.356904,-158
2021-12-27 14:43:17.356908,-26
2021-12-27 14:43:17.356913,19
2021-12-27 14:43:17.356917,-4
2021-12-27 14:43:17.356922,21
2021-12-27 14:43:17.356926,59
2021-12-27 14:43:17.356931,69
2021-12-27 14:43:17.356935,88
2021-12-27 14:43:17.356940,115
2021-12-27 14:43:17.356944,136
2021-12-27 14:43:17.356949,158
2021-12-27 14:43:17.356953,177
2021-12-27 14:43:17.601642,203
2021-12-27 14:43:17.601670,237
2021-12-27 14:43:17.601679,268
2021-12-27 14:43:17.601687,301
2021-12-27 14:43:17.601694,333
2021-12-27 14:43:17.601701,364
2021-12-27 14:43:17.601708,397
2021-12-27 14:43:17.601715,428
2021-12-27 14:43:17.601722,443
2021-12-27 14:43:17.601728,445
2021-12-27 14:43:17.601735,440
2021-12-27 14:43:17.601742,428
2021-12-27 14:43:17.601749,409
2021-12-27 14:43:17.601757,373
2021-12-27 14:43:17.601763,304
2021-12-27 14:43:17.601770,210
2021-12-27 14:43:17.601777,112
2021-12-27 14:43:17.601785,23
2021-12-27 14:43:17.601792,-50
2021-12-27 14:43:17.601799,-103
2021-12-27 14:43:17.601806,-134
2021-12-27 14:43:17.601813,-158
2021-12-27 14:43:17.601820,-172
2021-12-27 14:43:17.601827,-170
2021-12-27 14:43:17.601834,-162
2021-12-27 14:43:17.601841,-155
2021-12-27 14:43:17.601848,-146
2021-12-27 14:43:17.601855,-131
2021-12-27 14:43:17.601862,-119
2021-12-27 14:43:17.601869,-112
2021-12-27 14:43:17.893940,-110
2021-12-27 14:43:17.893968,-100
2021-12-27 14:43:17.893976,-88
2021-12-27 14:43:17.893984,-83
2021-12-27 14:43:17.893991,-79
2021-12-27 14:43:17.893998,-71
2021-12-27 14:43:17.894005,-71
2021-12-27 14:43:17.894012,-74
2021-12-27 14:43:17.894019,-69
2021-12-27 14:43:17.894026,-64
2021-12-27 14:43:17.894033,-62
2021-12-27 14:43:17.894040,-59
2021-12-27 14:43:17.894047,-62
2021-12-27 14:43:17.894053,-67
2021-12-27 14:43:17.894060,-71
2021-12-27 14:43:17.894067,-69
2021-12-27 14:43:17.894074,-64
2021-12-27 14:43:17.894081,-64
2021-12-27 14:43:17.894088,-62
2021-12-27 14:43:17.894095,-62
2021-12-27 14:43:17.894102,-59
2021-12-27 14:43:17.894109,-57
2021-12-27 14:43:17.894116,-55
2021-12-27 14:43:17.894128,-55
2021-12-27 14:43:17.894135,-47
2021-12-27 14:43:17.894142,-40
2021-12-27 14:43:17.894149,-38
2021-12-27 14:43:17.894156,-40
2021-12-27 14:43:17.894163,-43
2021-12-27 14:43:17.894170,-43
2021-12-27 14:43:18.087599,-23
2021-12-27 14:43:18.087630,16
2021-12-27 14:43:18.087639,38
2021-12-27 14:43:18.087646,21
2021-12-27 14:43:18.087653,7
2021-12-27 14:43:18.087660,11
2021-12-27 14:43:18.087667,2
2021-12-27 14:43:18.087674,-16
2021-12-27 14:43:18.087681,-31
2021-12-27 14:43:18.087688,-38
2021-12-27 14:43:18.087695,-35
2021-12-27 14:43:18.087702,-26
2021-12-27 14:43:18.087710,-21
2021-12-27 14:43:18.087716,-28
2021-12-27 14:43:18.087723,-33
2021-12-27 14:43:18.087730,-33
2021-12-27 14:43:18.087737,-35
2021-12-27 14:43:18.087744,-47
2021-12-27 14:43:18.087751,-93
2021-12-27 14:43:18.087758,-131
2021-12-27 14:43:18.087765,64
2021-12-27 14:43:18.087805,764
2021-12-27 14:43:18.087812,1706
2021-12-27 14:43:18.087819,1847
2021-12-27 14:43:18.087826,800
2021-12-27 14:43:18.087833,-208
2021-12-27 14:43:18.087840,-357
2021-12-27 14:43:18.087847,-258
2021-12-27 14:43:18.087855,-242
2021-12-27 14:43:18.087862,-122
2021-12-27 14:43:18.283375,-21
2021-12-27 14:43:18.283397,-38
2021-12-27 14:43:18.283403,-40
2021-12-27 14:43:18.283408,0
2021-12-27 14:43:18.283412,14
2021-12-27 14:43:18.283417,26
2021-12-27 14:43:18.283422,52
2021-12-27 14:43:18.283427,76
2021-12-27 14:43:18.283431,93
2021-12-27 14:43:18.283436,110
2021-12-27 14:43:18.283440,131
2021-12-27 14:43:18.283445,155
2021-12-27 14:43:18.283450,189
2021-12-27 14:43:18.283454,222
2021-12-27 14:43:18.283459,254
2021-12-27 14:43:18.283463,282
2021-12-27 14:43:18.283468,309
2021-12-27 14:43:18.283473,335
2021-12-27 14:43:18.283477,357
2021-12-27 14:43:18.283482,366
2021-12-27 14:43:18.283486,369
2021-12-27 14:43:18.283491,361
2021-12-27 14:43:18.283495,342
2021-12-27 14:43:18.283500,306
2021-12-27 14:43:18.283504,251
2021-12-27 14:43:18.283509,170
2021-12-27 14:43:18.283514,79
2021-12-27 14:43:18.283518,-4
2021-12-27 14:43:18.283523,-71
2021-12-27 14:43:18.283527,-122
2021-12-27 14:43:18.526679,-158
2021-12-27 14:43:18.526702,-172
2021-12-27 14:43:18.526707,-174
2021-12-27 14:43:18.526712,-172
2021-12-27 14:43:18.526717,-167
2021-12-27 14:43:18.526721,-165
2021-12-27 14:43:18.526726,-158
2021-12-27 14:43:18.526730,-143
2021-12-27 14:43:18.526735,-131
2021-12-27 14:43:18.526740,-124
2021-12-27 14:43:18.526744,-115
2021-12-27 14:43:18.526748,-105
2021-12-27 14:43:18.526753,-98
2021-12-27 14:43:18.526757,-91
2021-12-27 14:43:18.526762,-83
2021-12-27 14:43:18.526766,-81
2021-12-27 14:43:18.526771,-79
2021-12-27 14:43:18.526776,-74
2021-12-27 14:43:18.526780,-74
2021-12-27 14:43:18.526785,-74
2021-12-27 14:43:18.526789,-76
2021-12-27 14:43:18.526794,-79
2021-12-27 14:43:18.526798,-74
2021-12-27 14:43:18.526803,-71
2021-12-27 14:43:18.526807,-69
2021-12-27 14:43:18.526812,-64
2021-12-27 14:43:18.526816,-59
2021-12-27 14:43:18.526821,-57
2021-12-27 14:43:18.526825,-52
2021-12-27 14:43:18.526830,-47
2021-12-27 14:43:18.770585,-47
2021-12-27 14:43:18.770605,-45
2021-12-27 14:43:18.770610,-43
2021-12-27 14:43:18.770615,-47
2021-12-27 14:43:18.770620,-47
2021-12-27 14:43:18.770624,-40
2021-12-27 14:43:18.770629,-40
2021-12-27 14:43:18.770633,-47
2021-12-27 14:43:18.770638,-43
2021-12-27 14:43:18.770642,-33
2021-12-27 14:43:18.770647,-28
2021-12-27 14:43:18.770651,-26
2021-12-27 14:43:18.770656,-26
2021-12-27 14:43:18.770660,-28
2021-12-27 14:43:18.770665,-33
2021-12-27 14:43:18.770669,-33
2021-12-27 14:43:18.770674,-16
2021-12-27 14:43:18.770678,19
2021-12-27 14:43:18.770683,40
2021-12-27 14:43:18.770688,26
2021-12-27 14:43:18.770692,7
2021-12-27 14:43:18.770697,7
2021-12-27 14:43:18.770701,2
2021-12-27 14:43:18.770705,-9
2021-12-27 14:43:18.770710,-19
2021-12-27 14:43:18.770715,-23
2021-12-27 14:43:18.770719,-23
2021-12-27 14:43:18.770724,-21
2021-12-27 14:43:18.770729,-19
2021-12-27 14:43:18.770733,-14
2021-12-27 14:43:18.966379,-9
2021-12-27 14:43:18.966407,-4
2021-12-27 14:43:18.966416,-7
2021-12-27 14:43:18.966423,-21
2021-12-27 14:43:18.966431,-59
2021-12-27 14:43:18.966438,-100
2021-12-27 14:43:18.966445,26
2021-12-27 14:43:18.966453,599
2021-12-27 14:43:18.966460,1536
2021-12-27 14:43:18.966467,1941
2021-12-27 14:43:18.966474,1126
2021-12-27 14:43:18.966481,16
2021-12-27 14:43:18.966488,-299
2021-12-27 14:43:18.966495,-210
2021-12-27 14:43:18.966502,-194
2021-12-27 14:43:18.966509,-107
2021-12-27 14:43:18.966516,-9
2021-12-27 14:43:18.966523,-19
2021-12-27 14:43:18.966530,-28
2021-12-27 14:43:18.966537,14
2021-12-27 14:43:18.966544,33
2021-12-27 14:43:18.966551,38
2021-12-27 14:43:18.966558,57
2021-12-27 14:43:18.966566,83
2021-12-27 14:43:18.966573,103
2021-12-27 14:43:18.966580,122
2021-12-27 14:43:18.966587,139
2021-12-27 14:43:18.966594,160
2021-12-27 14:43:18.966601,189
2021-12-27 14:43:18.966608,220
2021-12-27 14:43:19.209734,254
2021-12-27 14:43:19.209756,289
2021-12-27 14:43:19.209762,323
2021-12-27 14:43:19.209767,349
2021-12-27 14:43:19.209772,371
2021-12-27 14:43:19.209776,385
2021-12-27 14:43:19.209781,395
2021-12-27 14:43:19.209785,397
2021-12-27 14:43:19.209790,385
2021-12-27 14:43:19.209794,354
2021-12-27 14:43:19.209799,304
2021-12-27 14:43:19.209803,227
2021-12-27 14:43:19.209808,136
2021-12-27 14:43:19.209812,50
2021-12-27 14:43:19.209817,-26
2021-12-27 14:43:19.209821,-86
2021-12-27 14:43:19.209826,-131
2021-12-27 14:43:19.209830,-158
2021-12-27 14:43:19.209835,-170
2021-12-27 14:43:19.209839,-170
2021-12-27 14:43:19.209844,-167
2021-12-27 14:43:19.209848,-160
2021-12-27 14:43:19.209853,-150
2021-12-27 14:43:19.209857,-141
2021-12-27 14:43:19.209861,-134
2021-12-27 14:43:19.209866,-119
2021-12-27 14:43:19.209870,-100
2021-12-27 14:43:19.209875,-95
2021-12-27 14:43:19.209880,-100
2021-12-27 14:43:19.209884,-98
2021-12-27 14:43:19.452800,-86
2021-12-27 14:43:19.452819,-79
2021-12-27 14:43:19.452825,-79
2021-12-27 14:43:19.452830,-74
2021-12-27 14:43:19.452835,-69
2021-12-27 14:43:19.452839,-69
2021-12-27 14:43:19.452844,-71
2021-12-27 14:43:19.452849,-69
2021-12-27 14:43:19.452853,-62
2021-12-27 14:43:19.452858,-59
2021-12-27 14:43:19.452863,-57
2021-12-27 14:43:19.452867,-55
2021-12-27 14:43:19.452872,-57
2021-12-27 14:43:19.452876,-57
2021-12-27 14:43:19.452881,-50
2021-12-27 14:43:19.452885,-47
2021-12-27 14:43:19.452890,-47
2021-12-27 14:43:19.452894,-45
2021-12-27 14:43:19.452899,-43
2021-12-27 14:43:19.452903,-45
2021-12-27 14:43:19.452908,-43
2021-12-27 14:43:19.452912,-38
2021-12-27 14:43:19.452917,-35
2021-12-27 14:43:19.452921,-35
2021-12-27 14:43:19.452926,-31
2021-12-27 14:43:19.452930,-28
2021-12-27 14:43:19.452935,-28
2021-12-27 14:43:19.452939,-28
2021-12-27 14:43:19.452944,-26
2021-12-27 14:43:19.452948,-21
2021-12-27 14:43:19.697292,-21
2021-12-27 14:43:19.697315,-23
2021-12-27 14:43:19.697321,-31
2021-12-27 14:43:19.697325,-31
2021-12-27 14:43:19.697330,-7
2021-12-27 14:43:19.697334,28
2021-12-27 14:43:19.697339,40
2021-12-27 14:43:19.697344,19
2021-12-27 14:43:19.697349,4
2021-12-27 14:43:19.697353,7
2021-12-27 14:43:19.697358,-2
2021-12-27 14:43:19.697362,-14
2021-12-27 14:43:19.697367,-21
2021-12-27 14:43:19.697372,-26
2021-12-27 14:43:19.697376,-26
2021-12-27 14:43:19.697381,-26
2021-12-27 14:43:19.697385,-23
2021-12-27 14:43:19.697390,-19
2021-12-27 14:43:19.697395,-14
2021-12-27 14:43:19.697400,-9
2021-12-27 14:43:19.697405,-9
2021-12-27 14:43:19.697409,-31
2021-12-27 14:43:19.697414,-81
2021-12-27 14:43:19.697418,-107
2021-12-27 14:43:19.697423,98
2021-12-27 14:43:19.697427,786
2021-12-27 14:43:19.697432,1706
2021-12-27 14:43:19.697436,1852
2021-12-27 14:43:19.697441,841
2021-12-27 14:43:19.697446,-141
2021-12-27 14:43:19.892025,-294
2021-12-27 14:43:19.892053,-208
2021-12-27 14:43:19.892062,-186
2021-12-27 14:43:19.892069,-79
2021-12-27 14:43:19.892076,-7
2021-12-27 14:43:19.892083,-33
2021-12-27 14:43:19.892091,-21
2021-12-27 14:43:19.892098,21
2021-12-27 14:43:19.892105,31
2021-12-27 14:43:19.892112,35
2021-12-27 14:43:19.892119,59
2021-12-27 14:43:19.892126,81
2021-12-27 14:43:19.892133,100
2021-12-27 14:43:19.892140,124
2021-12-27 14:43:19.892147,148
2021-12-27 14:43:19.892154,170
2021-12-27 14:43:19.892161,196
2021-12-27 14:43:19.892174,227
2021-12-27 14:43:19.892181,263
2021-12-27 14:43:19.892188,294
2021-12-27 14:43:19.892195,325
2021-12-27 14:43:19.892202,354
2021-12-27 14:43:19.892209,376
2021-12-27 14:43:19.892216,388
2021-12-27 14:43:19.892223,395
2021-12-27 14:43:19.892230,393
2021-12-27 14:43:19.892237,378
2021-12-27 14:43:19.892245,347
2021-12-27 14:43:19.892252,294
2021-12-27 14:43:19.892259,215
2021-12-27 14:43:20.183077,119
2021-12-27 14:43:20.183096,33
2021-12-27 14:43:20.183102,-38
2021-12-27 14:43:20.183107,-98
2021-12-27 14:43:20.183112,-143
2021-12-27 14:43:20.183116,-167
2021-12-27 14:43:20.183121,-179
2021-12-27 14:43:20.183125,-189
2021-12-27 14:43:20.183130,-186
2021-12-27 14:43:20.183134,-174
2021-12-27 14:43:20.183139,-167
2021-12-27 14:43:20.183143,-160
2021-12-27 14:43:20.183148,-148
2021-12-27 14:43:20.183152,-139
2021-12-27 14:43:20.183157,-131
2021-12-27 14:43:20.183161,-122
2021-12-27 14:43:20.183165,-115
2021-12-27 14:43:20.183170,-107
2021-12-27 14:43:20.183174,-103
2021-12-27 14:43:20.183179,-95
2021-12-27 14:43:20.183183,-88
2021-12-27 14:43:20.183188,-86
2021-12-27 14:43:20.183192,-76
2021-12-27 14:43:20.183197,-71
2021-12-27 14:43:20.183201,-74
2021-12-27 14:43:20.183206,-67
2021-12-27 14:43:20.183210,-59
2021-12-27 14:43:20.183215,-59
2021-12-27 14:43:20.183219,-59
2021-12-27 14:43:20.183224,-57
2021-12-27 14:43:20.380069,-55
2021-12-27 14:43:20.380097,-55
2021-12-27 14:43:20.380106,-52
2021-12-27 14:43:20.380114,-52
2021-12-27 14:43:20.380121,-50
2021-12-27 14:43:20.380128,-47
2021-12-27 14:43:20.380135,-45
2021-12-27 14:43:20.380142,-43
2021-12-27 14:43:20.380149,-38
2021-12-27 14:43:20.380156,-33
2021-12-27 14:43:20.380164,-28
2021-12-27 14:43:20.380170,-23
2021-12-27 14:43:20.380178,-19
2021-12-27 14:43:20.380185,-16
2021-12-27 14:43:20.380191,-14
2021-12-27 14:43:20.380199,-11
2021-12-27 14:43:20.380206,-9
2021-12-27 14:43:20.380213,-4
2021-12-27 14:43:20.380220,-2
2021-12-27 14:43:20.380227,2
2021-12-27 14:43:20.380234,4
2021-12-27 14:43:20.380241,4
2021-12-27 14:43:20.380248,9
2021-12-27 14:43:20.380255,11
2021-12-27 14:43:20.380262,19
2021-12-27 14:43:20.380270,40
2021-12-27 14:43:20.380277,74
2021-12-27 14:43:20.380284,83
2021-12-27 14:43:20.380291,69
2021-12-27 14:43:20.380298,64
2021-12-27 14:43:20.575162,59
2021-12-27 14:43:20.575191,45
2021-12-27 14:43:20.575200,33
2021-12-27 14:43:20.575207,23
2021-12-27 14:43:20.575214,23
2021-12-27 14:43:20.575221,31
2021-12-27 14:43:20.575228,33
2021-12-27 14:43:20.575235,31
2021-12-27 14:43:20.575242,26
2021-12-27 14:43:20.575249,28
2021-12-27 14:43:20.575256,33
2021-12-27 14:43:20.575263,28
2021-12-27 14:43:20.575270,7
2021-12-27 14:43:20.575277,-47
2021-12-27 14:43:20.575285,-62
2021-12-27 14:43:20.575292,213
2021-12-27 14:43:20.575299,1006
2021-12-27 14:43:20.575306,1881
2021-12-27 14:43:20.575312,1773
2021-12-27 14:43:20.575319,618
2021-12-27 14:43:20.575327,-230
2021-12-27 14:43:20.575334,-270
2021-12-27 14:43:20.575341,-191
2021-12-27 14:43:20.575348,-165
2021-12-27 14:43:20.575355,-28
2021-12-27 14:43:20.575362,47
2021-12-27 14:43:20.575369,21
2021-12-27 14:43:20.575376,31
2021-12-27 14:43:20.575383,76
2021-12-27 14:43:20.575390,88
2021-12-27 14:43:20.818415,100
2021-12-27 14:43:20.818443,129
2021-12-27 14:43:20.818451,148
2021-12-27 14:43:20.818459,160
2021-12-27 14:43:20.818466,182
2021-12-27 14:43:20.818473,208
2021-12-27 14:43:20.818480,232
2021-12-27 14:43:20.818487,258
2021-12-27 14:43:20.818494,292
2021-12-27 14:43:20.818501,325
2021-12-27 14:43:20.818507,354
2021-12-27 14:43:20.818515,388
2021-12-27 14:43:20.818522,419
2021-12-27 14:43:20.818528,443
2021-12-27 14:43:20.818535,452
2021-12-27 14:43:20.818542,450
2021-12-27 14:43:20.818549,443
2021-12-27 14:43:20.818556,428
2021-12-27 14:43:20.818564,395
2021-12-27 14:43:20.818571,333
2021-12-27 14:43:20.818578,246
2021-12-27 14:43:20.818585,153
2021-12-27 14:43:20.818591,59
2021-12-27 14:43:20.818598,-16
2021-12-27 14:43:20.818605,-74
2021-12-27 14:43:20.818612,-115
2021-12-27 14:43:20.818619,-143
2021-12-27 14:43:20.818626,-158
2021-12-27 14:43:20.818634,-162
2021-12-27 14:43:20.818640,-160
2021-12-27 14:43:21.062600,-153
2021-12-27 14:43:21.062663,-141
2021-12-27 14:43:21.062672,-134
2021-12-27 14:43:21.062679,-127
2021-12-27 14:43:21.062686,-119
2021-12-27 14:43:21.062694,-110
2021-12-27 14:43:21.062701,-105
2021-12-27 14:43:21.062708,-100
2021-12-27 14:43:21.062715,-93
2021-12-27 14:43:21.062722,-88
2021-12-27 14:43:21.062729,-86
2021-12-27 14:43:21.062736,-88
2021-12-27 14:43:21.062743,-91
2021-12-27 14:43:21.062750,-88
2021-12-27 14:43:21.062757,-86
2021-12-27 14:43:21.062764,-83
2021-12-27 14:43:21.062771,-81
2021-12-27 14:43:21.062778,-83
2021-12-27 14:43:21.062785,-86
2021-12-27 14:43:21.062792,-86
2021-12-27 14:43:21.062799,-83
2021-12-27 14:43:21.062806,-83
2021-12-27 14:43:21.062813,-81
2021-12-27 14:43:21.062820,-76
2021-12-27 14:43:21.062827,-71
2021-12-27 14:43:21.062834,-71
2021-12-27 14:43:21.062841,-69
2021-12-27 14:43:21.062848,-64
2021-12-27 14:43:21.062855,-62
2021-12-27 14:43:21.062862,-57
2021-12-27 14:43:21.306005,-55
2021-12-27 14:43:21.306027,-52
2021-12-27 14:43:21.306032,-50
2021-12-27 14:43:21.306037,-47
2021-12-27 14:43:21.306042,-43
2021-12-27 14:43:21.306047,-38
2021-12-27 14:43:21.306051,-40
2021-12-27 14:43:21.306056,-45
2021-12-27 14:43:21.306060,-50
2021-12-27 14:43:21.306065,-47
2021-12-27 14:43:21.306069,-31
2021-12-27 14:43:21.306074,2
2021-12-27 14:43:21.306079,21
2021-12-27 14:43:21.306083,2
2021-12-27 14:43:21.306088,-11
2021-12-27 14:43:21.306092,-7
2021-12-27 14:43:21.306097,-16
2021-12-27 14:43:21.306101,-31
2021-12-27 14:43:21.306106,-38
2021-12-27 14:43:21.306110,-45
2021-12-27 14:43:21.306115,-43
2021-12-27 14:43:21.306119,-38
2021-12-27 14:43:21.306124,-38
2021-12-27 14:43:21.306128,-35
2021-12-27 14:43:21.306133,-31
2021-12-27 14:43:21.306137,-26
2021-12-27 14:43:21.306142,-28
2021-12-27 14:43:21.306146,-45
2021-12-27 14:43:21.306151,-93
2021-12-27 14:43:21.306156,-129
2021-12-27 14:43:21.501318,43
2021-12-27 14:43:21.501346,697
2021-12-27 14:43:21.501355,1648
2021-12-27 14:43:21.501362,1919
2021-12-27 14:43:21.501369,973
2021-12-27 14:43:21.501376,-95
2021-12-27 14:43:21.501383,-323
2021-12-27 14:43:21.501391,-227
2021-12-27 14:43:21.501398,-213
2021-12-27 14:43:21.501405,-115
2021-12-27 14:43:21.501412,-21
2021-12-27 14:43:21.501419,-38
2021-12-27 14:43:21.501426,-40
2021-12-27 14:43:21.501434,0
2021-12-27 14:43:21.501441,14
2021-12-27 14:43:21.501448,16
2021-12-27 14:43:21.501455,40
2021-12-27 14:43:21.501462,67
2021-12-27 14:43:21.501469,86
2021-12-27 14:43:21.501477,110
2021-12-27 14:43:21.501484,136
2021-12-27 14:43:21.501491,160
2021-12-27 14:43:21.501498,186
2021-12-27 14:43:21.501505,218
2021-12-27 14:43:21.501512,244
2021-12-27 14:43:21.501520,280
2021-12-27 14:43:21.501527,318
2021-12-27 14:43:21.501534,345
2021-12-27 14:43:21.501541,366
2021-12-27 14:43:21.501549,385
2021-12-27 14:43:21.744871,393
2021-12-27 14:43:21.744892,390
2021-12-27 14:43:21.744898,376
2021-12-27 14:43:21.744903,340
2021-12-27 14:43:21.744908,278
2021-12-27 14:43:21.744912,196
2021-12-27 14:43:21.744917,107
2021-12-27 14:43:21.744922,21
2021-12-27 14:43:21.744927,-52
2021-12-27 14:43:21.744931,-115
2021-12-27 14:43:21.744936,-158
2021-12-27 14:43:21.744941,-182
2021-12-27 14:43:21.744945,-186
2021-12-27 14:43:21.744950,-189
2021-12-27 14:43:21.744954,-189
2021-12-27 14:43:21.744959,-184
2021-12-27 14:43:21.744963,-174
2021-12-27 14:43:21.744968,-162
2021-12-27 14:43:21.744972,-153
2021-12-27 14:43:21.744977,-141
2021-12-27 14:43:21.744981,-129
2021-12-27 14:43:21.744986,-119
2021-12-27 14:43:21.744990,-112
2021-12-27 14:43:21.744995,-103
2021-12-27 14:43:21.745000,-98
2021-12-27 14:43:21.745004,-93
2021-12-27 14:43:21.745009,-91
2021-12-27 14:43:21.745014,-91
2021-12-27 14:43:21.745018,-88
2021-12-27 14:43:21.745023,-83
2021-12-27 14:43:22.037725,-81
2021-12-27 14:43:22.037754,-76
2021-12-27 14:43:22.037762,-74
2021-12-27 14:43:22.037770,-76
2021-12-27 14:43:22.037777,-71
2021-12-27 14:43:22.037784,-69
2021-12-27 14:43:22.037791,-71
2021-12-27 14:43:22.037798,-69
2021-12-27 14:43:22.037805,-62
2021-12-27 14:43:22.037813,-59
2021-12-27 14:43:22.037820,-57
2021-12-27 14:43:22.037827,-52
2021-12-27 14:43:22.037834,-52
2021-12-27 14:43:22.037841,-50
2021-12-27 14:43:22.037848,-47
2021-12-27 14:43:22.037855,-47
2021-12-27 14:43:22.037862,-43
2021-12-27 14:43:22.037869,-38
2021-12-27 14:43:22.037877,-35
2021-12-27 14:43:22.037884,-31
2021-12-27 14:43:22.037891,-26
2021-12-27 14:43:22.037898,-21
2021-12-27 14:43:22.037905,-21
2021-12-27 14:43:22.037912,-16
2021-12-27 14:43:22.037919,-14
2021-12-27 14:43:22.037926,-14
2021-12-27 14:43:22.037933,-9
2021-12-27 14:43:22.037940,-7
2021-12-27 14:43:22.037948,-11
2021-12-27 14:43:22.037955,-16
2021-12-27 14:43:22.279074,-7
2021-12-27 14:43:22.279090,26
2021-12-27 14:43:22.279096,52
2021-12-27 14:43:22.279101,43
2021-12-27 14:43:22.279106,26
2021-12-27 14:43:22.279110,28
2021-12-27 14:43:22.279115,23
2021-12-27 14:43:22.279119,7
2021-12-27 14:43:22.279124,-7
2021-12-27 14:43:22.279129,-14
2021-12-27 14:43:22.279133,-9
2021-12-27 14:43:22.279138,-4
2021-12-27 14:43:22.279142,-2
2021-12-27 14:43:22.279147,-2
2021-12-27 14:43:22.279155,-2
2021-12-27 14:43:22.279160,-4
2021-12-27 14:43:22.279165,0
2021-12-27 14:43:22.279170,-7
2021-12-27 14:43:22.279174,-47
2021-12-27 14:43:22.279179,-105
2021-12-27 14:43:22.279184,-52
2021-12-27 14:43:22.279188,381
2021-12-27 14:43:22.279193,1282
2021-12-27 14:43:22.279197,1962
2021-12-27 14:43:22.279202,1478
2021-12-27 14:43:22.279206,294
2021-12-27 14:43:22.279211,-278
2021-12-27 14:43:22.279216,-230
2021-12-27 14:43:22.279220,-189
2021-12-27 14:43:22.279225,-134
2021-12-27 14:43:22.523628,-21
2021-12-27 14:43:22.523645,-11
2021-12-27 14:43:22.523651,-35
2021-12-27 14:43:22.523655,-2
2021-12-27 14:43:22.523660,33
2021-12-27 14:43:22.523665,45
2021-12-27 14:43:22.523669,62
2021-12-27 14:43:22.523674,91
2021-12-27 14:43:22.523679,105
2021-12-27 14:43:22.523683,115
2021-12-27 14:43:22.523688,139
2021-12-27 14:43:22.523692,170
2021-12-27 14:43:22.523696,194
2021-12-27 14:43:22.523701,222
2021-12-27 14:43:22.523705,261
2021-12-27 14:43:22.523710,292
2021-12-27 14:43:22.523714,321
2021-12-27 14:43:22.523719,354
2021-12-27 14:43:22.523723,388
2021-12-27 14:43:22.523728,405
2021-12-27 14:43:22.523732,412
2021-12-27 14:43:22.523737,409
2021-12-27 14:43:22.523741,400
2021-12-27 14:43:22.523746,378
2021-12-27 14:43:22.523750,337
2021-12-27 14:43:22.523755,268
2021-12-27 14:43:22.523759,179
2021-12-27 14:43:22.523764,83
2021-12-27 14:43:22.523768,-2
2021-12-27 14:43:22.523773,-69
2021-12-27 14:43:22.671146,-115
2021-12-27 14:43:22.671174,-141
2021-12-27 14:43:22.671183,-162
2021-12-27 14:43:22.671190,-177
2021-12-27 14:43:22.671197,-179
2021-12-27 14:43:22.671204,-177
2021-12-27 14:43:22.671211,-170
2021-12-27 14:43:22.671218,-155
2021-12-27 14:43:22.671226,-141
2021-12-27 14:43:22.671232,-134
2021-12-27 14:43:22.671239,-134
2021-12-27 14:43:22.671246,-131
2021-12-27 14:43:22.671254,-124
2021-12-27 14:43:22.671260,-119
2021-12-27 14:43:22.671267,-110
2021-12-27 14:43:22.671274,-103
2021-12-27 14:43:22.671281,-100
2021-12-27 14:43:22.671288,-100
2021-12-27 14:43:22.671295,-98
2021-12-27 14:43:22.671302,-88
2021-12-27 14:43:22.671309,-81
2021-12-27 14:43:22.671316,-81
2021-12-27 14:43:22.671323,-83
2021-12-27 14:43:22.671330,-86
2021-12-27 14:43:22.671336,-81
2021-12-27 14:43:22.671343,-74
2021-12-27 14:43:22.671350,-69
2021-12-27 14:43:22.671358,-64
2021-12-27 14:43:22.671365,-57
2021-12-27 14:43:22.671372,-55
2021-12-27 14:43:22.914838,-52
2021-12-27 14:43:22.914866,-47
2021-12-27 14:43:22.914875,-43
2021-12-27 14:43:22.914883,-38
2021-12-27 14:43:22.914890,-23
2021-12-27 14:43:22.914897,-16
2021-12-27 14:43:22.914904,-21
2021-12-27 14:43:22.914910,-19
2021-12-27 14:43:22.914917,-9
2021-12-27 14:43:22.914924,-11
2021-12-27 14:43:22.914931,-11
2021-12-27 14:43:22.914938,4
2021-12-27 14:43:22.914945,11
2021-12-27 14:43:22.914952,4
2021-12-27 14:43:22.914959,9
2021-12-27 14:43:22.914966,19
2021-12-27 14:43:22.914973,21
2021-12-27 14:43:22.914980,23
2021-12-27 14:43:22.914987,26
2021-12-27 14:43:22.914994,26
2021-12-27 14:43:22.915001,31
2021-12-27 14:43:22.915008,47
2021-12-27 14:43:22.915015,81
2021-12-27 14:43:22.915022,107
2021-12-27 14:43:22.915029,95
2021-12-27 14:43:22.915036,74
2021-12-27 14:43:22.915043,71
2021-12-27 14:43:22.915050,64
2021-12-27 14:43:22.915057,50
2021-12-27 14:43:22.915064,43
2021-12-27 14:43:23.158433,43
2021-12-27 14:43:23.158456,50
2021-12-27 14:43:23.158462,52
2021-12-27 14:43:23.158467,47
2021-12-27 14:43:23.158472,52
2021-12-27 14:43:23.158477,57
2021-12-27 14:43:23.158481,55
2021-12-27 14:43:23.158486,52
2021-12-27 14:43:23.158490,33
2021-12-27 14:43:23.158495,-11
2021-12-27 14:43:23.158499,-59
2021-12-27 14:43:23.158504,67
2021-12-27 14:43:23.158509,666
2021-12-27 14:43:23.158513,1632
2021-12-27 14:43:23.158518,2010
2021-12-27 14:43:23.158522,1121
2021-12-27 14:43:23.158527,-19
2021-12-27 14:43:23.158532,-309
2021-12-27 14:43:23.158536,-198
2021-12-27 14:43:23.158541,-184
2021-12-27 14:43:23.158545,-95
2021-12-27 14:43:23.158550,28
2021-12-27 14:43:23.158555,35
2021-12-27 14:43:23.158559,23
2021-12-27 14:43:23.158564,62
2021-12-27 14:43:23.158568,86
2021-12-27 14:43:23.158573,88
2021-12-27 14:43:23.158577,107
2021-12-27 14:43:23.158582,131
2021-12-27 14:43:23.158587,153
2021-12-27 14:43:23.401721,179
2021-12-27 14:43:23.401749,206
2021-12-27 14:43:23.401758,225
2021-12-27 14:43:23.401766,246
2021-12-27 14:43:23.401773,278
2021-12-27 14:43:23.401780,311
2021-12-27 14:43:23.401787,347
2021-12-27 14:43:23.401794,383
2021-12-27 14:43:23.401800,412
2021-12-27 14:43:23.401807,431
2021-12-27 14:43:23.401814,445
2021-12-27 14:43:23.401821,452
2021-12-27 14:43:23.401828,443
2021-12-27 14:43:23.401835,424
2021-12-27 14:43:23.401842,400
2021-12-27 14:43:23.401849,349
2021-12-27 14:43:23.401856,261
2021-12-27 14:43:23.401862,158
2021-12-27 14:43:23.401869,67
2021-12-27 14:43:23.401876,-7
2021-12-27 14:43:23.401883,-74
2021-12-27 14:43:23.401890,-131
2021-12-27 14:43:23.401897,-172
2021-12-27 14:43:23.401904,-189
2021-12-27 14:43:23.401911,-189
2021-12-27 14:43:23.401918,-186
2021-12-27 14:43:23.401925,-189
2021-12-27 14:43:23.401932,-179
2021-12-27 14:43:23.401938,-170
2021-12-27 14:43:23.401945,-165
2021-12-27 14:43:23.597156,-155
2021-12-27 14:43:23.597179,-141
2021-12-27 14:43:23.597185,-134
2021-12-27 14:43:23.597190,-127
2021-12-27 14:43:23.597195,-122
2021-12-27 14:43:23.597200,-117
2021-12-27 14:43:23.597205,-112
2021-12-27 14:43:23.597210,-105
2021-12-27 14:43:23.597215,-100
2021-12-27 14:43:23.597219,-95
2021-12-27 14:43:23.597224,-95
2021-12-27 14:43:23.597228,-95
2021-12-27 14:43:23.597233,-93
2021-12-27 14:43:23.597237,-88
2021-12-27 14:43:23.597242,-86
2021-12-27 14:43:23.597246,-91
2021-12-27 14:43:23.597251,-95
2021-12-27 14:43:23.597255,-93
2021-12-27 14:43:23.597260,-91
2021-12-27 14:43:23.597264,-88
2021-12-27 14:43:23.597269,-86
2021-12-27 14:43:23.597273,-83
2021-12-27 14:43:23.597278,-79
2021-12-27 14:43:23.597282,-71
2021-12-27 14:43:23.597287,-71
2021-12-27 14:43:23.597291,-69
2021-12-27 14:43:23.597296,-64
2021-12-27 14:43:23.597300,-62
2021-12-27 14:43:23.597305,-57
2021-12-27 14:43:23.597310,-52
2021-12-27 14:43:23.840984,-47
2021-12-27 14:43:23.841006,-47
2021-12-27 14:43:23.841012,-47
2021-12-27 14:43:23.841017,-45
2021-12-27 14:43:23.841022,-45
2021-12-27 14:43:23.841026,-47
2021-12-27 14:43:23.841031,-35
2021-12-27 14:43:23.841035,-4
2021-12-27 14:43:23.841040,23
2021-12-27 14:43:23.841045,11
2021-12-27 14:43:23.841049,-4
2021-12-27 14:43:23.841054,2
2021-12-27 14:43:23.841059,0
2021-12-27 14:43:23.841064,-21
2021-12-27 14:43:23.841068,-35
2021-12-27 14:43:23.841073,-43
2021-12-27 14:43:23.841077,-43
2021-12-27 14:43:23.841082,-35
2021-12-27 14:43:23.841086,-26
2021-12-27 14:43:23.841091,-23
2021-12-27 14:43:23.841095,-28
2021-12-27 14:43:23.841100,-26
2021-12-27 14:43:23.841104,-21
2021-12-27 14:43:23.841109,-31
2021-12-27 14:43:23.841114,-69
2021-12-27 14:43:23.841118,-122
2021-12-27 14:43:23.841123,-45
2021-12-27 14:43:23.841127,445
2021-12-27 14:43:23.841132,1382
2021-12-27 14:43:23.841137,1986
2021-12-27 14:43:24.084717,1368
2021-12-27 14:43:24.084739,182
2021-12-27 14:43:24.084745,-306
2021-12-27 14:43:24.084751,-239
2021-12-27 14:43:24.084756,-203
2021-12-27 14:43:24.084761,-127
2021-12-27 14:43:24.084766,-21
2021-12-27 14:43:24.084771,-26
2021-12-27 14:43:24.084775,-45
2021-12-27 14:43:24.084780,-11
2021-12-27 14:43:24.084784,11
2021-12-27 14:43:24.084789,19
2021-12-27 14:43:24.084794,40
2021-12-27 14:43:24.084799,69
2021-12-27 14:43:24.084803,86
2021-12-27 14:43:24.084808,105
2021-12-27 14:43:24.084813,129
2021-12-27 14:43:24.084818,158
2021-12-27 14:43:24.084823,189
2021-12-27 14:43:24.084828,218
2021-12-27 14:43:24.084832,249
2021-12-27 14:43:24.084837,278
2021-12-27 14:43:24.084842,306
2021-12-27 14:43:24.084847,347
2021-12-27 14:43:24.084852,381
2021-12-27 14:43:24.084856,397
2021-12-27 14:43:24.084861,405
2021-12-27 14:43:24.084866,402
2021-12-27 14:43:24.084871,388
2021-12-27 14:43:24.084876,359
2021-12-27 14:43:24.327312,313
2021-12-27 14:43:24.327339,242
2021-12-27 14:43:24.327348,141
2021-12-27 14:43:24.327355,43
2021-12-27 14:43:24.327362,-33
2021-12-27 14:43:24.327370,-103
2021-12-27 14:43:24.327376,-155
2021-12-27 14:43:24.327383,-182
2021-12-27 14:43:24.327391,-194
2021-12-27 14:43:24.327397,-208
2021-12-27 14:43:24.327404,-213
2021-12-27 14:43:24.327411,-201
2021-12-27 14:43:24.327418,-189
2021-12-27 14:43:24.327425,-179
2021-12-27 14:43:24.327432,-165
2021-12-27 14:43:24.327439,-158
2021-12-27 14:43:24.327446,-155
2021-12-27 14:43:24.327453,-148
2021-12-27 14:43:24.327459,-134
2021-12-27 14:43:24.327466,-119
2021-12-27 14:43:24.327474,-110
2021-12-27 14:43:24.327480,-110
2021-12-27 14:43:24.327487,-105
2021-12-27 14:43:24.327494,-98
2021-12-27 14:43:24.327501,-91
2021-12-27 14:43:24.327508,-86
2021-12-27 14:43:24.327515,-81
2021-12-27 14:43:24.327522,-76
2021-12-27 14:43:24.327529,-74
2021-12-27 14:43:24.327536,-69
2021-12-27 14:43:24.523517,-64
2021-12-27 14:43:24.523540,-59
2021-12-27 14:43:24.523546,-55
2021-12-27 14:43:24.523551,-55
2021-12-27 14:43:24.523556,-50
2021-12-27 14:43:24.523560,-52
2021-12-27 14:43:24.523565,-57
2021-12-27 14:43:24.523569,-50
2021-12-27 14:43:24.523574,-40
2021-12-27 14:43:24.523578,-38
2021-12-27 14:43:24.523583,-35
2021-12-27 14:43:24.523587,-33
2021-12-27 14:43:24.523592,-31
2021-12-27 14:43:24.523597,-31
2021-12-27 14:43:24.523601,-26
2021-12-27 14:43:24.523606,-19
2021-12-27 14:43:24.523610,-11
2021-12-27 14:43:24.523615,-9
2021-12-27 14:43:24.523619,-9
2021-12-27 14:43:24.523624,-9
2021-12-27 14:43:24.523628,-2
2021-12-27 14:43:24.523633,2
2021-12-27 14:43:24.523637,4
2021-12-27 14:43:24.523642,7
2021-12-27 14:43:24.523646,7
2021-12-27 14:43:24.523651,0
2021-12-27 14:43:24.523655,7
2021-12-27 14:43:24.523660,35
2021-12-27 14:43:24.523665,62
2021-12-27 14:43:24.523669,59
2021-12-27 14:43:24.767202,40
2021-12-27 14:43:24.767225,38
2021-12-27 14:43:24.767231,33
2021-12-27 14:43:24.767236,16
2021-12-27 14:43:24.767241,2
2021-12-27 14:43:24.767245,-2
2021-12-27 14:43:24.767250,0
2021-12-27 14:43:24.767255,0
2021-12-27 14:43:24.767260,-2
2021-12-27 14:43:24.767264,-4
2021-12-27 14:43:24.767269,-4
2021-12-27 14:43:24.767274,0
2021-12-27 14:43:24.767278,2
2021-12-27 14:43:24.767283,-11
2021-12-27 14:43:24.767287,-43
2021-12-27 14:43:24.767292,-91
2021-12-27 14:43:24.767297,-57
2021-12-27 14:43:24.767302,328
2021-12-27 14:43:24.767306,1195
2021-12-27 14:43:24.767315,1934
2021-12-27 14:43:24.767320,1562
2021-12-27 14:43:24.767325,390
2021-12-27 14:43:24.767329,-261
2021-12-27 14:43:24.767334,-239
2021-12-27 14:43:24.767338,-186
2021-12-27 14:43:24.767343,-134
2021-12-27 14:43:24.767347,-19
2021-12-27 14:43:24.767352,-2
2021-12-27 14:43:24.767357,-26
2021-12-27 14:43:24.767361,7
2021-12-27 14:43:25.107906,38
2021-12-27 14:43:25.107923,40
2021-12-27 14:43:25.107929,59
2021-12-27 14:43:25.107934,83
2021-12-27 14:43:25.107939,100
2021-12-27 14:43:25.107943,119
2021-12-27 14:43:25.107948,143
2021-12-27 14:43:25.107952,172
2021-12-27 14:43:25.107956,201
2021-12-27 14:43:25.107961,222
2021-12-27 14:43:25.107965,244
2021-12-27 14:43:25.107970,278
2021-12-27 14:43:25.107974,313
2021-12-27 14:43:25.107979,345
2021-12-27 14:43:25.107983,373
2021-12-27 14:43:25.107988,395
2021-12-27 14:43:25.107992,405
2021-12-27 14:43:25.107996,409
2021-12-27 14:43:25.108001,405
2021-12-27 14:43:25.108005,385
2021-12-27 14:43:25.108010,345
2021-12-27 14:43:25.108015,278
2021-12-27 14:43:25.108019,189
2021-12-27 14:43:25.108023,93
2021-12-27 14:43:25.108028,7
2021-12-27 14:43:25.108033,-62
2021-12-27 14:43:25.108037,-115
2021-12-27 14:43:25.108042,-158
2021-12-27 14:43:25.108047,-182
2021-12-27 14:43:25.108051,-184
2021-12-27 14:43:25.205237,-177
2021-12-27 14:43:25.205252,-179
2021-12-27 14:43:25.205257,-182
2021-12-27 14:43:25.205261,-177
2021-12-27 14:43:25.205264,-167
2021-12-27 14:43:25.205268,-158
2021-12-27 14:43:25.205272,-143
2021-12-27 14:43:25.205275,-129
2021-12-27 14:43:25.205279,-119
2021-12-27 14:43:25.205283,-115
2021-12-27 14:43:25.205287,-112
2021-12-27 14:43:25.205290,-110
2021-12-27 14:43:25.205294,-103
2021-12-27 14:43:25.205298,-95
2021-12-27 14:43:25.205302,-91
2021-12-27 14:43:25.205305,-86
2021-12-27 14:43:25.205309,-86
2021-12-27 14:43:25.205313,-76
2021-12-27 14:43:25.205316,-69
2021-12-27 14:43:25.205320,-71
2021-12-27 14:43:25.205323,-69
2021-12-27 14:43:25.205327,-59
2021-12-27 14:43:25.205331,-59
2021-12-27 14:43:25.205334,-59
2021-12-27 14:43:25.205338,-55
2021-12-27 14:43:25.205342,-50
2021-12-27 14:43:25.205345,-45
2021-12-27 14:43:25.205349,-40
2021-12-27 14:43:25.205353,-38
2021-12-27 14:43:25.205356,-35
2021-12-27 14:43:25.498838,-31
2021-12-27 14:43:25.498865,-23
2021-12-27 14:43:25.498874,-21
2021-12-27 14:43:25.498882,-19
2021-12-27 14:43:25.498889,-14
2021-12-27 14:43:25.498896,-11
2021-12-27 14:43:25.498903,-16
2021-12-27 14:43:25.498910,-11
2021-12-27 14:43:25.498917,-7
2021-12-27 14:43:25.498924,-2
2021-12-27 14:43:25.498931,2
2021-12-27 14:43:25.498939,7
2021-12-27 14:43:25.498946,7
2021-12-27 14:43:25.498953,9
2021-12-27 14:43:25.498960,14
2021-12-27 14:43:25.498967,14
2021-12-27 14:43:25.498974,9
2021-12-27 14:43:25.498981,4
2021-12-27 14:43:25.498988,9
2021-12-27 14:43:25.498996,26
2021-12-27 14:43:25.499003,55
2021-12-27 14:43:25.499009,79
2021-12-27 14:43:25.499016,74
2021-12-27 14:43:25.499023,64
2021-12-27 14:43:25.499030,67
2021-12-27 14:43:25.499037,57
2021-12-27 14:43:25.499044,38
2021-12-27 14:43:25.499051,26
2021-12-27 14:43:25.499058,23
2021-12-27 14:43:25.499065,31
2021-12-27 14:43:25.644646,35
2021-12-27 14:43:25.644675,33
2021-12-27 14:43:25.644684,31
2021-12-27 14:43:25.644691,43
2021-12-27 14:43:25.644698,47
2021-12-27 14:43:25.644705,43
2021-12-27 14:43:25.644712,35
2021-12-27 14:43:25.644719,4
2021-12-27 14:43:25.644726,-50
2021-12-27 14:43:25.644733,2
2021-12-27 14:43:25.644740,445
2021-12-27 14:43:25.644748,1349
2021-12-27 14:43:25.644755,2003
2021-12-27 14:43:25.644762,1476
2021-12-27 14:43:25.644769,278
2021-12-27 14:43:25.644776,-278
2021-12-27 14:43:25.644783,-215
2021-12-27 14:43:25.644790,-170
2021-12-27 14:43:25.644797,-107
2021-12-27 14:43:25.644804,19
2021-12-27 14:43:25.644811,38
2021-12-27 14:43:25.644818,9
2021-12-27 14:43:25.644825,45
2021-12-27 14:43:25.644832,79
2021-12-27 14:43:25.644839,88
2021-12-27 14:43:25.644845,112
2021-12-27 14:43:25.644852,139
2021-12-27 14:43:25.644859,150
2021-12-27 14:43:25.644866,174
2021-12-27 14:43:25.644873,208
2021-12-27 14:43:25.888620,227
2021-12-27 14:43:25.888641,246
2021-12-27 14:43:25.888647,280
2021-12-27 14:43:25.888652,311
2021-12-27 14:43:25.888657,342
2021-12-27 14:43:25.888661,385
2021-12-27 14:43:25.888666,421
2021-12-27 14:43:25.888671,448
2021-12-27 14:43:25.888675,472
2021-12-27 14:43:25.888680,481
2021-12-27 14:43:25.888684,474
2021-12-27 14:43:25.888689,464
2021-12-27 14:43:25.888693,448
2021-12-27 14:43:25.888698,402
2021-12-27 14:43:25.888703,328
2021-12-27 14:43:25.888707,230
2021-12-27 14:43:25.888712,124
2021-12-27 14:43:25.888716,31
2021-12-27 14:43:25.888721,-47
2021-12-27 14:43:25.888726,-107
2021-12-27 14:43:25.888730,-148
2021-12-27 14:43:25.888735,-170
2021-12-27 14:43:25.888739,-177
2021-12-27 14:43:25.888744,-177
2021-12-27 14:43:25.888748,-174
2021-12-27 14:43:25.888753,-167
2021-12-27 14:43:25.888757,-158
2021-12-27 14:43:25.888762,-146
2021-12-27 14:43:25.888766,-136
2021-12-27 14:43:25.888771,-124
2021-12-27 14:43:26.375819,-112
2021-12-27 14:43:26.375842,-107
2021-12-27 14:43:26.375848,-103
2021-12-27 14:43:26.375853,-88
2021-12-27 14:43:26.375858,-79
2021-12-27 14:43:26.375862,-83
2021-12-27 14:43:26.375867,-83
2021-12-27 14:43:26.375871,-74
2021-12-27 14:43:26.375876,-67
2021-12-27 14:43:26.375881,-67
2021-12-27 14:43:26.375885,-64
2021-12-27 14:43:26.375890,-64
2021-12-27 14:43:26.375895,-62
2021-12-27 14:43:26.375899,-57
2021-12-27 14:43:26.375904,-62
2021-12-27 14:43:26.375909,-69
2021-12-27 14:43:26.375913,-64
2021-12-27 14:43:26.375918,-59
2021-12-27 14:43:26.375922,-57
2021-12-27 14:43:26.375927,-55
2021-12-27 14:43:26.375931,-50
2021-12-27 14:43:26.375936,-47
2021-12-27 14:43:26.375940,-47
2021-12-27 14:43:26.375945,-40
2021-12-27 14:43:26.375950,-33
2021-12-27 14:43:26.375954,-31
2021-12-27 14:43:26.375959,-31
2021-12-27 14:43:26.375964,-31
2021-12-27 14:43:26.375968,-26
2021-12-27 14:43:26.375973,-21
2021-12-27 14:43:26.617550,-16
2021-12-27 14:43:26.617566,-14
2021-12-27 14:43:26.617572,-11
2021-12-27 14:43:26.617577,-9
2021-12-27 14:43:26.617581,-9
2021-12-27 14:43:26.617586,-9
2021-12-27 14:43:26.617590,-9
2021-12-27 14:43:26.617595,2
2021-12-27 14:43:26.617599,33
2021-12-27 14:43:26.617604,59
2021-12-27 14:43:26.617608,52
2021-12-27 14:43:26.617613,38
2021-12-27 14:43:26.617617,33
2021-12-27 14:43:26.617622,23
2021-12-27 14:43:26.617626,4
2021-12-27 14:43:26.617631,-4
2021-12-27 14:43:26.617635,-7
2021-12-27 14:43:26.617640,-4
2021-12-27 14:43:26.617644,0
2021-12-27 14:43:26.617649,0
2021-12-27 14:43:26.617653,-2
2021-12-27 14:43:26.617658,-4
2021-12-27 14:43:26.617663,-4
2021-12-27 14:43:26.617667,-4
2021-12-27 14:43:26.617672,-14
2021-12-27 14:43:26.617676,-55
2021-12-27 14:43:26.617681,-112
2021-12-27 14:43:26.617685,-52
2021-12-27 14:43:26.617690,419
2021-12-27 14:43:26.617694,1354
2021-12-27 14:43:26.717111,1998
2021-12-27 14:43:26.717139,1416
2021-12-27 14:43:26.717148,186
2021-12-27 14:43:26.717156,-349
2021-12-27 14:43:26.717163,-263
2021-12-27 14:43:26.717170,-220
2021-12-27 14:43:26.717177,-167
2021-12-27 14:43:26.717184,-38
2021-12-27 14:43:26.717191,-7
2021-12-27 14:43:26.717198,-33
2021-12-27 14:43:26.717205,-2
2021-12-27 14:43:26.717212,31
2021-12-27 14:43:26.717220,35
2021-12-27 14:43:26.717227,52
2021-12-27 14:43:26.717234,74
2021-12-27 14:43:26.717241,81
2021-12-27 14:43:26.717248,100
2021-12-27 14:43:26.717256,129
2021-12-27 14:43:26.717263,150
2021-12-27 14:43:26.717270,174
2021-12-27 14:43:26.717277,196
2021-12-27 14:43:26.717283,220
2021-12-27 14:43:26.717291,256
2021-12-27 14:43:26.717298,294
2021-12-27 14:43:26.717305,321
2021-12-27 14:43:26.717312,345
2021-12-27 14:43:26.717319,361
2021-12-27 14:43:26.717326,366
2021-12-27 14:43:26.717333,364
2021-12-27 14:43:26.717340,354
2021-12-27 14:43:26.863479,328
2021-12-27 14:43:26.863502,280
2021-12-27 14:43:26.863508,206
2021-12-27 14:43:26.863513,107
2021-12-27 14:43:26.863517,9
2021-12-27 14:43:26.863522,-69
2021-12-27 14:43:26.863526,-129
2021-12-27 14:43:26.863531,-174
2021-12-27 14:43:26.863536,-203
2021-12-27 14:43:26.863540,-218
2021-12-27 14:43:26.863545,-220
2021-12-27 14:43:26.863549,-215
2021-12-27 14:43:26.863554,-208
2021-12-27 14:43:26.863558,-198
2021-12-27 14:43:26.863563,-186
2021-12-27 14:43:26.863567,-177
2021-12-27 14:43:26.863572,-167
2021-12-27 14:43:26.863577,-158
2021-12-27 14:43:26.863581,-143
2021-12-27 14:43:26.863586,-131
2021-12-27 14:43:26.863590,-124
2021-12-27 14:43:26.863595,-117
2021-12-27 14:43:26.863599,-112
2021-12-27 14:43:26.863604,-110
2021-12-27 14:43:26.863608,-100
2021-12-27 14:43:26.863613,-91
2021-12-27 14:43:26.863618,-91
2021-12-27 14:43:26.863622,-91
2021-12-27 14:43:26.863627,-93
2021-12-27 14:43:26.863632,-91
2021-12-27 14:43:27.106597,-86
2021-12-27 14:43:27.106619,-76
2021-12-27 14:43:27.106625,-74
2021-12-27 14:43:27.106630,-74
2021-12-27 14:43:27.106635,-69
2021-12-27 14:43:27.106639,-67
2021-12-27 14:43:27.106644,-71
2021-12-27 14:43:27.106649,-69
2021-12-27 14:43:27.106654,-52
2021-12-27 14:43:27.106659,-38
2021-12-27 14:43:27.106664,-38
2021-12-27 14:43:27.106669,-45
2021-12-27 14:43:27.106673,-47
2021-12-27 14:43:27.106678,-43
2021-12-27 14:43:27.106682,-35
2021-12-27 14:43:27.106687,-35
2021-12-27 14:43:27.106692,-33
2021-12-27 14:43:27.106696,-23
2021-12-27 14:43:27.106701,-23
2021-12-27 14:43:27.106705,-28
2021-12-27 14:43:27.106710,-19
2021-12-27 14:43:27.106714,-7
2021-12-27 14:43:27.106719,-9
2021-12-27 14:43:27.106723,-9
2021-12-27 14:43:27.106728,-2
2021-12-27 14:43:27.106732,-7
2021-12-27 14:43:27.106737,-11
2021-12-27 14:43:27.106742,-4
2021-12-27 14:43:27.106746,-2
2021-12-27 14:43:27.106751,-9
2021-12-27 14:43:27.302344,-11
2021-12-27 14:43:27.302371,-2
2021-12-27 14:43:27.302380,28
2021-12-27 14:43:27.302388,62
2021-12-27 14:43:27.302395,59
2021-12-27 14:43:27.302402,38
2021-12-27 14:43:27.302410,33
2021-12-27 14:43:27.302416,28
2021-12-27 14:43:27.302423,16
2021-12-27 14:43:27.302430,4
2021-12-27 14:43:27.302437,-4
2021-12-27 14:43:27.302445,-4
2021-12-27 14:43:27.302452,-2
2021-12-27 14:43:27.302459,-4
2021-12-27 14:43:27.302466,-4
2021-12-27 14:43:27.302473,0
2021-12-27 14:43:27.302480,2
2021-12-27 14:43:27.302487,7
2021-12-27 14:43:27.302494,0
2021-12-27 14:43:27.302501,-31
2021-12-27 14:43:27.302508,-86
2021-12-27 14:43:27.302515,-67
2021-12-27 14:43:27.302522,278
2021-12-27 14:43:27.302529,1121
2021-12-27 14:43:27.302536,1926
2021-12-27 14:43:27.302543,1675
2021-12-27 14:43:27.302550,517
2021-12-27 14:43:27.302558,-220
2021-12-27 14:43:27.302565,-237
2021-12-27 14:43:27.302572,-179
2021-12-27 14:43:27.497405,-139
2021-12-27 14:43:27.497433,-31
2021-12-27 14:43:27.497442,-9
2021-12-27 14:43:27.497449,-33
2021-12-27 14:43:27.497456,-4
2021-12-27 14:43:27.497464,28
2021-12-27 14:43:27.497471,33
2021-12-27 14:43:27.497478,47
2021-12-27 14:43:27.497485,67
2021-12-27 14:43:27.497492,83
2021-12-27 14:43:27.497499,103
2021-12-27 14:43:27.497506,122
2021-12-27 14:43:27.497513,146
2021-12-27 14:43:27.497520,179
2021-12-27 14:43:27.497527,206
2021-12-27 14:43:27.497534,230
2021-12-27 14:43:27.497540,266
2021-12-27 14:43:27.497547,304
2021-12-27 14:43:27.497554,340
2021-12-27 14:43:27.497561,369
2021-12-27 14:43:27.497568,390
2021-12-27 14:43:27.497575,397
2021-12-27 14:43:27.497582,402
2021-12-27 14:43:27.497588,405
2021-12-27 14:43:27.497595,381
2021-12-27 14:43:27.497602,340
2021-12-27 14:43:27.497609,282
2021-12-27 14:43:27.497616,194
2021-12-27 14:43:27.497623,95
2021-12-27 14:43:27.497630,9
2021-12-27 14:43:27.790114,-62
2021-12-27 14:43:27.790142,-129
2021-12-27 14:43:27.790151,-170
2021-12-27 14:43:27.790158,-194
2021-12-27 14:43:27.790165,-208
2021-12-27 14:43:27.790177,-210
2021-12-27 14:43:27.790185,-198
2021-12-27 14:43:27.790192,-189
2021-12-27 14:43:27.790199,-182
2021-12-27 14:43:27.790206,-170
2021-12-27 14:43:27.790213,-160
2021-12-27 14:43:27.790220,-150
2021-12-27 14:43:27.790227,-141
2021-12-27 14:43:27.790234,-134
2021-12-27 14:43:27.790241,-122
2021-12-27 14:43:27.790248,-105
2021-12-27 14:43:27.790255,-95
2021-12-27 14:43:27.790263,-98
2021-12-27 14:43:27.790270,-91
2021-12-27 14:43:27.790277,-81
2021-12-27 14:43:27.790284,-79
2021-12-27 14:43:27.790291,-79
2021-12-27 14:43:27.790298,-71
2021-12-27 14:43:27.790305,-64
2021-12-27 14:43:27.790312,-62
2021-12-27 14:43:27.790319,-62
2021-12-27 14:43:27.790326,-57
2021-12-27 14:43:27.790333,-47
2021-12-27 14:43:27.790340,-43
2021-12-27 14:43:27.790347,-43
2021-12-27 14:43:28.033674,-40
2021-12-27 14:43:28.033703,-35
2021-12-27 14:43:28.033712,-33
2021-12-27 14:43:28.033719,-28
2021-12-27 14:43:28.033726,-21
2021-12-27 14:43:28.033733,-23
2021-12-27 14:43:28.033740,-33
2021-12-27 14:43:28.033747,-31
2021-12-27 14:43:28.033754,-21
2021-12-27 14:43:28.033761,-16
2021-12-27 14:43:28.033768,-19
2021-12-27 14:43:28.033775,-11
2021-12-27 14:43:28.033782,2
2021-12-27 14:43:28.033789,0
2021-12-27 14:43:28.033796,-4
2021-12-27 14:43:28.033803,4
2021-12-27 14:43:28.033810,11
2021-12-27 14:43:28.033817,9
2021-12-27 14:43:28.033824,9
2021-12-27 14:43:28.033831,9
2021-12-27 14:43:28.033838,9
2021-12-27 14:43:28.033845,9
2021-12-27 14:43:28.033852,14
2021-12-27 14:43:28.033859,23
2021-12-27 14:43:28.033866,26
2021-12-27 14:43:28.033873,14
2021-12-27 14:43:28.033880,11
2021-12-27 14:43:28.033887,35
2021-12-27 14:43:28.033894,71
2021-12-27 14:43:28.033901,88
2021-12-27 14:43:28.277355,71
2021-12-27 14:43:28.277383,57
2021-12-27 14:43:28.277391,52
2021-12-27 14:43:28.277399,43
2021-12-27 14:43:28.277406,31
2021-12-27 14:43:28.277413,23
2021-12-27 14:43:28.277420,11
2021-12-27 14:43:28.277428,7
2021-12-27 14:43:28.277435,11
2021-12-27 14:43:28.277442,11
2021-12-27 14:43:28.277449,11
2021-12-27 14:43:28.277456,14
2021-12-27 14:43:28.277463,16
2021-12-27 14:43:28.277470,16
2021-12-27 14:43:28.277477,2
2021-12-27 14:43:28.277484,-38
2021-12-27 14:43:28.277491,-81
2021-12-27 14:43:28.277498,57
2021-12-27 14:43:28.277505,659
2021-12-27 14:43:28.277512,1603
2021-12-27 14:43:28.277519,1972
2021-12-27 14:43:28.277526,1128
2021-12-27 14:43:28.277533,31
2021-12-27 14:43:28.277540,-268
2021-12-27 14:43:28.277547,-179
2021-12-27 14:43:28.277554,-158
2021-12-27 14:43:28.277561,-74
2021-12-27 14:43:28.277568,9
2021-12-27 14:43:28.277575,-4
2021-12-27 14:43:28.277582,-4
2021-12-27 14:43:28.519850,33
2021-12-27 14:43:28.519879,47
2021-12-27 14:43:28.519887,57
2021-12-27 14:43:28.519895,83
2021-12-27 14:43:28.519902,103
2021-12-27 14:43:28.519909,127
2021-12-27 14:43:28.519916,158
2021-12-27 14:43:28.519922,182
2021-12-27 14:43:28.519929,201
2021-12-27 14:43:28.519936,227
2021-12-27 14:43:28.519943,254
2021-12-27 14:43:28.519950,285
2021-12-27 14:43:28.519957,325
2021-12-27 14:43:28.519963,366
2021-12-27 14:43:28.519970,397
2021-12-27 14:43:28.519977,417
2021-12-27 14:43:28.519984,433
2021-12-27 14:43:28.519991,448
2021-12-27 14:43:28.519997,445
2021-12-27 14:43:28.520004,433
2021-12-27 14:43:28.520011,414
2021-12-27 14:43:28.520018,369
2021-12-27 14:43:28.520024,285
2021-12-27 14:43:28.520031,184
2021-12-27 14:43:28.520038,93
2021-12-27 14:43:28.520045,11
2021-12-27 14:43:28.520052,-55
2021-12-27 14:43:28.520059,-107
2021-12-27 14:43:28.520066,-146
2021-12-27 14:43:28.520073,-165
2021-12-27 14:43:28.715801,-162
2021-12-27 14:43:28.715821,-155
2021-12-27 14:43:28.715827,-148
2021-12-27 14:43:28.715831,-141
2021-12-27 14:43:28.715836,-139
2021-12-27 14:43:28.715841,-127
2021-12-27 14:43:28.715845,-107
2021-12-27 14:43:28.715850,-100
2021-12-27 14:43:28.715854,-93
2021-12-27 14:43:28.715858,-79
2021-12-27 14:43:28.715863,-69
2021-12-27 14:43:28.715867,-67
2021-12-27 14:43:28.715872,-64
2021-12-27 14:43:28.715876,-57
2021-12-27 14:43:28.715881,-47
2021-12-27 14:43:28.715885,-50
2021-12-27 14:43:28.715890,-50
2021-12-27 14:43:28.715894,-47
2021-12-27 14:43:28.715899,-35
2021-12-27 14:43:28.715903,-23
2021-12-27 14:43:28.715908,-19
2021-12-27 14:43:28.715912,-23
2021-12-27 14:43:28.715917,-23
2021-12-27 14:43:28.715921,-16
2021-12-27 14:43:28.715925,-9
2021-12-27 14:43:28.715930,-7
2021-12-27 14:43:28.715935,-4
2021-12-27 14:43:28.715939,2
2021-12-27 14:43:28.715944,7
2021-12-27 14:43:28.715948,9
2021-12-27 14:43:28.960138,11
2021-12-27 14:43:28.960167,9
2021-12-27 14:43:28.960176,7
2021-12-27 14:43:28.960183,14
2021-12-27 14:43:28.960190,23
2021-12-27 14:43:28.960197,26
2021-12-27 14:43:28.960204,28
2021-12-27 14:43:28.960211,23
2021-12-27 14:43:28.960218,21
2021-12-27 14:43:28.960225,28
2021-12-27 14:43:28.960232,33
2021-12-27 14:43:28.960239,38
2021-12-27 14:43:28.960246,35
2021-12-27 14:43:28.960253,33
2021-12-27 14:43:28.960261,38
2021-12-27 14:43:28.960268,40
2021-12-27 14:43:28.960275,35
2021-12-27 14:43:28.960282,28
2021-12-27 14:43:28.960289,38
2021-12-27 14:43:28.960296,57
2021-12-27 14:43:28.960303,81
2021-12-27 14:43:28.960310,93
2021-12-27 14:43:28.960317,83
2021-12-27 14:43:28.960324,69
2021-12-27 14:43:28.960331,64
2021-12-27 14:43:28.960338,52
2021-12-27 14:43:28.960345,35
2021-12-27 14:43:28.960352,23
2021-12-27 14:43:28.960359,23
2021-12-27 14:43:28.960366,31
2021-12-27 14:43:29.106412,33
2021-12-27 14:43:29.106474,28
2021-12-27 14:43:29.106483,23
2021-12-27 14:43:29.106491,26
2021-12-27 14:43:29.106498,33
2021-12-27 14:43:29.106505,33
2021-12-27 14:43:29.106511,2
2021-12-27 14:43:29.106518,-62
2021-12-27 14:43:29.106525,-81
2021-12-27 14:43:29.106532,196
2021-12-27 14:43:29.106539,1006
2021-12-27 14:43:29.106546,1900
2021-12-27 14:43:29.106553,1785
2021-12-27 14:43:29.106560,603
2021-12-27 14:43:29.106567,-270
2021-12-27 14:43:29.106574,-306
2021-12-27 14:43:29.106581,-222
2021-12-27 14:43:29.106588,-210
2021-12-27 14:43:29.106594,-88
2021-12-27 14:43:29.106602,0
2021-12-27 14:43:29.106609,-21
2021-12-27 14:43:29.106615,-19
2021-12-27 14:43:29.106622,21
2021-12-27 14:43:29.106629,33
2021-12-27 14:43:29.106636,40
2021-12-27 14:43:29.106643,69
2021-12-27 14:43:29.106650,93
2021-12-27 14:43:29.106657,105
2021-12-27 14:43:29.106664,122
2021-12-27 14:43:29.106671,143
2021-12-27 14:43:29.398705,170
2021-12-27 14:43:29.398733,208
2021-12-27 14:43:29.398742,239
2021-12-27 14:43:29.398750,258
2021-12-27 14:43:29.398757,289
2021-12-27 14:43:29.398764,328
2021-12-27 14:43:29.398771,359
2021-12-27 14:43:29.398779,376
2021-12-27 14:43:29.398786,388
2021-12-27 14:43:29.398793,385
2021-12-27 14:43:29.398800,376
2021-12-27 14:43:29.398807,357
2021-12-27 14:43:29.398814,325
2021-12-27 14:43:29.398821,266
2021-12-27 14:43:29.398828,179
2021-12-27 14:43:29.398835,83
2021-12-27 14:43:29.398874,-4
2021-12-27 14:43:29.398881,-81
2021-12-27 14:43:29.398888,-143
2021-12-27 14:43:29.398895,-179
2021-12-27 14:43:29.398902,-198
2021-12-27 14:43:29.398909,-208
2021-12-27 14:43:29.398916,-208
2021-12-27 14:43:29.398923,-198
2021-12-27 14:43:29.398930,-186
2021-12-27 14:43:29.398937,-177
2021-12-27 14:43:29.398944,-167
2021-12-27 14:43:29.398951,-155
2021-12-27 14:43:29.398958,-143
2021-12-27 14:43:29.398965,-131
2021-12-27 14:43:29.593557,-124
2021-12-27 14:43:29.593584,-115
2021-12-27 14:43:29.593593,-107
2021-12-27 14:43:29.593600,-100
2021-12-27 14:43:29.593607,-93
2021-12-27 14:43:29.593614,-91
2021-12-27 14:43:29.593621,-81
2021-12-27 14:43:29.593628,-71
2021-12-27 14:43:29.593635,-69
2021-12-27 14:43:29.593642,-71
2021-12-27 14:43:29.593649,-67
2021-12-27 14:43:29.593656,-67
2021-12-27 14:43:29.593663,-69
2021-12-27 14:43:29.593670,-64
2021-12-27 14:43:29.593676,-59
2021-12-27 14:43:29.593683,-57
2021-12-27 14:43:29.593690,-55
2021-12-27 14:43:29.593697,-55
2021-12-27 14:43:29.593704,-55
2021-12-27 14:43:29.593711,-52
2021-12-27 14:43:29.593718,-50
2021-12-27 14:43:29.593725,-47
2021-12-27 14:43:29.593732,-50
2021-12-27 14:43:29.593739,-52
2021-12-27 14:43:29.593746,-50
2021-12-27 14:43:29.593752,-45
2021-12-27 14:43:29.593759,-40
2021-12-27 14:43:29.593767,-38
2021-12-27 14:43:29.593774,-33
2021-12-27 14:43:29.593781,-28
2021-12-27 14:43:29.837293,-26
2021-12-27 14:43:29.837316,-23
2021-12-27 14:43:29.837321,-19
2021-12-27 14:43:29.837326,-16
2021-12-27 14:43:29.837331,-14
2021-12-27 14:43:29.837335,-9
2021-12-27 14:43:29.837340,-7
2021-12-27 14:43:29.837345,-7
2021-12-27 14:43:29.837349,-9
2021-12-27 14:43:29.837354,-9
2021-12-27 14:43:29.837358,-9
2021-12-27 14:43:29.837363,-4
2021-12-27 14:43:29.837367,19
2021-12-27 14:43:29.837372,50
2021-12-27 14:43:29.837377,55
2021-12-27 14:43:29.837381,35
2021-12-27 14:43:29.837386,28
2021-12-27 14:43:29.837390,33
2021-12-27 14:43:29.837395,23
2021-12-27 14:43:29.837399,7
2021-12-27 14:43:29.837404,-2
2021-12-27 14:43:29.837408,-4
2021-12-27 14:43:29.837413,-4
2021-12-27 14:43:29.837417,-2
2021-12-27 14:43:29.837422,0
2021-12-27 14:43:29.837426,2
2021-12-27 14:43:29.837431,4
2021-12-27 14:43:29.837435,2
2021-12-27 14:43:29.837440,2
2021-12-27 14:43:29.837444,-16
2021-12-27 14:43:30.032487,-67
2021-12-27 14:43:30.032515,-93
2021-12-27 14:43:30.032523,115
2021-12-27 14:43:30.032531,812
2021-12-27 14:43:30.032538,1739
2021-12-27 14:43:30.032545,1890
2021-12-27 14:43:30.032552,896
2021-12-27 14:43:30.032559,-91
2021-12-27 14:43:30.032566,-275
2021-12-27 14:43:30.032573,-198
2021-12-27 14:43:30.032580,-174
2021-12-27 14:43:30.032587,-69
2021-12-27 14:43:30.032594,-4
2021-12-27 14:43:30.032601,-33
2021-12-27 14:43:30.032608,-26
2021-12-27 14:43:30.032615,9
2021-12-27 14:43:30.032622,16
2021-12-27 14:43:30.032629,26
2021-12-27 14:43:30.032636,50
2021-12-27 14:43:30.032643,67
2021-12-27 14:43:30.032650,81
2021-12-27 14:43:30.032657,100
2021-12-27 14:43:30.032664,122
2021-12-27 14:43:30.032671,146
2021-12-27 14:43:30.032678,172
2021-12-27 14:43:30.032685,203
2021-12-27 14:43:30.032692,234
2021-12-27 14:43:30.032699,268
2021-12-27 14:43:30.032706,301
2021-12-27 14:43:30.032713,328
2021-12-27 14:43:30.275908,354
2021-12-27 14:43:30.275929,376
2021-12-27 14:43:30.275934,385
2021-12-27 14:43:30.275939,383
2021-12-27 14:43:30.275944,366
2021-12-27 14:43:30.275949,335
2021-12-27 14:43:30.275953,287
2021-12-27 14:43:30.275958,210
2021-12-27 14:43:30.275962,117
2021-12-27 14:43:30.275967,23
2021-12-27 14:43:30.275971,-57
2021-12-27 14:43:30.275976,-119
2021-12-27 14:43:30.275980,-158
2021-12-27 14:43:30.275985,-184
2021-12-27 14:43:30.275990,-198
2021-12-27 14:43:30.275994,-198
2021-12-27 14:43:30.275999,-194
2021-12-27 14:43:30.276004,-186
2021-12-27 14:43:30.276008,-177
2021-12-27 14:43:30.276013,-162
2021-12-27 14:43:30.276017,-150
2021-12-27 14:43:30.276022,-141
2021-12-27 14:43:30.276026,-134
2021-12-27 14:43:30.276030,-124
2021-12-27 14:43:30.276035,-112
2021-12-27 14:43:30.276039,-105
2021-12-27 14:43:30.276044,-103
2021-12-27 14:43:30.276048,-98
2021-12-27 14:43:30.276053,-88
2021-12-27 14:43:30.276057,-81
2021-12-27 14:43:30.566784,-79
2021-12-27 14:43:30.566801,-71
2021-12-27 14:43:30.566807,-67
2021-12-27 14:43:30.566811,-62
2021-12-27 14:43:30.566816,-59
2021-12-27 14:43:30.566821,-57
2021-12-27 14:43:30.566825,-57
2021-12-27 14:43:30.566830,-50
2021-12-27 14:43:30.566834,-47
2021-12-27 14:43:30.566839,-45
2021-12-27 14:43:30.566844,-40
2021-12-27 14:43:30.566848,-38
2021-12-27 14:43:30.566853,-38
2021-12-27 14:43:30.566857,-35
2021-12-27 14:43:30.566862,-31
2021-12-27 14:43:30.566866,-28
2021-12-27 14:43:30.566871,-23
2021-12-27 14:43:30.566875,-16
2021-12-27 14:43:30.566880,-16
2021-12-27 14:43:30.566884,-14
2021-12-27 14:43:30.566889,-9
2021-12-27 14:43:30.566893,-7
2021-12-27 14:43:30.566898,-4
2021-12-27 14:43:30.566902,0
2021-12-27 14:43:30.566906,2
2021-12-27 14:43:30.566911,4
2021-12-27 14:43:30.566916,7
2021-12-27 14:43:30.566920,7
2021-12-27 14:43:30.566925,4
2021-12-27 14:43:30.566929,4
2021-12-27 14:43:30.763182,9
2021-12-27 14:43:30.763210,11
2021-12-27 14:43:30.763219,7
2021-12-27 14:43:30.763226,2
2021-12-27 14:43:30.763233,9
2021-12-27 14:43:30.763240,35
2021-12-27 14:43:30.763247,64
2021-12-27 14:43:30.763254,57
2021-12-27 14:43:30.763261,35
2021-12-27 14:43:30.763268,33
2021-12-27 14:43:30.763275,28
2021-12-27 14:43:30.763282,14
2021-12-27 14:43:30.763288,4
2021-12-27 14:43:30.763296,-4
2021-12-27 14:43:30.763303,-9
2021-12-27 14:43:30.763309,-4
2021-12-27 14:43:30.763316,2
2021-12-27 14:43:30.763323,2
2021-12-27 14:43:30.763330,4
2021-12-27 14:43:30.763337,7
2021-12-27 14:43:30.763344,9
2021-12-27 14:43:30.763351,0
2021-12-27 14:43:30.763358,-31
2021-12-27 14:43:30.763365,-81
2021-12-27 14:43:30.763372,-38
2021-12-27 14:43:30.763379,376
2021-12-27 14:43:30.763386,1267
2021-12-27 14:43:30.763394,1953
2021-12-27 14:43:30.763401,1490
2021-12-27 14:43:30.763408,318
2021-12-27 14:43:30.958581,-268
2021-12-27 14:43:30.958609,-232
2021-12-27 14:43:30.958618,-194
2021-12-27 14:43:30.958625,-139
2021-12-27 14:43:30.958632,-23
2021-12-27 14:43:30.958639,-9
2021-12-27 14:43:30.958646,-31
2021-12-27 14:43:30.958653,2
2021-12-27 14:43:30.958767,28
2021-12-27 14:43:30.958775,21
2021-12-27 14:43:30.958783,35
2021-12-27 14:43:30.958790,64
2021-12-27 14:43:30.958797,81
2021-12-27 14:43:30.958804,98
2021-12-27 14:43:30.958811,122
2021-12-27 14:43:30.958818,141
2021-12-27 14:43:30.958825,165
2021-12-27 14:43:30.958832,196
2021-12-27 14:43:30.958839,230
2021-12-27 14:43:30.958846,266
2021-12-27 14:43:30.958853,299
2021-12-27 14:43:30.958860,330
2021-12-27 14:43:30.958867,359
2021-12-27 14:43:30.958874,385
2021-12-27 14:43:30.958881,400
2021-12-27 14:43:30.958887,402
2021-12-27 14:43:30.958894,397
2021-12-27 14:43:30.958901,376
2021-12-27 14:43:30.958908,335
2021-12-27 14:43:30.958915,270
2021-12-27 14:43:31.202113,186
2021-12-27 14:43:31.202141,93
2021-12-27 14:43:31.202150,2
2021-12-27 14:43:31.202157,-74
2021-12-27 14:43:31.202165,-129
2021-12-27 14:43:31.202172,-162
2021-12-27 14:43:31.202179,-179
2021-12-27 14:43:31.202186,-189
2021-12-27 14:43:31.202193,-189
2021-12-27 14:43:31.202200,-186
2021-12-27 14:43:31.202207,-186
2021-12-27 14:43:31.202214,-182
2021-12-27 14:43:31.202221,-167
2021-12-27 14:43:31.202228,-155
2021-12-27 14:43:31.202235,-146
2021-12-27 14:43:31.202242,-131
2021-12-27 14:43:31.202249,-117
2021-12-27 14:43:31.202256,-110
2021-12-27 14:43:31.202263,-103
2021-12-27 14:43:31.202270,-91
2021-12-27 14:43:31.202277,-86
2021-12-27 14:43:31.202284,-79
2021-12-27 14:43:31.202291,-71
2021-12-27 14:43:31.202298,-64
2021-12-27 14:43:31.202305,-59
2021-12-27 14:43:31.202312,-55
2021-12-27 14:43:31.202319,-52
2021-12-27 14:43:31.202326,-47
2021-12-27 14:43:31.202333,-38
2021-12-27 14:43:31.202340,-31
2021-12-27 14:43:31.445653,-28
2021-12-27 14:43:31.445681,-28
2021-12-27 14:43:31.445689,-28
2021-12-27 14:43:31.445697,-26
2021-12-27 14:43:31.445704,-19
2021-12-27 14:43:31.445711,-14
2021-12-27 14:43:31.445718,-14
2021-12-27 14:43:31.445725,-14
2021-12-27 14:43:31.445732,-9
2021-12-27 14:43:31.445739,-4
2021-12-27 14:43:31.445746,0
2021-12-27 14:43:31.445753,4
2021-12-27 14:43:31.445761,2
2021-12-27 14:43:31.445768,2
2021-12-27 14:43:31.445775,9
2021-12-27 14:43:31.445782,11
2021-12-27 14:43:31.445789,9
2021-12-27 14:43:31.445796,16
2021-12-27 14:43:31.445803,23
2021-12-27 14:43:31.445810,26
2021-12-27 14:43:31.445818,26
2021-12-27 14:43:31.445825,23
2021-12-27 14:43:31.445831,26
2021-12-27 14:43:31.445838,33
2021-12-27 14:43:31.445845,35
2021-12-27 14:43:31.445853,28
2021-12-27 14:43:31.445859,28
2021-12-27 14:43:31.445867,59
2021-12-27 14:43:31.445874,95
2021-12-27 14:43:31.445881,103
2021-12-27 14:43:31.689249,88
2021-12-27 14:43:31.689277,79
2021-12-27 14:43:31.689287,71
2021-12-27 14:43:31.689294,55
2021-12-27 14:43:31.689301,47
2021-12-27 14:43:31.689308,43
2021-12-27 14:43:31.689315,33
2021-12-27 14:43:31.689322,28
2021-12-27 14:43:31.689329,28
2021-12-27 14:43:31.689336,28
2021-12-27 14:43:31.689343,28
2021-12-27 14:43:31.689349,26
2021-12-27 14:43:31.689356,28
2021-12-27 14:43:31.689363,35
2021-12-27 14:43:31.689370,11
2021-12-27 14:43:31.689377,-55
2021-12-27 14:43:31.689384,-81
2021-12-27 14:43:31.689390,179
2021-12-27 14:43:31.689397,951
2021-12-27 14:43:31.689404,1852
2021-12-27 14:43:31.689411,1814
2021-12-27 14:43:31.689418,671
2021-12-27 14:43:31.689425,-237
2021-12-27 14:43:31.689432,-294
2021-12-27 14:43:31.689439,-198
2021-12-27 14:43:31.689446,-179
2021-12-27 14:43:31.689453,-59
2021-12-27 14:43:31.689460,23
2021-12-27 14:43:31.689467,7
2021-12-27 14:43:31.689474,11
2021-12-27 14:43:31.933401,50
2021-12-27 14:43:31.933422,62
2021-12-27 14:43:31.933428,69
2021-12-27 14:43:31.933434,93
2021-12-27 14:43:31.933439,105
2021-12-27 14:43:31.933444,124
2021-12-27 14:43:31.933449,158
2021-12-27 14:43:31.933454,186
2021-12-27 14:43:31.933459,206
2021-12-27 14:43:31.933464,227
2021-12-27 14:43:31.933469,258
