Time,ECG
2021-12-27 14:22:55.576681,-19
2021-12-27 14:22:55.576714,-16
2021-12-27 14:22:55.576718,-38
2021-12-27 14:22:55.576721,-50
2021-12-27 14:22:55.576725,-52
2021-12-27 14:22:55.576728,-57
2021-12-27 14:22:55.576731,-59
2021-12-27 14:22:55.576734,-55
2021-12-27 14:22:55.576737,-50
2021-12-27 14:22:55.576741,-55
2021-12-27 14:22:55.576744,-59
2021-12-27 14:22:55.576747,-40
2021-12-27 14:22:55.576750,-45
2021-12-27 14:22:55.576753,-98
2021-12-27 14:22:55.576756,-146
2021-12-27 14:22:55.576759,-52
2021-12-27 14:22:55.576762,450
2021-12-27 14:22:55.576766,1378
2021-12-27 14:22:55.576769,1914
2021-12-27 14:22:55.576772,1205
2021-12-27 14:22:55.576775,-14
2021-12-27 14:22:55.576779,-462
2021-12-27 14:22:55.576782,-342
2021-12-27 14:22:55.576785,-287
2021-12-27 14:22:55.576788,-206
2021-12-27 14:22:55.576791,-71
2021-12-27 14:22:55.576794,-43
2021-12-27 14:22:55.576797,-50
2021-12-27 14:22:55.576801,-16
2021-12-27 14:22:55.576804,7
2021-12-27 14:22:55.764349,21
2021-12-27 14:22:55.764377,45
2021-12-27 14:22:55.764385,59
2021-12-27 14:22:55.764393,79
2021-12-27 14:22:55.764400,110
2021-12-27 14:22:55.764407,134
2021-12-27 14:22:55.764415,158
2021-12-27 14:22:55.764421,194
2021-12-27 14:22:55.764428,234
2021-12-27 14:22:55.764435,263
2021-12-27 14:22:55.764442,297
2021-12-27 14:22:55.764449,335
2021-12-27 14:22:55.764456,366
2021-12-27 14:22:55.764463,388
2021-12-27 14:22:55.764469,402
2021-12-27 14:22:55.764476,395
2021-12-27 14:22:55.764483,371
2021-12-27 14:22:55.764491,354
2021-12-27 14:22:55.764497,316
2021-12-27 14:22:55.764504,227
2021-12-27 14:22:55.764511,119
2021-12-27 14:22:55.764518,23
2021-12-27 14:22:55.764525,-59
2021-12-27 14:22:55.764532,-124
2021-12-27 14:22:55.764538,-170
2021-12-27 14:22:55.764545,-196
2021-12-27 14:22:55.764552,-206
2021-12-27 14:22:55.764559,-208
2021-12-27 14:22:55.764565,-208
2021-12-27 14:22:55.764576,-210
2021-12-27 14:22:55.960830,-208
2021-12-27 14:22:55.960848,-189
2021-12-27 14:22:55.960853,-172
2021-12-27 14:22:55.960857,-172
2021-12-27 14:22:55.960862,-172
2021-12-27 14:22:55.960866,-148
2021-12-27 14:22:55.960871,-124
2021-12-27 14:22:55.960875,-122
2021-12-27 14:22:55.960880,-122
2021-12-27 14:22:55.960884,-112
2021-12-27 14:22:55.960889,-112
2021-12-27 14:22:55.960893,-107
2021-12-27 14:22:55.960897,-93
2021-12-27 14:22:55.960904,-88
2021-12-27 14:22:55.960909,-88
2021-12-27 14:22:55.960913,-81
2021-12-27 14:22:55.960918,-79
2021-12-27 14:22:55.960922,-79
2021-12-27 14:22:55.960927,-81
2021-12-27 14:22:55.960931,-79
2021-12-27 14:22:55.960936,-76
2021-12-27 14:22:55.960940,-76
2021-12-27 14:22:55.960944,-67
2021-12-27 14:22:55.960949,-69
2021-12-27 14:22:55.960953,-81
2021-12-27 14:22:55.960958,-76
2021-12-27 14:22:55.960962,-64
2021-12-27 14:22:55.960966,-69
2021-12-27 14:22:55.960971,-74
2021-12-27 14:22:55.960977,-59
2021-12-27 14:22:56.204508,-55
2021-12-27 14:22:56.204530,-59
2021-12-27 14:22:56.204537,-55
2021-12-27 14:22:56.204541,-57
2021-12-27 14:22:56.204546,-67
2021-12-27 14:22:56.204551,-67
2021-12-27 14:22:56.204555,-71
2021-12-27 14:22:56.204559,-67
2021-12-27 14:22:56.204564,-55
2021-12-27 14:22:56.204568,-64
2021-12-27 14:22:56.204573,-71
2021-12-27 14:22:56.204578,-57
2021-12-27 14:22:56.204582,-31
2021-12-27 14:22:56.204587,-4
2021-12-27 14:22:56.204591,-9
2021-12-27 14:22:56.204596,-28
2021-12-27 14:22:56.204601,-31
2021-12-27 14:22:56.204625,-38
2021-12-27 14:22:56.204630,-52
2021-12-27 14:22:56.204634,-62
2021-12-27 14:22:56.204639,-67
2021-12-27 14:22:56.204644,-57
2021-12-27 14:22:56.204648,-52
2021-12-27 14:22:56.204653,-59
2021-12-27 14:22:56.204657,-55
2021-12-27 14:22:56.204662,-43
2021-12-27 14:22:56.204666,-43
2021-12-27 14:22:56.204671,-45
2021-12-27 14:22:56.204675,-55
2021-12-27 14:22:56.204680,-83
2021-12-27 14:22:56.448568,-129
2021-12-27 14:22:56.448596,-47
2021-12-27 14:22:56.448605,436
2021-12-27 14:22:56.448612,1330
2021-12-27 14:22:56.448619,1876
2021-12-27 14:22:56.448626,1251
2021-12-27 14:22:56.448633,76
2021-12-27 14:22:56.448647,-414
2021-12-27 14:22:56.448654,-325
2021-12-27 14:22:56.448661,-256
2021-12-27 14:22:56.448668,-177
2021-12-27 14:22:56.448674,-69
2021-12-27 14:22:56.448681,-55
2021-12-27 14:22:56.448688,-64
2021-12-27 14:22:56.448694,-31
2021-12-27 14:22:56.448701,0
2021-12-27 14:22:56.448708,11
2021-12-27 14:22:56.448714,21
2021-12-27 14:22:56.448721,40
2021-12-27 14:22:56.448728,67
2021-12-27 14:22:56.448734,93
2021-12-27 14:22:56.448741,115
2021-12-27 14:22:56.448748,141
2021-12-27 14:22:56.448755,177
2021-12-27 14:22:56.448762,208
2021-12-27 14:22:56.448768,242
2021-12-27 14:22:56.448775,278
2021-12-27 14:22:56.448782,311
2021-12-27 14:22:56.448789,345
2021-12-27 14:22:56.448797,366
2021-12-27 14:22:56.643084,381
2021-12-27 14:22:56.643106,388
2021-12-27 14:22:56.643114,376
2021-12-27 14:22:56.643121,347
2021-12-27 14:22:56.643128,311
2021-12-27 14:22:56.643135,249
2021-12-27 14:22:56.643141,155
2021-12-27 14:22:56.643147,55
2021-12-27 14:22:56.643153,-31
2021-12-27 14:22:56.643160,-100
2021-12-27 14:22:56.643166,-153
2021-12-27 14:22:56.643173,-184
2021-12-27 14:22:56.643180,-198
2021-12-27 14:22:56.643187,-196
2021-12-27 14:22:56.643194,-194
2021-12-27 14:22:56.643201,-198
2021-12-27 14:22:56.643209,-196
2021-12-27 14:22:56.643216,-179
2021-12-27 14:22:56.643223,-162
2021-12-27 14:22:56.643229,-155
2021-12-27 14:22:56.643237,-150
2021-12-27 14:22:56.643243,-136
2021-12-27 14:22:56.643250,-124
2021-12-27 14:22:56.643257,-119
2021-12-27 14:22:56.643269,-110
2021-12-27 14:22:56.643276,-100
2021-12-27 14:22:56.643283,-98
2021-12-27 14:22:56.643290,-93
2021-12-27 14:22:56.643297,-88
2021-12-27 14:22:56.643304,-86
2021-12-27 14:22:56.935615,-86
2021-12-27 14:22:56.935644,-83
2021-12-27 14:22:56.935652,-81
2021-12-27 14:22:56.935659,-79
2021-12-27 14:22:56.935666,-69
2021-12-27 14:22:56.935673,-74
2021-12-27 14:22:56.935680,-81
2021-12-27 14:22:56.935687,-71
2021-12-27 14:22:56.935693,-59
2021-12-27 14:22:56.935700,-67
2021-12-27 14:22:56.935707,-86
2021-12-27 14:22:56.935714,-93
2021-12-27 14:22:56.935721,-86
2021-12-27 14:22:56.935728,-79
2021-12-27 14:22:56.935735,-76
2021-12-27 14:22:56.935741,-74
2021-12-27 14:22:56.935748,-67
2021-12-27 14:22:56.935755,-57
2021-12-27 14:22:56.935762,-59
2021-12-27 14:22:56.935769,-67
2021-12-27 14:22:56.935776,-62
2021-12-27 14:22:56.935782,-45
2021-12-27 14:22:56.935792,-35
2021-12-27 14:22:56.935799,-43
2021-12-27 14:22:56.935806,-45
2021-12-27 14:22:56.935813,-38
2021-12-27 14:22:56.935819,-40
2021-12-27 14:22:56.935826,-40
2021-12-27 14:22:56.935833,-21
2021-12-27 14:22:56.935840,9
2021-12-27 14:22:57.131325,21
2021-12-27 14:22:57.131352,11
2021-12-27 14:22:57.131361,7
2021-12-27 14:22:57.131368,2
2021-12-27 14:22:57.131376,-14
2021-12-27 14:22:57.131382,-21
2021-12-27 14:22:57.131389,-26
2021-12-27 14:22:57.131396,-40
2021-12-27 14:22:57.131403,-40
2021-12-27 14:22:57.131410,-28
2021-12-27 14:22:57.131417,-31
2021-12-27 14:22:57.131424,-33
2021-12-27 14:22:57.131430,-28
2021-12-27 14:22:57.131437,-16
2021-12-27 14:22:57.131444,-16
2021-12-27 14:22:57.131451,-40
2021-12-27 14:22:57.131458,-76
2021-12-27 14:22:57.131465,-83
2021-12-27 14:22:57.131471,95
2021-12-27 14:22:57.131478,702
2021-12-27 14:22:57.131485,1565
2021-12-27 14:22:57.131492,1759
2021-12-27 14:22:57.131499,822
2021-12-27 14:22:57.131506,-174
2021-12-27 14:22:57.131520,-361
2021-12-27 14:22:57.131528,-256
2021-12-27 14:22:57.131535,-215
2021-12-27 14:22:57.131542,-100
2021-12-27 14:22:57.131549,-19
2021-12-27 14:22:57.131556,-33
2021-12-27 14:22:57.374929,-14
2021-12-27 14:22:57.374959,28
2021-12-27 14:22:57.374968,26
2021-12-27 14:22:57.374975,28
2021-12-27 14:22:57.374981,57
2021-12-27 14:22:57.374989,79
2021-12-27 14:22:57.374995,91
2021-12-27 14:22:57.375002,112
2021-12-27 14:22:57.375009,139
2021-12-27 14:22:57.375016,155
2021-12-27 14:22:57.375023,179
2021-12-27 14:22:57.375030,218
2021-12-27 14:22:57.375037,256
2021-12-27 14:22:57.375044,294
2021-12-27 14:22:57.375051,318
2021-12-27 14:22:57.375058,333
2021-12-27 14:22:57.375065,349
2021-12-27 14:22:57.375072,364
2021-12-27 14:22:57.375079,371
2021-12-27 14:22:57.375086,361
2021-12-27 14:22:57.375093,330
2021-12-27 14:22:57.375099,282
2021-12-27 14:22:57.375106,215
2021-12-27 14:22:57.375113,124
2021-12-27 14:22:57.375120,38
2021-12-27 14:22:57.375127,-35
2021-12-27 14:22:57.375134,-103
2021-12-27 14:22:57.375141,-148
2021-12-27 14:22:57.375148,-172
2021-12-27 14:22:57.375155,-184
2021-12-27 14:22:57.618001,-189
2021-12-27 14:22:57.618020,-179
2021-12-27 14:22:57.618025,-167
2021-12-27 14:22:57.618030,-160
2021-12-27 14:22:57.618034,-150
2021-12-27 14:22:57.618039,-139
2021-12-27 14:22:57.618043,-129
2021-12-27 14:22:57.618048,-122
2021-12-27 14:22:57.618052,-119
2021-12-27 14:22:57.618057,-110
2021-12-27 14:22:57.618061,-95
2021-12-27 14:22:57.618066,-91
2021-12-27 14:22:57.618070,-83
2021-12-27 14:22:57.618075,-69
2021-12-27 14:22:57.618079,-64
2021-12-27 14:22:57.618084,-62
2021-12-27 14:22:57.618088,-55
2021-12-27 14:22:57.618093,-52
2021-12-27 14:22:57.618097,-55
2021-12-27 14:22:57.618102,-47
2021-12-27 14:22:57.618106,-40
2021-12-27 14:22:57.618111,-43
2021-12-27 14:22:57.618115,-40
2021-12-27 14:22:57.618120,-33
2021-12-27 14:22:57.618124,-35
2021-12-27 14:22:57.618129,-40
2021-12-27 14:22:57.618133,-33
2021-12-27 14:22:57.618138,-26
2021-12-27 14:22:57.618142,-19
2021-12-27 14:22:57.618146,-16
2021-12-27 14:22:57.860423,-19
2021-12-27 14:22:57.860442,-14
2021-12-27 14:22:57.860448,2
2021-12-27 14:22:57.860452,16
2021-12-27 14:22:57.860457,9
2021-12-27 14:22:57.860461,-4
2021-12-27 14:22:57.860466,2
2021-12-27 14:22:57.860470,16
2021-12-27 14:22:57.860474,21
2021-12-27 14:22:57.860479,21
2021-12-27 14:22:57.860489,19
2021-12-27 14:22:57.860494,16
2021-12-27 14:22:57.860498,9
2021-12-27 14:22:57.860503,14
2021-12-27 14:22:57.860507,43
2021-12-27 14:22:57.860512,69
2021-12-27 14:22:57.860516,86
2021-12-27 14:22:57.860520,91
2021-12-27 14:22:57.860525,74
2021-12-27 14:22:57.860529,59
2021-12-27 14:22:57.860534,55
2021-12-27 14:22:57.860538,33
2021-12-27 14:22:57.860543,9
2021-12-27 14:22:57.860547,16
2021-12-27 14:22:57.860552,40
2021-12-27 14:22:57.860556,43
2021-12-27 14:22:57.860561,35
2021-12-27 14:22:57.860565,38
2021-12-27 14:22:57.860570,47
2021-12-27 14:22:57.860574,50
2021-12-27 14:22:58.104580,47
2021-12-27 14:22:58.104599,38
2021-12-27 14:22:58.104604,0
2021-12-27 14:22:58.104608,-26
2021-12-27 14:22:58.104612,162
2021-12-27 14:22:58.104615,814
2021-12-27 14:22:58.104619,1708
2021-12-27 14:22:58.104623,1864
2021-12-27 14:22:58.104626,841
2021-12-27 14:22:58.104630,-186
2021-12-27 14:22:58.104634,-342
2021-12-27 14:22:58.104638,-213
2021-12-27 14:22:58.104642,-186
2021-12-27 14:22:58.104646,-69
2021-12-27 14:22:58.104650,57
2021-12-27 14:22:58.104653,59
2021-12-27 14:22:58.104657,52
2021-12-27 14:22:58.104661,100
2021-12-27 14:22:58.104665,124
2021-12-27 14:22:58.104668,129
2021-12-27 14:22:58.104672,153
2021-12-27 14:22:58.104676,177
2021-12-27 14:22:58.104679,196
2021-12-27 14:22:58.104683,218
2021-12-27 14:22:58.104687,249
2021-12-27 14:22:58.104696,273
2021-12-27 14:22:58.104701,294
2021-12-27 14:22:58.104705,321
2021-12-27 14:22:58.104708,361
2021-12-27 14:22:58.104712,414
2021-12-27 14:22:58.300422,448
2021-12-27 14:22:58.300446,460
2021-12-27 14:22:58.300452,469
2021-12-27 14:22:58.300492,474
2021-12-27 14:22:58.300502,476
2021-12-27 14:22:58.300509,467
2021-12-27 14:22:58.300516,433
2021-12-27 14:22:58.300523,376
2021-12-27 14:22:58.300530,297
2021-12-27 14:22:58.300550,194
2021-12-27 14:22:58.300557,91
2021-12-27 14:22:58.300561,9
2021-12-27 14:22:58.300566,-55
2021-12-27 14:22:58.300570,-105
2021-12-27 14:22:58.300575,-143
2021-12-27 14:22:58.300579,-162
2021-12-27 14:22:58.300584,-165
2021-12-27 14:22:58.300588,-165
2021-12-27 14:22:58.300592,-165
2021-12-27 14:22:58.300597,-143
2021-12-27 14:22:58.300601,-122
2021-12-27 14:22:58.300605,-122
2021-12-27 14:22:58.300610,-119
2021-12-27 14:22:58.300614,-105
2021-12-27 14:22:58.300618,-91
2021-12-27 14:22:58.300623,-86
2021-12-27 14:22:58.300627,-91
2021-12-27 14:22:58.300631,-95
2021-12-27 14:22:58.300636,-83
2021-12-27 14:22:58.300640,-71
2021-12-27 14:22:58.496168,-74
2021-12-27 14:22:58.496197,-79
2021-12-27 14:22:58.496205,-71
2021-12-27 14:22:58.496212,-67
2021-12-27 14:22:58.496219,-74
2021-12-27 14:22:58.496226,-74
2021-12-27 14:22:58.496233,-59
2021-12-27 14:22:58.496240,-50
2021-12-27 14:22:58.496247,-57
2021-12-27 14:22:58.496254,-62
2021-12-27 14:22:58.496261,-57
2021-12-27 14:22:58.496268,-57
2021-12-27 14:22:58.496274,-62
2021-12-27 14:22:58.496281,-47
2021-12-27 14:22:58.496288,-35
2021-12-27 14:22:58.496295,-40
2021-12-27 14:22:58.496309,-50
2021-12-27 14:22:58.496316,-47
2021-12-27 14:22:58.496323,-38
2021-12-27 14:22:58.496330,-35
2021-12-27 14:22:58.496337,-35
2021-12-27 14:22:58.496344,-33
2021-12-27 14:22:58.496350,-31
2021-12-27 14:22:58.496357,-28
2021-12-27 14:22:58.496364,-31
2021-12-27 14:22:58.496371,-28
2021-12-27 14:22:58.496378,-2
2021-12-27 14:22:58.496385,33
2021-12-27 14:22:58.496392,43
2021-12-27 14:22:58.496399,28
2021-12-27 14:22:58.739377,9
2021-12-27 14:22:58.739405,-2
2021-12-27 14:22:58.739414,-7
2021-12-27 14:22:58.739421,-2
2021-12-27 14:22:58.739428,-11
2021-12-27 14:22:58.739435,-23
2021-12-27 14:22:58.739442,-19
2021-12-27 14:22:58.739449,-9
2021-12-27 14:22:58.739456,-11
2021-12-27 14:22:58.739462,-14
2021-12-27 14:22:58.739469,-9
2021-12-27 14:22:58.739476,-7
2021-12-27 14:22:58.739483,-21
2021-12-27 14:22:58.739490,-50
2021-12-27 14:22:58.739496,-83
2021-12-27 14:22:58.739503,-21
2021-12-27 14:22:58.739510,383
2021-12-27 14:22:58.739517,1234
2021-12-27 14:22:58.739524,1910
2021-12-27 14:22:58.739530,1461
2021-12-27 14:22:58.739537,251
2021-12-27 14:22:58.739544,-388
2021-12-27 14:22:58.739551,-321
2021-12-27 14:22:58.739558,-227
2021-12-27 14:22:58.739565,-165
2021-12-27 14:22:58.739571,-45
2021-12-27 14:22:58.739578,-16
2021-12-27 14:22:58.739585,-38
2021-12-27 14:22:58.739592,-2
2021-12-27 14:22:58.739599,31
2021-12-27 14:22:58.983635,33
2021-12-27 14:22:58.983662,52
2021-12-27 14:22:58.983671,69
2021-12-27 14:22:58.983678,76
2021-12-27 14:22:58.983685,103
2021-12-27 14:22:58.983691,129
2021-12-27 14:22:58.983698,143
2021-12-27 14:22:58.983704,167
2021-12-27 14:22:58.983711,203
2021-12-27 14:22:58.983718,234
2021-12-27 14:22:58.983725,273
2021-12-27 14:22:58.983731,318
2021-12-27 14:22:58.983738,347
2021-12-27 14:22:58.983750,361
2021-12-27 14:22:58.983757,378
2021-12-27 14:22:58.983764,383
2021-12-27 14:22:58.983771,371
2021-12-27 14:22:58.983777,347
2021-12-27 14:22:58.983784,304
2021-12-27 14:22:58.983791,227
2021-12-27 14:22:58.983797,136
2021-12-27 14:22:58.983804,43
2021-12-27 14:22:58.983811,-38
2021-12-27 14:22:58.983818,-105
2021-12-27 14:22:58.983824,-150
2021-12-27 14:22:58.983831,-186
2021-12-27 14:22:58.983838,-210
2021-12-27 14:22:58.983845,-215
2021-12-27 14:22:58.983852,-210
2021-12-27 14:22:58.983858,-206
2021-12-27 14:22:59.178687,-201
2021-12-27 14:22:59.178716,-189
2021-12-27 14:22:59.178725,-174
2021-12-27 14:22:59.178732,-167
2021-12-27 14:22:59.178739,-160
2021-12-27 14:22:59.178746,-150
2021-12-27 14:22:59.178753,-146
2021-12-27 14:22:59.178760,-129
2021-12-27 14:22:59.178767,-117
2021-12-27 14:22:59.178774,-124
2021-12-27 14:22:59.178781,-112
2021-12-27 14:22:59.178788,-91
2021-12-27 14:22:59.178795,-93
2021-12-27 14:22:59.178802,-103
2021-12-27 14:22:59.178809,-95
2021-12-27 14:22:59.178816,-91
2021-12-27 14:22:59.178823,-95
2021-12-27 14:22:59.178830,-98
2021-12-27 14:22:59.178837,-93
2021-12-27 14:22:59.178844,-81
2021-12-27 14:22:59.178851,-79
2021-12-27 14:22:59.178858,-91
2021-12-27 14:22:59.178865,-88
2021-12-27 14:22:59.178872,-83
2021-12-27 14:22:59.178878,-86
2021-12-27 14:22:59.178885,-81
2021-12-27 14:22:59.178892,-74
2021-12-27 14:22:59.178900,-71
2021-12-27 14:22:59.178907,-69
2021-12-27 14:22:59.178914,-67
2021-12-27 14:22:59.422452,-69
2021-12-27 14:22:59.422482,-62
2021-12-27 14:22:59.422491,-52
2021-12-27 14:22:59.422498,-59
2021-12-27 14:22:59.422505,-59
2021-12-27 14:22:59.422512,-50
2021-12-27 14:22:59.422518,-50
2021-12-27 14:22:59.422526,-55
2021-12-27 14:22:59.422532,-57
2021-12-27 14:22:59.422539,-57
2021-12-27 14:22:59.422546,-62
2021-12-27 14:22:59.422553,-64
2021-12-27 14:22:59.422560,-55
2021-12-27 14:22:59.422567,-23
2021-12-27 14:22:59.422574,9
2021-12-27 14:22:59.422581,9
2021-12-27 14:22:59.422588,-11
2021-12-27 14:22:59.422600,-14
2021-12-27 14:22:59.422608,-14
2021-12-27 14:22:59.422615,-28
2021-12-27 14:22:59.422621,-43
2021-12-27 14:22:59.422628,-50
2021-12-27 14:22:59.422635,-45
2021-12-27 14:22:59.422642,-40
2021-12-27 14:22:59.422648,-43
2021-12-27 14:22:59.422655,-43
2021-12-27 14:22:59.422662,-35
2021-12-27 14:22:59.422669,-31
2021-12-27 14:22:59.422675,-28
2021-12-27 14:22:59.422682,-38
2021-12-27 14:22:59.666135,-67
2021-12-27 14:22:59.666170,-95
2021-12-27 14:22:59.666178,-47
2021-12-27 14:22:59.666186,289
2021-12-27 14:22:59.666193,1088
2021-12-27 14:22:59.666199,1799
2021-12-27 14:22:59.666206,1457
2021-12-27 14:22:59.666213,306
2021-12-27 14:22:59.666220,-357
2021-12-27 14:22:59.666226,-330
2021-12-27 14:22:59.666233,-251
2021-12-27 14:22:59.666240,-184
2021-12-27 14:22:59.666247,-62
2021-12-27 14:22:59.666254,-35
2021-12-27 14:22:59.666260,-57
2021-12-27 14:22:59.666267,-28
2021-12-27 14:22:59.666274,4
2021-12-27 14:22:59.666281,9
2021-12-27 14:22:59.666287,26
2021-12-27 14:22:59.666294,59
2021-12-27 14:22:59.666301,81
2021-12-27 14:22:59.666308,95
2021-12-27 14:22:59.666314,119
2021-12-27 14:22:59.666321,148
2021-12-27 14:22:59.666328,174
2021-12-27 14:22:59.666334,196
2021-12-27 14:22:59.666341,225
2021-12-27 14:22:59.666348,266
2021-12-27 14:22:59.666355,309
2021-12-27 14:22:59.666362,347
2021-12-27 14:22:59.957383,366
2021-12-27 14:22:59.957412,381
2021-12-27 14:22:59.957420,397
2021-12-27 14:22:59.957427,395
2021-12-27 14:22:59.957434,378
2021-12-27 14:22:59.957441,345
2021-12-27 14:22:59.957448,282
2021-12-27 14:22:59.957455,198
2021-12-27 14:22:59.957462,107
2021-12-27 14:22:59.957469,16
2021-12-27 14:22:59.957476,-57
2021-12-27 14:22:59.957483,-107
2021-12-27 14:22:59.957490,-150
2021-12-27 14:22:59.957496,-182
2021-12-27 14:22:59.957503,-194
2021-12-27 14:22:59.957510,-191
2021-12-27 14:22:59.957517,-184
2021-12-27 14:22:59.957524,-179
2021-12-27 14:22:59.957531,-172
2021-12-27 14:22:59.957538,-155
2021-12-27 14:22:59.957544,-143
2021-12-27 14:22:59.957551,-134
2021-12-27 14:22:59.957558,-119
2021-12-27 14:22:59.957597,-105
2021-12-27 14:22:59.957604,-95
2021-12-27 14:22:59.957611,-86
2021-12-27 14:22:59.957618,-76
2021-12-27 14:22:59.957625,-69
2021-12-27 14:22:59.957631,-67
2021-12-27 14:22:59.957644,-59
2021-12-27 14:23:00.104602,-55
2021-12-27 14:23:00.104624,-52
2021-12-27 14:23:00.104631,-47
2021-12-27 14:23:00.104636,-45
2021-12-27 14:23:00.104641,-47
2021-12-27 14:23:00.104647,-40
2021-12-27 14:23:00.104652,-35
2021-12-27 14:23:00.104657,-43
2021-12-27 14:23:00.104662,-43
2021-12-27 14:23:00.104668,-33
2021-12-27 14:23:00.104673,-31
2021-12-27 14:23:00.104678,-31
2021-12-27 14:23:00.104683,-21
2021-12-27 14:23:00.104688,-14
2021-12-27 14:23:00.104693,-16
2021-12-27 14:23:00.104698,-23
2021-12-27 14:23:00.104702,-26
2021-12-27 14:23:00.104707,-19
2021-12-27 14:23:00.104712,-2
2021-12-27 14:23:00.104717,2
2021-12-27 14:23:00.104722,0
2021-12-27 14:23:00.104727,4
2021-12-27 14:23:00.104731,4
2021-12-27 14:23:00.104736,2
2021-12-27 14:23:00.104741,9
2021-12-27 14:23:00.104746,21
2021-12-27 14:23:00.104751,16
2021-12-27 14:23:00.104756,2
2021-12-27 14:23:00.104761,19
2021-12-27 14:23:00.104766,59
2021-12-27 14:23:00.348249,74
2021-12-27 14:23:00.348277,69
2021-12-27 14:23:00.348286,62
2021-12-27 14:23:00.348293,52
2021-12-27 14:23:00.348300,50
2021-12-27 14:23:00.348307,38
2021-12-27 14:23:00.348314,14
2021-12-27 14:23:00.348321,7
2021-12-27 14:23:00.348328,16
2021-12-27 14:23:00.348335,21
2021-12-27 14:23:00.348342,19
2021-12-27 14:23:00.348348,11
2021-12-27 14:23:00.348355,9
2021-12-27 14:23:00.348362,21
2021-12-27 14:23:00.348369,33
2021-12-27 14:23:00.348376,16
2021-12-27 14:23:00.348383,-23
2021-12-27 14:23:00.348390,-59
2021-12-27 14:23:00.348397,35
2021-12-27 14:23:00.348404,551
2021-12-27 14:23:00.348411,1481
2021-12-27 14:23:00.348418,1948
2021-12-27 14:23:00.348425,1143
2021-12-27 14:23:00.348432,-57
2021-12-27 14:23:00.348439,-414
2021-12-27 14:23:00.348446,-280
2021-12-27 14:23:00.348453,-246
2021-12-27 14:23:00.348461,-153
2021-12-27 14:23:00.348468,4
2021-12-27 14:23:00.348475,26
2021-12-27 14:23:00.592429,-4
2021-12-27 14:23:00.592457,40
2021-12-27 14:23:00.592466,71
2021-12-27 14:23:00.592473,59
2021-12-27 14:23:00.592480,76
2021-12-27 14:23:00.592487,117
2021-12-27 14:23:00.592494,134
2021-12-27 14:23:00.592501,146
2021-12-27 14:23:00.592508,170
2021-12-27 14:23:00.592514,191
2021-12-27 14:23:00.592521,222
2021-12-27 14:23:00.592528,258
2021-12-27 14:23:00.592535,287
2021-12-27 14:23:00.592542,311
2021-12-27 14:23:00.592549,347
2021-12-27 14:23:00.592556,376
2021-12-27 14:23:00.592563,390
2021-12-27 14:23:00.592570,409
2021-12-27 14:23:00.592576,412
2021-12-27 14:23:00.592583,395
2021-12-27 14:23:00.592598,369
2021-12-27 14:23:00.592605,318
2021-12-27 14:23:00.592612,239
2021-12-27 14:23:00.592619,143
2021-12-27 14:23:00.592626,52
2021-12-27 14:23:00.592633,-33
2021-12-27 14:23:00.592639,-103
2021-12-27 14:23:00.592646,-150
2021-12-27 14:23:00.592653,-177
2021-12-27 14:23:00.592660,-198
2021-12-27 14:23:00.836126,-206
2021-12-27 14:23:00.836154,-208
2021-12-27 14:23:00.836162,-208
2021-12-27 14:23:00.836170,-206
2021-12-27 14:23:00.836177,-189
2021-12-27 14:23:00.836185,-170
2021-12-27 14:23:00.836192,-160
2021-12-27 14:23:00.836199,-158
2021-12-27 14:23:00.836205,-158
2021-12-27 14:23:00.836212,-148
2021-12-27 14:23:00.836219,-131
2021-12-27 14:23:00.836226,-129
2021-12-27 14:23:00.836233,-124
2021-12-27 14:23:00.836241,-115
2021-12-27 14:23:00.836247,-112
2021-12-27 14:23:00.836255,-117
2021-12-27 14:23:00.836262,-119
2021-12-27 14:23:00.836269,-115
2021-12-27 14:23:00.836276,-103
2021-12-27 14:23:00.836283,-95
2021-12-27 14:23:00.836290,-100
2021-12-27 14:23:00.836296,-100
2021-12-27 14:23:00.836303,-98
2021-12-27 14:23:00.836310,-103
2021-12-27 14:23:00.836317,-110
2021-12-27 14:23:00.836324,-110
2021-12-27 14:23:00.836331,-100
2021-12-27 14:23:00.836338,-100
2021-12-27 14:23:00.836345,-103
2021-12-27 14:23:00.836352,-93
2021-12-27 14:23:01.031288,-86
2021-12-27 14:23:01.031316,-88
2021-12-27 14:23:01.031325,-81
2021-12-27 14:23:01.031332,-71
2021-12-27 14:23:01.031340,-69
2021-12-27 14:23:01.031346,-76
2021-12-27 14:23:01.031353,-74
2021-12-27 14:23:01.031360,-64
2021-12-27 14:23:01.031367,-71
2021-12-27 14:23:01.031374,-86
2021-12-27 14:23:01.031381,-76
2021-12-27 14:23:01.031388,-40
2021-12-27 14:23:01.031394,-11
2021-12-27 14:23:01.031401,-9
2021-12-27 14:23:01.031408,-11
2021-12-27 14:23:01.031415,-16
2021-12-27 14:23:01.031422,-35
2021-12-27 14:23:01.031429,-52
2021-12-27 14:23:01.031436,-55
2021-12-27 14:23:01.031443,-62
2021-12-27 14:23:01.031450,-64
2021-12-27 14:23:01.031456,-59
2021-12-27 14:23:01.031463,-62
2021-12-27 14:23:01.031470,-62
2021-12-27 14:23:01.031477,-45
2021-12-27 14:23:01.031484,-38
2021-12-27 14:23:01.031490,-38
2021-12-27 14:23:01.031497,-40
2021-12-27 14:23:01.031504,-74
2021-12-27 14:23:01.031511,-119
2021-12-27 14:23:01.274744,-62
2021-12-27 14:23:01.274772,342
2021-12-27 14:23:01.274781,1215
2021-12-27 14:23:01.274788,1912
2021-12-27 14:23:01.274795,1459
2021-12-27 14:23:01.274802,227
2021-12-27 14:23:01.274809,-421
2021-12-27 14:23:01.274817,-357
2021-12-27 14:23:01.274824,-266
2021-12-27 14:23:01.274831,-198
2021-12-27 14:23:01.274838,-86
2021-12-27 14:23:01.274845,-71
2021-12-27 14:23:01.274852,-88
2021-12-27 14:23:01.274859,-50
2021-12-27 14:23:01.274866,-21
2021-12-27 14:23:01.274873,-19
2021-12-27 14:23:01.274880,4
2021-12-27 14:23:01.274887,28
2021-12-27 14:23:01.274894,40
2021-12-27 14:23:01.274901,62
2021-12-27 14:23:01.274908,93
2021-12-27 14:23:01.274915,124
2021-12-27 14:23:01.274928,150
2021-12-27 14:23:01.274935,174
2021-12-27 14:23:01.274942,206
2021-12-27 14:23:01.274949,246
2021-12-27 14:23:01.274955,289
2021-12-27 14:23:01.274962,316
2021-12-27 14:23:01.274969,337
2021-12-27 14:23:01.274976,352
2021-12-27 14:23:01.518823,345
2021-12-27 14:23:01.518852,333
2021-12-27 14:23:01.518860,321
2021-12-27 14:23:01.518868,282
2021-12-27 14:23:01.518875,218
2021-12-27 14:23:01.518882,124
2021-12-27 14:23:01.518889,21
2021-12-27 14:23:01.518896,-69
2021-12-27 14:23:01.518903,-136
2021-12-27 14:23:01.518910,-186
2021-12-27 14:23:01.518917,-222
2021-12-27 14:23:01.518924,-239
2021-12-27 14:23:01.518931,-242
2021-12-27 14:23:01.518938,-239
2021-12-27 14:23:01.518945,-232
2021-12-27 14:23:01.518952,-227
2021-12-27 14:23:01.518959,-222
2021-12-27 14:23:01.518966,-210
2021-12-27 14:23:01.518973,-198
2021-12-27 14:23:01.518980,-191
2021-12-27 14:23:01.518988,-179
2021-12-27 14:23:01.518995,-167
2021-12-27 14:23:01.519002,-155
2021-12-27 14:23:01.519009,-146
2021-12-27 14:23:01.519015,-136
2021-12-27 14:23:01.519022,-127
2021-12-27 14:23:01.519029,-124
2021-12-27 14:23:01.519037,-119
2021-12-27 14:23:01.519044,-105
2021-12-27 14:23:01.519051,-100
2021-12-27 14:23:01.811265,-98
2021-12-27 14:23:01.811295,-95
2021-12-27 14:23:01.811304,-100
2021-12-27 14:23:01.811311,-110
2021-12-27 14:23:01.811318,-112
2021-12-27 14:23:01.811325,-100
2021-12-27 14:23:01.811332,-79
2021-12-27 14:23:01.811339,-76
2021-12-27 14:23:01.811346,-93
2021-12-27 14:23:01.811353,-100
2021-12-27 14:23:01.811360,-83
2021-12-27 14:23:01.811367,-74
2021-12-27 14:23:01.811374,-83
2021-12-27 14:23:01.811381,-93
2021-12-27 14:23:01.811388,-86
2021-12-27 14:23:01.811395,-76
2021-12-27 14:23:01.811402,-76
2021-12-27 14:23:01.811409,-76
2021-12-27 14:23:01.811416,-71
2021-12-27 14:23:01.811423,-62
2021-12-27 14:23:01.811430,-57
2021-12-27 14:23:01.811437,-57
2021-12-27 14:23:01.811443,-52
2021-12-27 14:23:01.811450,-43
2021-12-27 14:23:01.811457,-47
2021-12-27 14:23:01.811464,-45
2021-12-27 14:23:01.811471,-33
2021-12-27 14:23:01.811478,-40
2021-12-27 14:23:01.811484,-47
2021-12-27 14:23:01.811491,-7
2021-12-27 14:23:02.004407,33
2021-12-27 14:23:02.004436,19
2021-12-27 14:23:02.004445,-4
2021-12-27 14:23:02.004452,-7
2021-12-27 14:23:02.004459,-16
2021-12-27 14:23:02.004466,-35
2021-12-27 14:23:02.004473,-45
2021-12-27 14:23:02.004480,-47
2021-12-27 14:23:02.004487,-40
2021-12-27 14:23:02.004494,-33
2021-12-27 14:23:02.004501,-38
2021-12-27 14:23:02.004508,-45
2021-12-27 14:23:02.004515,-40
2021-12-27 14:23:02.004522,-35
2021-12-27 14:23:02.004529,-38
2021-12-27 14:23:02.004536,-45
2021-12-27 14:23:02.004543,-76
2021-12-27 14:23:02.004550,-117
2021-12-27 14:23:02.004557,-11
2021-12-27 14:23:02.004564,496
2021-12-27 14:23:02.004571,1375
2021-12-27 14:23:02.004578,1843
2021-12-27 14:23:02.004585,1136
2021-12-27 14:23:02.004591,0
2021-12-27 14:23:02.004598,-395
2021-12-27 14:23:02.004605,-285
2021-12-27 14:23:02.004612,-232
2021-12-27 14:23:02.004619,-143
2021-12-27 14:23:02.004626,-35
2021-12-27 14:23:02.004633,-40
2021-12-27 14:23:02.201044,-50
2021-12-27 14:23:02.201067,-4
2021-12-27 14:23:02.201073,14
2021-12-27 14:23:02.201078,14
2021-12-27 14:23:02.201082,43
2021-12-27 14:23:02.201091,71
2021-12-27 14:23:02.201096,88
2021-12-27 14:23:02.201100,95
2021-12-27 14:23:02.201105,115
2021-12-27 14:23:02.201109,153
2021-12-27 14:23:02.201113,182
2021-12-27 14:23:02.201118,198
2021-12-27 14:23:02.201122,220
2021-12-27 14:23:02.201127,266
2021-12-27 14:23:02.201131,311
2021-12-27 14:23:02.201135,337
2021-12-27 14:23:02.201140,354
2021-12-27 14:23:02.201144,371
2021-12-27 14:23:02.201148,381
2021-12-27 14:23:02.201153,364
2021-12-27 14:23:02.201157,333
2021-12-27 14:23:02.201162,297
2021-12-27 14:23:02.201166,246
2021-12-27 14:23:02.201170,158
2021-12-27 14:23:02.201175,52
2021-12-27 14:23:02.201179,-23
2021-12-27 14:23:02.201184,-81
2021-12-27 14:23:02.201188,-139
2021-12-27 14:23:02.201193,-177
2021-12-27 14:23:02.201197,-189
2021-12-27 14:23:02.542156,-196
2021-12-27 14:23:02.542184,-198
2021-12-27 14:23:02.542193,-189
2021-12-27 14:23:02.542200,-179
2021-12-27 14:23:02.542207,-170
2021-12-27 14:23:02.542213,-158
2021-12-27 14:23:02.542220,-155
2021-12-27 14:23:02.542227,-158
2021-12-27 14:23:02.542234,-134
2021-12-27 14:23:02.542241,-115
2021-12-27 14:23:02.542248,-129
2021-12-27 14:23:02.542255,-134
2021-12-27 14:23:02.542262,-103
2021-12-27 14:23:02.542268,-88
2021-12-27 14:23:02.542275,-105
2021-12-27 14:23:02.542282,-103
2021-12-27 14:23:02.542289,-86
2021-12-27 14:23:02.542296,-83
2021-12-27 14:23:02.542302,-88
2021-12-27 14:23:02.542309,-81
2021-12-27 14:23:02.542316,-79
2021-12-27 14:23:02.542322,-76
2021-12-27 14:23:02.542329,-71
2021-12-27 14:23:02.542336,-69
2021-12-27 14:23:02.542343,-67
2021-12-27 14:23:02.542349,-52
2021-12-27 14:23:02.542356,-45
2021-12-27 14:23:02.542363,-47
2021-12-27 14:23:02.542370,-43
2021-12-27 14:23:02.542377,-35
2021-12-27 14:23:02.642109,-28
2021-12-27 14:23:02.642149,-21
2021-12-27 14:23:02.642195,-19
2021-12-27 14:23:02.642254,-23
2021-12-27 14:23:02.642295,-21
2021-12-27 14:23:02.642329,-2
2021-12-27 14:23:02.642390,9
2021-12-27 14:23:02.642451,-2
2021-12-27 14:23:02.642464,-4
2021-12-27 14:23:02.642525,0
2021-12-27 14:23:02.642535,9
2021-12-27 14:23:02.642570,19
2021-12-27 14:23:02.642576,14
2021-12-27 14:23:02.642581,11
2021-12-27 14:23:02.642587,23
2021-12-27 14:23:02.642593,21
2021-12-27 14:23:02.642599,9
2021-12-27 14:23:02.642604,19
2021-12-27 14:23:02.642610,43
2021-12-27 14:23:02.642616,69
2021-12-27 14:23:02.642622,86
2021-12-27 14:23:02.642628,79
2021-12-27 14:23:02.642635,62
2021-12-27 14:23:02.642641,55
2021-12-27 14:23:02.642648,47
2021-12-27 14:23:02.642654,35
2021-12-27 14:23:02.642660,33
2021-12-27 14:23:02.642666,28
2021-12-27 14:23:02.642672,26
2021-12-27 14:23:02.642678,26
2021-12-27 14:23:02.883668,26
2021-12-27 14:23:02.883697,26
2021-12-27 14:23:02.883706,43
2021-12-27 14:23:02.883713,55
2021-12-27 14:23:02.883720,40
2021-12-27 14:23:02.883727,9
2021-12-27 14:23:02.883734,-16
2021-12-27 14:23:02.883741,-28
2021-12-27 14:23:02.883747,124
2021-12-27 14:23:02.883754,730
2021-12-27 14:23:02.883761,1648
2021-12-27 14:23:02.883768,1910
2021-12-27 14:23:02.883774,944
2021-12-27 14:23:02.883781,-155
2021-12-27 14:23:02.883788,-378
2021-12-27 14:23:02.883795,-251
2021-12-27 14:23:02.883801,-227
2021-12-27 14:23:02.883808,-107
2021-12-27 14:23:02.883815,33
2021-12-27 14:23:02.883822,28
2021-12-27 14:23:02.883828,11
2021-12-27 14:23:02.883835,64
2021-12-27 14:23:02.883842,81
2021-12-27 14:23:02.883849,71
2021-12-27 14:23:02.883855,100
2021-12-27 14:23:02.883862,129
2021-12-27 14:23:02.883869,141
2021-12-27 14:23:02.883876,165
2021-12-27 14:23:02.883883,198
2021-12-27 14:23:02.883890,227
2021-12-27 14:23:03.127541,249
2021-12-27 14:23:03.127564,275
2021-12-27 14:23:03.127570,313
2021-12-27 14:23:03.127575,345
2021-12-27 14:23:03.127579,369
2021-12-27 14:23:03.127584,402
2021-12-27 14:23:03.127588,424
2021-12-27 14:23:03.127593,433
2021-12-27 14:23:03.127597,433
2021-12-27 14:23:03.127602,419
2021-12-27 14:23:03.127606,393
2021-12-27 14:23:03.127611,340
2021-12-27 14:23:03.127615,254
2021-12-27 14:23:03.127620,162
2021-12-27 14:23:03.127624,74
2021-12-27 14:23:03.127629,-19
2021-12-27 14:23:03.127633,-98
2021-12-27 14:23:03.127638,-141
2021-12-27 14:23:03.127643,-165
2021-12-27 14:23:03.127647,-184
2021-12-27 14:23:03.127652,-196
2021-12-27 14:23:03.127656,-196
2021-12-27 14:23:03.127661,-184
2021-12-27 14:23:03.127665,-172
2021-12-27 14:23:03.127669,-172
2021-12-27 14:23:03.127674,-165
2021-12-27 14:23:03.127678,-150
2021-12-27 14:23:03.127683,-139
2021-12-27 14:23:03.127687,-139
2021-12-27 14:23:03.127692,-127
2021-12-27 14:23:03.322561,-110
2021-12-27 14:23:03.322589,-112
2021-12-27 14:23:03.322598,-110
2021-12-27 14:23:03.322605,-103
2021-12-27 14:23:03.322612,-103
2021-12-27 14:23:03.322619,-98
2021-12-27 14:23:03.322626,-86
2021-12-27 14:23:03.322633,-86
2021-12-27 14:23:03.322640,-98
2021-12-27 14:23:03.322647,-103
2021-12-27 14:23:03.322653,-95
2021-12-27 14:23:03.322660,-86
2021-12-27 14:23:03.322667,-83
2021-12-27 14:23:03.322674,-88
2021-12-27 14:23:03.322681,-93
2021-12-27 14:23:03.322688,-93
2021-12-27 14:23:03.322695,-83
2021-12-27 14:23:03.322702,-76
2021-12-27 14:23:03.322708,-79
2021-12-27 14:23:03.322715,-74
2021-12-27 14:23:03.322722,-67
2021-12-27 14:23:03.322729,-71
2021-12-27 14:23:03.322736,-79
2021-12-27 14:23:03.322743,-71
2021-12-27 14:23:03.322750,-64
2021-12-27 14:23:03.322757,-67
2021-12-27 14:23:03.322764,-74
2021-12-27 14:23:03.322771,-74
2021-12-27 14:23:03.322777,-62
2021-12-27 14:23:03.322784,-55
2021-12-27 14:23:03.566235,-52
2021-12-27 14:23:03.566264,-45
2021-12-27 14:23:03.566273,-50
2021-12-27 14:23:03.566280,-64
2021-12-27 14:23:03.566287,-43
2021-12-27 14:23:03.566294,2
2021-12-27 14:23:03.566302,11
2021-12-27 14:23:03.566309,-11
2021-12-27 14:23:03.566316,-21
2021-12-27 14:23:03.566323,-11
2021-12-27 14:23:03.566331,-21
2021-12-27 14:23:03.566338,-45
2021-12-27 14:23:03.566345,-52
2021-12-27 14:23:03.566352,-55
2021-12-27 14:23:03.566359,-55
2021-12-27 14:23:03.566366,-50
2021-12-27 14:23:03.566373,-40
2021-12-27 14:23:03.566380,-43
2021-12-27 14:23:03.566388,-47
2021-12-27 14:23:03.566395,-40
2021-12-27 14:23:03.566402,-33
2021-12-27 14:23:03.566409,-47
2021-12-27 14:23:03.566448,-93
2021-12-27 14:23:03.566455,-100
2021-12-27 14:23:03.566462,136
2021-12-27 14:23:03.566470,850
2021-12-27 14:23:03.566477,1739
2021-12-27 14:23:03.566484,1785
2021-12-27 14:23:03.566491,680
2021-12-27 14:23:03.566498,-301
2021-12-27 14:23:03.809540,-395
2021-12-27 14:23:03.809570,-261
2021-12-27 14:23:03.809579,-234
2021-12-27 14:23:03.809586,-119
2021-12-27 14:23:03.809594,-26
2021-12-27 14:23:03.809601,-50
2021-12-27 14:23:03.809608,-52
2021-12-27 14:23:03.809615,-7
2021-12-27 14:23:03.809622,16
2021-12-27 14:23:03.809629,28
2021-12-27 14:23:03.809636,55
2021-12-27 14:23:03.809643,71
2021-12-27 14:23:03.809650,83
2021-12-27 14:23:03.809657,107
2021-12-27 14:23:03.809664,136
2021-12-27 14:23:03.809671,160
2021-12-27 14:23:03.809678,194
2021-12-27 14:23:03.809685,230
2021-12-27 14:23:03.809692,263
2021-12-27 14:23:03.809699,301
2021-12-27 14:23:03.809706,342
2021-12-27 14:23:03.809713,371
2021-12-27 14:23:03.809720,390
2021-12-27 14:23:03.809727,397
2021-12-27 14:23:03.809734,385
2021-12-27 14:23:03.809741,373
2021-12-27 14:23:03.809748,354
2021-12-27 14:23:03.809756,289
2021-12-27 14:23:03.809763,194
2021-12-27 14:23:03.809770,98
2021-12-27 14:23:04.100760,-2
2021-12-27 14:23:04.100789,-86
2021-12-27 14:23:04.100798,-141
2021-12-27 14:23:04.100805,-191
2021-12-27 14:23:04.100812,-225
2021-12-27 14:23:04.100819,-222
2021-12-27 14:23:04.100826,-220
2021-12-27 14:23:04.100833,-230
2021-12-27 14:23:04.100840,-222
2021-12-27 14:23:04.100847,-206
2021-12-27 14:23:04.100854,-196
2021-12-27 14:23:04.100866,-179
2021-12-27 14:23:04.100873,-172
2021-12-27 14:23:04.100879,-172
2021-12-27 14:23:04.100886,-162
2021-12-27 14:23:04.100893,-148
2021-12-27 14:23:04.100900,-141
2021-12-27 14:23:04.100907,-143
2021-12-27 14:23:04.100913,-136
2021-12-27 14:23:04.100920,-127
2021-12-27 14:23:04.100927,-127
2021-12-27 14:23:04.100934,-122
2021-12-27 14:23:04.100941,-110
2021-12-27 14:23:04.100948,-105
2021-12-27 14:23:04.100955,-105
2021-12-27 14:23:04.100962,-98
2021-12-27 14:23:04.100968,-93
2021-12-27 14:23:04.100975,-98
2021-12-27 14:23:04.100982,-98
2021-12-27 14:23:04.100989,-98
2021-12-27 14:23:04.297683,-88
2021-12-27 14:23:04.297713,-76
2021-12-27 14:23:04.297722,-76
2021-12-27 14:23:04.297730,-79
2021-12-27 14:23:04.297737,-74
2021-12-27 14:23:04.297744,-71
2021-12-27 14:23:04.297751,-71
2021-12-27 14:23:04.297757,-69
2021-12-27 14:23:04.297765,-74
2021-12-27 14:23:04.297772,-76
2021-12-27 14:23:04.297779,-67
2021-12-27 14:23:04.297786,-57
2021-12-27 14:23:04.297793,-45
2021-12-27 14:23:04.297799,-45
2021-12-27 14:23:04.297806,-59
2021-12-27 14:23:04.297813,-59
2021-12-27 14:23:04.297820,-47
2021-12-27 14:23:04.297828,-52
2021-12-27 14:23:04.297834,-57
2021-12-27 14:23:04.297841,-47
2021-12-27 14:23:04.297848,-35
2021-12-27 14:23:04.297855,-33
2021-12-27 14:23:04.297862,-43
2021-12-27 14:23:04.297869,-47
2021-12-27 14:23:04.297876,-38
2021-12-27 14:23:04.297883,-16
2021-12-27 14:23:04.297890,16
2021-12-27 14:23:04.297897,28
2021-12-27 14:23:04.297904,7
2021-12-27 14:23:04.297911,-7
2021-12-27 14:23:04.541173,0
2021-12-27 14:23:04.541202,-9
2021-12-27 14:23:04.541210,-31
2021-12-27 14:23:04.541217,-45
2021-12-27 14:23:04.541225,-52
2021-12-27 14:23:04.541231,-52
2021-12-27 14:23:04.541238,-45
2021-12-27 14:23:04.541245,-43
2021-12-27 14:23:04.541252,-45
2021-12-27 14:23:04.541259,-45
2021-12-27 14:23:04.541266,-43
2021-12-27 14:23:04.541273,-43
2021-12-27 14:23:04.541279,-52
2021-12-27 14:23:04.541286,-91
2021-12-27 14:23:04.541293,-115
2021-12-27 14:23:04.541300,57
2021-12-27 14:23:04.541307,685
2021-12-27 14:23:04.541314,1591
2021-12-27 14:23:04.541321,1833
2021-12-27 14:23:04.541327,886
2021-12-27 14:23:04.541334,-182
2021-12-27 14:23:04.541341,-407
2021-12-27 14:23:04.541348,-282
2021-12-27 14:23:04.541354,-232
2021-12-27 14:23:04.541361,-131
2021-12-27 14:23:04.541368,-45
2021-12-27 14:23:04.541375,-57
2021-12-27 14:23:04.541381,-57
2021-12-27 14:23:04.541388,-19
2021-12-27 14:23:04.541395,0
2021-12-27 14:23:04.736065,7
2021-12-27 14:23:04.736098,38
2021-12-27 14:23:04.736107,62
2021-12-27 14:23:04.736114,69
2021-12-27 14:23:04.736121,93
2021-12-27 14:23:04.736128,122
2021-12-27 14:23:04.736135,136
2021-12-27 14:23:04.736142,167
2021-12-27 14:23:04.736149,208
2021-12-27 14:23:04.736156,232
2021-12-27 14:23:04.736163,266
2021-12-27 14:23:04.736170,306
2021-12-27 14:23:04.736177,325
2021-12-27 14:23:04.736183,340
2021-12-27 14:23:04.736190,373
2021-12-27 14:23:04.736197,378
2021-12-27 14:23:04.736204,352
2021-12-27 14:23:04.736210,321
2021-12-27 14:23:04.736217,278
2021-12-27 14:23:04.736224,201
2021-12-27 14:23:04.736231,110
2021-12-27 14:23:04.736238,21
2021-12-27 14:23:04.736245,-64
2021-12-27 14:23:04.736252,-129
2021-12-27 14:23:04.736258,-165
2021-12-27 14:23:04.736265,-189
2021-12-27 14:23:04.736272,-218
2021-12-27 14:23:04.736279,-230
2021-12-27 14:23:04.736286,-218
2021-12-27 14:23:04.736293,-210
2021-12-27 14:23:05.027085,-206
2021-12-27 14:23:05.027104,-196
2021-12-27 14:23:05.027110,-194
2021-12-27 14:23:05.027115,-189
2021-12-27 14:23:05.027119,-170
2021-12-27 14:23:05.027124,-150
2021-12-27 14:23:05.027128,-150
2021-12-27 14:23:05.027133,-153
2021-12-27 14:23:05.027137,-153
2021-12-27 14:23:05.027142,-153
2021-12-27 14:23:05.027146,-148
2021-12-27 14:23:05.027151,-134
2021-12-27 14:23:05.027155,-124
2021-12-27 14:23:05.027160,-122
2021-12-27 14:23:05.027165,-122
2021-12-27 14:23:05.027169,-119
2021-12-27 14:23:05.027174,-119
2021-12-27 14:23:05.027178,-115
2021-12-27 14:23:05.027183,-103
2021-12-27 14:23:05.027187,-100
2021-12-27 14:23:05.027192,-103
2021-12-27 14:23:05.027196,-98
2021-12-27 14:23:05.027201,-86
2021-12-27 14:23:05.027205,-79
2021-12-27 14:23:05.027210,-79
2021-12-27 14:23:05.027214,-76
2021-12-27 14:23:05.027219,-69
2021-12-27 14:23:05.027224,-69
2021-12-27 14:23:05.027228,-69
2021-12-27 14:23:05.027233,-59
2021-12-27 14:23:05.174910,-45
2021-12-27 14:23:05.174930,-38
2021-12-27 14:23:05.174936,-45
2021-12-27 14:23:05.174941,-40
2021-12-27 14:23:05.174945,-26
2021-12-27 14:23:05.174950,-28
2021-12-27 14:23:05.174954,-38
2021-12-27 14:23:05.174959,-26
2021-12-27 14:23:05.174971,-14
2021-12-27 14:23:05.174976,-11
2021-12-27 14:23:05.174980,-14
2021-12-27 14:23:05.174985,-21
2021-12-27 14:23:05.174989,-14
2021-12-27 14:23:05.174994,2
2021-12-27 14:23:05.174998,4
2021-12-27 14:23:05.175003,2
2021-12-27 14:23:05.175008,4
2021-12-27 14:23:05.175012,9
2021-12-27 14:23:05.175017,7
2021-12-27 14:23:05.175021,7
2021-12-27 14:23:05.175025,21
2021-12-27 14:23:05.175030,47
2021-12-27 14:23:05.175034,81
2021-12-27 14:23:05.175039,93
2021-12-27 14:23:05.175043,83
2021-12-27 14:23:05.175047,81
2021-12-27 14:23:05.175052,74
2021-12-27 14:23:05.175057,45
2021-12-27 14:23:05.175061,38
2021-12-27 14:23:05.175066,59
2021-12-27 14:23:05.418926,71
2021-12-27 14:23:05.418956,69
2021-12-27 14:23:05.418965,64
2021-12-27 14:23:05.418972,64
2021-12-27 14:23:05.418978,67
2021-12-27 14:23:05.418985,81
2021-12-27 14:23:05.418992,81
2021-12-27 14:23:05.418999,59
2021-12-27 14:23:05.419006,43
2021-12-27 14:23:05.419013,14
2021-12-27 14:23:05.419019,74
2021-12-27 14:23:05.419026,505
2021-12-27 14:23:05.419033,1399
2021-12-27 14:23:05.419040,2001
2021-12-27 14:23:05.419047,1363
2021-12-27 14:23:05.419054,117
2021-12-27 14:23:05.419061,-390
2021-12-27 14:23:05.419068,-266
2021-12-27 14:23:05.419075,-198
2021-12-27 14:23:05.419082,-129
2021-12-27 14:23:05.419089,28
2021-12-27 14:23:05.419096,79
2021-12-27 14:23:05.419102,52
2021-12-27 14:23:05.419109,81
2021-12-27 14:23:05.419116,122
2021-12-27 14:23:05.419123,129
2021-12-27 14:23:05.419129,143
2021-12-27 14:23:05.419136,172
2021-12-27 14:23:05.419143,191
2021-12-27 14:23:05.419150,210
2021-12-27 14:23:05.662423,234
2021-12-27 14:23:05.662446,263
2021-12-27 14:23:05.662455,287
2021-12-27 14:23:05.662462,309
2021-12-27 14:23:05.662469,337
2021-12-27 14:23:05.662476,369
2021-12-27 14:23:05.662483,393
2021-12-27 14:23:05.662489,419
2021-12-27 14:23:05.662496,443
2021-12-27 14:23:05.662503,452
2021-12-27 14:23:05.662509,448
2021-12-27 14:23:05.662516,433
2021-12-27 14:23:05.662523,407
2021-12-27 14:23:05.662530,376
2021-12-27 14:23:05.662536,335
2021-12-27 14:23:05.662543,234
2021-12-27 14:23:05.662551,107
2021-12-27 14:23:05.662558,23
2021-12-27 14:23:05.662564,-28
2021-12-27 14:23:05.662571,-100
2021-12-27 14:23:05.662578,-172
2021-12-27 14:23:05.662584,-213
2021-12-27 14:23:05.662591,-218
2021-12-27 14:23:05.662598,-208
2021-12-27 14:23:05.662605,-196
2021-12-27 14:23:05.662612,-184
2021-12-27 14:23:05.662619,-182
2021-12-27 14:23:05.662625,-184
2021-12-27 14:23:05.662632,-172
2021-12-27 14:23:05.662638,-143
2021-12-27 14:23:05.955013,-117
2021-12-27 14:23:05.955042,-105
2021-12-27 14:23:05.955050,-103
2021-12-27 14:23:05.955058,-105
2021-12-27 14:23:05.955065,-107
2021-12-27 14:23:05.955072,-98
2021-12-27 14:23:05.955079,-69
2021-12-27 14:23:05.955086,-59
2021-12-27 14:23:05.955093,-105
2021-12-27 14:23:05.955100,-119
2021-12-27 14:23:05.955107,-79
2021-12-27 14:23:05.955114,-69
2021-12-27 14:23:05.955121,-88
2021-12-27 14:23:05.955128,-76
2021-12-27 14:23:05.955135,-69
2021-12-27 14:23:05.955142,-67
2021-12-27 14:23:05.955148,-57
2021-12-27 14:23:05.955155,-64
2021-12-27 14:23:05.955162,-74
2021-12-27 14:23:05.955169,-62
2021-12-27 14:23:05.955176,-50
2021-12-27 14:23:05.955183,-59
2021-12-27 14:23:05.955190,-57
2021-12-27 14:23:05.955197,-45
2021-12-27 14:23:05.955204,-38
2021-12-27 14:23:05.955211,-35
2021-12-27 14:23:05.955218,-28
2021-12-27 14:23:05.955224,-26
2021-12-27 14:23:05.955231,-38
2021-12-27 14:23:05.955238,-35
2021-12-27 14:23:06.148854,-14
2021-12-27 14:23:06.148874,9
2021-12-27 14:23:06.148880,14
2021-12-27 14:23:06.148884,7
2021-12-27 14:23:06.148889,11
2021-12-27 14:23:06.148893,11
2021-12-27 14:23:06.148898,0
2021-12-27 14:23:06.148903,2
2021-12-27 14:23:06.148907,11
2021-12-27 14:23:06.148912,7
2021-12-27 14:23:06.148916,23
2021-12-27 14:23:06.148921,64
2021-12-27 14:23:06.148925,79
2021-12-27 14:23:06.148930,50
2021-12-27 14:23:06.148934,47
2021-12-27 14:23:06.148939,69
2021-12-27 14:23:06.148943,55
2021-12-27 14:23:06.148948,45
2021-12-27 14:23:06.148952,50
2021-12-27 14:23:06.148957,28
2021-12-27 14:23:06.148961,23
2021-12-27 14:23:06.148966,47
2021-12-27 14:23:06.148970,40
2021-12-27 14:23:06.148975,31
2021-12-27 14:23:06.148979,50
2021-12-27 14:23:06.148984,62
2021-12-27 14:23:06.148989,45
2021-12-27 14:23:06.148993,23
2021-12-27 14:23:06.148998,-26
2021-12-27 14:23:06.149003,-55
2021-12-27 14:23:06.393319,177
2021-12-27 14:23:06.393347,915
2021-12-27 14:23:06.393356,1855
2021-12-27 14:23:06.393363,2020
2021-12-27 14:23:06.393370,989
2021-12-27 14:23:06.393377,-119
2021-12-27 14:23:06.393384,-325
2021-12-27 14:23:06.393391,-155
2021-12-27 14:23:06.393398,-105
2021-12-27 14:23:06.393405,-14
2021-12-27 14:23:06.393412,43
2021-12-27 14:23:06.393419,2
2021-12-27 14:23:06.393426,11
2021-12-27 14:23:06.393433,62
2021-12-27 14:23:06.393440,71
2021-12-27 14:23:06.393447,74
2021-12-27 14:23:06.393454,98
2021-12-27 14:23:06.393461,119
2021-12-27 14:23:06.393468,139
2021-12-27 14:23:06.393475,165
2021-12-27 14:23:06.393482,179
2021-12-27 14:23:06.393489,186
2021-12-27 14:23:06.393496,220
2021-12-27 14:23:06.393515,268
2021-12-27 14:23:06.393522,306
2021-12-27 14:23:06.393529,335
2021-12-27 14:23:06.393536,364
2021-12-27 14:23:06.393543,397
2021-12-27 14:23:06.393549,419
2021-12-27 14:23:06.393556,426
2021-12-27 14:23:06.588897,431
2021-12-27 14:23:06.588927,421
2021-12-27 14:23:06.588936,388
2021-12-27 14:23:06.588943,337
2021-12-27 14:23:06.588950,261
2021-12-27 14:23:06.588957,150
2021-12-27 14:23:06.588963,43
2021-12-27 14:23:06.588971,-31
2021-12-27 14:23:06.588977,-83
2021-12-27 14:23:06.588984,-134
2021-12-27 14:23:06.588991,-165
2021-12-27 14:23:06.588997,-170
2021-12-27 14:23:06.589004,-174
2021-12-27 14:23:06.589011,-184
2021-12-27 14:23:06.589018,-179
2021-12-27 14:23:06.589024,-174
2021-12-27 14:23:06.589031,-177
2021-12-27 14:23:06.589038,-165
2021-12-27 14:23:06.589045,-139
2021-12-27 14:23:06.589052,-131
2021-12-27 14:23:06.589058,-136
2021-12-27 14:23:06.589065,-124
2021-12-27 14:23:06.589072,-117
2021-12-27 14:23:06.589079,-124
2021-12-27 14:23:06.589085,-112
2021-12-27 14:23:06.589092,-91
2021-12-27 14:23:06.589099,-86
2021-12-27 14:23:06.589106,-105
2021-12-27 14:23:06.589112,-105
2021-12-27 14:23:06.589119,-83
2021-12-27 14:23:06.783713,-74
2021-12-27 14:23:06.783741,-69
2021-12-27 14:23:06.783751,-57
2021-12-27 14:23:06.783758,-59
2021-12-27 14:23:06.783765,-62
2021-12-27 14:23:06.783772,-45
2021-12-27 14:23:06.783779,-43
2021-12-27 14:23:06.783786,-62
2021-12-27 14:23:06.783793,-57
2021-12-27 14:23:06.783800,-40
2021-12-27 14:23:06.783807,-40
2021-12-27 14:23:06.783814,-38
2021-12-27 14:23:06.783821,-26
2021-12-27 14:23:06.783828,-21
2021-12-27 14:23:06.783835,-23
2021-12-27 14:23:06.783842,-19
2021-12-27 14:23:06.783849,-16
2021-12-27 14:23:06.783856,-16
2021-12-27 14:23:06.783863,-11
2021-12-27 14:23:06.783870,-2
2021-12-27 14:23:06.783877,-4
2021-12-27 14:23:06.783884,-14
2021-12-27 14:23:06.783891,-7
2021-12-27 14:23:06.783898,2
2021-12-27 14:23:06.783905,-7
2021-12-27 14:23:06.783912,-11
2021-12-27 14:23:06.783919,-7
2021-12-27 14:23:06.783926,0
2021-12-27 14:23:06.783933,26
2021-12-27 14:23:06.783940,52
2021-12-27 14:23:07.124241,40
2021-12-27 14:23:07.124262,19
2021-12-27 14:23:07.124268,23
2021-12-27 14:23:07.124273,11
2021-12-27 14:23:07.124277,-14
2021-12-27 14:23:07.124282,-21
2021-12-27 14:23:07.124287,-23
2021-12-27 14:23:07.124291,-23
2021-12-27 14:23:07.124296,-16
2021-12-27 14:23:07.124301,-14
2021-12-27 14:23:07.124305,-19
2021-12-27 14:23:07.124310,-21
2021-12-27 14:23:07.124314,-14
2021-12-27 14:23:07.124319,-9
2021-12-27 14:23:07.124323,-33
2021-12-27 14:23:07.124328,-98
2021-12-27 14:23:07.124332,-91
2021-12-27 14:23:07.124337,249
2021-12-27 14:23:07.124342,1083
2021-12-27 14:23:07.124346,1895
2021-12-27 14:23:07.124351,1687
2021-12-27 14:23:07.124355,498
2021-12-27 14:23:07.124360,-337
2021-12-27 14:23:07.124364,-333
2021-12-27 14:23:07.124369,-198
2021-12-27 14:23:07.124373,-170
2021-12-27 14:23:07.124378,-76
2021-12-27 14:23:07.124382,-31
2021-12-27 14:23:07.124387,-55
2021-12-27 14:23:07.124391,-35
2021-12-27 14:23:07.271517,0
2021-12-27 14:23:07.271545,11
2021-12-27 14:23:07.271554,31
2021-12-27 14:23:07.271561,50
2021-12-27 14:23:07.271568,59
2021-12-27 14:23:07.271575,74
2021-12-27 14:23:07.271582,95
2021-12-27 14:23:07.271589,124
2021-12-27 14:23:07.271596,155
2021-12-27 14:23:07.271603,177
2021-12-27 14:23:07.271609,208
2021-12-27 14:23:07.271616,242
2021-12-27 14:23:07.271623,273
2021-12-27 14:23:07.271630,309
2021-12-27 14:23:07.271637,337
2021-12-27 14:23:07.271644,345
2021-12-27 14:23:07.271651,347
2021-12-27 14:23:07.271658,342
2021-12-27 14:23:07.271665,323
2021-12-27 14:23:07.271672,287
2021-12-27 14:23:07.271679,227
2021-12-27 14:23:07.271686,141
2021-12-27 14:23:07.271693,47
2021-12-27 14:23:07.271700,-47
2021-12-27 14:23:07.271707,-131
2021-12-27 14:23:07.271714,-182
2021-12-27 14:23:07.271721,-208
2021-12-27 14:23:07.271728,-230
2021-12-27 14:23:07.271735,-244
2021-12-27 14:23:07.271742,-244
2021-12-27 14:23:07.564197,-239
2021-12-27 14:23:07.564225,-232
2021-12-27 14:23:07.564234,-222
2021-12-27 14:23:07.564241,-210
2021-12-27 14:23:07.564248,-194
2021-12-27 14:23:07.564255,-186
2021-12-27 14:23:07.564262,-196
2021-12-27 14:23:07.564269,-182
2021-12-27 14:23:07.564276,-143
2021-12-27 14:23:07.564283,-134
2021-12-27 14:23:07.564290,-141
2021-12-27 14:23:07.564297,-124
2021-12-27 14:23:07.564304,-112
2021-12-27 14:23:07.564310,-119
2021-12-27 14:23:07.564317,-119
2021-12-27 14:23:07.564324,-107
2021-12-27 14:23:07.564331,-103
2021-12-27 14:23:07.564338,-103
2021-12-27 14:23:07.564345,-93
2021-12-27 14:23:07.564352,-95
2021-12-27 14:23:07.564359,-100
2021-12-27 14:23:07.564365,-95
2021-12-27 14:23:07.564372,-95
2021-12-27 14:23:07.564379,-93
2021-12-27 14:23:07.564386,-81
2021-12-27 14:23:07.564393,-81
2021-12-27 14:23:07.564400,-81
2021-12-27 14:23:07.564408,-67
2021-12-27 14:23:07.564415,-59
2021-12-27 14:23:07.564422,-64
2021-12-27 14:23:07.758130,-59
2021-12-27 14:23:07.758149,-45
2021-12-27 14:23:07.758155,-40
2021-12-27 14:23:07.758159,-50
2021-12-27 14:23:07.758164,-50
2021-12-27 14:23:07.758169,-35
2021-12-27 14:23:07.758173,-26
2021-12-27 14:23:07.758177,-23
2021-12-27 14:23:07.758182,-16
2021-12-27 14:23:07.758186,-9
2021-12-27 14:23:07.758191,-14
2021-12-27 14:23:07.758195,-19
2021-12-27 14:23:07.758199,-9
2021-12-27 14:23:07.758204,-9
2021-12-27 14:23:07.758208,-26
2021-12-27 14:23:07.758213,-23
2021-12-27 14:23:07.758217,16
2021-12-27 14:23:07.758222,52
2021-12-27 14:23:07.758226,43
2021-12-27 14:23:07.758230,11
2021-12-27 14:23:07.758235,2
2021-12-27 14:23:07.758239,-2
2021-12-27 14:23:07.758243,-19
2021-12-27 14:23:07.758248,-31
2021-12-27 14:23:07.758252,-31
2021-12-27 14:23:07.758257,-26
2021-12-27 14:23:07.758261,-16
2021-12-27 14:23:07.758266,-11
2021-12-27 14:23:07.758270,-23
2021-12-27 14:23:07.758281,-31
2021-12-27 14:23:07.953055,-33
2021-12-27 14:23:07.953070,-40
2021-12-27 14:23:07.953074,-64
2021-12-27 14:23:07.953077,-122
2021-12-27 14:23:07.953080,-134
2021-12-27 14:23:07.953083,131
2021-12-27 14:23:07.953086,879
2021-12-27 14:23:07.953090,1747
2021-12-27 14:23:07.953093,1732
2021-12-27 14:23:07.953096,620
2021-12-27 14:23:07.953099,-309
2021-12-27 14:23:07.953102,-359
2021-12-27 14:23:07.953105,-220
2021-12-27 14:23:07.953108,-203
2021-12-27 14:23:07.953111,-103
2021-12-27 14:23:07.953114,-35
2021-12-27 14:23:07.953117,-52
2021-12-27 14:23:07.953120,-35
2021-12-27 14:23:07.953123,-4
2021-12-27 14:23:07.953126,7
2021-12-27 14:23:07.953130,38
2021-12-27 14:23:07.953133,38
2021-12-27 14:23:07.953136,21
2021-12-27 14:23:07.953139,52
2021-12-27 14:23:07.953142,98
2021-12-27 14:23:07.953145,127
2021-12-27 14:23:07.953148,148
2021-12-27 14:23:07.953151,172
2021-12-27 14:23:07.953154,218
2021-12-27 14:23:07.953157,263
2021-12-27 14:23:08.245289,292
2021-12-27 14:23:08.245319,323
2021-12-27 14:23:08.245328,347
2021-12-27 14:23:08.245335,357
2021-12-27 14:23:08.245342,371
2021-12-27 14:23:08.245349,381
2021-12-27 14:23:08.245356,371
2021-12-27 14:23:08.245364,347
2021-12-27 14:23:08.245371,299
2021-12-27 14:23:08.245378,220
2021-12-27 14:23:08.245385,139
2021-12-27 14:23:08.245392,62
2021-12-27 14:23:08.245399,-14
2021-12-27 14:23:08.245407,-81
2021-12-27 14:23:08.245413,-124
2021-12-27 14:23:08.245420,-143
2021-12-27 14:23:08.245427,-150
2021-12-27 14:23:08.245434,-155
2021-12-27 14:23:08.245441,-134
2021-12-27 14:23:08.245448,-103
2021-12-27 14:23:08.245455,-105
2021-12-27 14:23:08.245462,-107
2021-12-27 14:23:08.245502,-86
2021-12-27 14:23:08.245509,-71
2021-12-27 14:23:08.245516,-62
2021-12-27 14:23:08.245523,-52
2021-12-27 14:23:08.245530,-50
2021-12-27 14:23:08.245537,-38
2021-12-27 14:23:08.245544,-11
2021-12-27 14:23:08.245551,11
2021-12-27 14:23:08.490466,21
2021-12-27 14:23:08.490496,16
2021-12-27 14:23:08.490504,14
2021-12-27 14:23:08.490512,14
2021-12-27 14:23:08.490519,19
2021-12-27 14:23:08.490526,35
2021-12-27 14:23:08.490533,33
2021-12-27 14:23:08.490540,14
2021-12-27 14:23:08.490547,23
2021-12-27 14:23:08.490554,64
2021-12-27 14:23:08.490561,79
2021-12-27 14:23:08.490568,71
2021-12-27 14:23:08.490575,74
2021-12-27 14:23:08.490582,62
2021-12-27 14:23:08.490589,45
2021-12-27 14:23:08.490596,55
2021-12-27 14:23:08.490603,59
2021-12-27 14:23:08.490609,52
2021-12-27 14:23:08.490616,76
2021-12-27 14:23:08.490623,95
2021-12-27 14:23:08.490630,91
2021-12-27 14:23:08.490637,88
2021-12-27 14:23:08.490644,88
2021-12-27 14:23:08.490651,86
2021-12-27 14:23:08.490658,98
2021-12-27 14:23:08.490665,117
2021-12-27 14:23:08.490672,119
2021-12-27 14:23:08.490679,112
2021-12-27 14:23:08.490686,115
2021-12-27 14:23:08.490693,134
2021-12-27 14:23:08.684468,155
2021-12-27 14:23:08.684484,160
2021-12-27 14:23:08.684489,146
2021-12-27 14:23:08.684492,127
2021-12-27 14:23:08.684496,115
2021-12-27 14:23:08.684500,112
2021-12-27 14:23:08.684504,110
2021-12-27 14:23:08.684507,110
2021-12-27 14:23:08.684511,110
2021-12-27 14:23:08.684514,95
2021-12-27 14:23:08.684518,91
2021-12-27 14:23:08.684521,105
2021-12-27 14:23:08.684525,103
2021-12-27 14:23:08.684528,91
2021-12-27 14:23:08.684532,74
2021-12-27 14:23:08.684535,16
2021-12-27 14:23:08.684539,23
2021-12-27 14:23:08.684543,347
2021-12-27 14:23:08.684546,1121
2021-12-27 14:23:08.684550,1833
2021-12-27 14:23:08.684554,1497
2021-12-27 14:23:08.684557,294
2021-12-27 14:23:08.684561,-378
2021-12-27 14:23:08.684564,-282
2021-12-27 14:23:08.684568,-210
2021-12-27 14:23:08.684571,-201
2021-12-27 14:23:08.684575,-35
2021-12-27 14:23:08.684579,74
2021-12-27 14:23:08.684582,55
2021-12-27 14:23:08.684586,59
2021-12-27 14:23:08.929040,88
2021-12-27 14:23:08.929102,98
2021-12-27 14:23:08.929110,117
2021-12-27 14:23:08.929117,143
2021-12-27 14:23:08.929124,148
2021-12-27 14:23:08.929131,155
2021-12-27 14:23:08.929138,182
2021-12-27 14:23:08.929145,203
2021-12-27 14:23:08.929152,203
2021-12-27 14:23:08.929159,225
2021-12-27 14:23:08.929166,266
2021-12-27 14:23:08.929173,294
2021-12-27 14:23:08.929180,313
2021-12-27 14:23:08.929187,340
2021-12-27 14:23:08.929194,361
2021-12-27 14:23:08.929200,369
2021-12-27 14:23:08.929207,361
2021-12-27 14:23:08.929215,340
2021-12-27 14:23:08.929222,323
2021-12-27 14:23:08.929229,301
2021-12-27 14:23:08.929236,239
2021-12-27 14:23:08.929242,153
2021-12-27 14:23:08.929249,57
2021-12-27 14:23:08.929256,-35
2021-12-27 14:23:08.929263,-100
2021-12-27 14:23:08.929270,-141
2021-12-27 14:23:08.929277,-172
2021-12-27 14:23:08.929284,-198
2021-12-27 14:23:08.929291,-220
2021-12-27 14:23:08.929298,-227
2021-12-27 14:23:09.172657,-220
2021-12-27 14:23:09.172685,-210
2021-12-27 14:23:09.172694,-191
2021-12-27 14:23:09.172701,-184
2021-12-27 14:23:09.172708,-186
2021-12-27 14:23:09.172715,-177
2021-12-27 14:23:09.172722,-162
2021-12-27 14:23:09.172729,-160
2021-12-27 14:23:09.172736,-172
2021-12-27 14:23:09.172743,-184
2021-12-27 14:23:09.172750,-179
2021-12-27 14:23:09.172757,-172
2021-12-27 14:23:09.172763,-174
2021-12-27 14:23:09.172770,-182
2021-12-27 14:23:09.172777,-191
2021-12-27 14:23:09.172784,-191
2021-12-27 14:23:09.172791,-177
2021-12-27 14:23:09.172798,-184
2021-12-27 14:23:09.172805,-196
2021-12-27 14:23:09.172811,-196
2021-12-27 14:23:09.172818,-198
2021-12-27 14:23:09.172825,-206
2021-12-27 14:23:09.172832,-206
2021-12-27 14:23:09.172839,-213
2021-12-27 14:23:09.172846,-206
2021-12-27 14:23:09.172853,-182
2021-12-27 14:23:09.172860,-172
2021-12-27 14:23:09.172866,-179
2021-12-27 14:23:09.172873,-189
2021-12-27 14:23:09.172880,-174
2021-12-27 14:23:09.319209,-153
2021-12-27 14:23:09.319238,-165
2021-12-27 14:23:09.319247,-179
2021-12-27 14:23:09.319254,-160
2021-12-27 14:23:09.319261,-150
2021-12-27 14:23:09.319268,-160
2021-12-27 14:23:09.319275,-155
2021-12-27 14:23:09.319282,-117
2021-12-27 14:23:09.319289,-81
2021-12-27 14:23:09.319296,-86
2021-12-27 14:23:09.319303,-98
2021-12-27 14:23:09.319310,-91
2021-12-27 14:23:09.319317,-86
2021-12-27 14:23:09.319324,-95
2021-12-27 14:23:09.319331,-112
2021-12-27 14:23:09.319338,-127
2021-12-27 14:23:09.319344,-119
2021-12-27 14:23:09.319351,-98
2021-12-27 14:23:09.319358,-98
2021-12-27 14:23:09.319365,-93
2021-12-27 14:23:09.319372,-81
2021-12-27 14:23:09.319379,-95
2021-12-27 14:23:09.319386,-107
2021-12-27 14:23:09.319393,-117
2021-12-27 14:23:09.319399,-167
2021-12-27 14:23:09.319406,-208
2021-12-27 14:23:09.319413,28
2021-12-27 14:23:09.319421,786
2021-12-27 14:23:09.319433,1715
2021-12-27 14:23:09.319440,1828
2021-12-27 14:23:09.610941,759
2021-12-27 14:23:09.610969,-321
2021-12-27 14:23:09.610978,-500
2021-12-27 14:23:09.610985,-349
2021-12-27 14:23:09.610992,-306
2021-12-27 14:23:09.610999,-196
2021-12-27 14:23:09.611006,-100
2021-12-27 14:23:09.611012,-107
2021-12-27 14:23:09.611019,-81
2021-12-27 14:23:09.611027,-26
2021-12-27 14:23:09.611033,-33
2021-12-27 14:23:09.611040,-31
2021-12-27 14:23:09.611047,9
2021-12-27 14:23:09.611054,40
2021-12-27 14:23:09.611061,64
2021-12-27 14:23:09.611068,83
2021-12-27 14:23:09.611075,100
2021-12-27 14:23:09.611082,127
2021-12-27 14:23:09.611088,155
2021-12-27 14:23:09.611095,189
2021-12-27 14:23:09.611102,237
2021-12-27 14:23:09.611109,289
2021-12-27 14:23:09.611116,323
2021-12-27 14:23:09.611123,345
2021-12-27 14:23:09.611130,364
2021-12-27 14:23:09.611136,381
2021-12-27 14:23:09.611143,376
2021-12-27 14:23:09.611150,357
2021-12-27 14:23:09.611157,330
2021-12-27 14:23:09.611164,280
2021-12-27 14:23:09.806006,198
2021-12-27 14:23:09.806034,105
2021-12-27 14:23:09.806043,19
2021-12-27 14:23:09.806050,-55
2021-12-27 14:23:09.806058,-122
2021-12-27 14:23:09.806065,-167
2021-12-27 14:23:09.806072,-184
2021-12-27 14:23:09.806079,-196
2021-12-27 14:23:09.806085,-201
2021-12-27 14:23:09.806092,-191
2021-12-27 14:23:09.806099,-170
2021-12-27 14:23:09.806106,-153
2021-12-27 14:23:09.806113,-150
2021-12-27 14:23:09.806120,-143
2021-12-27 14:23:09.806127,-131
2021-12-27 14:23:09.806134,-124
2021-12-27 14:23:09.806140,-119
2021-12-27 14:23:09.806147,-110
2021-12-27 14:23:09.806154,-107
2021-12-27 14:23:09.806161,-107
2021-12-27 14:23:09.806168,-98
2021-12-27 14:23:09.806175,-95
2021-12-27 14:23:09.806182,-95
2021-12-27 14:23:09.806188,-88
2021-12-27 14:23:09.806195,-86
2021-12-27 14:23:09.806202,-93
2021-12-27 14:23:09.806209,-88
2021-12-27 14:23:09.806216,-76
2021-12-27 14:23:09.806223,-71
2021-12-27 14:23:09.806229,-71
2021-12-27 14:23:10.050406,-71
2021-12-27 14:23:10.050434,-67
2021-12-27 14:23:10.050443,-64
2021-12-27 14:23:10.050450,-69
2021-12-27 14:23:10.050457,-74
2021-12-27 14:23:10.050463,-71
2021-12-27 14:23:10.050470,-67
2021-12-27 14:23:10.050477,-69
2021-12-27 14:23:10.050484,-67
2021-12-27 14:23:10.050491,-64
2021-12-27 14:23:10.050497,-59
2021-12-27 14:23:10.050504,-55
2021-12-27 14:23:10.050511,-59
2021-12-27 14:23:10.050518,-57
2021-12-27 14:23:10.050525,-45
2021-12-27 14:23:10.050532,-23
2021-12-27 14:23:10.050539,7
2021-12-27 14:23:10.050546,19
2021-12-27 14:23:10.050553,0
2021-12-27 14:23:10.050560,-14
2021-12-27 14:23:10.050567,-23
2021-12-27 14:23:10.050574,-40
2021-12-27 14:23:10.050581,-38
2021-12-27 14:23:10.050588,-33
2021-12-27 14:23:10.050594,-38
2021-12-27 14:23:10.050601,-38
2021-12-27 14:23:10.050608,-35
2021-12-27 14:23:10.050615,-40
2021-12-27 14:23:10.050622,-43
2021-12-27 14:23:10.050629,-43
2021-12-27 14:23:10.487015,-50
2021-12-27 14:23:10.487035,-71
2021-12-27 14:23:10.487040,-117
2021-12-27 14:23:10.487045,-107
2021-12-27 14:23:10.487049,198
2021-12-27 14:23:10.487054,982
2021-12-27 14:23:10.487059,1766
2021-12-27 14:23:10.487063,1560
2021-12-27 14:23:10.487067,395
2021-12-27 14:23:10.487072,-417
2021-12-27 14:23:10.487076,-417
2021-12-27 14:23:10.487081,-299
2021-12-27 14:23:10.487085,-263
2021-12-27 14:23:10.487090,-139
2021-12-27 14:23:10.487094,-69
2021-12-27 14:23:10.487099,-95
2021-12-27 14:23:10.487103,-81
2021-12-27 14:23:10.487108,-40
2021-12-27 14:23:10.487112,-35
2021-12-27 14:23:10.487117,-26
2021-12-27 14:23:10.487121,0
2021-12-27 14:23:10.487126,19
2021-12-27 14:23:10.487130,35
2021-12-27 14:23:10.487135,52
2021-12-27 14:23:10.487139,71
2021-12-27 14:23:10.487144,98
2021-12-27 14:23:10.487148,131
2021-12-27 14:23:10.487153,155
2021-12-27 14:23:10.487157,179
2021-12-27 14:23:10.487162,210
2021-12-27 14:23:10.584702,234
2021-12-27 14:23:10.584719,256
2021-12-27 14:23:10.584724,278
2021-12-27 14:23:10.584729,278
2021-12-27 14:23:10.584734,261
2021-12-27 14:23:10.584738,251
2021-12-27 14:23:10.584742,227
2021-12-27 14:23:10.584747,167
2021-12-27 14:23:10.584752,83
2021-12-27 14:23:10.584756,-2
2021-12-27 14:23:10.584761,-74
2021-12-27 14:23:10.584765,-127
2021-12-27 14:23:10.584769,-172
2021-12-27 14:23:10.584774,-208
2021-12-27 14:23:10.584778,-220
2021-12-27 14:23:10.584783,-225
2021-12-27 14:23:10.584787,-227
2021-12-27 14:23:10.584792,-208
2021-12-27 14:23:10.584796,-182
2021-12-27 14:23:10.584801,-177
2021-12-27 14:23:10.584805,-167
2021-12-27 14:23:10.584809,-150
2021-12-27 14:23:10.584814,-150
2021-12-27 14:23:10.584818,-139
2021-12-27 14:23:10.584822,-110
2021-12-27 14:23:10.584827,-100
2021-12-27 14:23:10.584831,-98
2021-12-27 14:23:10.584836,-91
2021-12-27 14:23:10.584840,-95
2021-12-27 14:23:10.584845,-98
2021-12-27 14:23:10.732208,-91
2021-12-27 14:23:10.732236,-79
2021-12-27 14:23:10.732244,-76
2021-12-27 14:23:10.732251,-83
2021-12-27 14:23:10.732259,-83
2021-12-27 14:23:10.732266,-81
2021-12-27 14:23:10.732273,-83
2021-12-27 14:23:10.732280,-81
2021-12-27 14:23:10.732286,-74
2021-12-27 14:23:10.732293,-79
2021-12-27 14:23:10.732300,-83
2021-12-27 14:23:10.732307,-86
2021-12-27 14:23:10.732314,-88
2021-12-27 14:23:10.732321,-93
2021-12-27 14:23:10.732328,-93
2021-12-27 14:23:10.732334,-83
2021-12-27 14:23:10.732341,-76
2021-12-27 14:23:10.732348,-88
2021-12-27 14:23:10.732355,-95
2021-12-27 14:23:10.732361,-86
2021-12-27 14:23:10.732368,-76
2021-12-27 14:23:10.732375,-81
2021-12-27 14:23:10.732382,-88
2021-12-27 14:23:10.732389,-93
2021-12-27 14:23:10.732396,-93
2021-12-27 14:23:10.732403,-79
2021-12-27 14:23:10.732409,-71
2021-12-27 14:23:10.732417,-76
2021-12-27 14:23:10.732424,-55
2021-12-27 14:23:10.732430,-28
2021-12-27 14:23:10.976622,-19
2021-12-27 14:23:10.976652,-16
2021-12-27 14:23:10.976661,-23
2021-12-27 14:23:10.976668,-43
2021-12-27 14:23:10.976675,-52
2021-12-27 14:23:10.976682,-50
2021-12-27 14:23:10.976689,-47
2021-12-27 14:23:10.976696,-47
2021-12-27 14:23:10.976703,-45
2021-12-27 14:23:10.976710,-43
2021-12-27 14:23:10.976717,-43
2021-12-27 14:23:10.976724,-35
2021-12-27 14:23:10.976731,-26
2021-12-27 14:23:10.976738,-33
2021-12-27 14:23:10.976745,-74
2021-12-27 14:23:10.976752,-124
2021-12-27 14:23:10.976758,-55
2021-12-27 14:23:10.976765,364
2021-12-27 14:23:10.976772,1169
2021-12-27 14:23:10.976779,1718
2021-12-27 14:23:10.976786,1203
2021-12-27 14:23:10.976826,119
2021-12-27 14:23:10.976833,-366
2021-12-27 14:23:10.976840,-299
2021-12-27 14:23:10.976846,-242
2021-12-27 14:23:10.976853,-170
2021-12-27 14:23:10.976860,-64
2021-12-27 14:23:10.976867,-55
2021-12-27 14:23:10.976874,-67
2021-12-27 14:23:10.976881,-35
2021-12-27 14:23:11.269177,-14
2021-12-27 14:23:11.269205,-7
2021-12-27 14:23:11.269214,14
2021-12-27 14:23:11.269221,33
2021-12-27 14:23:11.269228,47
2021-12-27 14:23:11.269235,71
2021-12-27 14:23:11.269241,93
2021-12-27 14:23:11.269248,117
2021-12-27 14:23:11.269255,146
2021-12-27 14:23:11.269262,170
2021-12-27 14:23:11.269268,198
2021-12-27 14:23:11.269275,237
2021-12-27 14:23:11.269282,268
2021-12-27 14:23:11.269289,297
2021-12-27 14:23:11.269296,323
2021-12-27 14:23:11.269303,335
2021-12-27 14:23:11.269310,333
2021-12-27 14:23:11.269318,333
2021-12-27 14:23:11.269325,323
2021-12-27 14:23:11.269331,294
2021-12-27 14:23:11.269338,251
2021-12-27 14:23:11.269345,194
2021-12-27 14:23:11.269352,119
2021-12-27 14:23:11.269364,35
2021-12-27 14:23:11.269371,-31
2021-12-27 14:23:11.269378,-79
2021-12-27 14:23:11.269385,-105
2021-12-27 14:23:11.269391,-122
2021-12-27 14:23:11.269398,-131
2021-12-27 14:23:11.269405,-127
2021-12-27 14:23:11.463938,-115
2021-12-27 14:23:11.463966,-115
2021-12-27 14:23:11.463974,-112
2021-12-27 14:23:11.463981,-100
2021-12-27 14:23:11.463988,-91
2021-12-27 14:23:11.463995,-83
2021-12-27 14:23:11.464002,-69
2021-12-27 14:23:11.464009,-50
2021-12-27 14:23:11.464016,-40
2021-12-27 14:23:11.464023,-45
2021-12-27 14:23:11.464030,-47
2021-12-27 14:23:11.464037,-40
2021-12-27 14:23:11.464043,-31
2021-12-27 14:23:11.464050,-28
2021-12-27 14:23:11.464057,-28
2021-12-27 14:23:11.464064,-23
2021-12-27 14:23:11.464071,-23
2021-12-27 14:23:11.464077,-23
2021-12-27 14:23:11.464084,-19
2021-12-27 14:23:11.464091,-7
2021-12-27 14:23:11.464098,-7
2021-12-27 14:23:11.464105,-14
2021-12-27 14:23:11.464112,-16
2021-12-27 14:23:11.464119,-9
2021-12-27 14:23:11.464126,-4
2021-12-27 14:23:11.464132,-7
2021-12-27 14:23:11.464139,-14
2021-12-27 14:23:11.464146,-9
2021-12-27 14:23:11.464153,0
2021-12-27 14:23:11.464160,-2
2021-12-27 14:23:11.707246,-2
2021-12-27 14:23:11.707265,4
2021-12-27 14:23:11.707270,0
2021-12-27 14:23:11.707274,-9
2021-12-27 14:23:11.707278,-9
2021-12-27 14:23:11.707281,-14
2021-12-27 14:23:11.707285,-14
2021-12-27 14:23:11.707288,9
2021-12-27 14:23:11.707293,50
2021-12-27 14:23:11.707296,55
2021-12-27 14:23:11.707300,28
2021-12-27 14:23:11.707304,23
2021-12-27 14:23:11.707307,23
2021-12-27 14:23:11.707311,7
2021-12-27 14:23:11.707314,-2
2021-12-27 14:23:11.707318,4
2021-12-27 14:23:11.707321,7
2021-12-27 14:23:11.707325,4
2021-12-27 14:23:11.707329,4
2021-12-27 14:23:11.707332,4
2021-12-27 14:23:11.707336,7
2021-12-27 14:23:11.707340,11
2021-12-27 14:23:11.707343,11
2021-12-27 14:23:11.707347,-9
2021-12-27 14:23:11.707350,-57
2021-12-27 14:23:11.707354,-57
2021-12-27 14:23:11.707357,218
2021-12-27 14:23:11.707361,951
2021-12-27 14:23:11.707364,1725
2021-12-27 14:23:11.707368,1574
2021-12-27 14:23:11.902407,464
2021-12-27 14:23:11.902435,-313
2021-12-27 14:23:11.902443,-321
2021-12-27 14:23:11.902451,-230
2021-12-27 14:23:11.902458,-196
2021-12-27 14:23:11.902465,-59
2021-12-27 14:23:11.902472,23
2021-12-27 14:23:11.902479,2
2021-12-27 14:23:11.902485,11
2021-12-27 14:23:11.902492,50
2021-12-27 14:23:11.902499,62
2021-12-27 14:23:11.902506,74
2021-12-27 14:23:11.902514,103
2021-12-27 14:23:11.902521,119
2021-12-27 14:23:11.902527,129
2021-12-27 14:23:11.902534,148
2021-12-27 14:23:11.902541,177
2021-12-27 14:23:11.902548,203
2021-12-27 14:23:11.902555,227
2021-12-27 14:23:11.902562,258
2021-12-27 14:23:11.902569,289
2021-12-27 14:23:11.902576,313
2021-12-27 14:23:11.902583,340
2021-12-27 14:23:11.902590,366
2021-12-27 14:23:11.902597,385
2021-12-27 14:23:11.902603,395
2021-12-27 14:23:11.902610,385
2021-12-27 14:23:11.902618,357
2021-12-27 14:23:11.902625,325
2021-12-27 14:23:11.902632,282
2021-12-27 14:23:12.146128,215
2021-12-27 14:23:12.146156,129
2021-12-27 14:23:12.146165,40
2021-12-27 14:23:12.146172,-31
2021-12-27 14:23:12.146179,-81
2021-12-27 14:23:12.146186,-110
2021-12-27 14:23:12.146193,-131
2021-12-27 14:23:12.146200,-143
2021-12-27 14:23:12.146207,-148
2021-12-27 14:23:12.146214,-150
2021-12-27 14:23:12.146221,-146
2021-12-27 14:23:12.146228,-129
2021-12-27 14:23:12.146235,-117
2021-12-27 14:23:12.146242,-112
2021-12-27 14:23:12.146249,-100
2021-12-27 14:23:12.146256,-91
2021-12-27 14:23:12.146263,-83
2021-12-27 14:23:12.146270,-76
2021-12-27 14:23:12.146277,-69
2021-12-27 14:23:12.146284,-64
2021-12-27 14:23:12.146291,-59
2021-12-27 14:23:12.146298,-55
2021-12-27 14:23:12.146305,-50
2021-12-27 14:23:12.146312,-45
2021-12-27 14:23:12.146319,-38
2021-12-27 14:23:12.146326,-35
2021-12-27 14:23:12.146333,-38
2021-12-27 14:23:12.146340,-35
2021-12-27 14:23:12.146347,-31
2021-12-27 14:23:12.146353,-31
2021-12-27 14:23:12.486623,-31
2021-12-27 14:23:12.486651,-31
2021-12-27 14:23:12.486660,-28
2021-12-27 14:23:12.486667,-26
2021-12-27 14:23:12.486674,-28
2021-12-27 14:23:12.486681,-31
2021-12-27 14:23:12.486688,-26
2021-12-27 14:23:12.486694,-23
2021-12-27 14:23:12.486702,-26
2021-12-27 14:23:12.486709,-33
2021-12-27 14:23:12.486715,-40
2021-12-27 14:23:12.486722,-47
2021-12-27 14:23:12.486729,-52
2021-12-27 14:23:12.486736,-35
2021-12-27 14:23:12.486743,0
2021-12-27 14:23:12.486750,26
2021-12-27 14:23:12.486757,14
2021-12-27 14:23:12.486764,-7
2021-12-27 14:23:12.486771,-14
2021-12-27 14:23:12.486778,-23
2021-12-27 14:23:12.486785,-40
2021-12-27 14:23:12.486791,-47
2021-12-27 14:23:12.486798,-45
2021-12-27 14:23:12.486805,-40
2021-12-27 14:23:12.486812,-38
2021-12-27 14:23:12.486819,-40
2021-12-27 14:23:12.486826,-40
2021-12-27 14:23:12.486832,-35
2021-12-27 14:23:12.486839,-31
2021-12-27 14:23:12.486846,-45
2021-12-27 14:23:12.633722,-79
2021-12-27 14:23:12.633749,-122
2021-12-27 14:23:12.633758,-64
2021-12-27 14:23:12.633765,359
2021-12-27 14:23:12.633772,1212
2021-12-27 14:23:12.633779,1807
2021-12-27 14:23:12.633786,1265
2021-12-27 14:23:12.633792,93
2021-12-27 14:23:12.633799,-424
2021-12-27 14:23:12.633806,-323
2021-12-27 14:23:12.633813,-266
2021-12-27 14:23:12.633820,-206
2021-12-27 14:23:12.633827,-74
2021-12-27 14:23:12.633834,-47
2021-12-27 14:23:12.633840,-67
2021-12-27 14:23:12.633847,-31
2021-12-27 14:23:12.633854,-4
2021-12-27 14:23:12.633861,-2
2021-12-27 14:23:12.633868,16
2021-12-27 14:23:12.633874,38
2021-12-27 14:23:12.633882,55
2021-12-27 14:23:12.633888,76
2021-12-27 14:23:12.633895,98
2021-12-27 14:23:12.633902,122
2021-12-27 14:23:12.633909,148
2021-12-27 14:23:12.633915,172
2021-12-27 14:23:12.633922,196
2021-12-27 14:23:12.633929,227
2021-12-27 14:23:12.633936,261
2021-12-27 14:23:12.633943,292
2021-12-27 14:23:12.827960,316
2021-12-27 14:23:12.827988,328
2021-12-27 14:23:12.827996,328
2021-12-27 14:23:12.828003,318
2021-12-27 14:23:12.828011,301
2021-12-27 14:23:12.828018,266
2021-12-27 14:23:12.828025,203
2021-12-27 14:23:12.828032,124
2021-12-27 14:23:12.828039,38
2021-12-27 14:23:12.828046,-45
2021-12-27 14:23:12.828053,-100
2021-12-27 14:23:12.828060,-141
2021-12-27 14:23:12.828067,-172
2021-12-27 14:23:12.828074,-194
2021-12-27 14:23:12.828081,-203
2021-12-27 14:23:12.828088,-201
2021-12-27 14:23:12.828095,-186
2021-12-27 14:23:12.828102,-174
2021-12-27 14:23:12.828109,-165
2021-12-27 14:23:12.828116,-153
2021-12-27 14:23:12.828123,-146
2021-12-27 14:23:12.828129,-139
2021-12-27 14:23:12.828136,-129
2021-12-27 14:23:12.828143,-117
2021-12-27 14:23:12.828150,-105
2021-12-27 14:23:12.828157,-95
2021-12-27 14:23:12.828164,-98
2021-12-27 14:23:12.828171,-103
2021-12-27 14:23:12.828178,-83
2021-12-27 14:23:12.828185,-67
2021-12-27 14:23:13.024141,-74
2021-12-27 14:23:13.024169,-76
2021-12-27 14:23:13.024178,-59
2021-12-27 14:23:13.024185,-45
2021-12-27 14:23:13.024192,-45
2021-12-27 14:23:13.024199,-64
2021-12-27 14:23:13.024206,-81
2021-12-27 14:23:13.024212,-81
2021-12-27 14:23:13.024219,-74
2021-12-27 14:23:13.024226,-69
2021-12-27 14:23:13.024233,-57
2021-12-27 14:23:13.024240,-43
2021-12-27 14:23:13.024246,-40
2021-12-27 14:23:13.024253,-47
2021-12-27 14:23:13.024260,-50
2021-12-27 14:23:13.024267,-55
2021-12-27 14:23:13.024274,-62
2021-12-27 14:23:13.024280,-47
2021-12-27 14:23:13.024287,-28
2021-12-27 14:23:13.024294,-35
2021-12-27 14:23:13.024301,-43
2021-12-27 14:23:13.024308,-35
2021-12-27 14:23:13.024315,-31
2021-12-27 14:23:13.024322,-33
2021-12-27 14:23:13.024329,-35
2021-12-27 14:23:13.024336,-38
2021-12-27 14:23:13.024343,-31
2021-12-27 14:23:13.024350,-11
2021-12-27 14:23:13.024357,23
2021-12-27 14:23:13.024365,35
2021-12-27 14:23:13.268040,14
2021-12-27 14:23:13.268069,11
2021-12-27 14:23:13.268078,21
2021-12-27 14:23:13.268085,-4
2021-12-27 14:23:13.268092,-26
2021-12-27 14:23:13.268099,-19
2021-12-27 14:23:13.268106,-14
2021-12-27 14:23:13.268113,-23
2021-12-27 14:23:13.268119,-35
2021-12-27 14:23:13.268126,-33
2021-12-27 14:23:13.268133,-21
2021-12-27 14:23:13.268140,-21
2021-12-27 14:23:13.268147,-26
2021-12-27 14:23:13.268154,-35
2021-12-27 14:23:13.268160,-69
2021-12-27 14:23:13.268167,-83
2021-12-27 14:23:13.268174,134
2021-12-27 14:23:13.268186,790
2021-12-27 14:23:13.268194,1576
2021-12-27 14:23:13.268201,1593
2021-12-27 14:23:13.268208,637
2021-12-27 14:23:13.268214,-191
2021-12-27 14:23:13.268221,-299
2021-12-27 14:23:13.268228,-222
2021-12-27 14:23:13.268235,-179
2021-12-27 14:23:13.268242,-57
2021-12-27 14:23:13.268249,0
2021-12-27 14:23:13.268256,-35
2021-12-27 14:23:13.268263,-28
2021-12-27 14:23:13.268270,23
2021-12-27 14:23:13.511708,47
2021-12-27 14:23:13.511736,47
2021-12-27 14:23:13.511744,45
2021-12-27 14:23:13.511751,59
2021-12-27 14:23:13.511758,95
2021-12-27 14:23:13.511765,124
2021-12-27 14:23:13.511772,134
2021-12-27 14:23:13.511779,146
2021-12-27 14:23:13.511786,174
2021-12-27 14:23:13.511793,206
2021-12-27 14:23:13.511800,239
2021-12-27 14:23:13.511807,282
2021-12-27 14:23:13.511814,318
2021-12-27 14:23:13.511821,333
2021-12-27 14:23:13.511828,330
2021-12-27 14:23:13.511835,335
2021-12-27 14:23:13.511842,347
2021-12-27 14:23:13.511849,352
2021-12-27 14:23:13.511856,330
2021-12-27 14:23:13.511863,280
2021-12-27 14:23:13.511871,222
2021-12-27 14:23:13.511878,158
2021-12-27 14:23:13.511885,81
2021-12-27 14:23:13.511891,11
2021-12-27 14:23:13.511899,-45
2021-12-27 14:23:13.511906,-91
2021-12-27 14:23:13.511913,-103
2021-12-27 14:23:13.511920,-95
2021-12-27 14:23:13.511927,-105
2021-12-27 14:23:13.511934,-117
2021-12-27 14:23:13.705682,-105
2021-12-27 14:23:13.705702,-86
2021-12-27 14:23:13.705706,-76
2021-12-27 14:23:13.705710,-69
2021-12-27 14:23:13.705715,-55
2021-12-27 14:23:13.705718,-35
2021-12-27 14:23:13.705722,-31
2021-12-27 14:23:13.705726,-33
2021-12-27 14:23:13.705730,-14
2021-12-27 14:23:13.705733,0
2021-12-27 14:23:13.705737,-7
2021-12-27 14:23:13.705741,-4
2021-12-27 14:23:13.705744,2
2021-12-27 14:23:13.705748,4
2021-12-27 14:23:13.705752,4
2021-12-27 14:23:13.705756,2
2021-12-27 14:23:13.705760,2
2021-12-27 14:23:13.705764,0
2021-12-27 14:23:13.705768,4
2021-12-27 14:23:13.705772,21
2021-12-27 14:23:13.705775,31
2021-12-27 14:23:13.705779,21
2021-12-27 14:23:13.705783,21
2021-12-27 14:23:13.705786,31
2021-12-27 14:23:13.705790,26
2021-12-27 14:23:13.705794,23
2021-12-27 14:23:13.705797,33
2021-12-27 14:23:13.705801,35
2021-12-27 14:23:13.705805,26
2021-12-27 14:23:13.705808,31
2021-12-27 14:23:13.950276,38
2021-12-27 14:23:13.950304,28
2021-12-27 14:23:13.950313,21
2021-12-27 14:23:13.950320,19
2021-12-27 14:23:13.950327,9
2021-12-27 14:23:13.950334,16
2021-12-27 14:23:13.950341,55
2021-12-27 14:23:13.950348,91
2021-12-27 14:23:13.950355,93
2021-12-27 14:23:13.950362,74
2021-12-27 14:23:13.950370,62
2021-12-27 14:23:13.950377,52
2021-12-27 14:23:13.950384,33
2021-12-27 14:23:13.950391,21
2021-12-27 14:23:13.950397,28
2021-12-27 14:23:13.950404,38
2021-12-27 14:23:13.950412,38
2021-12-27 14:23:13.950418,33
2021-12-27 14:23:13.950425,31
2021-12-27 14:23:13.950432,33
2021-12-27 14:23:13.950439,40
2021-12-27 14:23:13.950446,35
2021-12-27 14:23:13.950453,7
2021-12-27 14:23:13.950460,-43
2021-12-27 14:23:13.950467,-67
2021-12-27 14:23:13.950473,148
2021-12-27 14:23:13.950480,848
2021-12-27 14:23:13.950487,1720
2021-12-27 14:23:13.950495,1751
2021-12-27 14:23:13.950502,673
2021-12-27 14:23:14.194044,-266
2021-12-27 14:23:14.194073,-345
2021-12-27 14:23:14.194082,-215
2021-12-27 14:23:14.194089,-194
2021-12-27 14:23:14.194096,-67
2021-12-27 14:23:14.194104,55
2021-12-27 14:23:14.194111,38
2021-12-27 14:23:14.194118,23
2021-12-27 14:23:14.194125,71
2021-12-27 14:23:14.194133,93
2021-12-27 14:23:14.194140,107
2021-12-27 14:23:14.194147,146
2021-12-27 14:23:14.194154,165
2021-12-27 14:23:14.194161,158
2021-12-27 14:23:14.194168,172
2021-12-27 14:23:14.194176,203
2021-12-27 14:23:14.194183,242
2021-12-27 14:23:14.194190,273
2021-12-27 14:23:14.194197,294
2021-12-27 14:23:14.194204,318
2021-12-27 14:23:14.194211,352
2021-12-27 14:23:14.194218,393
2021-12-27 14:23:14.194225,421
2021-12-27 14:23:14.194232,421
2021-12-27 14:23:14.194239,412
2021-12-27 14:23:14.194246,407
2021-12-27 14:23:14.194253,390
2021-12-27 14:23:14.194260,352
2021-12-27 14:23:14.194267,294
2021-12-27 14:23:14.194275,222
2021-12-27 14:23:14.485154,134
2021-12-27 14:23:14.485183,43
2021-12-27 14:23:14.485192,-26
2021-12-27 14:23:14.485199,-81
2021-12-27 14:23:14.485206,-122
2021-12-27 14:23:14.485213,-141
2021-12-27 14:23:14.485220,-141
2021-12-27 14:23:14.485227,-150
2021-12-27 14:23:14.485234,-153
2021-12-27 14:23:14.485240,-129
2021-12-27 14:23:14.485247,-131
2021-12-27 14:23:14.485255,-153
2021-12-27 14:23:14.485261,-143
2021-12-27 14:23:14.485268,-117
2021-12-27 14:23:14.485275,-112
2021-12-27 14:23:14.485282,-107
2021-12-27 14:23:14.485289,-88
2021-12-27 14:23:14.485296,-69
2021-12-27 14:23:14.485303,-64
2021-12-27 14:23:14.485310,-69
2021-12-27 14:23:14.485317,-74
2021-12-27 14:23:14.485324,-74
2021-12-27 14:23:14.485331,-71
2021-12-27 14:23:14.485337,-67
2021-12-27 14:23:14.485344,-64
2021-12-27 14:23:14.485351,-69
2021-12-27 14:23:14.485358,-69
2021-12-27 14:23:14.485365,-62
2021-12-27 14:23:14.485372,-64
2021-12-27 14:23:14.485379,-74
2021-12-27 14:23:14.632743,-67
2021-12-27 14:23:14.632786,-47
2021-12-27 14:23:14.632794,-50
2021-12-27 14:23:14.632802,-64
2021-12-27 14:23:14.632809,-71
2021-12-27 14:23:14.632816,-76
2021-12-27 14:23:14.632823,-79
2021-12-27 14:23:14.632830,-62
2021-12-27 14:23:14.632837,-47
2021-12-27 14:23:14.632844,-67
2021-12-27 14:23:14.632852,-74
2021-12-27 14:23:14.632859,-35
2021-12-27 14:23:14.632866,-2
2021-12-27 14:23:14.632873,-31
2021-12-27 14:23:14.632880,-59
2021-12-27 14:23:14.632886,-52
2021-12-27 14:23:14.632894,-52
2021-12-27 14:23:14.632901,-67
2021-12-27 14:23:14.632908,-81
2021-12-27 14:23:14.632915,-79
2021-12-27 14:23:14.632923,-74
2021-12-27 14:23:14.632930,-79
2021-12-27 14:23:14.632937,-79
2021-12-27 14:23:14.632944,-71
2021-12-27 14:23:14.632952,-86
2021-12-27 14:23:14.632959,-93
2021-12-27 14:23:14.632966,-83
2021-12-27 14:23:14.632973,-139
2021-12-27 14:23:14.632980,-215
2021-12-27 14:23:14.632987,-26
2021-12-27 14:23:14.876871,649
2021-12-27 14:23:14.876890,1526
2021-12-27 14:23:14.876896,1725
2021-12-27 14:23:14.876901,807
2021-12-27 14:23:14.876905,-218
2021-12-27 14:23:14.876910,-445
2021-12-27 14:23:14.876915,-325
2021-12-27 14:23:14.876919,-275
2021-12-27 14:23:14.876924,-186
2021-12-27 14:23:14.876928,-122
2021-12-27 14:23:14.876933,-127
2021-12-27 14:23:14.876937,-110
2021-12-27 14:23:14.876941,-81
2021-12-27 14:23:14.876946,-67
2021-12-27 14:23:14.876950,-50
2021-12-27 14:23:14.876955,-28
2021-12-27 14:23:14.876959,-2
2021-12-27 14:23:14.876964,16
2021-12-27 14:23:14.876968,31
2021-12-27 14:23:14.876973,59
2021-12-27 14:23:14.876977,88
2021-12-27 14:23:14.876982,112
2021-12-27 14:23:14.876987,153
2021-12-27 14:23:14.876991,203
2021-12-27 14:23:14.876996,237
2021-12-27 14:23:14.877000,266
2021-12-27 14:23:14.877005,289
2021-12-27 14:23:14.877009,301
2021-12-27 14:23:14.877014,311
2021-12-27 14:23:14.877018,304
2021-12-27 14:23:15.120382,280
2021-12-27 14:23:15.120413,261
2021-12-27 14:23:15.120422,215
2021-12-27 14:23:15.120429,129
2021-12-27 14:23:15.120436,45
2021-12-27 14:23:15.120443,-14
2021-12-27 14:23:15.120450,-91
2021-12-27 14:23:15.120458,-158
2021-12-27 14:23:15.120465,-179
2021-12-27 14:23:15.120472,-186
2021-12-27 14:23:15.120479,-206
2021-12-27 14:23:15.120486,-208
2021-12-27 14:23:15.120493,-201
2021-12-27 14:23:15.120499,-198
2021-12-27 14:23:15.120506,-182
2021-12-27 14:23:15.120513,-170
2021-12-27 14:23:15.120520,-165
2021-12-27 14:23:15.120527,-143
2021-12-27 14:23:15.120534,-124
2021-12-27 14:23:15.120540,-127
2021-12-27 14:23:15.120547,-131
2021-12-27 14:23:15.120554,-134
2021-12-27 14:23:15.120561,-134
2021-12-27 14:23:15.120568,-112
2021-12-27 14:23:15.120575,-91
2021-12-27 14:23:15.120581,-88
2021-12-27 14:23:15.120588,-79
2021-12-27 14:23:15.120595,-79
2021-12-27 14:23:15.120602,-93
2021-12-27 14:23:15.120609,-91
2021-12-27 14:23:15.362931,-79
2021-12-27 14:23:15.362951,-71
2021-12-27 14:23:15.362956,-69
2021-12-27 14:23:15.362961,-79
2021-12-27 14:23:15.362966,-88
2021-12-27 14:23:15.362970,-83
2021-12-27 14:23:15.362975,-62
2021-12-27 14:23:15.362979,-62
2021-12-27 14:23:15.362984,-83
2021-12-27 14:23:15.362989,-74
2021-12-27 14:23:15.362993,-52
2021-12-27 14:23:15.362998,-62
2021-12-27 14:23:15.363003,-62
2021-12-27 14:23:15.363007,-47
2021-12-27 14:23:15.363012,-52
2021-12-27 14:23:15.363016,-43
2021-12-27 14:23:15.363021,-26
2021-12-27 14:23:15.363025,-43
2021-12-27 14:23:15.363030,-45
2021-12-27 14:23:15.363034,-7
2021-12-27 14:23:15.363039,14
2021-12-27 14:23:15.363043,-7
2021-12-27 14:23:15.363048,-14
2021-12-27 14:23:15.363053,7
2021-12-27 14:23:15.363057,0
2021-12-27 14:23:15.363062,-35
2021-12-27 14:23:15.363066,-43
2021-12-27 14:23:15.363071,-38
2021-12-27 14:23:15.363076,-33
2021-12-27 14:23:15.363080,-16
2021-12-27 14:23:15.559337,-14
2021-12-27 14:23:15.559366,-23
2021-12-27 14:23:15.559375,-23
2021-12-27 14:23:15.559382,-31
2021-12-27 14:23:15.559389,-57
2021-12-27 14:23:15.559396,-100
2021-12-27 14:23:15.559403,-141
2021-12-27 14:23:15.559410,-23
2021-12-27 14:23:15.559417,493
2021-12-27 14:23:15.559424,1356
2021-12-27 14:23:15.559431,1778
2021-12-27 14:23:15.559438,1061
2021-12-27 14:23:15.559445,-28
2021-12-27 14:23:15.559452,-397
2021-12-27 14:23:15.559465,-311
2021-12-27 14:23:15.559472,-270
2021-12-27 14:23:15.559479,-153
2021-12-27 14:23:15.559486,-11
2021-12-27 14:23:15.559492,-21
2021-12-27 14:23:15.559499,-47
2021-12-27 14:23:15.559506,2
2021-12-27 14:23:15.559513,21
2021-12-27 14:23:15.559520,23
2021-12-27 14:23:15.559527,59
2021-12-27 14:23:15.559534,91
2021-12-27 14:23:15.559541,100
2021-12-27 14:23:15.559547,122
2021-12-27 14:23:15.559554,150
2021-12-27 14:23:15.559561,172
2021-12-27 14:23:15.559568,201
2021-12-27 14:23:15.802315,242
2021-12-27 14:23:15.802343,278
2021-12-27 14:23:15.802352,311
2021-12-27 14:23:15.802359,337
2021-12-27 14:23:15.802366,361
2021-12-27 14:23:15.802374,383
2021-12-27 14:23:15.802381,414
2021-12-27 14:23:15.802388,431
2021-12-27 14:23:15.802395,402
2021-12-27 14:23:15.802402,364
2021-12-27 14:23:15.802409,323
2021-12-27 14:23:15.802416,249
2021-12-27 14:23:15.802423,158
2021-12-27 14:23:15.802430,71
2021-12-27 14:23:15.802437,-7
2021-12-27 14:23:15.802444,-79
2021-12-27 14:23:15.802451,-131
2021-12-27 14:23:15.802458,-153
2021-12-27 14:23:15.802465,-158
2021-12-27 14:23:15.802472,-167
2021-12-27 14:23:15.802479,-170
2021-12-27 14:23:15.802486,-148
2021-12-27 14:23:15.802493,-131
2021-12-27 14:23:15.802500,-134
2021-12-27 14:23:15.802507,-129
2021-12-27 14:23:15.802514,-115
2021-12-27 14:23:15.802521,-105
2021-12-27 14:23:15.802529,-88
2021-12-27 14:23:15.802536,-74
2021-12-27 14:23:15.802543,-76
2021-12-27 14:23:16.046471,-79
2021-12-27 14:23:16.046492,-59
2021-12-27 14:23:16.046498,-33
2021-12-27 14:23:16.046503,-28
2021-12-27 14:23:16.046509,-35
2021-12-27 14:23:16.046514,-33
2021-12-27 14:23:16.046519,-28
2021-12-27 14:23:16.046524,-31
2021-12-27 14:23:16.046528,-31
2021-12-27 14:23:16.046533,-26
2021-12-27 14:23:16.046538,-28
2021-12-27 14:23:16.046542,-33
2021-12-27 14:23:16.046547,-35
2021-12-27 14:23:16.046552,-47
2021-12-27 14:23:16.046556,-52
2021-12-27 14:23:16.046561,-43
2021-12-27 14:23:16.046565,-43
2021-12-27 14:23:16.046570,-45
2021-12-27 14:23:16.046575,-33
2021-12-27 14:23:16.046579,-2
2021-12-27 14:23:16.046584,16
2021-12-27 14:23:16.046589,7
2021-12-27 14:23:16.046593,-9
2021-12-27 14:23:16.046598,-16
2021-12-27 14:23:16.046634,-35
2021-12-27 14:23:16.046639,-59
2021-12-27 14:23:16.046643,-55
2021-12-27 14:23:16.046648,-52
2021-12-27 14:23:16.046652,-83
2021-12-27 14:23:16.046657,-98
2021-12-27 14:23:16.241026,-74
2021-12-27 14:23:16.241048,-64
2021-12-27 14:23:16.241077,-83
2021-12-27 14:23:16.241111,-95
2021-12-27 14:23:16.241123,-103
2021-12-27 14:23:16.241131,-136
2021-12-27 14:23:16.241140,-194
2021-12-27 14:23:16.241148,-162
2021-12-27 14:23:16.241156,215
2021-12-27 14:23:16.241164,1042
2021-12-27 14:23:16.241169,1720
2021-12-27 14:23:16.241174,1313
2021-12-27 14:23:16.241178,143
2021-12-27 14:23:16.241183,-479
2021-12-27 14:23:16.241187,-426
2021-12-27 14:23:16.241192,-345
2021-12-27 14:23:16.241196,-280
2021-12-27 14:23:16.241200,-158
2021-12-27 14:23:16.241205,-124
2021-12-27 14:23:16.241209,-172
2021-12-27 14:23:16.241214,-170
2021-12-27 14:23:16.241218,-117
2021-12-27 14:23:16.241222,-93
2021-12-27 14:23:16.241227,-69
2021-12-27 14:23:16.241231,-45
2021-12-27 14:23:16.241235,-59
2021-12-27 14:23:16.241240,-45
2021-12-27 14:23:16.241244,4
2021-12-27 14:23:16.241248,31
2021-12-27 14:23:16.241253,47
2021-12-27 14:23:16.532263,74
2021-12-27 14:23:16.532279,100
2021-12-27 14:23:16.532285,129
2021-12-27 14:23:16.532290,158
2021-12-27 14:23:16.532294,179
2021-12-27 14:23:16.532299,191
2021-12-27 14:23:16.532303,201
2021-12-27 14:23:16.532308,208
2021-12-27 14:23:16.532312,208
2021-12-27 14:23:16.532317,191
2021-12-27 14:23:16.532322,143
2021-12-27 14:23:16.532326,81
2021-12-27 14:23:16.532331,19
2021-12-27 14:23:16.532335,-47
2021-12-27 14:23:16.532340,-110
2021-12-27 14:23:16.532345,-155
2021-12-27 14:23:16.532349,-196
2021-12-27 14:23:16.532354,-225
2021-12-27 14:23:16.532358,-218
2021-12-27 14:23:16.532363,-203
2021-12-27 14:23:16.532367,-201
2021-12-27 14:23:16.532372,-194
2021-12-27 14:23:16.532377,-177
2021-12-27 14:23:16.532381,-177
2021-12-27 14:23:16.532386,-177
2021-12-27 14:23:16.532390,-158
2021-12-27 14:23:16.532395,-134
2021-12-27 14:23:16.532400,-122
2021-12-27 14:23:16.532404,-115
2021-12-27 14:23:16.532409,-107
2021-12-27 14:23:16.777122,-105
2021-12-27 14:23:16.777140,-100
2021-12-27 14:23:16.777146,-86
2021-12-27 14:23:16.777151,-74
2021-12-27 14:23:16.777156,-79
2021-12-27 14:23:16.777161,-88
2021-12-27 14:23:16.777165,-88
2021-12-27 14:23:16.777170,-86
2021-12-27 14:23:16.777174,-81
2021-12-27 14:23:16.777179,-59
2021-12-27 14:23:16.777184,-50
2021-12-27 14:23:16.777188,-62
2021-12-27 14:23:16.777193,-62
2021-12-27 14:23:16.777197,-57
2021-12-27 14:23:16.777202,-62
2021-12-27 14:23:16.777206,-64
2021-12-27 14:23:16.777211,-55
2021-12-27 14:23:16.777215,-50
2021-12-27 14:23:16.777220,-57
2021-12-27 14:23:16.777224,-52
2021-12-27 14:23:16.777229,-33
2021-12-27 14:23:16.777233,-23
2021-12-27 14:23:16.777238,-21
2021-12-27 14:23:16.777242,-19
2021-12-27 14:23:16.777247,-28
2021-12-27 14:23:16.777251,-40
2021-12-27 14:23:16.777256,-43
2021-12-27 14:23:16.777260,-23
2021-12-27 14:23:16.777265,19
2021-12-27 14:23:16.777269,50
2021-12-27 14:23:17.021340,45
2021-12-27 14:23:17.021370,28
2021-12-27 14:23:17.021379,21
2021-12-27 14:23:17.021386,7
2021-12-27 14:23:17.021393,-16
2021-12-27 14:23:17.021400,-19
2021-12-27 14:23:17.021407,-9
2021-12-27 14:23:17.021414,-4
2021-12-27 14:23:17.021421,-7
2021-12-27 14:23:17.021428,-11
2021-12-27 14:23:17.021435,-2
2021-12-27 14:23:17.021442,7
2021-12-27 14:23:17.021449,2
2021-12-27 14:23:17.021456,-14
2021-12-27 14:23:17.021463,-45
2021-12-27 14:23:17.021471,-91
2021-12-27 14:23:17.021478,-9
2021-12-27 14:23:17.021485,450
2021-12-27 14:23:17.021492,1296
2021-12-27 14:23:17.021499,1802
2021-12-27 14:23:17.021506,1174
2021-12-27 14:23:17.021513,57
2021-12-27 14:23:17.021520,-373
2021-12-27 14:23:17.021527,-289
2021-12-27 14:23:17.021534,-249
2021-12-27 14:23:17.021541,-167
2021-12-27 14:23:17.021548,-45
2021-12-27 14:23:17.021555,-40
2021-12-27 14:23:17.021562,-62
2021-12-27 14:23:17.021569,-21
2021-12-27 14:23:17.167766,0
2021-12-27 14:23:17.167794,7
2021-12-27 14:23:17.167803,33
2021-12-27 14:23:17.167811,52
2021-12-27 14:23:17.167818,62
2021-12-27 14:23:17.167825,88
2021-12-27 14:23:17.167832,115
2021-12-27 14:23:17.167839,136
2021-12-27 14:23:17.167846,165
2021-12-27 14:23:17.167853,198
2021-12-27 14:23:17.167860,227
2021-12-27 14:23:17.167867,261
2021-12-27 14:23:17.167874,297
2021-12-27 14:23:17.167881,328
2021-12-27 14:23:17.167888,347
2021-12-27 14:23:17.167895,357
2021-12-27 14:23:17.167902,359
2021-12-27 14:23:17.167909,354
2021-12-27 14:23:17.167916,340
2021-12-27 14:23:17.167923,301
2021-12-27 14:23:17.167930,234
2021-12-27 14:23:17.167937,139
2021-12-27 14:23:17.167944,47
2021-12-27 14:23:17.167951,-26
2021-12-27 14:23:17.167958,-86
2021-12-27 14:23:17.167965,-131
2021-12-27 14:23:17.167972,-160
2021-12-27 14:23:17.167979,-177
2021-12-27 14:23:17.167986,-184
2021-12-27 14:23:17.167993,-179
2021-12-27 14:23:17.411661,-170
2021-12-27 14:23:17.411689,-160
2021-12-27 14:23:17.411698,-150
2021-12-27 14:23:17.411705,-141
2021-12-27 14:23:17.411712,-139
2021-12-27 14:23:17.411719,-134
2021-12-27 14:23:17.411726,-119
2021-12-27 14:23:17.411733,-110
2021-12-27 14:23:17.411740,-105
2021-12-27 14:23:17.411747,-100
2021-12-27 14:23:17.411754,-103
2021-12-27 14:23:17.411761,-103
2021-12-27 14:23:17.411768,-95
2021-12-27 14:23:17.411775,-95
2021-12-27 14:23:17.411782,-105
2021-12-27 14:23:17.411789,-100
2021-12-27 14:23:17.411796,-81
2021-12-27 14:23:17.411803,-71
2021-12-27 14:23:17.411810,-79
2021-12-27 14:23:17.411817,-83
2021-12-27 14:23:17.411824,-88
2021-12-27 14:23:17.411830,-91
2021-12-27 14:23:17.411837,-79
2021-12-27 14:23:17.411844,-67
2021-12-27 14:23:17.411851,-71
2021-12-27 14:23:17.411858,-79
2021-12-27 14:23:17.411865,-71
2021-12-27 14:23:17.411872,-69
2021-12-27 14:23:17.411879,-71
2021-12-27 14:23:17.411886,-74
2021-12-27 14:23:17.703487,-81
2021-12-27 14:23:17.703506,-76
2021-12-27 14:23:17.703511,-59
2021-12-27 14:23:17.703516,-31
2021-12-27 14:23:17.703521,0
2021-12-27 14:23:17.703526,-4
2021-12-27 14:23:17.703530,-23
2021-12-27 14:23:17.703535,-26
2021-12-27 14:23:17.703539,-28
2021-12-27 14:23:17.703544,-45
2021-12-27 14:23:17.703549,-47
2021-12-27 14:23:17.703553,-38
2021-12-27 14:23:17.703558,-40
2021-12-27 14:23:17.703562,-43
2021-12-27 14:23:17.703567,-38
2021-12-27 14:23:17.703571,-35
2021-12-27 14:23:17.703576,-38
2021-12-27 14:23:17.703580,-35
2021-12-27 14:23:17.703585,-43
2021-12-27 14:23:17.703590,-81
2021-12-27 14:23:17.703594,-136
2021-12-27 14:23:17.703600,-64
2021-12-27 14:23:17.703605,397
2021-12-27 14:23:17.703610,1286
2021-12-27 14:23:17.703615,1878
2021-12-27 14:23:17.703619,1313
2021-12-27 14:23:17.703624,143
2021-12-27 14:23:17.703629,-371
2021-12-27 14:23:17.703633,-285
2021-12-27 14:23:17.703638,-225
2021-12-27 14:23:17.850412,-165
2021-12-27 14:23:17.850441,-67
2021-12-27 14:23:17.850450,-59
2021-12-27 14:23:17.850458,-74
2021-12-27 14:23:17.850465,-38
2021-12-27 14:23:17.850472,-16
2021-12-27 14:23:17.850479,-14
2021-12-27 14:23:17.850486,-2
2021-12-27 14:23:17.850493,11
2021-12-27 14:23:17.850500,26
2021-12-27 14:23:17.850508,50
2021-12-27 14:23:17.850515,76
2021-12-27 14:23:17.850522,100
2021-12-27 14:23:17.850529,122
2021-12-27 14:23:17.850536,150
2021-12-27 14:23:17.850543,182
2021-12-27 14:23:17.850551,210
2021-12-27 14:23:17.850558,234
2021-12-27 14:23:17.850565,263
2021-12-27 14:23:17.850572,285
2021-12-27 14:23:17.850580,289
2021-12-27 14:23:17.850587,282
2021-12-27 14:23:17.850626,275
2021-12-27 14:23:17.850634,261
2021-12-27 14:23:17.850641,222
2021-12-27 14:23:17.850648,158
2021-12-27 14:23:17.850655,76
2021-12-27 14:23:17.850662,-7
2021-12-27 14:23:17.850669,-74
2021-12-27 14:23:17.850677,-127
2021-12-27 14:23:18.143054,-165
2021-12-27 14:23:18.143084,-184
2021-12-27 14:23:18.143093,-191
2021-12-27 14:23:18.143101,-194
2021-12-27 14:23:18.143108,-189
2021-12-27 14:23:18.143115,-184
2021-12-27 14:23:18.143122,-177
2021-12-27 14:23:18.143129,-160
2021-12-27 14:23:18.143136,-146
2021-12-27 14:23:18.143143,-141
2021-12-27 14:23:18.143150,-136
2021-12-27 14:23:18.143158,-122
2021-12-27 14:23:18.143165,-107
2021-12-27 14:23:18.143172,-100
2021-12-27 14:23:18.143178,-95
2021-12-27 14:23:18.143185,-91
2021-12-27 14:23:18.143192,-86
2021-12-27 14:23:18.143200,-79
2021-12-27 14:23:18.143207,-71
2021-12-27 14:23:18.143219,-67
2021-12-27 14:23:18.143226,-62
2021-12-27 14:23:18.143233,-62
2021-12-27 14:23:18.143240,-62
2021-12-27 14:23:18.143247,-59
2021-12-27 14:23:18.143254,-57
2021-12-27 14:23:18.143261,-52
2021-12-27 14:23:18.143268,-50
2021-12-27 14:23:18.143275,-47
2021-12-27 14:23:18.143282,-47
2021-12-27 14:23:18.143289,-47
2021-12-27 14:23:18.337854,-40
2021-12-27 14:23:18.337882,-31
2021-12-27 14:23:18.337891,-28
2021-12-27 14:23:18.337898,-28
2021-12-27 14:23:18.337905,-28
2021-12-27 14:23:18.337912,-28
2021-12-27 14:23:18.337919,-28
2021-12-27 14:23:18.337926,-26
2021-12-27 14:23:18.337933,-16
2021-12-27 14:23:18.337940,7
2021-12-27 14:23:18.337947,43
2021-12-27 14:23:18.337954,50
2021-12-27 14:23:18.337961,31
2021-12-27 14:23:18.337968,26
2021-12-27 14:23:18.337975,26
2021-12-27 14:23:18.337981,9
2021-12-27 14:23:18.337988,2
2021-12-27 14:23:18.337995,4
2021-12-27 14:23:18.338002,4
2021-12-27 14:23:18.338009,4
2021-12-27 14:23:18.338016,9
2021-12-27 14:23:18.338023,9
2021-12-27 14:23:18.338030,14
2021-12-27 14:23:18.338037,14
2021-12-27 14:23:18.338044,7
2021-12-27 14:23:18.338051,-19
2021-12-27 14:23:18.338057,-69
2021-12-27 14:23:18.338065,-52
2021-12-27 14:23:18.338072,275
2021-12-27 14:23:18.338079,1054
2021-12-27 14:23:18.628871,1775
2021-12-27 14:23:18.628900,1500
2021-12-27 14:23:18.628909,385
2021-12-27 14:23:18.628916,-309
2021-12-27 14:23:18.628924,-301
2021-12-27 14:23:18.628931,-222
2021-12-27 14:23:18.628938,-179
2021-12-27 14:23:18.628945,-64
2021-12-27 14:23:18.628953,-19
2021-12-27 14:23:18.628960,-43
2021-12-27 14:23:18.628967,-23
2021-12-27 14:23:18.628974,4
2021-12-27 14:23:18.628981,9
2021-12-27 14:23:18.628988,21
2021-12-27 14:23:18.628995,43
2021-12-27 14:23:18.629002,59
2021-12-27 14:23:18.629009,76
2021-12-27 14:23:18.629017,100
2021-12-27 14:23:18.629024,119
2021-12-27 14:23:18.629031,141
2021-12-27 14:23:18.629038,170
2021-12-27 14:23:18.629045,198
2021-12-27 14:23:18.629052,230
2021-12-27 14:23:18.629059,263
2021-12-27 14:23:18.629066,292
2021-12-27 14:23:18.629073,311
2021-12-27 14:23:18.629080,321
2021-12-27 14:23:18.629088,323
2021-12-27 14:23:18.629127,318
2021-12-27 14:23:18.629134,306
2021-12-27 14:23:18.823991,273
2021-12-27 14:23:18.824009,215
2021-12-27 14:23:18.824015,134
2021-12-27 14:23:18.824020,45
2021-12-27 14:23:18.824024,-28
2021-12-27 14:23:18.824029,-86
2021-12-27 14:23:18.824034,-129
2021-12-27 14:23:18.824038,-158
2021-12-27 14:23:18.824043,-177
2021-12-27 14:23:18.824047,-184
2021-12-27 14:23:18.824052,-179
2021-12-27 14:23:18.824056,-172
2021-12-27 14:23:18.824061,-162
2021-12-27 14:23:18.824065,-150
2021-12-27 14:23:18.824070,-146
2021-12-27 14:23:18.824074,-143
2021-12-27 14:23:18.824079,-131
2021-12-27 14:23:18.824083,-117
2021-12-27 14:23:18.824088,-107
2021-12-27 14:23:18.824092,-100
2021-12-27 14:23:18.824097,-93
2021-12-27 14:23:18.824101,-91
2021-12-27 14:23:18.824106,-86
2021-12-27 14:23:18.824110,-79
2021-12-27 14:23:18.824115,-71
2021-12-27 14:23:18.824119,-67
2021-12-27 14:23:18.824124,-64
2021-12-27 14:23:18.824129,-64
2021-12-27 14:23:18.824133,-62
2021-12-27 14:23:18.824138,-57
2021-12-27 14:23:19.020300,-52
2021-12-27 14:23:19.020328,-47
2021-12-27 14:23:19.020336,-47
2021-12-27 14:23:19.020344,-45
2021-12-27 14:23:19.020351,-43
2021-12-27 14:23:19.020358,-45
2021-12-27 14:23:19.020365,-45
2021-12-27 14:23:19.020372,-45
2021-12-27 14:23:19.020379,-43
2021-12-27 14:23:19.020386,-33
2021-12-27 14:23:19.020393,-4
2021-12-27 14:23:19.020400,23
2021-12-27 14:23:19.020407,19
2021-12-27 14:23:19.020414,0
2021-12-27 14:23:19.020421,-2
2021-12-27 14:23:19.020428,-19
2021-12-27 14:23:19.020435,-47
2021-12-27 14:23:19.020442,-50
2021-12-27 14:23:19.020449,-38
2021-12-27 14:23:19.020456,-38
2021-12-27 14:23:19.020463,-38
2021-12-27 14:23:19.020470,-33
2021-12-27 14:23:19.020477,-33
2021-12-27 14:23:19.020484,-33
2021-12-27 14:23:19.020491,-28
2021-12-27 14:23:19.020498,-33
2021-12-27 14:23:19.020504,-74
2021-12-27 14:23:19.020511,-117
2021-12-27 14:23:19.020518,-7
2021-12-27 14:23:19.020525,508
2021-12-27 14:23:19.264017,1370
2021-12-27 14:23:19.264046,1799
2021-12-27 14:23:19.264055,1090
2021-12-27 14:23:19.264062,2
2021-12-27 14:23:19.264069,-364
2021-12-27 14:23:19.264076,-266
2021-12-27 14:23:19.264083,-220
2021-12-27 14:23:19.264090,-136
2021-12-27 14:23:19.264097,-38
2021-12-27 14:23:19.264104,-45
2021-12-27 14:23:19.264111,-50
2021-12-27 14:23:19.264118,-11
2021-12-27 14:23:19.264125,2
2021-12-27 14:23:19.264132,7
2021-12-27 14:23:19.264139,33
2021-12-27 14:23:19.264146,55
2021-12-27 14:23:19.264153,69
2021-12-27 14:23:19.264160,91
2021-12-27 14:23:19.264167,117
2021-12-27 14:23:19.264174,139
2021-12-27 14:23:19.264181,167
2021-12-27 14:23:19.264188,198
2021-12-27 14:23:19.264195,230
2021-12-27 14:23:19.264202,261
2021-12-27 14:23:19.264209,287
2021-12-27 14:23:19.264216,309
2021-12-27 14:23:19.264223,325
2021-12-27 14:23:19.264230,328
2021-12-27 14:23:19.264236,325
2021-12-27 14:23:19.264243,316
2021-12-27 14:23:19.507627,289
2021-12-27 14:23:19.507655,239
2021-12-27 14:23:19.507664,167
2021-12-27 14:23:19.507672,81
2021-12-27 14:23:19.507679,-2
2021-12-27 14:23:19.507686,-69
2021-12-27 14:23:19.507694,-122
2021-12-27 14:23:19.507700,-165
2021-12-27 14:23:19.507708,-191
2021-12-27 14:23:19.507715,-201
2021-12-27 14:23:19.507722,-198
2021-12-27 14:23:19.507729,-191
2021-12-27 14:23:19.507736,-182
2021-12-27 14:23:19.507743,-174
2021-12-27 14:23:19.507750,-170
2021-12-27 14:23:19.507757,-162
2021-12-27 14:23:19.507764,-150
2021-12-27 14:23:19.507771,-136
2021-12-27 14:23:19.507778,-127
2021-12-27 14:23:19.507785,-117
2021-12-27 14:23:19.507792,-115
2021-12-27 14:23:19.507799,-112
2021-12-27 14:23:19.507806,-107
2021-12-27 14:23:19.507813,-98
2021-12-27 14:23:19.507820,-91
2021-12-27 14:23:19.507827,-88
2021-12-27 14:23:19.507834,-83
2021-12-27 14:23:19.507841,-79
2021-12-27 14:23:19.507848,-71
2021-12-27 14:23:19.507855,-64
2021-12-27 14:23:19.701731,-57
2021-12-27 14:23:19.701754,-52
2021-12-27 14:23:19.701760,-50
2021-12-27 14:23:19.701765,-50
2021-12-27 14:23:19.701770,-45
2021-12-27 14:23:19.701775,-40
2021-12-27 14:23:19.701780,-38
2021-12-27 14:23:19.701784,-35
2021-12-27 14:23:19.701789,-31
2021-12-27 14:23:19.701794,-14
2021-12-27 14:23:19.701798,19
2021-12-27 14:23:19.701803,35
2021-12-27 14:23:19.701808,21
2021-12-27 14:23:19.701812,11
2021-12-27 14:23:19.701817,9
2021-12-27 14:23:19.701822,-7
2021-12-27 14:23:19.701826,-19
2021-12-27 14:23:19.701831,-9
2021-12-27 14:23:19.701836,0
2021-12-27 14:23:19.701840,0
2021-12-27 14:23:19.701845,2
2021-12-27 14:23:19.701850,7
2021-12-27 14:23:19.701854,9
2021-12-27 14:23:19.701859,16
2021-12-27 14:23:19.701864,16
2021-12-27 14:23:19.701868,-2
2021-12-27 14:23:19.701873,-45
2021-12-27 14:23:19.701878,-59
2021-12-27 14:23:19.701882,162
2021-12-27 14:23:19.701887,850
2021-12-27 14:23:19.946338,1689
2021-12-27 14:23:19.946380,1715
2021-12-27 14:23:19.946389,680
2021-12-27 14:23:19.946396,-232
2021-12-27 14:23:19.946404,-340
2021-12-27 14:23:19.946411,-227
2021-12-27 14:23:19.946418,-186
2021-12-27 14:23:19.946425,-64
2021-12-27 14:23:19.946432,33
2021-12-27 14:23:19.946439,19
2021-12-27 14:23:19.946446,16
2021-12-27 14:23:19.946453,55
2021-12-27 14:23:19.946460,67
2021-12-27 14:23:19.946467,74
2021-12-27 14:23:19.946474,98
2021-12-27 14:23:19.946481,119
2021-12-27 14:23:19.946488,136
2021-12-27 14:23:19.946495,160
2021-12-27 14:23:19.946501,184
2021-12-27 14:23:19.946508,210
2021-12-27 14:23:19.946515,239
2021-12-27 14:23:19.946522,270
2021-12-27 14:23:19.946529,306
2021-12-27 14:23:19.946536,342
2021-12-27 14:23:19.946543,371
2021-12-27 14:23:19.946550,395
2021-12-27 14:23:19.946557,409
2021-12-27 14:23:19.946564,400
2021-12-27 14:23:19.946571,388
2021-12-27 14:23:19.946578,378
2021-12-27 14:23:20.190017,345
2021-12-27 14:23:20.190045,275
2021-12-27 14:23:20.190054,196
2021-12-27 14:23:20.190061,105
2021-12-27 14:23:20.190068,19
2021-12-27 14:23:20.190075,-50
2021-12-27 14:23:20.190082,-107
2021-12-27 14:23:20.190089,-143
2021-12-27 14:23:20.190096,-158
2021-12-27 14:23:20.190103,-167
2021-12-27 14:23:20.190110,-167
2021-12-27 14:23:20.190117,-162
2021-12-27 14:23:20.190124,-160
2021-12-27 14:23:20.190130,-153
2021-12-27 14:23:20.190137,-141
2021-12-27 14:23:20.190144,-136
2021-12-27 14:23:20.190151,-127
2021-12-27 14:23:20.190158,-112
2021-12-27 14:23:20.190165,-103
2021-12-27 14:23:20.190172,-98
2021-12-27 14:23:20.190178,-88
2021-12-27 14:23:20.190185,-81
2021-12-27 14:23:20.190192,-76
2021-12-27 14:23:20.190199,-74
2021-12-27 14:23:20.190206,-69
2021-12-27 14:23:20.190213,-62
2021-12-27 14:23:20.190219,-57
2021-12-27 14:23:20.190226,-57
2021-12-27 14:23:20.190233,-52
2021-12-27 14:23:20.190240,-47
2021-12-27 14:23:20.481627,-47
2021-12-27 14:23:20.481654,-47
2021-12-27 14:23:20.481663,-43
2021-12-27 14:23:20.481671,-40
2021-12-27 14:23:20.481678,-40
2021-12-27 14:23:20.481685,-40
2021-12-27 14:23:20.481692,-40
2021-12-27 14:23:20.481699,-45
2021-12-27 14:23:20.481706,-47
2021-12-27 14:23:20.481713,-33
2021-12-27 14:23:20.481720,-2
2021-12-27 14:23:20.481727,21
2021-12-27 14:23:20.481734,16
2021-12-27 14:23:20.481742,0
2021-12-27 14:23:20.481748,-9
2021-12-27 14:23:20.481755,-21
2021-12-27 14:23:20.481762,-35
2021-12-27 14:23:20.481770,-38
2021-12-27 14:23:20.481777,-35
2021-12-27 14:23:20.481784,-33
2021-12-27 14:23:20.481791,-33
2021-12-27 14:23:20.481797,-31
2021-12-27 14:23:20.481804,-31
2021-12-27 14:23:20.481811,-23
2021-12-27 14:23:20.481818,-19
2021-12-27 14:23:20.481825,-31
2021-12-27 14:23:20.481832,-74
2021-12-27 14:23:20.481839,-129
2021-12-27 14:23:20.481846,-45
2021-12-27 14:23:20.481853,452
2021-12-27 14:23:20.676399,1356
2021-12-27 14:23:20.676421,1883
2021-12-27 14:23:20.676427,1207
2021-12-27 14:23:20.676432,9
2021-12-27 14:23:20.676436,-443
2021-12-27 14:23:20.676441,-311
2021-12-27 14:23:20.676446,-251
2021-12-27 14:23:20.676469,-191
2021-12-27 14:23:20.676476,-62
2021-12-27 14:23:20.676483,-35
2021-12-27 14:23:20.676490,-59
2021-12-27 14:23:20.676497,-21
2021-12-27 14:23:20.676504,9
2021-12-27 14:23:20.676511,11
2021-12-27 14:23:20.676517,31
2021-12-27 14:23:20.676524,52
2021-12-27 14:23:20.676531,62
2021-12-27 14:23:20.676538,81
2021-12-27 14:23:20.676545,107
2021-12-27 14:23:20.676552,127
2021-12-27 14:23:20.676559,148
2021-12-27 14:23:20.676565,177
2021-12-27 14:23:20.676572,201
2021-12-27 14:23:20.676611,227
2021-12-27 14:23:20.676618,258
2021-12-27 14:23:20.676625,280
2021-12-27 14:23:20.676632,292
2021-12-27 14:23:20.676639,294
2021-12-27 14:23:20.676646,292
2021-12-27 14:23:20.676653,278
2021-12-27 14:23:20.872502,251
2021-12-27 14:23:20.872530,208
2021-12-27 14:23:20.872539,139
2021-12-27 14:23:20.872546,52
2021-12-27 14:23:20.872554,-33
2021-12-27 14:23:20.872561,-103
2021-12-27 14:23:20.872568,-155
2021-12-27 14:23:20.872575,-191
2021-12-27 14:23:20.872582,-213
2021-12-27 14:23:20.872589,-222
2021-12-27 14:23:20.872597,-225
2021-12-27 14:23:20.872603,-222
2021-12-27 14:23:20.872611,-215
2021-12-27 14:23:20.872618,-203
2021-12-27 14:23:20.872625,-194
2021-12-27 14:23:20.872632,-186
2021-12-27 14:23:20.872638,-174
2021-12-27 14:23:20.872645,-165
2021-12-27 14:23:20.872652,-158
2021-12-27 14:23:20.872659,-148
2021-12-27 14:23:20.872666,-143
2021-12-27 14:23:20.872673,-141
2021-12-27 14:23:20.872681,-134
2021-12-27 14:23:20.872688,-129
2021-12-27 14:23:20.872695,-127
2021-12-27 14:23:20.872702,-122
2021-12-27 14:23:20.872709,-117
2021-12-27 14:23:20.872716,-115
2021-12-27 14:23:20.872722,-107
2021-12-27 14:23:20.872729,-103
2021-12-27 14:23:21.164759,-100
2021-12-27 14:23:21.164779,-98
2021-12-27 14:23:21.164784,-95
2021-12-27 14:23:21.164789,-93
2021-12-27 14:23:21.164794,-88
2021-12-27 14:23:21.164802,-83
2021-12-27 14:23:21.164807,-86
2021-12-27 14:23:21.164811,-88
2021-12-27 14:23:21.164816,-88
2021-12-27 14:23:21.164820,-91
2021-12-27 14:23:21.164825,-83
2021-12-27 14:23:21.164829,-79
2021-12-27 14:23:21.164834,-79
2021-12-27 14:23:21.164838,-79
2021-12-27 14:23:21.164843,-74
2021-12-27 14:23:21.164847,-69
2021-12-27 14:23:21.164851,-64
2021-12-27 14:23:21.164856,-59
2021-12-27 14:23:21.164861,-59
2021-12-27 14:23:21.164865,-62
2021-12-27 14:23:21.164869,-64
2021-12-27 14:23:21.164874,-57
2021-12-27 14:23:21.164878,-31
2021-12-27 14:23:21.164883,0
2021-12-27 14:23:21.164887,4
2021-12-27 14:23:21.164892,-11
2021-12-27 14:23:21.164896,-16
2021-12-27 14:23:21.164901,-16
2021-12-27 14:23:21.164906,-33
2021-12-27 14:23:21.164910,-40
2021-12-27 14:23:21.311168,-35
2021-12-27 14:23:21.311196,-35
2021-12-27 14:23:21.311205,-35
2021-12-27 14:23:21.311212,-33
2021-12-27 14:23:21.311219,-31
2021-12-27 14:23:21.311227,-26
2021-12-27 14:23:21.311233,-23
2021-12-27 14:23:21.311240,-23
2021-12-27 14:23:21.311247,-43
2021-12-27 14:23:21.311254,-91
2021-12-27 14:23:21.311261,-115
2021-12-27 14:23:21.311268,71
2021-12-27 14:23:21.311276,702
2021-12-27 14:23:21.311283,1560
2021-12-27 14:23:21.311289,1744
2021-12-27 14:23:21.311296,824
2021-12-27 14:23:21.311303,-162
2021-12-27 14:23:21.311310,-349
2021-12-27 14:23:21.311317,-230
2021-12-27 14:23:21.311324,-189
2021-12-27 14:23:21.311331,-100
2021-12-27 14:23:21.311338,-40
2021-12-27 14:23:21.311345,-62
2021-12-27 14:23:21.311352,-50
2021-12-27 14:23:21.311359,-14
2021-12-27 14:23:21.311366,-7
2021-12-27 14:23:21.311373,0
2021-12-27 14:23:21.311380,23
2021-12-27 14:23:21.311387,40
2021-12-27 14:23:21.311394,57
2021-12-27 14:23:21.603829,83
2021-12-27 14:23:21.603858,107
2021-12-27 14:23:21.603867,129
2021-12-27 14:23:21.603874,150
2021-12-27 14:23:21.603881,174
2021-12-27 14:23:21.603888,203
2021-12-27 14:23:21.603895,234
2021-12-27 14:23:21.603902,261
2021-12-27 14:23:21.603909,282
2021-12-27 14:23:21.603916,294
2021-12-27 14:23:21.603923,294
2021-12-27 14:23:21.603930,294
2021-12-27 14:23:21.603937,287
2021-12-27 14:23:21.603944,266
2021-12-27 14:23:21.603951,222
2021-12-27 14:23:21.603958,153
2021-12-27 14:23:21.603965,71
2021-12-27 14:23:21.603973,-4
2021-12-27 14:23:21.603980,-71
2021-12-27 14:23:21.603987,-124
2021-12-27 14:23:21.603994,-162
2021-12-27 14:23:21.604001,-186
2021-12-27 14:23:21.604008,-196
2021-12-27 14:23:21.604015,-196
2021-12-27 14:23:21.604022,-191
2021-12-27 14:23:21.604029,-184
2021-12-27 14:23:21.604035,-174
2021-12-27 14:23:21.604042,-170
2021-12-27 14:23:21.604049,-162
2021-12-27 14:23:21.604056,-150
2021-12-27 14:23:21.944813,-139
2021-12-27 14:23:21.944840,-131
2021-12-27 14:23:21.944849,-124
2021-12-27 14:23:21.944856,-117
2021-12-27 14:23:21.944863,-110
2021-12-27 14:23:21.944871,-105
2021-12-27 14:23:21.944878,-103
2021-12-27 14:23:21.944885,-95
2021-12-27 14:23:21.944892,-91
2021-12-27 14:23:21.944898,-91
2021-12-27 14:23:21.944905,-88
2021-12-27 14:23:21.944912,-86
2021-12-27 14:23:21.944919,-86
2021-12-27 14:23:21.944926,-81
2021-12-27 14:23:21.944933,-76
2021-12-27 14:23:21.944940,-74
2021-12-27 14:23:21.944947,-69
2021-12-27 14:23:21.944954,-64
2021-12-27 14:23:21.944961,-67
2021-12-27 14:23:21.944968,-62
2021-12-27 14:23:21.944975,-55
2021-12-27 14:23:21.944982,-52
2021-12-27 14:23:21.944989,-47
2021-12-27 14:23:21.944996,-43
2021-12-27 14:23:21.945003,-40
2021-12-27 14:23:21.945010,-40
2021-12-27 14:23:21.945017,-35
2021-12-27 14:23:21.945024,-31
2021-12-27 14:23:21.945031,-31
2021-12-27 14:23:21.945038,-31
2021-12-27 14:23:22.042435,-28
2021-12-27 14:23:22.042465,-23
2021-12-27 14:23:22.042473,-21
2021-12-27 14:23:22.042481,-19
2021-12-27 14:23:22.042488,-19
2021-12-27 14:23:22.042495,-16
2021-12-27 14:23:22.042502,-16
2021-12-27 14:23:22.042509,-21
2021-12-27 14:23:22.042516,-21
2021-12-27 14:23:22.042523,-2
2021-12-27 14:23:22.042530,33
2021-12-27 14:23:22.042537,47
2021-12-27 14:23:22.042544,33
2021-12-27 14:23:22.042551,23
2021-12-27 14:23:22.042558,26
2021-12-27 14:23:22.042565,14
2021-12-27 14:23:22.042572,2
2021-12-27 14:23:22.042579,-2
2021-12-27 14:23:22.042585,-4
2021-12-27 14:23:22.042592,0
2021-12-27 14:23:22.042599,0
2021-12-27 14:23:22.042606,-9
2021-12-27 14:23:22.042613,-9
2021-12-27 14:23:22.042620,-2
2021-12-27 14:23:22.042627,0
2021-12-27 14:23:22.042634,-4
2021-12-27 14:23:22.042640,-26
2021-12-27 14:23:22.042647,-74
2021-12-27 14:23:22.042654,-83
2021-12-27 14:23:22.042661,148
2021-12-27 14:23:22.237583,824
2021-12-27 14:23:22.237611,1627
2021-12-27 14:23:22.237620,1634
2021-12-27 14:23:22.237628,630
2021-12-27 14:23:22.237635,-237
2021-12-27 14:23:22.237643,-325
2021-12-27 14:23:22.237650,-220
2021-12-27 14:23:22.237657,-182
2021-12-27 14:23:22.237664,-76
2021-12-27 14:23:22.237671,-28
2021-12-27 14:23:22.237678,-52
2021-12-27 14:23:22.237685,-31
2021-12-27 14:23:22.237692,11
2021-12-27 14:23:22.237699,21
2021-12-27 14:23:22.237707,28
2021-12-27 14:23:22.237714,45
2021-12-27 14:23:22.237721,59
2021-12-27 14:23:22.237728,79
2021-12-27 14:23:22.237735,103
2021-12-27 14:23:22.237742,124
2021-12-27 14:23:22.237748,146
2021-12-27 14:23:22.237756,172
2021-12-27 14:23:22.237762,196
2021-12-27 14:23:22.237769,227
2021-12-27 14:23:22.237777,261
2021-12-27 14:23:22.237784,287
2021-12-27 14:23:22.237791,309
2021-12-27 14:23:22.237798,323
2021-12-27 14:23:22.237805,328
2021-12-27 14:23:22.237813,328
2021-12-27 14:23:22.480381,323
2021-12-27 14:23:22.480397,304
2021-12-27 14:23:22.480403,263
2021-12-27 14:23:22.480408,198
2021-12-27 14:23:22.480413,115
2021-12-27 14:23:22.480417,33
2021-12-27 14:23:22.480422,-31
2021-12-27 14:23:22.480427,-81
2021-12-27 14:23:22.480431,-117
2021-12-27 14:23:22.480436,-139
2021-12-27 14:23:22.480440,-155
2021-12-27 14:23:22.480445,-155
2021-12-27 14:23:22.480449,-148
2021-12-27 14:23:22.480454,-143
2021-12-27 14:23:22.480458,-134
2021-12-27 14:23:22.480463,-119
2021-12-27 14:23:22.480467,-110
2021-12-27 14:23:22.480472,-103
2021-12-27 14:23:22.480476,-88
2021-12-27 14:23:22.480481,-71
2021-12-27 14:23:22.480485,-67
2021-12-27 14:23:22.480490,-62
2021-12-27 14:23:22.480494,-55
2021-12-27 14:23:22.480499,-47
2021-12-27 14:23:22.480503,-40
2021-12-27 14:23:22.480508,-38
2021-12-27 14:23:22.480512,-38
2021-12-27 14:23:22.480517,-38
2021-12-27 14:23:22.480522,-35
2021-12-27 14:23:22.480526,-31
2021-12-27 14:23:22.820438,-28
2021-12-27 14:23:22.820454,-23
2021-12-27 14:23:22.820460,-16
2021-12-27 14:23:22.820465,-19
2021-12-27 14:23:22.820470,-19
2021-12-27 14:23:22.820474,-14
2021-12-27 14:23:22.820479,-11
2021-12-27 14:23:22.820483,-11
2021-12-27 14:23:22.820488,-7
2021-12-27 14:23:22.820493,-2
2021-12-27 14:23:22.820497,2
2021-12-27 14:23:22.820502,2
2021-12-27 14:23:22.820507,-2
2021-12-27 14:23:22.820511,-2
2021-12-27 14:23:22.820516,7
2021-12-27 14:23:22.820521,19
2021-12-27 14:23:22.820525,21
2021-12-27 14:23:22.820530,21
2021-12-27 14:23:22.820534,21
2021-12-27 14:23:22.820539,26
2021-12-27 14:23:22.820543,35
2021-12-27 14:23:22.820548,33
2021-12-27 14:23:22.820553,28
2021-12-27 14:23:22.820557,28
2021-12-27 14:23:22.820562,28
2021-12-27 14:23:22.820566,45
2021-12-27 14:23:22.820571,81
2021-12-27 14:23:22.820575,103
2021-12-27 14:23:22.820580,93
2021-12-27 14:23:22.820584,79
2021-12-27 14:23:23.017097,71
2021-12-27 14:23:23.017125,59
2021-12-27 14:23:23.017133,45
2021-12-27 14:23:23.017141,38
2021-12-27 14:23:23.017148,38
2021-12-27 14:23:23.017155,38
2021-12-27 14:23:23.017162,35
2021-12-27 14:23:23.017169,33
2021-12-27 14:23:23.017176,33
2021-12-27 14:23:23.017183,33
2021-12-27 14:23:23.017190,33
2021-12-27 14:23:23.017197,31
2021-12-27 14:23:23.017204,11
2021-12-27 14:23:23.017211,-40
2021-12-27 14:23:23.017218,-69
2021-12-27 14:23:23.017225,150
2021-12-27 14:23:23.017233,850
2021-12-27 14:23:23.017240,1706
2021-12-27 14:23:23.017247,1704
2021-12-27 14:23:23.017254,608
2021-12-27 14:23:23.017261,-309
2021-12-27 14:23:23.017268,-371
2021-12-27 14:23:23.017275,-244
2021-12-27 14:23:23.017282,-232
2021-12-27 14:23:23.017289,-117
2021-12-27 14:23:23.017296,-7
2021-12-27 14:23:23.017303,-19
2021-12-27 14:23:23.017310,-26
2021-12-27 14:23:23.017317,16
2021-12-27 14:23:23.017324,33
2021-12-27 14:23:23.212415,38
2021-12-27 14:23:23.212443,59
2021-12-27 14:23:23.212452,76
2021-12-27 14:23:23.212459,83
2021-12-27 14:23:23.212466,103
2021-12-27 14:23:23.212473,127
2021-12-27 14:23:23.212480,150
2021-12-27 14:23:23.212488,174
2021-12-27 14:23:23.212495,201
2021-12-27 14:23:23.212501,222
2021-12-27 14:23:23.212508,249
2021-12-27 14:23:23.212515,275
2021-12-27 14:23:23.212522,294
2021-12-27 14:23:23.212529,304
2021-12-27 14:23:23.212536,306
2021-12-27 14:23:23.212543,297
2021-12-27 14:23:23.212550,278
2021-12-27 14:23:23.212557,256
2021-12-27 14:23:23.212564,215
2021-12-27 14:23:23.212571,148
2021-12-27 14:23:23.212577,69
2021-12-27 14:23:23.212584,-11
2021-12-27 14:23:23.212592,-83
2021-12-27 14:23:23.212599,-134
2021-12-27 14:23:23.212605,-162
2021-12-27 14:23:23.212612,-182
2021-12-27 14:23:23.212620,-189
2021-12-27 14:23:23.212627,-189
2021-12-27 14:23:23.212634,-184
2021-12-27 14:23:23.212641,-174
2021-12-27 14:23:23.456007,-162
2021-12-27 14:23:23.456029,-150
2021-12-27 14:23:23.456036,-141
2021-12-27 14:23:23.456042,-134
2021-12-27 14:23:23.456046,-131
2021-12-27 14:23:23.456051,-127
2021-12-27 14:23:23.456055,-117
2021-12-27 14:23:23.456060,-107
2021-12-27 14:23:23.456064,-103
2021-12-27 14:23:23.456069,-98
2021-12-27 14:23:23.456073,-95
2021-12-27 14:23:23.456078,-91
2021-12-27 14:23:23.456082,-88
2021-12-27 14:23:23.456087,-86
2021-12-27 14:23:23.456091,-81
2021-12-27 14:23:23.456096,-79
2021-12-27 14:23:23.456100,-76
2021-12-27 14:23:23.456105,-76
2021-12-27 14:23:23.456109,-76
2021-12-27 14:23:23.456114,-74
2021-12-27 14:23:23.456119,-71
2021-12-27 14:23:23.456123,-69
2021-12-27 14:23:23.456128,-67
2021-12-27 14:23:23.456132,-64
2021-12-27 14:23:23.456137,-64
2021-12-27 14:23:23.456141,-62
2021-12-27 14:23:23.456146,-59
2021-12-27 14:23:23.456150,-59
2021-12-27 14:23:23.456155,-57
2021-12-27 14:23:23.456159,-55
2021-12-27 14:23:23.699933,-55
2021-12-27 14:23:23.699988,-52
2021-12-27 14:23:23.699993,-50
2021-12-27 14:23:23.700013,-47
2021-12-27 14:23:23.700020,-45
2021-12-27 14:23:23.700027,-43
2021-12-27 14:23:23.700034,-43
2021-12-27 14:23:23.700041,-43
2021-12-27 14:23:23.700048,-45
2021-12-27 14:23:23.700055,-50
2021-12-27 14:23:23.700062,-52
2021-12-27 14:23:23.700069,-52
2021-12-27 14:23:23.700076,-47
2021-12-27 14:23:23.700083,-21
2021-12-27 14:23:23.700090,7
2021-12-27 14:23:23.700097,2
2021-12-27 14:23:23.700104,-16
2021-12-27 14:23:23.700111,-14
2021-12-27 14:23:23.700118,-16
2021-12-27 14:23:23.700124,-35
2021-12-27 14:23:23.700131,-45
2021-12-27 14:23:23.700138,-50
2021-12-27 14:23:23.700145,-52
2021-12-27 14:23:23.700152,-45
2021-12-27 14:23:23.700159,-43
2021-12-27 14:23:23.700165,-45
2021-12-27 14:23:23.700172,-47
2021-12-27 14:23:23.700180,-47
2021-12-27 14:23:23.700187,-47
2021-12-27 14:23:23.700194,-62
2021-12-27 14:23:23.846176,-107
2021-12-27 14:23:23.846204,-148
2021-12-27 14:23:23.846212,-21
2021-12-27 14:23:23.846220,522
2021-12-27 14:23:23.846227,1392
2021-12-27 14:23:23.846234,1766
2021-12-27 14:23:23.846241,1011
2021-12-27 14:23:23.846248,-64
2021-12-27 14:23:23.846255,-400
2021-12-27 14:23:23.846262,-282
2021-12-27 14:23:23.846269,-225
2021-12-27 14:23:23.846276,-146
2021-12-27 14:23:23.846283,-62
2021-12-27 14:23:23.846290,-69
2021-12-27 14:23:23.846298,-69
2021-12-27 14:23:23.846305,-33
2021-12-27 14:23:23.846312,-16
2021-12-27 14:23:23.846319,-7
2021-12-27 14:23:23.846326,19
2021-12-27 14:23:23.846333,40
2021-12-27 14:23:23.846340,52
2021-12-27 14:23:23.846347,69
2021-12-27 14:23:23.846354,93
2021-12-27 14:23:23.846361,119
2021-12-27 14:23:23.846368,146
2021-12-27 14:23:23.846375,177
2021-12-27 14:23:23.846382,203
2021-12-27 14:23:23.846389,232
2021-12-27 14:23:23.846396,261
2021-12-27 14:23:23.846403,289
2021-12-27 14:23:24.089847,311
2021-12-27 14:23:24.089875,321
2021-12-27 14:23:24.089883,321
2021-12-27 14:23:24.089891,309
2021-12-27 14:23:24.089898,285
2021-12-27 14:23:24.089905,251
2021-12-27 14:23:24.089912,196
2021-12-27 14:23:24.089919,117
2021-12-27 14:23:24.089926,35
2021-12-27 14:23:24.089933,-38
2021-12-27 14:23:24.089940,-98
2021-12-27 14:23:24.089947,-139
2021-12-27 14:23:24.089954,-160
2021-12-27 14:23:24.089961,-172
2021-12-27 14:23:24.089968,-182
2021-12-27 14:23:24.089974,-186
2021-12-27 14:23:24.089981,-182
2021-12-27 14:23:24.089988,-172
2021-12-27 14:23:24.089995,-165
2021-12-27 14:23:24.090002,-153
2021-12-27 14:23:24.090009,-141
2021-12-27 14:23:24.090016,-134
2021-12-27 14:23:24.090023,-127
2021-12-27 14:23:24.090030,-115
2021-12-27 14:23:24.090037,-105
2021-12-27 14:23:24.090044,-100
2021-12-27 14:23:24.090051,-93
2021-12-27 14:23:24.090058,-88
2021-12-27 14:23:24.090064,-83
2021-12-27 14:23:24.090071,-79
2021-12-27 14:23:24.333280,-74
2021-12-27 14:23:24.333309,-69
2021-12-27 14:23:24.333318,-64
2021-12-27 14:23:24.333325,-62
2021-12-27 14:23:24.333332,-62
2021-12-27 14:23:24.333339,-64
2021-12-27 14:23:24.333346,-62
2021-12-27 14:23:24.333354,-55
2021-12-27 14:23:24.333507,-52
2021-12-27 14:23:24.333515,-50
2021-12-27 14:23:24.333523,-47
2021-12-27 14:23:24.333530,-47
2021-12-27 14:23:24.333536,-50
2021-12-27 14:23:24.333543,-47
2021-12-27 14:23:24.333550,-43
2021-12-27 14:23:24.333557,-40
2021-12-27 14:23:24.333564,-38
2021-12-27 14:23:24.333571,-33
2021-12-27 14:23:24.333578,-33
2021-12-27 14:23:24.333585,-33
2021-12-27 14:23:24.333591,-31
2021-12-27 14:23:24.333598,-28
2021-12-27 14:23:24.333605,-26
2021-12-27 14:23:24.333612,-23
2021-12-27 14:23:24.333619,-23
2021-12-27 14:23:24.333626,-19
2021-12-27 14:23:24.333632,-14
2021-12-27 14:23:24.333639,-16
2021-12-27 14:23:24.333646,-16
2021-12-27 14:23:24.333653,-16
2021-12-27 14:23:24.577656,-19
2021-12-27 14:23:24.577685,-21
2021-12-27 14:23:24.577694,-23
2021-12-27 14:23:24.577701,-19
2021-12-27 14:23:24.577708,9
2021-12-27 14:23:24.577715,40
2021-12-27 14:23:24.577722,33
2021-12-27 14:23:24.577729,9
2021-12-27 14:23:24.577736,7
2021-12-27 14:23:24.577743,7
2021-12-27 14:23:24.577750,-7
2021-12-27 14:23:24.577757,-19
2021-12-27 14:23:24.577764,-23
2021-12-27 14:23:24.577771,-28
2021-12-27 14:23:24.577778,-26
2021-12-27 14:23:24.577785,-23
2021-12-27 14:23:24.577792,-21
2021-12-27 14:23:24.577799,-19
2021-12-27 14:23:24.577805,-14
2021-12-27 14:23:24.577812,-16
2021-12-27 14:23:24.577819,-35
2021-12-27 14:23:24.577826,-86
2021-12-27 14:23:24.577833,-127
2021-12-27 14:23:24.577840,0
2021-12-27 14:23:24.577847,534
2021-12-27 14:23:24.577854,1385
2021-12-27 14:23:24.577861,1747
2021-12-27 14:23:24.577868,994
2021-12-27 14:23:24.577876,-52
2021-12-27 14:23:24.577883,-364
2021-12-27 14:23:24.819351,-254
2021-12-27 14:23:24.819379,-201
2021-12-27 14:23:24.819388,-117
2021-12-27 14:23:24.819395,-31
2021-12-27 14:23:24.819402,-35
2021-12-27 14:23:24.819409,-33
2021-12-27 14:23:24.819416,7
2021-12-27 14:23:24.819424,21
2021-12-27 14:23:24.819431,23
2021-12-27 14:23:24.819438,45
2021-12-27 14:23:24.819445,69
2021-12-27 14:23:24.819452,88
2021-12-27 14:23:24.819458,112
2021-12-27 14:23:24.819465,139
2021-12-27 14:23:24.819472,160
2021-12-27 14:23:24.819479,177
2021-12-27 14:23:24.819486,206
2021-12-27 14:23:24.819493,242
2021-12-27 14:23:24.819500,275
2021-12-27 14:23:24.819507,306
2021-12-27 14:23:24.819514,330
2021-12-27 14:23:24.819521,347
2021-12-27 14:23:24.819528,357
2021-12-27 14:23:24.819534,354
2021-12-27 14:23:24.819541,345
2021-12-27 14:23:24.819548,330
2021-12-27 14:23:24.819555,306
2021-12-27 14:23:24.819562,254
2021-12-27 14:23:24.819569,174
2021-12-27 14:23:24.819576,93
2021-12-27 14:23:25.016221,21
2021-12-27 14:23:25.016251,-33
2021-12-27 14:23:25.016260,-74
2021-12-27 14:23:25.016267,-110
2021-12-27 14:23:25.016274,-129
2021-12-27 14:23:25.016281,-131
2021-12-27 14:23:25.016288,-127
2021-12-27 14:23:25.016295,-122
2021-12-27 14:23:25.016302,-112
2021-12-27 14:23:25.016309,-103
2021-12-27 14:23:25.016316,-95
2021-12-27 14:23:25.016323,-91
2021-12-27 14:23:25.016330,-81
2021-12-27 14:23:25.016337,-71
2021-12-27 14:23:25.016344,-64
2021-12-27 14:23:25.016351,-55
2021-12-27 14:23:25.016358,-50
2021-12-27 14:23:25.016365,-50
2021-12-27 14:23:25.016372,-40
2021-12-27 14:23:25.016379,-33
2021-12-27 14:23:25.016386,-28
2021-12-27 14:23:25.016393,-21
2021-12-27 14:23:25.016399,-19
2021-12-27 14:23:25.016406,-19
2021-12-27 14:23:25.016413,-19
2021-12-27 14:23:25.016420,-16
2021-12-27 14:23:25.016427,-26
2021-12-27 14:23:25.016433,-31
