Time,ECG
2021-12-27 14:58:07.011746,-2777
2021-12-27 14:58:07.011774,2801
2021-12-27 14:58:07.011784,-757
2021-12-27 14:58:07.011791,-7484
2021-12-27 14:58:07.011802,1136
2021-12-27 14:58:07.011810,577
2021-12-27 14:58:07.011816,3635
2021-12-27 14:58:07.011823,-5799
2021-12-27 14:58:07.011830,-4237
2021-12-27 14:58:07.011838,-4162
2021-12-27 14:58:07.011844,361
2021-12-27 14:58:07.011851,2914
2021-12-27 14:58:07.011858,-6159
2021-12-27 14:58:07.011865,1485
2021-12-27 14:58:07.011872,-45
2021-12-27 14:58:07.011879,-4405
2021-12-27 14:58:07.011889,-788
2021-12-27 14:58:07.011896,172
2021-12-27 14:58:07.011903,3149
2021-12-27 14:58:07.011910,-4915
2021-12-27 14:58:07.011917,2379
2021-12-27 14:58:07.011924,762
2021-12-27 14:58:07.011931,-2863
2021-12-27 14:58:07.011938,680
2021-12-27 14:58:07.011945,-3877
2021-12-27 14:58:07.011952,-661
2021-12-27 14:58:07.011960,-4268
2021-12-27 14:58:07.011967,-2816
2021-12-27 14:58:07.256029,-1639
2021-12-27 14:58:07.256050,-857
2021-12-27 14:58:07.256059,2715
2021-12-27 14:58:07.256066,-6550
2021-12-27 14:58:07.256073,807
2021-12-27 14:58:07.256080,2104
2021-12-27 14:58:07.256087,934
2021-12-27 14:58:07.256094,3892
2021-12-27 14:58:07.256103,-3165
2021-12-27 14:58:07.256110,802
2021-12-27 14:58:07.256117,-1414
2021-12-27 14:58:07.256124,-2348
2021-12-27 14:58:07.256134,-4342
2021-12-27 14:58:07.256141,-1624
2021-12-27 14:58:07.256148,4922
2021-12-27 14:58:07.256155,-3729
2021-12-27 14:58:07.256162,3070
2021-12-27 14:58:07.256169,1723
2021-12-27 14:58:07.256176,-1447
2021-12-27 14:58:07.256183,3580
2021-12-27 14:58:07.256190,-1998
2021-12-27 14:58:07.256197,2192
2021-12-27 14:58:07.256204,1325
2021-12-27 14:58:07.256211,-1713
2021-12-27 14:58:07.256218,3513
2021-12-27 14:58:07.256225,-5143
2021-12-27 14:58:07.256232,-800
2021-12-27 14:58:07.256239,2494
2021-12-27 14:58:07.499001,-6089
2021-12-27 14:58:07.499021,1763
2021-12-27 14:58:07.499026,-2029
2021-12-27 14:58:07.499033,-3101
2021-12-27 14:58:07.499039,-4615
2021-12-27 14:58:07.499043,-3877
2021-12-27 14:58:07.499047,-345
2021-12-27 14:58:07.499050,-1545
2021-12-27 14:58:07.499054,3745
2021-12-27 14:58:07.499058,-1668
2021-12-27 14:58:07.499061,1363
2021-12-27 14:58:07.499065,1284
2021-12-27 14:58:07.499068,-6288
2021-12-27 14:58:07.499072,4419
2021-12-27 14:58:07.499076,1258
2021-12-27 14:58:07.499079,-1363
2021-12-27 14:58:07.499085,-2667
2021-12-27 14:58:07.499092,814
2021-12-27 14:58:07.499096,2554
2021-12-27 14:58:07.499099,-1682
2021-12-27 14:58:07.499105,-1902
2021-12-27 14:58:07.499108,-2152
2021-12-27 14:58:07.499112,2202
2021-12-27 14:58:07.499116,-3506
2021-12-27 14:58:07.499119,3197
2021-12-27 14:58:07.499123,-951
2021-12-27 14:58:07.499127,-3671
2021-12-27 14:58:07.693982,4419
2021-12-27 14:58:07.694003,-2346
2021-12-27 14:58:07.694008,-242
2021-12-27 14:58:07.694012,-2118
2021-12-27 14:58:07.694016,-6284
2021-12-27 14:58:07.694021,680
2021-12-27 14:58:07.694030,-3228
2021-12-27 14:58:07.694034,-3082
2021-12-27 14:58:07.694038,-5505
2021-12-27 14:58:07.694043,-1073
2021-12-27 14:58:07.694046,-3645
2021-12-27 14:58:07.694050,3976
2021-12-27 14:58:07.694054,-7022
2021-12-27 14:58:07.694057,-1982
2021-12-27 14:58:07.694061,4280
2021-12-27 14:58:07.694065,-951
2021-12-27 14:58:07.694068,4150
2021-12-27 14:58:07.694072,-1131
2021-12-27 14:58:07.694076,-1804
2021-12-27 14:58:07.694080,1104
2021-12-27 14:58:07.694084,-1660
2021-12-27 14:58:07.694089,908
2021-12-27 14:58:07.694092,-1061
2021-12-27 14:58:07.694096,4414
2021-12-27 14:58:07.694101,-4153
2021-12-27 14:58:07.694105,3041
2021-12-27 14:58:07.694109,4596
2021-12-27 14:58:07.937950,-4560
2021-12-27 14:58:07.937980,1275
2021-12-27 14:58:07.937986,-3652
2021-12-27 14:58:07.937991,-4539
2021-12-27 14:58:07.937996,1517
2021-12-27 14:58:07.938001,83
2021-12-27 14:58:07.938008,594
2021-12-27 14:58:07.938013,-2080
2021-12-27 14:58:07.938018,1737
2021-12-27 14:58:07.938022,-4953
2021-12-27 14:58:07.938027,4381
2021-12-27 14:58:07.938034,-2521
2021-12-27 14:58:07.938045,-1579
2021-12-27 14:58:07.938051,-606
2021-12-27 14:58:07.938057,-965
2021-12-27 14:58:07.938062,4685
2021-12-27 14:58:07.938067,1136
2021-12-27 14:58:07.938079,-2123
2021-12-27 14:58:07.938083,4484
2021-12-27 14:58:07.938088,-1423
2021-12-27 14:58:07.938093,3813
2021-12-27 14:58:07.938098,3918
2021-12-27 14:58:07.938102,-2796
2021-12-27 14:58:07.938110,4503
2021-12-27 14:58:07.938116,-608
2021-12-27 14:58:07.938120,539
2021-12-27 14:58:08.181491,4402
2021-12-27 14:58:08.181522,-4450
2021-12-27 14:58:08.181530,-417
2021-12-27 14:58:08.181537,-3036
2021-12-27 14:58:08.181543,-4874
2021-12-27 14:58:08.181548,591
2021-12-27 14:58:08.181552,-3304
2021-12-27 14:58:08.181557,4258
2021-12-27 14:58:08.181562,-594
2021-12-27 14:58:08.181579,-10087
2021-12-27 14:58:08.181586,2777
2021-12-27 14:58:08.181593,-1030
2021-12-27 14:58:08.181600,-2106
2021-12-27 14:58:08.181612,-1895
2021-12-27 14:58:08.181620,1581
2021-12-27 14:58:08.181628,-982
2021-12-27 14:58:08.181635,-3556
2021-12-27 14:58:08.181643,1890
2021-12-27 14:58:08.181650,-4148
2021-12-27 14:58:08.181658,1239
2021-12-27 14:58:08.181666,1893
2021-12-27 14:58:08.181674,-2739
2021-12-27 14:58:08.181683,4723
2021-12-27 14:58:08.181690,-1955
2021-12-27 14:58:08.181696,-14
2021-12-27 14:58:08.181703,4742
2021-12-27 14:58:08.181709,-3429
2021-12-27 14:58:08.181717,4158
2021-12-27 14:58:08.181723,1677
2021-12-27 14:58:08.521753,-2928
2021-12-27 14:58:08.521781,4460
2021-12-27 14:58:08.521790,-1787
2021-12-27 14:58:08.521797,1313
2021-12-27 14:58:08.521804,1747
2021-12-27 14:58:08.521811,-5109
2021-12-27 14:58:08.521817,699
2021-12-27 14:58:08.521825,-3693
2021-12-27 14:58:08.521832,-9
2021-12-27 14:58:08.521872,4881
2021-12-27 14:58:08.521880,-2461
2021-12-27 14:58:08.521887,4917
2021-12-27 14:58:08.521894,-155
2021-12-27 14:58:08.521901,-5730
2021-12-27 14:58:08.521908,3995
2021-12-27 14:58:08.521915,-508
2021-12-27 14:58:08.521921,2710
2021-12-27 14:58:08.521928,3930
2021-12-27 14:58:08.521935,-2121
2021-12-27 14:58:08.521942,3642
2021-12-27 14:58:08.521949,-1663
2021-12-27 14:58:08.521956,733
2021-12-27 14:58:08.521966,-1766
2021-12-27 14:58:08.521973,4503
2021-12-27 14:58:08.521980,1277
2021-12-27 14:58:08.521987,-3096
2021-12-27 14:58:08.521994,4802
2021-12-27 14:58:08.522001,-352
2021-12-27 14:58:08.522008,3228
2021-12-27 14:58:08.620393,3813
2021-12-27 14:58:08.620412,-2998
2021-12-27 14:58:08.620417,2713
2021-12-27 14:58:08.620422,-1334
2021-12-27 14:58:08.620426,1759
2021-12-27 14:58:08.620432,-4707
2021-12-27 14:58:08.620436,-829
2021-12-27 14:58:08.620440,-2863
2021-12-27 14:58:08.620448,-3223
2021-12-27 14:58:08.620454,-524
2021-12-27 14:58:08.620458,2264
2021-12-27 14:58:08.620462,2118
2021-12-27 14:58:08.620466,-9188
2021-12-27 14:58:08.620469,-1102
2021-12-27 14:58:08.620473,2128
2021-12-27 14:58:08.620477,2852
2021-12-27 14:58:08.620481,3705
2021-12-27 14:58:08.620484,-3650
2021-12-27 14:58:08.620488,-1747
2021-12-27 14:58:08.620492,-6377
2021-12-27 14:58:08.620495,-2113
2021-12-27 14:58:08.620500,-2494
2021-12-27 14:58:08.620504,1404
2021-12-27 14:58:08.620507,3391
2021-12-27 14:58:08.620511,-4872
2021-12-27 14:58:08.620515,3860
2021-12-27 14:58:08.620518,1385
2021-12-27 14:58:08.864353,699
2021-12-27 14:58:08.864382,4546
2021-12-27 14:58:08.864391,-3817
2021-12-27 14:58:08.864399,-1536
2021-12-27 14:58:08.864406,-4385
2021-12-27 14:58:08.864413,-3527
2021-12-27 14:58:08.864420,4661
2021-12-27 14:58:08.864427,-4886
2021-12-27 14:58:08.864433,-4285
2021-12-27 14:58:08.864440,-4198
2021-12-27 14:58:08.864447,-7762
2021-12-27 14:58:08.864454,4273
2021-12-27 14:58:08.864461,668
2021-12-27 14:58:08.864476,-618
2021-12-27 14:58:08.864483,3731
2021-12-27 14:58:08.864490,-3916
2021-12-27 14:58:08.864497,1696
2021-12-27 14:58:08.864504,975
2021-12-27 14:58:08.864511,-690
2021-12-27 14:58:08.864521,-2569
2021-12-27 14:58:08.864528,961
2021-12-27 14:58:08.864535,3357
2021-12-27 14:58:08.864542,-2832
2021-12-27 14:58:08.864553,735
2021-12-27 14:58:08.864560,-853
2021-12-27 14:58:08.864567,3815
2021-12-27 14:58:08.864574,-2696
2021-12-27 14:58:08.864581,2842
2021-12-27 14:58:09.156958,1749
2021-12-27 14:58:09.156986,-484
2021-12-27 14:58:09.156999,-2482
2021-12-27 14:58:09.157006,1507
2021-12-27 14:58:09.157014,1128
2021-12-27 14:58:09.157021,-5260
2021-12-27 14:58:09.157031,867
2021-12-27 14:58:09.157038,-1627
2021-12-27 14:58:09.157045,3578
2021-12-27 14:58:09.157052,-7813
2021-12-27 14:58:09.157059,-2619
2021-12-27 14:58:09.157066,3007
2021-12-27 14:58:09.157073,-174
2021-12-27 14:58:09.157080,3127
2021-12-27 14:58:09.157087,-1025
2021-12-27 14:58:09.157094,2890
2021-12-27 14:58:09.157101,1984
2021-12-27 14:58:09.157108,-3860
2021-12-27 14:58:09.157115,647
2021-12-27 14:58:09.157122,-6430
2021-12-27 14:58:09.157129,551
2021-12-27 14:58:09.157143,-4522
2021-12-27 14:58:09.157150,2521
2021-12-27 14:58:09.157157,3417
2021-12-27 14:58:09.157164,-1919
2021-12-27 14:58:09.157175,-160
2021-12-27 14:58:09.400329,1028
2021-12-27 14:58:09.400351,2274
2021-12-27 14:58:09.400357,-2919
2021-12-27 14:58:09.400362,4596
2021-12-27 14:58:09.400366,639
2021-12-27 14:58:09.400371,958
2021-12-27 14:58:09.400375,3225
2021-12-27 14:58:09.400380,-8961
2021-12-27 14:58:09.400384,-1926
2021-12-27 14:58:09.400389,2248
2021-12-27 14:58:09.400393,-671
2021-12-27 14:58:09.400398,4685
2021-12-27 14:58:09.400402,-3324
2021-12-27 14:58:09.400407,-1938
2021-12-27 14:58:09.400411,1600
2021-12-27 14:58:09.400416,-2077
2021-12-27 14:58:09.400423,369
2021-12-27 14:58:09.400427,-81
2021-12-27 14:58:09.400432,3026
2021-12-27 14:58:09.400436,-6629
2021-12-27 14:58:09.400440,1852
2021-12-27 14:58:09.400445,2133
2021-12-27 14:58:09.400449,-3911
2021-12-27 14:58:09.400454,3535
2021-12-27 14:58:09.400458,-4287
2021-12-27 14:58:09.400462,-4122
2021-12-27 14:58:09.400467,1224
2021-12-27 14:58:09.400471,-1449
2021-12-27 14:58:09.400476,4577
2021-12-27 14:58:09.546117,-651
2021-12-27 14:58:09.546140,-783
2021-12-27 14:58:09.546146,2612
2021-12-27 14:58:09.546150,-5076
2021-12-27 14:58:09.546155,3856
2021-12-27 14:58:09.546159,3185
2021-12-27 14:58:09.546168,-2281
2021-12-27 14:58:09.546173,4910
2021-12-27 14:58:09.546177,-5461
2021-12-27 14:58:09.546182,-5169
2021-12-27 14:58:09.546186,3714
2021-12-27 14:58:09.546191,275
2021-12-27 14:58:09.546195,4165
2021-12-27 14:58:09.546200,-208
2021-12-27 14:58:09.546204,-2358
2021-12-27 14:58:09.546209,88
2021-12-27 14:58:09.546213,-3470
2021-12-27 14:58:09.546220,2609
2021-12-27 14:58:09.546225,-2331
2021-12-27 14:58:09.546229,4613
2021-12-27 14:58:09.546233,-5440
2021-12-27 14:58:09.546238,-1831
2021-12-27 14:58:09.546245,-1020
2021-12-27 14:58:09.546249,3606
2021-12-27 14:58:09.546254,-4261
2021-12-27 14:58:09.546258,-8556
2021-12-27 14:58:09.546263,2559
2021-12-27 14:58:09.546267,745
2021-12-27 14:58:09.790371,3834
2021-12-27 14:58:09.790391,1622
2021-12-27 14:58:09.790396,-2125
2021-12-27 14:58:09.790400,2849
2021-12-27 14:58:09.790404,-4747
2021-12-27 14:58:09.790407,810
2021-12-27 14:58:09.790413,-2049
2021-12-27 14:58:09.790416,3911
2021-12-27 14:58:09.790420,-1040
2021-12-27 14:58:09.790424,-4601
2021-12-27 14:58:09.790428,1591
2021-12-27 14:58:09.790432,-726
2021-12-27 14:58:09.790438,1246
2021-12-27 14:58:09.790441,-2602
2021-12-27 14:58:09.790447,-3475
2021-12-27 14:58:09.790450,357
2021-12-27 14:58:09.790456,-2988
2021-12-27 14:58:09.790459,3180
2021-12-27 14:58:09.790463,671
2021-12-27 14:58:09.790467,-1294
2021-12-27 14:58:09.790470,4539
2021-12-27 14:58:09.790474,-1133
2021-12-27 14:58:09.790478,2943
2021-12-27 14:58:09.790488,1318
2021-12-27 14:58:09.790492,-1517
2021-12-27 14:58:10.034392,-2111
2021-12-27 14:58:10.034420,2003
2021-12-27 14:58:10.034429,4498
2021-12-27 14:58:10.034437,-3606
2021-12-27 14:58:10.034444,4877
2021-12-27 14:58:10.034451,-1157
2021-12-27 14:58:10.034457,-5344
2021-12-27 14:58:10.034464,4596
2021-12-27 14:58:10.034471,-958
2021-12-27 14:58:10.034478,1605
2021-12-27 14:58:10.034485,2485
2021-12-27 14:58:10.034491,-2775
2021-12-27 14:58:10.034498,50
2021-12-27 14:58:10.034505,-3760
2021-12-27 14:58:10.034512,2504
2021-12-27 14:58:10.034519,3594
2021-12-27 14:58:10.034525,-3094
2021-12-27 14:58:10.034536,-301
2021-12-27 14:58:10.034543,-4675
2021-12-27 14:58:10.034550,3218
2021-12-27 14:58:10.034557,-1414
2021-12-27 14:58:10.034563,3635
2021-12-27 14:58:10.034570,2667
2021-12-27 14:58:10.034577,-3050
2021-12-27 14:58:10.034584,3400
2021-12-27 14:58:10.034591,-1672
2021-12-27 14:58:10.034598,1263
2021-12-27 14:58:10.034604,4505
2021-12-27 14:58:10.034611,-1905
2021-12-27 14:58:10.229368,4778
2021-12-27 14:58:10.229395,-3043
2021-12-27 14:58:10.229404,-8388
2021-12-27 14:58:10.229411,2667
2021-12-27 14:58:10.229418,596
2021-12-27 14:58:10.229425,3405
2021-12-27 14:58:10.229432,896
2021-12-27 14:58:10.229439,-6092
2021-12-27 14:58:10.229446,-21
2021-12-27 14:58:10.229452,-1421
2021-12-27 14:58:10.229459,3247
2021-12-27 14:58:10.229466,4242
2021-12-27 14:58:10.229473,-2887
2021-12-27 14:58:10.229480,2533
2021-12-27 14:58:10.229486,-4230
2021-12-27 14:58:10.229493,-2576
2021-12-27 14:58:10.229504,-1665
2021-12-27 14:58:10.229511,2552
2021-12-27 14:58:10.229518,3458
2021-12-27 14:58:10.229525,-4455
2021-12-27 14:58:10.229537,-43
2021-12-27 14:58:10.229544,-2058
2021-12-27 14:58:10.229551,3297
2021-12-27 14:58:10.229558,4589
2021-12-27 14:58:10.229565,-3626
2021-12-27 14:58:10.229572,2346
2021-12-27 14:58:10.229578,-1617
2021-12-27 14:58:10.229585,-237
2021-12-27 14:58:10.520512,-2250
2021-12-27 14:58:10.520539,2729
2021-12-27 14:58:10.520548,-26
2021-12-27 14:58:10.520556,-7832
2021-12-27 14:58:10.520563,4493
2021-12-27 14:58:10.520569,1725
2021-12-27 14:58:10.520576,721
2021-12-27 14:58:10.520583,3820
2021-12-27 14:58:10.520590,-4905
2021-12-27 14:58:10.520597,-2149
2021-12-27 14:58:10.520604,-1845
2021-12-27 14:58:10.520611,1809
2021-12-27 14:58:10.520621,-3156
2021-12-27 14:58:10.520628,2164
2021-12-27 14:58:10.520635,932
2021-12-27 14:58:10.520642,-3393
2021-12-27 14:58:10.520652,-40
2021-12-27 14:58:10.520659,596
2021-12-27 14:58:10.520665,3882
2021-12-27 14:58:10.520672,-4484
2021-12-27 14:58:10.520679,1375
2021-12-27 14:58:10.520686,-1356
2021-12-27 14:58:10.520693,-1624
2021-12-27 14:58:10.520703,-2746
2021-12-27 14:58:10.520710,730
2021-12-27 14:58:10.520716,1931
2021-12-27 14:58:10.520723,-2049
2021-12-27 14:58:10.716904,-639
2021-12-27 14:58:10.716917,-532
2021-12-27 14:58:10.716922,2099
2021-12-27 14:58:10.716926,-6631
2021-12-27 14:58:10.716931,9
2021-12-27 14:58:10.716935,-1143
2021-12-27 14:58:10.716940,-6528
2021-12-27 14:58:10.716944,-836
2021-12-27 14:58:10.716949,-1423
2021-12-27 14:58:10.716953,1485
2021-12-27 14:58:10.716958,-3264
2021-12-27 14:58:10.716962,-3187
2021-12-27 14:58:10.716969,-1986
2021-12-27 14:58:10.716974,-1040
2021-12-27 14:58:10.716981,-3276
2021-12-27 14:58:10.716985,3130
2021-12-27 14:58:10.716990,1984
2021-12-27 14:58:10.716994,-1471
2021-12-27 14:58:10.716999,3820
2021-12-27 14:58:10.717003,-1737
2021-12-27 14:58:10.717008,1938
2021-12-27 14:58:10.717012,-112
2021-12-27 14:58:10.717028,-5471
2021-12-27 14:58:10.717032,2991
2021-12-27 14:58:10.717037,-1279
2021-12-27 14:58:10.717042,1310
2021-12-27 14:58:10.717046,4285
2021-12-27 14:58:10.960712,-3798
2021-12-27 14:58:10.960732,4206
2021-12-27 14:58:10.960738,1191
2021-12-27 14:58:10.960742,-2221
2021-12-27 14:58:10.960750,-3014
2021-12-27 14:58:10.960754,-3264
2021-12-27 14:58:10.960759,-738
2021-12-27 14:58:10.960763,-1241
2021-12-27 14:58:10.960768,4937
2021-12-27 14:58:10.960773,-1370
2021-12-27 14:58:10.960777,1284
2021-12-27 14:58:10.960782,2518
2021-12-27 14:58:10.960787,-6202
2021-12-27 14:58:10.960791,3623
2021-12-27 14:58:10.960796,1646
2021-12-27 14:58:10.960800,-1469
2021-12-27 14:58:10.960807,-2585
2021-12-27 14:58:10.960812,215
2021-12-27 14:58:10.960816,2288
2021-12-27 14:58:10.960821,-2118
2021-12-27 14:58:10.960828,-16
2021-12-27 14:58:10.960832,340
2021-12-27 14:58:10.960837,3113
2021-12-27 14:58:10.960841,-5902
2021-12-27 14:58:10.960846,-589
2021-12-27 14:58:10.960850,-402
2021-12-27 14:58:10.960855,421
2021-12-27 14:58:11.155636,-3901
2021-12-27 14:58:11.155657,50
2021-12-27 14:58:11.155665,2250
2021-12-27 14:58:11.155672,-1624
2021-12-27 14:58:11.155682,-536
2021-12-27 14:58:11.155689,-2427
2021-12-27 14:58:11.155696,-1370
2021-12-27 14:58:11.155703,-4879
2021-12-27 14:58:11.155713,1840
2021-12-27 14:58:11.155720,-4155
2021-12-27 14:58:11.155727,-1675
2021-12-27 14:58:11.155734,-10986
2021-12-27 14:58:11.155741,-857
2021-12-27 14:58:11.155751,-1934
2021-12-27 14:58:11.155758,4364
2021-12-27 14:58:11.155765,-38
2021-12-27 14:58:11.155772,-2085
2021-12-27 14:58:11.155779,1140
2021-12-27 14:58:11.155786,-1684
2021-12-27 14:58:11.155796,1066
2021-12-27 14:58:11.155803,-1320
2021-12-27 14:58:11.155810,4685
2021-12-27 14:58:11.155817,-4026
2021-12-27 14:58:11.155824,1023
2021-12-27 14:58:11.155831,1730
2021-12-27 14:58:11.399069,-4189
2021-12-27 14:58:11.399102,-2315
2021-12-27 14:58:11.399110,-7168
2021-12-27 14:58:11.399117,841
2021-12-27 14:58:11.399124,148
2021-12-27 14:58:11.399134,258
2021-12-27 14:58:11.399141,-2387
2021-12-27 14:58:11.399157,1651
2021-12-27 14:58:11.399165,-5696
2021-12-27 14:58:11.399171,3041
2021-12-27 14:58:11.399182,-3079
2021-12-27 14:58:11.399188,4172
2021-12-27 14:58:11.399195,-1704
2021-12-27 14:58:11.399202,-1567
2021-12-27 14:58:11.399209,4898
2021-12-27 14:58:11.399216,-1430
2021-12-27 14:58:11.399223,3978
2021-12-27 14:58:11.399230,901
2021-12-27 14:58:11.399237,-3599
2021-12-27 14:58:11.399244,1514
2021-12-27 14:58:11.399250,-3920
2021-12-27 14:58:11.399257,2816
2021-12-27 14:58:11.399264,3460
2021-12-27 14:58:11.399271,-4400
2021-12-27 14:58:11.399278,3443
2021-12-27 14:58:11.399285,-1028
2021-12-27 14:58:11.399292,-1011
2021-12-27 14:58:11.643077,3441
2021-12-27 14:58:11.643103,-5392
2021-12-27 14:58:11.643112,107
2021-12-27 14:58:11.643119,627
2021-12-27 14:58:11.643126,-3616
2021-12-27 14:58:11.643133,-663
2021-12-27 14:58:11.643140,-5104
2021-12-27 14:58:11.643147,925
2021-12-27 14:58:11.643153,2
2021-12-27 14:58:11.643160,-6631
2021-12-27 14:58:11.643167,1011
2021-12-27 14:58:11.643174,-4817
2021-12-27 14:58:11.643180,-3235
2021-12-27 14:58:11.643187,4534
2021-12-27 14:58:11.643194,-3482
2021-12-27 14:58:11.643201,1263
2021-12-27 14:58:11.643208,1200
2021-12-27 14:58:11.643215,-2672
2021-12-27 14:58:11.643221,1481
2021-12-27 14:58:11.643228,-7271
2021-12-27 14:58:11.643235,-3920
2021-12-27 14:58:11.643242,2231
2021-12-27 14:58:11.643249,-783
2021-12-27 14:58:11.643256,3971
2021-12-27 14:58:11.643262,-1929
2021-12-27 14:58:11.643269,232
2021-12-27 14:58:11.643276,4893
2021-12-27 14:58:11.643283,-3458
2021-12-27 14:58:11.643290,4079
2021-12-27 14:58:11.643297,2250
2021-12-27 14:58:11.886677,-3168
2021-12-27 14:58:11.886699,4201
2021-12-27 14:58:11.886705,-3031
2021-12-27 14:58:11.886710,-2828
2021-12-27 14:58:11.886714,944
2021-12-27 14:58:11.886719,-834
2021-12-27 14:58:11.886723,2255
2021-12-27 14:58:11.886728,-5917
2021-12-27 14:58:11.886732,-637
2021-12-27 14:58:11.886739,-2907
2021-12-27 14:58:11.886744,4313
2021-12-27 14:58:11.886748,795
2021-12-27 14:58:11.886753,-6413
2021-12-27 14:58:11.886757,2969
2021-12-27 14:58:11.886762,-162
2021-12-27 14:58:11.886766,2626
2021-12-27 14:58:11.886771,3846
2021-12-27 14:58:11.886775,-2192
2021-12-27 14:58:11.886780,3659
2021-12-27 14:58:11.886784,-1787
2021-12-27 14:58:11.886789,14
2021-12-27 14:58:11.886796,-1828
2021-12-27 14:58:11.886807,4021
2021-12-27 14:58:11.886812,1541
2021-12-27 14:58:11.886816,-3904
2021-12-27 14:58:11.886821,4088
2021-12-27 14:58:11.886825,-186
2021-12-27 14:58:11.886830,2909
2021-12-27 14:58:12.081296,3880
2021-12-27 14:58:12.081313,-3074
2021-12-27 14:58:12.081319,2492
2021-12-27 14:58:12.081324,-1490
2021-12-27 14:58:12.081328,134
2021-12-27 14:58:12.081333,3014
2021-12-27 14:58:12.081337,-4704
2021-12-27 14:58:12.081342,3968
2021-12-27 14:58:12.081346,-637
2021-12-27 14:58:12.081351,-6171
2021-12-27 14:58:12.081358,759
2021-12-27 14:58:12.081363,1133
2021-12-27 14:58:12.081367,3386
2021-12-27 14:58:12.081372,-6554
2021-12-27 14:58:12.081376,-2087
2021-12-27 14:58:12.081381,227
2021-12-27 14:58:12.081386,3062
2021-12-27 14:58:12.081390,4424
2021-12-27 14:58:12.081395,-2830
2021-12-27 14:58:12.081399,2835
2021-12-27 14:58:12.081404,-841
2021-12-27 14:58:12.081408,-2147
2021-12-27 14:58:12.081415,-3767
2021-12-27 14:58:12.081420,-5936
2021-12-27 14:58:12.081424,-1315
2021-12-27 14:58:12.081429,-2478
2021-12-27 14:58:12.081433,4877
2021-12-27 14:58:12.081438,7
2021-12-27 14:58:12.326032,831
2021-12-27 14:58:12.326065,-3777
2021-12-27 14:58:12.326072,-903
2021-12-27 14:58:12.326080,-2109
2021-12-27 14:58:12.326087,-1279
2021-12-27 14:58:12.326097,-4551
2021-12-27 14:58:12.326104,-1845
2021-12-27 14:58:12.326111,2116
2021-12-27 14:58:12.326118,-5924
2021-12-27 14:58:12.326124,2756
2021-12-27 14:58:12.326131,2123
2021-12-27 14:58:12.326138,613
2021-12-27 14:58:12.326145,3858
2021-12-27 14:58:12.326152,-4086
2021-12-27 14:58:12.326158,-155
2021-12-27 14:58:12.326165,-946
2021-12-27 14:58:12.326172,-1121
2021-12-27 14:58:12.326182,-3269
2021-12-27 14:58:12.326189,-105
2021-12-27 14:58:12.326196,3710
2021-12-27 14:58:12.326202,-3348
2021-12-27 14:58:12.326209,4445
2021-12-27 14:58:12.326216,956
2021-12-27 14:58:12.326223,-1370
2021-12-27 14:58:12.326230,3678
2021-12-27 14:58:12.326236,-2686
2021-12-27 14:58:12.326243,2149
2021-12-27 14:58:12.617232,678
2021-12-27 14:58:12.617260,-3923
2021-12-27 14:58:12.617268,1919
2021-12-27 14:58:12.617276,-4651
2021-12-27 14:58:12.617283,-2185
2021-12-27 14:58:12.617289,-618
2021-12-27 14:58:12.617296,-5804
2021-12-27 14:58:12.617303,4381
2021-12-27 14:58:12.617310,-1495
2021-12-27 14:58:12.617317,-6394
2021-12-27 14:58:12.617323,1399
2021-12-27 14:58:12.617330,-4515
2021-12-27 14:58:12.617337,-2001
2021-12-27 14:58:12.617344,359
2021-12-27 14:58:12.617350,-869
2021-12-27 14:58:12.617357,3705
2021-12-27 14:58:12.617364,-1811
2021-12-27 14:58:12.617370,1922
2021-12-27 14:58:12.617377,2351
2021-12-27 14:58:12.617384,-3611
2021-12-27 14:58:12.617396,4973
2021-12-27 14:58:12.617403,-146
2021-12-27 14:58:12.617410,-469
2021-12-27 14:58:12.617420,-3355
2021-12-27 14:58:12.617427,1941
2021-12-27 14:58:12.617434,2605
2021-12-27 14:58:12.617441,-1967
2021-12-27 14:58:12.617451,-280
2021-12-27 14:58:12.813032,-1076
2021-12-27 14:58:12.813050,-2185
2021-12-27 14:58:12.813056,-6046
2021-12-27 14:58:12.813063,1354
2021-12-27 14:58:12.813068,-503
2021-12-27 14:58:12.813072,4347
2021-12-27 14:58:12.813076,-5965
2021-12-27 14:58:12.813081,-141
2021-12-27 14:58:12.813085,2981
2021-12-27 14:58:12.813090,-1670
2021-12-27 14:58:12.813095,2346
2021-12-27 14:58:12.813099,-4330
2021-12-27 14:58:12.813104,-2470
2021-12-27 14:58:12.813108,-671
2021-12-27 14:58:12.813113,-2988
2021-12-27 14:58:12.813119,405
2021-12-27 14:58:12.813124,-553
2021-12-27 14:58:12.813131,-4081
2021-12-27 14:58:12.813135,2008
2021-12-27 14:58:12.813140,4088
2021-12-27 14:58:12.813144,-961
2021-12-27 14:58:12.813151,-2144
2021-12-27 14:58:12.813155,-3913
2021-12-27 14:58:12.813160,155
2021-12-27 14:58:12.813164,-1121
2021-12-27 14:58:13.008326,-230
2021-12-27 14:58:13.008345,-893
2021-12-27 14:58:13.008351,3604
2021-12-27 14:58:13.008356,-4781
2021-12-27 14:58:13.008360,3520
2021-12-27 14:58:13.008365,4035
2021-12-27 14:58:13.008370,-2267
2021-12-27 14:58:13.008377,-4508
2021-12-27 14:58:13.008381,-5596
2021-12-27 14:58:13.008386,2633
2021-12-27 14:58:13.008390,-2298
2021-12-27 14:58:13.008395,910
2021-12-27 14:58:13.008402,-4162
2021-12-27 14:58:13.008410,-8266
2021-12-27 14:58:13.008418,-2837
2021-12-27 14:58:13.008423,-4258
2021-12-27 14:58:13.008428,4268
2021-12-27 14:58:13.008433,2080
2021-12-27 14:58:13.008437,-3142
2021-12-27 14:58:13.008442,4431
2021-12-27 14:58:13.008446,-3379
2021-12-27 14:58:13.008451,-603
2021-12-27 14:58:13.008458,-2008
2021-12-27 14:58:13.008462,4069
2021-12-27 14:58:13.008467,167
2021-12-27 14:58:13.008472,-2770
2021-12-27 14:58:13.008477,3467
2021-12-27 14:58:13.008481,-1591
2021-12-27 14:58:13.252124,3935
2021-12-27 14:58:13.252152,2607
2021-12-27 14:58:13.252161,-3312
2021-12-27 14:58:13.252168,2744
2021-12-27 14:58:13.252175,-4373
2021-12-27 14:58:13.252182,-2106
2021-12-27 14:58:13.252189,898
2021-12-27 14:58:13.252196,-5864
2021-12-27 14:58:13.252202,4083
2021-12-27 14:58:13.252209,417
2021-12-27 14:58:13.252216,-5548
2021-12-27 14:58:13.252223,1102
2021-12-27 14:58:13.252230,-649
2021-12-27 14:58:13.252237,4817
2021-12-27 14:58:13.252244,704
2021-12-27 14:58:13.252251,-6152
2021-12-27 14:58:13.252258,2413
2021-12-27 14:58:13.252265,-1028
2021-12-27 14:58:13.252272,1967
2021-12-27 14:58:13.252279,4915
2021-12-27 14:58:13.252285,-3146
2021-12-27 14:58:13.252292,3877
2021-12-27 14:58:13.252299,1239
2021-12-27 14:58:13.252306,-1524
2021-12-27 14:58:13.252313,4905
2021-12-27 14:58:13.252319,-939
2021-12-27 14:58:13.252326,2741
2021-12-27 14:58:13.252333,1974
2021-12-27 14:58:13.252340,-1505
2021-12-27 14:58:13.495833,-1687
2021-12-27 14:58:13.495861,1505
2021-12-27 14:58:13.495874,4975
2021-12-27 14:58:13.495881,-3403
2021-12-27 14:58:13.495888,4831
2021-12-27 14:58:13.495895,-369
2021-12-27 14:58:13.495902,-5970
2021-12-27 14:58:13.495909,4136
2021-12-27 14:58:13.495916,-323
2021-12-27 14:58:13.495922,1833
2021-12-27 14:58:13.495929,2861
2021-12-27 14:58:13.495936,-2257
2021-12-27 14:58:13.495942,913
2021-12-27 14:58:13.495949,-3892
2021-12-27 14:58:13.495956,1735
2021-12-27 14:58:13.495962,4424
2021-12-27 14:58:13.495969,-3853
2021-12-27 14:58:13.495976,2178
2021-12-27 14:58:13.495982,-2399
2021-12-27 14:58:13.495989,-1967
2021-12-27 14:58:13.496000,-2612
2021-12-27 14:58:13.496006,2792
2021-12-27 14:58:13.496013,3736
2021-12-27 14:58:13.496020,-5521
2021-12-27 14:58:13.496027,556
2021-12-27 14:58:13.496033,-1342
2021-12-27 14:58:13.496040,992
2021-12-27 14:58:13.496047,3901
2021-12-27 14:58:13.496053,-2209
2021-12-27 14:58:13.691233,4325
2021-12-27 14:58:13.691262,-325
2021-12-27 14:58:13.691270,-3218
2021-12-27 14:58:13.691277,4347
2021-12-27 14:58:13.691284,-1334
2021-12-27 14:58:13.691291,3223
2021-12-27 14:58:13.691298,2434
2021-12-27 14:58:13.691305,-6689
2021-12-27 14:58:13.691312,-1457
2021-12-27 14:58:13.691318,-3331
2021-12-27 14:58:13.691325,-11
2021-12-27 14:58:13.691332,2
2021-12-27 14:58:13.691339,-9399
2021-12-27 14:58:13.691345,-335
2021-12-27 14:58:13.691352,-2993
2021-12-27 14:58:13.691359,-4639
2021-12-27 14:58:13.691370,-1375
2021-12-27 14:58:13.691377,963
2021-12-27 14:58:13.691384,-220
2021-12-27 14:58:13.691390,-7695
2021-12-27 14:58:13.691397,2365
2021-12-27 14:58:13.691404,937
2021-12-27 14:58:13.691411,1181
2021-12-27 14:58:13.691418,4045
2021-12-27 14:58:13.691425,-2482
2021-12-27 14:58:13.691431,2058
2021-12-27 14:58:13.691438,-1694
2021-12-27 14:58:13.691445,-486
2021-12-27 14:58:13.933868,-2041
2021-12-27 14:58:13.933887,2490
2021-12-27 14:58:13.933892,683
2021-12-27 14:58:13.933897,-8383
2021-12-27 14:58:13.933902,3813
2021-12-27 14:58:13.933906,2442
2021-12-27 14:58:13.933911,754
2021-12-27 14:58:13.933915,4189
2021-12-27 14:58:13.933919,-4172
2021-12-27 14:58:13.933924,-1859
2021-12-27 14:58:13.933928,-1996
2021-12-27 14:58:13.933933,1435
2021-12-27 14:58:13.933940,-2689
2021-12-27 14:58:13.933944,1919
2021-12-27 14:58:13.933949,1965
2021-12-27 14:58:13.933953,-3331
2021-12-27 14:58:13.933960,807
2021-12-27 14:58:13.933964,539
2021-12-27 14:58:13.933968,3966
2021-12-27 14:58:13.933973,-6794
2021-12-27 14:58:13.933977,-752
2021-12-27 14:58:13.933982,2300
2021-12-27 14:58:13.933986,1032
2021-12-27 14:58:13.933993,-2468
2021-12-27 14:58:13.933997,1847
2021-12-27 14:58:13.934002,2681
2021-12-27 14:58:13.934006,-2377
2021-12-27 14:58:14.178153,337
2021-12-27 14:58:14.178169,-735
2021-12-27 14:58:14.178174,3163
2021-12-27 14:58:14.178178,-5826
2021-12-27 14:58:14.178183,-546
2021-12-27 14:58:14.178187,1759
2021-12-27 14:58:14.178192,980
2021-12-27 14:58:14.178196,4381
2021-12-27 14:58:14.178201,-2873
2021-12-27 14:58:14.178205,1227
2021-12-27 14:58:14.178210,-191
2021-12-27 14:58:14.178214,-3887
2021-12-27 14:58:14.178221,-436
2021-12-27 14:58:14.178225,-1404
2021-12-27 14:58:14.178230,2497
2021-12-27 14:58:14.178234,-8493
2021-12-27 14:58:14.178238,685
2021-12-27 14:58:14.178243,4105
2021-12-27 14:58:14.178247,-1608
2021-12-27 14:58:14.178252,3204
2021-12-27 14:58:14.178256,-1258
2021-12-27 14:58:14.178265,364
2021-12-27 14:58:14.178269,-119
2021-12-27 14:58:14.178274,-1708
2021-12-27 14:58:14.178280,-1912
2021-12-27 14:58:14.178285,551
2021-12-27 14:58:14.422049,-3748
2021-12-27 14:58:14.422069,3475
2021-12-27 14:58:14.422074,2233
2021-12-27 14:58:14.422079,-2240
2021-12-27 14:58:14.422086,-1958
2021-12-27 14:58:14.422090,-3082
2021-12-27 14:58:14.422095,-961
2021-12-27 14:58:14.422099,-1742
2021-12-27 14:58:14.422105,-814
2021-12-27 14:58:14.422110,953
2021-12-27 14:58:14.422114,3451
2021-12-27 14:58:14.422119,-6056
2021-12-27 14:58:14.422123,2871
2021-12-27 14:58:14.422128,2375
2021-12-27 14:58:14.422132,-1505
2021-12-27 14:58:14.422139,-2032
2021-12-27 14:58:14.422143,-198
2021-12-27 14:58:14.422148,2550
2021-12-27 14:58:14.422152,-2089
2021-12-27 14:58:14.422159,476
2021-12-27 14:58:14.422166,91
2021-12-27 14:58:14.422174,2940
2021-12-27 14:58:14.422182,-5807
2021-12-27 14:58:14.422189,2842
2021-12-27 14:58:14.422198,3261
2021-12-27 14:58:14.422205,-1212
2021-12-27 14:58:14.663905,-2336
2021-12-27 14:58:14.663925,-752
2021-12-27 14:58:14.663933,2192
2021-12-27 14:58:14.663940,-1318
2021-12-27 14:58:14.663951,-119
2021-12-27 14:58:14.663958,-2214
2021-12-27 14:58:14.663965,-728
2021-12-27 14:58:14.663972,-5565
2021-12-27 14:58:14.663982,2897
2021-12-27 14:58:14.663989,-2437
2021-12-27 14:58:14.663996,4922
2021-12-27 14:58:14.664003,-5732
2021-12-27 14:58:14.664010,-3355
2021-12-27 14:58:14.664017,4807
2021-12-27 14:58:14.664024,-405
2021-12-27 14:58:14.664031,3976
2021-12-27 14:58:14.664038,-213
2021-12-27 14:58:14.664045,-2135
2021-12-27 14:58:14.664052,1169
2021-12-27 14:58:14.664059,-5442
2021-12-27 14:58:14.664066,-2317
2021-12-27 14:58:14.664073,-2219
2021-12-27 14:58:14.664080,481
2021-12-27 14:58:14.664090,-6406
2021-12-27 14:58:14.664097,-910
2021-12-27 14:58:14.861074,-1708
2021-12-27 14:58:14.861103,4330
2021-12-27 14:58:14.861112,-1831
2021-12-27 14:58:14.861119,-6375
2021-12-27 14:58:14.861126,424
2021-12-27 14:58:14.861133,-491
2021-12-27 14:58:14.861140,4826
2021-12-27 14:58:14.861147,469
2021-12-27 14:58:14.861154,-2861
2021-12-27 14:58:14.861161,2298
2021-12-27 14:58:14.861168,-5538
2021-12-27 14:58:14.861175,1816
2021-12-27 14:58:14.861186,-2938
2021-12-27 14:58:14.861193,3793
2021-12-27 14:58:14.861200,-944
2021-12-27 14:58:14.861207,-1852
2021-12-27 14:58:14.861214,4963
2021-12-27 14:58:14.861254,-1308
2021-12-27 14:58:14.861260,3731
2021-12-27 14:58:14.861267,1533
2021-12-27 14:58:14.861274,-2854
2021-12-27 14:58:14.861281,4071
2021-12-27 14:58:14.861288,-2142
2021-12-27 14:58:14.861295,2192
2021-12-27 14:58:14.861302,4520
2021-12-27 14:58:14.861309,-3710
2021-12-27 14:58:14.861316,3698
2021-12-27 14:58:14.861322,474
2021-12-27 14:58:14.861329,-2811
2021-12-27 14:58:15.104427,1246
2021-12-27 14:58:15.104454,-2135
2021-12-27 14:58:15.104463,3698
2021-12-27 14:58:15.104470,79
2021-12-27 14:58:15.104477,-4139
2021-12-27 14:58:15.104484,1212
2021-12-27 14:58:15.104491,-4081
2021-12-27 14:58:15.104497,3094
2021-12-27 14:58:15.104504,4237
2021-12-27 14:58:15.104511,-4313
2021-12-27 14:58:15.104518,4510
2021-12-27 14:58:15.104525,-1835
2021-12-27 14:58:15.104531,-4210
2021-12-27 14:58:15.104542,-1632
2021-12-27 14:58:15.104549,1370
2021-12-27 14:58:15.104556,2331
2021-12-27 14:58:15.104562,-2130
2021-12-27 14:58:15.104569,2981
2021-12-27 14:58:15.104576,-1507
2021-12-27 14:58:15.104583,1636
2021-12-27 14:58:15.104589,2600
2021-12-27 14:58:15.104596,-2470
2021-12-27 14:58:15.104606,-901
2021-12-27 14:58:15.104613,-1320
2021-12-27 14:58:15.104623,-2983
2021-12-27 14:58:15.104630,1874
2021-12-27 14:58:15.104637,-810
2021-12-27 14:58:15.348318,-5598
2021-12-27 14:58:15.348346,3491
2021-12-27 14:58:15.348355,-4115
2021-12-27 14:58:15.348362,-917
2021-12-27 14:58:15.348381,-2123
2021-12-27 14:58:15.348388,1258
2021-12-27 14:58:15.348395,-3995
2021-12-27 14:58:15.348402,-2178
2021-12-27 14:58:15.348412,-2360
2021-12-27 14:58:15.348419,3491
2021-12-27 14:58:15.348426,1052
2021-12-27 14:58:15.348433,-7000
2021-12-27 14:58:15.348439,1814
2021-12-27 14:58:15.348446,-352
2021-12-27 14:58:15.348453,2034
2021-12-27 14:58:15.348460,3901
2021-12-27 14:58:15.348466,-2629
2021-12-27 14:58:15.348473,3221
2021-12-27 14:58:15.348480,-1747
2021-12-27 14:58:15.348486,-1183
2021-12-27 14:58:15.348496,-1936
2021-12-27 14:58:15.348503,3012
2021-12-27 14:58:15.348510,1943
2021-12-27 14:58:15.348516,-4426
2021-12-27 14:58:15.348523,3808
2021-12-27 14:58:15.348530,-52
2021-12-27 14:58:15.348536,1792
2021-12-27 14:58:15.592343,4033
2021-12-27 14:58:15.592371,-3338
2021-12-27 14:58:15.592380,1344
2021-12-27 14:58:15.592387,-3849
2021-12-27 14:58:15.592394,-2969
2021-12-27 14:58:15.592404,-1600
2021-12-27 14:58:15.592411,2094
2021-12-27 14:58:15.592418,-601
2021-12-27 14:58:15.592425,-5931
2021-12-27 14:58:15.592435,615
2021-12-27 14:58:15.592442,553
2021-12-27 14:58:15.592449,3762
2021-12-27 14:58:15.592456,-6547
2021-12-27 14:58:15.592463,-2756
2021-12-27 14:58:15.592470,-88
2021-12-27 14:58:15.592477,2144
2021-12-27 14:58:15.592484,4699
2021-12-27 14:58:15.592491,-3017
2021-12-27 14:58:15.592498,1943
2021-12-27 14:58:15.592505,-301
2021-12-27 14:58:15.592512,-3017
2021-12-27 14:58:15.592522,-683
2021-12-27 14:58:15.592529,527
2021-12-27 14:58:15.592536,3846
2021-12-27 14:58:15.592543,-4788
2021-12-27 14:58:15.592550,2832
2021-12-27 14:58:15.592557,1857
2021-12-27 14:58:15.786958,-206
2021-12-27 14:58:15.786986,4788
2021-12-27 14:58:15.786995,-3043
2021-12-27 14:58:15.787002,1548
2021-12-27 14:58:15.787009,-620
2021-12-27 14:58:15.787016,-11026
2021-12-27 14:58:15.787023,-1457
2021-12-27 14:58:15.787030,829
2021-12-27 14:58:15.787037,1301
2021-12-27 14:58:15.787044,-352
2021-12-27 14:58:15.787051,-6983
2021-12-27 14:58:15.787058,2701
2021-12-27 14:58:15.787065,1759
2021-12-27 14:58:15.787072,-414
2021-12-27 14:58:15.787079,4165
2021-12-27 14:58:15.787086,-3779
2021-12-27 14:58:15.787093,-1322
2021-12-27 14:58:15.787100,-1718
2021-12-27 14:58:15.787107,-1668
2021-12-27 14:58:15.787117,-2375
2021-12-27 14:58:15.787124,-534
2021-12-27 14:58:15.787131,4611
2021-12-27 14:58:15.787138,-3561
2021-12-27 14:58:15.787145,3813
2021-12-27 14:58:15.787151,1895
2021-12-27 14:58:15.787158,-1876
2021-12-27 14:58:15.787165,3810
2021-12-27 14:58:15.787172,-2164
2021-12-27 14:58:15.787179,1600
2021-12-27 14:58:16.030411,1828
2021-12-27 14:58:16.030429,-1529
2021-12-27 14:58:16.030434,4834
2021-12-27 14:58:16.030438,-2238
2021-12-27 14:58:16.030442,620
2021-12-27 14:58:16.030445,2744
2021-12-27 14:58:16.030449,-6542
2021-12-27 14:58:16.030453,1727
2021-12-27 14:58:16.030456,-1550
2021-12-27 14:58:16.030460,-3060
2021-12-27 14:58:16.030465,-4467
2021-12-27 14:58:16.030469,-3623
2021-12-27 14:58:16.030473,1727
2021-12-27 14:58:16.030476,-1049
2021-12-27 14:58:16.030480,3405
2021-12-27 14:58:16.030484,-1140
2021-12-27 14:58:16.030487,-160
2021-12-27 14:58:16.030491,-91
2021-12-27 14:58:16.030495,-5145
2021-12-27 14:58:16.030498,4522
2021-12-27 14:58:16.030502,-117
2021-12-27 14:58:16.030505,-2063
2021-12-27 14:58:16.030511,-3300
2021-12-27 14:58:16.030515,433
2021-12-27 14:58:16.030518,2701
2021-12-27 14:58:16.030522,-2698
2021-12-27 14:58:16.030526,4795
2021-12-27 14:58:16.030529,-170
2021-12-27 14:58:16.274456,-433
2021-12-27 14:58:16.274475,2288
2021-12-27 14:58:16.274481,-5823
2021-12-27 14:58:16.274486,-71
2021-12-27 14:58:16.274490,-810
2021-12-27 14:58:16.274495,-3259
2021-12-27 14:58:16.274499,323
2021-12-27 14:58:16.274503,-7408
2021-12-27 14:58:16.274508,-2097
2021-12-27 14:58:16.274512,-1147
2021-12-27 14:58:16.274516,-10710
2021-12-27 14:58:16.274521,-3841
2021-12-27 14:58:16.274525,-1651
2021-12-27 14:58:16.274529,-1876
2021-12-27 14:58:16.274534,-3189
2021-12-27 14:58:16.274538,-4019
2021-12-27 14:58:16.274545,613
2021-12-27 14:58:16.274549,-2106
2021-12-27 14:58:16.274556,-4208
2021-12-27 14:58:16.274561,364
2021-12-27 14:58:16.274565,4474
2021-12-27 14:58:16.274570,-1421
2021-12-27 14:58:16.274574,4929
2021-12-27 14:58:16.274585,-752
2021-12-27 14:58:16.274589,-2099
2021-12-27 14:58:16.274594,2336
2021-12-27 14:58:16.274598,-1356
2021-12-27 14:58:16.469268,1354
2021-12-27 14:58:16.469296,-1215
2021-12-27 14:58:16.469304,4189
2021-12-27 14:58:16.469311,-3985
2021-12-27 14:58:16.469318,2873
2021-12-27 14:58:16.469329,-2327
2021-12-27 14:58:16.469339,-3127
2021-12-27 14:58:16.469346,-6200
2021-12-27 14:58:16.469353,2993
2021-12-27 14:58:16.469360,-2207
2021-12-27 14:58:16.469367,74
2021-12-27 14:58:16.469374,177
2021-12-27 14:58:16.469380,-3233
2021-12-27 14:58:16.469387,-3391
2021-12-27 14:58:16.469394,-6387
2021-12-27 14:58:16.469404,4045
2021-12-27 14:58:16.469411,-4165
2021-12-27 14:58:16.469418,4687
2021-12-27 14:58:16.469425,-2003
2021-12-27 14:58:16.469431,-1651
2021-12-27 14:58:16.469441,-1514
2021-12-27 14:58:16.469448,3621
2021-12-27 14:58:16.469455,1169
2021-12-27 14:58:16.469462,-3024
2021-12-27 14:58:16.469469,3547
2021-12-27 14:58:16.469476,-3235
2021-12-27 14:58:16.760441,-167
2021-12-27 14:58:16.760468,1598
2021-12-27 14:58:16.760477,-5716
2021-12-27 14:58:16.760484,-289
2021-12-27 14:58:16.760491,-4366
2021-12-27 14:58:16.760498,-2375
2021-12-27 14:58:16.760505,4486
2021-12-27 14:58:16.760512,-2272
2021-12-27 14:58:16.760519,2073
2021-12-27 14:58:16.760526,-505
2021-12-27 14:58:16.760533,-5308
2021-12-27 14:58:16.760540,400
2021-12-27 14:58:16.760547,-2224
2021-12-27 14:58:16.760554,1404
2021-12-27 14:58:16.760561,-1754
2021-12-27 14:58:16.760568,-7959
2021-12-27 14:58:16.760574,-1330
2021-12-27 14:58:16.760581,-4836
2021-12-27 14:58:16.760589,1461
2021-12-27 14:58:16.760600,-4316
2021-12-27 14:58:16.760606,2892
2021-12-27 14:58:16.760613,2669
2021-12-27 14:58:16.760620,-2463
2021-12-27 14:58:16.760627,4424
2021-12-27 14:58:16.760634,-450
2021-12-27 14:58:16.760641,1562
2021-12-27 14:58:16.760648,1950
2021-12-27 14:58:16.760656,-1689
2021-12-27 14:58:16.957037,-2413
2021-12-27 14:58:16.957071,-2768
2021-12-27 14:58:16.957080,3439
2021-12-27 14:58:16.957088,-2998
2021-12-27 14:58:16.957096,4016
2021-12-27 14:58:16.957115,67
2021-12-27 14:58:16.957124,-6667
2021-12-27 14:58:16.957133,3446
2021-12-27 14:58:16.957143,-258
2021-12-27 14:58:16.957154,1188
2021-12-27 14:58:16.957164,3408
2021-12-27 14:58:16.957175,-2439
2021-12-27 14:58:16.957185,642
2021-12-27 14:58:16.957195,-4103
2021-12-27 14:58:16.957206,287
2021-12-27 14:58:16.957216,2763
2021-12-27 14:58:16.957227,-8155
2021-12-27 14:58:16.957237,1960
2021-12-27 14:58:16.957282,1258
2021-12-27 14:58:16.957288,-5962
2021-12-27 14:58:16.957293,3014
2021-12-27 14:58:16.957298,-1159
2021-12-27 14:58:16.957303,1387
2021-12-27 14:58:16.957307,3532
2021-12-27 14:58:16.957312,-3326
2021-12-27 14:58:16.957316,2526
2021-12-27 14:58:16.957321,-1303
2021-12-27 14:58:16.957325,-93
2021-12-27 14:58:16.957332,-1955
2021-12-27 14:58:17.151474,3700
2021-12-27 14:58:17.151502,1131
2021-12-27 14:58:17.151511,-3712
2021-12-27 14:58:17.151518,4462
2021-12-27 14:58:17.151525,-388
2021-12-27 14:58:17.151532,2677
2021-12-27 14:58:17.151539,3695
2021-12-27 14:58:17.151545,-6214
2021-12-27 14:58:17.151552,-1442
2021-12-27 14:58:17.151559,-913
2021-12-27 14:58:17.151566,2590
2021-12-27 14:58:17.151576,-2509
2021-12-27 14:58:17.151583,2837
2021-12-27 14:58:17.151590,-2085
2021-12-27 14:58:17.151597,-4570
2021-12-27 14:58:17.151607,-2140
2021-12-27 14:58:17.151614,-2665
2021-12-27 14:58:17.151621,3269
2021-12-27 14:58:17.151628,-3851
2021-12-27 14:58:17.151634,-2794
2021-12-27 14:58:17.151641,-5004
2021-12-27 14:58:17.151648,2015
2021-12-27 14:58:17.151658,-4393
2021-12-27 14:58:17.151666,-908
2021-12-27 14:58:17.151672,-1361
2021-12-27 14:58:17.151679,-1145
2021-12-27 14:58:17.395651,-1610
2021-12-27 14:58:17.395679,1629
2021-12-27 14:58:17.395687,2029
2021-12-27 14:58:17.395694,-8294
2021-12-27 14:58:17.395701,2696
2021-12-27 14:58:17.395708,3084
2021-12-27 14:58:17.395715,311
2021-12-27 14:58:17.395722,4532
2021-12-27 14:58:17.395729,-3561
2021-12-27 14:58:17.395736,-1914
2021-12-27 14:58:17.395742,-2506
2021-12-27 14:58:17.395749,-2530
2021-12-27 14:58:17.395756,4651
2021-12-27 14:58:17.395762,-3877
2021-12-27 14:58:17.395769,-2468
2021-12-27 14:58:17.395776,649
2021-12-27 14:58:17.395782,-3499
2021-12-27 14:58:17.395789,4949
2021-12-27 14:58:17.395796,242
2021-12-27 14:58:17.395803,-3041
2021-12-27 14:58:17.395809,433
2021-12-27 14:58:17.395816,-5066
2021-12-27 14:58:17.395823,2775
2021-12-27 14:58:17.395830,2123
2021-12-27 14:58:17.395836,-1473
2021-12-27 14:58:17.395847,-1735
2021-12-27 14:58:17.395854,203
2021-12-27 14:58:17.395861,3659
2021-12-27 14:58:17.395868,-2547
2021-12-27 14:58:17.688005,1303
2021-12-27 14:58:17.688024,-1533
2021-12-27 14:58:17.688032,3626
2021-12-27 14:58:17.688039,-4982
2021-12-27 14:58:17.688046,-1298
2021-12-27 14:58:17.688065,2044
2021-12-27 14:58:17.688072,601
2021-12-27 14:58:17.688079,4786
2021-12-27 14:58:17.688086,-2300
2021-12-27 14:58:17.688093,850
2021-12-27 14:58:17.688100,1068
2021-12-27 14:58:17.688106,-4548
2021-12-27 14:58:17.688116,1155
2021-12-27 14:58:17.688123,-1917
2021-12-27 14:58:17.688134,-2152
2021-12-27 14:58:17.688140,1960
2021-12-27 14:58:17.688147,3494
2021-12-27 14:58:17.688154,-1706
2021-12-27 14:58:17.688161,2703
2021-12-27 14:58:17.688167,-3249
2021-12-27 14:58:17.688174,603
2021-12-27 14:58:17.688181,3717
2021-12-27 14:58:17.688187,-2365
2021-12-27 14:58:17.688194,4395
2021-12-27 14:58:17.688201,-3908
2021-12-27 14:58:17.688208,-6257
2021-12-27 14:58:17.883388,-1121
2021-12-27 14:58:17.883448,1900
2021-12-27 14:58:17.883456,2516
2021-12-27 14:58:17.883463,-1684
2021-12-27 14:58:17.883474,-635
2021-12-27 14:58:17.883481,-1157
2021-12-27 14:58:17.883488,1653
2021-12-27 14:58:17.883494,-2645
2021-12-27 14:58:17.883501,4654
2021-12-27 14:58:17.883508,1004
2021-12-27 14:58:17.883514,359
2021-12-27 14:58:17.883521,3971
2021-12-27 14:58:17.883528,-5759
2021-12-27 14:58:17.883534,1692
2021-12-27 14:58:17.883541,3532
2021-12-27 14:58:17.883548,-1605
2021-12-27 14:58:17.883558,-1227
2021-12-27 14:58:17.883564,-1579
2021-12-27 14:58:17.883571,2686
2021-12-27 14:58:17.883578,-1840
2021-12-27 14:58:17.883588,-529
2021-12-27 14:58:17.883595,-4186
2021-12-27 14:58:17.883601,3177
2021-12-27 14:58:17.883608,-2892
2021-12-27 14:58:17.883615,2343
2021-12-27 14:58:17.883622,3513
2021-12-27 14:58:17.883628,-1040
2021-12-27 14:58:18.127014,-1632
2021-12-27 14:58:18.127034,-1773
2021-12-27 14:58:18.127042,2787
2021-12-27 14:58:18.127050,-1219
2021-12-27 14:58:18.127060,1088
2021-12-27 14:58:18.127067,-2389
2021-12-27 14:58:18.127074,146
2021-12-27 14:58:18.127081,-5701
2021-12-27 14:58:18.127088,4865
2021-12-27 14:58:18.127094,4546
2021-12-27 14:58:18.127101,-2830
2021-12-27 14:58:18.127111,-4115
2021-12-27 14:58:18.127118,-4215
2021-12-27 14:58:18.127128,-45
2021-12-27 14:58:18.127135,3801
2021-12-27 14:58:18.127142,896
2021-12-27 14:58:18.127149,-2494
2021-12-27 14:58:18.127155,1816
2021-12-27 14:58:18.127162,-1878
2021-12-27 14:58:18.127169,4865
2021-12-27 14:58:18.127176,2823
2021-12-27 14:58:18.127183,-4637
2021-12-27 14:58:18.127189,517
2021-12-27 14:58:18.127196,-4062
2021-12-27 14:58:18.127203,1627
2021-12-27 14:58:18.321727,-2722
2021-12-27 14:58:18.321749,4606
2021-12-27 14:58:18.321755,-242
2021-12-27 14:58:18.321760,-8369
2021-12-27 14:58:18.321765,-1236
2021-12-27 14:58:18.321769,-119
2021-12-27 14:58:18.321776,1636
2021-12-27 14:58:18.321780,-3352
2021-12-27 14:58:18.321785,2698
2021-12-27 14:58:18.321789,-4623
2021-12-27 14:58:18.321793,354
2021-12-27 14:58:18.321800,-2636
2021-12-27 14:58:18.321805,3103
2021-12-27 14:58:18.321809,-1066
2021-12-27 14:58:18.321813,-5855
2021-12-27 14:58:18.321818,2686
2021-12-27 14:58:18.321823,-74
2021-12-27 14:58:18.321827,3609
2021-12-27 14:58:18.321831,1780
2021-12-27 14:58:18.321836,-3029
2021-12-27 14:58:18.321840,4637
2021-12-27 14:58:18.321844,-1526
2021-12-27 14:58:18.321849,1042
2021-12-27 14:58:18.321855,-3666
2021-12-27 14:58:18.321860,1267
2021-12-27 14:58:18.321864,-2001
2021-12-27 14:58:18.321869,-3041
2021-12-27 14:58:18.565315,-1198
2021-12-27 14:58:18.565336,980
2021-12-27 14:58:18.565343,1799
2021-12-27 14:58:18.565350,-3367
2021-12-27 14:58:18.565357,834
2021-12-27 14:58:18.565364,-3952
2021-12-27 14:58:18.565371,2233
2021-12-27 14:58:18.565381,-4426
2021-12-27 14:58:18.565388,4177
2021-12-27 14:58:18.565395,-400
2021-12-27 14:58:18.565402,-5356
2021-12-27 14:58:18.565412,-898
2021-12-27 14:58:18.565419,539
2021-12-27 14:58:18.565425,3269
2021-12-27 14:58:18.565432,-2243
2021-12-27 14:58:18.565439,2799
2021-12-27 14:58:18.565445,-965
2021-12-27 14:58:18.565452,503
2021-12-27 14:58:18.565459,3101
2021-12-27 14:58:18.565465,-2403
2021-12-27 14:58:18.565472,4961
2021-12-27 14:58:18.565479,285
2021-12-27 14:58:18.565485,-2190
2021-12-27 14:58:18.565496,-2284
2021-12-27 14:58:18.565503,2274
2021-12-27 14:58:18.565510,2327
2021-12-27 14:58:18.856196,-7041
2021-12-27 14:58:18.856213,1869
2021-12-27 14:58:18.856218,179
2021-12-27 14:58:18.856223,-174
2021-12-27 14:58:18.856228,4086
2021-12-27 14:58:18.856232,-2710
2021-12-27 14:58:18.856237,-1171
2021-12-27 14:58:18.856241,-7029
2021-12-27 14:58:18.856246,-9708
2021-12-27 14:58:18.856250,-1543
2021-12-27 14:58:18.856255,-2195
2021-12-27 14:58:18.856259,4357
2021-12-27 14:58:18.856264,733
2021-12-27 14:58:18.856268,-7978
2021-12-27 14:58:18.856273,1159
2021-12-27 14:58:18.856277,-570
2021-12-27 14:58:18.856282,680
2021-12-27 14:58:18.856286,4165
2021-12-27 14:58:18.856290,-2724
2021-12-27 14:58:18.856295,2835
2021-12-27 14:58:18.856299,-1917
2021-12-27 14:58:18.856304,-5227
2021-12-27 14:58:18.856308,3849
2021-12-27 14:58:18.856313,-3204
2021-12-27 14:58:18.856317,-1358
2021-12-27 14:58:18.856322,783
2021-12-27 14:58:18.856326,-4750
2021-12-27 14:58:18.856331,2466
2021-12-27 14:58:18.856335,-364
2021-12-27 14:58:18.856340,656
2021-12-27 14:58:19.053167,4131
2021-12-27 14:58:19.053189,-5023
2021-12-27 14:58:19.053195,-1632
2021-12-27 14:58:19.053200,-1675
2021-12-27 14:58:19.053205,0
2021-12-27 14:58:19.053212,-2475
2021-12-27 14:58:19.053216,1996
2021-12-27 14:58:19.053221,925
2021-12-27 14:58:19.053225,-6988
2021-12-27 14:58:19.053239,4999
2021-12-27 14:58:19.053243,1919
2021-12-27 14:58:19.053248,-273
2021-12-27 14:58:19.053252,4510
2021-12-27 14:58:19.053257,-5936
2021-12-27 14:58:19.053262,-3820
2021-12-27 14:58:19.053266,-11
2021-12-27 14:58:19.053271,1804
2021-12-27 14:58:19.053278,-2461
2021-12-27 14:58:19.053282,1591
2021-12-27 14:58:19.053287,1502
2021-12-27 14:58:19.053291,-3249
2021-12-27 14:58:19.053298,790
2021-12-27 14:58:19.053303,-38
2021-12-27 14:58:19.053307,4678
2021-12-27 14:58:19.053312,-4426
2021-12-27 14:58:19.053316,2099
2021-12-27 14:58:19.053321,3038
2021-12-27 14:58:19.297496,-383
2021-12-27 14:58:19.297521,-3810
2021-12-27 14:58:19.297526,-3575
2021-12-27 14:58:19.297530,-637
2021-12-27 14:58:19.297535,-2559
2021-12-27 14:58:19.297542,-515
2021-12-27 14:58:19.297546,-1435
2021-12-27 14:58:19.297551,2530
2021-12-27 14:58:19.297555,-6686
2021-12-27 14:58:19.297560,455
2021-12-27 14:58:19.297564,2619
2021-12-27 14:58:19.297569,-5183
2021-12-27 14:58:19.297573,-4000
2021-12-27 14:58:19.297578,-4464
2021-12-27 14:58:19.297582,1440
2021-12-27 14:58:19.297587,-2789
2021-12-27 14:58:19.297623,-6216
2021-12-27 14:58:19.297630,-2672
2021-12-27 14:58:19.297634,-4524
2021-12-27 14:58:19.297639,4381
2021-12-27 14:58:19.297643,-3197
2021-12-27 14:58:19.297647,1814
2021-12-27 14:58:19.297652,2128
2021-12-27 14:58:19.297656,-2562
2021-12-27 14:58:19.297660,3355
2021-12-27 14:58:19.297665,-1852
2021-12-27 14:58:19.297669,675
2021-12-27 14:58:19.589613,2176
2021-12-27 14:58:19.589635,-2037
2021-12-27 14:58:19.589641,4572
2021-12-27 14:58:19.589646,-1514
2021-12-27 14:58:19.589650,218
2021-12-27 14:58:19.589657,-5423
2021-12-27 14:58:19.589662,2032
2021-12-27 14:58:19.589666,2981
2021-12-27 14:58:19.589671,-2192
2021-12-27 14:58:19.589677,-2899
2021-12-27 14:58:19.589682,-3772
2021-12-27 14:58:19.589686,1574
2021-12-27 14:58:19.589691,-1064
2021-12-27 14:58:19.589696,4119
2021-12-27 14:58:19.589700,-476
2021-12-27 14:58:19.589705,-2195
2021-12-27 14:58:19.589709,-1406
2021-12-27 14:58:19.589714,-6351
2021-12-27 14:58:19.589718,4292
2021-12-27 14:58:19.589723,1603
2021-12-27 14:58:19.589727,-2679
2021-12-27 14:58:19.589734,-2092
2021-12-27 14:58:19.589738,-527
2021-12-27 14:58:19.589743,3628
2021-12-27 14:58:19.589747,-2394
2021-12-27 14:58:19.589751,4893
2021-12-27 14:58:19.589756,1147
2021-12-27 14:58:19.735472,-723
2021-12-27 14:58:19.735501,3024
2021-12-27 14:58:19.735510,-5572
2021-12-27 14:58:19.735517,337
2021-12-27 14:58:19.735524,1092
2021-12-27 14:58:19.735531,-3918
2021-12-27 14:58:19.735537,2825
2021-12-27 14:58:19.735544,-3091
2021-12-27 14:58:19.735551,-3705
2021-12-27 14:58:19.735558,-409
2021-12-27 14:58:19.735565,-1217
2021-12-27 14:58:19.735576,-1210
2021-12-27 14:58:19.735583,-4503
2021-12-27 14:58:19.735590,-1073
2021-12-27 14:58:19.735597,-4014
2021-12-27 14:58:19.735607,2545
2021-12-27 14:58:19.735614,-2336
2021-12-27 14:58:19.735621,4383
2021-12-27 14:58:19.735627,-6585
2021-12-27 14:58:19.735634,-2811
2021-12-27 14:58:19.735645,-855
2021-12-27 14:58:19.735651,3990
2021-12-27 14:58:19.735658,-182
2021-12-27 14:58:19.735665,-5905
2021-12-27 14:58:19.735672,-1181
2021-12-27 14:58:19.735678,-532
2021-12-27 14:58:19.931111,1634
2021-12-27 14:58:19.931139,-1955
2021-12-27 14:58:19.931148,3194
2021-12-27 14:58:19.931155,-6423
2021-12-27 14:58:19.931163,1270
2021-12-27 14:58:19.931173,-2523
2021-12-27 14:58:19.931180,4675
2021-12-27 14:58:19.931187,1298
2021-12-27 14:58:19.931194,-2523
2021-12-27 14:58:19.931201,2164
2021-12-27 14:58:19.931208,-2607
2021-12-27 14:58:19.931216,4913
2021-12-27 14:58:19.931222,3252
2021-12-27 14:58:19.931229,-4043
2021-12-27 14:58:19.931236,759
2021-12-27 14:58:19.931243,-3772
2021-12-27 14:58:19.931250,3153
2021-12-27 14:58:19.931260,-2892
2021-12-27 14:58:19.931267,4254
2021-12-27 14:58:19.931274,-503
2021-12-27 14:58:19.931281,-1754
2021-12-27 14:58:19.931291,-807
2021-12-27 14:58:19.931298,3417
2021-12-27 14:58:19.931304,2559
2021-12-27 14:58:19.931311,-3043
2021-12-27 14:58:19.931318,4112
2021-12-27 14:58:19.931325,-625
2021-12-27 14:58:20.174080,2454
2021-12-27 14:58:20.174098,4759
2021-12-27 14:58:20.174104,-3561
2021-12-27 14:58:20.174109,2816
2021-12-27 14:58:20.174114,-1950
2021-12-27 14:58:20.174118,-3405
2021-12-27 14:58:20.174125,-623
2021-12-27 14:58:20.174130,1704
2021-12-27 14:58:20.174134,1339
2021-12-27 14:58:20.174139,-4699
2021-12-27 14:58:20.174143,-599
2021-12-27 14:58:20.174148,-4301
2021-12-27 14:58:20.174153,1775
2021-12-27 14:58:20.174157,4378
2021-12-27 14:58:20.174162,-3396
2021-12-27 14:58:20.174166,4527
2021-12-27 14:58:20.174171,481
2021-12-27 14:58:20.174175,-1210
2021-12-27 14:58:20.174182,-2322
2021-12-27 14:58:20.174186,1821
2021-12-27 14:58:20.174191,3137
2021-12-27 14:58:20.174195,-2585
2021-12-27 14:58:20.174200,3693
2021-12-27 14:58:20.174204,-4481
2021-12-27 14:58:20.174209,-6372
2021-12-27 14:58:20.174213,1476
2021-12-27 14:58:20.174218,354
2021-12-27 14:58:20.174222,4100
2021-12-27 14:58:20.418459,-1368
2021-12-27 14:58:20.418488,-23
2021-12-27 14:58:20.418500,-3434
2021-12-27 14:58:20.418507,3338
2021-12-27 14:58:20.418514,2358
2021-12-27 14:58:20.418522,-7261
2021-12-27 14:58:20.418529,2415
2021-12-27 14:58:20.418536,673
2021-12-27 14:58:20.418543,630
2021-12-27 14:58:20.418550,3928
2021-12-27 14:58:20.418557,-2137
2021-12-27 14:58:20.418564,769
2021-12-27 14:58:20.418570,-4968
2021-12-27 14:58:20.418577,-4802
2021-12-27 14:58:20.418584,3470
2021-12-27 14:58:20.418591,-1473
2021-12-27 14:58:20.418598,4076
2021-12-27 14:58:20.418605,2130
2021-12-27 14:58:20.418612,-3654
2021-12-27 14:58:20.418619,4965
2021-12-27 14:58:20.418626,-733
2021-12-27 14:58:20.418633,1126
2021-12-27 14:58:20.418640,4915
2021-12-27 14:58:20.418646,-5411
2021-12-27 14:58:20.418653,-409
2021-12-27 14:58:20.418660,-347
2021-12-27 14:58:20.418667,-716
2021-12-27 14:58:20.418674,4944
2021-12-27 14:58:20.418681,-1922
2021-12-27 14:58:20.613459,2777
2021-12-27 14:58:20.613481,1735
2021-12-27 14:58:20.613487,-4877
2021-12-27 14:58:20.613492,3748
2021-12-27 14:58:20.613504,127
2021-12-27 14:58:20.613509,1308
2021-12-27 14:58:20.613513,4203
2021-12-27 14:58:20.613518,-6089
2021-12-27 14:58:20.613522,-3113
2021-12-27 14:58:20.613527,-3082
2021-12-27 14:58:20.613531,-1080
2021-12-27 14:58:20.613536,3964
2021-12-27 14:58:20.613540,-5248
2021-12-27 14:58:20.613545,-762
2021-12-27 14:58:20.613549,-1807
2021-12-27 14:58:20.613554,-7959
2021-12-27 14:58:20.613558,1608
2021-12-27 14:58:20.613563,-2243
2021-12-27 14:58:20.613567,409
2021-12-27 14:58:20.613572,4234
2021-12-27 14:58:20.613576,-5960
2021-12-27 14:58:20.613581,685
2021-12-27 14:58:20.613585,1934
2021-12-27 14:58:20.613590,9
2021-12-27 14:58:20.613594,4774
2021-12-27 14:58:20.613599,-2051
2021-12-27 14:58:20.613603,846
2021-12-27 14:58:20.613608,194
2021-12-27 14:58:20.613613,-2190
2021-12-27 14:58:20.904621,-3674
2021-12-27 14:58:20.904648,-7213
2021-12-27 14:58:20.904657,-1171
2021-12-27 14:58:20.904664,-6032
2021-12-27 14:58:20.904671,1775
2021-12-27 14:58:20.904678,2329
2021-12-27 14:58:20.904685,-107
2021-12-27 14:58:20.904692,4656
2021-12-27 14:58:20.904699,-3295
2021-12-27 14:58:20.904706,-2118
2021-12-27 14:58:20.904713,-1097
2021-12-27 14:58:20.904720,-903
2021-12-27 14:58:20.904731,-965
2021-12-27 14:58:20.904738,-414
2021-12-27 14:58:20.904745,3772
2021-12-27 14:58:20.904752,-3446
2021-12-27 14:58:20.904759,3834
2021-12-27 14:58:20.904766,50
2021-12-27 14:58:20.904772,-2890
2021-12-27 14:58:20.904783,-2401
2021-12-27 14:58:20.904789,426
2021-12-27 14:58:20.904796,3465
2021-12-27 14:58:20.904803,-877
2021-12-27 14:58:20.904814,-822
2021-12-27 14:58:20.904820,-270
2021-12-27 14:58:20.904827,4568
2021-12-27 14:58:20.904834,-2691
2021-12-27 14:58:21.100799,4642
2021-12-27 14:58:21.100827,2494
2021-12-27 14:58:21.100836,-2351
2021-12-27 14:58:21.100843,4086
2021-12-27 14:58:21.100851,-3925
2021-12-27 14:58:21.100858,-2461
2021-12-27 14:58:21.100864,2216
2021-12-27 14:58:21.100871,31
2021-12-27 14:58:21.100878,4632
2021-12-27 14:58:21.100885,-1660
2021-12-27 14:58:21.100892,-83
2021-12-27 14:58:21.100899,1620
2021-12-27 14:58:21.100906,-5562
2021-12-27 14:58:21.100916,2516
2021-12-27 14:58:21.100923,-3067
2021-12-27 14:58:21.100933,-1466
2021-12-27 14:58:21.100940,627
2021-12-27 14:58:21.100946,2760
2021-12-27 14:58:21.100953,-5763
2021-12-27 14:58:21.100960,1073
2021-12-27 14:58:21.100967,1128
2021-12-27 14:58:21.100973,862
2021-12-27 14:58:21.100980,2185
2021-12-27 14:58:21.100987,-2645
2021-12-27 14:58:21.100994,4687
2021-12-27 14:58:21.101001,704
2021-12-27 14:58:21.101008,-1279
2021-12-27 14:58:21.344574,-2607
2021-12-27 14:58:21.344602,1188
2021-12-27 14:58:21.344611,3968
2021-12-27 14:58:21.344618,-2842
2021-12-27 14:58:21.344629,-2583
2021-12-27 14:58:21.344636,-11571
2021-12-27 14:58:21.344644,-4927
2021-12-27 14:58:21.344650,-532
2021-12-27 14:58:21.344661,-155
2021-12-27 14:58:21.344668,-611
2021-12-27 14:58:21.344678,-5596
2021-12-27 14:58:21.344685,-218
2021-12-27 14:58:21.344692,4503
2021-12-27 14:58:21.344699,-1998
2021-12-27 14:58:21.344710,103
2021-12-27 14:58:21.344717,-1783
2021-12-27 14:58:21.344723,3259
2021-12-27 14:58:21.344730,-3515
2021-12-27 14:58:21.344737,666
2021-12-27 14:58:21.344744,-359
2021-12-27 14:58:21.344751,-457
2021-12-27 14:58:21.344761,-4143
2021-12-27 14:58:21.344768,1224
2021-12-27 14:58:21.344779,-1970
2021-12-27 14:58:21.539179,-230
2021-12-27 14:58:21.539199,-2902
2021-12-27 14:58:21.539207,3144
2021-12-27 14:58:21.539214,-1013
2021-12-27 14:58:21.539221,4707
2021-12-27 14:58:21.539228,1298
2021-12-27 14:58:21.539235,-5680
2021-12-27 14:58:21.539241,-2653
2021-12-27 14:58:21.539248,-6255
2021-12-27 14:58:21.539255,3479
2021-12-27 14:58:21.539262,4754
2021-12-27 14:58:21.539269,-3901
2021-12-27 14:58:21.539275,4539
2021-12-27 14:58:21.539282,-3455
2021-12-27 14:58:21.539289,-6456
2021-12-27 14:58:21.539299,88
2021-12-27 14:58:21.539306,2602
2021-12-27 14:58:21.539313,1569
2021-12-27 14:58:21.539320,-3312
2021-12-27 14:58:21.539328,1102
2021-12-27 14:58:21.539334,-4031
2021-12-27 14:58:21.539341,-76
2021-12-27 14:58:21.539348,-742
2021-12-27 14:58:21.539355,-7995
2021-12-27 14:58:21.539362,2099
2021-12-27 14:58:21.539369,-1711
2021-12-27 14:58:21.539376,-2372
2021-12-27 14:58:21.539383,4992
2021-12-27 14:58:21.783822,-2255
2021-12-27 14:58:21.783844,2502
2021-12-27 14:58:21.783850,424
2021-12-27 14:58:21.783854,-7568
2021-12-27 14:58:21.783859,-879
2021-12-27 14:58:21.783863,-977
2021-12-27 14:58:21.783868,3479
2021-12-27 14:58:21.783872,2787
2021-12-27 14:58:21.783877,-4031
2021-12-27 14:58:21.783881,2324
2021-12-27 14:58:21.783885,-3393
2021-12-27 14:58:21.783890,-4124
2021-12-27 14:58:21.783894,-7
2021-12-27 14:58:21.783899,-5838
2021-12-27 14:58:21.783903,3829
2021-12-27 14:58:21.783908,1521
2021-12-27 14:58:21.783913,-4831
2021-12-27 14:58:21.783917,4563
2021-12-27 14:58:21.783922,33
2021-12-27 14:58:21.783926,2010
2021-12-27 14:58:21.783931,3561
2021-12-27 14:58:21.783935,-3041
2021-12-27 14:58:21.783940,4263
2021-12-27 14:58:21.783945,-79
2021-12-27 14:58:21.783949,-9
2021-12-27 14:58:21.783956,-5850
2021-12-27 14:58:21.783960,-340
2021-12-27 14:58:21.783965,3130
2021-12-27 14:58:21.783969,-1744
2021-12-27 14:58:22.026809,4488
2021-12-27 14:58:22.026832,-186
2021-12-27 14:58:22.026838,1023
2021-12-27 14:58:22.026843,2648
2021-12-27 14:58:22.026848,-3189
2021-12-27 14:58:22.026853,1092
2021-12-27 14:58:22.026857,-3451
2021-12-27 14:58:22.026862,901
2021-12-27 14:58:22.026868,-3966
2021-12-27 14:58:22.026873,3441
2021-12-27 14:58:22.026877,1641
2021-12-27 14:58:22.026882,-5955
2021-12-27 14:58:22.026888,524
2021-12-27 14:58:22.026893,52
2021-12-27 14:58:22.026897,3901
2021-12-27 14:58:22.026902,-4467
2021-12-27 14:58:22.026906,-345
2021-12-27 14:58:22.026911,-361
2021-12-27 14:58:22.026915,55
2021-12-27 14:58:22.026919,3410
2021-12-27 14:58:22.026924,-2446
2021-12-27 14:58:22.026928,4052
2021-12-27 14:58:22.026933,1437
2021-12-27 14:58:22.026937,-3307
2021-12-27 14:58:22.026944,-2540
2021-12-27 14:58:22.026949,-2691
2021-12-27 14:58:22.026953,1787
2021-12-27 14:58:22.271293,-2899
2021-12-27 14:58:22.271321,3153
2021-12-27 14:58:22.271329,-2348
2021-12-27 14:58:22.271336,-3523
2021-12-27 14:58:22.271343,4081
2021-12-27 14:58:22.271350,-4107
2021-12-27 14:58:22.271357,-1529
2021-12-27 14:58:22.271364,-2423
2021-12-27 14:58:22.271371,-5476
2021-12-27 14:58:22.271378,4385
2021-12-27 14:58:22.271384,-884
2021-12-27 14:58:22.271391,738
2021-12-27 14:58:22.271398,3041
2021-12-27 14:58:22.271405,-7106
2021-12-27 14:58:22.271412,-742
2021-12-27 14:58:22.271419,527
2021-12-27 14:58:22.271426,666
2021-12-27 14:58:22.271433,3717
2021-12-27 14:58:22.271439,-7858
2021-12-27 14:58:22.271446,-3781
2021-12-27 14:58:22.271453,958
2021-12-27 14:58:22.271460,-1306
2021-12-27 14:58:22.271476,-419
2021-12-27 14:58:22.271483,1775
2021-12-27 14:58:22.271490,4115
2021-12-27 14:58:22.271497,-4769
2021-12-27 14:58:22.271504,3065
2021-12-27 14:58:22.271511,2307
2021-12-27 14:58:22.271517,-596
2021-12-27 14:58:22.465444,2650
2021-12-27 14:58:22.465482,-4680
2021-12-27 14:58:22.465490,855
2021-12-27 14:58:22.465497,1018
2021-12-27 14:58:22.465504,-1574
2021-12-27 14:58:22.465515,-402
2021-12-27 14:58:22.465522,903
2021-12-27 14:58:22.465529,2437
2021-12-27 14:58:22.465536,-6847
2021-12-27 14:58:22.465543,4182
2021-12-27 14:58:22.465550,3606
2021-12-27 14:58:22.465557,-862
2021-12-27 14:58:22.465567,-5989
2021-12-27 14:58:22.465574,-6432
2021-12-27 14:58:22.465581,57
2021-12-27 14:58:22.465588,1114
2021-12-27 14:58:22.465598,-2003
2021-12-27 14:58:22.465605,143
2021-12-27 14:58:22.465612,2216
2021-12-27 14:58:22.465619,-3877
2021-12-27 14:58:22.465630,2017
2021-12-27 14:58:22.465637,-1337
2021-12-27 14:58:22.465647,-3571
2021-12-27 14:58:22.465654,913
2021-12-27 14:58:22.465661,2351
2021-12-27 14:58:22.709985,-3796
2021-12-27 14:58:22.710013,2976
2021-12-27 14:58:22.710022,-5632
2021-12-27 14:58:22.710029,-7312
2021-12-27 14:58:22.710035,-637
2021-12-27 14:58:22.710042,-3860
2021-12-27 14:58:22.710049,4318
2021-12-27 14:58:22.710056,1001
2021-12-27 14:58:22.710062,-2799
2021-12-27 14:58:22.710069,3058
2021-12-27 14:58:22.710076,-5533
2021-12-27 14:58:22.710082,-1073
2021-12-27 14:58:22.710089,3693
2021-12-27 14:58:22.710096,-953
2021-12-27 14:58:22.710102,3698
2021-12-27 14:58:22.710109,-1749
2021-12-27 14:58:22.710116,-98
2021-12-27 14:58:22.710123,3185
2021-12-27 14:58:22.710129,-2609
2021-12-27 14:58:22.710140,824
2021-12-27 14:58:22.710147,-2391
2021-12-27 14:58:22.710157,-5449
2021-12-27 14:58:22.710163,-4721
2021-12-27 14:58:22.710170,2856
2021-12-27 14:58:22.710177,-532
2021-12-27 14:58:22.710184,2794
2021-12-27 14:58:22.710190,-973
2021-12-27 14:58:22.710197,929
2021-12-27 14:58:23.000226,3544
2021-12-27 14:58:23.000245,-2176
2021-12-27 14:58:23.000251,4522
2021-12-27 14:58:23.000256,-419
2021-12-27 14:58:23.000261,-4488
2021-12-27 14:58:23.000265,1298
2021-12-27 14:58:23.000270,-4606
2021-12-27 14:58:23.000274,2852
2021-12-27 14:58:23.000279,3539
2021-12-27 14:58:23.000284,-5694
2021-12-27 14:58:23.000289,2636
2021-12-27 14:58:23.000293,-1476
2021-12-27 14:58:23.000298,-4570
2021-12-27 14:58:23.000302,1133
2021-12-27 14:58:23.000307,-1584
2021-12-27 14:58:23.000311,3693
2021-12-27 14:58:23.000316,953
2021-12-27 14:58:23.000321,-515
2021-12-27 14:58:23.000325,4635
2021-12-27 14:58:23.000330,-3295
2021-12-27 14:58:23.000334,1965
2021-12-27 14:58:23.000339,3357
2021-12-27 14:58:23.000343,-2142
2021-12-27 14:58:23.000350,-2310
2021-12-27 14:58:23.000355,-3566
2021-12-27 14:58:23.000360,2957
2021-12-27 14:58:23.000364,-4838
2021-12-27 14:58:23.000369,1629
2021-12-27 14:58:23.000373,2113
2021-12-27 14:58:23.148336,-2063
2021-12-27 14:58:23.148364,2609
2021-12-27 14:58:23.148373,-3808
2021-12-27 14:58:23.148381,1219
2021-12-27 14:58:23.148387,3659
2021-12-27 14:58:23.148395,-2840
2021-12-27 14:58:23.148401,1356
2021-12-27 14:58:23.148408,-6808
2021-12-27 14:58:23.148415,-4707
2021-12-27 14:58:23.148422,4855
2021-12-27 14:58:23.148429,-1322
2021-12-27 14:58:23.148436,3803
2021-12-27 14:58:23.148442,1950
2021-12-27 14:58:23.148449,-4479
2021-12-27 14:58:23.148456,-1102
2021-12-27 14:58:23.148463,-3388
2021-12-27 14:58:23.148470,4855
2021-12-27 14:58:23.148476,4261
2021-12-27 14:58:23.148483,-2796
2021-12-27 14:58:23.148494,-1267
2021-12-27 14:58:23.148500,-1641
2021-12-27 14:58:23.148511,-965
2021-12-27 14:58:23.148518,3880
2021-12-27 14:58:23.148524,2144
2021-12-27 14:58:23.148532,-3765
2021-12-27 14:58:23.148539,2240
2021-12-27 14:58:23.148546,-4687
2021-12-27 14:58:23.148553,-3738
2021-12-27 14:58:23.440346,2020
2021-12-27 14:58:23.440366,275
2021-12-27 14:58:23.440370,1955
2021-12-27 14:58:23.440374,-6133
2021-12-27 14:58:23.440378,289
2021-12-27 14:58:23.440383,-2597
2021-12-27 14:58:23.440386,3233
2021-12-27 14:58:23.440390,-1337
2021-12-27 14:58:23.440394,-9946
2021-12-27 14:58:23.440397,2753
2021-12-27 14:58:23.440401,2286
2021-12-27 14:58:23.440405,2624
2021-12-27 14:58:23.440408,3060
2021-12-27 14:58:23.440412,-2794
2021-12-27 14:58:23.440416,2741
2021-12-27 14:58:23.440419,-893
2021-12-27 14:58:23.440423,1636
2021-12-27 14:58:23.440428,-2322
2021-12-27 14:58:23.440431,3137
2021-12-27 14:58:23.440435,824
2021-12-27 14:58:23.440438,-2547
2021-12-27 14:58:23.440443,-119
2021-12-27 14:58:23.440447,2080
2021-12-27 14:58:23.440450,3959
2021-12-27 14:58:23.440454,-4488
2021-12-27 14:58:23.440457,800
2021-12-27 14:58:23.440461,-1485
2021-12-27 14:58:23.684684,1056
2021-12-27 14:58:23.684750,-4141
2021-12-27 14:58:23.684758,1711
2021-12-27 14:58:23.684766,-273
2021-12-27 14:58:23.684773,-5260
2021-12-27 14:58:23.684784,261
2021-12-27 14:58:23.684791,4
2021-12-27 14:58:23.684798,1893
2021-12-27 14:58:23.684805,-4620
2021-12-27 14:58:23.684812,2058
2021-12-27 14:58:23.684819,-591
2021-12-27 14:58:23.684827,-2094
2021-12-27 14:58:23.684834,1713
2021-12-27 14:58:23.684841,-5229
2021-12-27 14:58:23.684848,-436
2021-12-27 14:58:23.684855,-2097
2021-12-27 14:58:23.684862,-4112
2021-12-27 14:58:23.684873,-2137
2021-12-27 14:58:23.684879,-476
2021-12-27 14:58:23.684887,3851
2021-12-27 14:58:23.684894,-3693
2021-12-27 14:58:23.684901,2411
2021-12-27 14:58:23.684908,575
2021-12-27 14:58:23.684915,-683
2021-12-27 14:58:23.684922,3477
2021-12-27 14:58:23.684929,-2039
2021-12-27 14:58:23.684936,3436
2021-12-27 14:58:23.928490,805
2021-12-27 14:58:23.928511,-2288
2021-12-27 14:58:23.928543,-2499
2021-12-27 14:58:23.928564,-2612
2021-12-27 14:58:23.928570,-3283
2021-12-27 14:58:23.928574,-9136
2021-12-27 14:58:23.928579,2751
2021-12-27 14:58:23.928584,961
2021-12-27 14:58:23.928588,-920
2021-12-27 14:58:23.928595,-1675
2021-12-27 14:58:23.928600,730
2021-12-27 14:58:23.928604,-606
2021-12-27 14:58:23.928609,-2180
2021-12-27 14:58:23.928615,-932
2021-12-27 14:58:23.928620,2200
2021-12-27 14:58:23.928624,3153
2021-12-27 14:58:23.928629,-6506
2021-12-27 14:58:23.928633,2828
2021-12-27 14:58:23.928638,1787
2021-12-27 14:58:23.928642,35
2021-12-27 14:58:23.928649,-1996
2021-12-27 14:58:23.928654,1502
2021-12-27 14:58:23.928658,1191
2021-12-27 14:58:23.928663,-1600
2021-12-27 14:58:23.928669,-270
2021-12-27 14:58:24.171819,1605
2021-12-27 14:58:24.171841,4004
2021-12-27 14:58:24.171847,-4546
2021-12-27 14:58:24.171852,3491
2021-12-27 14:58:24.171857,2171
2021-12-27 14:58:24.171862,306
2021-12-27 14:58:24.171869,-4723
2021-12-27 14:58:24.171873,-3662
2021-12-27 14:58:24.171878,-91
2021-12-27 14:58:24.171883,714
2021-12-27 14:58:24.171890,-1404
2021-12-27 14:58:24.171894,1531
2021-12-27 14:58:24.171899,2413
2021-12-27 14:58:24.171903,-6202
2021-12-27 14:58:24.171910,3091
2021-12-27 14:58:24.171915,-1011
2021-12-27 14:58:24.171919,4881
2021-12-27 14:58:24.171924,-5744
2021-12-27 14:58:24.171928,-3029
2021-12-27 14:58:24.171933,3247
2021-12-27 14:58:24.171937,771
2021-12-27 14:58:24.171942,4901
2021-12-27 14:58:24.171946,-1030
2021-12-27 14:58:24.171951,-232
2021-12-27 14:58:24.171956,1294
2021-12-27 14:58:24.171960,-2732
2021-12-27 14:58:24.318330,1334
2021-12-27 14:58:24.318360,-1102
2021-12-27 14:58:24.318369,4064
2021-12-27 14:58:24.318377,-7281
2021-12-27 14:58:24.318384,-949
2021-12-27 14:58:24.318391,4994
2021-12-27 14:58:24.318398,-778
2021-12-27 14:58:24.318405,4409
2021-12-27 14:58:24.318412,-913
2021-12-27 14:58:24.318419,-711
2021-12-27 14:58:24.318426,55
2021-12-27 14:58:24.318433,-6008
2021-12-27 14:58:24.318443,2413
2021-12-27 14:58:24.318456,-3185
2021-12-27 14:58:24.318463,3499
2021-12-27 14:58:24.318470,-3578
2021-12-27 14:58:24.318477,-112
2021-12-27 14:58:24.318484,2991
2021-12-27 14:58:24.318524,-711
2021-12-27 14:58:24.318531,4318
2021-12-27 14:58:24.318538,-3309
2021-12-27 14:58:24.318544,-3666
2021-12-27 14:58:24.318551,1303
2021-12-27 14:58:24.318558,-1270
2021-12-27 14:58:24.318568,-74
2021-12-27 14:58:24.318575,-2097
2021-12-27 14:58:24.318586,-2804
2021-12-27 14:58:24.561946,2576
2021-12-27 14:58:24.561976,4081
2021-12-27 14:58:24.561985,-3434
2021-12-27 14:58:24.561992,3590
2021-12-27 14:58:24.562000,-2466
2021-12-27 14:58:24.562007,-4460
2021-12-27 14:58:24.562014,2212
2021-12-27 14:58:24.562021,-436
2021-12-27 14:58:24.562028,3748
2021-12-27 14:58:24.562035,-644
2021-12-27 14:58:24.562042,-1562
2021-12-27 14:58:24.562050,2363
2021-12-27 14:58:24.562057,-5766
2021-12-27 14:58:24.562064,3482
2021-12-27 14:58:24.562072,4369
2021-12-27 14:58:24.562079,-4076
2021-12-27 14:58:24.562090,603
2021-12-27 14:58:24.562096,-2720
2021-12-27 14:58:24.562104,814
2021-12-27 14:58:24.562110,-2873
2021-12-27 14:58:24.562117,4311
2021-12-27 14:58:24.562124,1191
2021-12-27 14:58:24.562131,-1785
2021-12-27 14:58:24.562138,3822
2021-12-27 14:58:24.562145,-2506
2021-12-27 14:58:24.562152,2125
2021-12-27 14:58:24.562159,2351
2021-12-27 14:58:24.562166,-2216
2021-12-27 14:58:24.805890,-1318
2021-12-27 14:58:24.805919,-817
2021-12-27 14:58:24.805928,4716
2021-12-27 14:58:24.805935,-3084
2021-12-27 14:58:24.805942,3911
2021-12-27 14:58:24.805949,1998
2021-12-27 14:58:24.805956,-5426
2021-12-27 14:58:24.805963,-848
2021-12-27 14:58:24.805970,-2813
2021-12-27 14:58:24.805977,3194
2021-12-27 14:58:24.805984,2895
2021-12-27 14:58:24.805990,-2219
2021-12-27 14:58:24.805997,4323
2021-12-27 14:58:24.806004,-5145
2021-12-27 14:58:24.806011,-6674
2021-12-27 14:58:24.806018,-716
2021-12-27 14:58:24.806025,-6195
2021-12-27 14:58:24.806032,2787
2021-12-27 14:58:24.806038,1370
2021-12-27 14:58:24.806045,-4450
2021-12-27 14:58:24.806052,342
2021-12-27 14:58:24.806059,-5020
2021-12-27 14:58:24.806066,2327
2021-12-27 14:58:24.806073,4378
2021-12-27 14:58:24.806080,-3082
2021-12-27 14:58:24.806087,3815
2021-12-27 14:58:24.806094,-1972
2021-12-27 14:58:24.806100,-1121
2021-12-27 14:58:24.806107,4635
2021-12-27 14:58:24.806114,-4546
2021-12-27 14:58:25.048073,1358
2021-12-27 14:58:25.048101,-603
2021-12-27 14:58:25.048110,-7328
2021-12-27 14:58:25.048118,1224
2021-12-27 14:58:25.048125,-735
2021-12-27 14:58:25.048132,2001
2021-12-27 14:58:25.048139,2159
2021-12-27 14:58:25.048146,-3959
2021-12-27 14:58:25.048153,-663
2021-12-27 14:58:25.048160,-6200
2021-12-27 14:58:25.048167,699
2021-12-27 14:58:25.048178,-3896
2021-12-27 14:58:25.048185,3036
2021-12-27 14:58:25.048192,-853
2021-12-27 14:58:25.048199,-7542
2021-12-27 14:58:25.048206,4618
2021-12-27 14:58:25.048213,968
2021-12-27 14:58:25.048220,1339
2021-12-27 14:58:25.048227,3065
2021-12-27 14:58:25.048234,-3846
2021-12-27 14:58:25.048241,1032
2021-12-27 14:58:25.048248,-2988
2021-12-27 14:58:25.048254,-1663
2021-12-27 14:58:25.048261,4865
2021-12-27 14:58:25.048268,-1701
2021-12-27 14:58:25.048275,2468
2021-12-27 14:58:25.048282,-299
2021-12-27 14:58:25.048289,-2065
2021-12-27 14:58:25.244558,-929
2021-12-27 14:58:25.244586,1732
2021-12-27 14:58:25.244595,3316
2021-12-27 14:58:25.244602,-7065
2021-12-27 14:58:25.244609,-886
2021-12-27 14:58:25.244616,445
2021-12-27 14:58:25.244623,2245
2021-12-27 14:58:25.244630,4594
2021-12-27 14:58:25.244637,-3530
2021-12-27 14:58:25.244644,1555
2021-12-27 14:58:25.244651,-1502
2021-12-27 14:58:25.244658,-3314
2021-12-27 14:58:25.244668,-704
2021-12-27 14:58:25.244675,148
2021-12-27 14:58:25.244682,2832
2021-12-27 14:58:25.244689,-3307
2021-12-27 14:58:25.244696,4122
2021-12-27 14:58:25.244703,1037
2021-12-27 14:58:25.244710,615
2021-12-27 14:58:25.244716,3983
2021-12-27 14:58:25.244723,-8249
2021-12-27 14:58:25.244730,-4692
2021-12-27 14:58:25.244737,179
2021-12-27 14:58:25.244744,-2142
2021-12-27 14:58:25.244751,1236
2021-12-27 14:58:25.244758,-2844
2021-12-27 14:58:25.244765,2911
2021-12-27 14:58:25.244772,3599
2021-12-27 14:58:25.244779,-3820
2021-12-27 14:58:25.488030,1363
2021-12-27 14:58:25.488047,-1428
2021-12-27 14:58:25.488052,3880
2021-12-27 14:58:25.488057,-2425
2021-12-27 14:58:25.488062,-282
2021-12-27 14:58:25.488066,-3264
2021-12-27 14:58:25.488071,-3753
2021-12-27 14:58:25.488075,4079
2021-12-27 14:58:25.488080,-3259
2021-12-27 14:58:25.488084,1574
2021-12-27 14:58:25.488089,2540
2021-12-27 14:58:25.488093,-7029
2021-12-27 14:58:25.488098,3755
2021-12-27 14:58:25.488102,1612
2021-12-27 14:58:25.488107,-1838
2021-12-27 14:58:25.488111,4913
2021-12-27 14:58:25.488116,-1982
2021-12-27 14:58:25.488121,1032
2021-12-27 14:58:25.488125,1253
2021-12-27 14:58:25.488130,-1763
2021-12-27 14:58:25.488134,3865
2021-12-27 14:58:25.488139,-3340
2021-12-27 14:58:25.488143,-261
2021-12-27 14:58:25.488148,1574
2021-12-27 14:58:25.488152,-7005
2021-12-27 14:58:25.488157,-361
2021-12-27 14:58:25.488161,-3626
2021-12-27 14:58:25.488166,-1684
2021-12-27 14:58:25.731801,-4122
2021-12-27 14:58:25.731828,333
2021-12-27 14:58:25.731837,1687
2021-12-27 14:58:25.731845,-2564
2021-12-27 14:58:25.731852,4973
2021-12-27 14:58:25.731859,-577
2021-12-27 14:58:25.731866,-402
2021-12-27 14:58:25.731873,-611
2021-12-27 14:58:25.731880,-6288
2021-12-27 14:58:25.731887,4774
2021-12-27 14:58:25.731894,1663
2021-12-27 14:58:25.731901,-793
2021-12-27 14:58:25.731908,4932
2021-12-27 14:58:25.731915,-5567
2021-12-27 14:58:25.731922,-2288
2021-12-27 14:58:25.731929,2130
2021-12-27 14:58:25.731936,74
2021-12-27 14:58:25.731946,-985
2021-12-27 14:58:25.731953,613
2021-12-27 14:58:25.731961,2029
2021-12-27 14:58:25.731968,-3501
2021-12-27 14:58:25.731979,1747
2021-12-27 14:58:25.731986,-690
2021-12-27 14:58:25.731996,-4146
2021-12-27 14:58:25.732004,-2437
2021-12-27 14:58:25.732010,-4361
2021-12-27 14:58:25.732017,-6384
2021-12-27 14:58:25.926969,69
2021-12-27 14:58:25.926983,-2629
2021-12-27 14:58:25.926989,1620
2021-12-27 14:58:25.926993,-987
2021-12-27 14:58:25.927000,869
2021-12-27 14:58:25.927005,-467
2021-12-27 14:58:25.927010,3604
2021-12-27 14:58:25.927014,-6470
2021-12-27 14:58:25.927019,2195
2021-12-27 14:58:25.927025,-1881
2021-12-27 14:58:25.927032,-2473
2021-12-27 14:58:25.927036,-5164
2021-12-27 14:58:25.927041,1488
2021-12-27 14:58:25.927045,222
2021-12-27 14:58:25.927052,227
2021-12-27 14:58:25.927056,-1795
2021-12-27 14:58:25.927061,3343
2021-12-27 14:58:25.927065,-3046
2021-12-27 14:58:25.927070,4167
2021-12-27 14:58:25.927074,4110
2021-12-27 14:58:25.927079,-2260
2021-12-27 14:58:25.927085,-1986
2021-12-27 14:58:25.927090,-603
2021-12-27 14:58:26.170753,-4062
2021-12-27 14:58:26.170781,208
2021-12-27 14:58:26.170790,-14
2021-12-27 14:58:26.170798,-2010
2021-12-27 14:58:26.170805,541
2021-12-27 14:58:26.170812,-4759
2021-12-27 14:58:26.170819,4783
2021-12-27 14:58:26.170826,4177
2021-12-27 14:58:26.170833,-4179
2021-12-27 14:58:26.170841,3913
2021-12-27 14:58:26.170848,-2799
2021-12-27 14:58:26.170855,-2928
2021-12-27 14:58:26.170862,4965
2021-12-27 14:58:26.170869,-659
2021-12-27 14:58:26.170876,2935
2021-12-27 14:58:26.170883,35
2021-12-27 14:58:26.170890,-1356
2021-12-27 14:58:26.170897,4127
2021-12-27 14:58:26.170904,-2178
2021-12-27 14:58:26.170911,3774
2021-12-27 14:58:26.170918,3058
2021-12-27 14:58:26.170925,-3201
2021-12-27 14:58:26.170936,-673
2021-12-27 14:58:26.170944,-189
2021-12-27 14:58:26.170954,-2744
2021-12-27 14:58:26.170961,2878
2021-12-27 14:58:26.170968,1737
2021-12-27 14:58:26.170975,-1742
2021-12-27 14:58:26.414513,3748
2021-12-27 14:58:26.414540,-1737
2021-12-27 14:58:26.414549,-76
2021-12-27 14:58:26.414556,-3887
2021-12-27 14:58:26.414564,-9310
2021-12-27 14:58:26.414571,-43
2021-12-27 14:58:26.414578,-3393
2021-12-27 14:58:26.414585,117
2021-12-27 14:58:26.414592,4807
2021-12-27 14:58:26.414599,-3221
2021-12-27 14:58:26.414606,4383
2021-12-27 14:58:26.414613,939
2021-12-27 14:58:26.414620,-6171
2021-12-27 14:58:26.414627,1859
2021-12-27 14:58:26.414634,-697
2021-12-27 14:58:26.414641,2458
2021-12-27 14:58:26.414648,2219
2021-12-27 14:58:26.414655,-4160
2021-12-27 14:58:26.414662,1416
2021-12-27 14:58:26.414669,-2442
2021-12-27 14:58:26.414676,-35
2021-12-27 14:58:26.414683,3606
2021-12-27 14:58:26.414690,-2875
2021-12-27 14:58:26.414697,4742
2021-12-27 14:58:26.414704,855
2021-12-27 14:58:26.414711,-3374
2021-12-27 14:58:26.414718,4498
2021-12-27 14:58:26.414726,-1881
2021-12-27 14:58:26.414733,2228
2021-12-27 14:58:26.414745,4014
2021-12-27 14:58:26.658120,-2758
2021-12-27 14:58:26.658148,2825
2021-12-27 14:58:26.658157,-3875
2021-12-27 14:58:26.658164,-2813
2021-12-27 14:58:26.658171,2274
2021-12-27 14:58:26.658178,-7259
2021-12-27 14:58:26.658185,316
2021-12-27 14:58:26.658192,-1121
2021-12-27 14:58:26.658200,-7767
2021-12-27 14:58:26.658207,2113
2021-12-27 14:58:26.658214,-110
2021-12-27 14:58:26.658221,1864
2021-12-27 14:58:26.658228,2233
2021-12-27 14:58:26.658236,-5310
2021-12-27 14:58:26.658243,-1689
2021-12-27 14:58:26.658250,-3446
2021-12-27 14:58:26.658257,2243
2021-12-27 14:58:26.658268,-3470
2021-12-27 14:58:26.658275,3791
2021-12-27 14:58:26.658282,23
2021-12-27 14:58:26.658289,-4050
2021-12-27 14:58:26.658300,-261
2021-12-27 14:58:26.658307,1692
2021-12-27 14:58:26.658314,3566
2021-12-27 14:58:26.658321,-4347
2021-12-27 14:58:26.658328,2104
2021-12-27 14:58:26.658335,656
2021-12-27 14:58:26.658342,1692
2021-12-27 14:58:26.853547,4913
2021-12-27 14:58:26.853575,-2458
2021-12-27 14:58:26.853584,1008
2021-12-27 14:58:26.853591,-3851
2021-12-27 14:58:26.853598,-2904
2021-12-27 14:58:26.853609,-3808
2021-12-27 14:58:26.853616,-3319
2021-12-27 14:58:26.853623,2025
2021-12-27 14:58:26.853630,-6885
2021-12-27 14:58:26.853637,-2626
2021-12-27 14:58:26.853644,301
2021-12-27 14:58:26.853651,3443
2021-12-27 14:58:26.853658,3851
2021-12-27 14:58:26.853664,-6260
2021-12-27 14:58:26.853671,-2689
2021-12-27 14:58:26.853678,-3022
2021-12-27 14:58:26.853685,-946
2021-12-27 14:58:26.853695,-2454
2021-12-27 14:58:26.853702,510
2021-12-27 14:58:26.853709,2408
2021-12-27 14:58:26.853716,-3978
2021-12-27 14:58:26.853727,1171
2021-12-27 14:58:26.853734,-23
2021-12-27 14:58:26.853741,4505
2021-12-27 14:58:26.853748,-3470
2021-12-27 14:58:26.853755,1878
2021-12-27 14:58:26.853762,-81
2021-12-27 14:58:27.144451,-3525
2021-12-27 14:58:27.144480,4325
2021-12-27 14:58:27.144489,-4745
2021-12-27 14:58:27.144496,-2588
2021-12-27 14:58:27.144503,1191
2021-12-27 14:58:27.144510,-5922
2021-12-27 14:58:27.144518,3237
2021-12-27 14:58:27.144525,881
2021-12-27 14:58:27.144532,-4242
2021-12-27 14:58:27.144539,-1291
2021-12-27 14:58:27.144546,-5701
2021-12-27 14:58:27.144553,-556
2021-12-27 14:58:27.144560,-716
2021-12-27 14:58:27.144567,-359
2021-12-27 14:58:27.144578,-3189
2021-12-27 14:58:27.144585,1711
2021-12-27 14:58:27.144592,3827
2021-12-27 14:58:27.144599,-3781
2021-12-27 14:58:27.144609,747
2021-12-27 14:58:27.144616,-1457
2021-12-27 14:58:27.144626,-2319
2021-12-27 14:58:27.144633,1888
2021-12-27 14:58:27.144640,2681
2021-12-27 14:58:27.144647,-1617
2021-12-27 14:58:27.144654,4297
2021-12-27 14:58:27.144661,-596
2021-12-27 14:58:27.144668,2034
2021-12-27 14:58:27.341178,2768
2021-12-27 14:58:27.341206,-2796
2021-12-27 14:58:27.341219,-239
2021-12-27 14:58:27.341226,-35
2021-12-27 14:58:27.341237,-6051
2021-12-27 14:58:27.341244,-505
2021-12-27 14:58:27.341251,3360
2021-12-27 14:58:27.341258,-1210
2021-12-27 14:58:27.341266,3417
2021-12-27 14:58:27.341273,-3532
2021-12-27 14:58:27.341280,-2677
2021-12-27 14:58:27.341287,-1126
2021-12-27 14:58:27.341294,-8596
2021-12-27 14:58:27.341301,-2293
2021-12-27 14:58:27.341308,-479
2021-12-27 14:58:27.341315,2796
2021-12-27 14:58:27.341322,4764
2021-12-27 14:58:27.341329,-4225
2021-12-27 14:58:27.341336,2981
2021-12-27 14:58:27.341343,2655
2021-12-27 14:58:27.341351,-1481
2021-12-27 14:58:27.341361,-810
2021-12-27 14:58:27.341368,-390
2021-12-27 14:58:27.341375,2720
2021-12-27 14:58:27.341382,-2192
2021-12-27 14:58:27.341393,1473
2021-12-27 14:58:27.535000,-131
2021-12-27 14:58:27.535031,-4031
2021-12-27 14:58:27.535038,2025
2021-12-27 14:58:27.535046,4028
2021-12-27 14:58:27.535053,-910
2021-12-27 14:58:27.535064,-2923
2021-12-27 14:58:27.535071,-5229
2021-12-27 14:58:27.535078,575
2021-12-27 14:58:27.535085,76
2021-12-27 14:58:27.535095,-1807
2021-12-27 14:58:27.535102,-4771
2021-12-27 14:58:27.535109,316
2021-12-27 14:58:27.535115,-5632
2021-12-27 14:58:27.535122,4153
2021-12-27 14:58:27.535129,4579
2021-12-27 14:58:27.535136,-2358
2021-12-27 14:58:27.535147,-1989
2021-12-27 14:58:27.535153,-1751
2021-12-27 14:58:27.535160,4826
2021-12-27 14:58:27.535167,-587
2021-12-27 14:58:27.535174,4637
2021-12-27 14:58:27.535181,225
2021-12-27 14:58:27.535188,-4651
2021-12-27 14:58:27.535195,50
2021-12-27 14:58:27.535202,-2281
2021-12-27 14:58:27.535209,4695
2021-12-27 14:58:27.779803,2219
2021-12-27 14:58:27.779831,-2602
2021-12-27 14:58:27.779840,4136
2021-12-27 14:58:27.779847,-5929
2021-12-27 14:58:27.779854,-3156
2021-12-27 14:58:27.779865,-1241
2021-12-27 14:58:27.779872,3431
2021-12-27 14:58:27.779879,124
2021-12-27 14:58:27.779886,-4925
2021-12-27 14:58:27.779893,-848
2021-12-27 14:58:27.779900,-4421
2021-12-27 14:58:27.779907,2461
2021-12-27 14:58:27.779914,409
2021-12-27 14:58:27.779921,-8836
2021-12-27 14:58:27.779928,-2677
2021-12-27 14:58:27.779935,-3721
2021-12-27 14:58:27.779942,910
2021-12-27 14:58:27.779949,3592
2021-12-27 14:58:27.779956,-4289
2021-12-27 14:58:27.779963,-1855
2021-12-27 14:58:27.779970,-7187
2021-12-27 14:58:27.779976,-2638
2021-12-27 14:58:27.779987,-2919
2021-12-27 14:58:27.779994,2701
2021-12-27 14:58:27.780001,3134
2021-12-27 14:58:27.780008,-3297
2021-12-27 14:58:27.780015,4534
2021-12-27 14:58:27.780022,-1020
2021-12-27 14:58:28.022875,850
2021-12-27 14:58:28.022897,-3460
2021-12-27 14:58:28.022902,2852
2021-12-27 14:58:28.022907,-944
2021-12-27 14:58:28.022912,-7702
2021-12-27 14:58:28.022916,572
2021-12-27 14:58:28.022921,-14
2021-12-27 14:58:28.022925,2540
2021-12-27 14:58:28.022930,256
2021-12-27 14:58:28.022935,-2470
2021-12-27 14:58:28.022939,2816
2021-12-27 14:58:28.022944,-5023
2021-12-27 14:58:28.022948,1248
2021-12-27 14:58:28.022955,-4318
2021-12-27 14:58:28.022960,2780
2021-12-27 14:58:28.022964,-1296
2021-12-27 14:58:28.022969,-4079
2021-12-27 14:58:28.022976,-3868
2021-12-27 14:58:28.022980,-1313
2021-12-27 14:58:28.022985,2053
2021-12-27 14:58:28.022989,-4517
2021-12-27 14:58:28.022994,1445
2021-12-27 14:58:28.022998,-1351
2021-12-27 14:58:28.023003,-26
2021-12-27 14:58:28.023007,2672
2021-12-27 14:58:28.023012,-2672
2021-12-27 14:58:28.023017,4831
2021-12-27 14:58:28.266970,100
2021-12-27 14:58:28.266998,-2655
2021-12-27 14:58:28.267011,-2454
2021-12-27 14:58:28.267018,2408
2021-12-27 14:58:28.267026,3932
2021-12-27 14:58:28.267033,-5646
2021-12-27 14:58:28.267040,-963
2021-12-27 14:58:28.267047,-1883
2021-12-27 14:58:28.267054,1922
2021-12-27 14:58:28.267061,4747
2021-12-27 14:58:28.267069,-2212
2021-12-27 14:58:28.267076,3928
2021-12-27 14:58:28.267083,-1634
2021-12-27 14:58:28.267089,-4364
2021-12-27 14:58:28.267100,-443
2021-12-27 14:58:28.267107,2600
2021-12-27 14:58:28.267114,1011
2021-12-27 14:58:28.267121,-9020
2021-12-27 14:58:28.267128,184
2021-12-27 14:58:28.267135,563
2021-12-27 14:58:28.267142,1454
2021-12-27 14:58:28.267149,4249
2021-12-27 14:58:28.267156,-2125
2021-12-27 14:58:28.267163,1828
2021-12-27 14:58:28.267170,-4848
2021-12-27 14:58:28.267177,-4071
2021-12-27 14:58:28.267187,-915
2021-12-27 14:58:28.461908,1684
2021-12-27 14:58:28.461936,3714
2021-12-27 14:58:28.461945,-4707
2021-12-27 14:58:28.461952,1286
2021-12-27 14:58:28.461959,-1442
2021-12-27 14:58:28.461966,2
2021-12-27 14:58:28.461973,2698
2021-12-27 14:58:28.461980,-5809
2021-12-27 14:58:28.461987,-1651
2021-12-27 14:58:28.461994,-4237
2021-12-27 14:58:28.462001,-1445
2021-12-27 14:58:28.462012,-2667
2021-12-27 14:58:28.462019,1526
2021-12-27 14:58:28.462026,1049
2021-12-27 14:58:28.462033,-8076
2021-12-27 14:58:28.462040,3882
2021-12-27 14:58:28.462047,2375
2021-12-27 14:58:28.462054,139
2021-12-27 14:58:28.462061,4280
2021-12-27 14:58:28.462068,-4527
2021-12-27 14:58:28.462075,-1291
2021-12-27 14:58:28.462082,299
2021-12-27 14:58:28.462089,1124
2021-12-27 14:58:28.462099,-2056
2021-12-27 14:58:28.462106,1692
2021-12-27 14:58:28.462113,1893
2021-12-27 14:58:28.462120,-3257
2021-12-27 14:58:28.705856,1080
2021-12-27 14:58:28.705885,213
2021-12-27 14:58:28.705894,4656
2021-12-27 14:58:28.705901,-6224
2021-12-27 14:58:28.705908,-1883
2021-12-27 14:58:28.705915,1538
2021-12-27 14:58:28.705922,1270
2021-12-27 14:58:28.705933,-2521
2021-12-27 14:58:28.705940,647
2021-12-27 14:58:28.705947,680
2021-12-27 14:58:28.705954,-4278
2021-12-27 14:58:28.705964,1327
2021-12-27 14:58:28.705971,-1390
2021-12-27 14:58:28.705978,4026
2021-12-27 14:58:28.705985,-2720
2021-12-27 14:58:28.705992,2981
2021-12-27 14:58:28.705999,2655
2021-12-27 14:58:28.706006,-273
2021-12-27 14:58:28.706016,-2058
2021-12-27 14:58:28.706023,1414
2021-12-27 14:58:28.706031,1682
2021-12-27 14:58:28.706038,-3575
2021-12-27 14:58:28.706048,86
2021-12-27 14:58:28.706055,-1771
2021-12-27 14:58:28.706066,-2353
2021-12-27 14:58:28.949582,2123
2021-12-27 14:58:28.949610,-1308
2021-12-27 14:58:28.949619,-6595
2021-12-27 14:58:28.949626,4203
2021-12-27 14:58:28.949633,-107
2021-12-27 14:58:28.949641,-2343
2021-12-27 14:58:28.949648,-1751
2021-12-27 14:58:28.949654,-1380
2021-12-27 14:58:28.949665,-1727
2021-12-27 14:58:28.949672,191
2021-12-27 14:58:28.949679,4989
2021-12-27 14:58:28.949686,-6348
2021-12-27 14:58:28.949693,2298
2021-12-27 14:58:28.949700,3736
2021-12-27 14:58:28.949707,-2375
2021-12-27 14:58:28.949714,4472
2021-12-27 14:58:28.949721,-3086
2021-12-27 14:58:28.949729,-2104
2021-12-27 14:58:28.949736,2403
2021-12-27 14:58:28.949743,-2418
2021-12-27 14:58:28.949750,3530
2021-12-27 14:58:28.949757,100
2021-12-27 14:58:28.949764,769
2021-12-27 14:58:28.949771,4038
2021-12-27 14:58:28.949778,-5636
2021-12-27 14:58:28.949785,1040
2021-12-27 14:58:28.949792,2156
2021-12-27 14:58:28.949799,-1171
2021-12-27 14:58:29.239944,-2063
2021-12-27 14:58:29.239962,-1176
2021-12-27 14:58:29.239967,278
2021-12-27 14:58:29.239971,-4905
2021-12-27 14:58:29.239975,3120
2021-12-27 14:58:29.239978,-2176
2021-12-27 14:58:29.239982,-3223
2021-12-27 14:58:29.239985,390
2021-12-27 14:58:29.239989,-7683
2021-12-27 14:58:29.239992,2250
2021-12-27 14:58:29.239995,3240
2021-12-27 14:58:29.239999,-2518
2021-12-27 14:58:29.240002,4424
2021-12-27 14:58:29.240006,-4690
2021-12-27 14:58:29.240010,-4745
2021-12-27 14:58:29.240013,2348
2021-12-27 14:58:29.240017,-493
2021-12-27 14:58:29.240020,4678
2021-12-27 14:58:29.240024,-50
2021-12-27 14:58:29.240027,-1047
2021-12-27 14:58:29.240030,2411
2021-12-27 14:58:29.240034,-3860
2021-12-27 14:58:29.240037,4654
2021-12-27 14:58:29.240041,3259
2021-12-27 14:58:29.240044,-2039
2021-12-27 14:58:29.240049,-3048
2021-12-27 14:58:29.240053,-3721
2021-12-27 14:58:29.240056,2461
2021-12-27 14:58:29.240060,-237
2021-12-27 14:58:29.388583,-278
2021-12-27 14:58:29.388604,-2684
2021-12-27 14:58:29.388612,2387
2021-12-27 14:58:29.388620,-1675
2021-12-27 14:58:29.388627,4810
2021-12-27 14:58:29.388634,-1056
2021-12-27 14:58:29.388641,-8160
2021-12-27 14:58:29.388648,2288
2021-12-27 14:58:29.388655,-3467
2021-12-27 14:58:29.388662,-448
2021-12-27 14:58:29.388673,-1394
2021-12-27 14:58:29.388681,4445
2021-12-27 14:58:29.388687,-1171
2021-12-27 14:58:29.388694,-6547
2021-12-27 14:58:29.388702,1068
2021-12-27 14:58:29.388709,158
2021-12-27 14:58:29.388719,1672
2021-12-27 14:58:29.388727,-2684
2021-12-27 14:58:29.388733,3988
2021-12-27 14:58:29.388740,-2125
2021-12-27 14:58:29.388747,2291
2021-12-27 14:58:29.388758,-2451
2021-12-27 14:58:29.388765,4242
2021-12-27 14:58:29.388772,498
2021-12-27 14:58:29.388779,-1485
2021-12-27 14:58:29.388786,2741
2021-12-27 14:58:29.728859,-3592
2021-12-27 14:58:29.728901,4452
2021-12-27 14:58:29.728909,1953
2021-12-27 14:58:29.728917,-7798
2021-12-27 14:58:29.728924,-1751
2021-12-27 14:58:29.728931,-3964
2021-12-27 14:58:29.728938,2420
2021-12-27 14:58:29.728945,4673
2021-12-27 14:58:29.728952,-4635
2021-12-27 14:58:29.728959,3014
2021-12-27 14:58:29.728966,-1514
2021-12-27 14:58:29.728973,-4790
2021-12-27 14:58:29.728980,4855
2021-12-27 14:58:29.728987,-373
2021-12-27 14:58:29.728994,1569
2021-12-27 14:58:29.729001,1143
2021-12-27 14:58:29.729008,-2207
2021-12-27 14:58:29.729015,3343
2021-12-27 14:58:29.729022,-3853
2021-12-27 14:58:29.729029,-249
2021-12-27 14:58:29.729036,2516
2021-12-27 14:58:29.729043,-6379
2021-12-27 14:58:29.729050,2473
2021-12-27 14:58:29.729057,371
2021-12-27 14:58:29.729064,-2451
2021-12-27 14:58:29.729071,4541
2021-12-27 14:58:29.729078,-2765
2021-12-27 14:58:29.729085,1195
2021-12-27 14:58:29.729092,2437
2021-12-27 14:58:29.729099,-3019
2021-12-27 14:58:29.875869,2073
2021-12-27 14:58:29.875897,-3976
2021-12-27 14:58:29.875905,-1536
2021-12-27 14:58:29.875913,3098
2021-12-27 14:58:29.875920,-2077
2021-12-27 14:58:29.875927,3158
2021-12-27 14:58:29.875934,-3355
2021-12-27 14:58:29.875941,-3209
2021-12-27 14:58:29.875951,-2751
2021-12-27 14:58:29.875958,2602
2021-12-27 14:58:29.875965,3784
2021-12-27 14:58:29.875972,-6370
2021-12-27 14:58:29.875979,-2633
2021-12-27 14:58:29.875986,-2602
2021-12-27 14:58:29.875994,2959
2021-12-27 14:58:29.876001,4340
2021-12-27 14:58:29.876008,-4095
2021-12-27 14:58:29.876015,299
2021-12-27 14:58:29.876022,-3573
2021-12-27 14:58:29.876029,-1893
2021-12-27 14:58:29.876040,-2540
2021-12-27 14:58:29.876046,3230
2021-12-27 14:58:29.876053,2396
2021-12-27 14:58:29.876060,-4956
2021-12-27 14:58:29.876067,3539
2021-12-27 14:58:29.876075,-438
2021-12-27 14:58:29.876082,1265
2021-12-27 14:58:30.070690,-2617
2021-12-27 14:58:30.070719,2638
2021-12-27 14:58:30.070728,-3125
2021-12-27 14:58:30.070735,-7427
2021-12-27 14:58:30.070742,1960
2021-12-27 14:58:30.070749,-2480
2021-12-27 14:58:30.070756,-397
2021-12-27 14:58:30.070763,-1828
2021-12-27 14:58:30.070770,-7163
2021-12-27 14:58:30.070778,2787
2021-12-27 14:58:30.070785,318
2021-12-27 14:58:30.070792,987
2021-12-27 14:58:30.070799,3966
2021-12-27 14:58:30.070805,-4949
2021-12-27 14:58:30.070813,-2212
2021-12-27 14:58:30.070820,-2600
2021-12-27 14:58:30.070827,1147
2021-12-27 14:58:30.070838,-2775
2021-12-27 14:58:30.070845,2818
2021-12-27 14:58:30.070852,1893
2021-12-27 14:58:30.070859,-4666
2021-12-27 14:58:30.070869,1248
2021-12-27 14:58:30.070876,613
2021-12-27 14:58:30.070883,4860
2021-12-27 14:58:30.070890,-3896
2021-12-27 14:58:30.070897,1469
2021-12-27 14:58:30.070904,1991
2021-12-27 14:58:30.070910,869
2021-12-27 14:58:30.314486,-1689
2021-12-27 14:58:30.314507,227
2021-12-27 14:58:30.314515,-2437
2021-12-27 14:58:30.314522,-5346
2021-12-27 14:58:30.314529,4285
2021-12-27 14:58:30.314536,-2154
2021-12-27 14:58:30.314543,1037
2021-12-27 14:58:30.314550,4687
2021-12-27 14:58:30.314557,-7662
2021-12-27 14:58:30.314564,373
2021-12-27 14:58:30.314571,3731
2021-12-27 14:58:30.314578,591
2021-12-27 14:58:30.314585,4714
2021-12-27 14:58:30.314592,-3865
2021-12-27 14:58:30.314599,-2617
2021-12-27 14:58:30.314607,162
2021-12-27 14:58:30.314614,-889
2021-12-27 14:58:30.314620,4287
2021-12-27 14:58:30.314627,-5713
2021-12-27 14:58:30.314634,-3115
2021-12-27 14:58:30.314641,4455
2021-12-27 14:58:30.314648,-3312
2021-12-27 14:58:30.314656,3465
2021-12-27 14:58:30.314663,2600
2021-12-27 14:58:30.314670,-663
2021-12-27 14:58:30.314677,4817
2021-12-27 14:58:30.314684,-2612
2021-12-27 14:58:30.314691,1195
2021-12-27 14:58:30.314698,1428
2021-12-27 14:58:30.557794,-4352
2021-12-27 14:58:30.557822,4115
2021-12-27 14:58:30.557830,-2662
2021-12-27 14:58:30.557838,-3477
2021-12-27 14:58:30.557845,1831
2021-12-27 14:58:30.557852,-5855
2021-12-27 14:58:30.557859,1270
2021-12-27 14:58:30.557866,-476
2021-12-27 14:58:30.557873,-4711
2021-12-27 14:58:30.557880,3844
2021-12-27 14:58:30.557887,-3072
2021-12-27 14:58:30.557894,-3211
2021-12-27 14:58:30.557901,234
2021-12-27 14:58:30.557908,-297
2021-12-27 14:58:30.557918,-2300
2021-12-27 14:58:30.557925,819
2021-12-27 14:58:30.557932,4922
2021-12-27 14:58:30.557939,-3923
2021-12-27 14:58:30.557946,4529
2021-12-27 14:58:30.557953,2334
2021-12-27 14:58:30.557960,-2329
2021-12-27 14:58:30.557970,-1416
2021-12-27 14:58:30.557977,721
2021-12-27 14:58:30.557984,3702
2021-12-27 14:58:30.557991,-2051
2021-12-27 14:58:30.557998,4098
2021-12-27 14:58:30.558005,520
2021-12-27 14:58:30.558012,1008
2021-12-27 14:58:30.801416,3726
2021-12-27 14:58:30.801434,-2931
2021-12-27 14:58:30.801440,4150
2021-12-27 14:58:30.801445,1176
2021-12-27 14:58:30.801449,-1008
2021-12-27 14:58:30.801456,-5068
2021-12-27 14:58:30.801461,-2260
2021-12-27 14:58:30.801466,3072
2021-12-27 14:58:30.801470,-4704
2021-12-27 14:58:30.801475,1924
2021-12-27 14:58:30.801479,1387
2021-12-27 14:58:30.801484,-1296
2021-12-27 14:58:30.801488,-1040
2021-12-27 14:58:30.801493,-3858
2021-12-27 14:58:30.801500,1833
2021-12-27 14:58:30.801504,-1610
2021-12-27 14:58:30.801511,-2470
2021-12-27 14:58:30.801515,481
2021-12-27 14:58:30.801520,3638
2021-12-27 14:58:30.801524,-1351
2021-12-27 14:58:30.801531,-3618
2021-12-27 14:58:30.801536,-10674
2021-12-27 14:58:30.801541,-2200
2021-12-27 14:58:30.801545,-249
2021-12-27 14:58:30.801552,493
2021-12-27 14:58:30.997131,-982
2021-12-27 14:58:30.997166,-4222
2021-12-27 14:58:30.997174,467
2021-12-27 14:58:30.997184,-1658
2021-12-27 14:58:30.997191,4992
2021-12-27 14:58:30.997199,-1476
2021-12-27 14:58:30.997205,-6629
2021-12-27 14:58:30.997212,-951
2021-12-27 14:58:30.997219,-3882
2021-12-27 14:58:30.997226,-433
2021-12-27 14:58:30.997233,-3765
2021-12-27 14:58:30.997240,-3872
2021-12-27 14:58:30.997246,1320
2021-12-27 14:58:30.997253,-7501
2021-12-27 14:58:30.997260,1660
2021-12-27 14:58:30.997270,-3606
2021-12-27 14:58:30.997277,4306
2021-12-27 14:58:30.997284,-999
2021-12-27 14:58:30.997291,-3326
2021-12-27 14:58:30.997298,4704
2021-12-27 14:58:30.997305,-671
2021-12-27 14:58:30.997312,3621
2021-12-27 14:58:30.997319,1929
2021-12-27 14:58:30.997326,-2808
2021-12-27 14:58:30.997332,2674
2021-12-27 14:58:30.997339,-1821
2021-12-27 14:58:30.997346,3487
2021-12-27 14:58:31.288211,4469
2021-12-27 14:58:31.288238,-2564
2021-12-27 14:58:31.288247,3928
2021-12-27 14:58:31.288255,-4127
2021-12-27 14:58:31.288262,-4160
2021-12-27 14:58:31.288273,-414
2021-12-27 14:58:31.288280,3120
2021-12-27 14:58:31.288287,1802
2021-12-27 14:58:31.288294,-4865
2021-12-27 14:58:31.288301,107
2021-12-27 14:58:31.288308,-1737
2021-12-27 14:58:31.288315,3566
2021-12-27 14:58:31.288322,1306
2021-12-27 14:58:31.288329,-6226
2021-12-27 14:58:31.288336,4419
2021-12-27 14:58:31.288342,428
2021-12-27 14:58:31.288349,-774
2021-12-27 14:58:31.288360,-1229
2021-12-27 14:58:31.288367,2792
2021-12-27 14:58:31.288374,1387
2021-12-27 14:58:31.288380,-2307
2021-12-27 14:58:31.288387,4932
2021-12-27 14:58:31.288394,-529
2021-12-27 14:58:31.288401,2763
2021-12-27 14:58:31.288408,3822
2021-12-27 14:58:31.288415,-2964
2021-12-27 14:58:31.288422,4932
2021-12-27 14:58:31.288429,-1759
2021-12-27 14:58:31.484666,-7108
2021-12-27 14:58:31.484695,-122
2021-12-27 14:58:31.484704,-1541
2021-12-27 14:58:31.484711,4007
2021-12-27 14:58:31.484719,-95
2021-12-27 14:58:31.484726,-5929
2021-12-27 14:58:31.484733,2768
2021-12-27 14:58:31.484740,256
2021-12-27 14:58:31.484747,1886
2021-12-27 14:58:31.484754,2384
2021-12-27 14:58:31.484761,-2281
2021-12-27 14:58:31.484768,2528
2021-12-27 14:58:31.484775,-4256
2021-12-27 14:58:31.484782,43
2021-12-27 14:58:31.484793,-8939
2021-12-27 14:58:31.484800,-762
2021-12-27 14:58:31.484807,3868
2021-12-27 14:58:31.484814,-2854
2021-12-27 14:58:31.484821,3650
2021-12-27 14:58:31.484828,-836
2021-12-27 14:58:31.484835,817
2021-12-27 14:58:31.484842,3901
2021-12-27 14:58:31.484849,-2252
2021-12-27 14:58:31.484856,3050
2021-12-27 14:58:31.484864,-750
2021-12-27 14:58:31.484871,-508
2021-12-27 14:58:31.484878,4591
2021-12-27 14:58:31.484885,-2128
2021-12-27 14:58:31.484892,3074
2021-12-27 14:58:31.728454,-709
2021-12-27 14:58:31.728482,-5116
2021-12-27 14:58:31.728491,3273
2021-12-27 14:58:31.728498,-4208
2021-12-27 14:58:31.728505,59
2021-12-27 14:58:31.728512,4716
2021-12-27 14:58:31.728519,-6442
2021-12-27 14:58:31.728526,-2734
2021-12-27 14:58:31.728533,-2183
2021-12-27 14:58:31.728540,306
2021-12-27 14:58:31.728547,4834
2021-12-27 14:58:31.728554,-2552
2021-12-27 14:58:31.728561,2715
2021-12-27 14:58:31.728568,-810
2021-12-27 14:58:31.728575,-5922
2021-12-27 14:58:31.728582,4980
2021-12-27 14:58:31.728588,-884
2021-12-27 14:58:31.728595,-2418
2021-12-27 14:58:31.728602,826
2021-12-27 14:58:31.728609,-3012
2021-12-27 14:58:31.728616,2770
2021-12-27 14:58:31.728622,-1001
2021-12-27 14:58:31.728629,759
2021-12-27 14:58:31.728640,-2207
2021-12-27 14:58:31.728646,2782
2021-12-27 14:58:31.728653,1035
2021-12-27 14:58:31.728660,-3403
2021-12-27 14:58:31.728670,251
2021-12-27 14:58:31.922841,1574
2021-12-27 14:58:31.922863,4254
2021-12-27 14:58:31.922869,-4675
2021-12-27 14:58:31.922874,2343
2021-12-27 14:58:31.922879,2015
2021-12-27 14:58:31.922883,-865
2021-12-27 14:58:31.922888,-462
2021-12-27 14:58:31.922892,-6931
2021-12-27 14:58:31.922897,83
2021-12-27 14:58:31.922901,-2372
2021-12-27 14:58:31.922906,-2729
2021-12-27 14:58:31.922913,-723
2021-12-27 14:58:31.922918,738
2021-12-27 14:58:31.922923,2931
2021-12-27 14:58:31.922927,-7288
2021-12-27 14:58:31.922932,3125
2021-12-27 14:58:31.922936,3614
2021-12-27 14:58:31.922941,-807
2021-12-27 14:58:31.922946,2128
2021-12-27 14:58:31.922950,-5366
2021-12-27 14:58:31.922955,726
2021-12-27 14:58:31.922959,2485
2021-12-27 14:58:31.922964,-798
2021-12-27 14:58:31.922971,-556
2021-12-27 14:58:31.922975,472
2021-12-27 14:58:31.922980,2933
2021-12-27 14:58:31.922984,-2988
2021-12-27 14:58:32.215490,1946
2021-12-27 14:58:32.215512,-548
2021-12-27 14:58:32.215521,-5428
2021-12-27 14:58:32.215526,-2626
2021-12-27 14:58:32.215531,1653
2021-12-27 14:58:32.215536,419
2021-12-27 14:58:32.215543,-1924
2021-12-27 14:58:32.215548,-220
2021-12-27 14:58:32.215553,1603
2021-12-27 14:58:32.215558,-5061
2021-12-27 14:58:32.215564,2439
2021-12-27 14:58:32.215569,-2396
2021-12-27 14:58:32.215573,4182
2021-12-27 14:58:32.215578,-2260
2021-12-27 14:58:32.215582,1828
2021-12-27 14:58:32.215587,3165
2021-12-27 14:58:32.215591,-920
2021-12-27 14:58:32.215596,4150
2021-12-27 14:58:32.215601,-4330
2021-12-27 14:58:32.215605,-2032
2021-12-27 14:58:32.215610,3947
2021-12-27 14:58:32.215614,-2053
2021-12-27 14:58:32.215619,4798
2021-12-27 14:58:32.215623,764
2021-12-27 14:58:32.215628,-1560
2021-12-27 14:58:32.215635,-2432
2021-12-27 14:58:32.410927,1914
2021-12-27 14:58:32.410956,3556
2021-12-27 14:58:32.410965,-2689
2021-12-27 14:58:32.410973,3700
2021-12-27 14:58:32.410980,-510
2021-12-27 14:58:32.410987,-2037
2021-12-27 14:58:32.410994,-1275
2021-12-27 14:58:32.411000,-2796
2021-12-27 14:58:32.411011,-668
2021-12-27 14:58:32.411018,-1174
2021-12-27 14:58:32.411025,4762
2021-12-27 14:58:32.411031,-6986
2021-12-27 14:58:32.411038,323
2021-12-27 14:58:32.411045,4673
2021-12-27 14:58:32.411052,-2672
2021-12-27 14:58:32.411059,4683
2021-12-27 14:58:32.411066,-680
2021-12-27 14:58:32.411073,-3856
2021-12-27 14:58:32.411080,-139
2021-12-27 14:58:32.411086,-2068
2021-12-27 14:58:32.411093,4635
2021-12-27 14:58:32.411100,-400
2021-12-27 14:58:32.411107,-3841
2021-12-27 14:58:32.411114,1457
2021-12-27 14:58:32.411120,-3204
2021-12-27 14:58:32.411127,2806
2021-12-27 14:58:32.411134,1991
2021-12-27 14:58:32.411141,-2092
2021-12-27 14:58:32.605901,-1193
2021-12-27 14:58:32.605928,-1327
2021-12-27 14:58:32.605937,3693
2021-12-27 14:58:32.605944,-2593
2021-12-27 14:58:32.605952,4603
2021-12-27 14:58:32.605959,1998
2021-12-27 14:58:32.605966,-1761
2021-12-27 14:58:32.605972,1454
2021-12-27 14:58:32.605980,-6375
2021-12-27 14:58:32.605987,2329
2021-12-27 14:58:32.605994,4822
2021-12-27 14:58:32.606001,-2336
2021-12-27 14:58:32.606008,4992
2021-12-27 14:58:32.606015,-3091
2021-12-27 14:58:32.606022,-5507
2021-12-27 14:58:32.606029,2581
2021-12-27 14:58:32.606036,-136
2021-12-27 14:58:32.606043,4589
2021-12-27 14:58:32.606050,831
2021-12-27 14:58:32.606057,-1497
2021-12-27 14:58:32.606064,2772
2021-12-27 14:58:32.606071,-3952
2021-12-27 14:58:32.606078,3710
2021-12-27 14:58:32.606085,4335
2021-12-27 14:58:32.606092,-3283
2021-12-27 14:58:32.606099,2219
2021-12-27 14:58:32.606106,-4994
2021-12-27 14:58:32.606112,-1454
2021-12-27 14:58:32.606123,-1898
2021-12-27 14:58:32.848896,3815
2021-12-27 14:58:32.848916,1426
2021-12-27 14:58:32.848922,-6178
2021-12-27 14:58:32.848926,-2446
2021-12-27 14:58:32.848931,-1996
2021-12-27 14:58:32.848938,2389
2021-12-27 14:58:32.848942,-3367
2021-12-27 14:58:32.848947,3786
2021-12-27 14:58:32.848951,-4721
2021-12-27 14:58:32.848956,-1473
2021-12-27 14:58:32.848963,-1965
2021-12-27 14:58:32.848967,3403
2021-12-27 14:58:32.848972,685
2021-12-27 14:58:32.848976,-4095
2021-12-27 14:58:32.848981,2921
2021-12-27 14:58:32.848985,-5526
2021-12-27 14:58:32.848990,-3772
2021-12-27 14:58:32.848994,2590
2021-12-27 14:58:32.848999,-987
2021-12-27 14:58:32.849003,2037
2021-12-27 14:58:32.849008,-2075
2021-12-27 14:58:32.849012,2013
2021-12-27 14:58:32.849019,-2983
2021-12-27 14:58:32.849024,2979
2021-12-27 14:58:32.849029,-2427
2021-12-27 14:58:32.849033,-5732
2021-12-27 14:58:33.092981,-69
2021-12-27 14:58:33.093030,1840
2021-12-27 14:58:33.093039,2521
2021-12-27 14:58:33.093045,-3801
2021-12-27 14:58:33.093051,953
2021-12-27 14:58:33.093058,-4155
2021-12-27 14:58:33.093066,1239
2021-12-27 14:58:33.093074,-4357
2021-12-27 14:58:33.093085,2406
2021-12-27 14:58:33.093091,-52
2021-12-27 14:58:33.093096,-5370
2021-12-27 14:58:33.093101,4412
2021-12-27 14:58:33.093107,150
2021-12-27 14:58:33.093112,1023
2021-12-27 14:58:33.093117,1632
2021-12-27 14:58:33.093122,-2394
2021-12-27 14:58:33.093126,3868
2021-12-27 14:58:33.093131,-1334
2021-12-27 14:58:33.093136,1205
2021-12-27 14:58:33.093140,4822
2021-12-27 14:58:33.093145,-3623
2021-12-27 14:58:33.093150,4141
2021-12-27 14:58:33.093155,1512
2021-12-27 14:58:33.093160,-2624
2021-12-27 14:58:33.093167,-1739
2021-12-27 14:58:33.093172,738
2021-12-27 14:58:33.093176,3204
2021-12-27 14:58:33.093181,-4579
2021-12-27 14:58:33.383982,1325
2021-12-27 14:58:33.383999,-26
2021-12-27 14:58:33.384004,366
2021-12-27 14:58:33.384009,2590
2021-12-27 14:58:33.384014,-2315
2021-12-27 14:58:33.384018,3892
2021-12-27 14:58:33.384023,-2288
2021-12-27 14:58:33.384028,-4129
2021-12-27 14:58:33.384035,-1998
2021-12-27 14:58:33.384039,1394
2021-12-27 14:58:33.384044,3602
2021-12-27 14:58:33.384048,-6494
2021-12-27 14:58:33.384053,-160
2021-12-27 14:58:33.384058,-74
2021-12-27 14:58:33.384062,843
2021-12-27 14:58:33.384067,3467
2021-12-27 14:58:33.384072,-4536
2021-12-27 14:58:33.384076,369
2021-12-27 14:58:33.384081,-857
2021-12-27 14:58:33.384085,-2804
2021-12-27 14:58:33.384090,3913
2021-12-27 14:58:33.384095,-2444
2021-12-27 14:58:33.384099,-2032
2021-12-27 14:58:33.384104,-4402
2021-12-27 14:58:33.384108,-5821
2021-12-27 14:58:33.384115,-1459
2021-12-27 14:58:33.384120,-627
2021-12-27 14:58:33.580871,-2945
2021-12-27 14:58:33.580899,-117
2021-12-27 14:58:33.580907,-3923
2021-12-27 14:58:33.580914,-4603
2021-12-27 14:58:33.580922,4855
2021-12-27 14:58:33.580929,-4215
2021-12-27 14:58:33.580936,-893
2021-12-27 14:58:33.580943,824
2021-12-27 14:58:33.580950,-8869
2021-12-27 14:58:33.580957,937
2021-12-27 14:58:33.580964,1375
2021-12-27 14:58:33.580972,35
2021-12-27 14:58:33.580979,3487
2021-12-27 14:58:33.580986,-4738
2021-12-27 14:58:33.580993,-3508
2021-12-27 14:58:33.581000,-3777
2021-12-27 14:58:33.581007,244
2021-12-27 14:58:33.581018,-3012
2021-12-27 14:58:33.581025,1787
2021-12-27 14:58:33.581032,2729
2021-12-27 14:58:33.581039,-5028
2021-12-27 14:58:33.581050,1526
2021-12-27 14:58:33.581057,-270
2021-12-27 14:58:33.581064,4843
2021-12-27 14:58:33.581071,-4225
2021-12-27 14:58:33.581078,134
2021-12-27 14:58:33.581085,2017
2021-12-27 14:58:33.581092,218
2021-12-27 14:58:33.871667,-1658
2021-12-27 14:58:33.871680,627
2021-12-27 14:58:33.871685,43
2021-12-27 14:58:33.871690,-4860
2021-12-27 14:58:33.871697,1174
2021-12-27 14:58:33.871702,-500
2021-12-27 14:58:33.871706,3769
2021-12-27 14:58:33.871711,-7345
2021-12-27 14:58:33.871715,-1457
2021-12-27 14:58:33.871720,3204
2021-12-27 14:58:33.871725,431
2021-12-27 14:58:33.871729,4606
2021-12-27 14:58:33.871734,-2367
2021-12-27 14:58:33.871738,-1315
2021-12-27 14:58:33.871743,-1008
2021-12-27 14:58:33.871748,-3422
2021-12-27 14:58:33.871755,210
2021-12-27 14:58:33.871759,-1514
2021-12-27 14:58:33.871764,3781
2021-12-27 14:58:33.871768,-3561
2021-12-27 14:58:33.871773,3134
2021-12-27 14:58:33.871777,3036
2021-12-27 14:58:33.871782,-1088
2021-12-27 14:58:33.871787,4814
2021-12-27 14:58:33.871791,-1902
2021-12-27 14:58:33.871796,210
2021-12-27 14:58:33.871800,-968
2021-12-27 14:58:34.068444,-5756
2021-12-27 14:58:34.068477,524
2021-12-27 14:58:34.068486,-2365
2021-12-27 14:58:34.068497,-3726
2021-12-27 14:58:34.068504,-426
2021-12-27 14:58:34.068511,2216
2021-12-27 14:58:34.068518,-1008
2021-12-27 14:58:34.068525,3549
2021-12-27 14:58:34.068532,-2250
2021-12-27 14:58:34.068539,112
2021-12-27 14:58:34.068546,2125
2021-12-27 14:58:34.068553,-1646
2021-12-27 14:58:34.068560,4977
2021-12-27 14:58:34.068567,-1145
2021-12-27 14:58:34.068574,-313
2021-12-27 14:58:34.068581,3352
2021-12-27 14:58:34.068588,-6219
2021-12-27 14:58:34.068595,3453
2021-12-27 14:58:34.068602,3475
2021-12-27 14:58:34.068609,-3189
2021-12-27 14:58:34.068619,-1600
2021-12-27 14:58:34.068626,-1538
2021-12-27 14:58:34.068633,3118
2021-12-27 14:58:34.068639,-1881
2021-12-27 14:58:34.068646,3568
2021-12-27 14:58:34.068653,397
2021-12-27 14:58:34.068660,273
2021-12-27 14:58:34.263420,3470
2021-12-27 14:58:34.263449,-3630
2021-12-27 14:58:34.263458,3206
2021-12-27 14:58:34.263465,1406
2021-12-27 14:58:34.263472,-1850
2021-12-27 14:58:34.263483,-3393
2021-12-27 14:58:34.263490,-4738
2021-12-27 14:58:34.263497,-1061
2021-12-27 14:58:34.263504,-2991
2021-12-27 14:58:34.263515,-301
2021-12-27 14:58:34.263522,-3678
2021-12-27 14:58:34.263529,-536
2021-12-27 14:58:34.263536,-5231
2021-12-27 14:58:34.263543,3757
2021-12-27 14:58:34.263550,2434
2021-12-27 14:58:34.263557,-2121
2021-12-27 14:58:34.263564,4582
2021-12-27 14:58:34.263571,-5097
2021-12-27 14:58:34.263578,-3295
2021-12-27 14:58:34.263584,2070
2021-12-27 14:58:34.263591,-3925
2021-12-27 14:58:34.263598,2696
2021-12-27 14:58:34.263605,-2099
2021-12-27 14:58:34.263612,-4697
2021-12-27 14:58:34.263618,1342
2021-12-27 14:58:34.263625,-3431
2021-12-27 14:58:34.263632,3120
2021-12-27 14:58:34.263639,1795
2021-12-27 14:58:34.458082,-2442
2021-12-27 14:58:34.458102,4258
2021-12-27 14:58:34.458107,-4016
2021-12-27 14:58:34.458112,-879
2021-12-27 14:58:34.458117,2993
2021-12-27 14:58:34.458121,-8409
2021-12-27 14:58:34.458126,-2109
2021-12-27 14:58:34.458130,-345
2021-12-27 14:58:34.458135,-5747
2021-12-27 14:58:34.458140,-4606
2021-12-27 14:58:34.458144,-3642
2021-12-27 14:58:34.458151,1699
2021-12-27 14:58:34.458156,-2964
2021-12-27 14:58:34.458160,2557
2021-12-27 14:58:34.458165,-6087
2021-12-27 14:58:34.458169,1286
2021-12-27 14:58:34.458176,-2825
2021-12-27 14:58:34.458181,4467
2021-12-27 14:58:34.458186,-86
2021-12-27 14:58:34.458190,-3355
2021-12-27 14:58:34.458195,4932
2021-12-27 14:58:34.458199,-251
2021-12-27 14:58:34.458204,3604
2021-12-27 14:58:34.458209,2097
2021-12-27 14:58:34.458213,-5092
2021-12-27 14:58:34.458218,-141
2021-12-27 14:58:34.458223,-2257
2021-12-27 14:58:34.458227,3177
2021-12-27 14:58:34.750167,4002
2021-12-27 14:58:34.750189,-3247
2021-12-27 14:58:34.750195,3724
2021-12-27 14:58:34.750200,-3791
2021-12-27 14:58:34.750205,-5373
2021-12-27 14:58:34.750212,-409
2021-12-27 14:58:34.750217,2475
2021-12-27 14:58:34.750221,1831
2021-12-27 14:58:34.750226,-4869
2021-12-27 14:58:34.750230,-699
2021-12-27 14:58:34.750235,-6473
2021-12-27 14:58:34.750240,-2228
2021-12-27 14:58:34.750244,2367
2021-12-27 14:58:34.750248,-5883
2021-12-27 14:58:34.750253,244
2021-12-27 14:58:34.750257,-654
2021-12-27 14:58:34.750262,-1001
2021-12-27 14:58:34.750266,4577
2021-12-27 14:58:34.750271,-2284
2021-12-27 14:58:34.750275,1924
2021-12-27 14:58:34.750280,834
2021-12-27 14:58:34.750284,-3283
2021-12-27 14:58:34.750289,4186
2021-12-27 14:58:34.750293,-985
2021-12-27 14:58:34.750297,1878
2021-12-27 14:58:34.750302,3566
2021-12-27 14:58:34.750307,-3901
2021-12-27 14:58:34.750311,4028
2021-12-27 14:58:34.750316,251
2021-12-27 14:58:34.946364,-917
2021-12-27 14:58:34.946396,-2823
2021-12-27 14:58:34.946405,1608
2021-12-27 14:58:34.946412,2051
2021-12-27 14:58:34.946419,-6056
2021-12-27 14:58:34.946426,824
2021-12-27 14:58:34.946433,472
2021-12-27 14:58:34.946440,2041
2021-12-27 14:58:34.946447,2130
2021-12-27 14:58:34.946454,-3326
2021-12-27 14:58:34.946461,496
2021-12-27 14:58:34.946467,-5349
2021-12-27 14:58:34.946474,-2480
2021-12-27 14:58:34.946481,3233
2021-12-27 14:58:34.946488,-4385
2021-12-27 14:58:34.946495,4726
2021-12-27 14:58:34.946502,2200
2021-12-27 14:58:34.946509,-7074
2021-12-27 14:58:34.946516,3877
2021-12-27 14:58:34.946528,946
2021-12-27 14:58:34.946535,563
2021-12-27 14:58:34.946542,4074
2021-12-27 14:58:34.946549,-3592
2021-12-27 14:58:34.946555,-218
2021-12-27 14:58:34.946562,-1505
2021-12-27 14:58:34.946570,-76
2021-12-27 14:58:34.946577,4349
2021-12-27 14:58:34.946584,-2516
2021-12-27 14:58:34.946591,4141
2021-12-27 14:58:35.189733,2334
2021-12-27 14:58:35.189762,-3657
2021-12-27 14:58:35.189770,4822
2021-12-27 14:58:35.189777,-1054
2021-12-27 14:58:35.189785,1234
2021-12-27 14:58:35.189795,-4704
2021-12-27 14:58:35.189802,-1591
2021-12-27 14:58:35.189809,-3403
2021-12-27 14:58:35.189816,-2010
2021-12-27 14:58:35.189823,4280
2021-12-27 14:58:35.189830,-4450
2021-12-27 14:58:35.189837,21
2021-12-27 14:58:35.189844,-309
2021-12-27 14:58:35.189851,-6554
2021-12-27 14:58:35.189858,1229
2021-12-27 14:58:35.189865,-3082
2021-12-27 14:58:35.189872,522
2021-12-27 14:58:35.189879,4733
2021-12-27 14:58:35.189886,-4340
2021-12-27 14:58:35.189893,1116
2021-12-27 14:58:35.189900,119
2021-12-27 14:58:35.189907,347
2021-12-27 14:58:35.189918,-1989
2021-12-27 14:58:35.189924,2645
2021-12-27 14:58:35.189931,1092
2021-12-27 14:58:35.189939,-3484
2021-12-27 14:58:35.189949,371
2021-12-27 14:58:35.432845,980
2021-12-27 14:58:35.432859,4565
2021-12-27 14:58:35.432863,-4675
2021-12-27 14:58:35.432867,1739
2021-12-27 14:58:35.432870,2214
2021-12-27 14:58:35.432873,860
2021-12-27 14:58:35.432878,-1970
2021-12-27 14:58:35.432881,-788
2021-12-27 14:58:35.432884,-3245
2021-12-27 14:58:35.432887,-2168
2021-12-27 14:58:35.432892,-884
2021-12-27 14:58:35.432895,611
2021-12-27 14:58:35.432898,3360
2021-12-27 14:58:35.432901,-7623
2021-12-27 14:58:35.432904,488
2021-12-27 14:58:35.432908,-2636
2021-12-27 14:58:35.432911,-6554
2021-12-27 14:58:35.432915,-726
2021-12-27 14:58:35.432918,-822
2021-12-27 14:58:35.432922,1402
2021-12-27 14:58:35.432925,280
2021-12-27 14:58:35.432929,-939
2021-12-27 14:58:35.432932,587
2021-12-27 14:58:35.432935,3376
2021-12-27 14:58:35.432939,-3235
2021-12-27 14:58:35.628534,2396
2021-12-27 14:58:35.628562,-764
2021-12-27 14:58:35.628575,-4776
2021-12-27 14:58:35.628582,-2840
2021-12-27 14:58:35.628589,1114
2021-12-27 14:58:35.628596,299
2021-12-27 14:58:35.628607,-1852
2021-12-27 14:58:35.628614,-280
2021-12-27 14:58:35.628621,2284
2021-12-27 14:58:35.628628,-5320
2021-12-27 14:58:35.628638,2964
2021-12-27 14:58:35.628645,-2446
2021-12-27 14:58:35.628653,4189
2021-12-27 14:58:35.628660,-1900
2021-12-27 14:58:35.628667,1687
2021-12-27 14:58:35.628673,2909
2021-12-27 14:58:35.628680,-3954
2021-12-27 14:58:35.628688,28
2021-12-27 14:58:35.628695,-2264
2021-12-27 14:58:35.628701,2348
2021-12-27 14:58:35.628708,3424
2021-12-27 14:58:35.628715,-3633
2021-12-27 14:58:35.628725,1497
2021-12-27 14:58:35.628732,-2195
2021-12-27 14:58:35.628743,-1970
2021-12-27 14:58:35.871924,1392
2021-12-27 14:58:35.871946,3753
2021-12-27 14:58:35.871952,-2454
2021-12-27 14:58:35.871956,3654
2021-12-27 14:58:35.871961,-131
2021-12-27 14:58:35.871966,-1437
2021-12-27 14:58:35.871970,-944
2021-12-27 14:58:35.871975,-3736
2021-12-27 14:58:35.871982,-31
2021-12-27 14:58:35.871987,-1195
2021-12-27 14:58:35.871993,-5680
2021-12-27 14:58:35.871998,-81
2021-12-27 14:58:35.872002,4450
2021-12-27 14:58:35.872007,-2221
2021-12-27 14:58:35.872012,4476
2021-12-27 14:58:35.872016,-1751
2021-12-27 14:58:35.872021,-3789
2021-12-27 14:58:35.872025,1766
2021-12-27 14:58:35.872030,-2566
2021-12-27 14:58:35.872035,1557
2021-12-27 14:58:35.872039,-3549
2021-12-27 14:58:35.872044,-3671
2021-12-27 14:58:35.872050,-3019
2021-12-27 14:58:35.872055,373
2021-12-27 14:58:35.872060,2662
2021-12-27 14:58:35.872064,-1783
2021-12-27 14:58:36.066936,-1068
2021-12-27 14:58:36.066958,-1555
2021-12-27 14:58:36.066965,1730
2021-12-27 14:58:36.066970,-5030
2021-12-27 14:58:36.066975,2844
2021-12-27 14:58:36.066979,-536
2021-12-27 14:58:36.066984,-4402
2021-12-27 14:58:36.066989,1085
2021-12-27 14:58:36.066993,-7125
2021-12-27 14:58:36.066998,371
2021-12-27 14:58:36.067002,4234
2021-12-27 14:58:36.067007,-2775
2021-12-27 14:58:36.067011,4148
2021-12-27 14:58:36.067016,-3431
2021-12-27 14:58:36.067021,-6585
2021-12-27 14:58:36.067025,1363
2021-12-27 14:58:36.067030,-340
2021-12-27 14:58:36.067034,4491
2021-12-27 14:58:36.067039,515
2021-12-27 14:58:36.067043,-1632
2021-12-27 14:58:36.067048,2825
2021-12-27 14:58:36.067052,-4349
2021-12-27 14:58:36.067057,3209
2021-12-27 14:58:36.067062,2775
2021-12-27 14:58:36.067066,-5965
2021-12-27 14:58:36.067071,4191
2021-12-27 14:58:36.067075,-623
2021-12-27 14:58:36.067080,-2121
2021-12-27 14:58:36.067084,4884
2021-12-27 14:58:36.067089,-644
2021-12-27 14:58:36.311166,4095
2021-12-27 14:58:36.311194,1234
2021-12-27 14:58:36.311203,-5447
2021-12-27 14:58:36.311210,-2133
2021-12-27 14:58:36.311217,-2626
2021-12-27 14:58:36.311228,3245
2021-12-27 14:58:36.311235,-2947
2021-12-27 14:58:36.311242,4402
2021-12-27 14:58:36.311249,-4445
2021-12-27 14:58:36.311255,-2053
2021-12-27 14:58:36.311266,-1361
2021-12-27 14:58:36.311273,3460
2021-12-27 14:58:36.311280,1260
2021-12-27 14:58:36.311288,-3436
2021-12-27 14:58:36.311295,3750
2021-12-27 14:58:36.311302,-354
2021-12-27 14:58:36.311309,3503
2021-12-27 14:58:36.311316,3285
2021-12-27 14:58:36.311323,-3118
2021-12-27 14:58:36.311329,3527
2021-12-27 14:58:36.311336,-1191
2021-12-27 14:58:36.311343,1013
2021-12-27 14:58:36.311354,-4805
2021-12-27 14:58:36.311360,-999
2021-12-27 14:58:36.311367,-1107
2021-12-27 14:58:36.311374,-5531
2021-12-27 14:58:36.311381,-1109
2021-12-27 14:58:36.553590,-1358
2021-12-27 14:58:36.553608,1881
2021-12-27 14:58:36.553612,-4402
2021-12-27 14:58:36.553615,2808
2021-12-27 14:58:36.553618,-4000
2021-12-27 14:58:36.553621,385
2021-12-27 14:58:36.553626,-3808
2021-12-27 14:58:36.553629,2353
2021-12-27 14:58:36.553632,522
2021-12-27 14:58:36.553635,-5241
2021-12-27 14:58:36.553638,4023
2021-12-27 14:58:36.553641,438
2021-12-27 14:58:36.553645,1461
2021-12-27 14:58:36.553648,1790
2021-12-27 14:58:36.553651,-2046
2021-12-27 14:58:36.553654,4261
2021-12-27 14:58:36.553657,-1358
2021-12-27 14:58:36.553660,1265
2021-12-27 14:58:36.553665,-3443
2021-12-27 14:58:36.553668,4311
2021-12-27 14:58:36.553671,1922
2021-12-27 14:58:36.553674,-2540
2021-12-27 14:58:36.553679,-3348
2021-12-27 14:58:36.553682,-4035
2021-12-27 14:58:36.553685,-807
2021-12-27 14:58:36.553688,-3261
2021-12-27 14:58:36.798965,3477
2021-12-27 14:58:36.798993,-1406
2021-12-27 14:58:36.799002,-611
2021-12-27 14:58:36.799010,3381
2021-12-27 14:58:36.799017,-2535
2021-12-27 14:58:36.799024,3690
2021-12-27 14:58:36.799031,-1576
2021-12-27 14:58:36.799038,-4395
2021-12-27 14:58:36.799049,-1843
2021-12-27 14:58:36.799056,1282
2021-12-27 14:58:36.799063,2137
2021-12-27 14:58:36.799071,-8877
2021-12-27 14:58:36.799078,-2355
2021-12-27 14:58:36.799085,-2734
2021-12-27 14:58:36.799092,-1732
2021-12-27 14:58:36.799099,3175
2021-12-27 14:58:36.799106,-2832
2021-12-27 14:58:36.799113,1919
2021-12-27 14:58:36.799121,-968
2021-12-27 14:58:36.799128,-3364
2021-12-27 14:58:36.799134,4270
2021-12-27 14:58:36.799142,-1747
2021-12-27 14:58:36.799149,2295
2021-12-27 14:58:36.799156,3022
2021-12-27 14:58:36.799163,-4297
2021-12-27 14:58:36.799170,3026
2021-12-27 14:58:36.799177,-603
2021-12-27 14:58:36.799184,448
2021-12-27 14:58:36.799191,3721
2021-12-27 14:58:36.993017,-5704
2021-12-27 14:58:36.993045,1327
2021-12-27 14:58:36.993054,517
2021-12-27 14:58:36.993061,-4553
2021-12-27 14:58:36.993068,-431
2021-12-27 14:58:36.993075,-5550
2021-12-27 14:58:36.993082,3499
2021-12-27 14:58:36.993089,2736
2021-12-27 14:58:36.993096,-9404
2021-12-27 14:58:36.993103,2106
2021-12-27 14:58:36.993110,2875
2021-12-27 14:58:36.993116,776
2021-12-27 14:58:36.993123,4373
2021-12-27 14:58:36.993130,-3077
2021-12-27 14:58:36.993137,-1713
2021-12-27 14:58:36.993144,-3221
2021-12-27 14:58:36.993151,539
2021-12-27 14:58:36.993161,-2327
2021-12-27 14:58:36.993169,2228
2021-12-27 14:58:36.993175,3281
2021-12-27 14:58:36.993182,-4771
2021-12-27 14:58:36.993192,2087
2021-12-27 14:58:36.993199,179
2021-12-27 14:58:36.993209,-3506
2021-12-27 14:58:36.993216,826
2021-12-27 14:58:36.993223,2089
2021-12-27 14:58:36.993230,407
2021-12-27 14:58:37.236652,-3604
2021-12-27 14:58:37.236662,-3916
2021-12-27 14:58:37.236666,-2497
2021-12-27 14:58:37.236669,-3765
2021-12-27 14:58:37.236674,742
2021-12-27 14:58:37.236677,-263
2021-12-27 14:58:37.236680,4726
2021-12-27 14:58:37.236684,-6506
2021-12-27 14:58:37.236687,-1315
2021-12-27 14:58:37.236690,2991
2021-12-27 14:58:37.236693,771
2021-12-27 14:58:37.236696,4939
2021-12-27 14:58:37.236699,-2180
2021-12-27 14:58:37.236702,747
2021-12-27 14:58:37.236705,2408
2021-12-27 14:58:37.236709,-2173
2021-12-27 14:58:37.236713,522
2021-12-27 14:58:37.236716,-1088
2021-12-27 14:58:37.236720,3899
2021-12-27 14:58:37.236723,-3038
2021-12-27 14:58:37.236726,3472
2021-12-27 14:58:37.236729,2866
2021-12-27 14:58:37.236732,-1013
2021-12-27 14:58:37.236735,4877
2021-12-27 14:58:37.236739,-2257
2021-12-27 14:58:37.236742,927
2021-12-27 14:58:37.236745,2967
2021-12-27 14:58:37.528133,-2111
2021-12-27 14:58:37.528159,-671
2021-12-27 14:58:37.528164,-3470
2021-12-27 14:58:37.528169,-203
2021-12-27 14:58:37.528173,-7252
2021-12-27 14:58:37.528178,2784
2021-12-27 14:58:37.528182,3582
2021-12-27 14:58:37.528187,-2902
2021-12-27 14:58:37.528191,2988
2021-12-27 14:58:37.528196,-6832
2021-12-27 14:58:37.528200,-9095
2021-12-27 14:58:37.528205,-769
2021-12-27 14:58:37.528209,1126
2021-12-27 14:58:37.528214,4596
2021-12-27 14:58:37.528218,-2418
2021-12-27 14:58:37.528222,1030
2021-12-27 14:58:37.528229,-6641
2021-12-27 14:58:37.528234,953
2021-12-27 14:58:37.528238,2509
2021-12-27 14:58:37.528243,-2569
2021-12-27 14:58:37.528247,4740
2021-12-27 14:58:37.528252,-1581
2021-12-27 14:58:37.528256,-244
2021-12-27 14:58:37.528261,2916
2021-12-27 14:58:37.528265,-2691
2021-12-27 14:58:37.528269,3654
2021-12-27 14:58:37.528274,373
2021-12-27 14:58:37.528279,294
2021-12-27 14:58:37.821811,3817
2021-12-27 14:58:37.821839,-3561
2021-12-27 14:58:37.821848,2509
2021-12-27 14:58:37.821855,-659
2021-12-27 14:58:37.821863,-4234
2021-12-27 14:58:37.821869,3144
2021-12-27 14:58:37.821876,-9692
2021-12-27 14:58:37.821883,-7530
2021-12-27 14:58:37.821890,3127
2021-12-27 14:58:37.821897,-1852
2021-12-27 14:58:37.821904,2744
2021-12-27 14:58:37.821911,81
2021-12-27 14:58:37.821919,-2279
2021-12-27 14:58:37.821925,-1315
2021-12-27 14:58:37.821932,-6406
2021-12-27 14:58:37.821939,3733
2021-12-27 14:58:37.821946,2571
2021-12-27 14:58:37.821953,-2144
2021-12-27 14:58:37.821964,-2423
2021-12-27 14:58:37.821971,-855
2021-12-27 14:58:37.821978,3180
2021-12-27 14:58:37.821985,-1531
2021-12-27 14:58:37.821995,361
2021-12-27 14:58:37.822003,-1612
2021-12-27 14:58:37.822010,2530
2021-12-27 14:58:37.822017,-3436
2021-12-27 14:58:37.822023,4251
2021-12-27 14:58:37.822030,3029
2021-12-27 14:58:37.968511,-1579
2021-12-27 14:58:37.968544,-3261
2021-12-27 14:58:37.968551,-266
2021-12-27 14:58:37.968562,-1310
2021-12-27 14:58:37.968569,4733
2021-12-27 14:58:37.968576,-874
2021-12-27 14:58:37.968583,-5500
2021-12-27 14:58:37.968590,994
2021-12-27 14:58:37.968597,-457
2021-12-27 14:58:37.968608,1766
2021-12-27 14:58:37.968615,-1437
2021-12-27 14:58:37.968622,4349
2021-12-27 14:58:37.968629,-9176
2021-12-27 14:58:37.968636,-7237
2021-12-27 14:58:37.968643,4491
2021-12-27 14:58:37.968650,28
2021-12-27 14:58:37.968657,2998
2021-12-27 14:58:37.968664,-3273
2021-12-27 14:58:37.968671,-6446
2021-12-27 14:58:37.968678,2121
2021-12-27 14:58:37.968685,-83
2021-12-27 14:58:37.968692,4119
2021-12-27 14:58:37.968699,1423
2021-12-27 14:58:37.968706,-3031
2021-12-27 14:58:37.968713,2355
2021-12-27 14:58:37.968720,-3142
2021-12-27 14:58:37.968727,2144
2021-12-27 14:58:38.211747,2981
2021-12-27 14:58:38.211769,-5298
2021-12-27 14:58:38.211777,2056
2021-12-27 14:58:38.211783,-6212
2021-12-27 14:58:38.211789,-7959
2021-12-27 14:58:38.211795,4704
2021-12-27 14:58:38.211800,-680
2021-12-27 14:58:38.211806,1711
2021-12-27 14:58:38.211812,951
2021-12-27 14:58:38.211818,-4218
2021-12-27 14:58:38.211824,1090
2021-12-27 14:58:38.211830,-2724
2021-12-27 14:58:38.211835,2792
2021-12-27 14:58:38.211842,4210
2021-12-27 14:58:38.211848,-4328
2021-12-27 14:58:38.211854,2887
