Time,ECG
2021-12-27 15:03:09.052691,-1191
2021-12-27 15:03:09.052706,452
2021-12-27 15:03:09.052710,1845
2021-12-27 15:03:09.052714,-2559
2021-12-27 15:03:09.052718,1188
2021-12-27 15:03:09.052722,431
2021-12-27 15:03:09.052725,3285
2021-12-27 15:03:09.052728,-7544
2021-12-27 15:03:09.052731,1414
2021-12-27 15:03:09.052735,4599
2021-12-27 15:03:09.052738,-369
2021-12-27 15:03:09.052741,4134
2021-12-27 15:03:09.052744,-7211
2021-12-27 15:03:09.052747,-9869
2021-12-27 15:03:09.052750,-2269
2021-12-27 15:03:09.052754,1656
2021-12-27 15:03:09.052758,-987
2021-12-27 15:03:09.052762,572
2021-12-27 15:03:09.052765,2566
2021-12-27 15:03:09.052768,-6998
2021-12-27 15:03:09.052771,4934
2021-12-27 15:03:09.052776,-1694
2021-12-27 15:03:09.052781,-2324
2021-12-27 15:03:09.052784,-1296
2021-12-27 15:03:09.052787,4282
2021-12-27 15:03:09.052790,246
2021-12-27 15:03:09.266200,395
2021-12-27 15:03:09.266221,-2526
2021-12-27 15:03:09.266229,-1970
2021-12-27 15:03:09.266236,-5064
2021-12-27 15:03:09.266246,3362
2021-12-27 15:03:09.266253,-2183
2021-12-27 15:03:09.266264,-5958
2021-12-27 15:03:09.266270,-2962
2021-12-27 15:03:09.266281,220
2021-12-27 15:03:09.266288,4443
2021-12-27 15:03:09.266296,-2224
2021-12-27 15:03:09.266302,-6439
2021-12-27 15:03:09.266309,79
2021-12-27 15:03:09.266317,-139
2021-12-27 15:03:09.266327,1332
2021-12-27 15:03:09.266334,-2260
2021-12-27 15:03:09.266341,4623
2021-12-27 15:03:09.266348,-2298
2021-12-27 15:03:09.266355,2367
2021-12-27 15:03:09.266365,-1713
2021-12-27 15:03:09.266372,4544
2021-12-27 15:03:09.266379,-786
2021-12-27 15:03:09.266386,-1080
2021-12-27 15:03:09.266393,4381
2021-12-27 15:03:09.606144,-1406
2021-12-27 15:03:09.606161,4927
2021-12-27 15:03:09.606167,1459
2021-12-27 15:03:09.606172,-2578
2021-12-27 15:03:09.606177,3976
2021-12-27 15:03:09.606181,-4714
2021-12-27 15:03:09.606186,932
2021-12-27 15:03:09.606193,-3247
2021-12-27 15:03:09.606198,3043
2021-12-27 15:03:09.606205,-1138
2021-12-27 15:03:09.606210,-5212
2021-12-27 15:03:09.606214,869
2021-12-27 15:03:09.606219,-57
2021-12-27 15:03:09.606223,3808
2021-12-27 15:03:09.606227,-2780
2021-12-27 15:03:09.606232,-5390
2021-12-27 15:03:09.606236,2161
2021-12-27 15:03:09.606241,-4002
2021-12-27 15:03:09.606245,1203
2021-12-27 15:03:09.606249,-558
2021-12-27 15:03:09.606254,-8028
2021-12-27 15:03:09.606260,790
2021-12-27 15:03:09.606265,-3400
2021-12-27 15:03:09.606272,4376
2021-12-27 15:03:09.606277,-1641
2021-12-27 15:03:09.606281,2135
2021-12-27 15:03:09.606286,2053
2021-12-27 15:03:09.606290,-1339
2021-12-27 15:03:09.754141,1133
2021-12-27 15:03:09.754169,-5811
2021-12-27 15:03:09.754178,-409
2021-12-27 15:03:09.754185,-778
2021-12-27 15:03:09.754192,-5380
2021-12-27 15:03:09.754203,-4472
2021-12-27 15:03:09.754209,-6818
2021-12-27 15:03:09.754216,4095
2021-12-27 15:03:09.754223,-1713
2021-12-27 15:03:09.754230,2375
2021-12-27 15:03:09.754237,1807
2021-12-27 15:03:09.754250,-5083
2021-12-27 15:03:09.754257,-2600
2021-12-27 15:03:09.754264,-4469
2021-12-27 15:03:09.754271,3549
2021-12-27 15:03:09.754278,3652
2021-12-27 15:03:09.754285,-2514
2021-12-27 15:03:09.754295,-2849
2021-12-27 15:03:09.754302,-3645
2021-12-27 15:03:09.754308,4647
2021-12-27 15:03:09.754315,-1217
2021-12-27 15:03:09.754322,3721
2021-12-27 15:03:09.754329,1766
2021-12-27 15:03:09.754336,-2612
2021-12-27 15:03:09.754343,3019
2021-12-27 15:03:09.754350,-1905
2021-12-27 15:03:09.754357,3683
2021-12-27 15:03:09.754364,4675
2021-12-27 15:03:09.949153,-2087
2021-12-27 15:03:09.949185,4714
2021-12-27 15:03:09.949194,-2219
2021-12-27 15:03:09.949201,-1414
2021-12-27 15:03:09.949212,-1016
2021-12-27 15:03:09.949219,4038
2021-12-27 15:03:09.949226,452
2021-12-27 15:03:09.949233,-8733
2021-12-27 15:03:09.949240,-589
2021-12-27 15:03:09.949247,1174
2021-12-27 15:03:09.949254,4625
2021-12-27 15:03:09.949261,1236
2021-12-27 15:03:09.949268,-5871
2021-12-27 15:03:09.949275,-771
2021-12-27 15:03:09.949282,-6159
2021-12-27 15:03:09.949289,373
2021-12-27 15:03:09.949300,-3127
2021-12-27 15:03:09.949307,3597
2021-12-27 15:03:09.949314,627
2021-12-27 15:03:09.949321,-7165
2021-12-27 15:03:09.949328,2490
2021-12-27 15:03:09.949339,1025
2021-12-27 15:03:09.949346,1994
2021-12-27 15:03:09.949354,-1617
2021-12-27 15:03:09.949360,-8544
2021-12-27 15:03:09.949368,448
2021-12-27 15:03:09.949375,-3014
2021-12-27 15:03:09.949382,-1102
2021-12-27 15:03:10.192286,3271
2021-12-27 15:03:10.192309,-5627
2021-12-27 15:03:10.192320,872
2021-12-27 15:03:10.192325,-3233
2021-12-27 15:03:10.192330,-7034
2021-12-27 15:03:10.192337,103
2021-12-27 15:03:10.192341,994
2021-12-27 15:03:10.192346,2485
2021-12-27 15:03:10.192351,-6530
2021-12-27 15:03:10.192359,-2022
2021-12-27 15:03:10.192368,-1337
2021-12-27 15:03:10.192376,3048
2021-12-27 15:03:10.192384,4982
2021-12-27 15:03:10.192393,-4107
2021-12-27 15:03:10.192401,2804
2021-12-27 15:03:10.192411,1047
2021-12-27 15:03:10.192419,-1790
2021-12-27 15:03:10.192431,-532
2021-12-27 15:03:10.192439,1114
2021-12-27 15:03:10.192447,2844
2021-12-27 15:03:10.192455,-2830
2021-12-27 15:03:10.192464,2049
2021-12-27 15:03:10.192472,-2303
2021-12-27 15:03:10.192480,2008
2021-12-27 15:03:10.192491,-3825
2021-12-27 15:03:10.192496,3829
2021-12-27 15:03:10.192500,2003
2021-12-27 15:03:10.435779,-1481
2021-12-27 15:03:10.435800,-1756
2021-12-27 15:03:10.435805,745
2021-12-27 15:03:10.435810,3036
2021-12-27 15:03:10.435814,-6597
2021-12-27 15:03:10.435819,819
2021-12-27 15:03:10.435823,2027
2021-12-27 15:03:10.435828,1059
2021-12-27 15:03:10.435832,2705
2021-12-27 15:03:10.435836,-2008
2021-12-27 15:03:10.435841,1792
2021-12-27 15:03:10.435845,-3360
2021-12-27 15:03:10.435850,-992
2021-12-27 15:03:10.435862,-3225
2021-12-27 15:03:10.435867,2363
2021-12-27 15:03:10.435873,-3964
2021-12-27 15:03:10.435878,4750
2021-12-27 15:03:10.435882,1143
2021-12-27 15:03:10.435887,-407
2021-12-27 15:03:10.435893,-553
2021-12-27 15:03:10.435898,3599
2021-12-27 15:03:10.435902,-958
2021-12-27 15:03:10.435907,-4357
2021-12-27 15:03:10.435913,-14
2021-12-27 15:03:10.435918,2413
2021-12-27 15:03:10.680365,366
2021-12-27 15:03:10.680394,-7451
2021-12-27 15:03:10.680403,3784
2021-12-27 15:03:10.680410,913
2021-12-27 15:03:10.680417,306
2021-12-27 15:03:10.680428,-5085
2021-12-27 15:03:10.680435,-3261
2021-12-27 15:03:10.680442,-869
2021-12-27 15:03:10.680449,668
2021-12-27 15:03:10.680459,-1485
2021-12-27 15:03:10.680466,2058
2021-12-27 15:03:10.680473,251
2021-12-27 15:03:10.680480,-6875
2021-12-27 15:03:10.680487,4889
2021-12-27 15:03:10.680494,1931
2021-12-27 15:03:10.680501,560
2021-12-27 15:03:10.680515,-3297
2021-12-27 15:03:10.680522,872
2021-12-27 15:03:10.680528,977
2021-12-27 15:03:10.680536,309
2021-12-27 15:03:10.680546,-1258
2021-12-27 15:03:10.680553,1751
2021-12-27 15:03:10.680560,280
2021-12-27 15:03:10.680567,-7822
2021-12-27 15:03:10.680574,3197
2021-12-27 15:03:10.680581,2109
2021-12-27 15:03:10.875466,1133
2021-12-27 15:03:10.875494,4009
2021-12-27 15:03:10.875503,-5272
2021-12-27 15:03:10.875510,577
2021-12-27 15:03:10.875517,2597
2021-12-27 15:03:10.875524,560
2021-12-27 15:03:10.875534,-2073
2021-12-27 15:03:10.875541,-3245
2021-12-27 15:03:10.875548,-4129
2021-12-27 15:03:10.875555,-1958
2021-12-27 15:03:10.875565,-685
2021-12-27 15:03:10.875572,-162
2021-12-27 15:03:10.875579,3465
2021-12-27 15:03:10.875586,-8184
2021-12-27 15:03:10.875593,1876
2021-12-27 15:03:10.875600,4848
2021-12-27 15:03:10.875606,-848
2021-12-27 15:03:10.875613,4846
2021-12-27 15:03:10.875620,-2439
2021-12-27 15:03:10.875627,-1392
2021-12-27 15:03:10.875634,2058
2021-12-27 15:03:10.875640,-342
2021-12-27 15:03:10.875659,-378
2021-12-27 15:03:10.875666,-671
2021-12-27 15:03:10.875673,2907
2021-12-27 15:03:10.875680,-5018
2021-12-27 15:03:10.875687,304
2021-12-27 15:03:11.119090,-656
2021-12-27 15:03:11.119115,-436
2021-12-27 15:03:11.119124,-6959
2021-12-27 15:03:11.119129,-4922
2021-12-27 15:03:11.119134,905
2021-12-27 15:03:11.119139,-7070
2021-12-27 15:03:11.119143,-3168
2021-12-27 15:03:11.119148,-973
2021-12-27 15:03:11.119152,1183
2021-12-27 15:03:11.119157,-603
2021-12-27 15:03:11.119161,-6089
2021-12-27 15:03:11.119168,3199
2021-12-27 15:03:11.119173,-3681
2021-12-27 15:03:11.119177,4376
2021-12-27 15:03:11.119182,-1792
2021-12-27 15:03:11.119186,798
2021-12-27 15:03:11.119191,4043
2021-12-27 15:03:11.119195,-850
2021-12-27 15:03:11.119200,4079
2021-12-27 15:03:11.119205,-3393
2021-12-27 15:03:11.119209,-3424
2021-12-27 15:03:11.119214,3002
2021-12-27 15:03:11.119218,-2423
2021-12-27 15:03:11.119223,4143
2021-12-27 15:03:11.119227,857
2021-12-27 15:03:11.119232,-2717
2021-12-27 15:03:11.119238,-2358
2021-12-27 15:03:11.362549,-354
2021-12-27 15:03:11.362573,637
2021-12-27 15:03:11.362581,-5862
2021-12-27 15:03:11.362588,3508
2021-12-27 15:03:11.362599,491
2021-12-27 15:03:11.362606,-4558
2021-12-27 15:03:11.362614,-4342
2021-12-27 15:03:11.362621,-5588
2021-12-27 15:03:11.362628,3384
2021-12-27 15:03:11.362635,-3403
2021-12-27 15:03:11.362642,-4726
2021-12-27 15:03:11.362648,4697
2021-12-27 15:03:11.362656,-6415
2021-12-27 15:03:11.362662,-1737
2021-12-27 15:03:11.362670,4059
2021-12-27 15:03:11.362677,-3307
2021-12-27 15:03:11.362684,3810
2021-12-27 15:03:11.362690,-33
2021-12-27 15:03:11.362694,-2144
2021-12-27 15:03:11.362698,2458
2021-12-27 15:03:11.362703,-2674
2021-12-27 15:03:11.362711,3163
2021-12-27 15:03:11.362727,1565
2021-12-27 15:03:11.362732,-599
2021-12-27 15:03:11.362737,4795
2021-12-27 15:03:11.362751,-3259
2021-12-27 15:03:11.362758,874
2021-12-27 15:03:11.362765,2720
2021-12-27 15:03:11.362772,-2017
2021-12-27 15:03:11.605500,-1924
2021-12-27 15:03:11.605529,-5454
2021-12-27 15:03:11.605537,119
2021-12-27 15:03:11.605545,-6176
2021-12-27 15:03:11.605552,788
2021-12-27 15:03:11.605559,2351
2021-12-27 15:03:11.605566,-1629
2021-12-27 15:03:11.605573,-546
2021-12-27 15:03:11.605580,-7542
2021-12-27 15:03:11.605587,2315
2021-12-27 15:03:11.605598,-3218
2021-12-27 15:03:11.605604,426
2021-12-27 15:03:11.605611,-9941
2021-12-27 15:03:11.605618,-8115
2021-12-27 15:03:11.605625,3460
2021-12-27 15:03:11.605640,-3422
2021-12-27 15:03:11.605647,1229
2021-12-27 15:03:11.605654,110
2021-12-27 15:03:11.605661,-5193
2021-12-27 15:03:11.605668,256
2021-12-27 15:03:11.605675,-3288
2021-12-27 15:03:11.605682,3012
2021-12-27 15:03:11.605689,3705
2021-12-27 15:03:11.605696,-2677
2021-12-27 15:03:11.605706,-2207
2021-12-27 15:03:11.605713,-2415
2021-12-27 15:03:11.605724,-869
2021-12-27 15:03:11.801769,3841
2021-12-27 15:03:11.801798,1579
2021-12-27 15:03:11.801807,-7091
2021-12-27 15:03:11.801814,-3489
2021-12-27 15:03:11.801821,-2892
2021-12-27 15:03:11.801828,1756
2021-12-27 15:03:11.801835,-553
2021-12-27 15:03:11.801842,-1656
2021-12-27 15:03:11.801852,-5982
2021-12-27 15:03:11.801859,-1653
2021-12-27 15:03:11.801870,-1672
2021-12-27 15:03:11.801877,3002
2021-12-27 15:03:11.801884,1713
2021-12-27 15:03:11.801890,-3499
2021-12-27 15:03:11.801897,4299
2021-12-27 15:03:11.801904,649
2021-12-27 15:03:11.801911,3877
2021-12-27 15:03:11.801918,2909
2021-12-27 15:03:11.801925,-6008
2021-12-27 15:03:11.801932,493
2021-12-27 15:03:11.801939,-1008
2021-12-27 15:03:11.801946,1699
2021-12-27 15:03:11.801957,-2365
2021-12-27 15:03:11.801963,3463
2021-12-27 15:03:11.801971,79
2021-12-27 15:03:11.801977,-2835
2021-12-27 15:03:12.045426,-254
2021-12-27 15:03:12.045455,2708
2021-12-27 15:03:12.045463,3374
2021-12-27 15:03:12.045471,-4153
2021-12-27 15:03:12.045478,-460
2021-12-27 15:03:12.045485,-6792
2021-12-27 15:03:12.045491,-1912
2021-12-27 15:03:12.045504,1869
2021-12-27 15:03:12.045511,-10300
2021-12-27 15:03:12.045518,294
2021-12-27 15:03:12.045524,395
2021-12-27 15:03:12.045531,-7213
2021-12-27 15:03:12.045538,3455
2021-12-27 15:03:12.045545,857
2021-12-27 15:03:12.045551,529
2021-12-27 15:03:12.045558,1116
2021-12-27 15:03:12.045565,-1052
2021-12-27 15:03:12.045572,4683
2021-12-27 15:03:12.045579,-5342
2021-12-27 15:03:12.045586,-2945
2021-12-27 15:03:12.045596,-2339
2021-12-27 15:03:12.045603,3153
2021-12-27 15:03:12.045610,1847
2021-12-27 15:03:12.045616,-1855
2021-12-27 15:03:12.045627,-1310
2021-12-27 15:03:12.045633,1222
2021-12-27 15:03:12.045640,4414
2021-12-27 15:03:12.045647,-2168
2021-12-27 15:03:12.289248,3470
2021-12-27 15:03:12.289278,-1114
2021-12-27 15:03:12.289287,-3415
2021-12-27 15:03:12.289294,860
2021-12-27 15:03:12.289302,-1203
2021-12-27 15:03:12.289309,3923
2021-12-27 15:03:12.289316,-3415
2021-12-27 15:03:12.289323,-3837
2021-12-27 15:03:12.289334,-5402
2021-12-27 15:03:12.289341,-1476
2021-12-27 15:03:12.289348,4568
2021-12-27 15:03:12.289355,-5982
2021-12-27 15:03:12.289362,-968
2021-12-27 15:03:12.289368,783
2021-12-27 15:03:12.289376,2005
2021-12-27 15:03:12.289383,3206
2021-12-27 15:03:12.289390,-4539
2021-12-27 15:03:12.289397,1354
2021-12-27 15:03:12.289404,-2147
2021-12-27 15:03:12.289411,-5862
2021-12-27 15:03:12.289418,3520
2021-12-27 15:03:12.289425,-836
2021-12-27 15:03:12.289431,2442
2021-12-27 15:03:12.289438,2605
2021-12-27 15:03:12.289445,-4083
2021-12-27 15:03:12.289452,3405
2021-12-27 15:03:12.289459,-637
2021-12-27 15:03:12.289465,893
2021-12-27 15:03:12.484137,-2413
2021-12-27 15:03:12.484188,2295
2021-12-27 15:03:12.484203,-335
2021-12-27 15:03:12.484255,-1809
2021-12-27 15:03:12.484274,-515
2021-12-27 15:03:12.484282,2468
2021-12-27 15:03:12.484290,1363
2021-12-27 15:03:12.484298,-8201
2021-12-27 15:03:12.484306,2911
2021-12-27 15:03:12.484313,1644
2021-12-27 15:03:12.484321,-3024
2021-12-27 15:03:12.484329,915
2021-12-27 15:03:12.484335,-3046
2021-12-27 15:03:12.484343,-1641
2021-12-27 15:03:12.484351,-3626
2021-12-27 15:03:12.484403,1754
2021-12-27 15:03:12.484428,-2272
2021-12-27 15:03:12.484434,2816
2021-12-27 15:03:12.484439,1821
2021-12-27 15:03:12.484443,-7760
2021-12-27 15:03:12.484448,3959
2021-12-27 15:03:12.484452,-2554
2021-12-27 15:03:12.484457,-8009
2021-12-27 15:03:12.484461,3302
2021-12-27 15:03:12.484465,-1167
2021-12-27 15:03:12.484470,-337
2021-12-27 15:03:12.484474,1205
2021-12-27 15:03:12.484479,1989
2021-12-27 15:03:12.728032,-1775
2021-12-27 15:03:12.728052,45
2021-12-27 15:03:12.728061,-2578
2021-12-27 15:03:12.728068,-4903
2021-12-27 15:03:12.728079,-1742
2021-12-27 15:03:12.728085,-2473
2021-12-27 15:03:12.728092,2279
2021-12-27 15:03:12.728099,-10319
2021-12-27 15:03:12.728106,-2348
2021-12-27 15:03:12.728113,3654
2021-12-27 15:03:12.728120,-819
2021-12-27 15:03:12.728127,424
2021-12-27 15:03:12.728134,-5802
2021-12-27 15:03:12.728141,340
2021-12-27 15:03:12.728148,2164
2021-12-27 15:03:12.728155,-2300
2021-12-27 15:03:12.728165,464
2021-12-27 15:03:12.728172,-721
2021-12-27 15:03:12.728179,3688
2021-12-27 15:03:12.728186,-3352
2021-12-27 15:03:12.728193,3654
2021-12-27 15:03:12.728200,2849
2021-12-27 15:03:12.728207,-203
2021-12-27 15:03:12.728217,-2434
2021-12-27 15:03:12.728224,1239
2021-12-27 15:03:12.728231,3348
2021-12-27 15:03:12.971684,-1068
2021-12-27 15:03:12.971717,-464
2021-12-27 15:03:12.971725,-795
2021-12-27 15:03:12.971733,3645
2021-12-27 15:03:12.971740,-5615
2021-12-27 15:03:12.971752,3259
2021-12-27 15:03:12.971759,4323
2021-12-27 15:03:12.971766,-1843
2021-12-27 15:03:12.971773,4098
2021-12-27 15:03:12.971780,-2291
2021-12-27 15:03:12.971787,-2533
2021-12-27 15:03:12.971794,282
2021-12-27 15:03:12.971801,448
2021-12-27 15:03:12.971811,-4865
2021-12-27 15:03:12.971818,-1938
2021-12-27 15:03:12.971829,-2679
2021-12-27 15:03:12.971836,4198
2021-12-27 15:03:12.971842,2931
2021-12-27 15:03:12.971849,-1692
2021-12-27 15:03:12.971860,-1042
2021-12-27 15:03:12.971867,795
2021-12-27 15:03:12.971873,4028
2021-12-27 15:03:12.971880,-1632
2021-12-27 15:03:12.971887,4304
2021-12-27 15:03:12.971894,-728
2021-12-27 15:03:12.971901,-6305
2021-12-27 15:03:13.215455,-4517
2021-12-27 15:03:13.215484,-1958
2021-12-27 15:03:13.215497,-603
2021-12-27 15:03:13.215504,-1150
2021-12-27 15:03:13.215515,-5687
2021-12-27 15:03:13.215521,-3393
2021-12-27 15:03:13.215529,4721
2021-12-27 15:03:13.215536,-546
2021-12-27 15:03:13.215543,4822
2021-12-27 15:03:13.215550,1119
2021-12-27 15:03:13.215556,-1754
2021-12-27 15:03:13.215563,-908
2021-12-27 15:03:13.215570,-4194
2021-12-27 15:03:13.215581,1512
2021-12-27 15:03:13.215587,-4941
2021-12-27 15:03:13.215594,2164
2021-12-27 15:03:13.215601,-1982
2021-12-27 15:03:13.215608,1550
2021-12-27 15:03:13.215615,2653
2021-12-27 15:03:13.215621,-1001
2021-12-27 15:03:13.215632,256
2021-12-27 15:03:13.215639,-1030
2021-12-27 15:03:13.215646,3331
2021-12-27 15:03:13.215653,-2353
2021-12-27 15:03:13.215663,3058
2021-12-27 15:03:13.459095,-745
2021-12-27 15:03:13.459128,-3674
2021-12-27 15:03:13.459136,505
2021-12-27 15:03:13.459146,-757
2021-12-27 15:03:13.459156,-1658
2021-12-27 15:03:13.459163,-7165
2021-12-27 15:03:13.459170,-817
2021-12-27 15:03:13.459177,464
2021-12-27 15:03:13.459187,467
2021-12-27 15:03:13.459194,-4333
2021-12-27 15:03:13.459201,-1478
2021-12-27 15:03:13.459208,-7616
2021-12-27 15:03:13.459215,3338
2021-12-27 15:03:13.459225,-4440
2021-12-27 15:03:13.459232,1243
2021-12-27 15:03:13.459239,-5169
2021-12-27 15:03:13.459245,-3345
2021-12-27 15:03:13.459255,-1049
2021-12-27 15:03:13.459270,3813
2021-12-27 15:03:13.459277,2197
2021-12-27 15:03:13.459285,-2840
2021-12-27 15:03:13.459291,1553
2021-12-27 15:03:13.459298,-4639
2021-12-27 15:03:13.459305,393
2021-12-27 15:03:13.701751,2044
2021-12-27 15:03:13.701773,-5620
2021-12-27 15:03:13.701794,982
2021-12-27 15:03:13.701802,-2576
2021-12-27 15:03:13.701809,-6295
2021-12-27 15:03:13.701816,-4390
2021-12-27 15:03:13.701822,-3144
2021-12-27 15:03:13.701833,-735
2021-12-27 15:03:13.701883,-7585
2021-12-27 15:03:13.701887,-503
2021-12-27 15:03:13.701892,-2835
2021-12-27 15:03:13.701896,4234
2021-12-27 15:03:13.701900,3789
2021-12-27 15:03:13.701905,-4148
2021-12-27 15:03:13.701909,2935
2021-12-27 15:03:13.701914,-3252
2021-12-27 15:03:13.701918,-2082
2021-12-27 15:03:13.701925,-1044
2021-12-27 15:03:13.701929,1857
2021-12-27 15:03:13.701933,-2286
2021-12-27 15:03:13.701938,-5512
2021-12-27 15:03:13.701942,4474
2021-12-27 15:03:13.701947,153
2021-12-27 15:03:13.701951,3038
2021-12-27 15:03:13.701955,3211
2021-12-27 15:03:13.701960,-2552
2021-12-27 15:03:13.701966,-450
2021-12-27 15:03:13.898304,472
2021-12-27 15:03:13.898336,-3240
2021-12-27 15:03:13.898344,1912
2021-12-27 15:03:13.898351,819
2021-12-27 15:03:13.898358,-5893
2021-12-27 15:03:13.898365,1301
2021-12-27 15:03:13.898372,656
2021-12-27 15:03:13.898378,3233
2021-12-27 15:03:13.898385,1598
2021-12-27 15:03:13.898392,-2001
2021-12-27 15:03:13.898399,2935
2021-12-27 15:03:13.898406,-5342
2021-12-27 15:03:13.898413,699
2021-12-27 15:03:13.898423,-3872
2021-12-27 15:03:13.898430,4201
2021-12-27 15:03:13.898437,3225
2021-12-27 15:03:13.898443,-2935
2021-12-27 15:03:13.898454,-575
2021-12-27 15:03:13.898460,1428
2021-12-27 15:03:13.898467,2686
2021-12-27 15:03:13.898474,-7940
2021-12-27 15:03:13.898481,-3424
2021-12-27 15:03:13.898487,-1076
2021-12-27 15:03:13.898494,1481
2021-12-27 15:03:13.898501,2269
2021-12-27 15:03:13.898508,-2585
2021-12-27 15:03:14.140690,783
2021-12-27 15:03:14.140708,-3269
2021-12-27 15:03:14.140716,-1823
2021-12-27 15:03:14.140721,2190
2021-12-27 15:03:14.140726,4798
2021-12-27 15:03:14.140730,-5473
2021-12-27 15:03:14.140735,-2734
2021-12-27 15:03:14.140740,-4893
2021-12-27 15:03:14.140744,-2149
2021-12-27 15:03:14.140749,-2046
2021-12-27 15:03:14.140753,-10408
2021-12-27 15:03:14.140758,2236
2021-12-27 15:03:14.140763,-270
2021-12-27 15:03:14.140771,-7669
2021-12-27 15:03:14.140776,3657
2021-12-27 15:03:14.140780,294
2021-12-27 15:03:14.140785,1816
2021-12-27 15:03:14.140789,2873
2021-12-27 15:03:14.140794,-3791
2021-12-27 15:03:14.140798,1814
2021-12-27 15:03:14.140803,-1133
2021-12-27 15:03:14.140808,1684
2021-12-27 15:03:14.140814,-3146
2021-12-27 15:03:14.140819,-206
2021-12-27 15:03:14.140823,-4134
2021-12-27 15:03:14.140828,-2473
2021-12-27 15:03:14.140835,-1008
2021-12-27 15:03:14.434585,2216
2021-12-27 15:03:14.434614,4301
2021-12-27 15:03:14.434623,-5116
2021-12-27 15:03:14.434630,2159
2021-12-27 15:03:14.434637,1831
2021-12-27 15:03:14.434644,2276
2021-12-27 15:03:14.434654,-2360
2021-12-27 15:03:14.434661,-560
2021-12-27 15:03:14.434668,-4886
2021-12-27 15:03:14.434675,-659
2021-12-27 15:03:14.434685,-1787
2021-12-27 15:03:14.434692,2152
2021-12-27 15:03:14.434699,2080
2021-12-27 15:03:14.434706,-8613
2021-12-27 15:03:14.434712,3398
2021-12-27 15:03:14.434719,3657
2021-12-27 15:03:14.434726,1028
2021-12-27 15:03:14.434732,4721
2021-12-27 15:03:14.434739,-2897
2021-12-27 15:03:14.434746,699
2021-12-27 15:03:14.434753,742
2021-12-27 15:03:14.434760,992
2021-12-27 15:03:14.434770,-1483
2021-12-27 15:03:14.434776,1301
2021-12-27 15:03:14.434783,632
2021-12-27 15:03:14.434790,-4699
2021-12-27 15:03:14.580787,1883
2021-12-27 15:03:14.580815,64
2021-12-27 15:03:14.580824,4620
2021-12-27 15:03:14.580832,-4769
2021-12-27 15:03:14.580839,376
2021-12-27 15:03:14.580845,2049
2021-12-27 15:03:14.580852,661
2021-12-27 15:03:14.580863,-2339
2021-12-27 15:03:14.580870,814
2021-12-27 15:03:14.580876,2140
2021-12-27 15:03:14.580883,-3223
2021-12-27 15:03:14.580893,1171
2021-12-27 15:03:14.580900,-1073
2021-12-27 15:03:14.580907,2684
2021-12-27 15:03:14.580914,-8064
2021-12-27 15:03:14.580920,-2969
2021-12-27 15:03:14.580927,2792
2021-12-27 15:03:14.580934,1739
2021-12-27 15:03:14.580941,3829
2021-12-27 15:03:14.580947,-2770
2021-12-27 15:03:14.580954,937
2021-12-27 15:03:14.580961,-1078
2021-12-27 15:03:14.580968,-4493
2021-12-27 15:03:14.580978,-16
2021-12-27 15:03:14.580985,-1864
2021-12-27 15:03:14.580995,-4244
2021-12-27 15:03:14.824320,-328
2021-12-27 15:03:14.824349,2528
2021-12-27 15:03:14.824358,-814
2021-12-27 15:03:14.824365,3149
2021-12-27 15:03:14.824372,-1574
2021-12-27 15:03:14.824379,-798
2021-12-27 15:03:14.824386,-2959
2021-12-27 15:03:14.824393,-2650
2021-12-27 15:03:14.824404,-1732
2021-12-27 15:03:14.824411,28
2021-12-27 15:03:14.824421,-7295
2021-12-27 15:03:14.824428,783
2021-12-27 15:03:14.824435,3420
2021-12-27 15:03:14.824442,-1622
2021-12-27 15:03:14.824453,-757
2021-12-27 15:03:14.824465,220
2021-12-27 15:03:14.824472,1862
2021-12-27 15:03:14.824479,-2336
2021-12-27 15:03:14.824486,4575
2021-12-27 15:03:14.824493,246
2021-12-27 15:03:14.824500,1308
2021-12-27 15:03:14.824507,4568
2021-12-27 15:03:14.824514,-3853
2021-12-27 15:03:14.824521,3108
2021-12-27 15:03:14.824529,1612
2021-12-27 15:03:14.824536,-1147
2021-12-27 15:03:15.068111,-1572
2021-12-27 15:03:15.068134,-1615
2021-12-27 15:03:15.068139,-982
2021-12-27 15:03:15.068144,-2976
2021-12-27 15:03:15.068151,424
2021-12-27 15:03:15.068156,-1102
2021-12-27 15:03:15.068161,1097
2021-12-27 15:03:15.068166,-7436
2021-12-27 15:03:15.068171,3204
2021-12-27 15:03:15.068175,3990
2021-12-27 15:03:15.068180,-1378
2021-12-27 15:03:15.068186,-4805
2021-12-27 15:03:15.068191,-5157
2021-12-27 15:03:15.068195,1739
2021-12-27 15:03:15.068200,512
2021-12-27 15:03:15.068206,-378
2021-12-27 15:03:15.068211,-203
2021-12-27 15:03:15.068215,1418
2021-12-27 15:03:15.068220,-10770
2021-12-27 15:03:15.068224,-3889
2021-12-27 15:03:15.068228,2391
2021-12-27 15:03:15.068233,1344
2021-12-27 15:03:15.068237,4222
2021-12-27 15:03:15.068242,-4366
2021-12-27 15:03:15.068246,318
2021-12-27 15:03:15.068251,4651
2021-12-27 15:03:15.068255,-1152
2021-12-27 15:03:15.311095,510
2021-12-27 15:03:15.311109,-1397
2021-12-27 15:03:15.311114,740
2021-12-27 15:03:15.311119,-4953
2021-12-27 15:03:15.311126,3269
2021-12-27 15:03:15.311131,-1946
2021-12-27 15:03:15.311136,2976
2021-12-27 15:03:15.311140,-6689
2021-12-27 15:03:15.311145,-232
2021-12-27 15:03:15.311152,-1636
2021-12-27 15:03:15.311156,4390
2021-12-27 15:03:15.311161,-1596
2021-12-27 15:03:15.311166,-6672
2021-12-27 15:03:15.311170,-273
2021-12-27 15:03:15.311175,-71
2021-12-27 15:03:15.311181,-258
2021-12-27 15:03:15.311186,-5967
2021-12-27 15:03:15.311190,568
2021-12-27 15:03:15.311195,-3201
2021-12-27 15:03:15.311200,2720
2021-12-27 15:03:15.311204,3796
2021-12-27 15:03:15.311209,-2962
2021-12-27 15:03:15.311213,4023
2021-12-27 15:03:15.311218,-2272
2021-12-27 15:03:15.311222,-2375
2021-12-27 15:03:15.311227,4848
2021-12-27 15:03:15.506893,-1497
2021-12-27 15:03:15.506922,3686
2021-12-27 15:03:15.506931,908
2021-12-27 15:03:15.506938,-2746
2021-12-27 15:03:15.506945,4544
2021-12-27 15:03:15.506952,-6200
2021-12-27 15:03:15.506959,-4687
2021-12-27 15:03:15.506966,1629
2021-12-27 15:03:15.506972,-5553
2021-12-27 15:03:15.506979,-354
2021-12-27 15:03:15.506986,-4139
2021-12-27 15:03:15.506993,-5759
2021-12-27 15:03:15.507000,2466
2021-12-27 15:03:15.507006,-999
2021-12-27 15:03:15.507013,1766
2021-12-27 15:03:15.507020,-975
2021-12-27 15:03:15.507027,-3863
2021-12-27 15:03:15.507033,-189
2021-12-27 15:03:15.507040,-5049
2021-12-27 15:03:15.507047,3757
2021-12-27 15:03:15.507054,3602
2021-12-27 15:03:15.507061,-4783
2021-12-27 15:03:15.507104,-215
2021-12-27 15:03:15.507111,-1902
2021-12-27 15:03:15.507121,-6813
2021-12-27 15:03:15.507128,-7738
2021-12-27 15:03:15.507135,-1871
2021-12-27 15:03:15.507142,1248
2021-12-27 15:03:15.798310,3491
2021-12-27 15:03:15.798340,-3134
2021-12-27 15:03:15.798348,2772
2021-12-27 15:03:15.798356,2672
2021-12-27 15:03:15.798363,-2506
2021-12-27 15:03:15.798373,-4139
2021-12-27 15:03:15.798380,-6315
2021-12-27 15:03:15.798387,1555
2021-12-27 15:03:15.798394,-2269
2021-12-27 15:03:15.798405,1351
2021-12-27 15:03:15.798411,-6746
2021-12-27 15:03:15.798418,625
2021-12-27 15:03:15.798425,-771
2021-12-27 15:03:15.798432,2837
2021-12-27 15:03:15.798471,3477
2021-12-27 15:03:15.798478,-1188
2021-12-27 15:03:15.798489,-1485
2021-12-27 15:03:15.798496,-802
2021-12-27 15:03:15.798506,-1878
2021-12-27 15:03:15.798513,4390
2021-12-27 15:03:15.798520,1936
2021-12-27 15:03:15.798527,-2863
2021-12-27 15:03:15.798534,4455
2021-12-27 15:03:15.798541,-1217
2021-12-27 15:03:15.798547,2967
2021-12-27 15:03:15.945451,-2135
2021-12-27 15:03:15.945479,3753
2021-12-27 15:03:15.945488,-1883
2021-12-27 15:03:15.945495,-642
2021-12-27 15:03:15.945506,-1241
2021-12-27 15:03:15.945513,3896
2021-12-27 15:03:15.945519,-673
2021-12-27 15:03:15.945526,-8584
2021-12-27 15:03:15.945533,225
2021-12-27 15:03:15.945540,-2164
2021-12-27 15:03:15.945547,2633
2021-12-27 15:03:15.945554,4589
2021-12-27 15:03:15.945561,-4949
2021-12-27 15:03:15.945568,-2830
2021-12-27 15:03:15.945575,-4436
2021-12-27 15:03:15.945582,2923
2021-12-27 15:03:15.945592,-3142
2021-12-27 15:03:15.945599,4342
2021-12-27 15:03:15.945606,1133
2021-12-27 15:03:15.945613,-4220
2021-12-27 15:03:15.945624,735
2021-12-27 15:03:15.945631,2029
2021-12-27 15:03:15.945638,4050
2021-12-27 15:03:15.945645,-4424
2021-12-27 15:03:15.945652,1155
2021-12-27 15:03:15.945659,716
2021-12-27 15:03:15.945666,2434
2021-12-27 15:03:16.188907,-3158
2021-12-27 15:03:16.188923,-4014
2021-12-27 15:03:16.188929,-11089
2021-12-27 15:03:16.188933,-3952
2021-12-27 15:03:16.188941,-1850
2021-12-27 15:03:16.188945,671
2021-12-27 15:03:16.188950,3954
2021-12-27 15:03:16.188955,-8194
2021-12-27 15:03:16.188960,-1310
2021-12-27 15:03:16.188964,-431
2021-12-27 15:03:16.188969,-1483
2021-12-27 15:03:16.188973,3578
2021-12-27 15:03:16.188978,-1898
2021-12-27 15:03:16.188983,1481
2021-12-27 15:03:16.188987,-83
2021-12-27 15:03:16.188992,-256
2021-12-27 15:03:16.188998,-1373
2021-12-27 15:03:16.189003,1155
2021-12-27 15:03:16.189007,2528
2021-12-27 15:03:16.189012,-3606
2021-12-27 15:03:16.189018,1500
2021-12-27 15:03:16.189023,606
2021-12-27 15:03:16.189027,4757
2021-12-27 15:03:16.189032,-3257
2021-12-27 15:03:16.189036,2401
2021-12-27 15:03:16.189041,1435
2021-12-27 15:03:16.432770,-1112
2021-12-27 15:03:16.432789,4179
2021-12-27 15:03:16.432794,-5656
2021-12-27 15:03:16.432798,-730
2021-12-27 15:03:16.432802,1816
2021-12-27 15:03:16.432805,-7559
2021-12-27 15:03:16.432809,2971
2021-12-27 15:03:16.432813,2037
2021-12-27 15:03:16.432816,-1926
2021-12-27 15:03:16.432820,2111
2021-12-27 15:03:16.432824,-3978
2021-12-27 15:03:16.432827,-1907
2021-12-27 15:03:16.432831,-2796
2021-12-27 15:03:16.432835,-3249
2021-12-27 15:03:16.432838,913
2021-12-27 15:03:16.432842,-4666
2021-12-27 15:03:16.432845,764
2021-12-27 15:03:16.432849,-673
2021-12-27 15:03:16.432853,-7110
2021-12-27 15:03:16.432856,2089
2021-12-27 15:03:16.432860,-2969
2021-12-27 15:03:16.432863,-2017
2021-12-27 15:03:16.432869,-4023
2021-12-27 15:03:16.432872,563
2021-12-27 15:03:16.432876,1572
2021-12-27 15:03:16.432884,-2154
2021-12-27 15:03:16.432888,3319
2021-12-27 15:03:16.432891,-1344
2021-12-27 15:03:16.432895,2202
2021-12-27 15:03:16.676534,1955
2021-12-27 15:03:16.676562,-3527
2021-12-27 15:03:16.676571,4807
2021-12-27 15:03:16.676578,-917
2021-12-27 15:03:16.676586,-71
2021-12-27 15:03:16.676596,-7465
2021-12-27 15:03:16.676603,-6921
2021-12-27 15:03:16.676610,-5464
2021-12-27 15:03:16.676617,-2118
2021-12-27 15:03:16.676627,-1390
2021-12-27 15:03:16.676634,-1478
2021-12-27 15:03:16.676641,-1370
2021-12-27 15:03:16.676648,-4973
2021-12-27 15:03:16.676655,3024
2021-12-27 15:03:16.676662,-2933
2021-12-27 15:03:16.676668,364
2021-12-27 15:03:16.676679,-4242
2021-12-27 15:03:16.676686,1565
2021-12-27 15:03:16.676693,2732
2021-12-27 15:03:16.676700,-311
2021-12-27 15:03:16.676710,-810
2021-12-27 15:03:16.676716,728
2021-12-27 15:03:16.676723,2113
2021-12-27 15:03:16.676730,-2272
2021-12-27 15:03:16.676740,1320
2021-12-27 15:03:16.871980,505
2021-12-27 15:03:16.872012,-4745
2021-12-27 15:03:16.872020,1363
2021-12-27 15:03:16.872028,3527
2021-12-27 15:03:16.872035,131
2021-12-27 15:03:16.872045,-3139
2021-12-27 15:03:16.872052,-5493
2021-12-27 15:03:16.872059,-1579
2021-12-27 15:03:16.872066,433
2021-12-27 15:03:16.872077,-3108
2021-12-27 15:03:16.872084,-2538
2021-12-27 15:03:16.872091,2458
2021-12-27 15:03:16.872098,-6981
2021-12-27 15:03:16.872104,2830
2021-12-27 15:03:16.872111,1890
2021-12-27 15:03:16.872118,-5780
2021-12-27 15:03:16.872125,4433
2021-12-27 15:03:16.872132,-1787
2021-12-27 15:03:16.872139,-2494
2021-12-27 15:03:16.872146,3343
2021-12-27 15:03:16.872152,256
2021-12-27 15:03:16.872162,19
2021-12-27 15:03:16.872169,-1960
2021-12-27 15:03:16.872176,-388
2021-12-27 15:03:16.872183,-5466
2021-12-27 15:03:16.872190,3281
2021-12-27 15:03:17.115484,-740
2021-12-27 15:03:17.115512,-4158
2021-12-27 15:03:17.115521,4143
2021-12-27 15:03:17.115528,-7777
2021-12-27 15:03:17.115535,-5088
2021-12-27 15:03:17.115542,4709
2021-12-27 15:03:17.115549,-572
2021-12-27 15:03:17.115556,3420
2021-12-27 15:03:17.115563,-932
2021-12-27 15:03:17.115570,-4184
2021-12-27 15:03:17.115577,-1466
2021-12-27 15:03:17.115583,-3312
2021-12-27 15:03:17.115594,-2542
2021-12-27 15:03:17.115601,-7858
2021-12-27 15:03:17.115607,4687
2021-12-27 15:03:17.115614,-1231
2021-12-27 15:03:17.115621,467
2021-12-27 15:03:17.115628,4503
2021-12-27 15:03:17.115635,-4558
2021-12-27 15:03:17.115642,-968
2021-12-27 15:03:17.115649,-1265
2021-12-27 15:03:17.115655,793
2021-12-27 15:03:17.115662,3796
2021-12-27 15:03:17.115669,-1878
2021-12-27 15:03:17.115680,2049
2021-12-27 15:03:17.115686,-2458
2021-12-27 15:03:17.115696,-1361
2021-12-27 15:03:17.358716,1886
2021-12-27 15:03:17.358749,-2971
2021-12-27 15:03:17.358757,3587
2021-12-27 15:03:17.358764,-496
2021-12-27 15:03:17.358772,-5109
2021-12-27 15:03:17.358779,848
2021-12-27 15:03:17.358786,153
2021-12-27 15:03:17.358793,4687
2021-12-27 15:03:17.358800,107
2021-12-27 15:03:17.358807,-1174
2021-12-27 15:03:17.358814,4023
2021-12-27 15:03:17.358821,-5756
2021-12-27 15:03:17.358828,2355
2021-12-27 15:03:17.358838,-3664
2021-12-27 15:03:17.358848,1354
2021-12-27 15:03:17.358855,-1929
2021-12-27 15:03:17.358866,-1862
2021-12-27 15:03:17.358873,-409
2021-12-27 15:03:17.358880,-1418
2021-12-27 15:03:17.358887,-1011
2021-12-27 15:03:17.358898,-2703
2021-12-27 15:03:17.358905,1318
2021-12-27 15:03:17.358912,3678
2021-12-27 15:03:17.358919,-1936
2021-12-27 15:03:17.603011,14
2021-12-27 15:03:17.603040,-1469
2021-12-27 15:03:17.603052,-2238
2021-12-27 15:03:17.603060,4038
2021-12-27 15:03:17.603067,3513
2021-12-27 15:03:17.603073,-4778
2021-12-27 15:03:17.603081,-1517
2021-12-27 15:03:17.603088,-3947
2021-12-27 15:03:17.603095,3106
2021-12-27 15:03:17.603102,4584
2021-12-27 15:03:17.603119,-2037
2021-12-27 15:03:17.603126,4917
2021-12-27 15:03:17.603133,-2995
2021-12-27 15:03:17.603140,-4534
2021-12-27 15:03:17.603151,-659
2021-12-27 15:03:17.603158,1061
2021-12-27 15:03:17.603165,-5437
2021-12-27 15:03:17.603172,-10027
2021-12-27 15:03:17.603178,2406
2021-12-27 15:03:17.603186,-910
2021-12-27 15:03:17.603192,1265
2021-12-27 15:03:17.603199,1809
2021-12-27 15:03:17.603206,-5529
2021-12-27 15:03:17.603213,3408
2021-12-27 15:03:17.603220,-985
2021-12-27 15:03:17.603227,-2003
2021-12-27 15:03:17.603238,-910
2021-12-27 15:03:17.845789,3633
2021-12-27 15:03:17.845819,1598
2021-12-27 15:03:17.845828,-6964
2021-12-27 15:03:17.845835,-1210
2021-12-27 15:03:17.845842,-2327
2021-12-27 15:03:17.845849,-35
2021-12-27 15:03:17.845856,-227
2021-12-27 15:03:17.845863,-3571
2021-12-27 15:03:17.845870,83
2021-12-27 15:03:17.845877,-8095
2021-12-27 15:03:17.845884,-697
2021-12-27 15:03:17.845895,-3952
2021-12-27 15:03:17.845902,1886
2021-12-27 15:03:17.845909,-529
2021-12-27 15:03:17.845916,-8850
2021-12-27 15:03:17.845923,3070
2021-12-27 15:03:17.845963,1840
2021-12-27 15:03:17.845970,1979
2021-12-27 15:03:17.845977,3211
2021-12-27 15:03:17.845983,-3594
2021-12-27 15:03:17.845990,1289
2021-12-27 15:03:17.845997,-869
2021-12-27 15:03:17.846004,1912
2021-12-27 15:03:17.846014,-5653
2021-12-27 15:03:17.846021,-2070
2021-12-27 15:03:17.846028,-306
2021-12-27 15:03:17.846034,-1073
2021-12-27 15:03:18.042123,-462
2021-12-27 15:03:18.042151,2399
2021-12-27 15:03:18.042160,3916
2021-12-27 15:03:18.042167,-6715
2021-12-27 15:03:18.042174,-1636
2021-12-27 15:03:18.042181,-536
2021-12-27 15:03:18.042188,2813
2021-12-27 15:03:18.042198,-3563
2021-12-27 15:03:18.042205,2171
2021-12-27 15:03:18.042212,-222
2021-12-27 15:03:18.042219,-4059
2021-12-27 15:03:18.042230,606
2021-12-27 15:03:18.042237,239
2021-12-27 15:03:18.042244,2861
2021-12-27 15:03:18.042250,-2787
2021-12-27 15:03:18.042257,4028
2021-12-27 15:03:18.042264,1200
2021-12-27 15:03:18.042271,1303
2021-12-27 15:03:18.042278,4982
2021-12-27 15:03:18.042285,-2921
2021-12-27 15:03:18.042291,3535
2021-12-27 15:03:18.042298,1322
2021-12-27 15:03:18.042305,-7614
2021-12-27 15:03:18.042312,-2713
2021-12-27 15:03:18.042319,-3554
2021-12-27 15:03:18.042326,623
2021-12-27 15:03:18.042333,-805
2021-12-27 15:03:18.042340,-4606
2021-12-27 15:03:18.285477,1157
2021-12-27 15:03:18.285498,-1632
2021-12-27 15:03:18.285506,4325
2021-12-27 15:03:18.285513,-1560
2021-12-27 15:03:18.285520,417
2021-12-27 15:03:18.285527,-3185
2021-12-27 15:03:18.285534,-1392
2021-12-27 15:03:18.285545,-2832
2021-12-27 15:03:18.285552,1845
2021-12-27 15:03:18.285559,4160
2021-12-27 15:03:18.285566,-7367
2021-12-27 15:03:18.285573,2763
2021-12-27 15:03:18.285579,2693
2021-12-27 15:03:18.285586,-620
2021-12-27 15:03:18.285597,-1011
2021-12-27 15:03:18.285604,1902
2021-12-27 15:03:18.285611,862
2021-12-27 15:03:18.285618,-1473
2021-12-27 15:03:18.285628,-685
2021-12-27 15:03:18.285635,2988
2021-12-27 15:03:18.285642,3992
2021-12-27 15:03:18.285649,-3633
2021-12-27 15:03:18.285656,4591
2021-12-27 15:03:18.285663,671
2021-12-27 15:03:18.285669,-57
2021-12-27 15:03:18.285676,4311
2021-12-27 15:03:18.480848,-6202
2021-12-27 15:03:18.480877,472
2021-12-27 15:03:18.480886,2514
2021-12-27 15:03:18.480893,-2111
2021-12-27 15:03:18.480904,275
2021-12-27 15:03:18.480911,1071
2021-12-27 15:03:18.480918,115
2021-12-27 15:03:18.480925,-7000
2021-12-27 15:03:18.480932,4493
2021-12-27 15:03:18.480939,2439
2021-12-27 15:03:18.480946,-28
2021-12-27 15:03:18.480957,-5898
2021-12-27 15:03:18.480963,-4083
2021-12-27 15:03:18.480971,831
2021-12-27 15:03:18.480977,1368
2021-12-27 15:03:18.480988,-1366
2021-12-27 15:03:18.480994,1471
2021-12-27 15:03:18.481001,1548
2021-12-27 15:03:18.481008,-4479
2021-12-27 15:03:18.481018,2041
2021-12-27 15:03:18.481025,-488
2021-12-27 15:03:18.481035,-4203
2021-12-27 15:03:18.481042,642
2021-12-27 15:03:18.481049,3635
2021-12-27 15:03:18.481055,-1440
2021-12-27 15:03:18.724275,-1095
2021-12-27 15:03:18.724304,-10964
2021-12-27 15:03:18.724312,-8246
2021-12-27 15:03:18.724319,-3348
2021-12-27 15:03:18.724326,-2288
2021-12-27 15:03:18.724337,177
2021-12-27 15:03:18.724344,-591
2021-12-27 15:03:18.724362,3822
2021-12-27 15:03:18.724369,-7841
2021-12-27 15:03:18.724376,1136
2021-12-27 15:03:18.724386,-951
2021-12-27 15:03:18.724393,4970
2021-12-27 15:03:18.724400,-1725
2021-12-27 15:03:18.724407,-1785
2021-12-27 15:03:18.724414,2540
2021-12-27 15:03:18.724421,-450
2021-12-27 15:03:18.724428,4915
2021-12-27 15:03:18.724435,-2504
2021-12-27 15:03:18.724441,-3537
2021-12-27 15:03:18.724448,3019
2021-12-27 15:03:18.724455,-3863
2021-12-27 15:03:18.724462,2811
2021-12-27 15:03:18.724469,2902
2021-12-27 15:03:18.724476,-1840
2021-12-27 15:03:18.724483,4455
2021-12-27 15:03:18.724490,-3242
2021-12-27 15:03:18.724497,-615
2021-12-27 15:03:18.724504,4239
2021-12-27 15:03:18.968035,-1493
2021-12-27 15:03:18.968063,4858
2021-12-27 15:03:18.968072,-697
2021-12-27 15:03:18.968079,-7163
2021-12-27 15:03:18.968086,-6859
2021-12-27 15:03:18.968093,-8826
2021-12-27 15:03:18.968100,3110
2021-12-27 15:03:18.968106,-745
2021-12-27 15:03:18.968114,-6470
2021-12-27 15:03:18.968121,3642
2021-12-27 15:03:18.968127,-5246
2021-12-27 15:03:18.968134,-5447
2021-12-27 15:03:18.968141,3086
2021-12-27 15:03:18.968148,-414
2021-12-27 15:03:18.968155,2701
2021-12-27 15:03:18.968162,-1524
2021-12-27 15:03:18.968169,-663
2021-12-27 15:03:18.968176,3559
2021-12-27 15:03:18.968183,-3381
2021-12-27 15:03:18.968190,4445
2021-12-27 15:03:18.968197,2466
2021-12-27 15:03:18.968203,-3218
2021-12-27 15:03:18.968214,-1303
2021-12-27 15:03:18.968221,122
2021-12-27 15:03:18.968228,4896
2021-12-27 15:03:18.968235,-2554
2021-12-27 15:03:18.968242,3194
2021-12-27 15:03:18.968248,1224
2021-12-27 15:03:18.968255,-615
2021-12-27 15:03:19.260171,3302
2021-12-27 15:03:19.260198,-1960
2021-12-27 15:03:19.260207,3405
2021-12-27 15:03:19.260214,985
2021-12-27 15:03:19.260221,-2339
2021-12-27 15:03:19.260228,397
2021-12-27 15:03:19.260236,-11173
2021-12-27 15:03:19.260242,-829
2021-12-27 15:03:19.260253,-3872
2021-12-27 15:03:19.260260,4129
2021-12-27 15:03:19.260267,1723
2021-12-27 15:03:19.260274,-5581
2021-12-27 15:03:19.260281,-357
2021-12-27 15:03:19.260288,-1195
2021-12-27 15:03:19.260295,3743
2021-12-27 15:03:19.260302,-299
2021-12-27 15:03:19.260309,-3582
2021-12-27 15:03:19.260316,4802
2021-12-27 15:03:19.260323,-2758
2021-12-27 15:03:19.260329,-484
2021-12-27 15:03:19.260336,3683
2021-12-27 15:03:19.260343,-2010
2021-12-27 15:03:19.260354,162
2021-12-27 15:03:19.260361,-2521
2021-12-27 15:03:19.260368,3985
2021-12-27 15:03:19.260375,-2075
2021-12-27 15:03:19.260382,3858
2021-12-27 15:03:19.260389,3431
2021-12-27 15:03:19.455177,-2365
2021-12-27 15:03:19.455208,1680
2021-12-27 15:03:19.455217,-6176
2021-12-27 15:03:19.455224,-1890
2021-12-27 15:03:19.455231,1809
2021-12-27 15:03:19.455237,-4505
2021-12-27 15:03:19.455244,4443
2021-12-27 15:03:19.455251,-1878
2021-12-27 15:03:19.455258,-7266
2021-12-27 15:03:19.455265,2020
2021-12-27 15:03:19.455272,-366
2021-12-27 15:03:19.455279,3523
2021-12-27 15:03:19.455286,1763
2021-12-27 15:03:19.455293,-4424
2021-12-27 15:03:19.455300,-2317
2021-12-27 15:03:19.455306,-6288
2021-12-27 15:03:19.455313,3760
2021-12-27 15:03:19.455323,-3652
2021-12-27 15:03:19.455330,4484
2021-12-27 15:03:19.455337,-2710
2021-12-27 15:03:19.455344,-5998
2021-12-27 15:03:19.455354,668
2021-12-27 15:03:19.455361,2665
2021-12-27 15:03:19.455368,2602
2021-12-27 15:03:19.455375,-3714
2021-12-27 15:03:19.455382,1512
2021-12-27 15:03:19.455389,-476
2021-12-27 15:03:19.455396,3911
2021-12-27 15:03:19.699681,4548
2021-12-27 15:03:19.699709,-2384
2021-12-27 15:03:19.699718,3065
2021-12-27 15:03:19.699726,-4448
2021-12-27 15:03:19.699733,-2713
2021-12-27 15:03:19.699743,-985
2021-12-27 15:03:19.699750,2799
2021-12-27 15:03:19.699757,2859
2021-12-27 15:03:19.699764,-5136
2021-12-27 15:03:19.699771,-1680
2021-12-27 15:03:19.699778,-6058
2021-12-27 15:03:19.699784,1358
2021-12-27 15:03:19.699795,-3923
2021-12-27 15:03:19.699802,-33
2021-12-27 15:03:19.699809,-3165
2021-12-27 15:03:19.699816,-57
2021-12-27 15:03:19.699826,-1929
2021-12-27 15:03:19.699833,2207
2021-12-27 15:03:19.699839,1473
2021-12-27 15:03:19.699846,-3281
2021-12-27 15:03:19.699856,659
2021-12-27 15:03:19.699863,2068
2021-12-27 15:03:19.699870,4081
2021-12-27 15:03:19.699877,-3223
2021-12-27 15:03:19.699884,3736
2021-12-27 15:03:19.699891,436
2021-12-27 15:03:19.989977,433
2021-12-27 15:03:19.989997,-3388
2021-12-27 15:03:19.990002,922
2021-12-27 15:03:19.990007,268
2021-12-27 15:03:19.990012,-6231
2021-12-27 15:03:19.990016,4373
2021-12-27 15:03:19.990021,1461
2021-12-27 15:03:19.990025,328
2021-12-27 15:03:19.990030,2554
2021-12-27 15:03:19.990034,-1217
2021-12-27 15:03:19.990039,4083
2021-12-27 15:03:19.990043,-2787
2021-12-27 15:03:19.990048,-1147
2021-12-27 15:03:19.990055,-3000
2021-12-27 15:03:19.990059,2494
2021-12-27 15:03:19.990071,1183
2021-12-27 15:03:19.990076,-5306
2021-12-27 15:03:19.990082,184
2021-12-27 15:03:19.990087,-479
2021-12-27 15:03:19.990091,4565
2021-12-27 15:03:19.990096,-2446
2021-12-27 15:03:19.990100,2197
2021-12-27 15:03:19.990105,738
2021-12-27 15:03:19.990109,-196
2021-12-27 15:03:19.990114,3947
2021-12-27 15:03:19.990118,-1658
2021-12-27 15:03:19.990122,4059
2021-12-27 15:03:20.137602,1507
2021-12-27 15:03:20.137619,-2818
2021-12-27 15:03:20.137628,-1656
2021-12-27 15:03:20.137632,1339
2021-12-27 15:03:20.137637,4735
2021-12-27 15:03:20.137642,-7714
2021-12-27 15:03:20.137646,-1797
2021-12-27 15:03:20.137651,1183
2021-12-27 15:03:20.137655,539
2021-12-27 15:03:20.137660,4496
2021-12-27 15:03:20.137664,-1207
2021-12-27 15:03:20.137669,4129
2021-12-27 15:03:20.137673,709
2021-12-27 15:03:20.137678,-7197
2021-12-27 15:03:20.137682,1030
2021-12-27 15:03:20.137687,-4615
2021-12-27 15:03:20.137692,-2178
2021-12-27 15:03:20.137696,3180
2021-12-27 15:03:20.137700,-6952
2021-12-27 15:03:20.137705,-989
2021-12-27 15:03:20.137710,1402
2021-12-27 15:03:20.137714,1222
2021-12-27 15:03:20.137721,-2097
2021-12-27 15:03:20.137726,2005
2021-12-27 15:03:20.137730,340
2021-12-27 15:03:20.137734,-2619
2021-12-27 15:03:20.137741,-67
2021-12-27 15:03:20.333186,1284
2021-12-27 15:03:20.333215,3947
2021-12-27 15:03:20.333226,-5478
2021-12-27 15:03:20.333239,2391
2021-12-27 15:03:20.333251,2444
2021-12-27 15:03:20.333263,510
2021-12-27 15:03:20.333279,-4309
2021-12-27 15:03:20.333292,-5006
2021-12-27 15:03:20.333314,-3002
2021-12-27 15:03:20.333323,697
2021-12-27 15:03:20.333330,-2032
2021-12-27 15:03:20.333334,1083
2021-12-27 15:03:20.333339,2154
2021-12-27 15:03:20.333343,-9759
2021-12-27 15:03:20.333348,-443
2021-12-27 15:03:20.333352,1840
2021-12-27 15:03:20.333357,620
2021-12-27 15:03:20.333361,4941
2021-12-27 15:03:20.333366,-4508
2021-12-27 15:03:20.333370,-544
2021-12-27 15:03:20.333375,3036
2021-12-27 15:03:20.333379,-4
2021-12-27 15:03:20.333386,-742
2021-12-27 15:03:20.333390,-261
2021-12-27 15:03:20.333395,1346
2021-12-27 15:03:20.333399,-3000
2021-12-27 15:03:20.576974,1588
2021-12-27 15:03:20.577003,-949
2021-12-27 15:03:20.577012,4218
2021-12-27 15:03:20.577019,-8016
2021-12-27 15:03:20.577026,-3077
2021-12-27 15:03:20.577034,4304
2021-12-27 15:03:20.577041,361
2021-12-27 15:03:20.577048,4383
2021-12-27 15:03:20.577055,-1833
2021-12-27 15:03:20.577062,-2983
2021-12-27 15:03:20.577069,-1692
2021-12-27 15:03:20.577076,-3173
2021-12-27 15:03:20.577086,795
2021-12-27 15:03:20.577093,-2959
2021-12-27 15:03:20.577100,3681
2021-12-27 15:03:20.577107,-3328
2021-12-27 15:03:20.577114,318
2021-12-27 15:03:20.577121,-354
2021-12-27 15:03:20.577128,-2878
2021-12-27 15:03:20.577139,-6854
2021-12-27 15:03:20.577146,-10260
2021-12-27 15:03:20.577152,577
2021-12-27 15:03:20.577159,1210
2021-12-27 15:03:20.577170,-1080
2021-12-27 15:03:20.577177,-987
2021-12-27 15:03:20.577187,-3026
2021-12-27 15:03:20.820948,2899
2021-12-27 15:03:20.820977,4098
2021-12-27 15:03:20.820986,-3343
2021-12-27 15:03:20.820993,3530
2021-12-27 15:03:20.821001,-2068
2021-12-27 15:03:20.821008,-4843
2021-12-27 15:03:20.821014,-1382
2021-12-27 15:03:20.821021,-3554
2021-12-27 15:03:20.821028,2403
2021-12-27 15:03:20.821035,-1512
2021-12-27 15:03:20.821041,-872
2021-12-27 15:03:20.821048,2432
2021-12-27 15:03:20.821055,-7384
2021-12-27 15:03:20.821062,2190
2021-12-27 15:03:20.821068,3765
2021-12-27 15:03:20.821075,-3961
2021-12-27 15:03:20.821086,-718
2021-12-27 15:03:20.821093,-1780
2021-12-27 15:03:20.821099,1941
2021-12-27 15:03:20.821106,-6192
2021-12-27 15:03:20.821113,246
2021-12-27 15:03:20.821120,-455
2021-12-27 15:03:20.821127,-2899
2021-12-27 15:03:20.821134,754
2021-12-27 15:03:20.821140,-6363
2021-12-27 15:03:20.821147,301
2021-12-27 15:03:20.821154,1126
2021-12-27 15:03:20.821161,-3046
2021-12-27 15:03:21.064485,-2367
2021-12-27 15:03:21.064515,-1469
2021-12-27 15:03:21.064524,3530
2021-12-27 15:03:21.064531,-3393
2021-12-27 15:03:21.064538,3995
2021-12-27 15:03:21.064545,1600
2021-12-27 15:03:21.064553,-4534
2021-12-27 15:03:21.064560,-1881
2021-12-27 15:03:21.064567,-4824
2021-12-27 15:03:21.064574,3872
2021-12-27 15:03:21.064581,3165
2021-12-27 15:03:21.064588,-2111
2021-12-27 15:03:21.064595,4915
2021-12-27 15:03:21.064603,-4635
2021-12-27 15:03:21.064610,-3863
2021-12-27 15:03:21.064617,4464
2021-12-27 15:03:21.064624,-776
2021-12-27 15:03:21.064631,4591
2021-12-27 15:03:21.064638,1176
2021-12-27 15:03:21.064645,-2399
2021-12-27 15:03:21.064652,2331
2021-12-27 15:03:21.064659,-4970
2021-12-27 15:03:21.064666,-742
2021-12-27 15:03:21.064673,1958
2021-12-27 15:03:21.064680,-153
2021-12-27 15:03:21.064691,-6077
2021-12-27 15:03:21.064698,-8977
2021-12-27 15:03:21.064705,2224
2021-12-27 15:03:21.064712,1636
2021-12-27 15:03:21.258919,4989
2021-12-27 15:03:21.258948,-388
2021-12-27 15:03:21.258956,-3261
2021-12-27 15:03:21.258964,3065
2021-12-27 15:03:21.258971,-762
2021-12-27 15:03:21.258978,4860
2021-12-27 15:03:21.258985,3559
2021-12-27 15:03:21.259017,-2312
2021-12-27 15:03:21.259056,1404
2021-12-27 15:03:21.259066,-6406
2021-12-27 15:03:21.259074,1493
2021-12-27 15:03:21.259085,-4455
2021-12-27 15:03:21.259092,230
2021-12-27 15:03:21.259099,-3551
2021-12-27 15:03:21.259106,-7604
2021-12-27 15:03:21.259113,3388
2021-12-27 15:03:21.259120,644
2021-12-27 15:03:21.259161,2971
2021-12-27 15:03:21.259169,2375
2021-12-27 15:03:21.259176,-3604
2021-12-27 15:03:21.259183,1668
2021-12-27 15:03:21.259190,-1862
2021-12-27 15:03:21.259197,457
2021-12-27 15:03:21.259204,953
2021-12-27 15:03:21.259211,-4395
2021-12-27 15:03:21.259222,-2185
2021-12-27 15:03:21.259228,-6775
2021-12-27 15:03:21.259235,4155
2021-12-27 15:03:21.503234,-2919
2021-12-27 15:03:21.503263,-1778
2021-12-27 15:03:21.503272,587
2021-12-27 15:03:21.503279,-6396
2021-12-27 15:03:21.503286,-3007
2021-12-27 15:03:21.503293,-3086
2021-12-27 15:03:21.503300,3360
2021-12-27 15:03:21.503307,4299
2021-12-27 15:03:21.503314,-4934
2021-12-27 15:03:21.503321,2327
2021-12-27 15:03:21.503328,-1735
2021-12-27 15:03:21.503334,-3757
2021-12-27 15:03:21.503345,-582
2021-12-27 15:03:21.503352,915
2021-12-27 15:03:21.503359,1615
2021-12-27 15:03:21.503366,-3101
2021-12-27 15:03:21.503373,3971
2021-12-27 15:03:21.503379,47
2021-12-27 15:03:21.503386,2188
2021-12-27 15:03:21.503393,4340
2021-12-27 15:03:21.503400,-3259
2021-12-27 15:03:21.503407,4419
2021-12-27 15:03:21.503414,994
2021-12-27 15:03:21.503421,-1157
2021-12-27 15:03:21.503431,-5651
2021-12-27 15:03:21.503438,-153
2021-12-27 15:03:21.503445,4766
2021-12-27 15:03:21.503452,-2562
2021-12-27 15:03:21.747327,3719
2021-12-27 15:03:21.747356,-1917
2021-12-27 15:03:21.747365,-8440
2021-12-27 15:03:21.747372,-4047
2021-12-27 15:03:21.747379,155
2021-12-27 15:03:21.747386,3650
2021-12-27 15:03:21.747393,-6145
2021-12-27 15:03:21.747400,-642
2021-12-27 15:03:21.747410,-3681
2021-12-27 15:03:21.747417,2717
2021-12-27 15:03:21.747424,3628
2021-12-27 15:03:21.747431,-7175
2021-12-27 15:03:21.747438,3290
2021-12-27 15:03:21.747445,1979
2021-12-27 15:03:21.747451,393
2021-12-27 15:03:21.747458,4266
2021-12-27 15:03:21.747465,-3992
2021-12-27 15:03:21.747472,-1061
2021-12-27 15:03:21.747479,-738
2021-12-27 15:03:21.747486,-196
2021-12-27 15:03:21.747493,4275
2021-12-27 15:03:21.747499,-2346
2021-12-27 15:03:21.747506,3350
2021-12-27 15:03:21.747513,2473
2021-12-27 15:03:21.747520,-3606
2021-12-27 15:03:21.747527,4961
2021-12-27 15:03:21.747533,-2794
2021-12-27 15:03:21.747540,-4004
2021-12-27 15:03:21.747547,3834
2021-12-27 15:03:21.989040,-1507
2021-12-27 15:03:21.989062,1878
2021-12-27 15:03:21.989069,-2173
2021-12-27 15:03:21.989073,-3518
2021-12-27 15:03:21.989078,4340
2021-12-27 15:03:21.989083,-3940
2021-12-27 15:03:21.989087,-987
2021-12-27 15:03:21.989092,-637
2021-12-27 15:03:21.989096,-7091
2021-12-27 15:03:21.989101,3139
2021-12-27 15:03:21.989105,776
2021-12-27 15:03:21.989110,762
2021-12-27 15:03:21.989114,3872
2021-12-27 15:03:21.989119,-6830
2021-12-27 15:03:21.989123,-3357
2021-12-27 15:03:21.989128,-239
2021-12-27 15:03:21.989132,1699
2021-12-27 15:03:21.989139,-2087
2021-12-27 15:03:21.989144,2399
2021-12-27 15:03:21.989148,891
2021-12-27 15:03:21.989152,-4148
2021-12-27 15:03:21.989159,1239
2021-12-27 15:03:21.989163,587
2021-12-27 15:03:21.989170,-4395
2021-12-27 15:03:21.989174,1653
2021-12-27 15:03:21.989179,2931
2021-12-27 15:03:21.989183,-1500
2021-12-27 15:03:22.185738,953
2021-12-27 15:03:22.185766,-3686
2021-12-27 15:03:22.185775,-1205
2021-12-27 15:03:22.185782,-4330
2021-12-27 15:03:22.185789,-2528
2021-12-27 15:03:22.185799,-340
2021-12-27 15:03:22.185807,-2645
2021-12-27 15:03:22.185813,-3700
2021-12-27 15:03:22.185820,-12757
2021-12-27 15:03:22.185844,3865
2021-12-27 15:03:22.185854,-1433
2021-12-27 15:03:22.185865,-1342
2021-12-27 15:03:22.185872,-570
2021-12-27 15:03:22.185879,2461
2021-12-27 15:03:22.185886,417
2021-12-27 15:03:22.185896,-88
2021-12-27 15:03:22.185903,-158
2021-12-27 15:03:22.185910,2976
2021-12-27 15:03:22.185916,-3098
2021-12-27 15:03:22.185927,3237
2021-12-27 15:03:22.185934,-822
2021-12-27 15:03:22.185944,-2765
2021-12-27 15:03:22.185951,826
2021-12-27 15:03:22.185958,3312
2021-12-27 15:03:22.429838,-3961
2021-12-27 15:03:22.429866,1044
2021-12-27 15:03:22.429875,-4424
2021-12-27 15:03:22.429883,-3230
2021-12-27 15:03:22.429890,867
2021-12-27 15:03:22.429897,-5735
2021-12-27 15:03:22.429904,4733
2021-12-27 15:03:22.429912,3230
2021-12-27 15:03:22.429919,-3084
2021-12-27 15:03:22.429926,3563
2021-12-27 15:03:22.429933,-4575
2021-12-27 15:03:22.429940,-2945
2021-12-27 15:03:22.429947,3101
2021-12-27 15:03:22.429954,457
2021-12-27 15:03:22.429961,3259
2021-12-27 15:03:22.429968,-4553
2021-12-27 15:03:22.429975,-2293
2021-12-27 15:03:22.429982,1852
2021-12-27 15:03:22.429989,-6420
2021-12-27 15:03:22.429996,2804
2021-12-27 15:03:22.430003,1495
2021-12-27 15:03:22.430010,-3266
2021-12-27 15:03:22.430017,4548
2021-12-27 15:03:22.430024,-2365
2021-12-27 15:03:22.430031,649
2021-12-27 15:03:22.430038,3587
2021-12-27 15:03:22.430045,-2868
2021-12-27 15:03:22.430052,3319
2021-12-27 15:03:22.430059,79
2021-12-27 15:03:22.430066,-134
2021-12-27 15:03:22.673249,2751
2021-12-27 15:03:22.673277,-2341
2021-12-27 15:03:22.673286,4064
2021-12-27 15:03:22.673294,-1771
2021-12-27 15:03:22.673301,-5565
2021-12-27 15:03:22.673308,2887
2021-12-27 15:03:22.673315,-4776
2021-12-27 15:03:22.673323,71
2021-12-27 15:03:22.673330,4325
2021-12-27 15:03:22.673337,-2125
2021-12-27 15:03:22.673348,-165
2021-12-27 15:03:22.673355,-4802
2021-12-27 15:03:22.673362,-2720
2021-12-27 15:03:22.673368,-8917
2021-12-27 15:03:22.673376,-258
2021-12-27 15:03:22.673382,3185
2021-12-27 15:03:22.673389,1068
2021-12-27 15:03:22.673396,4196
2021-12-27 15:03:22.673403,-2907
2021-12-27 15:03:22.673410,2319
2021-12-27 15:03:22.673417,3609
2021-12-27 15:03:22.673424,-1610
2021-12-27 15:03:22.673434,71
2021-12-27 15:03:22.673441,-1382
2021-12-27 15:03:22.673448,4457
2021-12-27 15:03:22.673455,-1692
2021-12-27 15:03:22.673462,4999
2021-12-27 15:03:22.673469,3218
2021-12-27 15:03:22.868528,-812
2021-12-27 15:03:22.868557,4615
2021-12-27 15:03:22.868565,-3647
2021-12-27 15:03:22.868573,1004
2021-12-27 15:03:22.868580,4901
2021-12-27 15:03:22.868587,-3067
2021-12-27 15:03:22.868594,512
2021-12-27 15:03:22.868601,-5497
2021-12-27 15:03:22.868608,-5073
2021-12-27 15:03:22.868621,3307
2021-12-27 15:03:22.868628,-28
2021-12-27 15:03:22.868639,2190
2021-12-27 15:03:22.868646,-3146
2021-12-27 15:03:22.868653,-620
2021-12-27 15:03:22.868660,-5083
2021-12-27 15:03:22.868674,-2780
2021-12-27 15:03:22.868684,-1147
2021-12-27 15:03:22.868691,-2542
2021-12-27 15:03:22.868701,-38
2021-12-27 15:03:22.868708,4088
2021-12-27 15:03:22.868715,2403
2021-12-27 15:03:22.868722,-3134
2021-12-27 15:03:22.868729,2257
2021-12-27 15:03:22.868736,-671
2021-12-27 15:03:22.868742,4534
2021-12-27 15:03:23.112386,4170
2021-12-27 15:03:23.112415,-2097
2021-12-27 15:03:23.112424,3472
2021-12-27 15:03:23.112432,-4970
2021-12-27 15:03:23.112439,-1826
2021-12-27 15:03:23.112450,-1378
2021-12-27 15:03:23.112457,1835
2021-12-27 15:03:23.112464,-2729
2021-12-27 15:03:23.112471,-9435
2021-12-27 15:03:23.112478,1217
2021-12-27 15:03:23.112484,1032
2021-12-27 15:03:23.112492,3714
2021-12-27 15:03:23.112498,1624
2021-12-27 15:03:23.112505,-6621
2021-12-27 15:03:23.112512,716
2021-12-27 15:03:23.112519,-1253
2021-12-27 15:03:23.112526,747
2021-12-27 15:03:23.112536,-7077
2021-12-27 15:03:23.112543,-6933
2021-12-27 15:03:23.112550,-4115
2021-12-27 15:03:23.112557,-232
2021-12-27 15:03:23.112567,-2104
2021-12-27 15:03:23.112574,3067
2021-12-27 15:03:23.112581,3856
2021-12-27 15:03:23.112588,-4107
2021-12-27 15:03:23.112594,2576
2021-12-27 15:03:23.112601,-3149
2021-12-27 15:03:23.355268,-1795
2021-12-27 15:03:23.355296,3659
2021-12-27 15:03:23.355305,-6861
2021-12-27 15:03:23.355313,117
2021-12-27 15:03:23.355320,-778
2021-12-27 15:03:23.355327,-7479
2021-12-27 15:03:23.355334,3168
2021-12-27 15:03:23.355341,488
2021-12-27 15:03:23.355347,35
2021-12-27 15:03:23.355354,-690
2021-12-27 15:03:23.355361,-8440
2021-12-27 15:03:23.355368,-3024
2021-12-27 15:03:23.355375,-2526
2021-12-27 15:03:23.355382,2602
2021-12-27 15:03:23.355389,4647
2021-12-27 15:03:23.355395,-4397
2021-12-27 15:03:23.355402,4500
2021-12-27 15:03:23.355409,2113
2021-12-27 15:03:23.355416,-3158
2021-12-27 15:03:23.355426,-927
2021-12-27 15:03:23.355433,146
2021-12-27 15:03:23.355440,2552
2021-12-27 15:03:23.355447,-5342
2021-12-27 15:03:23.355454,1914
2021-12-27 15:03:23.355461,606
2021-12-27 15:03:23.355467,-544
2021-12-27 15:03:23.355474,2943
2021-12-27 15:03:23.355481,-1807
2021-12-27 15:03:23.355488,4450
2021-12-27 15:03:23.647821,524
2021-12-27 15:03:23.647850,-2408
2021-12-27 15:03:23.647862,-2180
2021-12-27 15:03:23.647869,2058
2021-12-27 15:03:23.647876,4318
2021-12-27 15:03:23.647883,-7980
2021-12-27 15:03:23.647890,-3415
2021-12-27 15:03:23.647897,-2494
2021-12-27 15:03:23.647904,-1061
2021-12-27 15:03:23.647911,1188
2021-12-27 15:03:23.647917,-7010
2021-12-27 15:03:23.647924,-4385
2021-12-27 15:03:23.647931,-6756
2021-12-27 15:03:23.647938,-3906
2021-12-27 15:03:23.647948,-2255
2021-12-27 15:03:23.647955,2147
2021-12-27 15:03:23.647962,4019
2021-12-27 15:03:23.647969,-4812
2021-12-27 15:03:23.647976,2909
2021-12-27 15:03:23.647982,500
2021-12-27 15:03:23.647989,762
2021-12-27 15:03:23.647999,-2307
2021-12-27 15:03:23.648006,-1430
2021-12-27 15:03:23.648013,-5811
2021-12-27 15:03:23.648020,-2657
2021-12-27 15:03:23.648030,-1028
2021-12-27 15:03:23.794550,1608
2021-12-27 15:03:23.794578,4699
2021-12-27 15:03:23.794587,-4781
2021-12-27 15:03:23.794594,3058
2021-12-27 15:03:23.794601,2444
2021-12-27 15:03:23.794608,1605
2021-12-27 15:03:23.794619,-3961
2021-12-27 15:03:23.794626,-3575
2021-12-27 15:03:23.794633,-2672
2021-12-27 15:03:23.794640,1464
2021-12-27 15:03:23.794650,-5100
2021-12-27 15:03:23.794657,-1502
2021-12-27 15:03:23.794664,831
2021-12-27 15:03:23.794670,-5536
2021-12-27 15:03:23.794680,2303
2021-12-27 15:03:23.794687,-357
2021-12-27 15:03:23.794697,-6538
2021-12-27 15:03:23.794704,-4838
2021-12-27 15:03:23.794711,1658
2021-12-27 15:03:23.794717,2399
2021-12-27 15:03:23.794728,-1634
2021-12-27 15:03:23.794735,-210
2021-12-27 15:03:23.794742,-1775
2021-12-27 15:03:23.794749,-5255
2021-12-27 15:03:23.794756,4781
2021-12-27 15:03:24.134628,-2331
2021-12-27 15:03:24.134657,-1795
2021-12-27 15:03:24.134665,4249
2021-12-27 15:03:24.134672,-9236
2021-12-27 15:03:24.134679,-3151
2021-12-27 15:03:24.134686,3985
2021-12-27 15:03:24.134693,388
2021-12-27 15:03:24.134700,4131
2021-12-27 15:03:24.134707,-2209
2021-12-27 15:03:24.134713,-2248
2021-12-27 15:03:24.134720,-1795
2021-12-27 15:03:24.134727,-2796
2021-12-27 15:03:24.134738,484
2021-12-27 15:03:24.134745,-1843
2021-12-27 15:03:24.134752,3650
2021-12-27 15:03:24.134758,-4788
2021-12-27 15:03:24.134765,2216
2021-12-27 15:03:24.134772,4246
2021-12-27 15:03:24.134779,-476
2021-12-27 15:03:24.134786,4795
2021-12-27 15:03:24.134793,-1914
2021-12-27 15:03:24.134800,589
2021-12-27 15:03:24.134806,3290
2021-12-27 15:03:24.134813,-1291
2021-12-27 15:03:24.134824,127
2021-12-27 15:03:24.134831,-1253
2021-12-27 15:03:24.134841,-2183
2021-12-27 15:03:24.281898,3484
2021-12-27 15:03:24.281926,-186
2021-12-27 15:03:24.281935,-10370
2021-12-27 15:03:24.281942,1428
2021-12-27 15:03:24.281949,273
2021-12-27 15:03:24.281956,-3825
2021-12-27 15:03:24.281963,-915
2021-12-27 15:03:24.281970,987
2021-12-27 15:03:24.281981,-1799
2021-12-27 15:03:24.281988,342
2021-12-27 15:03:24.281995,4115
2021-12-27 15:03:24.282002,-6547
2021-12-27 15:03:24.282009,4139
2021-12-27 15:03:24.282016,4814
2021-12-27 15:03:24.282023,-3666
2021-12-27 15:03:24.282030,3611
2021-12-27 15:03:24.282036,-3503
2021-12-27 15:03:24.282043,-3439
2021-12-27 15:03:24.282050,1763
2021-12-27 15:03:24.282057,-2061
2021-12-27 15:03:24.282064,4040
2021-12-27 15:03:24.282071,630
2021-12-27 15:03:24.282078,268
2021-12-27 15:03:24.282085,3884
2021-12-27 15:03:24.282092,-3247
2021-12-27 15:03:24.282098,3551
2021-12-27 15:03:24.282105,2200
2021-12-27 15:03:24.282112,-1442
2021-12-27 15:03:24.525865,-2569
2021-12-27 15:03:24.525893,-3388
2021-12-27 15:03:24.525902,594
2021-12-27 15:03:24.525910,-4740
2021-12-27 15:03:24.525917,1147
2021-12-27 15:03:24.525923,-1644
2021-12-27 15:03:24.525930,-3786
2021-12-27 15:03:24.525937,-2121
2021-12-27 15:03:24.525944,-6324
2021-12-27 15:03:24.525951,3825
2021-12-27 15:03:24.525958,2713
2021-12-27 15:03:24.525964,-2123
2021-12-27 15:03:24.525971,4649
2021-12-27 15:03:24.525978,-5296
2021-12-27 15:03:24.525984,-3400
2021-12-27 15:03:24.525991,4230
2021-12-27 15:03:24.525998,-807
2021-12-27 15:03:24.526005,4910
2021-12-27 15:03:24.526011,1260
2021-12-27 15:03:24.526018,-1121
2021-12-27 15:03:24.526025,949
2021-12-27 15:03:24.526032,-5289
2021-12-27 15:03:24.526042,4582
2021-12-27 15:03:24.526049,-2183
2021-12-27 15:03:24.526059,-2521
2021-12-27 15:03:24.526066,-95
2021-12-27 15:03:24.526076,-855
2021-12-27 15:03:24.721187,802
2021-12-27 15:03:24.721209,-3443
2021-12-27 15:03:24.721217,2629
2021-12-27 15:03:24.721225,-325
2021-12-27 15:03:24.721242,1248
2021-12-27 15:03:24.721249,-9617
2021-12-27 15:03:24.721256,-6375
2021-12-27 15:03:24.721263,-5586
2021-12-27 15:03:24.721270,4671
2021-12-27 15:03:24.721281,-2950
2021-12-27 15:03:24.721291,-1943
2021-12-27 15:03:24.721298,-8098
2021-12-27 15:03:24.721305,4400
2021-12-27 15:03:24.721312,1986
2021-12-27 15:03:24.721319,3695
2021-12-27 15:03:24.721327,2576
2021-12-27 15:03:24.721334,-1531
2021-12-27 15:03:24.721341,3738
2021-12-27 15:03:24.721348,-3726
2021-12-27 15:03:24.721355,-26
2021-12-27 15:03:24.721366,-1155
2021-12-27 15:03:24.721373,3702
2021-12-27 15:03:24.721380,-1068
2021-12-27 15:03:24.721387,-1171
2021-12-27 15:03:25.012776,-718
2021-12-27 15:03:25.012806,3563
2021-12-27 15:03:25.012814,2689
2021-12-27 15:03:25.012822,-6183
2021-12-27 15:03:25.012829,-1011
2021-12-27 15:03:25.012836,-1509
2021-12-27 15:03:25.012843,4325
2021-12-27 15:03:25.012850,4850
2021-12-27 15:03:25.012857,-3908
2021-12-27 15:03:25.012864,3175
2021-12-27 15:03:25.012871,-1756
2021-12-27 15:03:25.012878,-2832
2021-12-27 15:03:25.012889,-421
2021-12-27 15:03:25.012896,1756
2021-12-27 15:03:25.012903,1660
2021-12-27 15:03:25.012910,-2784
2021-12-27 15:03:25.012917,4275
2021-12-27 15:03:25.012924,-19
2021-12-27 15:03:25.012931,2715
2021-12-27 15:03:25.012938,4124
2021-12-27 15:03:25.012945,-3235
2021-12-27 15:03:25.012951,4699
2021-12-27 15:03:25.012958,-1030
2021-12-27 15:03:25.012965,-5457
2021-12-27 15:03:25.012972,3314
2021-12-27 15:03:25.012979,-1217
2021-12-27 15:03:25.012986,2540
2021-12-27 15:03:25.012993,2303
2021-12-27 15:03:25.013000,-2487
2021-12-27 15:03:25.207810,4843
2021-12-27 15:03:25.207837,-33
2021-12-27 15:03:25.207847,534
2021-12-27 15:03:25.207856,2938
2021-12-27 15:03:25.207864,-2274
2021-12-27 15:03:25.207873,1651
2021-12-27 15:03:25.207881,-4635
2021-12-27 15:03:25.207890,-651
2021-12-27 15:03:25.207902,-3872
2021-12-27 15:03:25.207911,3050
2021-12-27 15:03:25.207920,3990
2021-12-27 15:03:25.207928,-8858
2021-12-27 15:03:25.207937,-3453
2021-12-27 15:03:25.207946,-438
2021-12-27 15:03:25.207954,3079
2021-12-27 15:03:25.207963,1807
2021-12-27 15:03:25.207971,-6995
2021-12-27 15:03:25.207980,-1744
2021-12-27 15:03:25.207989,-3391
2021-12-27 15:03:25.207997,-1037
2021-12-27 15:03:25.208006,4886
2021-12-27 15:03:25.208015,-2768
2021-12-27 15:03:25.208023,3635
2021-12-27 15:03:25.208031,2255
2021-12-27 15:03:25.208040,-5730
2021-12-27 15:03:25.208048,160
2021-12-27 15:03:25.208057,-3920
2021-12-27 15:03:25.208065,2123
2021-12-27 15:03:25.402790,-4335
2021-12-27 15:03:25.402809,421
2021-12-27 15:03:25.402815,-3041
2021-12-27 15:03:25.402820,-3654
2021-12-27 15:03:25.402825,3079
2021-12-27 15:03:25.402830,-4536
2021-12-27 15:03:25.402834,927
2021-12-27 15:03:25.402839,-841
2021-12-27 15:03:25.402843,-7741
2021-12-27 15:03:25.402848,3645
2021-12-27 15:03:25.402852,546
2021-12-27 15:03:25.402857,594
2021-12-27 15:03:25.402861,3482
2021-12-27 15:03:25.402866,-7058
2021-12-27 15:03:25.402870,-3360
2021-12-27 15:03:25.402875,-556
2021-12-27 15:03:25.402879,1876
2021-12-27 15:03:25.402886,-2401
2021-12-27 15:03:25.402891,2612
2021-12-27 15:03:25.402895,452
2021-12-27 15:03:25.402900,-3976
2021-12-27 15:03:25.402906,678
2021-12-27 15:03:25.402911,798
2021-12-27 15:03:25.402915,4699
2021-12-27 15:03:25.402920,-4814
2021-12-27 15:03:25.402924,524
2021-12-27 15:03:25.402929,-709
2021-12-27 15:03:25.402933,-1620
2021-12-27 15:03:25.646087,-1541
2021-12-27 15:03:25.646101,-3067
2021-12-27 15:03:25.646107,-4546
2021-12-27 15:03:25.646143,-1334
2021-12-27 15:03:25.646151,-1066
2021-12-27 15:03:25.646155,790
2021-12-27 15:03:25.646160,3360
2021-12-27 15:03:25.646165,-8266
2021-12-27 15:03:25.646169,2485
2021-12-27 15:03:25.646174,4620
2021-12-27 15:03:25.646179,-98
2021-12-27 15:03:25.646185,-2526
2021-12-27 15:03:25.646190,-548
2021-12-27 15:03:25.646195,1624
2021-12-27 15:03:25.646199,-4757
2021-12-27 15:03:25.646204,-2911
2021-12-27 15:03:25.646208,-3743
2021-12-27 15:03:25.646213,3197
2021-12-27 15:03:25.646218,2638
2021-12-27 15:03:25.646222,-4683
2021-12-27 15:03:25.646229,3046
2021-12-27 15:03:25.646234,-1284
2021-12-27 15:03:25.646241,-2902
2021-12-27 15:03:25.646245,826
2021-12-27 15:03:25.646250,2547
2021-12-27 15:03:25.891074,-4802
2021-12-27 15:03:25.891103,1660
2021-12-27 15:03:25.891112,-2878
2021-12-27 15:03:25.891119,-3472
2021-12-27 15:03:25.891126,-606
2021-12-27 15:03:25.891133,-5205
2021-12-27 15:03:25.891144,2226
2021-12-27 15:03:25.891151,-3206
2021-12-27 15:03:25.891158,3213
2021-12-27 15:03:25.891165,-5095
2021-12-27 15:03:25.891172,-2605
2021-12-27 15:03:25.891179,2914
2021-12-27 15:03:25.891186,405
2021-12-27 15:03:25.891193,4146
2021-12-27 15:03:25.891200,-2001
2021-12-27 15:03:25.891207,-55
2021-12-27 15:03:25.891214,1023
2021-12-27 15:03:25.891221,-5766
2021-12-27 15:03:25.891228,3403
2021-12-27 15:03:25.891235,-2099
2021-12-27 15:03:25.891242,-4671
2021-12-27 15:03:25.891252,-2957
2021-12-27 15:03:25.891259,45
2021-12-27 15:03:25.891266,3563
2021-12-27 15:03:25.891273,-2863
2021-12-27 15:03:25.891280,2969
2021-12-27 15:03:25.891287,-268
2021-12-27 15:03:25.891294,45
2021-12-27 15:03:26.181730,2370
2021-12-27 15:03:26.181751,-4079
2021-12-27 15:03:26.181757,-546
2021-12-27 15:03:26.181762,-3808
2021-12-27 15:03:26.181766,210
2021-12-27 15:03:26.181774,-7443
2021-12-27 15:03:26.181778,160
2021-12-27 15:03:26.181785,-2763
2021-12-27 15:03:26.181790,4913
2021-12-27 15:03:26.181795,-33
2021-12-27 15:03:26.181799,-4709
2021-12-27 15:03:26.181804,-532
2021-12-27 15:03:26.181808,-1797
2021-12-27 15:03:26.181813,4632
2021-12-27 15:03:26.181818,1044
2021-12-27 15:03:26.181822,242
2021-12-27 15:03:26.181829,-3405
2021-12-27 15:03:26.181834,1905
2021-12-27 15:03:26.181838,3738
2021-12-27 15:03:26.181843,-4210
2021-12-27 15:03:26.181847,-1514
2021-12-27 15:03:26.181852,-6348
2021-12-27 15:03:26.181857,687
2021-12-27 15:03:26.181863,-3621
2021-12-27 15:03:26.181870,3657
2021-12-27 15:03:26.329544,-1224
2021-12-27 15:03:26.329572,4426
2021-12-27 15:03:26.329581,-3156
2021-12-27 15:03:26.329589,778
2021-12-27 15:03:26.329596,1627
2021-12-27 15:03:26.329603,-3547
2021-12-27 15:03:26.329614,-5109
2021-12-27 15:03:26.329621,-9756
2021-12-27 15:03:26.329628,2535
2021-12-27 15:03:26.329635,1128
2021-12-27 15:03:26.329642,3858
2021-12-27 15:03:26.329649,956
2021-12-27 15:03:26.329656,-3002
2021-12-27 15:03:26.329663,-1792
2021-12-27 15:03:26.329671,-6161
2021-12-27 15:03:26.329684,-3168
2021-12-27 15:03:26.329695,-1636
2021-12-27 15:03:26.329702,-3434
2021-12-27 15:03:26.329709,3429
2021-12-27 15:03:26.329716,-3067
2021-12-27 15:03:26.329723,1912
2021-12-27 15:03:26.329730,-1509
2021-12-27 15:03:26.329737,-6267
2021-12-27 15:03:26.329744,1195
2021-12-27 15:03:26.329751,-1648
2021-12-27 15:03:26.329758,3374
2021-12-27 15:03:26.573298,2986
2021-12-27 15:03:26.573327,-2763
2021-12-27 15:03:26.573335,2396
2021-12-27 15:03:26.573343,-6233
2021-12-27 15:03:26.573350,-1986
2021-12-27 15:03:26.573361,-5763
2021-12-27 15:03:26.573368,-93
2021-12-27 15:03:26.573375,1018
2021-12-27 15:03:26.573382,-6988
2021-12-27 15:03:26.573389,-788
2021-12-27 15:03:26.573396,757
2021-12-27 15:03:26.573407,2425
2021-12-27 15:03:26.573430,-3292
2021-12-27 15:03:26.573437,3786
2021-12-27 15:03:26.573444,-1390
2021-12-27 15:03:26.573451,1392
2021-12-27 15:03:26.573461,-2034
2021-12-27 15:03:26.573468,3465
2021-12-27 15:03:26.573475,644
2021-12-27 15:03:26.573482,-2590
2021-12-27 15:03:26.573492,35
2021-12-27 15:03:26.573499,3017
2021-12-27 15:03:26.573506,3724
2021-12-27 15:03:26.573513,-2346
2021-12-27 15:03:26.573524,-4148
2021-12-27 15:03:26.817385,-5936
2021-12-27 15:03:26.817424,-709
2021-12-27 15:03:26.817433,1042
2021-12-27 15:03:26.817440,-1162
2021-12-27 15:03:26.817448,-4793
2021-12-27 15:03:26.817455,4831
2021-12-27 15:03:26.817462,-618
2021-12-27 15:03:26.817468,-3086
2021-12-27 15:03:26.817475,-1624
2021-12-27 15:03:26.817482,-2768
2021-12-27 15:03:26.817489,1150
2021-12-27 15:03:26.817496,-4127
2021-12-27 15:03:26.817503,2413
2021-12-27 15:03:26.817513,-4045
2021-12-27 15:03:26.817521,4824
2021-12-27 15:03:26.817527,2703
2021-12-27 15:03:26.817534,-2557
2021-12-27 15:03:26.817545,-649
2021-12-27 15:03:26.817552,805
2021-12-27 15:03:26.817559,2736
2021-12-27 15:03:26.817566,-5212
2021-12-27 15:03:26.817573,2106
2021-12-27 15:03:26.817580,656
2021-12-27 15:03:26.817587,-182
2021-12-27 15:03:26.817594,3074
2021-12-27 15:03:26.817601,-1754
2021-12-27 15:03:26.817608,4577
2021-12-27 15:03:27.060440,409
2021-12-27 15:03:27.060462,-2197
2021-12-27 15:03:27.060471,-2281
2021-12-27 15:03:27.060476,2188
2021-12-27 15:03:27.060481,4059
2021-12-27 15:03:27.060486,-8079
2021-12-27 15:03:27.060490,-3187
2021-12-27 15:03:27.060495,-2677
2021-12-27 15:03:27.060500,-2034
2021-12-27 15:03:27.060504,-1565
2021-12-27 15:03:27.060509,-7362
2021-12-27 15:03:27.060513,1023
2021-12-27 15:03:27.060518,-3503
2021-12-27 15:03:27.060522,-5414
2021-12-27 15:03:27.060529,-1263
2021-12-27 15:03:27.060534,1617
2021-12-27 15:03:27.060538,3472
2021-12-27 15:03:27.060543,-4330
2021-12-27 15:03:27.060547,2923
2021-12-27 15:03:27.060552,-55
2021-12-27 15:03:27.060556,750
2021-12-27 15:03:27.060563,-2319
2021-12-27 15:03:27.060568,2226
2021-12-27 15:03:27.060573,93
2021-12-27 15:03:27.060577,-1862
2021-12-27 15:03:27.060584,-500
2021-12-27 15:03:27.255328,2310
2021-12-27 15:03:27.255357,3640
2021-12-27 15:03:27.255365,-5011
2021-12-27 15:03:27.255373,3017
2021-12-27 15:03:27.255380,-2600
2021-12-27 15:03:27.255388,-7549
2021-12-27 15:03:27.255395,2307
2021-12-27 15:03:27.255402,-1636
2021-12-27 15:03:27.255409,-4105
2021-12-27 15:03:27.255418,-4198
2021-12-27 15:03:27.255425,2293
2021-12-27 15:03:27.255436,-5936
2021-12-27 15:03:27.255443,-831
2021-12-27 15:03:27.255450,2696
2021-12-27 15:03:27.255457,-5749
2021-12-27 15:03:27.255468,3216
2021-12-27 15:03:27.255475,-860
2021-12-27 15:03:27.255482,2013
2021-12-27 15:03:27.255488,-6176
2021-12-27 15:03:27.255495,220
2021-12-27 15:03:27.255502,2573
2021-12-27 15:03:27.255509,19
2021-12-27 15:03:27.255520,-1112
2021-12-27 15:03:27.255527,524
2021-12-27 15:03:27.255534,1136
2021-12-27 15:03:27.255541,-2648
2021-12-27 15:03:27.499575,1107
2021-12-27 15:03:27.499604,-88
2021-12-27 15:03:27.499613,4239
2021-12-27 15:03:27.499620,-9526
2021-12-27 15:03:27.499627,-5814
2021-12-27 15:03:27.499634,1068
2021-12-27 15:03:27.499641,-1651
2021-12-27 15:03:27.499648,345
2021-12-27 15:03:27.499655,-4208
2021-12-27 15:03:27.499662,-1893
2021-12-27 15:03:27.499669,-3034
2021-12-27 15:03:27.499676,-3947
2021-12-27 15:03:27.499687,-1325
2021-12-27 15:03:27.499694,-6919
2021-12-27 15:03:27.499701,-246
2021-12-27 15:03:27.499708,-2739
2021-12-27 15:03:27.499715,4246
2021-12-27 15:03:27.499722,2504
2021-12-27 15:03:27.499729,-1028
2021-12-27 15:03:27.499739,-2449
2021-12-27 15:03:27.499746,385
2021-12-27 15:03:27.499753,3726
2021-12-27 15:03:27.499760,-1375
2021-12-27 15:03:27.499770,158
2021-12-27 15:03:27.499777,-1011
2021-12-27 15:03:27.499788,-2286
2021-12-27 15:03:27.743281,3808
2021-12-27 15:03:27.743310,3733
2021-12-27 15:03:27.743319,-2475
2021-12-27 15:03:27.743326,4201
2021-12-27 15:03:27.743334,-2317
2021-12-27 15:03:27.743341,-3683
2021-12-27 15:03:27.743348,306
2021-12-27 15:03:27.743355,215
2021-12-27 15:03:27.743366,-3640
2021-12-27 15:03:27.743373,-8122
2021-12-27 15:03:27.743380,-3674
2021-12-27 15:03:27.743387,-4647
2021-12-27 15:03:27.743397,2643
2021-12-27 15:03:27.743404,-4067
2021-12-27 15:03:27.743411,3491
2021-12-27 15:03:27.743418,-4067
2021-12-27 15:03:27.743425,-23
2021-12-27 15:03:27.743436,-2585
2021-12-27 15:03:27.743443,3429
2021-12-27 15:03:27.743449,1780
2021-12-27 15:03:27.743456,-786
2021-12-27 15:03:27.743463,855
2021-12-27 15:03:27.743471,-4417
2021-12-27 15:03:27.743478,4059
2021-12-27 15:03:27.743485,1862
2021-12-27 15:03:27.743492,-2008
2021-12-27 15:03:27.986975,-1692
2021-12-27 15:03:27.986996,-91
2021-12-27 15:03:27.987002,4366
2021-12-27 15:03:27.987007,-2454
2021-12-27 15:03:27.987014,1883
2021-12-27 15:03:27.987019,-3568
2021-12-27 15:03:27.987024,-1363
2021-12-27 15:03:27.987028,-5735
2021-12-27 15:03:27.987033,886
2021-12-27 15:03:27.987037,-19
2021-12-27 15:03:27.987042,-3825
2021-12-27 15:03:27.987047,834
2021-12-27 15:03:27.987051,-7307
2021-12-27 15:03:27.987056,-2945
2021-12-27 15:03:27.987060,3091
2021-12-27 15:03:27.987065,-1989
2021-12-27 15:03:27.987070,4196
2021-12-27 15:03:27.987074,-2732
2021-12-27 15:03:27.987079,-5751
2021-12-27 15:03:27.987084,2645
2021-12-27 15:03:27.987088,-1802
2021-12-27 15:03:27.987093,3870
2021-12-27 15:03:27.987097,3225
2021-12-27 15:03:27.987102,-1229
2021-12-27 15:03:27.987109,-3036
2021-12-27 15:03:27.987114,150
2021-12-27 15:03:27.987120,-1176
2021-12-27 15:03:28.229543,807
2021-12-27 15:03:28.229558,-3602
2021-12-27 15:03:28.229563,2650
2021-12-27 15:03:28.229568,-266
2021-12-27 15:03:28.229575,3014
2021-12-27 15:03:28.229580,-1972
2021-12-27 15:03:28.229585,1588
2021-12-27 15:03:28.229589,-6511
2021-12-27 15:03:28.229594,2298
2021-12-27 15:03:28.229601,-2691
2021-12-27 15:03:28.229605,4814
2021-12-27 15:03:28.229610,-1493
2021-12-27 15:03:28.229614,-10554
2021-12-27 15:03:28.229619,-3748
2021-12-27 15:03:28.229623,-2904
2021-12-27 15:03:28.229630,2281
2021-12-27 15:03:28.229634,-8242
2021-12-27 15:03:28.229639,-1224
2021-12-27 15:03:28.229643,-289
2021-12-27 15:03:28.229648,4491
2021-12-27 15:03:28.229652,4783
2021-12-27 15:03:28.229657,-2099
2021-12-27 15:03:28.229663,-769
2021-12-27 15:03:28.229668,-1440
2021-12-27 15:03:28.425866,-476
2021-12-27 15:03:28.425896,3496
2021-12-27 15:03:28.425905,2928
2021-12-27 15:03:28.425912,-6221
2021-12-27 15:03:28.425920,-1066
2021-12-27 15:03:28.425927,-1136
2021-12-27 15:03:28.425934,4541
2021-12-27 15:03:28.425941,4949
2021-12-27 15:03:28.425948,-3779
2021-12-27 15:03:28.425955,3273
2021-12-27 15:03:28.425962,-1718
2021-12-27 15:03:28.425969,-2844
2021-12-27 15:03:28.425979,-287
2021-12-27 15:03:28.425986,1778
2021-12-27 15:03:28.425993,2005
2021-12-27 15:03:28.426000,-2466
2021-12-27 15:03:28.426007,4601
2021-12-27 15:03:28.426014,170
2021-12-27 15:03:28.426021,2403
2021-12-27 15:03:28.426027,2669
2021-12-27 15:03:28.426034,-6787
2021-12-27 15:03:28.426041,-529
2021-12-27 15:03:28.426048,-3443
2021-12-27 15:03:28.426055,-1052
2021-12-27 15:03:28.426066,-3465
2021-12-27 15:03:28.426073,1092
2021-12-27 15:03:28.426080,3446
2021-12-27 15:03:28.426087,-3017
2021-12-27 15:03:28.669938,4105
2021-12-27 15:03:28.669967,359
2021-12-27 15:03:28.669976,354
2021-12-27 15:03:28.669984,2585
2021-12-27 15:03:28.669991,-2722
2021-12-27 15:03:28.669998,-419
2021-12-27 15:03:28.670005,-7283
2021-12-27 15:03:28.670012,-2832
2021-12-27 15:03:28.670019,3757
2021-12-27 15:03:28.670026,-7161
2021-12-27 15:03:28.670033,2281
2021-12-27 15:03:28.670040,1922
2021-12-27 15:03:28.670047,-9088
2021-12-27 15:03:28.670053,2478
2021-12-27 15:03:28.670060,857
2021-12-27 15:03:28.670067,-699
2021-12-27 15:03:28.670074,3698
2021-12-27 15:03:28.670081,-1965
2021-12-27 15:03:28.670088,1938
2021-12-27 15:03:28.670095,-910
2021-12-27 15:03:28.670102,-2638
2021-12-27 15:03:28.670109,-1682
2021-12-27 15:03:28.670116,-7872
2021-12-27 15:03:28.670122,4452
2021-12-27 15:03:28.670129,2559
2021-12-27 15:03:28.670136,-6636
2021-12-27 15:03:28.670143,4941
2021-12-27 15:03:28.670150,321
2021-12-27 15:03:28.670157,512
2021-12-27 15:03:28.913415,-2566
2021-12-27 15:03:28.913445,2219
2021-12-27 15:03:28.913454,150
2021-12-27 15:03:28.913461,-1272
2021-12-27 15:03:28.913472,-500
2021-12-27 15:03:28.913479,2470
2021-12-27 15:03:28.913487,-395
2021-12-27 15:03:28.913494,-6173
2021-12-27 15:03:28.913505,1519
2021-12-27 15:03:28.913512,1402
2021-12-27 15:03:28.913519,4766
2021-12-27 15:03:28.913526,-6243
2021-12-27 15:03:28.913533,-2523
2021-12-27 15:03:28.913541,568
2021-12-27 15:03:28.913548,2288
2021-12-27 15:03:28.913558,-1725
2021-12-27 15:03:28.913565,2878
2021-12-27 15:03:28.913572,1056
2021-12-27 15:03:28.913579,-3611
2021-12-27 15:03:28.913590,1143
2021-12-27 15:03:28.913597,922
2021-12-27 15:03:28.913604,4963
2021-12-27 15:03:28.913611,-6300
2021-12-27 15:03:28.913618,-857
2021-12-27 15:03:28.913625,2871
2021-12-27 15:03:28.913632,1744
2021-12-27 15:03:29.108642,3928
2021-12-27 15:03:29.108670,-4819
2021-12-27 15:03:29.108680,-1193
2021-12-27 15:03:29.108687,2
2021-12-27 15:03:29.108694,-1869
2021-12-27 15:03:29.108705,-496
2021-12-27 15:03:29.108712,472
2021-12-27 15:03:29.108719,2154
2021-12-27 15:03:29.108726,-8915
2021-12-27 15:03:29.108733,2065
2021-12-27 15:03:29.108740,4366
2021-12-27 15:03:29.108747,-699
2021-12-27 15:03:29.108754,4764
2021-12-27 15:03:29.108761,-3930
2021-12-27 15:03:29.108768,-6578
2021-12-27 15:03:29.108775,-4922
2021-12-27 15:03:29.108782,-1905
2021-12-27 15:03:29.108789,4474
2021-12-27 15:03:29.108796,-5471
2021-12-27 15:03:29.108803,-2003
2021-12-27 15:03:29.108810,2796
2021-12-27 15:03:29.108817,-5356
2021-12-27 15:03:29.108824,4069
2021-12-27 15:03:29.108831,2456
2021-12-27 15:03:29.108838,-2073
2021-12-27 15:03:29.108845,1871
2021-12-27 15:03:29.108852,-8637
2021-12-27 15:03:29.108859,-3944
2021-12-27 15:03:29.108866,1183
2021-12-27 15:03:29.351663,-1514
2021-12-27 15:03:29.351697,-1531
2021-12-27 15:03:29.351705,-2284
2021-12-27 15:03:29.351712,647
2021-12-27 15:03:29.351719,-5648
2021-12-27 15:03:29.351730,3357
2021-12-27 15:03:29.351738,-3082
2021-12-27 15:03:29.351745,3710
2021-12-27 15:03:29.351752,-4565
2021-12-27 15:03:29.351759,-3393
2021-12-27 15:03:29.351767,963
2021-12-27 15:03:29.351774,-2068
2021-12-27 15:03:29.351781,3733
2021-12-27 15:03:29.351788,-1581
2021-12-27 15:03:29.351795,-273
2021-12-27 15:03:29.351802,3350
2021-12-27 15:03:29.351809,-3000
2021-12-27 15:03:29.351819,1536
2021-12-27 15:03:29.351826,-2535
2021-12-27 15:03:29.351837,-1876
2021-12-27 15:03:29.351844,1219
2021-12-27 15:03:29.351851,4510
2021-12-27 15:03:29.351858,-3331
2021-12-27 15:03:29.351865,505
2021-12-27 15:03:29.351872,-2327
2021-12-27 15:03:29.351879,-980
2021-12-27 15:03:29.596183,-1610
2021-12-27 15:03:29.596211,-8337
2021-12-27 15:03:29.596220,3264
2021-12-27 15:03:29.596228,695
2021-12-27 15:03:29.596235,-2775
2021-12-27 15:03:29.596242,4282
2021-12-27 15:03:29.596249,-6005
2021-12-27 15:03:29.596256,-769
2021-12-27 15:03:29.596264,4448
2021-12-27 15:03:29.596271,-2837
2021-12-27 15:03:29.596278,4613
2021-12-27 15:03:29.596285,-419
2021-12-27 15:03:29.596292,-5464
2021-12-27 15:03:29.596299,-558
2021-12-27 15:03:29.596306,-1600
2021-12-27 15:03:29.596313,4630
2021-12-27 15:03:29.596320,1248
2021-12-27 15:03:29.596327,-203
2021-12-27 15:03:29.596338,-3261
2021-12-27 15:03:29.596345,1553
2021-12-27 15:03:29.596352,4016
2021-12-27 15:03:29.596359,-1692
2021-12-27 15:03:29.596370,50
2021-12-27 15:03:29.596377,-1454
2021-12-27 15:03:29.596384,4431
2021-12-27 15:03:29.596391,-1778
2021-12-27 15:03:29.596398,4802
2021-12-27 15:03:29.596405,3197
2021-12-27 15:03:29.791202,-1016
2021-12-27 15:03:29.791223,3892
2021-12-27 15:03:29.791255,-9097
2021-12-27 15:03:29.791266,-7453
2021-12-27 15:03:29.791272,3995
2021-12-27 15:03:29.791277,1919
2021-12-27 15:03:29.791281,4361
2021-12-27 15:03:29.791286,-4107
2021-12-27 15:03:29.791290,-5675
2021-12-27 15:03:29.791295,3410
2021-12-27 15:03:29.791299,510
2021-12-27 15:03:29.791306,2027
2021-12-27 15:03:29.791311,-3798
2021-12-27 15:03:29.791315,-1011
2021-12-27 15:03:29.791320,-4589
2021-12-27 15:03:29.791329,-2715
2021-12-27 15:03:29.791336,-1145
2021-12-27 15:03:29.791341,-2701
2021-12-27 15:03:29.791347,74
2021-12-27 15:03:29.791352,3985
2021-12-27 15:03:29.791356,2605
2021-12-27 15:03:29.791361,-3273
2021-12-27 15:03:29.791366,2310
2021-12-27 15:03:29.791370,-369
2021-12-27 15:03:29.791375,4448
2021-12-27 15:03:30.034374,4323
2021-12-27 15:03:30.034401,-2034
2021-12-27 15:03:30.034410,3355
2021-12-27 15:03:30.034418,-5682
2021-12-27 15:03:30.034426,-5790
2021-12-27 15:03:30.034433,3367
2021-12-27 15:03:30.034440,-1080
2021-12-27 15:03:30.034447,4886
2021-12-27 15:03:30.034454,218
2021-12-27 15:03:30.034461,-7985
2021-12-27 15:03:30.034468,1270
2021-12-27 15:03:30.034475,1174
2021-12-27 15:03:30.034482,3942
2021-12-27 15:03:30.034489,1778
2021-12-27 15:03:30.034496,-6538
2021-12-27 15:03:30.034503,1270
2021-12-27 15:03:30.034510,-865
2021-12-27 15:03:30.034517,532
2021-12-27 15:03:30.034527,-2348
2021-12-27 15:03:30.034534,2595
2021-12-27 15:03:30.034541,270
2021-12-27 15:03:30.034548,-3257
2021-12-27 15:03:30.034559,-230
2021-12-27 15:03:30.034566,2015
2021-12-27 15:03:30.034573,3597
2021-12-27 15:03:30.034581,-3710
2021-12-27 15:03:30.034588,1780
2021-12-27 15:03:30.034595,-3465
2021-12-27 15:03:30.325772,-1689
2021-12-27 15:03:30.325800,3441
2021-12-27 15:03:30.325809,-7182
2021-12-27 15:03:30.325817,127
2021-12-27 15:03:30.325825,-603
2021-12-27 15:03:30.325832,-8345
2021-12-27 15:03:30.325839,-105
2021-12-27 15:03:30.325846,-8376
2021-12-27 15:03:30.325853,-9795
2021-12-27 15:03:30.325860,-86
2021-12-27 15:03:30.325867,-2082
2021-12-27 15:03:30.325874,-1732
2021-12-27 15:03:30.325881,-3892
2021-12-27 15:03:30.325888,2971
2021-12-27 15:03:30.325899,-4826
2021-12-27 15:03:30.325906,4287
2021-12-27 15:03:30.325912,2828
2021-12-27 15:03:30.325919,-3288
2021-12-27 15:03:30.325929,-575
2021-12-27 15:03:30.325936,184
2021-12-27 15:03:30.325943,4853
2021-12-27 15:03:30.325950,-2152
2021-12-27 15:03:30.325957,3101
2021-12-27 15:03:30.325963,958
2021-12-27 15:03:30.325970,213
2021-12-27 15:03:30.325977,4234
2021-12-27 15:03:30.325985,-1349
2021-12-27 15:03:30.325991,4558
2021-12-27 15:03:30.522146,1469
2021-12-27 15:03:30.522175,-2152
2021-12-27 15:03:30.522188,-1538
2021-12-27 15:03:30.522195,2027
2021-12-27 15:03:30.522202,4824
2021-12-27 15:03:30.522209,-7266
2021-12-27 15:03:30.522217,-1011
2021-12-27 15:03:30.522224,-1272
2021-12-27 15:03:30.522231,-2899
2021-12-27 15:03:30.522238,4661
2021-12-27 15:03:30.522245,-7
2021-12-27 15:03:30.522252,280
2021-12-27 15:03:30.522259,-3657
2021-12-27 15:03:30.522266,-3106
2021-12-27 15:03:30.522276,-783
2021-12-27 15:03:30.522284,2367
2021-12-27 15:03:30.522294,-3805
2021-12-27 15:03:30.522301,3424
2021-12-27 15:03:30.522308,1143
2021-12-27 15:03:30.522315,661
2021-12-27 15:03:30.522325,-1816
2021-12-27 15:03:30.522332,1639
2021-12-27 15:03:30.522339,687
2021-12-27 15:03:30.522346,-1737
2021-12-27 15:03:30.522356,-21
2021-12-27 15:03:30.717616,1821
2021-12-27 15:03:30.717644,4220
2021-12-27 15:03:30.717653,-4920
2021-12-27 15:03:30.717661,3053
2021-12-27 15:03:30.717668,2470
2021-12-27 15:03:30.717675,788
2021-12-27 15:03:30.717686,-4311
2021-12-27 15:03:30.717693,-4584
2021-12-27 15:03:30.717700,-2962
2021-12-27 15:03:30.717707,-2818
2021-12-27 15:03:30.717714,2732
2021-12-27 15:03:30.717721,-6216
2021-12-27 15:03:30.717728,-8992
2021-12-27 15:03:30.717735,-6490
2021-12-27 15:03:30.717741,-4414
2021-12-27 15:03:30.717752,558
2021-12-27 15:03:30.717759,-886
2021-12-27 15:03:30.717770,-4527
2021-12-27 15:03:30.717777,-1054
2021-12-27 15:03:30.717784,3321
2021-12-27 15:03:30.717791,-222
2021-12-27 15:03:30.717801,-467
2021-12-27 15:03:30.717808,-47
2021-12-27 15:03:30.717816,38
2021-12-27 15:03:30.717823,-5965
2021-12-27 15:03:30.717830,3978
2021-12-27 15:03:30.961175,-529
2021-12-27 15:03:30.961204,-4479
2021-12-27 15:03:30.961213,1972
2021-12-27 15:03:30.961220,-8124
2021-12-27 15:03:30.961227,-3606
2021-12-27 15:03:30.961234,3439
2021-12-27 15:03:30.961241,-47
2021-12-27 15:03:30.961248,3961
2021-12-27 15:03:30.961255,-2377
2021-12-27 15:03:30.961262,-3499
2021-12-27 15:03:30.961269,-1855
2021-12-27 15:03:30.961276,-3525
2021-12-27 15:03:30.961283,3860
2021-12-27 15:03:30.961290,-3446
2021-12-27 15:03:30.961296,-2619
2021-12-27 15:03:30.961307,-3805
2021-12-27 15:03:30.961314,2526
2021-12-27 15:03:30.961321,4788
2021-12-27 15:03:30.961327,-1464
2021-12-27 15:03:30.961350,3271
2021-12-27 15:03:30.961357,-4563
2021-12-27 15:03:30.961364,-2065
2021-12-27 15:03:30.961371,3892
2021-12-27 15:03:30.961378,-1852
2021-12-27 15:03:30.961385,4877
2021-12-27 15:03:30.961391,393
2021-12-27 15:03:30.961398,-1934
2021-12-27 15:03:30.961409,-2499
2021-12-27 15:03:31.205048,2887
2021-12-27 15:03:31.205078,4028
2021-12-27 15:03:31.205087,-3292
2021-12-27 15:03:31.205094,3539
2021-12-27 15:03:31.205101,-2346
2021-12-27 15:03:31.205108,-6660
2021-12-27 15:03:31.205115,-3209
2021-12-27 15:03:31.205122,-2437
2021-12-27 15:03:31.205129,2650
2021-12-27 15:03:31.205136,-4726
2021-12-27 15:03:31.205143,-2133
2021-12-27 15:03:31.205150,3352
2021-12-27 15:03:31.205157,-7710
2021-12-27 15:03:31.205164,1965
2021-12-27 15:03:31.205171,2001
2021-12-27 15:03:31.205178,-7956
2021-12-27 15:03:31.205186,4620
2021-12-27 15:03:31.205193,786
2021-12-27 15:03:31.205200,-5859
2021-12-27 15:03:31.205207,-4409
2021-12-27 15:03:31.205214,-5155
2021-12-27 15:03:31.205225,1780
2021-12-27 15:03:31.205232,-1449
2021-12-27 15:03:31.205239,4647
2021-12-27 15:03:31.205246,-2209
2021-12-27 15:03:31.205253,2418
2021-12-27 15:03:31.205260,2552
2021-12-27 15:03:31.205267,-1330
2021-12-27 15:03:31.447953,-917
2021-12-27 15:03:31.447981,-162
2021-12-27 15:03:31.447995,-4225
2021-12-27 15:03:31.448002,769
2021-12-27 15:03:31.448010,647
2021-12-27 15:03:31.448017,-3801
2021-12-27 15:03:31.448024,-1804
2021-12-27 15:03:31.448031,-4795
2021-12-27 15:03:31.448038,4167
2021-12-27 15:03:31.448045,3683
2021-12-27 15:03:31.448052,-1919
2021-12-27 15:03:31.448063,-3947
2021-12-27 15:03:31.448070,-3357
2021-12-27 15:03:31.448077,4620
2021-12-27 15:03:31.448084,-4069
2021-12-27 15:03:31.448091,47
2021-12-27 15:03:31.448098,35
2021-12-27 15:03:31.448105,-4323
2021-12-27 15:03:31.448112,-273
2021-12-27 15:03:31.448119,-4603
2021-12-27 15:03:31.448126,997
2021-12-27 15:03:31.448133,2672
2021-12-27 15:03:31.448140,-1660
2021-12-27 15:03:31.448147,4263
2021-12-27 15:03:31.448154,-3484
2021-12-27 15:03:31.448161,-1222
2021-12-27 15:03:31.448176,-1423
2021-12-27 15:03:31.643446,4325
2021-12-27 15:03:31.643474,1279
2021-12-27 15:03:31.643483,-4359
2021-12-27 15:03:31.643490,2729
2021-12-27 15:03:31.643498,14
2021-12-27 15:03:31.643505,4414
2021-12-27 15:03:31.643512,3604
2021-12-27 15:03:31.643519,-2466
2021-12-27 15:03:31.643526,939
2021-12-27 15:03:31.643533,-6159
2021-12-27 15:03:31.643540,1708
2021-12-27 15:03:31.643551,-2727
2021-12-27 15:03:31.643557,4357
2021-12-27 15:03:31.643564,-409
2021-12-27 15:03:31.643572,-7789
2021-12-27 15:03:31.643579,4584
2021-12-27 15:03:31.643586,1742
2021-12-27 15:03:31.643593,-342
2021-12-27 15:03:31.643600,-1011
2021-12-27 15:03:31.643607,-3153
2021-12-27 15:03:31.643614,3448
2021-12-27 15:03:31.643621,-1514
2021-12-27 15:03:31.643628,-807
2021-12-27 15:03:31.643635,-1229
2021-12-27 15:03:31.643642,-6025
2021-12-27 15:03:31.643652,963
2021-12-27 15:03:31.643659,-3209
2021-12-27 15:03:31.887136,589
2021-12-27 15:03:31.887164,2442
2021-12-27 15:03:31.887173,3530
2021-12-27 15:03:31.887181,-6741
2021-12-27 15:03:31.887188,-1555
2021-12-27 15:03:31.887196,-91
2021-12-27 15:03:31.887203,4031
2021-12-27 15:03:31.887214,-3417
2021-12-27 15:03:31.887221,2902
2021-12-27 15:03:31.887228,-579
2021-12-27 15:03:31.887235,-2854
2021-12-27 15:03:31.887246,225
2021-12-27 15:03:31.887253,1109
2021-12-27 15:03:31.887260,2808
2021-12-27 15:03:31.887267,-2765
2021-12-27 15:03:31.887274,4503
2021-12-27 15:03:31.887281,1181
2021-12-27 15:03:31.887288,1675
2021-12-27 15:03:31.887295,2696
2021-12-27 15:03:31.887302,-6106
2021-12-27 15:03:31.887309,3724
2021-12-27 15:03:31.887316,2684
2021-12-27 15:03:31.887323,-1550
2021-12-27 15:03:31.887333,-1145
2021-12-27 15:03:31.887340,1217
2021-12-27 15:03:31.887347,4316
2021-12-27 15:03:31.887354,-2518
2021-12-27 15:03:32.130915,4534
2021-12-27 15:03:32.130944,1325
2021-12-27 15:03:32.130953,-225
2021-12-27 15:03:32.130961,3455
2021-12-27 15:03:32.130968,-2029
2021-12-27 15:03:32.130976,910
2021-12-27 15:03:32.130983,-3513
2021-12-27 15:03:32.130990,-829
2021-12-27 15:03:32.131001,-3041
2021-12-27 15:03:32.131008,2195
2021-12-27 15:03:32.131015,3580
2021-12-27 15:03:32.131023,-7209
2021-12-27 15:03:32.131030,3501
2021-12-27 15:03:32.131037,2248
2021-12-27 15:03:32.131044,-893
2021-12-27 15:03:32.131051,3177
2021-12-27 15:03:32.131058,-4438
2021-12-27 15:03:32.131066,558
2021-12-27 15:03:32.131073,742
2021-12-27 15:03:32.131080,-2022
2021-12-27 15:03:32.131087,3726
2021-12-27 15:03:32.131094,-4452
2021-12-27 15:03:32.131101,-1787
2021-12-27 15:03:32.131108,2346
2021-12-27 15:03:32.131115,-2523
2021-12-27 15:03:32.131122,3803
2021-12-27 15:03:32.131131,-752
2021-12-27 15:03:32.131138,651
2021-12-27 15:03:32.131145,3846
2021-12-27 15:03:32.422058,-10974
2021-12-27 15:03:32.422087,-6336
2021-12-27 15:03:32.422096,-707
2021-12-27 15:03:32.422104,-2921
2021-12-27 15:03:32.422111,1143
2021-12-27 15:03:32.422118,-3837
2021-12-27 15:03:32.422126,810
2021-12-27 15:03:32.422133,-1145
2021-12-27 15:03:32.422140,-8534
2021-12-27 15:03:32.422147,4213
2021-12-27 15:03:32.422154,1646
2021-12-27 15:03:32.422161,-697
2021-12-27 15:03:32.422168,4371
2021-12-27 15:03:32.422176,-6487
2021-12-27 15:03:32.422183,-3887
2021-12-27 15:03:32.422190,721
2021-12-27 15:03:32.422197,1140
2021-12-27 15:03:32.422208,-1584
2021-12-27 15:03:32.422215,1478
2021-12-27 15:03:32.422221,1485
2021-12-27 15:03:32.422229,-3988
2021-12-27 15:03:32.422239,1279
2021-12-27 15:03:32.422246,-3633
2021-12-27 15:03:32.422253,556
2021-12-27 15:03:32.422260,-4630
2021-12-27 15:03:32.422267,2782
2021-12-27 15:03:32.422273,3132
2021-12-27 15:03:32.422280,-309
2021-12-27 15:03:32.570000,-857
2021-12-27 15:03:32.570021,-759
2021-12-27 15:03:32.570030,1071
2021-12-27 15:03:32.570037,-1260
2021-12-27 15:03:32.570048,913
2021-12-27 15:03:32.570055,105
2021-12-27 15:03:32.570062,3285
2021-12-27 15:03:32.570069,-7923
2021-12-27 15:03:32.570076,2049
2021-12-27 15:03:32.570087,-997
2021-12-27 15:03:32.570097,-2825
2021-12-27 15:03:32.570104,-5900
2021-12-27 15:03:32.570111,-591
2021-12-27 15:03:32.570118,853
2021-12-27 15:03:32.570128,-390
2021-12-27 15:03:32.570135,-1054
2021-12-27 15:03:32.570142,3822
2021-12-27 15:03:32.570149,-3283
2021-12-27 15:03:32.570156,3695
2021-12-27 15:03:32.570163,1159
2021-12-27 15:03:32.570170,-4230
2021-12-27 15:03:32.570177,2643
2021-12-27 15:03:32.570184,-6653
2021-12-27 15:03:32.570191,-2185
2021-12-27 15:03:32.813539,-1488
2021-12-27 15:03:32.813569,4287
2021-12-27 15:03:32.813578,148
2021-12-27 15:03:32.813586,-2909
2021-12-27 15:03:32.813593,289
2021-12-27 15:03:32.813600,-9068
2021-12-27 15:03:32.813607,-4575
2021-12-27 15:03:32.813614,-1363
2021-12-27 15:03:32.813621,-2657
2021-12-27 15:03:32.813628,941
2021-12-27 15:03:32.813635,-8512
2021-12-27 15:03:32.813642,-5584
2021-12-27 15:03:32.813649,500
2021-12-27 15:03:32.813656,-2897
2021-12-27 15:03:32.813663,3340
2021-12-27 15:03:32.813670,-1435
2021-12-27 15:03:32.813677,-1787
2021-12-27 15:03:32.813684,3578
2021-12-27 15:03:32.813691,-3000
2021-12-27 15:03:32.813698,4179
2021-12-27 15:03:32.813705,2466
2021-12-27 15:03:32.813712,-3201
2021-12-27 15:03:32.813722,-1169
2021-12-27 15:03:32.813729,232
2021-12-27 15:03:32.813740,-2554
2021-12-27 15:03:32.813747,2955
2021-12-27 15:03:32.813754,-1109
2021-12-27 15:03:32.813761,-5047
2021-12-27 15:03:33.057405,2770
2021-12-27 15:03:33.057425,-167
2021-12-27 15:03:33.057431,2782
2021-12-27 15:03:33.057436,515
2021-12-27 15:03:33.057441,-805
2021-12-27 15:03:33.057448,-4874
2021-12-27 15:03:33.057452,-357
2021-12-27 15:03:33.057460,-2636
2021-12-27 15:03:33.057464,4716
2021-12-27 15:03:33.057469,1313
2021-12-27 15:03:33.057474,-5725
2021-12-27 15:03:33.057478,718
2021-12-27 15:03:33.057483,-793
2021-12-27 15:03:33.057488,3791
2021-12-27 15:03:33.057492,2605
2021-12-27 15:03:33.057497,-455
2021-12-27 15:03:33.057504,-2317
2021-12-27 15:03:33.057509,625
2021-12-27 15:03:33.057513,4903
2021-12-27 15:03:33.057518,-1648
2021-12-27 15:03:33.057525,1246
2021-12-27 15:03:33.057529,-2322
2021-12-27 15:03:33.057534,4860
2021-12-27 15:03:33.057539,-1339
2021-12-27 15:03:33.057543,3928
2021-12-27 15:03:33.057548,3904
2021-12-27 15:03:33.300577,-5109
2021-12-27 15:03:33.300606,-992
2021-12-27 15:03:33.300615,-3225
2021-12-27 15:03:33.300625,2255
2021-12-27 15:03:33.300638,-1876
2021-12-27 15:03:33.300651,-1795
2021-12-27 15:03:33.300660,-7527
2021-12-27 15:03:33.300668,3906
2021-12-27 15:03:33.300677,860
2021-12-27 15:03:33.300685,-975
2021-12-27 15:03:33.300693,-5049
2021-12-27 15:03:33.300702,-6101
2021-12-27 15:03:33.300712,1080
2021-12-27 15:03:33.300721,-4771
2021-12-27 15:03:33.300731,2983
2021-12-27 15:03:33.300745,-2794
2021-12-27 15:03:33.300755,4735
2021-12-27 15:03:33.300765,155
2021-12-27 15:03:33.300774,-3491
2021-12-27 15:03:33.300789,481
2021-12-27 15:03:33.300799,3062
2021-12-27 15:03:33.300809,3542
2021-12-27 15:03:33.300819,-4057
2021-12-27 15:03:33.300829,1984
2021-12-27 15:03:33.300840,505
2021-12-27 15:03:33.300853,3336
2021-12-27 15:03:33.593473,-2446
2021-12-27 15:03:33.593494,1715
2021-12-27 15:03:33.593503,-3561
2021-12-27 15:03:33.593510,-980
2021-12-27 15:03:33.593521,-1591
2021-12-27 15:03:33.593528,2633
2021-12-27 15:03:33.593535,2310
2021-12-27 15:03:33.593542,-8913
2021-12-27 15:03:33.593549,50
2021-12-27 15:03:33.593555,2307
2021-12-27 15:03:33.593562,2969
2021-12-27 15:03:33.593569,3700
2021-12-27 15:03:33.593576,-3465
2021-12-27 15:03:33.593583,153
2021-12-27 15:03:33.593590,-3652
2021-12-27 15:03:33.593596,-445
2021-12-27 15:03:33.593607,-2142
2021-12-27 15:03:33.593613,1332
2021-12-27 15:03:33.593620,2159
2021-12-27 15:03:33.593627,-3686
2021-12-27 15:03:33.593638,1104
2021-12-27 15:03:33.593645,1114
2021-12-27 15:03:33.593652,4407
2021-12-27 15:03:33.593659,-3499
2021-12-27 15:03:33.593666,2674
2021-12-27 15:03:33.593673,905
2021-12-27 15:03:33.788186,-1061
2021-12-27 15:03:33.788208,3465
2021-12-27 15:03:33.788214,-5775
2021-12-27 15:03:33.788219,421
2021-12-27 15:03:33.788224,1965
2021-12-27 15:03:33.788228,-6029
2021-12-27 15:03:33.788233,3944
2021-12-27 15:03:33.788238,1147
2021-12-27 15:03:33.788243,-1222
2021-12-27 15:03:33.788247,2365
2021-12-27 15:03:33.788252,-4977
2021-12-27 15:03:33.788257,-2514
2021-12-27 15:03:33.788262,-2168
2021-12-27 15:03:33.788267,1217
2021-12-27 15:03:33.788274,-5342
2021-12-27 15:03:33.788279,-862
2021-12-27 15:03:33.788284,-2355
2021-12-27 15:03:33.788288,-11592
2021-12-27 15:03:33.788293,-452
2021-12-27 15:03:33.788298,-1255
2021-12-27 15:03:33.788302,-1440
2021-12-27 15:03:33.788307,2840
2021-12-27 15:03:33.788311,-7086
2021-12-27 15:03:33.788316,-3367
2021-12-27 15:03:33.788321,304
2021-12-27 15:03:33.788326,-405
2021-12-27 15:03:33.788331,2892
2021-12-27 15:03:33.788335,-2106
2021-12-27 15:03:33.788340,2875
2021-12-27 15:03:34.032567,1265
2021-12-27 15:03:34.032596,-3714
2021-12-27 15:03:34.032609,-1174
2021-12-27 15:03:34.032616,220
2021-12-27 15:03:34.032627,-5011
2021-12-27 15:03:34.032634,-1088
2021-12-27 15:03:34.032641,790
2021-12-27 15:03:34.032648,-304
2021-12-27 15:03:34.032659,-1310
2021-12-27 15:03:34.032666,-1119
2021-12-27 15:03:34.032673,-2528
2021-12-27 15:03:34.032680,-4206
2021-12-27 15:03:34.032691,263
2021-12-27 15:03:34.032698,838
2021-12-27 15:03:34.032705,4232
2021-12-27 15:03:34.032712,-7170
2021-12-27 15:03:34.032719,313
2021-12-27 15:03:34.032726,3002
2021-12-27 15:03:34.032733,-47
2021-12-27 15:03:34.032744,-1195
2021-12-27 15:03:34.032750,553
2021-12-27 15:03:34.032757,1514
2021-12-27 15:03:34.032764,-2267
2021-12-27 15:03:34.032775,958
2021-12-27 15:03:34.227930,587
2021-12-27 15:03:34.227950,4951
2021-12-27 15:03:34.227956,-4795
2021-12-27 15:03:34.227961,2070
2021-12-27 15:03:34.227966,3645
2021-12-27 15:03:34.227970,-79
2021-12-27 15:03:34.227977,-927
2021-12-27 15:03:34.227982,-1246
2021-12-27 15:03:34.227987,-1706
2021-12-27 15:03:34.227991,-2420
2021-12-27 15:03:34.227998,385
2021-12-27 15:03:34.228003,-1068
2021-12-27 15:03:34.228007,1739
2021-12-27 15:03:34.228012,-6890
2021-12-27 15:03:34.228016,4484
2021-12-27 15:03:34.228021,4817
2021-12-27 15:03:34.228025,-1883
2021-12-27 15:03:34.228032,-5155
2021-12-27 15:03:34.228037,-5850
2021-12-27 15:03:34.228041,2252
2021-12-27 15:03:34.228046,-5608
2021-12-27 15:03:34.228050,-4177
2021-12-27 15:03:34.228055,-304
2021-12-27 15:03:34.228059,1795
2021-12-27 15:03:34.228064,-26
2021-12-27 15:03:34.228068,-3580
2021-12-27 15:03:34.469214,2794
2021-12-27 15:03:34.469242,-2269
2021-12-27 15:03:34.469251,4903
2021-12-27 15:03:34.469259,-6648
2021-12-27 15:03:34.469266,-3309
2021-12-27 15:03:34.469277,-1136
2021-12-27 15:03:34.469284,704
2021-12-27 15:03:34.469291,-2940
2021-12-27 15:03:34.469298,-450
2021-12-27 15:03:34.469305,3592
2021-12-27 15:03:34.469312,-5970
2021-12-27 15:03:34.469319,2715
2021-12-27 15:03:34.469326,3721
2021-12-27 15:03:34.469333,-3295
2021-12-27 15:03:34.469346,1588
2021-12-27 15:03:34.469352,-4913
2021-12-27 15:03:34.469360,-98
2021-12-27 15:03:34.469370,-1648
2021-12-27 15:03:34.469377,3549
2021-12-27 15:03:34.469384,-2041
2021-12-27 15:03:34.469391,-5088
2021-12-27 15:03:34.469398,913
2021-12-27 15:03:34.469405,-3901
2021-12-27 15:03:34.469412,143
2021-12-27 15:03:34.469419,-1147
2021-12-27 15:03:34.469426,-2674
2021-12-27 15:03:34.469433,4244
2021-12-27 15:03:34.469439,-3384
2021-12-27 15:03:34.666269,1059
2021-12-27 15:03:34.666297,4613
2021-12-27 15:03:34.666306,-4450
2021-12-27 15:03:34.666314,2372
2021-12-27 15:03:34.666321,-1521
2021-12-27 15:03:34.666328,-6312
2021-12-27 15:03:34.666335,1028
2021-12-27 15:03:34.666343,-136
2021-12-27 15:03:34.666350,3307
2021-12-27 15:03:34.666357,-237
2021-12-27 15:03:34.666364,-2082
2021-12-27 15:03:34.666371,2152
2021-12-27 15:03:34.666378,-9251
2021-12-27 15:03:34.666385,-2732
2021-12-27 15:03:34.666392,4764
2021-12-27 15:03:34.666399,-2760
2021-12-27 15:03:34.666407,4702
2021-12-27 15:03:34.666414,817
2021-12-27 15:03:34.666421,-1797
2021-12-27 15:03:34.666432,-1850
2021-12-27 15:03:34.666439,1313
2021-12-27 15:03:34.666446,575
2021-12-27 15:03:34.666453,-3798
2021-12-27 15:03:34.666460,3113
2021-12-27 15:03:34.666467,-2008
2021-12-27 15:03:34.666474,798
2021-12-27 15:03:34.666481,2715
2021-12-27 15:03:34.666488,-7844
2021-12-27 15:03:34.666495,-4213
2021-12-27 15:03:34.909747,-2629
2021-12-27 15:03:34.909767,1342
2021-12-27 15:03:34.909773,4282
2021-12-27 15:03:34.909778,-4311
2021-12-27 15:03:34.909783,4268
2021-12-27 15:03:34.909788,4091
2021-12-27 15:03:34.909792,-7261
2021-12-27 15:03:34.909797,-4730
2021-12-27 15:03:34.909801,-5344
2021-12-27 15:03:34.909806,462
2021-12-27 15:03:34.909811,551
2021-12-27 15:03:34.909815,-4218
2021-12-27 15:03:34.909820,4675
2021-12-27 15:03:34.909824,-3767
2021-12-27 15:03:34.909829,-8603
2021-12-27 15:03:34.909833,-76
2021-12-27 15:03:34.909838,-2118
2021-12-27 15:03:34.909843,4735
2021-12-27 15:03:34.909847,2298
2021-12-27 15:03:34.909852,-4373
2021-12-27 15:03:34.909856,2780
2021-12-27 15:03:34.909861,-1437
2021-12-27 15:03:34.909866,2535
2021-12-27 15:03:34.909873,-2056
2021-12-27 15:03:34.909877,4275
2021-12-27 15:03:34.909882,-819
2021-12-27 15:03:34.909886,-1543
2021-12-27 15:03:34.909893,-599
2021-12-27 15:03:35.153798,3575
2021-12-27 15:03:35.153826,3036
2021-12-27 15:03:35.153836,-4970
2021-12-27 15:03:35.153843,2629
2021-12-27 15:03:35.153851,1155
2021-12-27 15:03:35.153858,3326
2021-12-27 15:03:35.153865,4824
2021-12-27 15:03:35.153872,-2686
2021-12-27 15:03:35.153879,-139
2021-12-27 15:03:35.153887,-5104
2021-12-27 15:03:35.153894,704
2021-12-27 15:03:35.153905,-2341
2021-12-27 15:03:35.153912,3204
2021-12-27 15:03:35.153919,1138
2021-12-27 15:03:35.153926,-8438
2021-12-27 15:03:35.153934,2571
2021-12-27 15:03:35.153941,-527
2021-12-27 15:03:35.153948,349
2021-12-27 15:03:35.153958,-3364
2021-12-27 15:03:35.153966,522
2021-12-27 15:03:35.153973,824
2021-12-27 15:03:35.153980,1943
2021-12-27 15:03:35.153990,-1689
2021-12-27 15:03:35.153997,2722
2021-12-27 15:03:35.154004,1418
2021-12-27 15:03:35.154012,-2739
2021-12-27 15:03:35.348047,920
2021-12-27 15:03:35.348076,1200
2021-12-27 15:03:35.348085,4778
2021-12-27 15:03:35.348092,-4524
2021-12-27 15:03:35.348099,-2161
2021-12-27 15:03:35.348106,-4405
2021-12-27 15:03:35.348114,1018
2021-12-27 15:03:35.348125,-3899
2021-12-27 15:03:35.348132,-67
2021-12-27 15:03:35.348139,378
2021-12-27 15:03:35.348146,-4258
2021-12-27 15:03:35.348157,1193
2021-12-27 15:03:35.348164,-723
2021-12-27 15:03:35.348171,2880
2021-12-27 15:03:35.348178,-5929
2021-12-27 15:03:35.348185,-373
2021-12-27 15:03:35.348192,-105
2021-12-27 15:03:35.348215,-2808
2021-12-27 15:03:35.348222,2844
2021-12-27 15:03:35.348229,-1485
2021-12-27 15:03:35.348236,2787
2021-12-27 15:03:35.348243,1641
2021-12-27 15:03:35.348250,-1883
2021-12-27 15:03:35.348261,-771
2021-12-27 15:03:35.348268,-347
2021-12-27 15:03:35.348278,-2763
2021-12-27 15:03:35.592345,3551
2021-12-27 15:03:35.592373,2674
2021-12-27 15:03:35.592382,-1572
2021-12-27 15:03:35.592390,3777
2021-12-27 15:03:35.592397,-1677
2021-12-27 15:03:35.592404,-1128
2021-12-27 15:03:35.592411,-2732
2021-12-27 15:03:35.592419,-1457
2021-12-27 15:03:35.592429,-2322
2021-12-27 15:03:35.592436,666
2021-12-27 15:03:35.592443,4611
2021-12-27 15:03:35.592450,-7182
2021-12-27 15:03:35.592457,2633
2021-12-27 15:03:35.592464,3578
2021-12-27 15:03:35.592471,-1910
2021-12-27 15:03:35.592482,-872
2021-12-27 15:03:35.592488,405
2021-12-27 15:03:35.592495,1797
2021-12-27 15:03:35.592502,-4709
2021-12-27 15:03:35.592509,-548
2021-12-27 15:03:35.592516,-1567
2021-12-27 15:03:35.592523,3362
2021-12-27 15:03:35.592529,4155
2021-12-27 15:03:35.592536,-4474
2021-12-27 15:03:35.592543,4292
2021-12-27 15:03:35.592550,1660
2021-12-27 15:03:35.592557,-1193
2021-12-27 15:03:35.836208,-2104
2021-12-27 15:03:35.836237,115
2021-12-27 15:03:35.836246,2787
2021-12-27 15:03:35.836253,-2200
2021-12-27 15:03:35.836264,913
2021-12-27 15:03:35.836271,-812
2021-12-27 15:03:35.836279,-232
2021-12-27 15:03:35.836286,-7108
2021-12-27 15:03:35.836292,2995
2021-12-27 15:03:35.836300,-1162
2021-12-27 15:03:35.836307,-5701
2021-12-27 15:03:35.836317,-4762
2021-12-27 15:03:35.836324,-6183
2021-12-27 15:03:35.836331,2224
2021-12-27 15:03:35.836338,1138
2021-12-27 15:03:35.836348,-450
2021-12-27 15:03:35.836355,45
2021-12-27 15:03:35.836362,2154
2021-12-27 15:03:35.836369,-4182
2021-12-27 15:03:35.836376,3580
2021-12-27 15:03:35.836383,-946
2021-12-27 15:03:35.836390,-2859
2021-12-27 15:03:35.836401,-3525
2021-12-27 15:03:35.836408,-862
2021-12-27 15:03:35.836418,-603
2021-12-27 15:03:36.031064,4934
2021-12-27 15:03:36.031093,162
2021-12-27 15:03:36.031102,-2372
2021-12-27 15:03:36.031110,1330
2021-12-27 15:03:36.031117,-1457
2021-12-27 15:03:36.031128,1910
2021-12-27 15:03:36.031135,-1423
2021-12-27 15:03:36.031142,3614
2021-12-27 15:03:36.031149,-6696
2021-12-27 15:03:36.031156,488
2021-12-27 15:03:36.031166,-1943
2021-12-27 15:03:36.031173,4584
2021-12-27 15:03:36.031180,-1802
2021-12-27 15:03:36.031187,-7125
2021-12-27 15:03:36.031194,536
2021-12-27 15:03:36.031201,472
2021-12-27 15:03:36.031211,831
2021-12-27 15:03:36.031218,-2701
2021-12-27 15:03:36.031225,3151
2021-12-27 15:03:36.031232,-3024
2021-12-27 15:03:36.031239,3026
2021-12-27 15:03:36.031246,3130
2021-12-27 15:03:36.031253,-6722
2021-12-27 15:03:36.031260,2600
2021-12-27 15:03:36.031268,-337
2021-12-27 15:03:36.031275,-1821
2021-12-27 15:03:36.031282,4917
2021-12-27 15:03:36.274608,-1251
2021-12-27 15:03:36.274629,1437
2021-12-27 15:03:36.274635,-2367
2021-12-27 15:03:36.274640,-5301
2021-12-27 15:03:36.274644,431
2021-12-27 15:03:36.274649,-5967
2021-12-27 15:03:36.274654,2547
2021-12-27 15:03:36.274661,-5025
2021-12-27 15:03:36.274666,2547
2021-12-27 15:03:36.274670,-2677
2021-12-27 15:03:36.274675,-5159
2021-12-27 15:03:36.274679,4570
2021-12-27 15:03:36.274684,-268
2021-12-27 15:03:36.274688,1557
2021-12-27 15:03:36.274693,-4424
2021-12-27 15:03:36.274698,-13109
2021-12-27 15:03:36.274702,-2976
2021-12-27 15:03:36.274707,-1835
2021-12-27 15:03:36.274711,-989
2021-12-27 15:03:36.274716,-1838
2021-12-27 15:03:36.274720,-3767
2021-12-27 15:03:36.274727,-2073
2021-12-27 15:03:36.274732,-2080
2021-12-27 15:03:36.274739,-6015
2021-12-27 15:03:36.274743,-4043
2021-12-27 15:03:36.274748,508
2021-12-27 15:03:36.274752,-1035
2021-12-27 15:03:36.614338,2979
2021-12-27 15:03:36.614358,-1878
2021-12-27 15:03:36.614363,1773
2021-12-27 15:03:36.614368,2233
2021-12-27 15:03:36.614371,-2492
2021-12-27 15:03:36.614375,4227
2021-12-27 15:03:36.614379,-4047
2021-12-27 15:03:36.614383,-2295
2021-12-27 15:03:36.614388,-2792
2021-12-27 15:03:36.614392,3098
2021-12-27 15:03:36.614395,2413
2021-12-27 15:03:36.614399,-7223
2021-12-27 15:03:36.614403,553
2021-12-27 15:03:36.614407,74
2021-12-27 15:03:36.614411,2070
2021-12-27 15:03:36.614414,3566
2021-12-27 15:03:36.614418,-1227
2021-12-27 15:03:36.614422,4440
2021-12-27 15:03:36.614426,-1370
2021-12-27 15:03:36.614429,-1128
2021-12-27 15:03:36.614435,-1600
2021-12-27 15:03:36.614438,4675
2021-12-27 15:03:36.614442,2667
2021-12-27 15:03:36.614445,-3384
2021-12-27 15:03:36.614449,4699
2021-12-27 15:03:36.614453,-814
2021-12-27 15:03:36.614457,-23
2021-12-27 15:03:36.614460,1076
2021-12-27 15:03:36.713550,-4004
2021-12-27 15:03:36.713579,4376
2021-12-27 15:03:36.713588,-1399
2021-12-27 15:03:36.713595,-1775
2021-12-27 15:03:36.713606,-807
2021-12-27 15:03:36.713613,3084
2021-12-27 15:03:36.713620,-79
2021-12-27 15:03:36.713627,-7618
2021-12-27 15:03:36.713634,3738
2021-12-27 15:03:36.713640,1773
2021-12-27 15:03:36.713647,2101
2021-12-27 15:03:36.713654,4218
2021-12-27 15:03:36.713661,-5207
2021-12-27 15:03:36.713668,-3587
2021-12-27 15:03:36.713675,-3295
2021-12-27 15:03:36.713682,2897
2021-12-27 15:03:36.713692,-2916
2021-12-27 15:03:36.713699,4352
2021-12-27 15:03:36.713706,1629
2021-12-27 15:03:36.713713,-10806
2021-12-27 15:03:36.713719,-1955
2021-12-27 15:03:36.713726,1464
2021-12-27 15:03:36.713733,3875
2021-12-27 15:03:36.713740,2902
2021-12-27 15:03:36.713747,-4908
2021-12-27 15:03:36.713754,2279
2021-12-27 15:03:36.713761,1536
2021-12-27 15:03:36.713768,1246
2021-12-27 15:03:36.957354,4297
2021-12-27 15:03:36.957382,-5478
2021-12-27 15:03:36.957392,-2013
2021-12-27 15:03:36.957399,-3309
2021-12-27 15:03:36.957406,-3729
2021-12-27 15:03:36.957417,167
2021-12-27 15:03:36.957424,745
2021-12-27 15:03:36.957431,3501
2021-12-27 15:03:36.957438,-8112
2021-12-27 15:03:36.957445,93
2021-12-27 15:03:36.957452,3587
2021-12-27 15:03:36.957459,1426
2021-12-27 15:03:36.957465,4659
2021-12-27 15:03:36.957472,-2698
2021-12-27 15:03:36.957479,783
2021-12-27 15:03:36.957486,1176
2021-12-27 15:03:36.957493,-735
2021-12-27 15:03:36.957503,-632
2021-12-27 15:03:36.957510,38
2021-12-27 15:03:36.957517,3082
2021-12-27 15:03:36.957524,-3422
2021-12-27 15:03:36.957534,2365
2021-12-27 15:03:36.957541,-467
2021-12-27 15:03:36.957548,4908
2021-12-27 15:03:36.957555,-3333
2021-12-27 15:03:36.957561,1212
2021-12-27 15:03:36.957568,2638
2021-12-27 15:03:37.200637,-1684
2021-12-27 15:03:37.200666,3412
2021-12-27 15:03:37.200675,-7300
2021-12-27 15:03:37.200682,-6631
2021-12-27 15:03:37.200689,486
2021-12-27 15:03:37.200696,-5298
2021-12-27 15:03:37.200703,3142
2021-12-27 15:03:37.200710,1917
2021-12-27 15:03:37.200717,-2331
2021-12-27 15:03:37.200724,3271
2021-12-27 15:03:37.200731,-4388
2021-12-27 15:03:37.200738,-3218
2021-12-27 15:03:37.200744,40
2021-12-27 15:03:37.200751,182
2021-12-27 15:03:37.200762,-3494
2021-12-27 15:03:37.200769,-2152
2021-12-27 15:03:37.200776,472
2021-12-27 15:03:37.200783,-6585
2021-12-27 15:03:37.200790,961
2021-12-27 15:03:37.200797,-1785
2021-12-27 15:03:37.200803,-2614
2021-12-27 15:03:37.200814,-3640
2021-12-27 15:03:37.200821,-69
2021-12-27 15:03:37.200828,2883
2021-12-27 15:03:37.200834,-6044
2021-12-27 15:03:37.200841,-5543
2021-12-27 15:03:37.200848,-5962
2021-12-27 15:03:37.200855,2919
2021-12-27 15:03:37.444713,3587
2021-12-27 15:03:37.444742,-5143
2021-12-27 15:03:37.444751,4488
2021-12-27 15:03:37.444758,685
2021-12-27 15:03:37.444766,-3870
2021-12-27 15:03:37.444773,848
2021-12-27 15:03:37.444781,-8261
2021-12-27 15:03:37.444788,-1210
2021-12-27 15:03:37.444795,4124
2021-12-27 15:03:37.444803,-1972
2021-12-27 15:03:37.444810,4189
2021-12-27 15:03:37.444817,-2147
2021-12-27 15:03:37.444824,-5512
2021-12-27 15:03:37.444831,-1816
2021-12-27 15:03:37.444838,-3681
2021-12-27 15:03:37.444845,4556
2021-12-27 15:03:37.444852,1076
2021-12-27 15:03:37.444859,-520
2021-12-27 15:03:37.444870,-3410
2021-12-27 15:03:37.444878,730
2021-12-27 15:03:37.444885,3271
2021-12-27 15:03:37.444892,-1392
2021-12-27 15:03:37.444903,-64
2021-12-27 15:03:37.444910,-2240
2021-12-27 15:03:37.444917,-31
2021-12-27 15:03:37.444924,-5104
2021-12-27 15:03:37.444931,3187
2021-12-27 15:03:37.444938,-1073
2021-12-27 15:03:37.639868,-3096
2021-12-27 15:03:37.639896,4860
2021-12-27 15:03:37.639905,-5102
2021-12-27 15:03:37.639913,-577
2021-12-27 15:03:37.639920,4520
2021-12-27 15:03:37.639927,-1541
2021-12-27 15:03:37.639934,3106
2021-12-27 15:03:37.639941,-6629
2021-12-27 15:03:37.639953,-9785
2021-12-27 15:03:37.639960,539
2021-12-27 15:03:37.639967,637
2021-12-27 15:03:37.639978,977
2021-12-27 15:03:37.639985,-1545
2021-12-27 15:03:37.639993,905
2021-12-27 15:03:37.640000,-7295
2021-12-27 15:03:37.640007,3894
2021-12-27 15:03:37.640017,-2895
2021-12-27 15:03:37.640028,-762
2021-12-27 15:03:37.640035,-2856
2021-12-27 15:03:37.640045,325
2021-12-27 15:03:37.640052,4464
2021-12-27 15:03:37.640059,2286
2021-12-27 15:03:37.640066,-2437
2021-12-27 15:03:37.640074,2516
2021-12-27 15:03:37.640080,-1406
2021-12-27 15:03:37.640088,4726
2021-12-27 15:03:37.932638,4678
2021-12-27 15:03:37.932667,-4004
2021-12-27 15:03:37.932676,-3276
2021-12-27 15:03:37.932684,-12206
2021-12-27 15:03:37.932691,-2679
2021-12-27 15:03:37.932702,-1876
2021-12-27 15:03:37.932709,2118
2021-12-27 15:03:37.932716,-2255
2021-12-27 15:03:37.932723,-12898
2021-12-27 15:03:37.932730,-3408
2021-12-27 15:03:37.932736,469
2021-12-27 15:03:37.932743,4771
2021-12-27 15:03:37.932751,2384
2021-12-27 15:03:37.932757,-3304
2021-12-27 15:03:37.932764,4232
2021-12-27 15:03:37.932771,-1159
2021-12-27 15:03:37.932778,393
2021-12-27 15:03:37.932788,-1615
2021-12-27 15:03:37.932796,3151
2021-12-27 15:03:37.932802,1059
2021-12-27 15:03:37.932809,-4122
2021-12-27 15:03:37.932816,1430
2021-12-27 15:03:37.932824,-2971
2021-12-27 15:03:37.932831,702
2021-12-27 15:03:37.932838,-522
2021-12-27 15:03:37.932845,-4860
2021-12-27 15:03:37.932856,-1440
2021-12-27 15:03:38.224893,-829
2021-12-27 15:03:38.224919,-3554
2021-12-27 15:03:38.224924,1529
2021-12-27 15:03:38.224929,354
2021-12-27 15:03:38.224934,-7084
2021-12-27 15:03:38.224939,1761
2021-12-27 15:03:38.224943,1016
2021-12-27 15:03:38.224948,1912
2021-12-27 15:03:38.224952,1366
2021-12-27 15:03:38.224957,-3499
2021-12-27 15:03:38.224962,2097
2021-12-27 15:03:38.224966,-1780
2021-12-27 15:03:38.224971,1953
2021-12-27 15:03:38.224978,-3642
2021-12-27 15:03:38.224983,4544
2021-12-27 15:03:38.224987,1092
2021-12-27 15:03:38.224992,-6727
2021-12-27 15:03:38.224998,879
2021-12-27 15:03:38.225003,639
2021-12-27 15:03:38.225007,3115
2021-12-27 15:03:38.225012,-4721
2021-12-27 15:03:38.225016,651
2021-12-27 15:03:38.225021,-268
2021-12-27 15:03:38.225025,242
2021-12-27 15:03:38.225030,3659
2021-12-27 15:03:38.225035,-1994
2021-12-27 15:03:38.225039,4944
2021-12-27 15:03:38.419852,1392
2021-12-27 15:03:38.419872,-3098
2021-12-27 15:03:38.419880,-1466
2021-12-27 15:03:38.419885,1938
2021-12-27 15:03:38.419892,-2454
2021-12-27 15:03:38.419897,-1236
2021-12-27 15:03:38.419902,-9586
2021-12-27 15:03:38.419906,-3666
2021-12-27 15:03:38.419913,-5500
2021-12-27 15:03:38.419917,-134
2021-12-27 15:03:38.419922,-139
2021-12-27 15:03:38.419927,-5507
2021-12-27 15:03:38.419931,3961
2021-12-27 15:03:38.419936,-143
2021-12-27 15:03:38.419941,1790
2021-12-27 15:03:38.419945,2919
2021-12-27 15:03:38.419950,-7863
2021-12-27 15:03:38.419955,-2226
2021-12-27 15:03:38.419959,162
2021-12-27 15:03:38.419964,2286
2021-12-27 15:03:38.419971,-2334
2021-12-27 15:03:38.419976,1169
2021-12-27 15:03:38.419980,-3396
2021-12-27 15:03:38.419985,-3765
2021-12-27 15:03:38.419992,-67
2021-12-27 15:03:38.661883,1289
2021-12-27 15:03:38.661911,4814
2021-12-27 15:03:38.661920,-5138
2021-12-27 15:03:38.661927,1977
2021-12-27 15:03:38.661935,2653
2021-12-27 15:03:38.661942,1632
2021-12-27 15:03:38.661952,-2475
2021-12-27 15:03:38.661960,-2394
2021-12-27 15:03:38.661967,-4321
2021-12-27 15:03:38.661974,-141
2021-12-27 15:03:38.661985,-1449
2021-12-27 15:03:38.661992,1744
2021-12-27 15:03:38.661999,3937
2021-12-27 15:03:38.662006,-7266
2021-12-27 15:03:38.662013,3031
2021-12-27 15:03:38.662020,4055
2021-12-27 15:03:38.662027,663
2021-12-27 15:03:38.662034,4014
2021-12-27 15:03:38.662041,-7630
2021-12-27 15:03:38.662048,-6425
2021-12-27 15:03:38.662055,-479
2021-12-27 15:03:38.662062,1435
2021-12-27 15:03:38.662072,-1996
2021-12-27 15:03:38.662079,548
2021-12-27 15:03:38.662085,2049
2021-12-27 15:03:38.662092,-3822
2021-12-27 15:03:38.809565,2204
2021-12-27 15:03:38.809591,-766
2021-12-27 15:03:38.809597,4788
2021-12-27 15:03:38.809602,-6820
2021-12-27 15:03:38.809607,-4994
2021-12-27 15:03:38.809611,-529
2021-12-27 15:03:38.809616,-1409
2021-12-27 15:03:38.809620,2981
2021-12-27 15:03:38.809625,-5608
2021-12-27 15:03:38.809629,-2921
2021-12-27 15:03:38.809634,-675
2021-12-27 15:03:38.809638,-6562
2021-12-27 15:03:38.809643,2645
2021-12-27 15:03:38.809647,-4278
2021-12-27 15:03:38.809653,-5912
2021-12-27 15:03:38.809661,-2971
2021-12-27 15:03:38.809666,-2248
2021-12-27 15:03:38.809671,776
2021-12-27 15:03:38.809675,239
2021-12-27 15:03:38.809682,-2552
2021-12-27 15:03:38.809687,769
2021-12-27 15:03:38.809691,3947
2021-12-27 15:03:38.809696,-2528
2021-12-27 15:03:38.809703,1286
2021-12-27 15:03:38.809707,-1644
2021-12-27 15:03:38.809714,-2140
2021-12-27 15:03:39.054086,2394
2021-12-27 15:03:39.054116,4443
2021-12-27 15:03:39.054125,-2238
2021-12-27 15:03:39.054133,3971
2021-12-27 15:03:39.054140,-433
2021-12-27 15:03:39.054148,-2775
2021-12-27 15:03:39.054155,-1210
2021-12-27 15:03:39.054162,-1215
2021-12-27 15:03:39.054173,-903
2021-12-27 15:03:39.054180,-357
2021-12-27 15:03:39.054191,-5653
2021-12-27 15:03:39.054198,1864
2021-12-27 15:03:39.054209,-2470
2021-12-27 15:03:39.054219,1715
2021-12-27 15:03:39.054226,280
2021-12-27 15:03:39.054233,1174
2021-12-27 15:03:39.054240,-4762
2021-12-27 15:03:39.054247,4958
2021-12-27 15:03:39.054254,2813
2021-12-27 15:03:39.054261,-364
2021-12-27 15:03:39.054268,4932
2021-12-27 15:03:39.054275,-2684
2021-12-27 15:03:39.054282,2439
2021-12-27 15:03:39.054289,3230
2021-12-27 15:03:39.054297,-1322
2021-12-27 15:03:39.297356,-757
2021-12-27 15:03:39.297385,-922
2021-12-27 15:03:39.297395,4371
2021-12-27 15:03:39.297402,-2135
2021-12-27 15:03:39.297413,2710
2021-12-27 15:03:39.297421,-2267
2021-12-27 15:03:39.297428,153
2021-12-27 15:03:39.297435,-6101
2021-12-27 15:03:39.297443,3424
2021-12-27 15:03:39.297453,-2056
2021-12-27 15:03:39.297464,-3424
2021-12-27 15:03:39.297471,-5775
2021-12-27 15:03:39.297478,3348
2021-12-27 15:03:39.297485,359
2021-12-27 15:03:39.297492,4232
2021-12-27 15:03:39.297499,-3513
2021-12-27 15:03:39.297506,-8905
2021-12-27 15:03:39.297513,448
2021-12-27 15:03:39.297520,-4457
2021-12-27 15:03:39.297527,951
2021-12-27 15:03:39.297534,4762
2021-12-27 15:03:39.297541,-774
2021-12-27 15:03:39.297549,4831
2021-12-27 15:03:39.297556,-2346
2021-12-27 15:03:39.297563,-1260
2021-12-27 15:03:39.297573,-754
2021-12-27 15:03:39.492376,4572
2021-12-27 15:03:39.492404,1816
2021-12-27 15:03:39.492413,-3844
2021-12-27 15:03:39.492421,1982
2021-12-27 15:03:39.492428,-481
2021-12-27 15:03:39.492435,4822
2021-12-27 15:03:39.492443,3578
2021-12-27 15:03:39.492450,-2106
2021-12-27 15:03:39.492457,2952
2021-12-27 15:03:39.492464,-5711
2021-12-27 15:03:39.492471,-606
2021-12-27 15:03:39.492482,-2044
2021-12-27 15:03:39.492489,3712
2021-12-27 15:03:39.492496,14
2021-12-27 15:03:39.492503,-8162
2021-12-27 15:03:39.492510,1392
2021-12-27 15:03:39.492517,1390
2021-12-27 15:03:39.492524,3949
2021-12-27 15:03:39.492531,2526
2021-12-27 15:03:39.492538,-3137
2021-12-27 15:03:39.492545,2830
2021-12-27 15:03:39.492552,-3738
2021-12-27 15:03:39.492559,-3666
2021-12-27 15:03:39.492565,2847
2021-12-27 15:03:39.492573,-1104
2021-12-27 15:03:39.492580,4031
2021-12-27 15:03:39.492587,-951
2021-12-27 15:03:39.492594,-2595
2021-12-27 15:03:39.736072,-589
2021-12-27 15:03:39.736101,2449
2021-12-27 15:03:39.736110,3391
2021-12-27 15:03:39.736118,-5215
2021-12-27 15:03:39.736125,-742
2021-12-27 15:03:39.736132,-3393
2021-12-27 15:03:39.736139,2307
2021-12-27 15:03:39.736150,-4397
2021-12-27 15:03:39.736157,2252
2021-12-27 15:03:39.736164,-397
2021-12-27 15:03:39.736171,-5378
2021-12-27 15:03:39.736182,656
2021-12-27 15:03:39.736189,541
2021-12-27 15:03:39.736196,1924
2021-12-27 15:03:39.736203,-2653
2021-12-27 15:03:39.736210,3525
2021-12-27 15:03:39.736217,-443
2021-12-27 15:03:39.736224,1624
2021-12-27 15:03:39.736231,4831
2021-12-27 15:03:39.736238,-3590
2021-12-27 15:03:39.736245,3079
2021-12-27 15:03:39.736252,-1641
2021-12-27 15:03:39.736276,-11508
2021-12-27 15:03:39.736283,-6269
2021-12-27 15:03:39.736290,-5505
2021-12-27 15:03:39.736297,3396
2021-12-27 15:03:39.736304,3127
2021-12-27 15:03:39.736311,-4814
2021-12-27 15:03:39.979835,3748
2021-12-27 15:03:39.979864,440
2021-12-27 15:03:39.979873,-1078
2021-12-27 15:03:39.979880,3096
2021-12-27 15:03:39.979887,-1819
2021-12-27 15:03:39.979894,2154
2021-12-27 15:03:39.979901,-3808
2021-12-27 15:03:39.979908,-5011
2021-12-27 15:03:39.979915,3309
2021-12-27 15:03:39.979922,-5459
2021-12-27 15:03:39.979930,-1092
2021-12-27 15:03:39.979937,-354
2021-12-27 15:03:39.979944,-9893
2021-12-27 15:03:39.979951,280
2021-12-27 15:03:39.979958,249
2021-12-27 15:03:39.979965,-932
2021-12-27 15:03:39.979972,3813
2021-12-27 15:03:39.979979,-2027
2021-12-27 15:03:39.979986,1965
2021-12-27 15:03:39.979993,-661
2021-12-27 15:03:39.980000,-2751
2021-12-27 15:03:39.980007,4872
2021-12-27 15:03:39.980014,-1375
2021-12-27 15:03:39.980020,2626
2021-12-27 15:03:39.980028,3556
2021-12-27 15:03:39.980034,-4230
2021-12-27 15:03:39.980042,2554
2021-12-27 15:03:39.980048,-3304
2021-12-27 15:03:39.980055,-2109
2021-12-27 15:03:40.174720,-2022
2021-12-27 15:03:40.174748,869
2021-12-27 15:03:40.174757,184
2021-12-27 15:03:40.174765,-1950
2021-12-27 15:03:40.174775,-318
2021-12-27 15:03:40.174782,1950
2021-12-27 15:03:40.174789,1457
2021-12-27 15:03:40.174797,-7762
2021-12-27 15:03:40.174804,3300
2021-12-27 15:03:40.174811,2844
2021-12-27 15:03:40.174818,575
2021-12-27 15:03:40.174829,-4762
2021-12-27 15:03:40.174836,-4052
2021-12-27 15:03:40.174843,-1191
2021-12-27 15:03:40.174850,1608
2021-12-27 15:03:40.174861,-1739
2021-12-27 15:03:40.174868,2111
2021-12-27 15:03:40.174875,2478
2021-12-27 15:03:40.174882,-5006
2021-12-27 15:03:40.174893,2626
2021-12-27 15:03:40.174900,-256
2021-12-27 15:03:40.174911,-3791
2021-12-27 15:03:40.174918,393
2021-12-27 15:03:40.174925,1768
2021-12-27 15:03:40.174932,-7331
2021-12-27 15:03:40.418590,-6073
2021-12-27 15:03:40.418619,-5061
2021-12-27 15:03:40.418628,896
2021-12-27 15:03:40.418635,-3738
2021-12-27 15:03:40.418643,-5737
2021-12-27 15:03:40.418654,1593
2021-12-27 15:03:40.418661,-1553
2021-12-27 15:03:40.418668,4800
2021-12-27 15:03:40.418675,-7218
2021-12-27 15:03:40.418682,-985
2021-12-27 15:03:40.418693,440
2021-12-27 15:03:40.418700,4834
2021-12-27 15:03:40.418707,-1461
2021-12-27 15:03:40.418714,-579
2021-12-27 15:03:40.418721,2389
2021-12-27 15:03:40.418728,-1030
2021-12-27 15:03:40.418739,884
2021-12-27 15:03:40.418746,-1231
2021-12-27 15:03:40.418753,3961
2021-12-27 15:03:40.418760,-2914
2021-12-27 15:03:40.418767,4062
2021-12-27 15:03:40.418774,3988
2021-12-27 15:03:40.418781,-1284
2021-12-27 15:03:40.418792,-2111
2021-12-27 15:03:40.418799,-206
2021-12-27 15:03:40.418807,3978
2021-12-27 15:03:40.709837,-2911
2021-12-27 15:03:40.709866,927
2021-12-27 15:03:40.709875,-3134
2021-12-27 15:03:40.709883,-687
2021-12-27 15:03:40.709890,3884
2021-12-27 15:03:40.709897,-6341
2021-12-27 15:03:40.709904,3168
2021-12-27 15:03:40.709915,-3604
2021-12-27 15:03:40.709922,3479
2021-12-27 15:03:40.709929,-2458
2021-12-27 15:03:40.709936,-4146
2021-12-27 15:03:40.709943,1749
2021-12-27 15:03:40.709950,261
2021-12-27 15:03:40.709957,4536
2021-12-27 15:03:40.709964,-1327
2021-12-27 15:03:40.709971,-2063
2021-12-27 15:03:40.709977,1224
2021-12-27 15:03:40.709985,-5282
2021-12-27 15:03:40.709991,4417
2021-12-27 15:03:40.709998,2780
2021-12-27 15:03:40.710005,-4146
2021-12-27 15:03:40.710015,-987
2021-12-27 15:03:40.710022,-1097
2021-12-27 15:03:40.710029,4352
2021-12-27 15:03:40.710036,-2492
2021-12-27 15:03:40.710043,2847
2021-12-27 15:03:40.710049,1270
2021-12-27 15:03:40.710056,-548
2021-12-27 15:03:40.906400,3005
2021-12-27 15:03:40.906428,-5028
2021-12-27 15:03:40.906438,-2794
2021-12-27 15:03:40.906445,-5183
2021-12-27 15:03:40.906452,-7777
2021-12-27 15:03:40.906459,-1054
2021-12-27 15:03:40.906466,-11221
2021-12-27 15:03:40.906473,-5382
2021-12-27 15:03:40.906484,-3127
2021-12-27 15:03:40.906491,2691
2021-12-27 15:03:40.906498,1193
2021-12-27 15:03:40.906506,-5445
2021-12-27 15:03:40.906513,-2554
2021-12-27 15:03:40.906520,-3520
