Time,ECG
2021-12-27 15:08:11.374174,-1169
2021-12-27 15:08:11.374191,2430
2021-12-27 15:08:11.374195,191
2021-12-27 15:08:11.374199,-7913
2021-12-27 15:08:11.374203,1284
2021-12-27 15:08:11.374207,1768
2021-12-27 15:08:11.374211,3616
2021-12-27 15:08:11.374214,3264
2021-12-27 15:08:11.374218,-3340
2021-12-27 15:08:11.374222,1845
2021-12-27 15:08:11.374226,-3791
2021-12-27 15:08:11.374229,-122
2021-12-27 15:08:11.374235,-3108
2021-12-27 15:08:11.374238,1603
2021-12-27 15:08:11.374242,3551
2021-12-27 15:08:11.374245,-2698
2021-12-27 15:08:11.374249,4989
2021-12-27 15:08:11.374253,910
2021-12-27 15:08:11.374256,-436
2021-12-27 15:08:11.374260,-718
2021-12-27 15:08:11.374264,-4484
2021-12-27 15:08:11.374267,4033
2021-12-27 15:08:11.374271,-2528
2021-12-27 15:08:11.374274,-5584
2021-12-27 15:08:11.374278,1490
2021-12-27 15:08:11.374282,-2192
2021-12-27 15:08:11.374286,3992
2021-12-27 15:08:11.374289,-1864
2021-12-27 15:08:11.617296,-8707
2021-12-27 15:08:11.617329,546
2021-12-27 15:08:11.617337,-795
2021-12-27 15:08:11.617344,4043
2021-12-27 15:08:11.617351,-5337
2021-12-27 15:08:11.617357,-6583
2021-12-27 15:08:11.617364,-5459
2021-12-27 15:08:11.617371,-697
2021-12-27 15:08:11.617379,-237
2021-12-27 15:08:11.617386,-4802
2021-12-27 15:08:11.617392,4925
2021-12-27 15:08:11.617399,-1694
2021-12-27 15:08:11.617406,-6641
2021-12-27 15:08:11.617416,-1152
2021-12-27 15:08:11.617423,685
2021-12-27 15:08:11.617430,4692
2021-12-27 15:08:11.617437,-3666
2021-12-27 15:08:11.617444,1984
2021-12-27 15:08:11.617451,11
2021-12-27 15:08:11.617459,261
2021-12-27 15:08:11.617469,-1078
2021-12-27 15:08:11.617476,3616
2021-12-27 15:08:11.617482,520
2021-12-27 15:08:11.617489,-4584
2021-12-27 15:08:11.617496,512
2021-12-27 15:08:11.617503,-3702
2021-12-27 15:08:11.617510,4318
2021-12-27 15:08:11.812191,4944
2021-12-27 15:08:11.812220,-4790
2021-12-27 15:08:11.812229,2969
2021-12-27 15:08:11.812236,318
2021-12-27 15:08:11.812247,1358
2021-12-27 15:08:11.812258,-1919
2021-12-27 15:08:11.812265,-254
2021-12-27 15:08:11.812272,-5032
2021-12-27 15:08:11.812279,-2959
2021-12-27 15:08:11.812289,-594
2021-12-27 15:08:11.812296,2494
2021-12-27 15:08:11.812303,2463
2021-12-27 15:08:11.812310,-9071
2021-12-27 15:08:11.812317,881
2021-12-27 15:08:11.812324,3360
2021-12-27 15:08:11.812331,2521
2021-12-27 15:08:11.812338,4649
2021-12-27 15:08:11.812345,-1926
2021-12-27 15:08:11.812356,1543
2021-12-27 15:08:11.812363,-1258
2021-12-27 15:08:11.812371,603
2021-12-27 15:08:11.812381,-1346
2021-12-27 15:08:11.812388,2935
2021-12-27 15:08:11.812395,3079
2021-12-27 15:08:11.812402,-4460
2021-12-27 15:08:11.812409,4884
2021-12-27 15:08:11.812416,-1344
2021-12-27 15:08:12.056040,-2087
2021-12-27 15:08:12.056073,-5814
2021-12-27 15:08:12.056081,-6600
2021-12-27 15:08:12.056089,-1272
2021-12-27 15:08:12.056096,-1152
2021-12-27 15:08:12.056103,-4009
2021-12-27 15:08:12.056110,-6240
2021-12-27 15:08:12.056127,-1145
2021-12-27 15:08:12.056134,-7074
2021-12-27 15:08:12.056144,2310
2021-12-27 15:08:12.056151,-191
2021-12-27 15:08:12.056158,4778
2021-12-27 15:08:12.056165,-4043
2021-12-27 15:08:12.056172,2049
2021-12-27 15:08:12.056179,3070
2021-12-27 15:08:12.056186,1315
2021-12-27 15:08:12.056196,-2178
2021-12-27 15:08:12.056203,1267
2021-12-27 15:08:12.056210,2121
2021-12-27 15:08:12.056217,-1193
2021-12-27 15:08:12.056228,325
2021-12-27 15:08:12.056235,172
2021-12-27 15:08:12.056242,3420
2021-12-27 15:08:12.056249,-3192
2021-12-27 15:08:12.056256,4361
2021-12-27 15:08:12.299147,944
2021-12-27 15:08:12.299166,-4740
2021-12-27 15:08:12.299185,778
2021-12-27 15:08:12.299189,-2140
2021-12-27 15:08:12.299192,2
2021-12-27 15:08:12.299196,-3827
2021-12-27 15:08:12.299199,-1970
2021-12-27 15:08:12.299205,-1883
2021-12-27 15:08:12.299211,-587
2021-12-27 15:08:12.299215,3952
2021-12-27 15:08:12.299218,-6979
2021-12-27 15:08:12.299222,1701
2021-12-27 15:08:12.299226,3724
2021-12-27 15:08:12.299229,-824
2021-12-27 15:08:12.299233,2892
2021-12-27 15:08:12.299237,-1306
2021-12-27 15:08:12.299240,2494
2021-12-27 15:08:12.299244,908
2021-12-27 15:08:12.299247,-560
2021-12-27 15:08:12.299253,-2140
2021-12-27 15:08:12.299261,1919
2021-12-27 15:08:12.299266,-3650
2021-12-27 15:08:12.299270,4977
2021-12-27 15:08:12.299273,1644
2021-12-27 15:08:12.299277,-1409
2021-12-27 15:08:12.299283,-1636
2021-12-27 15:08:12.542817,1066
2021-12-27 15:08:12.542856,1910
2021-12-27 15:08:12.542862,-3292
2021-12-27 15:08:12.542866,-805
2021-12-27 15:08:12.542871,-4155
2021-12-27 15:08:12.542875,3189
2021-12-27 15:08:12.542880,1169
2021-12-27 15:08:12.542884,-7515
2021-12-27 15:08:12.542891,1279
2021-12-27 15:08:12.542895,-5936
2021-12-27 15:08:12.542900,-4031
2021-12-27 15:08:12.542904,-9337
2021-12-27 15:08:12.542909,-982
2021-12-27 15:08:12.542913,951
2021-12-27 15:08:12.542918,-1152
2021-12-27 15:08:12.542925,-146
2021-12-27 15:08:12.542931,1507
2021-12-27 15:08:12.542936,2202
2021-12-27 15:08:12.542940,-3988
2021-12-27 15:08:12.542945,4728
2021-12-27 15:08:12.542949,1541
2021-12-27 15:08:12.542954,1056
2021-12-27 15:08:12.542960,-3453
2021-12-27 15:08:12.542965,1373
2021-12-27 15:08:12.542969,1847
2021-12-27 15:08:12.542974,-40
2021-12-27 15:08:12.833343,-877
2021-12-27 15:08:12.833358,807
2021-12-27 15:08:12.833363,1270
2021-12-27 15:08:12.833366,-3340
2021-12-27 15:08:12.833372,-2221
2021-12-27 15:08:12.833375,-2919
2021-12-27 15:08:12.833379,3858
2021-12-27 15:08:12.833383,-8141
2021-12-27 15:08:12.833386,-1893
2021-12-27 15:08:12.833390,4520
2021-12-27 15:08:12.833393,1006
2021-12-27 15:08:12.833397,4563
2021-12-27 15:08:12.833401,-2552
2021-12-27 15:08:12.833404,-4874
2021-12-27 15:08:12.833408,-4316
2021-12-27 15:08:12.833438,-280
2021-12-27 15:08:12.833444,-1181
2021-12-27 15:08:12.833448,-246
2021-12-27 15:08:12.833451,3985
2021-12-27 15:08:12.833455,-5279
2021-12-27 15:08:12.833459,4222
2021-12-27 15:08:12.833462,4146
2021-12-27 15:08:12.833466,-1018
2021-12-27 15:08:12.833471,-2818
2021-12-27 15:08:12.833475,-1557
2021-12-27 15:08:12.833478,3098
2021-12-27 15:08:12.833482,227
2021-12-27 15:08:12.982266,-289
2021-12-27 15:08:12.982287,-1553
2021-12-27 15:08:12.982295,-1315
2021-12-27 15:08:12.982302,-6401
2021-12-27 15:08:12.982312,1972
2021-12-27 15:08:12.982319,-6995
2021-12-27 15:08:12.982326,313
2021-12-27 15:08:12.982333,-6092
2021-12-27 15:08:12.982340,-4436
2021-12-27 15:08:12.982347,2044
2021-12-27 15:08:12.982354,1320
2021-12-27 15:08:12.982364,-1950
2021-12-27 15:08:12.982371,-2559
2021-12-27 15:08:12.982377,-2284
2021-12-27 15:08:12.982384,-6442
2021-12-27 15:08:12.982395,2986
2021-12-27 15:08:12.982405,-3563
2021-12-27 15:08:12.982412,3860
2021-12-27 15:08:12.982419,-2195
2021-12-27 15:08:12.982425,1792
2021-12-27 15:08:12.982432,4009
2021-12-27 15:08:12.982439,-709
2021-12-27 15:08:12.982446,4630
2021-12-27 15:08:12.982453,-1576
2021-12-27 15:08:12.982460,-158
2021-12-27 15:08:12.982467,3101
2021-12-27 15:08:13.225498,-2159
2021-12-27 15:08:13.225520,527
2021-12-27 15:08:13.225526,-2346
2021-12-27 15:08:13.225530,4191
2021-12-27 15:08:13.225535,-6161
2021-12-27 15:08:13.225540,-364
2021-12-27 15:08:13.225544,4944
2021-12-27 15:08:13.225549,-3626
2021-12-27 15:08:13.225553,-1910
2021-12-27 15:08:13.225558,-4951
2021-12-27 15:08:13.225563,-2820
2021-12-27 15:08:13.225567,-1109
2021-12-27 15:08:13.225572,-2046
2021-12-27 15:08:13.225579,-1126
2021-12-27 15:08:13.225583,-618
2021-12-27 15:08:13.225590,-3671
2021-12-27 15:08:13.225595,2789
2021-12-27 15:08:13.225599,3789
2021-12-27 15:08:13.225604,-2856
2021-12-27 15:08:13.225610,-246
2021-12-27 15:08:13.225615,-891
2021-12-27 15:08:13.225619,3429
2021-12-27 15:08:13.225629,-2080
2021-12-27 15:08:13.225634,3513
2021-12-27 15:08:13.225639,1133
2021-12-27 15:08:13.225643,611
2021-12-27 15:08:13.469298,4007
2021-12-27 15:08:13.469326,-3664
2021-12-27 15:08:13.469335,2641
2021-12-27 15:08:13.469342,1744
2021-12-27 15:08:13.469350,-1600
2021-12-27 15:08:13.469360,-5001
2021-12-27 15:08:13.469367,-6248
2021-12-27 15:08:13.469374,2492
2021-12-27 15:08:13.469381,-524
2021-12-27 15:08:13.469387,3503
2021-12-27 15:08:13.469394,-2643
2021-12-27 15:08:13.469401,-5140
2021-12-27 15:08:13.469407,-726
2021-12-27 15:08:13.469414,-5890
2021-12-27 15:08:13.469421,3446
2021-12-27 15:08:13.469428,3628
2021-12-27 15:08:13.469435,-1380
2021-12-27 15:08:13.469445,-2449
2021-12-27 15:08:13.469451,-1610
2021-12-27 15:08:13.469458,-723
2021-12-27 15:08:13.469465,-9239
2021-12-27 15:08:13.469472,1912
2021-12-27 15:08:13.469479,3012
2021-12-27 15:08:13.469486,-1107
2021-12-27 15:08:13.469493,764
2021-12-27 15:08:13.469499,-2758
2021-12-27 15:08:13.469510,2789
2021-12-27 15:08:13.664280,-1399
2021-12-27 15:08:13.664312,-3837
2021-12-27 15:08:13.664321,-826
2021-12-27 15:08:13.664331,-642
2021-12-27 15:08:13.664338,4915
2021-12-27 15:08:13.664348,-798
2021-12-27 15:08:13.664355,-7412
2021-12-27 15:08:13.664362,-3544
2021-12-27 15:08:13.664369,-601
2021-12-27 15:08:13.664379,-512
2021-12-27 15:08:13.664386,-6540
2021-12-27 15:08:13.664393,-675
2021-12-27 15:08:13.664400,-6164
2021-12-27 15:08:13.664407,2250
2021-12-27 15:08:13.664417,-2183
2021-12-27 15:08:13.664427,-1109
2021-12-27 15:08:13.664434,-3798
2021-12-27 15:08:13.664440,4115
2021-12-27 15:08:13.664447,158
2021-12-27 15:08:13.664454,4603
2021-12-27 15:08:13.664461,1694
2021-12-27 15:08:13.664468,-2446
2021-12-27 15:08:13.664475,2295
2021-12-27 15:08:13.664482,-2861
2021-12-27 15:08:13.664488,3443
2021-12-27 15:08:13.908613,4038
2021-12-27 15:08:13.908642,-2322
2021-12-27 15:08:13.908651,4402
2021-12-27 15:08:13.908658,-5610
2021-12-27 15:08:13.908665,-6911
2021-12-27 15:08:13.908672,4532
2021-12-27 15:08:13.908679,639
2021-12-27 15:08:13.908685,3743
2021-12-27 15:08:13.908692,529
2021-12-27 15:08:13.908699,-3990
2021-12-27 15:08:13.908706,-714
2021-12-27 15:08:13.908713,-4563
2021-12-27 15:08:13.908719,4970
2021-12-27 15:08:13.908726,4481
2021-12-27 15:08:13.908733,-5857
2021-12-27 15:08:13.908740,-922
2021-12-27 15:08:13.908747,-4793
2021-12-27 15:08:13.908754,321
2021-12-27 15:08:13.908764,-2137
2021-12-27 15:08:13.908771,3151
2021-12-27 15:08:13.908783,570
2021-12-27 15:08:13.908791,-2070
2021-12-27 15:08:13.908797,3956
2021-12-27 15:08:13.908804,-1533
2021-12-27 15:08:13.908811,3978
2021-12-27 15:08:13.908818,1639
2021-12-27 15:08:13.908825,-10940
2021-12-27 15:08:13.908832,-4699
2021-12-27 15:08:13.908839,-1078
2021-12-27 15:08:14.152283,3429
2021-12-27 15:08:14.152312,3762
2021-12-27 15:08:14.152320,-3971
2021-12-27 15:08:14.152328,3573
2021-12-27 15:08:14.152335,568
2021-12-27 15:08:14.152342,-6502
2021-12-27 15:08:14.152349,-1454
2021-12-27 15:08:14.152356,-661
2021-12-27 15:08:14.152363,4433
2021-12-27 15:08:14.152370,237
2021-12-27 15:08:14.152377,-1804
2021-12-27 15:08:14.152384,4896
2021-12-27 15:08:14.152391,-5696
2021-12-27 15:08:14.152398,-311
2021-12-27 15:08:14.152409,-3463
2021-12-27 15:08:14.152416,3393
2021-12-27 15:08:14.152423,-1409
2021-12-27 15:08:14.152430,-6339
2021-12-27 15:08:14.152437,4220
2021-12-27 15:08:14.152443,-534
2021-12-27 15:08:14.152451,1337
2021-12-27 15:08:14.152458,2911
2021-12-27 15:08:14.152465,-268
2021-12-27 15:08:14.152471,4115
2021-12-27 15:08:14.152479,-2504
2021-12-27 15:08:14.152485,992
2021-12-27 15:08:14.152492,3928
2021-12-27 15:08:14.152499,-2142
2021-12-27 15:08:14.395615,366
2021-12-27 15:08:14.395635,-2720
2021-12-27 15:08:14.395640,4218
2021-12-27 15:08:14.395644,-2446
2021-12-27 15:08:14.395647,3525
2021-12-27 15:08:14.395651,3983
2021-12-27 15:08:14.395655,-3985
2021-12-27 15:08:14.395658,-1787
2021-12-27 15:08:14.395668,-5986
2021-12-27 15:08:14.395672,2312
2021-12-27 15:08:14.395678,-2557
2021-12-27 15:08:14.395682,4671
2021-12-27 15:08:14.395685,-3070
2021-12-27 15:08:14.395689,-9509
2021-12-27 15:08:14.395693,-139
2021-12-27 15:08:14.395697,-762
2021-12-27 15:08:14.395700,3954
2021-12-27 15:08:14.395704,-26
2021-12-27 15:08:14.395708,-8448
2021-12-27 15:08:14.395711,-2921
2021-12-27 15:08:14.395715,-2434
2021-12-27 15:08:14.395719,4153
2021-12-27 15:08:14.395722,3798
2021-12-27 15:08:14.395726,-2768
2021-12-27 15:08:14.395732,-2041
2021-12-27 15:08:14.395735,-2931
2021-12-27 15:08:14.395741,-3559
2021-12-27 15:08:14.591040,-1277
2021-12-27 15:08:14.591068,-115
2021-12-27 15:08:14.591077,-10140
2021-12-27 15:08:14.591084,-11024
2021-12-27 15:08:14.591091,-6763
2021-12-27 15:08:14.591102,3026
2021-12-27 15:08:14.591109,-5366
2021-12-27 15:08:14.591116,1572
2021-12-27 15:08:14.591123,-6588
2021-12-27 15:08:14.591130,-2463
2021-12-27 15:08:14.591140,-2197
2021-12-27 15:08:14.591147,2641
2021-12-27 15:08:14.591154,-455
2021-12-27 15:08:14.591161,-9716
2021-12-27 15:08:14.591168,623
2021-12-27 15:08:14.591175,1900
2021-12-27 15:08:14.591182,3578
2021-12-27 15:08:14.591189,2509
2021-12-27 15:08:14.591196,-4026
2021-12-27 15:08:14.591203,7
2021-12-27 15:08:14.591210,-3364
2021-12-27 15:08:14.591217,2415
2021-12-27 15:08:14.591227,-2849
2021-12-27 15:08:14.591234,3252
2021-12-27 15:08:14.591241,234
2021-12-27 15:08:14.591248,-3189
2021-12-27 15:08:14.882264,373
2021-12-27 15:08:14.882286,2614
2021-12-27 15:08:14.882292,3300
2021-12-27 15:08:14.882297,-5373
2021-12-27 15:08:14.882302,-1509
2021-12-27 15:08:14.882306,-3364
2021-12-27 15:08:14.882316,3187
2021-12-27 15:08:14.882323,-4381
2021-12-27 15:08:14.882327,1970
2021-12-27 15:08:14.882332,-1140
2021-12-27 15:08:14.882337,-4922
2021-12-27 15:08:14.882343,810
2021-12-27 15:08:14.882348,1013
2021-12-27 15:08:14.882352,2034
2021-12-27 15:08:14.882357,-2446
2021-12-27 15:08:14.882361,3592
2021-12-27 15:08:14.882366,-237
2021-12-27 15:08:14.882371,2585
2021-12-27 15:08:14.882375,4800
2021-12-27 15:08:14.882379,-3326
2021-12-27 15:08:14.882384,4678
2021-12-27 15:08:14.882389,21
2021-12-27 15:08:14.882393,-3944
2021-12-27 15:08:14.882400,-862
2021-12-27 15:08:14.882404,764
2021-12-27 15:08:14.882440,3681
2021-12-27 15:08:14.882444,-2125
2021-12-27 15:08:15.127299,3472
2021-12-27 15:08:15.127328,278
2021-12-27 15:08:15.127337,848
2021-12-27 15:08:15.127344,2813
2021-12-27 15:08:15.127351,-1771
2021-12-27 15:08:15.127358,3050
2021-12-27 15:08:15.127365,-4481
2021-12-27 15:08:15.127372,-3892
2021-12-27 15:08:15.127379,1926
2021-12-27 15:08:15.127386,-8388
2021-12-27 15:08:15.127393,3038
2021-12-27 15:08:15.127399,4476
2021-12-27 15:08:15.127406,-9603
2021-12-27 15:08:15.127413,105
2021-12-27 15:08:15.127420,1876
2021-12-27 15:08:15.127427,1126
2021-12-27 15:08:15.127434,3578
2021-12-27 15:08:15.127441,-824
2021-12-27 15:08:15.127448,3755
2021-12-27 15:08:15.127455,-1109
2021-12-27 15:08:15.127462,-2526
2021-12-27 15:08:15.127468,1648
2021-12-27 15:08:15.127475,-4301
2021-12-27 15:08:15.127482,4412
2021-12-27 15:08:15.127489,2617
2021-12-27 15:08:15.127496,-7458
2021-12-27 15:08:15.127503,-35
2021-12-27 15:08:15.127510,-824
2021-12-27 15:08:15.127517,2734
2021-12-27 15:08:15.127524,4486
2021-12-27 15:08:15.273052,-3213
2021-12-27 15:08:15.273080,2408
2021-12-27 15:08:15.273089,-1538
2021-12-27 15:08:15.273097,-1219
2021-12-27 15:08:15.273108,-2782
2021-12-27 15:08:15.273115,-1301
2021-12-27 15:08:15.273129,-2617
2021-12-27 15:08:15.273136,-8191
2021-12-27 15:08:15.273143,-472
2021-12-27 15:08:15.273150,-1617
2021-12-27 15:08:15.273157,2336
2021-12-27 15:08:15.273164,3098
2021-12-27 15:08:15.273172,-5807
2021-12-27 15:08:15.273179,-927
2021-12-27 15:08:15.273186,-2080
2021-12-27 15:08:15.273193,1001
2021-12-27 15:08:15.273203,-2578
2021-12-27 15:08:15.273210,2257
2021-12-27 15:08:15.273217,-2331
2021-12-27 15:08:15.273224,-6763
2021-12-27 15:08:15.273235,1083
2021-12-27 15:08:15.273241,822
2021-12-27 15:08:15.273248,4460
2021-12-27 15:08:15.273255,-3726
2021-12-27 15:08:15.273262,-1121
2021-12-27 15:08:15.273270,-2866
2021-12-27 15:08:15.273277,2063
2021-12-27 15:08:15.517066,-3036
2021-12-27 15:08:15.517082,-1263
2021-12-27 15:08:15.517089,-5660
2021-12-27 15:08:15.517094,-3261
2021-12-27 15:08:15.517102,-656
2021-12-27 15:08:15.517107,1248
2021-12-27 15:08:15.517111,2875
2021-12-27 15:08:15.517116,-8989
2021-12-27 15:08:15.517121,405
2021-12-27 15:08:15.517126,3633
2021-12-27 15:08:15.517131,1929
2021-12-27 15:08:15.517135,1016
2021-12-27 15:08:15.517140,-9898
2021-12-27 15:08:15.517145,-2113
2021-12-27 15:08:15.517150,2238
2021-12-27 15:08:15.517155,488
2021-12-27 15:08:15.517162,-675
2021-12-27 15:08:15.517167,1598
2021-12-27 15:08:15.517172,1862
2021-12-27 15:08:15.517176,-3420
2021-12-27 15:08:15.517183,1790
2021-12-27 15:08:15.517188,733
2021-12-27 15:08:15.517193,4929
2021-12-27 15:08:15.517197,-4695
2021-12-27 15:08:15.517202,-695
2021-12-27 15:08:15.517207,-1998
2021-12-27 15:08:15.761085,-3511
2021-12-27 15:08:15.761111,-2168
2021-12-27 15:08:15.761116,-702
2021-12-27 15:08:15.761121,603
2021-12-27 15:08:15.761126,-5636
2021-12-27 15:08:15.761130,4747
2021-12-27 15:08:15.761135,1780
2021-12-27 15:08:15.761139,-1174
2021-12-27 15:08:15.761144,2780
2021-12-27 15:08:15.761148,-5167
2021-12-27 15:08:15.761153,-2662
2021-12-27 15:08:15.761157,-2408
2021-12-27 15:08:15.761162,-2226
2021-12-27 15:08:15.761166,2231
2021-12-27 15:08:15.761171,-6293
2021-12-27 15:08:15.761175,-1418
2021-12-27 15:08:15.761180,1339
2021-12-27 15:08:15.761189,-3530
2021-12-27 15:08:15.761193,4366
2021-12-27 15:08:15.761198,-1632
2021-12-27 15:08:15.761203,-1303
2021-12-27 15:08:15.761207,4757
2021-12-27 15:08:15.761211,-3427
2021-12-27 15:08:15.761216,1730
2021-12-27 15:08:15.761221,1821
2021-12-27 15:08:15.761225,-1275
2021-12-27 15:08:15.761229,3525
2021-12-27 15:08:15.761234,-1131
2021-12-27 15:08:15.761238,2964
2021-12-27 15:08:16.004773,266
2021-12-27 15:08:16.004801,-7130
2021-12-27 15:08:16.004810,834
2021-12-27 15:08:16.004817,-1095
2021-12-27 15:08:16.004824,2494
2021-12-27 15:08:16.004831,3736
2021-12-27 15:08:16.004838,-8318
2021-12-27 15:08:16.004845,4
2021-12-27 15:08:16.004852,2794
2021-12-27 15:08:16.004859,-256
2021-12-27 15:08:16.004870,-889
2021-12-27 15:08:16.004877,-1284
2021-12-27 15:08:16.004884,-3424
2021-12-27 15:08:16.004891,-2583
2021-12-27 15:08:16.004902,-505
2021-12-27 15:08:16.004909,2188
2021-12-27 15:08:16.004916,4613
2021-12-27 15:08:16.004923,-9823
2021-12-27 15:08:16.004930,-4064
2021-12-27 15:08:16.004937,2176
2021-12-27 15:08:16.004944,2847
2021-12-27 15:08:16.004955,-2152
2021-12-27 15:08:16.004961,1958
2021-12-27 15:08:16.004968,1076
2021-12-27 15:08:16.004975,-1639
2021-12-27 15:08:16.004986,608
2021-12-27 15:08:16.199325,1792
2021-12-27 15:08:16.199353,4378
2021-12-27 15:08:16.199362,-5840
2021-12-27 15:08:16.199369,-1159
2021-12-27 15:08:16.199376,-1346
2021-12-27 15:08:16.199383,1627
2021-12-27 15:08:16.199393,-6022
2021-12-27 15:08:16.199400,-5644
2021-12-27 15:08:16.199407,-551
2021-12-27 15:08:16.199414,1876
2021-12-27 15:08:16.199424,-1085
2021-12-27 15:08:16.199431,1334
2021-12-27 15:08:16.199437,306
2021-12-27 15:08:16.199444,-6974
2021-12-27 15:08:16.199454,3839
2021-12-27 15:08:16.199461,-644
2021-12-27 15:08:16.199471,-3671
2021-12-27 15:08:16.199478,-500
2021-12-27 15:08:16.199485,3686
2021-12-27 15:08:16.199492,1203
2021-12-27 15:08:16.199502,-584
2021-12-27 15:08:16.199509,-91
2021-12-27 15:08:16.199516,455
2021-12-27 15:08:16.199522,-2085
2021-12-27 15:08:16.443099,1270
2021-12-27 15:08:16.443128,-95
2021-12-27 15:08:16.443137,3822
2021-12-27 15:08:16.443145,-9047
2021-12-27 15:08:16.443152,-2183
2021-12-27 15:08:16.443159,2164
2021-12-27 15:08:16.443165,-2967
2021-12-27 15:08:16.443172,4656
2021-12-27 15:08:16.443179,-1150
2021-12-27 15:08:16.443186,-4647
2021-12-27 15:08:16.443199,-2825
2021-12-27 15:08:16.443206,-635
2021-12-27 15:08:16.443217,-337
2021-12-27 15:08:16.443223,-1289
2021-12-27 15:08:16.443230,3959
2021-12-27 15:08:16.443237,-3566
2021-12-27 15:08:16.443244,4165
2021-12-27 15:08:16.443251,3925
2021-12-27 15:08:16.443258,-953
2021-12-27 15:08:16.443265,4992
2021-12-27 15:08:16.443272,-2497
2021-12-27 15:08:16.443278,239
2021-12-27 15:08:16.443285,1694
2021-12-27 15:08:16.443292,-9255
2021-12-27 15:08:16.443299,-2842
2021-12-27 15:08:16.443306,520
2021-12-27 15:08:16.443313,1821
2021-12-27 15:08:16.443319,2777
2021-12-27 15:08:16.443326,-3036
2021-12-27 15:08:16.687387,2916
2021-12-27 15:08:16.687408,-2933
2021-12-27 15:08:16.687416,4141
2021-12-27 15:08:16.687424,-3961
2021-12-27 15:08:16.687431,-4551
2021-12-27 15:08:16.687438,47
2021-12-27 15:08:16.687445,-3515
2021-12-27 15:08:16.687452,52
2021-12-27 15:08:16.687459,-1787
2021-12-27 15:08:16.687466,1720
2021-12-27 15:08:16.687473,668
2021-12-27 15:08:16.687480,-6880
2021-12-27 15:08:16.687490,3240
2021-12-27 15:08:16.687497,-3467
2021-12-27 15:08:16.687508,-1100
2021-12-27 15:08:16.687515,-45
2021-12-27 15:08:16.687522,3968
2021-12-27 15:08:16.687529,-1500
2021-12-27 15:08:16.687536,3635
2021-12-27 15:08:16.687543,591
2021-12-27 15:08:16.687550,1315
2021-12-27 15:08:16.687556,3067
2021-12-27 15:08:16.687563,-2660
2021-12-27 15:08:16.687571,4822
2021-12-27 15:08:16.687578,819
2021-12-27 15:08:16.687585,-850
2021-12-27 15:08:16.978816,-3264
2021-12-27 15:08:16.978845,1284
2021-12-27 15:08:16.978853,3796
2021-12-27 15:08:16.978860,-2756
2021-12-27 15:08:16.978871,654
2021-12-27 15:08:16.978878,-4174
2021-12-27 15:08:16.978885,-2758
2021-12-27 15:08:16.978892,-4412
2021-12-27 15:08:16.978898,1404
2021-12-27 15:08:16.978905,-3465
2021-12-27 15:08:16.978912,103
2021-12-27 15:08:16.978922,-7635
2021-12-27 15:08:16.978929,-1073
2021-12-27 15:08:16.978935,4342
2021-12-27 15:08:16.978942,-3197
2021-12-27 15:08:16.978949,1049
2021-12-27 15:08:16.978956,-2813
2021-12-27 15:08:16.978963,-1008
2021-12-27 15:08:16.978969,1080
2021-12-27 15:08:16.978976,-3810
2021-12-27 15:08:16.978986,1744
2021-12-27 15:08:16.978993,-1100
2021-12-27 15:08:16.979000,4469
2021-12-27 15:08:16.979007,-4503
2021-12-27 15:08:16.979014,1205
2021-12-27 15:08:16.979020,2919
2021-12-27 15:08:16.979027,-9020
2021-12-27 15:08:17.126069,-4927
2021-12-27 15:08:17.126092,-3364
2021-12-27 15:08:17.126099,-3530
2021-12-27 15:08:17.126104,-3242
2021-12-27 15:08:17.126110,-4503
2021-12-27 15:08:17.126115,2617
2021-12-27 15:08:17.126120,-1239
2021-12-27 15:08:17.126125,-1831
2021-12-27 15:08:17.126130,-1092
2021-12-27 15:08:17.126140,-8980
2021-12-27 15:08:17.126145,3379
2021-12-27 15:08:17.126150,1761
2021-12-27 15:08:17.126154,-7096
2021-12-27 15:08:17.126159,4661
2021-12-27 15:08:17.126164,-4956
2021-12-27 15:08:17.126169,-8944
2021-12-27 15:08:17.126174,3511
2021-12-27 15:08:17.126179,2279
2021-12-27 15:08:17.126183,3959
2021-12-27 15:08:17.126188,40
2021-12-27 15:08:17.126192,-1562
2021-12-27 15:08:17.126197,1176
2021-12-27 15:08:17.126202,-2571
2021-12-27 15:08:17.126209,3434
2021-12-27 15:08:17.126214,-1737
2021-12-27 15:08:17.126221,-3261
2021-12-27 15:08:17.126226,440
2021-12-27 15:08:17.418656,-937
2021-12-27 15:08:17.418688,-91
2021-12-27 15:08:17.418697,-6502
2021-12-27 15:08:17.418704,-2003
2021-12-27 15:08:17.418711,-1028
2021-12-27 15:08:17.418722,2032
2021-12-27 15:08:17.418729,-3252
2021-12-27 15:08:17.418736,3103
2021-12-27 15:08:17.418743,-4738
2021-12-27 15:08:17.418750,709
2021-12-27 15:08:17.418761,-5603
2021-12-27 15:08:17.418768,-1078
2021-12-27 15:08:17.418775,-476
2021-12-27 15:08:17.418782,-9
2021-12-27 15:08:17.418789,3508
2021-12-27 15:08:17.418796,-869
2021-12-27 15:08:17.418807,1553
2021-12-27 15:08:17.418814,-2713
2021-12-27 15:08:17.418824,-1397
2021-12-27 15:08:17.418831,2442
2021-12-27 15:08:17.418841,-2753
2021-12-27 15:08:17.418848,3880
2021-12-27 15:08:17.418855,474
2021-12-27 15:08:17.418861,-819
2021-12-27 15:08:17.613920,4695
2021-12-27 15:08:17.613949,-678
2021-12-27 15:08:17.613958,3379
2021-12-27 15:08:17.613966,524
2021-12-27 15:08:17.613973,-2214
2021-12-27 15:08:17.613980,4
2021-12-27 15:08:17.613987,-7700
2021-12-27 15:08:17.613994,4038
2021-12-27 15:08:17.614004,-4673
2021-12-27 15:08:17.614015,-1809
2021-12-27 15:08:17.614022,-6550
2021-12-27 15:08:17.614028,4182
2021-12-27 15:08:17.614035,-762
2021-12-27 15:08:17.614042,-1965
2021-12-27 15:08:17.614049,-2746
2021-12-27 15:08:17.614056,-1680
2021-12-27 15:08:17.614063,306
2021-12-27 15:08:17.614069,-5608
2021-12-27 15:08:17.614076,4141
2021-12-27 15:08:17.614083,3678
2021-12-27 15:08:17.614090,-2794
2021-12-27 15:08:17.614100,-565
2021-12-27 15:08:17.614107,-1121
2021-12-27 15:08:17.614118,-1878
2021-12-27 15:08:17.614125,4469
2021-12-27 15:08:17.614132,2943
2021-12-27 15:08:17.857318,-1979
2021-12-27 15:08:17.857346,3321
2021-12-27 15:08:17.857355,-2317
2021-12-27 15:08:17.857362,2219
2021-12-27 15:08:17.857369,3966
2021-12-27 15:08:17.857376,-663
2021-12-27 15:08:17.857383,4323
2021-12-27 15:08:17.857390,-4618
2021-12-27 15:08:17.857397,-2995
2021-12-27 15:08:17.857404,4467
2021-12-27 15:08:17.857411,-1466
2021-12-27 15:08:17.857418,4982
2021-12-27 15:08:17.857425,781
2021-12-27 15:08:17.857432,-6796
2021-12-27 15:08:17.857439,-1183
2021-12-27 15:08:17.857446,-1294
2021-12-27 15:08:17.857452,4810
2021-12-27 15:08:17.857460,59
2021-12-27 15:08:17.857466,-5584
2021-12-27 15:08:17.857473,4973
2021-12-27 15:08:17.857480,-2303
2021-12-27 15:08:17.857487,-1306
2021-12-27 15:08:17.857497,-707
2021-12-27 15:08:17.857504,4536
2021-12-27 15:08:17.857520,824
2021-12-27 15:08:17.857527,-3844
2021-12-27 15:08:17.857534,2916
2021-12-27 15:08:17.857541,-153
2021-12-27 15:08:17.857548,4608
2021-12-27 15:08:18.052323,3103
2021-12-27 15:08:18.052346,-2056
2021-12-27 15:08:18.052352,2897
2021-12-27 15:08:18.052357,-3741
2021-12-27 15:08:18.052362,2190
2021-12-27 15:08:18.052369,-2389
2021-12-27 15:08:18.052373,4503
2021-12-27 15:08:18.052378,-3165
2021-12-27 15:08:18.052383,-8893
2021-12-27 15:08:18.052387,2204
2021-12-27 15:08:18.052392,-5922
2021-12-27 15:08:18.052397,-3839
2021-12-27 15:08:18.052401,3599
2021-12-27 15:08:18.052406,-3410
2021-12-27 15:08:18.052410,-5126
2021-12-27 15:08:18.052415,-3995
2021-12-27 15:08:18.052422,4112
2021-12-27 15:08:18.052426,-7961
2021-12-27 15:08:18.052431,-464
2021-12-27 15:08:18.052436,-1490
2021-12-27 15:08:18.052440,-608
2021-12-27 15:08:18.052447,-944
2021-12-27 15:08:18.052451,3868
2021-12-27 15:08:18.052456,2367
2021-12-27 15:08:18.052461,-4172
2021-12-27 15:08:18.052466,3527
2021-12-27 15:08:18.052470,275
2021-12-27 15:08:18.295828,3031
2021-12-27 15:08:18.295848,4306
2021-12-27 15:08:18.295854,-3618
2021-12-27 15:08:18.295859,1548
2021-12-27 15:08:18.295863,-3233
2021-12-27 15:08:18.295868,-1624
2021-12-27 15:08:18.295875,-1227
2021-12-27 15:08:18.295879,1994
2021-12-27 15:08:18.295884,-28
2021-12-27 15:08:18.295888,-7115
2021-12-27 15:08:18.295892,194
2021-12-27 15:08:18.295897,373
2021-12-27 15:08:18.295901,4278
2021-12-27 15:08:18.295906,2506
2021-12-27 15:08:18.295910,-3470
2021-12-27 15:08:18.295914,4934
2021-12-27 15:08:18.295919,-730
2021-12-27 15:08:18.295923,-129
2021-12-27 15:08:18.295930,-3918
2021-12-27 15:08:18.295934,-2250
2021-12-27 15:08:18.295939,-2351
2021-12-27 15:08:18.295943,-2226
2021-12-27 15:08:18.295949,-958
2021-12-27 15:08:18.295954,1116
2021-12-27 15:08:18.295958,2772
2021-12-27 15:08:18.295963,-2109
2021-12-27 15:08:18.295967,4337
2021-12-27 15:08:18.539808,-1150
2021-12-27 15:08:18.539837,829
2021-12-27 15:08:18.539850,-3767
2021-12-27 15:08:18.539857,4026
2021-12-27 15:08:18.539865,-186
2021-12-27 15:08:18.539872,-7964
2021-12-27 15:08:18.539879,4172
2021-12-27 15:08:18.539886,428
2021-12-27 15:08:18.539893,177
2021-12-27 15:08:18.539900,3381
2021-12-27 15:08:18.539907,-3235
2021-12-27 15:08:18.539914,-1996
2021-12-27 15:08:18.539921,-3978
2021-12-27 15:08:18.539928,1799
2021-12-27 15:08:18.539935,1828
2021-12-27 15:08:18.539942,-11288
2021-12-27 15:08:18.539949,-1644
2021-12-27 15:08:18.539957,2518
2021-12-27 15:08:18.539964,-1385
2021-12-27 15:08:18.539971,3686
2021-12-27 15:08:18.539978,-1495
2021-12-27 15:08:18.539985,2768
2021-12-27 15:08:18.539992,1210
2021-12-27 15:08:18.539999,-7194
2021-12-27 15:08:18.540006,2852
2021-12-27 15:08:18.540013,86
2021-12-27 15:08:18.540021,-563
2021-12-27 15:08:18.540028,4989
2021-12-27 15:08:18.540035,-661
2021-12-27 15:08:18.735227,3976
2021-12-27 15:08:18.735255,-86
2021-12-27 15:08:18.735264,-3082
2021-12-27 15:08:18.735271,4472
2021-12-27 15:08:18.735279,-678
2021-12-27 15:08:18.735286,3817
2021-12-27 15:08:18.735293,2540
2021-12-27 15:08:18.735300,-8333
2021-12-27 15:08:18.735307,-2257
2021-12-27 15:08:18.735314,-385
2021-12-27 15:08:18.735321,3599
2021-12-27 15:08:18.735328,4651
2021-12-27 15:08:18.735336,-2466
2021-12-27 15:08:18.735343,1761
2021-12-27 15:08:18.735350,-5452
2021-12-27 15:08:18.735362,-3530
2021-12-27 15:08:18.735373,-925
2021-12-27 15:08:18.735380,2097
2021-12-27 15:08:18.735387,2813
2021-12-27 15:08:18.735394,-6034
2021-12-27 15:08:18.735401,1831
2021-12-27 15:08:18.735408,1437
2021-12-27 15:08:18.735415,2727
2021-12-27 15:08:18.735422,3645
2021-12-27 15:08:18.735429,-6566
2021-12-27 15:08:18.735436,-3283
2021-12-27 15:08:18.735443,-2204
2021-12-27 15:08:18.735451,1878
2021-12-27 15:08:19.025972,-2298
2021-12-27 15:08:19.026001,3590
2021-12-27 15:08:19.026010,-486
2021-12-27 15:08:19.026017,-9680
2021-12-27 15:08:19.026024,4352
2021-12-27 15:08:19.026031,2979
2021-12-27 15:08:19.026038,985
2021-12-27 15:08:19.026045,3923
2021-12-27 15:08:19.026052,-5416
2021-12-27 15:08:19.026059,-4417
2021-12-27 15:08:19.026066,-2818
2021-12-27 15:08:19.026073,3257
2021-12-27 15:08:19.026084,-3182
2021-12-27 15:08:19.026091,2432
2021-12-27 15:08:19.026098,397
2021-12-27 15:08:19.026105,-3611
2021-12-27 15:08:19.026116,572
2021-12-27 15:08:19.026123,1133
2021-12-27 15:08:19.026130,4107
2021-12-27 15:08:19.026137,-6792
2021-12-27 15:08:19.026144,-5076
2021-12-27 15:08:19.026151,-3774
2021-12-27 15:08:19.026158,3002
2021-12-27 15:08:19.026168,-5545
2021-12-27 15:08:19.026175,-2485
2021-12-27 15:08:19.026182,-2698
2021-12-27 15:08:19.026189,-1898
2021-12-27 15:08:19.222982,-1035
2021-12-27 15:08:19.222996,-412
2021-12-27 15:08:19.223002,1687
2021-12-27 15:08:19.223006,-10068
2021-12-27 15:08:19.223011,-5569
2021-12-27 15:08:19.223016,-385
2021-12-27 15:08:19.223020,2921
2021-12-27 15:08:19.223025,2772
2021-12-27 15:08:19.223029,-4798
2021-12-27 15:08:19.223034,627
2021-12-27 15:08:19.223039,-3923
2021-12-27 15:08:19.223043,-3652
2021-12-27 15:08:19.223050,-2279
2021-12-27 15:08:19.223055,-867
2021-12-27 15:08:19.223059,4438
2021-12-27 15:08:19.223064,-3233
2021-12-27 15:08:19.223068,3276
2021-12-27 15:08:19.223073,-584
2021-12-27 15:08:19.223078,-4982
2021-12-27 15:08:19.223082,170
2021-12-27 15:08:19.223087,-4860
2021-12-27 15:08:19.223091,-2017
2021-12-27 15:08:19.223096,-1960
2021-12-27 15:08:19.223100,-757
2021-12-27 15:08:19.223105,4402
2021-12-27 15:08:19.223110,-4258
2021-12-27 15:08:19.223114,1452
2021-12-27 15:08:19.223119,1970
2021-12-27 15:08:19.465773,-6662
2021-12-27 15:08:19.465801,4472
2021-12-27 15:08:19.465810,548
2021-12-27 15:08:19.465817,-2497
2021-12-27 15:08:19.465824,4841
2021-12-27 15:08:19.465831,-3503
2021-12-27 15:08:19.465838,-4162
2021-12-27 15:08:19.465846,-2986
2021-12-27 15:08:19.465852,57
2021-12-27 15:08:19.465859,4956
2021-12-27 15:08:19.465866,-2351
2021-12-27 15:08:19.465874,3350
2021-12-27 15:08:19.465881,1363
2021-12-27 15:08:19.465888,-6720
2021-12-27 15:08:19.465895,4673
2021-12-27 15:08:19.465902,857
2021-12-27 15:08:19.465909,158
2021-12-27 15:08:19.465920,-2947
2021-12-27 15:08:19.465927,1272
2021-12-27 15:08:19.465934,1205
2021-12-27 15:08:19.465941,-589
2021-12-27 15:08:19.465952,-393
2021-12-27 15:08:19.465959,2535
2021-12-27 15:08:19.465965,2123
2021-12-27 15:08:19.465972,-4421
2021-12-27 15:08:19.465979,862
2021-12-27 15:08:19.465986,-5529
2021-12-27 15:08:19.465994,-71
2021-12-27 15:08:19.710517,-6056
2021-12-27 15:08:19.710538,-2566
2021-12-27 15:08:19.710546,982
2021-12-27 15:08:19.710554,1651
2021-12-27 15:08:19.710564,-1509
2021-12-27 15:08:19.710571,-112
2021-12-27 15:08:19.710578,-3628
2021-12-27 15:08:19.710585,-4551
2021-12-27 15:08:19.710596,910
2021-12-27 15:08:19.710603,397
2021-12-27 15:08:19.710610,4052
2021-12-27 15:08:19.710616,-8932
2021-12-27 15:08:19.710623,-1742
2021-12-27 15:08:19.710630,4208
2021-12-27 15:08:19.710637,1982
2021-12-27 15:08:19.710644,4774
2021-12-27 15:08:19.710651,-1457
2021-12-27 15:08:19.710658,493
2021-12-27 15:08:19.710664,-742
2021-12-27 15:08:19.710671,-819
2021-12-27 15:08:19.710687,-345
2021-12-27 15:08:19.710694,1239
2021-12-27 15:08:19.710701,4227
2021-12-27 15:08:19.710708,-4872
2021-12-27 15:08:19.710715,4520
2021-12-27 15:08:19.710722,3237
2021-12-27 15:08:19.953827,-603
2021-12-27 15:08:19.953860,-2763
2021-12-27 15:08:19.953868,-2470
2021-12-27 15:08:19.953875,-1145
2021-12-27 15:08:19.953883,-215
2021-12-27 15:08:19.953893,-1032
2021-12-27 15:08:19.953900,-553
2021-12-27 15:08:19.953907,268
2021-12-27 15:08:19.953914,-6192
2021-12-27 15:08:19.953924,3106
2021-12-27 15:08:19.953931,-956
2021-12-27 15:08:19.953938,4532
2021-12-27 15:08:19.953944,-6514
2021-12-27 15:08:19.953951,-4282
2021-12-27 15:08:19.953958,1989
2021-12-27 15:08:19.953965,1526
2021-12-27 15:08:19.953976,-2322
2021-12-27 15:08:19.953982,79
2021-12-27 15:08:19.953989,2890
2021-12-27 15:08:19.953996,-2772
2021-12-27 15:08:19.954006,1725
2021-12-27 15:08:19.954013,-1756
2021-12-27 15:08:19.954020,3803
2021-12-27 15:08:19.954027,-2880
2021-12-27 15:08:19.954034,2334
2021-12-27 15:08:20.197566,3189
2021-12-27 15:08:20.197594,-644
2021-12-27 15:08:20.197603,2931
2021-12-27 15:08:20.197610,-9052
2021-12-27 15:08:20.197617,-5272
2021-12-27 15:08:20.197625,3388
2021-12-27 15:08:20.197631,-3784
2021-12-27 15:08:20.197638,3249
2021-12-27 15:08:20.197645,1272
2021-12-27 15:08:20.197652,-944
2021-12-27 15:08:20.197659,3149
2021-12-27 15:08:20.197666,-6789
2021-12-27 15:08:20.197673,-510
2021-12-27 15:08:20.197680,3954
2021-12-27 15:08:20.197687,-1428
2021-12-27 15:08:20.197694,2801
2021-12-27 15:08:20.197701,-1327
2021-12-27 15:08:20.197708,-2101
2021-12-27 15:08:20.197714,-2878
2021-12-27 15:08:20.197721,-3309
2021-12-27 15:08:20.197728,2811
2021-12-27 15:08:20.197735,-5169
2021-12-27 15:08:20.197742,64
2021-12-27 15:08:20.197753,-5366
2021-12-27 15:08:20.197760,2602
2021-12-27 15:08:20.197767,2983
2021-12-27 15:08:20.197774,-3026
2021-12-27 15:08:20.197784,-929
2021-12-27 15:08:20.441334,-738
2021-12-27 15:08:20.441362,1972
2021-12-27 15:08:20.441371,-2638
2021-12-27 15:08:20.441378,3436
2021-12-27 15:08:20.441385,-1291
2021-12-27 15:08:20.441392,-2679
2021-12-27 15:08:20.441399,1234
2021-12-27 15:08:20.441406,-8472
2021-12-27 15:08:20.441412,-6609
2021-12-27 15:08:20.441419,-2499
2021-12-27 15:08:20.441426,893
2021-12-27 15:08:20.441433,4723
2021-12-27 15:08:20.441440,-7559
2021-12-27 15:08:20.441447,-5977
2021-12-27 15:08:20.441453,349
2021-12-27 15:08:20.441460,-1375
2021-12-27 15:08:20.441467,4968
2021-12-27 15:08:20.441474,-254
2021-12-27 15:08:20.441481,-1102
2021-12-27 15:08:20.441487,-838
2021-12-27 15:08:20.441494,-8165
2021-12-27 15:08:20.441501,3530
2021-12-27 15:08:20.441508,3470
2021-12-27 15:08:20.441514,-1167
2021-12-27 15:08:20.441525,-2624
2021-12-27 15:08:20.441532,-1044
2021-12-27 15:08:20.441538,2336
2021-12-27 15:08:20.441545,-409
2021-12-27 15:08:20.587217,64
2021-12-27 15:08:20.587239,-273
2021-12-27 15:08:20.587245,1962
2021-12-27 15:08:20.587250,-3882
2021-12-27 15:08:20.587257,3103
2021-12-27 15:08:20.587262,-862
2021-12-27 15:08:20.587269,-5083
2021-12-27 15:08:20.587273,-10621
2021-12-27 15:08:20.587278,-6708
2021-12-27 15:08:20.587282,1382
2021-12-27 15:08:20.587289,-3384
2021-12-27 15:08:20.587294,-6137
2021-12-27 15:08:20.587298,-2430
2021-12-27 15:08:20.587303,-1689
2021-12-27 15:08:20.587310,1291
2021-12-27 15:08:20.587314,-927
2021-12-27 15:08:20.587318,4162
2021-12-27 15:08:20.587323,-6986
2021-12-27 15:08:20.587328,1416
2021-12-27 15:08:20.587335,-1047
2021-12-27 15:08:20.587342,-1140
2021-12-27 15:08:20.587346,-2605
2021-12-27 15:08:20.587351,3410
2021-12-27 15:08:20.587355,268
2021-12-27 15:08:20.831384,1234
2021-12-27 15:08:20.831405,-2034
2021-12-27 15:08:20.831413,309
2021-12-27 15:08:20.831420,-6262
2021-12-27 15:08:20.831427,4503
2021-12-27 15:08:20.831437,-2274
2021-12-27 15:08:20.831445,4608
2021-12-27 15:08:20.831451,-5035
2021-12-27 15:08:20.831458,-6753
2021-12-27 15:08:20.831465,577
2021-12-27 15:08:20.831472,-2667
2021-12-27 15:08:20.831479,4529
2021-12-27 15:08:20.831485,939
2021-12-27 15:08:20.831492,-1919
2021-12-27 15:08:20.831499,3635
2021-12-27 15:08:20.831506,-2025
2021-12-27 15:08:20.831512,4644
2021-12-27 15:08:20.831519,3784
2021-12-27 15:08:20.831526,-2926
2021-12-27 15:08:20.831543,4150
2021-12-27 15:08:20.831551,-1167
2021-12-27 15:08:20.831558,881
2021-12-27 15:08:20.831568,-1008
2021-12-27 15:08:20.831575,4081
2021-12-27 15:08:20.831582,-306
2021-12-27 15:08:20.831589,-793
2021-12-27 15:08:20.831596,4246
2021-12-27 15:08:21.122237,-2111
2021-12-27 15:08:21.122264,4853
2021-12-27 15:08:21.122274,2384
2021-12-27 15:08:21.122281,-3038
2021-12-27 15:08:21.122288,4858
2021-12-27 15:08:21.122295,-4910
2021-12-27 15:08:21.122301,-2866
2021-12-27 15:08:21.122312,-1754
2021-12-27 15:08:21.122319,2171
2021-12-27 15:08:21.122326,498
2021-12-27 15:08:21.122332,-3872
2021-12-27 15:08:21.122339,-2689
2021-12-27 15:08:21.122346,-5708
2021-12-27 15:08:21.122353,-1651
2021-12-27 15:08:21.122360,-6298
2021-12-27 15:08:21.122367,-3825
2021-12-27 15:08:21.122377,-2770
2021-12-27 15:08:21.122384,632
2021-12-27 15:08:21.122394,-2619
2021-12-27 15:08:21.122404,1325
2021-12-27 15:08:21.122411,-1737
2021-12-27 15:08:21.122418,3721
2021-12-27 15:08:21.122425,-2329
2021-12-27 15:08:21.122432,337
2021-12-27 15:08:21.122438,-1469
2021-12-27 15:08:21.122445,-1200
2021-12-27 15:08:21.318788,-4014
2021-12-27 15:08:21.318810,237
2021-12-27 15:08:21.318818,2962
2021-12-27 15:08:21.318825,-2300
2021-12-27 15:08:21.318836,-3182
2021-12-27 15:08:21.318843,-7801
2021-12-27 15:08:21.318849,1526
2021-12-27 15:08:21.318856,-527
2021-12-27 15:08:21.318863,4323
2021-12-27 15:08:21.318870,1373
2021-12-27 15:08:21.318877,-5591
2021-12-27 15:08:21.318884,-5253
2021-12-27 15:08:21.318891,-11098
2021-12-27 15:08:21.318898,-5195
2021-12-27 15:08:21.318905,-3590
2021-12-27 15:08:21.318912,-3386
2021-12-27 15:08:21.318922,-3156
2021-12-27 15:08:21.318929,-4354
2021-12-27 15:08:21.318936,3676
2021-12-27 15:08:21.318942,-1313
2021-12-27 15:08:21.318949,4263
2021-12-27 15:08:21.318956,1751
2021-12-27 15:08:21.318963,-2485
2021-12-27 15:08:21.318970,1718
2021-12-27 15:08:21.318977,-3455
2021-12-27 15:08:21.318983,4064
2021-12-27 15:08:21.318990,4647
2021-12-27 15:08:21.513974,-2140
2021-12-27 15:08:21.514008,-2295
2021-12-27 15:08:21.514016,-2310
2021-12-27 15:08:21.514027,-299
2021-12-27 15:08:21.514034,4292
2021-12-27 15:08:21.514041,1210
2021-12-27 15:08:21.514048,-7499
2021-12-27 15:08:21.514055,-3988
2021-12-27 15:08:21.514062,-939
2021-12-27 15:08:21.514072,2693
2021-12-27 15:08:21.514079,-2279
2021-12-27 15:08:21.514086,4220
2021-12-27 15:08:21.514093,-5720
2021-12-27 15:08:21.514100,-1260
2021-12-27 15:08:21.514111,-5279
2021-12-27 15:08:21.514118,2228
2021-12-27 15:08:21.514125,-2760
2021-12-27 15:08:21.514131,-9332
2021-12-27 15:08:21.514138,3995
2021-12-27 15:08:21.514145,2401
2021-12-27 15:08:21.514152,3302
2021-12-27 15:08:21.514159,2765
2021-12-27 15:08:21.514166,-2010
2021-12-27 15:08:21.514173,2926
2021-12-27 15:08:21.514180,-1763
2021-12-27 15:08:21.514187,3074
2021-12-27 15:08:21.757672,-2272
2021-12-27 15:08:21.757694,2279
2021-12-27 15:08:21.757703,-6068
2021-12-27 15:08:21.757710,-8867
2021-12-27 15:08:21.757717,4004
2021-12-27 15:08:21.757723,596
2021-12-27 15:08:21.757730,2940
2021-12-27 15:08:21.757737,1629
2021-12-27 15:08:21.757744,-3971
2021-12-27 15:08:21.757750,-16
2021-12-27 15:08:21.757757,-4872
2021-12-27 15:08:21.757764,3187
2021-12-27 15:08:21.757774,-4817
2021-12-27 15:08:21.757813,2732
2021-12-27 15:08:21.757820,587
2021-12-27 15:08:21.757827,-4278
2021-12-27 15:08:21.757834,373
2021-12-27 15:08:21.757840,-7412
2021-12-27 15:08:21.757847,-6861
2021-12-27 15:08:21.757854,-3367
2021-12-27 15:08:21.757860,-951
2021-12-27 15:08:21.757867,3343
2021-12-27 15:08:21.757874,-3460
2021-12-27 15:08:21.757881,2744
2021-12-27 15:08:21.757888,3954
2021-12-27 15:08:21.757894,-4479
2021-12-27 15:08:21.757901,4855
2021-12-27 15:08:21.757908,529
2021-12-27 15:08:22.001624,-1684
2021-12-27 15:08:22.001656,-2363
2021-12-27 15:08:22.001664,1382
2021-12-27 15:08:22.001672,2538
2021-12-27 15:08:22.001679,-5576
2021-12-27 15:08:22.001686,-2240
2021-12-27 15:08:22.001693,-1155
2021-12-27 15:08:22.001699,3947
2021-12-27 15:08:22.001706,1823
2021-12-27 15:08:22.001713,-2130
2021-12-27 15:08:22.001724,-3738
2021-12-27 15:08:22.001731,-2185
2021-12-27 15:08:22.001741,-2310
2021-12-27 15:08:22.001748,3578
2021-12-27 15:08:22.001754,3698
2021-12-27 15:08:22.001761,-3163
2021-12-27 15:08:22.001768,3810
2021-12-27 15:08:22.001775,-860
2021-12-27 15:08:22.001781,-1629
2021-12-27 15:08:22.001788,-671
2021-12-27 15:08:22.001795,-855
2021-12-27 15:08:22.001805,-5754
2021-12-27 15:08:22.001812,-8273
2021-12-27 15:08:22.001822,1330
2021-12-27 15:08:22.001828,4095
2021-12-27 15:08:22.195516,1682
2021-12-27 15:08:22.195530,-1922
2021-12-27 15:08:22.195534,4486
2021-12-27 15:08:22.195537,-1399
2021-12-27 15:08:22.195541,3559
2021-12-27 15:08:22.195546,-3182
2021-12-27 15:08:22.195549,-1950
2021-12-27 15:08:22.195639,-8951
2021-12-27 15:08:22.195648,-1291
2021-12-27 15:08:22.195678,-2394
2021-12-27 15:08:22.195685,3259
2021-12-27 15:08:22.195688,-841
2021-12-27 15:08:22.195692,-8316
2021-12-27 15:08:22.195716,2957
2021-12-27 15:08:22.195737,1603
2021-12-27 15:08:22.195742,3139
2021-12-27 15:08:22.195745,3302
2021-12-27 15:08:22.195748,-2530
2021-12-27 15:08:22.195751,1953
2021-12-27 15:08:22.195754,-2274
2021-12-27 15:08:22.195758,254
2021-12-27 15:08:22.195763,-110
2021-12-27 15:08:22.195768,-9071
2021-12-27 15:08:22.195773,798
2021-12-27 15:08:22.195786,-3194
2021-12-27 15:08:22.195797,-5756
2021-12-27 15:08:22.195803,-584
2021-12-27 15:08:22.439338,1447
2021-12-27 15:08:22.439361,2624
2021-12-27 15:08:22.439368,-9279
2021-12-27 15:08:22.439373,-5840
2021-12-27 15:08:22.439379,-493
2021-12-27 15:08:22.439387,3757
2021-12-27 15:08:22.439392,-3029
2021-12-27 15:08:22.439397,2667
2021-12-27 15:08:22.439402,-4783
2021-12-27 15:08:22.439407,-3281
2021-12-27 15:08:22.439414,-4158
2021-12-27 15:08:22.439419,306
2021-12-27 15:08:22.439424,3149
2021-12-27 15:08:22.439429,-5483
2021-12-27 15:08:22.439434,2597
2021-12-27 15:08:22.439439,1560
2021-12-27 15:08:22.439443,2207
2021-12-27 15:08:22.439448,4112
2021-12-27 15:08:22.439452,-3326
2021-12-27 15:08:22.439457,1917
2021-12-27 15:08:22.439462,-174
2021-12-27 15:08:22.439467,738
2021-12-27 15:08:22.439474,-5303
2021-12-27 15:08:22.439479,-5008
2021-12-27 15:08:22.439484,-3074
2021-12-27 15:08:22.439489,-4220
2021-12-27 15:08:22.439494,2269
2021-12-27 15:08:22.683854,-7530
2021-12-27 15:08:22.683876,-9279
2021-12-27 15:08:22.683882,-2669
2021-12-27 15:08:22.683887,-3556
2021-12-27 15:08:22.683892,-695
2021-12-27 15:08:22.683896,-5919
2021-12-27 15:08:22.683901,1203
2021-12-27 15:08:22.683908,-4798
2021-12-27 15:08:22.683912,1025
2021-12-27 15:08:22.683917,1334
2021-12-27 15:08:22.683921,-6137
2021-12-27 15:08:22.683926,4958
2021-12-27 15:08:22.683930,2269
2021-12-27 15:08:22.683934,534
2021-12-27 15:08:22.683939,2751
2021-12-27 15:08:22.683943,-1838
2021-12-27 15:08:22.683948,3777
2021-12-27 15:08:22.683952,407
2021-12-27 15:08:22.683957,1828
2021-12-27 15:08:22.683964,-2619
2021-12-27 15:08:22.683968,4551
2021-12-27 15:08:22.683973,3455
2021-12-27 15:08:22.683978,-2082
2021-12-27 15:08:22.683984,-436
2021-12-27 15:08:22.683989,-2701
2021-12-27 15:08:22.683994,45
2021-12-27 15:08:22.683998,-3065
2021-12-27 15:08:22.927597,4572
2021-12-27 15:08:22.927627,989
2021-12-27 15:08:22.927636,93
2021-12-27 15:08:22.927643,4524
2021-12-27 15:08:22.927650,-829
2021-12-27 15:08:22.927657,3611
2021-12-27 15:08:22.927664,-2080
2021-12-27 15:08:22.927671,-3597
2021-12-27 15:08:22.927681,-759
2021-12-27 15:08:22.927688,2061
2021-12-27 15:08:22.927698,-6840
2021-12-27 15:08:22.927705,-249
2021-12-27 15:08:22.927712,2008
2021-12-27 15:08:22.927718,1823
2021-12-27 15:08:22.927729,-563
2021-12-27 15:08:22.927735,3952
2021-12-27 15:08:22.927742,428
2021-12-27 15:08:22.927749,-1950
2021-12-27 15:08:22.927759,-136
2021-12-27 15:08:22.927765,3755
2021-12-27 15:08:22.927772,4512
2021-12-27 15:08:22.927779,-3410
2021-12-27 15:08:22.927785,4194
2021-12-27 15:08:22.927792,695
2021-12-27 15:08:22.927799,1179
2021-12-27 15:08:22.927806,4083
2021-12-27 15:08:23.170248,-5706
2021-12-27 15:08:23.170277,1665
2021-12-27 15:08:23.170286,1236
2021-12-27 15:08:23.170293,-1809
2021-12-27 15:08:23.170303,-1409
2021-12-27 15:08:23.170310,-5581
2021-12-27 15:08:23.170317,-8266
2021-12-27 15:08:23.170324,-7712
2021-12-27 15:08:23.170334,1150
2021-12-27 15:08:23.170341,1346
2021-12-27 15:08:23.170351,-4548
2021-12-27 15:08:23.170358,-4194
2021-12-27 15:08:23.170365,-2571
2021-12-27 15:08:23.170372,2545
2021-12-27 15:08:23.170382,-2005
2021-12-27 15:08:23.170389,3379
2021-12-27 15:08:23.170396,2470
2021-12-27 15:08:23.170403,-4850
2021-12-27 15:08:23.170413,2581
2021-12-27 15:08:23.170420,1037
2021-12-27 15:08:23.170430,-3906
2021-12-27 15:08:23.170437,711
2021-12-27 15:08:23.170444,2473
2021-12-27 15:08:23.170451,1840
2021-12-27 15:08:23.414526,-4730
2021-12-27 15:08:23.414537,-5588
2021-12-27 15:08:23.414541,-5018
2021-12-27 15:08:23.414545,-2645
2021-12-27 15:08:23.414551,158
2021-12-27 15:08:23.414554,872
2021-12-27 15:08:23.414558,4011
2021-12-27 15:08:23.414562,-9095
2021-12-27 15:08:23.414566,-1725
2021-12-27 15:08:23.414572,4019
2021-12-27 15:08:23.414576,2224
2021-12-27 15:08:23.414580,4584
2021-12-27 15:08:23.414583,-2662
2021-12-27 15:08:23.414587,850
2021-12-27 15:08:23.414591,1375
2021-12-27 15:08:23.414595,-611
2021-12-27 15:08:23.414600,-220
2021-12-27 15:08:23.414613,210
2021-12-27 15:08:23.414617,2943
2021-12-27 15:08:23.414621,-3633
2021-12-27 15:08:23.414625,4994
2021-12-27 15:08:23.414629,2662
2021-12-27 15:08:23.414633,112
2021-12-27 15:08:23.414638,-2899
2021-12-27 15:08:23.414642,1469
2021-12-27 15:08:23.414646,330
2021-12-27 15:08:23.610096,-4644
2021-12-27 15:08:23.610124,4584
2021-12-27 15:08:23.610133,-1910
2021-12-27 15:08:23.610140,-4632
2021-12-27 15:08:23.610147,-4227
2021-12-27 15:08:23.610154,-7551
2021-12-27 15:08:23.610161,4865
2021-12-27 15:08:23.610168,1833
2021-12-27 15:08:23.610175,-2588
2021-12-27 15:08:23.610182,3458
2021-12-27 15:08:23.610190,-917
2021-12-27 15:08:23.610197,2312
2021-12-27 15:08:23.610204,-3060
2021-12-27 15:08:23.610210,-5529
2021-12-27 15:08:23.610217,4822
2021-12-27 15:08:23.610230,-4333
2021-12-27 15:08:23.610237,-2264
2021-12-27 15:08:23.610244,347
2021-12-27 15:08:23.610250,-8021
2021-12-27 15:08:23.610258,3295
2021-12-27 15:08:23.610265,927
2021-12-27 15:08:23.610272,-2933
2021-12-27 15:08:23.610279,4263
2021-12-27 15:08:23.610285,-2852
2021-12-27 15:08:23.610293,158
2021-12-27 15:08:23.610300,1593
2021-12-27 15:08:23.610306,-1720
2021-12-27 15:08:23.610314,3384
2021-12-27 15:08:23.610320,-1088
2021-12-27 15:08:23.610327,2262
2021-12-27 15:08:23.902061,2121
2021-12-27 15:08:23.902088,-3369
2021-12-27 15:08:23.902097,4932
2021-12-27 15:08:23.902104,-716
2021-12-27 15:08:23.902111,-242
2021-12-27 15:08:23.902118,3082
2021-12-27 15:08:23.902125,-11702
2021-12-27 15:08:23.902132,-3858
2021-12-27 15:08:23.902139,3525
2021-12-27 15:08:23.902146,-1471
2021-12-27 15:08:23.902153,3743
2021-12-27 15:08:23.902160,222
2021-12-27 15:08:23.902166,-666
2021-12-27 15:08:23.902173,-3036
2021-12-27 15:08:23.902180,-4028
2021-12-27 15:08:23.902190,515
2021-12-27 15:08:23.902197,891
2021-12-27 15:08:23.902207,-3813
2021-12-27 15:08:23.902214,1979
2021-12-27 15:08:23.902221,2279
2021-12-27 15:08:23.902228,7
2021-12-27 15:08:23.902238,-958
2021-12-27 15:08:23.902245,675
2021-12-27 15:08:23.902251,1672
2021-12-27 15:08:23.902258,-2168
2021-12-27 15:08:23.902268,1174
2021-12-27 15:08:24.097537,956
2021-12-27 15:08:24.097568,4812
2021-12-27 15:08:24.097577,-4898
2021-12-27 15:08:24.097584,2180
2021-12-27 15:08:24.097591,3642
2021-12-27 15:08:24.097598,421
2021-12-27 15:08:24.097608,-4055
2021-12-27 15:08:24.097615,-3472
2021-12-27 15:08:24.097622,1332
2021-12-27 15:08:24.097629,608
2021-12-27 15:08:24.097639,-124
2021-12-27 15:08:24.097646,944
2021-12-27 15:08:24.097653,1636
2021-12-27 15:08:24.097660,-7070
2021-12-27 15:08:24.097667,4968
2021-12-27 15:08:24.097674,14
2021-12-27 15:08:24.097681,-11065
2021-12-27 15:08:24.097688,788
2021-12-27 15:08:24.097695,-3192
2021-12-27 15:08:24.097702,-6053
2021-12-27 15:08:24.097709,721
2021-12-27 15:08:24.097716,3014
2021-12-27 15:08:24.097726,-1385
2021-12-27 15:08:24.097733,79
2021-12-27 15:08:24.097740,1531
2021-12-27 15:08:24.097746,-3225
2021-12-27 15:08:24.341009,2571
2021-12-27 15:08:24.341032,-920
2021-12-27 15:08:24.341038,4433
2021-12-27 15:08:24.341043,-8035
2021-12-27 15:08:24.341047,-3288
2021-12-27 15:08:24.341055,949
2021-12-27 15:08:24.341060,4560
2021-12-27 15:08:24.341064,-1334
2021-12-27 15:08:24.341069,-2267
2021-12-27 15:08:24.341073,-35
2021-12-27 15:08:24.341078,-1953
2021-12-27 15:08:24.341085,1279
2021-12-27 15:08:24.341090,-2125
2021-12-27 15:08:24.341094,2806
2021-12-27 15:08:24.341099,-6382
2021-12-27 15:08:24.341104,661
2021-12-27 15:08:24.341111,-577
2021-12-27 15:08:24.341115,4117
2021-12-27 15:08:24.341120,-1809
2021-12-27 15:08:24.341124,-220
2021-12-27 15:08:24.341129,3038
2021-12-27 15:08:24.341134,-1267
2021-12-27 15:08:24.341140,179
2021-12-27 15:08:24.341145,-1663
2021-12-27 15:08:24.341152,-2504
2021-12-27 15:08:24.585097,3213
2021-12-27 15:08:24.585126,3925
2021-12-27 15:08:24.585135,-2907
2021-12-27 15:08:24.585142,3460
2021-12-27 15:08:24.585149,-2780
2021-12-27 15:08:24.585156,-5052
2021-12-27 15:08:24.585163,-563
2021-12-27 15:08:24.585170,222
2021-12-27 15:08:24.585181,-2317
2021-12-27 15:08:24.585187,412
2021-12-27 15:08:24.585198,-6109
2021-12-27 15:08:24.585205,2240
2021-12-27 15:08:24.585212,1850
2021-12-27 15:08:24.585219,-5986
2021-12-27 15:08:24.585225,4050
2021-12-27 15:08:24.585232,-3494
2021-12-27 15:08:24.585239,-6458
2021-12-27 15:08:24.585246,1404
2021-12-27 15:08:24.585252,-805
2021-12-27 15:08:24.585259,2430
2021-12-27 15:08:24.585266,-1732
2021-12-27 15:08:24.585273,-7288
2021-12-27 15:08:24.585280,-7451
2021-12-27 15:08:24.585286,-4031
2021-12-27 15:08:24.585297,-505
2021-12-27 15:08:24.585303,-3067
2021-12-27 15:08:24.829299,-6204
2021-12-27 15:08:24.829328,-3055
2021-12-27 15:08:24.829337,479
2021-12-27 15:08:24.829344,-6010
2021-12-27 15:08:24.829351,4172
2021-12-27 15:08:24.829358,702
2021-12-27 15:08:24.829365,-5509
2021-12-27 15:08:24.829372,-3966
2021-12-27 15:08:24.829379,-5330
2021-12-27 15:08:24.829386,4455
2021-12-27 15:08:24.829393,1459
2021-12-27 15:08:24.829400,-1461
2021-12-27 15:08:24.829411,-4505
2021-12-27 15:08:24.829417,-4831
2021-12-27 15:08:24.829424,1248
2021-12-27 15:08:24.829431,297
2021-12-27 15:08:24.829442,-1694
2021-12-27 15:08:24.829448,-5644
2021-12-27 15:08:24.829455,-2463
2021-12-27 15:08:24.829462,-2494
2021-12-27 15:08:24.829472,1910
2021-12-27 15:08:24.829479,-1092
2021-12-27 15:08:24.829489,-4213
2021-12-27 15:08:24.829496,450
2021-12-27 15:08:24.829506,-582
2021-12-27 15:08:24.975435,-237
2021-12-27 15:08:24.975450,-2974
2021-12-27 15:08:24.975455,1648
2021-12-27 15:08:24.975460,-357
2021-12-27 15:08:24.975467,1751
2021-12-27 15:08:24.975472,-1150
2021-12-27 15:08:24.975476,1857
2021-12-27 15:08:24.975481,-7165
2021-12-27 15:08:24.975485,3439
2021-12-27 15:08:24.975492,-2214
2021-12-27 15:08:24.975499,-196
2021-12-27 15:08:24.975503,-3808
2021-12-27 15:08:24.975508,105
2021-12-27 15:08:24.975512,-1411
2021-12-27 15:08:24.975519,1440
2021-12-27 15:08:24.975524,-4395
2021-12-27 15:08:24.975529,-1531
2021-12-27 15:08:24.975533,-4872
2021-12-27 15:08:24.975540,4865
2021-12-27 15:08:24.975545,-2703
2021-12-27 15:08:24.975552,-3065
2021-12-27 15:08:24.975557,-6988
2021-12-27 15:08:24.975561,-3683
2021-12-27 15:08:25.266125,-2329
2021-12-27 15:08:25.266157,-503
2021-12-27 15:08:25.266165,-7118
2021-12-27 15:08:25.266172,-965
2021-12-27 15:08:25.266179,-2363
2021-12-27 15:08:25.266190,3460
2021-12-27 15:08:25.266197,-3309
2021-12-27 15:08:25.266204,3501
2021-12-27 15:08:25.266211,-4512
2021-12-27 15:08:25.266218,-3606
2021-12-27 15:08:25.266225,2135
2021-12-27 15:08:25.266232,-2492
2021-12-27 15:08:25.266239,3614
2021-12-27 15:08:25.266246,-1064
2021-12-27 15:08:25.266253,-2883
2021-12-27 15:08:25.266260,1557
2021-12-27 15:08:25.266267,-5404
2021-12-27 15:08:25.266273,3134
2021-12-27 15:08:25.266280,3245
2021-12-27 15:08:25.266287,-3096
2021-12-27 15:08:25.266300,4695
2021-12-27 15:08:25.266307,-1198
2021-12-27 15:08:25.266314,1373
2021-12-27 15:08:25.266324,-5344
2021-12-27 15:08:25.266331,-1150
2021-12-27 15:08:25.266338,-1917
2021-12-27 15:08:25.266345,-4496
2021-12-27 15:08:25.462202,-505
2021-12-27 15:08:25.462230,-2238
2021-12-27 15:08:25.462239,2933
2021-12-27 15:08:25.462247,-1198
2021-12-27 15:08:25.462254,-2844
2021-12-27 15:08:25.462261,2243
2021-12-27 15:08:25.462268,-7434
2021-12-27 15:08:25.462275,1239
2021-12-27 15:08:25.462286,-4587
2021-12-27 15:08:25.462293,4369
2021-12-27 15:08:25.462300,-1550
2021-12-27 15:08:25.462307,-7925
2021-12-27 15:08:25.462314,2545
2021-12-27 15:08:25.462320,136
2021-12-27 15:08:25.462327,2243
2021-12-27 15:08:25.462334,1850
2021-12-27 15:08:25.462341,-234
2021-12-27 15:08:25.462348,3578
2021-12-27 15:08:25.462355,-5835
2021-12-27 15:08:25.462362,-3352
2021-12-27 15:08:25.462369,2005
2021-12-27 15:08:25.462376,-184
2021-12-27 15:08:25.462386,-1052
2021-12-27 15:08:25.462393,-1037
2021-12-27 15:08:25.462403,-2063
2021-12-27 15:08:25.462410,4397
2021-12-27 15:08:25.462417,3721
2021-12-27 15:08:25.706468,-2001
2021-12-27 15:08:25.706497,3427
2021-12-27 15:08:25.706506,-2195
2021-12-27 15:08:25.706514,-860
2021-12-27 15:08:25.706520,-2708
2021-12-27 15:08:25.706527,-5083
2021-12-27 15:08:25.706538,-3314
2021-12-27 15:08:25.706545,-5761
2021-12-27 15:08:25.706555,476
2021-12-27 15:08:25.706562,4373
2021-12-27 15:08:25.706569,1814
2021-12-27 15:08:25.706576,-5718
2021-12-27 15:08:25.706583,-2053
2021-12-27 15:08:25.706590,-1934
2021-12-27 15:08:25.706600,4093
2021-12-27 15:08:25.706607,-1965
2021-12-27 15:08:25.706618,-2799
2021-12-27 15:08:25.706624,-4647
2021-12-27 15:08:25.706631,1756
2021-12-27 15:08:25.706638,-1603
2021-12-27 15:08:25.706648,1452
2021-12-27 15:08:25.706655,-4639
2021-12-27 15:08:25.706662,3192
2021-12-27 15:08:25.706668,179
2021-12-27 15:08:25.706675,3896
2021-12-27 15:08:25.901752,3491
2021-12-27 15:08:25.901780,-1327
2021-12-27 15:08:25.901789,3705
2021-12-27 15:08:25.901796,-3261
2021-12-27 15:08:25.901804,1840
2021-12-27 15:08:25.901814,-1929
2021-12-27 15:08:25.901821,4764
2021-12-27 15:08:25.901828,-1541
2021-12-27 15:08:25.901835,-8987
2021-12-27 15:08:25.901843,3630
2021-12-27 15:08:25.901850,2442
2021-12-27 15:08:25.901857,3400
2021-12-27 15:08:25.901864,2681
2021-12-27 15:08:25.901871,-4119
2021-12-27 15:08:25.901878,-2154
2021-12-27 15:08:25.901885,-4618
2021-12-27 15:08:25.901892,4393
2021-12-27 15:08:25.901903,-3283
2021-12-27 15:08:25.901910,4052
2021-12-27 15:08:25.901916,-532
2021-12-27 15:08:25.901924,-2686
2021-12-27 15:08:25.901931,4771
2021-12-27 15:08:25.901937,-4143
2021-12-27 15:08:25.901944,1773
2021-12-27 15:08:25.901951,4028
2021-12-27 15:08:25.901958,-3952
2021-12-27 15:08:25.901966,2739
2021-12-27 15:08:25.901973,469
2021-12-27 15:08:26.145240,2897
2021-12-27 15:08:26.145269,4651
2021-12-27 15:08:26.145277,-3477
2021-12-27 15:08:26.145285,2147
2021-12-27 15:08:26.145292,-2511
2021-12-27 15:08:26.145299,-3062
2021-12-27 15:08:26.145309,-438
2021-12-27 15:08:26.145316,1320
2021-12-27 15:08:26.145323,-3551
2021-12-27 15:08:26.145330,-15520
2021-12-27 15:08:26.145338,-4683
2021-12-27 15:08:26.145345,2379
2021-12-27 15:08:26.145352,4733
2021-12-27 15:08:26.145359,1545
2021-12-27 15:08:26.145365,-3046
2021-12-27 15:08:26.145376,-594
2021-12-27 15:08:26.145382,-802
2021-12-27 15:08:26.145393,-2485
2021-12-27 15:08:26.145400,1759
2021-12-27 15:08:26.145406,3235
2021-12-27 15:08:26.145413,-2343
2021-12-27 15:08:26.145420,3992
2021-12-27 15:08:26.145427,-2722
2021-12-27 15:08:26.145433,-3990
2021-12-27 15:08:26.145440,956
2021-12-27 15:08:26.145447,88
2021-12-27 15:08:26.145454,4776
2021-12-27 15:08:26.388394,-1737
2021-12-27 15:08:26.388411,846
2021-12-27 15:08:26.388419,-3698
2021-12-27 15:08:26.388424,4004
2021-12-27 15:08:26.388429,1035
2021-12-27 15:08:26.388434,-8491
2021-12-27 15:08:26.388438,2904
2021-12-27 15:08:26.388442,997
2021-12-27 15:08:26.388447,680
2021-12-27 15:08:26.388451,3606
2021-12-27 15:08:26.388456,-2123
2021-12-27 15:08:26.388460,-754
2021-12-27 15:08:26.388465,-4766
2021-12-27 15:08:26.388469,572
2021-12-27 15:08:26.388474,4985
2021-12-27 15:08:26.388478,-2871
2021-12-27 15:08:26.388485,1912
2021-12-27 15:08:26.388489,-3573
2021-12-27 15:08:26.388496,-925
2021-12-27 15:08:26.388500,2221
2021-12-27 15:08:26.388507,-2859
2021-12-27 15:08:26.388512,2629
2021-12-27 15:08:26.388516,-1047
2021-12-27 15:08:26.388520,-2662
2021-12-27 15:08:26.388525,287
2021-12-27 15:08:26.388529,-2713
2021-12-27 15:08:26.584021,323
2021-12-27 15:08:26.584042,-4671
2021-12-27 15:08:26.584050,4716
2021-12-27 15:08:26.584058,-105
2021-12-27 15:08:26.584065,3115
2021-12-27 15:08:26.584072,3415
2021-12-27 15:08:26.584079,-7554
2021-12-27 15:08:26.584085,-3580
2021-12-27 15:08:26.584092,-1366
2021-12-27 15:08:26.584099,3841
2021-12-27 15:08:26.584110,-2648
2021-12-27 15:08:26.584117,2705
2021-12-27 15:08:26.584124,-6322
2021-12-27 15:08:26.584130,-15674
2021-12-27 15:08:26.584138,-5732
2021-12-27 15:08:26.584144,-1533
2021-12-27 15:08:26.584155,798
2021-12-27 15:08:26.584162,-6962
2021-12-27 15:08:26.584169,2384
2021-12-27 15:08:26.584176,697
2021-12-27 15:08:26.584183,1883
2021-12-27 15:08:26.584190,4783
2021-12-27 15:08:26.584197,-2341
2021-12-27 15:08:26.584204,1914
2021-12-27 15:08:26.584210,-1833
2021-12-27 15:08:26.584217,-565
2021-12-27 15:08:26.827760,-7825
2021-12-27 15:08:26.827788,-3527
2021-12-27 15:08:26.827797,-2185
2021-12-27 15:08:26.827804,-13521
2021-12-27 15:08:26.827811,-3144
2021-12-27 15:08:26.827818,1591
2021-12-27 15:08:26.827825,1936
2021-12-27 15:08:26.827832,1938
2021-12-27 15:08:26.827839,-6236
2021-12-27 15:08:26.827846,-4536
2021-12-27 15:08:26.827852,-5171
2021-12-27 15:08:26.827860,1682
2021-12-27 15:08:26.827870,-3587
2021-12-27 15:08:26.827877,1603
2021-12-27 15:08:26.827884,994
2021-12-27 15:08:26.827891,-3894
2021-12-27 15:08:26.827902,893
2021-12-27 15:08:26.827908,1056
2021-12-27 15:08:26.827915,4201
2021-12-27 15:08:26.827922,-4179
2021-12-27 15:08:26.827929,2375
2021-12-27 15:08:26.827936,1725
2021-12-27 15:08:26.827942,1128
2021-12-27 15:08:26.827953,-2713
2021-12-27 15:08:26.827960,1713
2021-12-27 15:08:26.827967,2250
2021-12-27 15:08:26.827973,-1687
2021-12-27 15:08:27.071893,-2624
2021-12-27 15:08:27.071914,-5409
2021-12-27 15:08:27.071922,512
2021-12-27 15:08:27.071929,-5040
2021-12-27 15:08:27.071937,-1773
2021-12-27 15:08:27.071943,69
2021-12-27 15:08:27.071950,3475
2021-12-27 15:08:27.071957,4630
2021-12-27 15:08:27.071964,-3666
2021-12-27 15:08:27.071971,2487
2021-12-27 15:08:27.071978,-1452
2021-12-27 15:08:27.071985,-3908
2021-12-27 15:08:27.071995,-644
2021-12-27 15:08:27.072002,-448
2021-12-27 15:08:27.072012,-2605
2021-12-27 15:08:27.072019,3288
2021-12-27 15:08:27.072032,1838
2021-12-27 15:08:27.072039,-4817
2021-12-27 15:08:27.072046,-6214
2021-12-27 15:08:27.072053,-4802
2021-12-27 15:08:27.072063,740
2021-12-27 15:08:27.072070,-2573
2021-12-27 15:08:27.072080,-1449
2021-12-27 15:08:27.072087,1931
2021-12-27 15:08:27.362847,-3240
2021-12-27 15:08:27.362875,4575
2021-12-27 15:08:27.362884,687
2021-12-27 15:08:27.362892,-6027
2021-12-27 15:08:27.362899,-3168
2021-12-27 15:08:27.362905,-4824
2021-12-27 15:08:27.362912,-692
2021-12-27 15:08:27.362919,-4747
2021-12-27 15:08:27.362926,-1962
2021-12-27 15:08:27.362937,-2073
2021-12-27 15:08:27.362944,2533
2021-12-27 15:08:27.362951,2106
2021-12-27 15:08:27.362958,-7364
2021-12-27 15:08:27.362965,3561
2021-12-27 15:08:27.362971,1531
2021-12-27 15:08:27.362978,424
2021-12-27 15:08:27.362989,-4951
2021-12-27 15:08:27.362996,-2720
2021-12-27 15:08:27.363003,-1783
2021-12-27 15:08:27.363009,-4474
2021-12-27 15:08:27.363016,1843
2021-12-27 15:08:27.363023,-1191
2021-12-27 15:08:27.363030,2554
2021-12-27 15:08:27.363037,826
2021-12-27 15:08:27.363044,-5744
2021-12-27 15:08:27.363051,3618
2021-12-27 15:08:27.363058,714
2021-12-27 15:08:27.363065,1028
2021-12-27 15:08:27.510379,4891
2021-12-27 15:08:27.510407,-3894
2021-12-27 15:08:27.510416,417
2021-12-27 15:08:27.510423,198
2021-12-27 15:08:27.510430,208
2021-12-27 15:08:27.510437,4584
2021-12-27 15:08:27.510444,-5433
2021-12-27 15:08:27.510451,-1406
2021-12-27 15:08:27.510458,-1838
2021-12-27 15:08:27.510465,-5977
2021-12-27 15:08:27.510475,-1076
2021-12-27 15:08:27.510483,-2911
2021-12-27 15:08:27.510490,3506
2021-12-27 15:08:27.510497,-9078
2021-12-27 15:08:27.510504,-4862
2021-12-27 15:08:27.510510,3072
2021-12-27 15:08:27.510517,2693
2021-12-27 15:08:27.510524,4069
2021-12-27 15:08:27.510531,-1960
2021-12-27 15:08:27.510538,1025
2021-12-27 15:08:27.510545,-786
2021-12-27 15:08:27.510552,-1627
2021-12-27 15:08:27.510562,-280
2021-12-27 15:08:27.510569,-4297
2021-12-27 15:08:27.510576,-7321
2021-12-27 15:08:27.510583,-11151
2021-12-27 15:08:27.510590,4313
2021-12-27 15:08:27.510597,-198
2021-12-27 15:08:27.754398,-4019
2021-12-27 15:08:27.754432,-4560
2021-12-27 15:08:27.754440,-7338
2021-12-27 15:08:27.754447,-2952
2021-12-27 15:08:27.754454,956
2021-12-27 15:08:27.754465,-4846
2021-12-27 15:08:27.754472,-5519
2021-12-27 15:08:27.754479,-857
2021-12-27 15:08:27.754486,-5066
2021-12-27 15:08:27.754493,4997
2021-12-27 15:08:27.754500,2859
2021-12-27 15:08:27.754507,-59
2021-12-27 15:08:27.754517,-3386
2021-12-27 15:08:27.754524,1080
2021-12-27 15:08:27.754531,3539
2021-12-27 15:08:27.754538,71
2021-12-27 15:08:27.754549,-1394
2021-12-27 15:08:27.754555,673
2021-12-27 15:08:27.754562,4289
2021-12-27 15:08:27.754569,-2082
2021-12-27 15:08:27.754580,2624
2021-12-27 15:08:27.754587,-965
2021-12-27 15:08:27.754594,4615
2021-12-27 15:08:27.754601,-1972
2021-12-27 15:08:27.754607,2787
2021-12-27 15:08:27.998168,3659
2021-12-27 15:08:27.998197,119
2021-12-27 15:08:27.998210,-2039
2021-12-27 15:08:27.998217,182
2021-12-27 15:08:27.998239,4
2021-12-27 15:08:27.998246,-4663
2021-12-27 15:08:27.998256,1358
2021-12-27 15:08:27.998263,-4805
2021-12-27 15:08:27.998270,227
2021-12-27 15:08:27.998277,-7084
2021-12-27 15:08:27.998284,38
2021-12-27 15:08:27.998291,4112
2021-12-27 15:08:27.998297,-699
2021-12-27 15:08:27.998304,3856
2021-12-27 15:08:27.998311,67
2021-12-27 15:08:27.998318,2279
2021-12-27 15:08:27.998325,2159
2021-12-27 15:08:27.998332,-1624
2021-12-27 15:08:27.998342,-2983
2021-12-27 15:08:27.998349,-2413
2021-12-27 15:08:27.998359,-3010
2021-12-27 15:08:27.998366,2295
2021-12-27 15:08:27.998373,2732
2021-12-27 15:08:27.998380,-1888
2021-12-27 15:08:27.998390,-438
2021-12-27 15:08:28.241982,-122
2021-12-27 15:08:28.242012,-1977
2021-12-27 15:08:28.242021,-9960
2021-12-27 15:08:28.242028,2109
2021-12-27 15:08:28.242035,2950
2021-12-27 15:08:28.242042,347
2021-12-27 15:08:28.242049,-508
2021-12-27 15:08:28.242055,-8651
2021-12-27 15:08:28.242062,83
2021-12-27 15:08:28.242069,-1485
2021-12-27 15:08:28.242076,-3618
2021-12-27 15:08:28.242083,4282
2021-12-27 15:08:28.242090,-8639
2021-12-27 15:08:28.242097,-8383
2021-12-27 15:08:28.242103,148
2021-12-27 15:08:28.242110,-824
2021-12-27 15:08:28.242120,-11
2021-12-27 15:08:28.242127,886
2021-12-27 15:08:28.242134,3503
2021-12-27 15:08:28.242141,-5143
2021-12-27 15:08:28.242147,3415
2021-12-27 15:08:28.242154,3544
2021-12-27 15:08:28.242161,-141
2021-12-27 15:08:28.242171,-2152
2021-12-27 15:08:28.242178,-591
2021-12-27 15:08:28.242184,2389
2021-12-27 15:08:28.242191,-86
2021-12-27 15:08:28.436048,510
2021-12-27 15:08:28.436088,546
2021-12-27 15:08:28.436096,2741
2021-12-27 15:08:28.436101,-3954
2021-12-27 15:08:28.436109,3712
2021-12-27 15:08:28.436114,-582
2021-12-27 15:08:28.436121,-7213
2021-12-27 15:08:28.436126,-4448
2021-12-27 15:08:28.436133,1816
2021-12-27 15:08:28.436138,4774
2021-12-27 15:08:28.436142,-2916
2021-12-27 15:08:28.436148,-9040
2021-12-27 15:08:28.436154,-6085
2021-12-27 15:08:28.436160,-716
2021-12-27 15:08:28.436169,584
2021-12-27 15:08:28.436174,-596
2021-12-27 15:08:28.436182,-4750
2021-12-27 15:08:28.436187,2434
2021-12-27 15:08:28.436194,-798
2021-12-27 15:08:28.436201,-649
2021-12-27 15:08:28.436206,-1840
2021-12-27 15:08:28.436211,3420
2021-12-27 15:08:28.436216,103
2021-12-27 15:08:28.680576,1433
2021-12-27 15:08:28.680597,-1553
2021-12-27 15:08:28.680605,1694
2021-12-27 15:08:28.680612,-5737
2021-12-27 15:08:28.680620,3350
2021-12-27 15:08:28.680627,881
2021-12-27 15:08:28.680634,-10403
2021-12-27 15:08:28.680641,1644
2021-12-27 15:08:28.680648,-1068
2021-12-27 15:08:28.680655,-5449
2021-12-27 15:08:28.680662,539
2021-12-27 15:08:28.680669,227
2021-12-27 15:08:28.680676,2434
2021-12-27 15:08:28.680683,-4249
2021-12-27 15:08:28.680690,-3765
2021-12-27 15:08:28.680696,-467
2021-12-27 15:08:28.680703,-6046
2021-12-27 15:08:28.680714,4232
2021-12-27 15:08:28.680721,-4232
2021-12-27 15:08:28.680728,4222
2021-12-27 15:08:28.680735,-774
2021-12-27 15:08:28.680743,210
2021-12-27 15:08:28.680750,4508
2021-12-27 15:08:28.680757,-611
2021-12-27 15:08:28.680764,4325
2021-12-27 15:08:28.680771,-1694
2021-12-27 15:08:28.680778,-4582
2021-12-27 15:08:28.680785,261
2021-12-27 15:08:28.924144,-5466
2021-12-27 15:08:28.924171,313
2021-12-27 15:08:28.924180,-220
2021-12-27 15:08:28.924188,-2811
2021-12-27 15:08:28.924195,4301
2021-12-27 15:08:28.924202,-6343
2021-12-27 15:08:28.924209,-4520
2021-12-27 15:08:28.924216,4532
2021-12-27 15:08:28.924223,-1620
2021-12-27 15:08:28.924230,1974
2021-12-27 15:08:28.924237,390
2021-12-27 15:08:28.924244,-2751
2021-12-27 15:08:28.924251,-2327
2021-12-27 15:08:28.924258,-3304
2021-12-27 15:08:28.924269,467
2021-12-27 15:08:28.924276,-1771
2021-12-27 15:08:28.924287,-4417
2021-12-27 15:08:28.924294,266
2021-12-27 15:08:28.924304,-2391
2021-12-27 15:08:28.924315,1706
2021-12-27 15:08:28.924322,-1497
2021-12-27 15:08:28.924329,3034
2021-12-27 15:08:28.924336,-1778
2021-12-27 15:08:28.924343,4016
2021-12-27 15:08:28.924350,2597
2021-12-27 15:08:28.924357,242
2021-12-27 15:08:29.168225,-2660
2021-12-27 15:08:29.168245,1212
2021-12-27 15:08:29.168254,3508
2021-12-27 15:08:29.168262,-1224
2021-12-27 15:08:29.168272,-1845
2021-12-27 15:08:29.168279,-7055
2021-12-27 15:08:29.168287,366
2021-12-27 15:08:29.168294,-333
2021-12-27 15:08:29.168304,1435
2021-12-27 15:08:29.168311,-7647
2021-12-27 15:08:29.168318,-8603
2021-12-27 15:08:29.168325,-9085
2021-12-27 15:08:29.168338,-2780
2021-12-27 15:08:29.168349,-927
2021-12-27 15:08:29.168356,-6020
2021-12-27 15:08:29.168363,1855
2021-12-27 15:08:29.168370,1145
2021-12-27 15:08:29.168385,1692
2021-12-27 15:08:29.168392,-774
2021-12-27 15:08:29.168399,3422
2021-12-27 15:08:29.168406,-3549
2021-12-27 15:08:29.168413,4627
2021-12-27 15:08:29.410705,-1687
2021-12-27 15:08:29.410746,-1845
2021-12-27 15:08:29.410751,-2200
2021-12-27 15:08:29.410759,337
2021-12-27 15:08:29.410766,4752
2021-12-27 15:08:29.410773,1677
2021-12-27 15:08:29.410781,-5977
2021-12-27 15:08:29.410788,-4009
2021-12-27 15:08:29.410820,-2430
2021-12-27 15:08:29.410840,81
2021-12-27 15:08:29.410849,-5183
2021-12-27 15:08:29.410858,4347
2021-12-27 15:08:29.410866,-6010
2021-12-27 15:08:29.410892,-3101
2021-12-27 15:08:29.410904,-1023
2021-12-27 15:08:29.410909,3386
2021-12-27 15:08:29.410914,807
2021-12-27 15:08:29.410918,-3844
2021-12-27 15:08:29.410923,270
2021-12-27 15:08:29.410928,-2667
2021-12-27 15:08:29.410934,3290
2021-12-27 15:08:29.410939,-5272
2021-12-27 15:08:29.410944,-1059
2021-12-27 15:08:29.410948,-5375
2021-12-27 15:08:29.410953,-814
2021-12-27 15:08:29.606752,1054
2021-12-27 15:08:29.606781,-4678
2021-12-27 15:08:29.606791,3599
2021-12-27 15:08:29.606798,-4230
2021-12-27 15:08:29.606806,-9092
2021-12-27 15:08:29.606813,1378
2021-12-27 15:08:29.606820,115
2021-12-27 15:08:29.606827,3841
2021-12-27 15:08:29.606834,692
2021-12-27 15:08:29.606841,-3664
2021-12-27 15:08:29.606848,826
2021-12-27 15:08:29.606855,-6427
2021-12-27 15:08:29.606862,2092
2021-12-27 15:08:29.606873,-4819
2021-12-27 15:08:29.606880,2492
2021-12-27 15:08:29.606887,980
2021-12-27 15:08:29.606894,-1936
2021-12-27 15:08:29.606901,1078
2021-12-27 15:08:29.606908,-6231
2021-12-27 15:08:29.606915,1919
2021-12-27 15:08:29.606922,2914
2021-12-27 15:08:29.606929,-1162
2021-12-27 15:08:29.606936,4905
2021-12-27 15:08:29.606943,-3798
2021-12-27 15:08:29.606950,505
2021-12-27 15:08:29.606961,-2346
2021-12-27 15:08:29.606968,4944
2021-12-27 15:08:29.606975,661
2021-12-27 15:08:29.850441,-1018
2021-12-27 15:08:29.850474,-4402
2021-12-27 15:08:29.850482,-2015
2021-12-27 15:08:29.850489,1529
2021-12-27 15:08:29.850497,-3837
2021-12-27 15:08:29.850504,-3254
2021-12-27 15:08:29.850511,-3515
2021-12-27 15:08:29.850518,4136
2021-12-27 15:08:29.850525,1423
2021-12-27 15:08:29.850532,-3187
2021-12-27 15:08:29.850542,-3396
2021-12-27 15:08:29.850549,-3463
2021-12-27 15:08:29.850559,-1845
2021-12-27 15:08:29.850566,3252
2021-12-27 15:08:29.850573,1083
2021-12-27 15:08:29.850580,-6585
2021-12-27 15:08:29.850587,608
2021-12-27 15:08:29.850594,-4004
2021-12-27 15:08:29.850601,-1449
2021-12-27 15:08:29.850608,2804
2021-12-27 15:08:29.850615,-982
2021-12-27 15:08:29.850622,4637
2021-12-27 15:08:29.850628,-3024
2021-12-27 15:08:29.850635,-6391
2021-12-27 15:08:29.850642,704
2021-12-27 15:08:29.850649,-222
2021-12-27 15:08:30.045417,261
2021-12-27 15:08:30.045445,-3170
2021-12-27 15:08:30.045453,3968
2021-12-27 15:08:30.045461,-2142
2021-12-27 15:08:30.045468,3237
2021-12-27 15:08:30.045475,4858
2021-12-27 15:08:30.045482,-2550
2021-12-27 15:08:30.045489,496
2021-12-27 15:08:30.045496,-6533
2021-12-27 15:08:30.045503,59
2021-12-27 15:08:30.045514,-1876
2021-12-27 15:08:30.045521,4354
2021-12-27 15:08:30.045528,-486
2021-12-27 15:08:30.045535,-8620
2021-12-27 15:08:30.045542,2168
2021-12-27 15:08:30.045549,2037
2021-12-27 15:08:30.045556,4210
2021-12-27 15:08:30.045563,3185
2021-12-27 15:08:30.045570,-1763
2021-12-27 15:08:30.045577,2696
2021-12-27 15:08:30.045584,-2854
2021-12-27 15:08:30.045591,2837
2021-12-27 15:08:30.045602,-10260
2021-12-27 15:08:30.045609,-3022
2021-12-27 15:08:30.045616,1471
2021-12-27 15:08:30.045623,-3609
2021-12-27 15:08:30.045630,-551
2021-12-27 15:08:30.045637,-1581
2021-12-27 15:08:30.288698,3321
2021-12-27 15:08:30.288715,-8115
2021-12-27 15:08:30.288720,-3525
2021-12-27 15:08:30.288725,-1155
2021-12-27 15:08:30.288734,-2454
2021-12-27 15:08:30.288739,4019
2021-12-27 15:08:30.288744,-3336
2021-12-27 15:08:30.288748,-3168
2021-12-27 15:08:30.288755,201
2021-12-27 15:08:30.288760,2981
2021-12-27 15:08:30.288764,3096
2021-12-27 15:08:30.288769,-4088
2021-12-27 15:08:30.288774,3693
2021-12-27 15:08:30.288778,1483
2021-12-27 15:08:30.288783,3336
2021-12-27 15:08:30.288788,4858
2021-12-27 15:08:30.288792,-2823
2021-12-27 15:08:30.288797,2964
2021-12-27 15:08:30.288801,139
2021-12-27 15:08:30.288806,874
2021-12-27 15:08:30.288813,-1294
2021-12-27 15:08:30.288817,2818
2021-12-27 15:08:30.288822,1550
2021-12-27 15:08:30.288826,-3067
2021-12-27 15:08:30.288831,4009
2021-12-27 15:08:30.532578,-3201
2021-12-27 15:08:30.532601,397
2021-12-27 15:08:30.532607,4733
2021-12-27 15:08:30.532612,-3980
2021-12-27 15:08:30.532617,-242
2021-12-27 15:08:30.532622,-3834
2021-12-27 15:08:30.532627,695
2021-12-27 15:08:30.532634,-3767
2021-12-27 15:08:30.532638,1574
2021-12-27 15:08:30.532643,951
2021-12-27 15:08:30.532648,-6672
2021-12-27 15:08:30.532652,3693
2021-12-27 15:08:30.532657,1929
2021-12-27 15:08:30.532662,1032
2021-12-27 15:08:30.532666,1917
2021-12-27 15:08:30.532671,-1814
2021-12-27 15:08:30.532676,4004
2021-12-27 15:08:30.532680,-898
2021-12-27 15:08:30.532685,1282
2021-12-27 15:08:30.532689,4313
2021-12-27 15:08:30.532694,-6336
2021-12-27 15:08:30.532698,2722
2021-12-27 15:08:30.532703,2691
2021-12-27 15:08:30.532707,-3683
2021-12-27 15:08:30.532714,-1011
2021-12-27 15:08:30.532719,134
2021-12-27 15:08:30.532723,3161
2021-12-27 15:08:30.532728,-8074
2021-12-27 15:08:30.776753,-5459
2021-12-27 15:08:30.776782,-3120
2021-12-27 15:08:30.776790,-3062
2021-12-27 15:08:30.776797,-970
2021-12-27 15:08:30.776805,-1351
2021-12-27 15:08:30.776812,3254
2021-12-27 15:08:30.776819,-6559
2021-12-27 15:08:30.776826,-7240
2021-12-27 15:08:30.776833,3326
2021-12-27 15:08:30.776840,-5459
2021-12-27 15:08:30.776847,716
2021-12-27 15:08:30.776854,4119
2021-12-27 15:08:30.776861,-8721
2021-12-27 15:08:30.776868,-3139
2021-12-27 15:08:30.776875,-405
2021-12-27 15:08:30.776882,1286
2021-12-27 15:08:30.776889,3602
2021-12-27 15:08:30.776896,-1831
2021-12-27 15:08:30.776903,3527
2021-12-27 15:08:30.776910,-1320
2021-12-27 15:08:30.776917,-3362
2021-12-27 15:08:30.776928,-810
2021-12-27 15:08:30.776935,3290
2021-12-27 15:08:30.776942,3724
2021-12-27 15:08:30.776948,-3853
2021-12-27 15:08:30.776956,3281
2021-12-27 15:08:30.776963,-148
2021-12-27 15:08:30.776970,1785
2021-12-27 15:08:30.971986,-1869
2021-12-27 15:08:30.972015,3094
2021-12-27 15:08:30.972024,-915
2021-12-27 15:08:30.972031,-4347
2021-12-27 15:08:30.972039,1934
2021-12-27 15:08:30.972046,-2703
2021-12-27 15:08:30.972052,4503
2021-12-27 15:08:30.972059,1186
2021-12-27 15:08:30.972067,-10243
2021-12-27 15:08:30.972074,1936
2021-12-27 15:08:30.972081,3288
2021-12-27 15:08:30.972087,2295
2021-12-27 15:08:30.972094,4515
2021-12-27 15:08:30.972101,-3230
2021-12-27 15:08:30.972108,-2720
2021-12-27 15:08:30.972115,-4898
2021-12-27 15:08:30.972122,2130
2021-12-27 15:08:30.972133,-2566
2021-12-27 15:08:30.972139,3482
2021-12-27 15:08:30.972146,2653
2021-12-27 15:08:30.972153,-5042
2021-12-27 15:08:30.972163,2403
2021-12-27 15:08:30.972170,1483
2021-12-27 15:08:30.972180,-3841
2021-12-27 15:08:30.972187,680
2021-12-27 15:08:30.972194,1514
2021-12-27 15:08:30.972201,2159
2021-12-27 15:08:31.264123,-1615
2021-12-27 15:08:31.264144,1397
2021-12-27 15:08:31.264152,-3350
2021-12-27 15:08:31.264160,-11745
2021-12-27 15:08:31.264167,-4369
2021-12-27 15:08:31.264174,-4687
2021-12-27 15:08:31.264181,2231
2021-12-27 15:08:31.264189,3654
2021-12-27 15:08:31.264196,-8824
2021-12-27 15:08:31.264203,-1445
2021-12-27 15:08:31.264210,2722
2021-12-27 15:08:31.264217,2698
2021-12-27 15:08:31.264228,-2631
2021-12-27 15:08:31.264235,1907
2021-12-27 15:08:31.264242,1251
2021-12-27 15:08:31.264249,-1032
2021-12-27 15:08:31.264259,-3592
2021-12-27 15:08:31.264266,-1109
2021-12-27 15:08:31.264273,3079
2021-12-27 15:08:31.264280,-3952
2021-12-27 15:08:31.264287,3978
2021-12-27 15:08:31.264294,1912
2021-12-27 15:08:31.264301,500
2021-12-27 15:08:31.264309,4419
2021-12-27 15:08:31.264316,-3201
2021-12-27 15:08:31.264323,2327
2021-12-27 15:08:31.264330,1471
2021-12-27 15:08:31.506417,-1054
2021-12-27 15:08:31.506451,-2305
2021-12-27 15:08:31.506459,-2363
2021-12-27 15:08:31.506466,-790
2021-12-27 15:08:31.506474,-7165
2021-12-27 15:08:31.506481,443
2021-12-27 15:08:31.506488,-4898
2021-12-27 15:08:31.506495,-8476
2021-12-27 15:08:31.506502,-568
2021-12-27 15:08:31.506509,-2329
2021-12-27 15:08:31.506516,539
2021-12-27 15:08:31.506523,-2032
2021-12-27 15:08:31.506530,-395
2021-12-27 15:08:31.506540,-3695
2021-12-27 15:08:31.506547,1893
2021-12-27 15:08:31.506554,2401
2021-12-27 15:08:31.506561,-7038
2021-12-27 15:08:31.506574,4654
2021-12-27 15:08:31.506581,1792
2021-12-27 15:08:31.506588,-1502
2021-12-27 15:08:31.506598,-1866
2021-12-27 15:08:31.506605,1212
2021-12-27 15:08:31.506612,1416
2021-12-27 15:08:31.506619,-697
2021-12-27 15:08:31.506626,4373
2021-12-27 15:08:31.506633,-831
2021-12-27 15:08:31.506640,3650
2021-12-27 15:08:31.702300,2741
2021-12-27 15:08:31.702319,-3206
2021-12-27 15:08:31.702328,-433
2021-12-27 15:08:31.702333,810
2021-12-27 15:08:31.702340,-6988
2021-12-27 15:08:31.702344,-3269
2021-12-27 15:08:31.702349,1689
2021-12-27 15:08:31.702354,-515
2021-12-27 15:08:31.702358,-1385
2021-12-27 15:08:31.702363,-7563
2021-12-27 15:08:31.702367,1447
2021-12-27 15:08:31.702372,-836
2021-12-27 15:08:31.702376,-7082
2021-12-27 15:08:31.702383,1998
2021-12-27 15:08:31.702387,922
2021-12-27 15:08:31.702394,-3036
2021-12-27 15:08:31.702399,2077
2021-12-27 15:08:31.702403,1536
2021-12-27 15:08:31.702408,313
2021-12-27 15:08:31.702412,4337
2021-12-27 15:08:31.702417,-4558
2021-12-27 15:08:31.702421,522
2021-12-27 15:08:31.702426,1013
2021-12-27 15:08:31.702430,-3408
2021-12-27 15:08:31.702437,206
2021-12-27 15:08:31.897904,687
2021-12-27 15:08:31.897934,4385
2021-12-27 15:08:31.897943,-5303
2021-12-27 15:08:31.897950,1706
2021-12-27 15:08:31.897958,2863
2021-12-27 15:08:31.897965,810
2021-12-27 15:08:31.897976,-3781
2021-12-27 15:08:31.897983,-7201
2021-12-27 15:08:31.897990,-7228
2021-12-27 15:08:31.897997,-2224
2021-12-27 15:08:31.898004,2595
2021-12-27 15:08:31.898012,-9418
2021-12-27 15:08:31.898018,-1442
2021-12-27 15:08:31.898025,3372
2021-12-27 15:08:31.898032,-8618
2021-12-27 15:08:31.898039,2768
2021-12-27 15:08:31.898046,3904
2021-12-27 15:08:31.898053,-946
2021-12-27 15:08:31.898060,4500
2021-12-27 15:08:31.898067,-3745
2021-12-27 15:08:31.898074,-1485
2021-12-27 15:08:31.898081,2144
2021-12-27 15:08:31.898089,709
2021-12-27 15:08:31.898099,-920
2021-12-27 15:08:31.898106,381
2021-12-27 15:08:31.898114,1629
2021-12-27 15:08:31.898121,-3029
2021-12-27 15:08:32.141967,2101
2021-12-27 15:08:32.141998,-328
2021-12-27 15:08:32.142007,4627
2021-12-27 15:08:32.142014,-8059
2021-12-27 15:08:32.142022,-3937
2021-12-27 15:08:32.142028,3760
2021-12-27 15:08:32.142036,1759
2021-12-27 15:08:32.142046,-1727
2021-12-27 15:08:32.142053,-1469
2021-12-27 15:08:32.142061,-1593
2021-12-27 15:08:32.142067,-3654
2021-12-27 15:08:32.142078,-659
2021-12-27 15:08:32.142085,-7525
2021-12-27 15:08:32.142092,-196
2021-12-27 15:08:32.142099,-6760
2021-12-27 15:08:32.142106,-2310
2021-12-27 15:08:32.142113,3420
2021-12-27 15:08:32.142120,2077
2021-12-27 15:08:32.142127,4431
2021-12-27 15:08:32.142134,-2288
2021-12-27 15:08:32.142141,1756
2021-12-27 15:08:32.142147,3014
2021-12-27 15:08:32.142154,-1653
2021-12-27 15:08:32.142165,383
2021-12-27 15:08:32.142172,-905
2021-12-27 15:08:32.142179,4937
2021-12-27 15:08:32.142186,-5349
2021-12-27 15:08:32.384926,814
2021-12-27 15:08:32.384949,3623
2021-12-27 15:08:32.384955,-2161
2021-12-27 15:08:32.384960,2605
2021-12-27 15:08:32.384964,-2492
2021-12-27 15:08:32.384969,-3657
2021-12-27 15:08:32.384974,-2619
2021-12-27 15:08:32.384979,-378
2021-12-27 15:08:32.384986,-2482
2021-12-27 15:08:32.384991,517
2021-12-27 15:08:32.384996,4680
2021-12-27 15:08:32.385000,-6674
2021-12-27 15:08:32.385005,2252
2021-12-27 15:08:32.385010,589
2021-12-27 15:08:32.385014,-7839
2021-12-27 15:08:32.385019,-2133
2021-12-27 15:08:32.385024,-7391
2021-12-27 15:08:32.385040,-1298
2021-12-27 15:08:32.385044,2899
2021-12-27 15:08:32.385049,-3580
2021-12-27 15:08:32.385053,2873
2021-12-27 15:08:32.385058,244
2021-12-27 15:08:32.385063,982
2021-12-27 15:08:32.385067,3000
2021-12-27 15:08:32.385072,-3772
2021-12-27 15:08:32.385076,3904
2021-12-27 15:08:32.385081,1052
2021-12-27 15:08:32.385085,-941
2021-12-27 15:08:32.629376,-2458
2021-12-27 15:08:32.629405,457
2021-12-27 15:08:32.629414,3281
2021-12-27 15:08:32.629421,-2106
2021-12-27 15:08:32.629432,1152
2021-12-27 15:08:32.629440,-1713
2021-12-27 15:08:32.629447,-1835
2021-12-27 15:08:32.629454,-5869
2021-12-27 15:08:32.629465,2871
2021-12-27 15:08:32.629472,-436
2021-12-27 15:08:32.629482,-6195
2021-12-27 15:08:32.629489,-3396
2021-12-27 15:08:32.629496,3451
2021-12-27 15:08:32.629503,783
2021-12-27 15:08:32.629510,4294
2021-12-27 15:08:32.629517,-3894
2021-12-27 15:08:32.629524,-2214
2021-12-27 15:08:32.629531,2701
2021-12-27 15:08:32.629538,-6780
2021-12-27 15:08:32.629545,-4474
2021-12-27 15:08:32.629552,-2715
2021-12-27 15:08:32.629559,3189
2021-12-27 15:08:32.629569,-5747
2021-12-27 15:08:32.629576,2001
2021-12-27 15:08:32.629587,-548
2021-12-27 15:08:32.823561,83
2021-12-27 15:08:32.823574,-1982
2021-12-27 15:08:32.823580,258
2021-12-27 15:08:32.823584,-3779
2021-12-27 15:08:32.823589,3853
2021-12-27 15:08:32.823594,1107
2021-12-27 15:08:32.823598,23
2021-12-27 15:08:32.823603,1886
2021-12-27 15:08:32.823607,-7815
2021-12-27 15:08:32.823612,2758
2021-12-27 15:08:32.823619,-1735
2021-12-27 15:08:32.823626,-3916
2021-12-27 15:08:32.823631,-7316
2021-12-27 15:08:32.823635,1509
2021-12-27 15:08:32.823640,1799
2021-12-27 15:08:32.823644,4889
2021-12-27 15:08:32.823649,-5042
2021-12-27 15:08:32.823653,-9785
2021-12-27 15:08:32.823658,-3343
2021-12-27 15:08:32.823663,-5421
2021-12-27 15:08:32.823667,3436
2021-12-27 15:08:32.823672,2595
2021-12-27 15:08:32.823676,-2305
2021-12-27 15:08:32.823681,4155
2021-12-27 15:08:32.823686,-3930
2021-12-27 15:08:32.823690,-601
2021-12-27 15:08:33.067967,-1234
2021-12-27 15:08:33.067995,4757
2021-12-27 15:08:33.068004,-225
2021-12-27 15:08:33.068012,-4443
2021-12-27 15:08:33.068019,-1409
2021-12-27 15:08:33.068026,-3985
2021-12-27 15:08:33.068037,3247
2021-12-27 15:08:33.068044,-3369
2021-12-27 15:08:33.068051,3731
2021-12-27 15:08:33.068058,-4920
2021-12-27 15:08:33.068065,-2116
2021-12-27 15:08:33.068076,234
2021-12-27 15:08:33.068083,3664
2021-12-27 15:08:33.068090,-726
2021-12-27 15:08:33.068097,-242
2021-12-27 15:08:33.068104,3913
2021-12-27 15:08:33.068111,-1605
2021-12-27 15:08:33.068122,2044
2021-12-27 15:08:33.068129,-4333
2021-12-27 15:08:33.068136,1164
2021-12-27 15:08:33.068143,-4134
2021-12-27 15:08:33.068150,3374
2021-12-27 15:08:33.068161,-4155
2021-12-27 15:08:33.068168,-1612
2021-12-27 15:08:33.068175,-6636
2021-12-27 15:08:33.068182,-1088
2021-12-27 15:08:33.311440,-1874
2021-12-27 15:08:33.311455,3717
2021-12-27 15:08:33.311461,1519
2021-12-27 15:08:33.311465,-397
2021-12-27 15:08:33.311470,4373
2021-12-27 15:08:33.311475,-5524
2021-12-27 15:08:33.311479,2236
2021-12-27 15:08:33.311486,-2885
2021-12-27 15:08:33.311493,-810
2021-12-27 15:08:33.311498,-6113
2021-12-27 15:08:33.311503,1778
2021-12-27 15:08:33.311507,150
2021-12-27 15:08:33.311512,4071
2021-12-27 15:08:33.311517,1593
2021-12-27 15:08:33.311521,795
2021-12-27 15:08:33.311526,4860
2021-12-27 15:08:33.311531,-3669
2021-12-27 15:08:33.311535,55
2021-12-27 15:08:33.311540,-55
2021-12-27 15:08:33.311544,-2365
2021-12-27 15:08:33.311551,-5514
2021-12-27 15:08:33.311556,-4304
2021-12-27 15:08:33.311563,-1730
2021-12-27 15:08:33.311567,3712
2021-12-27 15:08:33.311572,2768
2021-12-27 15:08:33.602245,-958
2021-12-27 15:08:33.602266,3005
2021-12-27 15:08:33.602272,-3592
2021-12-27 15:08:33.602276,2363
2021-12-27 15:08:33.602281,3503
2021-12-27 15:08:33.602286,-4124
2021-12-27 15:08:33.602291,556
2021-12-27 15:08:33.602295,-7729
2021-12-27 15:08:33.602300,-9615
2021-12-27 15:08:33.602304,-385
2021-12-27 15:08:33.602309,7
2021-12-27 15:08:33.602313,4591
2021-12-27 15:08:33.602318,-886
2021-12-27 15:08:33.602323,-5399
2021-12-27 15:08:33.602327,-2993
2021-12-27 15:08:33.602332,-4563
2021-12-27 15:08:33.602338,3338
2021-12-27 15:08:33.602343,-2581
2021-12-27 15:08:33.602350,-3484
2021-12-27 15:08:33.602354,-1857
2021-12-27 15:08:33.602361,-464
2021-12-27 15:08:33.602365,4630
2021-12-27 15:08:33.602370,-287
2021-12-27 15:08:33.602374,-6147
2021-12-27 15:08:33.602379,752
2021-12-27 15:08:33.602383,548
2021-12-27 15:08:33.750386,2458
2021-12-27 15:08:33.750414,-975
2021-12-27 15:08:33.750423,3820
2021-12-27 15:08:33.750430,-8843
2021-12-27 15:08:33.750437,-3652
2021-12-27 15:08:33.750448,16
2021-12-27 15:08:33.750455,3971
2021-12-27 15:08:33.750462,-2123
2021-12-27 15:08:33.750469,-7956
2021-12-27 15:08:33.750476,1684
2021-12-27 15:08:33.750483,1958
2021-12-27 15:08:33.750494,1826
2021-12-27 15:08:33.750501,-3082
2021-12-27 15:08:33.750508,-642
2021-12-27 15:08:33.750514,-6135
2021-12-27 15:08:33.750522,4419
2021-12-27 15:08:33.750532,-3443
2021-12-27 15:08:33.750539,4417
2021-12-27 15:08:33.750546,-426
2021-12-27 15:08:33.750553,-1672
2021-12-27 15:08:33.750564,4
2021-12-27 15:08:33.750571,4289
2021-12-27 15:08:33.750577,2255
2021-12-27 15:08:33.750585,-3472
2021-12-27 15:08:33.750592,1735
2021-12-27 15:08:33.750599,-2458
2021-12-27 15:08:33.993910,4304
2021-12-27 15:08:33.993943,-4016
2021-12-27 15:08:33.993951,2677
2021-12-27 15:08:33.993959,-3257
2021-12-27 15:08:33.993966,-3908
2021-12-27 15:08:33.993977,421
2021-12-27 15:08:33.993984,2518
2021-12-27 15:08:33.993991,476
2021-12-27 15:08:33.993998,-4388
2021-12-27 15:08:33.994005,-527
2021-12-27 15:08:33.994012,-2017
2021-12-27 15:08:33.994023,3283
2021-12-27 15:08:33.994030,-3642
2021-12-27 15:08:33.994040,-218
2021-12-27 15:08:33.994047,-349
2021-12-27 15:08:33.994058,-2267
2021-12-27 15:08:33.994065,2499
2021-12-27 15:08:33.994071,2454
2021-12-27 15:08:33.994078,-1711
2021-12-27 15:08:33.994085,3743
2021-12-27 15:08:33.994092,-438
2021-12-27 15:08:33.994099,2852
2021-12-27 15:08:33.994106,2063
2021-12-27 15:08:33.994113,-1222
2021-12-27 15:08:34.237928,-3360
2021-12-27 15:08:34.237958,-1692
2021-12-27 15:08:34.238010,-2605
2021-12-27 15:08:34.238017,4021
2021-12-27 15:08:34.238025,249
2021-12-27 15:08:34.238032,-7964
2021-12-27 15:08:34.238039,-905
2021-12-27 15:08:34.238046,-7376
2021-12-27 15:08:34.238053,-4620
2021-12-27 15:08:34.238060,3693
2021-12-27 15:08:34.238067,649
2021-12-27 15:08:34.238074,-556
2021-12-27 15:08:34.238081,-6173
2021-12-27 15:08:34.238088,1783
2021-12-27 15:08:34.238099,-3022
2021-12-27 15:08:34.238110,1344
2021-12-27 15:08:34.238117,-3170
2021-12-27 15:08:34.238124,4965
2021-12-27 15:08:34.238131,-1100
2021-12-27 15:08:34.238139,3357
2021-12-27 15:08:34.238146,4249
2021-12-27 15:08:34.238153,-2099
2021-12-27 15:08:34.238160,3237
2021-12-27 15:08:34.238167,-2135
2021-12-27 15:08:34.238174,1171
2021-12-27 15:08:34.238184,-1306
2021-12-27 15:08:34.481010,-148
2021-12-27 15:08:34.481026,-7216
2021-12-27 15:08:34.481035,55
2021-12-27 15:08:34.481043,414
2021-12-27 15:08:34.481053,1751
2021-12-27 15:08:34.481061,-6490
2021-12-27 15:08:34.481068,-2866
2021-12-27 15:08:34.481075,-3499
2021-12-27 15:08:34.481081,4853
2021-12-27 15:08:34.481089,-2914
2021-12-27 15:08:34.481093,4424
2021-12-27 15:08:34.481097,-3628
2021-12-27 15:08:34.481101,-6701
2021-12-27 15:08:34.481105,2981
2021-12-27 15:08:34.481111,-2260
2021-12-27 15:08:34.481120,3034
2021-12-27 15:08:34.481176,1955
2021-12-27 15:08:34.481210,-6085
2021-12-27 15:08:34.481218,618
2021-12-27 15:08:34.481224,-45
2021-12-27 15:08:34.481229,3470
2021-12-27 15:08:34.481234,3499
2021-12-27 15:08:34.481239,-2509
2021-12-27 15:08:34.481243,3139
2021-12-27 15:08:34.481248,-2979
2021-12-27 15:08:34.481253,-239
2021-12-27 15:08:34.676282,-4143
2021-12-27 15:08:34.676311,-1378
2021-12-27 15:08:34.676320,-1181
2021-12-27 15:08:34.676327,-7820
2021-12-27 15:08:34.676334,-4397
2021-12-27 15:08:34.676341,-5052
2021-12-27 15:08:34.676348,3616
2021-12-27 15:08:34.676356,3127
2021-12-27 15:08:34.676363,-6914
2021-12-27 15:08:34.676370,-2641
2021-12-27 15:08:34.676377,-5672
2021-12-27 15:08:34.676384,764
2021-12-27 15:08:34.676394,-7609
2021-12-27 15:08:34.676402,-8704
2021-12-27 15:08:34.676409,-8783
2021-12-27 15:08:34.676416,-4951
2021-12-27 15:08:34.676426,-783
2021-12-27 15:08:34.676433,2449
2021-12-27 15:08:34.676440,3587
2021-12-27 15:08:34.676447,-4182
2021-12-27 15:08:34.676454,2823
2021-12-27 15:08:34.676461,162
2021-12-27 15:08:34.676468,1881
2021-12-27 15:08:34.676478,-3197
2021-12-27 15:08:34.676486,2717
2021-12-27 15:08:34.676493,1375
2021-12-27 15:08:34.676500,-1943
2021-12-27 15:08:34.920074,14
2021-12-27 15:08:34.920096,1366
2021-12-27 15:08:34.920104,1883
2021-12-27 15:08:34.920112,-5823
2021-12-27 15:08:34.920119,-2844
2021-12-27 15:08:34.920126,-5179
2021-12-27 15:08:34.920133,1284
2021-12-27 15:08:34.920144,-3259
2021-12-27 15:08:34.920151,3690
2021-12-27 15:08:34.920158,-726
2021-12-27 15:08:34.920165,-3374
2021-12-27 15:08:34.920176,-944
2021-12-27 15:08:34.920183,817
2021-12-27 15:08:34.920190,4110
2021-12-27 15:08:34.920197,-2336
2021-12-27 15:08:34.920204,3348
2021-12-27 15:08:34.920211,802
2021-12-27 15:08:34.920219,1356
2021-12-27 15:08:34.920226,3285
2021-12-27 15:08:34.920233,-1361
2021-12-27 15:08:34.920243,45
2021-12-27 15:08:34.920250,-692
2021-12-27 15:08:34.920261,-2293
2021-12-27 15:08:34.920268,3386
2021-12-27 15:08:34.920275,4349
2021-12-27 15:08:35.163919,-3415
2021-12-27 15:08:35.163947,4599
2021-12-27 15:08:35.163956,64
2021-12-27 15:08:35.163964,213
2021-12-27 15:08:35.163975,-1634
2021-12-27 15:08:35.163982,-522
2021-12-27 15:08:35.163989,-6899
2021-12-27 15:08:35.163996,-6262
2021-12-27 15:08:35.164003,2619
2021-12-27 15:08:35.164010,-973
2021-12-27 15:08:35.164017,4994
2021-12-27 15:08:35.164025,45
2021-12-27 15:08:35.164032,-7781
2021-12-27 15:08:35.164039,3710
2021-12-27 15:08:35.164046,707
2021-12-27 15:08:35.164053,1665
2021-12-27 15:08:35.164064,-1217
2021-12-27 15:08:35.164071,1672
2021-12-27 15:08:35.164078,-6401
2021-12-27 15:08:35.164085,-3441
2021-12-27 15:08:35.164095,-673
2021-12-27 15:08:35.164102,2538
2021-12-27 15:08:35.164109,2305
2021-12-27 15:08:35.164116,-4069
2021-12-27 15:08:35.164123,3997
2021-12-27 15:08:35.164130,846
2021-12-27 15:08:35.164137,2911
2021-12-27 15:08:35.357727,4510
2021-12-27 15:08:35.357744,-5167
2021-12-27 15:08:35.357750,-2794
2021-12-27 15:08:35.357755,-3537
2021-12-27 15:08:35.357760,1843
2021-12-27 15:08:35.357767,-3153
2021-12-27 15:08:35.357771,2245
2021-12-27 15:08:35.357776,-2425
2021-12-27 15:08:35.357781,-8407
2021-12-27 15:08:35.357785,1840
2021-12-27 15:08:35.357790,-2389
2021-12-27 15:08:35.357795,2097
2021-12-27 15:08:35.357799,3956
2021-12-27 15:08:35.357804,-9437
2021-12-27 15:08:35.357808,-3594
2021-12-27 15:08:35.357813,-67
2021-12-27 15:08:35.357818,-1018
2021-12-27 15:08:35.357822,867
2021-12-27 15:08:35.357827,-5073
2021-12-27 15:08:35.357831,-2542
2021-12-27 15:08:35.357836,-4083
2021-12-27 15:08:35.357841,-1332
2021-12-27 15:08:35.357848,-2394
2021-12-27 15:08:35.357852,1505
2021-12-27 15:08:35.357857,2684
2021-12-27 15:08:35.357861,-6125
2021-12-27 15:08:35.357866,3554
2021-12-27 15:08:35.357871,1991
2021-12-27 15:08:35.649576,544
2021-12-27 15:08:35.649606,4584
2021-12-27 15:08:35.649615,-4328
2021-12-27 15:08:35.649623,-3755
2021-12-27 15:08:35.649630,-4457
2021-12-27 15:08:35.649637,488
2021-12-27 15:08:35.649648,-2511
2021-12-27 15:08:35.649655,860
2021-12-27 15:08:35.649662,139
2021-12-27 15:08:35.649669,-7872
2021-12-27 15:08:35.649676,3187
2021-12-27 15:08:35.649683,-898
2021-12-27 15:08:35.649691,-2233
2021-12-27 15:08:35.649697,4707
2021-12-27 15:08:35.649705,-2691
2021-12-27 15:08:35.649712,1277
2021-12-27 15:08:35.649719,1320
2021-12-27 15:08:35.649726,970
2021-12-27 15:08:35.649736,-2499
2021-12-27 15:08:35.649743,1514
2021-12-27 15:08:35.649750,3467
2021-12-27 15:08:35.649757,-2360
2021-12-27 15:08:35.649764,3307
2021-12-27 15:08:35.649771,-4771
2021-12-27 15:08:35.649778,-2820
2021-12-27 15:08:35.649788,-2540
2021-12-27 15:08:35.649795,2166
2021-12-27 15:08:35.846325,2092
2021-12-27 15:08:35.846353,997
2021-12-27 15:08:35.846362,4893
2021-12-27 15:08:35.846370,-2799
2021-12-27 15:08:35.846377,2413
2021-12-27 15:08:35.846384,110
2021-12-27 15:08:35.846391,-5203
2021-12-27 15:08:35.846402,213
2021-12-27 15:08:35.846409,-1773
2021-12-27 15:08:35.846416,4503
2021-12-27 15:08:35.846423,-6017
2021-12-27 15:08:35.846431,-2909
2021-12-27 15:08:35.846438,117
2021-12-27 15:08:35.846445,-3774
2021-12-27 15:08:35.846452,-1056
2021-12-27 15:08:35.846459,-206
2021-12-27 15:08:35.846469,105
2021-12-27 15:08:35.846476,-3568
2021-12-27 15:08:35.846483,3247
2021-12-27 15:08:35.846490,-4515
2021-12-27 15:08:35.846498,1536
2021-12-27 15:08:35.846508,-5114
2021-12-27 15:08:35.846515,2962
2021-12-27 15:08:35.846522,1893
2021-12-27 15:08:35.846529,-1296
2021-12-27 15:08:35.846539,-764
2021-12-27 15:08:36.090309,1723
2021-12-27 15:08:36.090337,683
2021-12-27 15:08:36.090346,-2600
2021-12-27 15:08:36.090354,4639
2021-12-27 15:08:36.090361,-1948
2021-12-27 15:08:36.090368,-1648
2021-12-27 15:08:36.090375,-1641
2021-12-27 15:08:36.090382,-11086
2021-12-27 15:08:36.090389,-3072
2021-12-27 15:08:36.090396,-901
2021-12-27 15:08:36.090403,539
2021-12-27 15:08:36.090410,4558
2021-12-27 15:08:36.090416,-5083
2021-12-27 15:08:36.090423,-3892
2021-12-27 15:08:36.090430,-3690
2021-12-27 15:08:36.090437,-2947
2021-12-27 15:08:36.090444,2307
2021-12-27 15:08:36.090451,-5001
2021-12-27 15:08:36.090458,2760
2021-12-27 15:08:36.090465,4333
2021-12-27 15:08:36.090471,-6485
2021-12-27 15:08:36.090478,3482
2021-12-27 15:08:36.090485,2801
2021-12-27 15:08:36.090492,675
2021-12-27 15:08:36.090502,-2626
2021-12-27 15:08:36.090509,342
2021-12-27 15:08:36.090516,733
2021-12-27 15:08:36.090523,570
2021-12-27 15:08:36.284962,-7597
2021-12-27 15:08:36.284982,-3662
2021-12-27 15:08:36.284988,3467
2021-12-27 15:08:36.284993,-2962
2021-12-27 15:08:36.284998,4987
2021-12-27 15:08:36.285002,2564
2021-12-27 15:08:36.285007,1263
2021-12-27 15:08:36.285012,4812
2021-12-27 15:08:36.285016,-8014
2021-12-27 15:08:36.285021,-4397
2021-12-27 15:08:36.285025,3228
2021-12-27 15:08:36.285030,3019
2021-12-27 15:08:36.285037,-1282
2021-12-27 15:08:36.285041,-853
2021-12-27 15:08:36.285046,-3971
2021-12-27 15:08:36.285051,-3506
2021-12-27 15:08:36.285057,-2698
2021-12-27 15:08:36.285062,-3079
2021-12-27 15:08:36.285068,-3815
2021-12-27 15:08:36.285073,2147
2021-12-27 15:08:36.285077,4522
2021-12-27 15:08:36.285082,716
2021-12-27 15:08:36.285089,-1809
2021-12-27 15:08:36.285093,-11
2021-12-27 15:08:36.285098,2351
2021-12-27 15:08:36.285103,-107
2021-12-27 15:08:36.577524,278
2021-12-27 15:08:36.577545,-381
2021-12-27 15:08:36.577553,1255
2021-12-27 15:08:36.577561,-7103
2021-12-27 15:08:36.577568,3587
2021-12-27 15:08:36.577575,4388
2021-12-27 15:08:36.577582,-285
2021-12-27 15:08:36.577589,4774
2021-12-27 15:08:36.577596,-3923
2021-12-27 15:08:36.577603,-3575
2021-12-27 15:08:36.577610,-630
2021-12-27 15:08:36.577617,623
2021-12-27 15:08:36.577627,-2190
2021-12-27 15:08:36.577634,-517
2021-12-27 15:08:36.577644,-2873
2021-12-27 15:08:36.577652,4927
2021-12-27 15:08:36.577659,1478
2021-12-27 15:08:36.577666,-7065
2021-12-27 15:08:36.577673,-165
2021-12-27 15:08:36.577680,-647
2021-12-27 15:08:36.577687,2837
2021-12-27 15:08:36.577694,1876
2021-12-27 15:08:36.577701,-287
2021-12-27 15:08:36.577711,-1670
2021-12-27 15:08:36.577718,1368
2021-12-27 15:08:36.577725,4654
2021-12-27 15:08:36.772503,-3149
2021-12-27 15:08:36.772537,1495
2021-12-27 15:08:36.772545,-2272
2021-12-27 15:08:36.772556,-1294
2021-12-27 15:08:36.772563,-4242
2021-12-27 15:08:36.772570,-5665
2021-12-27 15:08:36.772577,-1977
2021-12-27 15:08:36.772587,-1725
2021-12-27 15:08:36.772594,-1370
2021-12-27 15:08:36.772602,-1150
2021-12-27 15:08:36.772609,-4824
2021-12-27 15:08:36.772619,402
2021-12-27 15:08:36.772626,-805
2021-12-27 15:08:36.772637,-7067
2021-12-27 15:08:36.772643,-2339
2021-12-27 15:08:36.772650,3777
2021-12-27 15:08:36.772658,-2245
2021-12-27 15:08:36.772665,69
2021-12-27 15:08:36.772672,-3455
2021-12-27 15:08:36.772679,1536
2021-12-27 15:08:36.772686,2550
2021-12-27 15:08:36.772693,-3988
2021-12-27 15:08:36.772700,4872
2021-12-27 15:08:36.772708,1730
2021-12-27 15:08:36.772715,831
2021-12-27 15:08:37.016554,-3328
2021-12-27 15:08:37.016575,1857
2021-12-27 15:08:37.016584,1910
2021-12-27 15:08:37.016591,-721
2021-12-27 15:08:37.016602,-2514
2021-12-27 15:08:37.016609,-5251
2021-12-27 15:08:37.016630,-1895
2021-12-27 15:08:37.016638,-1133
2021-12-27 15:08:37.016648,335
2021-12-27 15:08:37.016655,110
2021-12-27 15:08:37.016662,3276
2021-12-27 15:08:37.016670,-8031
2021-12-27 15:08:37.016677,-649
2021-12-27 15:08:37.016684,1040
2021-12-27 15:08:37.016691,-2216
2021-12-27 15:08:37.016702,-2669
2021-12-27 15:08:37.016708,-3034
2021-12-27 15:08:37.016715,1109
2021-12-27 15:08:37.016722,-654
2021-12-27 15:08:37.016730,4858
2021-12-27 15:08:37.016742,-3820
2021-12-27 15:08:37.016749,-3408
2021-12-27 15:08:37.016756,3209
2021-12-27 15:08:37.016763,-4191
2021-12-27 15:08:37.016770,3961
2021-12-27 15:08:37.016777,3415
2021-12-27 15:08:37.210697,-3868
2021-12-27 15:08:37.210715,649
2021-12-27 15:08:37.210721,-6588
2021-12-27 15:08:37.210726,-5363
2021-12-27 15:08:37.210731,-577
2021-12-27 15:08:37.210735,-1052
2021-12-27 15:08:37.210743,-1878
2021-12-27 15:08:37.210747,-4985
2021-12-27 15:08:37.210752,-4361
2021-12-27 15:08:37.210757,-6698
2021-12-27 15:08:37.210761,-242
2021-12-27 15:08:37.210766,-7067
2021-12-27 15:08:37.210771,-2415
2021-12-27 15:08:37.210777,-9708
2021-12-27 15:08:37.210782,-3340
2021-12-27 15:08:37.210789,-450
2021-12-27 15:08:37.210793,3793
2021-12-27 15:08:37.210798,-484
2021-12-27 15:08:37.210802,-1960
2021-12-27 15:08:37.210807,2262
2021-12-27 15:08:37.210812,-714
2021-12-27 15:08:37.210819,43
2021-12-27 15:08:37.210824,-7206
2021-12-27 15:08:37.210828,-469
2021-12-27 15:08:37.210833,-1459
2021-12-27 15:08:37.210838,4695
2021-12-27 15:08:37.454563,3714
2021-12-27 15:08:37.454591,-1327
2021-12-27 15:08:37.454605,-3448
2021-12-27 15:08:37.454612,-5831
2021-12-27 15:08:37.454619,313
2021-12-27 15:08:37.454627,136
2021-12-27 15:08:37.454637,-179
2021-12-27 15:08:37.454644,-2049
2021-12-27 15:08:37.454651,4031
2021-12-27 15:08:37.454659,-5131
2021-12-27 15:08:37.454666,3000
2021-12-27 15:08:37.454676,-2852
2021-12-27 15:08:37.454683,3923
2021-12-27 15:08:37.454690,-122
2021-12-27 15:08:37.454697,-131
2021-12-27 15:08:37.454704,4150
2021-12-27 15:08:37.454711,-402
2021-12-27 15:08:37.454717,4359
2021-12-27 15:08:37.454724,-263
2021-12-27 15:08:37.454731,91
2021-12-27 15:08:37.454742,-2758
2021-12-27 15:08:37.454748,4354
2021-12-27 15:08:37.454755,3777
2021-12-27 15:08:37.454762,-4313
2021-12-27 15:08:37.454769,1567
2021-12-27 15:08:37.454776,-3990
2021-12-27 15:08:37.746145,656
2021-12-27 15:08:37.746178,-3192
2021-12-27 15:08:37.746187,2907
2021-12-27 15:08:37.746194,2207
2021-12-27 15:08:37.746202,-2044
2021-12-27 15:08:37.746209,-1802
2021-12-27 15:08:37.746216,-4524
2021-12-27 15:08:37.746227,1845
2021-12-27 15:08:37.746234,-2058
2021-12-27 15:08:37.746245,-4862
2021-12-27 15:08:37.746252,-3139
2021-12-27 15:08:37.746262,-2334
2021-12-27 15:08:37.746269,-2427
2021-12-27 15:08:37.746276,-6588
2021-12-27 15:08:37.746283,-1040
2021-12-27 15:08:37.746294,-4280
2021-12-27 15:08:37.746300,3101
2021-12-27 15:08:37.746308,4136
2021-12-27 15:08:37.746315,-414
2021-12-27 15:08:37.746326,-1950
2021-12-27 15:08:37.746333,493
2021-12-27 15:08:37.746340,3698
2021-12-27 15:08:37.746348,-1596
2021-12-27 15:08:37.746355,4587
2021-12-27 15:08:37.893449,-3237
2021-12-27 15:08:37.893469,-4951
2021-12-27 15:08:37.893475,3467
2021-12-27 15:08:37.893480,-1538
2021-12-27 15:08:37.893484,4407
2021-12-27 15:08:37.893489,3360
2021-12-27 15:08:37.893494,-843
2021-12-27 15:08:37.893498,2502
2021-12-27 15:08:37.893503,-7532
2021-12-27 15:08:37.893507,-146
2021-12-27 15:08:37.893514,-1275
2021-12-27 15:08:37.893519,4992
2021-12-27 15:08:37.893523,-2135
2021-12-27 15:08:37.893528,-8680
2021-12-27 15:08:37.893532,-337
2021-12-27 15:08:37.893537,1416
2021-12-27 15:08:37.893544,1092
2021-12-27 15:08:37.893548,-951
2021-12-27 15:08:37.893553,3712
2021-12-27 15:08:37.893557,-4462
2021-12-27 15:08:37.893562,3508
2021-12-27 15:08:37.893568,-2125
2021-12-27 15:08:37.893575,-1469
2021-12-27 15:08:37.893580,-3209
2021-12-27 15:08:37.893587,244
2021-12-27 15:08:38.186619,4194
2021-12-27 15:08:38.186647,361
2021-12-27 15:08:38.186656,-10490
2021-12-27 15:08:38.186663,-8579
2021-12-27 15:08:38.186671,-3362
2021-12-27 15:08:38.186682,3115
2021-12-27 15:08:38.186689,-3223
2021-12-27 15:08:38.186696,4982
2021-12-27 15:08:38.186703,-5845
2021-12-27 15:08:38.186710,-4246
2021-12-27 15:08:38.186721,-74
2021-12-27 15:08:38.186728,3388
2021-12-27 15:08:38.186735,1083
2021-12-27 15:08:38.186742,-3429
2021-12-27 15:08:38.186749,2777
2021-12-27 15:08:38.186756,-414
2021-12-27 15:08:38.186763,4591
2021-12-27 15:08:38.186770,3261
2021-12-27 15:08:38.186777,-3177
2021-12-27 15:08:38.186784,2291
2021-12-27 15:08:38.186791,-5277
2021-12-27 15:08:38.186798,-1579
2021-12-27 15:08:38.186809,-1198
2021-12-27 15:08:38.186816,2751
2021-12-27 15:08:38.186823,-237
2021-12-27 15:08:38.186830,-2200
2021-12-27 15:08:38.186837,4481
2021-12-27 15:08:38.429406,-774
2021-12-27 15:08:38.429426,4033
2021-12-27 15:08:38.429432,2161
2021-12-27 15:08:38.429437,-4515
2021-12-27 15:08:38.429441,1850
2021-12-27 15:08:38.429446,-2907
2021-12-27 15:08:38.429450,2284
2021-12-27 15:08:38.429457,-4321
2021-12-27 15:08:38.429462,2590
2021-12-27 15:08:38.429466,-982
2021-12-27 15:08:38.429471,-7257
2021-12-27 15:08:38.429475,1507
2021-12-27 15:08:38.429480,910
2021-12-27 15:08:38.429484,2928
2021-12-27 15:08:38.429489,83
2021-12-27 15:08:38.429493,-2085
2021-12-27 15:08:38.429498,1823
2021-12-27 15:08:38.429502,-6252
2021-12-27 15:08:38.429506,627
2021-12-27 15:08:38.429511,2082
2021-12-27 15:08:38.429515,-6729
2021-12-27 15:08:38.429522,695
2021-12-27 15:08:38.429527,-3964
2021-12-27 15:08:38.429531,4752
2021-12-27 15:08:38.429535,-1855
2021-12-27 15:08:38.429540,975
2021-12-27 15:08:38.429544,2564
2021-12-27 15:08:38.429549,-1553
2021-12-27 15:08:38.673601,2655
2021-12-27 15:08:38.673630,-2245
2021-12-27 15:08:38.673639,1243
2021-12-27 15:08:38.673647,2183
2021-12-27 15:08:38.673654,-4735
2021-12-27 15:08:38.673661,673
2021-12-27 15:08:38.673668,-5778
2021-12-27 15:08:38.673676,-7017
2021-12-27 15:08:38.673683,237
2021-12-27 15:08:38.673690,-3786
2021-12-27 15:08:38.673697,3259
2021-12-27 15:08:38.673704,1212
2021-12-27 15:08:38.673711,-7858
2021-12-27 15:08:38.673718,-3561
2021-12-27 15:08:38.673725,-3707
2021-12-27 15:08:38.673732,2710
2021-12-27 15:08:38.673739,3048
2021-12-27 15:08:38.673746,-2502
2021-12-27 15:08:38.673753,4035
2021-12-27 15:08:38.673760,-4237
2021-12-27 15:08:38.673767,-4663
2021-12-27 15:08:38.673774,4371
2021-12-27 15:08:38.673781,-1128
2021-12-27 15:08:38.673788,4136
2021-12-27 15:08:38.673795,1876
2021-12-27 15:08:38.673802,-3695
2021-12-27 15:08:38.673809,292
2021-12-27 15:08:38.673816,-8158
2021-12-27 15:08:38.673823,-1356
2021-12-27 15:08:38.869104,-920
2021-12-27 15:08:38.869133,3058
2021-12-27 15:08:38.869142,-2322
2021-12-27 15:08:38.869149,-675
2021-12-27 15:08:38.869160,-953
2021-12-27 15:08:38.869167,4500
2021-12-27 15:08:38.869174,1430
2021-12-27 15:08:38.869181,-7225
2021-12-27 15:08:38.869188,-800
2021-12-27 15:08:38.869195,440
2021-12-27 15:08:38.869205,3259
2021-12-27 15:08:38.869212,-3209
2021-12-27 15:08:38.869219,-508
2021-12-27 15:08:38.869226,-7185
2021-12-27 15:08:38.869233,2068
2021-12-27 15:08:38.869244,-3007
2021-12-27 15:08:38.869251,4131
2021-12-27 15:08:38.869258,-965
2021-12-27 15:08:38.869265,-8354
2021-12-27 15:08:38.869272,4949
2021-12-27 15:08:38.869279,2583
2021-12-27 15:08:38.869286,2705
2021-12-27 15:08:38.869293,3218
2021-12-27 15:08:38.869300,-3398
2021-12-27 15:08:38.869307,989
2021-12-27 15:08:38.869314,-800
2021-12-27 15:08:38.869321,3640
2021-12-27 15:08:39.112620,-2343
2021-12-27 15:08:39.112642,3151
2021-12-27 15:08:39.112650,-3769
2021-12-27 15:08:39.112658,-5234
2021-12-27 15:08:39.112669,556
2021-12-27 15:08:39.112676,2176
2021-12-27 15:08:39.112683,3254
2021-12-27 15:08:39.112690,-3130
2021-12-27 15:08:39.112697,1574
2021-12-27 15:08:39.112704,-2842
2021-12-27 15:08:39.112712,2585
2021-12-27 15:08:39.112722,-3995
2021-12-27 15:08:39.112729,1279
2021-12-27 15:08:39.112736,-2005
2021-12-27 15:08:39.112743,-2269
2021-12-27 15:08:39.112754,-707
2021-12-27 15:08:39.112761,1445
2021-12-27 15:08:39.112768,1418
2021-12-27 15:08:39.112775,-3338
2021-12-27 15:08:39.112782,4359
2021-12-27 15:08:39.112789,452
2021-12-27 15:08:39.112796,2437
2021-12-27 15:08:39.112803,3880
2021-12-27 15:08:39.112810,-3331
2021-12-27 15:08:39.112817,4139
2021-12-27 15:08:39.112824,266
2021-12-27 15:08:39.307057,-407
2021-12-27 15:08:39.307085,4359
2021-12-27 15:08:39.307094,-10825
2021-12-27 15:08:39.307101,-5598
2021-12-27 15:08:39.307108,2516
2021-12-27 15:08:39.307116,-5809
2021-12-27 15:08:39.307123,-479
2021-12-27 15:08:39.307130,1576
2021-12-27 15:08:39.307137,2331
2021-12-27 15:08:39.307144,1147
2021-12-27 15:08:39.307151,-1358
2021-12-27 15:08:39.307162,-2509
2021-12-27 15:08:39.307169,-3628
2021-12-27 15:08:39.307180,-1771
2021-12-27 15:08:39.307187,2734
2021-12-27 15:08:39.307194,342
2021-12-27 15:08:39.307201,-7058
2021-12-27 15:08:39.307208,4268
2021-12-27 15:08:39.307216,742
2021-12-27 15:08:39.307223,249
2021-12-27 15:08:39.307230,4131
2021-12-27 15:08:39.307237,-1639
2021-12-27 15:08:39.307244,2375
2021-12-27 15:08:39.307251,-714
2021-12-27 15:08:39.307259,146
2021-12-27 15:08:39.307266,4218
2021-12-27 15:08:39.307273,-1902
2021-12-27 15:08:39.307280,4913
2021-12-27 15:08:39.550230,1600
2021-12-27 15:08:39.550249,-3024
2021-12-27 15:08:39.550258,-1615
2021-12-27 15:08:39.550263,1960
2021-12-27 15:08:39.550267,4977
2021-12-27 15:08:39.550272,-6780
2021-12-27 15:08:39.550277,-3355
2021-12-27 15:08:39.550282,-1766
2021-12-27 15:08:39.550286,1562
2021-12-27 15:08:39.550291,4937
2021-12-27 15:08:39.550295,-1778
2021-12-27 15:08:39.550300,3074
2021-12-27 15:08:39.550304,-3808
2021-12-27 15:08:39.550309,-10564
2021-12-27 15:08:39.550313,1143
2021-12-27 15:08:39.550318,846
2021-12-27 15:08:39.550322,3554
2021-12-27 15:08:39.550327,2763
2021-12-27 15:08:39.550331,-4179
2021-12-27 15:08:39.550336,2348
2021-12-27 15:08:39.550340,-678
2021-12-27 15:08:39.550345,1692
2021-12-27 15:08:39.550352,-2041
2021-12-27 15:08:39.550356,3079
2021-12-27 15:08:39.550361,-572
2021-12-27 15:08:39.550365,-2689
2021-12-27 15:08:39.550372,-289
2021-12-27 15:08:39.794159,2413
2021-12-27 15:08:39.794179,3345
2021-12-27 15:08:39.794185,-5517
2021-12-27 15:08:39.794190,1977
2021-12-27 15:08:39.794195,1423
2021-12-27 15:08:39.794199,2137
2021-12-27 15:08:39.794204,3309
2021-12-27 15:08:39.794209,-11055
2021-12-27 15:08:39.794213,-12031
2021-12-27 15:08:39.794218,-6092
2021-12-27 15:08:39.794223,3194
2021-12-27 15:08:39.794229,-3304
2021-12-27 15:08:39.794234,3487
2021-12-27 15:08:39.794238,771
2021-12-27 15:08:39.794243,-10758
2021-12-27 15:08:39.794248,-98
2021-12-27 15:08:39.794252,-699
2021-12-27 15:08:39.794257,822
2021-12-27 15:08:39.794261,4668
2021-12-27 15:08:39.794266,-4721
2021-12-27 15:08:39.794271,14
2021-12-27 15:08:39.794275,910
2021-12-27 15:08:39.794280,1473
2021-12-27 15:08:39.794287,-1768
2021-12-27 15:08:39.794291,1965
2021-12-27 15:08:39.794296,812
2021-12-27 15:08:39.794300,-3038
2021-12-27 15:08:40.039009,759
2021-12-27 15:08:40.039038,920
2021-12-27 15:08:40.039047,4038
2021-12-27 15:08:40.039054,-8031
2021-12-27 15:08:40.039062,-3638
2021-12-27 15:08:40.039069,824
2021-12-27 15:08:40.039076,2624
2021-12-27 15:08:40.039087,-3479
2021-12-27 15:08:40.039094,481
2021-12-27 15:08:40.039101,-1629
2021-12-27 15:08:40.039108,-4491
2021-12-27 15:08:40.039119,556
2021-12-27 15:08:40.039127,-1198
2021-12-27 15:08:40.039134,2497
2021-12-27 15:08:40.039141,-3300
2021-12-27 15:08:40.039148,2691
2021-12-27 15:08:40.039155,-1802
2021-12-27 15:08:40.039162,-2952
2021-12-27 15:08:40.039169,4932
2021-12-27 15:08:40.039176,-2044
2021-12-27 15:08:40.039183,1634
2021-12-27 15:08:40.039190,1308
2021-12-27 15:08:40.039197,-1452
2021-12-27 15:08:40.039207,-1541
2021-12-27 15:08:40.039214,33
2021-12-27 15:08:40.039221,4505
2021-12-27 15:08:40.039229,-3185
2021-12-27 15:08:40.233679,3781
2021-12-27 15:08:40.233708,1845
2021-12-27 15:08:40.233716,-1342
2021-12-27 15:08:40.233724,3002
2021-12-27 15:08:40.233731,-2437
2021-12-27 15:08:40.233738,-1368
2021-12-27 15:08:40.233745,-4496
2021-12-27 15:08:40.233751,-975
2021-12-27 15:08:40.233762,-3571
2021-12-27 15:08:40.233769,1675
2021-12-27 15:08:40.233780,-7108
2021-12-27 15:08:40.233787,-5996
2021-12-27 15:08:40.233794,-3892
2021-12-27 15:08:40.233801,2185
2021-12-27 15:08:40.233811,-5449
2021-12-27 15:08:40.233818,-2873
2021-12-27 15:08:40.233825,-2696
2021-12-27 15:08:40.233832,-5469
2021-12-27 15:08:40.233839,716
2021-12-27 15:08:40.233846,-896
2021-12-27 15:08:40.233852,4431
2021-12-27 15:08:40.233859,2334
2021-12-27 15:08:40.233866,-4232
2021-12-27 15:08:40.233883,117
2021-12-27 15:08:40.233890,95
2021-12-27 15:08:40.476986,-2986
2021-12-27 15:08:40.477015,1203
2021-12-27 15:08:40.477023,1421
2021-12-27 15:08:40.477031,-1421
2021-12-27 15:08:40.477042,-141
2021-12-27 15:08:40.477049,716
2021-12-27 15:08:40.477056,-1646
2021-12-27 15:08:40.477063,-7026
2021-12-27 15:08:40.477074,1787
2021-12-27 15:08:40.477081,462
2021-12-27 15:08:40.477088,4642
2021-12-27 15:08:40.477095,-6964
2021-12-27 15:08:40.477102,-3650
2021-12-27 15:08:40.477109,1030
2021-12-27 15:08:40.477116,1735
2021-12-27 15:08:40.477127,-1644
2021-12-27 15:08:40.477134,1807
2021-12-27 15:08:40.477141,390
2021-12-27 15:08:40.477148,-5219
2021-12-27 15:08:40.477155,2662
2021-12-27 15:08:40.477162,-2933
2021-12-27 15:08:40.477169,910
2021-12-27 15:08:40.477180,-5886
2021-12-27 15:08:40.477187,1092
2021-12-27 15:08:40.477194,3592
2021-12-27 15:08:40.477201,419
2021-12-27 15:08:40.671640,-1493
2021-12-27 15:08:40.671653,-529
2021-12-27 15:08:40.671659,-699
2021-12-27 15:08:40.671663,-1112
2021-12-27 15:08:40.671670,-486
2021-12-27 15:08:40.671675,630
2021-12-27 15:08:40.671680,2188
2021-12-27 15:08:40.671684,-8929
2021-12-27 15:08:40.671689,2533
2021-12-27 15:08:40.671693,4613
2021-12-27 15:08:40.671698,-656
2021-12-27 15:08:40.671702,4774
2021-12-27 15:08:40.671707,-4594
2021-12-27 15:08:40.671711,-6125
2021-12-27 15:08:40.671716,-1512
2021-12-27 15:08:40.671720,1327
2021-12-27 15:08:40.671725,4560
2021-12-27 15:08:40.671730,-7702
2021-12-27 15:08:40.671734,-3822
2021-12-27 15:08:40.671739,3410
2021-12-27 15:08:40.671743,-3506
2021-12-27 15:08:40.671748,3983
2021-12-27 15:08:40.671752,-699
2021-12-27 15:08:40.671757,-4297
2021-12-27 15:08:40.671762,4750
2021-12-27 15:08:40.671766,-2950
2021-12-27 15:08:40.671771,-381
2021-12-27 15:08:40.671776,2748
2021-12-27 15:08:40.915836,-146
2021-12-27 15:08:40.915862,-1766
2021-12-27 15:08:40.915868,-2010
2021-12-27 15:08:40.915873,-802
2021-12-27 15:08:40.915877,-5399
2021-12-27 15:08:40.915884,2355
2021-12-27 15:08:40.915889,-2763
2021-12-27 15:08:40.915893,3177
2021-12-27 15:08:40.915898,-5991
2021-12-27 15:08:40.915902,-2550
2021-12-27 15:08:40.915907,3197
2021-12-27 15:08:40.915912,965
2021-12-27 15:08:40.915916,3844
2021-12-27 15:08:40.915921,-2470
2021-12-27 15:08:40.915926,1171
2021-12-27 15:08:40.915930,2763
2021-12-27 15:08:40.915935,-2852
2021-12-27 15:08:40.915942,428
2021-12-27 15:08:40.915946,-1958
2021-12-27 15:08:40.915953,-2502
2021-12-27 15:08:40.915958,2202
2021-12-27 15:08:40.915963,2425
2021-12-27 15:08:40.915967,-6820
2021-12-27 15:08:40.915972,-1207
2021-12-27 15:08:40.915976,-98
2021-12-27 15:08:40.915981,2377
2021-12-27 15:08:41.158823,977
2021-12-27 15:08:41.158843,-2044
2021-12-27 15:08:41.158852,-1414
2021-12-27 15:08:41.158857,-91
2021-12-27 15:08:41.158861,4520
2021-12-27 15:08:41.158866,-7422
2021-12-27 15:08:41.158871,1361
2021-12-27 15:08:41.158875,4047
2021-12-27 15:08:41.158880,-2545
2021-12-27 15:08:41.158884,4973
2021-12-27 15:08:41.158889,-1958
2021-12-27 15:08:41.158893,-5195
2021-12-27 15:08:41.158898,-1433
2021-12-27 15:08:41.158902,-1171
2021-12-27 15:08:41.158907,4795
2021-12-27 15:08:41.158911,-611
2021-12-27 15:08:41.158916,1258
2021-12-27 15:08:41.158920,4429
2021-12-27 15:08:41.158925,-4534
2021-12-27 15:08:41.158929,3062
2021-12-27 15:08:41.158934,2051
2021-12-27 15:08:41.158938,-1337
2021-12-27 15:08:41.158945,-3060
2021-12-27 15:08:41.158950,-7242
2021-12-27 15:08:41.158954,-4769
2021-12-27 15:08:41.158959,-2099
2021-12-27 15:08:41.158963,3678
2021-12-27 15:08:41.158968,-5124
2021-12-27 15:08:41.354373,170
2021-12-27 15:08:41.354407,-6164
2021-12-27 15:08:41.354415,2137
2021-12-27 15:08:41.354423,3954
2021-12-27 15:08:41.354430,-352
2021-12-27 15:08:41.354437,4735
2021-12-27 15:08:41.354444,-6133
2021-12-27 15:08:41.354451,-5754
2021-12-27 15:08:41.354459,1943
2021-12-27 15:08:41.354465,989
2021-12-27 15:08:41.354476,-445
2021-12-27 15:08:41.354483,-2233
2021-12-27 15:08:41.354505,-2669
2021-12-27 15:08:41.354512,-6219
2021-12-27 15:08:41.354519,4361
2021-12-27 15:08:41.354526,-1011
2021-12-27 15:08:41.354533,-2818
2021-12-27 15:08:41.354544,-5512
2021-12-27 15:08:41.354551,-2152
2021-12-27 15:08:41.354558,4611
2021-12-27 15:08:41.354565,-544
2021-12-27 15:08:41.354572,4431
2021-12-27 15:08:41.354579,-546
2021-12-27 15:08:41.354586,-2204
2021-12-27 15:08:41.354593,577
2021-12-27 15:08:41.354600,-1668
2021-12-27 15:08:41.598585,-2792
2021-12-27 15:08:41.598613,-8486
2021-12-27 15:08:41.598622,-1727
2021-12-27 15:08:41.598629,-9692
2021-12-27 15:08:41.598636,-4333
2021-12-27 15:08:41.598643,1344
2021-12-27 15:08:41.598651,-1562
2021-12-27 15:08:41.598657,4210
2021-12-27 15:08:41.598665,-4987
2021-12-27 15:08:41.598672,-8328
2021-12-27 15:08:41.598679,-1047
2021-12-27 15:08:41.598686,-79
2021-12-27 15:08:41.598697,-524
2021-12-27 15:08:41.598704,-2454
2021-12-27 15:08:41.598711,2451
2021-12-27 15:08:41.598719,-3887
2021-12-27 15:08:41.598726,4112
2021-12-27 15:08:41.598733,4309
2021-12-27 15:08:41.598740,-2185
2021-12-27 15:08:41.598747,4678
2021-12-27 15:08:41.598754,-2667
2021-12-27 15:08:41.598761,-1035
2021-12-27 15:08:41.598772,-855
2021-12-27 15:08:41.598779,4915
2021-12-27 15:08:41.598786,558
2021-12-27 15:08:41.598793,-2029
2021-12-27 15:08:41.598800,4019
2021-12-27 15:08:41.598807,-1955
2021-12-27 15:08:41.889729,3575
2021-12-27 15:08:41.889757,-1998
2021-12-27 15:08:41.889766,-14037
2021-12-27 15:08:41.889774,-2216
2021-12-27 15:08:41.889781,-2394
2021-12-27 15:08:41.889788,-3477
2021-12-27 15:08:41.889795,2880
2021-12-27 15:08:41.889802,1044
2021-12-27 15:08:41.889810,3817
2021-12-27 15:08:41.889817,-1668
2021-12-27 15:08:41.889824,-2494
2021-12-27 15:08:41.889831,112
2021-12-27 15:08:41.889838,-4091
2021-12-27 15:08:41.889849,2991
2021-12-27 15:08:41.889856,-3472
2021-12-27 15:08:41.889867,-788
2021-12-27 15:08:41.889874,462
2021-12-27 15:08:41.889885,-1929
2021-12-27 15:08:41.889892,3475
2021-12-27 15:08:41.889899,1529
2021-12-27 15:08:41.889906,-234
2021-12-27 15:08:41.889913,3422
2021-12-27 15:08:41.889920,-1272
2021-12-27 15:08:41.889927,4297
2021-12-27 15:08:41.889934,1212
2021-12-27 15:08:41.889941,-766
2021-12-27 15:08:42.086377,-2209
2021-12-27 15:08:42.086405,1711
2021-12-27 15:08:42.086414,4927
2021-12-27 15:08:42.086421,-4007
2021-12-27 15:08:42.086428,939
2021-12-27 15:08:42.086435,-4869
2021-12-27 15:08:42.086442,-6444
2021-12-27 15:08:42.086450,1023
2021-12-27 15:08:42.086457,-2073
2021-12-27 15:08:42.086464,3678
2021-12-27 15:08:42.086471,2154
2021-12-27 15:08:42.086478,-328
2021-12-27 15:08:42.086486,2602
2021-12-27 15:08:42.086493,-6722
2021-12-27 15:08:42.086500,1044
2021-12-27 15:08:42.086506,4254
2021-12-27 15:08:42.086513,-5716
2021-12-27 15:08:42.086520,1967
2021-12-27 15:08:42.086527,-201
2021-12-27 15:08:42.086534,-1627
2021-12-27 15:08:42.086541,2701
2021-12-27 15:08:42.086548,-2327
2021-12-27 15:08:42.086555,4668
2021-12-27 15:08:42.086562,2523
2021-12-27 15:08:42.086570,-1749
2021-12-27 15:08:42.086577,3439
2021-12-27 15:08:42.086584,-3925
2021-12-27 15:08:42.086591,1593
2021-12-27 15:08:42.086598,4865
2021-12-27 15:08:42.086605,-1368
2021-12-27 15:08:42.281500,4874
2021-12-27 15:08:42.281530,-3479
2021-12-27 15:08:42.281539,-6135
2021-12-27 15:08:42.281546,802
2021-12-27 15:08:42.281553,-4342
2021-12-27 15:08:42.281560,1675
2021-12-27 15:08:42.281567,-3283
2021-12-27 15:08:42.281574,-15211
2021-12-27 15:08:42.281581,-9236
2021-12-27 15:08:42.281589,-3355
2021-12-27 15:08:42.281599,2262
2021-12-27 15:08:42.281606,-2835
2021-12-27 15:08:42.281617,-5989
2021-12-27 15:08:42.281624,-5576
2021-12-27 15:08:42.281635,275
2021-12-27 15:08:42.281642,3355
2021-12-27 15:08:42.281649,1548
2021-12-27 15:08:42.281656,-3367
2021-12-27 15:08:42.281663,1136
2021-12-27 15:08:42.281670,-726
2021-12-27 15:08:42.281677,4937
2021-12-27 15:08:42.281683,795
2021-12-27 15:08:42.281690,-4922
2021-12-27 15:08:42.281697,4031
2021-12-27 15:08:42.281704,-3024
2021-12-27 15:08:42.281712,-242
2021-12-27 15:08:42.524465,-1761
2021-12-27 15:08:42.524484,4160
2021-12-27 15:08:42.524490,-1251
2021-12-27 15:08:42.524494,-9548
2021-12-27 15:08:42.524498,-541
2021-12-27 15:08:42.524503,1385
2021-12-27 15:08:42.524508,817
2021-12-27 15:08:42.524512,-8620
2021-12-27 15:08:42.524516,-6983
2021-12-27 15:08:42.524520,-8153
2021-12-27 15:08:42.524523,1243
2021-12-27 15:08:42.524527,1876
2021-12-27 15:08:42.524531,-6001
2021-12-27 15:08:42.524534,4148
2021-12-27 15:08:42.524538,-1445
2021-12-27 15:08:42.524541,-4342
2021-12-27 15:08:42.524547,-388
2021-12-27 15:08:42.524551,2926
2021-12-27 15:08:42.524555,2123
2021-12-27 15:08:42.524558,-3132
2021-12-27 15:08:42.524562,3779
2021-12-27 15:08:42.524566,-1191
2021-12-27 15:08:42.524570,2542
2021-12-27 15:08:42.524576,-3309
2021-12-27 15:08:42.524580,3547
2021-12-27 15:08:42.524583,778
2021-12-27 15:08:42.524587,-846
2021-12-27 15:08:42.768864,-579
2021-12-27 15:08:42.768885,2456
2021-12-27 15:08:42.768893,1219
2021-12-27 15:08:42.768901,-4321
2021-12-27 15:08:42.768908,-788
2021-12-27 15:08:42.768915,-3537
2021-12-27 15:08:42.768922,3403
2021-12-27 15:08:42.768929,1037
2021-12-27 15:08:42.768937,-7432
2021-12-27 15:08:42.768944,1416
2021-12-27 15:08:42.768951,-6808
2021-12-27 15:08:42.768958,-10955
2021-12-27 15:08:42.768965,-2775
2021-12-27 15:08:42.768972,-4438
2021-12-27 15:08:42.768979,4143
2021-12-27 15:08:42.768986,2631
2021-12-27 15:08:42.768993,-3043
2021-12-27 15:08:42.769000,3609
2021-12-27 15:08:42.769007,-678
2021-12-27 15:08:42.769014,2255
2021-12-27 15:08:42.769021,3218
2021-12-27 15:08:42.769028,-3168
2021-12-27 15:08:42.769035,1730
2021-12-27 15:08:42.769042,-3707
2021-12-27 15:08:42.769049,-2926
2021-12-27 15:08:42.769056,1370
2021-12-27 15:08:42.769063,-4354
2021-12-27 15:08:42.769070,4824
2021-12-27 15:08:42.769077,2183
2021-12-27 15:08:43.061225,-4172
2021-12-27 15:08:43.061254,4110
2021-12-27 15:08:43.061263,-1318
2021-12-27 15:08:43.061270,855
2021-12-27 15:08:43.061277,4201
2021-12-27 15:08:43.061284,-1083
2021-12-27 15:08:43.061291,1325
2021-12-27 15:08:43.061298,-5883
2021-12-27 15:08:43.061305,-980
2021-12-27 15:08:43.061316,-2005
2021-12-27 15:08:43.061323,4512
2021-12-27 15:08:43.061330,-2504
2021-12-27 15:08:43.061337,-11434
2021-12-27 15:08:43.061344,2300
2021-12-27 15:08:43.061351,1962
2021-12-27 15:08:43.061358,3101
2021-12-27 15:08:43.061365,4119
2021-12-27 15:08:43.061372,-872
2021-12-27 15:08:43.061379,3990
2021-12-27 15:08:43.061386,-2202
2021-12-27 15:08:43.061392,869
2021-12-27 15:08:43.061403,-834
2021-12-27 15:08:43.061413,2017
2021-12-27 15:08:43.061420,-3319
2021-12-27 15:08:43.061427,4752
2021-12-27 15:08:43.061434,805
2021-12-27 15:08:43.061441,4352
2021-12-27 15:08:43.207620,4474
2021-12-27 15:08:43.207649,-2248
2021-12-27 15:08:43.207658,2645
2021-12-27 15:08:43.207666,-1670
2021-12-27 15:08:43.207673,2938
2021-12-27 15:08:43.207684,-1656
2021-12-27 15:08:43.207691,4479
2021-12-27 15:08:43.207698,-2003
2021-12-27 15:08:43.207705,-5912
2021-12-27 15:08:43.207716,-383
2021-12-27 15:08:43.207723,-1977
2021-12-27 15:08:43.207730,424
2021-12-27 15:08:43.207737,-5646
2021-12-27 15:08:43.207745,-1334
2021-12-27 15:08:43.207752,-328
2021-12-27 15:08:43.207759,4091
2021-12-27 15:08:43.207766,716
2021-12-27 15:08:43.207773,-9193
2021-12-27 15:08:43.207780,337
2021-12-27 15:08:43.207787,-3189
2021-12-27 15:08:43.207794,-3228
2021-12-27 15:08:43.207804,-198
2021-12-27 15:08:43.207811,2619
2021-12-27 15:08:43.207819,1215
2021-12-27 15:08:43.207826,-8268
2021-12-27 15:08:43.207833,1085
2021-12-27 15:08:43.207841,-869
2021-12-27 15:08:43.450208,-1692
2021-12-27 15:08:43.450228,2461
2021-12-27 15:08:43.450235,-3489
2021-12-27 15:08:43.450240,-2461
2021-12-27 15:08:43.450244,-6159
2021-12-27 15:08:43.450249,50
2021-12-27 15:08:43.450256,-2914
2021-12-27 15:08:43.450260,1718
2021-12-27 15:08:43.450265,-333
2021-12-27 15:08:43.450269,-8282
2021-12-27 15:08:43.450274,3125
2021-12-27 15:08:43.450278,2200
2021-12-27 15:08:43.450283,2300
2021-12-27 15:08:43.450287,3247
2021-12-27 15:08:43.450292,-3031
2021-12-27 15:08:43.450296,2248
2021-12-27 15:08:43.450301,-2233
2021-12-27 15:08:43.450305,635
2021-12-27 15:08:43.450312,-6478
2021-12-27 15:08:43.450316,-819
