Time,ECG
2021-12-23 15:04:01.274618,-244
2021-12-23 15:04:01.274637,-43
2021-12-23 15:04:01.274647,-78
2021-12-23 15:04:01.274656,-186
2021-12-23 15:04:01.274664,-131
2021-12-23 15:04:01.274672,-69
2021-12-23 15:04:01.274680,-71
2021-12-23 15:04:01.274686,-59
2021-12-23 15:04:01.274691,-50
2021-12-23 15:04:01.274695,-76
2021-12-23 15:04:01.274700,-90
2021-12-23 15:04:01.274704,-57
2021-12-23 15:04:01.274709,-21
2021-12-23 15:04:01.274713,-4
2021-12-23 15:04:01.274718,11
2021-12-23 15:04:01.274722,26
2021-12-23 15:04:01.274727,45
2021-12-23 15:04:01.274731,88
2021-12-23 15:04:01.274736,136
2021-12-23 15:04:01.274740,172
2021-12-23 15:04:01.274745,189
2021-12-23 15:04:01.274749,184
2021-12-23 15:04:01.274753,189
2021-12-23 15:04:01.274758,203
2021-12-23 15:04:01.274762,210
2021-12-23 15:04:01.274767,217
2021-12-23 15:04:01.274772,205
2021-12-23 15:04:01.274776,148
2021-12-23 15:04:01.274780,83
2021-12-23 15:04:01.274785,31
2021-12-23 15:04:01.479220,-26
2021-12-23 15:04:01.479250,-83
2021-12-23 15:04:01.479262,-143
2021-12-23 15:04:01.479272,-193
2021-12-23 15:04:01.479282,-203
2021-12-23 15:04:01.479292,-186
2021-12-23 15:04:01.479303,-169
2021-12-23 15:04:01.479313,-167
2021-12-23 15:04:01.479323,-198
2021-12-23 15:04:01.479333,-220
2021-12-23 15:04:01.479343,-196
2021-12-23 15:04:01.479352,-169
2021-12-23 15:04:01.479362,-179
2021-12-23 15:04:01.479372,-198
2021-12-23 15:04:01.479382,-215
2021-12-23 15:04:01.479391,-212
2021-12-23 15:04:01.479401,-181
2021-12-23 15:04:01.479412,-155
2021-12-23 15:04:01.479422,-148
2021-12-23 15:04:01.479431,-136
2021-12-23 15:04:01.479441,-126
2021-12-23 15:04:01.479451,-126
2021-12-23 15:04:01.479461,-117
2021-12-23 15:04:01.479470,-105
2021-12-23 15:04:01.479480,-88
2021-12-23 15:04:01.479490,-69
2021-12-23 15:04:01.479500,-69
2021-12-23 15:04:01.479509,-69
2021-12-23 15:04:01.479519,-47
2021-12-23 15:04:01.479533,-26
2021-12-23 15:04:01.614137,-19
2021-12-23 15:04:01.614157,-19
2021-12-23 15:04:01.614165,-23
2021-12-23 15:04:01.614172,-33
2021-12-23 15:04:01.614178,-38
2021-12-23 15:04:01.614185,-11
2021-12-23 15:04:01.614191,9
2021-12-23 15:04:01.614198,-4
2021-12-23 15:04:01.614204,-38
2021-12-23 15:04:01.614211,-59
2021-12-23 15:04:01.614217,-43
2021-12-23 15:04:01.614223,-23
2021-12-23 15:04:01.614230,-28
2021-12-23 15:04:01.614240,-23
2021-12-23 15:04:01.614246,-21
2021-12-23 15:04:01.614253,-43
2021-12-23 15:04:01.614259,-40
2021-12-23 15:04:01.614266,-11
2021-12-23 15:04:01.614273,-7
2021-12-23 15:04:01.614279,-28
2021-12-23 15:04:01.614287,-45
2021-12-23 15:04:01.614294,-45
2021-12-23 15:04:01.614300,-50
2021-12-23 15:04:01.614309,-47
2021-12-23 15:04:01.614315,-45
2021-12-23 15:04:01.614322,-66
2021-12-23 15:04:01.614328,-76
2021-12-23 15:04:01.614334,-59
2021-12-23 15:04:01.614341,-43
2021-12-23 15:04:01.614349,-35
2021-12-23 15:04:01.838983,-21
2021-12-23 15:04:01.839018,4
2021-12-23 15:04:01.839026,11
2021-12-23 15:04:01.839033,-4
2021-12-23 15:04:01.839039,0
2021-12-23 15:04:01.839046,21
2021-12-23 15:04:01.839052,14
2021-12-23 15:04:01.839059,-7
2021-12-23 15:04:01.839065,-2
2021-12-23 15:04:01.839072,19
2021-12-23 15:04:01.839078,23
2021-12-23 15:04:01.839085,21
2021-12-23 15:04:01.839091,-9
2021-12-23 15:04:01.839097,-45
2021-12-23 15:04:01.839104,126
2021-12-23 15:04:01.839110,557
2021-12-23 15:04:01.839117,827
2021-12-23 15:04:01.839128,581
2021-12-23 15:04:01.839135,26
2021-12-23 15:04:01.839141,-299
2021-12-23 15:04:01.839148,-165
2021-12-23 15:04:01.839154,7
2021-12-23 15:04:01.839161,-26
2021-12-23 15:04:01.839180,-21
2021-12-23 15:04:01.839186,38
2021-12-23 15:04:01.839193,26
2021-12-23 15:04:01.839199,16
2021-12-23 15:04:01.839206,38
2021-12-23 15:04:01.839212,38
2021-12-23 15:04:01.839219,31
2021-12-23 15:04:02.064252,40
2021-12-23 15:04:02.064282,59
2021-12-23 15:04:02.064294,83
2021-12-23 15:04:02.064305,98
2021-12-23 15:04:02.064314,102
2021-12-23 15:04:02.064324,107
2021-12-23 15:04:02.064334,119
2021-12-23 15:04:02.064353,145
2021-12-23 15:04:02.064363,162
2021-12-23 15:04:02.064373,174
2021-12-23 15:04:02.064382,217
2021-12-23 15:04:02.064392,248
2021-12-23 15:04:02.064402,234
2021-12-23 15:04:02.064412,224
2021-12-23 15:04:02.064422,215
2021-12-23 15:04:02.064431,169
2021-12-23 15:04:02.064441,126
2021-12-23 15:04:02.064450,107
2021-12-23 15:04:02.064460,52
2021-12-23 15:04:02.064470,-40
2021-12-23 15:04:02.064480,-124
2021-12-23 15:04:02.064489,-189
2021-12-23 15:04:02.064499,-239
2021-12-23 15:04:02.064509,-263
2021-12-23 15:04:02.064519,-267
2021-12-23 15:04:02.064528,-265
2021-12-23 15:04:02.064538,-251
2021-12-23 15:04:02.064548,-236
2021-12-23 15:04:02.064557,-229
2021-12-23 15:04:02.064569,-212
2021-12-23 15:04:02.289261,-200
2021-12-23 15:04:02.289291,-208
2021-12-23 15:04:02.289303,-198
2021-12-23 15:04:02.289313,-177
2021-12-23 15:04:02.289323,-169
2021-12-23 15:04:02.289333,-177
2021-12-23 15:04:02.289343,-177
2021-12-23 15:04:02.289352,-148
2021-12-23 15:04:02.289362,-129
2021-12-23 15:04:02.289372,-148
2021-12-23 15:04:02.289382,-150
2021-12-23 15:04:02.289391,-131
2021-12-23 15:04:02.289401,-141
2021-12-23 15:04:02.289411,-138
2021-12-23 15:04:02.289420,-112
2021-12-23 15:04:02.289430,-102
2021-12-23 15:04:02.289440,-102
2021-12-23 15:04:02.289449,-93
2021-12-23 15:04:02.289459,-64
2021-12-23 15:04:02.289469,-33
2021-12-23 15:04:02.289478,-69
2021-12-23 15:04:02.289488,-136
2021-12-23 15:04:02.289498,-110
2021-12-23 15:04:02.289507,-57
2021-12-23 15:04:02.289523,-59
2021-12-23 15:04:02.289533,-55
2021-12-23 15:04:02.289543,-38
2021-12-23 15:04:02.289553,-45
2021-12-23 15:04:02.289562,-40
2021-12-23 15:04:02.289572,-16
2021-12-23 15:04:02.514352,9
2021-12-23 15:04:02.514374,21
2021-12-23 15:04:02.514382,2
2021-12-23 15:04:02.514388,-4
2021-12-23 15:04:02.514395,31
2021-12-23 15:04:02.514401,14
2021-12-23 15:04:02.514408,-55
2021-12-23 15:04:02.514414,-38
2021-12-23 15:04:02.514421,26
2021-12-23 15:04:02.514427,26
2021-12-23 15:04:02.514433,2
2021-12-23 15:04:02.514440,4
2021-12-23 15:04:02.514446,9
2021-12-23 15:04:02.514453,11
2021-12-23 15:04:02.514459,14
2021-12-23 15:04:02.514465,7
2021-12-23 15:04:02.514472,0
2021-12-23 15:04:02.514478,2
2021-12-23 15:04:02.514485,-2
2021-12-23 15:04:02.514491,-23
2021-12-23 15:04:02.514497,-38
2021-12-23 15:04:02.514504,-33
2021-12-23 15:04:02.514513,-45
2021-12-23 15:04:02.514520,-64
2021-12-23 15:04:02.514526,-38
2021-12-23 15:04:02.514533,-31
2021-12-23 15:04:02.514539,-66
2021-12-23 15:04:02.514545,71
2021-12-23 15:04:02.514552,502
2021-12-23 15:04:02.514558,784
2021-12-23 15:04:02.783899,526
2021-12-23 15:04:02.783921,4
2021-12-23 15:04:02.783929,-241
2021-12-23 15:04:02.783936,-110
2021-12-23 15:04:02.783944,-9
2021-12-23 15:04:02.783952,-71
2021-12-23 15:04:02.783958,-71
2021-12-23 15:04:02.783965,-7
2021-12-23 15:04:02.783971,16
2021-12-23 15:04:02.783978,-14
2021-12-23 15:04:02.783984,-43
2021-12-23 15:04:02.783990,-11
2021-12-23 15:04:02.783997,33
2021-12-23 15:04:02.784004,50
2021-12-23 15:04:02.784010,62
2021-12-23 15:04:02.784016,62
2021-12-23 15:04:02.784023,74
2021-12-23 15:04:02.784030,110
2021-12-23 15:04:02.784036,138
2021-12-23 15:04:02.784042,172
2021-12-23 15:04:02.784049,215
2021-12-23 15:04:02.784056,222
2021-12-23 15:04:02.784062,210
2021-12-23 15:04:02.784068,236
2021-12-23 15:04:02.784082,251
2021-12-23 15:04:02.784089,227
2021-12-23 15:04:02.784095,244
2021-12-23 15:04:02.784102,277
2021-12-23 15:04:02.784108,258
2021-12-23 15:04:02.784115,232
2021-12-23 15:04:03.052340,205
2021-12-23 15:04:03.052362,141
2021-12-23 15:04:03.052371,45
2021-12-23 15:04:03.052380,-59
2021-12-23 15:04:03.052388,-136
2021-12-23 15:04:03.052396,-150
2021-12-23 15:04:03.052406,-153
2021-12-23 15:04:03.052414,-160
2021-12-23 15:04:03.052424,-172
2021-12-23 15:04:03.052431,-186
2021-12-23 15:04:03.052439,-179
2021-12-23 15:04:03.052447,-150
2021-12-23 15:04:03.052455,-138
2021-12-23 15:04:03.052463,-138
2021-12-23 15:04:03.052470,-160
2021-12-23 15:04:03.052477,-198
2021-12-23 15:04:03.052485,-210
2021-12-23 15:04:03.052492,-198
2021-12-23 15:04:03.052500,-196
2021-12-23 15:04:03.052507,-181
2021-12-23 15:04:03.052515,-174
2021-12-23 15:04:03.052522,-189
2021-12-23 15:04:03.052530,-179
2021-12-23 15:04:03.052537,-138
2021-12-23 15:04:03.052545,-126
2021-12-23 15:04:03.052552,-160
2021-12-23 15:04:03.052559,-212
2021-12-23 15:04:03.052567,-232
2021-12-23 15:04:03.052575,-208
2021-12-23 15:04:03.052582,-179
2021-12-23 15:04:03.233970,-162
2021-12-23 15:04:03.233991,-143
2021-12-23 15:04:03.233998,-143
2021-12-23 15:04:03.234003,-157
2021-12-23 15:04:03.234008,-145
2021-12-23 15:04:03.234014,-110
2021-12-23 15:04:03.234019,-74
2021-12-23 15:04:03.234024,-50
2021-12-23 15:04:03.234029,-76
2021-12-23 15:04:03.234034,-117
2021-12-23 15:04:03.234039,-105
2021-12-23 15:04:03.234044,-81
2021-12-23 15:04:03.234050,-90
2021-12-23 15:04:03.234055,-100
2021-12-23 15:04:03.234060,-112
2021-12-23 15:04:03.234065,-131
2021-12-23 15:04:03.234070,-114
2021-12-23 15:04:03.234075,-83
2021-12-23 15:04:03.234080,-74
2021-12-23 15:04:03.234085,-71
2021-12-23 15:04:03.234090,-64
2021-12-23 15:04:03.234095,-66
2021-12-23 15:04:03.234100,-76
2021-12-23 15:04:03.234105,-86
2021-12-23 15:04:03.234110,76
2021-12-23 15:04:03.234115,514
2021-12-23 15:04:03.234121,832
2021-12-23 15:04:03.234126,629
2021-12-23 15:04:03.234131,23
2021-12-23 15:04:03.234136,-392
2021-12-23 15:04:03.459328,-215
2021-12-23 15:04:03.459358,11
2021-12-23 15:04:03.459370,-83
2021-12-23 15:04:03.459380,-107
2021-12-23 15:04:03.459390,-11
2021-12-23 15:04:03.459400,7
2021-12-23 15:04:03.459409,9
2021-12-23 15:04:03.459419,16
2021-12-23 15:04:03.459429,0
2021-12-23 15:04:03.459439,4
2021-12-23 15:04:03.459457,38
2021-12-23 15:04:03.459468,55
2021-12-23 15:04:03.459477,69
2021-12-23 15:04:03.459487,81
2021-12-23 15:04:03.459497,76
2021-12-23 15:04:03.459506,93
2021-12-23 15:04:03.459516,141
2021-12-23 15:04:03.459526,189
2021-12-23 15:04:03.459536,232
2021-12-23 15:04:03.459545,267
2021-12-23 15:04:03.459555,296
2021-12-23 15:04:03.459565,322
2021-12-23 15:04:03.459574,346
2021-12-23 15:04:03.459584,373
2021-12-23 15:04:03.459593,392
2021-12-23 15:04:03.459603,373
2021-12-23 15:04:03.459613,313
2021-12-23 15:04:03.459623,241
2021-12-23 15:04:03.459632,172
2021-12-23 15:04:03.459642,98
2021-12-23 15:04:03.684303,7
2021-12-23 15:04:03.684333,-83
2021-12-23 15:04:03.684345,-148
2021-12-23 15:04:03.684355,-165
2021-12-23 15:04:03.684365,-155
2021-12-23 15:04:03.684375,-143
2021-12-23 15:04:03.684384,-148
2021-12-23 15:04:03.684394,-169
2021-12-23 15:04:03.684404,-165
2021-12-23 15:04:03.684413,-136
2021-12-23 15:04:03.684423,-119
2021-12-23 15:04:03.684433,-112
2021-12-23 15:04:03.684443,-114
2021-12-23 15:04:03.684452,-136
2021-12-23 15:04:03.684462,-138
2021-12-23 15:04:03.684483,-117
2021-12-23 15:04:03.684493,-98
2021-12-23 15:04:03.684503,-83
2021-12-23 15:04:03.684512,-71
2021-12-23 15:04:03.684644,-59
2021-12-23 15:04:03.684687,-57
2021-12-23 15:04:03.684709,-66
2021-12-23 15:04:03.684728,-71
2021-12-23 15:04:03.684745,-52
2021-12-23 15:04:03.684762,-50
2021-12-23 15:04:03.684860,-59
2021-12-23 15:04:03.684873,-57
2021-12-23 15:04:03.684880,-62
2021-12-23 15:04:03.684886,-62
2021-12-23 15:04:03.684893,-52
2021-12-23 15:04:03.953857,-47
2021-12-23 15:04:03.953887,-16
2021-12-23 15:04:03.953898,23
2021-12-23 15:04:03.953908,-11
2021-12-23 15:04:03.953918,-71
2021-12-23 15:04:03.953927,-69
2021-12-23 15:04:03.953937,-76
2021-12-23 15:04:03.953946,-114
2021-12-23 15:04:03.953956,-110
2021-12-23 15:04:03.953965,-81
2021-12-23 15:04:03.953975,-74
2021-12-23 15:04:03.953985,-78
2021-12-23 15:04:03.953994,-100
2021-12-23 15:04:03.954003,-122
2021-12-23 15:04:03.954013,-122
2021-12-23 15:04:03.954022,-126
2021-12-23 15:04:03.954032,-133
2021-12-23 15:04:03.954041,-131
2021-12-23 15:04:03.954051,-141
2021-12-23 15:04:03.954060,14
2021-12-23 15:04:03.954069,468
2021-12-23 15:04:03.954079,815
2021-12-23 15:04:03.954088,667
2021-12-23 15:04:03.954098,110
2021-12-23 15:04:03.954107,-366
2021-12-23 15:04:03.954117,-265
2021-12-23 15:04:03.954126,-2
2021-12-23 15:04:03.954136,-64
2021-12-23 15:04:03.954145,-114
2021-12-23 15:04:03.954155,-28
2021-12-23 15:04:04.134232,-26
2021-12-23 15:04:04.134262,-38
2021-12-23 15:04:04.134274,0
2021-12-23 15:04:04.134284,7
2021-12-23 15:04:04.134294,-4
2021-12-23 15:04:04.134304,-7
2021-12-23 15:04:04.134314,-23
2021-12-23 15:04:04.134324,-38
2021-12-23 15:04:04.134333,-16
2021-12-23 15:04:04.134343,21
2021-12-23 15:04:04.134353,43
2021-12-23 15:04:04.134363,43
2021-12-23 15:04:04.134373,62
2021-12-23 15:04:04.134382,114
2021-12-23 15:04:04.134392,169
2021-12-23 15:04:04.134402,208
2021-12-23 15:04:04.134419,246
2021-12-23 15:04:04.134429,270
2021-12-23 15:04:04.134439,275
2021-12-23 15:04:04.134448,296
2021-12-23 15:04:04.134458,301
2021-12-23 15:04:04.134468,253
2021-12-23 15:04:04.134478,172
2021-12-23 15:04:04.134487,76
2021-12-23 15:04:04.134497,-11
2021-12-23 15:04:04.134507,-76
2021-12-23 15:04:04.134517,-124
2021-12-23 15:04:04.134527,-160
2021-12-23 15:04:04.134537,-174
2021-12-23 15:04:04.134546,-174
2021-12-23 15:04:04.359361,-165
2021-12-23 15:04:04.359392,-138
2021-12-23 15:04:04.359403,-126
2021-12-23 15:04:04.359413,-131
2021-12-23 15:04:04.359423,-143
2021-12-23 15:04:04.359433,-150
2021-12-23 15:04:04.359443,-150
2021-12-23 15:04:04.359453,-157
2021-12-23 15:04:04.359463,-162
2021-12-23 15:04:04.359473,-148
2021-12-23 15:04:04.359482,-148
2021-12-23 15:04:04.359492,-162
2021-12-23 15:04:04.359501,-145
2021-12-23 15:04:04.359511,-114
2021-12-23 15:04:04.359521,-102
2021-12-23 15:04:04.359531,-102
2021-12-23 15:04:04.359540,-98
2021-12-23 15:04:04.359550,-83
2021-12-23 15:04:04.359560,-59
2021-12-23 15:04:04.359570,-43
2021-12-23 15:04:04.359579,-35
2021-12-23 15:04:04.359589,-28
2021-12-23 15:04:04.359599,-31
2021-12-23 15:04:04.359609,-40
2021-12-23 15:04:04.359618,-31
2021-12-23 15:04:04.359628,-11
2021-12-23 15:04:04.359638,2
2021-12-23 15:04:04.359648,16
2021-12-23 15:04:04.359658,26
2021-12-23 15:04:04.359667,21
2021-12-23 15:04:04.584305,14
2021-12-23 15:04:04.584335,19
2021-12-23 15:04:04.584347,16
2021-12-23 15:04:04.584357,-14
2021-12-23 15:04:04.584367,-45
2021-12-23 15:04:04.584377,-38
2021-12-23 15:04:04.584387,-16
2021-12-23 15:04:04.584397,-9
2021-12-23 15:04:04.584407,-19
2021-12-23 15:04:04.584416,-59
2021-12-23 15:04:04.584426,-112
2021-12-23 15:04:04.584436,-117
2021-12-23 15:04:04.584446,-114
2021-12-23 15:04:04.584462,-191
2021-12-23 15:04:04.584473,-200
2021-12-23 15:04:04.584482,122
2021-12-23 15:04:04.584492,614
2021-12-23 15:04:04.584502,803
2021-12-23 15:04:04.584512,516
2021-12-23 15:04:04.584521,-100
2021-12-23 15:04:04.584531,-445
2021-12-23 15:04:04.584541,-181
2021-12-23 15:04:04.584551,-4
2021-12-23 15:04:04.584560,-138
2021-12-23 15:04:04.584570,-124
2021-12-23 15:04:04.584580,-33
2021-12-23 15:04:04.584589,-55
2021-12-23 15:04:04.584599,-74
2021-12-23 15:04:04.584609,-35
2021-12-23 15:04:04.584618,-2
2021-12-23 15:04:04.854319,11
2021-12-23 15:04:04.854350,19
2021-12-23 15:04:04.854362,16
2021-12-23 15:04:04.854372,-9
2021-12-23 15:04:04.854382,-33
2021-12-23 15:04:04.854392,-7
2021-12-23 15:04:04.854403,43
2021-12-23 15:04:04.854412,74
2021-12-23 15:04:04.854422,88
2021-12-23 15:04:04.854432,95
2021-12-23 15:04:04.854442,112
2021-12-23 15:04:04.854452,141
2021-12-23 15:04:04.854462,167
2021-12-23 15:04:04.854472,203
2021-12-23 15:04:04.854482,222
2021-12-23 15:04:04.854492,208
2021-12-23 15:04:04.854501,186
2021-12-23 15:04:04.854511,153
2021-12-23 15:04:04.854521,76
2021-12-23 15:04:04.854531,-9
2021-12-23 15:04:04.854541,-93
2021-12-23 15:04:04.854551,-169
2021-12-23 15:04:04.854561,-205
2021-12-23 15:04:04.854570,-196
2021-12-23 15:04:04.854580,-184
2021-12-23 15:04:04.854590,-179
2021-12-23 15:04:04.854600,-181
2021-12-23 15:04:04.854610,-191
2021-12-23 15:04:04.854620,-179
2021-12-23 15:04:04.854630,-150
2021-12-23 15:04:05.122923,-129
2021-12-23 15:04:05.122953,-112
2021-12-23 15:04:05.122965,-114
2021-12-23 15:04:05.122975,-129
2021-12-23 15:04:05.122985,-110
2021-12-23 15:04:05.122994,-81
2021-12-23 15:04:05.123004,-74
2021-12-23 15:04:05.123013,-69
2021-12-23 15:04:05.123023,-83
2021-12-23 15:04:05.123033,-112
2021-12-23 15:04:05.123042,-98
2021-12-23 15:04:05.123052,-55
2021-12-23 15:04:05.123061,-52
2021-12-23 15:04:05.123071,-86
2021-12-23 15:04:05.123080,-126
2021-12-23 15:04:05.123090,-133
2021-12-23 15:04:05.123099,-100
2021-12-23 15:04:05.123117,-78
2021-12-23 15:04:05.123127,-102
2021-12-23 15:04:05.123137,-131
2021-12-23 15:04:05.123146,-131
2021-12-23 15:04:05.123156,-124
2021-12-23 15:04:05.123166,-112
2021-12-23 15:04:05.123175,-88
2021-12-23 15:04:05.123185,-69
2021-12-23 15:04:05.123194,-62
2021-12-23 15:04:05.123204,-64
2021-12-23 15:04:05.123214,-71
2021-12-23 15:04:05.123224,-64
2021-12-23 15:04:05.123233,-43
2021-12-23 15:04:05.349276,-14
2021-12-23 15:04:05.349307,11
2021-12-23 15:04:05.349318,7
2021-12-23 15:04:05.349329,-9
2021-12-23 15:04:05.349339,-4
2021-12-23 15:04:05.349349,14
2021-12-23 15:04:05.349359,11
2021-12-23 15:04:05.349369,-14
2021-12-23 15:04:05.349379,-47
2021-12-23 15:04:05.349389,-52
2021-12-23 15:04:05.349399,-26
2021-12-23 15:04:05.349410,-7
2021-12-23 15:04:05.349420,-4
2021-12-23 15:04:05.349430,-19
2021-12-23 15:04:05.349440,-52
2021-12-23 15:04:05.349450,-76
2021-12-23 15:04:05.349460,-86
2021-12-23 15:04:05.349470,-105
2021-12-23 15:04:05.349480,-2
2021-12-23 15:04:05.349490,389
2021-12-23 15:04:05.349500,808
2021-12-23 15:04:05.349510,844
2021-12-23 15:04:05.349519,397
2021-12-23 15:04:05.349529,-212
2021-12-23 15:04:05.349539,-318
2021-12-23 15:04:05.349549,-4
2021-12-23 15:04:05.349559,14
2021-12-23 15:04:05.349569,-110
2021-12-23 15:04:05.349579,-33
2021-12-23 15:04:05.349589,28
2021-12-23 15:04:05.528615,-2
2021-12-23 15:04:05.528633,-2
2021-12-23 15:04:05.528641,4
2021-12-23 15:04:05.528648,-4
2021-12-23 15:04:05.528654,14
2021-12-23 15:04:05.528661,45
2021-12-23 15:04:05.528667,52
2021-12-23 15:04:05.528674,55
2021-12-23 15:04:05.528680,86
2021-12-23 15:04:05.528687,122
2021-12-23 15:04:05.528693,136
2021-12-23 15:04:05.528699,153
2021-12-23 15:04:05.528706,184
2021-12-23 15:04:05.528712,215
2021-12-23 15:04:05.528718,248
2021-12-23 15:04:05.528725,282
2021-12-23 15:04:05.528731,299
2021-12-23 15:04:05.528738,291
2021-12-23 15:04:05.528744,265
2021-12-23 15:04:05.528750,251
2021-12-23 15:04:05.528756,236
2021-12-23 15:04:05.528763,184
2021-12-23 15:04:05.528769,102
2021-12-23 15:04:05.528775,7
2021-12-23 15:04:05.528782,-107
2021-12-23 15:04:05.528788,-212
2021-12-23 15:04:05.528795,-260
2021-12-23 15:04:05.528801,-284
2021-12-23 15:04:05.528807,-287
2021-12-23 15:04:05.528817,-265
2021-12-23 15:04:05.799001,-258
2021-12-23 15:04:05.799024,-263
2021-12-23 15:04:05.799031,-246
2021-12-23 15:04:05.799038,-224
2021-12-23 15:04:05.799044,-210
2021-12-23 15:04:05.799051,-203
2021-12-23 15:04:05.799057,-217
2021-12-23 15:04:05.799064,-227
2021-12-23 15:04:05.799070,-200
2021-12-23 15:04:05.799076,-172
2021-12-23 15:04:05.799083,-160
2021-12-23 15:04:05.799089,-157
2021-12-23 15:04:05.799095,-179
2021-12-23 15:04:05.799102,-181
2021-12-23 15:04:05.799108,-153
2021-12-23 15:04:05.799115,-138
2021-12-23 15:04:05.799121,-131
2021-12-23 15:04:05.799127,-114
2021-12-23 15:04:05.799134,-117
2021-12-23 15:04:05.799140,-126
2021-12-23 15:04:05.799147,-124
2021-12-23 15:04:05.799153,-119
2021-12-23 15:04:05.799159,-107
2021-12-23 15:04:05.799166,-93
2021-12-23 15:04:05.799172,-86
2021-12-23 15:04:05.799178,-78
2021-12-23 15:04:05.799185,-64
2021-12-23 15:04:05.799191,-64
2021-12-23 15:04:05.799198,-64
2021-12-23 15:04:05.799204,-52
2021-12-23 15:04:05.979473,-43
2021-12-23 15:04:05.979503,-38
2021-12-23 15:04:05.979515,-23
2021-12-23 15:04:05.979525,-9
2021-12-23 15:04:05.979535,-4
2021-12-23 15:04:05.979545,-21
2021-12-23 15:04:05.979555,-35
2021-12-23 15:04:05.979564,-14
2021-12-23 15:04:05.979574,4
2021-12-23 15:04:05.979584,0
2021-12-23 15:04:05.979594,0
2021-12-23 15:04:05.979604,-14
2021-12-23 15:04:05.979614,-38
2021-12-23 15:04:05.979624,-21
2021-12-23 15:04:05.979634,7
2021-12-23 15:04:05.979643,2
2021-12-23 15:04:05.979653,-7
2021-12-23 15:04:05.979663,-21
2021-12-23 15:04:05.979673,-33
2021-12-23 15:04:05.979683,-14
2021-12-23 15:04:05.979693,0
2021-12-23 15:04:05.979703,-26
2021-12-23 15:04:05.979713,-45
2021-12-23 15:04:05.979722,-38
2021-12-23 15:04:05.979732,-28
2021-12-23 15:04:05.979742,-21
2021-12-23 15:04:05.979751,-14
2021-12-23 15:04:05.979761,-4
2021-12-23 15:04:05.979771,9
2021-12-23 15:04:05.979781,2
2021-12-23 15:04:06.203927,-31
2021-12-23 15:04:06.203947,-33
2021-12-23 15:04:06.203954,-7
2021-12-23 15:04:06.203961,-7
2021-12-23 15:04:06.203968,-26
2021-12-23 15:04:06.203977,-43
2021-12-23 15:04:06.203983,-35
2021-12-23 15:04:06.203989,-11
2021-12-23 15:04:06.203996,-2
2021-12-23 15:04:06.204002,-9
2021-12-23 15:04:06.204008,-23
2021-12-23 15:04:06.204015,-40
2021-12-23 15:04:06.204021,-21
2021-12-23 15:04:06.204027,4
2021-12-23 15:04:06.204036,4
2021-12-23 15:04:06.204043,4
2021-12-23 15:04:06.204049,11
2021-12-23 15:04:06.204055,11
2021-12-23 15:04:06.204062,16
2021-12-23 15:04:06.204068,33
2021-12-23 15:04:06.204077,50
2021-12-23 15:04:06.204084,52
2021-12-23 15:04:06.204090,47
2021-12-23 15:04:06.204099,19
2021-12-23 15:04:06.204105,-11
2021-12-23 15:04:06.204111,-2
2021-12-23 15:04:06.204118,9
2021-12-23 15:04:06.204124,-7
2021-12-23 15:04:06.204130,-21
2021-12-23 15:04:06.204137,-21
2021-12-23 15:04:06.429300,-14
2021-12-23 15:04:06.429331,0
2021-12-23 15:04:06.429343,4
2021-12-23 15:04:06.429353,-16
2021-12-23 15:04:06.429363,-47
2021-12-23 15:04:06.429373,-50
2021-12-23 15:04:06.429383,-26
2021-12-23 15:04:06.429393,-40
2021-12-23 15:04:06.429402,-90
2021-12-23 15:04:06.429412,4
2021-12-23 15:04:06.429422,394
2021-12-23 15:04:06.429432,818
2021-12-23 15:04:06.429442,882
2021-12-23 15:04:06.429451,430
2021-12-23 15:04:06.429461,-236
2021-12-23 15:04:06.429471,-373
2021-12-23 15:04:06.429481,-81
2021-12-23 15:04:06.429490,-76
2021-12-23 15:04:06.429500,-184
2021-12-23 15:04:06.429510,-110
2021-12-23 15:04:06.429519,-69
2021-12-23 15:04:06.429529,-107
2021-12-23 15:04:06.429539,-90
2021-12-23 15:04:06.429548,-47
2021-12-23 15:04:06.429558,-38
2021-12-23 15:04:06.429568,-40
2021-12-23 15:04:06.429577,-40
2021-12-23 15:04:06.429587,-40
2021-12-23 15:04:06.429596,-28
2021-12-23 15:04:06.429606,2
2021-12-23 15:04:06.743722,40
2021-12-23 15:04:06.743751,74
2021-12-23 15:04:06.743763,93
2021-12-23 15:04:06.743773,83
2021-12-23 15:04:06.743783,83
2021-12-23 15:04:06.743792,107
2021-12-23 15:04:06.743802,110
2021-12-23 15:04:06.743811,124
2021-12-23 15:04:06.743821,167
2021-12-23 15:04:06.743831,155
2021-12-23 15:04:06.743840,131
2021-12-23 15:04:06.743850,167
2021-12-23 15:04:06.743860,179
2021-12-23 15:04:06.743869,124
2021-12-23 15:04:06.743879,52
2021-12-23 15:04:06.743889,-26
2021-12-23 15:04:06.743899,-95
2021-12-23 15:04:06.743909,-124
2021-12-23 15:04:06.743918,-131
2021-12-23 15:04:06.743928,-143
2021-12-23 15:04:06.743938,-160
2021-12-23 15:04:06.743947,-172
2021-12-23 15:04:06.743957,-155
2021-12-23 15:04:06.743967,-131
2021-12-23 15:04:06.743976,-119
2021-12-23 15:04:06.743986,-100
2021-12-23 15:04:06.743995,-83
2021-12-23 15:04:06.744005,-100
2021-12-23 15:04:06.744015,-119
2021-12-23 15:04:06.744024,-95
2021-12-23 15:04:07.014318,-66
2021-12-23 15:04:07.014350,-57
2021-12-23 15:04:07.014362,-57
2021-12-23 15:04:07.014372,-59
2021-12-23 15:04:07.014382,-55
2021-12-23 15:04:07.014391,-33
2021-12-23 15:04:07.014401,-16
2021-12-23 15:04:07.014411,-9
2021-12-23 15:04:07.014421,-21
2021-12-23 15:04:07.014430,-40
2021-12-23 15:04:07.014440,-31
2021-12-23 15:04:07.014450,-2
2021-12-23 15:04:07.014460,4
2021-12-23 15:04:07.014469,-2
2021-12-23 15:04:07.014479,-21
2021-12-23 15:04:07.014489,-45
2021-12-23 15:04:07.014498,-31
2021-12-23 15:04:07.014508,-4
2021-12-23 15:04:07.014518,-2
2021-12-23 15:04:07.014527,-2
2021-12-23 15:04:07.014537,-11
2021-12-23 15:04:07.014546,-33
2021-12-23 15:04:07.014562,-21
2021-12-23 15:04:07.014572,4
2021-12-23 15:04:07.014581,11
2021-12-23 15:04:07.014591,11
2021-12-23 15:04:07.014601,7
2021-12-23 15:04:07.014611,0
2021-12-23 15:04:07.014621,7
2021-12-23 15:04:07.014631,2
2021-12-23 15:04:07.192190,-16
2021-12-23 15:04:07.192209,-19
2021-12-23 15:04:07.192217,-9
2021-12-23 15:04:07.192224,-11
2021-12-23 15:04:07.192230,-14
2021-12-23 15:04:07.192237,-19
2021-12-23 15:04:07.192243,-19
2021-12-23 15:04:07.192250,-19
2021-12-23 15:04:07.192256,-35
2021-12-23 15:04:07.192262,-45
2021-12-23 15:04:07.192269,-35
2021-12-23 15:04:07.192275,-52
2021-12-23 15:04:07.192282,-88
2021-12-23 15:04:07.192288,-83
2021-12-23 15:04:07.192294,-71
2021-12-23 15:04:07.192301,-71
2021-12-23 15:04:07.192307,-45
2021-12-23 15:04:07.192314,-9
2021-12-23 15:04:07.192320,4
2021-12-23 15:04:07.192326,-11
2021-12-23 15:04:07.192333,-55
2021-12-23 15:04:07.192339,-57
2021-12-23 15:04:07.192346,-33
2021-12-23 15:04:07.192352,-33
2021-12-23 15:04:07.192358,-50
2021-12-23 15:04:07.192365,-76
2021-12-23 15:04:07.192371,-110
2021-12-23 15:04:07.192377,-114
2021-12-23 15:04:07.192384,-107
2021-12-23 15:04:07.192390,-119
2021-12-23 15:04:07.419313,-122
2021-12-23 15:04:07.419344,-110
2021-12-23 15:04:07.419355,-124
2021-12-23 15:04:07.419366,-145
2021-12-23 15:04:07.419376,-169
2021-12-23 15:04:07.419386,-169
2021-12-23 15:04:07.419395,47
2021-12-23 15:04:07.419406,504
2021-12-23 15:04:07.419415,796
2021-12-23 15:04:07.419425,617
2021-12-23 15:04:07.419435,19
2021-12-23 15:04:07.419445,-437
2021-12-23 15:04:07.419455,-282
2021-12-23 15:04:07.419464,-81
2021-12-23 15:04:07.419474,-186
2021-12-23 15:04:07.419484,-193
2021-12-23 15:04:07.419494,-95
2021-12-23 15:04:07.419504,-93
2021-12-23 15:04:07.419514,-100
2021-12-23 15:04:07.419523,-66
2021-12-23 15:04:07.419533,-47
2021-12-23 15:04:07.419543,-38
2021-12-23 15:04:07.419552,-14
2021-12-23 15:04:07.419562,9
2021-12-23 15:04:07.419572,31
2021-12-23 15:04:07.419582,59
2021-12-23 15:04:07.419592,88
2021-12-23 15:04:07.419602,102
2021-12-23 15:04:07.419612,129
2021-12-23 15:04:07.419621,167
2021-12-23 15:04:07.644306,196
2021-12-23 15:04:07.644336,222
2021-12-23 15:04:07.644347,258
2021-12-23 15:04:07.644357,272
2021-12-23 15:04:07.644367,270
2021-12-23 15:04:07.644376,296
2021-12-23 15:04:07.644386,313
2021-12-23 15:04:07.644395,306
2021-12-23 15:04:07.644404,289
2021-12-23 15:04:07.644414,241
2021-12-23 15:04:07.644424,162
2021-12-23 15:04:07.644433,78
2021-12-23 15:04:07.644442,-14
2021-12-23 15:04:07.644452,-93
2021-12-23 15:04:07.644462,-124
2021-12-23 15:04:07.644471,-136
2021-12-23 15:04:07.644481,-145
2021-12-23 15:04:07.644490,-184
2021-12-23 15:04:07.644500,-244
2021-12-23 15:04:07.644509,-239
2021-12-23 15:04:07.644519,-189
2021-12-23 15:04:07.644528,-184
2021-12-23 15:04:07.644538,-184
2021-12-23 15:04:07.644547,-153
2021-12-23 15:04:07.644556,-138
2021-12-23 15:04:07.644566,-133
2021-12-23 15:04:07.644575,-114
2021-12-23 15:04:07.644585,-105
2021-12-23 15:04:07.644594,-102
2021-12-23 15:04:07.644604,-90
2021-12-23 15:04:07.824252,-78
2021-12-23 15:04:07.824273,-76
2021-12-23 15:04:07.824281,-88
2021-12-23 15:04:07.824288,-95
2021-12-23 15:04:07.824294,-78
2021-12-23 15:04:07.824305,-74
2021-12-23 15:04:07.824312,-93
2021-12-23 15:04:07.824318,-83
2021-12-23 15:04:07.824325,-64
2021-12-23 15:04:07.824331,-64
2021-12-23 15:04:07.824338,-62
2021-12-23 15:04:07.824344,-74
2021-12-23 15:04:07.824350,-93
2021-12-23 15:04:07.824357,-78
2021-12-23 15:04:07.824363,-52
2021-12-23 15:04:07.824372,-55
2021-12-23 15:04:07.824378,-57
2021-12-23 15:04:07.824385,-71
2021-12-23 15:04:07.824391,-88
2021-12-23 15:04:07.824397,-64
2021-12-23 15:04:07.824404,-38
2021-12-23 15:04:07.824410,-45
2021-12-23 15:04:07.824417,-47
2021-12-23 15:04:07.824423,-59
2021-12-23 15:04:07.824429,-81
2021-12-23 15:04:07.824436,-76
2021-12-23 15:04:07.824442,-78
2021-12-23 15:04:07.824449,-98
2021-12-23 15:04:07.824455,-90
2021-12-23 15:04:07.824461,-78
2021-12-23 15:04:08.094160,-78
2021-12-23 15:04:08.094188,-66
2021-12-23 15:04:08.094200,-55
2021-12-23 15:04:08.094210,-59
2021-12-23 15:04:08.094220,-74
2021-12-23 15:04:08.094230,-88
2021-12-23 15:04:08.094240,-86
2021-12-23 15:04:08.094249,-83
2021-12-23 15:04:08.094259,-112
2021-12-23 15:04:08.094269,-122
2021-12-23 15:04:08.094279,-102
2021-12-23 15:04:08.094289,-112
2021-12-23 15:04:08.094298,-112
2021-12-23 15:04:08.094308,-69
2021-12-23 15:04:08.094318,-31
2021-12-23 15:04:08.094327,-26
2021-12-23 15:04:08.094337,-43
2021-12-23 15:04:08.094346,-57
2021-12-23 15:04:08.094356,-45
2021-12-23 15:04:08.094366,-23
2021-12-23 15:04:08.094376,-31
2021-12-23 15:04:08.094385,-50
2021-12-23 15:04:08.094395,-57
2021-12-23 15:04:08.094405,-69
2021-12-23 15:04:08.094414,-98
2021-12-23 15:04:08.094424,-90
2021-12-23 15:04:08.094434,-57
2021-12-23 15:04:08.094444,-59
2021-12-23 15:04:08.094454,-69
2021-12-23 15:04:08.094463,-52
2021-12-23 15:04:08.274256,-50
2021-12-23 15:04:08.274286,-90
2021-12-23 15:04:08.274298,-35
2021-12-23 15:04:08.274308,320
2021-12-23 15:04:08.274318,756
2021-12-23 15:04:08.274328,818
2021-12-23 15:04:08.274338,416
2021-12-23 15:04:08.274347,-155
2021-12-23 15:04:08.274357,-330
2021-12-23 15:04:08.274367,-90
2021-12-23 15:04:08.274377,-38
2021-12-23 15:04:08.274386,-124
2021-12-23 15:04:08.274396,-47
2021-12-23 15:04:08.274405,9
2021-12-23 15:04:08.274415,-21
2021-12-23 15:04:08.274425,-26
2021-12-23 15:04:08.274434,-26
2021-12-23 15:04:08.274444,-21
2021-12-23 15:04:08.274453,21
2021-12-23 15:04:08.274463,55
2021-12-23 15:04:08.274472,57
2021-12-23 15:04:08.274482,59
2021-12-23 15:04:08.274492,78
2021-12-23 15:04:08.274501,110
2021-12-23 15:04:08.274511,143
2021-12-23 15:04:08.274520,179
2021-12-23 15:04:08.274530,205
2021-12-23 15:04:08.274540,210
2021-12-23 15:04:08.274549,220
2021-12-23 15:04:08.274559,265
2021-12-23 15:04:08.588923,306
2021-12-23 15:04:08.588945,330
2021-12-23 15:04:08.588952,344
2021-12-23 15:04:08.588959,320
2021-12-23 15:04:08.588966,267
2021-12-23 15:04:08.588972,236
2021-12-23 15:04:08.588979,198
2021-12-23 15:04:08.588985,122
2021-12-23 15:04:08.588991,38
2021-12-23 15:04:08.588998,-57
2021-12-23 15:04:08.589004,-136
2021-12-23 15:04:08.589010,-160
2021-12-23 15:04:08.589017,-179
2021-12-23 15:04:08.589023,-193
2021-12-23 15:04:08.589029,-184
2021-12-23 15:04:08.589036,-181
2021-12-23 15:04:08.589042,-184
2021-12-23 15:04:08.589048,-162
2021-12-23 15:04:08.589055,-148
2021-12-23 15:04:08.589061,-160
2021-12-23 15:04:08.589067,-169
2021-12-23 15:04:08.589074,-179
2021-12-23 15:04:08.589080,-179
2021-12-23 15:04:08.589086,-160
2021-12-23 15:04:08.589093,-141
2021-12-23 15:04:08.589099,-129
2021-12-23 15:04:08.589106,-126
2021-12-23 15:04:08.589112,-133
2021-12-23 15:04:08.589118,-129
2021-12-23 15:04:08.589125,-136
2021-12-23 15:04:08.769499,-165
2021-12-23 15:04:08.769538,-155
2021-12-23 15:04:08.769550,-131
2021-12-23 15:04:08.769561,-143
2021-12-23 15:04:08.769571,-136
2021-12-23 15:04:08.769581,-98
2021-12-23 15:04:08.769590,-86
2021-12-23 15:04:08.769600,-81
2021-12-23 15:04:08.769610,-78
2021-12-23 15:04:08.769620,-100
2021-12-23 15:04:08.769630,-93
2021-12-23 15:04:08.769639,-64
2021-12-23 15:04:08.769649,-52
2021-12-23 15:04:08.769659,-64
2021-12-23 15:04:08.769669,-105
2021-12-23 15:04:08.769678,-141
2021-12-23 15:04:08.769688,-119
2021-12-23 15:04:08.769698,-83
2021-12-23 15:04:08.769708,-76
2021-12-23 15:04:08.769718,-71
2021-12-23 15:04:08.769727,-86
2021-12-23 15:04:08.769737,-110
2021-12-23 15:04:08.769747,-86
2021-12-23 15:04:08.769756,-50
2021-12-23 15:04:08.769766,-43
2021-12-23 15:04:08.769776,-40
2021-12-23 15:04:08.769786,-57
2021-12-23 15:04:08.769795,-64
2021-12-23 15:04:08.769805,-33
2021-12-23 15:04:08.769815,-16
2021-12-23 15:04:09.037891,-21
2021-12-23 15:04:09.037907,2
2021-12-23 15:04:09.037914,23
2021-12-23 15:04:09.037919,31
2021-12-23 15:04:09.037924,40
2021-12-23 15:04:09.037929,40
2021-12-23 15:04:09.037935,43
2021-12-23 15:04:09.037940,33
2021-12-23 15:04:09.037945,-7
2021-12-23 15:04:09.037950,-33
2021-12-23 15:04:09.037955,-19
2021-12-23 15:04:09.037960,-2
2021-12-23 15:04:09.037965,2
2021-12-23 15:04:09.037971,-2
2021-12-23 15:04:09.037976,-26
2021-12-23 15:04:09.037981,-40
2021-12-23 15:04:09.037986,-38
2021-12-23 15:04:09.037991,-35
2021-12-23 15:04:09.037996,-26
2021-12-23 15:04:09.038001,-43
2021-12-23 15:04:09.038006,-83
2021-12-23 15:04:09.038011,71
2021-12-23 15:04:09.038017,531
2021-12-23 15:04:09.038022,856
2021-12-23 15:04:09.038027,662
2021-12-23 15:04:09.038032,78
2021-12-23 15:04:09.038037,-354
2021-12-23 15:04:09.038042,-224
2021-12-23 15:04:09.038048,7
2021-12-23 15:04:09.038053,-43
2021-12-23 15:04:09.308515,-62
2021-12-23 15:04:09.308546,4
2021-12-23 15:04:09.308558,-7
2021-12-23 15:04:09.308568,-14
2021-12-23 15:04:09.308578,7
2021-12-23 15:04:09.308588,-19
2021-12-23 15:04:09.308598,-38
2021-12-23 15:04:09.308607,-7
2021-12-23 15:04:09.308617,16
2021-12-23 15:04:09.308627,26
2021-12-23 15:04:09.308637,55
2021-12-23 15:04:09.308647,86
2021-12-23 15:04:09.308656,98
2021-12-23 15:04:09.308666,93
2021-12-23 15:04:09.308676,95
2021-12-23 15:04:09.308686,119
2021-12-23 15:04:09.308696,150
2021-12-23 15:04:09.308705,169
2021-12-23 15:04:09.308715,167
2021-12-23 15:04:09.308725,172
2021-12-23 15:04:09.308735,200
2021-12-23 15:04:09.308744,222
2021-12-23 15:04:09.308754,217
2021-12-23 15:04:09.308763,205
2021-12-23 15:04:09.308773,162
2021-12-23 15:04:09.308783,71
2021-12-23 15:04:09.308793,-21
2021-12-23 15:04:09.308802,-88
2021-12-23 15:04:09.308812,-131
2021-12-23 15:04:09.308822,-169
2021-12-23 15:04:09.444225,-198
2021-12-23 15:04:09.444255,-208
2021-12-23 15:04:09.444267,-205
2021-12-23 15:04:09.444277,-200
2021-12-23 15:04:09.444287,-191
2021-12-23 15:04:09.444297,-165
2021-12-23 15:04:09.444307,-165
2021-12-23 15:04:09.444317,-184
2021-12-23 15:04:09.444327,-172
2021-12-23 15:04:09.444336,-153
2021-12-23 15:04:09.444346,-143
2021-12-23 15:04:09.444356,-126
2021-12-23 15:04:09.444366,-112
2021-12-23 15:04:09.444376,-107
2021-12-23 15:04:09.444386,-93
2021-12-23 15:04:09.444396,-81
2021-12-23 15:04:09.444405,-66
2021-12-23 15:04:09.444415,-50
2021-12-23 15:04:09.444425,-69
2021-12-23 15:04:09.444435,-93
2021-12-23 15:04:09.444444,-93
2021-12-23 15:04:09.444454,-88
2021-12-23 15:04:09.444464,-76
2021-12-23 15:04:09.444473,-69
2021-12-23 15:04:09.444483,-88
2021-12-23 15:04:09.444493,-88
2021-12-23 15:04:09.444504,-62
2021-12-23 15:04:09.444513,-52
2021-12-23 15:04:09.444523,-45
2021-12-23 15:04:09.444533,-21
2021-12-23 15:04:09.669313,-14
2021-12-23 15:04:09.669344,-26
2021-12-23 15:04:09.669355,-28
2021-12-23 15:04:09.669365,-11
2021-12-23 15:04:09.669375,16
2021-12-23 15:04:09.669385,21
2021-12-23 15:04:09.669395,-9
2021-12-23 15:04:09.669405,-14
2021-12-23 15:04:09.669415,7
2021-12-23 15:04:09.669424,-14
2021-12-23 15:04:09.669434,-81
2021-12-23 15:04:09.669455,-129
2021-12-23 15:04:09.669466,-117
2021-12-23 15:04:09.669475,-83
2021-12-23 15:04:09.669485,-71
2021-12-23 15:04:09.669495,-66
2021-12-23 15:04:09.669505,-57
2021-12-23 15:04:09.669514,-50
2021-12-23 15:04:09.669524,-43
2021-12-23 15:04:09.669533,-28
2021-12-23 15:04:09.669543,-47
2021-12-23 15:04:09.669553,-95
2021-12-23 15:04:09.669562,40
2021-12-23 15:04:09.669572,485
2021-12-23 15:04:09.669582,844
2021-12-23 15:04:09.669592,689
2021-12-23 15:04:09.669602,88
2021-12-23 15:04:09.669611,-394
2021-12-23 15:04:09.669621,-265
2021-12-23 15:04:09.669631,-7
2021-12-23 15:04:09.893534,-66
2021-12-23 15:04:09.893553,-88
2021-12-23 15:04:09.893561,-9
2021-12-23 15:04:09.893567,-16
2021-12-23 15:04:09.893574,-38
2021-12-23 15:04:09.893581,-33
2021-12-23 15:04:09.893587,-26
2021-12-23 15:04:09.893594,4
2021-12-23 15:04:09.893600,33
2021-12-23 15:04:09.893607,38
2021-12-23 15:04:09.893613,45
2021-12-23 15:04:09.893620,50
2021-12-23 15:04:09.893626,71
2021-12-23 15:04:09.893633,114
2021-12-23 15:04:09.893639,148
2021-12-23 15:04:09.893646,172
2021-12-23 15:04:09.893652,200
2021-12-23 15:04:09.893658,220
2021-12-23 15:04:09.893665,244
2021-12-23 15:04:09.893671,275
2021-12-23 15:04:09.893678,287
2021-12-23 15:04:09.893684,277
2021-12-23 15:04:09.893690,282
2021-12-23 15:04:09.893697,272
2021-12-23 15:04:09.893703,210
2021-12-23 15:04:09.893710,133
2021-12-23 15:04:09.893716,57
2021-12-23 15:04:09.893723,-31
2021-12-23 15:04:09.893729,-124
2021-12-23 15:04:09.893736,-174
2021-12-23 15:04:10.119290,-189
2021-12-23 15:04:10.119320,-191
2021-12-23 15:04:10.119332,-200
2021-12-23 15:04:10.119342,-220
2021-12-23 15:04:10.119352,-236
2021-12-23 15:04:10.119361,-232
2021-12-23 15:04:10.119371,-198
2021-12-23 15:04:10.119381,-172
2021-12-23 15:04:10.119391,-169
2021-12-23 15:04:10.119400,-174
2021-12-23 15:04:10.119410,-189
2021-12-23 15:04:10.119420,-189
2021-12-23 15:04:10.119430,-157
2021-12-23 15:04:10.119440,-126
2021-12-23 15:04:10.119449,-122
2021-12-23 15:04:10.119459,-141
2021-12-23 15:04:10.119469,-169
2021-12-23 15:04:10.119479,-153
2021-12-23 15:04:10.119488,-112
2021-12-23 15:04:10.119498,-95
2021-12-23 15:04:10.119507,-88
2021-12-23 15:04:10.119517,-76
2021-12-23 15:04:10.119527,-76
2021-12-23 15:04:10.119536,-64
2021-12-23 15:04:10.119546,-45
2021-12-23 15:04:10.119555,-40
2021-12-23 15:04:10.119565,-57
2021-12-23 15:04:10.119575,-78
2021-12-23 15:04:10.119584,-71
2021-12-23 15:04:10.119594,-50
2021-12-23 15:04:10.389019,-38
2021-12-23 15:04:10.389040,-23
2021-12-23 15:04:10.389047,-19
2021-12-23 15:04:10.389054,-50
2021-12-23 15:04:10.389061,-74
2021-12-23 15:04:10.389067,-55
2021-12-23 15:04:10.389073,-28
2021-12-23 15:04:10.389080,-23
2021-12-23 15:04:10.389086,-14
2021-12-23 15:04:10.389092,-11
2021-12-23 15:04:10.389099,-23
2021-12-23 15:04:10.389105,-16
2021-12-23 15:04:10.389111,-4
2021-12-23 15:04:10.389118,-4
2021-12-23 15:04:10.389124,-11
2021-12-23 15:04:10.389130,-26
2021-12-23 15:04:10.389137,-28
2021-12-23 15:04:10.389143,-4
2021-12-23 15:04:10.389150,7
2021-12-23 15:04:10.389156,9
2021-12-23 15:04:10.389162,19
2021-12-23 15:04:10.389168,16
2021-12-23 15:04:10.389175,11
2021-12-23 15:04:10.389181,28
2021-12-23 15:04:10.389187,21
2021-12-23 15:04:10.389194,-23
2021-12-23 15:04:10.389200,47
2021-12-23 15:04:10.389206,413
2021-12-23 15:04:10.389213,837
2021-12-23 15:04:10.389219,885
2021-12-23 15:04:10.614329,461
2021-12-23 15:04:10.614350,-136
2021-12-23 15:04:10.614357,-289
2021-12-23 15:04:10.614363,-4
2021-12-23 15:04:10.614369,52
2021-12-23 15:04:10.614374,-47
2021-12-23 15:04:10.614379,16
2021-12-23 15:04:10.614384,62
2021-12-23 15:04:10.614389,7
2021-12-23 15:04:10.614394,-11
2021-12-23 15:04:10.614400,23
2021-12-23 15:04:10.614405,52
2021-12-23 15:04:10.614410,66
2021-12-23 15:04:10.614415,88
2021-12-23 15:04:10.614420,86
2021-12-23 15:04:10.614425,66
2021-12-23 15:04:10.614429,88
2021-12-23 15:04:10.614434,138
2021-12-23 15:04:10.614439,162
2021-12-23 15:04:10.614444,184
2021-12-23 15:04:10.614449,210
2021-12-23 15:04:10.614454,212
2021-12-23 15:04:10.614459,205
2021-12-23 15:04:10.614464,234
2021-12-23 15:04:10.614469,284
2021-12-23 15:04:10.614474,308
2021-12-23 15:04:10.614479,311
2021-12-23 15:04:10.614484,306
2021-12-23 15:04:10.614489,296
2021-12-23 15:04:10.614494,253
2021-12-23 15:04:10.839246,155
2021-12-23 15:04:10.839276,45
2021-12-23 15:04:10.839288,-31
2021-12-23 15:04:10.839298,-88
2021-12-23 15:04:10.839308,-124
2021-12-23 15:04:10.839318,-131
2021-12-23 15:04:10.839328,-131
2021-12-23 15:04:10.839338,-143
2021-12-23 15:04:10.839360,-172
2021-12-23 15:04:10.839370,-181
2021-12-23 15:04:10.839381,-155
2021-12-23 15:04:10.839390,-122
2021-12-23 15:04:10.839400,-112
2021-12-23 15:04:10.839410,-117
2021-12-23 15:04:10.839420,-133
2021-12-23 15:04:10.839429,-133
2021-12-23 15:04:10.839439,-110
2021-12-23 15:04:10.839449,-112
2021-12-23 15:04:10.839459,-129
2021-12-23 15:04:10.839469,-122
2021-12-23 15:04:10.839479,-107
2021-12-23 15:04:10.839488,-105
2021-12-23 15:04:10.839498,-98
2021-12-23 15:04:10.839508,-78
2021-12-23 15:04:10.839518,-66
2021-12-23 15:04:10.839527,-66
2021-12-23 15:04:10.839537,-71
2021-12-23 15:04:10.839547,-66
2021-12-23 15:04:10.839557,-52
2021-12-23 15:04:10.839567,-38
2021-12-23 15:04:11.063531,-26
2021-12-23 15:04:11.063550,-19
2021-12-23 15:04:11.063558,-33
2021-12-23 15:04:11.063564,-59
2021-12-23 15:04:11.063571,-52
2021-12-23 15:04:11.063577,-28
2021-12-23 15:04:11.063584,-28
2021-12-23 15:04:11.063590,-55
2021-12-23 15:04:11.063596,-78
2021-12-23 15:04:11.063603,-86
2021-12-23 15:04:11.063609,-88
2021-12-23 15:04:11.063615,-86
2021-12-23 15:04:11.063622,-95
2021-12-23 15:04:11.063628,-122
2021-12-23 15:04:11.063634,-136
2021-12-23 15:04:11.063641,-126
2021-12-23 15:04:11.063647,-110
2021-12-23 15:04:11.063653,-93
2021-12-23 15:04:11.063660,-86
2021-12-23 15:04:11.063666,-93
2021-12-23 15:04:11.063672,-93
2021-12-23 15:04:11.063678,-86
2021-12-23 15:04:11.063685,-71
2021-12-23 15:04:11.063691,-57
2021-12-23 15:04:11.063697,-52
2021-12-23 15:04:11.063704,-59
2021-12-23 15:04:11.063710,-64
2021-12-23 15:04:11.063716,-83
2021-12-23 15:04:11.063723,-110
2021-12-23 15:04:11.063729,-100
2021-12-23 15:04:11.422381,-83
2021-12-23 15:04:11.422404,-90
2021-12-23 15:04:11.422414,-90
2021-12-23 15:04:11.422421,-71
2021-12-23 15:04:11.422428,-57
2021-12-23 15:04:11.422434,-64
2021-12-23 15:04:11.422441,-90
2021-12-23 15:04:11.422447,-112
2021-12-23 15:04:11.422453,-107
2021-12-23 15:04:11.422459,-90
2021-12-23 15:04:11.422466,-76
2021-12-23 15:04:11.422472,-69
2021-12-23 15:04:11.422478,-86
2021-12-23 15:04:11.422484,-102
2021-12-23 15:04:11.422491,-90
2021-12-23 15:04:11.422497,-81
2021-12-23 15:04:11.422503,-71
2021-12-23 15:04:11.422509,-50
2021-12-23 15:04:11.422516,-50
2021-12-23 15:04:11.422522,-90
2021-12-23 15:04:11.422528,-117
2021-12-23 15:04:11.422534,76
2021-12-23 15:04:11.422540,555
2021-12-23 15:04:11.422547,923
2021-12-23 15:04:11.422553,825
2021-12-23 15:04:11.422559,248
2021-12-23 15:04:11.422565,-320
2021-12-23 15:04:11.422572,-241
2021-12-23 15:04:11.422578,52
2021-12-23 15:04:11.422584,-19
2021-12-23 15:04:11.513711,-95
2021-12-23 15:04:11.513732,2
2021-12-23 15:04:11.513740,23
2021-12-23 15:04:11.513747,-11
2021-12-23 15:04:11.513753,19
2021-12-23 15:04:11.513759,57
2021-12-23 15:04:11.513765,45
2021-12-23 15:04:11.513772,40
2021-12-23 15:04:11.513778,71
2021-12-23 15:04:11.513784,90
2021-12-23 15:04:11.513790,100
2021-12-23 15:04:11.513796,110
2021-12-23 15:04:11.513803,107
2021-12-23 15:04:11.513809,133
2021-12-23 15:04:11.513815,177
2021-12-23 15:04:11.513821,200
2021-12-23 15:04:11.513827,229
2021-12-23 15:04:11.513833,248
2021-12-23 15:04:11.513840,258
2021-12-23 15:04:11.513846,287
2021-12-23 15:04:11.513852,313
2021-12-23 15:04:11.513858,315
2021-12-23 15:04:11.513864,315
2021-12-23 15:04:11.513870,299
2021-12-23 15:04:11.513877,256
2021-12-23 15:04:11.513883,193
2021-12-23 15:04:11.513889,117
2021-12-23 15:04:11.513895,38
2021-12-23 15:04:11.513902,-23
2021-12-23 15:04:11.513908,-69
2021-12-23 15:04:11.784132,-95
2021-12-23 15:04:11.784155,-100
2021-12-23 15:04:11.784163,-117
2021-12-23 15:04:11.784169,-162
2021-12-23 15:04:11.784176,-191
2021-12-23 15:04:11.784183,-189
2021-12-23 15:04:11.784189,-181
2021-12-23 15:04:11.784196,-160
2021-12-23 15:04:11.784202,-157
2021-12-23 15:04:11.784208,-177
2021-12-23 15:04:11.784215,-181
2021-12-23 15:04:11.784221,-177
2021-12-23 15:04:11.784227,-169
2021-12-23 15:04:11.784234,-153
2021-12-23 15:04:11.784240,-157
2021-12-23 15:04:11.784246,-169
2021-12-23 15:04:11.784253,-153
2021-12-23 15:04:11.784259,-138
2021-12-23 15:04:11.784265,-131
2021-12-23 15:04:11.784272,-107
2021-12-23 15:04:11.784278,-102
2021-12-23 15:04:11.784284,-105
2021-12-23 15:04:11.784291,-95
2021-12-23 15:04:11.784297,-90
2021-12-23 15:04:11.784303,-88
2021-12-23 15:04:11.784309,-69
2021-12-23 15:04:11.784316,-50
2021-12-23 15:04:11.784322,-55
2021-12-23 15:04:11.784329,-62
2021-12-23 15:04:11.784336,-55
2021-12-23 15:04:11.964265,-38
2021-12-23 15:04:11.964295,-38
2021-12-23 15:04:11.964306,-40
2021-12-23 15:04:11.964316,-40
2021-12-23 15:04:11.964326,-64
2021-12-23 15:04:11.964335,-105
2021-12-23 15:04:11.964345,-105
2021-12-23 15:04:11.964355,-86
2021-12-23 15:04:11.964364,-98
2021-12-23 15:04:11.964374,-119
2021-12-23 15:04:11.964383,-124
2021-12-23 15:04:11.964393,-131
2021-12-23 15:04:11.964403,-126
2021-12-23 15:04:11.964412,-105
2021-12-23 15:04:11.964422,-100
2021-12-23 15:04:11.964431,-114
2021-12-23 15:04:11.964441,-133
2021-12-23 15:04:11.964450,-131
2021-12-23 15:04:11.964460,-107
2021-12-23 15:04:11.964470,-90
2021-12-23 15:04:11.964479,-88
2021-12-23 15:04:11.964489,-90
2021-12-23 15:04:11.964498,-98
2021-12-23 15:04:11.964517,-95
2021-12-23 15:04:11.964528,-69
2021-12-23 15:04:11.964538,-45
2021-12-23 15:04:11.964547,-26
2021-12-23 15:04:11.964557,-23
2021-12-23 15:04:11.964566,-35
2021-12-23 15:04:11.964576,-31
2021-12-23 15:04:12.279225,-14
2021-12-23 15:04:12.279255,-11
2021-12-23 15:04:12.279267,-26
2021-12-23 15:04:12.279277,-62
2021-12-23 15:04:12.279287,-90
2021-12-23 15:04:12.279297,-71
2021-12-23 15:04:12.279307,-38
2021-12-23 15:04:12.279317,-33
2021-12-23 15:04:12.279326,-62
2021-12-23 15:04:12.279336,-124
2021-12-23 15:04:12.279346,-153
2021-12-23 15:04:12.279355,-133
2021-12-23 15:04:12.279365,-174
2021-12-23 15:04:12.279375,-184
2021-12-23 15:04:12.279385,112
2021-12-23 15:04:12.279394,593
2021-12-23 15:04:12.279404,813
2021-12-23 15:04:12.279414,569
2021-12-23 15:04:12.279424,-57
2021-12-23 15:04:12.279433,-435
2021-12-23 15:04:12.279443,-181
2021-12-23 15:04:12.279453,-4
2021-12-23 15:04:12.279463,-145
2021-12-23 15:04:12.279472,-136
2021-12-23 15:04:12.279482,-43
2021-12-23 15:04:12.279492,-45
2021-12-23 15:04:12.279501,-23
2021-12-23 15:04:12.279511,14
2021-12-23 15:04:12.279521,7
2021-12-23 15:04:12.279530,14
2021-12-23 15:04:12.504250,52
2021-12-23 15:04:12.504280,71
2021-12-23 15:04:12.504292,62
2021-12-23 15:04:12.504302,71
2021-12-23 15:04:12.504312,119
2021-12-23 15:04:12.504322,155
2021-12-23 15:04:12.504332,162
2021-12-23 15:04:12.504342,191
2021-12-23 15:04:12.504351,220
2021-12-23 15:04:12.504361,220
2021-12-23 15:04:12.504371,229
2021-12-23 15:04:12.504380,260
2021-12-23 15:04:12.504390,299
2021-12-23 15:04:12.504400,342
2021-12-23 15:04:12.504409,342
2021-12-23 15:04:12.504419,291
2021-12-23 15:04:12.504429,244
2021-12-23 15:04:12.504439,212
2021-12-23 15:04:12.504449,160
2021-12-23 15:04:12.504459,78
2021-12-23 15:04:12.504468,-19
2021-12-23 15:04:12.504478,-107
2021-12-23 15:04:12.504488,-148
2021-12-23 15:04:12.504497,-150
2021-12-23 15:04:12.504507,-136
2021-12-23 15:04:12.504517,-122
2021-12-23 15:04:12.504527,-126
2021-12-23 15:04:12.504536,-136
2021-12-23 15:04:12.504546,-122
2021-12-23 15:04:12.504555,-98
2021-12-23 15:04:12.773644,-88
2021-12-23 15:04:12.773675,-86
2021-12-23 15:04:12.773686,-83
2021-12-23 15:04:12.773697,-81
2021-12-23 15:04:12.773707,-62
2021-12-23 15:04:12.773717,-45
2021-12-23 15:04:12.773726,-40
2021-12-23 15:04:12.773736,-47
2021-12-23 15:04:12.773746,-69
2021-12-23 15:04:12.773756,-88
2021-12-23 15:04:12.773766,-81
2021-12-23 15:04:12.773775,-76
2021-12-23 15:04:12.773785,-74
2021-12-23 15:04:12.773795,-62
2021-12-23 15:04:12.773805,-64
2021-12-23 15:04:12.773815,-102
2021-12-23 15:04:12.773824,-136
2021-12-23 15:04:12.773834,-131
2021-12-23 15:04:12.773844,-112
2021-12-23 15:04:12.773854,-114
2021-12-23 15:04:12.773863,-143
2021-12-23 15:04:12.773873,-145
2021-12-23 15:04:12.773883,-117
2021-12-23 15:04:12.773892,-95
2021-12-23 15:04:12.773902,-88
2021-12-23 15:04:12.773912,-81
2021-12-23 15:04:12.773922,-86
2021-12-23 15:04:12.773931,-88
2021-12-23 15:04:12.773941,-66
2021-12-23 15:04:12.773951,-38
2021-12-23 15:04:12.909209,-28
2021-12-23 15:04:12.909240,-57
2021-12-23 15:04:12.909251,-95
2021-12-23 15:04:12.909262,-105
2021-12-23 15:04:12.909271,-102
2021-12-23 15:04:12.909281,-114
2021-12-23 15:04:12.909291,-110
2021-12-23 15:04:12.909301,-102
2021-12-23 15:04:12.909310,-114
2021-12-23 15:04:12.909320,-117
2021-12-23 15:04:12.909330,-100
2021-12-23 15:04:12.909339,-83
2021-12-23 15:04:12.909349,-81
2021-12-23 15:04:12.909359,-105
2021-12-23 15:04:12.909368,-124
2021-12-23 15:04:12.909378,-107
2021-12-23 15:04:12.909387,-88
2021-12-23 15:04:12.909397,-81
2021-12-23 15:04:12.909407,-86
2021-12-23 15:04:12.909416,-98
2021-12-23 15:04:12.909426,-90
2021-12-23 15:04:12.909435,-78
2021-12-23 15:04:12.909445,-74
2021-12-23 15:04:12.909454,-55
2021-12-23 15:04:12.909464,-31
2021-12-23 15:04:12.909473,-19
2021-12-23 15:04:12.909483,-26
2021-12-23 15:04:12.909493,-35
2021-12-23 15:04:12.909502,-33
2021-12-23 15:04:12.909512,-16
2021-12-23 15:04:13.134280,-16
2021-12-23 15:04:13.134310,-31
2021-12-23 15:04:13.134322,-35
2021-12-23 15:04:13.134332,-35
2021-12-23 15:04:13.134341,-28
2021-12-23 15:04:13.134351,-9
2021-12-23 15:04:13.134361,-21
2021-12-23 15:04:13.134370,-50
2021-12-23 15:04:13.134380,-40
2021-12-23 15:04:13.134390,-26
2021-12-23 15:04:13.134399,-59
2021-12-23 15:04:13.134409,-88
2021-12-23 15:04:13.134419,76
2021-12-23 15:04:13.134429,509
2021-12-23 15:04:13.134438,861
2021-12-23 15:04:13.134448,746
2021-12-23 15:04:13.134458,172
2021-12-23 15:04:13.134468,-308
2021-12-23 15:04:13.134477,-205
2021-12-23 15:04:13.134487,16
2021-12-23 15:04:13.134497,-69
2021-12-23 15:04:13.134506,-145
2021-12-23 15:04:13.134516,-81
2021-12-23 15:04:13.134526,-50
2021-12-23 15:04:13.134535,-62
2021-12-23 15:04:13.134545,-38
2021-12-23 15:04:13.134555,-2
2021-12-23 15:04:13.134564,9
2021-12-23 15:04:13.134574,21
2021-12-23 15:04:13.134584,43
2021-12-23 15:04:13.447898,59
2021-12-23 15:04:13.447928,76
2021-12-23 15:04:13.447939,102
2021-12-23 15:04:13.447950,122
2021-12-23 15:04:13.447959,143
2021-12-23 15:04:13.447969,165
2021-12-23 15:04:13.447979,174
2021-12-23 15:04:13.447989,191
2021-12-23 15:04:13.447998,236
2021-12-23 15:04:13.448008,265
2021-12-23 15:04:13.448018,279
2021-12-23 15:04:13.448027,284
2021-12-23 15:04:13.448037,272
2021-12-23 15:04:13.448047,275
2021-12-23 15:04:13.448056,279
2021-12-23 15:04:13.448066,236
2021-12-23 15:04:13.448076,165
2021-12-23 15:04:13.448085,95
2021-12-23 15:04:13.448095,14
2021-12-23 15:04:13.448105,-45
2021-12-23 15:04:13.448114,-74
2021-12-23 15:04:13.448124,-100
2021-12-23 15:04:13.448133,-129
2021-12-23 15:04:13.448143,-157
2021-12-23 15:04:13.448153,-165
2021-12-23 15:04:13.448162,-138
2021-12-23 15:04:13.448172,-119
2021-12-23 15:04:13.448182,-119
2021-12-23 15:04:13.448191,-117
2021-12-23 15:04:13.448206,-119
2021-12-23 15:04:13.629290,-119
2021-12-23 15:04:13.629320,-100
2021-12-23 15:04:13.629332,-93
2021-12-23 15:04:13.629342,-100
2021-12-23 15:04:13.629352,-110
2021-12-23 15:04:13.629361,-122
2021-12-23 15:04:13.629371,-124
2021-12-23 15:04:13.629381,-95
2021-12-23 15:04:13.629390,-74
2021-12-23 15:04:13.629400,-76
2021-12-23 15:04:13.629410,-81
2021-12-23 15:04:13.629420,-95
2021-12-23 15:04:13.629429,-98
2021-12-23 15:04:13.629439,-76
2021-12-23 15:04:13.629449,-69
2021-12-23 15:04:13.629459,-76
2021-12-23 15:04:13.629469,-71
2021-12-23 15:04:13.629479,-66
2021-12-23 15:04:13.629488,-66
2021-12-23 15:04:13.629498,-52
2021-12-23 15:04:13.629507,-52
2021-12-23 15:04:13.629517,-74
2021-12-23 15:04:13.629527,-86
2021-12-23 15:04:13.629536,-110
2021-12-23 15:04:13.629546,-131
2021-12-23 15:04:13.629556,-129
2021-12-23 15:04:13.629565,-145
2021-12-23 15:04:13.629575,-196
2021-12-23 15:04:13.629585,-210
2021-12-23 15:04:13.629594,-186
2021-12-23 15:04:13.808722,-167
2021-12-23 15:04:13.808740,-150
2021-12-23 15:04:13.808746,-136
2021-12-23 15:04:13.808752,-136
2021-12-23 15:04:13.808757,-141
2021-12-23 15:04:13.808762,-131
2021-12-23 15:04:13.808767,-110
2021-12-23 15:04:13.808772,-88
2021-12-23 15:04:13.808777,-83
2021-12-23 15:04:13.808783,-86
2021-12-23 15:04:13.808788,-105
2021-12-23 15:04:13.808793,-119
2021-12-23 15:04:13.808798,-95
2021-12-23 15:04:13.808803,-69
2021-12-23 15:04:13.808808,-69
2021-12-23 15:04:13.808813,-83
2021-12-23 15:04:13.808818,-102
2021-12-23 15:04:13.808823,-100
2021-12-23 15:04:13.808828,-59
2021-12-23 15:04:13.808833,-16
2021-12-23 15:04:13.808838,-11
2021-12-23 15:04:13.808844,-31
2021-12-23 15:04:13.808849,-38
2021-12-23 15:04:13.808854,-28
2021-12-23 15:04:13.808859,-21
2021-12-23 15:04:13.808864,-23
2021-12-23 15:04:13.808869,-35
2021-12-23 15:04:13.808874,-64
2021-12-23 15:04:13.808879,-76
2021-12-23 15:04:13.808884,-52
2021-12-23 15:04:14.034242,-33
2021-12-23 15:04:14.034273,-26
2021-12-23 15:04:14.034284,-16
2021-12-23 15:04:14.034294,-38
2021-12-23 15:04:14.034304,-88
2021-12-23 15:04:14.034314,-124
2021-12-23 15:04:14.034324,-40
2021-12-23 15:04:14.034334,325
2021-12-23 15:04:14.034344,768
2021-12-23 15:04:14.034354,779
2021-12-23 15:04:14.034364,284
2021-12-23 15:04:14.034373,-236
2021-12-23 15:04:14.034383,-282
2021-12-23 15:04:14.034393,-35
2021-12-23 15:04:14.034403,-14
2021-12-23 15:04:14.034413,-95
2021-12-23 15:04:14.034422,-45
2021-12-23 15:04:14.034432,-2
2021-12-23 15:04:14.034441,-4
2021-12-23 15:04:14.034451,16
2021-12-23 15:04:14.034461,35
2021-12-23 15:04:14.034471,23
2021-12-23 15:04:14.034481,38
2021-12-23 15:04:14.034490,78
2021-12-23 15:04:14.034500,102
2021-12-23 15:04:14.034510,114
2021-12-23 15:04:14.034519,131
2021-12-23 15:04:14.034529,138
2021-12-23 15:04:14.034539,143
2021-12-23 15:04:14.034549,153
2021-12-23 15:04:14.304268,157
2021-12-23 15:04:14.304297,167
2021-12-23 15:04:14.304309,150
2021-12-23 15:04:14.304319,114
2021-12-23 15:04:14.304329,133
2021-12-23 15:04:14.304339,196
2021-12-23 15:04:14.304349,222
2021-12-23 15:04:14.304358,222
2021-12-23 15:04:14.304368,205
2021-12-23 15:04:14.304378,145
2021-12-23 15:04:14.304387,83
2021-12-23 15:04:14.304397,40
2021-12-23 15:04:14.304406,-14
2021-12-23 15:04:14.304416,-74
2021-12-23 15:04:14.304426,-129
2021-12-23 15:04:14.304435,-174
2021-12-23 15:04:14.304445,-179
2021-12-23 15:04:14.304455,-160
2021-12-23 15:04:14.304464,-155
2021-12-23 15:04:14.304474,-148
2021-12-23 15:04:14.304483,-145
2021-12-23 15:04:14.304493,-169
2021-12-23 15:04:14.304503,-179
2021-12-23 15:04:14.304512,-162
2021-12-23 15:04:14.304522,-160
2021-12-23 15:04:14.304532,-172
2021-12-23 15:04:14.304542,-167
2021-12-23 15:04:14.304551,-165
2021-12-23 15:04:14.304561,-157
2021-12-23 15:04:14.304571,-141
2021-12-23 15:04:14.663615,-136
2021-12-23 15:04:14.663645,-157
2021-12-23 15:04:14.663657,-174
2021-12-23 15:04:14.663667,-165
2021-12-23 15:04:14.663677,-141
2021-12-23 15:04:14.663687,-122
2021-12-23 15:04:14.663697,-105
2021-12-23 15:04:14.663706,-105
2021-12-23 15:04:14.663716,-136
2021-12-23 15:04:14.663726,-155
2021-12-23 15:04:14.663735,-131
2021-12-23 15:04:14.663745,-102
2021-12-23 15:04:14.663754,-93
2021-12-23 15:04:14.663764,-93
2021-12-23 15:04:14.663774,-117
2021-12-23 15:04:14.663783,-133
2021-12-23 15:04:14.663793,-107
2021-12-23 15:04:14.663803,-78
2021-12-23 15:04:14.663812,-71
2021-12-23 15:04:14.663822,-71
2021-12-23 15:04:14.663831,-76
2021-12-23 15:04:14.663841,-76
2021-12-23 15:04:14.663851,-62
2021-12-23 15:04:14.663860,-43
2021-12-23 15:04:14.663870,-33
2021-12-23 15:04:14.663879,-31
2021-12-23 15:04:14.663889,-35
2021-12-23 15:04:14.663899,-31
2021-12-23 15:04:14.663908,-16
2021-12-23 15:04:14.663918,-4
2021-12-23 15:04:14.797947,-2
2021-12-23 15:04:14.797967,0
2021-12-23 15:04:14.797974,-14
2021-12-23 15:04:14.797981,-38
2021-12-23 15:04:14.797988,-35
2021-12-23 15:04:14.797994,-7
2021-12-23 15:04:14.798000,-7
2021-12-23 15:04:14.798006,-40
2021-12-23 15:04:14.798013,-62
2021-12-23 15:04:14.798019,-43
2021-12-23 15:04:14.798025,2
2021-12-23 15:04:14.798032,28
2021-12-23 15:04:14.798038,19
2021-12-23 15:04:14.798044,-2
2021-12-23 15:04:14.798050,-7
2021-12-23 15:04:14.798057,-9
2021-12-23 15:04:14.798063,-9
2021-12-23 15:04:14.798070,9
2021-12-23 15:04:14.798076,14
2021-12-23 15:04:14.798082,-11
2021-12-23 15:04:14.798088,-23
2021-12-23 15:04:14.798095,-11
2021-12-23 15:04:14.798101,7
2021-12-23 15:04:14.798107,14
2021-12-23 15:04:14.798114,7
2021-12-23 15:04:14.798120,-23
2021-12-23 15:04:14.798126,-59
2021-12-23 15:04:14.798132,43
2021-12-23 15:04:14.798139,435
2021-12-23 15:04:14.798145,842
2021-12-23 15:04:15.024156,756
2021-12-23 15:04:15.024177,193
2021-12-23 15:04:15.024186,-270
2021-12-23 15:04:15.024193,-198
2021-12-23 15:04:15.024200,14
2021-12-23 15:04:15.024206,-55
2021-12-23 15:04:15.024213,-126
2021-12-23 15:04:15.024219,-62
2021-12-23 15:04:15.024225,-40
2021-12-23 15:04:15.024232,-50
2021-12-23 15:04:15.024238,-16
2021-12-23 15:04:15.024244,14
2021-12-23 15:04:15.024251,-4
2021-12-23 15:04:15.024257,-21
2021-12-23 15:04:15.024264,9
2021-12-23 15:04:15.024270,45
2021-12-23 15:04:15.024276,62
2021-12-23 15:04:15.024283,90
2021-12-23 15:04:15.024289,105
2021-12-23 15:04:15.024296,102
2021-12-23 15:04:15.024302,133
2021-12-23 15:04:15.024308,181
2021-12-23 15:04:15.024314,224
2021-12-23 15:04:15.024321,258
2021-12-23 15:04:15.024327,272
2021-12-23 15:04:15.024333,289
2021-12-23 15:04:15.024340,308
2021-12-23 15:04:15.024346,287
2021-12-23 15:04:15.024356,256
2021-12-23 15:04:15.024363,236
2021-12-23 15:04:15.203565,212
2021-12-23 15:04:15.203585,167
2021-12-23 15:04:15.203593,88
2021-12-23 15:04:15.203599,4
2021-12-23 15:04:15.203606,-59
2021-12-23 15:04:15.203612,-117
2021-12-23 15:04:15.203619,-172
2021-12-23 15:04:15.203625,-200
2021-12-23 15:04:15.203631,-203
2021-12-23 15:04:15.203637,-193
2021-12-23 15:04:15.203644,-179
2021-12-23 15:04:15.203650,-186
2021-12-23 15:04:15.203656,-205
2021-12-23 15:04:15.203662,-224
2021-12-23 15:04:15.203669,-244
2021-12-23 15:04:15.203675,-229
2021-12-23 15:04:15.203681,-191
2021-12-23 15:04:15.203687,-191
2021-12-23 15:04:15.203694,-212
2021-12-23 15:04:15.203700,-186
2021-12-23 15:04:15.203706,-155
2021-12-23 15:04:15.203712,-157
2021-12-23 15:04:15.203719,-141
2021-12-23 15:04:15.203725,-119
2021-12-23 15:04:15.203731,-129
2021-12-23 15:04:15.203738,-129
2021-12-23 15:04:15.203744,-102
2021-12-23 15:04:15.203750,-86
2021-12-23 15:04:15.203756,-81
2021-12-23 15:04:15.203763,-76
2021-12-23 15:04:15.518095,-76
2021-12-23 15:04:15.518125,-62
2021-12-23 15:04:15.518137,-43
2021-12-23 15:04:15.518147,-43
2021-12-23 15:04:15.518157,-50
2021-12-23 15:04:15.518167,-64
2021-12-23 15:04:15.518177,-69
2021-12-23 15:04:15.518187,-47
2021-12-23 15:04:15.518197,-43
2021-12-23 15:04:15.518206,-78
2021-12-23 15:04:15.518216,-105
2021-12-23 15:04:15.518226,-100
2021-12-23 15:04:15.518236,-93
2021-12-23 15:04:15.518246,-76
2021-12-23 15:04:15.518255,-57
2021-12-23 15:04:15.518265,-52
2021-12-23 15:04:15.518275,-55
2021-12-23 15:04:15.518285,-45
2021-12-23 15:04:15.518295,-31
2021-12-23 15:04:15.518304,-19
2021-12-23 15:04:15.518314,-21
2021-12-23 15:04:15.518324,-19
2021-12-23 15:04:15.518333,-2
2021-12-23 15:04:15.518343,2
2021-12-23 15:04:15.518353,-9
2021-12-23 15:04:15.518363,4
2021-12-23 15:04:15.518373,33
2021-12-23 15:04:15.518383,38
2021-12-23 15:04:15.518393,35
2021-12-23 15:04:15.518402,62
2021-12-23 15:04:15.654247,81
2021-12-23 15:04:15.654277,76
2021-12-23 15:04:15.654289,71
2021-12-23 15:04:15.654299,64
2021-12-23 15:04:15.654309,28
2021-12-23 15:04:15.654319,-19
2021-12-23 15:04:15.654328,-4
2021-12-23 15:04:15.654338,33
2021-12-23 15:04:15.654348,33
2021-12-23 15:04:15.654358,21
2021-12-23 15:04:15.654367,23
2021-12-23 15:04:15.654377,21
2021-12-23 15:04:15.654387,11
2021-12-23 15:04:15.654397,21
2021-12-23 15:04:15.654406,16
2021-12-23 15:04:15.654416,-43
2021-12-23 15:04:15.654426,19
2021-12-23 15:04:15.654436,411
2021-12-23 15:04:15.654445,823
2021-12-23 15:04:15.654455,765
2021-12-23 15:04:15.654465,244
2021-12-23 15:04:15.654475,-275
2021-12-23 15:04:15.654484,-306
2021-12-23 15:04:15.654494,-50
2021-12-23 15:04:15.654504,-21
2021-12-23 15:04:15.654513,-93
2021-12-23 15:04:15.654523,-35
2021-12-23 15:04:15.654533,-4
2021-12-23 15:04:15.654543,-38
2021-12-23 15:04:15.654552,-33
2021-12-23 15:04:15.879251,-2
2021-12-23 15:04:15.879281,11
2021-12-23 15:04:15.879293,19
2021-12-23 15:04:15.879303,4
2021-12-23 15:04:15.879313,-7
2021-12-23 15:04:15.879323,21
2021-12-23 15:04:15.879332,57
2021-12-23 15:04:15.879342,74
2021-12-23 15:04:15.879352,105
2021-12-23 15:04:15.879362,110
2021-12-23 15:04:15.879371,90
2021-12-23 15:04:15.879381,122
2021-12-23 15:04:15.879390,181
2021-12-23 15:04:15.879400,203
2021-12-23 15:04:15.879410,208
2021-12-23 15:04:15.879420,217
2021-12-23 15:04:15.879430,222
2021-12-23 15:04:15.879439,234
2021-12-23 15:04:15.879449,246
2021-12-23 15:04:15.879458,222
2021-12-23 15:04:15.879468,133
2021-12-23 15:04:15.879478,33
2021-12-23 15:04:15.879487,-38
2021-12-23 15:04:15.879497,-102
2021-12-23 15:04:15.879507,-172
2021-12-23 15:04:15.879516,-200
2021-12-23 15:04:15.879526,-208
2021-12-23 15:04:15.879536,-222
2021-12-23 15:04:15.879545,-220
2021-12-23 15:04:15.879555,-193
2021-12-23 15:04:16.149297,-177
2021-12-23 15:04:16.149327,-169
2021-12-23 15:04:16.149338,-167
2021-12-23 15:04:16.149348,-189
2021-12-23 15:04:16.149358,-203
2021-12-23 15:04:16.149368,-181
2021-12-23 15:04:16.149378,-153
2021-12-23 15:04:16.149387,-138
2021-12-23 15:04:16.149397,-148
2021-12-23 15:04:16.149407,-177
2021-12-23 15:04:16.149417,-172
2021-12-23 15:04:16.149427,-122
2021-12-23 15:04:16.149437,-95
2021-12-23 15:04:16.149446,-95
2021-12-23 15:04:16.149456,-95
2021-12-23 15:04:16.149466,-112
2021-12-23 15:04:16.149475,-119
2021-12-23 15:04:16.149485,-102
2021-12-23 15:04:16.149495,-88
2021-12-23 15:04:16.149505,-76
2021-12-23 15:04:16.149515,-69
2021-12-23 15:04:16.149524,-81
2021-12-23 15:04:16.149534,-78
2021-12-23 15:04:16.149544,-52
2021-12-23 15:04:16.149554,-43
2021-12-23 15:04:16.149563,-74
2021-12-23 15:04:16.149573,-119
2021-12-23 15:04:16.149583,-129
2021-12-23 15:04:16.149593,-98
2021-12-23 15:04:16.149603,-74
2021-12-23 15:04:16.374160,-62
2021-12-23 15:04:16.374181,-47
2021-12-23 15:04:16.374188,-47
2021-12-23 15:04:16.374193,-71
2021-12-23 15:04:16.374199,-76
2021-12-23 15:04:16.374205,-47
2021-12-23 15:04:16.374210,-9
2021-12-23 15:04:16.374216,-2
2021-12-23 15:04:16.374221,-40
2021-12-23 15:04:16.374227,-71
2021-12-23 15:04:16.374232,-59
2021-12-23 15:04:16.374238,-43
2021-12-23 15:04:16.374243,-19
2021-12-23 15:04:16.374248,7
2021-12-23 15:04:16.374254,-11
2021-12-23 15:04:16.374259,-43
2021-12-23 15:04:16.374264,-38
2021-12-23 15:04:16.374269,-35
2021-12-23 15:04:16.374274,-62
2021-12-23 15:04:16.374279,-64
2021-12-23 15:04:16.374284,-62
2021-12-23 15:04:16.374289,-71
2021-12-23 15:04:16.374294,-57
2021-12-23 15:04:16.374299,-26
2021-12-23 15:04:16.374303,-14
2021-12-23 15:04:16.374308,-16
2021-12-23 15:04:16.374314,-21
2021-12-23 15:04:16.374318,-19
2021-12-23 15:04:16.374323,-21
2021-12-23 15:04:16.374328,-43
2021-12-23 15:04:16.599001,43
2021-12-23 15:04:16.599022,413
2021-12-23 15:04:16.599029,837
2021-12-23 15:04:16.599036,827
2021-12-23 15:04:16.599042,339
2021-12-23 15:04:16.599049,-160
2021-12-23 15:04:16.599055,-193
2021-12-23 15:04:16.599062,7
2021-12-23 15:04:16.599069,-7
2021-12-23 15:04:16.599077,-55
2021-12-23 15:04:16.599084,21
2021-12-23 15:04:16.599092,50
2021-12-23 15:04:16.599100,26
2021-12-23 15:04:16.599107,21
2021-12-23 15:04:16.599115,26
2021-12-23 15:04:16.599123,45
2021-12-23 15:04:16.599130,69
2021-12-23 15:04:16.599136,86
2021-12-23 15:04:16.599143,112
2021-12-23 15:04:16.599149,124
2021-12-23 15:04:16.599156,117
2021-12-23 15:04:16.599162,131
2021-12-23 15:04:16.599211,145
2021-12-23 15:04:16.599222,150
2021-12-23 15:04:16.599230,184
2021-12-23 15:04:16.599237,222
2021-12-23 15:04:16.599244,239
2021-12-23 15:04:16.599250,265
2021-12-23 15:04:16.599256,299
2021-12-23 15:04:16.599263,320
2021-12-23 15:04:16.824394,337
2021-12-23 15:04:16.824424,318
2021-12-23 15:04:16.824436,258
2021-12-23 15:04:16.824447,198
2021-12-23 15:04:16.824457,153
2021-12-23 15:04:16.824466,98
2021-12-23 15:04:16.824476,11
2021-12-23 15:04:16.824486,-76
2021-12-23 15:04:16.824496,-119
2021-12-23 15:04:16.824506,-136
2021-12-23 15:04:16.824516,-153
2021-12-23 15:04:16.824526,-155
2021-12-23 15:04:16.824536,-172
2021-12-23 15:04:16.824546,-200
2021-12-23 15:04:16.824555,-200
2021-12-23 15:04:16.824565,-191
2021-12-23 15:04:16.824575,-205
2021-12-23 15:04:16.824585,-205
2021-12-23 15:04:16.824595,-191
2021-12-23 15:04:16.824605,-184
2021-12-23 15:04:16.824615,-181
2021-12-23 15:04:16.824624,-191
2021-12-23 15:04:16.824634,-196
2021-12-23 15:04:16.824658,-177
2021-12-23 15:04:16.824668,-160
2021-12-23 15:04:16.824678,-150
2021-12-23 15:04:16.824688,-138
2021-12-23 15:04:16.824698,-131
2021-12-23 15:04:16.824708,-119
2021-12-23 15:04:16.824718,-105
2021-12-23 15:04:17.049320,-100
2021-12-23 15:04:17.049351,-93
2021-12-23 15:04:17.049363,-76
2021-12-23 15:04:17.049373,-81
2021-12-23 15:04:17.049383,-78
2021-12-23 15:04:17.049393,-66
2021-12-23 15:04:17.049402,-98
2021-12-23 15:04:17.049412,-124
2021-12-23 15:04:17.049422,-93
2021-12-23 15:04:17.049432,-71
2021-12-23 15:04:17.049441,-76
2021-12-23 15:04:17.049451,-71
2021-12-23 15:04:17.049461,-71
2021-12-23 15:04:17.049471,-81
2021-12-23 15:04:17.049481,-69
2021-12-23 15:04:17.049491,-64
2021-12-23 15:04:17.049501,-62
2021-12-23 15:04:17.049510,-43
2021-12-23 15:04:17.049520,-21
2021-12-23 15:04:17.049530,-2
2021-12-23 15:04:17.049539,-4
2021-12-23 15:04:17.049549,-16
2021-12-23 15:04:17.049559,-9
2021-12-23 15:04:17.049569,-14
2021-12-23 15:04:17.049578,-45
2021-12-23 15:04:17.049588,-52
2021-12-23 15:04:17.049598,-31
2021-12-23 15:04:17.049607,-21
2021-12-23 15:04:17.049617,-26
2021-12-23 15:04:17.049627,-31
2021-12-23 15:04:17.274268,-26
2021-12-23 15:04:17.274299,-14
2021-12-23 15:04:17.274311,-7
2021-12-23 15:04:17.274321,-14
2021-12-23 15:04:17.274330,-47
2021-12-23 15:04:17.274340,-98
2021-12-23 15:04:17.274350,19
2021-12-23 15:04:17.274359,428
2021-12-23 15:04:17.274369,751
2021-12-23 15:04:17.274378,562
2021-12-23 15:04:17.274388,-11
2021-12-23 15:04:17.274398,-423
2021-12-23 15:04:17.274407,-311
2021-12-23 15:04:17.274417,-78
2021-12-23 15:04:17.274426,-93
2021-12-23 15:04:17.274436,-114
2021-12-23 15:04:17.274445,-55
2021-12-23 15:04:17.274455,-47
2021-12-23 15:04:17.274464,-40
2021-12-23 15:04:17.274474,7
2021-12-23 15:04:17.274483,23
2021-12-23 15:04:17.274493,11
2021-12-23 15:04:17.274502,31
2021-12-23 15:04:17.274512,55
2021-12-23 15:04:17.274521,69
2021-12-23 15:04:17.274530,71
2021-12-23 15:04:17.274540,69
2021-12-23 15:04:17.274549,88
2021-12-23 15:04:17.274559,124
2021-12-23 15:04:17.274568,153
2021-12-23 15:04:17.543272,189
2021-12-23 15:04:17.543302,232
2021-12-23 15:04:17.543314,263
2021-12-23 15:04:17.543325,279
2021-12-23 15:04:17.543335,289
2021-12-23 15:04:17.543345,279
2021-12-23 15:04:17.543355,279
2021-12-23 15:04:17.543365,294
2021-12-23 15:04:17.543374,277
2021-12-23 15:04:17.543384,212
2021-12-23 15:04:17.543394,117
2021-12-23 15:04:17.543403,19
2021-12-23 15:04:17.543413,-38
2021-12-23 15:04:17.543423,-71
2021-12-23 15:04:17.543433,-110
2021-12-23 15:04:17.543442,-143
2021-12-23 15:04:17.543452,-162
2021-12-23 15:04:17.543462,-150
2021-12-23 15:04:17.543472,-126
2021-12-23 15:04:17.543481,-119
2021-12-23 15:04:17.543491,-136
2021-12-23 15:04:17.543500,-157
2021-12-23 15:04:17.543510,-160
2021-12-23 15:04:17.543520,-143
2021-12-23 15:04:17.543529,-124
2021-12-23 15:04:17.543539,-105
2021-12-23 15:04:17.543549,-90
2021-12-23 15:04:17.543559,-110
2021-12-23 15:04:17.543569,-143
2021-12-23 15:04:17.543578,-129
2021-12-23 15:04:17.949430,-98
2021-12-23 15:04:17.949453,-86
2021-12-23 15:04:17.949461,-83
2021-12-23 15:04:17.949468,-88
2021-12-23 15:04:17.949474,-100
2021-12-23 15:04:17.949481,-88
2021-12-23 15:04:17.949487,-64
2021-12-23 15:04:17.949494,-55
2021-12-23 15:04:17.949500,-55
2021-12-23 15:04:17.949506,-69
2021-12-23 15:04:17.949513,-88
2021-12-23 15:04:17.949519,-90
2021-12-23 15:04:17.949525,-105
2021-12-23 15:04:17.949532,-153
2021-12-23 15:04:17.949538,-198
2021-12-23 15:04:17.949544,-217
2021-12-23 15:04:17.949551,-212
2021-12-23 15:04:17.949557,-191
2021-12-23 15:04:17.949563,-174
2021-12-23 15:04:17.949570,-169
2021-12-23 15:04:17.949576,-165
2021-12-23 15:04:17.949582,-165
2021-12-23 15:04:17.949589,-150
2021-12-23 15:04:17.949595,-126
2021-12-23 15:04:17.949601,-110
2021-12-23 15:04:17.949608,-102
2021-12-23 15:04:17.949614,-102
2021-12-23 15:04:17.949621,-105
2021-12-23 15:04:17.949627,-86
2021-12-23 15:04:17.949633,-69
2021-12-23 15:04:18.129301,-86
2021-12-23 15:04:18.129331,-95
2021-12-23 15:04:18.129343,-98
2021-12-23 15:04:18.129353,-141
2021-12-23 15:04:18.129363,-167
2021-12-23 15:04:18.129373,-129
2021-12-23 15:04:18.129383,-98
2021-12-23 15:04:18.129393,-102
2021-12-23 15:04:18.129402,-102
2021-12-23 15:04:18.129412,-110
2021-12-23 15:04:18.129422,-107
2021-12-23 15:04:18.129432,-78
2021-12-23 15:04:18.129442,-62
2021-12-23 15:04:18.129451,-66
2021-12-23 15:04:18.129461,-93
2021-12-23 15:04:18.129471,-114
2021-12-23 15:04:18.129481,86
2021-12-23 15:04:18.129491,569
2021-12-23 15:04:18.129501,844
2021-12-23 15:04:18.129510,535
2021-12-23 15:04:18.129520,-74
2021-12-23 15:04:18.129530,-351
2021-12-23 15:04:18.129540,-133
2021-12-23 15:04:18.129549,7
2021-12-23 15:04:18.129559,-59
2021-12-23 15:04:18.129569,-19
2021-12-23 15:04:18.129579,31
2021-12-23 15:04:18.129589,-2
2021-12-23 15:04:18.129598,14
2021-12-23 15:04:18.129608,59
2021-12-23 15:04:18.309269,62
2021-12-23 15:04:18.309299,57
2021-12-23 15:04:18.309312,47
2021-12-23 15:04:18.309322,43
2021-12-23 15:04:18.309332,74
2021-12-23 15:04:18.309341,110
2021-12-23 15:04:18.309351,131
2021-12-23 15:04:18.309361,150
2021-12-23 15:04:18.309371,153
2021-12-23 15:04:18.309380,148
2021-12-23 15:04:18.309390,191
2021-12-23 15:04:18.309399,253
2021-12-23 15:04:18.309409,284
2021-12-23 15:04:18.309419,306
2021-12-23 15:04:18.309429,330
2021-12-23 15:04:18.309439,342
2021-12-23 15:04:18.309448,349
2021-12-23 15:04:18.309458,351
2021-12-23 15:04:18.309468,306
2021-12-23 15:04:18.309477,189
2021-12-23 15:04:18.309487,59
2021-12-23 15:04:18.309496,-26
2021-12-23 15:04:18.309506,-76
2021-12-23 15:04:18.309516,-117
2021-12-23 15:04:18.309526,-148
2021-12-23 15:04:18.309535,-157
2021-12-23 15:04:18.309545,-169
2021-12-23 15:04:18.309555,-177
2021-12-23 15:04:18.309564,-165
2021-12-23 15:04:18.309574,-148
2021-12-23 15:04:18.488802,-138
2021-12-23 15:04:18.488824,-148
2021-12-23 15:04:18.488832,-169
2021-12-23 15:04:18.488838,-179
2021-12-23 15:04:18.488845,-177
2021-12-23 15:04:18.488851,-169
2021-12-23 15:04:18.488858,-148
2021-12-23 15:04:18.488864,-143
2021-12-23 15:04:18.488870,-155
2021-12-23 15:04:18.488876,-148
2021-12-23 15:04:18.488883,-122
2021-12-23 15:04:18.488889,-98
2021-12-23 15:04:18.488895,-83
2021-12-23 15:04:18.488902,-90
2021-12-23 15:04:18.488908,-112
2021-12-23 15:04:18.488914,-112
2021-12-23 15:04:18.488921,-88
2021-12-23 15:04:18.488927,-76
2021-12-23 15:04:18.488933,-76
2021-12-23 15:04:18.488939,-93
2021-12-23 15:04:18.488946,-102
2021-12-23 15:04:18.488952,-93
2021-12-23 15:04:18.488958,-78
2021-12-23 15:04:18.488964,-71
2021-12-23 15:04:18.488971,-69
2021-12-23 15:04:18.488977,-81
2021-12-23 15:04:18.488983,-93
2021-12-23 15:04:18.488989,-90
2021-12-23 15:04:18.488996,-86
2021-12-23 15:04:18.489002,-66
2021-12-23 15:04:18.713680,-26
2021-12-23 15:04:18.713711,-4
2021-12-23 15:04:18.713723,-9
2021-12-23 15:04:18.713733,-19
2021-12-23 15:04:18.713743,-19
2021-12-23 15:04:18.713753,-33
2021-12-23 15:04:18.713762,-88
2021-12-23 15:04:18.713772,-124
2021-12-23 15:04:18.713782,-117
2021-12-23 15:04:18.713792,-122
2021-12-23 15:04:18.713801,-119
2021-12-23 15:04:18.713811,-100
2021-12-23 15:04:18.713820,-117
2021-12-23 15:04:18.713830,-148
2021-12-23 15:04:18.713839,-133
2021-12-23 15:04:18.713849,-105
2021-12-23 15:04:18.713859,-122
2021-12-23 15:04:18.713868,-167
2021-12-23 15:04:18.713878,-76
2021-12-23 15:04:18.713888,322
2021-12-23 15:04:18.713897,748
2021-12-23 15:04:18.713907,686
2021-12-23 15:04:18.713916,119
2021-12-23 15:04:18.713926,-416
2021-12-23 15:04:18.713935,-401
2021-12-23 15:04:18.713945,-138
2021-12-23 15:04:18.713955,-145
2021-12-23 15:04:18.713964,-191
2021-12-23 15:04:18.713974,-102
2021-12-23 15:04:18.713983,-76
2021-12-23 15:04:18.984404,-102
2021-12-23 15:04:18.984434,-76
2021-12-23 15:04:18.984457,-38
2021-12-23 15:04:18.984468,-33
2021-12-23 15:04:18.984478,-16
2021-12-23 15:04:18.984488,11
2021-12-23 15:04:18.984544,7
2021-12-23 15:04:18.984574,-7
2021-12-23 15:04:18.984587,2
2021-12-23 15:04:18.984598,31
2021-12-23 15:04:18.984609,76
2021-12-23 15:04:18.984619,112
2021-12-23 15:04:18.984631,114
2021-12-23 15:04:18.984642,143
2021-12-23 15:04:18.984652,208
2021-12-23 15:04:18.984662,244
2021-12-23 15:04:18.984673,260
2021-12-23 15:04:18.984688,287
2021-12-23 15:04:18.984699,296
2021-12-23 15:04:18.984711,299
2021-12-23 15:04:18.984723,277
2021-12-23 15:04:18.984735,205
2021-12-23 15:04:18.984747,117
2021-12-23 15:04:18.984758,35
2021-12-23 15:04:18.984770,-43
2021-12-23 15:04:18.984783,-98
2021-12-23 15:04:18.984795,-133
2021-12-23 15:04:18.984808,-157
2021-12-23 15:04:18.984818,-162
2021-12-23 15:04:18.984829,-155
2021-12-23 15:04:19.119384,-150
2021-12-23 15:04:19.119406,-136
2021-12-23 15:04:19.119413,-117
2021-12-23 15:04:19.119420,-112
2021-12-23 15:04:19.119427,-110
2021-12-23 15:04:19.119433,-126
2021-12-23 15:04:19.119439,-143
2021-12-23 15:04:19.119445,-117
2021-12-23 15:04:19.119452,-90
2021-12-23 15:04:19.119458,-112
2021-12-23 15:04:19.119464,-136
2021-12-23 15:04:19.119470,-122
2021-12-23 15:04:19.119477,-95
2021-12-23 15:04:19.119483,-71
2021-12-23 15:04:19.119489,-57
2021-12-23 15:04:19.119495,-55
2021-12-23 15:04:19.119502,-50
2021-12-23 15:04:19.119508,-40
2021-12-23 15:04:19.119514,-23
2021-12-23 15:04:19.119520,-7
2021-12-23 15:04:19.119527,0
2021-12-23 15:04:19.119533,7
2021-12-23 15:04:19.119539,4
2021-12-23 15:04:19.119546,-21
2021-12-23 15:04:19.119552,-31
2021-12-23 15:04:19.119558,-16
2021-12-23 15:04:19.119565,-11
2021-12-23 15:04:19.119571,-9
2021-12-23 15:04:19.119577,-9
2021-12-23 15:04:19.119583,-28
2021-12-23 15:04:19.478644,-62
2021-12-23 15:04:19.478675,-64
2021-12-23 15:04:19.478687,-33
2021-12-23 15:04:19.478697,-26
2021-12-23 15:04:19.478707,-57
2021-12-23 15:04:19.478717,-107
2021-12-23 15:04:19.478727,-131
2021-12-23 15:04:19.478736,-102
2021-12-23 15:04:19.478746,-78
2021-12-23 15:04:19.478756,-83
2021-12-23 15:04:19.478766,-95
2021-12-23 15:04:19.478776,-129
2021-12-23 15:04:19.478785,-145
2021-12-23 15:04:19.478795,-117
2021-12-23 15:04:19.478805,-105
2021-12-23 15:04:19.478815,-145
2021-12-23 15:04:19.478825,-196
2021-12-23 15:04:19.478835,-55
2021-12-23 15:04:19.478845,421
2021-12-23 15:04:19.478854,856
2021-12-23 15:04:19.478864,803
2021-12-23 15:04:19.478874,248
2021-12-23 15:04:19.478884,-337
2021-12-23 15:04:19.478893,-313
2021-12-23 15:04:19.478903,0
2021-12-23 15:04:19.478913,-23
2021-12-23 15:04:19.478923,-119
2021-12-23 15:04:19.478933,-66
2021-12-23 15:04:19.478943,-55
2021-12-23 15:04:19.478952,-86
2021-12-23 15:04:19.793512,-76
2021-12-23 15:04:19.793543,-50
2021-12-23 15:04:19.793554,-45
2021-12-23 15:04:19.793564,-62
2021-12-23 15:04:19.793574,-78
2021-12-23 15:04:19.793584,-62
2021-12-23 15:04:19.793593,-11
2021-12-23 15:04:19.793603,26
2021-12-23 15:04:19.793613,52
2021-12-23 15:04:19.793623,71
2021-12-23 15:04:19.793633,78
2021-12-23 15:04:19.793643,110
2021-12-23 15:04:19.793653,172
2021-12-23 15:04:19.793663,208
2021-12-23 15:04:19.793673,210
2021-12-23 15:04:19.793682,210
2021-12-23 15:04:19.793692,227
2021-12-23 15:04:19.793702,248
2021-12-23 15:04:19.793712,253
2021-12-23 15:04:19.793722,224
2021-12-23 15:04:19.793732,150
2021-12-23 15:04:19.793741,35
2021-12-23 15:04:19.793751,-69
2021-12-23 15:04:19.793761,-126
2021-12-23 15:04:19.793770,-157
2021-12-23 15:04:19.793780,-184
2021-12-23 15:04:19.793790,-196
2021-12-23 15:04:19.793799,-212
2021-12-23 15:04:19.793809,-215
2021-12-23 15:04:19.793819,-191
2021-12-23 15:04:20.018068,-172
2021-12-23 15:04:20.018089,-160
2021-12-23 15:04:20.018097,-143
2021-12-23 15:04:20.018103,-143
2021-12-23 15:04:20.018109,-153
2021-12-23 15:04:20.018116,-165
2021-12-23 15:04:20.018122,-179
2021-12-23 15:04:20.018129,-167
2021-12-23 15:04:20.018135,-145
2021-12-23 15:04:20.018141,-148
2021-12-23 15:04:20.018147,-136
2021-12-23 15:04:20.018154,-102
2021-12-23 15:04:20.018160,-86
2021-12-23 15:04:20.018166,-78
2021-12-23 15:04:20.018173,-69
2021-12-23 15:04:20.018179,-71
2021-12-23 15:04:20.018185,-78
2021-12-23 15:04:20.018191,-69
2021-12-23 15:04:20.018198,-43
2021-12-23 15:04:20.018204,-28
2021-12-23 15:04:20.018210,-50
2021-12-23 15:04:20.018216,-81
2021-12-23 15:04:20.018223,-74
2021-12-23 15:04:20.018229,-40
2021-12-23 15:04:20.018235,-26
2021-12-23 15:04:20.018241,-23
2021-12-23 15:04:20.018247,-47
2021-12-23 15:04:20.018254,-86
2021-12-23 15:04:20.018260,-69
2021-12-23 15:04:20.018266,-11
2021-12-23 15:04:20.153733,9
2021-12-23 15:04:20.153764,4
2021-12-23 15:04:20.153776,0
2021-12-23 15:04:20.153786,-16
2021-12-23 15:04:20.153796,-31
2021-12-23 15:04:20.153806,-38
2021-12-23 15:04:20.153816,-50
2021-12-23 15:04:20.153826,-57
2021-12-23 15:04:20.153835,-43
2021-12-23 15:04:20.153845,-19
2021-12-23 15:04:20.153855,14
2021-12-23 15:04:20.153865,21
2021-12-23 15:04:20.153874,16
2021-12-23 15:04:20.153884,14
2021-12-23 15:04:20.153894,11
2021-12-23 15:04:20.153903,2
2021-12-23 15:04:20.153913,-45
2021-12-23 15:04:20.153923,112
2021-12-23 15:04:20.153932,600
2021-12-23 15:04:20.153942,966
2021-12-23 15:04:20.153952,832
2021-12-23 15:04:20.153961,234
2021-12-23 15:04:20.153971,-256
2021-12-23 15:04:20.153981,-112
2021-12-23 15:04:20.153991,81
2021-12-23 15:04:20.154000,-88
2021-12-23 15:04:20.154010,-150
2021-12-23 15:04:20.154020,-74
2021-12-23 15:04:20.154029,-50
2021-12-23 15:04:20.154039,-9
2021-12-23 15:04:20.289273,11
2021-12-23 15:04:20.289304,-28
2021-12-23 15:04:20.289315,-55
2021-12-23 15:04:20.289325,-45
2021-12-23 15:04:20.289335,-23
2021-12-23 15:04:20.289344,11
2021-12-23 15:04:20.289354,33
2021-12-23 15:04:20.289363,35
2021-12-23 15:04:20.289373,40
2021-12-23 15:04:20.289383,47
2021-12-23 15:04:20.289392,59
2021-12-23 15:04:20.289402,86
2021-12-23 15:04:20.289411,117
2021-12-23 15:04:20.289421,133
2021-12-23 15:04:20.289431,143
2021-12-23 15:04:20.289440,155
2021-12-23 15:04:20.289450,155
2021-12-23 15:04:20.289459,160
2021-12-23 15:04:20.289469,153
2021-12-23 15:04:20.289478,71
2021-12-23 15:04:20.289488,-40
2021-12-23 15:04:20.289498,-122
2021-12-23 15:04:20.289507,-177
2021-12-23 15:04:20.289517,-227
2021-12-23 15:04:20.289527,-277
2021-12-23 15:04:20.289536,-318
2021-12-23 15:04:20.289546,-322
2021-12-23 15:04:20.289555,-313
2021-12-23 15:04:20.289565,-315
2021-12-23 15:04:20.289574,-301
2021-12-23 15:04:20.514220,-287
2021-12-23 15:04:20.514250,-272
2021-12-23 15:04:20.514262,-232
2021-12-23 15:04:20.514272,-210
2021-12-23 15:04:20.514282,-217
2021-12-23 15:04:20.514291,-205
2021-12-23 15:04:20.514301,-200
2021-12-23 15:04:20.514310,-215
2021-12-23 15:04:20.514320,-203
2021-12-23 15:04:20.514330,-184
2021-12-23 15:04:20.514339,-167
2021-12-23 15:04:20.514349,-143
2021-12-23 15:04:20.514358,-150
2021-12-23 15:04:20.514368,-169
2021-12-23 15:04:20.514377,-153
2021-12-23 15:04:20.514387,-138
2021-12-23 15:04:20.514397,-138
2021-12-23 15:04:20.514406,-114
2021-12-23 15:04:20.514416,-95
2021-12-23 15:04:20.514425,-93
2021-12-23 15:04:20.514435,-76
2021-12-23 15:04:20.514444,-90
2021-12-23 15:04:20.514454,-131
2021-12-23 15:04:20.514463,-117
2021-12-23 15:04:20.514473,-78
2021-12-23 15:04:20.514483,-81
2021-12-23 15:04:20.514493,-83
2021-12-23 15:04:20.514502,-71
2021-12-23 15:04:20.514512,-59
2021-12-23 15:04:20.514521,-50
2021-12-23 15:04:20.739244,-57
2021-12-23 15:04:20.739274,-59
2021-12-23 15:04:20.739286,-31
2021-12-23 15:04:20.739296,-11
2021-12-23 15:04:20.739305,-14
2021-12-23 15:04:20.739315,-16
2021-12-23 15:04:20.739324,-33
2021-12-23 15:04:20.739334,-35
2021-12-23 15:04:20.739344,-21
2021-12-23 15:04:20.739353,-23
2021-12-23 15:04:20.739363,-26
2021-12-23 15:04:20.739372,-28
2021-12-23 15:04:20.739382,-43
2021-12-23 15:04:20.739391,-52
2021-12-23 15:04:20.739401,-35
2021-12-23 15:04:20.739410,-16
2021-12-23 15:04:20.739420,-33
2021-12-23 15:04:20.739429,-69
2021-12-23 15:04:20.739439,-76
2021-12-23 15:04:20.739448,-59
2021-12-23 15:04:20.739458,-52
2021-12-23 15:04:20.739467,-59
2021-12-23 15:04:20.739476,-45
2021-12-23 15:04:20.739486,-21
2021-12-23 15:04:20.739495,-38
2021-12-23 15:04:20.739505,-59
2021-12-23 15:04:20.739514,-38
2021-12-23 15:04:20.739524,-11
2021-12-23 15:04:20.739533,-7
2021-12-23 15:04:20.739543,4
2021-12-23 15:04:21.008480,11
2021-12-23 15:04:21.008517,-9
2021-12-23 15:04:21.008525,-9
2021-12-23 15:04:21.008532,14
2021-12-23 15:04:21.008538,38
2021-12-23 15:04:21.008545,33
2021-12-23 15:04:21.008552,-21
2021-12-23 15:04:21.008558,-57
2021-12-23 15:04:21.008565,-47
2021-12-23 15:04:21.008571,-43
2021-12-23 15:04:21.008578,-11
2021-12-23 15:04:21.008584,33
2021-12-23 15:04:21.008591,9
2021-12-23 15:04:21.008597,-59
2021-12-23 15:04:21.008604,-52
2021-12-23 15:04:21.008610,19
2021-12-23 15:04:21.008617,19
2021-12-23 15:04:21.008623,-33
2021-12-23 15:04:21.008629,-23
2021-12-23 15:04:21.008636,7
2021-12-23 15:04:21.008642,2
2021-12-23 15:04:21.008649,26
2021-12-23 15:04:21.008655,43
2021-12-23 15:04:21.008662,-2
2021-12-23 15:04:21.008668,0
2021-12-23 15:04:21.008675,43
2021-12-23 15:04:21.008681,11
2021-12-23 15:04:21.008688,-19
2021-12-23 15:04:21.008694,0
2021-12-23 15:04:21.008701,-23
2021-12-23 15:04:21.188899,-62
2021-12-23 15:04:21.188921,-28
2021-12-23 15:04:21.188929,-16
2021-12-23 15:04:21.188935,-81
2021-12-23 15:04:21.188942,-122
2021-12-23 15:04:21.188948,-112
2021-12-23 15:04:21.188954,-124
2021-12-23 15:04:21.188961,-138
2021-12-23 15:04:21.188967,-100
2021-12-23 15:04:21.188973,-35
2021-12-23 15:04:21.188980,-52
2021-12-23 15:04:21.188986,-138
2021-12-23 15:04:21.188992,-117
2021-12-23 15:04:21.188999,-35
2021-12-23 15:04:21.189010,-52
2021-12-23 15:04:21.189016,-88
2021-12-23 15:04:21.189023,-93
2021-12-23 15:04:21.189029,-102
2021-12-23 15:04:21.189036,-76
2021-12-23 15:04:21.189042,-28
2021-12-23 15:04:21.189048,-43
2021-12-23 15:04:21.189054,-69
2021-12-23 15:04:21.189061,-64
2021-12-23 15:04:21.189067,-98
2021-12-23 15:04:21.189073,-136
2021-12-23 15:04:21.189080,-112
2021-12-23 15:04:21.189086,-28
2021-12-23 15:04:21.189093,212
2021-12-23 15:04:21.189099,600
2021-12-23 15:04:21.189105,779
2021-12-23 15:04:21.414251,464
2021-12-23 15:04:21.414282,-122
2021-12-23 15:04:21.414294,-375
2021-12-23 15:04:21.414304,-172
2021-12-23 15:04:21.414313,-93
2021-12-23 15:04:21.414323,-196
2021-12-23 15:04:21.414333,-145
2021-12-23 15:04:21.414342,-57
2021-12-23 15:04:21.414352,-71
2021-12-23 15:04:21.414362,-95
2021-12-23 15:04:21.414371,-90
2021-12-23 15:04:21.414381,-81
2021-12-23 15:04:21.414390,-59
2021-12-23 15:04:21.414400,-21
2021-12-23 15:04:21.414410,14
2021-12-23 15:04:21.414420,21
2021-12-23 15:04:21.414429,23
2021-12-23 15:04:21.414439,43
2021-12-23 15:04:21.414449,78
2021-12-23 15:04:21.414459,117
2021-12-23 15:04:21.414468,143
2021-12-23 15:04:21.414478,141
2021-12-23 15:04:21.414487,141
2021-12-23 15:04:21.414497,184
2021-12-23 15:04:21.414506,236
2021-12-23 15:04:21.414516,258
2021-12-23 15:04:21.414526,263
2021-12-23 15:04:21.414535,265
2021-12-23 15:04:21.414545,263
2021-12-23 15:04:21.414554,260
2021-12-23 15:04:21.728467,220
2021-12-23 15:04:21.728498,153
2021-12-23 15:04:21.728510,95
2021-12-23 15:04:21.728520,9
2021-12-23 15:04:21.728530,-76
2021-12-23 15:04:21.728539,-86
2021-12-23 15:04:21.728549,-83
2021-12-23 15:04:21.728559,-110
2021-12-23 15:04:21.728568,-136
2021-12-23 15:04:21.728578,-169
2021-12-23 15:04:21.728588,-179
2021-12-23 15:04:21.728597,-138
2021-12-23 15:04:21.728607,-105
2021-12-23 15:04:21.728617,-105
2021-12-23 15:04:21.728626,-129
2021-12-23 15:04:21.728636,-153
2021-12-23 15:04:21.728646,-133
2021-12-23 15:04:21.728656,-93
2021-12-23 15:04:21.728665,-76
2021-12-23 15:04:21.728675,-76
2021-12-23 15:04:21.728684,-76
2021-12-23 15:04:21.728694,-78
2021-12-23 15:04:21.728703,-69
2021-12-23 15:04:21.728713,-52
2021-12-23 15:04:21.728722,-40
2021-12-23 15:04:21.728732,-31
2021-12-23 15:04:21.728741,-31
2021-12-23 15:04:21.728751,-43
2021-12-23 15:04:21.728760,-59
2021-12-23 15:04:21.728770,-74
2021-12-23 15:04:21.954414,-69
2021-12-23 15:04:21.954444,-52
2021-12-23 15:04:21.954456,-69
2021-12-23 15:04:21.954466,-98
2021-12-23 15:04:21.954476,-88
2021-12-23 15:04:21.954486,-76
2021-12-23 15:04:21.954496,-90
2021-12-23 15:04:21.954505,-88
2021-12-23 15:04:21.954515,-110
2021-12-23 15:04:21.954525,-155
2021-12-23 15:04:21.954535,-141
2021-12-23 15:04:21.954544,-107
2021-12-23 15:04:21.954554,-105
2021-12-23 15:04:21.954564,-110
2021-12-23 15:04:21.954573,-129
2021-12-23 15:04:21.954583,-155
2021-12-23 15:04:21.954593,-136
2021-12-23 15:04:21.954603,-100
2021-12-23 15:04:21.954612,-93
2021-12-23 15:04:21.954622,-93
2021-12-23 15:04:21.954632,-102
2021-12-23 15:04:21.954641,-112
2021-12-23 15:04:21.954651,-93
2021-12-23 15:04:21.954661,-66
2021-12-23 15:04:21.954671,-57
2021-12-23 15:04:21.954680,-57
2021-12-23 15:04:21.954690,-66
2021-12-23 15:04:21.954700,-66
2021-12-23 15:04:21.954709,-45
2021-12-23 15:04:21.954719,-23
2021-12-23 15:04:22.134345,-19
2021-12-23 15:04:22.134375,-11
2021-12-23 15:04:22.134387,-9
2021-12-23 15:04:22.134397,-26
2021-12-23 15:04:22.134407,-50
2021-12-23 15:04:22.134417,-50
2021-12-23 15:04:22.134427,-4
2021-12-23 15:04:22.134437,16
2021-12-23 15:04:22.134447,-14
2021-12-23 15:04:22.134457,-38
2021-12-23 15:04:22.134467,-26
2021-12-23 15:04:22.134477,-9
2021-12-23 15:04:22.134486,-9
2021-12-23 15:04:22.134496,-16
2021-12-23 15:04:22.134506,-26
2021-12-23 15:04:22.134516,-26
2021-12-23 15:04:22.134526,-9
2021-12-23 15:04:22.134536,11
2021-12-23 15:04:22.134546,14
2021-12-23 15:04:22.134555,-9
2021-12-23 15:04:22.134565,-26
2021-12-23 15:04:22.134575,-21
2021-12-23 15:04:22.134585,-11
2021-12-23 15:04:22.134595,-23
2021-12-23 15:04:22.134605,-23
2021-12-23 15:04:22.134614,184
2021-12-23 15:04:22.134625,648
2021-12-23 15:04:22.134634,913
2021-12-23 15:04:22.134644,622
2021-12-23 15:04:22.134654,14
2021-12-23 15:04:22.449224,-289
2021-12-23 15:04:22.449255,-93
2021-12-23 15:04:22.449267,40
2021-12-23 15:04:22.449278,-64
2021-12-23 15:04:22.449288,-71
2021-12-23 15:04:22.449298,0
2021-12-23 15:04:22.449308,7
2021-12-23 15:04:22.449317,-43
2021-12-23 15:04:22.449327,-64
2021-12-23 15:04:22.449337,-33
2021-12-23 15:04:22.449347,-2
2021-12-23 15:04:22.449357,14
2021-12-23 15:04:22.449366,28
2021-12-23 15:04:22.449376,26
2021-12-23 15:04:22.449387,38
2021-12-23 15:04:22.449396,74
2021-12-23 15:04:22.449406,105
2021-12-23 15:04:22.449416,138
2021-12-23 15:04:22.449426,174
2021-12-23 15:04:22.449436,198
2021-12-23 15:04:22.449446,224
2021-12-23 15:04:22.449456,267
2021-12-23 15:04:22.449466,313
2021-12-23 15:04:22.449477,346
2021-12-23 15:04:22.449486,344
2021-12-23 15:04:22.449497,327
2021-12-23 15:04:22.449507,332
2021-12-23 15:04:22.449517,318
2021-12-23 15:04:22.449526,256
2021-12-23 15:04:22.449536,172
2021-12-23 15:04:22.629203,86
2021-12-23 15:04:22.629234,-9
2021-12-23 15:04:22.629245,-90
2021-12-23 15:04:22.629256,-131
2021-12-23 15:04:22.629265,-141
2021-12-23 15:04:22.629275,-141
2021-12-23 15:04:22.629285,-155
2021-12-23 15:04:22.629295,-167
2021-12-23 15:04:22.629304,-177
2021-12-23 15:04:22.629314,-191
2021-12-23 15:04:22.629324,-181
2021-12-23 15:04:22.629333,-160
2021-12-23 15:04:22.629343,-155
2021-12-23 15:04:22.629353,-153
2021-12-23 15:04:22.629362,-143
2021-12-23 15:04:22.629372,-150
2021-12-23 15:04:22.629381,-145
2021-12-23 15:04:22.629391,-126
2021-12-23 15:04:22.629401,-145
2021-12-23 15:04:22.629410,-160
2021-12-23 15:04:22.629420,-126
2021-12-23 15:04:22.629429,-119
2021-12-23 15:04:22.629439,-138
2021-12-23 15:04:22.629449,-129
2021-12-23 15:04:22.629458,-117
2021-12-23 15:04:22.629468,-105
2021-12-23 15:04:22.629478,-93
2021-12-23 15:04:22.629487,-90
2021-12-23 15:04:22.629497,-86
2021-12-23 15:04:22.629507,-76
2021-12-23 15:04:22.808666,-66
2021-12-23 15:04:22.808696,-57
2021-12-23 15:04:22.808704,-59
2021-12-23 15:04:22.808711,-62
2021-12-23 15:04:22.808717,-57
2021-12-23 15:04:22.808724,-47
2021-12-23 15:04:22.808730,-35
2021-12-23 15:04:22.808736,-19
2021-12-23 15:04:22.808752,-11
2021-12-23 15:04:22.808759,-21
2021-12-23 15:04:22.808765,-47
2021-12-23 15:04:22.808771,-100
2021-12-23 15:04:22.808778,-114
2021-12-23 15:04:22.808784,-83
2021-12-23 15:04:22.808791,-76
2021-12-23 15:04:22.808797,-69
2021-12-23 15:04:22.808814,-28
2021-12-23 15:04:22.808834,-33
2021-12-23 15:04:22.808839,-71
2021-12-23 15:04:22.808845,-64
2021-12-23 15:04:22.808850,-40
2021-12-23 15:04:22.808855,-50
2021-12-23 15:04:22.808860,-64
2021-12-23 15:04:22.808872,-66
2021-12-23 15:04:22.808877,-57
2021-12-23 15:04:22.808883,-35
2021-12-23 15:04:22.808888,-31
2021-12-23 15:04:22.808893,-35
2021-12-23 15:04:22.808898,-35
2021-12-23 15:04:22.808903,-40
2021-12-23 15:04:23.212571,-35
2021-12-23 15:04:23.212592,-43
2021-12-23 15:04:23.212600,-16
2021-12-23 15:04:23.212607,287
2021-12-23 15:04:23.212613,775
2021-12-23 15:04:23.212620,933
2021-12-23 15:04:23.212626,574
2021-12-23 15:04:23.212632,-76
2021-12-23 15:04:23.212640,-389
2021-12-23 15:04:23.212647,-98
2021-12-23 15:04:23.212654,47
2021-12-23 15:04:23.212660,-126
2021-12-23 15:04:23.212666,-117
2021-12-23 15:04:23.212673,-28
2021-12-23 15:04:23.212679,-52
2021-12-23 15:04:23.212685,-59
2021-12-23 15:04:23.212691,-23
2021-12-23 15:04:23.212698,-9
2021-12-23 15:04:23.212704,14
2021-12-23 15:04:23.212710,52
2021-12-23 15:04:23.212717,78
2021-12-23 15:04:23.212723,90
2021-12-23 15:04:23.212729,98
2021-12-23 15:04:23.212735,119
2021-12-23 15:04:23.212742,157
2021-12-23 15:04:23.212748,193
2021-12-23 15:04:23.212754,210
2021-12-23 15:04:23.212760,212
2021-12-23 15:04:23.212766,244
2021-12-23 15:04:23.212773,301
2021-12-23 15:04:23.348603,339
2021-12-23 15:04:23.348634,358
2021-12-23 15:04:23.348646,373
2021-12-23 15:04:23.348656,373
2021-12-23 15:04:23.348666,349
2021-12-23 15:04:23.348676,301
2021-12-23 15:04:23.348686,222
2021-12-23 15:04:23.348696,129
2021-12-23 15:04:23.348705,38
2021-12-23 15:04:23.348715,-55
2021-12-23 15:04:23.348725,-138
2021-12-23 15:04:23.348735,-179
2021-12-23 15:04:23.348745,-165
2021-12-23 15:04:23.348754,-150
2021-12-23 15:04:23.348764,-169
2021-12-23 15:04:23.348774,-193
2021-12-23 15:04:23.348784,-205
2021-12-23 15:04:23.348793,-229
2021-12-23 15:04:23.348803,-236
2021-12-23 15:04:23.348813,-210
2021-12-23 15:04:23.348823,-217
2021-12-23 15:04:23.348833,-267
2021-12-23 15:04:23.348842,-282
2021-12-23 15:04:23.348852,-244
2021-12-23 15:04:23.348862,-217
2021-12-23 15:04:23.348872,-212
2021-12-23 15:04:23.348881,-203
2021-12-23 15:04:23.348891,-193
2021-12-23 15:04:23.348901,-184
2021-12-23 15:04:23.348911,-162
2021-12-23 15:04:23.618634,-141
2021-12-23 15:04:23.618665,-131
2021-12-23 15:04:23.618677,-129
2021-12-23 15:04:23.618688,-148
2021-12-23 15:04:23.618697,-165
2021-12-23 15:04:23.618707,-133
2021-12-23 15:04:23.618717,-110
2021-12-23 15:04:23.618727,-107
2021-12-23 15:04:23.618736,-102
2021-12-23 15:04:23.618746,-122
2021-12-23 15:04:23.618756,-145
2021-12-23 15:04:23.618766,-117
2021-12-23 15:04:23.618775,-90
2021-12-23 15:04:23.618785,-95
2021-12-23 15:04:23.618795,-95
2021-12-23 15:04:23.618805,-64
2021-12-23 15:04:23.618815,-45
2021-12-23 15:04:23.618824,-62
2021-12-23 15:04:23.618834,-66
2021-12-23 15:04:23.618843,-50
2021-12-23 15:04:23.618853,-59
2021-12-23 15:04:23.618862,-98
2021-12-23 15:04:23.618872,-98
2021-12-23 15:04:23.618881,-64
2021-12-23 15:04:23.618891,-45
2021-12-23 15:04:23.618901,-40
2021-12-23 15:04:23.618910,-33
2021-12-23 15:04:23.618920,-43
2021-12-23 15:04:23.618930,-45
2021-12-23 15:04:23.618939,-19
2021-12-23 15:04:23.843442,0
2021-12-23 15:04:23.843472,-21
2021-12-23 15:04:23.843484,-76
2021-12-23 15:04:23.843494,57
2021-12-23 15:04:23.843504,538
2021-12-23 15:04:23.843514,966
2021-12-23 15:04:23.843524,916
2021-12-23 15:04:23.843534,363
2021-12-23 15:04:23.843544,-275
2021-12-23 15:04:23.843554,-301
2021-12-23 15:04:23.843564,31
2021-12-23 15:04:23.843574,19
2021-12-23 15:04:23.843584,-81
2021-12-23 15:04:23.843594,0
2021-12-23 15:04:23.843604,14
2021-12-23 15:04:23.843614,-40
2021-12-23 15:04:23.843624,-7
2021-12-23 15:04:23.843633,43
2021-12-23 15:04:23.843643,33
2021-12-23 15:04:23.843659,16
2021-12-23 15:04:23.843669,14
2021-12-23 15:04:23.843679,9
2021-12-23 15:04:23.843689,2
2021-12-23 15:04:23.843699,26
2021-12-23 15:04:23.843708,64
2021-12-23 15:04:23.843718,78
2021-12-23 15:04:23.843728,74
2021-12-23 15:04:23.843738,102
2021-12-23 15:04:23.843748,157
2021-12-23 15:04:23.843758,210
2021-12-23 15:04:23.979269,251
2021-12-23 15:04:23.979292,279
2021-12-23 15:04:23.979300,291
2021-12-23 15:04:23.979306,294
2021-12-23 15:04:23.979313,289
2021-12-23 15:04:23.979319,263
2021-12-23 15:04:23.979326,203
2021-12-23 15:04:23.979332,102
2021-12-23 15:04:23.979339,-16
2021-12-23 15:04:23.979345,-105
2021-12-23 15:04:23.979352,-143
2021-12-23 15:04:23.979358,-157
2021-12-23 15:04:23.979365,-165
2021-12-23 15:04:23.979371,-181
2021-12-23 15:04:23.979377,-215
2021-12-23 15:04:23.979384,-215
2021-12-23 15:04:23.979390,-189
2021-12-23 15:04:23.979397,-184
2021-12-23 15:04:23.979403,-193
2021-12-23 15:04:23.979409,-215
2021-12-23 15:04:23.979416,-258
2021-12-23 15:04:23.979422,-275
2021-12-23 15:04:23.979429,-244
2021-12-23 15:04:23.979435,-220
2021-12-23 15:04:23.979441,-217
2021-12-23 15:04:23.979448,-227
2021-12-23 15:04:23.979454,-232
2021-12-23 15:04:23.979460,-217
2021-12-23 15:04:23.979467,-193
2021-12-23 15:04:23.979473,-169
2021-12-23 15:04:24.249178,-160
2021-12-23 15:04:24.249209,-160
2021-12-23 15:04:24.249221,-148
2021-12-23 15:04:24.249231,-131
2021-12-23 15:04:24.249241,-122
2021-12-23 15:04:24.249251,-112
2021-12-23 15:04:24.249261,-107
2021-12-23 15:04:24.249271,-122
2021-12-23 15:04:24.249281,-131
2021-12-23 15:04:24.249290,-110
2021-12-23 15:04:24.249300,-98
2021-12-23 15:04:24.249310,-93
2021-12-23 15:04:24.249320,-86
2021-12-23 15:04:24.249330,-98
2021-12-23 15:04:24.249340,-107
2021-12-23 15:04:24.249349,-88
2021-12-23 15:04:24.249359,-76
2021-12-23 15:04:24.249369,-69
2021-12-23 15:04:24.249379,-52
2021-12-23 15:04:24.249388,-52
2021-12-23 15:04:24.249398,-52
2021-12-23 15:04:24.249408,-35
2021-12-23 15:04:24.249418,-40
2021-12-23 15:04:24.249427,-66
2021-12-23 15:04:24.249437,-74
2021-12-23 15:04:24.249447,-45
2021-12-23 15:04:24.249457,-23
2021-12-23 15:04:24.249466,-50
2021-12-23 15:04:24.249476,-86
2021-12-23 15:04:24.249486,-69
2021-12-23 15:04:24.428844,-50
2021-12-23 15:04:24.428867,-66
2021-12-23 15:04:24.428875,-71
2021-12-23 15:04:24.428882,-62
2021-12-23 15:04:24.428888,-52
2021-12-23 15:04:24.428895,-38
2021-12-23 15:04:24.428902,-40
2021-12-23 15:04:24.428908,-55
2021-12-23 15:04:24.428915,-40
2021-12-23 15:04:24.428921,-19
2021-12-23 15:04:24.428927,-14
2021-12-23 15:04:24.428934,-26
2021-12-23 15:04:24.428940,-88
2021-12-23 15:04:24.428947,-90
2021-12-23 15:04:24.428953,234
2021-12-23 15:04:24.428960,753
2021-12-23 15:04:24.428966,973
2021-12-23 15:04:24.428972,677
2021-12-23 15:04:24.428979,-16
2021-12-23 15:04:24.428985,-409
2021-12-23 15:04:24.428992,-119
2021-12-23 15:04:24.428998,59
2021-12-23 15:04:24.429005,-98
2021-12-23 15:04:24.429011,-69
2021-12-23 15:04:24.429018,21
2021-12-23 15:04:24.429024,-50
2021-12-23 15:04:24.429031,-86
2021-12-23 15:04:24.429037,-16
2021-12-23 15:04:24.429043,11
2021-12-23 15:04:24.429050,0
2021-12-23 15:04:24.699170,9
2021-12-23 15:04:24.699201,35
2021-12-23 15:04:24.699213,57
2021-12-23 15:04:24.699223,74
2021-12-23 15:04:24.699233,105
2021-12-23 15:04:24.699242,124
2021-12-23 15:04:24.699252,122
2021-12-23 15:04:24.699262,155
2021-12-23 15:04:24.699272,210
2021-12-23 15:04:24.699282,244
2021-12-23 15:04:24.699291,272
2021-12-23 15:04:24.699301,299
2021-12-23 15:04:24.699311,296
2021-12-23 15:04:24.699321,311
2021-12-23 15:04:24.699330,337
2021-12-23 15:04:24.699340,325
2021-12-23 15:04:24.699350,267
2021-12-23 15:04:24.699359,167
2021-12-23 15:04:24.699369,57
2021-12-23 15:04:24.699379,-38
2021-12-23 15:04:24.699389,-126
2021-12-23 15:04:24.699399,-184
2021-12-23 15:04:24.699409,-203
2021-12-23 15:04:24.699418,-222
2021-12-23 15:04:24.699428,-227
2021-12-23 15:04:24.699438,-208
2021-12-23 15:04:24.699448,-208
2021-12-23 15:04:24.699458,-224
2021-12-23 15:04:24.699467,-220
2021-12-23 15:04:24.699477,-205
2021-12-23 15:04:24.879199,-191
2021-12-23 15:04:24.879228,-174
2021-12-23 15:04:24.879240,-196
2021-12-23 15:04:24.879250,-232
2021-12-23 15:04:24.879259,-227
2021-12-23 15:04:24.879269,-224
2021-12-23 15:04:24.879278,-229
2021-12-23 15:04:24.879288,-200
2021-12-23 15:04:24.879297,-172
2021-12-23 15:04:24.879307,-169
2021-12-23 15:04:24.879317,-155
2021-12-23 15:04:24.879326,-138
2021-12-23 15:04:24.879336,-119
2021-12-23 15:04:24.879345,-90
2021-12-23 15:04:24.879355,-83
2021-12-23 15:04:24.879364,-90
2021-12-23 15:04:24.879374,-100
2021-12-23 15:04:24.879383,-110
2021-12-23 15:04:24.879392,-98
2021-12-23 15:04:24.879402,-64
2021-12-23 15:04:24.879411,-52
2021-12-23 15:04:24.879421,-59
2021-12-23 15:04:24.879430,-62
2021-12-23 15:04:24.879440,-55
2021-12-23 15:04:24.879449,-40
2021-12-23 15:04:24.879458,-31
2021-12-23 15:04:24.879468,-21
2021-12-23 15:04:24.879477,-9
2021-12-23 15:04:24.879487,-14
2021-12-23 15:04:24.879496,-31
2021-12-23 15:04:25.104209,-31
2021-12-23 15:04:25.104240,-9
2021-12-23 15:04:25.104252,0
2021-12-23 15:04:25.104262,-11
2021-12-23 15:04:25.104272,-35
2021-12-23 15:04:25.104282,-40
2021-12-23 15:04:25.104291,-16
2021-12-23 15:04:25.104301,2
2021-12-23 15:04:25.104311,0
2021-12-23 15:04:25.104321,-11
2021-12-23 15:04:25.104331,-35
2021-12-23 15:04:25.104340,-35
2021-12-23 15:04:25.104350,-2
2021-12-23 15:04:25.104360,16
2021-12-23 15:04:25.104370,14
2021-12-23 15:04:25.104380,14
2021-12-23 15:04:25.104390,7
2021-12-23 15:04:25.104399,7
2021-12-23 15:04:25.104409,21
2021-12-23 15:04:25.104418,31
2021-12-23 15:04:25.104428,38
2021-12-23 15:04:25.104437,45
2021-12-23 15:04:25.104447,57
2021-12-23 15:04:25.104457,74
2021-12-23 15:04:25.104466,78
2021-12-23 15:04:25.104476,81
2021-12-23 15:04:25.104486,81
2021-12-23 15:04:25.104495,62
2021-12-23 15:04:25.104505,38
2021-12-23 15:04:25.104515,43
2021-12-23 15:04:25.373581,47
2021-12-23 15:04:25.373602,31
2021-12-23 15:04:25.373609,16
2021-12-23 15:04:25.373616,-7
2021-12-23 15:04:25.373623,-33
2021-12-23 15:04:25.373629,-16
2021-12-23 15:04:25.373636,16
2021-12-23 15:04:25.373642,-11
2021-12-23 15:04:25.373649,-114
2021-12-23 15:04:25.373655,-131
2021-12-23 15:04:25.373662,205
2021-12-23 15:04:25.373668,744
2021-12-23 15:04:25.373674,954
2021-12-23 15:04:25.373681,624
2021-12-23 15:04:25.373688,-64
2021-12-23 15:04:25.373694,-416
2021-12-23 15:04:25.373701,-122
2021-12-23 15:04:25.373707,43
2021-12-23 15:04:25.373713,-100
2021-12-23 15:04:25.373720,-71
2021-12-23 15:04:25.373727,7
2021-12-23 15:04:25.373733,-40
2021-12-23 15:04:25.373740,-40
2021-12-23 15:04:25.373746,26
2021-12-23 15:04:25.373752,45
2021-12-23 15:04:25.373759,50
2021-12-23 15:04:25.373765,76
2021-12-23 15:04:25.373772,76
2021-12-23 15:04:25.373778,88
2021-12-23 15:04:25.373784,126
2021-12-23 15:04:25.734267,157
2021-12-23 15:04:25.734300,181
2021-12-23 15:04:25.734312,198
2021-12-23 15:04:25.734322,203
2021-12-23 15:04:25.734332,224
2021-12-23 15:04:25.734342,275
2021-12-23 15:04:25.734352,318
2021-12-23 15:04:25.734362,346
2021-12-23 15:04:25.734372,356
2021-12-23 15:04:25.734381,332
2021-12-23 15:04:25.734391,330
2021-12-23 15:04:25.734400,346
2021-12-23 15:04:25.734410,325
2021-12-23 15:04:25.734420,256
2021-12-23 15:04:25.734429,145
2021-12-23 15:04:25.734439,26
2021-12-23 15:04:25.734449,-47
2021-12-23 15:04:25.734458,-81
2021-12-23 15:04:25.734468,-102
2021-12-23 15:04:25.734478,-112
2021-12-23 15:04:25.734487,-131
2021-12-23 15:04:25.734497,-150
2021-12-23 15:04:25.734506,-133
2021-12-23 15:04:25.734516,-105
2021-12-23 15:04:25.734526,-98
2021-12-23 15:04:25.734536,-90
2021-12-23 15:04:25.734545,-90
2021-12-23 15:04:25.734555,-98
2021-12-23 15:04:25.734564,-83
2021-12-23 15:04:25.734574,-55
2021-12-23 15:04:25.958169,-35
2021-12-23 15:04:25.958198,-33
2021-12-23 15:04:25.958210,-45
2021-12-23 15:04:25.958220,-50
2021-12-23 15:04:25.958230,-55
2021-12-23 15:04:25.958239,-83
2021-12-23 15:04:25.958249,-93
2021-12-23 15:04:25.958259,-74
2021-12-23 15:04:25.958268,-71
2021-12-23 15:04:25.958278,-78
2021-12-23 15:04:25.958288,-64
2021-12-23 15:04:25.958297,-47
2021-12-23 15:04:25.958307,-40
2021-12-23 15:04:25.958317,-57
2021-12-23 15:04:25.958327,-95
2021-12-23 15:04:25.958336,-98
2021-12-23 15:04:25.958346,-71
2021-12-23 15:04:25.958356,-59
2021-12-23 15:04:25.958365,-59
2021-12-23 15:04:25.958375,-69
2021-12-23 15:04:25.958385,-95
2021-12-23 15:04:25.958394,-98
2021-12-23 15:04:25.958404,-74
2021-12-23 15:04:25.958413,-59
2021-12-23 15:04:25.958423,-55
2021-12-23 15:04:25.958433,-64
2021-12-23 15:04:25.958443,-95
2021-12-23 15:04:25.958452,-112
2021-12-23 15:04:25.958462,-102
2021-12-23 15:04:25.958472,-110
2021-12-23 15:04:26.139191,-119
2021-12-23 15:04:26.139222,-122
2021-12-23 15:04:26.139234,-141
2021-12-23 15:04:26.139244,-150
2021-12-23 15:04:26.139254,-129
2021-12-23 15:04:26.139263,-105
2021-12-23 15:04:26.139273,-110
2021-12-23 15:04:26.139283,-129
2021-12-23 15:04:26.139293,-136
2021-12-23 15:04:26.139302,-124
2021-12-23 15:04:26.139312,-100
2021-12-23 15:04:26.139322,-88
2021-12-23 15:04:26.139331,-95
2021-12-23 15:04:26.139341,-122
2021-12-23 15:04:26.139351,-133
2021-12-23 15:04:26.139360,-114
2021-12-23 15:04:26.139370,-86
2021-12-23 15:04:26.139380,-52
2021-12-23 15:04:26.139389,-35
2021-12-23 15:04:26.139399,-47
2021-12-23 15:04:26.139409,-55
2021-12-23 15:04:26.139418,-50
2021-12-23 15:04:26.139428,-52
2021-12-23 15:04:26.139437,-52
2021-12-23 15:04:26.139447,-64
2021-12-23 15:04:26.139456,-90
2021-12-23 15:04:26.139466,-90
2021-12-23 15:04:26.139476,-69
2021-12-23 15:04:26.139485,-57
2021-12-23 15:04:26.139495,-43
2021-12-23 15:04:26.319190,-40
2021-12-23 15:04:26.319221,-64
2021-12-23 15:04:26.319232,-88
2021-12-23 15:04:26.319242,-117
2021-12-23 15:04:26.319252,-7
2021-12-23 15:04:26.319262,423
2021-12-23 15:04:26.319271,863
2021-12-23 15:04:26.319281,890
2021-12-23 15:04:26.319291,406
2021-12-23 15:04:26.319300,-282
2021-12-23 15:04:26.319310,-418
2021-12-23 15:04:26.319320,-64
2021-12-23 15:04:26.319330,-28
2021-12-23 15:04:26.319339,-167
2021-12-23 15:04:26.319349,-93
2021-12-23 15:04:26.319359,-33
2021-12-23 15:04:26.319368,-62
2021-12-23 15:04:26.319378,-35
2021-12-23 15:04:26.319387,-11
2021-12-23 15:04:26.319397,-47
2021-12-23 15:04:26.319407,-45
2021-12-23 15:04:26.319416,2
2021-12-23 15:04:26.319426,23
2021-12-23 15:04:26.319435,21
2021-12-23 15:04:26.319445,26
2021-12-23 15:04:26.319454,47
2021-12-23 15:04:26.319464,83
2021-12-23 15:04:26.319474,114
2021-12-23 15:04:26.319483,153
2021-12-23 15:04:26.319493,198
2021-12-23 15:04:26.587876,224
2021-12-23 15:04:26.587898,256
2021-12-23 15:04:26.587906,296
2021-12-23 15:04:26.587913,320
2021-12-23 15:04:26.587919,337
2021-12-23 15:04:26.587926,332
2021-12-23 15:04:26.587932,287
2021-12-23 15:04:26.587939,236
2021-12-23 15:04:26.587945,177
2021-12-23 15:04:26.587952,81
2021-12-23 15:04:26.587958,-4
2021-12-23 15:04:26.587964,-74
2021-12-23 15:04:26.587971,-131
2021-12-23 15:04:26.587977,-148
2021-12-23 15:04:26.587983,-150
2021-12-23 15:04:26.587990,-165
2021-12-23 15:04:26.587996,-167
2021-12-23 15:04:26.588002,-174
2021-12-23 15:04:26.588008,-184
2021-12-23 15:04:26.588015,-155
2021-12-23 15:04:26.588021,-129
2021-12-23 15:04:26.588027,-131
2021-12-23 15:04:26.588034,-124
2021-12-23 15:04:26.588040,-114
2021-12-23 15:04:26.588046,-105
2021-12-23 15:04:26.588053,-83
2021-12-23 15:04:26.588059,-76
2021-12-23 15:04:26.588065,-88
2021-12-23 15:04:26.588072,-76
2021-12-23 15:04:26.588078,-47
2021-12-23 15:04:26.769214,-43
2021-12-23 15:04:26.769244,-50
2021-12-23 15:04:26.769256,-50
2021-12-23 15:04:26.769266,-59
2021-12-23 15:04:26.769276,-74
2021-12-23 15:04:26.769293,-86
2021-12-23 15:04:26.769303,-90
2021-12-23 15:04:26.769312,-71
2021-12-23 15:04:26.769322,-57
2021-12-23 15:04:26.769332,-66
2021-12-23 15:04:26.769342,-64
2021-12-23 15:04:26.769352,-45
2021-12-23 15:04:26.769361,-40
2021-12-23 15:04:26.769371,-59
2021-12-23 15:04:26.769381,-78
2021-12-23 15:04:26.769391,-74
2021-12-23 15:04:26.769401,-74
2021-12-23 15:04:26.769410,-95
2021-12-23 15:04:26.769420,-95
2021-12-23 15:04:26.769430,-66
2021-12-23 15:04:26.769439,-57
2021-12-23 15:04:26.769449,-59
2021-12-23 15:04:26.769459,-59
2021-12-23 15:04:26.769468,-66
2021-12-23 15:04:26.769478,-95
2021-12-23 15:04:26.769488,-131
2021-12-23 15:04:26.769497,-141
2021-12-23 15:04:26.769507,-150
2021-12-23 15:04:26.769517,-157
2021-12-23 15:04:26.769527,-126
2021-12-23 15:04:26.949197,-86
2021-12-23 15:04:26.949228,-81
2021-12-23 15:04:26.949240,-90
2021-12-23 15:04:26.949250,-105
2021-12-23 15:04:26.949260,-131
2021-12-23 15:04:26.949269,-155
2021-12-23 15:04:26.949279,-148
2021-12-23 15:04:26.949289,-122
2021-12-23 15:04:26.949299,-112
2021-12-23 15:04:26.949309,-114
2021-12-23 15:04:26.949319,-107
2021-12-23 15:04:26.949328,-90
2021-12-23 15:04:26.949338,-78
2021-12-23 15:04:26.949348,-69
2021-12-23 15:04:26.949358,-71
2021-12-23 15:04:26.949368,-138
2021-12-23 15:04:26.949378,-205
2021-12-23 15:04:26.949387,4
2021-12-23 15:04:26.949397,516
2021-12-23 15:04:26.949407,856
2021-12-23 15:04:26.949417,691
2021-12-23 15:04:26.949427,83
2021-12-23 15:04:26.949437,-435
2021-12-23 15:04:26.949447,-294
2021-12-23 15:04:26.949457,0
2021-12-23 15:04:26.949467,-71
2021-12-23 15:04:26.949477,-124
2021-12-23 15:04:26.949487,-45
2021-12-23 15:04:26.949497,-47
2021-12-23 15:04:26.949506,-59
2021-12-23 15:04:27.263565,-4
2021-12-23 15:04:27.263595,23
2021-12-23 15:04:27.263607,19
2021-12-23 15:04:27.263617,14
2021-12-23 15:04:27.263627,14
2021-12-23 15:04:27.263637,38
2021-12-23 15:04:27.263647,74
2021-12-23 15:04:27.263657,100
2021-12-23 15:04:27.263667,119
2021-12-23 15:04:27.263677,124
2021-12-23 15:04:27.263687,126
2021-12-23 15:04:27.263697,177
2021-12-23 15:04:27.263707,239
2021-12-23 15:04:27.263717,279
2021-12-23 15:04:27.263727,311
2021-12-23 15:04:27.263736,318
2021-12-23 15:04:27.263746,315
2021-12-23 15:04:27.263756,318
2021-12-23 15:04:27.263766,299
2021-12-23 15:04:27.263776,267
2021-12-23 15:04:27.263785,212
2021-12-23 15:04:27.263795,107
2021-12-23 15:04:27.263805,11
2021-12-23 15:04:27.263815,-40
2021-12-23 15:04:27.263824,-86
2021-12-23 15:04:27.263834,-124
2021-12-23 15:04:27.263844,-145
2021-12-23 15:04:27.263854,-162
2021-12-23 15:04:27.263864,-157
2021-12-23 15:04:27.263873,-145
2021-12-23 15:04:27.579338,-160
2021-12-23 15:04:27.579368,-179
2021-12-23 15:04:27.579379,-177
2021-12-23 15:04:27.579390,-174
2021-12-23 15:04:27.579399,-169
2021-12-23 15:04:27.579409,-143
2021-12-23 15:04:27.579419,-119
2021-12-23 15:04:27.579428,-107
2021-12-23 15:04:27.579438,-119
2021-12-23 15:04:27.579447,-143
2021-12-23 15:04:27.579457,-143
2021-12-23 15:04:27.579466,-129
2021-12-23 15:04:27.579476,-117
2021-12-23 15:04:27.579485,-105
2021-12-23 15:04:27.579495,-112
2021-12-23 15:04:27.579505,-136
2021-12-23 15:04:27.579514,-126
2021-12-23 15:04:27.579524,-86
2021-12-23 15:04:27.579534,-78
2021-12-23 15:04:27.579543,-95
2021-12-23 15:04:27.579553,-119
2021-12-23 15:04:27.579562,-124
2021-12-23 15:04:27.579571,-105
2021-12-23 15:04:27.579581,-81
2021-12-23 15:04:27.579590,-74
2021-12-23 15:04:27.579600,-71
2021-12-23 15:04:27.579609,-81
2021-12-23 15:04:27.579619,-83
2021-12-23 15:04:27.579629,-52
2021-12-23 15:04:27.579638,-7
2021-12-23 15:04:27.758492,14
2021-12-23 15:04:27.758512,11
2021-12-23 15:04:27.758520,-19
2021-12-23 15:04:27.758527,-55
2021-12-23 15:04:27.758533,-69
2021-12-23 15:04:27.758539,-86
2021-12-23 15:04:27.758546,-93
2021-12-23 15:04:27.758552,-88
2021-12-23 15:04:27.758558,-112
2021-12-23 15:04:27.758565,-131
2021-12-23 15:04:27.758571,-105
2021-12-23 15:04:27.758577,-88
2021-12-23 15:04:27.758584,-78
2021-12-23 15:04:27.758590,-62
2021-12-23 15:04:27.758597,-78
2021-12-23 15:04:27.758603,-117
2021-12-23 15:04:27.758609,-105
2021-12-23 15:04:27.758615,131
2021-12-23 15:04:27.758622,624
2021-12-23 15:04:27.758628,918
2021-12-23 15:04:27.758635,669
2021-12-23 15:04:27.758641,11
2021-12-23 15:04:27.758647,-442
2021-12-23 15:04:27.758654,-222
2021-12-23 15:04:27.758660,33
2021-12-23 15:04:27.758667,-81
2021-12-23 15:04:27.758673,-107
2021-12-23 15:04:27.758679,-16
2021-12-23 15:04:27.758686,-16
2021-12-23 15:04:27.758692,-16
2021-12-23 15:04:28.027876,23
2021-12-23 15:04:28.027906,16
2021-12-23 15:04:28.027917,-4
2021-12-23 15:04:28.027928,19
2021-12-23 15:04:28.027938,59
2021-12-23 15:04:28.027948,69
2021-12-23 15:04:28.027958,45
2021-12-23 15:04:28.027968,21
2021-12-23 15:04:28.027978,43
2021-12-23 15:04:28.027988,90
2021-12-23 15:04:28.027998,136
2021-12-23 15:04:28.028007,184
2021-12-23 15:04:28.028017,234
2021-12-23 15:04:28.028027,279
2021-12-23 15:04:28.028037,311
2021-12-23 15:04:28.028047,332
2021-12-23 15:04:28.028056,356
2021-12-23 15:04:28.028066,380
2021-12-23 15:04:28.028076,375
2021-12-23 15:04:28.028085,318
2021-12-23 15:04:28.028095,215
2021-12-23 15:04:28.028105,112
2021-12-23 15:04:28.028115,26
2021-12-23 15:04:28.028125,-64
2021-12-23 15:04:28.028134,-162
2021-12-23 15:04:28.028144,-208
2021-12-23 15:04:28.028154,-200
2021-12-23 15:04:28.028164,-196
2021-12-23 15:04:28.028174,-191
2021-12-23 15:04:28.028183,-167
2021-12-23 15:04:28.253571,-155
2021-12-23 15:04:28.253601,-153
2021-12-23 15:04:28.253612,-141
2021-12-23 15:04:28.253622,-133
2021-12-23 15:04:28.253632,-122
2021-12-23 15:04:28.253642,-105
2021-12-23 15:04:28.253651,-117
2021-12-23 15:04:28.253661,-131
2021-12-23 15:04:28.253671,-110
2021-12-23 15:04:28.253681,-90
2021-12-23 15:04:28.253690,-90
2021-12-23 15:04:28.253700,-90
2021-12-23 15:04:28.253710,-95
2021-12-23 15:04:28.253720,-95
2021-12-23 15:04:28.253729,-78
2021-12-23 15:04:28.253739,-66
2021-12-23 15:04:28.253749,-62
2021-12-23 15:04:28.253758,-59
2021-12-23 15:04:28.253768,-71
2021-12-23 15:04:28.253778,-78
2021-12-23 15:04:28.253787,-66
2021-12-23 15:04:28.253797,-59
2021-12-23 15:04:28.253807,-47
2021-12-23 15:04:28.253817,-35
2021-12-23 15:04:28.253827,-64
2021-12-23 15:04:28.253837,-98
2021-12-23 15:04:28.253846,-102
2021-12-23 15:04:28.253856,-86
2021-12-23 15:04:28.253866,-50
2021-12-23 15:04:28.253875,-31
2021-12-23 15:04:28.388812,-45
2021-12-23 15:04:28.388835,-47
2021-12-23 15:04:28.388843,-38
2021-12-23 15:04:28.388850,-59
2021-12-23 15:04:28.388857,-90
2021-12-23 15:04:28.388863,-122
2021-12-23 15:04:28.388870,-160
2021-12-23 15:04:28.388876,-155
2021-12-23 15:04:28.388883,-126
2021-12-23 15:04:28.388889,-122
2021-12-23 15:04:28.388896,-131
2021-12-23 15:04:28.388902,-160
2021-12-23 15:04:28.388908,-191
2021-12-23 15:04:28.388915,-181
2021-12-23 15:04:28.388921,-186
2021-12-23 15:04:28.388928,-98
2021-12-23 15:04:28.388934,320
2021-12-23 15:04:28.388941,763
2021-12-23 15:04:28.388947,748
2021-12-23 15:04:28.388954,279
2021-12-23 15:04:28.388960,-296
2021-12-23 15:04:28.388967,-382
2021-12-23 15:04:28.388973,-35
2021-12-23 15:04:28.388980,-19
2021-12-23 15:04:28.388986,-179
2021-12-23 15:04:28.388992,-86
2021-12-23 15:04:28.388999,-14
2021-12-23 15:04:28.389005,-76
2021-12-23 15:04:28.389012,-69
2021-12-23 15:04:28.389018,-23
2021-12-23 15:04:28.569160,-26
2021-12-23 15:04:28.569191,-4
2021-12-23 15:04:28.569202,35
2021-12-23 15:04:28.569212,47
2021-12-23 15:04:28.569222,59
2021-12-23 15:04:28.569232,76
2021-12-23 15:04:28.569241,98
2021-12-23 15:04:28.569251,143
2021-12-23 15:04:28.569261,193
2021-12-23 15:04:28.569270,227
2021-12-23 15:04:28.569280,246
2021-12-23 15:04:28.569290,263
2021-12-23 15:04:28.569299,294
2021-12-23 15:04:28.569309,334
2021-12-23 15:04:28.569319,351
2021-12-23 15:04:28.569329,351
2021-12-23 15:04:28.569339,337
2021-12-23 15:04:28.569348,287
2021-12-23 15:04:28.569358,210
2021-12-23 15:04:28.569368,129
2021-12-23 15:04:28.569377,45
2021-12-23 15:04:28.569387,-35
2021-12-23 15:04:28.569397,-95
2021-12-23 15:04:28.569406,-136
2021-12-23 15:04:28.569416,-145
2021-12-23 15:04:28.569426,-136
2021-12-23 15:04:28.569436,-136
2021-12-23 15:04:28.569445,-131
2021-12-23 15:04:28.569455,-112
2021-12-23 15:04:28.569465,-112
2021-12-23 15:04:29.064365,-131
2021-12-23 15:04:29.064395,-124
2021-12-23 15:04:29.064407,-102
2021-12-23 15:04:29.064417,-93
2021-12-23 15:04:29.064427,-102
2021-12-23 15:04:29.064437,-114
2021-12-23 15:04:29.064446,-102
2021-12-23 15:04:29.064456,-81
2021-12-23 15:04:29.064466,-74
2021-12-23 15:04:29.064476,-76
2021-12-23 15:04:29.064486,-107
2021-12-23 15:04:29.064495,-141
2021-12-23 15:04:29.064505,-105
2021-12-23 15:04:29.064515,-40
2021-12-23 15:04:29.064525,-40
2021-12-23 15:04:29.064534,-64
2021-12-23 15:04:29.064544,-40
2021-12-23 15:04:29.064554,-26
2021-12-23 15:04:29.064564,-59
2021-12-23 15:04:29.064573,-57
2021-12-23 15:04:29.064583,-23
2021-12-23 15:04:29.064592,-43
2021-12-23 15:04:29.064602,-76
2021-12-23 15:04:29.064612,-50
2021-12-23 15:04:29.064621,2
2021-12-23 15:04:29.064631,19
2021-12-23 15:04:29.064641,9
2021-12-23 15:04:29.064651,-7
2021-12-23 15:04:29.064660,-19
2021-12-23 15:04:29.064670,-11
2021-12-23 15:04:29.288445,-11
2021-12-23 15:04:29.288465,-38
2021-12-23 15:04:29.288472,-66
2021-12-23 15:04:29.288477,-93
2021-12-23 15:04:29.288482,-110
2021-12-23 15:04:29.288488,-83
2021-12-23 15:04:29.288493,-50
2021-12-23 15:04:29.288498,-45
2021-12-23 15:04:29.288503,-43
2021-12-23 15:04:29.288508,-55
2021-12-23 15:04:29.288513,-98
2021-12-23 15:04:29.288518,7
2021-12-23 15:04:29.288523,421
2021-12-23 15:04:29.288529,806
2021-12-23 15:04:29.288534,741
2021-12-23 15:04:29.288539,239
2021-12-23 15:04:29.288544,-344
2021-12-23 15:04:29.288549,-389
2021-12-23 15:04:29.288554,-40
2021-12-23 15:04:29.288560,-19
2021-12-23 15:04:29.288566,-148
2021-12-23 15:04:29.288575,-83
2021-12-23 15:04:29.288607,-43
2021-12-23 15:04:29.288640,-62
2021-12-23 15:04:29.288649,-23
2021-12-23 15:04:29.288655,14
2021-12-23 15:04:29.288661,-2
2021-12-23 15:04:29.288667,-21
2021-12-23 15:04:29.288672,0
2021-12-23 15:04:29.288678,47
2021-12-23 15:04:29.379154,78
2021-12-23 15:04:29.379184,100
2021-12-23 15:04:29.379195,124
2021-12-23 15:04:29.379206,133
2021-12-23 15:04:29.379215,138
2021-12-23 15:04:29.379225,169
2021-12-23 15:04:29.379235,229
2021-12-23 15:04:29.379244,275
2021-12-23 15:04:29.379254,287
2021-12-23 15:04:29.379264,291
2021-12-23 15:04:29.379273,315
2021-12-23 15:04:29.379283,346
2021-12-23 15:04:29.379293,342
2021-12-23 15:04:29.379302,301
2021-12-23 15:04:29.379312,215
2021-12-23 15:04:29.379322,83
2021-12-23 15:04:29.379331,-14
2021-12-23 15:04:29.379341,-64
2021-12-23 15:04:29.379351,-107
2021-12-23 15:04:29.379360,-141
2021-12-23 15:04:29.379370,-160
2021-12-23 15:04:29.379380,-179
2021-12-23 15:04:29.379389,-186
2021-12-23 15:04:29.379399,-205
2021-12-23 15:04:29.379408,-210
2021-12-23 15:04:29.379418,-169
2021-12-23 15:04:29.379428,-150
2021-12-23 15:04:29.379437,-167
2021-12-23 15:04:29.379447,-157
2021-12-23 15:04:29.379457,-124
2021-12-23 15:04:29.559162,-98
2021-12-23 15:04:29.559193,-83
2021-12-23 15:04:29.559205,-88
2021-12-23 15:04:29.559215,-83
2021-12-23 15:04:29.559225,-62
2021-12-23 15:04:29.559235,-57
2021-12-23 15:04:29.559245,-76
2021-12-23 15:04:29.559255,-83
2021-12-23 15:04:29.559265,-100
2021-12-23 15:04:29.559275,-117
2021-12-23 15:04:29.559284,-93
2021-12-23 15:04:29.559294,-64
2021-12-23 15:04:29.559304,-55
2021-12-23 15:04:29.559313,-55
2021-12-23 15:04:29.559323,-81
2021-12-23 15:04:29.559333,-90
2021-12-23 15:04:29.559343,-62
2021-12-23 15:04:29.559352,-52
2021-12-23 15:04:29.559362,-62
2021-12-23 15:04:29.559372,-52
2021-12-23 15:04:29.559381,-55
2021-12-23 15:04:29.559391,-52
2021-12-23 15:04:29.559401,-33
2021-12-23 15:04:29.559410,-23
2021-12-23 15:04:29.559420,-26
2021-12-23 15:04:29.559430,-47
2021-12-23 15:04:29.559440,-93
2021-12-23 15:04:29.559449,-98
2021-12-23 15:04:29.559459,-57
2021-12-23 15:04:29.559469,-38
2021-12-23 15:04:29.739173,-45
2021-12-23 15:04:29.739203,-43
2021-12-23 15:04:29.739215,-40
2021-12-23 15:04:29.739225,-50
2021-12-23 15:04:29.739235,-35
2021-12-23 15:04:29.739245,-4
2021-12-23 15:04:29.739254,-26
2021-12-23 15:04:29.739264,4
2021-12-23 15:04:29.739274,330
2021-12-23 15:04:29.739284,758
2021-12-23 15:04:29.739294,815
2021-12-23 15:04:29.739303,416
2021-12-23 15:04:29.739313,-169
2021-12-23 15:04:29.739323,-358
2021-12-23 15:04:29.739333,-64
2021-12-23 15:04:29.739343,26
2021-12-23 15:04:29.739353,-95
2021-12-23 15:04:29.739362,-45
2021-12-23 15:04:29.739372,-7
2021-12-23 15:04:29.739381,-76
2021-12-23 15:04:29.739391,-78
2021-12-23 15:04:29.739401,-23
2021-12-23 15:04:29.739410,-7
2021-12-23 15:04:29.739420,0
2021-12-23 15:04:29.739430,23
2021-12-23 15:04:29.739439,35
2021-12-23 15:04:29.739449,45
2021-12-23 15:04:29.739459,69
2021-12-23 15:04:29.739469,71
2021-12-23 15:04:29.739478,64
2021-12-23 15:04:30.052840,102
2021-12-23 15:04:30.052871,153
2021-12-23 15:04:30.052883,177
2021-12-23 15:04:30.052893,200
2021-12-23 15:04:30.052903,239
2021-12-23 15:04:30.052913,275
2021-12-23 15:04:30.052923,277
2021-12-23 15:04:30.052932,253
2021-12-23 15:04:30.053022,241
2021-12-23 15:04:30.053034,200
2021-12-23 15:04:30.053044,93
2021-12-23 15:04:30.053053,-14
2021-12-23 15:04:30.053063,-117
2021-12-23 15:04:30.053073,-222
2021-12-23 15:04:30.053083,-272
2021-12-23 15:04:30.053093,-291
2021-12-23 15:04:30.053102,-306
2021-12-23 15:04:30.053112,-296
2021-12-23 15:04:30.053122,-289
2021-12-23 15:04:30.053131,-284
2021-12-23 15:04:30.053141,-270
2021-12-23 15:04:30.053151,-251
2021-12-23 15:04:30.053161,-222
2021-12-23 15:04:30.053170,-196
2021-12-23 15:04:30.053180,-198
2021-12-23 15:04:30.053190,-200
2021-12-23 15:04:30.053199,-179
2021-12-23 15:04:30.053209,-162
2021-12-23 15:04:30.053219,-143
2021-12-23 15:04:30.053228,-126
2021-12-23 15:04:30.234190,-126
2021-12-23 15:04:30.234212,-119
2021-12-23 15:04:30.234219,-95
2021-12-23 15:04:30.234226,-86
2021-12-23 15:04:30.234232,-86
2021-12-23 15:04:30.234239,-83
2021-12-23 15:04:30.234245,-98
2021-12-23 15:04:30.234251,-100
2021-12-23 15:04:30.234257,-81
2021-12-23 15:04:30.234264,-74
2021-12-23 15:04:30.234270,-69
2021-12-23 15:04:30.234276,-62
2021-12-23 15:04:30.234283,-71
2021-12-23 15:04:30.234289,-74
2021-12-23 15:04:30.234295,-57
2021-12-23 15:04:30.234302,-50
2021-12-23 15:04:30.234308,-47
2021-12-23 15:04:30.234314,-59
2021-12-23 15:04:30.234320,-88
2021-12-23 15:04:30.234327,-78
2021-12-23 15:04:30.234333,-50
2021-12-23 15:04:30.234339,-35
2021-12-23 15:04:30.234345,-14
2021-12-23 15:04:30.234352,0
2021-12-23 15:04:30.234358,-16
2021-12-23 15:04:30.234365,-16
2021-12-23 15:04:30.234371,-9
2021-12-23 15:04:30.234377,-23
2021-12-23 15:04:30.234384,-28
2021-12-23 15:04:30.234390,-21
2021-12-23 15:04:30.414167,-16
2021-12-23 15:04:30.414198,-4
2021-12-23 15:04:30.414210,9
2021-12-23 15:04:30.414221,2
2021-12-23 15:04:30.414231,-11
2021-12-23 15:04:30.414241,-33
2021-12-23 15:04:30.414250,-52
2021-12-23 15:04:30.414260,-71
2021-12-23 15:04:30.414270,-59
2021-12-23 15:04:30.414280,203
2021-12-23 15:04:30.414290,689
2021-12-23 15:04:30.414300,880
2021-12-23 15:04:30.414310,559
2021-12-23 15:04:30.414320,-55
2021-12-23 15:04:30.414330,-416
2021-12-23 15:04:30.414341,-179
2021-12-23 15:04:30.414351,16
2021-12-23 15:04:30.414361,-117
2021-12-23 15:04:30.414371,-124
2021-12-23 15:04:30.414380,-21
2021-12-23 15:04:30.414390,-19
2021-12-23 15:04:30.414400,-33
2021-12-23 15:04:30.414410,-7
2021-12-23 15:04:30.414419,4
2021-12-23 15:04:30.414429,28
2021-12-23 15:04:30.414439,71
2021-12-23 15:04:30.414449,90
2021-12-23 15:04:30.414459,90
2021-12-23 15:04:30.414468,112
2021-12-23 15:04:30.414478,141
2021-12-23 15:04:30.684331,172
2021-12-23 15:04:30.684362,205
2021-12-23 15:04:30.684374,236
2021-12-23 15:04:30.684384,256
2021-12-23 15:04:30.684394,260
2021-12-23 15:04:30.684404,275
2021-12-23 15:04:30.684413,318
2021-12-23 15:04:30.684423,356
2021-12-23 15:04:30.684433,361
2021-12-23 15:04:30.684442,339
2021-12-23 15:04:30.684452,296
2021-12-23 15:04:30.684462,227
2021-12-23 15:04:30.684472,138
2021-12-23 15:04:30.684482,40
2021-12-23 15:04:30.684491,-43
2021-12-23 15:04:30.684501,-117
2021-12-23 15:04:30.684511,-181
2021-12-23 15:04:30.684520,-200
2021-12-23 15:04:30.684530,-181
2021-12-23 15:04:30.684540,-169
