Time,ECG
2021-12-23 15:34:10.310126,-43
2021-12-23 15:34:10.310146,-35
2021-12-23 15:34:10.310153,-21
2021-12-23 15:34:10.310158,-21
2021-12-23 15:34:10.310163,-19
2021-12-23 15:34:10.310167,-21
2021-12-23 15:34:10.310172,-57
2021-12-23 15:34:10.310176,-105
2021-12-23 15:34:10.310181,-66
2021-12-23 15:34:10.310185,215
2021-12-23 15:34:10.310190,650
2021-12-23 15:34:10.310194,863
2021-12-23 15:34:10.310201,626
2021-12-23 15:34:10.310209,31
2021-12-23 15:34:10.310216,-311
2021-12-23 15:34:10.310224,-86
2021-12-23 15:34:10.310232,47
2021-12-23 15:34:10.310239,-100
2021-12-23 15:34:10.310244,-107
2021-12-23 15:34:10.310248,-19
2021-12-23 15:34:10.310253,-28
2021-12-23 15:34:10.310257,-40
2021-12-23 15:34:10.310262,-4
2021-12-23 15:34:10.310266,2
2021-12-23 15:34:10.310271,-16
2021-12-23 15:34:10.310275,-21
2021-12-23 15:34:10.310280,-9
2021-12-23 15:34:10.310285,14
2021-12-23 15:34:10.310289,35
2021-12-23 15:34:10.310294,57
2021-12-23 15:34:10.477846,88
2021-12-23 15:34:10.477864,131
2021-12-23 15:34:10.477871,165
2021-12-23 15:34:10.477877,191
2021-12-23 15:34:10.477883,210
2021-12-23 15:34:10.477889,217
2021-12-23 15:34:10.477897,236
2021-12-23 15:34:10.477903,275
2021-12-23 15:34:10.477909,291
2021-12-23 15:34:10.477915,272
2021-12-23 15:34:10.477922,229
2021-12-23 15:34:10.477929,153
2021-12-23 15:34:10.477936,66
2021-12-23 15:34:10.477944,-11
2021-12-23 15:34:10.477952,-88
2021-12-23 15:34:10.477960,-141
2021-12-23 15:34:10.477969,-162
2021-12-23 15:34:10.477978,-177
2021-12-23 15:34:10.477986,-172
2021-12-23 15:34:10.477994,-153
2021-12-23 15:34:10.478002,-141
2021-12-23 15:34:10.478010,-143
2021-12-23 15:34:10.478019,-141
2021-12-23 15:34:10.478028,-129
2021-12-23 15:34:10.478037,-112
2021-12-23 15:34:10.478046,-95
2021-12-23 15:34:10.478055,-83
2021-12-23 15:34:10.478063,-81
2021-12-23 15:34:10.478072,-81
2021-12-23 15:34:10.478083,-74
2021-12-23 15:34:10.793362,-59
2021-12-23 15:34:10.793382,-43
2021-12-23 15:34:10.793390,-33
2021-12-23 15:34:10.793396,-43
2021-12-23 15:34:10.793403,-69
2021-12-23 15:34:10.793409,-76
2021-12-23 15:34:10.793416,-47
2021-12-23 15:34:10.793422,-23
2021-12-23 15:34:10.793428,-23
2021-12-23 15:34:10.793435,-40
2021-12-23 15:34:10.793441,-57
2021-12-23 15:34:10.793447,-52
2021-12-23 15:34:10.793454,-40
2021-12-23 15:34:10.793465,-50
2021-12-23 15:34:10.793471,-57
2021-12-23 15:34:10.793478,-64
2021-12-23 15:34:10.793484,-78
2021-12-23 15:34:10.793490,-71
2021-12-23 15:34:10.793497,-50
2021-12-23 15:34:10.793503,-40
2021-12-23 15:34:10.793510,-38
2021-12-23 15:34:10.793516,-43
2021-12-23 15:34:10.793522,-50
2021-12-23 15:34:10.793529,-38
2021-12-23 15:34:10.793535,-21
2021-12-23 15:34:10.793541,-14
2021-12-23 15:34:10.793548,-9
2021-12-23 15:34:10.793554,-16
2021-12-23 15:34:10.793560,-21
2021-12-23 15:34:10.793569,-11
2021-12-23 15:34:10.973015,-23
2021-12-23 15:34:10.973032,-52
2021-12-23 15:34:10.973038,-52
2021-12-23 15:34:10.973044,-57
2021-12-23 15:34:10.973049,-88
2021-12-23 15:34:10.973054,-90
2021-12-23 15:34:10.973059,-78
2021-12-23 15:34:10.973064,-88
2021-12-23 15:34:10.973069,-98
2021-12-23 15:34:10.973074,-95
2021-12-23 15:34:10.973079,-95
2021-12-23 15:34:10.973084,-81
2021-12-23 15:34:10.973089,-50
2021-12-23 15:34:10.973094,-23
2021-12-23 15:34:10.973099,-19
2021-12-23 15:34:10.973104,-47
2021-12-23 15:34:10.973109,-64
2021-12-23 15:34:10.973118,-62
2021-12-23 15:34:10.973123,-78
2021-12-23 15:34:10.973128,-93
2021-12-23 15:34:10.973133,-95
2021-12-23 15:34:10.973138,-126
2021-12-23 15:34:10.973148,-133
2021-12-23 15:34:10.973153,-93
2021-12-23 15:34:10.973158,-71
2021-12-23 15:34:10.973163,-69
2021-12-23 15:34:10.973168,-47
2021-12-23 15:34:10.973173,-45
2021-12-23 15:34:10.973178,-66
2021-12-23 15:34:10.973183,-88
2021-12-23 15:34:11.198243,-9
2021-12-23 15:34:11.198263,337
2021-12-23 15:34:11.198271,744
2021-12-23 15:34:11.198276,794
2021-12-23 15:34:11.198282,418
2021-12-23 15:34:11.198287,-105
2021-12-23 15:34:11.198293,-236
2021-12-23 15:34:11.198305,11
2021-12-23 15:34:11.198310,40
2021-12-23 15:34:11.198315,-88
2021-12-23 15:34:11.198321,-35
2021-12-23 15:34:11.198326,26
2021-12-23 15:34:11.198331,9
2021-12-23 15:34:11.198336,23
2021-12-23 15:34:11.198341,38
2021-12-23 15:34:11.198346,11
2021-12-23 15:34:11.198351,28
2021-12-23 15:34:11.198357,74
2021-12-23 15:34:11.198362,93
2021-12-23 15:34:11.198367,90
2021-12-23 15:34:11.198372,83
2021-12-23 15:34:11.198378,93
2021-12-23 15:34:11.198383,138
2021-12-23 15:34:11.198388,184
2021-12-23 15:34:11.198393,217
2021-12-23 15:34:11.198398,256
2021-12-23 15:34:11.198403,279
2021-12-23 15:34:11.198408,287
2021-12-23 15:34:11.198413,318
2021-12-23 15:34:11.198419,354
2021-12-23 15:34:11.423608,361
2021-12-23 15:34:11.423629,339
2021-12-23 15:34:11.423636,296
2021-12-23 15:34:11.423643,224
2021-12-23 15:34:11.423649,136
2021-12-23 15:34:11.423656,64
2021-12-23 15:34:11.423662,-11
2021-12-23 15:34:11.423668,-114
2021-12-23 15:34:11.423675,-181
2021-12-23 15:34:11.423681,-184
2021-12-23 15:34:11.423688,-169
2021-12-23 15:34:11.423694,-155
2021-12-23 15:34:11.423700,-131
2021-12-23 15:34:11.423707,-131
2021-12-23 15:34:11.423713,-141
2021-12-23 15:34:11.423720,-131
2021-12-23 15:34:11.423726,-105
2021-12-23 15:34:11.423732,-83
2021-12-23 15:34:11.423739,-69
2021-12-23 15:34:11.423745,-57
2021-12-23 15:34:11.423752,-57
2021-12-23 15:34:11.423758,-71
2021-12-23 15:34:11.423764,-81
2021-12-23 15:34:11.423771,-66
2021-12-23 15:34:11.423784,-43
2021-12-23 15:34:11.423790,-43
2021-12-23 15:34:11.423797,-45
2021-12-23 15:34:11.423803,-35
2021-12-23 15:34:11.423810,-21
2021-12-23 15:34:11.423816,-2
2021-12-23 15:34:11.692985,11
2021-12-23 15:34:11.693004,14
2021-12-23 15:34:11.693012,9
2021-12-23 15:34:11.693018,9
2021-12-23 15:34:11.693024,19
2021-12-23 15:34:11.693031,31
2021-12-23 15:34:11.693037,31
2021-12-23 15:34:11.693043,7
2021-12-23 15:34:11.693049,-11
2021-12-23 15:34:11.693056,-4
2021-12-23 15:34:11.693062,-9
2021-12-23 15:34:11.693068,-31
2021-12-23 15:34:11.693075,-35
2021-12-23 15:34:11.693081,-50
2021-12-23 15:34:11.693087,-52
2021-12-23 15:34:11.693094,-26
2021-12-23 15:34:11.693100,-9
2021-12-23 15:34:11.693107,-16
2021-12-23 15:34:11.693113,-23
2021-12-23 15:34:11.693119,-28
2021-12-23 15:34:11.693126,-40
2021-12-23 15:34:11.693132,-50
2021-12-23 15:34:11.693140,-43
2021-12-23 15:34:11.693147,-40
2021-12-23 15:34:11.693153,-62
2021-12-23 15:34:11.693160,-74
2021-12-23 15:34:11.693166,-66
2021-12-23 15:34:11.693172,-69
2021-12-23 15:34:11.693179,-59
2021-12-23 15:34:11.693185,-38
2021-12-23 15:34:11.962989,-62
2021-12-23 15:34:11.963009,-124
2021-12-23 15:34:11.963017,23
2021-12-23 15:34:11.963023,485
2021-12-23 15:34:11.963030,803
2021-12-23 15:34:11.963036,626
2021-12-23 15:34:11.963043,76
2021-12-23 15:34:11.963049,-392
2021-12-23 15:34:11.963055,-308
2021-12-23 15:34:11.963062,-64
2021-12-23 15:34:11.963068,-117
2021-12-23 15:34:11.963074,-160
2021-12-23 15:34:11.963080,-107
2021-12-23 15:34:11.963086,-122
2021-12-23 15:34:11.963093,-122
2021-12-23 15:34:11.963099,-74
2021-12-23 15:34:11.963105,-57
2021-12-23 15:34:11.963112,-55
2021-12-23 15:34:11.963118,-55
2021-12-23 15:34:11.963124,-47
2021-12-23 15:34:11.963130,-14
2021-12-23 15:34:11.963137,14
2021-12-23 15:34:11.963143,38
2021-12-23 15:34:11.963149,71
2021-12-23 15:34:11.963163,98
2021-12-23 15:34:11.963169,122
2021-12-23 15:34:11.963176,145
2021-12-23 15:34:11.963182,174
2021-12-23 15:34:11.963188,220
2021-12-23 15:34:11.963195,258
2021-12-23 15:34:12.098605,272
2021-12-23 15:34:12.098635,289
2021-12-23 15:34:12.098647,291
2021-12-23 15:34:12.098657,253
2021-12-23 15:34:12.098667,189
2021-12-23 15:34:12.098677,110
2021-12-23 15:34:12.098686,23
2021-12-23 15:34:12.098696,-40
2021-12-23 15:34:12.098706,-78
2021-12-23 15:34:12.098716,-112
2021-12-23 15:34:12.098726,-129
2021-12-23 15:34:12.098736,-141
2021-12-23 15:34:12.098746,-160
2021-12-23 15:34:12.098756,-150
2021-12-23 15:34:12.098765,-122
2021-12-23 15:34:12.098775,-117
2021-12-23 15:34:12.098785,-112
2021-12-23 15:34:12.098795,-102
2021-12-23 15:34:12.098804,-105
2021-12-23 15:34:12.098814,-95
2021-12-23 15:34:12.098824,-78
2021-12-23 15:34:12.098833,-76
2021-12-23 15:34:12.098843,-71
2021-12-23 15:34:12.098853,-69
2021-12-23 15:34:12.098863,-69
2021-12-23 15:34:12.098872,-52
2021-12-23 15:34:12.098882,-35
2021-12-23 15:34:12.098891,-43
2021-12-23 15:34:12.098901,-57
2021-12-23 15:34:12.098910,-59
2021-12-23 15:34:12.367276,-45
2021-12-23 15:34:12.367305,-31
2021-12-23 15:34:12.367317,-23
2021-12-23 15:34:12.367327,-14
2021-12-23 15:34:12.367336,-16
2021-12-23 15:34:12.367346,-33
2021-12-23 15:34:12.367356,-31
2021-12-23 15:34:12.367365,-9
2021-12-23 15:34:12.367375,-2
2021-12-23 15:34:12.367384,-9
2021-12-23 15:34:12.367394,-16
2021-12-23 15:34:12.367403,-31
2021-12-23 15:34:12.367413,-31
2021-12-23 15:34:12.367423,-11
2021-12-23 15:34:12.367432,-2
2021-12-23 15:34:12.367442,-4
2021-12-23 15:34:12.367452,-2
2021-12-23 15:34:12.367461,-4
2021-12-23 15:34:12.367471,-26
2021-12-23 15:34:12.367480,-50
2021-12-23 15:34:12.367490,-40
2021-12-23 15:34:12.367499,-26
2021-12-23 15:34:12.367509,-33
2021-12-23 15:34:12.367518,-28
2021-12-23 15:34:12.367528,-7
2021-12-23 15:34:12.367537,4
2021-12-23 15:34:12.367547,7
2021-12-23 15:34:12.367557,-2
2021-12-23 15:34:12.367567,-23
2021-12-23 15:34:12.367576,-43
2021-12-23 15:34:12.592564,-52
2021-12-23 15:34:12.592583,-52
2021-12-23 15:34:12.592590,-31
2021-12-23 15:34:12.592596,-11
2021-12-23 15:34:12.592603,-26
2021-12-23 15:34:12.592609,-43
2021-12-23 15:34:12.592615,-28
2021-12-23 15:34:12.592622,-9
2021-12-23 15:34:12.592628,-11
2021-12-23 15:34:12.592634,-35
2021-12-23 15:34:12.592647,-62
2021-12-23 15:34:12.592653,-64
2021-12-23 15:34:12.592659,-38
2021-12-23 15:34:12.592666,-23
2021-12-23 15:34:12.592672,-28
2021-12-23 15:34:12.592678,-26
2021-12-23 15:34:12.592684,-21
2021-12-23 15:34:12.592691,-19
2021-12-23 15:34:12.592697,-38
2021-12-23 15:34:12.592703,-86
2021-12-23 15:34:12.592709,23
2021-12-23 15:34:12.592715,418
2021-12-23 15:34:12.592722,756
2021-12-23 15:34:12.592728,729
2021-12-23 15:34:12.592734,299
2021-12-23 15:34:12.592740,-229
2021-12-23 15:34:12.592746,-251
2021-12-23 15:34:12.592753,-4
2021-12-23 15:34:12.592759,-52
2021-12-23 15:34:12.592765,-129
2021-12-23 15:34:12.907999,-38
2021-12-23 15:34:12.908028,-19
2021-12-23 15:34:12.908039,-78
2021-12-23 15:34:12.908049,-98
2021-12-23 15:34:12.908059,-93
2021-12-23 15:34:12.908069,-71
2021-12-23 15:34:12.908078,-28
2021-12-23 15:34:12.908088,-2
2021-12-23 15:34:12.908098,4
2021-12-23 15:34:12.908108,4
2021-12-23 15:34:12.908118,11
2021-12-23 15:34:12.908127,50
2021-12-23 15:34:12.908137,90
2021-12-23 15:34:12.908147,124
2021-12-23 15:34:12.908157,157
2021-12-23 15:34:12.908166,179
2021-12-23 15:34:12.908176,200
2021-12-23 15:34:12.908186,248
2021-12-23 15:34:12.908196,287
2021-12-23 15:34:12.908206,301
2021-12-23 15:34:12.908215,301
2021-12-23 15:34:12.908225,270
2021-12-23 15:34:12.908235,212
2021-12-23 15:34:12.908245,138
2021-12-23 15:34:12.908254,33
2021-12-23 15:34:12.908272,-55
2021-12-23 15:34:12.908283,-93
2021-12-23 15:34:12.908292,-136
2021-12-23 15:34:12.908302,-167
2021-12-23 15:34:12.908312,-153
2021-12-23 15:34:13.043614,-136
2021-12-23 15:34:13.043645,-126
2021-12-23 15:34:13.043657,-119
2021-12-23 15:34:13.043667,-133
2021-12-23 15:34:13.043677,-150
2021-12-23 15:34:13.043687,-131
2021-12-23 15:34:13.043696,-102
2021-12-23 15:34:13.043706,-88
2021-12-23 15:34:13.043716,-100
2021-12-23 15:34:13.043726,-117
2021-12-23 15:34:13.043736,-112
2021-12-23 15:34:13.043745,-98
2021-12-23 15:34:13.043755,-93
2021-12-23 15:34:13.043765,-81
2021-12-23 15:34:13.043775,-76
2021-12-23 15:34:13.043784,-102
2021-12-23 15:34:13.043794,-93
2021-12-23 15:34:13.043804,-45
2021-12-23 15:34:13.043815,-26
2021-12-23 15:34:13.043824,-23
2021-12-23 15:34:13.043834,-33
2021-12-23 15:34:13.043844,-55
2021-12-23 15:34:13.043853,-40
2021-12-23 15:34:13.043863,-21
2021-12-23 15:34:13.043873,-35
2021-12-23 15:34:13.043883,-40
2021-12-23 15:34:13.043892,-33
2021-12-23 15:34:13.043902,-40
2021-12-23 15:34:13.043912,-33
2021-12-23 15:34:13.043922,-16
2021-12-23 15:34:13.358932,-7
2021-12-23 15:34:13.358962,-4
2021-12-23 15:34:13.358972,-16
2021-12-23 15:34:13.358981,-28
2021-12-23 15:34:13.358990,-14
2021-12-23 15:34:13.358999,9
2021-12-23 15:34:13.359009,14
2021-12-23 15:34:13.359021,-2
2021-12-23 15:34:13.359036,-31
2021-12-23 15:34:13.359047,-45
2021-12-23 15:34:13.359059,-33
2021-12-23 15:34:13.359072,-23
2021-12-23 15:34:13.359086,-26
2021-12-23 15:34:13.359100,-31
2021-12-23 15:34:13.359113,-57
2021-12-23 15:34:13.359128,-78
2021-12-23 15:34:13.359153,-71
2021-12-23 15:34:13.359166,-64
2021-12-23 15:34:13.359179,-76
2021-12-23 15:34:13.359192,-81
2021-12-23 15:34:13.359205,-81
2021-12-23 15:34:13.359217,-110
2021-12-23 15:34:13.359231,-148
2021-12-23 15:34:13.359243,-11
2021-12-23 15:34:13.359256,397
2021-12-23 15:34:13.359270,729
2021-12-23 15:34:13.359282,641
2021-12-23 15:34:13.359294,174
2021-12-23 15:34:13.359306,-277
2021-12-23 15:34:13.359317,-253
2021-12-23 15:34:13.493631,-59
2021-12-23 15:34:13.493660,-114
2021-12-23 15:34:13.493671,-153
2021-12-23 15:34:13.493681,-83
2021-12-23 15:34:13.493691,-83
2021-12-23 15:34:13.493701,-90
2021-12-23 15:34:13.493710,-50
2021-12-23 15:34:13.493720,-28
2021-12-23 15:34:13.493730,-35
2021-12-23 15:34:13.493739,-23
2021-12-23 15:34:13.493749,11
2021-12-23 15:34:13.493759,40
2021-12-23 15:34:13.493769,47
2021-12-23 15:34:13.493778,43
2021-12-23 15:34:13.493788,64
2021-12-23 15:34:13.493798,114
2021-12-23 15:34:13.493808,157
2021-12-23 15:34:13.493817,200
2021-12-23 15:34:13.493827,239
2021-12-23 15:34:13.493837,258
2021-12-23 15:34:13.493847,279
2021-12-23 15:34:13.493856,311
2021-12-23 15:34:13.493866,325
2021-12-23 15:34:13.493876,322
2021-12-23 15:34:13.493885,287
2021-12-23 15:34:13.493895,200
2021-12-23 15:34:13.493904,105
2021-12-23 15:34:13.493914,28
2021-12-23 15:34:13.493924,-35
2021-12-23 15:34:13.493933,-81
2021-12-23 15:34:13.763612,-105
2021-12-23 15:34:13.763642,-126
2021-12-23 15:34:13.763653,-133
2021-12-23 15:34:13.763663,-126
2021-12-23 15:34:13.763673,-117
2021-12-23 15:34:13.763682,-102
2021-12-23 15:34:13.763692,-112
2021-12-23 15:34:13.763702,-129
2021-12-23 15:34:13.763711,-117
2021-12-23 15:34:13.763721,-105
2021-12-23 15:34:13.763730,-119
2021-12-23 15:34:13.763740,-131
2021-12-23 15:34:13.763749,-136
2021-12-23 15:34:13.763768,-141
2021-12-23 15:34:13.763778,-129
2021-12-23 15:34:13.763787,-107
2021-12-23 15:34:13.763797,-98
2021-12-23 15:34:13.763806,-88
2021-12-23 15:34:13.763816,-83
2021-12-23 15:34:13.763825,-76
2021-12-23 15:34:13.763835,-59
2021-12-23 15:34:13.763844,-47
2021-12-23 15:34:13.763854,-38
2021-12-23 15:34:13.763863,-31
2021-12-23 15:34:13.763873,-23
2021-12-23 15:34:13.763882,-11
2021-12-23 15:34:13.763892,-2
2021-12-23 15:34:13.763901,-11
2021-12-23 15:34:13.763910,-23
2021-12-23 15:34:13.763920,-26
2021-12-23 15:34:13.943627,-23
2021-12-23 15:34:13.943648,-19
2021-12-23 15:34:13.943656,-9
2021-12-23 15:34:13.943662,-9
2021-12-23 15:34:13.943669,-19
2021-12-23 15:34:13.943675,-64
2021-12-23 15:34:13.943681,-117
2021-12-23 15:34:13.943688,-102
2021-12-23 15:34:13.943694,-69
2021-12-23 15:34:13.943700,-76
2021-12-23 15:34:13.943707,-71
2021-12-23 15:34:13.943713,-57
2021-12-23 15:34:13.943719,-71
2021-12-23 15:34:13.943726,-76
2021-12-23 15:34:13.943732,-50
2021-12-23 15:34:13.943739,-43
2021-12-23 15:34:13.943745,-45
2021-12-23 15:34:13.943751,-52
2021-12-23 15:34:13.943757,-69
2021-12-23 15:34:13.943764,-71
2021-12-23 15:34:13.943770,-71
2021-12-23 15:34:13.943776,-81
2021-12-23 15:34:13.943783,-90
2021-12-23 15:34:13.943789,-98
2021-12-23 15:34:13.943795,-90
2021-12-23 15:34:13.943801,-76
2021-12-23 15:34:13.943808,-74
2021-12-23 15:34:13.943814,-81
2021-12-23 15:34:13.943820,-78
2021-12-23 15:34:13.943827,-59
2021-12-23 15:34:14.303714,-33
2021-12-23 15:34:14.303744,-21
2021-12-23 15:34:14.303755,-31
2021-12-23 15:34:14.303765,-50
2021-12-23 15:34:14.303775,-47
2021-12-23 15:34:14.303785,-50
2021-12-23 15:34:14.303794,-62
2021-12-23 15:34:14.303804,-47
2021-12-23 15:34:14.303813,-31
2021-12-23 15:34:14.303823,-33
2021-12-23 15:34:14.303832,-40
2021-12-23 15:34:14.303842,-52
2021-12-23 15:34:14.303852,-52
2021-12-23 15:34:14.303861,-35
2021-12-23 15:34:14.303871,-55
2021-12-23 15:34:14.303880,-129
2021-12-23 15:34:14.303890,-141
2021-12-23 15:34:14.303905,95
2021-12-23 15:34:14.303915,521
2021-12-23 15:34:14.303925,837
2021-12-23 15:34:14.303934,770
2021-12-23 15:34:14.303944,203
2021-12-23 15:34:14.303954,-282
2021-12-23 15:34:14.303964,-107
2021-12-23 15:34:14.303974,90
2021-12-23 15:34:14.303983,-55
2021-12-23 15:34:14.303993,-81
2021-12-23 15:34:14.304003,7
2021-12-23 15:34:14.304013,-14
2021-12-23 15:34:14.304022,-26
2021-12-23 15:34:14.437338,21
2021-12-23 15:34:14.437368,40
2021-12-23 15:34:14.437379,38
2021-12-23 15:34:14.437390,47
2021-12-23 15:34:14.437399,40
2021-12-23 15:34:14.437409,33
2021-12-23 15:34:14.437419,66
2021-12-23 15:34:14.437428,105
2021-12-23 15:34:14.437438,126
2021-12-23 15:34:14.437447,153
2021-12-23 15:34:14.437457,172
2021-12-23 15:34:14.437467,169
2021-12-23 15:34:14.437476,189
2021-12-23 15:34:14.437486,239
2021-12-23 15:34:14.437496,267
2021-12-23 15:34:14.437506,272
2021-12-23 15:34:14.437516,272
2021-12-23 15:34:14.437525,265
2021-12-23 15:34:14.437535,248
2021-12-23 15:34:14.437545,210
2021-12-23 15:34:14.437554,138
2021-12-23 15:34:14.437564,45
2021-12-23 15:34:14.437574,-33
2021-12-23 15:34:14.437583,-81
2021-12-23 15:34:14.437593,-100
2021-12-23 15:34:14.437603,-107
2021-12-23 15:34:14.437612,-110
2021-12-23 15:34:14.437622,-126
2021-12-23 15:34:14.437631,-150
2021-12-23 15:34:14.437641,-138
2021-12-23 15:34:14.663338,-105
2021-12-23 15:34:14.663359,-90
2021-12-23 15:34:14.663366,-90
2021-12-23 15:34:14.663373,-105
2021-12-23 15:34:14.663379,-122
2021-12-23 15:34:14.663385,-107
2021-12-23 15:34:14.663392,-78
2021-12-23 15:34:14.663398,-69
2021-12-23 15:34:14.663404,-71
2021-12-23 15:34:14.663410,-90
2021-12-23 15:34:14.663417,-107
2021-12-23 15:34:14.663423,-86
2021-12-23 15:34:14.663429,-57
2021-12-23 15:34:14.663435,-50
2021-12-23 15:34:14.663441,-52
2021-12-23 15:34:14.663448,-57
2021-12-23 15:34:14.663454,-57
2021-12-23 15:34:14.663460,-43
2021-12-23 15:34:14.663466,-55
2021-12-23 15:34:14.663473,-81
2021-12-23 15:34:14.663479,-76
2021-12-23 15:34:14.663485,-74
2021-12-23 15:34:14.663491,-81
2021-12-23 15:34:14.663498,-64
2021-12-23 15:34:14.663504,-45
2021-12-23 15:34:14.663510,-40
2021-12-23 15:34:14.663516,-45
2021-12-23 15:34:14.663522,-55
2021-12-23 15:34:14.663528,-52
2021-12-23 15:34:14.663538,-31
2021-12-23 15:34:14.888671,-16
2021-12-23 15:34:14.888701,-7
2021-12-23 15:34:14.888713,-4
2021-12-23 15:34:14.888723,-19
2021-12-23 15:34:14.888733,-19
2021-12-23 15:34:14.888742,4
2021-12-23 15:34:14.888752,14
2021-12-23 15:34:14.888762,19
2021-12-23 15:34:14.888772,11
2021-12-23 15:34:14.888781,-23
2021-12-23 15:34:14.888791,-47
2021-12-23 15:34:14.888801,-33
2021-12-23 15:34:14.888811,-33
2021-12-23 15:34:14.888820,-59
2021-12-23 15:34:14.888830,-81
2021-12-23 15:34:14.888840,-100
2021-12-23 15:34:14.888849,-112
2021-12-23 15:34:14.888859,-131
2021-12-23 15:34:14.888868,-148
2021-12-23 15:34:14.888878,-133
2021-12-23 15:34:14.888887,-133
2021-12-23 15:34:14.888897,-160
2021-12-23 15:34:14.888907,-145
2021-12-23 15:34:14.888916,-107
2021-12-23 15:34:14.888926,-81
2021-12-23 15:34:14.888936,-52
2021-12-23 15:34:14.888946,-47
2021-12-23 15:34:14.888955,-74
2021-12-23 15:34:14.888965,-71
2021-12-23 15:34:14.888975,-45
2021-12-23 15:34:15.113630,-40
2021-12-23 15:34:15.113660,-52
2021-12-23 15:34:15.113671,-59
2021-12-23 15:34:15.113682,-64
2021-12-23 15:34:15.113691,-50
2021-12-23 15:34:15.113701,-26
2021-12-23 15:34:15.113711,-16
2021-12-23 15:34:15.113721,-23
2021-12-23 15:34:15.113730,-45
2021-12-23 15:34:15.113740,-59
2021-12-23 15:34:15.113749,-62
2021-12-23 15:34:15.113759,-95
2021-12-23 15:34:15.113769,-38
2021-12-23 15:34:15.113779,277
2021-12-23 15:34:15.113788,662
2021-12-23 15:34:15.113798,808
2021-12-23 15:34:15.113808,543
2021-12-23 15:34:15.113817,-43
2021-12-23 15:34:15.113827,-270
2021-12-23 15:34:15.113837,-11
2021-12-23 15:34:15.113846,21
2021-12-23 15:34:15.113856,-122
2021-12-23 15:34:15.113866,-76
2021-12-23 15:34:15.113875,-28
2021-12-23 15:34:15.113885,-55
2021-12-23 15:34:15.113895,-33
2021-12-23 15:34:15.113904,-9
2021-12-23 15:34:15.113914,-9
2021-12-23 15:34:15.113923,14
2021-12-23 15:34:15.113933,47
2021-12-23 15:34:15.338372,64
2021-12-23 15:34:15.338394,71
2021-12-23 15:34:15.338402,78
2021-12-23 15:34:15.338408,90
2021-12-23 15:34:15.338415,117
2021-12-23 15:34:15.338421,157
2021-12-23 15:34:15.338428,191
2021-12-23 15:34:15.338434,198
2021-12-23 15:34:15.338440,193
2021-12-23 15:34:15.338446,205
2021-12-23 15:34:15.338453,244
2021-12-23 15:34:15.338459,282
2021-12-23 15:34:15.338465,284
2021-12-23 15:34:15.338472,251
2021-12-23 15:34:15.338478,203
2021-12-23 15:34:15.338484,160
2021-12-23 15:34:15.338491,107
2021-12-23 15:34:15.338497,33
2021-12-23 15:34:15.338504,-31
2021-12-23 15:34:15.338510,-71
2021-12-23 15:34:15.338521,-100
2021-12-23 15:34:15.338528,-124
2021-12-23 15:34:15.338534,-153
2021-12-23 15:34:15.338540,-177
2021-12-23 15:34:15.338546,-177
2021-12-23 15:34:15.338553,-172
2021-12-23 15:34:15.338559,-165
2021-12-23 15:34:15.338565,-148
2021-12-23 15:34:15.338572,-126
2021-12-23 15:34:15.338578,-112
2021-12-23 15:34:15.563615,-105
2021-12-23 15:34:15.563645,-100
2021-12-23 15:34:15.563657,-90
2021-12-23 15:34:15.563667,-86
2021-12-23 15:34:15.563676,-78
2021-12-23 15:34:15.563686,-62
2021-12-23 15:34:15.563696,-71
2021-12-23 15:34:15.563706,-95
2021-12-23 15:34:15.563715,-90
2021-12-23 15:34:15.563725,-78
2021-12-23 15:34:15.563735,-93
2021-12-23 15:34:15.563745,-100
2021-12-23 15:34:15.563754,-102
2021-12-23 15:34:15.563764,-117
2021-12-23 15:34:15.563774,-105
2021-12-23 15:34:15.563784,-83
2021-12-23 15:34:15.563793,-76
2021-12-23 15:34:15.563803,-69
2021-12-23 15:34:15.563813,-64
2021-12-23 15:34:15.563822,-64
2021-12-23 15:34:15.563832,-57
2021-12-23 15:34:15.563842,-55
2021-12-23 15:34:15.563851,-43
2021-12-23 15:34:15.563861,-21
2021-12-23 15:34:15.563871,-19
2021-12-23 15:34:15.563880,-23
2021-12-23 15:34:15.563890,-31
2021-12-23 15:34:15.563900,-52
2021-12-23 15:34:15.563910,-50
2021-12-23 15:34:15.563919,-28
2021-12-23 15:34:15.788034,-40
2021-12-23 15:34:15.788053,-50
2021-12-23 15:34:15.788061,-40
2021-12-23 15:34:15.788067,-50
2021-12-23 15:34:15.788074,-71
2021-12-23 15:34:15.788080,-90
2021-12-23 15:34:15.788086,-110
2021-12-23 15:34:15.788093,-107
2021-12-23 15:34:15.788099,-86
2021-12-23 15:34:15.788106,-76
2021-12-23 15:34:15.788112,-76
2021-12-23 15:34:15.788118,-81
2021-12-23 15:34:15.788125,-90
2021-12-23 15:34:15.788131,-86
2021-12-23 15:34:15.788138,-71
2021-12-23 15:34:15.788144,-69
2021-12-23 15:34:15.788150,-59
2021-12-23 15:34:15.788157,-50
2021-12-23 15:34:15.788163,-52
2021-12-23 15:34:15.788169,-50
2021-12-23 15:34:15.788176,-33
2021-12-23 15:34:15.788182,-14
2021-12-23 15:34:15.788188,9
2021-12-23 15:34:15.788195,14
2021-12-23 15:34:15.788201,0
2021-12-23 15:34:15.788207,4
2021-12-23 15:34:15.788214,19
2021-12-23 15:34:15.788220,2
2021-12-23 15:34:15.788226,-57
2021-12-23 15:34:15.788233,-98
2021-12-23 15:34:16.013065,-81
2021-12-23 15:34:16.013085,-55
2021-12-23 15:34:16.013093,-52
2021-12-23 15:34:16.013099,-47
2021-12-23 15:34:16.013106,-43
2021-12-23 15:34:16.013112,-57
2021-12-23 15:34:16.013118,-66
2021-12-23 15:34:16.013124,-59
2021-12-23 15:34:16.013130,-90
2021-12-23 15:34:16.013137,-69
2021-12-23 15:34:16.013143,217
2021-12-23 15:34:16.013150,626
2021-12-23 15:34:16.013156,791
2021-12-23 15:34:16.013162,557
2021-12-23 15:34:16.013168,0
2021-12-23 15:34:16.013175,-294
2021-12-23 15:34:16.013181,-74
2021-12-23 15:34:16.013187,28
2021-12-23 15:34:16.013193,-90
2021-12-23 15:34:16.013200,-52
2021-12-23 15:34:16.013206,16
2021-12-23 15:34:16.013212,-11
2021-12-23 15:34:16.013222,-11
2021-12-23 15:34:16.013229,19
2021-12-23 15:34:16.013235,26
2021-12-23 15:34:16.013242,45
2021-12-23 15:34:16.013248,71
2021-12-23 15:34:16.013254,76
2021-12-23 15:34:16.013261,81
2021-12-23 15:34:16.013267,102
2021-12-23 15:34:16.283697,117
2021-12-23 15:34:16.283728,122
2021-12-23 15:34:16.283739,145
2021-12-23 15:34:16.283749,174
2021-12-23 15:34:16.283759,181
2021-12-23 15:34:16.283768,191
2021-12-23 15:34:16.283778,234
2021-12-23 15:34:16.283787,277
2021-12-23 15:34:16.283797,289
2021-12-23 15:34:16.283807,287
2021-12-23 15:34:16.283816,265
2021-12-23 15:34:16.283826,212
2021-12-23 15:34:16.283835,150
2021-12-23 15:34:16.283845,88
2021-12-23 15:34:16.283855,16
2021-12-23 15:34:16.283864,-55
2021-12-23 15:34:16.283874,-110
2021-12-23 15:34:16.283883,-136
2021-12-23 15:34:16.283893,-143
2021-12-23 15:34:16.283902,-143
2021-12-23 15:34:16.283912,-141
2021-12-23 15:34:16.283921,-150
2021-12-23 15:34:16.283931,-155
2021-12-23 15:34:16.283940,-138
2021-12-23 15:34:16.283950,-117
2021-12-23 15:34:16.283959,-100
2021-12-23 15:34:16.283969,-90
2021-12-23 15:34:16.283978,-93
2021-12-23 15:34:16.283988,-95
2021-12-23 15:34:16.283997,-76
2021-12-23 15:34:16.507251,-55
2021-12-23 15:34:16.507294,-47
2021-12-23 15:34:16.507309,-62
2021-12-23 15:34:16.507317,-107
2021-12-23 15:34:16.507323,-153
2021-12-23 15:34:16.507330,-174
2021-12-23 15:34:16.507336,-169
2021-12-23 15:34:16.507342,-157
2021-12-23 15:34:16.507349,-148
2021-12-23 15:34:16.507357,-165
2021-12-23 15:34:16.507364,-181
2021-12-23 15:34:16.507370,-162
2021-12-23 15:34:16.507376,-136
2021-12-23 15:34:16.507383,-124
2021-12-23 15:34:16.507389,-124
2021-12-23 15:34:16.507395,-141
2021-12-23 15:34:16.507401,-157
2021-12-23 15:34:16.507407,-133
2021-12-23 15:34:16.507414,-105
2021-12-23 15:34:16.507420,-95
2021-12-23 15:34:16.507426,-93
2021-12-23 15:34:16.507432,-95
2021-12-23 15:34:16.507438,-95
2021-12-23 15:34:16.507444,-76
2021-12-23 15:34:16.507450,-59
2021-12-23 15:34:16.507457,-52
2021-12-23 15:34:16.507463,-50
2021-12-23 15:34:16.507469,-55
2021-12-23 15:34:16.507475,-47
2021-12-23 15:34:16.507481,-26
2021-12-23 15:34:16.733619,-16
2021-12-23 15:34:16.733649,-19
2021-12-23 15:34:16.733661,-28
2021-12-23 15:34:16.733671,-55
2021-12-23 15:34:16.733681,-74
2021-12-23 15:34:16.733690,-71
2021-12-23 15:34:16.733700,-64
2021-12-23 15:34:16.733710,-52
2021-12-23 15:34:16.733719,-47
2021-12-23 15:34:16.733729,-59
2021-12-23 15:34:16.733738,-35
2021-12-23 15:34:16.733748,0
2021-12-23 15:34:16.733758,-2
2021-12-23 15:34:16.733768,-4
2021-12-23 15:34:16.733777,0
2021-12-23 15:34:16.733787,-11
2021-12-23 15:34:16.733796,-11
2021-12-23 15:34:16.733806,2
2021-12-23 15:34:16.733816,0
2021-12-23 15:34:16.733826,-4
2021-12-23 15:34:16.733835,-4
2021-12-23 15:34:16.733845,-4
2021-12-23 15:34:16.733854,0
2021-12-23 15:34:16.733864,19
2021-12-23 15:34:16.733873,28
2021-12-23 15:34:16.733883,26
2021-12-23 15:34:16.733892,-14
2021-12-23 15:34:16.733902,-21
2021-12-23 15:34:16.733912,217
2021-12-23 15:34:16.733921,643
2021-12-23 15:34:16.958657,813
2021-12-23 15:34:16.958678,547
2021-12-23 15:34:16.958685,45
2021-12-23 15:34:16.958692,-217
2021-12-23 15:34:16.958698,-31
2021-12-23 15:34:16.958710,90
2021-12-23 15:34:16.958716,0
2021-12-23 15:34:16.958723,-7
2021-12-23 15:34:16.958729,7
2021-12-23 15:34:16.958736,-43
2021-12-23 15:34:16.958742,-59
2021-12-23 15:34:16.958748,-31
2021-12-23 15:34:16.958754,-7
2021-12-23 15:34:16.958761,-2
2021-12-23 15:34:16.958767,-11
2021-12-23 15:34:16.958773,-4
2021-12-23 15:34:16.958780,35
2021-12-23 15:34:16.958786,69
2021-12-23 15:34:16.958792,90
2021-12-23 15:34:16.958798,112
2021-12-23 15:34:16.958804,138
2021-12-23 15:34:16.958811,167
2021-12-23 15:34:16.958817,208
2021-12-23 15:34:16.958823,251
2021-12-23 15:34:16.958829,284
2021-12-23 15:34:16.958835,311
2021-12-23 15:34:16.958842,320
2021-12-23 15:34:16.958848,325
2021-12-23 15:34:16.958854,322
2021-12-23 15:34:16.958860,301
2021-12-23 15:34:17.183625,234
2021-12-23 15:34:17.183655,131
2021-12-23 15:34:17.183666,40
2021-12-23 15:34:17.183676,-23
2021-12-23 15:34:17.183686,-69
2021-12-23 15:34:17.183696,-100
2021-12-23 15:34:17.183705,-112
2021-12-23 15:34:17.183715,-148
2021-12-23 15:34:17.183725,-203
2021-12-23 15:34:17.183734,-217
2021-12-23 15:34:17.183744,-189
2021-12-23 15:34:17.183753,-153
2021-12-23 15:34:17.183763,-138
2021-12-23 15:34:17.183773,-153
2021-12-23 15:34:17.183782,-167
2021-12-23 15:34:17.183792,-162
2021-12-23 15:34:17.183801,-150
2021-12-23 15:34:17.183811,-136
2021-12-23 15:34:17.183820,-117
2021-12-23 15:34:17.183830,-110
2021-12-23 15:34:17.183840,-112
2021-12-23 15:34:17.183849,-124
2021-12-23 15:34:17.183859,-133
2021-12-23 15:34:17.183868,-126
2021-12-23 15:34:17.183878,-124
2021-12-23 15:34:17.183888,-141
2021-12-23 15:34:17.183897,-138
2021-12-23 15:34:17.183907,-126
2021-12-23 15:34:17.183917,-119
2021-12-23 15:34:17.183926,-107
2021-12-23 15:34:17.498669,-98
2021-12-23 15:34:17.498699,-102
2021-12-23 15:34:17.498711,-100
2021-12-23 15:34:17.498721,-90
2021-12-23 15:34:17.498731,-76
2021-12-23 15:34:17.498740,-62
2021-12-23 15:34:17.498750,-69
2021-12-23 15:34:17.498759,-95
2021-12-23 15:34:17.498769,-93
2021-12-23 15:34:17.498779,-64
2021-12-23 15:34:17.498788,-50
2021-12-23 15:34:17.498798,-59
2021-12-23 15:34:17.498808,-81
2021-12-23 15:34:17.498817,-93
2021-12-23 15:34:17.498827,-83
2021-12-23 15:34:17.498837,-93
2021-12-23 15:34:17.498846,-133
2021-12-23 15:34:17.498856,-136
2021-12-23 15:34:17.498865,-107
2021-12-23 15:34:17.498875,-98
2021-12-23 15:34:17.498885,-98
2021-12-23 15:34:17.498894,-86
2021-12-23 15:34:17.498904,-66
2021-12-23 15:34:17.498913,-50
2021-12-23 15:34:17.498923,-43
2021-12-23 15:34:17.498932,-40
2021-12-23 15:34:17.498942,-59
2021-12-23 15:34:17.498951,-62
2021-12-23 15:34:17.498961,155
2021-12-23 15:34:17.498971,600
2021-12-23 15:34:17.634096,803
2021-12-23 15:34:17.634124,509
2021-12-23 15:34:17.634136,-43
2021-12-23 15:34:17.634147,-327
2021-12-23 15:34:17.634157,-119
2021-12-23 15:34:17.634166,31
2021-12-23 15:34:17.634176,-59
2021-12-23 15:34:17.634186,-38
2021-12-23 15:34:17.634196,33
2021-12-23 15:34:17.634206,16
2021-12-23 15:34:17.634215,23
2021-12-23 15:34:17.634225,71
2021-12-23 15:34:17.634235,81
2021-12-23 15:34:17.634244,66
2021-12-23 15:34:17.634254,83
2021-12-23 15:34:17.634264,112
2021-12-23 15:34:17.634274,131
2021-12-23 15:34:17.634283,138
2021-12-23 15:34:17.634293,138
2021-12-23 15:34:17.634303,162
2021-12-23 15:34:17.634313,208
2021-12-23 15:34:17.634323,244
2021-12-23 15:34:17.634332,270
2021-12-23 15:34:17.634342,289
2021-12-23 15:34:17.634352,301
2021-12-23 15:34:17.634361,330
2021-12-23 15:34:17.634371,356
2021-12-23 15:34:17.634381,356
2021-12-23 15:34:17.634390,346
2021-12-23 15:34:17.634400,315
2021-12-23 15:34:17.858657,239
2021-12-23 15:34:17.858699,153
2021-12-23 15:34:17.858712,66
2021-12-23 15:34:17.858722,-26
2021-12-23 15:34:17.858733,-98
2021-12-23 15:34:17.858743,-145
2021-12-23 15:34:17.858753,-172
2021-12-23 15:34:17.858762,-162
2021-12-23 15:34:17.858772,-153
2021-12-23 15:34:17.858782,-160
2021-12-23 15:34:17.858791,-165
2021-12-23 15:34:17.858801,-179
2021-12-23 15:34:17.858810,-186
2021-12-23 15:34:17.858820,-157
2021-12-23 15:34:17.858830,-141
2021-12-23 15:34:17.858839,-165
2021-12-23 15:34:17.858849,-177
2021-12-23 15:34:17.858859,-169
2021-12-23 15:34:17.858868,-162
2021-12-23 15:34:17.858878,-138
2021-12-23 15:34:17.858887,-117
2021-12-23 15:34:17.858897,-126
2021-12-23 15:34:17.858907,-155
2021-12-23 15:34:17.858917,-169
2021-12-23 15:34:17.858926,-157
2021-12-23 15:34:17.858936,-150
2021-12-23 15:34:17.858946,-150
2021-12-23 15:34:17.858955,-153
2021-12-23 15:34:17.858965,-160
2021-12-23 15:34:17.858975,-157
2021-12-23 15:34:18.083811,-136
2021-12-23 15:34:18.083841,-114
2021-12-23 15:34:18.083853,-110
2021-12-23 15:34:18.083863,-114
2021-12-23 15:34:18.083873,-129
2021-12-23 15:34:18.083883,-141
2021-12-23 15:34:18.083893,-126
2021-12-23 15:34:18.083903,-105
2021-12-23 15:34:18.083913,-102
2021-12-23 15:34:18.083922,-112
2021-12-23 15:34:18.083932,-119
2021-12-23 15:34:18.083942,-122
2021-12-23 15:34:18.083951,-110
2021-12-23 15:34:18.083961,-93
2021-12-23 15:34:18.083971,-78
2021-12-23 15:34:18.083980,-52
2021-12-23 15:34:18.083990,-35
2021-12-23 15:34:18.084000,-45
2021-12-23 15:34:18.084009,-50
2021-12-23 15:34:18.084019,-28
2021-12-23 15:34:18.084028,-21
2021-12-23 15:34:18.084038,-45
2021-12-23 15:34:18.084047,-57
2021-12-23 15:34:18.084057,-45
2021-12-23 15:34:18.084067,-23
2021-12-23 15:34:18.084077,-9
2021-12-23 15:34:18.084086,-4
2021-12-23 15:34:18.084096,-7
2021-12-23 15:34:18.084106,-4
2021-12-23 15:34:18.084116,7
2021-12-23 15:34:18.442820,7
2021-12-23 15:34:18.442835,-31
2021-12-23 15:34:18.442840,19
2021-12-23 15:34:18.442845,320
2021-12-23 15:34:18.442849,696
2021-12-23 15:34:18.442853,801
2021-12-23 15:34:18.442858,504
2021-12-23 15:34:18.442862,-62
2021-12-23 15:34:18.442866,-296
2021-12-23 15:34:18.442871,-52
2021-12-23 15:34:18.442875,21
2021-12-23 15:34:18.442879,-88
2021-12-23 15:34:18.442884,-26
2021-12-23 15:34:18.442888,52
2021-12-23 15:34:18.442892,23
2021-12-23 15:34:18.442897,14
2021-12-23 15:34:18.442901,43
2021-12-23 15:34:18.442905,62
2021-12-23 15:34:18.442910,74
2021-12-23 15:34:18.442914,78
2021-12-23 15:34:18.442918,78
2021-12-23 15:34:18.442923,86
2021-12-23 15:34:18.442927,107
2021-12-23 15:34:18.442931,143
2021-12-23 15:34:18.442936,181
2021-12-23 15:34:18.442940,215
2021-12-23 15:34:18.442945,244
2021-12-23 15:34:18.442949,246
2021-12-23 15:34:18.442953,239
2021-12-23 15:34:18.442958,275
2021-12-23 15:34:18.622234,322
2021-12-23 15:34:18.622254,342
2021-12-23 15:34:18.622262,339
2021-12-23 15:34:18.622268,303
2021-12-23 15:34:18.622276,248
2021-12-23 15:34:18.622283,196
2021-12-23 15:34:18.622289,129
2021-12-23 15:34:18.622296,55
2021-12-23 15:34:18.622302,-14
2021-12-23 15:34:18.622308,-86
2021-12-23 15:34:18.622315,-117
2021-12-23 15:34:18.622321,-100
2021-12-23 15:34:18.622327,-88
2021-12-23 15:34:18.622333,-83
2021-12-23 15:34:18.622340,-86
2021-12-23 15:34:18.622346,-102
2021-12-23 15:34:18.622352,-95
2021-12-23 15:34:18.622359,-66
2021-12-23 15:34:18.622365,-52
2021-12-23 15:34:18.622371,-43
2021-12-23 15:34:18.622378,-40
2021-12-23 15:34:18.622384,-57
2021-12-23 15:34:18.622390,-66
2021-12-23 15:34:18.622397,-43
2021-12-23 15:34:18.622403,-23
2021-12-23 15:34:18.622409,-21
2021-12-23 15:34:18.622416,-43
2021-12-23 15:34:18.622422,-83
2021-12-23 15:34:18.622428,-78
2021-12-23 15:34:18.622434,-47
2021-12-23 15:34:18.803081,-33
2021-12-23 15:34:18.803097,-31
2021-12-23 15:34:18.803103,-33
2021-12-23 15:34:18.803108,-43
2021-12-23 15:34:18.803113,-33
2021-12-23 15:34:18.803119,-11
2021-12-23 15:34:18.803124,-4
2021-12-23 15:34:18.803129,-7
2021-12-23 15:34:18.803134,-28
2021-12-23 15:34:18.803139,-52
2021-12-23 15:34:18.803144,-35
2021-12-23 15:34:18.803157,-11
2021-12-23 15:34:18.803162,-4
2021-12-23 15:34:18.803167,-9
2021-12-23 15:34:18.803173,-31
2021-12-23 15:34:18.803178,-47
2021-12-23 15:34:18.803183,-35
2021-12-23 15:34:18.803188,-23
2021-12-23 15:34:18.803193,-26
2021-12-23 15:34:18.803199,-21
2021-12-23 15:34:18.803204,-19
2021-12-23 15:34:18.803209,-40
2021-12-23 15:34:18.803214,-59
2021-12-23 15:34:18.803219,-66
2021-12-23 15:34:18.803224,-81
2021-12-23 15:34:18.803229,-95
2021-12-23 15:34:18.803234,-105
2021-12-23 15:34:18.803240,-100
2021-12-23 15:34:18.803245,-83
2021-12-23 15:34:18.803250,-69
2021-12-23 15:34:19.028700,-57
2021-12-23 15:34:19.028721,-47
2021-12-23 15:34:19.028729,-69
2021-12-23 15:34:19.028736,-112
2021-12-23 15:34:19.028742,-126
2021-12-23 15:34:19.028748,-136
2021-12-23 15:34:19.028755,-23
2021-12-23 15:34:19.028761,344
2021-12-23 15:34:19.028767,681
2021-12-23 15:34:19.028774,653
2021-12-23 15:34:19.028780,227
2021-12-23 15:34:19.028786,-282
2021-12-23 15:34:19.028793,-313
2021-12-23 15:34:19.028799,-66
2021-12-23 15:34:19.028805,-90
2021-12-23 15:34:19.028812,-155
2021-12-23 15:34:19.028818,-64
2021-12-23 15:34:19.028824,-26
2021-12-23 15:34:19.028830,-45
2021-12-23 15:34:19.028836,-23
2021-12-23 15:34:19.028843,0
2021-12-23 15:34:19.028849,7
2021-12-23 15:34:19.028855,31
2021-12-23 15:34:19.028862,59
2021-12-23 15:34:19.028868,74
2021-12-23 15:34:19.028874,76
2021-12-23 15:34:19.028880,83
2021-12-23 15:34:19.028887,114
2021-12-23 15:34:19.028893,153
2021-12-23 15:34:19.028899,186
2021-12-23 15:34:19.253122,222
2021-12-23 15:34:19.253147,253
2021-12-23 15:34:19.253158,282
2021-12-23 15:34:19.253168,306
2021-12-23 15:34:19.253177,330
2021-12-23 15:34:19.253186,349
2021-12-23 15:34:19.253196,337
2021-12-23 15:34:19.253205,287
2021-12-23 15:34:19.253213,224
2021-12-23 15:34:19.253218,160
2021-12-23 15:34:19.253223,81
2021-12-23 15:34:19.253228,14
2021-12-23 15:34:19.253233,-47
2021-12-23 15:34:19.253238,-107
2021-12-23 15:34:19.253243,-129
2021-12-23 15:34:19.253248,-126
2021-12-23 15:34:19.253253,-122
2021-12-23 15:34:19.253258,-110
2021-12-23 15:34:19.253263,-100
2021-12-23 15:34:19.253268,-100
2021-12-23 15:34:19.253273,-86
2021-12-23 15:34:19.253279,-74
2021-12-23 15:34:19.253284,-69
2021-12-23 15:34:19.253289,-57
2021-12-23 15:34:19.253294,-45
2021-12-23 15:34:19.253299,-40
2021-12-23 15:34:19.253304,-38
2021-12-23 15:34:19.253309,-50
2021-12-23 15:34:19.253314,-62
2021-12-23 15:34:19.253319,-47
2021-12-23 15:34:19.478644,-38
2021-12-23 15:34:19.478674,-35
2021-12-23 15:34:19.478686,-21
2021-12-23 15:34:19.478696,-14
2021-12-23 15:34:19.478705,-9
2021-12-23 15:34:19.478715,-4
2021-12-23 15:34:19.478726,-23
2021-12-23 15:34:19.478735,-45
2021-12-23 15:34:19.478745,-66
2021-12-23 15:34:19.478755,-81
2021-12-23 15:34:19.478765,-62
2021-12-23 15:34:19.478774,-52
2021-12-23 15:34:19.478784,-81
2021-12-23 15:34:19.478794,-86
2021-12-23 15:34:19.478804,-59
2021-12-23 15:34:19.478814,-40
2021-12-23 15:34:19.478823,-19
2021-12-23 15:34:19.478833,-4
2021-12-23 15:34:19.478843,-11
2021-12-23 15:34:19.478853,-11
2021-12-23 15:34:19.478862,-4
2021-12-23 15:34:19.478872,-19
2021-12-23 15:34:19.478882,-47
2021-12-23 15:34:19.478892,-64
2021-12-23 15:34:19.478901,-59
2021-12-23 15:34:19.478911,-45
2021-12-23 15:34:19.478921,-38
2021-12-23 15:34:19.478931,-38
2021-12-23 15:34:19.478941,-38
2021-12-23 15:34:19.478951,-45
2021-12-23 15:34:19.703289,-57
2021-12-23 15:34:19.703309,-74
2021-12-23 15:34:19.703316,-86
2021-12-23 15:34:19.703323,93
2021-12-23 15:34:19.703329,523
2021-12-23 15:34:19.703336,787
2021-12-23 15:34:19.703342,595
2021-12-23 15:34:19.703348,69
2021-12-23 15:34:19.703355,-320
2021-12-23 15:34:19.703361,-177
2021-12-23 15:34:19.703367,16
2021-12-23 15:34:19.703374,-81
2021-12-23 15:34:19.703380,-112
2021-12-23 15:34:19.703386,-28
2021-12-23 15:34:19.703393,-40
2021-12-23 15:34:19.703399,-74
2021-12-23 15:34:19.703405,-55
2021-12-23 15:34:19.703412,-57
2021-12-23 15:34:19.703418,-57
2021-12-23 15:34:19.703424,-19
2021-12-23 15:34:19.703431,2
2021-12-23 15:34:19.703437,9
2021-12-23 15:34:19.703443,31
2021-12-23 15:34:19.703449,55
2021-12-23 15:34:19.703456,81
2021-12-23 15:34:19.703462,122
2021-12-23 15:34:19.703468,160
2021-12-23 15:34:19.703474,184
2021-12-23 15:34:19.703481,212
2021-12-23 15:34:19.703487,241
2021-12-23 15:34:19.928667,260
2021-12-23 15:34:19.928697,265
2021-12-23 15:34:19.928708,253
2021-12-23 15:34:19.928718,236
2021-12-23 15:34:19.928728,189
2021-12-23 15:34:19.928738,100
2021-12-23 15:34:19.928747,21
2021-12-23 15:34:19.928757,-31
2021-12-23 15:34:19.928778,-86
2021-12-23 15:34:19.928788,-136
2021-12-23 15:34:19.928798,-177
2021-12-23 15:34:19.928808,-203
2021-12-23 15:34:19.928817,-191
2021-12-23 15:34:19.928827,-177
2021-12-23 15:34:19.928837,-208
2021-12-23 15:34:19.928847,-234
2021-12-23 15:34:19.928856,-217
2021-12-23 15:34:19.928866,-191
2021-12-23 15:34:19.928876,-177
2021-12-23 15:34:19.928886,-157
2021-12-23 15:34:19.928896,-141
2021-12-23 15:34:19.928906,-136
2021-12-23 15:34:19.928915,-133
2021-12-23 15:34:19.928925,-122
2021-12-23 15:34:19.928935,-98
2021-12-23 15:34:19.928944,-81
2021-12-23 15:34:19.928954,-74
2021-12-23 15:34:19.928964,-74
2021-12-23 15:34:19.928973,-74
2021-12-23 15:34:19.928983,-59
2021-12-23 15:34:20.153618,-40
2021-12-23 15:34:20.153648,-26
2021-12-23 15:34:20.153660,-26
2021-12-23 15:34:20.153670,-59
2021-12-23 15:34:20.153679,-105
2021-12-23 15:34:20.153689,-93
2021-12-23 15:34:20.153698,-57
2021-12-23 15:34:20.153708,-52
2021-12-23 15:34:20.153717,-59
2021-12-23 15:34:20.153727,-69
2021-12-23 15:34:20.153736,-69
2021-12-23 15:34:20.153745,-38
2021-12-23 15:34:20.153755,-11
2021-12-23 15:34:20.153764,-16
2021-12-23 15:34:20.153774,-21
2021-12-23 15:34:20.153783,-28
2021-12-23 15:34:20.153793,-47
2021-12-23 15:34:20.153802,-45
2021-12-23 15:34:20.153812,-23
2021-12-23 15:34:20.153821,-11
2021-12-23 15:34:20.153831,-7
2021-12-23 15:34:20.153840,-11
2021-12-23 15:34:20.153850,-14
2021-12-23 15:34:20.153860,0
2021-12-23 15:34:20.153869,16
2021-12-23 15:34:20.153879,19
2021-12-23 15:34:20.153888,-9
2021-12-23 15:34:20.153898,-31
2021-12-23 15:34:20.153907,174
2021-12-23 15:34:20.153917,612
2021-12-23 15:34:20.467935,839
2021-12-23 15:34:20.467965,595
2021-12-23 15:34:20.467976,40
2021-12-23 15:34:20.467986,-299
2021-12-23 15:34:20.467996,-124
2021-12-23 15:34:20.468006,23
2021-12-23 15:34:20.468016,-83
2021-12-23 15:34:20.468026,-71
2021-12-23 15:34:20.468036,-7
2021-12-23 15:34:20.468045,-55
2021-12-23 15:34:20.468055,-66
2021-12-23 15:34:20.468065,-2
2021-12-23 15:34:20.468075,21
2021-12-23 15:34:20.468084,28
2021-12-23 15:34:20.468094,64
2021-12-23 15:34:20.468104,86
2021-12-23 15:34:20.468113,98
2021-12-23 15:34:20.468123,126
2021-12-23 15:34:20.468133,153
2021-12-23 15:34:20.468142,143
2021-12-23 15:34:20.468152,117
2021-12-23 15:34:20.468161,129
2021-12-23 15:34:20.468171,179
2021-12-23 15:34:20.468181,220
2021-12-23 15:34:20.468190,248
2021-12-23 15:34:20.468200,275
2021-12-23 15:34:20.468209,284
2021-12-23 15:34:20.468219,270
2021-12-23 15:34:20.468229,253
2021-12-23 15:34:20.468238,229
2021-12-23 15:34:20.692106,169
2021-12-23 15:34:20.692136,88
2021-12-23 15:34:20.692147,9
2021-12-23 15:34:20.692158,-57
2021-12-23 15:34:20.692168,-95
2021-12-23 15:34:20.692177,-102
2021-12-23 15:34:20.692187,-112
2021-12-23 15:34:20.692197,-138
2021-12-23 15:34:20.692207,-189
2021-12-23 15:34:20.692216,-210
2021-12-23 15:34:20.692226,-186
2021-12-23 15:34:20.692236,-177
2021-12-23 15:34:20.692245,-181
2021-12-23 15:34:20.692255,-186
2021-12-23 15:34:20.692264,-222
2021-12-23 15:34:20.692274,-244
2021-12-23 15:34:20.692284,-215
2021-12-23 15:34:20.692293,-189
2021-12-23 15:34:20.692303,-186
2021-12-23 15:34:20.692312,-181
2021-12-23 15:34:20.692322,-181
2021-12-23 15:34:20.692332,-184
2021-12-23 15:34:20.692341,-165
2021-12-23 15:34:20.692351,-141
2021-12-23 15:34:20.692360,-136
2021-12-23 15:34:20.692370,-136
2021-12-23 15:34:20.692379,-133
2021-12-23 15:34:20.692389,-126
2021-12-23 15:34:20.692399,-112
2021-12-23 15:34:20.692409,-95
2021-12-23 15:34:20.873702,-83
2021-12-23 15:34:20.873731,-78
2021-12-23 15:34:20.873742,-83
2021-12-23 15:34:20.873752,-90
2021-12-23 15:34:20.873762,-83
2021-12-23 15:34:20.873772,-66
2021-12-23 15:34:20.873781,-52
2021-12-23 15:34:20.873791,-57
2021-12-23 15:34:20.873800,-86
2021-12-23 15:34:20.873810,-98
2021-12-23 15:34:20.873819,-93
2021-12-23 15:34:20.873829,-76
2021-12-23 15:34:20.873838,-57
2021-12-23 15:34:20.873848,-71
2021-12-23 15:34:20.873857,-95
2021-12-23 15:34:20.873867,-81
2021-12-23 15:34:20.873876,-62
2021-12-23 15:34:20.873886,-59
2021-12-23 15:34:20.873895,-40
2021-12-23 15:34:20.873905,-11
2021-12-23 15:34:20.873914,2
2021-12-23 15:34:20.873924,-2
2021-12-23 15:34:20.873934,-2
2021-12-23 15:34:20.873943,2
2021-12-23 15:34:20.873953,2
2021-12-23 15:34:20.873962,-26
2021-12-23 15:34:20.873972,-71
2021-12-23 15:34:20.873982,-78
2021-12-23 15:34:20.873991,-43
2021-12-23 15:34:20.874001,-16
2021-12-23 15:34:21.098640,-19
2021-12-23 15:34:21.098670,-19
2021-12-23 15:34:21.098682,-14
2021-12-23 15:34:21.098692,-9
2021-12-23 15:34:21.098702,-16
2021-12-23 15:34:21.098712,-45
2021-12-23 15:34:21.098721,7
2021-12-23 15:34:21.098731,313
2021-12-23 15:34:21.098741,701
2021-12-23 15:34:21.098751,734
2021-12-23 15:34:21.098761,325
2021-12-23 15:34:21.098771,-179
2021-12-23 15:34:21.098780,-296
2021-12-23 15:34:21.098790,-100
2021-12-23 15:34:21.098800,-55
2021-12-23 15:34:21.098809,-107
2021-12-23 15:34:21.098819,-50
2021-12-23 15:34:21.098829,2
2021-12-23 15:34:21.098839,-9
2021-12-23 15:34:21.098849,-9
2021-12-23 15:34:21.098858,19
2021-12-23 15:34:21.098868,35
2021-12-23 15:34:21.098878,50
2021-12-23 15:34:21.098897,76
2021-12-23 15:34:21.098907,93
2021-12-23 15:34:21.098917,105
2021-12-23 15:34:21.098927,133
2021-12-23 15:34:21.098937,155
2021-12-23 15:34:21.098946,174
2021-12-23 15:34:21.098956,208
2021-12-23 15:34:21.323663,239
2021-12-23 15:34:21.323694,265
2021-12-23 15:34:21.323706,296
2021-12-23 15:34:21.323716,320
2021-12-23 15:34:21.323725,334
2021-12-23 15:34:21.323735,342
2021-12-23 15:34:21.323745,320
2021-12-23 15:34:21.323754,275
2021-12-23 15:34:21.323764,222
2021-12-23 15:34:21.323773,157
2021-12-23 15:34:21.323783,86
2021-12-23 15:34:21.323793,9
2021-12-23 15:34:21.323802,-74
2021-12-23 15:34:21.323812,-136
2021-12-23 15:34:21.323822,-165
2021-12-23 15:34:21.323831,-174
2021-12-23 15:34:21.323841,-167
2021-12-23 15:34:21.323851,-160
2021-12-23 15:34:21.323860,-160
2021-12-23 15:34:21.323870,-148
2021-12-23 15:34:21.323879,-131
2021-12-23 15:34:21.323889,-124
2021-12-23 15:34:21.323898,-114
2021-12-23 15:34:21.323908,-107
2021-12-23 15:34:21.323917,-107
2021-12-23 15:34:21.323927,-95
2021-12-23 15:34:21.323936,-81
2021-12-23 15:34:21.323946,-76
2021-12-23 15:34:21.323956,-78
2021-12-23 15:34:21.323965,-93
2021-12-23 15:34:21.593380,-107
2021-12-23 15:34:21.593400,-122
2021-12-23 15:34:21.593408,-165
2021-12-23 15:34:21.593415,-186
2021-12-23 15:34:21.593421,-165
2021-12-23 15:34:21.593427,-174
2021-12-23 15:34:21.593434,-198
2021-12-23 15:34:21.593440,-167
2021-12-23 15:34:21.593447,-138
2021-12-23 15:34:21.593453,-145
2021-12-23 15:34:21.593460,-145
2021-12-23 15:34:21.593466,-150
2021-12-23 15:34:21.593472,-160
2021-12-23 15:34:21.593479,-138
2021-12-23 15:34:21.593485,-119
2021-12-23 15:34:21.593491,-138
2021-12-23 15:34:21.593498,-157
2021-12-23 15:34:21.593504,-150
2021-12-23 15:34:21.593510,-131
2021-12-23 15:34:21.593517,-114
2021-12-23 15:34:21.593523,-102
2021-12-23 15:34:21.593529,-95
2021-12-23 15:34:21.593536,-88
2021-12-23 15:34:21.593542,-81
2021-12-23 15:34:21.593548,-71
2021-12-23 15:34:21.593554,-55
2021-12-23 15:34:21.593561,-43
2021-12-23 15:34:21.593567,-45
2021-12-23 15:34:21.593573,-43
2021-12-23 15:34:21.593580,-28
2021-12-23 15:34:21.773763,-2
2021-12-23 15:34:21.773803,28
2021-12-23 15:34:21.773815,33
2021-12-23 15:34:21.773825,19
2021-12-23 15:34:21.773835,9
2021-12-23 15:34:21.773844,0
2021-12-23 15:34:21.773871,-7
2021-12-23 15:34:21.773877,0
2021-12-23 15:34:21.773883,4
2021-12-23 15:34:21.773890,-2
2021-12-23 15:34:21.773896,-16
2021-12-23 15:34:21.773902,-26
2021-12-23 15:34:21.773908,-14
2021-12-23 15:34:21.773915,7
2021-12-23 15:34:21.773921,11
2021-12-23 15:34:21.773927,0
2021-12-23 15:34:21.773933,-47
2021-12-23 15:34:21.773940,-105
2021-12-23 15:34:21.773946,47
2021-12-23 15:34:21.773952,478
2021-12-23 15:34:21.773958,770
2021-12-23 15:34:21.773965,590
2021-12-23 15:34:21.773971,76
2021-12-23 15:34:21.773977,-284
2021-12-23 15:34:21.773983,-162
2021-12-23 15:34:21.773990,26
2021-12-23 15:34:21.773996,-21
2021-12-23 15:34:21.774002,-38
2021-12-23 15:34:21.774008,21
2021-12-23 15:34:21.774015,28
2021-12-23 15:34:21.998069,31
2021-12-23 15:34:21.998089,64
2021-12-23 15:34:21.998097,76
2021-12-23 15:34:21.998103,64
2021-12-23 15:34:21.998110,50
2021-12-23 15:34:21.998116,62
2021-12-23 15:34:21.998122,95
2021-12-23 15:34:21.998129,98
2021-12-23 15:34:21.998135,55
2021-12-23 15:34:21.998141,31
2021-12-23 15:34:21.998148,52
2021-12-23 15:34:21.998154,93
2021-12-23 15:34:21.998160,136
2021-12-23 15:34:21.998166,177
2021-12-23 15:34:21.998173,210
2021-12-23 15:34:21.998179,222
2021-12-23 15:34:21.998185,232
2021-12-23 15:34:21.998191,248
2021-12-23 15:34:21.998198,256
2021-12-23 15:34:21.998209,227
2021-12-23 15:34:21.998215,153
2021-12-23 15:34:21.998222,66
2021-12-23 15:34:21.998228,-4
2021-12-23 15:34:21.998234,-50
2021-12-23 15:34:21.998241,-81
2021-12-23 15:34:21.998247,-100
2021-12-23 15:34:21.998253,-117
2021-12-23 15:34:21.998260,-136
2021-12-23 15:34:21.998266,-148
2021-12-23 15:34:21.998272,-148
2021-12-23 15:34:22.357331,-143
2021-12-23 15:34:22.357348,-141
2021-12-23 15:34:22.357354,-160
2021-12-23 15:34:22.357359,-196
2021-12-23 15:34:22.357364,-198
2021-12-23 15:34:22.357369,-165
2021-12-23 15:34:22.357374,-145
2021-12-23 15:34:22.357379,-138
2021-12-23 15:34:22.357384,-138
2021-12-23 15:34:22.357389,-157
2021-12-23 15:34:22.357394,-162
2021-12-23 15:34:22.357399,-133
2021-12-23 15:34:22.357404,-110
2021-12-23 15:34:22.357409,-98
2021-12-23 15:34:22.357414,-93
2021-12-23 15:34:22.357419,-102
2021-12-23 15:34:22.357424,-95
2021-12-23 15:34:22.357429,-69
2021-12-23 15:34:22.357435,-52
2021-12-23 15:34:22.357440,-40
2021-12-23 15:34:22.357445,-28
2021-12-23 15:34:22.357450,-43
2021-12-23 15:34:22.357455,-66
2021-12-23 15:34:22.357460,-55
2021-12-23 15:34:22.357465,-28
2021-12-23 15:34:22.357470,-21
2021-12-23 15:34:22.357475,-31
2021-12-23 15:34:22.357480,-40
2021-12-23 15:34:22.357485,-28
2021-12-23 15:34:22.357490,-7
2021-12-23 15:34:22.493661,4
2021-12-23 15:34:22.493691,7
2021-12-23 15:34:22.493703,0
2021-12-23 15:34:22.493713,-11
2021-12-23 15:34:22.493723,2
2021-12-23 15:34:22.493733,21
2021-12-23 15:34:22.493742,23
2021-12-23 15:34:22.493752,28
2021-12-23 15:34:22.493761,31
2021-12-23 15:34:22.493771,19
2021-12-23 15:34:22.493780,23
2021-12-23 15:34:22.493790,43
2021-12-23 15:34:22.493799,50
2021-12-23 15:34:22.493809,45
2021-12-23 15:34:22.493818,16
2021-12-23 15:34:22.493828,-19
2021-12-23 15:34:22.493837,-9
2021-12-23 15:34:22.493847,33
2021-12-23 15:34:22.493857,62
2021-12-23 15:34:22.493866,71
2021-12-23 15:34:22.493875,43
2021-12-23 15:34:22.493885,4
2021-12-23 15:34:22.493894,16
2021-12-23 15:34:22.493904,31
2021-12-23 15:34:22.493913,2
2021-12-23 15:34:22.493923,-21
2021-12-23 15:34:22.493933,-28
2021-12-23 15:34:22.493942,-31
2021-12-23 15:34:22.493952,-11
2021-12-23 15:34:22.493967,11
2021-12-23 15:34:22.762349,21
2021-12-23 15:34:22.762379,23
2021-12-23 15:34:22.762391,19
2021-12-23 15:34:22.762402,14
2021-12-23 15:34:22.762412,16
2021-12-23 15:34:22.762422,-4
2021-12-23 15:34:22.762432,33
2021-12-23 15:34:22.762442,330
2021-12-23 15:34:22.762452,724
2021-12-23 15:34:22.762462,784
2021-12-23 15:34:22.762472,399
2021-12-23 15:34:22.762482,-107
2021-12-23 15:34:22.762491,-253
2021-12-23 15:34:22.762501,-62
2021-12-23 15:34:22.762511,-28
2021-12-23 15:34:22.762521,-93
2021-12-23 15:34:22.762530,-33
2021-12-23 15:34:22.762540,9
2021-12-23 15:34:22.762550,-4
2021-12-23 15:34:22.762559,7
2021-12-23 15:34:22.762569,23
2021-12-23 15:34:22.762578,28
2021-12-23 15:34:22.762588,45
2021-12-23 15:34:22.762598,71
2021-12-23 15:34:22.762607,98
2021-12-23 15:34:22.762617,114
2021-12-23 15:34:22.762627,114
2021-12-23 15:34:22.762636,122
2021-12-23 15:34:22.762646,155
2021-12-23 15:34:22.762656,196
2021-12-23 15:34:22.943647,224
2021-12-23 15:34:22.943677,251
2021-12-23 15:34:22.943689,279
2021-12-23 15:34:22.943699,301
2021-12-23 15:34:22.943708,306
2021-12-23 15:34:22.943718,306
2021-12-23 15:34:22.943728,296
2021-12-23 15:34:22.943737,248
2021-12-23 15:34:22.943747,193
2021-12-23 15:34:22.943757,145
2021-12-23 15:34:22.943767,71
2021-12-23 15:34:22.943776,-2
2021-12-23 15:34:22.943786,-71
2021-12-23 15:34:22.943796,-143
2021-12-23 15:34:22.943805,-184
2021-12-23 15:34:22.943815,-189
2021-12-23 15:34:22.943825,-184
2021-12-23 15:34:22.943834,-174
2021-12-23 15:34:22.943844,-167
2021-12-23 15:34:22.943854,-184
2021-12-23 15:34:22.943863,-220
2021-12-23 15:34:22.943873,-232
2021-12-23 15:34:22.943882,-198
2021-12-23 15:34:22.943892,-172
2021-12-23 15:34:22.943901,-174
2021-12-23 15:34:22.943911,-169
2021-12-23 15:34:22.943921,-150
2021-12-23 15:34:22.943930,-153
2021-12-23 15:34:22.943940,-167
2021-12-23 15:34:22.943950,-155
2021-12-23 15:34:23.168769,-133
2021-12-23 15:34:23.168789,-124
2021-12-23 15:34:23.168797,-112
2021-12-23 15:34:23.168803,-100
2021-12-23 15:34:23.168810,-88
2021-12-23 15:34:23.168816,-74
2021-12-23 15:34:23.168822,-83
2021-12-23 15:34:23.168828,-93
2021-12-23 15:34:23.168835,-71
2021-12-23 15:34:23.168841,-55
2021-12-23 15:34:23.168847,-52
2021-12-23 15:34:23.168854,-50
2021-12-23 15:34:23.168860,-59
2021-12-23 15:34:23.168866,-66
2021-12-23 15:34:23.168873,-47
2021-12-23 15:34:23.168879,-38
2021-12-23 15:34:23.168885,-35
2021-12-23 15:34:23.168892,-26
2021-12-23 15:34:23.168898,-23
2021-12-23 15:34:23.168904,-19
2021-12-23 15:34:23.168910,-9
2021-12-23 15:34:23.168917,-9
2021-12-23 15:34:23.168923,-7
2021-12-23 15:34:23.168929,7
2021-12-23 15:34:23.168935,19
2021-12-23 15:34:23.168942,21
2021-12-23 15:34:23.168948,23
2021-12-23 15:34:23.168954,19
2021-12-23 15:34:23.168961,26
2021-12-23 15:34:23.168967,45
2021-12-23 15:34:23.393375,52
2021-12-23 15:34:23.393397,52
2021-12-23 15:34:23.393404,50
2021-12-23 15:34:23.393411,40
2021-12-23 15:34:23.393417,43
2021-12-23 15:34:23.393423,31
2021-12-23 15:34:23.393430,-7
2021-12-23 15:34:23.393436,-11
2021-12-23 15:34:23.393442,9
2021-12-23 15:34:23.393448,9
2021-12-23 15:34:23.393454,4
2021-12-23 15:34:23.393460,-2
2021-12-23 15:34:23.393467,-9
2021-12-23 15:34:23.393473,4
2021-12-23 15:34:23.393479,21
2021-12-23 15:34:23.393485,9
2021-12-23 15:34:23.393491,-35
2021-12-23 15:34:23.393498,-78
2021-12-23 15:34:23.393504,74
2021-12-23 15:34:23.393510,516
2021-12-23 15:34:23.393516,835
2021-12-23 15:34:23.393522,648
2021-12-23 15:34:23.393528,98
2021-12-23 15:34:23.393535,-296
2021-12-23 15:34:23.393541,-172
2021-12-23 15:34:23.393547,9
2021-12-23 15:34:23.393553,-81
2021-12-23 15:34:23.393559,-95
2021-12-23 15:34:23.393566,-9
2021-12-23 15:34:23.393572,-19
2021-12-23 15:34:23.663667,-23
2021-12-23 15:34:23.663697,11
2021-12-23 15:34:23.663709,2
2021-12-23 15:34:23.663719,-16
2021-12-23 15:34:23.663728,-4
2021-12-23 15:34:23.663738,0
2021-12-23 15:34:23.663748,11
2021-12-23 15:34:23.663757,43
2021-12-23 15:34:23.663767,50
2021-12-23 15:34:23.663776,50
2021-12-23 15:34:23.663786,59
2021-12-23 15:34:23.663796,62
2021-12-23 15:34:23.663805,100
2021-12-23 15:34:23.663815,157
2021-12-23 15:34:23.663825,186
2021-12-23 15:34:23.663834,200
2021-12-23 15:34:23.663844,220
2021-12-23 15:34:23.663853,229
2021-12-23 15:34:23.663863,234
2021-12-23 15:34:23.663872,222
2021-12-23 15:34:23.663882,172
2021-12-23 15:34:23.663891,88
2021-12-23 15:34:23.663901,4
2021-12-23 15:34:23.663910,-59
2021-12-23 15:34:23.663920,-100
2021-12-23 15:34:23.663930,-122
2021-12-23 15:34:23.663939,-133
2021-12-23 15:34:23.663949,-150
2021-12-23 15:34:23.663959,-160
2021-12-23 15:34:23.663969,-148
2021-12-23 15:34:23.843561,-129
2021-12-23 15:34:23.843605,-110
2021-12-23 15:34:23.843616,-98
2021-12-23 15:34:23.843626,-105
2021-12-23 15:34:23.843636,-124
2021-12-23 15:34:23.843645,-117
2021-12-23 15:34:23.843655,-93
2021-12-23 15:34:23.843664,-78
2021-12-23 15:34:23.843674,-76
2021-12-23 15:34:23.843684,-86
2021-12-23 15:34:23.843693,-105
2021-12-23 15:34:23.843703,-98
2021-12-23 15:34:23.843712,-69
2021-12-23 15:34:23.843722,-52
2021-12-23 15:34:23.843731,-47
2021-12-23 15:34:23.843741,-57
2021-12-23 15:34:23.843750,-76
2021-12-23 15:34:23.843759,-62
2021-12-23 15:34:23.843769,-33
2021-12-23 15:34:23.843778,-23
2021-12-23 15:34:23.843788,-23
2021-12-23 15:34:23.843798,-26
2021-12-23 15:34:23.843807,-31
2021-12-23 15:34:23.843816,-14
2021-12-23 15:34:23.843826,2
2021-12-23 15:34:23.843835,9
2021-12-23 15:34:23.843845,11
2021-12-23 15:34:23.843854,2
2021-12-23 15:34:23.843864,0
2021-12-23 15:34:23.843874,16
2021-12-23 15:34:24.158683,28
2021-12-23 15:34:24.158712,4
2021-12-23 15:34:24.158724,-38
2021-12-23 15:34:24.158734,-62
2021-12-23 15:34:24.158744,-64
2021-12-23 15:34:24.158754,-55
2021-12-23 15:34:24.158763,-57
2021-12-23 15:34:24.158773,-59
2021-12-23 15:34:24.158782,-55
2021-12-23 15:34:24.158792,-71
2021-12-23 15:34:24.158802,-86
2021-12-23 15:34:24.158812,-62
2021-12-23 15:34:24.158821,-47
2021-12-23 15:34:24.158831,-62
2021-12-23 15:34:24.158840,-74
2021-12-23 15:34:24.158850,-76
2021-12-23 15:34:24.158860,-71
2021-12-23 15:34:24.158869,-45
2021-12-23 15:34:24.158879,-16
2021-12-23 15:34:24.158889,-2
2021-12-23 15:34:24.158898,-11
2021-12-23 15:34:24.158908,-26
2021-12-23 15:34:24.158917,-19
2021-12-23 15:34:24.158927,-7
2021-12-23 15:34:24.158937,-9
2021-12-23 15:34:24.158946,-9
2021-12-23 15:34:24.158956,-11
2021-12-23 15:34:24.158966,-21
2021-12-23 15:34:24.158981,-14
2021-12-23 15:34:24.158992,7
2021-12-23 15:34:24.428346,21
2021-12-23 15:34:24.428369,26
2021-12-23 15:34:24.428376,19
2021-12-23 15:34:24.428383,-7
2021-12-23 15:34:24.428390,-64
2021-12-23 15:34:24.428396,-69
2021-12-23 15:34:24.428402,184
2021-12-23 15:34:24.428409,617
2021-12-23 15:34:24.428415,815
2021-12-23 15:34:24.428421,588
2021-12-23 15:34:24.428428,26
2021-12-23 15:34:24.428434,-349
2021-12-23 15:34:24.428440,-160
2021-12-23 15:34:24.428447,9
2021-12-23 15:34:24.428453,-129
2021-12-23 15:34:24.428459,-160
2021-12-23 15:34:24.428466,-74
2021-12-23 15:34:24.428472,-64
2021-12-23 15:34:24.428478,-64
2021-12-23 15:34:24.428485,-31
2021-12-23 15:34:24.428491,-43
2021-12-23 15:34:24.428497,-62
2021-12-23 15:34:24.428503,-28
2021-12-23 15:34:24.428510,9
2021-12-23 15:34:24.428516,23
2021-12-23 15:34:24.428522,40
2021-12-23 15:34:24.428528,59
2021-12-23 15:34:24.428535,83
2021-12-23 15:34:24.428541,126
2021-12-23 15:34:24.428547,167
2021-12-23 15:34:24.608036,203
2021-12-23 15:34:24.608065,236
2021-12-23 15:34:24.608077,256
2021-12-23 15:34:24.608087,267
2021-12-23 15:34:24.608097,291
2021-12-23 15:34:24.608106,308
2021-12-23 15:34:24.608116,279
2021-12-23 15:34:24.608125,205
2021-12-23 15:34:24.608135,131
2021-12-23 15:34:24.608145,59
2021-12-23 15:34:24.608154,-35
2021-12-23 15:34:24.608164,-107
2021-12-23 15:34:24.608174,-133
2021-12-23 15:34:24.608184,-160
2021-12-23 15:34:24.608193,-193
2021-12-23 15:34:24.608203,-198
2021-12-23 15:34:24.608212,-177
2021-12-23 15:34:24.608222,-157
2021-12-23 15:34:24.608232,-145
2021-12-23 15:34:24.608242,-148
2021-12-23 15:34:24.608251,-148
2021-12-23 15:34:24.608261,-131
2021-12-23 15:34:24.608271,-107
2021-12-23 15:34:24.608280,-93
2021-12-23 15:34:24.608290,-83
2021-12-23 15:34:24.608300,-98
2021-12-23 15:34:24.608310,-112
2021-12-23 15:34:24.608319,-98
2021-12-23 15:34:24.608329,-71
2021-12-23 15:34:24.608338,-59
2021-12-23 15:34:24.967240,-57
2021-12-23 15:34:24.967269,-57
2021-12-23 15:34:24.967280,-59
2021-12-23 15:34:24.967290,-55
2021-12-23 15:34:24.967300,-40
2021-12-23 15:34:24.967310,-23
2021-12-23 15:34:24.967320,-26
2021-12-23 15:34:24.967330,-55
2021-12-23 15:34:24.967339,-83
2021-12-23 15:34:24.967349,-74
2021-12-23 15:34:24.967359,-52
2021-12-23 15:34:24.967369,-52
2021-12-23 15:34:24.967378,-81
2021-12-23 15:34:24.967388,-102
2021-12-23 15:34:24.967398,-93
2021-12-23 15:34:24.967408,-76
2021-12-23 15:34:24.967417,-69
2021-12-23 15:34:24.967427,-59
2021-12-23 15:34:24.967437,-50
2021-12-23 15:34:24.967447,-57
2021-12-23 15:34:24.967456,-59
2021-12-23 15:34:24.967466,-45
2021-12-23 15:34:24.967476,-35
2021-12-23 15:34:24.967485,-28
2021-12-23 15:34:24.967495,-23
2021-12-23 15:34:24.967505,-23
2021-12-23 15:34:24.967515,-14
2021-12-23 15:34:24.967525,-4
2021-12-23 15:34:24.967534,-4
2021-12-23 15:34:24.967544,-16
2021-12-23 15:34:25.058097,-28
2021-12-23 15:34:25.058128,-35
2021-12-23 15:34:25.058139,-52
2021-12-23 15:34:25.058149,-64
2021-12-23 15:34:25.058158,-55
2021-12-23 15:34:25.058168,-43
2021-12-23 15:34:25.058177,-55
2021-12-23 15:34:25.058187,-64
2021-12-23 15:34:25.058196,-55
2021-12-23 15:34:25.058206,-47
2021-12-23 15:34:25.058216,-45
2021-12-23 15:34:25.058225,-50
2021-12-23 15:34:25.058234,-78
2021-12-23 15:34:25.058244,-93
2021-12-23 15:34:25.058253,-76
2021-12-23 15:34:25.058263,-66
2021-12-23 15:34:25.058272,-66
2021-12-23 15:34:25.058282,-69
2021-12-23 15:34:25.058291,-76
2021-12-23 15:34:25.058300,-69
2021-12-23 15:34:25.058310,-62
2021-12-23 15:34:25.058319,-74
2021-12-23 15:34:25.058329,-74
2021-12-23 15:34:25.058338,-71
2021-12-23 15:34:25.058348,-88
2021-12-23 15:34:25.058357,-88
2021-12-23 15:34:25.058367,-66
2021-12-23 15:34:25.058376,-57
2021-12-23 15:34:25.058385,-50
2021-12-23 15:34:25.058395,-55
2021-12-23 15:34:25.238776,-100
2021-12-23 15:34:25.238805,-143
2021-12-23 15:34:25.238817,-26
2021-12-23 15:34:25.238828,344
2021-12-23 15:34:25.238838,717
2021-12-23 15:34:25.238847,746
2021-12-23 15:34:25.238857,337
2021-12-23 15:34:25.238867,-184
2021-12-23 15:34:25.238876,-246
2021-12-23 15:34:25.238886,-7
2021-12-23 15:34:25.238895,-14
2021-12-23 15:34:25.238905,-114
2021-12-23 15:34:25.238915,-74
2021-12-23 15:34:25.238924,-33
2021-12-23 15:34:25.238933,-38
2021-12-23 15:34:25.238943,-33
2021-12-23 15:34:25.238952,-31
2021-12-23 15:34:25.238962,-50
2021-12-23 15:34:25.238971,-38
2021-12-23 15:34:25.238981,2
2021-12-23 15:34:25.238990,23
2021-12-23 15:34:25.239000,35
2021-12-23 15:34:25.239009,59
2021-12-23 15:34:25.239019,81
2021-12-23 15:34:25.239048,102
2021-12-23 15:34:25.239057,145
2021-12-23 15:34:25.239067,181
2021-12-23 15:34:25.239076,210
2021-12-23 15:34:25.239086,241
2021-12-23 15:34:25.239096,267
2021-12-23 15:34:25.463676,289
2021-12-23 15:34:25.463705,313
2021-12-23 15:34:25.463717,325
2021-12-23 15:34:25.463727,308
2021-12-23 15:34:25.463737,256
2021-12-23 15:34:25.463747,177
2021-12-23 15:34:25.463757,102
2021-12-23 15:34:25.463766,47
2021-12-23 15:34:25.463776,-7
2021-12-23 15:34:25.463786,-57
2021-12-23 15:34:25.463796,-93
2021-12-23 15:34:25.463806,-119
2021-12-23 15:34:25.463816,-122
2021-12-23 15:34:25.463826,-102
2021-12-23 15:34:25.463836,-95
2021-12-23 15:34:25.463845,-100
2021-12-23 15:34:25.463855,-110
2021-12-23 15:34:25.463865,-138
2021-12-23 15:34:25.463875,-177
2021-12-23 15:34:25.463885,-186
2021-12-23 15:34:25.463954,-160
2021-12-23 15:34:25.463974,-150
2021-12-23 15:34:25.463985,-155
2021-12-23 15:34:25.463995,-141
2021-12-23 15:34:25.464004,-117
2021-12-23 15:34:25.464014,-102
2021-12-23 15:34:25.464024,-93
2021-12-23 15:34:25.464034,-90
2021-12-23 15:34:25.464044,-90
2021-12-23 15:34:25.464053,-78
2021-12-23 15:34:25.688666,-62
2021-12-23 15:34:25.688695,-52
2021-12-23 15:34:25.688707,-50
2021-12-23 15:34:25.688717,-57
2021-12-23 15:34:25.688727,-76
2021-12-23 15:34:25.688737,-76
2021-12-23 15:34:25.688746,-47
2021-12-23 15:34:25.688756,-45
2021-12-23 15:34:25.688766,-66
2021-12-23 15:34:25.688775,-86
2021-12-23 15:34:25.688785,-119
2021-12-23 15:34:25.688795,-136
2021-12-23 15:34:25.688804,-110
2021-12-23 15:34:25.688814,-90
2021-12-23 15:34:25.688824,-95
2021-12-23 15:34:25.688833,-100
2021-12-23 15:34:25.688843,-102
2021-12-23 15:34:25.688853,-93
2021-12-23 15:34:25.688862,-74
2021-12-23 15:34:25.688872,-66
2021-12-23 15:34:25.688882,-83
2021-12-23 15:34:25.688892,-110
2021-12-23 15:34:25.688901,-107
2021-12-23 15:34:25.688911,-76
2021-12-23 15:34:25.688921,-59
2021-12-23 15:34:25.688930,-55
2021-12-23 15:34:25.688940,-47
2021-12-23 15:34:25.688950,-57
2021-12-23 15:34:25.688959,-57
2021-12-23 15:34:25.688969,-35
2021-12-23 15:34:25.958809,-19
2021-12-23 15:34:25.958839,-9
2021-12-23 15:34:25.958851,-11
2021-12-23 15:34:25.958861,-38
2021-12-23 15:34:25.958871,-59
2021-12-23 15:34:25.958881,-38
2021-12-23 15:34:25.958891,-14
2021-12-23 15:34:25.958901,-9
2021-12-23 15:34:25.958910,-4
2021-12-23 15:34:25.958920,-11
2021-12-23 15:34:25.958930,-11
2021-12-23 15:34:25.958940,16
2021-12-23 15:34:25.958950,21
2021-12-23 15:34:25.958959,14
2021-12-23 15:34:25.958969,19
2021-12-23 15:34:25.958979,7
2021-12-23 15:34:25.958989,-4
2021-12-23 15:34:25.958998,7
2021-12-23 15:34:25.959008,26
2021-12-23 15:34:25.959018,33
2021-12-23 15:34:25.959027,28
2021-12-23 15:34:25.959037,21
2021-12-23 15:34:25.959047,9
2021-12-23 15:34:25.959062,-11
2021-12-23 15:34:25.959072,-40
2021-12-23 15:34:25.959082,-55
2021-12-23 15:34:25.959092,-83
2021-12-23 15:34:25.959101,-88
2021-12-23 15:34:25.959111,165
2021-12-23 15:34:25.959121,612
2021-12-23 15:34:26.228167,808
2021-12-23 15:34:26.228197,569
2021-12-23 15:34:26.228209,55
2021-12-23 15:34:26.228219,-258
2021-12-23 15:34:26.228229,-90
2021-12-23 15:34:26.228239,52
2021-12-23 15:34:26.228249,-35
2021-12-23 15:34:26.228259,-38
2021-12-23 15:34:26.228269,2
2021-12-23 15:34:26.228279,-26
2021-12-23 15:34:26.228289,-19
2021-12-23 15:34:26.228299,33
2021-12-23 15:34:26.228308,57
2021-12-23 15:34:26.228318,59
2021-12-23 15:34:26.228328,47
2021-12-23 15:34:26.228338,35
2021-12-23 15:34:26.228347,64
2021-12-23 15:34:26.228357,117
2021-12-23 15:34:26.228367,143
2021-12-23 15:34:26.228377,160
2021-12-23 15:34:26.228386,181
2021-12-23 15:34:26.228396,200
2021-12-23 15:34:26.228406,232
2021-12-23 15:34:26.228415,272
2021-12-23 15:34:26.228425,291
2021-12-23 15:34:26.228435,291
2021-12-23 15:34:26.228445,291
2021-12-23 15:34:26.228454,289
2021-12-23 15:34:26.228464,270
2021-12-23 15:34:26.228474,251
2021-12-23 15:34:26.498728,229
2021-12-23 15:34:26.498758,165
2021-12-23 15:34:26.498770,66
2021-12-23 15:34:26.498780,-9
2021-12-23 15:34:26.498790,-47
2021-12-23 15:34:26.498800,-69
2021-12-23 15:34:26.498809,-86
2021-12-23 15:34:26.498819,-110
2021-12-23 15:34:26.498829,-143
2021-12-23 15:34:26.498838,-148
2021-12-23 15:34:26.498848,-124
2021-12-23 15:34:26.498857,-102
2021-12-23 15:34:26.498867,-86
2021-12-23 15:34:26.498877,-90
2021-12-23 15:34:26.498887,-112
2021-12-23 15:34:26.498896,-105
2021-12-23 15:34:26.498907,-74
2021-12-23 15:34:26.498916,-52
2021-12-23 15:34:26.498926,-50
2021-12-23 15:34:26.498936,-66
2021-12-23 15:34:26.498945,-93
2021-12-23 15:34:26.498955,-100
2021-12-23 15:34:26.498965,-100
2021-12-23 15:34:26.498974,-98
2021-12-23 15:34:26.498984,-78
2021-12-23 15:34:26.498994,-76
2021-12-23 15:34:26.499003,-105
2021-12-23 15:34:26.499013,-129
2021-12-23 15:34:26.499023,-124
2021-12-23 15:34:26.499033,-131
2021-12-23 15:34:26.633734,-148
2021-12-23 15:34:26.633778,-126
2021-12-23 15:34:26.633789,-102
2021-12-23 15:34:26.633799,-100
2021-12-23 15:34:26.633809,-90
2021-12-23 15:34:26.633819,-69
2021-12-23 15:34:26.633828,-64
2021-12-23 15:34:26.633838,-64
2021-12-23 15:34:26.633848,-59
2021-12-23 15:34:26.633857,-52
2021-12-23 15:34:26.633867,-45
2021-12-23 15:34:26.633877,-28
2021-12-23 15:34:26.633886,-14
2021-12-23 15:34:26.633896,-19
2021-12-23 15:34:26.633906,-21
2021-12-23 15:34:26.633916,-11
2021-12-23 15:34:26.633925,-2
2021-12-23 15:34:26.633935,7
2021-12-23 15:34:26.633945,11
2021-12-23 15:34:26.633954,2
2021-12-23 15:34:26.633964,7
2021-12-23 15:34:26.633974,23
2021-12-23 15:34:26.633983,28
2021-12-23 15:34:26.633993,31
2021-12-23 15:34:26.634003,23
2021-12-23 15:34:26.634012,2
2021-12-23 15:34:26.634022,16
2021-12-23 15:34:26.634032,55
2021-12-23 15:34:26.634042,64
2021-12-23 15:34:26.634051,38
2021-12-23 15:34:26.947371,26
2021-12-23 15:34:26.947401,35
2021-12-23 15:34:26.947412,26
2021-12-23 15:34:26.947422,-7
2021-12-23 15:34:26.947431,-31
2021-12-23 15:34:26.947441,-23
2021-12-23 15:34:26.947450,-19
2021-12-23 15:34:26.947460,-14
2021-12-23 15:34:26.947470,4
2021-12-23 15:34:26.947479,11
2021-12-23 15:34:26.947489,9
2021-12-23 15:34:26.947498,19
2021-12-23 15:34:26.947508,11
2021-12-23 15:34:26.947517,-31
2021-12-23 15:34:26.947527,-45
2021-12-23 15:34:26.947536,150
2021-12-23 15:34:26.947546,595
2021-12-23 15:34:26.947555,854
2021-12-23 15:34:26.947565,595
2021-12-23 15:34:26.947575,33
2021-12-23 15:34:26.947585,-275
2021-12-23 15:34:26.947594,-74
2021-12-23 15:34:26.947604,98
2021-12-23 15:34:26.947613,19
2021-12-23 15:34:26.947623,35
2021-12-23 15:34:26.947632,107
2021-12-23 15:34:26.947642,88
2021-12-23 15:34:26.947651,88
2021-12-23 15:34:26.947661,129
2021-12-23 15:34:26.947670,143
2021-12-23 15:34:27.083659,133
2021-12-23 15:34:27.083691,136
2021-12-23 15:34:27.083702,157
2021-12-23 15:34:27.083712,177
2021-12-23 15:34:27.083722,172
2021-12-23 15:34:27.083732,138
2021-12-23 15:34:27.083741,117
2021-12-23 15:34:27.083751,162
2021-12-23 15:34:27.083761,217
2021-12-23 15:34:27.083770,241
2021-12-23 15:34:27.083780,279
2021-12-23 15:34:27.083789,320
2021-12-23 15:34:27.083799,327
2021-12-23 15:34:27.083809,344
2021-12-23 15:34:27.083818,382
2021-12-23 15:34:27.083828,397
2021-12-23 15:34:27.083837,361
2021-12-23 15:34:27.083847,279
2021-12-23 15:34:27.083857,177
2021-12-23 15:34:27.083866,86
2021-12-23 15:34:27.083876,9
2021-12-23 15:34:27.083886,-62
2021-12-23 15:34:27.083895,-110
2021-12-23 15:34:27.083905,-129
2021-12-23 15:34:27.083914,-133
2021-12-23 15:34:27.083924,-122
2021-12-23 15:34:27.083934,-122
2021-12-23 15:34:27.083943,-124
2021-12-23 15:34:27.083953,-110
2021-12-23 15:34:27.083963,-93
2021-12-23 15:34:27.398505,-81
2021-12-23 15:34:27.398527,-74
2021-12-23 15:34:27.398535,-86
2021-12-23 15:34:27.398541,-102
2021-12-23 15:34:27.398548,-110
2021-12-23 15:34:27.398554,-126
2021-12-23 15:34:27.398560,-133
2021-12-23 15:34:27.398567,-110
2021-12-23 15:34:27.398573,-110
2021-12-23 15:34:27.398579,-126
2021-12-23 15:34:27.398585,-141
2021-12-23 15:34:27.398592,-169
2021-12-23 15:34:27.398598,-167
2021-12-23 15:34:27.398604,-122
2021-12-23 15:34:27.398611,-102
2021-12-23 15:34:27.398617,-119
2021-12-23 15:34:27.398623,-119
2021-12-23 15:34:27.398629,-102
2021-12-23 15:34:27.398636,-93
2021-12-23 15:34:27.398642,-86
2021-12-23 15:34:27.398648,-78
2021-12-23 15:34:27.398654,-71
2021-12-23 15:34:27.398660,-52
2021-12-23 15:34:27.398666,-31
2021-12-23 15:34:27.398673,-26
2021-12-23 15:34:27.398679,-31
2021-12-23 15:34:27.398685,-31
2021-12-23 15:34:27.398691,-38
2021-12-23 15:34:27.398697,-55
2021-12-23 15:34:27.398704,-52
2021-12-23 15:34:27.623149,-28
2021-12-23 15:34:27.623170,-14
2021-12-23 15:34:27.623178,-11
2021-12-23 15:34:27.623185,-16
2021-12-23 15:34:27.623191,-23
2021-12-23 15:34:27.623197,-38
2021-12-23 15:34:27.623204,-33
2021-12-23 15:34:27.623210,-19
2021-12-23 15:34:27.623216,-55
2021-12-23 15:34:27.623223,2
2021-12-23 15:34:27.623229,382
2021-12-23 15:34:27.623236,765
2021-12-23 15:34:27.623242,691
2021-12-23 15:34:27.623248,222
2021-12-23 15:34:27.623255,-265
2021-12-23 15:34:27.623261,-306
2021-12-23 15:34:27.623268,-62
2021-12-23 15:34:27.623274,-55
2021-12-23 15:34:27.623280,-110
2021-12-23 15:34:27.623287,-28
2021-12-23 15:34:27.623293,-4
2021-12-23 15:34:27.623299,-43
2021-12-23 15:34:27.623305,-38
2021-12-23 15:34:27.623312,-9
2021-12-23 15:34:27.623318,14
2021-12-23 15:34:27.623324,33
2021-12-23 15:34:27.623331,52
2021-12-23 15:34:27.623337,57
2021-12-23 15:34:27.623343,62
2021-12-23 15:34:27.623350,93
2021-12-23 15:34:27.848706,136
2021-12-23 15:34:27.848736,169
2021-12-23 15:34:27.848747,205
2021-12-23 15:34:27.848757,234
2021-12-23 15:34:27.848767,258
2021-12-23 15:34:27.848776,301
2021-12-23 15:34:27.848785,339
2021-12-23 15:34:27.848795,344
2021-12-23 15:34:27.848804,339
2021-12-23 15:34:27.848814,330
2021-12-23 15:34:27.848823,291
2021-12-23 15:34:27.848832,234
2021-12-23 15:34:27.848842,160
2021-12-23 15:34:27.848851,66
2021-12-23 15:34:27.848861,-21
2021-12-23 15:34:27.848871,-98
2021-12-23 15:34:27.848880,-143
2021-12-23 15:34:27.848890,-145
2021-12-23 15:34:27.848899,-138
2021-12-23 15:34:27.848909,-131
2021-12-23 15:34:27.848918,-131
2021-12-23 15:34:27.848928,-143
2021-12-23 15:34:27.848937,-133
2021-12-23 15:34:27.848946,-102
2021-12-23 15:34:27.848956,-88
2021-12-23 15:34:27.848965,-86
2021-12-23 15:34:27.848975,-86
2021-12-23 15:34:27.848984,-102
2021-12-23 15:34:27.848994,-117
2021-12-23 15:34:27.849003,-105
2021-12-23 15:34:28.028672,-88
2021-12-23 15:34:28.028702,-78
2021-12-23 15:34:28.028714,-76
2021-12-23 15:34:28.028724,-86
2021-12-23 15:34:28.028734,-81
2021-12-23 15:34:28.028744,-57
2021-12-23 15:34:28.028753,-40
2021-12-23 15:34:28.028763,-33
2021-12-23 15:34:28.028773,-38
2021-12-23 15:34:28.028783,-55
2021-12-23 15:34:28.028792,-55
2021-12-23 15:34:28.028802,-33
2021-12-23 15:34:28.028812,-21
2021-12-23 15:34:28.028821,-19
2021-12-23 15:34:28.028832,-38
2021-12-23 15:34:28.028842,-71
2021-12-23 15:34:28.028852,-95
2021-12-23 15:34:28.028867,-107
2021-12-23 15:34:28.028878,-102
2021-12-23 15:34:28.028887,-100
2021-12-23 15:34:28.028897,-145
2021-12-23 15:34:28.028907,-189
2021-12-23 15:34:28.028916,-179
2021-12-23 15:34:28.028926,-143
2021-12-23 15:34:28.028936,-117
2021-12-23 15:34:28.028945,-110
2021-12-23 15:34:28.028955,-122
2021-12-23 15:34:28.028965,-133
2021-12-23 15:34:28.028975,-124
2021-12-23 15:34:28.028984,-114
2021-12-23 15:34:28.298687,-114
2021-12-23 15:34:28.298716,-105
2021-12-23 15:34:28.298728,-102
2021-12-23 15:34:28.298738,-107
2021-12-23 15:34:28.298748,-98
2021-12-23 15:34:28.298758,-76
2021-12-23 15:34:28.298767,-69
2021-12-23 15:34:28.298777,-81
2021-12-23 15:34:28.298787,-119
2021-12-23 15:34:28.298797,-169
2021-12-23 15:34:28.298806,-114
2021-12-23 15:34:28.298816,212
2021-12-23 15:34:28.298826,643
2021-12-23 15:34:28.298836,768
2021-12-23 15:34:28.298846,421
2021-12-23 15:34:28.298856,-174
2021-12-23 15:34:28.298865,-382
2021-12-23 15:34:28.298875,-102
2021-12-23 15:34:28.298885,-19
2021-12-23 15:34:28.298895,-145
2021-12-23 15:34:28.298905,-112
2021-12-23 15:34:28.298914,-55
2021-12-23 15:34:28.298924,-66
2021-12-23 15:34:28.298934,-47
2021-12-23 15:34:28.298943,-11
2021-12-23 15:34:28.298953,-4
2021-12-23 15:34:28.298963,-2
2021-12-23 15:34:28.298973,19
2021-12-23 15:34:28.298982,43
2021-12-23 15:34:28.298992,71
2021-12-23 15:34:28.702537,98
2021-12-23 15:34:28.702557,122
2021-12-23 15:34:28.702565,141
2021-12-23 15:34:28.702572,167
2021-12-23 15:34:28.702578,205
2021-12-23 15:34:28.702585,251
2021-12-23 15:34:28.702591,277
2021-12-23 15:34:28.702597,279
2021-12-23 15:34:28.702604,279
2021-12-23 15:34:28.702611,303
2021-12-23 15:34:28.702617,318
2021-12-23 15:34:28.702623,308
2021-12-23 15:34:28.702630,260
2021-12-23 15:34:28.702636,165
2021-12-23 15:34:28.702642,62
2021-12-23 15:34:28.702649,-7
2021-12-23 15:34:28.702655,-55
2021-12-23 15:34:28.702662,-88
2021-12-23 15:34:28.702668,-117
2021-12-23 15:34:28.702674,-150
2021-12-23 15:34:28.702681,-155
2021-12-23 15:34:28.702687,-138
2021-12-23 15:34:28.702693,-145
2021-12-23 15:34:28.702700,-169
2021-12-23 15:34:28.702706,-169
2021-12-23 15:34:28.702712,-143
2021-12-23 15:34:28.702719,-131
2021-12-23 15:34:28.702725,-133
2021-12-23 15:34:28.702731,-119
2021-12-23 15:34:28.702738,-90
2021-12-23 15:34:28.882506,-83
2021-12-23 15:34:28.882527,-90
2021-12-23 15:34:28.882534,-83
2021-12-23 15:34:28.882541,-71
2021-12-23 15:34:28.882547,-64
2021-12-23 15:34:28.882553,-52
2021-12-23 15:34:28.882560,-62
2021-12-23 15:34:28.882566,-78
2021-12-23 15:34:28.882572,-66
2021-12-23 15:34:28.882579,-55
2021-12-23 15:34:28.882585,-43
2021-12-23 15:34:28.882591,-23
2021-12-23 15:34:28.882598,-19
2021-12-23 15:34:28.882604,-19
2021-12-23 15:34:28.882610,-19
2021-12-23 15:34:28.882616,-47
2021-12-23 15:34:28.882623,-76
2021-12-23 15:34:28.882629,-74
2021-12-23 15:34:28.882635,-86
2021-12-23 15:34:28.882642,-105
2021-12-23 15:34:28.882648,-88
2021-12-23 15:34:28.882654,-74
2021-12-23 15:34:28.882661,-76
2021-12-23 15:34:28.882667,-66
2021-12-23 15:34:28.882673,-57
2021-12-23 15:34:28.882679,-50
2021-12-23 15:34:28.882686,-40
2021-12-23 15:34:28.882692,-38
2021-12-23 15:34:28.882698,-31
2021-12-23 15:34:28.882705,-28
2021-12-23 15:34:28.972806,-40
2021-12-23 15:34:28.972837,-38
2021-12-23 15:34:28.972849,-21
2021-12-23 15:34:28.972859,-23
2021-12-23 15:34:28.972869,-23
2021-12-23 15:34:28.972878,-9
2021-12-23 15:34:28.972888,-9
2021-12-23 15:34:28.972898,-21
2021-12-23 15:34:28.972907,-31
2021-12-23 15:34:28.972917,-40
2021-12-23 15:34:28.972927,-59
2021-12-23 15:34:28.972936,-81
2021-12-23 15:34:28.972946,-98
2021-12-23 15:34:28.972955,-88
2021-12-23 15:34:28.972965,-74
2021-12-23 15:34:28.972975,-76
2021-12-23 15:34:28.972984,-81
2021-12-23 15:34:28.972994,-86
2021-12-23 15:34:28.973004,-88
2021-12-23 15:34:28.973013,-71
2021-12-23 15:34:28.973023,-59
2021-12-23 15:34:28.973032,-64
2021-12-23 15:34:28.973042,-64
2021-12-23 15:34:28.973052,-57
2021-12-23 15:34:28.973061,-43
2021-12-23 15:34:28.973071,-11
2021-12-23 15:34:28.973081,14
2021-12-23 15:34:28.973090,-4
2021-12-23 15:34:28.973100,-66
2021-12-23 15:34:28.973110,-107
2021-12-23 15:34:29.153708,-98
2021-12-23 15:34:29.153738,-76
2021-12-23 15:34:29.153750,-74
2021-12-23 15:34:29.153760,-83
2021-12-23 15:34:29.153770,-95
2021-12-23 15:34:29.153780,-110
2021-12-23 15:34:29.153790,-107
2021-12-23 15:34:29.153800,-81
2021-12-23 15:34:29.153809,-66
2021-12-23 15:34:29.153819,-66
2021-12-23 15:34:29.153829,-76
2021-12-23 15:34:29.153839,-119
2021-12-23 15:34:29.153849,-162
2021-12-23 15:34:29.153858,-19
2021-12-23 15:34:29.153868,394
2021-12-23 15:34:29.153878,801
2021-12-23 15:34:29.153888,870
2021-12-23 15:34:29.153897,437
2021-12-23 15:34:29.153907,-215
2021-12-23 15:34:29.153918,-330
2021-12-23 15:34:29.153928,-47
2021-12-23 15:34:29.153937,-62
2021-12-23 15:34:29.153947,-174
2021-12-23 15:34:29.153957,-98
2021-12-23 15:34:29.153966,-50
2021-12-23 15:34:29.153976,-66
2021-12-23 15:34:29.153986,-38
2021-12-23 15:34:29.153995,-9
2021-12-23 15:34:29.154005,-11
2021-12-23 15:34:29.154015,2
2021-12-23 15:34:29.423804,35
2021-12-23 15:34:29.423834,59
2021-12-23 15:34:29.423846,78
2021-12-23 15:34:29.423857,86
2021-12-23 15:34:29.423866,81
2021-12-23 15:34:29.423876,88
2021-12-23 15:34:29.423886,133
2021-12-23 15:34:29.423896,186
2021-12-23 15:34:29.423906,217
2021-12-23 15:34:29.423916,236
2021-12-23 15:34:29.423925,239
2021-12-23 15:34:29.423935,253
2021-12-23 15:34:29.423945,287
2021-12-23 15:34:29.423955,311
2021-12-23 15:34:29.423965,306
2021-12-23 15:34:29.423975,270
2021-12-23 15:34:29.423985,200
2021-12-23 15:34:29.423995,126
2021-12-23 15:34:29.424004,66
2021-12-23 15:34:29.424014,14
2021-12-23 15:34:29.424024,-40
2021-12-23 15:34:29.424034,-105
2021-12-23 15:34:29.424044,-141
2021-12-23 15:34:29.424053,-122
2021-12-23 15:34:29.424063,-102
2021-12-23 15:34:29.424073,-95
2021-12-23 15:34:29.424083,-86
2021-12-23 15:34:29.424093,-86
2021-12-23 15:34:29.424103,-88
2021-12-23 15:34:29.424113,-66
2021-12-23 15:34:29.693654,-45
2021-12-23 15:34:29.693692,-31
2021-12-23 15:34:29.693704,-23
2021-12-23 15:34:29.693714,-35
2021-12-23 15:34:29.693723,-69
2021-12-23 15:34:29.693733,-76
2021-12-23 15:34:29.693743,-47
2021-12-23 15:34:29.693752,-31
2021-12-23 15:34:29.693762,-38
2021-12-23 15:34:29.693772,-57
2021-12-23 15:34:29.693782,-69
2021-12-23 15:34:29.693791,-55
2021-12-23 15:34:29.693801,-50
2021-12-23 15:34:29.693810,-64
2021-12-23 15:34:29.693820,-62
2021-12-23 15:34:29.693830,-76
2021-12-23 15:34:29.693839,-98
2021-12-23 15:34:29.693849,-74
2021-12-23 15:34:29.693858,-47
2021-12-23 15:34:29.693868,-45
2021-12-23 15:34:29.693878,-47
2021-12-23 15:34:29.693887,-50
2021-12-23 15:34:29.693897,-59
2021-12-23 15:34:29.693906,-66
2021-12-23 15:34:29.693916,-66
2021-12-23 15:34:29.693925,-52
2021-12-23 15:34:29.693935,-45
2021-12-23 15:34:29.693945,-59
2021-12-23 15:34:29.693955,-55
2021-12-23 15:34:29.693965,-28
2021-12-23 15:34:29.873493,-14
2021-12-23 15:34:29.873514,-14
2021-12-23 15:34:29.873521,-16
2021-12-23 15:34:29.873528,-38
2021-12-23 15:34:29.873534,-55
2021-12-23 15:34:29.873540,-50
2021-12-23 15:34:29.873547,-50
2021-12-23 15:34:29.873553,-64
2021-12-23 15:34:29.873559,-64
2021-12-23 15:34:29.873566,-66
2021-12-23 15:34:29.873572,-76
2021-12-23 15:34:29.873578,-71
2021-12-23 15:34:29.873585,-64
2021-12-23 15:34:29.873591,-59
2021-12-23 15:34:29.873597,-71
2021-12-23 15:34:29.873603,-100
2021-12-23 15:34:29.873610,-90
2021-12-23 15:34:29.873616,-50
2021-12-23 15:34:29.873622,-28
2021-12-23 15:34:29.873629,-26
2021-12-23 15:34:29.873635,-47
2021-12-23 15:34:29.873641,-86
2021-12-23 15:34:29.873647,-86
2021-12-23 15:34:29.873654,-47
2021-12-23 15:34:29.873660,-21
2021-12-23 15:34:29.873666,-26
2021-12-23 15:34:29.873672,-57
2021-12-23 15:34:29.873679,-78
2021-12-23 15:34:29.873685,-50
2021-12-23 15:34:29.873691,-16
2021-12-23 15:34:30.098732,-21
2021-12-23 15:34:30.098762,-35
2021-12-23 15:34:30.098774,-50
2021-12-23 15:34:30.098784,-52
2021-12-23 15:34:30.098794,-33
2021-12-23 15:34:30.098803,-14
2021-12-23 15:34:30.098813,-7
2021-12-23 15:34:30.098823,-9
2021-12-23 15:34:30.098832,-35
2021-12-23 15:34:30.098842,-81
2021-12-23 15:34:30.098852,-138
2021-12-23 15:34:30.098862,-167
2021-12-23 15:34:30.098871,-14
2021-12-23 15:34:30.098881,375
2021-12-23 15:34:30.098890,715
2021-12-23 15:34:30.098900,717
2021-12-23 15:34:30.098909,296
2021-12-23 15:34:30.098919,-236
2021-12-23 15:34:30.098929,-248
2021-12-23 15:34:30.098938,4
2021-12-23 15:34:30.098948,-50
2021-12-23 15:34:30.098958,-138
2021-12-23 15:34:30.098967,-55
2021-12-23 15:34:30.098977,-19
2021-12-23 15:34:30.098986,-40
2021-12-23 15:34:30.098996,-19
2021-12-23 15:34:30.099006,-7
2021-12-23 15:34:30.099015,-23
2021-12-23 15:34:30.099025,-19
2021-12-23 15:34:30.099035,11
2021-12-23 15:34:30.368062,35
2021-12-23 15:34:30.368092,47
2021-12-23 15:34:30.368103,59
2021-12-23 15:34:30.368113,78
2021-12-23 15:34:30.368123,110
2021-12-23 15:34:30.368132,148
2021-12-23 15:34:30.368142,177
2021-12-23 15:34:30.368151,189
2021-12-23 15:34:30.368161,203
2021-12-23 15:34:30.368170,234
2021-12-23 15:34:30.368180,265
2021-12-23 15:34:30.368190,279
2021-12-23 15:34:30.368199,277
2021-12-23 15:34:30.368209,251
2021-12-23 15:34:30.368224,210
2021-12-23 15:34:30.368234,157
2021-12-23 15:34:30.368244,88
2021-12-23 15:34:30.368253,21
2021-12-23 15:34:30.368263,-21
2021-12-23 15:34:30.368273,-57
2021-12-23 15:34:30.368282,-86
2021-12-23 15:34:30.368292,-100
2021-12-23 15:34:30.368301,-100
2021-12-23 15:34:30.368311,-88
2021-12-23 15:34:30.368321,-83
2021-12-23 15:34:30.368330,-88
2021-12-23 15:34:30.368340,-81
2021-12-23 15:34:30.368349,-66
2021-12-23 15:34:30.368359,-59
2021-12-23 15:34:30.368368,-64
2021-12-23 15:34:30.548687,-78
2021-12-23 15:34:30.548717,-74
2021-12-23 15:34:30.548729,-55
2021-12-23 15:34:30.548739,-52
2021-12-23 15:34:30.548749,-45
2021-12-23 15:34:30.548758,-33
2021-12-23 15:34:30.548768,-52
2021-12-23 15:34:30.548778,-83
2021-12-23 15:34:30.548788,-90
2021-12-23 15:34:30.548797,-86
2021-12-23 15:34:30.548807,-74
2021-12-23 15:34:30.548816,-66
2021-12-23 15:34:30.548826,-81
2021-12-23 15:34:30.548836,-95
2021-12-23 15:34:30.548846,-95
2021-12-23 15:34:30.548855,-124
2021-12-23 15:34:30.548865,-150
2021-12-23 15:34:30.548875,-122
2021-12-23 15:34:30.548885,-107
2021-12-23 15:34:30.548894,-119
2021-12-23 15:34:30.548904,-100
2021-12-23 15:34:30.548913,-76
2021-12-23 15:34:30.548923,-69
2021-12-23 15:34:30.548933,-62
2021-12-23 15:34:30.548942,-59
2021-12-23 15:34:30.548952,-55
2021-12-23 15:34:30.548962,-35
2021-12-23 15:34:30.548971,-31
2021-12-23 15:34:30.548981,-43
2021-12-23 15:34:30.548991,-57
2021-12-23 15:34:30.773792,-83
2021-12-23 15:34:30.773823,-117
2021-12-23 15:34:30.773835,-131
2021-12-23 15:34:30.773845,-124
2021-12-23 15:34:30.773855,-110
2021-12-23 15:34:30.773865,-122
2021-12-23 15:34:30.773874,-155
2021-12-23 15:34:30.773884,-153
2021-12-23 15:34:30.773894,-117
2021-12-23 15:34:30.773904,-100
2021-12-23 15:34:30.773914,-95
2021-12-23 15:34:30.773923,-95
2021-12-23 15:34:30.773933,-114
2021-12-23 15:34:30.773943,-110
2021-12-23 15:34:30.773952,-86
2021-12-23 15:34:30.773962,-88
2021-12-23 15:34:30.773971,-88
2021-12-23 15:34:30.773981,-74
2021-12-23 15:34:30.773991,-74
2021-12-23 15:34:30.774000,-81
2021-12-23 15:34:30.774010,-78
2021-12-23 15:34:30.774019,-69
2021-12-23 15:34:30.774029,-55
2021-12-23 15:34:30.774039,-55
2021-12-23 15:34:30.774048,-57
2021-12-23 15:34:30.774058,-35
2021-12-23 15:34:30.774067,-16
2021-12-23 15:34:30.774077,-16
2021-12-23 15:34:30.774087,9
2021-12-23 15:34:30.774096,21
2021-12-23 15:34:31.087410,2
2021-12-23 15:34:31.087441,11
2021-12-23 15:34:31.087452,31
2021-12-23 15:34:31.087463,4
2021-12-23 15:34:31.087473,-35
2021-12-23 15:34:31.087483,-59
2021-12-23 15:34:31.087493,-57
2021-12-23 15:34:31.087502,-28
2021-12-23 15:34:31.087512,-11
2021-12-23 15:34:31.087522,-11
2021-12-23 15:34:31.087532,-19
2021-12-23 15:34:31.087542,-33
2021-12-23 15:34:31.087552,-35
2021-12-23 15:34:31.087562,-35
2021-12-23 15:34:31.087572,-71
2021-12-23 15:34:31.087582,0
2021-12-23 15:34:31.087592,332
2021-12-23 15:34:31.087602,693
2021-12-23 15:34:31.087612,758
2021-12-23 15:34:31.087621,433
2021-12-23 15:34:31.087631,-83
2021-12-23 15:34:31.087641,-253
2021-12-23 15:34:31.087651,-59
2021-12-23 15:34:31.087661,-28
2021-12-23 15:34:31.087671,-105
2021-12-23 15:34:31.087680,-43
2021-12-23 15:34:31.087690,2
2021-12-23 15:34:31.087700,-26
2021-12-23 15:34:31.087710,-16
2021-12-23 15:34:31.087720,14
2021-12-23 15:34:31.223724,26
2021-12-23 15:34:31.223754,40
2021-12-23 15:34:31.223766,62
2021-12-23 15:34:31.223776,74
2021-12-23 15:34:31.223785,86
2021-12-23 15:34:31.223795,93
2021-12-23 15:34:31.223805,95
2021-12-23 15:34:31.223814,129
2021-12-23 15:34:31.223824,165
2021-12-23 15:34:31.223834,177
2021-12-23 15:34:31.223844,172
2021-12-23 15:34:31.223853,191
2021-12-23 15:34:31.223863,236
2021-12-23 15:34:31.223873,270
2021-12-23 15:34:31.223883,282
2021-12-23 15:34:31.223892,277
2021-12-23 15:34:31.223902,251
2021-12-23 15:34:31.223912,217
2021-12-23 15:34:31.223921,189
2021-12-23 15:34:31.223931,138
2021-12-23 15:34:31.223940,74
2021-12-23 15:34:31.223950,9
2021-12-23 15:34:31.223960,-43
2021-12-23 15:34:31.223970,-69
2021-12-23 15:34:31.223979,-83
2021-12-23 15:34:31.223989,-102
2021-12-23 15:34:31.223998,-112
2021-12-23 15:34:31.224008,-114
2021-12-23 15:34:31.224018,-114
2021-12-23 15:34:31.224027,-102
2021-12-23 15:34:31.628090,-83
2021-12-23 15:34:31.628120,-71
2021-12-23 15:34:31.628132,-69
2021-12-23 15:34:31.628142,-88
2021-12-23 15:34:31.628152,-107
2021-12-23 15:34:31.628161,-95
2021-12-23 15:34:31.628171,-83
2021-12-23 15:34:31.628181,-93
2021-12-23 15:34:31.628191,-105
2021-12-23 15:34:31.628200,-124
2021-12-23 15:34:31.628211,-138
2021-12-23 15:34:31.628221,-119
2021-12-23 15:34:31.628230,-78
2021-12-23 15:34:31.628240,-59
2021-12-23 15:34:31.628250,-59
2021-12-23 15:34:31.628260,-71
2021-12-23 15:34:31.628270,-81
2021-12-23 15:34:31.628279,-74
2021-12-23 15:34:31.628289,-66
2021-12-23 15:34:31.628299,-76
2021-12-23 15:34:31.628308,-86
2021-12-23 15:34:31.628318,-95
2021-12-23 15:34:31.628327,-90
2021-12-23 15:34:31.628337,-64
2021-12-23 15:34:31.628347,-52
2021-12-23 15:34:31.628357,-45
2021-12-23 15:34:31.628366,-50
2021-12-23 15:34:31.628376,-86
2021-12-23 15:34:31.628386,-105
2021-12-23 15:34:31.628395,-83
2021-12-23 15:34:31.718647,-64
2021-12-23 15:34:31.718669,-55
2021-12-23 15:34:31.718676,-52
2021-12-23 15:34:31.718682,-57
2021-12-23 15:34:31.718689,-55
2021-12-23 15:34:31.718695,-38
2021-12-23 15:34:31.718702,-14
2021-12-23 15:34:31.718708,4
2021-12-23 15:34:31.718714,7
2021-12-23 15:34:31.718721,-9
2021-12-23 15:34:31.718727,-21
2021-12-23 15:34:31.718734,-4
2021-12-23 15:34:31.718740,21
2021-12-23 15:34:31.718746,28
2021-12-23 15:34:31.718753,11
2021-12-23 15:34:31.718759,-14
2021-12-23 15:34:31.718765,-9
2021-12-23 15:34:31.718772,19
2021-12-23 15:34:31.718778,40
2021-12-23 15:34:31.718784,52
2021-12-23 15:34:31.718791,52
2021-12-23 15:34:31.718797,35
2021-12-23 15:34:31.718803,31
2021-12-23 15:34:31.718809,40
2021-12-23 15:34:31.718816,47
2021-12-23 15:34:31.718822,45
2021-12-23 15:34:31.718828,11
2021-12-23 15:34:31.718835,-21
2021-12-23 15:34:31.718841,-4
2021-12-23 15:34:31.718848,26
2021-12-23 15:34:31.988024,31
2021-12-23 15:34:31.988043,31
2021-12-23 15:34:31.988051,26
2021-12-23 15:34:31.988057,11
2021-12-23 15:34:31.988064,16
2021-12-23 15:34:31.988070,31
2021-12-23 15:34:31.988077,9
2021-12-23 15:34:31.988083,-21
2021-12-23 15:34:31.988089,138
2021-12-23 15:34:31.988096,564
2021-12-23 15:34:31.988103,830
2021-12-23 15:34:31.988109,590
2021-12-23 15:34:31.988115,16
2021-12-23 15:34:31.988122,-330
2021-12-23 15:34:31.988128,-160
2021-12-23 15:34:31.988135,-7
2021-12-23 15:34:31.988141,-83
2021-12-23 15:34:31.988147,-52
2021-12-23 15:34:31.988154,21
2021-12-23 15:34:31.988160,-26
2021-12-23 15:34:31.988166,-71
2021-12-23 15:34:31.988173,-43
2021-12-23 15:34:31.988179,-7
2021-12-23 15:34:31.988185,7
2021-12-23 15:34:31.988192,26
2021-12-23 15:34:31.988198,50
2021-12-23 15:34:31.988205,64
2021-12-23 15:34:31.988211,74
2021-12-23 15:34:31.988217,102
2021-12-23 15:34:31.988224,155
2021-12-23 15:34:32.212398,198
2021-12-23 15:34:32.212419,217
2021-12-23 15:34:32.212426,239
2021-12-23 15:34:32.212433,248
2021-12-23 15:34:32.212439,241
2021-12-23 15:34:32.212446,272
2021-12-23 15:34:32.212452,318
2021-12-23 15:34:32.212459,315
2021-12-23 15:34:32.212465,287
2021-12-23 15:34:32.212471,279
2021-12-23 15:34:32.212478,236
2021-12-23 15:34:32.212484,143
2021-12-23 15:34:32.212491,47
2021-12-23 15:34:32.212497,-57
2021-12-23 15:34:32.212503,-165
2021-12-23 15:34:32.212510,-217
2021-12-23 15:34:32.212516,-224
2021-12-23 15:34:32.212522,-234
2021-12-23 15:34:32.212529,-246
2021-12-23 15:34:32.212535,-256
2021-12-23 15:34:32.212541,-253
2021-12-23 15:34:32.212548,-236
2021-12-23 15:34:32.212554,-212
2021-12-23 15:34:32.212560,-189
2021-12-23 15:34:32.212567,-179
2021-12-23 15:34:32.212573,-181
2021-12-23 15:34:32.212579,-177
2021-12-23 15:34:32.212586,-169
2021-12-23 15:34:32.212592,-165
2021-12-23 15:34:32.212598,-150
2021-12-23 15:34:32.483099,-131
2021-12-23 15:34:32.483129,-122
2021-12-23 15:34:32.483140,-114
2021-12-23 15:34:32.483150,-107
2021-12-23 15:34:32.483160,-90
2021-12-23 15:34:32.483170,-69
2021-12-23 15:34:32.483180,-64
2021-12-23 15:34:32.483190,-69
2021-12-23 15:34:32.483200,-59
2021-12-23 15:34:32.483209,-47
2021-12-23 15:34:32.483219,-35
2021-12-23 15:34:32.483229,-26
2021-12-23 15:34:32.483238,-40
2021-12-23 15:34:32.483248,-59
2021-12-23 15:34:32.483258,-55
2021-12-23 15:34:32.483268,-64
2021-12-23 15:34:32.483277,-88
2021-12-23 15:34:32.483287,-71
2021-12-23 15:34:32.483297,-38
2021-12-23 15:34:32.483307,-23
2021-12-23 15:34:32.483316,-23
2021-12-23 15:34:32.483326,-31
2021-12-23 15:34:32.483335,-35
2021-12-23 15:34:32.483345,-38
2021-12-23 15:34:32.483355,-55
2021-12-23 15:34:32.483365,-55
2021-12-23 15:34:32.483374,-33
2021-12-23 15:34:32.483384,-33
2021-12-23 15:34:32.483394,-38
2021-12-23 15:34:32.483403,-19
2021-12-23 15:34:32.618187,-14
2021-12-23 15:34:32.618207,-19
2021-12-23 15:34:32.618214,-7
2021-12-23 15:34:32.618221,-19
2021-12-23 15:34:32.618227,-43
2021-12-23 15:34:32.618234,119
2021-12-23 15:34:32.618240,528
2021-12-23 15:34:32.618246,794
2021-12-23 15:34:32.618253,612
2021-12-23 15:34:32.618259,55
2021-12-23 15:34:32.618265,-387
2021-12-23 15:34:32.618272,-239
2021-12-23 15:34:32.618278,-9
2021-12-23 15:34:32.618284,-88
2021-12-23 15:34:32.618291,-95
2021-12-23 15:34:32.618297,-14
2021-12-23 15:34:32.618303,-19
2021-12-23 15:34:32.618312,-19
2021-12-23 15:34:32.618318,7
2021-12-23 15:34:32.618325,14
2021-12-23 15:34:32.618332,11
2021-12-23 15:34:32.618340,4
2021-12-23 15:34:32.618348,16
2021-12-23 15:34:32.618354,35
2021-12-23 15:34:32.618360,50
2021-12-23 15:34:32.618367,90
2021-12-23 15:34:32.618373,131
2021-12-23 15:34:32.618379,145
2021-12-23 15:34:32.618386,167
2021-12-23 15:34:32.618392,205
2021-12-23 15:34:32.843676,244
2021-12-23 15:34:32.843704,289
2021-12-23 15:34:32.843716,327
2021-12-23 15:34:32.843726,344
2021-12-23 15:34:32.843736,349
2021-12-23 15:34:32.843746,325
2021-12-23 15:34:32.843756,275
2021-12-23 15:34:32.843766,222
2021-12-23 15:34:32.843776,145
2021-12-23 15:34:32.843785,45
2021-12-23 15:34:32.843795,-40
2021-12-23 15:34:32.843805,-117
2021-12-23 15:34:32.843815,-174
2021-12-23 15:34:32.843825,-184
2021-12-23 15:34:32.843835,-191
2021-12-23 15:34:32.843845,-220
2021-12-23 15:34:32.843855,-222
2021-12-23 15:34:32.843864,-198
2021-12-23 15:34:32.843874,-186
2021-12-23 15:34:32.843890,-191
2021-12-23 15:34:32.843901,-203
2021-12-23 15:34:32.843912,-205
2021-12-23 15:34:32.843922,-193
2021-12-23 15:34:32.843931,-186
2021-12-23 15:34:32.843941,-174
2021-12-23 15:34:32.843951,-153
2021-12-23 15:34:32.843961,-143
2021-12-23 15:34:32.843971,-136
2021-12-23 15:34:32.843980,-126
2021-12-23 15:34:32.843990,-117
2021-12-23 15:34:33.112338,-100
2021-12-23 15:34:33.112367,-76
2021-12-23 15:34:33.112379,-69
2021-12-23 15:34:33.112389,-74
2021-12-23 15:34:33.112398,-90
2021-12-23 15:34:33.112408,-100
2021-12-23 15:34:33.112418,-78
2021-12-23 15:34:33.112427,-57
2021-12-23 15:34:33.112437,-57
2021-12-23 15:34:33.112447,-59
2021-12-23 15:34:33.112457,-74
2021-12-23 15:34:33.112466,-81
2021-12-23 15:34:33.112476,-59
2021-12-23 15:34:33.112485,-45
2021-12-23 15:34:33.112495,-64
2021-12-23 15:34:33.112504,-105
2021-12-23 15:34:33.112514,-114
2021-12-23 15:34:33.112523,-74
2021-12-23 15:34:33.112533,-40
2021-12-23 15:34:33.112542,-43
2021-12-23 15:34:33.112552,-47
2021-12-23 15:34:33.112562,-52
2021-12-23 15:34:33.112571,-74
2021-12-23 15:34:33.112581,-81
2021-12-23 15:34:33.112590,-55
2021-12-23 15:34:33.112600,-35
2021-12-23 15:34:33.112609,-31
2021-12-23 15:34:33.112619,-33
2021-12-23 15:34:33.112628,-33
2021-12-23 15:34:33.112638,-19
2021-12-23 15:34:33.338667,-2
2021-12-23 15:34:33.338697,-2
2021-12-23 15:34:33.338709,-43
2021-12-23 15:34:33.338719,-45
2021-12-23 15:34:33.338729,212
2021-12-23 15:34:33.338739,655
2021-12-23 15:34:33.338748,846
2021-12-23 15:34:33.338758,590
2021-12-23 15:34:33.338768,16
2021-12-23 15:34:33.338777,-311
2021-12-23 15:34:33.338787,-95
2021-12-23 15:34:33.338797,43
2021-12-23 15:34:33.338806,-71
2021-12-23 15:34:33.338816,-50
2021-12-23 15:34:33.338826,19
2021-12-23 15:34:33.338835,-14
2021-12-23 15:34:33.338845,-26
2021-12-23 15:34:33.338854,21
2021-12-23 15:34:33.338864,47
2021-12-23 15:34:33.338874,59
2021-12-23 15:34:33.338883,78
2021-12-23 15:34:33.338893,81
2021-12-23 15:34:33.338902,81
2021-12-23 15:34:33.338912,95
2021-12-23 15:34:33.338921,102
2021-12-23 15:34:33.338931,124
2021-12-23 15:34:33.338940,165
2021-12-23 15:34:33.338950,186
2021-12-23 15:34:33.338960,215
2021-12-23 15:34:33.338970,267
2021-12-23 15:34:33.607758,313
2021-12-23 15:34:33.607780,339
2021-12-23 15:34:33.607788,351
2021-12-23 15:34:33.607794,334
2021-12-23 15:34:33.607801,313
2021-12-23 15:34:33.607807,287
2021-12-23 15:34:33.607814,224
2021-12-23 15:34:33.607820,136
2021-12-23 15:34:33.607827,38
2021-12-23 15:34:33.607833,-55
2021-12-23 15:34:33.607839,-102
2021-12-23 15:34:33.607846,-107
2021-12-23 15:34:33.607852,-107
2021-12-23 15:34:33.607858,-114
2021-12-23 15:34:33.607865,-141
2021-12-23 15:34:33.607871,-177
2021-12-23 15:34:33.607877,-165
2021-12-23 15:34:33.607883,-124
2021-12-23 15:34:33.607890,-112
2021-12-23 15:34:33.607896,-105
2021-12-23 15:34:33.607902,-98
2021-12-23 15:34:33.607909,-124
2021-12-23 15:34:33.607915,-143
2021-12-23 15:34:33.607921,-126
2021-12-23 15:34:33.607928,-117
2021-12-23 15:34:33.607934,-126
2021-12-23 15:34:33.607940,-148
2021-12-23 15:34:33.607947,-172
2021-12-23 15:34:33.607953,-157
2021-12-23 15:34:33.607959,-126
2021-12-23 15:34:33.788191,-122
2021-12-23 15:34:33.788213,-122
2021-12-23 15:34:33.788221,-112
2021-12-23 15:34:33.788228,-107
2021-12-23 15:34:33.788234,-86
2021-12-23 15:34:33.788240,-50
2021-12-23 15:34:33.788246,-31
2021-12-23 15:34:33.788253,-35
2021-12-23 15:34:33.788259,-52
2021-12-23 15:34:33.788265,-66
2021-12-23 15:34:33.788271,-62
2021-12-23 15:34:33.788278,-50
2021-12-23 15:34:33.788284,-33
2021-12-23 15:34:33.788290,-26
2021-12-23 15:34:33.788297,-62
2021-12-23 15:34:33.788303,-93
2021-12-23 15:34:33.788309,-74
2021-12-23 15:34:33.788316,-64
2021-12-23 15:34:33.788322,-81
2021-12-23 15:34:33.788329,-81
2021-12-23 15:34:33.788335,-88
2021-12-23 15:34:33.788341,-112
2021-12-23 15:34:33.788347,-119
2021-12-23 15:34:33.788354,-102
2021-12-23 15:34:33.788360,-69
2021-12-23 15:34:33.788366,-35
2021-12-23 15:34:33.788372,-28
2021-12-23 15:34:33.788379,-45
2021-12-23 15:34:33.788385,-66
2021-12-23 15:34:33.788391,-69
2021-12-23 15:34:34.013682,-57
2021-12-23 15:34:34.013703,-55
2021-12-23 15:34:34.013710,-59
2021-12-23 15:34:34.013717,-52
2021-12-23 15:34:34.013723,-40
2021-12-23 15:34:34.013729,-26
2021-12-23 15:34:34.013735,-16
2021-12-23 15:34:34.013741,-35
2021-12-23 15:34:34.013748,-64
2021-12-23 15:34:34.013754,-81
2021-12-23 15:34:34.013760,-102
2021-12-23 15:34:34.013766,16
2021-12-23 15:34:34.013773,401
2021-12-23 15:34:34.013779,758
2021-12-23 15:34:34.013785,779
2021-12-23 15:34:34.013792,361
2021-12-23 15:34:34.013798,-208
2021-12-23 15:34:34.013805,-229
2021-12-23 15:34:34.013811,55
2021-12-23 15:34:34.013817,0
2021-12-23 15:34:34.013823,-112
2021-12-23 15:34:34.013829,-26
2021-12-23 15:34:34.013836,21
2021-12-23 15:34:34.013842,-7
2021-12-23 15:34:34.013848,7
2021-12-23 15:34:34.013854,16
2021-12-23 15:34:34.013861,-19
2021-12-23 15:34:34.013867,-26
2021-12-23 15:34:34.013873,14
2021-12-23 15:34:34.013879,23
2021-12-23 15:34:34.283141,-7
2021-12-23 15:34:34.283170,0
2021-12-23 15:34:34.283182,45
2021-12-23 15:34:34.283192,81
2021-12-23 15:34:34.283202,119
2021-12-23 15:34:34.283211,157
2021-12-23 15:34:34.283221,165
2021-12-23 15:34:34.283231,172
2021-12-23 15:34:34.283240,220
2021-12-23 15:34:34.283250,263
2021-12-23 15:34:34.283260,277
2021-12-23 15:34:34.283270,291
2021-12-23 15:34:34.283280,275
2021-12-23 15:34:34.283289,193
2021-12-23 15:34:34.283299,114
2021-12-23 15:34:34.283309,64
2021-12-23 15:34:34.283318,19
2021-12-23 15:34:34.283328,-23
2021-12-23 15:34:34.283338,-64
2021-12-23 15:34:34.283347,-76
2021-12-23 15:34:34.283357,-59
2021-12-23 15:34:34.283367,-40
2021-12-23 15:34:34.283376,-9
2021-12-23 15:34:34.283386,31
2021-12-23 15:34:34.283396,59
2021-12-23 15:34:34.283405,88
2021-12-23 15:34:34.283415,119
2021-12-23 15:34:34.283425,141
2021-12-23 15:34:34.283434,167
2021-12-23 15:34:34.283444,217
2021-12-23 15:34:34.508689,256
2021-12-23 15:34:34.508720,265
2021-12-23 15:34:34.508731,260
2021-12-23 15:34:34.508742,272
2021-12-23 15:34:34.508752,311
2021-12-23 15:34:34.508761,327
2021-12-23 15:34:34.508771,320
2021-12-23 15:34:34.508781,351
2021-12-23 15:34:34.508790,406
2021-12-23 15:34:34.508800,425
2021-12-23 15:34:34.508810,447
2021-12-23 15:34:34.508819,473
2021-12-23 15:34:34.508829,466
2021-12-23 15:34:34.508839,459
2021-12-23 15:34:34.508848,464
2021-12-23 15:34:34.508858,447
2021-12-23 15:34:34.508868,418
2021-12-23 15:34:34.508877,387
2021-12-23 15:34:34.508887,339
2021-12-23 15:34:34.508897,303
2021-12-23 15:34:34.508906,287
2021-12-23 15:34:34.508917,258
2021-12-23 15:34:34.508927,217
2021-12-23 15:34:34.508937,174
2021-12-23 15:34:34.508946,138
2021-12-23 15:34:34.508956,148
2021-12-23 15:34:34.508965,179
2021-12-23 15:34:34.508975,167
2021-12-23 15:34:34.508985,150
2021-12-23 15:34:34.508995,148
2021-12-23 15:34:34.688756,136
2021-12-23 15:34:34.688785,119
2021-12-23 15:34:34.688797,78
2021-12-23 15:34:34.688807,19
2021-12-23 15:34:34.688817,0
2021-12-23 15:34:34.688827,0
2021-12-23 15:34:34.688837,-4
2021-12-23 15:34:34.688847,4
2021-12-23 15:34:34.688856,14
2021-12-23 15:34:34.688866,14
2021-12-23 15:34:34.688876,4
2021-12-23 15:34:34.688885,-7
2021-12-23 15:34:34.688895,-7
2021-12-23 15:34:34.688905,2
2021-12-23 15:34:34.688915,-2
2021-12-23 15:34:34.688924,-14
2021-12-23 15:34:34.688935,-35
2021-12-23 15:34:34.688945,-62
2021-12-23 15:34:34.688954,-55
2021-12-23 15:34:34.688964,-31
2021-12-23 15:34:34.688974,-33
2021-12-23 15:34:34.688984,-43
2021-12-23 15:34:34.688993,-28
2021-12-23 15:34:34.689003,-7
2021-12-23 15:34:34.689013,-7
2021-12-23 15:34:34.689022,4
2021-12-23 15:34:34.689032,50
2021-12-23 15:34:34.689042,66
2021-12-23 15:34:34.689052,38
2021-12-23 15:34:34.689061,31
2021-12-23 15:34:34.913758,43
2021-12-23 15:34:34.913788,47
2021-12-23 15:34:34.913800,52
2021-12-23 15:34:34.913810,55
2021-12-23 15:34:34.913820,35
2021-12-23 15:34:34.913830,2
2021-12-23 15:34:34.913839,-9
2021-12-23 15:34:34.913849,-2
2021-12-23 15:34:34.913859,-23
2021-12-23 15:34:34.913869,-74
2021-12-23 15:34:34.913878,38
2021-12-23 15:34:34.913888,430
2021-12-23 15:34:34.913898,820
2021-12-23 15:34:34.913908,878
2021-12-23 15:34:34.913917,440
2021-12-23 15:34:34.913927,-148
2021-12-23 15:34:34.913937,-167
2021-12-23 15:34:34.913947,110
2021-12-23 15:34:34.913956,55
2021-12-23 15:34:34.913966,-35
2021-12-23 15:34:34.913976,57
2021-12-23 15:34:34.913986,83
2021-12-23 15:34:34.913996,57
2021-12-23 15:34:34.914005,95
2021-12-23 15:34:34.914015,126
2021-12-23 15:34:34.914025,124
2021-12-23 15:34:34.914034,145
2021-12-23 15:34:34.914044,160
2021-12-23 15:34:34.914054,160
2021-12-23 15:34:34.914063,181
2021-12-23 15:34:35.182303,210
2021-12-23 15:34:35.182333,210
2021-12-23 15:34:35.182345,179
2021-12-23 15:34:35.182355,133
2021-12-23 15:34:35.182364,105
2021-12-23 15:34:35.182374,160
2021-12-23 15:34:35.182384,308
2021-12-23 15:34:35.182393,413
2021-12-23 15:34:35.182403,394
2021-12-23 15:34:35.182412,339
2021-12-23 15:34:35.182422,337
2021-12-23 15:34:35.182432,342
2021-12-23 15:34:35.182441,311
2021-12-23 15:34:35.182451,253
2021-12-23 15:34:35.182461,181
2021-12-23 15:34:35.182470,100
2021-12-23 15:34:35.182480,38
2021-12-23 15:34:35.182489,7
2021-12-23 15:34:35.182499,-4
2021-12-23 15:34:35.182509,-14
2021-12-23 15:34:35.182519,-28
2021-12-23 15:34:35.182528,-47
2021-12-23 15:34:35.182538,-40
2021-12-23 15:34:35.182547,-11
2021-12-23 15:34:35.182557,2
2021-12-23 15:34:35.182566,14
2021-12-23 15:34:35.182576,28
2021-12-23 15:34:35.182586,21
2021-12-23 15:34:35.182596,14
2021-12-23 15:34:35.182605,31
2021-12-23 15:34:35.407988,50
2021-12-23 15:34:35.408007,59
2021-12-23 15:34:35.408014,52
2021-12-23 15:34:35.408021,16
2021-12-23 15:34:35.408027,2
2021-12-23 15:34:35.408033,33
2021-12-23 15:34:35.408040,50
2021-12-23 15:34:35.408046,50
2021-12-23 15:34:35.408052,43
2021-12-23 15:34:35.408058,9
2021-12-23 15:34:35.408065,-23
2021-12-23 15:34:35.408071,-9
2021-12-23 15:34:35.408077,19
2021-12-23 15:34:35.408083,28
2021-12-23 15:34:35.408090,23
2021-12-23 15:34:35.408096,14
2021-12-23 15:34:35.408102,21
2021-12-23 15:34:35.408108,40
2021-12-23 15:34:35.408114,52
2021-12-23 15:34:35.408121,57
2021-12-23 15:34:35.408127,57
2021-12-23 15:34:35.408133,43
2021-12-23 15:34:35.408139,43
2021-12-23 15:34:35.408145,59
2021-12-23 15:34:35.408152,64
2021-12-23 15:34:35.408158,55
2021-12-23 15:34:35.408164,40
2021-12-23 15:34:35.408170,21
2021-12-23 15:34:35.408176,31
2021-12-23 15:34:35.408183,59
2021-12-23 15:34:35.678723,62
2021-12-23 15:34:35.678753,57
2021-12-23 15:34:35.678764,55
2021-12-23 15:34:35.678774,45
2021-12-23 15:34:35.678784,50
2021-12-23 15:34:35.678794,66
2021-12-23 15:34:35.678804,74
2021-12-23 15:34:35.678813,71
2021-12-23 15:34:35.678823,43
2021-12-23 15:34:35.678833,16
2021-12-23 15:34:35.678842,31
2021-12-23 15:34:35.678852,43
2021-12-23 15:34:35.678862,21
2021-12-23 15:34:35.678872,-11
2021-12-23 15:34:35.678881,-47
2021-12-23 15:34:35.678891,-59
2021-12-23 15:34:35.678900,-47
2021-12-23 15:34:35.678910,-55
2021-12-23 15:34:35.678920,-66
2021-12-23 15:34:35.678929,-76
2021-12-23 15:34:35.678939,-110
2021-12-23 15:34:35.678948,-122
2021-12-23 15:34:35.678958,-93
2021-12-23 15:34:35.678967,-74
2021-12-23 15:34:35.678977,-71
2021-12-23 15:34:35.678987,-69
2021-12-23 15:34:35.678996,-69
2021-12-23 15:34:35.679006,-69
2021-12-23 15:34:35.679016,-66
2021-12-23 15:34:35.679025,-98
2021-12-23 15:34:35.858681,-88
2021-12-23 15:34:35.858702,167
2021-12-23 15:34:35.858710,581
2021-12-23 15:34:35.858716,768
2021-12-23 15:34:35.858723,535
2021-12-23 15:34:35.858744,-2
2021-12-23 15:34:35.858750,-277
2021-12-23 15:34:35.858757,-69
2021-12-23 15:34:35.858763,9
2021-12-23 15:34:35.858770,-112
2021-12-23 15:34:35.858776,-71
2021-12-23 15:34:35.858782,7
2021-12-23 15:34:35.858788,-7
2021-12-23 15:34:35.858795,-7
2021-12-23 15:34:35.858801,4
2021-12-23 15:34:35.858807,-11
2021-12-23 15:34:35.858814,2
2021-12-23 15:34:35.858820,50
2021-12-23 15:34:35.858826,69
2021-12-23 15:34:35.858833,57
2021-12-23 15:34:35.858839,62
2021-12-23 15:34:35.858845,90
2021-12-23 15:34:35.858851,114
2021-12-23 15:34:35.858858,143
2021-12-23 15:34:35.858864,179
2021-12-23 15:34:35.858870,212
2021-12-23 15:34:35.858876,241
2021-12-23 15:34:35.858883,260
2021-12-23 15:34:35.858889,289
2021-12-23 15:34:35.858895,327
2021-12-23 15:34:36.218683,339
2021-12-23 15:34:36.218704,322
2021-12-23 15:34:36.218711,294
2021-12-23 15:34:36.218718,244
2021-12-23 15:34:36.218724,177
2021-12-23 15:34:36.218731,105
2021-12-23 15:34:36.218737,26
2021-12-23 15:34:36.218744,-50
2021-12-23 15:34:36.218750,-88
2021-12-23 15:34:36.218757,-98
2021-12-23 15:34:36.218763,-100
2021-12-23 15:34:36.218769,-93
2021-12-23 15:34:36.218776,-102
2021-12-23 15:34:36.218782,-131
2021-12-23 15:34:36.218789,-126
2021-12-23 15:34:36.218795,-110
2021-12-23 15:34:36.218801,-119
2021-12-23 15:34:36.218808,-124
2021-12-23 15:34:36.218814,-122
2021-12-23 15:34:36.218821,-143
2021-12-23 15:34:36.218827,-150
2021-12-23 15:34:36.218834,-129
2021-12-23 15:34:36.218840,-122
2021-12-23 15:34:36.218846,-112
2021-12-23 15:34:36.218853,-93
2021-12-23 15:34:36.218859,-88
2021-12-23 15:34:36.218866,-78
2021-12-23 15:34:36.218872,-66
2021-12-23 15:34:36.218880,-71
2021-12-23 15:34:36.218886,-74
2021-12-23 15:34:36.353745,-64
2021-12-23 15:34:36.353766,-40
2021-12-23 15:34:36.353774,-21
2021-12-23 15:34:36.353781,-21
2021-12-23 15:34:36.353787,-16
2021-12-23 15:34:36.353793,-16
2021-12-23 15:34:36.353800,-38
2021-12-23 15:34:36.353806,-35
2021-12-23 15:34:36.353812,-7
2021-12-23 15:34:36.353819,2
2021-12-23 15:34:36.353825,0
2021-12-23 15:34:36.353831,11
2021-12-23 15:34:36.353838,16
2021-12-23 15:34:36.353844,14
2021-12-23 15:34:36.353850,16
2021-12-23 15:34:36.353856,14
2021-12-23 15:34:36.353863,16
2021-12-23 15:34:36.353869,7
2021-12-23 15:34:36.353875,-23
2021-12-23 15:34:36.353881,-45
2021-12-23 15:34:36.353888,-31
2021-12-23 15:34:36.353894,-23
2021-12-23 15:34:36.353900,-31
2021-12-23 15:34:36.353913,-43
2021-12-23 15:34:36.353919,-59
2021-12-23 15:34:36.353926,-55
2021-12-23 15:34:36.353932,-35
2021-12-23 15:34:36.353938,-35
2021-12-23 15:34:36.353944,-38
2021-12-23 15:34:36.353951,-47
2021-12-23 15:34:36.533738,-62
2021-12-23 15:34:36.533768,-50
2021-12-23 15:34:36.533780,-31
2021-12-23 15:34:36.533790,-38
2021-12-23 15:34:36.533800,-35
2021-12-23 15:34:36.533809,-23
2021-12-23 15:34:36.533819,-23
2021-12-23 15:34:36.533829,-16
2021-12-23 15:34:36.533838,-2
2021-12-23 15:34:36.533848,0
2021-12-23 15:34:36.533858,-16
2021-12-23 15:34:36.533868,-59
2021-12-23 15:34:36.533877,-102
2021-12-23 15:34:36.533887,-95
2021-12-23 15:34:36.533898,-81
2021-12-23 15:34:36.533908,-100
2021-12-23 15:34:36.533918,-119
2021-12-23 15:34:36.533927,-131
2021-12-23 15:34:36.533937,-129
2021-12-23 15:34:36.533946,-110
2021-12-23 15:34:36.533956,-117
2021-12-23 15:34:36.533966,-145
2021-12-23 15:34:36.533975,-141
2021-12-23 15:34:36.533985,-133
2021-12-23 15:34:36.533994,-184
2021-12-23 15:34:36.534004,-236
2021-12-23 15:34:36.534014,-141
2021-12-23 15:34:36.534024,208
2021-12-23 15:34:36.534034,555
2021-12-23 15:34:36.534043,535
2021-12-23 15:34:36.893072,145
2021-12-23 15:34:36.893102,-260
2021-12-23 15:34:36.893114,-272
2021-12-23 15:34:36.893124,-83
2021-12-23 15:34:36.893134,-107
2021-12-23 15:34:36.893143,-177
2021-12-23 15:34:36.893153,-112
2021-12-23 15:34:36.893162,-71
2021-12-23 15:34:36.893172,-78
2021-12-23 15:34:36.893182,-66
2021-12-23 15:34:36.893191,-62
2021-12-23 15:34:36.893201,-71
2021-12-23 15:34:36.893211,-43
2021-12-23 15:34:36.893220,-7
2021-12-23 15:34:36.893230,9
2021-12-23 15:34:36.893240,26
2021-12-23 15:34:36.893249,45
2021-12-23 15:34:36.893259,66
2021-12-23 15:34:36.893269,105
2021-12-23 15:34:36.893278,141
2021-12-23 15:34:36.893288,172
2021-12-23 15:34:36.893298,193
2021-12-23 15:34:36.893307,203
2021-12-23 15:34:36.893317,215
2021-12-23 15:34:36.893326,246
2021-12-23 15:34:36.893336,267
2021-12-23 15:34:36.893346,277
2021-12-23 15:34:36.893355,270
2021-12-23 15:34:36.893365,236
2021-12-23 15:34:36.893375,193
2021-12-23 15:34:36.983696,141
2021-12-23 15:34:36.983726,76
2021-12-23 15:34:36.983737,19
2021-12-23 15:34:36.983747,-35
2021-12-23 15:34:36.983757,-76
2021-12-23 15:34:36.983766,-81
2021-12-23 15:34:36.983776,-74
2021-12-23 15:34:36.983785,-71
2021-12-23 15:34:36.983795,-66
2021-12-23 15:34:36.983804,-76
2021-12-23 15:34:36.983814,-95
2021-12-23 15:34:36.983823,-88
2021-12-23 15:34:36.983832,-64
2021-12-23 15:34:36.983842,-50
2021-12-23 15:34:36.983851,-47
2021-12-23 15:34:36.983861,-78
2021-12-23 15:34:36.983870,-119
2021-12-23 15:34:36.983880,-119
2021-12-23 15:34:36.983889,-98
2021-12-23 15:34:36.983898,-83
2021-12-23 15:34:36.983908,-78
2021-12-23 15:34:36.983917,-86
2021-12-23 15:34:36.983927,-90
2021-12-23 15:34:36.983936,-74
2021-12-23 15:34:36.983945,-74
2021-12-23 15:34:36.983955,-88
2021-12-23 15:34:36.983964,-93
2021-12-23 15:34:36.983973,-95
2021-12-23 15:34:36.983983,-100
2021-12-23 15:34:36.983992,-100
2021-12-23 15:34:37.297171,-126
2021-12-23 15:34:37.297201,-148
2021-12-23 15:34:37.297213,-141
2021-12-23 15:34:37.297223,-145
2021-12-23 15:34:37.297232,-143
2021-12-23 15:34:37.297242,-112
2021-12-23 15:34:37.297251,-117
2021-12-23 15:34:37.297261,-138
2021-12-23 15:34:37.297271,-143
2021-12-23 15:34:37.297280,-196
2021-12-23 15:34:37.297290,-256
2021-12-23 15:34:37.297300,-234
2021-12-23 15:34:37.297309,-165
2021-12-23 15:34:37.297319,-124
2021-12-23 15:34:37.297329,-126
2021-12-23 15:34:37.297338,-148
2021-12-23 15:34:37.297348,-138
2021-12-23 15:34:37.297357,-105
2021-12-23 15:34:37.297367,-90
2021-12-23 15:34:37.297377,-93
2021-12-23 15:34:37.297387,-98
2021-12-23 15:34:37.297397,-95
2021-12-23 15:34:37.297406,-81
2021-12-23 15:34:37.297416,-62
2021-12-23 15:34:37.297425,-52
2021-12-23 15:34:37.297435,-55
2021-12-23 15:34:37.297445,-66
2021-12-23 15:34:37.297454,-83
2021-12-23 15:34:37.297464,-74
2021-12-23 15:34:37.297474,-52
2021-12-23 15:34:37.568115,-45
2021-12-23 15:34:37.568145,-38
2021-12-23 15:34:37.568157,-26
2021-12-23 15:34:37.568167,-11
2021-12-23 15:34:37.568177,11
2021-12-23 15:34:37.568187,16
2021-12-23 15:34:37.568196,0
2021-12-23 15:34:37.568206,-14
2021-12-23 15:34:37.568216,-33
2021-12-23 15:34:37.568225,-47
2021-12-23 15:34:37.568235,-31
2021-12-23 15:34:37.568245,-14
2021-12-23 15:34:37.568254,-9
2021-12-23 15:34:37.568264,-9
2021-12-23 15:34:37.568290,-31
2021-12-23 15:34:37.568297,-55
2021-12-23 15:34:37.568303,-45
2021-12-23 15:34:37.568309,-23
2021-12-23 15:34:37.568316,-23
2021-12-23 15:34:37.568322,-66
2021-12-23 15:34:37.568328,-38
2021-12-23 15:34:37.568335,248
2021-12-23 15:34:37.568341,629
2021-12-23 15:34:37.568347,669
2021-12-23 15:34:37.568354,313
2021-12-23 15:34:37.568360,-88
2021-12-23 15:34:37.568366,-169
2021-12-23 15:34:37.568373,-16
2021-12-23 15:34:37.568379,-7
2021-12-23 15:34:37.568413,-66
2021-12-23 15:34:37.703670,-23
2021-12-23 15:34:37.703700,4
2021-12-23 15:34:37.703712,-16
2021-12-23 15:34:37.703722,-7
2021-12-23 15:34:37.703731,21
2021-12-23 15:34:37.703741,23
2021-12-23 15:34:37.703751,-2
2021-12-23 15:34:37.703761,-7
2021-12-23 15:34:37.703770,21
2021-12-23 15:34:37.703780,38
2021-12-23 15:34:37.703790,55
2021-12-23 15:34:37.703800,86
2021-12-23 15:34:37.703809,114
2021-12-23 15:34:37.703819,110
2021-12-23 15:34:37.703829,90
2021-12-23 15:34:37.703838,112
2021-12-23 15:34:37.703848,157
2021-12-23 15:34:37.703857,184
2021-12-23 15:34:37.703867,196
2021-12-23 15:34:37.703877,203
2021-12-23 15:34:37.703886,198
2021-12-23 15:34:37.703896,191
2021-12-23 15:34:37.703906,181
2021-12-23 15:34:37.703915,153
2021-12-23 15:34:37.703925,93
2021-12-23 15:34:37.703934,14
2021-12-23 15:34:37.703944,-47
2021-12-23 15:34:37.703954,-83
2021-12-23 15:34:37.703963,-110
2021-12-23 15:34:37.703973,-124
2021-12-23 15:34:37.973543,-136
2021-12-23 15:34:37.973573,-155
2021-12-23 15:34:37.973585,-162
2021-12-23 15:34:37.973595,-148
2021-12-23 15:34:37.973605,-138
2021-12-23 15:34:37.973615,-145
2021-12-23 15:34:37.973625,-162
2021-12-23 15:34:37.973634,-193
2021-12-23 15:34:37.973644,-222
2021-12-23 15:34:37.973654,-215
2021-12-23 15:34:37.973664,-184
2021-12-23 15:34:37.973673,-165
2021-12-23 15:34:37.973683,-169
2021-12-23 15:34:37.973693,-181
2021-12-23 15:34:37.973702,-172
2021-12-23 15:34:37.973712,-153
2021-12-23 15:34:37.973722,-141
2021-12-23 15:34:37.973732,-126
2021-12-23 15:34:37.973741,-114
2021-12-23 15:34:37.973751,-114
2021-12-23 15:34:37.973761,-110
2021-12-23 15:34:37.973770,-93
2021-12-23 15:34:37.973780,-69
2021-12-23 15:34:37.973790,-52
2021-12-23 15:34:37.973800,-57
2021-12-23 15:34:37.973809,-64
2021-12-23 15:34:37.973819,-55
2021-12-23 15:34:37.973829,-52
2021-12-23 15:34:37.973838,-50
2021-12-23 15:34:37.973848,-31
2021-12-23 15:34:38.153684,-23
2021-12-23 15:34:38.153714,-40
2021-12-23 15:34:38.153726,-64
2021-12-23 15:34:38.153736,-88
2021-12-23 15:34:38.153746,-86
2021-12-23 15:34:38.153755,-78
2021-12-23 15:34:38.153765,-114
2021-12-23 15:34:38.153774,-131
2021-12-23 15:34:38.153784,-90
2021-12-23 15:34:38.153794,-59
2021-12-23 15:34:38.153803,-69
2021-12-23 15:34:38.153813,-107
2021-12-23 15:34:38.153823,-124
2021-12-23 15:34:38.153832,-100
2021-12-23 15:34:38.153842,-93
2021-12-23 15:34:38.153851,-93
2021-12-23 15:34:38.153861,-74
2021-12-23 15:34:38.153871,-76
2021-12-23 15:34:38.153880,-86
2021-12-23 15:34:38.153890,-71
2021-12-23 15:34:38.153900,-50
2021-12-23 15:34:38.153909,-4
2021-12-23 15:34:38.153919,98
2021-12-23 15:34:38.153929,167
2021-12-23 15:34:38.153938,119
2021-12-23 15:34:38.153948,81
2021-12-23 15:34:38.153958,155
2021-12-23 15:34:38.153967,186
2021-12-23 15:34:38.153977,129
2021-12-23 15:34:38.153987,107
2021-12-23 15:34:38.467993,114
2021-12-23 15:34:38.468010,105
2021-12-23 15:34:38.468016,74
2021-12-23 15:34:38.468022,38
2021-12-23 15:34:38.468027,14
2021-12-23 15:34:38.468032,-55
2021-12-23 15:34:38.468037,-107
2021-12-23 15:34:38.468042,-43
2021-12-23 15:34:38.468047,7
2021-12-23 15:34:38.468052,-35
2021-12-23 15:34:38.468057,-69
2021-12-23 15:34:38.468062,-81
2021-12-23 15:34:38.468067,-16
2021-12-23 15:34:38.468072,291
2021-12-23 15:34:38.468077,653
2021-12-23 15:34:38.468082,657
2021-12-23 15:34:38.468088,289
2021-12-23 15:34:38.468093,-78
2021-12-23 15:34:38.468098,-110
2021-12-23 15:34:38.468103,26
2021-12-23 15:34:38.468108,23
2021-12-23 15:34:38.468113,-11
2021-12-23 15:34:38.468118,19
2021-12-23 15:34:38.468123,26
2021-12-23 15:34:38.468128,26
2021-12-23 15:34:38.468133,62
2021-12-23 15:34:38.468138,71
2021-12-23 15:34:38.468143,43
2021-12-23 15:34:38.468148,45
2021-12-23 15:34:38.468153,76
2021-12-23 15:34:38.603621,83
2021-12-23 15:34:38.603642,86
2021-12-23 15:34:38.603650,95
2021-12-23 15:34:38.603656,98
2021-12-23 15:34:38.603663,95
2021-12-23 15:34:38.603669,83
2021-12-23 15:34:38.603676,81
2021-12-23 15:34:38.603682,95
2021-12-23 15:34:38.603688,122
2021-12-23 15:34:38.603695,145
2021-12-23 15:34:38.603701,169
2021-12-23 15:34:38.603707,179
2021-12-23 15:34:38.603714,150
2021-12-23 15:34:38.603720,124
2021-12-23 15:34:38.603726,122
2021-12-23 15:34:38.603733,78
2021-12-23 15:34:38.603739,-23
2021-12-23 15:34:38.603745,-114
2021-12-23 15:34:38.603752,-153
2021-12-23 15:34:38.603758,-165
2021-12-23 15:34:38.603764,-181
2021-12-23 15:34:38.603770,-203
2021-12-23 15:34:38.603777,-234
2021-12-23 15:34:38.603783,-258
2021-12-23 15:34:38.603789,-244
2021-12-23 15:34:38.603796,-212
2021-12-23 15:34:38.603802,-203
2021-12-23 15:34:38.603808,-198
2021-12-23 15:34:38.603814,-181
2021-12-23 15:34:38.603821,-160
2021-12-23 15:34:38.828689,-136
2021-12-23 15:34:38.828725,-86
2021-12-23 15:34:38.828737,-38
2021-12-23 15:34:38.828747,-55
2021-12-23 15:34:38.828757,-88
2021-12-23 15:34:38.828767,-64
2021-12-23 15:34:38.828777,-35
2021-12-23 15:34:38.828786,-43
2021-12-23 15:34:38.828796,-52
2021-12-23 15:34:38.828806,-62
2021-12-23 15:34:38.828816,-83
2021-12-23 15:34:38.828826,-74
2021-12-23 15:34:38.828836,-40
2021-12-23 15:34:38.828845,-19
2021-12-23 15:34:38.828855,-16
2021-12-23 15:34:38.828865,-28
2021-12-23 15:34:38.828875,-38
2021-12-23 15:34:38.828884,-21
2021-12-23 15:34:38.828894,-2
2021-12-23 15:34:38.828904,-4
2021-12-23 15:34:38.828914,-26
2021-12-23 15:34:38.828923,-59
2021-12-23 15:34:38.828933,-52
2021-12-23 15:34:38.828943,-9
2021-12-23 15:34:38.828953,2
2021-12-23 15:34:38.828962,2
2021-12-23 15:34:38.828972,23
2021-12-23 15:34:38.828982,26
2021-12-23 15:34:38.828992,11
2021-12-23 15:34:38.829001,28
2021-12-23 15:34:39.098719,52
2021-12-23 15:34:39.098749,55
2021-12-23 15:34:39.098761,45
2021-12-23 15:34:39.098771,16
2021-12-23 15:34:39.098780,-7
2021-12-23 15:34:39.098790,4
2021-12-23 15:34:39.098800,31
2021-12-23 15:34:39.098810,62
2021-12-23 15:34:39.098900,76
2021-12-23 15:34:39.098912,43
2021-12-23 15:34:39.098922,0
2021-12-23 15:34:39.098932,-14
2021-12-23 15:34:39.098941,-28
2021-12-23 15:34:39.098951,-52
2021-12-23 15:34:39.098961,-59
2021-12-23 15:34:39.098971,-52
2021-12-23 15:34:39.098981,-43
2021-12-23 15:34:39.098990,-21
2021-12-23 15:34:39.099000,-9
2021-12-23 15:34:39.099010,-7
2021-12-23 15:34:39.099020,-4
2021-12-23 15:34:39.099029,-28
2021-12-23 15:34:39.099039,-90
2021-12-23 15:34:39.099049,-136
2021-12-23 15:34:39.099059,-74
2021-12-23 15:34:39.099069,193
2021-12-23 15:34:39.099079,516
2021-12-23 15:34:39.099088,528
2021-12-23 15:34:39.099098,184
2021-12-23 15:34:39.099108,-155
2021-12-23 15:34:39.367951,-174
2021-12-23 15:34:39.367981,-33
2021-12-23 15:34:39.367993,-52
2021-12-23 15:34:39.368003,-93
2021-12-23 15:34:39.368013,-16
2021-12-23 15:34:39.368023,14
2021-12-23 15:34:39.368033,-7
2021-12-23 15:34:39.368042,-19
2021-12-23 15:34:39.368052,-45
2021-12-23 15:34:39.368062,-57
2021-12-23 15:34:39.368072,-19
2021-12-23 15:34:39.368082,26
2021-12-23 15:34:39.368091,38
2021-12-23 15:34:39.368101,31
2021-12-23 15:34:39.368111,16
2021-12-23 15:34:39.368121,19
2021-12-23 15:34:39.368131,59
2021-12-23 15:34:39.368140,105
2021-12-23 15:34:39.368150,131
2021-12-23 15:34:39.368160,129
2021-12-23 15:34:39.368170,100
2021-12-23 15:34:39.368179,100
2021-12-23 15:34:39.368189,167
2021-12-23 15:34:39.368199,220
2021-12-23 15:34:39.368209,220
2021-12-23 15:34:39.368218,212
2021-12-23 15:34:39.368228,189
2021-12-23 15:34:39.368237,141
2021-12-23 15:34:39.368247,100
2021-12-23 15:34:39.368257,64
2021-12-23 15:34:39.638714,14
2021-12-23 15:34:39.638745,-33
2021-12-23 15:34:39.638756,-71
2021-12-23 15:34:39.638766,-93
2021-12-23 15:34:39.638776,-93
2021-12-23 15:34:39.638786,-83
2021-12-23 15:34:39.638796,-71
2021-12-23 15:34:39.638806,-81
2021-12-23 15:34:39.638815,-110
2021-12-23 15:34:39.638825,-114
2021-12-23 15:34:39.638835,-93
2021-12-23 15:34:39.638844,-90
2021-12-23 15:34:39.638854,-105
2021-12-23 15:34:39.638864,-114
2021-12-23 15:34:39.638874,-145
2021-12-23 15:34:39.638884,-181
2021-12-23 15:34:39.638894,-174
2021-12-23 15:34:39.638904,-143
2021-12-23 15:34:39.638914,-136
2021-12-23 15:34:39.638923,-155
2021-12-23 15:34:39.638933,-162
2021-12-23 15:34:39.638943,-145
2021-12-23 15:34:39.638953,-131
2021-12-23 15:34:39.638962,-126
2021-12-23 15:34:39.638972,-112
2021-12-23 15:34:39.638982,-105
2021-12-23 15:34:39.638992,-112
2021-12-23 15:34:39.639001,-110
2021-12-23 15:34:39.639011,-122
2021-12-23 15:34:39.639021,-148
2021-12-23 15:34:39.818591,-133
2021-12-23 15:34:39.818620,-117
2021-12-23 15:34:39.818628,-124
2021-12-23 15:34:39.818634,-122
2021-12-23 15:34:39.818640,-100
2021-12-23 15:34:39.818647,-88
2021-12-23 15:34:39.818653,-95
2021-12-23 15:34:39.818660,-117
2021-12-23 15:34:39.818666,-119
2021-12-23 15:34:39.818672,-95
2021-12-23 15:34:39.818679,-86
2021-12-23 15:34:39.818685,-74
2021-12-23 15:34:39.818691,-59
2021-12-23 15:34:39.818697,-50
2021-12-23 15:34:39.818704,-43
2021-12-23 15:34:39.818710,-35
2021-12-23 15:34:39.818716,-40
2021-12-23 15:34:39.818723,-59
2021-12-23 15:34:39.818729,-69
2021-12-23 15:34:39.818735,-57
2021-12-23 15:34:39.818742,-31
2021-12-23 15:34:39.818748,-14
2021-12-23 15:34:39.818754,4
2021-12-23 15:34:39.818761,23
2021-12-23 15:34:39.818767,4
2021-12-23 15:34:39.818773,-31
2021-12-23 15:34:39.818780,-26
2021-12-23 15:34:39.818786,-16
2021-12-23 15:34:39.818793,-23
2021-12-23 15:34:39.818799,-11
2021-12-23 15:34:40.088759,-4
2021-12-23 15:34:40.088789,-19
2021-12-23 15:34:40.088801,-16
2021-12-23 15:34:40.088811,-4
