Time,ECG
2021-12-23 15:29:08.978347,-14
2021-12-23 15:29:08.978378,-16
2021-12-23 15:29:08.978390,-2
2021-12-23 15:29:08.978400,4
2021-12-23 15:29:08.978410,0
2021-12-23 15:29:08.978421,2
2021-12-23 15:29:08.978431,-4
2021-12-23 15:29:08.978441,-23
2021-12-23 15:29:08.978450,-19
2021-12-23 15:29:08.978461,-11
2021-12-23 15:29:08.978470,-19
2021-12-23 15:29:08.978480,-33
2021-12-23 15:29:08.978490,-50
2021-12-23 15:29:08.978499,-59
2021-12-23 15:29:08.978509,-52
2021-12-23 15:29:08.978519,-50
2021-12-23 15:29:08.978529,-50
2021-12-23 15:29:08.978539,-47
2021-12-23 15:29:08.978548,-45
2021-12-23 15:29:08.978558,-52
2021-12-23 15:29:08.978567,-69
2021-12-23 15:29:08.978577,-74
2021-12-23 15:29:08.978587,-66
2021-12-23 15:29:08.978596,-57
2021-12-23 15:29:08.978606,-50
2021-12-23 15:29:08.978616,-38
2021-12-23 15:29:08.978626,-31
2021-12-23 15:29:08.978636,-33
2021-12-23 15:29:08.978645,-35
2021-12-23 15:29:08.978655,-76
2021-12-23 15:29:09.158361,-165
2021-12-23 15:29:09.158392,-98
2021-12-23 15:29:09.158404,244
2021-12-23 15:29:09.158414,545
2021-12-23 15:29:09.158424,533
2021-12-23 15:29:09.158434,208
2021-12-23 15:29:09.158445,-179
2021-12-23 15:29:09.158455,-169
2021-12-23 15:29:09.158465,31
2021-12-23 15:29:09.158475,-16
2021-12-23 15:29:09.158485,-86
2021-12-23 15:29:09.158495,-38
2021-12-23 15:29:09.158505,-47
2021-12-23 15:29:09.158515,-64
2021-12-23 15:29:09.158525,-23
2021-12-23 15:29:09.158534,-2
2021-12-23 15:29:09.158544,0
2021-12-23 15:29:09.158555,4
2021-12-23 15:29:09.158565,4
2021-12-23 15:29:09.158575,19
2021-12-23 15:29:09.158585,50
2021-12-23 15:29:09.158595,71
2021-12-23 15:29:09.158604,95
2021-12-23 15:29:09.158614,122
2021-12-23 15:29:09.158624,143
2021-12-23 15:29:09.158634,179
2021-12-23 15:29:09.158643,217
2021-12-23 15:29:09.158653,236
2021-12-23 15:29:09.158663,256
2021-12-23 15:29:09.158677,282
2021-12-23 15:29:09.426841,289
2021-12-23 15:29:09.426863,277
2021-12-23 15:29:09.426871,260
2021-12-23 15:29:09.426877,234
2021-12-23 15:29:09.426884,169
2021-12-23 15:29:09.426890,78
2021-12-23 15:29:09.426897,11
2021-12-23 15:29:09.426903,-21
2021-12-23 15:29:09.426910,-52
2021-12-23 15:29:09.426916,-83
2021-12-23 15:29:09.426923,-102
2021-12-23 15:29:09.426929,-124
2021-12-23 15:29:09.426936,-126
2021-12-23 15:29:09.426948,-100
2021-12-23 15:29:09.426955,-83
2021-12-23 15:29:09.426961,-81
2021-12-23 15:29:09.426968,-71
2021-12-23 15:29:09.426974,-62
2021-12-23 15:29:09.426981,-52
2021-12-23 15:29:09.426987,-38
2021-12-23 15:29:09.426994,-26
2021-12-23 15:29:09.427000,-26
2021-12-23 15:29:09.427006,-23
2021-12-23 15:29:09.427013,-16
2021-12-23 15:29:09.427019,-2
2021-12-23 15:29:09.427026,11
2021-12-23 15:29:09.427032,19
2021-12-23 15:29:09.427039,19
2021-12-23 15:29:09.427045,16
2021-12-23 15:29:09.427054,21
2021-12-23 15:29:09.653425,35
2021-12-23 15:29:09.653455,50
2021-12-23 15:29:09.653466,35
2021-12-23 15:29:09.653476,-4
2021-12-23 15:29:09.653486,-50
2021-12-23 15:29:09.653496,-78
2021-12-23 15:29:09.653506,-95
2021-12-23 15:29:09.653515,-105
2021-12-23 15:29:09.653525,-93
2021-12-23 15:29:09.653535,-88
2021-12-23 15:29:09.653545,-117
2021-12-23 15:29:09.653554,-126
2021-12-23 15:29:09.653564,-98
2021-12-23 15:29:09.653574,-66
2021-12-23 15:29:09.653584,-59
2021-12-23 15:29:09.653593,-62
2021-12-23 15:29:09.653603,-66
2021-12-23 15:29:09.653620,-57
2021-12-23 15:29:09.653630,-35
2021-12-23 15:29:09.653639,-23
2021-12-23 15:29:09.653649,-16
2021-12-23 15:29:09.653659,-16
2021-12-23 15:29:09.653668,-19
2021-12-23 15:29:09.653678,-9
2021-12-23 15:29:09.653687,2
2021-12-23 15:29:09.653697,4
2021-12-23 15:29:09.653707,-11
2021-12-23 15:29:09.653716,-35
2021-12-23 15:29:09.653726,-31
2021-12-23 15:29:09.653736,-14
2021-12-23 15:29:09.878400,-7
2021-12-23 15:29:09.878429,-9
2021-12-23 15:29:09.878441,-14
2021-12-23 15:29:09.878451,-33
2021-12-23 15:29:09.878461,-71
2021-12-23 15:29:09.878471,-100
2021-12-23 15:29:09.878481,-100
2021-12-23 15:29:09.878498,-76
2021-12-23 15:29:09.878509,-59
2021-12-23 15:29:09.878519,-71
2021-12-23 15:29:09.878529,-74
2021-12-23 15:29:09.878538,-45
2021-12-23 15:29:09.878548,-19
2021-12-23 15:29:09.878558,-19
2021-12-23 15:29:09.878568,-62
2021-12-23 15:29:09.878577,-81
2021-12-23 15:29:09.878587,129
2021-12-23 15:29:09.878597,507
2021-12-23 15:29:09.878607,626
2021-12-23 15:29:09.878617,366
2021-12-23 15:29:09.878627,-52
2021-12-23 15:29:09.878637,-200
2021-12-23 15:29:09.878647,7
2021-12-23 15:29:09.878656,71
2021-12-23 15:29:09.878666,-21
2021-12-23 15:29:09.878676,14
2021-12-23 15:29:09.878686,43
2021-12-23 15:29:09.878695,-9
2021-12-23 15:29:09.878705,-11
2021-12-23 15:29:09.878717,38
2021-12-23 15:29:10.103358,57
2021-12-23 15:29:10.103388,57
2021-12-23 15:29:10.103399,62
2021-12-23 15:29:10.103409,69
2021-12-23 15:29:10.103419,83
2021-12-23 15:29:10.103429,107
2021-12-23 15:29:10.103439,119
2021-12-23 15:29:10.103448,110
2021-12-23 15:29:10.103458,98
2021-12-23 15:29:10.103468,102
2021-12-23 15:29:10.103478,141
2021-12-23 15:29:10.103487,169
2021-12-23 15:29:10.103497,155
2021-12-23 15:29:10.103507,150
2021-12-23 15:29:10.103517,174
2021-12-23 15:29:10.103527,172
2021-12-23 15:29:10.103536,165
2021-12-23 15:29:10.103546,167
2021-12-23 15:29:10.103556,138
2021-12-23 15:29:10.103566,78
2021-12-23 15:29:10.103575,-2
2021-12-23 15:29:10.103585,-86
2021-12-23 15:29:10.103595,-124
2021-12-23 15:29:10.103605,-138
2021-12-23 15:29:10.103623,-160
2021-12-23 15:29:10.103633,-165
2021-12-23 15:29:10.103643,-153
2021-12-23 15:29:10.103653,-143
2021-12-23 15:29:10.103662,-133
2021-12-23 15:29:10.103672,-124
2021-12-23 15:29:10.327813,-114
2021-12-23 15:29:10.327835,-98
2021-12-23 15:29:10.327843,-88
2021-12-23 15:29:10.327849,-93
2021-12-23 15:29:10.327855,-78
2021-12-23 15:29:10.327862,-57
2021-12-23 15:29:10.327868,-52
2021-12-23 15:29:10.327874,-62
2021-12-23 15:29:10.327881,-86
2021-12-23 15:29:10.327887,-110
2021-12-23 15:29:10.327893,-100
2021-12-23 15:29:10.327900,-64
2021-12-23 15:29:10.327906,-47
2021-12-23 15:29:10.327913,-64
2021-12-23 15:29:10.327919,-102
2021-12-23 15:29:10.327925,-124
2021-12-23 15:29:10.327931,-90
2021-12-23 15:29:10.327938,-55
2021-12-23 15:29:10.327944,-47
2021-12-23 15:29:10.327950,-57
2021-12-23 15:29:10.327956,-66
2021-12-23 15:29:10.327994,-66
2021-12-23 15:29:10.328002,-55
2021-12-23 15:29:10.328009,-43
2021-12-23 15:29:10.328015,-35
2021-12-23 15:29:10.328021,-28
2021-12-23 15:29:10.328029,-38
2021-12-23 15:29:10.328040,-38
2021-12-23 15:29:10.328050,-11
2021-12-23 15:29:10.328060,11
2021-12-23 15:29:10.598039,2
2021-12-23 15:29:10.598062,-14
2021-12-23 15:29:10.598069,-23
2021-12-23 15:29:10.598076,-23
2021-12-23 15:29:10.598082,-2
2021-12-23 15:29:10.598089,14
2021-12-23 15:29:10.598095,-2
2021-12-23 15:29:10.598102,-28
2021-12-23 15:29:10.598108,-59
2021-12-23 15:29:10.598114,-78
2021-12-23 15:29:10.598121,-74
2021-12-23 15:29:10.598127,-86
2021-12-23 15:29:10.598134,-122
2021-12-23 15:29:10.598140,-148
2021-12-23 15:29:10.598146,-150
2021-12-23 15:29:10.598153,-131
2021-12-23 15:29:10.598159,-110
2021-12-23 15:29:10.598165,-126
2021-12-23 15:29:10.598172,-162
2021-12-23 15:29:10.598178,-162
2021-12-23 15:29:10.598185,-155
2021-12-23 15:29:10.598191,-196
2021-12-23 15:29:10.598197,-143
2021-12-23 15:29:10.598204,155
2021-12-23 15:29:10.598217,514
2021-12-23 15:29:10.598223,662
2021-12-23 15:29:10.598230,406
2021-12-23 15:29:10.598236,-141
2021-12-23 15:29:10.598243,-272
2021-12-23 15:29:10.598249,19
2021-12-23 15:29:10.778513,21
2021-12-23 15:29:10.778543,-124
2021-12-23 15:29:10.778555,-64
2021-12-23 15:29:10.778565,-7
2021-12-23 15:29:10.778575,-28
2021-12-23 15:29:10.778585,-9
2021-12-23 15:29:10.778595,7
2021-12-23 15:29:10.778604,-14
2021-12-23 15:29:10.778614,2
2021-12-23 15:29:10.778624,33
2021-12-23 15:29:10.778633,43
2021-12-23 15:29:10.778643,64
2021-12-23 15:29:10.778653,88
2021-12-23 15:29:10.778662,93
2021-12-23 15:29:10.778672,98
2021-12-23 15:29:10.778682,126
2021-12-23 15:29:10.778691,174
2021-12-23 15:29:10.778701,210
2021-12-23 15:29:10.778711,215
2021-12-23 15:29:10.778720,220
2021-12-23 15:29:10.778730,244
2021-12-23 15:29:10.778739,265
2021-12-23 15:29:10.778749,282
2021-12-23 15:29:10.778759,287
2021-12-23 15:29:10.778768,248
2021-12-23 15:29:10.778778,181
2021-12-23 15:29:10.778788,114
2021-12-23 15:29:10.778797,40
2021-12-23 15:29:10.778807,-16
2021-12-23 15:29:10.778817,-47
2021-12-23 15:29:11.002590,-78
2021-12-23 15:29:11.002606,-93
2021-12-23 15:29:11.002612,-78
2021-12-23 15:29:11.002618,-71
2021-12-23 15:29:11.002623,-69
2021-12-23 15:29:11.002628,-69
2021-12-23 15:29:11.002633,-86
2021-12-23 15:29:11.002638,-83
2021-12-23 15:29:11.002643,-59
2021-12-23 15:29:11.002648,-52
2021-12-23 15:29:11.002653,-50
2021-12-23 15:29:11.002658,-45
2021-12-23 15:29:11.002663,-64
2021-12-23 15:29:11.002668,-64
2021-12-23 15:29:11.002673,-47
2021-12-23 15:29:11.002679,-59
2021-12-23 15:29:11.002684,-81
2021-12-23 15:29:11.002689,-76
2021-12-23 15:29:11.002694,-66
2021-12-23 15:29:11.002699,-55
2021-12-23 15:29:11.002704,-35
2021-12-23 15:29:11.002709,-28
2021-12-23 15:29:11.002714,-23
2021-12-23 15:29:11.002719,-35
2021-12-23 15:29:11.002724,-71
2021-12-23 15:29:11.002729,-81
2021-12-23 15:29:11.002734,-71
2021-12-23 15:29:11.002739,-66
2021-12-23 15:29:11.002744,-55
2021-12-23 15:29:11.002749,-40
2021-12-23 15:29:11.228392,-38
2021-12-23 15:29:11.228421,-35
2021-12-23 15:29:11.228433,-31
2021-12-23 15:29:11.228443,-31
2021-12-23 15:29:11.228453,-33
2021-12-23 15:29:11.228463,-43
2021-12-23 15:29:11.228472,-55
2021-12-23 15:29:11.228482,-43
2021-12-23 15:29:11.228492,-21
2021-12-23 15:29:11.228501,-16
2021-12-23 15:29:11.228519,-28
2021-12-23 15:29:11.228529,-45
2021-12-23 15:29:11.228539,-43
2021-12-23 15:29:11.228549,-28
2021-12-23 15:29:11.228559,-23
2021-12-23 15:29:11.228568,-26
2021-12-23 15:29:11.228578,-23
2021-12-23 15:29:11.228588,-31
2021-12-23 15:29:11.228597,-47
2021-12-23 15:29:11.228607,-55
2021-12-23 15:29:11.228617,-55
2021-12-23 15:29:11.228626,-71
2021-12-23 15:29:11.228636,-93
2021-12-23 15:29:11.228645,-110
2021-12-23 15:29:11.228655,-107
2021-12-23 15:29:11.228664,-86
2021-12-23 15:29:11.228674,-74
2021-12-23 15:29:11.228684,-78
2021-12-23 15:29:11.228693,-81
2021-12-23 15:29:11.228703,-71
2021-12-23 15:29:11.587620,-57
2021-12-23 15:29:11.587647,-50
2021-12-23 15:29:11.587659,-76
2021-12-23 15:29:11.587670,-124
2021-12-23 15:29:11.587682,-43
2021-12-23 15:29:11.587693,272
2021-12-23 15:29:11.587704,595
2021-12-23 15:29:11.587716,636
2021-12-23 15:29:11.587724,282
2021-12-23 15:29:11.587731,-177
2021-12-23 15:29:11.587737,-186
2021-12-23 15:29:11.587745,14
2021-12-23 15:29:11.587751,-43
2021-12-23 15:29:11.587758,-107
2021-12-23 15:29:11.587764,-31
2021-12-23 15:29:11.587771,-14
2021-12-23 15:29:11.587777,-45
2021-12-23 15:29:11.587783,-21
2021-12-23 15:29:11.587790,21
2021-12-23 15:29:11.587796,19
2021-12-23 15:29:11.587802,0
2021-12-23 15:29:11.587809,11
2021-12-23 15:29:11.587815,31
2021-12-23 15:29:11.587821,47
2021-12-23 15:29:11.587828,76
2021-12-23 15:29:11.587838,114
2021-12-23 15:29:11.587844,145
2021-12-23 15:29:11.587851,162
2021-12-23 15:29:11.587857,179
2021-12-23 15:29:11.587863,191
2021-12-23 15:29:11.723373,191
2021-12-23 15:29:11.723403,217
2021-12-23 15:29:11.723414,256
2021-12-23 15:29:11.723424,239
2021-12-23 15:29:11.723434,203
2021-12-23 15:29:11.723444,208
2021-12-23 15:29:11.723454,203
2021-12-23 15:29:11.723464,150
2021-12-23 15:29:11.723474,71
2021-12-23 15:29:11.723483,-14
2021-12-23 15:29:11.723493,-90
2021-12-23 15:29:11.723503,-124
2021-12-23 15:29:11.723513,-126
2021-12-23 15:29:11.723522,-136
2021-12-23 15:29:11.723532,-143
2021-12-23 15:29:11.723542,-136
2021-12-23 15:29:11.723551,-126
2021-12-23 15:29:11.723561,-110
2021-12-23 15:29:11.723571,-98
2021-12-23 15:29:11.723580,-81
2021-12-23 15:29:11.723590,-69
2021-12-23 15:29:11.723600,-95
2021-12-23 15:29:11.723609,-107
2021-12-23 15:29:11.723619,-57
2021-12-23 15:29:11.723628,-23
2021-12-23 15:29:11.723638,-28
2021-12-23 15:29:11.723648,-31
2021-12-23 15:29:11.723657,-38
2021-12-23 15:29:11.723667,-35
2021-12-23 15:29:11.723677,-14
2021-12-23 15:29:11.992645,2
2021-12-23 15:29:11.992667,2
2021-12-23 15:29:11.992674,-14
2021-12-23 15:29:11.992681,-40
2021-12-23 15:29:11.992688,-40
2021-12-23 15:29:11.992694,-9
2021-12-23 15:29:11.992700,9
2021-12-23 15:29:11.992707,11
2021-12-23 15:29:11.992713,4
2021-12-23 15:29:11.992720,-14
2021-12-23 15:29:11.992726,-26
2021-12-23 15:29:11.992733,-9
2021-12-23 15:29:11.992739,7
2021-12-23 15:29:11.992746,7
2021-12-23 15:29:11.992752,-4
2021-12-23 15:29:11.992758,-31
2021-12-23 15:29:11.992770,-35
2021-12-23 15:29:11.992776,-16
2021-12-23 15:29:11.992783,-7
2021-12-23 15:29:11.992789,-14
2021-12-23 15:29:11.992795,-23
2021-12-23 15:29:11.992802,-26
2021-12-23 15:29:11.992808,-16
2021-12-23 15:29:11.992814,-23
2021-12-23 15:29:11.992821,-38
2021-12-23 15:29:11.992827,-31
2021-12-23 15:29:11.992834,-21
2021-12-23 15:29:11.992840,-31
2021-12-23 15:29:11.992846,-23
2021-12-23 15:29:11.992853,-14
2021-12-23 15:29:12.173361,-35
2021-12-23 15:29:12.173430,-55
2021-12-23 15:29:12.173488,-57
2021-12-23 15:29:12.173510,-71
2021-12-23 15:29:12.173522,-71
2021-12-23 15:29:12.173532,-74
2021-12-23 15:29:12.173542,-98
2021-12-23 15:29:12.173551,-98
2021-12-23 15:29:12.173561,-107
2021-12-23 15:29:12.173571,-145
2021-12-23 15:29:12.173580,-143
2021-12-23 15:29:12.173590,-114
2021-12-23 15:29:12.173600,-102
2021-12-23 15:29:12.173610,-107
2021-12-23 15:29:12.173619,-131
2021-12-23 15:29:12.173629,-145
2021-12-23 15:29:12.173639,-119
2021-12-23 15:29:12.173648,-88
2021-12-23 15:29:12.173658,-81
2021-12-23 15:29:12.173668,-107
2021-12-23 15:29:12.173677,-153
2021-12-23 15:29:12.173687,-33
2021-12-23 15:29:12.173697,322
2021-12-23 15:29:12.173707,617
2021-12-23 15:29:12.173717,595
2021-12-23 15:29:12.173726,191
2021-12-23 15:29:12.173736,-234
2021-12-23 15:29:12.173746,-162
2021-12-23 15:29:12.173755,23
2021-12-23 15:29:12.173765,-59
2021-12-23 15:29:12.443379,-90
2021-12-23 15:29:12.443409,-19
2021-12-23 15:29:12.443421,-35
2021-12-23 15:29:12.443431,-55
2021-12-23 15:29:12.443441,-11
2021-12-23 15:29:12.443451,14
2021-12-23 15:29:12.443461,14
2021-12-23 15:29:12.443471,16
2021-12-23 15:29:12.443481,7
2021-12-23 15:29:12.443491,16
2021-12-23 15:29:12.443501,62
2021-12-23 15:29:12.443510,105
2021-12-23 15:29:12.443520,124
2021-12-23 15:29:12.443536,124
2021-12-23 15:29:12.443546,122
2021-12-23 15:29:12.443556,153
2021-12-23 15:29:12.443566,203
2021-12-23 15:29:12.443575,244
2021-12-23 15:29:12.443585,265
2021-12-23 15:29:12.443595,258
2021-12-23 15:29:12.443605,253
2021-12-23 15:29:12.443614,267
2021-12-23 15:29:12.443624,265
2021-12-23 15:29:12.443634,232
2021-12-23 15:29:12.443644,186
2021-12-23 15:29:12.443654,119
2021-12-23 15:29:12.443663,43
2021-12-23 15:29:12.443673,-19
2021-12-23 15:29:12.443683,-74
2021-12-23 15:29:12.443693,-110
2021-12-23 15:29:12.623396,-114
2021-12-23 15:29:12.623426,-110
2021-12-23 15:29:12.623438,-107
2021-12-23 15:29:12.623448,-107
2021-12-23 15:29:12.623457,-100
2021-12-23 15:29:12.623467,-78
2021-12-23 15:29:12.623477,-86
2021-12-23 15:29:12.623486,-107
2021-12-23 15:29:12.623496,-95
2021-12-23 15:29:12.623506,-76
2021-12-23 15:29:12.623515,-78
2021-12-23 15:29:12.623525,-98
2021-12-23 15:29:12.623534,-122
2021-12-23 15:29:12.623544,-119
2021-12-23 15:29:12.623554,-93
2021-12-23 15:29:12.623563,-83
2021-12-23 15:29:12.623573,-90
2021-12-23 15:29:12.623582,-78
2021-12-23 15:29:12.623592,-74
2021-12-23 15:29:12.623601,-78
2021-12-23 15:29:12.623611,-62
2021-12-23 15:29:12.623621,-45
2021-12-23 15:29:12.623630,-43
2021-12-23 15:29:12.623640,-33
2021-12-23 15:29:12.623649,-33
2021-12-23 15:29:12.623659,-57
2021-12-23 15:29:12.623668,-59
2021-12-23 15:29:12.623678,-47
2021-12-23 15:29:12.623688,-43
2021-12-23 15:29:12.623697,-47
2021-12-23 15:29:12.847627,-55
2021-12-23 15:29:12.847643,-47
2021-12-23 15:29:12.847649,-38
2021-12-23 15:29:12.847655,-45
2021-12-23 15:29:12.847660,-40
2021-12-23 15:29:12.847665,-33
2021-12-23 15:29:12.847670,-57
2021-12-23 15:29:12.847675,-66
2021-12-23 15:29:12.847680,-43
2021-12-23 15:29:12.847685,-35
2021-12-23 15:29:12.847690,-35
2021-12-23 15:29:12.847695,-40
2021-12-23 15:29:12.847700,-57
2021-12-23 15:29:12.847705,-50
2021-12-23 15:29:12.847711,-21
2021-12-23 15:29:12.847716,-4
2021-12-23 15:29:12.847721,-2
2021-12-23 15:29:12.847731,-7
2021-12-23 15:29:12.847736,-23
2021-12-23 15:29:12.847741,-43
2021-12-23 15:29:12.847746,-55
2021-12-23 15:29:12.847751,-52
2021-12-23 15:29:12.847757,-43
2021-12-23 15:29:12.847762,-43
2021-12-23 15:29:12.847767,-40
2021-12-23 15:29:12.847772,-19
2021-12-23 15:29:12.847777,4
2021-12-23 15:29:12.847782,7
2021-12-23 15:29:12.847787,2
2021-12-23 15:29:12.847792,2
2021-12-23 15:29:13.118449,-23
2021-12-23 15:29:13.118478,-55
2021-12-23 15:29:13.118490,78
2021-12-23 15:29:13.118500,418
2021-12-23 15:29:13.118510,631
2021-12-23 15:29:13.118520,468
2021-12-23 15:29:13.118530,40
2021-12-23 15:29:13.118539,-220
2021-12-23 15:29:13.118549,-69
2021-12-23 15:29:13.118559,43
2021-12-23 15:29:13.118569,-55
2021-12-23 15:29:13.118578,-71
2021-12-23 15:29:13.118588,-45
2021-12-23 15:29:13.118598,-55
2021-12-23 15:29:13.118608,-26
2021-12-23 15:29:13.118617,7
2021-12-23 15:29:13.118627,-31
2021-12-23 15:29:13.118637,-83
2021-12-23 15:29:13.118647,-57
2021-12-23 15:29:13.118656,-4
2021-12-23 15:29:13.118666,31
2021-12-23 15:29:13.118676,59
2021-12-23 15:29:13.118685,50
2021-12-23 15:29:13.118695,26
2021-12-23 15:29:13.118705,33
2021-12-23 15:29:13.118714,81
2021-12-23 15:29:13.118724,143
2021-12-23 15:29:13.118734,181
2021-12-23 15:29:13.118743,198
2021-12-23 15:29:13.118753,220
2021-12-23 15:29:13.343339,267
2021-12-23 15:29:13.343369,306
2021-12-23 15:29:13.343381,284
2021-12-23 15:29:13.343391,246
2021-12-23 15:29:13.343400,191
2021-12-23 15:29:13.343410,112
2021-12-23 15:29:13.343419,78
2021-12-23 15:29:13.343429,43
2021-12-23 15:29:13.343439,-50
2021-12-23 15:29:13.343449,-114
2021-12-23 15:29:13.343458,-136
2021-12-23 15:29:13.343468,-145
2021-12-23 15:29:13.343477,-124
2021-12-23 15:29:13.343487,-110
2021-12-23 15:29:13.343497,-119
2021-12-23 15:29:13.343506,-124
2021-12-23 15:29:13.343516,-124
2021-12-23 15:29:13.343526,-119
2021-12-23 15:29:13.343535,-100
2021-12-23 15:29:13.343545,-83
2021-12-23 15:29:13.343554,-74
2021-12-23 15:29:13.343564,-66
2021-12-23 15:29:13.343573,-59
2021-12-23 15:29:13.343583,-47
2021-12-23 15:29:13.343593,-23
2021-12-23 15:29:13.343602,7
2021-12-23 15:29:13.343612,28
2021-12-23 15:29:13.343621,35
2021-12-23 15:29:13.343631,40
2021-12-23 15:29:13.343647,62
2021-12-23 15:29:13.566713,93
2021-12-23 15:29:13.566740,114
2021-12-23 15:29:13.566749,122
2021-12-23 15:29:13.566755,124
2021-12-23 15:29:13.566762,114
2021-12-23 15:29:13.566768,100
2021-12-23 15:29:13.566774,81
2021-12-23 15:29:13.566781,74
2021-12-23 15:29:13.566787,64
2021-12-23 15:29:13.566794,26
2021-12-23 15:29:13.566800,7
2021-12-23 15:29:13.566806,40
2021-12-23 15:29:13.566813,64
2021-12-23 15:29:13.566819,55
2021-12-23 15:29:13.566825,43
2021-12-23 15:29:13.566832,-4
2021-12-23 15:29:13.566838,-52
2021-12-23 15:29:13.566845,21
2021-12-23 15:29:13.566851,153
2021-12-23 15:29:13.566858,198
2021-12-23 15:29:13.566864,117
2021-12-23 15:29:13.566870,21
2021-12-23 15:29:13.566877,47
2021-12-23 15:29:13.566883,114
2021-12-23 15:29:13.566889,71
2021-12-23 15:29:13.566896,31
2021-12-23 15:29:13.566902,93
2021-12-23 15:29:13.566908,78
2021-12-23 15:29:13.566915,-21
2021-12-23 15:29:13.566921,21
2021-12-23 15:29:13.793398,138
2021-12-23 15:29:13.793440,141
2021-12-23 15:29:13.793452,0
2021-12-23 15:29:13.793462,-88
2021-12-23 15:29:13.793472,157
2021-12-23 15:29:13.793482,521
2021-12-23 15:29:13.793491,550
2021-12-23 15:29:13.793501,256
2021-12-23 15:29:13.793510,-217
2021-12-23 15:29:13.793520,-454
2021-12-23 15:29:13.793529,-200
2021-12-23 15:29:13.793539,-38
2021-12-23 15:29:13.793549,-122
2021-12-23 15:29:13.793558,-98
2021-12-23 15:29:13.793568,-66
2021-12-23 15:29:13.793578,-110
2021-12-23 15:29:13.793587,-88
2021-12-23 15:29:13.793597,-35
2021-12-23 15:29:13.793606,-21
2021-12-23 15:29:13.793655,-9
2021-12-23 15:29:13.793809,2
2021-12-23 15:29:13.793855,0
2021-12-23 15:29:13.793886,4
2021-12-23 15:29:13.793940,33
2021-12-23 15:29:13.793997,76
2021-12-23 15:29:13.794004,114
2021-12-23 15:29:13.794010,136
2021-12-23 15:29:13.794017,150
2021-12-23 15:29:13.794023,174
2021-12-23 15:29:13.794029,205
2021-12-23 15:29:14.017629,220
2021-12-23 15:29:14.017646,239
2021-12-23 15:29:14.017652,258
2021-12-23 15:29:14.017657,239
2021-12-23 15:29:14.017663,212
2021-12-23 15:29:14.017668,191
2021-12-23 15:29:14.017673,131
2021-12-23 15:29:14.017678,33
2021-12-23 15:29:14.017683,-78
2021-12-23 15:29:14.017688,-184
2021-12-23 15:29:14.017693,-236
2021-12-23 15:29:14.017698,-256
2021-12-23 15:29:14.017703,-258
2021-12-23 15:29:14.017709,-258
2021-12-23 15:29:14.017714,-279
2021-12-23 15:29:14.017719,-284
2021-12-23 15:29:14.017724,-251
2021-12-23 15:29:14.017729,-224
2021-12-23 15:29:14.017734,-205
2021-12-23 15:29:14.017739,-189
2021-12-23 15:29:14.017747,-186
2021-12-23 15:29:14.017752,-184
2021-12-23 15:29:14.017758,-162
2021-12-23 15:29:14.017763,-138
2021-12-23 15:29:14.017768,-119
2021-12-23 15:29:14.017773,-107
2021-12-23 15:29:14.017778,-117
2021-12-23 15:29:14.017783,-148
2021-12-23 15:29:14.017788,-155
2021-12-23 15:29:14.017793,-117
2021-12-23 15:29:14.243362,-88
2021-12-23 15:29:14.243392,-81
2021-12-23 15:29:14.243403,-76
2021-12-23 15:29:14.243413,-74
2021-12-23 15:29:14.243423,-57
2021-12-23 15:29:14.243433,-28
2021-12-23 15:29:14.243442,-16
2021-12-23 15:29:14.243452,-38
2021-12-23 15:29:14.243463,-64
2021-12-23 15:29:14.243472,-50
2021-12-23 15:29:14.243482,-23
2021-12-23 15:29:14.243492,-23
2021-12-23 15:29:14.243501,-52
2021-12-23 15:29:14.243511,-83
2021-12-23 15:29:14.243521,-93
2021-12-23 15:29:14.243531,-88
2021-12-23 15:29:14.243540,-74
2021-12-23 15:29:14.243550,-38
2021-12-23 15:29:14.243559,-2
2021-12-23 15:29:14.243569,-2
2021-12-23 15:29:14.243579,-14
2021-12-23 15:29:14.243589,-14
2021-12-23 15:29:14.243624,-14
2021-12-23 15:29:14.243647,-16
2021-12-23 15:29:14.243662,-31
2021-12-23 15:29:14.243710,-47
2021-12-23 15:29:14.243733,-43
2021-12-23 15:29:14.243749,-31
2021-12-23 15:29:14.243825,-26
2021-12-23 15:29:14.243857,-14
2021-12-23 15:29:14.513387,-9
2021-12-23 15:29:14.513416,-23
2021-12-23 15:29:14.513427,-38
2021-12-23 15:29:14.513437,-64
2021-12-23 15:29:14.513446,11
2021-12-23 15:29:14.513456,322
2021-12-23 15:29:14.513466,641
2021-12-23 15:29:14.513475,698
2021-12-23 15:29:14.513485,366
2021-12-23 15:29:14.513494,-157
2021-12-23 15:29:14.513504,-208
2021-12-23 15:29:14.513513,66
2021-12-23 15:29:14.513523,2
2021-12-23 15:29:14.513532,-148
2021-12-23 15:29:14.513542,-86
2021-12-23 15:29:14.513551,-62
2021-12-23 15:29:14.513561,-102
2021-12-23 15:29:14.513570,-83
2021-12-23 15:29:14.513579,-66
2021-12-23 15:29:14.513589,-81
2021-12-23 15:29:14.513630,-64
2021-12-23 15:29:14.513639,-45
2021-12-23 15:29:14.513649,-38
2021-12-23 15:29:14.513658,-11
2021-12-23 15:29:14.513668,19
2021-12-23 15:29:14.513677,47
2021-12-23 15:29:14.513687,74
2021-12-23 15:29:14.513696,98
2021-12-23 15:29:14.513780,136
2021-12-23 15:29:14.513895,179
2021-12-23 15:29:14.693400,200
2021-12-23 15:29:14.693429,215
2021-12-23 15:29:14.693441,229
2021-12-23 15:29:14.693451,210
2021-12-23 15:29:14.693461,193
2021-12-23 15:29:14.693470,184
2021-12-23 15:29:14.693480,124
2021-12-23 15:29:14.693490,45
2021-12-23 15:29:14.693500,-11
2021-12-23 15:29:14.693509,-74
2021-12-23 15:29:14.693519,-131
2021-12-23 15:29:14.693529,-150
2021-12-23 15:29:14.693539,-160
2021-12-23 15:29:14.693548,-165
2021-12-23 15:29:14.693558,-150
2021-12-23 15:29:14.693568,-153
2021-12-23 15:29:14.693578,-172
2021-12-23 15:29:14.693587,-184
2021-12-23 15:29:14.693612,-184
2021-12-23 15:29:14.693623,-167
2021-12-23 15:29:14.693632,-148
2021-12-23 15:29:14.693642,-138
2021-12-23 15:29:14.693662,-124
2021-12-23 15:29:14.693672,-119
2021-12-23 15:29:14.693681,-119
2021-12-23 15:29:14.693762,-98
2021-12-23 15:29:14.693785,-76
2021-12-23 15:29:14.693797,-71
2021-12-23 15:29:14.693813,-62
2021-12-23 15:29:14.693824,-57
2021-12-23 15:29:14.918955,-55
2021-12-23 15:29:14.918976,-35
2021-12-23 15:29:14.918983,-21
2021-12-23 15:29:14.918990,-23
2021-12-23 15:29:14.918996,-21
2021-12-23 15:29:14.919002,-35
2021-12-23 15:29:14.919009,-47
2021-12-23 15:29:14.919015,-23
2021-12-23 15:29:14.919021,-9
2021-12-23 15:29:14.919027,-14
2021-12-23 15:29:14.919034,-11
2021-12-23 15:29:14.919040,-19
2021-12-23 15:29:14.919046,-38
2021-12-23 15:29:14.919052,-33
2021-12-23 15:29:14.919058,-14
2021-12-23 15:29:14.919065,7
2021-12-23 15:29:14.919071,31
2021-12-23 15:29:14.919077,40
2021-12-23 15:29:14.919083,26
2021-12-23 15:29:14.919090,11
2021-12-23 15:29:14.919096,11
2021-12-23 15:29:14.919102,4
2021-12-23 15:29:14.919108,-7
2021-12-23 15:29:14.919115,-7
2021-12-23 15:29:14.919121,4
2021-12-23 15:29:14.919127,16
2021-12-23 15:29:14.919133,23
2021-12-23 15:29:14.919139,26
2021-12-23 15:29:14.919146,21
2021-12-23 15:29:14.919152,26
2021-12-23 15:29:15.190016,21
2021-12-23 15:29:15.190039,-28
2021-12-23 15:29:15.190049,-2
2021-12-23 15:29:15.190057,270
2021-12-23 15:29:15.190065,602
2021-12-23 15:29:15.190072,720
2021-12-23 15:29:15.190079,447
2021-12-23 15:29:15.190087,-86
2021-12-23 15:29:15.190094,-220
2021-12-23 15:29:15.190101,4
2021-12-23 15:29:15.190109,-64
2021-12-23 15:29:15.190117,-205
2021-12-23 15:29:15.190125,-114
2021-12-23 15:29:15.190133,-55
2021-12-23 15:29:15.190141,-86
2021-12-23 15:29:15.190149,-62
2021-12-23 15:29:15.190157,-35
2021-12-23 15:29:15.190164,-38
2021-12-23 15:29:15.190172,-11
2021-12-23 15:29:15.190180,11
2021-12-23 15:29:15.190188,0
2021-12-23 15:29:15.190196,-4
2021-12-23 15:29:15.190204,19
2021-12-23 15:29:15.190211,33
2021-12-23 15:29:15.190219,52
2021-12-23 15:29:15.190228,88
2021-12-23 15:29:15.190236,110
2021-12-23 15:29:15.190244,119
2021-12-23 15:29:15.190252,133
2021-12-23 15:29:15.190260,160
2021-12-23 15:29:15.457812,198
2021-12-23 15:29:15.457843,227
2021-12-23 15:29:15.457855,229
2021-12-23 15:29:15.457865,191
2021-12-23 15:29:15.457875,117
2021-12-23 15:29:15.457884,50
2021-12-23 15:29:15.457894,-7
2021-12-23 15:29:15.457904,-74
2021-12-23 15:29:15.457913,-133
2021-12-23 15:29:15.457923,-179
2021-12-23 15:29:15.457932,-215
2021-12-23 15:29:15.457942,-212
2021-12-23 15:29:15.457952,-193
2021-12-23 15:29:15.457961,-179
2021-12-23 15:29:15.457971,-167
2021-12-23 15:29:15.457981,-172
2021-12-23 15:29:15.457990,-172
2021-12-23 15:29:15.458000,-143
2021-12-23 15:29:15.458010,-119
2021-12-23 15:29:15.458019,-114
2021-12-23 15:29:15.458029,-105
2021-12-23 15:29:15.458038,-105
2021-12-23 15:29:15.458048,-122
2021-12-23 15:29:15.458058,-122
2021-12-23 15:29:15.458067,-95
2021-12-23 15:29:15.458077,-78
2021-12-23 15:29:15.458087,-74
2021-12-23 15:29:15.458096,-78
2021-12-23 15:29:15.458106,-71
2021-12-23 15:29:15.458115,-47
2021-12-23 15:29:15.772005,-26
2021-12-23 15:29:15.772035,-14
2021-12-23 15:29:15.772046,-7
2021-12-23 15:29:15.772056,-35
2021-12-23 15:29:15.772066,-55
2021-12-23 15:29:15.772087,-23
2021-12-23 15:29:15.772097,2
2021-12-23 15:29:15.772107,2
2021-12-23 15:29:15.772117,-2
2021-12-23 15:29:15.772126,-23
2021-12-23 15:29:15.772137,-31
2021-12-23 15:29:15.772146,-7
2021-12-23 15:29:15.772156,11
2021-12-23 15:29:15.772165,16
2021-12-23 15:29:15.772175,7
2021-12-23 15:29:15.772185,-28
2021-12-23 15:29:15.772194,-33
2021-12-23 15:29:15.772204,-7
2021-12-23 15:29:15.772213,-2
2021-12-23 15:29:15.772223,-2
2021-12-23 15:29:15.772233,11
2021-12-23 15:29:15.772242,16
2021-12-23 15:29:15.772252,33
2021-12-23 15:29:15.772261,45
2021-12-23 15:29:15.772271,16
2021-12-23 15:29:15.772280,-11
2021-12-23 15:29:15.772290,-14
2021-12-23 15:29:15.772300,-33
2021-12-23 15:29:15.772310,-43
2021-12-23 15:29:15.772319,-16
2021-12-23 15:29:15.862689,-2
2021-12-23 15:29:15.862709,-2
2021-12-23 15:29:15.862716,-7
2021-12-23 15:29:15.862723,-19
2021-12-23 15:29:15.862729,-19
2021-12-23 15:29:15.862736,-14
2021-12-23 15:29:15.862742,-40
2021-12-23 15:29:15.862748,-57
2021-12-23 15:29:15.862755,107
2021-12-23 15:29:15.862761,449
2021-12-23 15:29:15.862767,715
2021-12-23 15:29:15.862774,686
2021-12-23 15:29:15.862780,222
2021-12-23 15:29:15.862786,-208
2021-12-23 15:29:15.862792,-74
2021-12-23 15:29:15.862799,59
2021-12-23 15:29:15.862805,-93
2021-12-23 15:29:15.862811,-100
2021-12-23 15:29:15.862817,-4
2021-12-23 15:29:15.862824,-21
2021-12-23 15:29:15.862830,-62
2021-12-23 15:29:15.862836,-43
2021-12-23 15:29:15.862843,-11
2021-12-23 15:29:15.862849,2
2021-12-23 15:29:15.862855,21
2021-12-23 15:29:15.862861,45
2021-12-23 15:29:15.862867,45
2021-12-23 15:29:15.862874,35
2021-12-23 15:29:15.862880,66
2021-12-23 15:29:15.862886,110
2021-12-23 15:29:16.088359,136
2021-12-23 15:29:16.088389,162
2021-12-23 15:29:16.088401,184
2021-12-23 15:29:16.088411,205
2021-12-23 15:29:16.088421,236
2021-12-23 15:29:16.088431,251
2021-12-23 15:29:16.088441,256
2021-12-23 15:29:16.088451,241
2021-12-23 15:29:16.088461,200
2021-12-23 15:29:16.088470,165
2021-12-23 15:29:16.088480,126
2021-12-23 15:29:16.088490,57
2021-12-23 15:29:16.088500,-21
2021-12-23 15:29:16.088510,-100
2021-12-23 15:29:16.088520,-172
2021-12-23 15:29:16.088530,-208
2021-12-23 15:29:16.088539,-196
2021-12-23 15:29:16.088549,-177
2021-12-23 15:29:16.088559,-167
2021-12-23 15:29:16.088568,-177
2021-12-23 15:29:16.088578,-205
2021-12-23 15:29:16.088588,-212
2021-12-23 15:29:16.088597,-179
2021-12-23 15:29:16.088607,-157
2021-12-23 15:29:16.088617,-157
2021-12-23 15:29:16.088627,-155
2021-12-23 15:29:16.088636,-148
2021-12-23 15:29:16.088646,-141
2021-12-23 15:29:16.088656,-145
2021-12-23 15:29:16.088666,-150
2021-12-23 15:29:16.313349,-133
2021-12-23 15:29:16.313378,-119
2021-12-23 15:29:16.313390,-117
2021-12-23 15:29:16.313400,-100
2021-12-23 15:29:16.313410,-83
2021-12-23 15:29:16.313420,-78
2021-12-23 15:29:16.313430,-86
2021-12-23 15:29:16.313439,-105
2021-12-23 15:29:16.313449,-102
2021-12-23 15:29:16.313459,-83
2021-12-23 15:29:16.313468,-64
2021-12-23 15:29:16.313478,-45
2021-12-23 15:29:16.313488,-45
2021-12-23 15:29:16.313497,-74
2021-12-23 15:29:16.313507,-81
2021-12-23 15:29:16.313517,-64
2021-12-23 15:29:16.313526,-45
2021-12-23 15:29:16.313536,-33
2021-12-23 15:29:16.313546,-31
2021-12-23 15:29:16.313556,-28
2021-12-23 15:29:16.313565,-16
2021-12-23 15:29:16.313575,-14
2021-12-23 15:29:16.313585,-11
2021-12-23 15:29:16.313594,2
2021-12-23 15:29:16.313604,9
2021-12-23 15:29:16.313614,0
2021-12-23 15:29:16.313624,0
2021-12-23 15:29:16.313633,11
2021-12-23 15:29:16.313643,21
2021-12-23 15:29:16.313653,21
2021-12-23 15:29:16.538368,14
2021-12-23 15:29:16.538402,11
2021-12-23 15:29:16.538414,16
2021-12-23 15:29:16.538424,7
2021-12-23 15:29:16.538434,-2
2021-12-23 15:29:16.538444,9
2021-12-23 15:29:16.538453,9
2021-12-23 15:29:16.538463,14
2021-12-23 15:29:16.538472,35
2021-12-23 15:29:16.538482,35
2021-12-23 15:29:16.538491,28
2021-12-23 15:29:16.538501,23
2021-12-23 15:29:16.538510,-4
2021-12-23 15:29:16.538520,-26
2021-12-23 15:29:16.538529,-14
2021-12-23 15:29:16.538539,-4
2021-12-23 15:29:16.538548,-4
2021-12-23 15:29:16.538558,2
2021-12-23 15:29:16.538568,16
2021-12-23 15:29:16.538577,23
2021-12-23 15:29:16.538586,23
2021-12-23 15:29:16.538596,23
2021-12-23 15:29:16.538605,-7
2021-12-23 15:29:16.538615,-35
2021-12-23 15:29:16.538624,138
2021-12-23 15:29:16.538634,483
2021-12-23 15:29:16.538644,696
2021-12-23 15:29:16.538653,602
2021-12-23 15:29:16.538663,122
2021-12-23 15:29:16.538672,-244
2021-12-23 15:29:16.852484,-52
2021-12-23 15:29:16.852507,64
2021-12-23 15:29:16.852512,-119
2021-12-23 15:29:16.852517,-141
2021-12-23 15:29:16.852521,-62
2021-12-23 15:29:16.852525,-98
2021-12-23 15:29:16.852530,-129
2021-12-23 15:29:16.852534,-81
2021-12-23 15:29:16.852538,-50
2021-12-23 15:29:16.852543,-55
2021-12-23 15:29:16.852547,-45
2021-12-23 15:29:16.852552,-43
2021-12-23 15:29:16.852556,-40
2021-12-23 15:29:16.852560,-4
2021-12-23 15:29:16.852564,31
2021-12-23 15:29:16.852569,45
2021-12-23 15:29:16.852573,66
2021-12-23 15:29:16.852578,100
2021-12-23 15:29:16.852582,133
2021-12-23 15:29:16.852586,174
2021-12-23 15:29:16.852591,210
2021-12-23 15:29:16.852595,212
2021-12-23 15:29:16.852599,203
2021-12-23 15:29:16.852603,200
2021-12-23 15:29:16.852608,196
2021-12-23 15:29:16.852612,172
2021-12-23 15:29:16.852616,126
2021-12-23 15:29:16.852621,55
2021-12-23 15:29:16.852625,-28
2021-12-23 15:29:16.852629,-93
2021-12-23 15:29:16.987507,-124
2021-12-23 15:29:16.987521,-143
2021-12-23 15:29:16.987527,-157
2021-12-23 15:29:16.987531,-167
2021-12-23 15:29:16.987535,-179
2021-12-23 15:29:16.987540,-186
2021-12-23 15:29:16.987544,-167
2021-12-23 15:29:16.987549,-138
2021-12-23 15:29:16.987553,-136
2021-12-23 15:29:16.987557,-133
2021-12-23 15:29:16.987562,-114
2021-12-23 15:29:16.987566,-102
2021-12-23 15:29:16.987570,-98
2021-12-23 15:29:16.987575,-81
2021-12-23 15:29:16.987579,-64
2021-12-23 15:29:16.987584,-66
2021-12-23 15:29:16.987588,-88
2021-12-23 15:29:16.987592,-98
2021-12-23 15:29:16.987597,-76
2021-12-23 15:29:16.987601,-59
2021-12-23 15:29:16.987605,-57
2021-12-23 15:29:16.987610,-55
2021-12-23 15:29:16.987614,-69
2021-12-23 15:29:16.987619,-83
2021-12-23 15:29:16.987623,-57
2021-12-23 15:29:16.987627,-31
2021-12-23 15:29:16.987632,-28
2021-12-23 15:29:16.987636,-31
2021-12-23 15:29:16.987641,-31
2021-12-23 15:29:16.987645,-28
2021-12-23 15:29:17.212755,-23
2021-12-23 15:29:17.212776,-47
2021-12-23 15:29:17.212786,-78
2021-12-23 15:29:17.212793,-88
2021-12-23 15:29:17.212800,-98
2021-12-23 15:29:17.212806,-98
2021-12-23 15:29:17.212813,-81
2021-12-23 15:29:17.212819,-90
2021-12-23 15:29:17.212826,-95
2021-12-23 15:29:17.212832,-98
2021-12-23 15:29:17.212838,-122
2021-12-23 15:29:17.212845,-110
2021-12-23 15:29:17.212851,-71
2021-12-23 15:29:17.212858,-57
2021-12-23 15:29:17.212864,-62
2021-12-23 15:29:17.212871,-64
2021-12-23 15:29:17.212877,-66
2021-12-23 15:29:17.212883,-57
2021-12-23 15:29:17.212921,-33
2021-12-23 15:29:17.212927,4
2021-12-23 15:29:17.212934,26
2021-12-23 15:29:17.212940,11
2021-12-23 15:29:17.212946,2
2021-12-23 15:29:17.212953,21
2021-12-23 15:29:17.212959,28
2021-12-23 15:29:17.212965,19
2021-12-23 15:29:17.212972,14
2021-12-23 15:29:17.212978,0
2021-12-23 15:29:17.212984,-7
2021-12-23 15:29:17.212991,14
2021-12-23 15:29:17.483324,35
2021-12-23 15:29:17.483353,43
2021-12-23 15:29:17.483365,40
2021-12-23 15:29:17.483375,4
2021-12-23 15:29:17.483384,-28
2021-12-23 15:29:17.483394,-40
2021-12-23 15:29:17.483404,0
2021-12-23 15:29:17.483413,241
2021-12-23 15:29:17.483423,564
2021-12-23 15:29:17.483433,672
2021-12-23 15:29:17.483443,433
2021-12-23 15:29:17.483458,-59
2021-12-23 15:29:17.483468,-234
2021-12-23 15:29:17.483478,23
2021-12-23 15:29:17.483487,55
2021-12-23 15:29:17.483497,-110
2021-12-23 15:29:17.483507,-66
2021-12-23 15:29:17.483516,11
2021-12-23 15:29:17.483526,-14
2021-12-23 15:29:17.483536,-9
2021-12-23 15:29:17.483546,21
2021-12-23 15:29:17.483556,14
2021-12-23 15:29:17.483565,23
2021-12-23 15:29:17.483575,59
2021-12-23 15:29:17.483585,81
2021-12-23 15:29:17.483594,93
2021-12-23 15:29:17.483604,107
2021-12-23 15:29:17.483614,114
2021-12-23 15:29:17.483624,136
2021-12-23 15:29:17.483633,177
2021-12-23 15:29:17.751901,208
2021-12-23 15:29:17.751922,234
2021-12-23 15:29:17.751930,248
2021-12-23 15:29:17.751936,248
2021-12-23 15:29:17.751943,253
2021-12-23 15:29:17.751949,248
2021-12-23 15:29:17.751955,222
2021-12-23 15:29:17.751961,179
2021-12-23 15:29:17.751968,114
2021-12-23 15:29:17.751974,38
2021-12-23 15:29:17.751980,-35
2021-12-23 15:29:17.751987,-110
2021-12-23 15:29:17.751993,-167
2021-12-23 15:29:17.751999,-196
2021-12-23 15:29:17.752006,-239
2021-12-23 15:29:17.752012,-282
2021-12-23 15:29:17.752018,-265
2021-12-23 15:29:17.752025,-229
2021-12-23 15:29:17.752031,-224
2021-12-23 15:29:17.752037,-222
2021-12-23 15:29:17.752044,-210
2021-12-23 15:29:17.752050,-203
2021-12-23 15:29:17.752056,-189
2021-12-23 15:29:17.752062,-160
2021-12-23 15:29:17.752069,-150
2021-12-23 15:29:17.752075,-138
2021-12-23 15:29:17.752081,-124
2021-12-23 15:29:17.752087,-117
2021-12-23 15:29:17.752094,-100
2021-12-23 15:29:17.752100,-78
2021-12-23 15:29:17.978349,-64
2021-12-23 15:29:17.978380,-57
2021-12-23 15:29:17.978391,-62
2021-12-23 15:29:17.978401,-66
2021-12-23 15:29:17.978411,-45
2021-12-23 15:29:17.978421,-16
2021-12-23 15:29:17.978430,-11
2021-12-23 15:29:17.978440,-33
2021-12-23 15:29:17.978450,-57
2021-12-23 15:29:17.978459,-57
2021-12-23 15:29:17.978469,-40
2021-12-23 15:29:17.978479,-23
2021-12-23 15:29:17.978489,-21
2021-12-23 15:29:17.978498,-55
2021-12-23 15:29:17.978508,-93
2021-12-23 15:29:17.978517,-86
2021-12-23 15:29:17.978527,-59
2021-12-23 15:29:17.978537,-45
2021-12-23 15:29:17.978546,-40
2021-12-23 15:29:17.978556,-40
2021-12-23 15:29:17.978566,-35
2021-12-23 15:29:17.978576,-26
2021-12-23 15:29:17.978585,-7
2021-12-23 15:29:17.978595,7
2021-12-23 15:29:17.978605,9
2021-12-23 15:29:17.978614,2
2021-12-23 15:29:17.978624,0
2021-12-23 15:29:17.978634,7
2021-12-23 15:29:17.978643,16
2021-12-23 15:29:17.978653,19
2021-12-23 15:29:18.202542,28
2021-12-23 15:29:18.202564,55
2021-12-23 15:29:18.202574,71
2021-12-23 15:29:18.202582,66
2021-12-23 15:29:18.202590,66
2021-12-23 15:29:18.202598,71
2021-12-23 15:29:18.202606,55
2021-12-23 15:29:18.202614,16
2021-12-23 15:29:18.202622,4
2021-12-23 15:29:18.202630,16
2021-12-23 15:29:18.202639,23
2021-12-23 15:29:18.202647,33
2021-12-23 15:29:18.202655,21
2021-12-23 15:29:18.202664,-31
2021-12-23 15:29:18.202672,-62
2021-12-23 15:29:18.202680,-57
2021-12-23 15:29:18.202724,-64
2021-12-23 15:29:18.202743,-98
2021-12-23 15:29:18.202751,-38
2021-12-23 15:29:18.202759,232
2021-12-23 15:29:18.202766,521
2021-12-23 15:29:18.202786,569
2021-12-23 15:29:18.202805,256
2021-12-23 15:29:18.202815,-169
2021-12-23 15:29:18.202824,-160
2021-12-23 15:29:18.202834,55
2021-12-23 15:29:18.202843,-4
2021-12-23 15:29:18.202852,-86
2021-12-23 15:29:18.202861,-11
2021-12-23 15:29:18.202871,16
2021-12-23 15:29:18.382569,-11
2021-12-23 15:29:18.382584,4
2021-12-23 15:29:18.382590,33
2021-12-23 15:29:18.382594,28
2021-12-23 15:29:18.382598,21
2021-12-23 15:29:18.382603,23
2021-12-23 15:29:18.382607,0
2021-12-23 15:29:18.382612,-23
2021-12-23 15:29:18.382616,2
2021-12-23 15:29:18.382621,38
2021-12-23 15:29:18.382625,62
2021-12-23 15:29:18.382629,76
2021-12-23 15:29:18.382634,71
2021-12-23 15:29:18.382638,88
2021-12-23 15:29:18.382643,136
2021-12-23 15:29:18.382647,160
2021-12-23 15:29:18.382651,160
2021-12-23 15:29:18.382656,153
2021-12-23 15:29:18.382661,143
2021-12-23 15:29:18.382665,141
2021-12-23 15:29:18.382670,124
2021-12-23 15:29:18.382674,69
2021-12-23 15:29:18.382679,9
2021-12-23 15:29:18.382683,-47
2021-12-23 15:29:18.382688,-102
2021-12-23 15:29:18.382692,-133
2021-12-23 15:29:18.382696,-145
2021-12-23 15:29:18.382701,-155
2021-12-23 15:29:18.382705,-153
2021-12-23 15:29:18.382710,-138
2021-12-23 15:29:18.608057,-133
2021-12-23 15:29:18.608079,-122
2021-12-23 15:29:18.608086,-110
2021-12-23 15:29:18.608093,-110
2021-12-23 15:29:18.608100,-107
2021-12-23 15:29:18.608106,-98
2021-12-23 15:29:18.608112,-107
2021-12-23 15:29:18.608119,-105
2021-12-23 15:29:18.608129,-86
2021-12-23 15:29:18.608135,-74
2021-12-23 15:29:18.608142,-74
2021-12-23 15:29:18.608148,-83
2021-12-23 15:29:18.608154,-81
2021-12-23 15:29:18.608161,-66
2021-12-23 15:29:18.608167,-57
2021-12-23 15:29:18.608173,-52
2021-12-23 15:29:18.608180,-38
2021-12-23 15:29:18.608186,-38
2021-12-23 15:29:18.608192,-74
2021-12-23 15:29:18.608198,-107
2021-12-23 15:29:18.608205,-105
2021-12-23 15:29:18.608211,-86
2021-12-23 15:29:18.608218,-76
2021-12-23 15:29:18.608224,-66
2021-12-23 15:29:18.608231,-45
2021-12-23 15:29:18.608237,-26
2021-12-23 15:29:18.608243,-16
2021-12-23 15:29:18.608250,-19
2021-12-23 15:29:18.608256,-23
2021-12-23 15:29:18.608262,-16
2021-12-23 15:29:18.833400,9
2021-12-23 15:29:18.833429,33
2021-12-23 15:29:18.833441,33
2021-12-23 15:29:18.833451,23
2021-12-23 15:29:18.833461,11
2021-12-23 15:29:18.833471,0
2021-12-23 15:29:18.833480,0
2021-12-23 15:29:18.833490,14
2021-12-23 15:29:18.833500,33
2021-12-23 15:29:18.833510,50
2021-12-23 15:29:18.833519,43
2021-12-23 15:29:18.833529,26
2021-12-23 15:29:18.833539,43
2021-12-23 15:29:18.833549,45
2021-12-23 15:29:18.833558,7
2021-12-23 15:29:18.833568,-14
2021-12-23 15:29:18.833578,-7
2021-12-23 15:29:18.833587,-2
2021-12-23 15:29:18.833597,4
2021-12-23 15:29:18.833607,23
2021-12-23 15:29:18.833616,21
2021-12-23 15:29:18.833626,-9
2021-12-23 15:29:18.833636,-26
2021-12-23 15:29:18.833645,-11
2021-12-23 15:29:18.833655,-2
2021-12-23 15:29:18.833665,-19
2021-12-23 15:29:18.833674,95
2021-12-23 15:29:18.833684,430
2021-12-23 15:29:18.833694,634
2021-12-23 15:29:18.833704,428
2021-12-23 15:29:19.103380,11
2021-12-23 15:29:19.103412,-203
2021-12-23 15:29:19.103423,-28
2021-12-23 15:29:19.103434,102
2021-12-23 15:29:19.103443,-21
2021-12-23 15:29:19.103453,-57
2021-12-23 15:29:19.103463,16
2021-12-23 15:29:19.103472,11
2021-12-23 15:29:19.103482,-19
2021-12-23 15:29:19.103492,-16
2021-12-23 15:29:19.103502,-31
2021-12-23 15:29:19.103511,-28
2021-12-23 15:29:19.103521,9
2021-12-23 15:29:19.103531,35
2021-12-23 15:29:19.103540,45
2021-12-23 15:29:19.103550,55
2021-12-23 15:29:19.103560,66
2021-12-23 15:29:19.103569,93
2021-12-23 15:29:19.103579,131
2021-12-23 15:29:19.103589,167
2021-12-23 15:29:19.103598,198
2021-12-23 15:29:19.103608,217
2021-12-23 15:29:19.103617,220
2021-12-23 15:29:19.103627,208
2021-12-23 15:29:19.103637,208
2021-12-23 15:29:19.103646,236
2021-12-23 15:29:19.103656,258
2021-12-23 15:29:19.103666,229
2021-12-23 15:29:19.103676,184
2021-12-23 15:29:19.103685,138
2021-12-23 15:29:19.328370,81
2021-12-23 15:29:19.328399,19
2021-12-23 15:29:19.328411,-43
2021-12-23 15:29:19.328421,-112
2021-12-23 15:29:19.328431,-153
2021-12-23 15:29:19.328441,-143
2021-12-23 15:29:19.328450,-131
2021-12-23 15:29:19.328460,-129
2021-12-23 15:29:19.328470,-124
2021-12-23 15:29:19.328479,-129
2021-12-23 15:29:19.328489,-131
2021-12-23 15:29:19.328499,-112
2021-12-23 15:29:19.328508,-100
2021-12-23 15:29:19.328518,-86
2021-12-23 15:29:19.328528,-78
2021-12-23 15:29:19.328537,-102
2021-12-23 15:29:19.328547,-105
2021-12-23 15:29:19.328557,-69
2021-12-23 15:29:19.328567,-50
2021-12-23 15:29:19.328576,-45
2021-12-23 15:29:19.328586,-31
2021-12-23 15:29:19.328596,-40
2021-12-23 15:29:19.328605,-40
2021-12-23 15:29:19.328615,-9
2021-12-23 15:29:19.328625,4
2021-12-23 15:29:19.328634,-14
2021-12-23 15:29:19.328644,-33
2021-12-23 15:29:19.328654,-35
2021-12-23 15:29:19.328664,-28
2021-12-23 15:29:19.328673,-14
2021-12-23 15:29:19.553349,2
2021-12-23 15:29:19.553380,7
2021-12-23 15:29:19.553392,-4
2021-12-23 15:29:19.553402,-23
2021-12-23 15:29:19.553412,-16
2021-12-23 15:29:19.553422,16
2021-12-23 15:29:19.553432,40
2021-12-23 15:29:19.553441,43
2021-12-23 15:29:19.553451,23
2021-12-23 15:29:19.553461,-9
2021-12-23 15:29:19.553470,-11
2021-12-23 15:29:19.553480,-7
2021-12-23 15:29:19.553490,-40
2021-12-23 15:29:19.553500,-66
2021-12-23 15:29:19.553510,-71
2021-12-23 15:29:19.553519,-88
2021-12-23 15:29:19.553529,-83
2021-12-23 15:29:19.553539,-62
2021-12-23 15:29:19.553548,-50
2021-12-23 15:29:19.553558,-45
2021-12-23 15:29:19.553568,-62
2021-12-23 15:29:19.553578,-83
2021-12-23 15:29:19.553587,-88
2021-12-23 15:29:19.553597,-4
2021-12-23 15:29:19.553607,299
2021-12-23 15:29:19.553617,593
2021-12-23 15:29:19.553626,492
2021-12-23 15:29:19.553636,31
2021-12-23 15:29:19.553646,-370
2021-12-23 15:29:19.553656,-291
2021-12-23 15:29:19.822039,-50
2021-12-23 15:29:19.822068,-93
2021-12-23 15:29:19.822080,-165
2021-12-23 15:29:19.822090,-122
2021-12-23 15:29:19.822100,-119
2021-12-23 15:29:19.822110,-124
2021-12-23 15:29:19.822120,-102
2021-12-23 15:29:19.822129,-119
2021-12-23 15:29:19.822139,-143
2021-12-23 15:29:19.822149,-119
2021-12-23 15:29:19.822158,-83
2021-12-23 15:29:19.822168,-69
2021-12-23 15:29:19.822178,-47
2021-12-23 15:29:19.822187,-33
2021-12-23 15:29:19.822197,-35
2021-12-23 15:29:19.822207,-16
2021-12-23 15:29:19.822216,31
2021-12-23 15:29:19.822226,83
2021-12-23 15:29:19.822235,126
2021-12-23 15:29:19.822245,148
2021-12-23 15:29:19.822255,165
2021-12-23 15:29:19.822264,198
2021-12-23 15:29:19.822274,217
2021-12-23 15:29:19.822289,220
2021-12-23 15:29:19.822299,212
2021-12-23 15:29:19.822309,174
2021-12-23 15:29:19.822318,102
2021-12-23 15:29:19.822328,21
2021-12-23 15:29:19.822338,-47
2021-12-23 15:29:19.822347,-114
2021-12-23 15:29:20.047755,-160
2021-12-23 15:29:20.047789,-172
2021-12-23 15:29:20.047796,-177
2021-12-23 15:29:20.047801,-179
2021-12-23 15:29:20.047807,-162
2021-12-23 15:29:20.047812,-136
2021-12-23 15:29:20.047817,-131
2021-12-23 15:29:20.047823,-153
2021-12-23 15:29:20.047829,-155
2021-12-23 15:29:20.047834,-136
2021-12-23 15:29:20.047839,-119
2021-12-23 15:29:20.047845,-105
2021-12-23 15:29:20.047851,-102
2021-12-23 15:29:20.047856,-117
2021-12-23 15:29:20.047861,-114
2021-12-23 15:29:20.047866,-90
2021-12-23 15:29:20.047871,-74
2021-12-23 15:29:20.047877,-55
2021-12-23 15:29:20.047882,-43
2021-12-23 15:29:20.047887,-45
2021-12-23 15:29:20.047892,-38
2021-12-23 15:29:20.047897,-21
2021-12-23 15:29:20.047902,-9
2021-12-23 15:29:20.047907,2
2021-12-23 15:29:20.047912,7
2021-12-23 15:29:20.047917,-2
2021-12-23 15:29:20.047922,0
2021-12-23 15:29:20.047927,14
2021-12-23 15:29:20.047933,28
2021-12-23 15:29:20.047938,38
2021-12-23 15:29:20.228127,38
2021-12-23 15:29:20.228149,23
2021-12-23 15:29:20.228157,11
2021-12-23 15:29:20.228163,7
2021-12-23 15:29:20.228169,14
2021-12-23 15:29:20.228176,14
2021-12-23 15:29:20.228182,0
2021-12-23 15:29:20.228189,14
2021-12-23 15:29:20.228195,31
2021-12-23 15:29:20.228201,26
2021-12-23 15:29:20.228208,31
2021-12-23 15:29:20.228214,31
2021-12-23 15:29:20.228220,-7
2021-12-23 15:29:20.228227,-26
2021-12-23 15:29:20.228233,2
2021-12-23 15:29:20.228239,14
2021-12-23 15:29:20.228246,9
2021-12-23 15:29:20.228252,-9
2021-12-23 15:29:20.228258,-45
2021-12-23 15:29:20.228265,-47
2021-12-23 15:29:20.228271,-28
2021-12-23 15:29:20.228277,-64
2021-12-23 15:29:20.228283,-86
2021-12-23 15:29:20.228290,107
2021-12-23 15:29:20.228296,473
2021-12-23 15:29:20.228302,701
2021-12-23 15:29:20.228309,593
2021-12-23 15:29:20.228315,136
2021-12-23 15:29:20.228321,-198
2021-12-23 15:29:20.228327,-11
2021-12-23 15:29:20.543301,119
2021-12-23 15:29:20.543332,-19
2021-12-23 15:29:20.543344,-21
2021-12-23 15:29:20.543354,31
2021-12-23 15:29:20.543364,-9
2021-12-23 15:29:20.543374,-21
2021-12-23 15:29:20.543383,-7
2021-12-23 15:29:20.543393,-2
2021-12-23 15:29:20.543402,11
2021-12-23 15:29:20.543412,19
2021-12-23 15:29:20.543422,21
2021-12-23 15:29:20.543431,21
2021-12-23 15:29:20.543441,9
2021-12-23 15:29:20.543451,35
2021-12-23 15:29:20.543460,76
2021-12-23 15:29:20.543470,88
2021-12-23 15:29:20.543479,110
2021-12-23 15:29:20.543489,150
2021-12-23 15:29:20.543499,177
2021-12-23 15:29:20.543508,203
2021-12-23 15:29:20.543518,239
2021-12-23 15:29:20.543527,253
2021-12-23 15:29:20.543537,248
2021-12-23 15:29:20.543546,246
2021-12-23 15:29:20.543556,229
2021-12-23 15:29:20.543566,172
2021-12-23 15:29:20.543575,93
2021-12-23 15:29:20.543585,23
2021-12-23 15:29:20.543594,-28
2021-12-23 15:29:20.543604,-78
2021-12-23 15:29:20.678390,-114
2021-12-23 15:29:20.678419,-114
2021-12-23 15:29:20.678431,-105
2021-12-23 15:29:20.678441,-110
2021-12-23 15:29:20.678450,-114
2021-12-23 15:29:20.678460,-124
2021-12-23 15:29:20.678469,-131
2021-12-23 15:29:20.678479,-110
2021-12-23 15:29:20.678488,-98
2021-12-23 15:29:20.678498,-117
2021-12-23 15:29:20.678507,-117
2021-12-23 15:29:20.678517,-122
2021-12-23 15:29:20.678526,-157
2021-12-23 15:29:20.678536,-150
2021-12-23 15:29:20.678545,-112
2021-12-23 15:29:20.678555,-114
2021-12-23 15:29:20.678564,-145
2021-12-23 15:29:20.678574,-157
2021-12-23 15:29:20.678583,-148
2021-12-23 15:29:20.678593,-136
2021-12-23 15:29:20.678602,-122
2021-12-23 15:29:20.678612,-112
2021-12-23 15:29:20.678621,-129
2021-12-23 15:29:20.678630,-150
2021-12-23 15:29:20.678640,-129
2021-12-23 15:29:20.678649,-98
2021-12-23 15:29:20.678659,-102
2021-12-23 15:29:20.678668,-110
2021-12-23 15:29:20.678677,-100
2021-12-23 15:29:20.678687,-90
2021-12-23 15:29:20.948346,-81
2021-12-23 15:29:20.948375,-59
2021-12-23 15:29:20.948387,-38
2021-12-23 15:29:20.948396,-35
2021-12-23 15:29:20.948406,-52
2021-12-23 15:29:20.948416,-57
2021-12-23 15:29:20.948425,-45
2021-12-23 15:29:20.948435,-59
2021-12-23 15:29:20.948444,-95
2021-12-23 15:29:20.948454,-112
2021-12-23 15:29:20.948464,-122
2021-12-23 15:29:20.948473,-114
2021-12-23 15:29:20.948483,-83
2021-12-23 15:29:20.948492,-74
2021-12-23 15:29:20.948502,-93
2021-12-23 15:29:20.948512,-93
2021-12-23 15:29:20.948521,-76
2021-12-23 15:29:20.948531,-76
2021-12-23 15:29:20.948540,-112
2021-12-23 15:29:20.948550,-126
2021-12-23 15:29:20.948560,59
2021-12-23 15:29:20.948570,397
2021-12-23 15:29:20.948580,555
2021-12-23 15:29:20.948589,445
2021-12-23 15:29:20.948599,47
2021-12-23 15:29:20.948608,-289
2021-12-23 15:29:20.948618,-119
2021-12-23 15:29:20.948628,47
2021-12-23 15:29:20.948637,-78
2021-12-23 15:29:20.948647,-90
2021-12-23 15:29:21.173409,-21
2021-12-23 15:29:21.173438,-26
2021-12-23 15:29:21.173451,-21
2021-12-23 15:29:21.173461,-35
2021-12-23 15:29:21.173471,-74
2021-12-23 15:29:21.173481,-43
2021-12-23 15:29:21.173491,-2
2021-12-23 15:29:21.173500,-14
2021-12-23 15:29:21.173510,-4
2021-12-23 15:29:21.173520,50
2021-12-23 15:29:21.173529,76
2021-12-23 15:29:21.173539,81
2021-12-23 15:29:21.173549,117
2021-12-23 15:29:21.173559,172
2021-12-23 15:29:21.173568,189
2021-12-23 15:29:21.173578,177
2021-12-23 15:29:21.173588,179
2021-12-23 15:29:21.173598,186
2021-12-23 15:29:21.173608,198
2021-12-23 15:29:21.173617,229
2021-12-23 15:29:21.173627,236
2021-12-23 15:29:21.173637,193
2021-12-23 15:29:21.173646,126
2021-12-23 15:29:21.173656,50
2021-12-23 15:29:21.173666,-35
2021-12-23 15:29:21.173675,-110
2021-12-23 15:29:21.173685,-165
2021-12-23 15:29:21.173695,-217
2021-12-23 15:29:21.173705,-232
2021-12-23 15:29:21.173720,-191
2021-12-23 15:29:21.487766,-172
2021-12-23 15:29:21.487796,-191
2021-12-23 15:29:21.487808,-198
2021-12-23 15:29:21.487818,-191
2021-12-23 15:29:21.487827,-162
2021-12-23 15:29:21.487837,-138
2021-12-23 15:29:21.487847,-172
2021-12-23 15:29:21.487856,-203
2021-12-23 15:29:21.487866,-189
2021-12-23 15:29:21.487876,-172
2021-12-23 15:29:21.487886,-162
2021-12-23 15:29:21.487895,-150
2021-12-23 15:29:21.487905,-141
2021-12-23 15:29:21.487915,-105
2021-12-23 15:29:21.487924,-86
2021-12-23 15:29:21.487934,-122
2021-12-23 15:29:21.487944,-145
2021-12-23 15:29:21.487953,-112
2021-12-23 15:29:21.487963,-57
2021-12-23 15:29:21.487973,-43
2021-12-23 15:29:21.487982,-78
2021-12-23 15:29:21.487992,-112
2021-12-23 15:29:21.488002,-100
2021-12-23 15:29:21.488011,-57
2021-12-23 15:29:21.488021,-14
2021-12-23 15:29:21.488031,-2
2021-12-23 15:29:21.488040,-11
2021-12-23 15:29:21.488050,4
2021-12-23 15:29:21.488060,19
2021-12-23 15:29:21.488069,-16
2021-12-23 15:29:21.623399,-23
2021-12-23 15:29:21.623428,16
2021-12-23 15:29:21.623440,11
2021-12-23 15:29:21.623451,-19
2021-12-23 15:29:21.623461,4
2021-12-23 15:29:21.623471,31
2021-12-23 15:29:21.623480,16
2021-12-23 15:29:21.623490,38
2021-12-23 15:29:21.623500,35
2021-12-23 15:29:21.623510,-40
2021-12-23 15:29:21.623520,-52
2021-12-23 15:29:21.623529,26
2021-12-23 15:29:21.623539,38
2021-12-23 15:29:21.623549,-21
2021-12-23 15:29:21.623559,-31
2021-12-23 15:29:21.623569,16
2021-12-23 15:29:21.623579,55
2021-12-23 15:29:21.623589,62
2021-12-23 15:29:21.623598,28
2021-12-23 15:29:21.623608,-74
2021-12-23 15:29:21.623618,-124
2021-12-23 15:29:21.623628,81
2021-12-23 15:29:21.623637,437
2021-12-23 15:29:21.623647,636
2021-12-23 15:29:21.623657,586
2021-12-23 15:29:21.623666,155
2021-12-23 15:29:21.623676,-315
2021-12-23 15:29:21.623685,-174
2021-12-23 15:29:21.623695,45
2021-12-23 15:29:21.623705,-107
2021-12-23 15:29:21.892016,-117
2021-12-23 15:29:21.892045,0
2021-12-23 15:29:21.892057,-78
2021-12-23 15:29:21.892067,-138
2021-12-23 15:29:21.892076,-31
2021-12-23 15:29:21.892086,31
2021-12-23 15:29:21.892096,11
2021-12-23 15:29:21.892106,11
2021-12-23 15:29:21.892115,43
2021-12-23 15:29:21.892125,102
2021-12-23 15:29:21.892135,155
2021-12-23 15:29:21.892145,153
2021-12-23 15:29:21.892154,153
2021-12-23 15:29:21.892164,203
2021-12-23 15:29:21.892174,253
2021-12-23 15:29:21.892183,246
2021-12-23 15:29:21.892193,227
2021-12-23 15:29:21.892203,270
2021-12-23 15:29:21.892212,332
2021-12-23 15:29:21.892222,337
2021-12-23 15:29:21.892232,337
2021-12-23 15:29:21.892241,394
2021-12-23 15:29:21.892251,382
2021-12-23 15:29:21.892260,193
2021-12-23 15:29:21.892270,57
2021-12-23 15:29:21.892280,78
2021-12-23 15:29:21.892289,23
2021-12-23 15:29:21.892299,-95
2021-12-23 15:29:21.892309,-71
2021-12-23 15:29:21.892318,-16
2021-12-23 15:29:22.073454,-43
2021-12-23 15:29:22.073475,-57
2021-12-23 15:29:22.073482,-38
2021-12-23 15:29:22.073489,-50
2021-12-23 15:29:22.073495,-76
2021-12-23 15:29:22.073501,-76
2021-12-23 15:29:22.073507,-98
2021-12-23 15:29:22.073514,-153
2021-12-23 15:29:22.073520,-167
2021-12-23 15:29:22.073526,-143
2021-12-23 15:29:22.073532,-122
2021-12-23 15:29:22.073539,-138
2021-12-23 15:29:22.073545,-208
2021-12-23 15:29:22.073551,-220
2021-12-23 15:29:22.073557,-143
2021-12-23 15:29:22.073564,-102
2021-12-23 15:29:22.073570,-112
2021-12-23 15:29:22.073576,-107
2021-12-23 15:29:22.073582,-66
2021-12-23 15:29:22.073588,-62
2021-12-23 15:29:22.073595,-165
2021-12-23 15:29:22.073601,-220
2021-12-23 15:29:22.073607,-114
2021-12-23 15:29:22.073613,-43
2021-12-23 15:29:22.073619,-83
2021-12-23 15:29:22.073626,-86
2021-12-23 15:29:22.073632,-40
2021-12-23 15:29:22.073638,-47
2021-12-23 15:29:22.073644,-107
2021-12-23 15:29:22.073651,-153
2021-12-23 15:29:22.298370,-141
2021-12-23 15:29:22.298400,-95
2021-12-23 15:29:22.298411,-78
2021-12-23 15:29:22.298421,-86
2021-12-23 15:29:22.298431,-88
2021-12-23 15:29:22.298440,-110
2021-12-23 15:29:22.298450,-126
2021-12-23 15:29:22.298460,-86
2021-12-23 15:29:22.298469,-66
2021-12-23 15:29:22.298479,-136
2021-12-23 15:29:22.298488,-160
2021-12-23 15:29:22.298498,-90
2021-12-23 15:29:22.298508,-66
2021-12-23 15:29:22.298517,-95
2021-12-23 15:29:22.298527,-107
2021-12-23 15:29:22.298536,-98
2021-12-23 15:29:22.298546,-64
2021-12-23 15:29:22.298555,-45
2021-12-23 15:29:22.298565,-26
2021-12-23 15:29:22.298574,-16
2021-12-23 15:29:22.298584,-66
2021-12-23 15:29:22.298593,-90
2021-12-23 15:29:22.298603,-28
2021-12-23 15:29:22.298612,-38
2021-12-23 15:29:22.298622,-133
2021-12-23 15:29:22.298632,-114
2021-12-23 15:29:22.298641,-21
2021-12-23 15:29:22.298651,-9
2021-12-23 15:29:22.298660,-7
2021-12-23 15:29:22.298670,0
2021-12-23 15:29:22.568238,-66
2021-12-23 15:29:22.568267,-71
2021-12-23 15:29:22.568279,212
2021-12-23 15:29:22.568289,638
2021-12-23 15:29:22.568298,827
2021-12-23 15:29:22.568308,610
2021-12-23 15:29:22.568318,74
2021-12-23 15:29:22.568327,-198
2021-12-23 15:29:22.568337,64
2021-12-23 15:29:22.568347,160
2021-12-23 15:29:22.568357,-19
2021-12-23 15:29:22.568366,-28
2021-12-23 15:29:22.568376,14
2021-12-23 15:29:22.568386,-23
2021-12-23 15:29:22.568395,-23
2021-12-23 15:29:22.568405,16
2021-12-23 15:29:22.568415,2
2021-12-23 15:29:22.568424,-40
2021-12-23 15:29:22.568434,21
2021-12-23 15:29:22.568444,117
2021-12-23 15:29:22.568453,102
2021-12-23 15:29:22.568463,64
2021-12-23 15:29:22.568472,95
2021-12-23 15:29:22.568482,133
2021-12-23 15:29:22.568491,153
2021-12-23 15:29:22.568501,210
2021-12-23 15:29:22.568510,239
2021-12-23 15:29:22.568520,200
2021-12-23 15:29:22.568529,241
2021-12-23 15:29:22.568539,330
2021-12-23 15:29:22.748322,296
2021-12-23 15:29:22.748352,234
2021-12-23 15:29:22.748363,253
2021-12-23 15:29:22.748373,253
2021-12-23 15:29:22.748383,169
2021-12-23 15:29:22.748393,33
2021-12-23 15:29:22.748402,-71
2021-12-23 15:29:22.748412,-107
2021-12-23 15:29:22.748422,-129
2021-12-23 15:29:22.748431,-177
2021-12-23 15:29:22.748441,-203
2021-12-23 15:29:22.748451,-179
2021-12-23 15:29:22.748460,-157
2021-12-23 15:29:22.748470,-162
2021-12-23 15:29:22.748480,-138
2021-12-23 15:29:22.748489,-102
2021-12-23 15:29:22.748499,-112
2021-12-23 15:29:22.748509,-114
2021-12-23 15:29:22.748518,-83
2021-12-23 15:29:22.748528,-105
2021-12-23 15:29:22.748537,-143
2021-12-23 15:29:22.748547,-136
2021-12-23 15:29:22.748557,-150
2021-12-23 15:29:22.748566,-169
2021-12-23 15:29:22.748576,-179
2021-12-23 15:29:22.748586,-224
2021-12-23 15:29:22.748595,-215
2021-12-23 15:29:22.748605,-155
2021-12-23 15:29:22.748621,-141
2021-12-23 15:29:22.748631,-136
2021-12-23 15:29:23.108378,-141
2021-12-23 15:29:23.108414,-136
2021-12-23 15:29:23.108425,-105
2021-12-23 15:29:23.108435,-124
2021-12-23 15:29:23.108445,-131
2021-12-23 15:29:23.108454,-55
2021-12-23 15:29:23.108464,4
2021-12-23 15:29:23.108474,-21
2021-12-23 15:29:23.108483,-64
2021-12-23 15:29:23.108493,-57
2021-12-23 15:29:23.108502,-43
2021-12-23 15:29:23.108512,-59
2021-12-23 15:29:23.108521,-64
2021-12-23 15:29:23.108531,-4
2021-12-23 15:29:23.108541,47
2021-12-23 15:29:23.108550,9
2021-12-23 15:29:23.108560,-23
2021-12-23 15:29:23.108570,28
2021-12-23 15:29:23.108579,88
2021-12-23 15:29:23.108589,64
2021-12-23 15:29:23.108598,14
2021-12-23 15:29:23.108608,43
2021-12-23 15:29:23.108617,117
2021-12-23 15:29:23.108627,102
2021-12-23 15:29:23.108637,33
2021-12-23 15:29:23.108646,55
2021-12-23 15:29:23.108656,112
2021-12-23 15:29:23.108666,78
2021-12-23 15:29:23.108675,26
2021-12-23 15:29:23.108685,57
2021-12-23 15:29:23.243383,122
2021-12-23 15:29:23.243412,112
2021-12-23 15:29:23.243425,43
2021-12-23 15:29:23.243435,33
2021-12-23 15:29:23.243444,93
2021-12-23 15:29:23.243454,112
2021-12-23 15:29:23.243463,98
2021-12-23 15:29:23.243473,98
2021-12-23 15:29:23.243482,66
2021-12-23 15:29:23.243492,95
2021-12-23 15:29:23.243501,361
2021-12-23 15:29:23.243511,701
2021-12-23 15:29:23.243521,794
2021-12-23 15:29:23.243530,411
2021-12-23 15:29:23.243540,-186
2021-12-23 15:29:23.243550,-239
2021-12-23 15:29:23.243559,95
2021-12-23 15:29:23.243569,88
2021-12-23 15:29:23.243578,-4
2021-12-23 15:29:23.243588,90
2021-12-23 15:29:23.243598,71
2021-12-23 15:29:23.243607,-31
2021-12-23 15:29:23.243617,21
2021-12-23 15:29:23.243626,93
2021-12-23 15:29:23.243636,52
2021-12-23 15:29:23.243645,50
2021-12-23 15:29:23.243655,81
2021-12-23 15:29:23.243665,78
2021-12-23 15:29:23.243674,74
2021-12-23 15:29:23.243684,81
2021-12-23 15:29:23.468418,112
2021-12-23 15:29:23.468447,165
2021-12-23 15:29:23.468459,189
2021-12-23 15:29:23.468469,198
2021-12-23 15:29:23.468479,241
2021-12-23 15:29:23.468488,282
2021-12-23 15:29:23.468498,308
2021-12-23 15:29:23.468508,337
2021-12-23 15:29:23.468517,320
2021-12-23 15:29:23.468527,275
2021-12-23 15:29:23.468537,258
2021-12-23 15:29:23.468547,234
2021-12-23 15:29:23.468556,143
2021-12-23 15:29:23.468566,16
2021-12-23 15:29:23.468576,-81
2021-12-23 15:29:23.468586,-122
2021-12-23 15:29:23.468595,-148
2021-12-23 15:29:23.468605,-179
2021-12-23 15:29:23.468615,-181
2021-12-23 15:29:23.468624,-177
2021-12-23 15:29:23.468634,-205
2021-12-23 15:29:23.468644,-196
2021-12-23 15:29:23.468654,-153
2021-12-23 15:29:23.468663,-169
2021-12-23 15:29:23.468673,-189
2021-12-23 15:29:23.468683,-160
2021-12-23 15:29:23.468692,-165
2021-12-23 15:29:23.468702,-200
2021-12-23 15:29:23.468712,-203
2021-12-23 15:29:23.468722,-193
2021-12-23 15:29:23.693172,-224
2021-12-23 15:29:23.693193,-248
2021-12-23 15:29:23.693200,-208
2021-12-23 15:29:23.693207,-172
2021-12-23 15:29:23.693213,-184
2021-12-23 15:29:23.693220,-189
2021-12-23 15:29:23.693226,-212
2021-12-23 15:29:23.693232,-253
2021-12-23 15:29:23.693238,-239
2021-12-23 15:29:23.693245,-208
2021-12-23 15:29:23.693251,-212
2021-12-23 15:29:23.693258,-227
2021-12-23 15:29:23.693264,-193
2021-12-23 15:29:23.693270,-157
2021-12-23 15:29:23.693276,-215
2021-12-23 15:29:23.693283,-267
2021-12-23 15:29:23.693289,-205
2021-12-23 15:29:23.693295,-107
2021-12-23 15:29:23.693301,-66
2021-12-23 15:29:23.693308,-74
2021-12-23 15:29:23.693314,-83
2021-12-23 15:29:23.693320,-55
2021-12-23 15:29:23.693327,-35
2021-12-23 15:29:23.693333,-81
2021-12-23 15:29:23.693339,-98
2021-12-23 15:29:23.693345,-52
2021-12-23 15:29:23.693352,-62
2021-12-23 15:29:23.693358,-119
2021-12-23 15:29:23.693364,-100
2021-12-23 15:29:23.693370,-26
2021-12-23 15:29:23.961965,0
2021-12-23 15:29:23.961995,-21
2021-12-23 15:29:23.962006,-40
2021-12-23 15:29:23.962016,-76
2021-12-23 15:29:23.962026,-23
2021-12-23 15:29:23.962036,327
2021-12-23 15:29:23.962046,667
2021-12-23 15:29:23.962055,598
2021-12-23 15:29:23.962065,220
2021-12-23 15:29:23.962075,-198
2021-12-23 15:29:23.962084,-196
2021-12-23 15:29:23.962094,95
2021-12-23 15:29:23.962104,69
2021-12-23 15:29:23.962113,-57
2021-12-23 15:29:23.962123,21
2021-12-23 15:29:23.962133,71
2021-12-23 15:29:23.962142,52
2021-12-23 15:29:23.962152,52
2021-12-23 15:29:23.962162,45
2021-12-23 15:29:23.962171,71
2021-12-23 15:29:23.962181,122
2021-12-23 15:29:23.962190,117
2021-12-23 15:29:23.962200,110
2021-12-23 15:29:23.962210,133
2021-12-23 15:29:23.962219,153
2021-12-23 15:29:23.962229,184
2021-12-23 15:29:23.962238,212
2021-12-23 15:29:23.962248,239
2021-12-23 15:29:23.962258,287
2021-12-23 15:29:23.962268,337
2021-12-23 15:29:24.187755,385
2021-12-23 15:29:24.187777,406
2021-12-23 15:29:24.187785,382
2021-12-23 15:29:24.187792,346
2021-12-23 15:29:24.187798,325
2021-12-23 15:29:24.187805,270
2021-12-23 15:29:24.187811,184
2021-12-23 15:29:24.187818,114
2021-12-23 15:29:24.187824,40
2021-12-23 15:29:24.187831,-62
2021-12-23 15:29:24.187837,-129
2021-12-23 15:29:24.187843,-150
2021-12-23 15:29:24.187850,-186
2021-12-23 15:29:24.187856,-196
2021-12-23 15:29:24.187863,-167
2021-12-23 15:29:24.187869,-160
2021-12-23 15:29:24.187876,-153
2021-12-23 15:29:24.187882,-143
2021-12-23 15:29:24.187888,-155
2021-12-23 15:29:24.187895,-141
2021-12-23 15:29:24.187901,-119
2021-12-23 15:29:24.187907,-138
2021-12-23 15:29:24.187914,-157
2021-12-23 15:29:24.187920,-153
2021-12-23 15:29:24.187926,-138
2021-12-23 15:29:24.187933,-131
2021-12-23 15:29:24.187939,-160
2021-12-23 15:29:24.187946,-193
2021-12-23 15:29:24.187952,-184
2021-12-23 15:29:24.187959,-155
2021-12-23 15:29:24.368322,-131
2021-12-23 15:29:24.368352,-124
2021-12-23 15:29:24.368364,-110
2021-12-23 15:29:24.368374,-110
2021-12-23 15:29:24.368383,-122
2021-12-23 15:29:24.368393,-105
2021-12-23 15:29:24.368403,-112
2021-12-23 15:29:24.368412,-141
2021-12-23 15:29:24.368422,-110
2021-12-23 15:29:24.368432,-90
2021-12-23 15:29:24.368441,-162
2021-12-23 15:29:24.368451,-198
2021-12-23 15:29:24.368461,-129
2021-12-23 15:29:24.368470,-76
2021-12-23 15:29:24.368480,-90
2021-12-23 15:29:24.368490,-105
2021-12-23 15:29:24.368499,-93
2021-12-23 15:29:24.368509,-47
2021-12-23 15:29:24.368519,4
2021-12-23 15:29:24.368529,2
2021-12-23 15:29:24.368539,0
2021-12-23 15:29:24.368549,7
2021-12-23 15:29:24.368558,-19
2021-12-23 15:29:24.368568,-7
2021-12-23 15:29:24.368578,11
2021-12-23 15:29:24.368588,-21
2021-12-23 15:29:24.368597,-7
2021-12-23 15:29:24.368607,62
2021-12-23 15:29:24.368617,62
2021-12-23 15:29:24.368627,19
2021-12-23 15:29:24.638434,28
2021-12-23 15:29:24.638464,71
2021-12-23 15:29:24.638476,71
2021-12-23 15:29:24.638486,14
2021-12-23 15:29:24.638496,-23
2021-12-23 15:29:24.638505,136
2021-12-23 15:29:24.638515,485
2021-12-23 15:29:24.638525,758
2021-12-23 15:29:24.638534,784
2021-12-23 15:29:24.638544,330
2021-12-23 15:29:24.638554,-270
2021-12-23 15:29:24.638563,-186
2021-12-23 15:29:24.638573,112
2021-12-23 15:29:24.638583,-16
2021-12-23 15:29:24.638592,-95
2021-12-23 15:29:24.638602,7
2021-12-23 15:29:24.638611,2
2021-12-23 15:29:24.638621,-31
2021-12-23 15:29:24.638630,11
2021-12-23 15:29:24.638640,59
2021-12-23 15:29:24.638649,69
2021-12-23 15:29:24.638659,47
2021-12-23 15:29:24.638668,43
2021-12-23 15:29:24.638689,83
2021-12-23 15:29:24.638699,122
2021-12-23 15:29:24.638709,114
2021-12-23 15:29:24.638718,117
2021-12-23 15:29:24.638728,143
2021-12-23 15:29:24.638737,160
2021-12-23 15:29:24.638747,193
2021-12-23 15:29:24.863384,263
2021-12-23 15:29:24.863413,299
2021-12-23 15:29:24.863424,287
2021-12-23 15:29:24.863434,272
2021-12-23 15:29:24.863444,275
2021-12-23 15:29:24.863454,275
2021-12-23 15:29:24.863463,229
2021-12-23 15:29:24.863473,153
2021-12-23 15:29:24.863483,78
2021-12-23 15:29:24.863492,-19
2021-12-23 15:29:24.863502,-107
2021-12-23 15:29:24.863512,-131
2021-12-23 15:29:24.863522,-155
2021-12-23 15:29:24.863531,-191
2021-12-23 15:29:24.863541,-181
2021-12-23 15:29:24.863550,-167
2021-12-23 15:29:24.863560,-186
2021-12-23 15:29:24.863570,-181
2021-12-23 15:29:24.863580,-148
2021-12-23 15:29:24.863590,-117
2021-12-23 15:29:24.863599,-102
2021-12-23 15:29:24.863609,-119
2021-12-23 15:29:24.863618,-122
2021-12-23 15:29:24.863628,-112
2021-12-23 15:29:24.863637,-107
2021-12-23 15:29:24.863647,-86
2021-12-23 15:29:24.863656,-98
2021-12-23 15:29:24.863666,-148
2021-12-23 15:29:24.863675,-153
2021-12-23 15:29:24.863685,-141
2021-12-23 15:29:25.133326,-124
2021-12-23 15:29:25.133347,-78
2021-12-23 15:29:25.133355,-74
2021-12-23 15:29:25.133361,-78
2021-12-23 15:29:25.133368,-59
2021-12-23 15:29:25.133374,-78
2021-12-23 15:29:25.133381,-83
2021-12-23 15:29:25.133387,-14
2021-12-23 15:29:25.133393,-14
2021-12-23 15:29:25.133399,-102
2021-12-23 15:29:25.133405,-102
2021-12-23 15:29:25.133412,-40
2021-12-23 15:29:25.133418,-50
2021-12-23 15:29:25.133424,-88
2021-12-23 15:29:25.133431,-95
2021-12-23 15:29:25.133437,-102
2021-12-23 15:29:25.133443,-88
2021-12-23 15:29:25.133449,-50
2021-12-23 15:29:25.133456,-35
2021-12-23 15:29:25.133462,-45
2021-12-23 15:29:25.133468,-62
2021-12-23 15:29:25.133474,-66
2021-12-23 15:29:25.133480,-33
2021-12-23 15:29:25.133487,-9
2021-12-23 15:29:25.133493,-19
2021-12-23 15:29:25.133499,-14
2021-12-23 15:29:25.133505,-4
2021-12-23 15:29:25.133511,-14
2021-12-23 15:29:25.133518,-35
2021-12-23 15:29:25.133524,-23
2021-12-23 15:29:25.313361,9
2021-12-23 15:29:25.313391,-28
2021-12-23 15:29:25.313403,-100
2021-12-23 15:29:25.313413,-90
2021-12-23 15:29:25.313423,-33
2021-12-23 15:29:25.313432,-9
2021-12-23 15:29:25.313442,-4
2021-12-23 15:29:25.313452,0
2021-12-23 15:29:25.313462,-38
2021-12-23 15:29:25.313471,-76
2021-12-23 15:29:25.313481,-38
2021-12-23 15:29:25.313491,-19
2021-12-23 15:29:25.313501,-43
2021-12-23 15:29:25.313511,-16
2021-12-23 15:29:25.313520,9
2021-12-23 15:29:25.313530,-40
2021-12-23 15:29:25.313540,-69
2021-12-23 15:29:25.313550,-33
2021-12-23 15:29:25.313560,0
2021-12-23 15:29:25.313569,-28
2021-12-23 15:29:25.313579,-107
2021-12-23 15:29:25.313589,-102
2021-12-23 15:29:25.313598,157
2021-12-23 15:29:25.313608,574
2021-12-23 15:29:25.313618,823
2021-12-23 15:29:25.313627,645
2021-12-23 15:29:25.313637,50
2021-12-23 15:29:25.313647,-289
2021-12-23 15:29:25.313657,-7
2021-12-23 15:29:25.313667,124
2021-12-23 15:29:25.628143,-71
2021-12-23 15:29:25.628164,-71
2021-12-23 15:29:25.628171,23
2021-12-23 15:29:25.628178,4
2021-12-23 15:29:25.628184,-16
2021-12-23 15:29:25.628191,-2
2021-12-23 15:29:25.628197,16
2021-12-23 15:29:25.628203,11
2021-12-23 15:29:25.628210,-23
2021-12-23 15:29:25.628217,-9
2021-12-23 15:29:25.628223,55
2021-12-23 15:29:25.628229,93
2021-12-23 15:29:25.628236,112
2021-12-23 15:29:25.628242,105
2021-12-23 15:29:25.628248,102
2021-12-23 15:29:25.628255,145
2021-12-23 15:29:25.628261,167
2021-12-23 15:29:25.628267,177
2021-12-23 15:29:25.628274,229
2021-12-23 15:29:25.628280,282
2021-12-23 15:29:25.628287,265
2021-12-23 15:29:25.628293,208
2021-12-23 15:29:25.628299,200
2021-12-23 15:29:25.628305,208
2021-12-23 15:29:25.628312,138
2021-12-23 15:29:25.628318,35
2021-12-23 15:29:25.628325,-57
2021-12-23 15:29:25.628331,-133
2021-12-23 15:29:25.628337,-165
2021-12-23 15:29:25.628344,-189
2021-12-23 15:29:25.808380,-241
2021-12-23 15:29:25.808410,-251
2021-12-23 15:29:25.808421,-212
2021-12-23 15:29:25.808431,-224
2021-12-23 15:29:25.808441,-272
2021-12-23 15:29:25.808450,-248
2021-12-23 15:29:25.808460,-210
2021-12-23 15:29:25.808469,-251
2021-12-23 15:29:25.808478,-282
2021-12-23 15:29:25.808488,-241
2021-12-23 15:29:25.808498,-198
2021-12-23 15:29:25.808507,-169
2021-12-23 15:29:25.808517,-177
2021-12-23 15:29:25.808526,-227
2021-12-23 15:29:25.808535,-200
2021-12-23 15:29:25.808545,-122
2021-12-23 15:29:25.808554,-117
2021-12-23 15:29:25.808564,-114
2021-12-23 15:29:25.808573,-83
2021-12-23 15:29:25.808582,-88
2021-12-23 15:29:25.808592,-90
2021-12-23 15:29:25.808601,-64
2021-12-23 15:29:25.808611,-35
2021-12-23 15:29:25.808620,-26
2021-12-23 15:29:25.808629,-47
2021-12-23 15:29:25.808639,-59
2021-12-23 15:29:25.808648,-14
2021-12-23 15:29:25.808658,11
2021-12-23 15:29:25.808667,-9
2021-12-23 15:29:25.808677,-4
2021-12-23 15:29:26.031464,4
2021-12-23 15:29:26.031483,-7
2021-12-23 15:29:26.031491,-21
2021-12-23 15:29:26.031498,-38
2021-12-23 15:29:26.031504,-45
2021-12-23 15:29:26.031510,-35
2021-12-23 15:29:26.031516,-38
2021-12-23 15:29:26.031523,-28
2021-12-23 15:29:26.031529,-4
2021-12-23 15:29:26.031536,2
2021-12-23 15:29:26.031542,2
2021-12-23 15:29:26.031548,-4
2021-12-23 15:29:26.031555,-23
2021-12-23 15:29:26.031561,-19
2021-12-23 15:29:26.031567,-2
2021-12-23 15:29:26.031574,7
2021-12-23 15:29:26.031580,26
2021-12-23 15:29:26.031586,31
2021-12-23 15:29:26.031592,31
2021-12-23 15:29:26.031599,69
2021-12-23 15:29:26.031605,83
2021-12-23 15:29:26.031611,59
2021-12-23 15:29:26.031617,71
2021-12-23 15:29:26.031624,105
2021-12-23 15:29:26.031630,95
2021-12-23 15:29:26.031636,86
2021-12-23 15:29:26.031643,107
2021-12-23 15:29:26.031649,117
2021-12-23 15:29:26.031655,107
2021-12-23 15:29:26.031662,98
2021-12-23 15:29:26.257788,76
2021-12-23 15:29:26.257817,50
2021-12-23 15:29:26.257829,40
2021-12-23 15:29:26.257839,23
2021-12-23 15:29:26.257848,-35
2021-12-23 15:29:26.257858,-55
2021-12-23 15:29:26.257868,198
2021-12-23 15:29:26.257878,643
2021-12-23 15:29:26.257887,846
2021-12-23 15:29:26.257897,638
2021-12-23 15:29:26.257907,93
2021-12-23 15:29:26.257916,-270
2021-12-23 15:29:26.257926,-86
2021-12-23 15:29:26.257936,19
2021-12-23 15:29:26.257946,-129
2021-12-23 15:29:26.257955,-119
2021-12-23 15:29:26.257965,-50
2021-12-23 15:29:26.257975,-62
2021-12-23 15:29:26.257984,-45
2021-12-23 15:29:26.257994,7
2021-12-23 15:29:26.258004,26
2021-12-23 15:29:26.258013,14
2021-12-23 15:29:26.258023,-2
2021-12-23 15:29:26.258033,-9
2021-12-23 15:29:26.258043,0
2021-12-23 15:29:26.258053,14
2021-12-23 15:29:26.258062,23
2021-12-23 15:29:26.258072,40
2021-12-23 15:29:26.258082,59
2021-12-23 15:29:26.258091,76
2021-12-23 15:29:26.438266,107
2021-12-23 15:29:26.438287,153
2021-12-23 15:29:26.438294,186
2021-12-23 15:29:26.438301,200
2021-12-23 15:29:26.438307,203
2021-12-23 15:29:26.438313,208
2021-12-23 15:29:26.438320,220
2021-12-23 15:29:26.438326,208
2021-12-23 15:29:26.438332,148
2021-12-23 15:29:26.438338,62
2021-12-23 15:29:26.438345,-35
2021-12-23 15:29:26.438351,-112
2021-12-23 15:29:26.438357,-138
2021-12-23 15:29:26.438363,-138
2021-12-23 15:29:26.438369,-145
2021-12-23 15:29:26.438376,-169
2021-12-23 15:29:26.438382,-177
2021-12-23 15:29:26.438388,-148
2021-12-23 15:29:26.438394,-119
2021-12-23 15:29:26.438400,-110
2021-12-23 15:29:26.438407,-105
2021-12-23 15:29:26.438413,-98
2021-12-23 15:29:26.438419,-93
2021-12-23 15:29:26.438425,-95
2021-12-23 15:29:26.438432,-112
2021-12-23 15:29:26.438438,-117
2021-12-23 15:29:26.438444,-93
2021-12-23 15:29:26.438450,-88
2021-12-23 15:29:26.438456,-105
2021-12-23 15:29:26.438462,-81
2021-12-23 15:29:26.797136,-26
2021-12-23 15:29:26.797156,-7
2021-12-23 15:29:26.797163,-26
2021-12-23 15:29:26.797170,-55
2021-12-23 15:29:26.797176,-78
2021-12-23 15:29:26.797182,-83
2021-12-23 15:29:26.797189,-88
2021-12-23 15:29:26.797195,-102
2021-12-23 15:29:26.797201,-114
2021-12-23 15:29:26.797207,-131
2021-12-23 15:29:26.797214,-150
2021-12-23 15:29:26.797220,-141
2021-12-23 15:29:26.797226,-119
2021-12-23 15:29:26.797233,-117
2021-12-23 15:29:26.797239,-117
2021-12-23 15:29:26.797245,-117
2021-12-23 15:29:26.797251,-107
2021-12-23 15:29:26.797265,-100
2021-12-23 15:29:26.797271,-112
2021-12-23 15:29:26.797278,-114
2021-12-23 15:29:26.797285,-98
2021-12-23 15:29:26.797291,-98
2021-12-23 15:29:26.797323,-102
2021-12-23 15:29:26.797356,-93
2021-12-23 15:29:26.797364,-81
2021-12-23 15:29:26.797370,-74
2021-12-23 15:29:26.797377,-95
2021-12-23 15:29:26.797385,-129
2021-12-23 15:29:26.797396,-117
2021-12-23 15:29:26.797405,-66
2021-12-23 15:29:26.933309,-33
2021-12-23 15:29:26.933339,-19
2021-12-23 15:29:26.933350,-9
2021-12-23 15:29:26.933360,-21
2021-12-23 15:29:26.933370,-31
2021-12-23 15:29:26.933379,-14
2021-12-23 15:29:26.933389,-4
2021-12-23 15:29:26.933399,-4
2021-12-23 15:29:26.933408,-14
2021-12-23 15:29:26.933418,-33
2021-12-23 15:29:26.933428,-38
2021-12-23 15:29:26.933437,-33
2021-12-23 15:29:26.933447,-40
2021-12-23 15:29:26.933456,-38
2021-12-23 15:29:26.933466,-55
2021-12-23 15:29:26.933475,-117
2021-12-23 15:29:26.933485,-148
2021-12-23 15:29:26.933495,38
2021-12-23 15:29:26.933504,433
2021-12-23 15:29:26.933514,681
2021-12-23 15:29:26.933524,550
2021-12-23 15:29:26.933533,62
2021-12-23 15:29:26.933543,-308
2021-12-23 15:29:26.933553,-95
2021-12-23 15:29:26.933562,117
2021-12-23 15:29:26.933572,-21
2021-12-23 15:29:26.933582,-57
2021-12-23 15:29:26.933591,14
2021-12-23 15:29:26.933601,-14
2021-12-23 15:29:26.933611,-43
2021-12-23 15:29:27.158443,0
2021-12-23 15:29:27.158476,31
2021-12-23 15:29:27.158488,11
2021-12-23 15:29:27.158498,-7
2021-12-23 15:29:27.158508,14
2021-12-23 15:29:27.158518,31
2021-12-23 15:29:27.158528,40
2021-12-23 15:29:27.158537,64
2021-12-23 15:29:27.158547,74
2021-12-23 15:29:27.158557,81
2021-12-23 15:29:27.158567,114
2021-12-23 15:29:27.158576,153
2021-12-23 15:29:27.158586,186
2021-12-23 15:29:27.158596,212
2021-12-23 15:29:27.158605,212
2021-12-23 15:29:27.158615,212
2021-12-23 15:29:27.158625,241
2021-12-23 15:29:27.158635,263
2021-12-23 15:29:27.158644,239
2021-12-23 15:29:27.158654,186
2021-12-23 15:29:27.158664,112
2021-12-23 15:29:27.158673,26
2021-12-23 15:29:27.158683,-43
2021-12-23 15:29:27.158693,-107
2021-12-23 15:29:27.158702,-174
2021-12-23 15:29:27.158712,-191
2021-12-23 15:29:27.158722,-179
2021-12-23 15:29:27.158731,-174
2021-12-23 15:29:27.158741,-157
2021-12-23 15:29:27.158751,-138
2021-12-23 15:29:27.428365,-150
2021-12-23 15:29:27.428394,-172
2021-12-23 15:29:27.428405,-165
2021-12-23 15:29:27.428415,-148
2021-12-23 15:29:27.428425,-138
2021-12-23 15:29:27.428435,-119
2021-12-23 15:29:27.428444,-102
2021-12-23 15:29:27.428454,-117
2021-12-23 15:29:27.428463,-138
2021-12-23 15:29:27.428473,-126
2021-12-23 15:29:27.428482,-90
2021-12-23 15:29:27.428492,-59
2021-12-23 15:29:27.428502,-57
2021-12-23 15:29:27.428512,-78
2021-12-23 15:29:27.428521,-88
2021-12-23 15:29:27.428531,-62
2021-12-23 15:29:27.428540,-33
2021-12-23 15:29:27.428550,-28
2021-12-23 15:29:27.428560,-28
2021-12-23 15:29:27.428569,-33
2021-12-23 15:29:27.428579,-38
2021-12-23 15:29:27.428589,-31
2021-12-23 15:29:27.428598,-9
2021-12-23 15:29:27.428608,9
2021-12-23 15:29:27.428618,0
2021-12-23 15:29:27.428627,-26
2021-12-23 15:29:27.428637,-16
2021-12-23 15:29:27.428647,9
2021-12-23 15:29:27.428656,9
2021-12-23 15:29:27.428666,-9
2021-12-23 15:29:27.607729,-9
2021-12-23 15:29:27.607747,14
2021-12-23 15:29:27.607753,2
2021-12-23 15:29:27.607759,-43
2021-12-23 15:29:27.607764,-50
2021-12-23 15:29:27.607769,-28
2021-12-23 15:29:27.607774,-26
2021-12-23 15:29:27.607779,-35
2021-12-23 15:29:27.607783,-33
2021-12-23 15:29:27.607788,-35
2021-12-23 15:29:27.607793,-26
2021-12-23 15:29:27.607798,16
2021-12-23 15:29:27.607803,26
2021-12-23 15:29:27.607809,-11
2021-12-23 15:29:27.607813,-16
2021-12-23 15:29:27.607818,-2
2021-12-23 15:29:27.607823,-11
2021-12-23 15:29:27.607828,-19
2021-12-23 15:29:27.607833,-38
2021-12-23 15:29:27.607838,-71
2021-12-23 15:29:27.607843,-66
2021-12-23 15:29:27.607848,-45
2021-12-23 15:29:27.607853,-43
2021-12-23 15:29:27.607858,-43
2021-12-23 15:29:27.607863,-47
2021-12-23 15:29:27.607868,-62
2021-12-23 15:29:27.607873,-105
2021-12-23 15:29:27.607878,-76
2021-12-23 15:29:27.607883,217
2021-12-23 15:29:27.607888,574
2021-12-23 15:29:27.833383,645
2021-12-23 15:29:27.833412,363
2021-12-23 15:29:27.833423,-153
2021-12-23 15:29:27.833433,-325
2021-12-23 15:29:27.833443,-52
2021-12-23 15:29:27.833452,-59
2021-12-23 15:29:27.833462,-248
2021-12-23 15:29:27.833471,-177
2021-12-23 15:29:27.833481,-95
2021-12-23 15:29:27.833490,-148
2021-12-23 15:29:27.833500,-162
2021-12-23 15:29:27.833509,-148
2021-12-23 15:29:27.833519,-160
2021-12-23 15:29:27.833528,-129
2021-12-23 15:29:27.833538,-83
2021-12-23 15:29:27.833547,-81
2021-12-23 15:29:27.833556,-59
2021-12-23 15:29:27.833566,-2
2021-12-23 15:29:27.833575,31
2021-12-23 15:29:27.833585,52
2021-12-23 15:29:27.833595,88
2021-12-23 15:29:27.833604,107
2021-12-23 15:29:27.833613,119
2021-12-23 15:29:27.833623,150
2021-12-23 15:29:27.833632,174
2021-12-23 15:29:27.833642,184
2021-12-23 15:29:27.833651,205
2021-12-23 15:29:27.833660,227
2021-12-23 15:29:27.833670,222
2021-12-23 15:29:27.833679,189
2021-12-23 15:29:28.147637,124
2021-12-23 15:29:28.147667,50
2021-12-23 15:29:28.147679,9
2021-12-23 15:29:28.147689,-31
2021-12-23 15:29:28.147699,-93
2021-12-23 15:29:28.147708,-148
2021-12-23 15:29:28.147718,-184
2021-12-23 15:29:28.147728,-193
2021-12-23 15:29:28.147737,-189
2021-12-23 15:29:28.147747,-193
2021-12-23 15:29:28.147756,-198
2021-12-23 15:29:28.147766,-196
2021-12-23 15:29:28.147775,-186
2021-12-23 15:29:28.147785,-169
2021-12-23 15:29:28.147795,-160
2021-12-23 15:29:28.147804,-160
2021-12-23 15:29:28.147814,-157
2021-12-23 15:29:28.147824,-153
2021-12-23 15:29:28.147833,-138
2021-12-23 15:29:28.147844,-102
2021-12-23 15:29:28.147853,-81
2021-12-23 15:29:28.147863,-95
2021-12-23 15:29:28.147873,-110
2021-12-23 15:29:28.147882,-93
2021-12-23 15:29:28.147892,-66
2021-12-23 15:29:28.147901,-59
2021-12-23 15:29:28.147911,-55
2021-12-23 15:29:28.147921,-28
2021-12-23 15:29:28.147930,-35
2021-12-23 15:29:28.147940,-57
2021-12-23 15:29:28.328169,-23
2021-12-23 15:29:28.328199,21
2021-12-23 15:29:28.328211,19
2021-12-23 15:29:28.328220,16
2021-12-23 15:29:28.328230,-7
2021-12-23 15:29:28.328240,-69
2021-12-23 15:29:28.328249,-71
2021-12-23 15:29:28.328259,-28
2021-12-23 15:29:28.328268,-23
2021-12-23 15:29:28.328278,-64
2021-12-23 15:29:28.328288,-98
2021-12-23 15:29:28.328298,-105
2021-12-23 15:29:28.328307,-95
2021-12-23 15:29:28.328317,-93
2021-12-23 15:29:28.328327,-105
2021-12-23 15:29:28.328336,-129
2021-12-23 15:29:28.328346,-153
2021-12-23 15:29:28.328356,-141
2021-12-23 15:29:28.328365,-98
2021-12-23 15:29:28.328375,-78
2021-12-23 15:29:28.328384,-76
2021-12-23 15:29:28.328394,-71
2021-12-23 15:29:28.328404,-81
2021-12-23 15:29:28.328413,-83
2021-12-23 15:29:28.328423,-69
2021-12-23 15:29:28.328433,-66
2021-12-23 15:29:28.328442,-64
2021-12-23 15:29:28.328452,-59
2021-12-23 15:29:28.328461,-59
2021-12-23 15:29:28.328471,-43
2021-12-23 15:29:28.508345,-14
2021-12-23 15:29:28.508374,9
2021-12-23 15:29:28.508386,14
2021-12-23 15:29:28.508396,-16
2021-12-23 15:29:28.508406,-95
2021-12-23 15:29:28.508416,-133
2021-12-23 15:29:28.508425,52
2021-12-23 15:29:28.508435,416
2021-12-23 15:29:28.508445,638
2021-12-23 15:29:28.508454,545
2021-12-23 15:29:28.508464,90
2021-12-23 15:29:28.508474,-308
2021-12-23 15:29:28.508484,-153
2021-12-23 15:29:28.508493,55
2021-12-23 15:29:28.508503,-50
2021-12-23 15:29:28.508512,-112
2021-12-23 15:29:28.508522,-74
2021-12-23 15:29:28.508532,-83
2021-12-23 15:29:28.508541,-86
2021-12-23 15:29:28.508551,-33
2021-12-23 15:29:28.508560,9
2021-12-23 15:29:28.508570,2
2021-12-23 15:29:28.508580,2
2021-12-23 15:29:28.508589,43
2021-12-23 15:29:28.508599,86
2021-12-23 15:29:28.508608,100
2021-12-23 15:29:28.508618,95
2021-12-23 15:29:28.508627,86
2021-12-23 15:29:28.508637,122
2021-12-23 15:29:28.508646,203
2021-12-23 15:29:28.867750,248
2021-12-23 15:29:28.867781,265
2021-12-23 15:29:28.867792,284
2021-12-23 15:29:28.867802,270
2021-12-23 15:29:28.867812,272
2021-12-23 15:29:28.867822,308
2021-12-23 15:29:28.867831,315
2021-12-23 15:29:28.867841,289
2021-12-23 15:29:28.867851,241
2021-12-23 15:29:28.867860,153
2021-12-23 15:29:28.867870,52
2021-12-23 15:29:28.867880,-33
2021-12-23 15:29:28.867890,-95
2021-12-23 15:29:28.867899,-126
2021-12-23 15:29:28.867909,-145
2021-12-23 15:29:28.867918,-160
2021-12-23 15:29:28.867928,-138
2021-12-23 15:29:28.867938,-119
2021-12-23 15:29:28.867947,-114
2021-12-23 15:29:28.867957,-98
2021-12-23 15:29:28.867966,-90
2021-12-23 15:29:28.867976,-100
2021-12-23 15:29:28.867985,-83
2021-12-23 15:29:28.867995,-59
2021-12-23 15:29:28.868005,-55
2021-12-23 15:29:28.868014,-43
2021-12-23 15:29:28.868024,-43
2021-12-23 15:29:28.868034,-52
2021-12-23 15:29:28.868043,-38
2021-12-23 15:29:28.868053,-16
2021-12-23 15:29:29.002687,-9
2021-12-23 15:29:29.002707,0
2021-12-23 15:29:29.002715,0
2021-12-23 15:29:29.002722,-19
2021-12-23 15:29:29.002729,-14
2021-12-23 15:29:29.002735,7
2021-12-23 15:29:29.002742,16
2021-12-23 15:29:29.002749,16
2021-12-23 15:29:29.002755,0
2021-12-23 15:29:29.002762,-11
2021-12-23 15:29:29.002768,2
2021-12-23 15:29:29.002774,16
2021-12-23 15:29:29.002781,31
2021-12-23 15:29:29.002787,47
2021-12-23 15:29:29.002804,31
2021-12-23 15:29:29.002811,-26
2021-12-23 15:29:29.002818,-52
2021-12-23 15:29:29.002824,-11
2021-12-23 15:29:29.002831,21
2021-12-23 15:29:29.002837,-2
2021-12-23 15:29:29.002844,-31
2021-12-23 15:29:29.002850,-23
2021-12-23 15:29:29.002856,-4
2021-12-23 15:29:29.002863,2
2021-12-23 15:29:29.002869,2
2021-12-23 15:29:29.002876,-2
2021-12-23 15:29:29.002882,-11
2021-12-23 15:29:29.002889,-4
2021-12-23 15:29:29.002895,16
2021-12-23 15:29:29.002901,31
2021-12-23 15:29:29.228389,43
2021-12-23 15:29:29.228410,43
2021-12-23 15:29:29.228417,21
2021-12-23 15:29:29.228424,2
2021-12-23 15:29:29.228431,0
2021-12-23 15:29:29.228437,9
2021-12-23 15:29:29.228444,2
2021-12-23 15:29:29.228450,-33
2021-12-23 15:29:29.228456,-78
2021-12-23 15:29:29.228463,-95
2021-12-23 15:29:29.228469,-78
2021-12-23 15:29:29.228475,-62
2021-12-23 15:29:29.228482,-69
2021-12-23 15:29:29.228488,-129
2021-12-23 15:29:29.228495,-160
2021-12-23 15:29:29.228501,52
2021-12-23 15:29:29.228507,387
2021-12-23 15:29:29.228514,480
2021-12-23 15:29:29.228520,277
2021-12-23 15:29:29.228526,-124
2021-12-23 15:29:29.228533,-344
2021-12-23 15:29:29.228539,-160
2021-12-23 15:29:29.228546,-55
2021-12-23 15:29:29.228552,-148
2021-12-23 15:29:29.228558,-124
2021-12-23 15:29:29.228564,-71
2021-12-23 15:29:29.228571,-100
2021-12-23 15:29:29.228577,-93
2021-12-23 15:29:29.228583,-43
2021-12-23 15:29:29.228590,-23
2021-12-23 15:29:29.453439,-14
2021-12-23 15:29:29.453469,2
2021-12-23 15:29:29.453481,16
2021-12-23 15:29:29.453491,28
2021-12-23 15:29:29.453501,55
2021-12-23 15:29:29.453511,90
2021-12-23 15:29:29.453520,110
2021-12-23 15:29:29.453530,107
2021-12-23 15:29:29.453540,126
2021-12-23 15:29:29.453549,167
2021-12-23 15:29:29.453559,203
2021-12-23 15:29:29.453569,234
2021-12-23 15:29:29.453579,246
2021-12-23 15:29:29.453588,239
2021-12-23 15:29:29.453598,251
2021-12-23 15:29:29.453607,270
2021-12-23 15:29:29.453617,256
2021-12-23 15:29:29.453627,229
2021-12-23 15:29:29.453637,172
2021-12-23 15:29:29.453646,76
2021-12-23 15:29:29.453656,-2
2021-12-23 15:29:29.453665,-33
2021-12-23 15:29:29.453675,-64
2021-12-23 15:29:29.453685,-107
2021-12-23 15:29:29.453694,-90
2021-12-23 15:29:29.453704,-74
2021-12-23 15:29:29.453714,-157
2021-12-23 15:29:29.453723,-177
2021-12-23 15:29:29.453733,-78
2021-12-23 15:29:29.453742,-50
2021-12-23 15:29:29.723544,-88
2021-12-23 15:29:29.723575,-78
2021-12-23 15:29:29.723587,-38
2021-12-23 15:29:29.723596,-26
2021-12-23 15:29:29.723606,-31
2021-12-23 15:29:29.723615,-35
2021-12-23 15:29:29.723625,-64
2021-12-23 15:29:29.723634,-76
2021-12-23 15:29:29.723643,-47
2021-12-23 15:29:29.723653,-28
2021-12-23 15:29:29.723662,-16
2021-12-23 15:29:29.723672,-23
2021-12-23 15:29:29.723681,-57
2021-12-23 15:29:29.723691,-62
2021-12-23 15:29:29.723700,-45
2021-12-23 15:29:29.723710,-40
2021-12-23 15:29:29.723719,-19
2021-12-23 15:29:29.723729,-14
2021-12-23 15:29:29.723738,-28
2021-12-23 15:29:29.723748,0
2021-12-23 15:29:29.723757,11
2021-12-23 15:29:29.723767,-33
2021-12-23 15:29:29.723777,-62
2021-12-23 15:29:29.723786,-47
2021-12-23 15:29:29.723795,-45
2021-12-23 15:29:29.723805,-38
2021-12-23 15:29:29.723814,-2
2021-12-23 15:29:29.723824,9
2021-12-23 15:29:29.723866,4
2021-12-23 15:29:29.723876,9
2021-12-23 15:29:29.903378,2
2021-12-23 15:29:29.903408,-28
2021-12-23 15:29:29.903420,-55
2021-12-23 15:29:29.903430,-45
2021-12-23 15:29:29.903440,-43
2021-12-23 15:29:29.903450,-71
2021-12-23 15:29:29.903459,-71
2021-12-23 15:29:29.903469,-43
2021-12-23 15:29:29.903479,-35
2021-12-23 15:29:29.903488,-38
2021-12-23 15:29:29.903498,-33
2021-12-23 15:29:29.903508,-33
2021-12-23 15:29:29.903517,-66
2021-12-23 15:29:29.903527,-76
2021-12-23 15:29:29.903536,136
2021-12-23 15:29:29.903546,497
2021-12-23 15:29:29.903556,583
2021-12-23 15:29:29.903565,289
2021-12-23 15:29:29.903575,-131
2021-12-23 15:29:29.903585,-258
2021-12-23 15:29:29.903594,-35
2021-12-23 15:29:29.903604,31
2021-12-23 15:29:29.903614,-83
2021-12-23 15:29:29.903623,-78
2021-12-23 15:29:29.903633,-50
2021-12-23 15:29:29.903643,-74
2021-12-23 15:29:29.903652,-69
2021-12-23 15:29:29.903662,-45
2021-12-23 15:29:29.903672,-55
2021-12-23 15:29:29.903681,-47
2021-12-23 15:29:30.216633,-2
2021-12-23 15:29:30.216655,35
2021-12-23 15:29:30.216662,40
2021-12-23 15:29:30.216669,43
2021-12-23 15:29:30.216676,45
2021-12-23 15:29:30.216682,47
2021-12-23 15:29:30.216688,90
2021-12-23 15:29:30.216695,138
2021-12-23 15:29:30.216701,157
2021-12-23 15:29:30.216708,165
2021-12-23 15:29:30.216714,174
2021-12-23 15:29:30.216720,184
2021-12-23 15:29:30.216727,208
2021-12-23 15:29:30.216733,227
2021-12-23 15:29:30.216739,222
2021-12-23 15:29:30.216746,189
2021-12-23 15:29:30.216752,122
2021-12-23 15:29:30.216759,47
2021-12-23 15:29:30.216765,4
2021-12-23 15:29:30.216772,-43
2021-12-23 15:29:30.216778,-93
2021-12-23 15:29:30.216785,-93
2021-12-23 15:29:30.216791,-95
2021-12-23 15:29:30.216797,-126
2021-12-23 15:29:30.216804,-122
2021-12-23 15:29:30.216810,-105
2021-12-23 15:29:30.216817,-133
2021-12-23 15:29:30.216823,-179
2021-12-23 15:29:30.216829,-189
2021-12-23 15:29:30.216836,-157
2021-12-23 15:29:30.353383,-129
2021-12-23 15:29:30.353413,-114
2021-12-23 15:29:30.353424,-100
2021-12-23 15:29:30.353434,-98
2021-12-23 15:29:30.353444,-102
2021-12-23 15:29:30.353453,-90
2021-12-23 15:29:30.353463,-71
2021-12-23 15:29:30.353473,-55
2021-12-23 15:29:30.353482,-47
2021-12-23 15:29:30.353492,-74
2021-12-23 15:29:30.353501,-98
2021-12-23 15:29:30.353511,-76
2021-12-23 15:29:30.353520,-40
2021-12-23 15:29:30.353530,-28
2021-12-23 15:29:30.353540,-40
2021-12-23 15:29:30.353549,-69
2021-12-23 15:29:30.353559,-90
2021-12-23 15:29:30.353568,-74
2021-12-23 15:29:30.353577,-40
2021-12-23 15:29:30.353587,-28
2021-12-23 15:29:30.353597,-33
2021-12-23 15:29:30.353606,-28
2021-12-23 15:29:30.353616,-21
2021-12-23 15:29:30.353625,-23
2021-12-23 15:29:30.353635,-26
2021-12-23 15:29:30.353645,-4
2021-12-23 15:29:30.353654,2
2021-12-23 15:29:30.353664,-31
2021-12-23 15:29:30.353673,-55
2021-12-23 15:29:30.353683,-38
2021-12-23 15:29:30.623308,-21
2021-12-23 15:29:30.623329,-14
2021-12-23 15:29:30.623336,-11
2021-12-23 15:29:30.623342,-40
2021-12-23 15:29:30.623348,-59
2021-12-23 15:29:30.623355,-19
2021-12-23 15:29:30.623361,14
2021-12-23 15:29:30.623367,7
2021-12-23 15:29:30.623373,-2
2021-12-23 15:29:30.623379,-28
2021-12-23 15:29:30.623386,-50
2021-12-23 15:29:30.623392,-26
2021-12-23 15:29:30.623399,0
2021-12-23 15:29:30.623405,-9
2021-12-23 15:29:30.623411,-31
2021-12-23 15:29:30.623417,-47
2021-12-23 15:29:30.623423,-52
2021-12-23 15:29:30.623430,-26
2021-12-23 15:29:30.623436,7
2021-12-23 15:29:30.623442,0
2021-12-23 15:29:30.623448,-50
2021-12-23 15:29:30.623455,-95
2021-12-23 15:29:30.623461,59
2021-12-23 15:29:30.623467,433
2021-12-23 15:29:30.623473,657
2021-12-23 15:29:30.623480,516
2021-12-23 15:29:30.623486,95
2021-12-23 15:29:30.623492,-200
2021-12-23 15:29:30.623498,-64
2021-12-23 15:29:30.623505,55
2021-12-23 15:29:30.893412,-52
2021-12-23 15:29:30.893442,-52
2021-12-23 15:29:30.893453,2
2021-12-23 15:29:30.893463,-45
2021-12-23 15:29:30.893473,-55
2021-12-23 15:29:30.893483,2
2021-12-23 15:29:30.893492,14
2021-12-23 15:29:30.893502,-14
2021-12-23 15:29:30.893511,-43
2021-12-23 15:29:30.893521,-64
2021-12-23 15:29:30.893531,-43
2021-12-23 15:29:30.893540,2
2021-12-23 15:29:30.893550,21
2021-12-23 15:29:30.893560,33
2021-12-23 15:29:30.893569,33
2021-12-23 15:29:30.893579,33
2021-12-23 15:29:30.893589,71
2021-12-23 15:29:30.893598,114
2021-12-23 15:29:30.893608,141
2021-12-23 15:29:30.893617,165
2021-12-23 15:29:30.893761,167
2021-12-23 15:29:30.893775,167
2021-12-23 15:29:30.893785,179
2021-12-23 15:29:30.893795,172
2021-12-23 15:29:30.893804,143
2021-12-23 15:29:30.893814,93
2021-12-23 15:29:30.893882,14
2021-12-23 15:29:30.893900,-52
2021-12-23 15:29:30.893928,-88
2021-12-23 15:29:30.893935,-105
2021-12-23 15:29:31.073663,-117
2021-12-23 15:29:31.074079,-131
2021-12-23 15:29:31.074100,-141
2021-12-23 15:29:31.074110,-126
2021-12-23 15:29:31.074119,-112
2021-12-23 15:29:31.074129,-112
2021-12-23 15:29:31.074141,-102
2021-12-23 15:29:31.074154,-93
2021-12-23 15:29:31.074166,-93
2021-12-23 15:29:31.074179,-78
2021-12-23 15:29:31.074191,-59
2021-12-23 15:29:31.074203,-47
2021-12-23 15:29:31.074215,-47
2021-12-23 15:29:31.074227,-69
2021-12-23 15:29:31.074240,-88
2021-12-23 15:29:31.074270,-64
2021-12-23 15:29:31.074283,-40
2021-12-23 15:29:31.074297,-31
2021-12-23 15:29:31.074309,-21
2021-12-23 15:29:31.074321,-35
2021-12-23 15:29:31.074334,-55
2021-12-23 15:29:31.074347,-55
2021-12-23 15:29:31.074360,-21
2021-12-23 15:29:31.074373,2
2021-12-23 15:29:31.074386,-16
2021-12-23 15:29:31.074399,-33
2021-12-23 15:29:31.074414,-14
2021-12-23 15:29:31.074426,-11
2021-12-23 15:29:31.074438,-16
2021-12-23 15:29:31.074452,0
2021-12-23 15:29:31.298880,7
2021-12-23 15:29:31.298908,2
2021-12-23 15:29:31.298921,2
2021-12-23 15:29:31.298932,-7
2021-12-23 15:29:31.298968,-4
2021-12-23 15:29:31.299007,14
2021-12-23 15:29:31.299018,-14
2021-12-23 15:29:31.299025,-78
2021-12-23 15:29:31.299031,-119
2021-12-23 15:29:31.299038,-138
2021-12-23 15:29:31.299044,-138
2021-12-23 15:29:31.299050,-124
2021-12-23 15:29:31.299056,-122
2021-12-23 15:29:31.299063,-124
2021-12-23 15:29:31.299069,-117
2021-12-23 15:29:31.299075,-114
2021-12-23 15:29:31.299081,-110
2021-12-23 15:29:31.299087,-76
2021-12-23 15:29:31.299094,-86
2021-12-23 15:29:31.299100,-133
2021-12-23 15:29:31.299106,-50
2021-12-23 15:29:31.299113,258
2021-12-23 15:29:31.299119,543
2021-12-23 15:29:31.299125,531
2021-12-23 15:29:31.299132,193
2021-12-23 15:29:31.299138,-167
2021-12-23 15:29:31.299148,-155
2021-12-23 15:29:31.299160,21
2021-12-23 15:29:31.299170,-23
2021-12-23 15:29:31.299180,-76
2021-12-23 15:29:31.523034,-14
2021-12-23 15:29:31.523056,-7
2021-12-23 15:29:31.523064,-28
2021-12-23 15:29:31.523071,-19
2021-12-23 15:29:31.523078,-7
2021-12-23 15:29:31.523084,-7
2021-12-23 15:29:31.523090,-28
2021-12-23 15:29:31.523097,-33
2021-12-23 15:29:31.523103,7
2021-12-23 15:29:31.523109,31
2021-12-23 15:29:31.523116,52
2021-12-23 15:29:31.523122,76
2021-12-23 15:29:31.523129,71
2021-12-23 15:29:31.523135,93
2021-12-23 15:29:31.523141,150
2021-12-23 15:29:31.523148,174
2021-12-23 15:29:31.523154,184
2021-12-23 15:29:31.523160,205
2021-12-23 15:29:31.523167,198
2021-12-23 15:29:31.523182,196
2021-12-23 15:29:31.523188,198
2021-12-23 15:29:31.523195,150
2021-12-23 15:29:31.523201,100
2021-12-23 15:29:31.523208,57
2021-12-23 15:29:31.523214,-14
2021-12-23 15:29:31.523220,-71
2021-12-23 15:29:31.523227,-95
2021-12-23 15:29:31.523233,-129
2021-12-23 15:29:31.523240,-157
2021-12-23 15:29:31.523246,-167
2021-12-23 15:29:31.800961,-167
2021-12-23 15:29:31.800978,-148
2021-12-23 15:29:31.800988,-133
2021-12-23 15:29:31.800998,-141
2021-12-23 15:29:31.801007,-145
2021-12-23 15:29:31.801016,-150
2021-12-23 15:29:31.801025,-169
2021-12-23 15:29:31.801034,-165
2021-12-23 15:29:31.801044,-155
2021-12-23 15:29:31.801053,-153
2021-12-23 15:29:31.801063,-141
2021-12-23 15:29:31.801072,-143
2021-12-23 15:29:31.801082,-150
2021-12-23 15:29:31.801091,-119
2021-12-23 15:29:31.801100,-122
2021-12-23 15:29:31.801109,-181
2021-12-23 15:29:31.801118,-179
2021-12-23 15:29:31.801127,-124
2021-12-23 15:29:31.801136,-114
2021-12-23 15:29:31.801145,-112
2021-12-23 15:29:31.801154,-90
2021-12-23 15:29:31.801164,-81
2021-12-23 15:29:31.801173,-74
2021-12-23 15:29:31.801182,-64
2021-12-23 15:29:31.801191,-59
2021-12-23 15:29:31.801199,-50
2021-12-23 15:29:31.801208,-35
2021-12-23 15:29:31.801215,-35
2021-12-23 15:29:31.801222,-38
2021-12-23 15:29:31.801230,-47
2021-12-23 15:29:31.972628,-40
2021-12-23 15:29:31.972650,-9
2021-12-23 15:29:31.972660,-7
2021-12-23 15:29:31.972669,-23
2021-12-23 15:29:31.972677,-33
2021-12-23 15:29:31.972686,-38
2021-12-23 15:29:31.972695,-19
2021-12-23 15:29:31.972703,11
2021-12-23 15:29:31.972712,4
2021-12-23 15:29:31.972721,-16
2021-12-23 15:29:31.972729,-14
2021-12-23 15:29:31.972738,-19
2021-12-23 15:29:31.972747,-21
2021-12-23 15:29:31.972756,-4
2021-12-23 15:29:31.972765,-4
2021-12-23 15:29:31.972773,-23
2021-12-23 15:29:31.972782,-45
2021-12-23 15:29:31.972790,-57
2021-12-23 15:29:31.972798,-40
2021-12-23 15:29:31.972807,-19
2021-12-23 15:29:31.972815,-21
2021-12-23 15:29:31.972823,-21
2021-12-23 15:29:31.972832,-9
2021-12-23 15:29:31.972840,11
2021-12-23 15:29:31.972849,9
2021-12-23 15:29:31.972857,-38
2021-12-23 15:29:31.972866,-23
2021-12-23 15:29:31.972874,198
2021-12-23 15:29:31.972881,512
2021-12-23 15:29:31.972889,595
2021-12-23 15:29:32.241205,342
2021-12-23 15:29:32.241220,-26
2021-12-23 15:29:32.241225,-124
2021-12-23 15:29:32.241230,26
2021-12-23 15:29:32.241234,28
2021-12-23 15:29:32.241239,-28
2021-12-23 15:29:32.241244,31
2021-12-23 15:29:32.241248,35
2021-12-23 15:29:32.241252,-7
2021-12-23 15:29:32.241257,-2
2021-12-23 15:29:32.241261,-7
2021-12-23 15:29:32.241266,-21
2021-12-23 15:29:32.241270,-9
2021-12-23 15:29:32.241275,0
2021-12-23 15:29:32.241279,19
2021-12-23 15:29:32.241283,43
2021-12-23 15:29:32.241288,43
2021-12-23 15:29:32.241292,52
2021-12-23 15:29:32.241297,102
2021-12-23 15:29:32.241301,131
2021-12-23 15:29:32.241306,114
2021-12-23 15:29:32.241310,107
2021-12-23 15:29:32.241314,141
2021-12-23 15:29:32.241319,165
2021-12-23 15:29:32.241323,167
2021-12-23 15:29:32.241328,181
2021-12-23 15:29:32.241332,205
2021-12-23 15:29:32.241337,196
2021-12-23 15:29:32.241341,136
2021-12-23 15:29:32.241345,86
2021-12-23 15:29:32.468305,62
2021-12-23 15:29:32.468326,-7
2021-12-23 15:29:32.468334,-107
2021-12-23 15:29:32.468340,-169
2021-12-23 15:29:32.468347,-198
2021-12-23 15:29:32.468353,-215
2021-12-23 15:29:32.468359,-210
2021-12-23 15:29:32.468365,-167
2021-12-23 15:29:32.468372,-177
2021-12-23 15:29:32.468378,-239
2021-12-23 15:29:32.468384,-220
2021-12-23 15:29:32.468391,-165
2021-12-23 15:29:32.468397,-169
2021-12-23 15:29:32.468403,-179
2021-12-23 15:29:32.468409,-184
2021-12-23 15:29:32.468415,-184
2021-12-23 15:29:32.468421,-153
2021-12-23 15:29:32.468428,-124
2021-12-23 15:29:32.468434,-110
2021-12-23 15:29:32.468440,-95
2021-12-23 15:29:32.468447,-81
2021-12-23 15:29:32.468453,-78
2021-12-23 15:29:32.468459,-90
2021-12-23 15:29:32.468465,-66
2021-12-23 15:29:32.468472,-23
2021-12-23 15:29:32.468478,-4
2021-12-23 15:29:32.468484,-19
2021-12-23 15:29:32.468490,-28
2021-12-23 15:29:32.468497,-14
2021-12-23 15:29:32.468503,-14
2021-12-23 15:29:32.693387,0
2021-12-23 15:29:32.693417,33
2021-12-23 15:29:32.693429,23
2021-12-23 15:29:32.693439,-9
2021-12-23 15:29:32.693449,7
2021-12-23 15:29:32.693459,35
2021-12-23 15:29:32.693469,33
2021-12-23 15:29:32.693478,33
2021-12-23 15:29:32.693488,31
2021-12-23 15:29:32.693498,21
2021-12-23 15:29:32.693508,35
2021-12-23 15:29:32.693517,43
2021-12-23 15:29:32.693527,28
2021-12-23 15:29:32.693537,26
2021-12-23 15:29:32.693547,0
2021-12-23 15:29:32.693556,-59
2021-12-23 15:29:32.693566,-76
2021-12-23 15:29:32.693576,-33
2021-12-23 15:29:32.693585,-14
2021-12-23 15:29:32.693595,-28
2021-12-23 15:29:32.693605,-40
2021-12-23 15:29:32.693744,-31
2021-12-23 15:29:32.693771,-11
2021-12-23 15:29:32.693783,-4
2021-12-23 15:29:32.693793,-28
2021-12-23 15:29:32.693803,-35
2021-12-23 15:29:32.693813,165
2021-12-23 15:29:32.693827,488
2021-12-23 15:29:32.693844,504
2021-12-23 15:29:32.693866,153
2021-12-23 15:29:32.918359,-157
2021-12-23 15:29:32.918389,-126
2021-12-23 15:29:32.918400,35
2021-12-23 15:29:32.918410,16
2021-12-23 15:29:32.918420,-16
2021-12-23 15:29:32.918430,47
2021-12-23 15:29:32.918440,71
2021-12-23 15:29:32.918449,47
2021-12-23 15:29:32.918459,23
2021-12-23 15:29:32.918469,28
2021-12-23 15:29:32.918479,66
2021-12-23 15:29:32.918489,98
2021-12-23 15:29:32.918499,100
2021-12-23 15:29:32.918509,86
2021-12-23 15:29:32.918518,74
2021-12-23 15:29:32.918528,83
2021-12-23 15:29:32.918538,100
2021-12-23 15:29:32.918547,117
2021-12-23 15:29:32.918557,124
2021-12-23 15:29:32.918566,136
2021-12-23 15:29:32.918576,167
2021-12-23 15:29:32.918586,196
2021-12-23 15:29:32.918596,222
2021-12-23 15:29:32.918618,236
2021-12-23 15:29:32.918624,234
2021-12-23 15:29:32.918670,229
2021-12-23 15:29:32.918741,224
2021-12-23 15:29:32.918751,191
2021-12-23 15:29:32.918758,122
2021-12-23 15:29:32.918765,52
2021-12-23 15:29:33.143159,-7
2021-12-23 15:29:33.143189,-55
2021-12-23 15:29:33.143201,-76
2021-12-23 15:29:33.143211,-88
2021-12-23 15:29:33.143221,-110
2021-12-23 15:29:33.143231,-102
2021-12-23 15:29:33.143240,-86
2021-12-23 15:29:33.143250,-119
2021-12-23 15:29:33.143260,-148
2021-12-23 15:29:33.143269,-136
2021-12-23 15:29:33.143279,-162
2021-12-23 15:29:33.143289,-196
2021-12-23 15:29:33.143299,-179
2021-12-23 15:29:33.143308,-181
2021-12-23 15:29:33.143318,-196
2021-12-23 15:29:33.143328,-179
2021-12-23 15:29:33.143338,-150
2021-12-23 15:29:33.143348,-131
2021-12-23 15:29:33.143357,-124
2021-12-23 15:29:33.143367,-131
2021-12-23 15:29:33.143377,-136
2021-12-23 15:29:33.143387,-126
2021-12-23 15:29:33.143396,-107
2021-12-23 15:29:33.143406,-93
2021-12-23 15:29:33.143416,-90
2021-12-23 15:29:33.143426,-83
2021-12-23 15:29:33.143435,-74
2021-12-23 15:29:33.143445,-71
2021-12-23 15:29:33.143455,-62
2021-12-23 15:29:33.143465,-62
2021-12-23 15:29:33.368054,-69
2021-12-23 15:29:33.368078,-78
2021-12-23 15:29:33.368086,-114
2021-12-23 15:29:33.368093,-138
2021-12-23 15:29:33.368099,-119
2021-12-23 15:29:33.368106,-100
2021-12-23 15:29:33.368112,-100
2021-12-23 15:29:33.368118,-95
2021-12-23 15:29:33.368125,-86
2021-12-23 15:29:33.368131,-95
2021-12-23 15:29:33.368138,-98
2021-12-23 15:29:33.368144,-81
2021-12-23 15:29:33.368150,-100
2021-12-23 15:29:33.368157,-126
2021-12-23 15:29:33.368163,-119
2021-12-23 15:29:33.368170,-112
2021-12-23 15:29:33.368176,-100
2021-12-23 15:29:33.368183,-71
2021-12-23 15:29:33.368189,-55
2021-12-23 15:29:33.368195,-50
2021-12-23 15:29:33.368202,-45
2021-12-23 15:29:33.368208,-74
2021-12-23 15:29:33.368215,-138
2021-12-23 15:29:33.368221,-81
2021-12-23 15:29:33.368227,227
2021-12-23 15:29:33.368234,543
2021-12-23 15:29:33.368240,535
2021-12-23 15:29:33.368247,215
2021-12-23 15:29:33.368253,-150
2021-12-23 15:29:33.368260,-177
2021-12-23 15:29:33.592503,28
2021-12-23 15:29:33.592520,33
2021-12-23 15:29:33.592526,-35
2021-12-23 15:29:33.592531,9
2021-12-23 15:29:33.592536,31
2021-12-23 15:29:33.592542,-7
2021-12-23 15:29:33.592547,-21
2021-12-23 15:29:33.592552,19
2021-12-23 15:29:33.592557,55
2021-12-23 15:29:33.592562,55
2021-12-23 15:29:33.592567,59
2021-12-23 15:29:33.592572,62
2021-12-23 15:29:33.592577,66
2021-12-23 15:29:33.592582,95
2021-12-23 15:29:33.592587,126
2021-12-23 15:29:33.592592,157
2021-12-23 15:29:33.592597,181
2021-12-23 15:29:33.592602,191
2021-12-23 15:29:33.592607,224
2021-12-23 15:29:33.592612,270
2021-12-23 15:29:33.592618,282
2021-12-23 15:29:33.592623,282
2021-12-23 15:29:33.592628,301
2021-12-23 15:29:33.592633,294
2021-12-23 15:29:33.592638,234
2021-12-23 15:29:33.592643,181
2021-12-23 15:29:33.592648,138
2021-12-23 15:29:33.592653,71
2021-12-23 15:29:33.592658,-7
2021-12-23 15:29:33.592663,-59
2021-12-23 15:29:33.817766,-81
2021-12-23 15:29:33.817786,-86
2021-12-23 15:29:33.817795,-95
2021-12-23 15:29:33.817803,-107
2021-12-23 15:29:33.817810,-124
2021-12-23 15:29:33.817817,-148
2021-12-23 15:29:33.817823,-155
2021-12-23 15:29:33.817830,-169
2021-12-23 15:29:33.817837,-184
2021-12-23 15:29:33.817845,-165
2021-12-23 15:29:33.817853,-162
2021-12-23 15:29:33.817861,-186
2021-12-23 15:29:33.817870,-169
2021-12-23 15:29:33.817878,-131
2021-12-23 15:29:33.817886,-119
2021-12-23 15:29:33.817894,-122
2021-12-23 15:29:33.817901,-136
2021-12-23 15:29:33.817910,-150
2021-12-23 15:29:33.817919,-141
2021-12-23 15:29:33.817927,-122
2021-12-23 15:29:33.817936,-105
2021-12-23 15:29:33.817944,-110
2021-12-23 15:29:33.817951,-129
2021-12-23 15:29:33.817958,-117
2021-12-23 15:29:33.817966,-88
2021-12-23 15:29:33.817974,-100
2021-12-23 15:29:33.817981,-126
2021-12-23 15:29:33.817988,-124
2021-12-23 15:29:33.817995,-110
2021-12-23 15:29:33.818003,-100
2021-12-23 15:29:34.043493,-86
2021-12-23 15:29:34.043516,-69
2021-12-23 15:29:34.043523,-59
2021-12-23 15:29:34.043530,-74
2021-12-23 15:29:34.043536,-105
2021-12-23 15:29:34.043542,-100
2021-12-23 15:29:34.043549,-69
2021-12-23 15:29:34.043555,-64
2021-12-23 15:29:34.043561,-64
2021-12-23 15:29:34.043567,-50
2021-12-23 15:29:34.043574,-47
2021-12-23 15:29:34.043580,-43
2021-12-23 15:29:34.043588,-31
2021-12-23 15:29:34.043599,-31
2021-12-23 15:29:34.043610,-23
2021-12-23 15:29:34.043621,-26
2021-12-23 15:29:34.043632,-52
2021-12-23 15:29:34.043643,-47
2021-12-23 15:29:34.043655,-11
2021-12-23 15:29:34.043665,11
2021-12-23 15:29:34.043696,7
2021-12-23 15:29:34.043710,-2
2021-12-23 15:29:34.043718,0
2021-12-23 15:29:34.043725,9
2021-12-23 15:29:34.043735,0
2021-12-23 15:29:34.043742,-40
2021-12-23 15:29:34.043748,33
2021-12-23 15:29:34.043755,342
2021-12-23 15:29:34.043761,634
2021-12-23 15:29:34.043768,665
2021-12-23 15:29:34.356978,375
2021-12-23 15:29:34.357008,-52
2021-12-23 15:29:34.357020,-117
2021-12-23 15:29:34.357030,52
2021-12-23 15:29:34.357040,0
2021-12-23 15:29:34.357050,-55
2021-12-23 15:29:34.357060,31
2021-12-23 15:29:34.357069,55
2021-12-23 15:29:34.357079,14
2021-12-23 15:29:34.357089,4
2021-12-23 15:29:34.357098,19
2021-12-23 15:29:34.357108,47
2021-12-23 15:29:34.357117,69
2021-12-23 15:29:34.357127,52
2021-12-23 15:29:34.357137,33
2021-12-23 15:29:34.357147,47
2021-12-23 15:29:34.357157,81
2021-12-23 15:29:34.357166,110
2021-12-23 15:29:34.357176,131
2021-12-23 15:29:34.357186,162
2021-12-23 15:29:34.357195,191
2021-12-23 15:29:34.357205,203
2021-12-23 15:29:34.357214,222
2021-12-23 15:29:34.357224,244
2021-12-23 15:29:34.357234,258
2021-12-23 15:29:34.357243,272
2021-12-23 15:29:34.357253,279
2021-12-23 15:29:34.357263,256
2021-12-23 15:29:34.357273,222
2021-12-23 15:29:34.357283,162
2021-12-23 15:29:34.538403,71
2021-12-23 15:29:34.538433,4
2021-12-23 15:29:34.538444,-35
2021-12-23 15:29:34.538455,-83
2021-12-23 15:29:34.538464,-102
2021-12-23 15:29:34.538480,-88
2021-12-23 15:29:34.538490,-66
2021-12-23 15:29:34.538500,-55
2021-12-23 15:29:34.538509,-78
2021-12-23 15:29:34.538519,-102
2021-12-23 15:29:34.538529,-76
2021-12-23 15:29:34.538539,-43
2021-12-23 15:29:34.538548,-33
2021-12-23 15:29:34.538558,-33
2021-12-23 15:29:34.538568,-76
2021-12-23 15:29:34.538577,-114
2021-12-23 15:29:34.538587,-93
2021-12-23 15:29:34.538597,-76
2021-12-23 15:29:34.538606,-86
2021-12-23 15:29:34.538616,-71
2021-12-23 15:29:34.538626,-71
2021-12-23 15:29:34.538635,-95
2021-12-23 15:29:34.538645,-76
2021-12-23 15:29:34.538655,-33
2021-12-23 15:29:34.538664,-31
2021-12-23 15:29:34.538674,-35
2021-12-23 15:29:34.538684,-31
2021-12-23 15:29:34.538693,-31
2021-12-23 15:29:34.538703,-16
2021-12-23 15:29:34.538712,-2
2021-12-23 15:29:34.763337,-7
2021-12-23 15:29:34.763368,-11
2021-12-23 15:29:34.763379,-16
2021-12-23 15:29:34.763389,-21
2021-12-23 15:29:34.763399,-21
2021-12-23 15:29:34.763408,-19
2021-12-23 15:29:34.763418,-14
2021-12-23 15:29:34.763428,-33
2021-12-23 15:29:34.763438,-78
2021-12-23 15:29:34.763447,-78
2021-12-23 15:29:34.763457,-43
2021-12-23 15:29:34.763467,-52
2021-12-23 15:29:34.763477,-69
2021-12-23 15:29:34.763486,-50
2021-12-23 15:29:34.763496,-66
2021-12-23 15:29:34.763506,-98
2021-12-23 15:29:34.763515,-76
2021-12-23 15:29:34.763525,-33
2021-12-23 15:29:34.763535,-43
2021-12-23 15:29:34.763545,-107
2021-12-23 15:29:34.763555,-133
2021-12-23 15:29:34.763565,-100
2021-12-23 15:29:34.763574,-86
2021-12-23 15:29:34.763584,-100
2021-12-23 15:29:34.763593,-100
2021-12-23 15:29:34.763603,-90
2021-12-23 15:29:34.763612,-81
2021-12-23 15:29:34.763622,-74
2021-12-23 15:29:34.763632,-69
2021-12-23 15:29:34.763641,-52
2021-12-23 15:29:35.033351,-28
2021-12-23 15:29:35.033381,-26
2021-12-23 15:29:35.033393,-52
2021-12-23 15:29:35.033403,-112
2021-12-23 15:29:35.033413,-74
2021-12-23 15:29:35.033423,236
2021-12-23 15:29:35.033433,571
2021-12-23 15:29:35.033442,583
2021-12-23 15:29:35.033452,251
2021-12-23 15:29:35.033462,-193
2021-12-23 15:29:35.033471,-239
2021-12-23 15:29:35.033481,26
2021-12-23 15:29:35.033491,28
2021-12-23 15:29:35.033501,-90
2021-12-23 15:29:35.033510,-52
2021-12-23 15:29:35.033520,-14
2021-12-23 15:29:35.033529,-23
2021-12-23 15:29:35.033539,7
2021-12-23 15:29:35.033549,38
2021-12-23 15:29:35.033558,31
2021-12-23 15:29:35.033568,38
2021-12-23 15:29:35.033577,76
2021-12-23 15:29:35.033587,110
2021-12-23 15:29:35.033597,131
2021-12-23 15:29:35.033606,141
2021-12-23 15:29:35.033616,157
2021-12-23 15:29:35.033625,191
2021-12-23 15:29:35.033635,227
2021-12-23 15:29:35.033644,244
2021-12-23 15:29:35.033654,277
2021-12-23 15:29:35.213363,308
2021-12-23 15:29:35.213392,301
2021-12-23 15:29:35.213404,299
2021-12-23 15:29:35.213414,315
2021-12-23 15:29:35.213424,315
2021-12-23 15:29:35.213433,287
2021-12-23 15:29:35.213443,232
2021-12-23 15:29:35.213453,153
2021-12-23 15:29:35.213463,76
2021-12-23 15:29:35.213473,4
2021-12-23 15:29:35.213483,-50
2021-12-23 15:29:35.213492,-86
2021-12-23 15:29:35.213502,-119
2021-12-23 15:29:35.213512,-136
2021-12-23 15:29:35.213522,-129
2021-12-23 15:29:35.213531,-133
2021-12-23 15:29:35.213541,-129
2021-12-23 15:29:35.213551,-107
2021-12-23 15:29:35.213561,-124
2021-12-23 15:29:35.213571,-133
2021-12-23 15:29:35.213581,-107
2021-12-23 15:29:35.213591,-95
2021-12-23 15:29:35.213600,-107
2021-12-23 15:29:35.213610,-131
2021-12-23 15:29:35.213620,-169
2021-12-23 15:29:35.213629,-181
2021-12-23 15:29:35.213639,-172
2021-12-23 15:29:35.213649,-167
2021-12-23 15:29:35.213659,-155
2021-12-23 15:29:35.213668,-138
2021-12-23 15:29:35.438380,-131
2021-12-23 15:29:35.438410,-122
2021-12-23 15:29:35.438422,-107
2021-12-23 15:29:35.438432,-98
2021-12-23 15:29:35.438442,-88
2021-12-23 15:29:35.438451,-98
2021-12-23 15:29:35.438461,-119
2021-12-23 15:29:35.438470,-117
2021-12-23 15:29:35.438480,-117
2021-12-23 15:29:35.438490,-131
2021-12-23 15:29:35.438499,-124
2021-12-23 15:29:35.438509,-126
2021-12-23 15:29:35.438518,-150
2021-12-23 15:29:35.438528,-136
2021-12-23 15:29:35.438537,-90
2021-12-23 15:29:35.438547,-66
2021-12-23 15:29:35.438557,-55
2021-12-23 15:29:35.438566,-47
2021-12-23 15:29:35.438575,-55
2021-12-23 15:29:35.438585,-45
2021-12-23 15:29:35.438594,-33
2021-12-23 15:29:35.438604,-47
2021-12-23 15:29:35.438613,-57
2021-12-23 15:29:35.438623,-38
2021-12-23 15:29:35.438632,-21
2021-12-23 15:29:35.438642,-14
2021-12-23 15:29:35.438652,-9
2021-12-23 15:29:35.438661,0
2021-12-23 15:29:35.438671,7
2021-12-23 15:29:35.438681,2
2021-12-23 15:29:35.663349,-31
2021-12-23 15:29:35.663370,-45
2021-12-23 15:29:35.663377,122
2021-12-23 15:29:35.663384,485
2021-12-23 15:29:35.663390,775
2021-12-23 15:29:35.663397,724
2021-12-23 15:29:35.663403,217
2021-12-23 15:29:35.663409,-210
2021-12-23 15:29:35.663415,-33
2021-12-23 15:29:35.663421,124
2021-12-23 15:29:35.663428,-71
2021-12-23 15:29:35.663434,-122
2021-12-23 15:29:35.663440,-21
2021-12-23 15:29:35.663447,-16
2021-12-23 15:29:35.663453,-23
2021-12-23 15:29:35.663459,9
2021-12-23 15:29:35.663465,19
2021-12-23 15:29:35.663472,26
2021-12-23 15:29:35.663479,55
2021-12-23 15:29:35.663486,78
2021-12-23 15:29:35.663492,98
2021-12-23 15:29:35.663498,119
2021-12-23 15:29:35.663505,131
2021-12-23 15:29:35.663511,153
2021-12-23 15:29:35.663517,203
2021-12-23 15:29:35.663523,253
2021-12-23 15:29:35.663529,289
2021-12-23 15:29:35.663536,315
2021-12-23 15:29:35.663542,334
2021-12-23 15:29:35.663548,322
2021-12-23 15:29:35.887659,287
2021-12-23 15:29:35.887678,289
2021-12-23 15:29:35.887685,291
2021-12-23 15:29:35.887692,212
2021-12-23 15:29:35.887698,110
2021-12-23 15:29:35.887705,40
2021-12-23 15:29:35.887711,-14
2021-12-23 15:29:35.887717,-76
2021-12-23 15:29:35.887724,-122
2021-12-23 15:29:35.887730,-145
2021-12-23 15:29:35.887737,-174
2021-12-23 15:29:35.887743,-193
2021-12-23 15:29:35.887749,-189
2021-12-23 15:29:35.887756,-189
2021-12-23 15:29:35.887762,-193
2021-12-23 15:29:35.887768,-177
2021-12-23 15:29:35.887774,-162
2021-12-23 15:29:35.887781,-155
2021-12-23 15:29:35.887787,-138
2021-12-23 15:29:35.887793,-119
2021-12-23 15:29:35.887800,-122
2021-12-23 15:29:35.887806,-145
2021-12-23 15:29:35.887813,-157
2021-12-23 15:29:35.887819,-141
2021-12-23 15:29:35.887825,-138
2021-12-23 15:29:35.887832,-148
2021-12-23 15:29:35.887838,-145
2021-12-23 15:29:35.887844,-136
2021-12-23 15:29:35.887851,-124
2021-12-23 15:29:35.887857,-107
2021-12-23 15:29:36.158330,-95
2021-12-23 15:29:36.158359,-81
2021-12-23 15:29:36.158371,-74
2021-12-23 15:29:36.158381,-112
2021-12-23 15:29:36.158391,-133
2021-12-23 15:29:36.158401,-100
2021-12-23 15:29:36.158410,-71
2021-12-23 15:29:36.158420,-66
2021-12-23 15:29:36.158430,-76
2021-12-23 15:29:36.158439,-98
2021-12-23 15:29:36.158449,-98
2021-12-23 15:29:36.158459,-81
2021-12-23 15:29:36.158468,-76
2021-12-23 15:29:36.158478,-81
2021-12-23 15:29:36.158488,-95
2021-12-23 15:29:36.158498,-117
2021-12-23 15:29:36.158507,-107
2021-12-23 15:29:36.158517,-78
2021-12-23 15:29:36.158527,-59
2021-12-23 15:29:36.158537,-45
2021-12-23 15:29:36.158547,-43
2021-12-23 15:29:36.158556,-55
2021-12-23 15:29:36.158566,-55
2021-12-23 15:29:36.158575,-35
2021-12-23 15:29:36.158585,-19
2021-12-23 15:29:36.158595,-16
2021-12-23 15:29:36.158605,-9
2021-12-23 15:29:36.158614,-4
2021-12-23 15:29:36.158624,-9
2021-12-23 15:29:36.158634,-7
2021-12-23 15:29:36.472007,19
2021-12-23 15:29:36.472037,45
2021-12-23 15:29:36.472048,52
2021-12-23 15:29:36.472058,33
2021-12-23 15:29:36.472068,2
2021-12-23 15:29:36.472078,-21
2021-12-23 15:29:36.472087,-4
2021-12-23 15:29:36.472097,2
2021-12-23 15:29:36.472107,-52
2021-12-23 15:29:36.472116,-90
2021-12-23 15:29:36.472128,-64
2021-12-23 15:29:36.472139,-31
2021-12-23 15:29:36.472148,-21
2021-12-23 15:29:36.472158,-16
2021-12-23 15:29:36.472168,-35
2021-12-23 15:29:36.472177,-69
2021-12-23 15:29:36.472187,-76
2021-12-23 15:29:36.472196,-107
2021-12-23 15:29:36.472206,-122
2021-12-23 15:29:36.472215,83
2021-12-23 15:29:36.472225,447
2021-12-23 15:29:36.472235,662
2021-12-23 15:29:36.472244,576
2021-12-23 15:29:36.472254,122
2021-12-23 15:29:36.472264,-234
2021-12-23 15:29:36.472273,-40
2021-12-23 15:29:36.472283,110
2021-12-23 15:29:36.472292,-50
2021-12-23 15:29:36.472302,-55
2021-12-23 15:29:36.472312,38
2021-12-23 15:29:36.607638,23
2021-12-23 15:29:36.607658,9
2021-12-23 15:29:36.607665,26
2021-12-23 15:29:36.607672,28
2021-12-23 15:29:36.607679,43
2021-12-23 15:29:36.607685,59
2021-12-23 15:29:36.607692,62
2021-12-23 15:29:36.607698,62
2021-12-23 15:29:36.607704,69
2021-12-23 15:29:36.607711,95
2021-12-23 15:29:36.607717,126
2021-12-23 15:29:36.607724,150
2021-12-23 15:29:36.607730,191
2021-12-23 15:29:36.607736,203
2021-12-23 15:29:36.607743,189
2021-12-23 15:29:36.607749,212
2021-12-23 15:29:36.607756,253
2021-12-23 15:29:36.607762,265
2021-12-23 15:29:36.607769,253
2021-12-23 15:29:36.607775,217
2021-12-23 15:29:36.607782,169
2021-12-23 15:29:36.607788,124
2021-12-23 15:29:36.607794,57
2021-12-23 15:29:36.607801,-11
2021-12-23 15:29:36.607807,-52
2021-12-23 15:29:36.607814,-86
2021-12-23 15:29:36.607820,-129
2021-12-23 15:29:36.607826,-165
2021-12-23 15:29:36.607833,-169
2021-12-23 15:29:36.607839,-165
2021-12-23 15:29:36.877096,-181
2021-12-23 15:29:36.877116,-193
2021-12-23 15:29:36.877124,-189
2021-12-23 15:29:36.877131,-184
2021-12-23 15:29:36.877137,-167
2021-12-23 15:29:36.877143,-141
2021-12-23 15:29:36.877150,-143
2021-12-23 15:29:36.877156,-169
2021-12-23 15:29:36.877162,-181
2021-12-23 15:29:36.877169,-186
2021-12-23 15:29:36.877175,-198
2021-12-23 15:29:36.877181,-189
2021-12-23 15:29:36.877188,-177
2021-12-23 15:29:36.877194,-191
2021-12-23 15:29:36.877201,-191
2021-12-23 15:29:36.877207,-165
2021-12-23 15:29:36.877213,-145
2021-12-23 15:29:36.877220,-131
2021-12-23 15:29:36.877226,-119
2021-12-23 15:29:36.877232,-119
2021-12-23 15:29:36.877239,-131
2021-12-23 15:29:36.877245,-138
2021-12-23 15:29:36.877251,-122
2021-12-23 15:29:36.877258,-90
2021-12-23 15:29:36.877264,-83
2021-12-23 15:29:36.877270,-86
2021-12-23 15:29:36.877277,-71
2021-12-23 15:29:36.877283,-52
2021-12-23 15:29:36.877290,-45
2021-12-23 15:29:36.877296,-40
2021-12-23 15:29:37.058076,-26
2021-12-23 15:29:37.058098,-16
2021-12-23 15:29:37.058106,-14
2021-12-23 15:29:37.058112,-14
2021-12-23 15:29:37.058119,-4
2021-12-23 15:29:37.058125,9
2021-12-23 15:29:37.058132,7
2021-12-23 15:29:37.058138,9
2021-12-23 15:29:37.058144,35
2021-12-23 15:29:37.058151,47
2021-12-23 15:29:37.058157,45
2021-12-23 15:29:37.058163,57
2021-12-23 15:29:37.058170,55
2021-12-23 15:29:37.058176,40
2021-12-23 15:29:37.058182,50
2021-12-23 15:29:37.058189,64
2021-12-23 15:29:37.058195,71
2021-12-23 15:29:37.058202,90
2021-12-23 15:29:37.058209,110
2021-12-23 15:29:37.058215,119
2021-12-23 15:29:37.058222,129
2021-12-23 15:29:37.058228,126
2021-12-23 15:29:37.058234,110
2021-12-23 15:29:37.058241,95
2021-12-23 15:29:37.058247,90
2021-12-23 15:29:37.058253,93
2021-12-23 15:29:37.058260,98
2021-12-23 15:29:37.058266,86
2021-12-23 15:29:37.058272,83
2021-12-23 15:29:37.058278,98
2021-12-23 15:29:37.283171,100
2021-12-23 15:29:37.283199,100
2021-12-23 15:29:37.283211,95
2021-12-23 15:29:37.283221,52
2021-12-23 15:29:37.283231,62
2021-12-23 15:29:37.283241,306
2021-12-23 15:29:37.283251,619
2021-12-23 15:29:37.283260,657
2021-12-23 15:29:37.283270,346
2021-12-23 15:29:37.283280,-105
2021-12-23 15:29:37.283290,-203
2021-12-23 15:29:37.283299,28
2021-12-23 15:29:37.283309,26
2021-12-23 15:29:37.283319,-81
2021-12-23 15:29:37.283329,-21
2021-12-23 15:29:37.283338,-14
2021-12-23 15:29:37.283348,-90
2021-12-23 15:29:37.283358,-76
2021-12-23 15:29:37.283368,-14
2021-12-23 15:29:37.283377,2
2021-12-23 15:29:37.283387,14
2021-12-23 15:29:37.283397,31
2021-12-23 15:29:37.283407,35
2021-12-23 15:29:37.283416,47
2021-12-23 15:29:37.283426,57
2021-12-23 15:29:37.283436,57
2021-12-23 15:29:37.283445,74
2021-12-23 15:29:37.283455,98
2021-12-23 15:29:37.283465,114
2021-12-23 15:29:37.283474,136
2021-12-23 15:29:37.553407,174
2021-12-23 15:29:37.553436,215
2021-12-23 15:29:37.553448,229
2021-12-23 15:29:37.553457,234
2021-12-23 15:29:37.553467,222
2021-12-23 15:29:37.553477,191
2021-12-23 15:29:37.553486,162
2021-12-23 15:29:37.553495,114
2021-12-23 15:29:37.553505,26
2021-12-23 15:29:37.553515,-66
2021-12-23 15:29:37.553525,-143
2021-12-23 15:29:37.553535,-198
2021-12-23 15:29:37.553544,-210
2021-12-23 15:29:37.553554,-200
2021-12-23 15:29:37.553563,-215
2021-12-23 15:29:37.553573,-220
2021-12-23 15:29:37.553582,-203
2021-12-23 15:29:37.553592,-186
2021-12-23 15:29:37.553602,-172
2021-12-23 15:29:37.553611,-162
2021-12-23 15:29:37.553621,-162
2021-12-23 15:29:37.553630,-167
2021-12-23 15:29:37.553640,-172
2021-12-23 15:29:37.553649,-165
2021-12-23 15:29:37.553659,-145
2021-12-23 15:29:37.553668,-141
2021-12-23 15:29:37.553678,-160
2021-12-23 15:29:37.553688,-186
2021-12-23 15:29:37.553697,-174
2021-12-23 15:29:37.553707,-131
2021-12-23 15:29:37.733337,-107
2021-12-23 15:29:37.733367,-119
2021-12-23 15:29:37.733378,-122
2021-12-23 15:29:37.733388,-112
2021-12-23 15:29:37.733398,-119
2021-12-23 15:29:37.733408,-112
2021-12-23 15:29:37.733417,-86
2021-12-23 15:29:37.733427,-90
2021-12-23 15:29:37.733517,-88
2021-12-23 15:29:37.733528,-76
2021-12-23 15:29:37.733538,-105
2021-12-23 15:29:37.733548,-126
2021-12-23 15:29:37.733557,-105
2021-12-23 15:29:37.733567,-93
2021-12-23 15:29:37.733577,-93
2021-12-23 15:29:37.733586,-81
2021-12-23 15:29:37.733596,-81
2021-12-23 15:29:37.733605,-78
2021-12-23 15:29:37.733615,-66
2021-12-23 15:29:37.733624,-57
2021-12-23 15:29:37.733634,-81
2021-12-23 15:29:37.733644,-143
2021-12-23 15:29:37.733653,-174
2021-12-23 15:29:37.733663,-133
2021-12-23 15:29:37.733673,-95
2021-12-23 15:29:37.733682,-83
2021-12-23 15:29:37.733692,-66
2021-12-23 15:29:37.733702,-50
2021-12-23 15:29:37.733711,-52
2021-12-23 15:29:37.733721,-59
2021-12-23 15:29:38.003275,-57
2021-12-23 15:29:38.003296,-71
2021-12-23 15:29:38.003304,-9
2021-12-23 15:29:38.003311,279
2021-12-23 15:29:38.003317,576
2021-12-23 15:29:38.003324,574
2021-12-23 15:29:38.003330,215
2021-12-23 15:29:38.003336,-236
2021-12-23 15:29:38.003343,-244
2021-12-23 15:29:38.003349,4
2021-12-23 15:29:38.003356,-35
2021-12-23 15:29:38.003362,-102
2021-12-23 15:29:38.003368,-7
2021-12-23 15:29:38.003375,21
2021-12-23 15:29:38.003381,-11
2021-12-23 15:29:38.003388,2
2021-12-23 15:29:38.003394,28
2021-12-23 15:29:38.003401,38
2021-12-23 15:29:38.003407,62
2021-12-23 15:29:38.003414,95
2021-12-23 15:29:38.003420,114
2021-12-23 15:29:38.003426,112
2021-12-23 15:29:38.003433,131
2021-12-23 15:29:38.003439,172
2021-12-23 15:29:38.003446,189
2021-12-23 15:29:38.003452,203
2021-12-23 15:29:38.003458,232
2021-12-23 15:29:38.003465,241
2021-12-23 15:29:38.003471,258
2021-12-23 15:29:38.003478,294
2021-12-23 15:29:38.272756,303
2021-12-23 15:29:38.272788,284
2021-12-23 15:29:38.272800,270
2021-12-23 15:29:38.272811,234
2021-12-23 15:29:38.272820,167
2021-12-23 15:29:38.272830,88
2021-12-23 15:29:38.272840,21
2021-12-23 15:29:38.272850,-38
2021-12-23 15:29:38.272859,-110
2021-12-23 15:29:38.272869,-167
2021-12-23 15:29:38.272879,-165
2021-12-23 15:29:38.272888,-138
2021-12-23 15:29:38.272898,-138
2021-12-23 15:29:38.272908,-136
2021-12-23 15:29:38.272918,-136
2021-12-23 15:29:38.272927,-148
2021-12-23 15:29:38.272937,-141
2021-12-23 15:29:38.272947,-114
2021-12-23 15:29:38.272957,-100
2021-12-23 15:29:38.272966,-95
2021-12-23 15:29:38.272976,-105
2021-12-23 15:29:38.272986,-110
2021-12-23 15:29:38.272996,-90
2021-12-23 15:29:38.273006,-76
2021-12-23 15:29:38.273016,-74
2021-12-23 15:29:38.273026,-57
2021-12-23 15:29:38.273035,-55
2021-12-23 15:29:38.273045,-95
2021-12-23 15:29:38.273055,-102
2021-12-23 15:29:38.273065,-59
2021-12-23 15:29:38.496701,-35
2021-12-23 15:29:38.496723,-31
2021-12-23 15:29:38.496731,-38
2021-12-23 15:29:38.496738,-59
2021-12-23 15:29:38.496744,-47
2021-12-23 15:29:38.496750,-23
2021-12-23 15:29:38.496756,-23
2021-12-23 15:29:38.496763,-28
2021-12-23 15:29:38.496769,-40
2021-12-23 15:29:38.496775,-52
2021-12-23 15:29:38.496781,-35
2021-12-23 15:29:38.496788,-14
2021-12-23 15:29:38.496794,-9
2021-12-23 15:29:38.496800,-28
2021-12-23 15:29:38.496806,-59
2021-12-23 15:29:38.496812,-55
2021-12-23 15:29:38.496819,-7
2021-12-23 15:29:38.496825,28
2021-12-23 15:29:38.496831,35
2021-12-23 15:29:38.496838,21
2021-12-23 15:29:38.496844,-2
2021-12-23 15:29:38.496850,-4
2021-12-23 15:29:38.496856,7
2021-12-23 15:29:38.496863,7
2021-12-23 15:29:38.496869,9
2021-12-23 15:29:38.496875,11
2021-12-23 15:29:38.496881,4
2021-12-23 15:29:38.496887,9
2021-12-23 15:29:38.496894,38
2021-12-23 15:29:38.496900,52
2021-12-23 15:29:38.723392,45
2021-12-23 15:29:38.723414,28
2021-12-23 15:29:38.723421,-14
2021-12-23 15:29:38.723428,35
2021-12-23 15:29:38.723434,322
2021-12-23 15:29:38.723440,655
2021-12-23 15:29:38.723447,758
