Time,ECG
2021-12-23 15:24:07.612901,2
2021-12-23 15:24:07.612922,11
2021-12-23 15:24:07.612928,9
2021-12-23 15:24:07.612933,-11
2021-12-23 15:24:07.612937,-14
2021-12-23 15:24:07.612942,7
2021-12-23 15:24:07.612947,9
2021-12-23 15:24:07.612951,0
2021-12-23 15:24:07.612956,9
2021-12-23 15:24:07.612961,23
2021-12-23 15:24:07.612965,33
2021-12-23 15:24:07.612969,45
2021-12-23 15:24:07.612974,2
2021-12-23 15:24:07.612978,-93
2021-12-23 15:24:07.612983,-28
2021-12-23 15:24:07.612987,385
2021-12-23 15:24:07.612992,818
2021-12-23 15:24:07.612997,732
2021-12-23 15:24:07.613001,141
2021-12-23 15:24:07.613006,-337
2021-12-23 15:24:07.613010,-270
2021-12-23 15:24:07.613014,-38
2021-12-23 15:24:07.613019,-62
2021-12-23 15:24:07.613023,-110
2021-12-23 15:24:07.613028,-55
2021-12-23 15:24:07.613032,-45
2021-12-23 15:24:07.613037,-52
2021-12-23 15:24:07.613042,-35
2021-12-23 15:24:07.613046,-23
2021-12-23 15:24:07.613051,-14
2021-12-23 15:24:07.838319,0
2021-12-23 15:24:07.838340,23
2021-12-23 15:24:07.838348,45
2021-12-23 15:24:07.838355,52
2021-12-23 15:24:07.838361,69
2021-12-23 15:24:07.838367,93
2021-12-23 15:24:07.838375,95
2021-12-23 15:24:07.838381,117
2021-12-23 15:24:07.838388,172
2021-12-23 15:24:07.838394,217
2021-12-23 15:24:07.838400,267
2021-12-23 15:24:07.838407,313
2021-12-23 15:24:07.838413,318
2021-12-23 15:24:07.838419,322
2021-12-23 15:24:07.838426,349
2021-12-23 15:24:07.838432,344
2021-12-23 15:24:07.838438,303
2021-12-23 15:24:07.838445,248
2021-12-23 15:24:07.838452,157
2021-12-23 15:24:07.838458,47
2021-12-23 15:24:07.838465,-45
2021-12-23 15:24:07.838471,-129
2021-12-23 15:24:07.838477,-186
2021-12-23 15:24:07.838483,-210
2021-12-23 15:24:07.838490,-224
2021-12-23 15:24:07.838496,-232
2021-12-23 15:24:07.838502,-232
2021-12-23 15:24:07.838508,-229
2021-12-23 15:24:07.838515,-215
2021-12-23 15:24:07.838523,-200
2021-12-23 15:24:08.063354,-200
2021-12-23 15:24:08.063385,-177
2021-12-23 15:24:08.063396,-143
2021-12-23 15:24:08.063407,-141
2021-12-23 15:24:08.063418,-155
2021-12-23 15:24:08.063427,-169
2021-12-23 15:24:08.063437,-174
2021-12-23 15:24:08.063447,-150
2021-12-23 15:24:08.063457,-126
2021-12-23 15:24:08.063467,-119
2021-12-23 15:24:08.063477,-117
2021-12-23 15:24:08.063487,-124
2021-12-23 15:24:08.063497,-131
2021-12-23 15:24:08.063513,-107
2021-12-23 15:24:08.063523,-83
2021-12-23 15:24:08.063533,-78
2021-12-23 15:24:08.063543,-71
2021-12-23 15:24:08.063553,-76
2021-12-23 15:24:08.063563,-95
2021-12-23 15:24:08.063573,-81
2021-12-23 15:24:08.063583,-55
2021-12-23 15:24:08.063593,-66
2021-12-23 15:24:08.063602,-81
2021-12-23 15:24:08.063612,-88
2021-12-23 15:24:08.063622,-100
2021-12-23 15:24:08.063632,-81
2021-12-23 15:24:08.063642,-62
2021-12-23 15:24:08.063651,-66
2021-12-23 15:24:08.063661,-71
2021-12-23 15:24:08.063674,-76
2021-12-23 15:24:08.288286,-69
2021-12-23 15:24:08.288307,-31
2021-12-23 15:24:08.288315,11
2021-12-23 15:24:08.288322,14
2021-12-23 15:24:08.288328,-21
2021-12-23 15:24:08.288335,-52
2021-12-23 15:24:08.288341,-35
2021-12-23 15:24:08.288347,-16
2021-12-23 15:24:08.288354,-35
2021-12-23 15:24:08.288360,-55
2021-12-23 15:24:08.288366,-55
2021-12-23 15:24:08.288373,-52
2021-12-23 15:24:08.288379,-31
2021-12-23 15:24:08.288385,-9
2021-12-23 15:24:08.288392,-7
2021-12-23 15:24:08.288398,-11
2021-12-23 15:24:08.288404,-23
2021-12-23 15:24:08.288413,-40
2021-12-23 15:24:08.288420,-71
2021-12-23 15:24:08.288426,-55
2021-12-23 15:24:08.288432,251
2021-12-23 15:24:08.288438,770
2021-12-23 15:24:08.288445,952
2021-12-23 15:24:08.288451,538
2021-12-23 15:24:08.288457,-117
2021-12-23 15:24:08.288463,-322
2021-12-23 15:24:08.288470,-4
2021-12-23 15:24:08.288476,74
2021-12-23 15:24:08.288483,-83
2021-12-23 15:24:08.288489,-31
2021-12-23 15:24:08.556957,47
2021-12-23 15:24:08.556988,21
2021-12-23 15:24:08.556996,16
2021-12-23 15:24:08.557003,14
2021-12-23 15:24:08.557009,-11
2021-12-23 15:24:08.557016,2
2021-12-23 15:24:08.557022,59
2021-12-23 15:24:08.557035,100
2021-12-23 15:24:08.557042,112
2021-12-23 15:24:08.557048,100
2021-12-23 15:24:08.557054,95
2021-12-23 15:24:08.557061,133
2021-12-23 15:24:08.557067,186
2021-12-23 15:24:08.557074,232
2021-12-23 15:24:08.557080,279
2021-12-23 15:24:08.557086,299
2021-12-23 15:24:08.557092,291
2021-12-23 15:24:08.557099,320
2021-12-23 15:24:08.557105,370
2021-12-23 15:24:08.557111,392
2021-12-23 15:24:08.557118,387
2021-12-23 15:24:08.557124,358
2021-12-23 15:24:08.557130,282
2021-12-23 15:24:08.557137,179
2021-12-23 15:24:08.557143,90
2021-12-23 15:24:08.557149,9
2021-12-23 15:24:08.557155,-81
2021-12-23 15:24:08.557162,-155
2021-12-23 15:24:08.557168,-203
2021-12-23 15:24:08.557176,-248
2021-12-23 15:24:08.783393,-267
2021-12-23 15:24:08.783414,-239
2021-12-23 15:24:08.783422,-232
2021-12-23 15:24:08.783428,-275
2021-12-23 15:24:08.783435,-279
2021-12-23 15:24:08.783441,-229
2021-12-23 15:24:08.783447,-208
2021-12-23 15:24:08.783454,-215
2021-12-23 15:24:08.783460,-222
2021-12-23 15:24:08.783466,-248
2021-12-23 15:24:08.783473,-265
2021-12-23 15:24:08.783479,-246
2021-12-23 15:24:08.783485,-224
2021-12-23 15:24:08.783492,-215
2021-12-23 15:24:08.783498,-208
2021-12-23 15:24:08.783504,-203
2021-12-23 15:24:08.783511,-191
2021-12-23 15:24:08.783517,-177
2021-12-23 15:24:08.783523,-155
2021-12-23 15:24:08.783529,-136
2021-12-23 15:24:08.783535,-136
2021-12-23 15:24:08.783542,-143
2021-12-23 15:24:08.783548,-126
2021-12-23 15:24:08.783554,-122
2021-12-23 15:24:08.783567,-148
2021-12-23 15:24:08.783573,-153
2021-12-23 15:24:08.783580,-136
2021-12-23 15:24:08.783586,-138
2021-12-23 15:24:08.783592,-131
2021-12-23 15:24:08.783599,-102
2021-12-23 15:24:09.007674,-90
2021-12-23 15:24:09.007693,-88
2021-12-23 15:24:09.007703,-78
2021-12-23 15:24:09.007713,-59
2021-12-23 15:24:09.007723,-33
2021-12-23 15:24:09.007733,-21
2021-12-23 15:24:09.007741,-28
2021-12-23 15:24:09.007752,-38
2021-12-23 15:24:09.007760,-71
2021-12-23 15:24:09.007769,-107
2021-12-23 15:24:09.007778,-90
2021-12-23 15:24:09.007787,-55
2021-12-23 15:24:09.007796,-52
2021-12-23 15:24:09.007806,-59
2021-12-23 15:24:09.007815,-71
2021-12-23 15:24:09.007824,-78
2021-12-23 15:24:09.007833,-66
2021-12-23 15:24:09.007843,-47
2021-12-23 15:24:09.007851,-52
2021-12-23 15:24:09.007861,-107
2021-12-23 15:24:09.007870,-102
2021-12-23 15:24:09.007880,236
2021-12-23 15:24:09.007890,787
2021-12-23 15:24:09.007899,995
2021-12-23 15:24:09.007907,607
2021-12-23 15:24:09.007917,-81
2021-12-23 15:24:09.007925,-339
2021-12-23 15:24:09.007935,-33
2021-12-23 15:24:09.007944,66
2021-12-23 15:24:09.007954,-78
2021-12-23 15:24:09.232741,-40
2021-12-23 15:24:09.232762,21
2021-12-23 15:24:09.232769,-19
2021-12-23 15:24:09.232776,-21
2021-12-23 15:24:09.232782,9
2021-12-23 15:24:09.232789,-9
2021-12-23 15:24:09.232795,-23
2021-12-23 15:24:09.232801,-11
2021-12-23 15:24:09.232808,-11
2021-12-23 15:24:09.232814,4
2021-12-23 15:24:09.232820,50
2021-12-23 15:24:09.232827,78
2021-12-23 15:24:09.232833,100
2021-12-23 15:24:09.232839,117
2021-12-23 15:24:09.232846,131
2021-12-23 15:24:09.232852,162
2021-12-23 15:24:09.232858,217
2021-12-23 15:24:09.232865,267
2021-12-23 15:24:09.232871,299
2021-12-23 15:24:09.232877,315
2021-12-23 15:24:09.232884,327
2021-12-23 15:24:09.232890,320
2021-12-23 15:24:09.232896,303
2021-12-23 15:24:09.232902,272
2021-12-23 15:24:09.232914,193
2021-12-23 15:24:09.232921,86
2021-12-23 15:24:09.232927,-4
2021-12-23 15:24:09.232934,-76
2021-12-23 15:24:09.232940,-143
2021-12-23 15:24:09.232946,-177
2021-12-23 15:24:09.458421,-181
2021-12-23 15:24:09.458451,-181
2021-12-23 15:24:09.458463,-184
2021-12-23 15:24:09.458473,-177
2021-12-23 15:24:09.458483,-155
2021-12-23 15:24:09.458492,-138
2021-12-23 15:24:09.458502,-148
2021-12-23 15:24:09.458512,-165
2021-12-23 15:24:09.458522,-155
2021-12-23 15:24:09.458531,-138
2021-12-23 15:24:09.458541,-126
2021-12-23 15:24:09.458550,-112
2021-12-23 15:24:09.458560,-117
2021-12-23 15:24:09.458569,-133
2021-12-23 15:24:09.458579,-122
2021-12-23 15:24:09.458589,-98
2021-12-23 15:24:09.458598,-83
2021-12-23 15:24:09.458608,-71
2021-12-23 15:24:09.458617,-64
2021-12-23 15:24:09.458627,-59
2021-12-23 15:24:09.458637,-47
2021-12-23 15:24:09.458646,-43
2021-12-23 15:24:09.458656,-47
2021-12-23 15:24:09.458666,-57
2021-12-23 15:24:09.458675,-66
2021-12-23 15:24:09.458686,-69
2021-12-23 15:24:09.458695,-59
2021-12-23 15:24:09.458705,-52
2021-12-23 15:24:09.458715,-45
2021-12-23 15:24:09.458724,-47
2021-12-23 15:24:09.682703,-62
2021-12-23 15:24:09.682723,-64
2021-12-23 15:24:09.682731,-47
2021-12-23 15:24:09.682738,-55
2021-12-23 15:24:09.682744,-62
2021-12-23 15:24:09.682750,-50
2021-12-23 15:24:09.682757,-43
2021-12-23 15:24:09.682763,-19
2021-12-23 15:24:09.682770,-4
2021-12-23 15:24:09.682776,-28
2021-12-23 15:24:09.682783,-66
2021-12-23 15:24:09.682789,-107
2021-12-23 15:24:09.682795,-143
2021-12-23 15:24:09.682802,-148
2021-12-23 15:24:09.682808,-145
2021-12-23 15:24:09.682815,-157
2021-12-23 15:24:09.682821,-162
2021-12-23 15:24:09.682827,-174
2021-12-23 15:24:09.682834,-172
2021-12-23 15:24:09.682840,-143
2021-12-23 15:24:09.682847,-133
2021-12-23 15:24:09.682853,-145
2021-12-23 15:24:09.682859,-165
2021-12-23 15:24:09.682866,-200
2021-12-23 15:24:09.682872,-40
2021-12-23 15:24:09.682879,456
2021-12-23 15:24:09.682885,873
2021-12-23 15:24:09.682892,746
2021-12-23 15:24:09.682899,138
2021-12-23 15:24:09.682906,-349
2021-12-23 15:24:09.997706,-217
2021-12-23 15:24:09.997726,21
2021-12-23 15:24:09.997733,-100
2021-12-23 15:24:09.997740,-174
2021-12-23 15:24:09.997746,-81
2021-12-23 15:24:09.997753,-86
2021-12-23 15:24:09.997759,-131
2021-12-23 15:24:09.997765,-78
2021-12-23 15:24:09.997771,-35
2021-12-23 15:24:09.997778,-47
2021-12-23 15:24:09.997789,-40
2021-12-23 15:24:09.997796,-11
2021-12-23 15:24:09.997802,0
2021-12-23 15:24:09.997808,16
2021-12-23 15:24:09.997815,50
2021-12-23 15:24:09.997821,81
2021-12-23 15:24:09.997827,110
2021-12-23 15:24:09.997833,133
2021-12-23 15:24:09.997840,184
2021-12-23 15:24:09.997846,244
2021-12-23 15:24:09.997852,279
2021-12-23 15:24:09.997858,306
2021-12-23 15:24:09.997864,342
2021-12-23 15:24:09.997870,354
2021-12-23 15:24:09.997877,356
2021-12-23 15:24:09.997883,368
2021-12-23 15:24:09.997889,337
2021-12-23 15:24:09.997895,248
2021-12-23 15:24:09.997901,148
2021-12-23 15:24:09.997907,62
2021-12-23 15:24:10.133318,-2
2021-12-23 15:24:10.133348,-55
2021-12-23 15:24:10.133360,-100
2021-12-23 15:24:10.133369,-131
2021-12-23 15:24:10.133379,-160
2021-12-23 15:24:10.133389,-184
2021-12-23 15:24:10.133399,-165
2021-12-23 15:24:10.133408,-117
2021-12-23 15:24:10.133418,-102
2021-12-23 15:24:10.133428,-124
2021-12-23 15:24:10.133437,-143
2021-12-23 15:24:10.133447,-150
2021-12-23 15:24:10.133457,-138
2021-12-23 15:24:10.133466,-117
2021-12-23 15:24:10.133476,-102
2021-12-23 15:24:10.133486,-95
2021-12-23 15:24:10.133495,-114
2021-12-23 15:24:10.133505,-141
2021-12-23 15:24:10.133514,-126
2021-12-23 15:24:10.133524,-93
2021-12-23 15:24:10.133533,-90
2021-12-23 15:24:10.133543,-100
2021-12-23 15:24:10.133552,-119
2021-12-23 15:24:10.133562,-126
2021-12-23 15:24:10.133571,-93
2021-12-23 15:24:10.133590,-66
2021-12-23 15:24:10.133600,-71
2021-12-23 15:24:10.133610,-71
2021-12-23 15:24:10.133619,-66
2021-12-23 15:24:10.133629,-62
2021-12-23 15:24:10.358566,-47
2021-12-23 15:24:10.358586,-35
2021-12-23 15:24:10.358594,-38
2021-12-23 15:24:10.358601,-57
2021-12-23 15:24:10.358607,-83
2021-12-23 15:24:10.358613,-83
2021-12-23 15:24:10.358619,-83
2021-12-23 15:24:10.358626,-100
2021-12-23 15:24:10.358632,-93
2021-12-23 15:24:10.358638,-93
2021-12-23 15:24:10.358644,-119
2021-12-23 15:24:10.358651,-105
2021-12-23 15:24:10.358657,-57
2021-12-23 15:24:10.358663,-43
2021-12-23 15:24:10.358669,-47
2021-12-23 15:24:10.358676,-52
2021-12-23 15:24:10.358682,-52
2021-12-23 15:24:10.358688,-33
2021-12-23 15:24:10.358695,-21
2021-12-23 15:24:10.358701,-47
2021-12-23 15:24:10.358707,-71
2021-12-23 15:24:10.358713,-62
2021-12-23 15:24:10.358720,-55
2021-12-23 15:24:10.358726,-50
2021-12-23 15:24:10.358732,-33
2021-12-23 15:24:10.358739,-26
2021-12-23 15:24:10.358745,-31
2021-12-23 15:24:10.358751,-33
2021-12-23 15:24:10.358757,-21
2021-12-23 15:24:10.358764,-11
2021-12-23 15:24:10.671661,-2
2021-12-23 15:24:10.671685,9
2021-12-23 15:24:10.671692,2
2021-12-23 15:24:10.671698,-28
2021-12-23 15:24:10.671705,-31
2021-12-23 15:24:10.671711,14
2021-12-23 15:24:10.671718,40
2021-12-23 15:24:10.671724,26
2021-12-23 15:24:10.671730,-26
2021-12-23 15:24:10.671736,-83
2021-12-23 15:24:10.671742,-90
2021-12-23 15:24:10.671749,-83
2021-12-23 15:24:10.671755,-100
2021-12-23 15:24:10.671761,-110
2021-12-23 15:24:10.671767,-114
2021-12-23 15:24:10.671773,-126
2021-12-23 15:24:10.671786,-122
2021-12-23 15:24:10.671793,-100
2021-12-23 15:24:10.671799,-90
2021-12-23 15:24:10.671806,-98
2021-12-23 15:24:10.671812,-136
2021-12-23 15:24:10.671818,-189
2021-12-23 15:24:10.671824,-55
2021-12-23 15:24:10.671831,385
2021-12-23 15:24:10.671837,770
2021-12-23 15:24:10.671843,684
2021-12-23 15:24:10.671849,138
2021-12-23 15:24:10.671856,-330
2021-12-23 15:24:10.671862,-236
2021-12-23 15:24:10.671868,-4
2021-12-23 15:24:10.853356,-71
2021-12-23 15:24:10.853386,-138
2021-12-23 15:24:10.853398,-90
2021-12-23 15:24:10.853408,-88
2021-12-23 15:24:10.853417,-88
2021-12-23 15:24:10.853427,-55
2021-12-23 15:24:10.853437,-35
2021-12-23 15:24:10.853446,-26
2021-12-23 15:24:10.853456,-26
2021-12-23 15:24:10.853465,-38
2021-12-23 15:24:10.853475,-28
2021-12-23 15:24:10.853484,-2
2021-12-23 15:24:10.853494,38
2021-12-23 15:24:10.853504,76
2021-12-23 15:24:10.853513,62
2021-12-23 15:24:10.853523,50
2021-12-23 15:24:10.853532,114
2021-12-23 15:24:10.853542,196
2021-12-23 15:24:10.853552,256
2021-12-23 15:24:10.853561,294
2021-12-23 15:24:10.853571,306
2021-12-23 15:24:10.853580,275
2021-12-23 15:24:10.853590,234
2021-12-23 15:24:10.853600,258
2021-12-23 15:24:10.853609,284
2021-12-23 15:24:10.853619,236
2021-12-23 15:24:10.853628,160
2021-12-23 15:24:10.853638,110
2021-12-23 15:24:10.853647,71
2021-12-23 15:24:10.853657,31
2021-12-23 15:24:11.078307,0
2021-12-23 15:24:11.078337,-33
2021-12-23 15:24:11.078349,-71
2021-12-23 15:24:11.078359,-86
2021-12-23 15:24:11.078368,-69
2021-12-23 15:24:11.078378,-52
2021-12-23 15:24:11.078388,-50
2021-12-23 15:24:11.078397,-64
2021-12-23 15:24:11.078407,-88
2021-12-23 15:24:11.078417,-90
2021-12-23 15:24:11.078426,-69
2021-12-23 15:24:11.078436,-57
2021-12-23 15:24:11.078446,-66
2021-12-23 15:24:11.078462,-95
2021-12-23 15:24:11.078472,-110
2021-12-23 15:24:11.078482,-95
2021-12-23 15:24:11.078491,-81
2021-12-23 15:24:11.078501,-66
2021-12-23 15:24:11.078511,-45
2021-12-23 15:24:11.078520,-40
2021-12-23 15:24:11.078530,-47
2021-12-23 15:24:11.078539,-33
2021-12-23 15:24:11.078549,-9
2021-12-23 15:24:11.078559,2
2021-12-23 15:24:11.078568,4
2021-12-23 15:24:11.078578,-2
2021-12-23 15:24:11.078588,-7
2021-12-23 15:24:11.078597,-14
2021-12-23 15:24:11.078607,-45
2021-12-23 15:24:11.078616,-62
2021-12-23 15:24:11.303348,-40
2021-12-23 15:24:11.303377,-31
2021-12-23 15:24:11.303389,-38
2021-12-23 15:24:11.303399,-31
2021-12-23 15:24:11.303409,-26
2021-12-23 15:24:11.303418,-26
2021-12-23 15:24:11.303428,-35
2021-12-23 15:24:11.303437,-59
2021-12-23 15:24:11.303447,-74
2021-12-23 15:24:11.303457,-71
2021-12-23 15:24:11.303466,-66
2021-12-23 15:24:11.303476,-62
2021-12-23 15:24:11.303485,-86
2021-12-23 15:24:11.303495,-124
2021-12-23 15:24:11.303504,-141
2021-12-23 15:24:11.303514,-136
2021-12-23 15:24:11.303523,-112
2021-12-23 15:24:11.303533,-88
2021-12-23 15:24:11.303543,-83
2021-12-23 15:24:11.303552,-71
2021-12-23 15:24:11.303562,-57
2021-12-23 15:24:11.303571,-62
2021-12-23 15:24:11.303581,-43
2021-12-23 15:24:11.303590,-4
2021-12-23 15:24:11.303600,14
2021-12-23 15:24:11.303610,14
2021-12-23 15:24:11.303619,7
2021-12-23 15:24:11.303629,0
2021-12-23 15:24:11.303638,2
2021-12-23 15:24:11.303648,2
2021-12-23 15:24:11.528393,-23
2021-12-23 15:24:11.528435,-33
2021-12-23 15:24:11.528446,-16
2021-12-23 15:24:11.528456,-31
2021-12-23 15:24:11.528466,-62
2021-12-23 15:24:11.528475,-71
2021-12-23 15:24:11.528485,-93
2021-12-23 15:24:11.528495,-105
2021-12-23 15:24:11.528504,-95
2021-12-23 15:24:11.528514,-114
2021-12-23 15:24:11.528524,-179
2021-12-23 15:24:11.528533,-172
2021-12-23 15:24:11.528543,141
2021-12-23 15:24:11.528553,662
2021-12-23 15:24:11.528562,835
2021-12-23 15:24:11.528572,421
2021-12-23 15:24:11.528582,-212
2021-12-23 15:24:11.528601,-404
2021-12-23 15:24:11.528611,-122
2021-12-23 15:24:11.528620,-43
2021-12-23 15:24:11.528630,-162
2021-12-23 15:24:11.528640,-126
2021-12-23 15:24:11.528649,-71
2021-12-23 15:24:11.528659,-90
2021-12-23 15:24:11.528669,-74
2021-12-23 15:24:11.528678,-26
2021-12-23 15:24:11.528688,-2
2021-12-23 15:24:11.528698,7
2021-12-23 15:24:11.528708,21
2021-12-23 15:24:11.528717,33
2021-12-23 15:24:11.753360,52
2021-12-23 15:24:11.753390,86
2021-12-23 15:24:11.753401,107
2021-12-23 15:24:11.753411,83
2021-12-23 15:24:11.753421,66
2021-12-23 15:24:11.753430,95
2021-12-23 15:24:11.753440,124
2021-12-23 15:24:11.753450,160
2021-12-23 15:24:11.753459,215
2021-12-23 15:24:11.753469,246
2021-12-23 15:24:11.753478,253
2021-12-23 15:24:11.753488,256
2021-12-23 15:24:11.753498,251
2021-12-23 15:24:11.753507,251
2021-12-23 15:24:11.753517,232
2021-12-23 15:24:11.753527,169
2021-12-23 15:24:11.753537,76
2021-12-23 15:24:11.753546,-16
2021-12-23 15:24:11.753556,-93
2021-12-23 15:24:11.753566,-162
2021-12-23 15:24:11.753576,-203
2021-12-23 15:24:11.753585,-205
2021-12-23 15:24:11.753595,-208
2021-12-23 15:24:11.753605,-212
2021-12-23 15:24:11.753614,-193
2021-12-23 15:24:11.753624,-162
2021-12-23 15:24:11.753633,-153
2021-12-23 15:24:11.753643,-153
2021-12-23 15:24:11.753653,-145
2021-12-23 15:24:11.753662,-136
2021-12-23 15:24:11.978304,-124
2021-12-23 15:24:11.978334,-100
2021-12-23 15:24:11.978345,-90
2021-12-23 15:24:11.978355,-98
2021-12-23 15:24:11.978365,-105
2021-12-23 15:24:11.978375,-112
2021-12-23 15:24:11.978385,-105
2021-12-23 15:24:11.978394,-76
2021-12-23 15:24:11.978404,-64
2021-12-23 15:24:11.978413,-74
2021-12-23 15:24:11.978423,-88
2021-12-23 15:24:11.978433,-95
2021-12-23 15:24:11.978443,-71
2021-12-23 15:24:11.978452,-47
2021-12-23 15:24:11.978462,-45
2021-12-23 15:24:11.978472,-47
2021-12-23 15:24:11.978481,-43
2021-12-23 15:24:11.978491,-35
2021-12-23 15:24:11.978500,-21
2021-12-23 15:24:11.978510,-4
2021-12-23 15:24:11.978519,-23
2021-12-23 15:24:11.978529,-52
2021-12-23 15:24:11.978538,-57
2021-12-23 15:24:11.978548,-64
2021-12-23 15:24:11.978557,-78
2021-12-23 15:24:11.978567,-59
2021-12-23 15:24:11.978577,-35
2021-12-23 15:24:11.978586,-47
2021-12-23 15:24:11.978596,-57
2021-12-23 15:24:11.978615,-40
2021-12-23 15:24:12.203218,-23
2021-12-23 15:24:12.203240,-14
2021-12-23 15:24:12.203247,-11
2021-12-23 15:24:12.203254,-31
2021-12-23 15:24:12.203260,-62
2021-12-23 15:24:12.203267,-59
2021-12-23 15:24:12.203273,-26
2021-12-23 15:24:12.203279,-14
2021-12-23 15:24:12.203286,-45
2021-12-23 15:24:12.203292,-98
2021-12-23 15:24:12.203298,-119
2021-12-23 15:24:12.203305,-90
2021-12-23 15:24:12.203311,-71
2021-12-23 15:24:12.203317,-66
2021-12-23 15:24:12.203324,-62
2021-12-23 15:24:12.203330,-86
2021-12-23 15:24:12.203336,-102
2021-12-23 15:24:12.203342,-81
2021-12-23 15:24:12.203349,-59
2021-12-23 15:24:12.203355,-40
2021-12-23 15:24:12.203361,-35
2021-12-23 15:24:12.203367,-59
2021-12-23 15:24:12.203373,-76
2021-12-23 15:24:12.203380,-81
2021-12-23 15:24:12.203386,-81
2021-12-23 15:24:12.203392,-74
2021-12-23 15:24:12.203399,-81
2021-12-23 15:24:12.203405,-98
2021-12-23 15:24:12.203411,-93
2021-12-23 15:24:12.203417,-69
2021-12-23 15:24:12.518049,-57
2021-12-23 15:24:12.518069,-47
2021-12-23 15:24:12.518077,-45
2021-12-23 15:24:12.518084,-76
2021-12-23 15:24:12.518090,-105
2021-12-23 15:24:12.518096,-138
2021-12-23 15:24:12.518103,-133
2021-12-23 15:24:12.518109,160
2021-12-23 15:24:12.518115,701
2021-12-23 15:24:12.518122,961
2021-12-23 15:24:12.518128,674
2021-12-23 15:24:12.518134,28
2021-12-23 15:24:12.518141,-344
2021-12-23 15:24:12.518147,-107
2021-12-23 15:24:12.518153,52
2021-12-23 15:24:12.518160,-100
2021-12-23 15:24:12.518166,-102
2021-12-23 15:24:12.518173,-9
2021-12-23 15:24:12.518179,-23
2021-12-23 15:24:12.518185,-26
2021-12-23 15:24:12.518191,19
2021-12-23 15:24:12.518198,21
2021-12-23 15:24:12.518204,21
2021-12-23 15:24:12.518210,50
2021-12-23 15:24:12.518217,57
2021-12-23 15:24:12.518223,45
2021-12-23 15:24:12.518229,62
2021-12-23 15:24:12.518235,88
2021-12-23 15:24:12.518241,110
2021-12-23 15:24:12.518248,143
2021-12-23 15:24:12.786913,181
2021-12-23 15:24:12.786933,212
2021-12-23 15:24:12.786944,239
2021-12-23 15:24:12.786955,267
2021-12-23 15:24:12.786964,303
2021-12-23 15:24:12.786975,339
2021-12-23 15:24:12.786986,366
2021-12-23 15:24:12.786998,375
2021-12-23 15:24:12.787009,351
2021-12-23 15:24:12.787020,296
2021-12-23 15:24:12.787031,241
2021-12-23 15:24:12.787042,179
2021-12-23 15:24:12.787052,100
2021-12-23 15:24:12.787064,23
2021-12-23 15:24:12.787075,-66
2021-12-23 15:24:12.787084,-148
2021-12-23 15:24:12.787090,-157
2021-12-23 15:24:12.787097,-136
2021-12-23 15:24:12.787103,-141
2021-12-23 15:24:12.787109,-148
2021-12-23 15:24:12.787121,-162
2021-12-23 15:24:12.787128,-169
2021-12-23 15:24:12.787135,-131
2021-12-23 15:24:12.787143,-102
2021-12-23 15:24:12.787149,-100
2021-12-23 15:24:12.787155,-88
2021-12-23 15:24:12.787162,-81
2021-12-23 15:24:12.787168,-102
2021-12-23 15:24:12.787174,-110
2021-12-23 15:24:12.787180,-95
2021-12-23 15:24:12.923352,-90
2021-12-23 15:24:12.923383,-86
2021-12-23 15:24:12.923394,-81
2021-12-23 15:24:12.923404,-76
2021-12-23 15:24:12.923414,-62
2021-12-23 15:24:12.923424,-45
2021-12-23 15:24:12.923433,-43
2021-12-23 15:24:12.923443,-45
2021-12-23 15:24:12.923452,-43
2021-12-23 15:24:12.923462,-35
2021-12-23 15:24:12.923471,-33
2021-12-23 15:24:12.923481,-23
2021-12-23 15:24:12.923491,-11
2021-12-23 15:24:12.923500,-23
2021-12-23 15:24:12.923510,-55
2021-12-23 15:24:12.923519,-55
2021-12-23 15:24:12.923529,-35
2021-12-23 15:24:12.923538,-31
2021-12-23 15:24:12.923548,-33
2021-12-23 15:24:12.923558,-47
2021-12-23 15:24:12.923567,-83
2021-12-23 15:24:12.923577,-95
2021-12-23 15:24:12.923586,-78
2021-12-23 15:24:12.923596,-88
2021-12-23 15:24:12.923605,-98
2021-12-23 15:24:12.923615,-88
2021-12-23 15:24:12.923624,-88
2021-12-23 15:24:12.923634,-90
2021-12-23 15:24:12.923643,-86
2021-12-23 15:24:12.923653,-93
2021-12-23 15:24:13.193323,-100
2021-12-23 15:24:13.193353,-98
2021-12-23 15:24:13.193364,-98
2021-12-23 15:24:13.193375,-95
2021-12-23 15:24:13.193384,-83
2021-12-23 15:24:13.193394,-69
2021-12-23 15:24:13.193403,-74
2021-12-23 15:24:13.193413,-93
2021-12-23 15:24:13.193423,-93
2021-12-23 15:24:13.193432,-78
2021-12-23 15:24:13.193442,-78
2021-12-23 15:24:13.193452,-76
2021-12-23 15:24:13.193462,-81
2021-12-23 15:24:13.193471,-102
2021-12-23 15:24:13.193481,-93
2021-12-23 15:24:13.193490,-52
2021-12-23 15:24:13.193500,-23
2021-12-23 15:24:13.193509,0
2021-12-23 15:24:13.193519,7
2021-12-23 15:24:13.193529,-16
2021-12-23 15:24:13.193539,-59
2021-12-23 15:24:13.193548,-90
2021-12-23 15:24:13.193558,-86
2021-12-23 15:24:13.193567,-76
2021-12-23 15:24:13.193577,-83
2021-12-23 15:24:13.193586,-78
2021-12-23 15:24:13.193596,-62
2021-12-23 15:24:13.193606,-59
2021-12-23 15:24:13.193615,-50
2021-12-23 15:24:13.193625,-28
2021-12-23 15:24:13.373361,-28
2021-12-23 15:24:13.373383,-45
2021-12-23 15:24:13.373390,-66
2021-12-23 15:24:13.373397,-122
2021-12-23 15:24:13.373403,-81
2021-12-23 15:24:13.373410,282
2021-12-23 15:24:13.373416,779
2021-12-23 15:24:13.373422,952
2021-12-23 15:24:13.373429,610
2021-12-23 15:24:13.373435,-43
2021-12-23 15:24:13.373441,-320
2021-12-23 15:24:13.373448,-33
2021-12-23 15:24:13.373454,64
2021-12-23 15:24:13.373460,-90
2021-12-23 15:24:13.373467,-64
2021-12-23 15:24:13.373473,-2
2021-12-23 15:24:13.373479,-21
2021-12-23 15:24:13.373486,-14
2021-12-23 15:24:13.373492,0
2021-12-23 15:24:13.373498,-4
2021-12-23 15:24:13.373505,16
2021-12-23 15:24:13.373511,47
2021-12-23 15:24:13.373521,66
2021-12-23 15:24:13.373528,86
2021-12-23 15:24:13.373535,100
2021-12-23 15:24:13.373541,126
2021-12-23 15:24:13.373547,157
2021-12-23 15:24:13.373554,177
2021-12-23 15:24:13.373560,196
2021-12-23 15:24:13.373566,222
2021-12-23 15:24:13.687128,236
2021-12-23 15:24:13.687151,258
2021-12-23 15:24:13.687159,282
2021-12-23 15:24:13.687166,279
2021-12-23 15:24:13.687173,277
2021-12-23 15:24:13.687179,279
2021-12-23 15:24:13.687190,256
2021-12-23 15:24:13.687197,229
2021-12-23 15:24:13.687204,189
2021-12-23 15:24:13.687210,98
2021-12-23 15:24:13.687217,0
2021-12-23 15:24:13.687223,-83
2021-12-23 15:24:13.687230,-150
2021-12-23 15:24:13.687236,-177
2021-12-23 15:24:13.687243,-186
2021-12-23 15:24:13.687253,-200
2021-12-23 15:24:13.687260,-200
2021-12-23 15:24:13.687266,-186
2021-12-23 15:24:13.687272,-177
2021-12-23 15:24:13.687279,-162
2021-12-23 15:24:13.687285,-153
2021-12-23 15:24:13.687291,-160
2021-12-23 15:24:13.687298,-160
2021-12-23 15:24:13.687305,-160
2021-12-23 15:24:13.687314,-174
2021-12-23 15:24:13.687321,-191
2021-12-23 15:24:13.687327,-210
2021-12-23 15:24:13.687333,-222
2021-12-23 15:24:13.687340,-212
2021-12-23 15:24:13.687346,-198
2021-12-23 15:24:13.868348,-181
2021-12-23 15:24:13.868378,-157
2021-12-23 15:24:13.868390,-145
2021-12-23 15:24:13.868400,-148
2021-12-23 15:24:13.868409,-141
2021-12-23 15:24:13.868419,-136
2021-12-23 15:24:13.868429,-136
2021-12-23 15:24:13.868438,-122
2021-12-23 15:24:13.868448,-110
2021-12-23 15:24:13.868457,-114
2021-12-23 15:24:13.868467,-122
2021-12-23 15:24:13.868477,-122
2021-12-23 15:24:13.868486,-114
2021-12-23 15:24:13.868496,-100
2021-12-23 15:24:13.868505,-90
2021-12-23 15:24:13.868515,-83
2021-12-23 15:24:13.868524,-88
2021-12-23 15:24:13.868534,-93
2021-12-23 15:24:13.868543,-78
2021-12-23 15:24:13.868553,-59
2021-12-23 15:24:13.868563,-45
2021-12-23 15:24:13.868573,-45
2021-12-23 15:24:13.868582,-57
2021-12-23 15:24:13.868592,-55
2021-12-23 15:24:13.868601,-33
2021-12-23 15:24:13.868611,-19
2021-12-23 15:24:13.868620,-23
2021-12-23 15:24:13.868630,-33
2021-12-23 15:24:13.868639,-33
2021-12-23 15:24:13.868649,-28
2021-12-23 15:24:14.093348,-16
2021-12-23 15:24:14.093378,-4
2021-12-23 15:24:14.093390,4
2021-12-23 15:24:14.093400,-7
2021-12-23 15:24:14.093410,-31
2021-12-23 15:24:14.093419,-31
2021-12-23 15:24:14.093429,-19
2021-12-23 15:24:14.093439,-26
2021-12-23 15:24:14.093449,-31
2021-12-23 15:24:14.093458,-23
2021-12-23 15:24:14.093468,-19
2021-12-23 15:24:14.093477,-19
2021-12-23 15:24:14.093487,-4
2021-12-23 15:24:14.093497,16
2021-12-23 15:24:14.093506,38
2021-12-23 15:24:14.093516,47
2021-12-23 15:24:14.093525,33
2021-12-23 15:24:14.093535,23
2021-12-23 15:24:14.093545,33
2021-12-23 15:24:14.093554,45
2021-12-23 15:24:14.093563,38
2021-12-23 15:24:14.093573,11
2021-12-23 15:24:14.093583,-2
2021-12-23 15:24:14.093592,16
2021-12-23 15:24:14.093602,28
2021-12-23 15:24:14.093611,23
2021-12-23 15:24:14.093621,21
2021-12-23 15:24:14.093630,11
2021-12-23 15:24:14.093640,16
2021-12-23 15:24:14.093649,45
2021-12-23 15:24:14.318494,35
2021-12-23 15:24:14.318525,-50
2021-12-23 15:24:14.318537,-14
2021-12-23 15:24:14.318547,349
2021-12-23 15:24:14.318557,801
2021-12-23 15:24:14.318572,880
2021-12-23 15:24:14.318583,445
2021-12-23 15:24:14.318592,-148
2021-12-23 15:24:14.318602,-275
2021-12-23 15:24:14.318612,-28
2021-12-23 15:24:14.318622,-23
2021-12-23 15:24:14.318631,-110
2021-12-23 15:24:14.318641,-43
2021-12-23 15:24:14.318651,-33
2021-12-23 15:24:14.318660,-78
2021-12-23 15:24:14.318670,-45
2021-12-23 15:24:14.318680,-11
2021-12-23 15:24:14.318689,-4
2021-12-23 15:24:14.318699,23
2021-12-23 15:24:14.318709,57
2021-12-23 15:24:14.318718,64
2021-12-23 15:24:14.318728,55
2021-12-23 15:24:14.318737,69
2021-12-23 15:24:14.318747,114
2021-12-23 15:24:14.318757,143
2021-12-23 15:24:14.318766,136
2021-12-23 15:24:14.318776,138
2021-12-23 15:24:14.318785,150
2021-12-23 15:24:14.318801,167
2021-12-23 15:24:14.318811,200
2021-12-23 15:24:14.587691,234
2021-12-23 15:24:14.587711,256
2021-12-23 15:24:14.587719,265
2021-12-23 15:24:14.587725,258
2021-12-23 15:24:14.587731,256
2021-12-23 15:24:14.587738,248
2021-12-23 15:24:14.587744,203
2021-12-23 15:24:14.587750,133
2021-12-23 15:24:14.587756,45
2021-12-23 15:24:14.587763,-55
2021-12-23 15:24:14.587769,-126
2021-12-23 15:24:14.587775,-165
2021-12-23 15:24:14.587782,-174
2021-12-23 15:24:14.587788,-172
2021-12-23 15:24:14.587794,-208
2021-12-23 15:24:14.587800,-222
2021-12-23 15:24:14.587806,-162
2021-12-23 15:24:14.587813,-131
2021-12-23 15:24:14.587819,-162
2021-12-23 15:24:14.587825,-179
2021-12-23 15:24:14.587831,-181
2021-12-23 15:24:14.587838,-167
2021-12-23 15:24:14.587844,-138
2021-12-23 15:24:14.587850,-124
2021-12-23 15:24:14.587856,-126
2021-12-23 15:24:14.587863,-138
2021-12-23 15:24:14.587869,-143
2021-12-23 15:24:14.587875,-131
2021-12-23 15:24:14.587881,-107
2021-12-23 15:24:14.587887,-78
2021-12-23 15:24:14.812008,-28
2021-12-23 15:24:14.812037,4
2021-12-23 15:24:14.812049,-33
2021-12-23 15:24:14.812059,-55
2021-12-23 15:24:14.812069,7
2021-12-23 15:24:14.812078,76
2021-12-23 15:24:14.812088,88
2021-12-23 15:24:14.812098,45
2021-12-23 15:24:14.812108,-11
2021-12-23 15:24:14.812118,-11
2021-12-23 15:24:14.812128,0
2021-12-23 15:24:14.812138,-59
2021-12-23 15:24:14.812148,-100
2021-12-23 15:24:14.812158,-50
2021-12-23 15:24:14.812167,-45
2021-12-23 15:24:14.812177,-102
2021-12-23 15:24:14.812187,-59
2021-12-23 15:24:14.812197,21
2021-12-23 15:24:14.812207,-23
2021-12-23 15:24:14.812216,-76
2021-12-23 15:24:14.812226,-50
2021-12-23 15:24:14.812235,-47
2021-12-23 15:24:14.812245,-74
2021-12-23 15:24:14.812255,-47
2021-12-23 15:24:14.812264,2
2021-12-23 15:24:14.812274,7
2021-12-23 15:24:14.812284,-45
2021-12-23 15:24:14.812294,-69
2021-12-23 15:24:14.812303,-50
2021-12-23 15:24:14.812313,-57
2021-12-23 15:24:15.038336,-86
2021-12-23 15:24:15.038355,-81
2021-12-23 15:24:15.038361,-69
2021-12-23 15:24:15.038366,-69
2021-12-23 15:24:15.038371,-64
2021-12-23 15:24:15.038376,-43
2021-12-23 15:24:15.038381,-19
2021-12-23 15:24:15.038386,-23
2021-12-23 15:24:15.038391,-28
2021-12-23 15:24:15.038396,0
2021-12-23 15:24:15.038401,31
2021-12-23 15:24:15.038406,21
2021-12-23 15:24:15.038411,-9
2021-12-23 15:24:15.038416,-45
2021-12-23 15:24:15.038421,-55
2021-12-23 15:24:15.038426,-62
2021-12-23 15:24:15.038431,-81
2021-12-23 15:24:15.038436,-69
2021-12-23 15:24:15.038441,-50
2021-12-23 15:24:15.038446,-59
2021-12-23 15:24:15.038450,-52
2021-12-23 15:24:15.038456,-31
2021-12-23 15:24:15.038461,-26
2021-12-23 15:24:15.038466,-33
2021-12-23 15:24:15.038470,-50
2021-12-23 15:24:15.038475,-107
2021-12-23 15:24:15.038480,-95
2021-12-23 15:24:15.038485,224
2021-12-23 15:24:15.038490,748
2021-12-23 15:24:15.038495,966
2021-12-23 15:24:15.262742,641
2021-12-23 15:24:15.262779,78
2021-12-23 15:24:15.262790,-155
2021-12-23 15:24:15.262800,14
2021-12-23 15:24:15.262810,88
2021-12-23 15:24:15.262820,28
2021-12-23 15:24:15.262829,43
2021-12-23 15:24:15.262838,50
2021-12-23 15:24:15.262848,40
2021-12-23 15:24:15.262857,62
2021-12-23 15:24:15.262867,47
2021-12-23 15:24:15.262877,-31
2021-12-23 15:24:15.262886,-45
2021-12-23 15:24:15.262896,7
2021-12-23 15:24:15.262905,-7
2021-12-23 15:24:15.262915,-31
2021-12-23 15:24:15.262924,59
2021-12-23 15:24:15.262934,157
2021-12-23 15:24:15.262943,150
2021-12-23 15:24:15.262953,136
2021-12-23 15:24:15.262962,193
2021-12-23 15:24:15.262971,246
2021-12-23 15:24:15.262981,256
2021-12-23 15:24:15.262990,265
2021-12-23 15:24:15.263000,282
2021-12-23 15:24:15.263009,296
2021-12-23 15:24:15.263019,296
2021-12-23 15:24:15.263028,291
2021-12-23 15:24:15.263038,289
2021-12-23 15:24:15.263047,256
2021-12-23 15:24:15.532020,172
2021-12-23 15:24:15.532037,95
2021-12-23 15:24:15.532042,35
2021-12-23 15:24:15.532047,-33
2021-12-23 15:24:15.532104,-98
2021-12-23 15:24:15.532109,-160
2021-12-23 15:24:15.532113,-210
2021-12-23 15:24:15.532117,-215
2021-12-23 15:24:15.532122,-220
2021-12-23 15:24:15.532126,-258
2021-12-23 15:24:15.532130,-244
2021-12-23 15:24:15.532135,-227
2021-12-23 15:24:15.532139,-270
2021-12-23 15:24:15.532144,-265
2021-12-23 15:24:15.532148,-239
2021-12-23 15:24:15.532152,-263
2021-12-23 15:24:15.532156,-253
2021-12-23 15:24:15.532161,-222
2021-12-23 15:24:15.532165,-229
2021-12-23 15:24:15.532169,-239
2021-12-23 15:24:15.532174,-227
2021-12-23 15:24:15.532178,-205
2021-12-23 15:24:15.532182,-184
2021-12-23 15:24:15.532186,-169
2021-12-23 15:24:15.532191,-155
2021-12-23 15:24:15.532195,-136
2021-12-23 15:24:15.532199,-119
2021-12-23 15:24:15.532204,-110
2021-12-23 15:24:15.532208,-98
2021-12-23 15:24:15.532212,-78
2021-12-23 15:24:15.667646,-14
2021-12-23 15:24:15.667660,52
2021-12-23 15:24:15.667666,14
2021-12-23 15:24:15.667670,-66
2021-12-23 15:24:15.667675,-62
2021-12-23 15:24:15.667679,7
2021-12-23 15:24:15.667684,26
2021-12-23 15:24:15.667688,4
2021-12-23 15:24:15.667693,26
2021-12-23 15:24:15.667697,52
2021-12-23 15:24:15.667701,28
2021-12-23 15:24:15.667705,-2
2021-12-23 15:24:15.667710,-16
2021-12-23 15:24:15.667714,-2
2021-12-23 15:24:15.667719,45
2021-12-23 15:24:15.667723,52
2021-12-23 15:24:15.667727,2
2021-12-23 15:24:15.667731,-14
2021-12-23 15:24:15.667736,21
2021-12-23 15:24:15.667740,40
2021-12-23 15:24:15.667744,-4
2021-12-23 15:24:15.667749,-78
2021-12-23 15:24:15.667753,-119
2021-12-23 15:24:15.667757,-110
2021-12-23 15:24:15.667762,-112
2021-12-23 15:24:15.667766,-143
2021-12-23 15:24:15.667770,-150
2021-12-23 15:24:15.667774,-145
2021-12-23 15:24:15.667779,-143
2021-12-23 15:24:15.667783,-119
2021-12-23 15:24:15.893046,-52
2021-12-23 15:24:15.893068,33
2021-12-23 15:24:15.893076,57
2021-12-23 15:24:15.893082,9
2021-12-23 15:24:15.893089,-50
2021-12-23 15:24:15.893095,-88
2021-12-23 15:24:15.893101,69
2021-12-23 15:24:15.893108,543
2021-12-23 15:24:15.893114,904
2021-12-23 15:24:15.893120,672
2021-12-23 15:24:15.893126,40
2021-12-23 15:24:15.893133,-325
2021-12-23 15:24:15.893139,-141
2021-12-23 15:24:15.893145,9
2021-12-23 15:24:15.893152,-86
2021-12-23 15:24:15.893158,-66
2021-12-23 15:24:15.893164,-21
2021-12-23 15:24:15.893171,-2
2021-12-23 15:24:15.893177,83
2021-12-23 15:24:15.893183,114
2021-12-23 15:24:15.893190,83
2021-12-23 15:24:15.893196,81
2021-12-23 15:24:15.893202,86
2021-12-23 15:24:15.893208,81
2021-12-23 15:24:15.893215,86
2021-12-23 15:24:15.893221,100
2021-12-23 15:24:15.893227,93
2021-12-23 15:24:15.893233,83
2021-12-23 15:24:15.893239,122
2021-12-23 15:24:15.893246,172
2021-12-23 15:24:16.207629,212
2021-12-23 15:24:16.207650,263
2021-12-23 15:24:16.207657,248
2021-12-23 15:24:16.207664,193
2021-12-23 15:24:16.207670,210
2021-12-23 15:24:16.207676,277
2021-12-23 15:24:16.207683,301
2021-12-23 15:24:16.207689,282
2021-12-23 15:24:16.207695,246
2021-12-23 15:24:16.207701,162
2021-12-23 15:24:16.207707,47
2021-12-23 15:24:16.207721,-43
2021-12-23 15:24:16.207728,-124
2021-12-23 15:24:16.207735,-203
2021-12-23 15:24:16.207741,-251
2021-12-23 15:24:16.207747,-289
2021-12-23 15:24:16.207753,-315
2021-12-23 15:24:16.207759,-303
2021-12-23 15:24:16.207766,-232
2021-12-23 15:24:16.207772,-122
2021-12-23 15:24:16.207778,-105
2021-12-23 15:24:16.207785,-179
2021-12-23 15:24:16.207791,-205
2021-12-23 15:24:16.207797,-186
2021-12-23 15:24:16.207803,-212
2021-12-23 15:24:16.207810,-260
2021-12-23 15:24:16.207816,-265
2021-12-23 15:24:16.207822,-232
2021-12-23 15:24:16.207828,-205
2021-12-23 15:24:16.207834,-191
2021-12-23 15:24:16.387661,-169
2021-12-23 15:24:16.387682,-148
2021-12-23 15:24:16.387689,-133
2021-12-23 15:24:16.387696,-138
2021-12-23 15:24:16.387702,-133
2021-12-23 15:24:16.387709,-114
2021-12-23 15:24:16.387715,-100
2021-12-23 15:24:16.387721,-98
2021-12-23 15:24:16.387727,-114
2021-12-23 15:24:16.387733,-136
2021-12-23 15:24:16.387740,-114
2021-12-23 15:24:16.387746,-88
2021-12-23 15:24:16.387752,-83
2021-12-23 15:24:16.387758,-78
2021-12-23 15:24:16.387765,-95
2021-12-23 15:24:16.387771,-119
2021-12-23 15:24:16.387777,-100
2021-12-23 15:24:16.387783,-74
2021-12-23 15:24:16.387789,-66
2021-12-23 15:24:16.387796,-62
2021-12-23 15:24:16.387802,-66
2021-12-23 15:24:16.387808,-83
2021-12-23 15:24:16.387814,-71
2021-12-23 15:24:16.387820,-47
2021-12-23 15:24:16.387826,-45
2021-12-23 15:24:16.387833,-33
2021-12-23 15:24:16.387839,-7
2021-12-23 15:24:16.387845,-7
2021-12-23 15:24:16.387851,-31
2021-12-23 15:24:16.387857,-28
2021-12-23 15:24:16.612479,-11
2021-12-23 15:24:16.612495,-21
2021-12-23 15:24:16.612501,-40
2021-12-23 15:24:16.612506,-45
2021-12-23 15:24:16.612511,-33
2021-12-23 15:24:16.612516,-19
2021-12-23 15:24:16.612521,-9
2021-12-23 15:24:16.612526,-14
2021-12-23 15:24:16.612531,-35
2021-12-23 15:24:16.612536,-43
2021-12-23 15:24:16.612541,-26
2021-12-23 15:24:16.612547,-21
2021-12-23 15:24:16.612552,-62
2021-12-23 15:24:16.612557,-76
2021-12-23 15:24:16.612562,189
2021-12-23 15:24:16.612567,715
2021-12-23 15:24:16.612572,959
2021-12-23 15:24:16.612577,612
2021-12-23 15:24:16.612582,-35
2021-12-23 15:24:16.612587,-322
2021-12-23 15:24:16.612592,-71
2021-12-23 15:24:16.612597,50
2021-12-23 15:24:16.612602,-71
2021-12-23 15:24:16.612607,-50
2021-12-23 15:24:16.612612,14
2021-12-23 15:24:16.612617,-7
2021-12-23 15:24:16.612622,2
2021-12-23 15:24:16.612627,57
2021-12-23 15:24:16.612632,83
2021-12-23 15:24:16.612637,66
2021-12-23 15:24:16.926378,50
2021-12-23 15:24:16.926400,50
2021-12-23 15:24:16.926408,43
2021-12-23 15:24:16.926414,57
2021-12-23 15:24:16.926421,105
2021-12-23 15:24:16.926459,136
2021-12-23 15:24:16.926466,136
2021-12-23 15:24:16.926472,81
2021-12-23 15:24:16.926478,31
2021-12-23 15:24:16.926485,86
2021-12-23 15:24:16.926491,177
2021-12-23 15:24:16.926497,215
2021-12-23 15:24:16.926503,246
2021-12-23 15:24:16.926510,306
2021-12-23 15:24:16.926516,397
2021-12-23 15:24:16.926523,452
2021-12-23 15:24:16.926529,389
2021-12-23 15:24:16.926535,282
2021-12-23 15:24:16.926542,193
2021-12-23 15:24:16.926548,95
2021-12-23 15:24:16.926554,7
2021-12-23 15:24:16.926561,-45
2021-12-23 15:24:16.926567,-83
2021-12-23 15:24:16.926574,-105
2021-12-23 15:24:16.926580,-112
2021-12-23 15:24:16.926586,-114
2021-12-23 15:24:16.926592,-107
2021-12-23 15:24:16.926599,-100
2021-12-23 15:24:16.926605,-90
2021-12-23 15:24:16.926612,-69
2021-12-23 15:24:17.108353,-55
2021-12-23 15:24:17.108383,-66
2021-12-23 15:24:17.108395,-86
2021-12-23 15:24:17.108405,-93
2021-12-23 15:24:17.108414,-81
2021-12-23 15:24:17.108424,-43
2021-12-23 15:24:17.108433,-35
2021-12-23 15:24:17.108443,-71
2021-12-23 15:24:17.108453,-105
2021-12-23 15:24:17.108462,-107
2021-12-23 15:24:17.108472,-78
2021-12-23 15:24:17.108482,-66
2021-12-23 15:24:17.108491,-98
2021-12-23 15:24:17.108501,-110
2021-12-23 15:24:17.108510,-95
2021-12-23 15:24:17.108520,-110
2021-12-23 15:24:17.108530,-126
2021-12-23 15:24:17.108539,-119
2021-12-23 15:24:17.108549,-141
2021-12-23 15:24:17.108559,-162
2021-12-23 15:24:17.108568,-141
2021-12-23 15:24:17.108578,-129
2021-12-23 15:24:17.108587,-124
2021-12-23 15:24:17.108597,-100
2021-12-23 15:24:17.108606,-83
2021-12-23 15:24:17.108616,-83
2021-12-23 15:24:17.108626,-78
2021-12-23 15:24:17.108635,-71
2021-12-23 15:24:17.108645,-64
2021-12-23 15:24:17.108654,-59
2021-12-23 15:24:17.378284,-55
2021-12-23 15:24:17.378314,-35
2021-12-23 15:24:17.378325,-26
2021-12-23 15:24:17.378335,-57
2021-12-23 15:24:17.378344,-69
2021-12-23 15:24:17.378354,-45
2021-12-23 15:24:17.378363,-52
2021-12-23 15:24:17.378373,-95
2021-12-23 15:24:17.378392,-88
2021-12-23 15:24:17.378403,-59
2021-12-23 15:24:17.378412,-71
2021-12-23 15:24:17.378422,-90
2021-12-23 15:24:17.378432,-90
2021-12-23 15:24:17.378441,-66
2021-12-23 15:24:17.378451,-19
2021-12-23 15:24:17.378461,7
2021-12-23 15:24:17.378470,-19
2021-12-23 15:24:17.378480,-59
2021-12-23 15:24:17.378490,-64
2021-12-23 15:24:17.378499,-47
2021-12-23 15:24:17.378509,-50
2021-12-23 15:24:17.378519,-57
2021-12-23 15:24:17.378529,-52
2021-12-23 15:24:17.378538,-55
2021-12-23 15:24:17.378548,-45
2021-12-23 15:24:17.378557,-11
2021-12-23 15:24:17.378567,-2
2021-12-23 15:24:17.378577,-14
2021-12-23 15:24:17.378586,-19
2021-12-23 15:24:17.378596,-47
2021-12-23 15:24:17.513448,-90
2021-12-23 15:24:17.513469,64
2021-12-23 15:24:17.513476,533
2021-12-23 15:24:17.513483,959
2021-12-23 15:24:17.513489,930
2021-12-23 15:24:17.513495,394
2021-12-23 15:24:17.513502,-212
2021-12-23 15:24:17.513508,-232
2021-12-23 15:24:17.513514,69
2021-12-23 15:24:17.513521,35
2021-12-23 15:24:17.513527,-86
2021-12-23 15:24:17.513533,-28
2021-12-23 15:24:17.513539,0
2021-12-23 15:24:17.513545,-16
2021-12-23 15:24:17.513552,16
2021-12-23 15:24:17.513558,38
2021-12-23 15:24:17.513564,21
2021-12-23 15:24:17.513570,19
2021-12-23 15:24:17.513577,45
2021-12-23 15:24:17.513583,69
2021-12-23 15:24:17.513589,86
2021-12-23 15:24:17.513595,107
2021-12-23 15:24:17.513602,107
2021-12-23 15:24:17.513608,105
2021-12-23 15:24:17.513614,148
2021-12-23 15:24:17.513620,210
2021-12-23 15:24:17.513626,246
2021-12-23 15:24:17.513633,272
2021-12-23 15:24:17.513639,296
2021-12-23 15:24:17.513645,322
2021-12-23 15:24:17.783342,354
2021-12-23 15:24:17.783372,373
2021-12-23 15:24:17.783383,373
2021-12-23 15:24:17.783394,342
2021-12-23 15:24:17.783403,275
2021-12-23 15:24:17.783412,184
2021-12-23 15:24:17.783422,98
2021-12-23 15:24:17.783431,7
2021-12-23 15:24:17.783441,-86
2021-12-23 15:24:17.783451,-160
2021-12-23 15:24:17.783460,-210
2021-12-23 15:24:17.783470,-244
2021-12-23 15:24:17.783479,-265
2021-12-23 15:24:17.783489,-275
2021-12-23 15:24:17.783498,-275
2021-12-23 15:24:17.783507,-270
2021-12-23 15:24:17.783517,-256
2021-12-23 15:24:17.783526,-236
2021-12-23 15:24:17.783536,-222
2021-12-23 15:24:17.783545,-203
2021-12-23 15:24:17.783555,-186
2021-12-23 15:24:17.783564,-189
2021-12-23 15:24:17.783573,-191
2021-12-23 15:24:17.783583,-160
2021-12-23 15:24:17.783592,-129
2021-12-23 15:24:17.783601,-119
2021-12-23 15:24:17.783611,-117
2021-12-23 15:24:17.783620,-119
2021-12-23 15:24:17.783630,-119
2021-12-23 15:24:17.783639,-102
2021-12-23 15:24:18.008289,-81
2021-12-23 15:24:18.008318,-66
2021-12-23 15:24:18.008329,-66
2021-12-23 15:24:18.008340,-90
2021-12-23 15:24:18.008349,-122
2021-12-23 15:24:18.008359,-129
2021-12-23 15:24:18.008369,-122
2021-12-23 15:24:18.008379,-117
2021-12-23 15:24:18.008388,-131
2021-12-23 15:24:18.008398,-160
2021-12-23 15:24:18.008408,-169
2021-12-23 15:24:18.008417,-150
2021-12-23 15:24:18.008427,-133
2021-12-23 15:24:18.008437,-126
2021-12-23 15:24:18.008446,-126
2021-12-23 15:24:18.008456,-150
2021-12-23 15:24:18.008466,-160
2021-12-23 15:24:18.008475,-131
2021-12-23 15:24:18.008485,-112
2021-12-23 15:24:18.008495,-102
2021-12-23 15:24:18.008504,-98
2021-12-23 15:24:18.008514,-100
2021-12-23 15:24:18.008524,-95
2021-12-23 15:24:18.008533,-71
2021-12-23 15:24:18.008543,-55
2021-12-23 15:24:18.008553,-50
2021-12-23 15:24:18.008562,-57
2021-12-23 15:24:18.008572,-66
2021-12-23 15:24:18.008582,-55
2021-12-23 15:24:18.008592,-33
2021-12-23 15:24:18.278430,-19
2021-12-23 15:24:18.278474,-11
2021-12-23 15:24:18.278486,-19
2021-12-23 15:24:18.278496,-35
2021-12-23 15:24:18.278505,-26
2021-12-23 15:24:18.278515,0
2021-12-23 15:24:18.278524,7
2021-12-23 15:24:18.278534,7
2021-12-23 15:24:18.278544,-4
2021-12-23 15:24:18.278553,-31
2021-12-23 15:24:18.278563,-26
2021-12-23 15:24:18.278572,-14
2021-12-23 15:24:18.278582,-40
2021-12-23 15:24:18.278591,-50
2021-12-23 15:24:18.278600,-43
2021-12-23 15:24:18.278610,-66
2021-12-23 15:24:18.278619,-81
2021-12-23 15:24:18.278629,-88
2021-12-23 15:24:18.278638,-95
2021-12-23 15:24:18.278648,-66
2021-12-23 15:24:18.278657,-47
2021-12-23 15:24:18.278667,-38
2021-12-23 15:24:18.278677,-16
2021-12-23 15:24:18.278686,-16
2021-12-23 15:24:18.278695,-19
2021-12-23 15:24:18.278705,-7
2021-12-23 15:24:18.278714,-14
2021-12-23 15:24:18.278724,-40
2021-12-23 15:24:18.278733,-50
2021-12-23 15:24:18.278743,-26
2021-12-23 15:24:18.503270,-7
2021-12-23 15:24:18.503291,-2
2021-12-23 15:24:18.503299,-2
2021-12-23 15:24:18.503305,-2
2021-12-23 15:24:18.503311,7
2021-12-23 15:24:18.503318,23
2021-12-23 15:24:18.503324,14
2021-12-23 15:24:18.503330,-55
2021-12-23 15:24:18.503336,-66
2021-12-23 15:24:18.503342,263
2021-12-23 15:24:18.503349,811
2021-12-23 15:24:18.503355,1024
2021-12-23 15:24:18.503361,669
2021-12-23 15:24:18.503367,26
2021-12-23 15:24:18.503373,-279
2021-12-23 15:24:18.503379,-45
2021-12-23 15:24:18.503386,76
2021-12-23 15:24:18.503392,-47
2021-12-23 15:24:18.503398,-35
2021-12-23 15:24:18.503404,11
2021-12-23 15:24:18.503410,-38
2021-12-23 15:24:18.503417,-33
2021-12-23 15:24:18.503423,21
2021-12-23 15:24:18.503433,33
2021-12-23 15:24:18.503440,35
2021-12-23 15:24:18.503446,59
2021-12-23 15:24:18.503452,76
2021-12-23 15:24:18.503458,90
2021-12-23 15:24:18.503464,114
2021-12-23 15:24:18.503470,145
2021-12-23 15:24:18.682788,174
2021-12-23 15:24:18.682808,198
2021-12-23 15:24:18.682816,217
2021-12-23 15:24:18.682822,239
2021-12-23 15:24:18.682829,272
2021-12-23 15:24:18.682835,313
2021-12-23 15:24:18.682842,346
2021-12-23 15:24:18.682848,349
2021-12-23 15:24:18.682854,337
2021-12-23 15:24:18.682861,346
2021-12-23 15:24:18.682867,354
2021-12-23 15:24:18.682874,322
2021-12-23 15:24:18.682880,256
2021-12-23 15:24:18.682886,174
2021-12-23 15:24:18.682893,88
2021-12-23 15:24:18.682899,-4
2021-12-23 15:24:18.682905,-98
2021-12-23 15:24:18.682912,-145
2021-12-23 15:24:18.682918,-155
2021-12-23 15:24:18.682924,-186
2021-12-23 15:24:18.682931,-210
2021-12-23 15:24:18.682937,-208
2021-12-23 15:24:18.682943,-220
2021-12-23 15:24:18.682950,-246
2021-12-23 15:24:18.682956,-232
2021-12-23 15:24:18.682962,-200
2021-12-23 15:24:18.682969,-189
2021-12-23 15:24:18.682975,-179
2021-12-23 15:24:18.682981,-160
2021-12-23 15:24:18.682988,-141
2021-12-23 15:24:18.952691,-131
2021-12-23 15:24:18.952720,-119
2021-12-23 15:24:18.952732,-105
2021-12-23 15:24:18.952742,-114
2021-12-23 15:24:18.952751,-129
2021-12-23 15:24:18.952760,-129
2021-12-23 15:24:18.952770,-157
2021-12-23 15:24:18.952779,-184
2021-12-23 15:24:18.952789,-165
2021-12-23 15:24:18.952798,-143
2021-12-23 15:24:18.952807,-129
2021-12-23 15:24:18.952817,-107
2021-12-23 15:24:18.952827,-114
2021-12-23 15:24:18.952836,-112
2021-12-23 15:24:18.952845,-76
2021-12-23 15:24:18.952855,-59
2021-12-23 15:24:18.952864,-81
2021-12-23 15:24:18.952874,-102
2021-12-23 15:24:18.952883,-100
2021-12-23 15:24:18.952892,-93
2021-12-23 15:24:18.952902,-71
2021-12-23 15:24:18.952911,-31
2021-12-23 15:24:18.952920,-7
2021-12-23 15:24:18.952929,-9
2021-12-23 15:24:18.952939,-14
2021-12-23 15:24:18.952948,-11
2021-12-23 15:24:18.952957,0
2021-12-23 15:24:18.952967,7
2021-12-23 15:24:18.952976,9
2021-12-23 15:24:18.952986,14
2021-12-23 15:24:19.133309,16
2021-12-23 15:24:19.133339,21
2021-12-23 15:24:19.133350,28
2021-12-23 15:24:19.133359,28
2021-12-23 15:24:19.133369,26
2021-12-23 15:24:19.133379,11
2021-12-23 15:24:19.133388,-9
2021-12-23 15:24:19.133398,-4
2021-12-23 15:24:19.133408,7
2021-12-23 15:24:19.133417,4
2021-12-23 15:24:19.133427,4
2021-12-23 15:24:19.133436,2
2021-12-23 15:24:19.133446,-14
2021-12-23 15:24:19.133455,-4
2021-12-23 15:24:19.133465,21
2021-12-23 15:24:19.133474,31
2021-12-23 15:24:19.133484,52
2021-12-23 15:24:19.133540,62
2021-12-23 15:24:19.133550,26
2021-12-23 15:24:19.133560,0
2021-12-23 15:24:19.133570,-14
2021-12-23 15:24:19.133580,-23
2021-12-23 15:24:19.133589,-9
2021-12-23 15:24:19.133599,-19
2021-12-23 15:24:19.133609,-52
2021-12-23 15:24:19.133618,-28
2021-12-23 15:24:19.133628,26
2021-12-23 15:24:19.133638,21
2021-12-23 15:24:19.133647,-19
2021-12-23 15:24:19.133657,-28
2021-12-23 15:24:19.402706,-33
2021-12-23 15:24:19.402726,-59
2021-12-23 15:24:19.402734,-124
2021-12-23 15:24:19.402740,-129
2021-12-23 15:24:19.402747,169
2021-12-23 15:24:19.402753,634
2021-12-23 15:24:19.402759,772
2021-12-23 15:24:19.402766,437
2021-12-23 15:24:19.402772,-138
2021-12-23 15:24:19.402779,-404
2021-12-23 15:24:19.402785,-186
2021-12-23 15:24:19.402791,-90
2021-12-23 15:24:19.402798,-200
2021-12-23 15:24:19.402804,-153
2021-12-23 15:24:19.402810,-78
2021-12-23 15:24:19.402817,-102
2021-12-23 15:24:19.402823,-100
2021-12-23 15:24:19.402829,-55
2021-12-23 15:24:19.402835,-35
2021-12-23 15:24:19.402842,-16
2021-12-23 15:24:19.402848,11
2021-12-23 15:24:19.402854,16
2021-12-23 15:24:19.402861,2
2021-12-23 15:24:19.402867,11
2021-12-23 15:24:19.402874,57
2021-12-23 15:24:19.402880,100
2021-12-23 15:24:19.402886,129
2021-12-23 15:24:19.402893,160
2021-12-23 15:24:19.402899,198
2021-12-23 15:24:19.402905,244
2021-12-23 15:24:19.673357,294
2021-12-23 15:24:19.673387,332
2021-12-23 15:24:19.673398,334
2021-12-23 15:24:19.673408,327
2021-12-23 15:24:19.673418,339
2021-12-23 15:24:19.673427,344
2021-12-23 15:24:19.673437,315
2021-12-23 15:24:19.673447,260
2021-12-23 15:24:19.673456,189
2021-12-23 15:24:19.673467,131
2021-12-23 15:24:19.673476,66
2021-12-23 15:24:19.673486,-16
2021-12-23 15:24:19.673496,-66
2021-12-23 15:24:19.673505,-114
2021-12-23 15:24:19.673515,-198
2021-12-23 15:24:19.673525,-217
2021-12-23 15:24:19.673534,-162
2021-12-23 15:24:19.673544,-117
2021-12-23 15:24:19.673554,-98
2021-12-23 15:24:19.673563,-86
2021-12-23 15:24:19.673573,-66
2021-12-23 15:24:19.673582,-64
2021-12-23 15:24:19.673592,-86
2021-12-23 15:24:19.673602,-114
2021-12-23 15:24:19.673611,-105
2021-12-23 15:24:19.673621,-33
2021-12-23 15:24:19.673631,-7
2021-12-23 15:24:19.673640,-143
2021-12-23 15:24:19.673650,-279
2021-12-23 15:24:19.673660,-251
2021-12-23 15:24:19.897764,-212
2021-12-23 15:24:19.897794,-241
2021-12-23 15:24:19.897806,-234
2021-12-23 15:24:19.897816,-222
2021-12-23 15:24:19.897826,-179
2021-12-23 15:24:19.897835,-45
2021-12-23 15:24:19.897845,26
2021-12-23 15:24:19.897855,-7
2021-12-23 15:24:19.897864,-7
2021-12-23 15:24:19.897874,-4
2021-12-23 15:24:19.897884,-38
2021-12-23 15:24:19.897893,-35
2021-12-23 15:24:19.897903,-11
2021-12-23 15:24:19.897913,-16
2021-12-23 15:24:19.897922,-33
2021-12-23 15:24:19.897932,-64
2021-12-23 15:24:19.897941,-78
2021-12-23 15:24:19.897951,-52
2021-12-23 15:24:19.897960,-38
2021-12-23 15:24:19.897970,-52
2021-12-23 15:24:19.897980,-59
2021-12-23 15:24:19.897989,-62
2021-12-23 15:24:19.897999,-55
2021-12-23 15:24:19.898008,-35
2021-12-23 15:24:19.898018,-21
2021-12-23 15:24:19.898028,-28
2021-12-23 15:24:19.898037,-57
2021-12-23 15:24:19.898047,-78
2021-12-23 15:24:19.898056,-59
2021-12-23 15:24:19.898071,-35
2021-12-23 15:24:20.078201,-28
2021-12-23 15:24:20.078223,-11
2021-12-23 15:24:20.078231,-7
2021-12-23 15:24:20.078237,-26
2021-12-23 15:24:20.078244,-28
2021-12-23 15:24:20.078250,-2
2021-12-23 15:24:20.078256,19
2021-12-23 15:24:20.078263,31
2021-12-23 15:24:20.078269,35
2021-12-23 15:24:20.078275,19
2021-12-23 15:24:20.078281,0
2021-12-23 15:24:20.078288,9
2021-12-23 15:24:20.078294,21
2021-12-23 15:24:20.078300,16
2021-12-23 15:24:20.078307,-16
2021-12-23 15:24:20.078313,-59
2021-12-23 15:24:20.078319,-50
2021-12-23 15:24:20.078329,-14
2021-12-23 15:24:20.078340,-9
2021-12-23 15:24:20.078352,-14
2021-12-23 15:24:20.078365,-21
2021-12-23 15:24:20.078376,-33
2021-12-23 15:24:20.078385,-16
2021-12-23 15:24:20.078392,-4
2021-12-23 15:24:20.078398,-52
2021-12-23 15:24:20.078404,-55
2021-12-23 15:24:20.078410,227
2021-12-23 15:24:20.078417,715
2021-12-23 15:24:20.078423,882
2021-12-23 15:24:20.078429,490
2021-12-23 15:24:20.303391,-95
2021-12-23 15:24:20.303437,-291
2021-12-23 15:24:20.303449,-57
2021-12-23 15:24:20.303459,26
2021-12-23 15:24:20.303469,-86
2021-12-23 15:24:20.303478,-126
2021-12-23 15:24:20.303488,-153
2021-12-23 15:24:20.303498,-160
2021-12-23 15:24:20.303507,-143
2021-12-23 15:24:20.303517,-169
2021-12-23 15:24:20.303527,-186
2021-12-23 15:24:20.303536,-145
2021-12-23 15:24:20.303546,-98
2021-12-23 15:24:20.303556,-52
2021-12-23 15:24:20.303566,23
2021-12-23 15:24:20.303575,71
2021-12-23 15:24:20.303585,66
2021-12-23 15:24:20.303595,90
2021-12-23 15:24:20.303604,136
2021-12-23 15:24:20.303614,157
2021-12-23 15:24:20.303624,179
2021-12-23 15:24:20.303633,205
2021-12-23 15:24:20.303643,229
2021-12-23 15:24:20.303653,246
2021-12-23 15:24:20.303662,246
2021-12-23 15:24:20.303672,236
2021-12-23 15:24:20.303682,234
2021-12-23 15:24:20.303691,234
2021-12-23 15:24:20.303701,215
2021-12-23 15:24:20.303710,153
2021-12-23 15:24:20.528461,45
2021-12-23 15:24:20.528491,-62
2021-12-23 15:24:20.528503,-138
2021-12-23 15:24:20.528513,-200
2021-12-23 15:24:20.528523,-234
2021-12-23 15:24:20.528532,-234
2021-12-23 15:24:20.528542,-258
2021-12-23 15:24:20.528552,-320
2021-12-23 15:24:20.528561,-346
2021-12-23 15:24:20.528571,-327
2021-12-23 15:24:20.528581,-315
2021-12-23 15:24:20.528590,-303
2021-12-23 15:24:20.528600,-287
2021-12-23 15:24:20.528609,-294
2021-12-23 15:24:20.528619,-296
2021-12-23 15:24:20.528628,-270
2021-12-23 15:24:20.528638,-246
2021-12-23 15:24:20.528648,-244
2021-12-23 15:24:20.528658,-234
2021-12-23 15:24:20.528667,-210
2021-12-23 15:24:20.528677,-198
2021-12-23 15:24:20.528686,-196
2021-12-23 15:24:20.528696,-177
2021-12-23 15:24:20.528705,-148
2021-12-23 15:24:20.528715,-136
2021-12-23 15:24:20.528724,-133
2021-12-23 15:24:20.528734,-124
2021-12-23 15:24:20.528744,-114
2021-12-23 15:24:20.528753,-102
2021-12-23 15:24:20.528763,-83
2021-12-23 15:24:20.753419,-71
2021-12-23 15:24:20.753449,-78
2021-12-23 15:24:20.753461,-98
2021-12-23 15:24:20.753471,-110
2021-12-23 15:24:20.753481,-95
2021-12-23 15:24:20.753491,-81
2021-12-23 15:24:20.753501,-90
2021-12-23 15:24:20.753510,-107
2021-12-23 15:24:20.753520,-95
2021-12-23 15:24:20.753530,-78
2021-12-23 15:24:20.753540,-69
2021-12-23 15:24:20.753549,-57
2021-12-23 15:24:20.753559,-71
2021-12-23 15:24:20.753569,-86
2021-12-23 15:24:20.753579,-62
2021-12-23 15:24:20.753589,-55
2021-12-23 15:24:20.753598,-76
2021-12-23 15:24:20.753608,-76
2021-12-23 15:24:20.753618,-71
2021-12-23 15:24:20.753628,-78
2021-12-23 15:24:20.753638,-78
2021-12-23 15:24:20.753647,-81
2021-12-23 15:24:20.753657,-76
2021-12-23 15:24:20.753666,-62
2021-12-23 15:24:20.753676,-62
2021-12-23 15:24:20.753686,-62
2021-12-23 15:24:20.753696,-45
2021-12-23 15:24:20.753705,-38
2021-12-23 15:24:20.753715,-31
2021-12-23 15:24:20.753725,-23
2021-12-23 15:24:21.067014,-40
2021-12-23 15:24:21.067044,-90
2021-12-23 15:24:21.067056,-45
2021-12-23 15:24:21.067067,311
2021-12-23 15:24:21.067077,806
2021-12-23 15:24:21.067086,902
2021-12-23 15:24:21.067096,447
2021-12-23 15:24:21.067106,-172
2021-12-23 15:24:21.067116,-334
2021-12-23 15:24:21.067125,-31
2021-12-23 15:24:21.067135,59
2021-12-23 15:24:21.067145,-78
2021-12-23 15:24:21.067154,-71
2021-12-23 15:24:21.067164,-11
2021-12-23 15:24:21.067173,-14
2021-12-23 15:24:21.067183,-2
2021-12-23 15:24:21.067194,33
2021-12-23 15:24:21.067204,40
2021-12-23 15:24:21.067214,45
2021-12-23 15:24:21.067224,83
2021-12-23 15:24:21.067233,117
2021-12-23 15:24:21.067243,129
2021-12-23 15:24:21.067252,141
2021-12-23 15:24:21.067262,145
2021-12-23 15:24:21.067271,160
2021-12-23 15:24:21.067281,208
2021-12-23 15:24:21.067290,248
2021-12-23 15:24:21.067300,265
2021-12-23 15:24:21.067310,289
2021-12-23 15:24:21.067319,322
2021-12-23 15:24:21.292645,346
2021-12-23 15:24:21.292665,370
2021-12-23 15:24:21.292672,389
2021-12-23 15:24:21.292679,385
2021-12-23 15:24:21.292685,366
2021-12-23 15:24:21.292691,318
2021-12-23 15:24:21.292697,217
2021-12-23 15:24:21.292704,100
2021-12-23 15:24:21.292710,21
2021-12-23 15:24:21.292716,-47
2021-12-23 15:24:21.292723,-126
2021-12-23 15:24:21.292729,-181
2021-12-23 15:24:21.292735,-191
2021-12-23 15:24:21.292742,-174
2021-12-23 15:24:21.292748,-179
2021-12-23 15:24:21.292754,-205
2021-12-23 15:24:21.292760,-222
2021-12-23 15:24:21.292767,-236
2021-12-23 15:24:21.292773,-229
2021-12-23 15:24:21.292779,-203
2021-12-23 15:24:21.292785,-200
2021-12-23 15:24:21.292792,-234
2021-12-23 15:24:21.292798,-265
2021-12-23 15:24:21.292804,-248
2021-12-23 15:24:21.292810,-212
2021-12-23 15:24:21.292817,-200
2021-12-23 15:24:21.292823,-196
2021-12-23 15:24:21.292829,-184
2021-12-23 15:24:21.292835,-179
2021-12-23 15:24:21.292842,-165
2021-12-23 15:24:21.518379,-141
2021-12-23 15:24:21.518408,-122
2021-12-23 15:24:21.518420,-117
2021-12-23 15:24:21.518430,-117
2021-12-23 15:24:21.518440,-110
2021-12-23 15:24:21.518450,-88
2021-12-23 15:24:21.518459,-69
2021-12-23 15:24:21.518469,-66
2021-12-23 15:24:21.518479,-88
2021-12-23 15:24:21.518488,-114
2021-12-23 15:24:21.518498,-131
2021-12-23 15:24:21.518507,-129
2021-12-23 15:24:21.518517,-107
2021-12-23 15:24:21.518526,-83
2021-12-23 15:24:21.518536,-78
2021-12-23 15:24:21.518545,-76
2021-12-23 15:24:21.518555,-69
2021-12-23 15:24:21.518564,-57
2021-12-23 15:24:21.518574,-50
2021-12-23 15:24:21.518584,-35
2021-12-23 15:24:21.518593,-23
2021-12-23 15:24:21.518603,-40
2021-12-23 15:24:21.518612,-69
2021-12-23 15:24:21.518622,-59
2021-12-23 15:24:21.518631,-26
2021-12-23 15:24:21.518641,-9
2021-12-23 15:24:21.518651,-9
2021-12-23 15:24:21.518660,-16
2021-12-23 15:24:21.518676,-19
2021-12-23 15:24:21.518686,-4
2021-12-23 15:24:21.742673,14
2021-12-23 15:24:21.742695,26
2021-12-23 15:24:21.742722,23
2021-12-23 15:24:21.742732,-7
2021-12-23 15:24:21.742742,-31
2021-12-23 15:24:21.742752,-14
2021-12-23 15:24:21.742762,7
2021-12-23 15:24:21.742772,16
2021-12-23 15:24:21.742781,26
2021-12-23 15:24:21.742791,35
2021-12-23 15:24:21.742800,43
2021-12-23 15:24:21.742810,45
2021-12-23 15:24:21.742819,40
2021-12-23 15:24:21.742829,43
2021-12-23 15:24:21.742839,45
2021-12-23 15:24:21.742849,23
2021-12-23 15:24:21.742858,11
2021-12-23 15:24:21.742868,31
2021-12-23 15:24:21.742877,52
2021-12-23 15:24:21.742887,57
2021-12-23 15:24:21.742897,45
2021-12-23 15:24:21.742906,14
2021-12-23 15:24:21.742916,-2
2021-12-23 15:24:21.742925,11
2021-12-23 15:24:21.742935,28
2021-12-23 15:24:21.742944,4
2021-12-23 15:24:21.742954,-47
2021-12-23 15:24:21.742964,71
2021-12-23 15:24:21.742973,535
2021-12-23 15:24:21.742983,971
2021-12-23 15:24:22.012665,899
2021-12-23 15:24:22.012687,320
2021-12-23 15:24:22.012694,-220
2021-12-23 15:24:22.012701,-155
2021-12-23 15:24:22.012707,107
2021-12-23 15:24:22.012714,43
2021-12-23 15:24:22.012720,-28
2021-12-23 15:24:22.012727,45
2021-12-23 15:24:22.012733,38
2021-12-23 15:24:22.012739,-26
2021-12-23 15:24:22.012746,-38
2021-12-23 15:24:22.012752,-38
2021-12-23 15:24:22.012758,-43
2021-12-23 15:24:22.012765,-38
2021-12-23 15:24:22.012771,-33
2021-12-23 15:24:22.012778,-31
2021-12-23 15:24:22.012784,-4
2021-12-23 15:24:22.012790,33
2021-12-23 15:24:22.012797,59
2021-12-23 15:24:22.012803,88
2021-12-23 15:24:22.012809,110
2021-12-23 15:24:22.012816,129
2021-12-23 15:24:22.012822,167
2021-12-23 15:24:22.012829,220
2021-12-23 15:24:22.012835,270
2021-12-23 15:24:22.012841,303
2021-12-23 15:24:22.012848,325
2021-12-23 15:24:22.012854,342
2021-12-23 15:24:22.012860,373
2021-12-23 15:24:22.012866,370
2021-12-23 15:24:22.193014,277
2021-12-23 15:24:22.193036,198
2021-12-23 15:24:22.193044,196
2021-12-23 15:24:22.193050,172
2021-12-23 15:24:22.193056,83
2021-12-23 15:24:22.193063,2
2021-12-23 15:24:22.193069,-35
2021-12-23 15:24:22.193075,-64
2021-12-23 15:24:22.193082,-179
2021-12-23 15:24:22.193088,-284
2021-12-23 15:24:22.193094,-212
2021-12-23 15:24:22.193100,-133
2021-12-23 15:24:22.193107,-148
2021-12-23 15:24:22.193113,-124
2021-12-23 15:24:22.193119,-138
2021-12-23 15:24:22.193125,-203
2021-12-23 15:24:22.193132,-131
2021-12-23 15:24:22.193138,-43
2021-12-23 15:24:22.193144,-81
2021-12-23 15:24:22.193150,-114
2021-12-23 15:24:22.193156,-114
2021-12-23 15:24:22.193163,-165
2021-12-23 15:24:22.193169,-181
2021-12-23 15:24:22.193175,-93
2021-12-23 15:24:22.193181,-47
2021-12-23 15:24:22.193187,-93
2021-12-23 15:24:22.193194,-107
2021-12-23 15:24:22.193200,-86
2021-12-23 15:24:22.193207,-76
2021-12-23 15:24:22.193213,-57
2021-12-23 15:24:22.373345,-38
2021-12-23 15:24:22.373375,-45
2021-12-23 15:24:22.373387,-81
2021-12-23 15:24:22.373397,-114
2021-12-23 15:24:22.373406,-102
2021-12-23 15:24:22.373416,-74
2021-12-23 15:24:22.373425,-76
2021-12-23 15:24:22.373435,-86
2021-12-23 15:24:22.373444,-88
2021-12-23 15:24:22.373454,-86
2021-12-23 15:24:22.373464,-78
2021-12-23 15:24:22.373474,-62
2021-12-23 15:24:22.373483,-59
2021-12-23 15:24:22.373493,-86
2021-12-23 15:24:22.373502,-110
2021-12-23 15:24:22.373512,-122
2021-12-23 15:24:22.373521,-145
2021-12-23 15:24:22.373531,-172
2021-12-23 15:24:22.373540,-143
2021-12-23 15:24:22.373550,-100
2021-12-23 15:24:22.373559,-107
2021-12-23 15:24:22.373569,-117
2021-12-23 15:24:22.373578,-95
2021-12-23 15:24:22.373588,-71
2021-12-23 15:24:22.373597,-62
2021-12-23 15:24:22.373607,-57
2021-12-23 15:24:22.373616,-43
2021-12-23 15:24:22.373626,-19
2021-12-23 15:24:22.373635,2
2021-12-23 15:24:22.373645,11
2021-12-23 15:24:22.687870,7
2021-12-23 15:24:22.687890,-2
2021-12-23 15:24:22.687898,-52
2021-12-23 15:24:22.687905,-133
2021-12-23 15:24:22.687911,-143
2021-12-23 15:24:22.687918,-102
2021-12-23 15:24:22.687924,-117
2021-12-23 15:24:22.687930,-145
2021-12-23 15:24:22.687937,-124
2021-12-23 15:24:22.687943,-105
2021-12-23 15:24:22.687949,-105
2021-12-23 15:24:22.687955,-86
2021-12-23 15:24:22.687961,-95
2021-12-23 15:24:22.687968,-160
2021-12-23 15:24:22.687974,-186
2021-12-23 15:24:22.687980,33
2021-12-23 15:24:22.687987,552
2021-12-23 15:24:22.687993,966
2021-12-23 15:24:22.688000,846
2021-12-23 15:24:22.688006,193
2021-12-23 15:24:22.688013,-368
2021-12-23 15:24:22.688019,-232
2021-12-23 15:24:22.688025,38
2021-12-23 15:24:22.688031,-69
2021-12-23 15:24:22.688037,-141
2021-12-23 15:24:22.688044,-47
2021-12-23 15:24:22.688050,-31
2021-12-23 15:24:22.688056,-57
2021-12-23 15:24:22.688062,-16
2021-12-23 15:24:22.688069,19
2021-12-23 15:24:22.868321,16
2021-12-23 15:24:22.868342,31
2021-12-23 15:24:22.868350,62
2021-12-23 15:24:22.868357,76
2021-12-23 15:24:22.868363,105
2021-12-23 15:24:22.868369,184
2021-12-23 15:24:22.868376,244
2021-12-23 15:24:22.868382,227
2021-12-23 15:24:22.868389,203
2021-12-23 15:24:22.868395,229
2021-12-23 15:24:22.868401,279
2021-12-23 15:24:22.868408,318
2021-12-23 15:24:22.868414,349
2021-12-23 15:24:22.868420,382
2021-12-23 15:24:22.868427,399
2021-12-23 15:24:22.868433,406
2021-12-23 15:24:22.868439,411
2021-12-23 15:24:22.868446,375
2021-12-23 15:24:22.868452,277
2021-12-23 15:24:22.868458,184
2021-12-23 15:24:22.868465,88
2021-12-23 15:24:22.868471,-28
2021-12-23 15:24:22.868477,-102
2021-12-23 15:24:22.868484,-148
2021-12-23 15:24:22.868490,-193
2021-12-23 15:24:22.868496,-200
2021-12-23 15:24:22.868503,-186
2021-12-23 15:24:22.868509,-189
2021-12-23 15:24:22.868515,-193
2021-12-23 15:24:22.868522,-196
2021-12-23 15:24:23.091983,-191
2021-12-23 15:24:23.092013,-172
2021-12-23 15:24:23.092025,-174
2021-12-23 15:24:23.092035,-191
2021-12-23 15:24:23.092045,-174
2021-12-23 15:24:23.092054,-189
2021-12-23 15:24:23.092064,-239
2021-12-23 15:24:23.092074,-169
2021-12-23 15:24:23.092084,-64
2021-12-23 15:24:23.092093,-95
2021-12-23 15:24:23.092103,-143
2021-12-23 15:24:23.092113,-119
2021-12-23 15:24:23.092123,-117
2021-12-23 15:24:23.092132,-126
2021-12-23 15:24:23.092142,-105
2021-12-23 15:24:23.092152,-93
2021-12-23 15:24:23.092162,-112
2021-12-23 15:24:23.092171,-129
2021-12-23 15:24:23.092181,-112
2021-12-23 15:24:23.092191,-76
2021-12-23 15:24:23.092201,-59
2021-12-23 15:24:23.092211,-62
2021-12-23 15:24:23.092220,-71
2021-12-23 15:24:23.092230,-78
2021-12-23 15:24:23.092240,-69
2021-12-23 15:24:23.092249,-50
2021-12-23 15:24:23.092259,-43
2021-12-23 15:24:23.092269,-47
2021-12-23 15:24:23.092278,-66
2021-12-23 15:24:23.092288,-119
2021-12-23 15:24:23.318389,-131
2021-12-23 15:24:23.318411,-62
2021-12-23 15:24:23.318419,-66
2021-12-23 15:24:23.318426,-129
2021-12-23 15:24:23.318432,-74
2021-12-23 15:24:23.318438,-7
2021-12-23 15:24:23.318444,-26
2021-12-23 15:24:23.318450,-19
2021-12-23 15:24:23.318456,16
2021-12-23 15:24:23.318463,11
2021-12-23 15:24:23.318469,-19
2021-12-23 15:24:23.318475,-38
2021-12-23 15:24:23.318481,-21
2021-12-23 15:24:23.318487,-23
2021-12-23 15:24:23.318493,-57
2021-12-23 15:24:23.318499,-62
2021-12-23 15:24:23.318505,-47
2021-12-23 15:24:23.318511,-43
2021-12-23 15:24:23.318517,-33
2021-12-23 15:24:23.318523,-26
2021-12-23 15:24:23.318530,-19
2021-12-23 15:24:23.318536,-4
2021-12-23 15:24:23.318542,23
2021-12-23 15:24:23.318552,45
2021-12-23 15:24:23.318558,19
2021-12-23 15:24:23.318564,-52
2021-12-23 15:24:23.318570,-110
2021-12-23 15:24:23.318577,-131
2021-12-23 15:24:23.318583,-119
2021-12-23 15:24:23.318589,-59
2021-12-23 15:24:23.543285,19
2021-12-23 15:24:23.543314,35
2021-12-23 15:24:23.543326,19
2021-12-23 15:24:23.543336,21
2021-12-23 15:24:23.543345,26
2021-12-23 15:24:23.543355,33
2021-12-23 15:24:23.543364,47
2021-12-23 15:24:23.543374,33
2021-12-23 15:24:23.543384,-31
2021-12-23 15:24:23.543393,0
2021-12-23 15:24:23.543403,368
2021-12-23 15:24:23.543413,899
2021-12-23 15:24:23.543422,1050
2021-12-23 15:24:23.543432,612
2021-12-23 15:24:23.543441,-74
2021-12-23 15:24:23.543451,-294
2021-12-23 15:24:23.543461,-4
2021-12-23 15:24:23.543470,66
2021-12-23 15:24:23.543480,-64
2021-12-23 15:24:23.543490,-16
2021-12-23 15:24:23.543499,35
2021-12-23 15:24:23.543509,-14
2021-12-23 15:24:23.543519,-7
2021-12-23 15:24:23.543528,50
2021-12-23 15:24:23.543538,66
2021-12-23 15:24:23.543547,76
2021-12-23 15:24:23.543557,93
2021-12-23 15:24:23.543566,86
2021-12-23 15:24:23.543576,90
2021-12-23 15:24:23.543586,133
2021-12-23 15:24:23.813075,174
2021-12-23 15:24:23.813096,198
2021-12-23 15:24:23.813104,215
2021-12-23 15:24:23.813110,227
2021-12-23 15:24:23.813117,260
2021-12-23 15:24:23.813123,311
2021-12-23 15:24:23.813129,346
2021-12-23 15:24:23.813135,382
2021-12-23 15:24:23.813142,401
2021-12-23 15:24:23.813148,373
2021-12-23 15:24:23.813154,361
2021-12-23 15:24:23.813160,380
2021-12-23 15:24:23.813166,344
2021-12-23 15:24:23.813172,244
2021-12-23 15:24:23.813179,119
2021-12-23 15:24:23.813185,0
2021-12-23 15:24:23.813191,-64
2021-12-23 15:24:23.813198,-93
2021-12-23 15:24:23.813205,-162
2021-12-23 15:24:23.813211,-244
2021-12-23 15:24:23.813217,-253
2021-12-23 15:24:23.813223,-232
2021-12-23 15:24:23.813229,-227
2021-12-23 15:24:23.813236,-217
2021-12-23 15:24:23.813242,-186
2021-12-23 15:24:23.813248,-165
2021-12-23 15:24:23.813254,-169
2021-12-23 15:24:23.813260,-181
2021-12-23 15:24:23.813266,-181
2021-12-23 15:24:23.813272,-174
2021-12-23 15:24:23.992862,-150
2021-12-23 15:24:23.992882,-129
2021-12-23 15:24:23.992889,-138
2021-12-23 15:24:23.992896,-150
2021-12-23 15:24:23.992902,-141
2021-12-23 15:24:23.992908,-133
2021-12-23 15:24:23.992915,-148
2021-12-23 15:24:23.992921,-169
2021-12-23 15:24:23.992928,-189
2021-12-23 15:24:23.992934,-203
2021-12-23 15:24:23.992940,-189
2021-12-23 15:24:23.992947,-160
2021-12-23 15:24:23.992953,-143
2021-12-23 15:24:23.992959,-133
2021-12-23 15:24:23.992965,-131
2021-12-23 15:24:23.992972,-136
2021-12-23 15:24:23.992978,-129
2021-12-23 15:24:23.992984,-105
2021-12-23 15:24:23.992990,-95
2021-12-23 15:24:23.992997,-117
2021-12-23 15:24:23.993003,-153
2021-12-23 15:24:23.993009,-157
2021-12-23 15:24:23.993015,-129
2021-12-23 15:24:23.993022,-100
2021-12-23 15:24:23.993028,-90
2021-12-23 15:24:23.993034,-95
2021-12-23 15:24:23.993040,-105
2021-12-23 15:24:23.993047,-102
2021-12-23 15:24:23.993053,-81
2021-12-23 15:24:23.993059,-59
2021-12-23 15:24:24.307662,-62
2021-12-23 15:24:24.307692,-83
2021-12-23 15:24:24.307703,-95
2021-12-23 15:24:24.307713,-88
2021-12-23 15:24:24.307723,-83
2021-12-23 15:24:24.307733,-66
2021-12-23 15:24:24.307742,-45
2021-12-23 15:24:24.307752,-71
2021-12-23 15:24:24.307761,-102
2021-12-23 15:24:24.307771,-71
2021-12-23 15:24:24.307781,-28
2021-12-23 15:24:24.307790,-11
2021-12-23 15:24:24.307800,-11
2021-12-23 15:24:24.307809,-40
2021-12-23 15:24:24.307819,-71
2021-12-23 15:24:24.307828,-45
2021-12-23 15:24:24.307838,-14
2021-12-23 15:24:24.307847,-21
2021-12-23 15:24:24.307856,-26
2021-12-23 15:24:24.307866,-14
2021-12-23 15:24:24.307875,-7
2021-12-23 15:24:24.307885,11
2021-12-23 15:24:24.307895,45
2021-12-23 15:24:24.307904,50
2021-12-23 15:24:24.307914,4
2021-12-23 15:24:24.307923,-40
2021-12-23 15:24:24.307933,-38
2021-12-23 15:24:24.307943,-35
2021-12-23 15:24:24.307952,-50
2021-12-23 15:24:24.307961,-43
2021-12-23 15:24:24.443327,-23
2021-12-23 15:24:24.443356,-26
2021-12-23 15:24:24.443368,-35
2021-12-23 15:24:24.443378,-50
2021-12-23 15:24:24.443388,-47
2021-12-23 15:24:24.443397,-23
2021-12-23 15:24:24.443407,-47
2021-12-23 15:24:24.443416,-124
2021-12-23 15:24:24.443426,-117
2021-12-23 15:24:24.443436,165
2021-12-23 15:24:24.443446,665
2021-12-23 15:24:24.443455,940
2021-12-23 15:24:24.443465,684
2021-12-23 15:24:24.443475,62
2021-12-23 15:24:24.443484,-299
2021-12-23 15:24:24.443494,-95
2021-12-23 15:24:24.443503,64
2021-12-23 15:24:24.443513,-43
2021-12-23 15:24:24.443523,-50
2021-12-23 15:24:24.443532,7
2021-12-23 15:24:24.443542,-9
2021-12-23 15:24:24.443551,-11
2021-12-23 15:24:24.443561,33
2021-12-23 15:24:24.443571,57
2021-12-23 15:24:24.443580,50
2021-12-23 15:24:24.443590,57
2021-12-23 15:24:24.443600,71
2021-12-23 15:24:24.443609,86
2021-12-23 15:24:24.443619,122
2021-12-23 15:24:24.443629,150
2021-12-23 15:24:24.667498,157
2021-12-23 15:24:24.667514,181
2021-12-23 15:24:24.667521,229
2021-12-23 15:24:24.667526,258
2021-12-23 15:24:24.667531,263
2021-12-23 15:24:24.667536,253
2021-12-23 15:24:24.667541,251
2021-12-23 15:24:24.667546,284
2021-12-23 15:24:24.667551,313
2021-12-23 15:24:24.667556,311
2021-12-23 15:24:24.667561,313
2021-12-23 15:24:24.667566,294
2021-12-23 15:24:24.667572,210
2021-12-23 15:24:24.667577,117
2021-12-23 15:24:24.667582,47
2021-12-23 15:24:24.667587,-23
2021-12-23 15:24:24.667592,-95
2021-12-23 15:24:24.667597,-150
2021-12-23 15:24:24.667603,-177
2021-12-23 15:24:24.667607,-174
2021-12-23 15:24:24.667613,-169
2021-12-23 15:24:24.667618,-179
2021-12-23 15:24:24.667622,-177
2021-12-23 15:24:24.667627,-167
2021-12-23 15:24:24.667632,-162
2021-12-23 15:24:24.667637,-148
2021-12-23 15:24:24.667642,-143
2021-12-23 15:24:24.667647,-153
2021-12-23 15:24:24.667652,-148
2021-12-23 15:24:24.667657,-150
2021-12-23 15:24:24.893418,-184
2021-12-23 15:24:24.893438,-196
2021-12-23 15:24:24.893446,-169
2021-12-23 15:24:24.893453,-157
2021-12-23 15:24:24.893459,-172
2021-12-23 15:24:24.893465,-186
2021-12-23 15:24:24.893471,-196
2021-12-23 15:24:24.893477,-193
2021-12-23 15:24:24.893484,-184
2021-12-23 15:24:24.893490,-172
2021-12-23 15:24:24.893496,-174
2021-12-23 15:24:24.893502,-184
2021-12-23 15:24:24.893508,-179
2021-12-23 15:24:24.893514,-162
2021-12-23 15:24:24.893521,-162
2021-12-23 15:24:24.893527,-153
2021-12-23 15:24:24.893533,-155
2021-12-23 15:24:24.893539,-160
2021-12-23 15:24:24.893545,-124
2021-12-23 15:24:24.893551,-81
2021-12-23 15:24:24.893557,-78
2021-12-23 15:24:24.893564,-83
2021-12-23 15:24:24.893570,-83
2021-12-23 15:24:24.893576,-90
2021-12-23 15:24:24.893582,-81
2021-12-23 15:24:24.893588,-62
2021-12-23 15:24:24.893594,-55
2021-12-23 15:24:24.893601,-52
2021-12-23 15:24:24.893607,-43
2021-12-23 15:24:24.893613,-38
2021-12-23 15:24:25.162388,-31
2021-12-23 15:24:25.162436,-16
2021-12-23 15:24:25.162465,-14
2021-12-23 15:24:25.162533,-23
2021-12-23 15:24:25.162566,-40
2021-12-23 15:24:25.162580,-50
2021-12-23 15:24:25.162590,-38
2021-12-23 15:24:25.162600,-19
2021-12-23 15:24:25.162626,-16
2021-12-23 15:24:25.162639,-26
2021-12-23 15:24:25.162645,-33
2021-12-23 15:24:25.162652,-38
2021-12-23 15:24:25.162658,-33
2021-12-23 15:24:25.162665,-21
2021-12-23 15:24:25.162671,-26
2021-12-23 15:24:25.162677,-45
2021-12-23 15:24:25.162684,-52
2021-12-23 15:24:25.162690,-40
2021-12-23 15:24:25.162696,-23
2021-12-23 15:24:25.162703,-16
2021-12-23 15:24:25.162709,-14
2021-12-23 15:24:25.162715,-11
2021-12-23 15:24:25.162721,-11
2021-12-23 15:24:25.162728,-4
2021-12-23 15:24:25.162734,7
2021-12-23 15:24:25.162740,-16
2021-12-23 15:24:25.162747,-62
2021-12-23 15:24:25.162753,88
2021-12-23 15:24:25.162759,588
2021-12-23 15:24:25.162766,1035
2021-12-23 15:24:25.343291,952
2021-12-23 15:24:25.343312,337
2021-12-23 15:24:25.343319,-244
2021-12-23 15:24:25.343326,-193
2021-12-23 15:24:25.343332,57
2021-12-23 15:24:25.343339,-40
2021-12-23 15:24:25.343345,-145
2021-12-23 15:24:25.343351,-71
2021-12-23 15:24:25.343357,-50
2021-12-23 15:24:25.343364,-95
2021-12-23 15:24:25.343370,-107
2021-12-23 15:24:25.343376,-105
2021-12-23 15:24:25.343382,-112
2021-12-23 15:24:25.343388,-86
2021-12-23 15:24:25.343395,-50
2021-12-23 15:24:25.343401,-45
2021-12-23 15:24:25.343407,-33
2021-12-23 15:24:25.343417,11
2021-12-23 15:24:25.343423,47
2021-12-23 15:24:25.343430,74
2021-12-23 15:24:25.343436,107
2021-12-23 15:24:25.343442,136
2021-12-23 15:24:25.343449,162
2021-12-23 15:24:25.343455,208
2021-12-23 15:24:25.343461,263
2021-12-23 15:24:25.343467,301
2021-12-23 15:24:25.343474,320
2021-12-23 15:24:25.343480,325
2021-12-23 15:24:25.343486,325
2021-12-23 15:24:25.343492,315
2021-12-23 15:24:25.747783,270
2021-12-23 15:24:25.747811,189
2021-12-23 15:24:25.747823,78
2021-12-23 15:24:25.747834,-50
2021-12-23 15:24:25.747843,-141
2021-12-23 15:24:25.747853,-179
2021-12-23 15:24:25.747863,-215
2021-12-23 15:24:25.747873,-234
2021-12-23 15:24:25.747882,-244
2021-12-23 15:24:25.747892,-272
2021-12-23 15:24:25.747902,-277
2021-12-23 15:24:25.747911,-239
2021-12-23 15:24:25.747921,-224
2021-12-23 15:24:25.747931,-241
2021-12-23 15:24:25.747941,-251
2021-12-23 15:24:25.747950,-246
2021-12-23 15:24:25.747960,-227
2021-12-23 15:24:25.747970,-205
2021-12-23 15:24:25.747979,-186
2021-12-23 15:24:25.747989,-165
2021-12-23 15:24:25.747999,-157
2021-12-23 15:24:25.748008,-160
2021-12-23 15:24:25.748018,-148
2021-12-23 15:24:25.748028,-126
2021-12-23 15:24:25.748037,-110
2021-12-23 15:24:25.748047,-95
2021-12-23 15:24:25.748057,-93
2021-12-23 15:24:25.748066,-95
2021-12-23 15:24:25.748076,-78
2021-12-23 15:24:25.748086,-59
2021-12-23 15:24:25.838335,-57
2021-12-23 15:24:25.838356,-52
2021-12-23 15:24:25.838364,-55
2021-12-23 15:24:25.838370,-66
2021-12-23 15:24:25.838376,-55
2021-12-23 15:24:25.838383,-23
2021-12-23 15:24:25.838389,-14
2021-12-23 15:24:25.838395,-21
2021-12-23 15:24:25.838402,-38
2021-12-23 15:24:25.838408,-52
2021-12-23 15:24:25.838414,-52
2021-12-23 15:24:25.838421,-69
2021-12-23 15:24:25.838427,-93
2021-12-23 15:24:25.838433,-66
2021-12-23 15:24:25.838440,-52
2021-12-23 15:24:25.838446,-95
2021-12-23 15:24:25.838452,-114
2021-12-23 15:24:25.838458,-64
2021-12-23 15:24:25.838465,-11
2021-12-23 15:24:25.838471,-2
2021-12-23 15:24:25.838477,-19
2021-12-23 15:24:25.838483,-31
2021-12-23 15:24:25.838490,-14
2021-12-23 15:24:25.838496,-4
2021-12-23 15:24:25.838502,-16
2021-12-23 15:24:25.838508,-38
2021-12-23 15:24:25.838515,-59
2021-12-23 15:24:25.838521,-57
2021-12-23 15:24:25.838527,-33
2021-12-23 15:24:25.838533,-21
2021-12-23 15:24:26.063285,-19
2021-12-23 15:24:26.063306,-23
2021-12-23 15:24:26.063313,-28
2021-12-23 15:24:26.063320,-38
2021-12-23 15:24:26.063326,-86
2021-12-23 15:24:26.063332,-62
2021-12-23 15:24:26.063339,282
2021-12-23 15:24:26.063345,813
2021-12-23 15:24:26.063351,1000
2021-12-23 15:24:26.063358,631
2021-12-23 15:24:26.063364,-19
2021-12-23 15:24:26.063370,-291
2021-12-23 15:24:26.063376,-26
2021-12-23 15:24:26.063383,62
2021-12-23 15:24:26.063389,-102
2021-12-23 15:24:26.063395,-74
2021-12-23 15:24:26.063402,4
2021-12-23 15:24:26.063408,-40
2021-12-23 15:24:26.063414,-55
2021-12-23 15:24:26.063420,-7
2021-12-23 15:24:26.063427,7
2021-12-23 15:24:26.063433,11
2021-12-23 15:24:26.063439,40
2021-12-23 15:24:26.063446,69
2021-12-23 15:24:26.063452,88
2021-12-23 15:24:26.063458,105
2021-12-23 15:24:26.063465,129
2021-12-23 15:24:26.063471,157
2021-12-23 15:24:26.063477,193
2021-12-23 15:24:26.063483,234
2021-12-23 15:24:26.288359,267
2021-12-23 15:24:26.288388,294
2021-12-23 15:24:26.288400,325
2021-12-23 15:24:26.288410,358
2021-12-23 15:24:26.288419,385
2021-12-23 15:24:26.288429,406
2021-12-23 15:24:26.288439,389
2021-12-23 15:24:26.288448,330
2021-12-23 15:24:26.288458,282
2021-12-23 15:24:26.288468,224
2021-12-23 15:24:26.288477,126
2021-12-23 15:24:26.288487,33
2021-12-23 15:24:26.288496,-52
2021-12-23 15:24:26.288506,-133
2021-12-23 15:24:26.288516,-172
2021-12-23 15:24:26.288525,-181
2021-12-23 15:24:26.288535,-205
2021-12-23 15:24:26.288544,-236
2021-12-23 15:24:26.288554,-244
2021-12-23 15:24:26.288563,-239
2021-12-23 15:24:26.288573,-239
2021-12-23 15:24:26.288582,-227
2021-12-23 15:24:26.288591,-203
2021-12-23 15:24:26.288601,-186
2021-12-23 15:24:26.288610,-174
2021-12-23 15:24:26.288620,-157
2021-12-23 15:24:26.288629,-141
2021-12-23 15:24:26.288639,-143
2021-12-23 15:24:26.288648,-155
2021-12-23 15:24:26.288658,-162
2021-12-23 15:24:26.557643,-172
2021-12-23 15:24:26.557664,-179
2021-12-23 15:24:26.557671,-169
2021-12-23 15:24:26.557695,-157
2021-12-23 15:24:26.557705,-148
2021-12-23 15:24:26.557714,-143
2021-12-23 15:24:26.557724,-155
2021-12-23 15:24:26.557734,-157
2021-12-23 15:24:26.557743,-138
2021-12-23 15:24:26.557752,-129
2021-12-23 15:24:26.557762,-131
2021-12-23 15:24:26.557772,-136
2021-12-23 15:24:26.557781,-150
2021-12-23 15:24:26.557791,-141
2021-12-23 15:24:26.557800,-117
2021-12-23 15:24:26.557809,-114
2021-12-23 15:24:26.557819,-112
2021-12-23 15:24:26.557828,-95
2021-12-23 15:24:26.557838,-93
2021-12-23 15:24:26.557847,-88
2021-12-23 15:24:26.557857,-81
2021-12-23 15:24:26.557867,-100
2021-12-23 15:24:26.557876,-114
2021-12-23 15:24:26.557886,-98
2021-12-23 15:24:26.557895,-86
2021-12-23 15:24:26.557905,-76
2021-12-23 15:24:26.557914,-62
2021-12-23 15:24:26.557923,-64
2021-12-23 15:24:26.557933,-62
2021-12-23 15:24:26.557943,-47
2021-12-23 15:24:26.738313,-40
2021-12-23 15:24:26.738334,-33
2021-12-23 15:24:26.738342,-21
2021-12-23 15:24:26.738349,-19
2021-12-23 15:24:26.738355,-19
2021-12-23 15:24:26.738361,-31
2021-12-23 15:24:26.738368,-40
2021-12-23 15:24:26.738374,-21
2021-12-23 15:24:26.738380,-4
2021-12-23 15:24:26.738386,-14
2021-12-23 15:24:26.738393,-14
2021-12-23 15:24:26.738399,-19
2021-12-23 15:24:26.738405,-33
2021-12-23 15:24:26.738411,-16
2021-12-23 15:24:26.738418,-4
2021-12-23 15:24:26.738424,-19
2021-12-23 15:24:26.738431,-19
2021-12-23 15:24:26.738437,-4
2021-12-23 15:24:26.738443,16
2021-12-23 15:24:26.738450,45
2021-12-23 15:24:26.738456,45
2021-12-23 15:24:26.738462,28
2021-12-23 15:24:26.738468,21
2021-12-23 15:24:26.738475,-2
2021-12-23 15:24:26.738481,-31
2021-12-23 15:24:26.738487,-19
2021-12-23 15:24:26.738494,-2
2021-12-23 15:24:26.738500,-4
2021-12-23 15:24:26.738506,0
2021-12-23 15:24:26.738512,9
2021-12-23 15:24:26.963340,16
2021-12-23 15:24:26.963369,23
2021-12-23 15:24:26.963381,23
2021-12-23 15:24:26.963391,-16
2021-12-23 15:24:26.963401,-88
2021-12-23 15:24:26.963411,7
2021-12-23 15:24:26.963421,466
2021-12-23 15:24:26.963430,966
2021-12-23 15:24:26.963440,1000
2021-12-23 15:24:26.963449,471
2021-12-23 15:24:26.963459,-184
2021-12-23 15:24:26.963469,-270
2021-12-23 15:24:26.963479,31
2021-12-23 15:24:26.963489,33
2021-12-23 15:24:26.963498,-83
2021-12-23 15:24:26.963508,-21
2021-12-23 15:24:26.963518,11
2021-12-23 15:24:26.963527,-19
2021-12-23 15:24:26.963537,11
2021-12-23 15:24:26.963547,50
2021-12-23 15:24:26.963556,38
2021-12-23 15:24:26.963566,40
2021-12-23 15:24:26.963576,86
2021-12-23 15:24:26.963585,100
2021-12-23 15:24:26.963595,83
2021-12-23 15:24:26.963604,83
2021-12-23 15:24:26.963614,98
2021-12-23 15:24:26.963624,112
2021-12-23 15:24:26.963633,133
2021-12-23 15:24:26.963643,174
2021-12-23 15:24:27.322570,220
2021-12-23 15:24:27.322592,256
2021-12-23 15:24:27.322599,287
2021-12-23 15:24:27.322606,294
2021-12-23 15:24:27.322612,282
2021-12-23 15:24:27.322618,291
2021-12-23 15:24:27.322625,320
2021-12-23 15:24:27.322631,322
2021-12-23 15:24:27.322637,287
2021-12-23 15:24:27.322643,208
2021-12-23 15:24:27.322650,100
2021-12-23 15:24:27.322656,21
2021-12-23 15:24:27.322662,-26
2021-12-23 15:24:27.322669,-74
2021-12-23 15:24:27.322675,-112
2021-12-23 15:24:27.322681,-148
2021-12-23 15:24:27.322688,-186
2021-12-23 15:24:27.322694,-186
2021-12-23 15:24:27.322700,-177
2021-12-23 15:24:27.322706,-184
2021-12-23 15:24:27.322712,-181
2021-12-23 15:24:27.322719,-181
2021-12-23 15:24:27.322725,-184
2021-12-23 15:24:27.322731,-169
2021-12-23 15:24:27.322737,-143
2021-12-23 15:24:27.322743,-122
2021-12-23 15:24:27.322750,-119
2021-12-23 15:24:27.322756,-150
2021-12-23 15:24:27.322762,-191
2021-12-23 15:24:27.322768,-196
2021-12-23 15:24:27.458319,-157
2021-12-23 15:24:27.458349,-143
2021-12-23 15:24:27.458361,-165
2021-12-23 15:24:27.458371,-165
2021-12-23 15:24:27.458380,-122
2021-12-23 15:24:27.458390,-86
2021-12-23 15:24:27.458399,-74
2021-12-23 15:24:27.458409,-62
2021-12-23 15:24:27.458418,-62
2021-12-23 15:24:27.458428,-83
2021-12-23 15:24:27.458437,-78
2021-12-23 15:24:27.458447,-55
2021-12-23 15:24:27.458456,-47
2021-12-23 15:24:27.458466,-40
2021-12-23 15:24:27.458476,-62
2021-12-23 15:24:27.458485,-98
2021-12-23 15:24:27.458495,-88
2021-12-23 15:24:27.458504,-59
2021-12-23 15:24:27.458514,-16
2021-12-23 15:24:27.458523,0
2021-12-23 15:24:27.458533,-38
2021-12-23 15:24:27.458543,-55
2021-12-23 15:24:27.458552,-21
2021-12-23 15:24:27.458562,0
2021-12-23 15:24:27.458571,-9
2021-12-23 15:24:27.458580,-2
2021-12-23 15:24:27.458590,16
2021-12-23 15:24:27.458600,26
2021-12-23 15:24:27.458609,35
2021-12-23 15:24:27.458619,21
2021-12-23 15:24:27.682981,-11
2021-12-23 15:24:27.683004,0
2021-12-23 15:24:27.683012,-9
2021-12-23 15:24:27.683018,-52
2021-12-23 15:24:27.683025,-35
2021-12-23 15:24:27.683031,-7
2021-12-23 15:24:27.683038,-11
2021-12-23 15:24:27.683044,-55
2021-12-23 15:24:27.683050,-174
2021-12-23 15:24:27.683056,-181
2021-12-23 15:24:27.683063,-26
2021-12-23 15:24:27.683069,-38
2021-12-23 15:24:27.683075,-172
2021-12-23 15:24:27.683081,-157
2021-12-23 15:24:27.683092,-23
2021-12-23 15:24:27.683099,306
2021-12-23 15:24:27.683105,775
2021-12-23 15:24:27.683112,866
2021-12-23 15:24:27.683118,418
2021-12-23 15:24:27.683124,-129
2021-12-23 15:24:27.683130,-256
2021-12-23 15:24:27.683137,-59
2021-12-23 15:24:27.683143,-71
2021-12-23 15:24:27.683149,-169
2021-12-23 15:24:27.683156,-81
2021-12-23 15:24:27.683162,-28
2021-12-23 15:24:27.683168,-52
2021-12-23 15:24:27.683175,14
2021-12-23 15:24:27.683181,74
2021-12-23 15:24:27.683187,43
2021-12-23 15:24:27.952800,83
2021-12-23 15:24:27.952821,153
2021-12-23 15:24:27.952829,114
2021-12-23 15:24:27.952836,86
2021-12-23 15:24:27.952842,122
2021-12-23 15:24:27.952848,131
2021-12-23 15:24:27.952855,126
2021-12-23 15:24:27.952861,138
2021-12-23 15:24:27.952867,112
2021-12-23 15:24:27.952874,66
2021-12-23 15:24:27.952880,93
2021-12-23 15:24:27.952886,162
2021-12-23 15:24:27.952892,193
2021-12-23 15:24:27.952899,189
2021-12-23 15:24:27.952905,189
2021-12-23 15:24:27.952911,193
2021-12-23 15:24:27.952917,184
2021-12-23 15:24:27.952924,150
2021-12-23 15:24:27.952930,81
2021-12-23 15:24:27.952936,-19
2021-12-23 15:24:27.952943,-114
2021-12-23 15:24:27.952949,-181
2021-12-23 15:24:27.952955,-222
2021-12-23 15:24:27.952961,-244
2021-12-23 15:24:27.952967,-270
2021-12-23 15:24:27.952974,-282
2021-12-23 15:24:27.952980,-251
2021-12-23 15:24:27.952986,-217
2021-12-23 15:24:27.952992,-198
2021-12-23 15:24:27.952999,-184
2021-12-23 15:24:28.133345,-174
2021-12-23 15:24:28.133375,-177
2021-12-23 15:24:28.133387,-174
2021-12-23 15:24:28.133397,-174
2021-12-23 15:24:28.133407,-184
2021-12-23 15:24:28.133416,-174
2021-12-23 15:24:28.133426,-165
2021-12-23 15:24:28.133436,-179
2021-12-23 15:24:28.133445,-174
2021-12-23 15:24:28.133455,-157
2021-12-23 15:24:28.133465,-174
2021-12-23 15:24:28.133474,-186
2021-12-23 15:24:28.133484,-189
2021-12-23 15:24:28.133494,-208
2021-12-23 15:24:28.133504,-205
2021-12-23 15:24:28.133513,-177
2021-12-23 15:24:28.133523,-162
2021-12-23 15:24:28.133533,-160
2021-12-23 15:24:28.133542,-160
2021-12-23 15:24:28.133552,-160
2021-12-23 15:24:28.133561,-150
2021-12-23 15:24:28.133571,-141
2021-12-23 15:24:28.133581,-133
2021-12-23 15:24:28.133590,-119
2021-12-23 15:24:28.133600,-117
2021-12-23 15:24:28.133609,-122
2021-12-23 15:24:28.133619,-112
2021-12-23 15:24:28.133628,-95
2021-12-23 15:24:28.133638,-83
2021-12-23 15:24:28.133647,-74
2021-12-23 15:24:28.358421,-78
2021-12-23 15:24:28.358450,-78
2021-12-23 15:24:28.358462,-62
2021-12-23 15:24:28.358471,-59
2021-12-23 15:24:28.358481,-59
2021-12-23 15:24:28.358491,-57
2021-12-23 15:24:28.358500,-81
2021-12-23 15:24:28.358510,-95
2021-12-23 15:24:28.358520,-78
2021-12-23 15:24:28.358529,-81
2021-12-23 15:24:28.358539,-122
2021-12-23 15:24:28.358549,-153
2021-12-23 15:24:28.358558,-155
2021-12-23 15:24:28.358568,-138
2021-12-23 15:24:28.358578,-122
2021-12-23 15:24:28.358587,-110
2021-12-23 15:24:28.358597,-95
2021-12-23 15:24:28.358606,-95
2021-12-23 15:24:28.358616,-95
2021-12-23 15:24:28.358626,-69
2021-12-23 15:24:28.358635,-23
2021-12-23 15:24:28.358645,0
2021-12-23 15:24:28.358654,-2
2021-12-23 15:24:28.358664,-14
2021-12-23 15:24:28.358673,-19
2021-12-23 15:24:28.358683,-11
2021-12-23 15:24:28.358693,-14
2021-12-23 15:24:28.358702,-23
2021-12-23 15:24:28.358712,-21
2021-12-23 15:24:28.358721,-11
2021-12-23 15:24:28.583381,-14
2021-12-23 15:24:28.583410,-23
2021-12-23 15:24:28.583422,-38
2021-12-23 15:24:28.583431,-21
2021-12-23 15:24:28.583441,19
2021-12-23 15:24:28.583451,2
2021-12-23 15:24:28.583460,-81
2021-12-23 15:24:28.583470,-62
2021-12-23 15:24:28.583479,251
2021-12-23 15:24:28.583489,724
2021-12-23 15:24:28.583499,873
2021-12-23 15:24:28.583508,480
2021-12-23 15:24:28.583518,-105
2021-12-23 15:24:28.583527,-256
2021-12-23 15:24:28.583537,21
2021-12-23 15:24:28.583546,59
2021-12-23 15:24:28.583556,-86
2021-12-23 15:24:28.583565,-50
2021-12-23 15:24:28.583575,0
2021-12-23 15:24:28.583584,-14
2021-12-23 15:24:28.583594,9
2021-12-23 15:24:28.583603,35
2021-12-23 15:24:28.583613,33
2021-12-23 15:24:28.583622,45
2021-12-23 15:24:28.583631,76
2021-12-23 15:24:28.583641,107
2021-12-23 15:24:28.583650,124
2021-12-23 15:24:28.583660,133
2021-12-23 15:24:28.583669,150
2021-12-23 15:24:28.583679,172
2021-12-23 15:24:28.853465,200
2021-12-23 15:24:28.853495,234
2021-12-23 15:24:28.853507,265
2021-12-23 15:24:28.853517,287
2021-12-23 15:24:28.853527,303
2021-12-23 15:24:28.853536,306
2021-12-23 15:24:28.853546,325
2021-12-23 15:24:28.853555,361
2021-12-23 15:24:28.853565,373
2021-12-23 15:24:28.853574,342
2021-12-23 15:24:28.853584,270
2021-12-23 15:24:28.853594,189
2021-12-23 15:24:28.853603,126
2021-12-23 15:24:28.853613,62
2021-12-23 15:24:28.853623,-9
2021-12-23 15:24:28.853633,-100
2021-12-23 15:24:28.853642,-198
2021-12-23 15:24:28.853652,-234
2021-12-23 15:24:28.853661,-229
2021-12-23 15:24:28.853671,-232
2021-12-23 15:24:28.853681,-227
2021-12-23 15:24:28.853691,-212
2021-12-23 15:24:28.853700,-210
2021-12-23 15:24:28.853710,-205
2021-12-23 15:24:28.853719,-184
2021-12-23 15:24:28.853729,-167
2021-12-23 15:24:28.853739,-160
2021-12-23 15:24:28.853748,-160
2021-12-23 15:24:28.853758,-157
2021-12-23 15:24:28.853768,-141
2021-12-23 15:24:29.078291,-117
2021-12-23 15:24:29.078321,-98
2021-12-23 15:24:29.078333,-95
2021-12-23 15:24:29.078343,-102
2021-12-23 15:24:29.078352,-102
2021-12-23 15:24:29.078362,-88
2021-12-23 15:24:29.078371,-69
2021-12-23 15:24:29.078381,-55
2021-12-23 15:24:29.078390,-59
2021-12-23 15:24:29.078400,-93
2021-12-23 15:24:29.078410,-126
2021-12-23 15:24:29.078419,-133
2021-12-23 15:24:29.078429,-150
2021-12-23 15:24:29.078438,-162
2021-12-23 15:24:29.078448,-150
2021-12-23 15:24:29.078457,-165
2021-12-23 15:24:29.078467,-189
2021-12-23 15:24:29.078476,-172
2021-12-23 15:24:29.078486,-141
2021-12-23 15:24:29.078495,-131
2021-12-23 15:24:29.078505,-126
2021-12-23 15:24:29.078514,-133
2021-12-23 15:24:29.078524,-141
2021-12-23 15:24:29.078533,-122
2021-12-23 15:24:29.078543,-78
2021-12-23 15:24:29.078552,-43
2021-12-23 15:24:29.078562,-40
2021-12-23 15:24:29.078571,-66
2021-12-23 15:24:29.078581,-81
2021-12-23 15:24:29.078590,-62
2021-12-23 15:24:29.346951,-59
2021-12-23 15:24:29.346980,-74
2021-12-23 15:24:29.346992,-78
2021-12-23 15:24:29.347002,-76
2021-12-23 15:24:29.347012,-62
2021-12-23 15:24:29.347022,-40
2021-12-23 15:24:29.347031,-31
2021-12-23 15:24:29.347041,-23
2021-12-23 15:24:29.347051,-26
2021-12-23 15:24:29.347060,-57
2021-12-23 15:24:29.347070,-90
2021-12-23 15:24:29.347080,-117
2021-12-23 15:24:29.347090,-2
2021-12-23 15:24:29.347100,421
2021-12-23 15:24:29.347109,830
2021-12-23 15:24:29.347119,693
2021-12-23 15:24:29.347129,86
2021-12-23 15:24:29.347138,-368
2021-12-23 15:24:29.347148,-253
2021-12-23 15:24:29.347158,-7
2021-12-23 15:24:29.347167,-55
2021-12-23 15:24:29.347177,-122
2021-12-23 15:24:29.347187,-83
2021-12-23 15:24:29.347196,-81
2021-12-23 15:24:29.347206,-74
2021-12-23 15:24:29.347215,-31
2021-12-23 15:24:29.347225,-11
2021-12-23 15:24:29.347235,-16
2021-12-23 15:24:29.347244,4
2021-12-23 15:24:29.347254,38
2021-12-23 15:24:29.573500,59
2021-12-23 15:24:29.573530,88
2021-12-23 15:24:29.573542,114
2021-12-23 15:24:29.573552,133
2021-12-23 15:24:29.573562,179
2021-12-23 15:24:29.573571,236
2021-12-23 15:24:29.573581,277
2021-12-23 15:24:29.573591,301
2021-12-23 15:24:29.573601,303
2021-12-23 15:24:29.573610,306
2021-12-23 15:24:29.573620,342
2021-12-23 15:24:29.573630,378
2021-12-23 15:24:29.573639,394
2021-12-23 15:24:29.573649,404
2021-12-23 15:24:29.573658,346
2021-12-23 15:24:29.573668,222
2021-12-23 15:24:29.573678,114
2021-12-23 15:24:29.573688,35
2021-12-23 15:24:29.573697,-23
2021-12-23 15:24:29.573707,-55
2021-12-23 15:24:29.573717,-117
2021-12-23 15:24:29.573727,-189
2021-12-23 15:24:29.573736,-169
2021-12-23 15:24:29.573746,-129
2021-12-23 15:24:29.573756,-119
2021-12-23 15:24:29.573766,-64
2021-12-23 15:24:29.573775,-7
2021-12-23 15:24:29.573785,-28
2021-12-23 15:24:29.573795,-57
2021-12-23 15:24:29.573805,-59
2021-12-23 15:24:29.753426,-40
2021-12-23 15:24:29.753455,-11
2021-12-23 15:24:29.753467,-50
2021-12-23 15:24:29.753478,-107
2021-12-23 15:24:29.753487,-31
2021-12-23 15:24:29.753497,35
2021-12-23 15:24:29.753507,-50
2021-12-23 15:24:29.753517,-74
2021-12-23 15:24:29.753527,-4
2021-12-23 15:24:29.753536,-7
2021-12-23 15:24:29.753546,-33
2021-12-23 15:24:29.753555,-9
2021-12-23 15:24:29.753565,2
2021-12-23 15:24:29.753575,-11
2021-12-23 15:24:29.753584,-21
2021-12-23 15:24:29.753594,-31
2021-12-23 15:24:29.753604,-50
2021-12-23 15:24:29.753613,-55
2021-12-23 15:24:29.753623,-52
2021-12-23 15:24:29.753632,-81
2021-12-23 15:24:29.753642,-98
2021-12-23 15:24:29.753651,-55
2021-12-23 15:24:29.753661,-40
2021-12-23 15:24:29.753670,-93
2021-12-23 15:24:29.753680,-112
2021-12-23 15:24:29.753690,-83
2021-12-23 15:24:29.753699,-93
2021-12-23 15:24:29.753709,-129
2021-12-23 15:24:29.753718,-131
2021-12-23 15:24:29.753728,-119
2021-12-23 15:24:29.978439,-138
2021-12-23 15:24:29.978470,-177
2021-12-23 15:24:29.978482,-177
2021-12-23 15:24:29.978492,-162
2021-12-23 15:24:29.978502,-169
2021-12-23 15:24:29.978511,-172
2021-12-23 15:24:29.978521,-174
2021-12-23 15:24:29.978530,-196
2021-12-23 15:24:29.978540,-200
2021-12-23 15:24:29.978549,-181
2021-12-23 15:24:29.978559,-162
2021-12-23 15:24:29.978568,-145
2021-12-23 15:24:29.978578,-148
2021-12-23 15:24:29.978587,-186
2021-12-23 15:24:29.978597,-236
2021-12-23 15:24:29.978606,-138
2021-12-23 15:24:29.978615,311
2021-12-23 15:24:29.978625,835
2021-12-23 15:24:29.978634,863
2021-12-23 15:24:29.978644,284
2021-12-23 15:24:29.978653,-382
2021-12-23 15:24:29.978663,-423
2021-12-23 15:24:29.978673,-78
2021-12-23 15:24:29.978682,-74
2021-12-23 15:24:29.978692,-186
2021-12-23 15:24:29.978701,-110
2021-12-23 15:24:29.978711,-64
2021-12-23 15:24:29.978720,-90
2021-12-23 15:24:29.978730,-62
2021-12-23 15:24:29.978739,-21
2021-12-23 15:24:30.202604,-21
2021-12-23 15:24:30.202620,-9
2021-12-23 15:24:30.202625,16
2021-12-23 15:24:30.202630,33
2021-12-23 15:24:30.202636,57
2021-12-23 15:24:30.202642,78
2021-12-23 15:24:30.202646,78
2021-12-23 15:24:30.202651,93
2021-12-23 15:24:30.202655,148
2021-12-23 15:24:30.202660,196
2021-12-23 15:24:30.202664,239
2021-12-23 15:24:30.202668,287
2021-12-23 15:24:30.202673,306
2021-12-23 15:24:30.202677,325
2021-12-23 15:24:30.202682,366
2021-12-23 15:24:30.202686,382
2021-12-23 15:24:30.202690,380
2021-12-23 15:24:30.202696,366
2021-12-23 15:24:30.202702,294
2021-12-23 15:24:30.202710,196
2021-12-23 15:24:30.202715,107
2021-12-23 15:24:30.202719,9
2021-12-23 15:24:30.202723,-86
2021-12-23 15:24:30.202728,-141
2021-12-23 15:24:30.202732,-160
2021-12-23 15:24:30.202736,-160
2021-12-23 15:24:30.202741,-153
2021-12-23 15:24:30.202745,-153
2021-12-23 15:24:30.202750,-148
2021-12-23 15:24:30.202755,-138
2021-12-23 15:24:30.428398,-126
2021-12-23 15:24:30.428428,-107
2021-12-23 15:24:30.428440,-100
2021-12-23 15:24:30.428450,-136
2021-12-23 15:24:30.428460,-179
2021-12-23 15:24:30.428469,-184
2021-12-23 15:24:30.428479,-174
2021-12-23 15:24:30.428488,-160
2021-12-23 15:24:30.428498,-136
2021-12-23 15:24:30.428507,-122
2021-12-23 15:24:30.428517,-119
2021-12-23 15:24:30.428527,-126
2021-12-23 15:24:30.428537,-129
2021-12-23 15:24:30.428546,-110
2021-12-23 15:24:30.428556,-98
2021-12-23 15:24:30.428565,-107
2021-12-23 15:24:30.428575,-112
2021-12-23 15:24:30.428584,-105
2021-12-23 15:24:30.428594,-98
2021-12-23 15:24:30.428604,-81
2021-12-23 15:24:30.428613,-64
2021-12-23 15:24:30.428623,-64
2021-12-23 15:24:30.428632,-59
2021-12-23 15:24:30.428642,-55
2021-12-23 15:24:30.428651,-66
2021-12-23 15:24:30.428661,-71
2021-12-23 15:24:30.428670,-66
2021-12-23 15:24:30.428680,-69
2021-12-23 15:24:30.428689,-74
2021-12-23 15:24:30.428699,-69
2021-12-23 15:24:30.652993,-45
2021-12-23 15:24:30.653012,-2
2021-12-23 15:24:30.653020,33
2021-12-23 15:24:30.653027,23
2021-12-23 15:24:30.653033,-16
2021-12-23 15:24:30.653039,-55
2021-12-23 15:24:30.653045,-74
2021-12-23 15:24:30.653052,-83
2021-12-23 15:24:30.653058,-93
2021-12-23 15:24:30.653064,-107
2021-12-23 15:24:30.653070,-129
2021-12-23 15:24:30.653076,-136
2021-12-23 15:24:30.653083,-124
2021-12-23 15:24:30.653089,-107
2021-12-23 15:24:30.653095,-100
2021-12-23 15:24:30.653101,-98
2021-12-23 15:24:30.653107,-107
2021-12-23 15:24:30.653114,-155
2021-12-23 15:24:30.653120,-169
2021-12-23 15:24:30.653126,88
2021-12-23 15:24:30.653132,634
2021-12-23 15:24:30.653138,978
2021-12-23 15:24:30.653144,744
2021-12-23 15:24:30.653151,76
2021-12-23 15:24:30.653157,-344
2021-12-23 15:24:30.653163,-136
2021-12-23 15:24:30.653171,31
2021-12-23 15:24:30.653177,-126
2021-12-23 15:24:30.653183,-148
2021-12-23 15:24:30.653189,-57
2021-12-23 15:24:30.923464,-62
2021-12-23 15:24:30.923484,-62
2021-12-23 15:24:30.923492,-28
2021-12-23 15:24:30.923499,-40
2021-12-23 15:24:30.923505,-69
2021-12-23 15:24:30.923512,-47
2021-12-23 15:24:30.923518,-7
2021-12-23 15:24:30.923524,14
2021-12-23 15:24:30.923531,26
2021-12-23 15:24:30.923537,9
2021-12-23 15:24:30.923543,-26
2021-12-23 15:24:30.923550,7
2021-12-23 15:24:30.923556,81
2021-12-23 15:24:30.923562,124
2021-12-23 15:24:30.923569,157
2021-12-23 15:24:30.923575,193
2021-12-23 15:24:30.923581,222
2021-12-23 15:24:30.923588,253
2021-12-23 15:24:30.923594,284
2021-12-23 15:24:30.923607,299
2021-12-23 15:24:30.923614,284
2021-12-23 15:24:30.923621,234
2021-12-23 15:24:30.923627,155
2021-12-23 15:24:30.923633,74
2021-12-23 15:24:30.923639,-9
2021-12-23 15:24:30.923646,-78
2021-12-23 15:24:30.923652,-122
2021-12-23 15:24:30.923658,-162
2021-12-23 15:24:30.923665,-203
2021-12-23 15:24:30.923671,-208
2021-12-23 15:24:31.238365,-181
2021-12-23 15:24:31.238410,-165
2021-12-23 15:24:31.238422,-167
2021-12-23 15:24:31.238432,-184
2021-12-23 15:24:31.238441,-186
2021-12-23 15:24:31.238451,-153
2021-12-23 15:24:31.238460,-124
2021-12-23 15:24:31.238470,-119
2021-12-23 15:24:31.238479,-122
2021-12-23 15:24:31.238489,-124
2021-12-23 15:24:31.238499,-112
2021-12-23 15:24:31.238508,-86
2021-12-23 15:24:31.238518,-69
2021-12-23 15:24:31.238527,-62
2021-12-23 15:24:31.238537,-69
2021-12-23 15:24:31.238546,-93
2021-12-23 15:24:31.238556,-93
2021-12-23 15:24:31.238566,-62
2021-12-23 15:24:31.238575,-45
2021-12-23 15:24:31.238584,-38
2021-12-23 15:24:31.238594,-35
2021-12-23 15:24:31.238604,-43
2021-12-23 15:24:31.238613,-35
2021-12-23 15:24:31.238623,-14
2021-12-23 15:24:31.238632,-9
2021-12-23 15:24:31.238642,-9
2021-12-23 15:24:31.238651,-4
2021-12-23 15:24:31.238661,-11
2021-12-23 15:24:31.238670,-9
2021-12-23 15:24:31.238680,4
2021-12-23 15:24:31.416993,-11
2021-12-23 15:24:31.417023,-35
2021-12-23 15:24:31.417035,-31
2021-12-23 15:24:31.417045,-28
2021-12-23 15:24:31.417054,-26
2021-12-23 15:24:31.417064,-9
2021-12-23 15:24:31.417074,-4
2021-12-23 15:24:31.417083,0
2021-12-23 15:24:31.417093,-16
2021-12-23 15:24:31.417102,-50
2021-12-23 15:24:31.417112,-31
2021-12-23 15:24:31.417122,11
2021-12-23 15:24:31.417132,23
2021-12-23 15:24:31.417141,52
2021-12-23 15:24:31.417151,55
2021-12-23 15:24:31.417161,-11
2021-12-23 15:24:31.417170,-26
2021-12-23 15:24:31.417180,31
2021-12-23 15:24:31.417189,26
2021-12-23 15:24:31.417199,-23
2021-12-23 15:24:31.417209,-21
2021-12-23 15:24:31.417218,4
2021-12-23 15:24:31.417228,2
2021-12-23 15:24:31.417238,2
2021-12-23 15:24:31.417247,19
2021-12-23 15:24:31.417257,11
2021-12-23 15:24:31.417267,-26
2021-12-23 15:24:31.417294,-47
2021-12-23 15:24:31.417305,-66
2021-12-23 15:24:31.417314,-114
2021-12-23 15:24:31.642750,7
2021-12-23 15:24:31.642780,480
2021-12-23 15:24:31.642791,954
2021-12-23 15:24:31.642801,935
2021-12-23 15:24:31.642811,366
2021-12-23 15:24:31.642820,-272
2021-12-23 15:24:31.642830,-294
2021-12-23 15:24:31.642840,-19
2021-12-23 15:24:31.642850,-112
2021-12-23 15:24:31.642859,-246
2021-12-23 15:24:31.642869,-155
2021-12-23 15:24:31.642879,-141
2021-12-23 15:24:31.642888,-212
2021-12-23 15:24:31.642898,-217
2021-12-23 15:24:31.642907,-196
2021-12-23 15:24:31.642917,-172
2021-12-23 15:24:31.642927,-117
2021-12-23 15:24:31.642936,-76
2021-12-23 15:24:31.642946,-55
2021-12-23 15:24:31.642955,-31
2021-12-23 15:24:31.642965,2
2021-12-23 15:24:31.642974,38
2021-12-23 15:24:31.642984,88
2021-12-23 15:24:31.642993,157
2021-12-23 15:24:31.643003,220
2021-12-23 15:24:31.643012,244
2021-12-23 15:24:31.643022,256
2021-12-23 15:24:31.643031,284
2021-12-23 15:24:31.643041,327
2021-12-23 15:24:31.643051,366
2021-12-23 15:24:31.867994,375
2021-12-23 15:24:31.868016,354
2021-12-23 15:24:31.868024,322
2021-12-23 15:24:31.868030,265
2021-12-23 15:24:31.868037,150
2021-12-23 15:24:31.868043,35
2021-12-23 15:24:31.868049,-33
2021-12-23 15:24:31.868056,-105
2021-12-23 15:24:31.868062,-162
2021-12-23 15:24:31.868068,-177
2021-12-23 15:24:31.868075,-177
2021-12-23 15:24:31.868081,-177
2021-12-23 15:24:31.868087,-179
2021-12-23 15:24:31.868093,-191
2021-12-23 15:24:31.868100,-191
2021-12-23 15:24:31.868106,-174
2021-12-23 15:24:31.868112,-160
2021-12-23 15:24:31.868119,-143
2021-12-23 15:24:31.868125,-136
2021-12-23 15:24:31.868132,-157
2021-12-23 15:24:31.868138,-186
2021-12-23 15:24:31.868144,-186
2021-12-23 15:24:31.868150,-157
2021-12-23 15:24:31.868157,-141
2021-12-23 15:24:31.868163,-141
2021-12-23 15:24:31.868169,-131
2021-12-23 15:24:31.868176,-110
2021-12-23 15:24:31.868182,-98
2021-12-23 15:24:31.868188,-86
2021-12-23 15:24:31.868195,-64
2021-12-23 15:24:32.092720,-59
2021-12-23 15:24:32.092751,-62
2021-12-23 15:24:32.092763,-47
2021-12-23 15:24:32.092773,-38
2021-12-23 15:24:32.092783,-35
2021-12-23 15:24:32.092793,-26
2021-12-23 15:24:32.092802,-33
2021-12-23 15:24:32.092812,-45
2021-12-23 15:24:32.092822,-31
2021-12-23 15:24:32.092831,-16
2021-12-23 15:24:32.092841,-19
2021-12-23 15:24:32.092851,-23
2021-12-23 15:24:32.092860,-40
2021-12-23 15:24:32.092870,-50
2021-12-23 15:24:32.092880,-31
2021-12-23 15:24:32.092889,-19
2021-12-23 15:24:32.092899,-21
2021-12-23 15:24:32.092909,-21
2021-12-23 15:24:32.092918,-35
2021-12-23 15:24:32.092928,-40
2021-12-23 15:24:32.092938,-21
2021-12-23 15:24:32.092947,-19
2021-12-23 15:24:32.092957,-19
2021-12-23 15:24:32.092967,-19
2021-12-23 15:24:32.092976,-35
2021-12-23 15:24:32.092986,-31
2021-12-23 15:24:32.092996,-14
2021-12-23 15:24:32.093005,-26
2021-12-23 15:24:32.093015,-26
2021-12-23 15:24:32.093025,-11
2021-12-23 15:24:32.362707,-16
2021-12-23 15:24:32.362737,-14
2021-12-23 15:24:32.362749,2
2021-12-23 15:24:32.362758,4
2021-12-23 15:24:32.362768,0
2021-12-23 15:24:32.362778,-19
2021-12-23 15:24:32.362787,-64
2021-12-23 15:24:32.362797,-98
2021-12-23 15:24:32.362807,-105
2021-12-23 15:24:32.362816,-83
2021-12-23 15:24:32.362826,-47
2021-12-23 15:24:32.362835,-33
2021-12-23 15:24:32.362845,-45
2021-12-23 15:24:32.362854,-35
2021-12-23 15:24:32.362864,-33
2021-12-23 15:24:32.362873,-66
2021-12-23 15:24:32.362883,-98
2021-12-23 15:24:32.362892,-110
2021-12-23 15:24:32.362902,-117
2021-12-23 15:24:32.362911,-110
2021-12-23 15:24:32.362921,-98
2021-12-23 15:24:32.362931,-95
2021-12-23 15:24:32.362940,-93
2021-12-23 15:24:32.362950,-95
2021-12-23 15:24:32.362959,-133
2021-12-23 15:24:32.362969,-193
2021-12-23 15:24:32.362978,-71
2021-12-23 15:24:32.362988,406
2021-12-23 15:24:32.362997,894
2021-12-23 15:24:32.363007,880
2021-12-23 15:24:32.498318,287
2021-12-23 15:24:32.498347,-318
2021-12-23 15:24:32.498359,-272
2021-12-23 15:24:32.498369,0
2021-12-23 15:24:32.498379,-93
2021-12-23 15:24:32.498389,-198
2021-12-23 15:24:32.498398,-105
2021-12-23 15:24:32.498408,-64
2021-12-23 15:24:32.498418,-81
2021-12-23 15:24:32.498427,-59
2021-12-23 15:24:32.498437,-52
2021-12-23 15:24:32.498446,-62
2021-12-23 15:24:32.498456,-31
2021-12-23 15:24:32.498466,7
2021-12-23 15:24:32.498475,26
2021-12-23 15:24:32.498485,40
2021-12-23 15:24:32.498495,45
2021-12-23 15:24:32.498504,45
2021-12-23 15:24:32.498514,76
2021-12-23 15:24:32.498524,133
2021-12-23 15:24:32.498533,172
2021-12-23 15:24:32.498543,198
2021-12-23 15:24:32.498552,229
2021-12-23 15:24:32.498562,256
2021-12-23 15:24:32.498572,291
2021-12-23 15:24:32.498581,330
2021-12-23 15:24:32.498591,344
2021-12-23 15:24:32.498601,334
2021-12-23 15:24:32.498610,318
2021-12-23 15:24:32.498620,272
2021-12-23 15:24:32.768376,193
2021-12-23 15:24:32.768407,107
2021-12-23 15:24:32.768419,26
2021-12-23 15:24:32.768429,-57
2021-12-23 15:24:32.768439,-136
2021-12-23 15:24:32.768448,-172
2021-12-23 15:24:32.768458,-157
2021-12-23 15:24:32.768468,-148
2021-12-23 15:24:32.768477,-150
2021-12-23 15:24:32.768487,-155
2021-12-23 15:24:32.768497,-169
2021-12-23 15:24:32.768507,-167
2021-12-23 15:24:32.768517,-157
2021-12-23 15:24:32.768526,-157
2021-12-23 15:24:32.768536,-141
2021-12-23 15:24:32.768546,-131
2021-12-23 15:24:32.768555,-143
2021-12-23 15:24:32.768565,-129
2021-12-23 15:24:32.768575,-102
2021-12-23 15:24:32.768584,-88
2021-12-23 15:24:32.768594,-74
2021-12-23 15:24:32.768604,-74
2021-12-23 15:24:32.768613,-71
2021-12-23 15:24:32.768633,-47
2021-12-23 15:24:32.768644,-31
2021-12-23 15:24:32.768653,-28
2021-12-23 15:24:32.768663,-21
2021-12-23 15:24:32.768673,-23
2021-12-23 15:24:32.768683,-31
2021-12-23 15:24:32.768692,-16
2021-12-23 15:24:32.993088,-7
2021-12-23 15:24:32.993125,-40
2021-12-23 15:24:32.993133,-86
2021-12-23 15:24:32.993140,-88
2021-12-23 15:24:32.993190,-71
2021-12-23 15:24:32.993199,-64
2021-12-23 15:24:32.993206,-47
2021-12-23 15:24:32.993235,-31
2021-12-23 15:24:32.993282,-31
2021-12-23 15:24:32.993296,-50
2021-12-23 15:24:32.993308,-69
2021-12-23 15:24:32.993316,-59
2021-12-23 15:24:32.993323,-52
2021-12-23 15:24:32.993333,-78
2021-12-23 15:24:32.993344,-122
2021-12-23 15:24:32.993355,-157
2021-12-23 15:24:32.993364,-157
2021-12-23 15:24:32.993374,-122
2021-12-23 15:24:32.993381,-110
2021-12-23 15:24:32.993387,-124
2021-12-23 15:24:32.993394,-114
2021-12-23 15:24:32.993400,-102
2021-12-23 15:24:32.993406,-90
2021-12-23 15:24:32.993413,-64
2021-12-23 15:24:32.993419,-45
2021-12-23 15:24:32.993425,-43
2021-12-23 15:24:32.993431,-40
2021-12-23 15:24:32.993438,-47
2021-12-23 15:24:32.993444,-40
2021-12-23 15:24:32.993450,-14
2021-12-23 15:24:33.263353,0
2021-12-23 15:24:33.263397,7
2021-12-23 15:24:33.263408,11
2021-12-23 15:24:33.263418,0
2021-12-23 15:24:33.263428,0
2021-12-23 15:24:33.263450,38
2021-12-23 15:24:33.263460,81
2021-12-23 15:24:33.263470,78
2021-12-23 15:24:33.263480,21
2021-12-23 15:24:33.263489,-23
2021-12-23 15:24:33.263499,-23
2021-12-23 15:24:33.263508,-31
2021-12-23 15:24:33.263518,-57
2021-12-23 15:24:33.263527,-69
2021-12-23 15:24:33.263537,-86
2021-12-23 15:24:33.263546,-105
2021-12-23 15:24:33.263556,-105
2021-12-23 15:24:33.263565,-107
2021-12-23 15:24:33.263575,-100
2021-12-23 15:24:33.263584,-83
2021-12-23 15:24:33.263594,-88
2021-12-23 15:24:33.263604,-138
2021-12-23 15:24:33.263613,-189
2021-12-23 15:24:33.263623,-43
2021-12-23 15:24:33.263632,447
2021-12-23 15:24:33.263642,933
2021-12-23 15:24:33.263651,911
2021-12-23 15:24:33.263661,330
2021-12-23 15:24:33.263671,-260
2021-12-23 15:24:33.263680,-241
2021-12-23 15:24:33.486723,31
2021-12-23 15:24:33.486744,-23
2021-12-23 15:24:33.486752,-126
2021-12-23 15:24:33.486758,-64
2021-12-23 15:24:33.486765,-40
2021-12-23 15:24:33.486771,-57
2021-12-23 15:24:33.486777,-52
2021-12-23 15:24:33.486784,-78
2021-12-23 15:24:33.486790,-105
2021-12-23 15:24:33.486796,-76
2021-12-23 15:24:33.486803,-40
2021-12-23 15:24:33.486809,-19
2021-12-23 15:24:33.486816,16
2021-12-23 15:24:33.486822,47
2021-12-23 15:24:33.486828,64
2021-12-23 15:24:33.486835,90
2021-12-23 15:24:33.486841,133
2021-12-23 15:24:33.486847,174
2021-12-23 15:24:33.486854,191
2021-12-23 15:24:33.486860,181
2021-12-23 15:24:33.486866,193
2021-12-23 15:24:33.486873,244
2021-12-23 15:24:33.486879,287
2021-12-23 15:24:33.486885,306
2021-12-23 15:24:33.486892,318
2021-12-23 15:24:33.486898,301
2021-12-23 15:24:33.486904,244
2021-12-23 15:24:33.486911,160
2021-12-23 15:24:33.486917,76
2021-12-23 15:24:33.486923,2
2021-12-23 15:24:33.712945,-55
2021-12-23 15:24:33.712978,-105
2021-12-23 15:24:33.712988,-145
2021-12-23 15:24:33.712995,-162
2021-12-23 15:24:33.713003,-155
2021-12-23 15:24:33.713010,-141
2021-12-23 15:24:33.713016,-145
2021-12-23 15:24:33.713023,-169
2021-12-23 15:24:33.713030,-172
2021-12-23 15:24:33.713036,-145
2021-12-23 15:24:33.713043,-122
2021-12-23 15:24:33.713049,-110
2021-12-23 15:24:33.713056,-110
2021-12-23 15:24:33.713062,-129
2021-12-23 15:24:33.713069,-133
2021-12-23 15:24:33.713075,-143
2021-12-23 15:24:33.713081,-174
2021-12-23 15:24:33.713087,-136
2021-12-23 15:24:33.713093,-52
2021-12-23 15:24:33.713100,-50
2021-12-23 15:24:33.713106,-95
2021-12-23 15:24:33.713113,-114
2021-12-23 15:24:33.713120,-110
2021-12-23 15:24:33.713127,-93
2021-12-23 15:24:33.713134,-86
2021-12-23 15:24:33.713141,-88
2021-12-23 15:24:33.713147,-78
2021-12-23 15:24:33.713155,-69
2021-12-23 15:24:33.713162,-69
2021-12-23 15:24:33.713173,-62
2021-12-23 15:24:33.893332,-57
2021-12-23 15:24:33.893362,-62
2021-12-23 15:24:33.893374,-50
2021-12-23 15:24:33.893384,-35
2021-12-23 15:24:33.893393,-35
2021-12-23 15:24:33.893403,-40
2021-12-23 15:24:33.893412,-47
2021-12-23 15:24:33.893422,-57
2021-12-23 15:24:33.893431,-45
2021-12-23 15:24:33.893441,-38
2021-12-23 15:24:33.893450,-40
2021-12-23 15:24:33.893460,-33
2021-12-23 15:24:33.893470,-64
2021-12-23 15:24:33.893479,-100
2021-12-23 15:24:33.893489,-81
2021-12-23 15:24:33.893498,-74
2021-12-23 15:24:33.893508,-102
2021-12-23 15:24:33.893517,-110
2021-12-23 15:24:33.893527,-110
2021-12-23 15:24:33.893537,-114
2021-12-23 15:24:33.893546,-102
2021-12-23 15:24:33.893555,-98
2021-12-23 15:24:33.893565,-112
2021-12-23 15:24:33.893575,-141
2021-12-23 15:24:33.893584,-191
2021-12-23 15:24:33.893593,-198
2021-12-23 15:24:33.893603,-136
2021-12-23 15:24:33.893612,-105
2021-12-23 15:24:33.893622,-112
2021-12-23 15:24:33.893631,-102
2021-12-23 15:24:34.207241,-86
2021-12-23 15:24:34.207266,-74
2021-12-23 15:24:34.207274,-74
2021-12-23 15:24:34.207280,-90
2021-12-23 15:24:34.207286,-76
2021-12-23 15:24:34.207292,-52
2021-12-23 15:24:34.207299,-83
2021-12-23 15:24:34.207305,-110
2021-12-23 15:24:34.207311,-64
2021-12-23 15:24:34.207319,-33
2021-12-23 15:24:34.207328,-64
2021-12-23 15:24:34.207334,-102
2021-12-23 15:24:34.207340,-112
2021-12-23 15:24:34.207346,-95
2021-12-23 15:24:34.207353,-74
2021-12-23 15:24:34.207359,-35
2021-12-23 15:24:34.207365,4
2021-12-23 15:24:34.207371,9
2021-12-23 15:24:34.207379,9
2021-12-23 15:24:34.207388,21
2021-12-23 15:24:34.207459,-21
2021-12-23 15:24:34.207467,-98
2021-12-23 15:24:34.207473,33
2021-12-23 15:24:34.207480,523
2021-12-23 15:24:34.207486,997
2021-12-23 15:24:34.207513,957
2021-12-23 15:24:34.207520,330
2021-12-23 15:24:34.207526,-306
2021-12-23 15:24:34.207531,-251
2021-12-23 15:24:34.207536,43
2021-12-23 15:24:34.387214,-35
2021-12-23 15:24:34.387234,-112
2021-12-23 15:24:34.387242,-19
2021-12-23 15:24:34.387249,-11
2021-12-23 15:24:34.387255,-47
2021-12-23 15:24:34.387261,-21
2021-12-23 15:24:34.387268,9
2021-12-23 15:24:34.387274,28
2021-12-23 15:24:34.387280,50
2021-12-23 15:24:34.387287,64
2021-12-23 15:24:34.387293,59
2021-12-23 15:24:34.387299,57
2021-12-23 15:24:34.387306,81
2021-12-23 15:24:34.387312,126
2021-12-23 15:24:34.387318,148
2021-12-23 15:24:34.387324,162
2021-12-23 15:24:34.387331,200
2021-12-23 15:24:34.387337,222
2021-12-23 15:24:34.387343,232
2021-12-23 15:24:34.387350,265
2021-12-23 15:24:34.387356,267
2021-12-23 15:24:34.387362,241
2021-12-23 15:24:34.387369,253
2021-12-23 15:24:34.387375,267
2021-12-23 15:24:34.387381,241
2021-12-23 15:24:34.387387,179
2021-12-23 15:24:34.387394,90
2021-12-23 15:24:34.387400,-26
2021-12-23 15:24:34.387406,-131
2021-12-23 15:24:34.387413,-191
2021-12-23 15:24:34.658336,-224
2021-12-23 15:24:34.658365,-246
2021-12-23 15:24:34.658377,-251
2021-12-23 15:24:34.658387,-256
2021-12-23 15:24:34.658397,-275
2021-12-23 15:24:34.658406,-277
2021-12-23 15:24:34.658416,-246
2021-12-23 15:24:34.658426,-217
2021-12-23 15:24:34.658435,-208
2021-12-23 15:24:34.658445,-212
2021-12-23 15:24:34.658455,-229
2021-12-23 15:24:34.658464,-227
2021-12-23 15:24:34.658474,-198
2021-12-23 15:24:34.658483,-177
2021-12-23 15:24:34.658493,-160
2021-12-23 15:24:34.658503,-160
2021-12-23 15:24:34.658512,-189
2021-12-23 15:24:34.658522,-186
2021-12-23 15:24:34.658531,-153
2021-12-23 15:24:34.658541,-150
2021-12-23 15:24:34.658551,-160
2021-12-23 15:24:34.658560,-155
2021-12-23 15:24:34.658570,-150
2021-12-23 15:24:34.658580,-141
2021-12-23 15:24:34.658589,-114
2021-12-23 15:24:34.658599,-81
2021-12-23 15:24:34.658608,-66
2021-12-23 15:24:34.658618,-74
2021-12-23 15:24:34.658627,-88
2021-12-23 15:24:34.658637,-98
2021-12-23 15:24:34.838388,-93
2021-12-23 15:24:34.838418,-78
2021-12-23 15:24:34.838430,-71
2021-12-23 15:24:34.838440,-88
2021-12-23 15:24:34.838450,-98
2021-12-23 15:24:34.838459,-74
2021-12-23 15:24:34.838469,-59
2021-12-23 15:24:34.838479,-59
2021-12-23 15:24:34.838488,-57
2021-12-23 15:24:34.838498,-74
2021-12-23 15:24:34.838509,-83
2021-12-23 15:24:34.838518,-52
2021-12-23 15:24:34.838528,-31
2021-12-23 15:24:34.838537,-33
2021-12-23 15:24:34.838547,-43
2021-12-23 15:24:34.838557,-62
2021-12-23 15:24:34.838566,-71
2021-12-23 15:24:34.838576,-40
2021-12-23 15:24:34.838585,-7
2021-12-23 15:24:34.838595,-4
2021-12-23 15:24:34.838605,-21
2021-12-23 15:24:34.838614,-50
2021-12-23 15:24:34.838624,-81
2021-12-23 15:24:34.838633,-95
2021-12-23 15:24:34.838643,-76
2021-12-23 15:24:34.838652,-52
2021-12-23 15:24:34.838662,-47
2021-12-23 15:24:34.838671,-59
2021-12-23 15:24:34.838681,-64
2021-12-23 15:24:34.838691,-55
2021-12-23 15:24:35.108318,-33
2021-12-23 15:24:35.108348,-2
2021-12-23 15:24:35.108360,2
2021-12-23 15:24:35.108370,-21
2021-12-23 15:24:35.108380,-26
2021-12-23 15:24:35.108390,-7
2021-12-23 15:24:35.108399,2
2021-12-23 15:24:35.108409,-7
2021-12-23 15:24:35.108419,-35
2021-12-23 15:24:35.108429,-66
2021-12-23 15:24:35.108438,-52
2021-12-23 15:24:35.108448,-14
2021-12-23 15:24:35.108458,0
2021-12-23 15:24:35.108468,11
2021-12-23 15:24:35.108478,4
2021-12-23 15:24:35.108487,-31
2021-12-23 15:24:35.108497,-50
2021-12-23 15:24:35.108507,-66
2021-12-23 15:24:35.108516,21
2021-12-23 15:24:35.108526,456
2021-12-23 15:24:35.108536,995
2021-12-23 15:24:35.108545,1071
2021-12-23 15:24:35.108555,540
2021-12-23 15:24:35.108565,-110
2021-12-23 15:24:35.108574,-169
2021-12-23 15:24:35.108584,126
2021-12-23 15:24:35.108594,81
2021-12-23 15:24:35.108604,-59
2021-12-23 15:24:35.108613,2
2021-12-23 15:24:35.108623,35
2021-12-23 15:24:35.288162,7
2021-12-23 15:24:35.288191,38
2021-12-23 15:24:35.288203,57
2021-12-23 15:24:35.288213,23
2021-12-23 15:24:35.288222,26
2021-12-23 15:24:35.288232,64
2021-12-23 15:24:35.288241,62
2021-12-23 15:24:35.288251,55
2021-12-23 15:24:35.288261,95
2021-12-23 15:24:35.288270,136
2021-12-23 15:24:35.288280,167
2021-12-23 15:24:35.288289,205
2021-12-23 15:24:35.288299,241
2021-12-23 15:24:35.288308,256
2021-12-23 15:24:35.288318,260
2021-12-23 15:24:35.288327,289
2021-12-23 15:24:35.288337,332
2021-12-23 15:24:35.288347,363
2021-12-23 15:24:35.288356,378
2021-12-23 15:24:35.288366,361
2021-12-23 15:24:35.288375,296
2021-12-23 15:24:35.288385,215
2021-12-23 15:24:35.288394,112
2021-12-23 15:24:35.288404,23
2021-12-23 15:24:35.288414,-14
2021-12-23 15:24:35.288423,-76
2021-12-23 15:24:35.288433,-157
2021-12-23 15:24:35.288443,-189
2021-12-23 15:24:35.288452,-210
2021-12-23 15:24:35.288462,-258
2021-12-23 15:24:35.601223,-272
2021-12-23 15:24:35.601242,-246
2021-12-23 15:24:35.601249,-239
2021-12-23 15:24:35.601256,-246
2021-12-23 15:24:35.601262,-260
2021-12-23 15:24:35.601269,-265
2021-12-23 15:24:35.601275,-244
2021-12-23 15:24:35.601281,-227
2021-12-23 15:24:35.601288,-229
2021-12-23 15:24:35.601294,-215
2021-12-23 15:24:35.601301,-184
2021-12-23 15:24:35.601307,-160
2021-12-23 15:24:35.601313,-162
2021-12-23 15:24:35.601319,-179
2021-12-23 15:24:35.601326,-157
2021-12-23 15:24:35.601333,-126
2021-12-23 15:24:35.601341,-117
2021-12-23 15:24:35.601347,-100
2021-12-23 15:24:35.601353,-86
2021-12-23 15:24:35.601360,-88
2021-12-23 15:24:35.601366,-78
2021-12-23 15:24:35.601372,-64
2021-12-23 15:24:35.601378,-57
2021-12-23 15:24:35.601385,-40
2021-12-23 15:24:35.601391,-26
2021-12-23 15:24:35.601397,-26
2021-12-23 15:24:35.601403,-21
2021-12-23 15:24:35.601410,-14
2021-12-23 15:24:35.601416,-4
2021-12-23 15:24:35.601422,7
2021-12-23 15:24:35.738000,11
2021-12-23 15:24:35.738021,7
2021-12-23 15:24:35.738029,7
2021-12-23 15:24:35.738036,2
2021-12-23 15:24:35.738042,9
2021-12-23 15:24:35.738049,31
2021-12-23 15:24:35.738055,35
2021-12-23 15:24:35.738061,9
2021-12-23 15:24:35.738071,-2
2021-12-23 15:24:35.738077,19
2021-12-23 15:24:35.738083,43
2021-12-23 15:24:35.738090,45
2021-12-23 15:24:35.738096,19
2021-12-23 15:24:35.738102,-2
2021-12-23 15:24:35.738109,19
2021-12-23 15:24:35.738115,31
2021-12-23 15:24:35.738121,9
2021-12-23 15:24:35.738128,7
2021-12-23 15:24:35.738134,11
2021-12-23 15:24:35.738140,0
2021-12-23 15:24:35.738147,4
2021-12-23 15:24:35.738153,11
2021-12-23 15:24:35.738159,4
2021-12-23 15:24:35.738165,9
2021-12-23 15:24:35.738172,26
2021-12-23 15:24:35.738178,28
2021-12-23 15:24:35.738184,19
2021-12-23 15:24:35.738190,23
2021-12-23 15:24:35.738197,52
2021-12-23 15:24:35.738203,78
2021-12-23 15:24:36.052669,69
2021-12-23 15:24:36.052690,50
2021-12-23 15:24:36.052698,50
2021-12-23 15:24:36.052705,40
2021-12-23 15:24:36.052711,-4
2021-12-23 15:24:36.052718,-64
2021-12-23 15:24:36.052724,-86
2021-12-23 15:24:36.052730,-59
2021-12-23 15:24:36.052737,-57
2021-12-23 15:24:36.052743,-102
2021-12-23 15:24:36.052750,-129
2021-12-23 15:24:36.052756,-114
2021-12-23 15:24:36.052762,-114
2021-12-23 15:24:36.052769,-126
2021-12-23 15:24:36.052775,-155
2021-12-23 15:24:36.052781,-177
2021-12-23 15:24:36.052788,55
2021-12-23 15:24:36.052794,562
2021-12-23 15:24:36.052800,873
2021-12-23 15:24:36.052807,677
2021-12-23 15:24:36.052813,93
2021-12-23 15:24:36.052819,-315
2021-12-23 15:24:36.052826,-143
2021-12-23 15:24:36.052832,26
2021-12-23 15:24:36.052838,-95
2021-12-23 15:24:36.052845,-107
2021-12-23 15:24:36.052851,-35
2021-12-23 15:24:36.052857,-59
2021-12-23 15:24:36.052864,-69
2021-12-23 15:24:36.052870,-47
2021-12-23 15:24:36.277740,-52
2021-12-23 15:24:36.277770,-55
2021-12-23 15:24:36.277782,-45
2021-12-23 15:24:36.277792,-57
2021-12-23 15:24:36.277802,-74
2021-12-23 15:24:36.277811,-78
2021-12-23 15:24:36.277821,-62
2021-12-23 15:24:36.277831,-19
2021-12-23 15:24:36.277840,23
2021-12-23 15:24:36.277850,52
2021-12-23 15:24:36.277860,83
2021-12-23 15:24:36.277870,105
2021-12-23 15:24:36.277880,133
2021-12-23 15:24:36.277889,181
2021-12-23 15:24:36.277899,217
2021-12-23 15:24:36.277909,227
2021-12-23 15:24:36.277918,222
2021-12-23 15:24:36.277928,205
2021-12-23 15:24:36.277937,186
2021-12-23 15:24:36.277947,157
2021-12-23 15:24:36.277956,88
2021-12-23 15:24:36.277966,-9
2021-12-23 15:24:36.277976,-117
2021-12-23 15:24:36.277985,-186
2021-12-23 15:24:36.277995,-181
2021-12-23 15:24:36.278004,-172
2021-12-23 15:24:36.278014,-203
2021-12-23 15:24:36.278024,-234
2021-12-23 15:24:36.278034,-251
2021-12-23 15:24:36.278043,-222
2021-12-23 15:24:36.413428,-150
2021-12-23 15:24:36.413457,-100
2021-12-23 15:24:36.413469,-90
2021-12-23 15:24:36.413479,-98
2021-12-23 15:24:36.413489,-114
2021-12-23 15:24:36.413499,-117
2021-12-23 15:24:36.413508,-83
2021-12-23 15:24:36.413517,-52
2021-12-23 15:24:36.413616,-55
2021-12-23 15:24:36.413628,-95
2021-12-23 15:24:36.413638,-148
2021-12-23 15:24:36.413647,-145
2021-12-23 15:24:36.413657,-117
2021-12-23 15:24:36.413666,-138
2021-12-23 15:24:36.413676,-155
2021-12-23 15:24:36.413686,-122
2021-12-23 15:24:36.413695,-95
2021-12-23 15:24:36.413705,-86
2021-12-23 15:24:36.413714,-66
2021-12-23 15:24:36.413724,-43
2021-12-23 15:24:36.413734,-38
2021-12-23 15:24:36.413743,-50
2021-12-23 15:24:36.413753,-57
2021-12-23 15:24:36.413762,-38
2021-12-23 15:24:36.413772,-19
2021-12-23 15:24:36.413781,-11
2021-12-23 15:24:36.413791,-11
2021-12-23 15:24:36.413800,-21
2021-12-23 15:24:36.413810,-33
2021-12-23 15:24:36.413819,-14
2021-12-23 15:24:36.683101,9
2021-12-23 15:24:36.683121,-31
2021-12-23 15:24:36.683128,-81
2021-12-23 15:24:36.683135,-45
2021-12-23 15:24:36.683141,9
2021-12-23 15:24:36.683147,11
2021-12-23 15:24:36.683154,-11
2021-12-23 15:24:36.683160,-2
2021-12-23 15:24:36.683166,26
2021-12-23 15:24:36.683173,2
2021-12-23 15:24:36.683179,-40
2021-12-23 15:24:36.683185,-47
2021-12-23 15:24:36.683191,-52
2021-12-23 15:24:36.683198,-64
2021-12-23 15:24:36.683204,-81
2021-12-23 15:24:36.683210,-74
2021-12-23 15:24:36.683216,-14
2021-12-23 15:24:36.683223,38
2021-12-23 15:24:36.683229,52
2021-12-23 15:24:36.683235,52
2021-12-23 15:24:36.683241,50
2021-12-23 15:24:36.683247,33
2021-12-23 15:24:36.683254,19
2021-12-23 15:24:36.683260,28
2021-12-23 15:24:36.683266,38
2021-12-23 15:24:36.683272,43
2021-12-23 15:24:36.683279,50
2021-12-23 15:24:36.683285,45
2021-12-23 15:24:36.683291,33
2021-12-23 15:24:36.683297,43
2021-12-23 15:24:36.908441,45
2021-12-23 15:24:36.908472,-7
2021-12-23 15:24:36.908484,-2
2021-12-23 15:24:36.908494,327
2021-12-23 15:24:36.908504,861
2021-12-23 15:24:36.908514,1081
2021-12-23 15:24:36.908523,739
2021-12-23 15:24:36.908533,33
2021-12-23 15:24:36.908542,-315
2021-12-23 15:24:36.908552,-50
2021-12-23 15:24:36.908562,66
2021-12-23 15:24:36.908571,-86
2021-12-23 15:24:36.908581,-59
2021-12-23 15:24:36.908591,9
2021-12-23 15:24:36.908600,-45
2021-12-23 15:24:36.908610,-100
2021-12-23 15:24:36.908620,-110
2021-12-23 15:24:36.908629,-133
2021-12-23 15:24:36.908639,-143
2021-12-23 15:24:36.908648,-86
2021-12-23 15:24:36.908658,-38
2021-12-23 15:24:36.908668,-40
2021-12-23 15:24:36.908677,-16
2021-12-23 15:24:36.908687,38
2021-12-23 15:24:36.908696,69
2021-12-23 15:24:36.908706,76
2021-12-23 15:24:36.908715,90
2021-12-23 15:24:36.908725,129
2021-12-23 15:24:36.908734,169
2021-12-23 15:24:36.908744,196
2021-12-23 15:24:37.133425,217
2021-12-23 15:24:37.133448,241
2021-12-23 15:24:37.133456,258
2021-12-23 15:24:37.133462,258
2021-12-23 15:24:37.133469,253
2021-12-23 15:24:37.133475,232
2021-12-23 15:24:37.133481,169
2021-12-23 15:24:37.133487,66
2021-12-23 15:24:37.133494,-55
2021-12-23 15:24:37.133500,-148
2021-12-23 15:24:37.133506,-184
2021-12-23 15:24:37.133513,-193
2021-12-23 15:24:37.133519,-212
2021-12-23 15:24:37.133525,-248
2021-12-23 15:24:37.133531,-299
2021-12-23 15:24:37.133538,-279
2021-12-23 15:24:37.133544,-200
2021-12-23 15:24:37.133550,-186
2021-12-23 15:24:37.133556,-205
2021-12-23 15:24:37.133563,-198
2021-12-23 15:24:37.133569,-198
