Time,ECG
2021-12-23 14:58:59.845097,21
2021-12-23 14:58:59.845119,28
2021-12-23 14:58:59.845125,26
2021-12-23 14:58:59.845132,16
2021-12-23 14:58:59.845137,21
2021-12-23 14:58:59.845144,52
2021-12-23 14:58:59.845150,83
2021-12-23 14:58:59.845155,112
2021-12-23 14:58:59.845161,131
2021-12-23 14:58:59.845167,105
2021-12-23 14:58:59.845173,81
2021-12-23 14:58:59.845178,112
2021-12-23 14:58:59.845184,141
2021-12-23 14:58:59.845190,138
2021-12-23 14:58:59.845195,124
2021-12-23 14:58:59.845202,98
2021-12-23 14:58:59.845207,78
2021-12-23 14:58:59.845212,83
2021-12-23 14:58:59.845217,76
2021-12-23 14:58:59.845222,35
2021-12-23 14:58:59.845228,-26
2021-12-23 14:58:59.845232,-74
2021-12-23 14:58:59.845238,-102
2021-12-23 14:58:59.845243,-124
2021-12-23 14:58:59.845248,-117
2021-12-23 14:58:59.845253,-100
2021-12-23 14:58:59.845258,-112
2021-12-23 14:58:59.845263,-143
2021-12-23 14:58:59.845269,-162
2021-12-23 14:58:59.845274,-141
2021-12-23 14:59:00.159134,-102
2021-12-23 14:59:00.159164,-81
2021-12-23 14:59:00.159176,-93
2021-12-23 14:59:00.159187,-107
2021-12-23 14:59:00.159197,-90
2021-12-23 14:59:00.159207,-66
2021-12-23 14:59:00.159218,-59
2021-12-23 14:59:00.159228,-52
2021-12-23 14:59:00.159238,-57
2021-12-23 14:59:00.159248,-83
2021-12-23 14:59:00.159258,-71
2021-12-23 14:59:00.159268,-35
2021-12-23 14:59:00.159277,-33
2021-12-23 14:59:00.159287,-31
2021-12-23 14:59:00.159297,-38
2021-12-23 14:59:00.159307,-71
2021-12-23 14:59:00.159317,-50
2021-12-23 14:59:00.159328,9
2021-12-23 14:59:00.159338,28
2021-12-23 14:59:00.159348,11
2021-12-23 14:59:00.159358,-2
2021-12-23 14:59:00.159368,-16
2021-12-23 14:59:00.159378,-47
2021-12-23 14:59:00.159388,-76
2021-12-23 14:59:00.159398,-62
2021-12-23 14:59:00.159408,-40
2021-12-23 14:59:00.159418,-43
2021-12-23 14:59:00.159428,-45
2021-12-23 14:59:00.159438,-50
2021-12-23 14:59:00.159451,-66
2021-12-23 14:59:00.295183,-64
2021-12-23 14:59:00.295204,-50
2021-12-23 14:59:00.295211,-74
2021-12-23 14:59:00.295217,-45
2021-12-23 14:59:00.295223,222
2021-12-23 14:59:00.295229,576
2021-12-23 14:59:00.295235,571
2021-12-23 14:59:00.295241,165
2021-12-23 14:59:00.295247,-203
2021-12-23 14:59:00.295253,-210
2021-12-23 14:59:00.295258,-47
2021-12-23 14:59:00.295264,-9
2021-12-23 14:59:00.295269,-7
2021-12-23 14:59:00.295279,28
2021-12-23 14:59:00.295285,-14
2021-12-23 14:59:00.295290,-59
2021-12-23 14:59:00.295295,-31
2021-12-23 14:59:00.295301,4
2021-12-23 14:59:00.295306,23
2021-12-23 14:59:00.295311,23
2021-12-23 14:59:00.295316,-16
2021-12-23 14:59:00.295321,-14
2021-12-23 14:59:00.295327,43
2021-12-23 14:59:00.295332,76
2021-12-23 14:59:00.295337,76
2021-12-23 14:59:00.295342,74
2021-12-23 14:59:00.295347,100
2021-12-23 14:59:00.295352,136
2021-12-23 14:59:00.295357,155
2021-12-23 14:59:00.295364,155
2021-12-23 14:59:00.520530,169
2021-12-23 14:59:00.520561,186
2021-12-23 14:59:00.520573,153
2021-12-23 14:59:00.520583,129
2021-12-23 14:59:00.520593,157
2021-12-23 14:59:00.520603,155
2021-12-23 14:59:00.520613,98
2021-12-23 14:59:00.520623,2
2021-12-23 14:59:00.520633,-98
2021-12-23 14:59:00.520643,-143
2021-12-23 14:59:00.520653,-143
2021-12-23 14:59:00.520663,-160
2021-12-23 14:59:00.520673,-189
2021-12-23 14:59:00.520682,-208
2021-12-23 14:59:00.520693,-203
2021-12-23 14:59:00.520703,-167
2021-12-23 14:59:00.520712,-155
2021-12-23 14:59:00.520729,-177
2021-12-23 14:59:00.520739,-172
2021-12-23 14:59:00.520749,-148
2021-12-23 14:59:00.520759,-141
2021-12-23 14:59:00.520769,-126
2021-12-23 14:59:00.520778,-102
2021-12-23 14:59:00.520788,-90
2021-12-23 14:59:00.520798,-83
2021-12-23 14:59:00.520808,-90
2021-12-23 14:59:00.520817,-93
2021-12-23 14:59:00.520827,-88
2021-12-23 14:59:00.520837,-100
2021-12-23 14:59:00.520847,-110
2021-12-23 14:59:00.834667,-95
2021-12-23 14:59:00.834688,-83
2021-12-23 14:59:00.834695,-78
2021-12-23 14:59:00.834702,-90
2021-12-23 14:59:00.834708,-102
2021-12-23 14:59:00.834715,-81
2021-12-23 14:59:00.834721,-66
2021-12-23 14:59:00.834734,-66
2021-12-23 14:59:00.834741,-59
2021-12-23 14:59:00.834747,-59
2021-12-23 14:59:00.834754,-59
2021-12-23 14:59:00.834760,-47
2021-12-23 14:59:00.834766,-62
2021-12-23 14:59:00.834773,-100
2021-12-23 14:59:00.834779,-98
2021-12-23 14:59:00.834786,-76
2021-12-23 14:59:00.834792,-86
2021-12-23 14:59:00.834798,-86
2021-12-23 14:59:00.834804,-52
2021-12-23 14:59:00.834811,-43
2021-12-23 14:59:00.834817,-43
2021-12-23 14:59:00.834824,-31
2021-12-23 14:59:00.834830,-26
2021-12-23 14:59:00.834836,88
2021-12-23 14:59:00.834842,411
2021-12-23 14:59:00.834849,634
2021-12-23 14:59:00.834855,423
2021-12-23 14:59:00.834861,-19
2021-12-23 14:59:00.834868,-215
2021-12-23 14:59:00.834875,-95
2021-12-23 14:59:00.970207,-14
2021-12-23 14:59:00.970230,-38
2021-12-23 14:59:00.970238,-11
2021-12-23 14:59:00.970245,9
2021-12-23 14:59:00.970251,19
2021-12-23 14:59:00.970258,33
2021-12-23 14:59:00.970265,0
2021-12-23 14:59:00.970271,4
2021-12-23 14:59:00.970278,71
2021-12-23 14:59:00.970284,71
2021-12-23 14:59:00.970291,28
2021-12-23 14:59:00.970297,40
2021-12-23 14:59:00.970304,59
2021-12-23 14:59:00.970310,59
2021-12-23 14:59:00.970317,88
2021-12-23 14:59:00.970323,126
2021-12-23 14:59:00.970330,136
2021-12-23 14:59:00.970336,124
2021-12-23 14:59:00.970342,122
2021-12-23 14:59:00.970349,148
2021-12-23 14:59:00.970355,179
2021-12-23 14:59:00.970362,177
2021-12-23 14:59:00.970368,165
2021-12-23 14:59:00.970374,160
2021-12-23 14:59:00.970387,155
2021-12-23 14:59:00.970394,138
2021-12-23 14:59:00.970401,112
2021-12-23 14:59:00.970408,69
2021-12-23 14:59:00.970414,16
2021-12-23 14:59:00.970420,2
2021-12-23 14:59:01.239240,4
2021-12-23 14:59:01.239256,-50
2021-12-23 14:59:01.239261,-122
2021-12-23 14:59:01.239266,-150
2021-12-23 14:59:01.239272,-184
2021-12-23 14:59:01.239277,-234
2021-12-23 14:59:01.239284,-222
2021-12-23 14:59:01.239288,-191
2021-12-23 14:59:01.239293,-217
2021-12-23 14:59:01.239298,-215
2021-12-23 14:59:01.239302,-177
2021-12-23 14:59:01.239307,-196
2021-12-23 14:59:01.239311,-210
2021-12-23 14:59:01.239315,-167
2021-12-23 14:59:01.239320,-143
2021-12-23 14:59:01.239324,-145
2021-12-23 14:59:01.239328,-138
2021-12-23 14:59:01.239333,-119
2021-12-23 14:59:01.239337,-90
2021-12-23 14:59:01.239342,-78
2021-12-23 14:59:01.239346,-93
2021-12-23 14:59:01.239350,-105
2021-12-23 14:59:01.239357,-102
2021-12-23 14:59:01.239361,-93
2021-12-23 14:59:01.239365,-86
2021-12-23 14:59:01.239400,-81
2021-12-23 14:59:01.239405,-76
2021-12-23 14:59:01.239409,-55
2021-12-23 14:59:01.239413,-40
2021-12-23 14:59:01.239418,-28
2021-12-23 14:59:01.465729,0
2021-12-23 14:59:01.465754,-2
2021-12-23 14:59:01.465763,-40
2021-12-23 14:59:01.465772,-33
2021-12-23 14:59:01.465783,-26
2021-12-23 14:59:01.465802,-64
2021-12-23 14:59:01.465843,-66
2021-12-23 14:59:01.465869,-38
2021-12-23 14:59:01.465887,-35
2021-12-23 14:59:01.465907,-78
2021-12-23 14:59:01.465924,-136
2021-12-23 14:59:01.465945,-122
2021-12-23 14:59:01.465965,-69
2021-12-23 14:59:01.466032,-59
2021-12-23 14:59:01.466074,-59
2021-12-23 14:59:01.466114,69
2021-12-23 14:59:01.466134,366
2021-12-23 14:59:01.466156,531
2021-12-23 14:59:01.466174,301
2021-12-23 14:59:01.466184,-98
2021-12-23 14:59:01.466191,-253
2021-12-23 14:59:01.466197,-136
2021-12-23 14:59:01.466204,-64
2021-12-23 14:59:01.466209,-71
2021-12-23 14:59:01.466228,-26
2021-12-23 14:59:01.466236,26
2021-12-23 14:59:01.466244,33
2021-12-23 14:59:01.466251,14
2021-12-23 14:59:01.466259,4
2021-12-23 14:59:01.466265,38
2021-12-23 14:59:01.689999,78
2021-12-23 14:59:01.690016,95
2021-12-23 14:59:01.690022,100
2021-12-23 14:59:01.690028,66
2021-12-23 14:59:01.690033,16
2021-12-23 14:59:01.690038,38
2021-12-23 14:59:01.690043,90
2021-12-23 14:59:01.690049,117
2021-12-23 14:59:01.690054,143
2021-12-23 14:59:01.690059,133
2021-12-23 14:59:01.690064,83
2021-12-23 14:59:01.690069,71
2021-12-23 14:59:01.690075,105
2021-12-23 14:59:01.690080,112
2021-12-23 14:59:01.690085,100
2021-12-23 14:59:01.690090,78
2021-12-23 14:59:01.690095,50
2021-12-23 14:59:01.690100,21
2021-12-23 14:59:01.690106,7
2021-12-23 14:59:01.690111,7
2021-12-23 14:59:01.690116,-33
2021-12-23 14:59:01.690121,-90
2021-12-23 14:59:01.690126,-98
2021-12-23 14:59:01.690131,-98
2021-12-23 14:59:01.690136,-124
2021-12-23 14:59:01.690141,-138
2021-12-23 14:59:01.690147,-160
2021-12-23 14:59:01.690152,-205
2021-12-23 14:59:01.690157,-203
2021-12-23 14:59:01.690162,-155
2021-12-23 14:59:01.914633,-153
2021-12-23 14:59:01.914649,-157
2021-12-23 14:59:01.914654,-122
2021-12-23 14:59:01.914659,-129
2021-12-23 14:59:01.914664,-145
2021-12-23 14:59:01.914668,-114
2021-12-23 14:59:01.914673,-69
2021-12-23 14:59:01.914677,-52
2021-12-23 14:59:01.914681,-71
2021-12-23 14:59:01.914686,-98
2021-12-23 14:59:01.914690,-90
2021-12-23 14:59:01.914695,-43
2021-12-23 14:59:01.914699,2
2021-12-23 14:59:01.914704,-28
2021-12-23 14:59:01.914708,-117
2021-12-23 14:59:01.914713,-157
2021-12-23 14:59:01.914717,-117
2021-12-23 14:59:01.914722,-74
2021-12-23 14:59:01.914726,-57
2021-12-23 14:59:01.914730,-38
2021-12-23 14:59:01.914735,-19
2021-12-23 14:59:01.914739,-11
2021-12-23 14:59:01.914744,-28
2021-12-23 14:59:01.914748,-52
2021-12-23 14:59:01.914753,-38
2021-12-23 14:59:01.914758,-19
2021-12-23 14:59:01.914763,-52
2021-12-23 14:59:01.914767,-74
2021-12-23 14:59:01.914771,-43
2021-12-23 14:59:01.914776,-14
2021-12-23 14:59:02.184338,-23
2021-12-23 14:59:02.184368,-40
2021-12-23 14:59:02.184382,-45
2021-12-23 14:59:02.184394,-38
2021-12-23 14:59:02.184405,-38
2021-12-23 14:59:02.184415,-43
2021-12-23 14:59:02.184426,78
2021-12-23 14:59:02.184437,380
2021-12-23 14:59:02.184448,557
2021-12-23 14:59:02.184459,306
2021-12-23 14:59:02.184474,-129
2021-12-23 14:59:02.184485,-272
2021-12-23 14:59:02.184496,-102
2021-12-23 14:59:02.184506,-38
2021-12-23 14:59:02.184517,-133
2021-12-23 14:59:02.184528,-143
2021-12-23 14:59:02.184538,-100
2021-12-23 14:59:02.184549,-83
2021-12-23 14:59:02.184560,-81
2021-12-23 14:59:02.184570,-66
2021-12-23 14:59:02.184580,-38
2021-12-23 14:59:02.184591,-28
2021-12-23 14:59:02.184602,-9
2021-12-23 14:59:02.184613,26
2021-12-23 14:59:02.184625,38
2021-12-23 14:59:02.184658,45
2021-12-23 14:59:02.184671,62
2021-12-23 14:59:02.184682,69
2021-12-23 14:59:02.184693,74
2021-12-23 14:59:02.184703,88
2021-12-23 14:59:02.365688,124
2021-12-23 14:59:02.365718,160
2021-12-23 14:59:02.365730,141
2021-12-23 14:59:02.365740,129
2021-12-23 14:59:02.365750,162
2021-12-23 14:59:02.365760,186
2021-12-23 14:59:02.365769,165
2021-12-23 14:59:02.365779,114
2021-12-23 14:59:02.365789,69
2021-12-23 14:59:02.365799,43
2021-12-23 14:59:02.365809,16
2021-12-23 14:59:02.365819,-9
2021-12-23 14:59:02.365828,-50
2021-12-23 14:59:02.365838,-112
2021-12-23 14:59:02.365848,-131
2021-12-23 14:59:02.365858,-112
2021-12-23 14:59:02.365868,-126
2021-12-23 14:59:02.365877,-167
2021-12-23 14:59:02.365887,-186
2021-12-23 14:59:02.365897,-198
2021-12-23 14:59:02.365906,-217
2021-12-23 14:59:02.365916,-191
2021-12-23 14:59:02.365926,-141
2021-12-23 14:59:02.365935,-136
2021-12-23 14:59:02.365945,-143
2021-12-23 14:59:02.365961,-126
2021-12-23 14:59:02.365971,-124
2021-12-23 14:59:02.365981,-126
2021-12-23 14:59:02.365990,-98
2021-12-23 14:59:02.366000,-71
2021-12-23 14:59:02.589732,-76
2021-12-23 14:59:02.589751,-74
2021-12-23 14:59:02.589757,-59
2021-12-23 14:59:02.589762,-50
2021-12-23 14:59:02.589768,-57
2021-12-23 14:59:02.589773,-69
2021-12-23 14:59:02.589778,-62
2021-12-23 14:59:02.589783,-64
2021-12-23 14:59:02.589788,-76
2021-12-23 14:59:02.589793,-69
2021-12-23 14:59:02.589798,-35
2021-12-23 14:59:02.589803,-16
2021-12-23 14:59:02.589808,-38
2021-12-23 14:59:02.589813,-66
2021-12-23 14:59:02.589818,-71
2021-12-23 14:59:02.589823,-71
2021-12-23 14:59:02.589829,-71
2021-12-23 14:59:02.589834,-64
2021-12-23 14:59:02.589839,-74
2021-12-23 14:59:02.589844,-100
2021-12-23 14:59:02.589849,-112
2021-12-23 14:59:02.589854,-131
2021-12-23 14:59:02.589859,-136
2021-12-23 14:59:02.589864,-88
2021-12-23 14:59:02.589869,-81
2021-12-23 14:59:02.589874,-90
2021-12-23 14:59:02.589879,52
2021-12-23 14:59:02.589885,358
2021-12-23 14:59:02.589890,545
2021-12-23 14:59:02.589895,349
2021-12-23 14:59:02.859896,-69
2021-12-23 14:59:02.859926,-260
2021-12-23 14:59:02.859938,-119
2021-12-23 14:59:02.859949,-14
2021-12-23 14:59:02.859959,-38
2021-12-23 14:59:02.859969,-26
2021-12-23 14:59:02.859979,-19
2021-12-23 14:59:02.859989,-21
2021-12-23 14:59:02.859999,-7
2021-12-23 14:59:02.860009,0
2021-12-23 14:59:02.860019,21
2021-12-23 14:59:02.860029,23
2021-12-23 14:59:02.860039,11
2021-12-23 14:59:02.860049,31
2021-12-23 14:59:02.860059,47
2021-12-23 14:59:02.860069,55
2021-12-23 14:59:02.860086,50
2021-12-23 14:59:02.860096,28
2021-12-23 14:59:02.860106,43
2021-12-23 14:59:02.860116,88
2021-12-23 14:59:02.860126,107
2021-12-23 14:59:02.860136,105
2021-12-23 14:59:02.860146,93
2021-12-23 14:59:02.860155,76
2021-12-23 14:59:02.860165,98
2021-12-23 14:59:02.860175,136
2021-12-23 14:59:02.860185,126
2021-12-23 14:59:02.860195,105
2021-12-23 14:59:02.860205,124
2021-12-23 14:59:02.860215,114
2021-12-23 14:59:03.129962,45
2021-12-23 14:59:03.129994,7
2021-12-23 14:59:03.130006,11
2021-12-23 14:59:03.130016,-14
2021-12-23 14:59:03.130026,-38
2021-12-23 14:59:03.130035,-45
2021-12-23 14:59:03.130045,-64
2021-12-23 14:59:03.130055,-71
2021-12-23 14:59:03.130065,-74
2021-12-23 14:59:03.130074,-93
2021-12-23 14:59:03.130084,-110
2021-12-23 14:59:03.130094,-136
2021-12-23 14:59:03.130104,-145
2021-12-23 14:59:03.130114,-112
2021-12-23 14:59:03.130123,-100
2021-12-23 14:59:03.130133,-117
2021-12-23 14:59:03.130143,-117
2021-12-23 14:59:03.130153,-122
2021-12-23 14:59:03.130163,-117
2021-12-23 14:59:03.130172,-90
2021-12-23 14:59:03.130182,-69
2021-12-23 14:59:03.130192,-83
2021-12-23 14:59:03.130202,-114
2021-12-23 14:59:03.130211,-126
2021-12-23 14:59:03.130221,-110
2021-12-23 14:59:03.130231,-102
2021-12-23 14:59:03.130240,-143
2021-12-23 14:59:03.130250,-189
2021-12-23 14:59:03.130260,-179
2021-12-23 14:59:03.130269,-138
2021-12-23 14:59:03.265520,-102
2021-12-23 14:59:03.265550,-76
2021-12-23 14:59:03.265562,-69
2021-12-23 14:59:03.265572,-100
2021-12-23 14:59:03.265582,-126
2021-12-23 14:59:03.265592,-129
2021-12-23 14:59:03.265602,-114
2021-12-23 14:59:03.265612,-64
2021-12-23 14:59:03.265621,-21
2021-12-23 14:59:03.265631,-45
2021-12-23 14:59:03.265641,-86
2021-12-23 14:59:03.265651,-57
2021-12-23 14:59:03.265661,-11
2021-12-23 14:59:03.265678,-11
2021-12-23 14:59:03.265688,-23
2021-12-23 14:59:03.265698,-23
2021-12-23 14:59:03.265708,21
2021-12-23 14:59:03.265718,241
2021-12-23 14:59:03.265728,555
2021-12-23 14:59:03.265737,526
2021-12-23 14:59:03.265747,110
2021-12-23 14:59:03.265757,-208
2021-12-23 14:59:03.265767,-177
2021-12-23 14:59:03.265777,-47
2021-12-23 14:59:03.265787,-28
2021-12-23 14:59:03.265797,-14
2021-12-23 14:59:03.265807,7
2021-12-23 14:59:03.265816,-43
2021-12-23 14:59:03.265826,-59
2021-12-23 14:59:03.265836,4
2021-12-23 14:59:03.534968,38
2021-12-23 14:59:03.534999,23
2021-12-23 14:59:03.535010,21
2021-12-23 14:59:03.535020,4
2021-12-23 14:59:03.535030,-16
2021-12-23 14:59:03.535040,9
2021-12-23 14:59:03.535050,40
2021-12-23 14:59:03.535060,47
2021-12-23 14:59:03.535069,81
2021-12-23 14:59:03.535079,88
2021-12-23 14:59:03.535089,59
2021-12-23 14:59:03.535098,98
2021-12-23 14:59:03.535108,162
2021-12-23 14:59:03.535118,157
2021-12-23 14:59:03.535127,114
2021-12-23 14:59:03.535137,129
2021-12-23 14:59:03.535147,177
2021-12-23 14:59:03.535156,162
2021-12-23 14:59:03.535166,119
2021-12-23 14:59:03.535175,112
2021-12-23 14:59:03.535185,100
2021-12-23 14:59:03.535195,50
2021-12-23 14:59:03.535204,-19
2021-12-23 14:59:03.535214,-47
2021-12-23 14:59:03.535224,-19
2021-12-23 14:59:03.535233,-19
2021-12-23 14:59:03.535243,-66
2021-12-23 14:59:03.535253,-93
2021-12-23 14:59:03.535262,-110
2021-12-23 14:59:03.535272,-138
2021-12-23 14:59:03.760473,-122
2021-12-23 14:59:03.760495,-124
2021-12-23 14:59:03.760502,-212
2021-12-23 14:59:03.760509,-253
2021-12-23 14:59:03.760515,-191
2021-12-23 14:59:03.760522,-160
2021-12-23 14:59:03.760528,-162
2021-12-23 14:59:03.760534,-131
2021-12-23 14:59:03.760541,-129
2021-12-23 14:59:03.760547,-157
2021-12-23 14:59:03.760554,-129
2021-12-23 14:59:03.760560,-83
2021-12-23 14:59:03.760566,-98
2021-12-23 14:59:03.760573,-100
2021-12-23 14:59:03.760579,-76
2021-12-23 14:59:03.760585,-76
2021-12-23 14:59:03.760591,-90
2021-12-23 14:59:03.760604,-74
2021-12-23 14:59:03.760611,-33
2021-12-23 14:59:03.760617,-19
2021-12-23 14:59:03.760624,-33
2021-12-23 14:59:03.760630,-28
2021-12-23 14:59:03.760636,-2
2021-12-23 14:59:03.760643,4
2021-12-23 14:59:03.760649,-7
2021-12-23 14:59:03.760655,-28
2021-12-23 14:59:03.760662,-52
2021-12-23 14:59:03.760668,-57
2021-12-23 14:59:03.760675,-55
2021-12-23 14:59:03.760681,-55
2021-12-23 14:59:04.029996,-57
2021-12-23 14:59:04.030015,-45
2021-12-23 14:59:04.030022,-35
2021-12-23 14:59:04.030029,-52
2021-12-23 14:59:04.030036,-50
2021-12-23 14:59:04.030042,-7
2021-12-23 14:59:04.030048,160
2021-12-23 14:59:04.030055,468
2021-12-23 14:59:04.030062,540
2021-12-23 14:59:04.030068,167
2021-12-23 14:59:04.030074,-208
2021-12-23 14:59:04.030081,-205
2021-12-23 14:59:04.030087,-40
2021-12-23 14:59:04.030094,-26
2021-12-23 14:59:04.030100,-59
2021-12-23 14:59:04.030107,-38
2021-12-23 14:59:04.030115,-7
2021-12-23 14:59:04.030122,26
2021-12-23 14:59:04.030129,40
2021-12-23 14:59:04.030135,26
2021-12-23 14:59:04.030142,38
2021-12-23 14:59:04.030148,69
2021-12-23 14:59:04.030155,59
2021-12-23 14:59:04.030161,35
2021-12-23 14:59:04.030167,50
2021-12-23 14:59:04.030174,78
2021-12-23 14:59:04.030180,86
2021-12-23 14:59:04.030186,95
2021-12-23 14:59:04.030193,122
2021-12-23 14:59:04.030199,143
2021-12-23 14:59:04.344331,150
2021-12-23 14:59:04.344361,148
2021-12-23 14:59:04.344373,143
2021-12-23 14:59:04.344383,136
2021-12-23 14:59:04.344393,143
2021-12-23 14:59:04.344403,153
2021-12-23 14:59:04.344412,150
2021-12-23 14:59:04.344422,119
2021-12-23 14:59:04.344432,50
2021-12-23 14:59:04.344442,4
2021-12-23 14:59:04.344452,0
2021-12-23 14:59:04.344462,-21
2021-12-23 14:59:04.344472,-55
2021-12-23 14:59:04.344482,-102
2021-12-23 14:59:04.344491,-165
2021-12-23 14:59:04.344501,-186
2021-12-23 14:59:04.344511,-174
2021-12-23 14:59:04.344521,-186
2021-12-23 14:59:04.344530,-205
2021-12-23 14:59:04.344540,-215
2021-12-23 14:59:04.344550,-208
2021-12-23 14:59:04.344559,-196
2021-12-23 14:59:04.344569,-186
2021-12-23 14:59:04.344578,-153
2021-12-23 14:59:04.344588,-122
2021-12-23 14:59:04.344598,-124
2021-12-23 14:59:04.344608,-122
2021-12-23 14:59:04.344617,-107
2021-12-23 14:59:04.344627,-100
2021-12-23 14:59:04.344642,-76
2021-12-23 14:59:04.480546,-57
2021-12-23 14:59:04.480576,-62
2021-12-23 14:59:04.480587,-64
2021-12-23 14:59:04.480597,-81
2021-12-23 14:59:04.480607,-105
2021-12-23 14:59:04.480617,-114
2021-12-23 14:59:04.480627,-117
2021-12-23 14:59:04.480637,-129
2021-12-23 14:59:04.480647,-131
2021-12-23 14:59:04.480656,-110
2021-12-23 14:59:04.480666,-88
2021-12-23 14:59:04.480676,-69
2021-12-23 14:59:04.480686,-55
2021-12-23 14:59:04.480695,-47
2021-12-23 14:59:04.480705,-50
2021-12-23 14:59:04.480715,-57
2021-12-23 14:59:04.480725,-52
2021-12-23 14:59:04.480734,-45
2021-12-23 14:59:04.480744,-62
2021-12-23 14:59:04.480754,-71
2021-12-23 14:59:04.480763,-50
2021-12-23 14:59:04.480773,-40
2021-12-23 14:59:04.480783,-40
2021-12-23 14:59:04.480793,-31
2021-12-23 14:59:04.480802,-43
2021-12-23 14:59:04.480812,-64
2021-12-23 14:59:04.480822,-52
2021-12-23 14:59:04.480832,-31
2021-12-23 14:59:04.480841,98
2021-12-23 14:59:04.480851,440
2021-12-23 14:59:04.660222,653
2021-12-23 14:59:04.660244,385
2021-12-23 14:59:04.660251,-100
2021-12-23 14:59:04.660258,-277
2021-12-23 14:59:04.660265,-114
2021-12-23 14:59:04.660271,-14
2021-12-23 14:59:04.660277,-43
2021-12-23 14:59:04.660284,-14
2021-12-23 14:59:04.660290,23
2021-12-23 14:59:04.660296,16
2021-12-23 14:59:04.660303,19
2021-12-23 14:59:04.660309,14
2021-12-23 14:59:04.660315,-14
2021-12-23 14:59:04.660322,-23
2021-12-23 14:59:04.660328,-38
2021-12-23 14:59:04.660334,-55
2021-12-23 14:59:04.660341,-26
2021-12-23 14:59:04.660347,-7
2021-12-23 14:59:04.660353,-16
2021-12-23 14:59:04.660359,2
2021-12-23 14:59:04.660366,40
2021-12-23 14:59:04.660372,66
2021-12-23 14:59:04.660378,102
2021-12-23 14:59:04.660384,133
2021-12-23 14:59:04.660391,138
2021-12-23 14:59:04.660397,148
2021-12-23 14:59:04.660403,167
2021-12-23 14:59:04.660409,172
2021-12-23 14:59:04.660416,184
2021-12-23 14:59:04.660422,181
2021-12-23 14:59:04.930560,141
2021-12-23 14:59:04.930591,95
2021-12-23 14:59:04.930603,50
2021-12-23 14:59:04.930613,-16
2021-12-23 14:59:04.930623,-74
2021-12-23 14:59:04.930633,-131
2021-12-23 14:59:04.930643,-184
2021-12-23 14:59:04.930653,-196
2021-12-23 14:59:04.930663,-210
2021-12-23 14:59:04.930673,-229
2021-12-23 14:59:04.930683,-224
2021-12-23 14:59:04.930693,-229
2021-12-23 14:59:04.930702,-232
2021-12-23 14:59:04.930712,-203
2021-12-23 14:59:04.930722,-181
2021-12-23 14:59:04.930732,-179
2021-12-23 14:59:04.930742,-169
2021-12-23 14:59:04.930752,-153
2021-12-23 14:59:04.930762,-126
2021-12-23 14:59:04.930772,-102
2021-12-23 14:59:04.930787,-95
2021-12-23 14:59:04.930797,-95
2021-12-23 14:59:04.930807,-98
2021-12-23 14:59:04.930817,-95
2021-12-23 14:59:04.930827,-74
2021-12-23 14:59:04.930838,-50
2021-12-23 14:59:04.930848,-43
2021-12-23 14:59:04.930858,-50
2021-12-23 14:59:04.930868,-55
2021-12-23 14:59:04.930877,-38
2021-12-23 14:59:05.200514,-2
2021-12-23 14:59:05.200545,31
2021-12-23 14:59:05.200557,38
2021-12-23 14:59:05.200567,14
2021-12-23 14:59:05.200576,-28
2021-12-23 14:59:05.200586,-52
2021-12-23 14:59:05.200596,-45
2021-12-23 14:59:05.200605,-47
2021-12-23 14:59:05.200615,-55
2021-12-23 14:59:05.200625,-47
2021-12-23 14:59:05.200634,-57
2021-12-23 14:59:05.200644,-74
2021-12-23 14:59:05.200654,-43
2021-12-23 14:59:05.200663,-4
2021-12-23 14:59:05.200673,-21
2021-12-23 14:59:05.200683,-55
2021-12-23 14:59:05.200692,-74
2021-12-23 14:59:05.200702,14
2021-12-23 14:59:05.200711,346
2021-12-23 14:59:05.200721,660
2021-12-23 14:59:05.200731,478
2021-12-23 14:59:05.200740,-57
2021-12-23 14:59:05.200750,-370
2021-12-23 14:59:05.200760,-265
2021-12-23 14:59:05.200769,-74
2021-12-23 14:59:05.200779,-52
2021-12-23 14:59:05.200789,-66
2021-12-23 14:59:05.200798,-28
2021-12-23 14:59:05.200808,0
2021-12-23 14:59:05.200818,33
2021-12-23 14:59:05.425201,52
2021-12-23 14:59:05.425222,38
2021-12-23 14:59:05.425228,43
2021-12-23 14:59:05.425234,40
2021-12-23 14:59:05.425240,2
2021-12-23 14:59:05.425246,35
2021-12-23 14:59:05.425251,81
2021-12-23 14:59:05.425256,90
2021-12-23 14:59:05.425261,160
2021-12-23 14:59:05.425266,76
2021-12-23 14:59:05.425271,-100
2021-12-23 14:59:05.425276,19
2021-12-23 14:59:05.425281,287
2021-12-23 14:59:05.425286,349
2021-12-23 14:59:05.425291,205
2021-12-23 14:59:05.425296,86
2021-12-23 14:59:05.425302,107
2021-12-23 14:59:05.425307,138
2021-12-23 14:59:05.425312,117
2021-12-23 14:59:05.425317,112
2021-12-23 14:59:05.425322,110
2021-12-23 14:59:05.425327,102
2021-12-23 14:59:05.425332,145
2021-12-23 14:59:05.425337,220
2021-12-23 14:59:05.425342,236
2021-12-23 14:59:05.425347,157
2021-12-23 14:59:05.425352,110
2021-12-23 14:59:05.425357,136
2021-12-23 14:59:05.425362,64
2021-12-23 14:59:05.425367,-66
2021-12-23 14:59:05.604734,-40
2021-12-23 14:59:05.604751,31
2021-12-23 14:59:05.604757,-28
2021-12-23 14:59:05.604762,-124
2021-12-23 14:59:05.604767,-122
2021-12-23 14:59:05.604772,-88
2021-12-23 14:59:05.604778,-88
2021-12-23 14:59:05.604783,-81
2021-12-23 14:59:05.604788,-83
2021-12-23 14:59:05.604793,-78
2021-12-23 14:59:05.604798,-50
2021-12-23 14:59:05.604803,-76
2021-12-23 14:59:05.604808,-114
2021-12-23 14:59:05.604813,-107
2021-12-23 14:59:05.604818,-131
2021-12-23 14:59:05.604824,-177
2021-12-23 14:59:05.604829,-145
2021-12-23 14:59:05.604834,-102
2021-12-23 14:59:05.604839,-112
2021-12-23 14:59:05.604844,-100
2021-12-23 14:59:05.604849,-62
2021-12-23 14:59:05.604854,-47
2021-12-23 14:59:05.604863,-59
2021-12-23 14:59:05.604868,-81
2021-12-23 14:59:05.604873,-76
2021-12-23 14:59:05.604878,-88
2021-12-23 14:59:05.604883,-136
2021-12-23 14:59:05.604888,-167
2021-12-23 14:59:05.604893,-157
2021-12-23 14:59:05.604898,-119
2021-12-23 14:59:05.830379,-100
2021-12-23 14:59:05.830399,-86
2021-12-23 14:59:05.830406,-71
2021-12-23 14:59:05.830413,-88
2021-12-23 14:59:05.830419,-69
2021-12-23 14:59:05.830425,-40
2021-12-23 14:59:05.830432,-47
2021-12-23 14:59:05.830438,141
2021-12-23 14:59:05.830445,490
2021-12-23 14:59:05.830451,521
2021-12-23 14:59:05.830457,148
2021-12-23 14:59:05.830464,-193
2021-12-23 14:59:05.830470,-215
2021-12-23 14:59:05.830477,-76
2021-12-23 14:59:05.830483,-62
2021-12-23 14:59:05.830489,-133
2021-12-23 14:59:05.830495,-110
2021-12-23 14:59:05.830502,-16
2021-12-23 14:59:05.830508,40
2021-12-23 14:59:05.830514,26
2021-12-23 14:59:05.830520,7
2021-12-23 14:59:05.830527,11
2021-12-23 14:59:05.830533,2
2021-12-23 14:59:05.830539,4
2021-12-23 14:59:05.830545,40
2021-12-23 14:59:05.830552,45
2021-12-23 14:59:05.830558,43
2021-12-23 14:59:05.830564,71
2021-12-23 14:59:05.830570,98
2021-12-23 14:59:05.830576,122
2021-12-23 14:59:06.055132,131
2021-12-23 14:59:06.055151,129
2021-12-23 14:59:06.055159,143
2021-12-23 14:59:06.055166,155
2021-12-23 14:59:06.055172,165
2021-12-23 14:59:06.055179,179
2021-12-23 14:59:06.055185,189
2021-12-23 14:59:06.055191,179
2021-12-23 14:59:06.055198,124
2021-12-23 14:59:06.055204,76
2021-12-23 14:59:06.055211,69
2021-12-23 14:59:06.055217,45
2021-12-23 14:59:06.055223,-4
2021-12-23 14:59:06.055230,-55
2021-12-23 14:59:06.055236,-100
2021-12-23 14:59:06.055243,-131
2021-12-23 14:59:06.055249,-138
2021-12-23 14:59:06.055256,-129
2021-12-23 14:59:06.055262,-133
2021-12-23 14:59:06.055269,-172
2021-12-23 14:59:06.055275,-203
2021-12-23 14:59:06.055282,-193
2021-12-23 14:59:06.055288,-157
2021-12-23 14:59:06.055294,-133
2021-12-23 14:59:06.055301,-122
2021-12-23 14:59:06.055307,-112
2021-12-23 14:59:06.055314,-98
2021-12-23 14:59:06.055320,-93
2021-12-23 14:59:06.055326,-76
2021-12-23 14:59:06.055333,-43
2021-12-23 14:59:06.369212,-26
2021-12-23 14:59:06.369234,-66
2021-12-23 14:59:06.369242,-136
2021-12-23 14:59:06.369248,-131
2021-12-23 14:59:06.369255,-78
2021-12-23 14:59:06.369261,-74
2021-12-23 14:59:06.369267,-105
2021-12-23 14:59:06.369274,-124
2021-12-23 14:59:06.369280,-117
2021-12-23 14:59:06.369286,-93
2021-12-23 14:59:06.369292,-69
2021-12-23 14:59:06.369299,-40
2021-12-23 14:59:06.369305,-45
2021-12-23 14:59:06.369311,-86
2021-12-23 14:59:06.369317,-95
2021-12-23 14:59:06.369324,-76
2021-12-23 14:59:06.369330,-76
2021-12-23 14:59:06.369336,-86
2021-12-23 14:59:06.369342,-78
2021-12-23 14:59:06.369349,-52
2021-12-23 14:59:06.369355,-52
2021-12-23 14:59:06.369361,-78
2021-12-23 14:59:06.369368,-66
2021-12-23 14:59:06.369374,-38
2021-12-23 14:59:06.369380,-52
2021-12-23 14:59:06.369386,-66
2021-12-23 14:59:06.369393,-26
2021-12-23 14:59:06.369399,162
2021-12-23 14:59:06.369405,500
2021-12-23 14:59:06.369411,624
2021-12-23 14:59:06.505507,279
2021-12-23 14:59:06.505538,-155
2021-12-23 14:59:06.505550,-212
2021-12-23 14:59:06.505560,-31
2021-12-23 14:59:06.505569,7
2021-12-23 14:59:06.505585,-11
2021-12-23 14:59:06.505595,26
2021-12-23 14:59:06.505605,26
2021-12-23 14:59:06.505615,19
2021-12-23 14:59:06.505625,52
2021-12-23 14:59:06.505634,81
2021-12-23 14:59:06.505644,81
2021-12-23 14:59:06.505654,66
2021-12-23 14:59:06.505664,66
2021-12-23 14:59:06.505673,71
2021-12-23 14:59:06.505683,71
2021-12-23 14:59:06.505693,71
2021-12-23 14:59:06.505703,88
2021-12-23 14:59:06.505713,119
2021-12-23 14:59:06.505722,136
2021-12-23 14:59:06.505732,138
2021-12-23 14:59:06.505742,155
2021-12-23 14:59:06.505751,169
2021-12-23 14:59:06.505761,153
2021-12-23 14:59:06.505771,145
2021-12-23 14:59:06.505780,177
2021-12-23 14:59:06.505790,189
2021-12-23 14:59:06.505800,167
2021-12-23 14:59:06.505810,157
2021-12-23 14:59:06.505819,129
2021-12-23 14:59:06.730479,74
2021-12-23 14:59:06.730509,40
2021-12-23 14:59:06.730520,14
2021-12-23 14:59:06.730530,-19
2021-12-23 14:59:06.730540,-47
2021-12-23 14:59:06.730550,-95
2021-12-23 14:59:06.730560,-167
2021-12-23 14:59:06.730569,-217
2021-12-23 14:59:06.730579,-229
2021-12-23 14:59:06.730589,-220
2021-12-23 14:59:06.730598,-215
2021-12-23 14:59:06.730608,-227
2021-12-23 14:59:06.730618,-229
2021-12-23 14:59:06.730627,-196
2021-12-23 14:59:06.730637,-167
2021-12-23 14:59:06.730647,-165
2021-12-23 14:59:06.730656,-167
2021-12-23 14:59:06.730666,-155
2021-12-23 14:59:06.730676,-143
2021-12-23 14:59:06.730685,-126
2021-12-23 14:59:06.730695,-112
2021-12-23 14:59:06.730705,-112
2021-12-23 14:59:06.730714,-117
2021-12-23 14:59:06.730724,-117
2021-12-23 14:59:06.730733,-126
2021-12-23 14:59:06.730743,-133
2021-12-23 14:59:06.730753,-114
2021-12-23 14:59:06.730762,-98
2021-12-23 14:59:06.730772,-105
2021-12-23 14:59:06.730782,-110
2021-12-23 14:59:06.955404,-90
2021-12-23 14:59:06.955425,-64
2021-12-23 14:59:06.955432,-55
2021-12-23 14:59:06.955439,-40
2021-12-23 14:59:06.955445,-23
2021-12-23 14:59:06.955452,-33
2021-12-23 14:59:06.955459,-43
2021-12-23 14:59:06.955465,-33
2021-12-23 14:59:06.955471,-28
2021-12-23 14:59:06.955478,-45
2021-12-23 14:59:06.955484,-74
2021-12-23 14:59:06.955490,-86
2021-12-23 14:59:06.955497,-62
2021-12-23 14:59:06.955503,-33
2021-12-23 14:59:06.955509,-33
2021-12-23 14:59:06.955516,-40
2021-12-23 14:59:06.955522,-35
2021-12-23 14:59:06.955528,-28
2021-12-23 14:59:06.955534,-38
2021-12-23 14:59:06.955541,-19
2021-12-23 14:59:06.955547,191
2021-12-23 14:59:06.955553,581
2021-12-23 14:59:06.955560,717
2021-12-23 14:59:06.955566,346
2021-12-23 14:59:06.955572,-157
2021-12-23 14:59:06.955579,-284
2021-12-23 14:59:06.955585,-93
2021-12-23 14:59:06.955591,-50
2021-12-23 14:59:06.955598,-90
2021-12-23 14:59:06.955604,-2
2021-12-23 14:59:07.224892,47
2021-12-23 14:59:07.224922,23
2021-12-23 14:59:07.224934,33
2021-12-23 14:59:07.224944,31
2021-12-23 14:59:07.224954,-11
2021-12-23 14:59:07.224964,-7
2021-12-23 14:59:07.224973,40
2021-12-23 14:59:07.224983,64
2021-12-23 14:59:07.224993,81
2021-12-23 14:59:07.225003,81
2021-12-23 14:59:07.225013,62
2021-12-23 14:59:07.225022,78
2021-12-23 14:59:07.225032,95
2021-12-23 14:59:07.225042,78
2021-12-23 14:59:07.225051,105
2021-12-23 14:59:07.225061,141
2021-12-23 14:59:07.225071,141
2021-12-23 14:59:07.225080,162
2021-12-23 14:59:07.225090,196
2021-12-23 14:59:07.225099,208
2021-12-23 14:59:07.225109,205
2021-12-23 14:59:07.225119,177
2021-12-23 14:59:07.225128,131
2021-12-23 14:59:07.225138,100
2021-12-23 14:59:07.225148,55
2021-12-23 14:59:07.225157,-21
2021-12-23 14:59:07.225167,-88
2021-12-23 14:59:07.225177,-131
2021-12-23 14:59:07.225187,-169
2021-12-23 14:59:07.225197,-191
2021-12-23 14:59:07.449908,-200
2021-12-23 14:59:07.449932,-208
2021-12-23 14:59:07.449940,-208
2021-12-23 14:59:07.449946,-227
2021-12-23 14:59:07.449952,-239
2021-12-23 14:59:07.449958,-208
2021-12-23 14:59:07.449965,-179
2021-12-23 14:59:07.449971,-172
2021-12-23 14:59:07.449977,-162
2021-12-23 14:59:07.449983,-169
2021-12-23 14:59:07.449989,-165
2021-12-23 14:59:07.449996,-129
2021-12-23 14:59:07.450002,-102
2021-12-23 14:59:07.450008,-95
2021-12-23 14:59:07.450014,-93
2021-12-23 14:59:07.450020,-100
2021-12-23 14:59:07.450026,-95
2021-12-23 14:59:07.450033,-66
2021-12-23 14:59:07.450039,-55
2021-12-23 14:59:07.450045,-57
2021-12-23 14:59:07.450051,-57
2021-12-23 14:59:07.450057,-59
2021-12-23 14:59:07.450064,-28
2021-12-23 14:59:07.450070,11
2021-12-23 14:59:07.450076,11
2021-12-23 14:59:07.450082,0
2021-12-23 14:59:07.450088,-9
2021-12-23 14:59:07.450095,-26
2021-12-23 14:59:07.450101,-31
2021-12-23 14:59:07.450107,-19
2021-12-23 14:59:07.674980,-28
2021-12-23 14:59:07.675002,-62
2021-12-23 14:59:07.675012,-76
2021-12-23 14:59:07.675020,-64
2021-12-23 14:59:07.675027,-43
2021-12-23 14:59:07.675035,-28
2021-12-23 14:59:07.675043,-23
2021-12-23 14:59:07.675052,-47
2021-12-23 14:59:07.675060,-45
2021-12-23 14:59:07.675068,200
2021-12-23 14:59:07.675076,626
2021-12-23 14:59:07.675084,727
2021-12-23 14:59:07.675093,315
2021-12-23 14:59:07.675101,-222
2021-12-23 14:59:07.675109,-361
2021-12-23 14:59:07.675117,-122
2021-12-23 14:59:07.675125,-35
2021-12-23 14:59:07.675133,-90
2021-12-23 14:59:07.675142,-64
2021-12-23 14:59:07.675150,-57
2021-12-23 14:59:07.675158,-74
2021-12-23 14:59:07.675166,-45
2021-12-23 14:59:07.675173,-14
2021-12-23 14:59:07.675181,-4
2021-12-23 14:59:07.675189,-7
2021-12-23 14:59:07.675198,-7
2021-12-23 14:59:07.675206,4
2021-12-23 14:59:07.675214,28
2021-12-23 14:59:07.675222,57
2021-12-23 14:59:07.675230,90
2021-12-23 14:59:07.900046,124
2021-12-23 14:59:07.900068,153
2021-12-23 14:59:07.900076,165
2021-12-23 14:59:07.900083,160
2021-12-23 14:59:07.900089,179
2021-12-23 14:59:07.900096,217
2021-12-23 14:59:07.900102,239
2021-12-23 14:59:07.900109,229
2021-12-23 14:59:07.900115,193
2021-12-23 14:59:07.900121,165
2021-12-23 14:59:07.900128,141
2021-12-23 14:59:07.900134,95
2021-12-23 14:59:07.900140,31
2021-12-23 14:59:07.900147,-40
2021-12-23 14:59:07.900153,-112
2021-12-23 14:59:07.900160,-160
2021-12-23 14:59:07.900166,-189
2021-12-23 14:59:07.900173,-200
2021-12-23 14:59:07.900179,-210
2021-12-23 14:59:07.900185,-232
2021-12-23 14:59:07.900192,-236
2021-12-23 14:59:07.900198,-222
2021-12-23 14:59:07.900204,-205
2021-12-23 14:59:07.900211,-186
2021-12-23 14:59:07.900217,-174
2021-12-23 14:59:07.900223,-179
2021-12-23 14:59:07.900230,-177
2021-12-23 14:59:07.900236,-160
2021-12-23 14:59:07.900242,-143
2021-12-23 14:59:07.900249,-129
2021-12-23 14:59:08.214914,-114
2021-12-23 14:59:08.214944,-114
2021-12-23 14:59:08.214957,-114
2021-12-23 14:59:08.214967,-100
2021-12-23 14:59:08.214976,-90
2021-12-23 14:59:08.214986,-102
2021-12-23 14:59:08.214996,-126
2021-12-23 14:59:08.215006,-148
2021-12-23 14:59:08.215015,-143
2021-12-23 14:59:08.215025,-105
2021-12-23 14:59:08.215034,-66
2021-12-23 14:59:08.215044,-57
2021-12-23 14:59:08.215054,-78
2021-12-23 14:59:08.215063,-110
2021-12-23 14:59:08.215073,-105
2021-12-23 14:59:08.215083,-93
2021-12-23 14:59:08.215092,-102
2021-12-23 14:59:08.215102,-95
2021-12-23 14:59:08.215111,-90
2021-12-23 14:59:08.215121,-93
2021-12-23 14:59:08.215131,-81
2021-12-23 14:59:08.215140,-66
2021-12-23 14:59:08.215150,-62
2021-12-23 14:59:08.215159,-83
2021-12-23 14:59:08.215169,-143
2021-12-23 14:59:08.215179,-143
2021-12-23 14:59:08.215188,86
2021-12-23 14:59:08.215198,502
2021-12-23 14:59:08.215208,729
2021-12-23 14:59:08.215217,507
2021-12-23 14:59:08.393459,-35
2021-12-23 14:59:08.393476,-366
2021-12-23 14:59:08.393482,-169
2021-12-23 14:59:08.393487,14
2021-12-23 14:59:08.393493,-57
2021-12-23 14:59:08.393498,-31
2021-12-23 14:59:08.393503,45
2021-12-23 14:59:08.393508,11
2021-12-23 14:59:08.393513,-4
2021-12-23 14:59:08.393518,38
2021-12-23 14:59:08.393523,55
2021-12-23 14:59:08.393534,52
2021-12-23 14:59:08.393539,38
2021-12-23 14:59:08.393544,26
2021-12-23 14:59:08.393550,45
2021-12-23 14:59:08.393555,69
2021-12-23 14:59:08.393560,86
2021-12-23 14:59:08.393565,100
2021-12-23 14:59:08.393570,105
2021-12-23 14:59:08.393575,126
2021-12-23 14:59:08.393580,169
2021-12-23 14:59:08.393585,191
2021-12-23 14:59:08.393590,210
2021-12-23 14:59:08.393595,234
2021-12-23 14:59:08.393600,239
2021-12-23 14:59:08.393605,241
2021-12-23 14:59:08.393611,234
2021-12-23 14:59:08.393616,196
2021-12-23 14:59:08.393621,138
2021-12-23 14:59:08.393626,74
2021-12-23 14:59:08.754329,4
2021-12-23 14:59:08.754350,-33
2021-12-23 14:59:08.754357,-59
2021-12-23 14:59:08.754364,-95
2021-12-23 14:59:08.754371,-131
2021-12-23 14:59:08.754377,-169
2021-12-23 14:59:08.754383,-196
2021-12-23 14:59:08.754390,-198
2021-12-23 14:59:08.754396,-208
2021-12-23 14:59:08.754402,-227
2021-12-23 14:59:08.754409,-234
2021-12-23 14:59:08.754415,-244
2021-12-23 14:59:08.754422,-248
2021-12-23 14:59:08.754428,-222
2021-12-23 14:59:08.754434,-196
2021-12-23 14:59:08.754441,-191
2021-12-23 14:59:08.754447,-184
2021-12-23 14:59:08.754453,-167
2021-12-23 14:59:08.754459,-145
2021-12-23 14:59:08.754466,-122
2021-12-23 14:59:08.754472,-107
2021-12-23 14:59:08.754478,-105
2021-12-23 14:59:08.754484,-107
2021-12-23 14:59:08.754491,-100
2021-12-23 14:59:08.754497,-76
2021-12-23 14:59:08.754503,-43
2021-12-23 14:59:08.754509,-16
2021-12-23 14:59:08.754516,-11
2021-12-23 14:59:08.754522,-40
2021-12-23 14:59:08.754528,-95
2021-12-23 14:59:08.844939,-105
2021-12-23 14:59:08.844969,-66
2021-12-23 14:59:08.844981,-64
2021-12-23 14:59:08.844990,-88
2021-12-23 14:59:08.845000,-90
2021-12-23 14:59:08.845010,-88
2021-12-23 14:59:08.845019,-81
2021-12-23 14:59:08.845029,-59
2021-12-23 14:59:08.845039,-40
2021-12-23 14:59:08.845048,-40
2021-12-23 14:59:08.845058,-66
2021-12-23 14:59:08.845067,-93
2021-12-23 14:59:08.845077,50
2021-12-23 14:59:08.845087,471
2021-12-23 14:59:08.845096,782
2021-12-23 14:59:08.845106,598
2021-12-23 14:59:08.845116,33
2021-12-23 14:59:08.845126,-380
2021-12-23 14:59:08.845135,-248
2021-12-23 14:59:08.845145,-14
2021-12-23 14:59:08.845154,-55
2021-12-23 14:59:08.845164,-71
2021-12-23 14:59:08.845174,0
2021-12-23 14:59:08.845183,7
2021-12-23 14:59:08.845193,11
2021-12-23 14:59:08.845202,50
2021-12-23 14:59:08.845213,66
2021-12-23 14:59:08.845223,55
2021-12-23 14:59:08.845232,40
2021-12-23 14:59:08.845242,43
2021-12-23 14:59:09.114772,83
2021-12-23 14:59:09.114788,122
2021-12-23 14:59:09.114793,138
2021-12-23 14:59:09.114798,141
2021-12-23 14:59:09.114802,131
2021-12-23 14:59:09.114807,131
2021-12-23 14:59:09.114811,160
2021-12-23 14:59:09.114815,200
2021-12-23 14:59:09.114820,227
2021-12-23 14:59:09.114824,217
2021-12-23 14:59:09.114829,196
2021-12-23 14:59:09.114833,200
2021-12-23 14:59:09.114837,203
2021-12-23 14:59:09.114842,153
2021-12-23 14:59:09.114846,81
2021-12-23 14:59:09.114851,11
2021-12-23 14:59:09.114855,-57
2021-12-23 14:59:09.114859,-98
2021-12-23 14:59:09.114864,-110
2021-12-23 14:59:09.114868,-122
2021-12-23 14:59:09.114873,-136
2021-12-23 14:59:09.114877,-153
2021-12-23 14:59:09.114881,-160
2021-12-23 14:59:09.114886,-138
2021-12-23 14:59:09.114890,-112
2021-12-23 14:59:09.114894,-100
2021-12-23 14:59:09.114899,-102
2021-12-23 14:59:09.114903,-122
2021-12-23 14:59:09.114908,-136
2021-12-23 14:59:09.114912,-129
2021-12-23 14:59:09.295586,-129
2021-12-23 14:59:09.295617,-124
2021-12-23 14:59:09.295629,-114
2021-12-23 14:59:09.295639,-136
2021-12-23 14:59:09.295649,-179
2021-12-23 14:59:09.295658,-179
2021-12-23 14:59:09.295668,-138
2021-12-23 14:59:09.295678,-114
2021-12-23 14:59:09.295688,-129
2021-12-23 14:59:09.295698,-160
2021-12-23 14:59:09.295707,-160
2021-12-23 14:59:09.295717,-112
2021-12-23 14:59:09.295727,-71
2021-12-23 14:59:09.295737,-64
2021-12-23 14:59:09.295747,-78
2021-12-23 14:59:09.295756,-107
2021-12-23 14:59:09.295766,-119
2021-12-23 14:59:09.295776,-100
2021-12-23 14:59:09.295785,-90
2021-12-23 14:59:09.295795,-90
2021-12-23 14:59:09.295805,-98
2021-12-23 14:59:09.295815,-119
2021-12-23 14:59:09.295824,-114
2021-12-23 14:59:09.295834,-83
2021-12-23 14:59:09.295844,-74
2021-12-23 14:59:09.295853,-69
2021-12-23 14:59:09.295863,-86
2021-12-23 14:59:09.295873,-117
2021-12-23 14:59:09.295883,40
2021-12-23 14:59:09.295893,476
2021-12-23 14:59:09.519850,779
2021-12-23 14:59:09.519869,586
2021-12-23 14:59:09.519877,26
2021-12-23 14:59:09.519883,-356
2021-12-23 14:59:09.519890,-205
2021-12-23 14:59:09.519896,2
2021-12-23 14:59:09.519902,-43
2021-12-23 14:59:09.519908,-43
2021-12-23 14:59:09.519920,4
2021-12-23 14:59:09.519927,-33
2021-12-23 14:59:09.519933,-28
2021-12-23 14:59:09.519940,33
2021-12-23 14:59:09.519946,50
2021-12-23 14:59:09.519952,43
2021-12-23 14:59:09.519958,33
2021-12-23 14:59:09.519964,21
2021-12-23 14:59:09.519971,45
2021-12-23 14:59:09.519977,71
2021-12-23 14:59:09.519983,71
2021-12-23 14:59:09.519989,95
2021-12-23 14:59:09.519996,119
2021-12-23 14:59:09.520002,131
2021-12-23 14:59:09.520008,174
2021-12-23 14:59:09.520014,222
2021-12-23 14:59:09.520020,232
2021-12-23 14:59:09.520026,220
2021-12-23 14:59:09.520033,212
2021-12-23 14:59:09.520039,212
2021-12-23 14:59:09.520045,203
2021-12-23 14:59:09.520051,184
2021-12-23 14:59:09.789355,143
2021-12-23 14:59:09.789379,76
2021-12-23 14:59:09.789388,-4
2021-12-23 14:59:09.789394,-62
2021-12-23 14:59:09.789401,-90
2021-12-23 14:59:09.789407,-105
2021-12-23 14:59:09.789413,-114
2021-12-23 14:59:09.789419,-143
2021-12-23 14:59:09.789426,-189
2021-12-23 14:59:09.789432,-227
2021-12-23 14:59:09.789438,-229
2021-12-23 14:59:09.789444,-191
2021-12-23 14:59:09.789451,-172
2021-12-23 14:59:09.789457,-198
2021-12-23 14:59:09.789463,-215
2021-12-23 14:59:09.789469,-193
2021-12-23 14:59:09.789475,-181
2021-12-23 14:59:09.789482,-191
2021-12-23 14:59:09.789490,-189
2021-12-23 14:59:09.789501,-196
2021-12-23 14:59:09.789524,-208
2021-12-23 14:59:09.789548,-196
2021-12-23 14:59:09.789562,-179
2021-12-23 14:59:09.789570,-165
2021-12-23 14:59:09.789634,-148
2021-12-23 14:59:09.789645,-145
2021-12-23 14:59:09.789690,-148
2021-12-23 14:59:09.789703,-141
2021-12-23 14:59:09.789709,-124
2021-12-23 14:59:09.789714,-102
2021-12-23 14:59:09.970464,-95
2021-12-23 14:59:09.970494,-102
2021-12-23 14:59:09.970506,-112
2021-12-23 14:59:09.970516,-112
2021-12-23 14:59:09.970526,-90
2021-12-23 14:59:09.970536,-40
2021-12-23 14:59:09.970545,-28
2021-12-23 14:59:09.970555,-71
2021-12-23 14:59:09.970565,-93
2021-12-23 14:59:09.970574,-81
2021-12-23 14:59:09.970584,-74
2021-12-23 14:59:09.970594,-76
2021-12-23 14:59:09.970603,-76
2021-12-23 14:59:09.970613,-76
2021-12-23 14:59:09.970623,-69
2021-12-23 14:59:09.970632,-62
2021-12-23 14:59:09.970642,-50
2021-12-23 14:59:09.970652,-31
2021-12-23 14:59:09.970661,-28
2021-12-23 14:59:09.970671,-50
2021-12-23 14:59:09.970680,-83
2021-12-23 14:59:09.970690,-14
2021-12-23 14:59:09.970700,339
2021-12-23 14:59:09.970709,748
2021-12-23 14:59:09.970719,736
2021-12-23 14:59:09.970728,256
2021-12-23 14:59:09.970738,-275
2021-12-23 14:59:09.970748,-320
2021-12-23 14:59:09.970757,-35
2021-12-23 14:59:09.970767,2
2021-12-23 14:59:10.195634,-66
2021-12-23 14:59:10.195678,-2
2021-12-23 14:59:10.195689,28
2021-12-23 14:59:10.195700,2
2021-12-23 14:59:10.195709,23
2021-12-23 14:59:10.195719,52
2021-12-23 14:59:10.195729,28
2021-12-23 14:59:10.195738,21
2021-12-23 14:59:10.195748,57
2021-12-23 14:59:10.195758,83
2021-12-23 14:59:10.195767,100
2021-12-23 14:59:10.195777,119
2021-12-23 14:59:10.195787,117
2021-12-23 14:59:10.195796,119
2021-12-23 14:59:10.195806,133
2021-12-23 14:59:10.195815,110
2021-12-23 14:59:10.195825,105
2021-12-23 14:59:10.195835,155
2021-12-23 14:59:10.195844,179
2021-12-23 14:59:10.195854,179
2021-12-23 14:59:10.195863,200
2021-12-23 14:59:10.195873,208
2021-12-23 14:59:10.195882,179
2021-12-23 14:59:10.195892,129
2021-12-23 14:59:10.195901,62
2021-12-23 14:59:10.195911,4
2021-12-23 14:59:10.195921,-35
2021-12-23 14:59:10.195930,-83
2021-12-23 14:59:10.195940,-112
2021-12-23 14:59:10.195950,-124
2021-12-23 14:59:10.464080,-131
2021-12-23 14:59:10.464100,-119
2021-12-23 14:59:10.464108,-110
2021-12-23 14:59:10.464114,-117
2021-12-23 14:59:10.464121,-119
2021-12-23 14:59:10.464127,-136
2021-12-23 14:59:10.464133,-174
2021-12-23 14:59:10.464139,-169
2021-12-23 14:59:10.464146,-157
2021-12-23 14:59:10.464152,-177
2021-12-23 14:59:10.464158,-177
2021-12-23 14:59:10.464164,-169
2021-12-23 14:59:10.464170,-184
2021-12-23 14:59:10.464177,-169
2021-12-23 14:59:10.464183,-141
2021-12-23 14:59:10.464189,-136
2021-12-23 14:59:10.464195,-126
2021-12-23 14:59:10.464201,-117
2021-12-23 14:59:10.464207,-112
2021-12-23 14:59:10.464214,-95
2021-12-23 14:59:10.464220,-78
2021-12-23 14:59:10.464226,-76
2021-12-23 14:59:10.464232,-76
2021-12-23 14:59:10.464239,-71
2021-12-23 14:59:10.464245,-74
2021-12-23 14:59:10.464251,-86
2021-12-23 14:59:10.464257,-98
2021-12-23 14:59:10.464264,-90
2021-12-23 14:59:10.464270,-76
2021-12-23 14:59:10.464276,-76
2021-12-23 14:59:10.645196,-71
2021-12-23 14:59:10.645218,-52
2021-12-23 14:59:10.645226,-45
2021-12-23 14:59:10.645232,-52
2021-12-23 14:59:10.645239,-69
2021-12-23 14:59:10.645245,-81
2021-12-23 14:59:10.645251,-50
2021-12-23 14:59:10.645257,-2
2021-12-23 14:59:10.645263,4
2021-12-23 14:59:10.645270,-16
2021-12-23 14:59:10.645276,-35
2021-12-23 14:59:10.645282,-57
2021-12-23 14:59:10.645288,-57
2021-12-23 14:59:10.645294,-38
2021-12-23 14:59:10.645300,-33
2021-12-23 14:59:10.645307,-33
2021-12-23 14:59:10.645313,-26
2021-12-23 14:59:10.645319,-19
2021-12-23 14:59:10.645325,-9
2021-12-23 14:59:10.645331,-4
2021-12-23 14:59:10.645337,-43
2021-12-23 14:59:10.645343,-129
2021-12-23 14:59:10.645350,-148
2021-12-23 14:59:10.645371,78
2021-12-23 14:59:10.645377,516
2021-12-23 14:59:10.645384,791
2021-12-23 14:59:10.645390,636
2021-12-23 14:59:10.645396,78
2021-12-23 14:59:10.645402,-380
2021-12-23 14:59:10.645409,-248
2021-12-23 14:59:10.959901,-7
2021-12-23 14:59:10.959931,-69
2021-12-23 14:59:10.959942,-81
2021-12-23 14:59:10.959952,-14
2021-12-23 14:59:10.959962,-69
2021-12-23 14:59:10.959972,-110
2021-12-23 14:59:10.959982,-55
2021-12-23 14:59:10.959992,-21
2021-12-23 14:59:10.960002,-31
2021-12-23 14:59:10.960011,-31
2021-12-23 14:59:10.960021,-33
2021-12-23 14:59:10.960030,-19
2021-12-23 14:59:10.960040,21
2021-12-23 14:59:10.960050,55
2021-12-23 14:59:10.960060,78
2021-12-23 14:59:10.960070,95
2021-12-23 14:59:10.960080,107
2021-12-23 14:59:10.960090,136
2021-12-23 14:59:10.960099,181
2021-12-23 14:59:10.960109,215
2021-12-23 14:59:10.960119,227
2021-12-23 14:59:10.960129,229
2021-12-23 14:59:10.960138,227
2021-12-23 14:59:10.960148,224
2021-12-23 14:59:10.960157,217
2021-12-23 14:59:10.960167,179
2021-12-23 14:59:10.960177,100
2021-12-23 14:59:10.960187,9
2021-12-23 14:59:10.960197,-66
2021-12-23 14:59:10.960207,-129
2021-12-23 14:59:11.140575,-167
2021-12-23 14:59:11.140604,-169
2021-12-23 14:59:11.140616,-179
2021-12-23 14:59:11.140626,-220
2021-12-23 14:59:11.140635,-239
2021-12-23 14:59:11.140645,-203
2021-12-23 14:59:11.140655,-177
2021-12-23 14:59:11.140665,-169
2021-12-23 14:59:11.140674,-162
2021-12-23 14:59:11.140684,-169
2021-12-23 14:59:11.140694,-174
2021-12-23 14:59:11.140704,-143
2021-12-23 14:59:11.140714,-119
2021-12-23 14:59:11.140724,-119
2021-12-23 14:59:11.140733,-119
2021-12-23 14:59:11.140743,-124
2021-12-23 14:59:11.140753,-122
2021-12-23 14:59:11.140763,-95
2021-12-23 14:59:11.140773,-78
2021-12-23 14:59:11.140783,-74
2021-12-23 14:59:11.140793,-74
2021-12-23 14:59:11.140802,-83
2021-12-23 14:59:11.140812,-81
2021-12-23 14:59:11.140822,-50
2021-12-23 14:59:11.140832,-26
2021-12-23 14:59:11.140841,-21
2021-12-23 14:59:11.140851,-52
2021-12-23 14:59:11.140861,-93
2021-12-23 14:59:11.140871,-88
2021-12-23 14:59:11.140881,-55
2021-12-23 14:59:11.454962,-45
2021-12-23 14:59:11.454992,-55
2021-12-23 14:59:11.455003,-83
2021-12-23 14:59:11.455013,-102
2021-12-23 14:59:11.455023,-78
2021-12-23 14:59:11.455033,-47
2021-12-23 14:59:11.455043,-43
2021-12-23 14:59:11.455052,-43
2021-12-23 14:59:11.455062,-59
2021-12-23 14:59:11.455072,-86
2021-12-23 14:59:11.455081,-69
2021-12-23 14:59:11.455091,-35
2021-12-23 14:59:11.455101,-31
2021-12-23 14:59:11.455110,-26
2021-12-23 14:59:11.455120,-38
2021-12-23 14:59:11.455130,-62
2021-12-23 14:59:11.455139,-45
2021-12-23 14:59:11.455149,-7
2021-12-23 14:59:11.455159,0
2021-12-23 14:59:11.455168,0
2021-12-23 14:59:11.455178,2
2021-12-23 14:59:11.455188,-2
2021-12-23 14:59:11.455197,11
2021-12-23 14:59:11.455207,40
2021-12-23 14:59:11.455216,47
2021-12-23 14:59:11.455226,47
2021-12-23 14:59:11.455236,43
2021-12-23 14:59:11.455245,19
2021-12-23 14:59:11.455255,2
2021-12-23 14:59:11.455265,14
2021-12-23 14:59:11.590204,33
2021-12-23 14:59:11.590227,40
2021-12-23 14:59:11.590235,43
2021-12-23 14:59:11.590242,33
2021-12-23 14:59:11.590248,2
2021-12-23 14:59:11.590254,-7
2021-12-23 14:59:11.590261,14
2021-12-23 14:59:11.590268,0
2021-12-23 14:59:11.590274,-45
2021-12-23 14:59:11.590280,-55
2021-12-23 14:59:11.590287,-38
2021-12-23 14:59:11.590293,-28
2021-12-23 14:59:11.590300,-23
2021-12-23 14:59:11.590306,-23
2021-12-23 14:59:11.590312,-35
2021-12-23 14:59:11.590319,-35
2021-12-23 14:59:11.590325,-23
2021-12-23 14:59:11.590331,-38
2021-12-23 14:59:11.590337,-74
2021-12-23 14:59:11.590344,52
2021-12-23 14:59:11.590350,435
2021-12-23 14:59:11.590357,739
2021-12-23 14:59:11.590363,631
2021-12-23 14:59:11.590369,138
2021-12-23 14:59:11.590375,-320
2021-12-23 14:59:11.590382,-284
2021-12-23 14:59:11.590388,-76
2021-12-23 14:59:11.590394,-110
2021-12-23 14:59:11.590400,-136
2021-12-23 14:59:11.590407,-55
2021-12-23 14:59:11.815504,-38
2021-12-23 14:59:11.815534,-69
2021-12-23 14:59:11.815545,-86
2021-12-23 14:59:11.815555,-105
2021-12-23 14:59:11.815564,-93
2021-12-23 14:59:11.815574,-66
2021-12-23 14:59:11.815583,-81
2021-12-23 14:59:11.815593,-98
2021-12-23 14:59:11.815602,-74
2021-12-23 14:59:11.815612,-40
2021-12-23 14:59:11.815621,-7
2021-12-23 14:59:11.815631,28
2021-12-23 14:59:11.815640,45
2021-12-23 14:59:11.815650,45
2021-12-23 14:59:11.815659,66
2021-12-23 14:59:11.815669,102
2021-12-23 14:59:11.815678,129
2021-12-23 14:59:11.815688,148
2021-12-23 14:59:11.815697,162
2021-12-23 14:59:11.815707,162
2021-12-23 14:59:11.815716,155
2021-12-23 14:59:11.815725,141
2021-12-23 14:59:11.815735,112
2021-12-23 14:59:11.815744,74
2021-12-23 14:59:11.815754,23
2021-12-23 14:59:11.815763,-26
2021-12-23 14:59:11.815773,-47
2021-12-23 14:59:11.815782,-62
2021-12-23 14:59:11.815792,-74
2021-12-23 14:59:11.815801,-74
2021-12-23 14:59:12.085410,-71
2021-12-23 14:59:12.085431,-69
2021-12-23 14:59:12.085439,-57
2021-12-23 14:59:12.085446,-50
2021-12-23 14:59:12.085452,-43
2021-12-23 14:59:12.085459,-35
2021-12-23 14:59:12.085465,-55
2021-12-23 14:59:12.085471,-88
2021-12-23 14:59:12.085478,-98
2021-12-23 14:59:12.085484,-86
2021-12-23 14:59:12.085490,-66
2021-12-23 14:59:12.085497,-59
2021-12-23 14:59:12.085503,-78
2021-12-23 14:59:12.085510,-86
2021-12-23 14:59:12.085516,-62
2021-12-23 14:59:12.085522,-52
2021-12-23 14:59:12.085529,-66
2021-12-23 14:59:12.085535,-76
2021-12-23 14:59:12.085542,-76
2021-12-23 14:59:12.085548,-62
2021-12-23 14:59:12.085554,-47
2021-12-23 14:59:12.085561,-50
2021-12-23 14:59:12.085567,-45
2021-12-23 14:59:12.085573,-31
2021-12-23 14:59:12.085580,-31
2021-12-23 14:59:12.085586,-31
2021-12-23 14:59:12.085593,-19
2021-12-23 14:59:12.085599,-19
2021-12-23 14:59:12.085605,-14
2021-12-23 14:59:12.085621,-4
2021-12-23 14:59:12.310478,-9
2021-12-23 14:59:12.310508,-2
2021-12-23 14:59:12.310519,9
2021-12-23 14:59:12.310530,4
2021-12-23 14:59:12.310540,9
2021-12-23 14:59:12.310549,19
2021-12-23 14:59:12.310559,14
2021-12-23 14:59:12.310569,-11
2021-12-23 14:59:12.310579,-59
2021-12-23 14:59:12.310589,-95
2021-12-23 14:59:12.310598,-122
2021-12-23 14:59:12.310608,-160
2021-12-23 14:59:12.310618,-172
2021-12-23 14:59:12.310628,-141
2021-12-23 14:59:12.310638,-122
2021-12-23 14:59:12.310647,-124
2021-12-23 14:59:12.310657,-119
2021-12-23 14:59:12.310667,-129
2021-12-23 14:59:12.310677,-143
2021-12-23 14:59:12.310687,-119
2021-12-23 14:59:12.310697,-93
2021-12-23 14:59:12.310706,-100
2021-12-23 14:59:12.310716,-100
2021-12-23 14:59:12.310726,-93
2021-12-23 14:59:12.310735,-88
2021-12-23 14:59:12.310745,-69
2021-12-23 14:59:12.310755,-52
2021-12-23 14:59:12.310764,-52
2021-12-23 14:59:12.310774,-52
2021-12-23 14:59:12.310784,-45
2021-12-23 14:59:12.624168,-35
2021-12-23 14:59:12.624198,-23
2021-12-23 14:59:12.624210,-16
2021-12-23 14:59:12.624220,-11
2021-12-23 14:59:12.624229,-9
2021-12-23 14:59:12.624239,-16
2021-12-23 14:59:12.624248,-7
2021-12-23 14:59:12.624258,11
2021-12-23 14:59:12.624268,4
2021-12-23 14:59:12.624278,-7
2021-12-23 14:59:12.624288,2
2021-12-23 14:59:12.624297,-2
2021-12-23 14:59:12.624307,-33
2021-12-23 14:59:12.624317,-31
2021-12-23 14:59:12.624327,-2
2021-12-23 14:59:12.624337,-4
2021-12-23 14:59:12.624346,-33
2021-12-23 14:59:12.624356,-40
2021-12-23 14:59:12.624365,-21
2021-12-23 14:59:12.624375,-11
2021-12-23 14:59:12.624384,-43
2021-12-23 14:59:12.624394,-83
2021-12-23 14:59:12.624404,45
2021-12-23 14:59:12.624413,447
2021-12-23 14:59:12.624423,777
2021-12-23 14:59:12.624432,686
2021-12-23 14:59:12.624442,229
2021-12-23 14:59:12.624452,-200
2021-12-23 14:59:12.624461,-198
2021-12-23 14:59:12.624471,0
2021-12-23 14:59:12.715482,9
2021-12-23 14:59:12.715512,-11
2021-12-23 14:59:12.715524,35
2021-12-23 14:59:12.715534,21
2021-12-23 14:59:12.715544,-19
2021-12-23 14:59:12.715554,7
2021-12-23 14:59:12.715564,47
2021-12-23 14:59:12.715574,59
2021-12-23 14:59:12.715584,62
2021-12-23 14:59:12.715594,50
2021-12-23 14:59:12.715603,28
2021-12-23 14:59:12.715613,40
2021-12-23 14:59:12.715623,64
2021-12-23 14:59:12.715633,35
2021-12-23 14:59:12.715642,0
2021-12-23 14:59:12.715652,11
2021-12-23 14:59:12.715662,23
2021-12-23 14:59:12.715671,43
2021-12-23 14:59:12.715681,105
2021-12-23 14:59:12.715691,148
2021-12-23 14:59:12.715700,148
2021-12-23 14:59:12.715710,141
2021-12-23 14:59:12.715720,150
2021-12-23 14:59:12.715730,155
2021-12-23 14:59:12.715739,141
2021-12-23 14:59:12.715749,100
2021-12-23 14:59:12.715759,31
2021-12-23 14:59:12.715768,-57
2021-12-23 14:59:12.715778,-131
2021-12-23 14:59:12.715788,-157
2021-12-23 14:59:13.029843,-162
2021-12-23 14:59:13.029872,-186
2021-12-23 14:59:13.029884,-217
2021-12-23 14:59:13.029895,-239
2021-12-23 14:59:13.029905,-244
2021-12-23 14:59:13.029914,-229
2021-12-23 14:59:13.029924,-222
2021-12-23 14:59:13.029934,-203
2021-12-23 14:59:13.029944,-181
2021-12-23 14:59:13.029953,-205
2021-12-23 14:59:13.029963,-229
2021-12-23 14:59:13.029973,-198
2021-12-23 14:59:13.029982,-165
2021-12-23 14:59:13.029992,-150
2021-12-23 14:59:13.030002,-141
2021-12-23 14:59:13.030012,-143
2021-12-23 14:59:13.030022,-150
2021-12-23 14:59:13.030032,-136
2021-12-23 14:59:13.030042,-114
2021-12-23 14:59:13.030052,-98
2021-12-23 14:59:13.030062,-88
2021-12-23 14:59:13.030071,-93
2021-12-23 14:59:13.030081,-86
2021-12-23 14:59:13.030091,-57
2021-12-23 14:59:13.030101,-35
2021-12-23 14:59:13.030110,-33
2021-12-23 14:59:13.030120,-38
2021-12-23 14:59:13.030130,-50
2021-12-23 14:59:13.030140,-43
2021-12-23 14:59:13.030150,-21
2021-12-23 14:59:13.210490,-11
2021-12-23 14:59:13.210521,-11
2021-12-23 14:59:13.210532,-14
2021-12-23 14:59:13.210543,-21
2021-12-23 14:59:13.210552,-21
2021-12-23 14:59:13.210562,-4
2021-12-23 14:59:13.210571,14
2021-12-23 14:59:13.210581,23
2021-12-23 14:59:13.210591,14
2021-12-23 14:59:13.210600,-4
2021-12-23 14:59:13.210610,9
2021-12-23 14:59:13.210620,33
2021-12-23 14:59:13.210630,38
2021-12-23 14:59:13.210639,38
2021-12-23 14:59:13.210649,11
2021-12-23 14:59:13.210658,-14
2021-12-23 14:59:13.210668,14
2021-12-23 14:59:13.210678,47
2021-12-23 14:59:13.210687,11
2021-12-23 14:59:13.210697,-71
2021-12-23 14:59:13.210706,-124
2021-12-23 14:59:13.210716,-117
2021-12-23 14:59:13.210725,-90
2021-12-23 14:59:13.210735,-86
2021-12-23 14:59:13.210744,-78
2021-12-23 14:59:13.210754,-64
2021-12-23 14:59:13.210763,-69
2021-12-23 14:59:13.210773,-76
2021-12-23 14:59:13.210782,-52
2021-12-23 14:59:13.210792,-23
2021-12-23 14:59:13.435528,-14
2021-12-23 14:59:13.435550,-19
2021-12-23 14:59:13.435557,-52
2021-12-23 14:59:13.435564,-74
2021-12-23 14:59:13.435570,131
2021-12-23 14:59:13.435576,569
2021-12-23 14:59:13.435583,825
2021-12-23 14:59:13.435589,629
2021-12-23 14:59:13.435595,66
2021-12-23 14:59:13.435601,-346
2021-12-23 14:59:13.435607,-184
2021-12-23 14:59:13.435614,19
2021-12-23 14:59:13.435620,-76
2021-12-23 14:59:13.435626,-110
2021-12-23 14:59:13.435632,-69
2021-12-23 14:59:13.435638,-93
2021-12-23 14:59:13.435645,-86
2021-12-23 14:59:13.435651,-35
2021-12-23 14:59:13.435657,-16
2021-12-23 14:59:13.435663,-16
2021-12-23 14:59:13.435670,-26
2021-12-23 14:59:13.435676,-28
2021-12-23 14:59:13.435682,0
2021-12-23 14:59:13.435688,35
2021-12-23 14:59:13.435694,64
2021-12-23 14:59:13.435701,88
2021-12-23 14:59:13.435707,107
2021-12-23 14:59:13.435713,133
2021-12-23 14:59:13.435719,172
2021-12-23 14:59:13.435725,208
2021-12-23 14:59:13.660496,232
2021-12-23 14:59:13.660526,251
2021-12-23 14:59:13.660537,258
2021-12-23 14:59:13.660547,256
2021-12-23 14:59:13.660557,256
2021-12-23 14:59:13.660567,244
2021-12-23 14:59:13.660576,203
2021-12-23 14:59:13.660586,119
2021-12-23 14:59:13.660595,33
2021-12-23 14:59:13.660605,-9
2021-12-23 14:59:13.660614,-35
2021-12-23 14:59:13.660624,-59
2021-12-23 14:59:13.660633,-86
2021-12-23 14:59:13.660643,-119
2021-12-23 14:59:13.660652,-136
2021-12-23 14:59:13.660662,-126
2021-12-23 14:59:13.660672,-117
2021-12-23 14:59:13.660681,-105
2021-12-23 14:59:13.660691,-98
2021-12-23 14:59:13.660700,-100
2021-12-23 14:59:13.660710,-90
2021-12-23 14:59:13.660719,-90
2021-12-23 14:59:13.660729,-112
2021-12-23 14:59:13.660738,-119
2021-12-23 14:59:13.660748,-126
2021-12-23 14:59:13.660757,-143
2021-12-23 14:59:13.660767,-122
2021-12-23 14:59:13.660776,-88
2021-12-23 14:59:13.660797,-81
2021-12-23 14:59:13.660807,-62
2021-12-23 14:59:13.885004,-43
2021-12-23 14:59:13.885026,-38
2021-12-23 14:59:13.885034,-31
2021-12-23 14:59:13.885040,-21
2021-12-23 14:59:13.885047,-14
2021-12-23 14:59:13.885053,-16
2021-12-23 14:59:13.885060,-52
2021-12-23 14:59:13.885066,-78
2021-12-23 14:59:13.885072,-57
2021-12-23 14:59:13.885079,-43
2021-12-23 14:59:13.885085,-45
2021-12-23 14:59:13.885091,-40
2021-12-23 14:59:13.885098,-52
2021-12-23 14:59:13.885104,-62
2021-12-23 14:59:13.885111,-47
2021-12-23 14:59:13.885117,-38
2021-12-23 14:59:13.885123,-33
2021-12-23 14:59:13.885130,-26
2021-12-23 14:59:13.885136,-28
2021-12-23 14:59:13.885142,-26
2021-12-23 14:59:13.885149,-16
2021-12-23 14:59:13.885155,-16
2021-12-23 14:59:13.885161,-9
2021-12-23 14:59:13.885168,14
2021-12-23 14:59:13.885174,19
2021-12-23 14:59:13.885180,7
2021-12-23 14:59:13.885187,2
2021-12-23 14:59:13.885193,-16
2021-12-23 14:59:13.885199,-38
2021-12-23 14:59:13.885206,-47
2021-12-23 14:59:14.155262,-71
2021-12-23 14:59:14.155291,-81
2021-12-23 14:59:14.155303,-69
2021-12-23 14:59:14.155313,-69
2021-12-23 14:59:14.155323,-69
2021-12-23 14:59:14.155332,-74
2021-12-23 14:59:14.155342,-95
2021-12-23 14:59:14.155352,-93
2021-12-23 14:59:14.155361,-95
2021-12-23 14:59:14.155371,-129
2021-12-23 14:59:14.155381,-9
2021-12-23 14:59:14.155390,363
2021-12-23 14:59:14.155400,667
2021-12-23 14:59:14.155409,574
2021-12-23 14:59:14.155419,122
2021-12-23 14:59:14.155429,-306
2021-12-23 14:59:14.155438,-279
2021-12-23 14:59:14.155448,-76
2021-12-23 14:59:14.155458,-86
2021-12-23 14:59:14.155467,-100
2021-12-23 14:59:14.155477,-28
2021-12-23 14:59:14.155486,-21
2021-12-23 14:59:14.155496,-31
2021-12-23 14:59:14.155505,0
2021-12-23 14:59:14.155515,19
2021-12-23 14:59:14.155525,21
2021-12-23 14:59:14.155534,14
2021-12-23 14:59:14.155544,7
2021-12-23 14:59:14.155554,35
2021-12-23 14:59:14.155563,52
2021-12-23 14:59:14.424828,26
2021-12-23 14:59:14.424858,38
2021-12-23 14:59:14.424869,86
2021-12-23 14:59:14.424879,110
2021-12-23 14:59:14.424889,122
2021-12-23 14:59:14.424899,133
2021-12-23 14:59:14.424908,153
2021-12-23 14:59:14.424918,193
2021-12-23 14:59:14.424928,215
2021-12-23 14:59:14.424937,212
2021-12-23 14:59:14.424947,205
2021-12-23 14:59:14.424957,186
2021-12-23 14:59:14.424966,155
2021-12-23 14:59:14.424976,112
2021-12-23 14:59:14.424986,50
2021-12-23 14:59:14.424995,-16
2021-12-23 14:59:14.425005,-74
2021-12-23 14:59:14.425015,-117
2021-12-23 14:59:14.425024,-131
2021-12-23 14:59:14.425034,-117
2021-12-23 14:59:14.425044,-110
2021-12-23 14:59:14.425053,-122
2021-12-23 14:59:14.425063,-126
2021-12-23 14:59:14.425073,-119
2021-12-23 14:59:14.425082,-105
2021-12-23 14:59:14.425092,-90
2021-12-23 14:59:14.425102,-86
2021-12-23 14:59:14.425111,-90
2021-12-23 14:59:14.425121,-112
2021-12-23 14:59:14.425131,-133
2021-12-23 14:59:14.604192,-124
2021-12-23 14:59:14.604222,-100
2021-12-23 14:59:14.604234,-88
2021-12-23 14:59:14.604245,-88
2021-12-23 14:59:14.604255,-81
2021-12-23 14:59:14.604264,-64
2021-12-23 14:59:14.604274,-45
2021-12-23 14:59:14.604284,-31
2021-12-23 14:59:14.604294,-28
2021-12-23 14:59:14.604303,-47
2021-12-23 14:59:14.604313,-76
2021-12-23 14:59:14.604323,-78
2021-12-23 14:59:14.604332,-52
2021-12-23 14:59:14.604342,-35
2021-12-23 14:59:14.604352,-40
2021-12-23 14:59:14.604362,-52
2021-12-23 14:59:14.604372,-64
2021-12-23 14:59:14.604382,-57
2021-12-23 14:59:14.604391,-33
2021-12-23 14:59:14.604401,-19
2021-12-23 14:59:14.604411,-40
2021-12-23 14:59:14.604420,-71
2021-12-23 14:59:14.604430,-88
2021-12-23 14:59:14.604440,-95
2021-12-23 14:59:14.604449,-105
2021-12-23 14:59:14.604459,-100
2021-12-23 14:59:14.604469,-100
2021-12-23 14:59:14.604478,-107
2021-12-23 14:59:14.604488,-88
2021-12-23 14:59:14.604498,-62
2021-12-23 14:59:14.830174,-74
2021-12-23 14:59:14.830207,-90
2021-12-23 14:59:14.830215,-93
2021-12-23 14:59:14.830222,-126
2021-12-23 14:59:14.830228,-162
2021-12-23 14:59:14.830234,-155
2021-12-23 14:59:14.830241,-172
2021-12-23 14:59:14.830247,-191
2021-12-23 14:59:14.830253,-174
2021-12-23 14:59:14.830259,-184
2021-12-23 14:59:14.830266,-200
2021-12-23 14:59:14.830272,-165
2021-12-23 14:59:14.830278,-138
2021-12-23 14:59:14.830285,-169
2021-12-23 14:59:14.830291,-102
2021-12-23 14:59:14.830297,241
2021-12-23 14:59:14.830304,638
2021-12-23 14:59:14.830310,672
2021-12-23 14:59:14.830317,277
2021-12-23 14:59:14.830323,-251
2021-12-23 14:59:14.830329,-375
2021-12-23 14:59:14.830336,-112
2021-12-23 14:59:14.830342,-50
2021-12-23 14:59:14.830348,-114
2021-12-23 14:59:14.830355,-47
2021-12-23 14:59:14.830361,-9
2021-12-23 14:59:14.830367,-35
2021-12-23 14:59:14.830373,-21
2021-12-23 14:59:14.830380,11
2021-12-23 14:59:14.830386,33
2021-12-23 14:59:15.055472,47
2021-12-23 14:59:15.055503,57
2021-12-23 14:59:15.055515,38
2021-12-23 14:59:15.055525,31
2021-12-23 14:59:15.055535,74
2021-12-23 14:59:15.055544,122
2021-12-23 14:59:15.055554,141
2021-12-23 14:59:15.055564,165
2021-12-23 14:59:15.055574,179
2021-12-23 14:59:15.055584,177
2021-12-23 14:59:15.055593,203
2021-12-23 14:59:15.055603,244
2021-12-23 14:59:15.055613,270
2021-12-23 14:59:15.055623,287
2021-12-23 14:59:15.055633,260
2021-12-23 14:59:15.055642,210
2021-12-23 14:59:15.055652,198
2021-12-23 14:59:15.055662,172
2021-12-23 14:59:15.055672,78
2021-12-23 14:59:15.055681,-2
2021-12-23 14:59:15.055691,-47
2021-12-23 14:59:15.055701,-100
2021-12-23 14:59:15.055711,-131
2021-12-23 14:59:15.055720,-117
2021-12-23 14:59:15.055730,-100
2021-12-23 14:59:15.055740,-105
2021-12-23 14:59:15.055750,-114
2021-12-23 14:59:15.055760,-119
2021-12-23 14:59:15.055769,-105
2021-12-23 14:59:15.055779,-86
2021-12-23 14:59:15.280479,-86
2021-12-23 14:59:15.280509,-102
2021-12-23 14:59:15.280520,-110
2021-12-23 14:59:15.280531,-112
2021-12-23 14:59:15.280540,-126
2021-12-23 14:59:15.280550,-126
2021-12-23 14:59:15.280560,-100
2021-12-23 14:59:15.280570,-93
2021-12-23 14:59:15.280579,-122
2021-12-23 14:59:15.280589,-126
2021-12-23 14:59:15.280599,-102
2021-12-23 14:59:15.280609,-117
2021-12-23 14:59:15.280619,-143
2021-12-23 14:59:15.280628,-136
2021-12-23 14:59:15.280638,-143
2021-12-23 14:59:15.280648,-155
2021-12-23 14:59:15.280657,-126
2021-12-23 14:59:15.280667,-95
2021-12-23 14:59:15.280677,-90
2021-12-23 14:59:15.280687,-95
2021-12-23 14:59:15.280696,-93
2021-12-23 14:59:15.280706,-76
2021-12-23 14:59:15.280716,-62
2021-12-23 14:59:15.280725,-62
2021-12-23 14:59:15.280735,-71
2021-12-23 14:59:15.280745,-102
2021-12-23 14:59:15.280754,-124
2021-12-23 14:59:15.280764,-122
2021-12-23 14:59:15.280774,-119
2021-12-23 14:59:15.280784,-112
2021-12-23 14:59:15.550477,-98
2021-12-23 14:59:15.550506,-95
2021-12-23 14:59:15.550518,-95
2021-12-23 14:59:15.550528,-88
2021-12-23 14:59:15.550538,-74
2021-12-23 14:59:15.550548,-66
2021-12-23 14:59:15.550557,-112
2021-12-23 14:59:15.550567,-186
2021-12-23 14:59:15.550577,-35
2021-12-23 14:59:15.550587,411
2021-12-23 14:59:15.550597,720
2021-12-23 14:59:15.550606,586
2021-12-23 14:59:15.550616,64
2021-12-23 14:59:15.550626,-418
2021-12-23 14:59:15.550636,-330
2021-12-23 14:59:15.550645,-59
2021-12-23 14:59:15.550655,-98
2021-12-23 14:59:15.550665,-124
2021-12-23 14:59:15.550674,-38
2021-12-23 14:59:15.550684,-40
2021-12-23 14:59:15.550694,-57
2021-12-23 14:59:15.550703,-19
2021-12-23 14:59:15.550713,9
2021-12-23 14:59:15.550770,23
2021-12-23 14:59:15.550781,45
2021-12-23 14:59:15.550791,52
2021-12-23 14:59:15.550800,66
2021-12-23 14:59:15.550810,95
2021-12-23 14:59:15.550819,126
2021-12-23 14:59:15.550829,155
2021-12-23 14:59:15.730554,177
2021-12-23 14:59:15.730584,205
2021-12-23 14:59:15.730595,239
2021-12-23 14:59:15.730605,263
2021-12-23 14:59:15.730615,289
2021-12-23 14:59:15.730625,318
2021-12-23 14:59:15.730634,308
2021-12-23 14:59:15.730644,277
2021-12-23 14:59:15.730653,251
2021-12-23 14:59:15.730663,212
2021-12-23 14:59:15.730673,162
2021-12-23 14:59:15.730682,102
2021-12-23 14:59:15.730692,19
2021-12-23 14:59:15.730702,-55
2021-12-23 14:59:15.730711,-86
2021-12-23 14:59:15.730721,-107
2021-12-23 14:59:15.730731,-124
2021-12-23 14:59:15.730740,-153
2021-12-23 14:59:15.730750,-212
2021-12-23 14:59:15.730760,-224
2021-12-23 14:59:15.730769,-179
2021-12-23 14:59:15.730779,-162
2021-12-23 14:59:15.730788,-165
2021-12-23 14:59:15.730798,-145
2021-12-23 14:59:15.730807,-136
2021-12-23 14:59:15.730817,-126
2021-12-23 14:59:15.730826,-105
2021-12-23 14:59:15.730836,-93
2021-12-23 14:59:15.730846,-78
2021-12-23 14:59:15.730855,-64
2021-12-23 14:59:15.999990,-57
2021-12-23 14:59:16.000011,-43
2021-12-23 14:59:16.000018,-26
2021-12-23 14:59:16.000024,-26
2021-12-23 14:59:16.000030,-21
2021-12-23 14:59:16.000036,-21
2021-12-23 14:59:16.000041,-43
2021-12-23 14:59:16.000047,-40
2021-12-23 14:59:16.000052,-14
2021-12-23 14:59:16.000057,-19
2021-12-23 14:59:16.000062,-47
2021-12-23 14:59:16.000068,-78
2021-12-23 14:59:16.000073,-90
2021-12-23 14:59:16.000078,-74
2021-12-23 14:59:16.000083,-62
2021-12-23 14:59:16.000088,-59
2021-12-23 14:59:16.000094,-40
2021-12-23 14:59:16.000099,-14
2021-12-23 14:59:16.000104,-7
2021-12-23 14:59:16.000109,-2
2021-12-23 14:59:16.000114,-2
2021-12-23 14:59:16.000119,-9
2021-12-23 14:59:16.000124,-11
2021-12-23 14:59:16.000129,-19
2021-12-23 14:59:16.000134,-19
2021-12-23 14:59:16.000139,0
2021-12-23 14:59:16.000144,0
2021-12-23 14:59:16.000149,-26
2021-12-23 14:59:16.000154,-31
2021-12-23 14:59:16.000159,-16
2021-12-23 14:59:16.180739,-11
2021-12-23 14:59:16.180769,-21
2021-12-23 14:59:16.180781,-55
2021-12-23 14:59:16.180791,40
2021-12-23 14:59:16.180801,423
2021-12-23 14:59:16.180811,789
2021-12-23 14:59:16.180821,770
2021-12-23 14:59:16.180830,337
2021-12-23 14:59:16.180840,-198
2021-12-23 14:59:16.180850,-258
2021-12-23 14:59:16.180860,0
2021-12-23 14:59:16.180870,-21
2021-12-23 14:59:16.180880,-124
2021-12-23 14:59:16.180889,-57
2021-12-23 14:59:16.180899,-11
2021-12-23 14:59:16.180909,-35
2021-12-23 14:59:16.180919,-38
2021-12-23 14:59:16.180929,-38
2021-12-23 14:59:16.180938,-40
2021-12-23 14:59:16.180948,-26
2021-12-23 14:59:16.180958,-16
2021-12-23 14:59:16.180968,-23
2021-12-23 14:59:16.180977,-40
2021-12-23 14:59:16.180987,-47
2021-12-23 14:59:16.180997,-14
2021-12-23 14:59:16.181006,40
2021-12-23 14:59:16.181016,74
2021-12-23 14:59:16.181026,93
2021-12-23 14:59:16.181036,117
2021-12-23 14:59:16.181045,145
2021-12-23 14:59:16.404868,172
2021-12-23 14:59:16.404914,196
2021-12-23 14:59:16.404921,203
2021-12-23 14:59:16.404926,179
2021-12-23 14:59:16.404931,126
2021-12-23 14:59:16.404936,71
2021-12-23 14:59:16.404941,28
2021-12-23 14:59:16.404946,-21
2021-12-23 14:59:16.404951,-81
2021-12-23 14:59:16.404956,-138
2021-12-23 14:59:16.404962,-193
2021-12-23 14:59:16.404967,-215
2021-12-23 14:59:16.404972,-193
2021-12-23 14:59:16.404977,-181
2021-12-23 14:59:16.404982,-203
2021-12-23 14:59:16.404987,-229
2021-12-23 14:59:16.404992,-224
2021-12-23 14:59:16.404997,-198
2021-12-23 14:59:16.405001,-172
2021-12-23 14:59:16.405006,-145
2021-12-23 14:59:16.405011,-136
2021-12-23 14:59:16.405016,-143
2021-12-23 14:59:16.405021,-143
2021-12-23 14:59:16.405026,-119
2021-12-23 14:59:16.405031,-90
2021-12-23 14:59:16.405036,-74
2021-12-23 14:59:16.405041,-62
2021-12-23 14:59:16.405046,-64
2021-12-23 14:59:16.405051,-66
2021-12-23 14:59:16.405056,-45
2021-12-23 14:59:16.719066,-19
2021-12-23 14:59:16.719095,-14
2021-12-23 14:59:16.719108,-16
2021-12-23 14:59:16.719116,-43
2021-12-23 14:59:16.719122,-74
2021-12-23 14:59:16.719128,-55
2021-12-23 14:59:16.719134,-23
2021-12-23 14:59:16.719141,-19
2021-12-23 14:59:16.719147,-23
2021-12-23 14:59:16.719153,-47
2021-12-23 14:59:16.719159,-66
2021-12-23 14:59:16.719166,-45
2021-12-23 14:59:16.719172,-19
2021-12-23 14:59:16.719178,-19
2021-12-23 14:59:16.719184,-16
2021-12-23 14:59:16.719191,-26
2021-12-23 14:59:16.719197,-47
2021-12-23 14:59:16.719203,-55
2021-12-23 14:59:16.719209,-33
2021-12-23 14:59:16.719215,-11
2021-12-23 14:59:16.719222,-19
2021-12-23 14:59:16.719228,-31
2021-12-23 14:59:16.719234,-26
2021-12-23 14:59:16.719240,-4
2021-12-23 14:59:16.719246,19
2021-12-23 14:59:16.719253,43
2021-12-23 14:59:16.719259,50
2021-12-23 14:59:16.719265,26
2021-12-23 14:59:16.719271,-19
2021-12-23 14:59:16.719277,-40
2021-12-23 14:59:16.989202,-28
2021-12-23 14:59:16.989220,-21
2021-12-23 14:59:16.989226,-31
2021-12-23 14:59:16.989231,-38
2021-12-23 14:59:16.989238,-31
2021-12-23 14:59:16.989243,-14
2021-12-23 14:59:16.989249,0
2021-12-23 14:59:16.989254,11
2021-12-23 14:59:16.989259,-9
2021-12-23 14:59:16.989264,-78
2021-12-23 14:59:16.989269,-90
2021-12-23 14:59:16.989274,141
2021-12-23 14:59:16.989279,569
2021-12-23 14:59:16.989284,811
2021-12-23 14:59:16.989289,626
2021-12-23 14:59:16.989294,71
2021-12-23 14:59:16.989299,-354
2021-12-23 14:59:16.989305,-193
2021-12-23 14:59:16.989310,14
2021-12-23 14:59:16.989315,-90
2021-12-23 14:59:16.989320,-112
2021-12-23 14:59:16.989325,-33
2021-12-23 14:59:16.989330,-33
2021-12-23 14:59:16.989335,-31
2021-12-23 14:59:16.989340,14
2021-12-23 14:59:16.989345,33
2021-12-23 14:59:16.989351,23
2021-12-23 14:59:16.989356,31
2021-12-23 14:59:16.989361,59
2021-12-23 14:59:16.989366,81
2021-12-23 14:59:17.169835,86
2021-12-23 14:59:17.169864,93
2021-12-23 14:59:17.169876,105
2021-12-23 14:59:17.169886,122
2021-12-23 14:59:17.169896,153
2021-12-23 14:59:17.169906,191
2021-12-23 14:59:17.169916,217
2021-12-23 14:59:17.169926,227
2021-12-23 14:59:17.169935,217
2021-12-23 14:59:17.169945,208
2021-12-23 14:59:17.169955,220
2021-12-23 14:59:17.169965,229
2021-12-23 14:59:17.169975,210
2021-12-23 14:59:17.169984,160
2021-12-23 14:59:17.169994,74
2021-12-23 14:59:17.170004,0
2021-12-23 14:59:17.170013,-33
2021-12-23 14:59:17.170023,-59
2021-12-23 14:59:17.170033,-83
2021-12-23 14:59:17.170042,-93
2021-12-23 14:59:17.170052,-119
2021-12-23 14:59:17.170062,-169
2021-12-23 14:59:17.170072,-186
2021-12-23 14:59:17.170081,-167
2021-12-23 14:59:17.170091,-174
2021-12-23 14:59:17.170101,-198
2021-12-23 14:59:17.170111,-198
2021-12-23 14:59:17.170121,-184
2021-12-23 14:59:17.170130,-172
2021-12-23 14:59:17.170140,-153
2021-12-23 14:59:17.395004,-138
2021-12-23 14:59:17.395024,-138
2021-12-23 14:59:17.395032,-141
2021-12-23 14:59:17.395038,-143
2021-12-23 14:59:17.395045,-165
2021-12-23 14:59:17.395051,-181
2021-12-23 14:59:17.395057,-162
2021-12-23 14:59:17.395065,-160
2021-12-23 14:59:17.395076,-174
2021-12-23 14:59:17.395087,-157
2021-12-23 14:59:17.395098,-133
2021-12-23 14:59:17.395109,-122
2021-12-23 14:59:17.395120,-119
2021-12-23 14:59:17.395132,-143
2021-12-23 14:59:17.395143,-160
2021-12-23 14:59:17.395155,-141
2021-12-23 14:59:17.395166,-117
2021-12-23 14:59:17.395175,-105
2021-12-23 14:59:17.395182,-98
2021-12-23 14:59:17.395188,-100
2021-12-23 14:59:17.395198,-98
2021-12-23 14:59:17.395227,-83
2021-12-23 14:59:17.395236,-86
2021-12-23 14:59:17.395242,-100
2021-12-23 14:59:17.395248,-95
2021-12-23 14:59:17.395255,-83
2021-12-23 14:59:17.395261,-76
2021-12-23 14:59:17.395267,-64
2021-12-23 14:59:17.395273,-52
2021-12-23 14:59:17.395279,-40
2021-12-23 14:59:17.620514,-40
2021-12-23 14:59:17.620544,-47
2021-12-23 14:59:17.620556,-38
2021-12-23 14:59:17.620566,-16
2021-12-23 14:59:17.620575,7
2021-12-23 14:59:17.620585,26
2021-12-23 14:59:17.620595,2
2021-12-23 14:59:17.620605,-35
2021-12-23 14:59:17.620614,-33
2021-12-23 14:59:17.620624,-28
2021-12-23 14:59:17.620634,-35
2021-12-23 14:59:17.620643,-31
2021-12-23 14:59:17.620653,-28
2021-12-23 14:59:17.620663,-33
2021-12-23 14:59:17.620673,-21
2021-12-23 14:59:17.620682,-11
2021-12-23 14:59:17.620692,-9
2021-12-23 14:59:17.620707,-7
2021-12-23 14:59:17.620717,-50
2021-12-23 14:59:17.620726,-98
2021-12-23 14:59:17.620736,45
2021-12-23 14:59:17.620746,442
2021-12-23 14:59:17.620755,753
2021-12-23 14:59:17.620765,681
2021-12-23 14:59:17.620775,220
2021-12-23 14:59:17.620785,-263
2021-12-23 14:59:17.620795,-248
2021-12-23 14:59:17.620804,-7
2021-12-23 14:59:17.620814,-19
2021-12-23 14:59:17.620823,-57
2021-12-23 14:59:17.800037,9
2021-12-23 14:59:17.800073,26
2021-12-23 14:59:17.800080,11
2021-12-23 14:59:17.800086,33
2021-12-23 14:59:17.800092,52
2021-12-23 14:59:17.800097,50
2021-12-23 14:59:17.800103,45
2021-12-23 14:59:17.800108,62
2021-12-23 14:59:17.800113,86
2021-12-23 14:59:17.800118,74
2021-12-23 14:59:17.800123,45
2021-12-23 14:59:17.800128,38
2021-12-23 14:59:17.800133,38
2021-12-23 14:59:17.800139,59
2021-12-23 14:59:17.800144,102
2021-12-23 14:59:17.800149,126
2021-12-23 14:59:17.800154,143
2021-12-23 14:59:17.800159,150
2021-12-23 14:59:17.800164,136
2021-12-23 14:59:17.800169,145
2021-12-23 14:59:17.800174,162
2021-12-23 14:59:17.800179,143
2021-12-23 14:59:17.800184,110
2021-12-23 14:59:17.800189,66
2021-12-23 14:59:17.800194,0
2021-12-23 14:59:17.800199,-55
2021-12-23 14:59:17.800204,-100
2021-12-23 14:59:17.800209,-162
2021-12-23 14:59:17.800214,-184
2021-12-23 14:59:17.800219,-169
2021-12-23 14:59:18.025490,-165
2021-12-23 14:59:18.025520,-162
2021-12-23 14:59:18.025532,-160
2021-12-23 14:59:18.025542,-174
2021-12-23 14:59:18.025552,-191
2021-12-23 14:59:18.025561,-212
2021-12-23 14:59:18.025571,-234
2021-12-23 14:59:18.025581,-212
2021-12-23 14:59:18.025591,-186
2021-12-23 14:59:18.025600,-191
2021-12-23 14:59:18.025610,-196
2021-12-23 14:59:18.025620,-208
2021-12-23 14:59:18.025629,-205
2021-12-23 14:59:18.025639,-179
2021-12-23 14:59:18.025650,-162
2021-12-23 14:59:18.025661,-155
2021-12-23 14:59:18.025670,-153
2021-12-23 14:59:18.025680,-150
2021-12-23 14:59:18.025690,-131
2021-12-23 14:59:18.025700,-105
2021-12-23 14:59:18.025709,-102
2021-12-23 14:59:18.025719,-107
2021-12-23 14:59:18.025729,-98
2021-12-23 14:59:18.025739,-98
2021-12-23 14:59:18.025748,-98
2021-12-23 14:59:18.025758,-81
2021-12-23 14:59:18.025768,-69
2021-12-23 14:59:18.025778,-69
2021-12-23 14:59:18.025788,-74
2021-12-23 14:59:18.025798,-81
2021-12-23 14:59:18.250527,-81
2021-12-23 14:59:18.250557,-59
2021-12-23 14:59:18.250568,-47
2021-12-23 14:59:18.250578,-59
2021-12-23 14:59:18.250588,-78
2021-12-23 14:59:18.250598,-86
2021-12-23 14:59:18.250607,-74
2021-12-23 14:59:18.250617,-52
2021-12-23 14:59:18.250626,-47
2021-12-23 14:59:18.250636,-57
2021-12-23 14:59:18.250645,-81
2021-12-23 14:59:18.250655,-90
2021-12-23 14:59:18.250665,-59
2021-12-23 14:59:18.250674,-31
2021-12-23 14:59:18.250684,-28
2021-12-23 14:59:18.250693,-52
2021-12-23 14:59:18.250703,-88
2021-12-23 14:59:18.250712,-86
2021-12-23 14:59:18.250722,-55
2021-12-23 14:59:18.250732,-33
2021-12-23 14:59:18.250741,-14
2021-12-23 14:59:18.250751,2
2021-12-23 14:59:18.250761,0
2021-12-23 14:59:18.250770,0
2021-12-23 14:59:18.250780,14
2021-12-23 14:59:18.250789,16
2021-12-23 14:59:18.250799,9
2021-12-23 14:59:18.250809,-7
2021-12-23 14:59:18.250819,-16
2021-12-23 14:59:18.250828,-11
2021-12-23 14:59:18.520496,-4
2021-12-23 14:59:18.520526,-19
2021-12-23 14:59:18.520537,-26
2021-12-23 14:59:18.520547,-38
2021-12-23 14:59:18.520556,-62
2021-12-23 14:59:18.520566,-71
2021-12-23 14:59:18.520576,-81
2021-12-23 14:59:18.520585,0
2021-12-23 14:59:18.520595,332
2021-12-23 14:59:18.520605,677
2021-12-23 14:59:18.520614,667
2021-12-23 14:59:18.520624,294
2021-12-23 14:59:18.520634,-179
2021-12-23 14:59:18.520644,-284
2021-12-23 14:59:18.520653,-62
2021-12-23 14:59:18.520663,-26
2021-12-23 14:59:18.520672,-95
2021-12-23 14:59:18.520682,-43
2021-12-23 14:59:18.520691,-23
2021-12-23 14:59:18.520701,-52
2021-12-23 14:59:18.520710,-33
2021-12-23 14:59:18.520720,-19
2021-12-23 14:59:18.520730,-28
2021-12-23 14:59:18.520739,0
2021-12-23 14:59:18.520749,35
2021-12-23 14:59:18.520758,50
2021-12-23 14:59:18.520768,64
2021-12-23 14:59:18.520778,71
2021-12-23 14:59:18.520787,86
2021-12-23 14:59:18.520797,122
2021-12-23 14:59:18.788340,155
2021-12-23 14:59:18.788357,181
2021-12-23 14:59:18.788363,196
2021-12-23 14:59:18.788368,186
2021-12-23 14:59:18.788373,193
2021-12-23 14:59:18.788378,227
2021-12-23 14:59:18.788383,236
2021-12-23 14:59:18.788388,232
2021-12-23 14:59:18.788393,203
2021-12-23 14:59:18.788398,126
2021-12-23 14:59:18.788404,62
2021-12-23 14:59:18.788409,31
2021-12-23 14:59:18.788414,-26
2021-12-23 14:59:18.788419,-86
2021-12-23 14:59:18.788424,-138
2021-12-23 14:59:18.788429,-203
2021-12-23 14:59:18.788434,-220
2021-12-23 14:59:18.788439,-196
2021-12-23 14:59:18.788444,-189
2021-12-23 14:59:18.788449,-189
2021-12-23 14:59:18.788454,-189
2021-12-23 14:59:18.788459,-222
2021-12-23 14:59:18.788464,-239
2021-12-23 14:59:18.788470,-205
2021-12-23 14:59:18.788475,-174
2021-12-23 14:59:18.788480,-169
2021-12-23 14:59:18.788485,-169
2021-12-23 14:59:18.788491,-167
2021-12-23 14:59:18.788496,-145
2021-12-23 14:59:18.788501,-119
2021-12-23 14:59:19.015073,-105
2021-12-23 14:59:19.015093,-98
2021-12-23 14:59:19.015100,-100
2021-12-23 14:59:19.015107,-100
2021-12-23 14:59:19.015113,-100
2021-12-23 14:59:19.015120,-110
2021-12-23 14:59:19.015126,-107
2021-12-23 14:59:19.015133,-102
2021-12-23 14:59:19.015139,-129
2021-12-23 14:59:19.015145,-141
2021-12-23 14:59:19.015152,-114
2021-12-23 14:59:19.015158,-102
2021-12-23 14:59:19.015164,-102
2021-12-23 14:59:19.015171,-100
2021-12-23 14:59:19.015177,-119
2021-12-23 14:59:19.015183,-129
2021-12-23 14:59:19.015190,-107
2021-12-23 14:59:19.015196,-93
2021-12-23 14:59:19.015203,-83
2021-12-23 14:59:19.015209,-74
2021-12-23 14:59:19.015215,-76
2021-12-23 14:59:19.015221,-71
2021-12-23 14:59:19.015228,-47
2021-12-23 14:59:19.015234,-28
2021-12-23 14:59:19.015240,-26
2021-12-23 14:59:19.015246,-33
2021-12-23 14:59:19.015253,-45
2021-12-23 14:59:19.015259,-43
2021-12-23 14:59:19.015265,-14
2021-12-23 14:59:19.015272,21
2021-12-23 14:59:19.194944,43
2021-12-23 14:59:19.194985,35
2021-12-23 14:59:19.194997,16
2021-12-23 14:59:19.195003,11
2021-12-23 14:59:19.195009,16
2021-12-23 14:59:19.195014,14
2021-12-23 14:59:19.195020,11
2021-12-23 14:59:19.195025,4
2021-12-23 14:59:19.195031,-4
2021-12-23 14:59:19.195036,0
2021-12-23 14:59:19.195041,14
2021-12-23 14:59:19.195046,28
2021-12-23 14:59:19.195052,26
2021-12-23 14:59:19.195057,-4
2021-12-23 14:59:19.195063,-57
2021-12-23 14:59:19.195068,-43
2021-12-23 14:59:19.195074,208
2021-12-23 14:59:19.195079,624
2021-12-23 14:59:19.195084,777
2021-12-23 14:59:19.195089,476
2021-12-23 14:59:19.195095,-66
2021-12-23 14:59:19.195100,-334
2021-12-23 14:59:19.195105,-136
2021-12-23 14:59:19.195111,-7
2021-12-23 14:59:19.195115,-86
2021-12-23 14:59:19.195142,-66
2021-12-23 14:59:19.195153,-45
2021-12-23 14:59:19.195158,-93
2021-12-23 14:59:19.195163,-76
2021-12-23 14:59:19.195167,-28
2021-12-23 14:59:19.464885,-28
2021-12-23 14:59:19.464914,-23
2021-12-23 14:59:19.464926,7
2021-12-23 14:59:19.464937,21
2021-12-23 14:59:19.464947,33
2021-12-23 14:59:19.464957,64
2021-12-23 14:59:19.464967,71
2021-12-23 14:59:19.464977,62
2021-12-23 14:59:19.464987,81
2021-12-23 14:59:19.464996,95
2021-12-23 14:59:19.465006,105
2021-12-23 14:59:19.465032,143
2021-12-23 14:59:19.465042,153
2021-12-23 14:59:19.465051,122
2021-12-23 14:59:19.465061,117
2021-12-23 14:59:19.465070,119
2021-12-23 14:59:19.465080,95
2021-12-23 14:59:19.465090,69
2021-12-23 14:59:19.465099,35
2021-12-23 14:59:19.465109,-19
2021-12-23 14:59:19.465118,-78
2021-12-23 14:59:19.465128,-129
2021-12-23 14:59:19.465138,-160
2021-12-23 14:59:19.465147,-179
2021-12-23 14:59:19.465157,-196
2021-12-23 14:59:19.465167,-196
2021-12-23 14:59:19.465176,-184
2021-12-23 14:59:19.465186,-184
2021-12-23 14:59:19.465196,-179
2021-12-23 14:59:19.465205,-165
2021-12-23 14:59:19.645529,-160
2021-12-23 14:59:19.645559,-150
2021-12-23 14:59:19.645570,-133
2021-12-23 14:59:19.645580,-122
2021-12-23 14:59:19.645590,-102
2021-12-23 14:59:19.645600,-98
2021-12-23 14:59:19.645610,-124
2021-12-23 14:59:19.645619,-119
2021-12-23 14:59:19.645629,-86
2021-12-23 14:59:19.645639,-78
2021-12-23 14:59:19.645649,-86
2021-12-23 14:59:19.645658,-100
2021-12-23 14:59:19.645668,-117
2021-12-23 14:59:19.645678,-98
2021-12-23 14:59:19.645688,-71
2021-12-23 14:59:19.645697,-74
2021-12-23 14:59:19.645708,-69
2021-12-23 14:59:19.645717,-62
2021-12-23 14:59:19.645727,-66
2021-12-23 14:59:19.645737,-57
2021-12-23 14:59:19.645747,-40
2021-12-23 14:59:19.645756,-40
2021-12-23 14:59:19.645766,-31
2021-12-23 14:59:19.645776,-16
2021-12-23 14:59:19.645785,-19
2021-12-23 14:59:19.645795,-16
2021-12-23 14:59:19.645805,-9
2021-12-23 14:59:19.645814,-14
2021-12-23 14:59:19.645824,-7
2021-12-23 14:59:19.645834,11
2021-12-23 14:59:19.915051,33
2021-12-23 14:59:19.915080,47
2021-12-23 14:59:19.915092,26
2021-12-23 14:59:19.915101,-23
2021-12-23 14:59:19.915111,-45
2021-12-23 14:59:19.915121,-52
2021-12-23 14:59:19.915130,-69
2021-12-23 14:59:19.915140,-57
2021-12-23 14:59:19.915149,-38
2021-12-23 14:59:19.915159,-38
2021-12-23 14:59:19.915169,-43
2021-12-23 14:59:19.915178,-55
2021-12-23 14:59:19.915188,-64
2021-12-23 14:59:19.915198,-66
2021-12-23 14:59:19.915213,-93
2021-12-23 14:59:19.915223,-141
2021-12-23 14:59:19.915232,-81
2021-12-23 14:59:19.915242,248
2021-12-23 14:59:19.915252,619
2021-12-23 14:59:19.915262,624
2021-12-23 14:59:19.915272,217
2021-12-23 14:59:19.915281,-267
2021-12-23 14:59:19.915291,-322
2021-12-23 14:59:19.915301,-76
2021-12-23 14:59:19.915310,-43
2021-12-23 14:59:19.915320,-88
2021-12-23 14:59:19.915330,-21
2021-12-23 14:59:19.915340,0
2021-12-23 14:59:19.915350,-21
2021-12-23 14:59:19.915359,-2
2021-12-23 14:59:20.140507,31
2021-12-23 14:59:20.140536,50
2021-12-23 14:59:20.140548,64
2021-12-23 14:59:20.140559,71
2021-12-23 14:59:20.140569,62
2021-12-23 14:59:20.140579,59
2021-12-23 14:59:20.140588,86
2021-12-23 14:59:20.140598,100
2021-12-23 14:59:20.140608,102
2021-12-23 14:59:20.140617,112
2021-12-23 14:59:20.140627,112
2021-12-23 14:59:20.140637,122
2021-12-23 14:59:20.140647,160
2021-12-23 14:59:20.140657,189
2021-12-23 14:59:20.140666,189
2021-12-23 14:59:20.140676,165
2021-12-23 14:59:20.140686,129
2021-12-23 14:59:20.140696,114
2021-12-23 14:59:20.140706,105
2021-12-23 14:59:20.140716,62
2021-12-23 14:59:20.140725,2
2021-12-23 14:59:20.140735,-57
2021-12-23 14:59:20.140745,-110
2021-12-23 14:59:20.140755,-131
2021-12-23 14:59:20.140765,-136
2021-12-23 14:59:20.140775,-133
2021-12-23 14:59:20.140785,-129
2021-12-23 14:59:20.140794,-136
2021-12-23 14:59:20.140804,-141
2021-12-23 14:59:20.140814,-122
2021-12-23 14:59:20.320467,-98
2021-12-23 14:59:20.320497,-86
2021-12-23 14:59:20.320509,-78
2021-12-23 14:59:20.320519,-88
2021-12-23 14:59:20.320529,-98
2021-12-23 14:59:20.320538,-81
2021-12-23 14:59:20.320548,-55
2021-12-23 14:59:20.320558,-59
2021-12-23 14:59:20.320568,-98
2021-12-23 14:59:20.320578,-145
2021-12-23 14:59:20.320587,-145
2021-12-23 14:59:20.320597,-110
2021-12-23 14:59:20.320607,-88
2021-12-23 14:59:20.320617,-76
2021-12-23 14:59:20.320627,-71
2021-12-23 14:59:20.320637,-98
2021-12-23 14:59:20.320647,-126
2021-12-23 14:59:20.320657,-126
2021-12-23 14:59:20.320667,-117
2021-12-23 14:59:20.320676,-100
2021-12-23 14:59:20.320686,-90
2021-12-23 14:59:20.320696,-102
2021-12-23 14:59:20.320706,-100
2021-12-23 14:59:20.320715,-69
2021-12-23 14:59:20.320725,-50
2021-12-23 14:59:20.320735,-43
2021-12-23 14:59:20.320744,-38
2021-12-23 14:59:20.320754,-43
2021-12-23 14:59:20.320764,-35
2021-12-23 14:59:20.320773,-11
2021-12-23 14:59:20.590330,-2
2021-12-23 14:59:20.590353,4
2021-12-23 14:59:20.590360,-4
2021-12-23 14:59:20.590367,-40
2021-12-23 14:59:20.590373,-33
2021-12-23 14:59:20.590379,16
2021-12-23 14:59:20.590386,35
2021-12-23 14:59:20.590392,31
2021-12-23 14:59:20.590398,21
2021-12-23 14:59:20.590405,-11
2021-12-23 14:59:20.590411,-33
2021-12-23 14:59:20.590417,-45
2021-12-23 14:59:20.590424,-47
2021-12-23 14:59:20.590430,-19
2021-12-23 14:59:20.590436,-11
2021-12-23 14:59:20.590443,-40
2021-12-23 14:59:20.590449,-33
2021-12-23 14:59:20.590455,-2
2021-12-23 14:59:20.590461,-11
2021-12-23 14:59:20.590468,-62
2021-12-23 14:59:20.590474,-100
2021-12-23 14:59:20.590480,59
2021-12-23 14:59:20.590487,464
2021-12-23 14:59:20.590493,732
2021-12-23 14:59:20.590500,583
2021-12-23 14:59:20.590506,105
2021-12-23 14:59:20.590512,-287
2021-12-23 14:59:20.590519,-191
2021-12-23 14:59:20.590525,11
2021-12-23 14:59:20.590531,-21
2021-12-23 14:59:20.859118,-28
2021-12-23 14:59:20.859149,35
2021-12-23 14:59:20.859161,7
2021-12-23 14:59:20.859171,-33
2021-12-23 14:59:20.859181,-9
2021-12-23 14:59:20.859191,2
2021-12-23 14:59:20.859200,-4
2021-12-23 14:59:20.859210,9
2021-12-23 14:59:20.859220,4
2021-12-23 14:59:20.859230,-11
2021-12-23 14:59:20.859239,19
2021-12-23 14:59:20.859249,57
2021-12-23 14:59:20.859258,64
2021-12-23 14:59:20.859268,31
2021-12-23 14:59:20.859277,-2
2021-12-23 14:59:20.859287,26
2021-12-23 14:59:20.859297,86
2021-12-23 14:59:20.859306,119
2021-12-23 14:59:20.859316,138
2021-12-23 14:59:20.859325,141
2021-12-23 14:59:20.859335,122
2021-12-23 14:59:20.859345,90
2021-12-23 14:59:20.859354,71
2021-12-23 14:59:20.859364,59
2021-12-23 14:59:20.859373,26
2021-12-23 14:59:20.859383,-35
2021-12-23 14:59:20.859392,-95
2021-12-23 14:59:20.859402,-124
2021-12-23 14:59:20.859411,-133
2021-12-23 14:59:20.859421,-129
2021-12-23 14:59:21.040497,-122
2021-12-23 14:59:21.040528,-129
2021-12-23 14:59:21.040540,-141
2021-12-23 14:59:21.040550,-133
2021-12-23 14:59:21.040560,-112
2021-12-23 14:59:21.040570,-93
2021-12-23 14:59:21.040580,-78
2021-12-23 14:59:21.040589,-88
2021-12-23 14:59:21.040599,-110
2021-12-23 14:59:21.040609,-98
2021-12-23 14:59:21.040619,-71
2021-12-23 14:59:21.040629,-50
2021-12-23 14:59:21.040639,-38
2021-12-23 14:59:21.040648,-47
2021-12-23 14:59:21.040658,-64
2021-12-23 14:59:21.040668,-55
2021-12-23 14:59:21.040678,-31
2021-12-23 14:59:21.040688,-19
2021-12-23 14:59:21.040698,-11
2021-12-23 14:59:21.040708,-9
2021-12-23 14:59:21.040717,-11
2021-12-23 14:59:21.040727,-4
2021-12-23 14:59:21.040738,0
2021-12-23 14:59:21.040748,-9
2021-12-23 14:59:21.040757,-31
2021-12-23 14:59:21.040767,-33
2021-12-23 14:59:21.040777,-23
2021-12-23 14:59:21.040787,-16
2021-12-23 14:59:21.040797,-7
2021-12-23 14:59:21.040807,4
2021-12-23 14:59:21.265553,7
2021-12-23 14:59:21.265584,0
2021-12-23 14:59:21.265595,0
2021-12-23 14:59:21.265605,4
2021-12-23 14:59:21.265615,9
2021-12-23 14:59:21.265624,19
2021-12-23 14:59:21.265634,7
2021-12-23 14:59:21.265644,-16
2021-12-23 14:59:21.265653,2
2021-12-23 14:59:21.265663,35
2021-12-23 14:59:21.265673,40
2021-12-23 14:59:21.265682,33
2021-12-23 14:59:21.265692,14
2021-12-23 14:59:21.265702,-16
2021-12-23 14:59:21.265711,-16
2021-12-23 14:59:21.265721,-9
2021-12-23 14:59:21.265731,-7
2021-12-23 14:59:21.265740,7
2021-12-23 14:59:21.265750,4
2021-12-23 14:59:21.265760,-43
2021-12-23 14:59:21.265769,-81
2021-12-23 14:59:21.265779,-66
2021-12-23 14:59:21.265789,-55
2021-12-23 14:59:21.265798,-86
2021-12-23 14:59:21.265808,-71
2021-12-23 14:59:21.265818,174
2021-12-23 14:59:21.265827,555
2021-12-23 14:59:21.265837,684
2021-12-23 14:59:21.265847,409
2021-12-23 14:59:21.265856,-83
2021-12-23 14:59:21.490471,-327
2021-12-23 14:59:21.490501,-122
2021-12-23 14:59:21.490513,0
2021-12-23 14:59:21.490523,-86
2021-12-23 14:59:21.490532,-57
2021-12-23 14:59:21.490542,0
2021-12-23 14:59:21.490552,-45
2021-12-23 14:59:21.490562,-55
2021-12-23 14:59:21.490572,-7
2021-12-23 14:59:21.490581,0
2021-12-23 14:59:21.490591,-11
2021-12-23 14:59:21.490601,-16
2021-12-23 14:59:21.490610,-35
2021-12-23 14:59:21.490620,-40
2021-12-23 14:59:21.490630,-7
2021-12-23 14:59:21.490639,19
2021-12-23 14:59:21.490650,38
2021-12-23 14:59:21.490660,64
2021-12-23 14:59:21.490669,88
2021-12-23 14:59:21.490679,112
2021-12-23 14:59:21.490689,143
2021-12-23 14:59:21.490698,162
2021-12-23 14:59:21.490708,179
2021-12-23 14:59:21.490718,186
2021-12-23 14:59:21.490727,177
2021-12-23 14:59:21.490737,177
2021-12-23 14:59:21.490747,162
2021-12-23 14:59:21.490757,90
2021-12-23 14:59:21.490766,7
2021-12-23 14:59:21.490776,-45
2021-12-23 14:59:21.715488,-86
2021-12-23 14:59:21.715518,-117
2021-12-23 14:59:21.715530,-136
2021-12-23 14:59:21.715540,-148
2021-12-23 14:59:21.715549,-157
2021-12-23 14:59:21.715559,-181
2021-12-23 14:59:21.715569,-198
2021-12-23 14:59:21.715578,-174
2021-12-23 14:59:21.715588,-153
2021-12-23 14:59:21.715598,-157
2021-12-23 14:59:21.715608,-167
2021-12-23 14:59:21.715618,-181
2021-12-23 14:59:21.715627,-177
2021-12-23 14:59:21.715637,-136
2021-12-23 14:59:21.715647,-124
2021-12-23 14:59:21.715656,-143
2021-12-23 14:59:21.715666,-138
2021-12-23 14:59:21.715676,-112
2021-12-23 14:59:21.715686,-90
2021-12-23 14:59:21.715695,-69
2021-12-23 14:59:21.715705,-62
2021-12-23 14:59:21.715715,-57
2021-12-23 14:59:21.715724,-45
2021-12-23 14:59:21.715734,-47
2021-12-23 14:59:21.715744,-71
2021-12-23 14:59:21.715753,-102
2021-12-23 14:59:21.715763,-100
2021-12-23 14:59:21.715773,-83
2021-12-23 14:59:21.715783,-78
2021-12-23 14:59:21.715792,-88
2021-12-23 14:59:21.940233,-100
2021-12-23 14:59:21.940256,-88
2021-12-23 14:59:21.940264,-66
2021-12-23 14:59:21.940271,-71
2021-12-23 14:59:21.940277,-95
2021-12-23 14:59:21.940284,-102
2021-12-23 14:59:21.940290,-76
2021-12-23 14:59:21.940296,-59
2021-12-23 14:59:21.940303,-64
2021-12-23 14:59:21.940309,-62
2021-12-23 14:59:21.940315,-57
2021-12-23 14:59:21.940322,-47
2021-12-23 14:59:21.940328,-28
2021-12-23 14:59:21.940334,-14
2021-12-23 14:59:21.940341,-21
2021-12-23 14:59:21.940347,-33
2021-12-23 14:59:21.940353,-45
2021-12-23 14:59:21.940360,-45
2021-12-23 14:59:21.940366,-31
2021-12-23 14:59:21.940372,-19
2021-12-23 14:59:21.940379,-11
2021-12-23 14:59:21.940385,-4
2021-12-23 14:59:21.940391,-9
2021-12-23 14:59:21.940397,-2
2021-12-23 14:59:21.940404,16
2021-12-23 14:59:21.940410,-2
2021-12-23 14:59:21.940417,-11
2021-12-23 14:59:21.940423,198
2021-12-23 14:59:21.940430,605
2021-12-23 14:59:21.940436,799
2021-12-23 14:59:22.254888,562
2021-12-23 14:59:22.254918,7
2021-12-23 14:59:22.254930,-356
2021-12-23 14:59:22.254940,-179
2021-12-23 14:59:22.254950,-21
2021-12-23 14:59:22.254959,-112
2021-12-23 14:59:22.254969,-71
2021-12-23 14:59:22.254979,16
2021-12-23 14:59:22.254989,-14
2021-12-23 14:59:22.254998,-50
2021-12-23 14:59:22.255008,-38
2021-12-23 14:59:22.255018,-16
2021-12-23 14:59:22.255027,7
2021-12-23 14:59:22.255037,35
2021-12-23 14:59:22.255047,52
2021-12-23 14:59:22.255056,57
2021-12-23 14:59:22.255066,66
2021-12-23 14:59:22.255076,100
2021-12-23 14:59:22.255085,131
2021-12-23 14:59:22.255095,143
2021-12-23 14:59:22.255105,153
2021-12-23 14:59:22.255114,160
2021-12-23 14:59:22.255124,157
2021-12-23 14:59:22.255134,167
2021-12-23 14:59:22.255143,196
2021-12-23 14:59:22.255153,205
2021-12-23 14:59:22.255163,189
2021-12-23 14:59:22.255173,157
2021-12-23 14:59:22.255182,124
2021-12-23 14:59:22.255192,76
2021-12-23 14:59:22.479877,-19
2021-12-23 14:59:22.479920,-105
2021-12-23 14:59:22.479932,-138
2021-12-23 14:59:22.479942,-184
2021-12-23 14:59:22.479952,-234
2021-12-23 14:59:22.479962,-227
2021-12-23 14:59:22.479972,-205
2021-12-23 14:59:22.479982,-200
2021-12-23 14:59:22.479992,-210
2021-12-23 14:59:22.480001,-232
2021-12-23 14:59:22.480011,-229
2021-12-23 14:59:22.480021,-193
2021-12-23 14:59:22.480031,-172
2021-12-23 14:59:22.480041,-155
2021-12-23 14:59:22.480051,-157
2021-12-23 14:59:22.480060,-181
2021-12-23 14:59:22.480070,-165
2021-12-23 14:59:22.480080,-119
2021-12-23 14:59:22.480090,-102
2021-12-23 14:59:22.480106,-93
2021-12-23 14:59:22.480116,-83
2021-12-23 14:59:22.480126,-90
2021-12-23 14:59:22.480135,-78
2021-12-23 14:59:22.480145,-47
2021-12-23 14:59:22.480155,-35
2021-12-23 14:59:22.480165,-28
2021-12-23 14:59:22.480175,-31
2021-12-23 14:59:22.480184,-40
2021-12-23 14:59:22.480194,-33
2021-12-23 14:59:22.480204,-9
2021-12-23 14:59:22.705479,0
2021-12-23 14:59:22.705509,-4
2021-12-23 14:59:22.705521,-19
2021-12-23 14:59:22.705531,-26
2021-12-23 14:59:22.705541,-2
2021-12-23 14:59:22.705550,19
2021-12-23 14:59:22.705560,4
2021-12-23 14:59:22.705569,-19
2021-12-23 14:59:22.705579,-45
2021-12-23 14:59:22.705588,-74
2021-12-23 14:59:22.705598,-71
2021-12-23 14:59:22.705607,-55
2021-12-23 14:59:22.705617,-45
2021-12-23 14:59:22.705626,-40
2021-12-23 14:59:22.705636,-47
2021-12-23 14:59:22.705645,-55
2021-12-23 14:59:22.705655,-38
2021-12-23 14:59:22.705665,-14
2021-12-23 14:59:22.705674,-7
2021-12-23 14:59:22.705683,-35
2021-12-23 14:59:22.705693,-83
2021-12-23 14:59:22.705702,45
2021-12-23 14:59:22.705712,449
2021-12-23 14:59:22.705721,770
2021-12-23 14:59:22.705731,710
2021-12-23 14:59:22.705740,248
2021-12-23 14:59:22.705750,-256
2021-12-23 14:59:22.705759,-217
2021-12-23 14:59:22.705769,62
2021-12-23 14:59:22.705778,28
2021-12-23 14:59:22.929215,-31
2021-12-23 14:59:22.929246,40
2021-12-23 14:59:22.929258,43
2021-12-23 14:59:22.929268,16
2021-12-23 14:59:22.929278,59
2021-12-23 14:59:22.929288,81
2021-12-23 14:59:22.929298,40
2021-12-23 14:59:22.929307,9
2021-12-23 14:59:22.929317,19
2021-12-23 14:59:22.929327,45
2021-12-23 14:59:22.929337,74
2021-12-23 14:59:22.929346,110
2021-12-23 14:59:22.929356,138
2021-12-23 14:59:22.929366,145
2021-12-23 14:59:22.929376,143
2021-12-23 14:59:22.929385,155
2021-12-23 14:59:22.929395,181
2021-12-23 14:59:22.929404,212
2021-12-23 14:59:22.929414,227
2021-12-23 14:59:22.929424,208
2021-12-23 14:59:22.929433,184
2021-12-23 14:59:22.929443,186
2021-12-23 14:59:22.929452,177
2021-12-23 14:59:22.929462,133
2021-12-23 14:59:22.929472,69
2021-12-23 14:59:22.929481,0
2021-12-23 14:59:22.929491,-59
2021-12-23 14:59:22.929501,-95
2021-12-23 14:59:22.929510,-107
2021-12-23 14:59:22.929520,-110
2021-12-23 14:59:23.199617,-112
2021-12-23 14:59:23.199633,-114
2021-12-23 14:59:23.199639,-112
2021-12-23 14:59:23.199645,-107
2021-12-23 14:59:23.199650,-95
2021-12-23 14:59:23.199655,-78
2021-12-23 14:59:23.199660,-98
2021-12-23 14:59:23.199665,-143
2021-12-23 14:59:23.199670,-148
2021-12-23 14:59:23.199675,-157
2021-12-23 14:59:23.199680,-189
2021-12-23 14:59:23.199685,-179
2021-12-23 14:59:23.199690,-174
2021-12-23 14:59:23.199695,-198
2021-12-23 14:59:23.199701,-189
2021-12-23 14:59:23.199706,-160
2021-12-23 14:59:23.199711,-150
2021-12-23 14:59:23.199716,-136
2021-12-23 14:59:23.199721,-124
2021-12-23 14:59:23.199726,-122
2021-12-23 14:59:23.199731,-112
2021-12-23 14:59:23.199736,-100
2021-12-23 14:59:23.199741,-93
2021-12-23 14:59:23.199746,-78
2021-12-23 14:59:23.199751,-76
2021-12-23 14:59:23.199756,-83
2021-12-23 14:59:23.199761,-78
2021-12-23 14:59:23.199766,-66
2021-12-23 14:59:23.199771,-40
2021-12-23 14:59:23.199776,-14
2021-12-23 14:59:23.335684,-7
2021-12-23 14:59:23.335715,-9
2021-12-23 14:59:23.335727,-16
2021-12-23 14:59:23.335737,-21
2021-12-23 14:59:23.335746,-23
2021-12-23 14:59:23.335756,-21
2021-12-23 14:59:23.335766,-21
2021-12-23 14:59:23.335776,-11
2021-12-23 14:59:23.335785,0
2021-12-23 14:59:23.335795,2
2021-12-23 14:59:23.335805,9
2021-12-23 14:59:23.335815,7
2021-12-23 14:59:23.335825,-45
2021-12-23 14:59:23.335850,-114
2021-12-23 14:59:23.335860,-131
2021-12-23 14:59:23.335870,35
2021-12-23 14:59:23.335879,430
2021-12-23 14:59:23.335889,724
2021-12-23 14:59:23.335899,622
2021-12-23 14:59:23.335908,131
2021-12-23 14:59:23.335918,-332
2021-12-23 14:59:23.335928,-248
2021-12-23 14:59:23.335937,2
2021-12-23 14:59:23.335947,-66
2021-12-23 14:59:23.335957,-138
2021-12-23 14:59:23.335966,-45
2021-12-23 14:59:23.335976,-9
2021-12-23 14:59:23.335986,-33
2021-12-23 14:59:23.335995,-2
2021-12-23 14:59:23.336005,23
2021-12-23 14:59:23.560670,21
2021-12-23 14:59:23.560700,45
2021-12-23 14:59:23.560712,76
2021-12-23 14:59:23.560722,78
2021-12-23 14:59:23.560732,88
2021-12-23 14:59:23.560741,90
2021-12-23 14:59:23.560751,93
2021-12-23 14:59:23.560760,129
2021-12-23 14:59:23.560770,172
2021-12-23 14:59:23.560780,191
2021-12-23 14:59:23.560790,203
2021-12-23 14:59:23.560799,198
2021-12-23 14:59:23.560809,196
2021-12-23 14:59:23.560819,210
2021-12-23 14:59:23.560828,193
2021-12-23 14:59:23.560838,165
2021-12-23 14:59:23.560847,150
2021-12-23 14:59:23.560857,105
2021-12-23 14:59:23.560867,38
2021-12-23 14:59:23.560876,-7
2021-12-23 14:59:23.560886,-47
2021-12-23 14:59:23.560895,-90
2021-12-23 14:59:23.560905,-117
2021-12-23 14:59:23.560915,-143
2021-12-23 14:59:23.560924,-165
2021-12-23 14:59:23.560934,-153
2021-12-23 14:59:23.560943,-136
2021-12-23 14:59:23.560953,-138
2021-12-23 14:59:23.560963,-145
2021-12-23 14:59:23.560972,-141
2021-12-23 14:59:23.788039,-117
2021-12-23 14:59:23.788060,-100
2021-12-23 14:59:23.788068,-102
2021-12-23 14:59:23.788074,-100
2021-12-23 14:59:23.788080,-100
2021-12-23 14:59:23.788087,-112
2021-12-23 14:59:23.788093,-100
2021-12-23 14:59:23.788099,-66
2021-12-23 14:59:23.788105,-81
2021-12-23 14:59:23.788111,-124
2021-12-23 14:59:23.788118,-131
2021-12-23 14:59:23.788124,-105
2021-12-23 14:59:23.788130,-69
2021-12-23 14:59:23.788137,-47
2021-12-23 14:59:23.788143,-71
2021-12-23 14:59:23.788149,-110
2021-12-23 14:59:23.788156,-136
2021-12-23 14:59:23.788162,-167
2021-12-23 14:59:23.788168,-212
2021-12-23 14:59:23.788174,-220
2021-12-23 14:59:23.788181,-184
2021-12-23 14:59:23.788187,-184
2021-12-23 14:59:23.788193,-203
2021-12-23 14:59:23.788200,-184
2021-12-23 14:59:23.788206,-138
2021-12-23 14:59:23.788212,-105
2021-12-23 14:59:23.788218,-100
2021-12-23 14:59:23.788225,-112
2021-12-23 14:59:23.788231,-119
2021-12-23 14:59:23.788237,-114
2021-12-23 14:59:24.010469,-110
2021-12-23 14:59:24.010500,-110
2021-12-23 14:59:24.010512,-110
2021-12-23 14:59:24.010522,-129
2021-12-23 14:59:24.010532,-155
2021-12-23 14:59:24.010541,-143
2021-12-23 14:59:24.010551,-112
2021-12-23 14:59:24.010561,-95
2021-12-23 14:59:24.010570,-90
2021-12-23 14:59:24.010580,-124
2021-12-23 14:59:24.010590,-186
2021-12-23 14:59:24.010599,-86
2021-12-23 14:59:24.010609,301
2021-12-23 14:59:24.010619,655
2021-12-23 14:59:24.010629,626
2021-12-23 14:59:24.010638,186
2021-12-23 14:59:24.010648,-308
2021-12-23 14:59:24.010658,-303
2021-12-23 14:59:24.010668,-52
2021-12-23 14:59:24.010678,-76
2021-12-23 14:59:24.010687,-119
2021-12-23 14:59:24.010697,-45
2021-12-23 14:59:24.010707,-31
2021-12-23 14:59:24.010717,-28
2021-12-23 14:59:24.010726,14
2021-12-23 14:59:24.010736,45
2021-12-23 14:59:24.010746,59
2021-12-23 14:59:24.010756,62
2021-12-23 14:59:24.010766,71
2021-12-23 14:59:24.010776,107
2021-12-23 14:59:24.280481,141
2021-12-23 14:59:24.280510,160
2021-12-23 14:59:24.280522,167
2021-12-23 14:59:24.280531,155
2021-12-23 14:59:24.280541,169
2021-12-23 14:59:24.280551,220
2021-12-23 14:59:24.280561,253
2021-12-23 14:59:24.280571,267
2021-12-23 14:59:24.280581,277
2021-12-23 14:59:24.280590,256
2021-12-23 14:59:24.280600,248
2021-12-23 14:59:24.280610,265
2021-12-23 14:59:24.280619,256
2021-12-23 14:59:24.280629,215
2021-12-23 14:59:24.280639,153
2021-12-23 14:59:24.280649,71
2021-12-23 14:59:24.280658,14
2021-12-23 14:59:24.280668,-9
2021-12-23 14:59:24.280678,-28
2021-12-23 14:59:24.280688,-55
2021-12-23 14:59:24.280697,-98
2021-12-23 14:59:24.280707,-133
2021-12-23 14:59:24.280717,-117
2021-12-23 14:59:24.280726,-105
2021-12-23 14:59:24.280736,-162
2021-12-23 14:59:24.280745,-196
2021-12-23 14:59:24.280755,-165
2021-12-23 14:59:24.280765,-155
2021-12-23 14:59:24.280774,-155
2021-12-23 14:59:24.280784,-124
2021-12-23 14:59:24.550097,-105
2021-12-23 14:59:24.550118,-102
2021-12-23 14:59:24.550126,-100
2021-12-23 14:59:24.550132,-102
2021-12-23 14:59:24.550138,-86
2021-12-23 14:59:24.550145,-66
2021-12-23 14:59:24.550155,-64
2021-12-23 14:59:24.550166,-64
2021-12-23 14:59:24.550176,-81
2021-12-23 14:59:24.550187,-110
2021-12-23 14:59:24.550198,-95
2021-12-23 14:59:24.550209,-62
2021-12-23 14:59:24.550217,-55
2021-12-23 14:59:24.550223,-59
2021-12-23 14:59:24.550229,-86
2021-12-23 14:59:24.550236,-124
2021-12-23 14:59:24.550242,-126
2021-12-23 14:59:24.550248,-114
2021-12-23 14:59:24.550255,-124
2021-12-23 14:59:24.550261,-119
2021-12-23 14:59:24.550267,-95
2021-12-23 14:59:24.550274,-98
2021-12-23 14:59:24.550280,-131
2021-12-23 14:59:24.550286,-143
2021-12-23 14:59:24.550292,-124
2021-12-23 14:59:24.550299,-129
2021-12-23 14:59:24.550305,-155
2021-12-23 14:59:24.550312,-153
2021-12-23 14:59:24.550318,-124
2021-12-23 14:59:24.550325,-100
2021-12-23 14:59:24.775528,-93
2021-12-23 14:59:24.775556,-90
2021-12-23 14:59:24.775568,-88
2021-12-23 14:59:24.775578,-88
2021-12-23 14:59:24.775588,-86
2021-12-23 14:59:24.775597,-105
2021-12-23 14:59:24.775607,-45
2021-12-23 14:59:24.775617,263
2021-12-23 14:59:24.775626,610
2021-12-23 14:59:24.775636,602
2021-12-23 14:59:24.775646,193
2021-12-23 14:59:24.775655,-279
2021-12-23 14:59:24.775665,-315
2021-12-23 14:59:24.775675,-71
2021-12-23 14:59:24.775685,-78
2021-12-23 14:59:24.775694,-141
2021-12-23 14:59:24.775704,-50
2021-12-23 14:59:24.775713,-14
2021-12-23 14:59:24.775723,-35
2021-12-23 14:59:24.775732,-23
2021-12-23 14:59:24.775742,-11
2021-12-23 14:59:24.775752,-4
2021-12-23 14:59:24.775761,21
2021-12-23 14:59:24.775771,40
2021-12-23 14:59:24.775781,28
2021-12-23 14:59:24.775790,26
2021-12-23 14:59:24.775800,57
2021-12-23 14:59:24.775809,90
2021-12-23 14:59:24.775819,110
2021-12-23 14:59:24.775829,114
2021-12-23 14:59:24.998489,112
2021-12-23 14:59:24.998510,131
2021-12-23 14:59:24.998518,165
2021-12-23 14:59:24.998525,177
2021-12-23 14:59:24.998575,184
2021-12-23 14:59:24.998596,200
2021-12-23 14:59:24.998608,189
2021-12-23 14:59:24.998619,138
2021-12-23 14:59:24.998629,95
2021-12-23 14:59:24.998663,52
2021-12-23 14:59:24.998677,-7
2021-12-23 14:59:24.998684,-55
2021-12-23 14:59:24.998690,-86
2021-12-23 14:59:24.998697,-117
2021-12-23 14:59:24.998704,-131
2021-12-23 14:59:24.998710,-133
2021-12-23 14:59:24.998716,-131
2021-12-23 14:59:24.998723,-117
2021-12-23 14:59:24.998729,-126
2021-12-23 14:59:24.998736,-145
2021-12-23 14:59:24.998742,-133
2021-12-23 14:59:24.998748,-110
2021-12-23 14:59:24.998778,-98
2021-12-23 14:59:24.998818,-78
2021-12-23 14:59:24.998827,-71
2021-12-23 14:59:24.998833,-76
2021-12-23 14:59:24.998840,-88
2021-12-23 14:59:24.998846,-93
2021-12-23 14:59:24.998852,-83
2021-12-23 14:59:24.998858,-86
2021-12-23 14:59:25.225964,-95
2021-12-23 14:59:25.225993,-83
2021-12-23 14:59:25.226005,-66
2021-12-23 14:59:25.226015,-69
2021-12-23 14:59:25.226025,-62
2021-12-23 14:59:25.226034,-57
2021-12-23 14:59:25.226044,-81
2021-12-23 14:59:25.226054,-93
2021-12-23 14:59:25.226064,-71
2021-12-23 14:59:25.226073,-64
2021-12-23 14:59:25.226083,-66
2021-12-23 14:59:25.226093,-64
2021-12-23 14:59:25.226103,-81
2021-12-23 14:59:25.226113,-88
2021-12-23 14:59:25.226122,-74
2021-12-23 14:59:25.226132,-66
2021-12-23 14:59:25.226142,-50
2021-12-23 14:59:25.226152,-14
2021-12-23 14:59:25.226161,-4
2021-12-23 14:59:25.226171,-19
2021-12-23 14:59:25.226181,-40
2021-12-23 14:59:25.226191,-66
2021-12-23 14:59:25.226201,-76
2021-12-23 14:59:25.226210,-93
2021-12-23 14:59:25.226220,-110
2021-12-23 14:59:25.226230,-90
2021-12-23 14:59:25.226239,-78
2021-12-23 14:59:25.226249,-98
2021-12-23 14:59:25.226259,-117
2021-12-23 14:59:25.226269,-124
2021-12-23 14:59:25.449896,-117
2021-12-23 14:59:25.449926,-119
2021-12-23 14:59:25.449938,-150
2021-12-23 14:59:25.449948,-55
2021-12-23 14:59:25.449957,315
2021-12-23 14:59:25.449988,641
2021-12-23 14:59:25.449999,571
2021-12-23 14:59:25.450009,141
2021-12-23 14:59:25.450018,-342
2021-12-23 14:59:25.450028,-351
2021-12-23 14:59:25.450038,-76
2021-12-23 14:59:25.450048,-100
2021-12-23 14:59:25.450057,-191
2021-12-23 14:59:25.450067,-95
2021-12-23 14:59:25.450077,-47
2021-12-23 14:59:25.450086,-74
2021-12-23 14:59:25.450096,-55
2021-12-23 14:59:25.450106,-40
2021-12-23 14:59:25.450116,-47
2021-12-23 14:59:25.450125,-11
2021-12-23 14:59:25.450135,23
2021-12-23 14:59:25.450145,31
2021-12-23 14:59:25.450154,47
2021-12-23 14:59:25.450164,78
2021-12-23 14:59:25.450174,107
2021-12-23 14:59:25.450183,143
2021-12-23 14:59:25.450193,167
2021-12-23 14:59:25.450202,186
2021-12-23 14:59:25.450212,208
2021-12-23 14:59:25.450222,217
2021-12-23 14:59:25.630506,210
2021-12-23 14:59:25.630536,205
2021-12-23 14:59:25.630547,222
2021-12-23 14:59:25.630557,222
2021-12-23 14:59:25.630567,186
2021-12-23 14:59:25.630576,133
2021-12-23 14:59:25.630586,88
2021-12-23 14:59:25.630595,45
2021-12-23 14:59:25.630605,-2
2021-12-23 14:59:25.630615,-50
2021-12-23 14:59:25.630625,-98
2021-12-23 14:59:25.630635,-133
2021-12-23 14:59:25.630645,-124
2021-12-23 14:59:25.630654,-98
2021-12-23 14:59:25.630664,-95
2021-12-23 14:59:25.630674,-100
2021-12-23 14:59:25.630684,-105
2021-12-23 14:59:25.630693,-105
2021-12-23 14:59:25.630703,-81
2021-12-23 14:59:25.630713,-52
2021-12-23 14:59:25.630723,-45
2021-12-23 14:59:25.630732,-50
2021-12-23 14:59:25.630742,-47
2021-12-23 14:59:25.630752,-33
2021-12-23 14:59:25.630762,-16
2021-12-23 14:59:25.630772,0
2021-12-23 14:59:25.630782,7
2021-12-23 14:59:25.630791,7
2021-12-23 14:59:25.630801,2
2021-12-23 14:59:25.630811,9
2021-12-23 14:59:25.899759,26
2021-12-23 14:59:25.899779,28
2021-12-23 14:59:25.899786,-7
2021-12-23 14:59:25.899793,-69
2021-12-23 14:59:25.899800,-98
2021-12-23 14:59:25.899806,-78
2021-12-23 14:59:25.899812,-57
2021-12-23 14:59:25.899819,-47
2021-12-23 14:59:25.899825,-47
2021-12-23 14:59:25.899831,-64
2021-12-23 14:59:25.899837,-105
2021-12-23 14:59:25.899843,-138
2021-12-23 14:59:25.899850,-138
2021-12-23 14:59:25.899856,-117
2021-12-23 14:59:25.899862,-107
2021-12-23 14:59:25.899869,-112
2021-12-23 14:59:25.899875,-88
2021-12-23 14:59:25.899881,-47
2021-12-23 14:59:25.899887,-35
2021-12-23 14:59:25.899894,-43
2021-12-23 14:59:25.899900,-45
2021-12-23 14:59:25.899906,-59
2021-12-23 14:59:25.899913,-74
2021-12-23 14:59:25.899919,-74
2021-12-23 14:59:25.899925,-78
2021-12-23 14:59:25.899931,-81
2021-12-23 14:59:25.899938,-88
2021-12-23 14:59:25.899944,-114
2021-12-23 14:59:25.899950,-117
2021-12-23 14:59:25.899956,-93
2021-12-23 14:59:26.170520,-86
2021-12-23 14:59:26.170551,-110
2021-12-23 14:59:26.170562,-129
2021-12-23 14:59:26.170573,35
2021-12-23 14:59:26.170583,430
2021-12-23 14:59:26.170593,672
2021-12-23 14:59:26.170602,483
2021-12-23 14:59:26.170612,-26
2021-12-23 14:59:26.170622,-394
2021-12-23 14:59:26.170632,-267
2021-12-23 14:59:26.170642,-83
2021-12-23 14:59:26.170651,-131
2021-12-23 14:59:26.170661,-114
2021-12-23 14:59:26.170671,-47
2021-12-23 14:59:26.170681,-74
2021-12-23 14:59:26.170691,-105
2021-12-23 14:59:26.170701,-71
2021-12-23 14:59:26.170710,-35
2021-12-23 14:59:26.170720,-21
2021-12-23 14:59:26.170730,0
2021-12-23 14:59:26.170740,19
2021-12-23 14:59:26.170749,19
2021-12-23 14:59:26.170759,45
2021-12-23 14:59:26.170768,90
2021-12-23 14:59:26.170778,117
2021-12-23 14:59:26.170788,141
2021-12-23 14:59:26.170798,165
2021-12-23 14:59:26.170807,174
2021-12-23 14:59:26.170817,203
2021-12-23 14:59:26.170827,241
2021-12-23 14:59:26.440358,260
2021-12-23 14:59:26.440379,270
2021-12-23 14:59:26.440387,265
2021-12-23 14:59:26.440395,232
2021-12-23 14:59:26.440401,203
2021-12-23 14:59:26.440407,169
2021-12-23 14:59:26.440415,95
2021-12-23 14:59:26.440422,9
2021-12-23 14:59:26.440428,-40
2021-12-23 14:59:26.440434,-71
2021-12-23 14:59:26.440441,-95
2021-12-23 14:59:26.440447,-95
2021-12-23 14:59:26.440453,-83
2021-12-23 14:59:26.440461,-83
2021-12-23 14:59:26.440467,-119
2021-12-23 14:59:26.440474,-148
2021-12-23 14:59:26.440480,-141
2021-12-23 14:59:26.440488,-157
2021-12-23 14:59:26.440495,-167
2021-12-23 14:59:26.440501,-141
2021-12-23 14:59:26.440507,-153
2021-12-23 14:59:26.440514,-169
2021-12-23 14:59:26.440520,-131
2021-12-23 14:59:26.440526,-88
2021-12-23 14:59:26.440535,-78
2021-12-23 14:59:26.440541,-78
2021-12-23 14:59:26.440547,-74
2021-12-23 14:59:26.440555,-71
2021-12-23 14:59:26.440562,-52
2021-12-23 14:59:26.440568,-33
2021-12-23 14:59:26.575994,-28
2021-12-23 14:59:26.576024,-26
2021-12-23 14:59:26.576035,-28
2021-12-23 14:59:26.576045,-33
2021-12-23 14:59:26.576055,-40
2021-12-23 14:59:26.576065,-52
2021-12-23 14:59:26.576075,-50
2021-12-23 14:59:26.576085,-38
2021-12-23 14:59:26.576094,-55
2021-12-23 14:59:26.576104,-83
2021-12-23 14:59:26.576114,-64
2021-12-23 14:59:26.576124,-21
2021-12-23 14:59:26.576133,-7
2021-12-23 14:59:26.576143,-26
2021-12-23 14:59:26.576153,-57
2021-12-23 14:59:26.576163,-66
2021-12-23 14:59:26.576172,-52
2021-12-23 14:59:26.576182,-52
2021-12-23 14:59:26.576192,-59
2021-12-23 14:59:26.576202,-55
2021-12-23 14:59:26.576211,-47
2021-12-23 14:59:26.576221,-43
2021-12-23 14:59:26.576231,-31
2021-12-23 14:59:26.576241,-14
2021-12-23 14:59:26.576250,-14
2021-12-23 14:59:26.576260,-52
2021-12-23 14:59:26.576270,-107
2021-12-23 14:59:26.576280,-138
2021-12-23 14:59:26.576289,-43
2021-12-23 14:59:26.576299,294
2021-12-23 14:59:26.845507,631
2021-12-23 14:59:26.845538,579
2021-12-23 14:59:26.845549,107
2021-12-23 14:59:26.845560,-366
2021-12-23 14:59:26.845570,-330
2021-12-23 14:59:26.845580,-57
2021-12-23 14:59:26.845589,-86
2021-12-23 14:59:26.845599,-172
2021-12-23 14:59:26.845608,-100
2021-12-23 14:59:26.845618,-69
2021-12-23 14:59:26.845628,-107
2021-12-23 14:59:26.845637,-105
2021-12-23 14:59:26.845647,-86
2021-12-23 14:59:26.845657,-90
2021-12-23 14:59:26.845666,-86
2021-12-23 14:59:26.845676,-57
2021-12-23 14:59:26.845685,-28
2021-12-23 14:59:26.845695,2
2021-12-23 14:59:26.845705,23
2021-12-23 14:59:26.845714,43
2021-12-23 14:59:26.845724,76
2021-12-23 14:59:26.845734,107
2021-12-23 14:59:26.845743,105
2021-12-23 14:59:26.845753,93
2021-12-23 14:59:26.845763,122
2021-12-23 14:59:26.845772,150
2021-12-23 14:59:26.845782,148
2021-12-23 14:59:26.845792,150
2021-12-23 14:59:26.845802,155
2021-12-23 14:59:26.845811,136
2021-12-23 14:59:27.069245,90
2021-12-23 14:59:27.069276,38
2021-12-23 14:59:27.069287,-19
2021-12-23 14:59:27.069297,-74
2021-12-23 14:59:27.069307,-105
2021-12-23 14:59:27.069317,-129
2021-12-23 14:59:27.069327,-167
2021-12-23 14:59:27.069337,-177
2021-12-23 14:59:27.069346,-155
2021-12-23 14:59:27.069356,-150
2021-12-23 14:59:27.069365,-150
2021-12-23 14:59:27.069375,-131
2021-12-23 14:59:27.069385,-124
2021-12-23 14:59:27.069395,-131
2021-12-23 14:59:27.069404,-114
2021-12-23 14:59:27.069414,-95
2021-12-23 14:59:27.069424,-86
2021-12-23 14:59:27.069433,-86
2021-12-23 14:59:27.069443,-102
2021-12-23 14:59:27.069453,-100
2021-12-23 14:59:27.069463,-74
2021-12-23 14:59:27.069472,-59
2021-12-23 14:59:27.069482,-50
2021-12-23 14:59:27.069492,-43
2021-12-23 14:59:27.069501,-43
2021-12-23 14:59:27.069511,-26
2021-12-23 14:59:27.069521,-9
2021-12-23 14:59:27.069530,-16
2021-12-23 14:59:27.069540,-19
2021-12-23 14:59:27.069550,-33
2021-12-23 14:59:27.250519,-55
2021-12-23 14:59:27.250549,-38
2021-12-23 14:59:27.250561,-26
2021-12-23 14:59:27.250571,-35
2021-12-23 14:59:27.250581,-31
2021-12-23 14:59:27.250590,-38
2021-12-23 14:59:27.250600,-64
2021-12-23 14:59:27.250610,-52
2021-12-23 14:59:27.250620,-26
2021-12-23 14:59:27.250629,-31
2021-12-23 14:59:27.250639,-43
2021-12-23 14:59:27.250649,-62
2021-12-23 14:59:27.250659,-69
2021-12-23 14:59:27.250668,-31
2021-12-23 14:59:27.250678,-19
2021-12-23 14:59:27.250704,-57
2021-12-23 14:59:27.250714,-64
2021-12-23 14:59:27.250724,-50
2021-12-23 14:59:27.250733,-52
2021-12-23 14:59:27.250743,-52
2021-12-23 14:59:27.250753,-64
2021-12-23 14:59:27.250763,-86
2021-12-23 14:59:27.250772,-93
2021-12-23 14:59:27.250782,-105
2021-12-23 14:59:27.250792,-112
2021-12-23 14:59:27.250802,-95
2021-12-23 14:59:27.250811,-83
2021-12-23 14:59:27.250821,-105
2021-12-23 14:59:27.250831,-179
2021-12-23 14:59:27.250841,-241
2021-12-23 14:59:27.475510,-69
2021-12-23 14:59:27.475540,354
2021-12-23 14:59:27.475552,655
2021-12-23 14:59:27.475563,571
2021-12-23 14:59:27.475573,71
2021-12-23 14:59:27.475583,-433
2021-12-23 14:59:27.475593,-339
2021-12-23 14:59:27.475602,-50
2021-12-23 14:59:27.475612,-102
2021-12-23 14:59:27.475622,-167
2021-12-23 14:59:27.475632,-95
2021-12-23 14:59:27.475642,-93
2021-12-23 14:59:27.475651,-98
2021-12-23 14:59:27.475661,-47
2021-12-23 14:59:27.475671,-33
2021-12-23 14:59:27.475681,-40
2021-12-23 14:59:27.475690,-21
2021-12-23 14:59:27.475700,-14
2021-12-23 14:59:27.475710,-7
2021-12-23 14:59:27.475720,35
2021-12-23 14:59:27.475730,83
2021-12-23 14:59:27.475740,107
2021-12-23 14:59:27.475750,119
2021-12-23 14:59:27.475760,145
2021-12-23 14:59:27.475769,196
2021-12-23 14:59:27.475779,227
2021-12-23 14:59:27.475789,217
2021-12-23 14:59:27.475798,212
2021-12-23 14:59:27.475808,232
2021-12-23 14:59:27.475818,239
2021-12-23 14:59:27.835548,234
2021-12-23 14:59:27.835576,220
2021-12-23 14:59:27.835588,179
2021-12-23 14:59:27.835598,110
2021-12-23 14:59:27.835608,19
2021-12-23 14:59:27.835618,-45
2021-12-23 14:59:27.835628,-55
2021-12-23 14:59:27.835638,-62
2021-12-23 14:59:27.835648,-74
2021-12-23 14:59:27.835658,-88
2021-12-23 14:59:27.835667,-119
2021-12-23 14:59:27.835677,-124
2021-12-23 14:59:27.835687,-95
2021-12-23 14:59:27.835696,-83
2021-12-23 14:59:27.835706,-88
2021-12-23 14:59:27.835716,-98
2021-12-23 14:59:27.835725,-100
2021-12-23 14:59:27.835735,-66
2021-12-23 14:59:27.835745,-43
2021-12-23 14:59:27.835754,-64
2021-12-23 14:59:27.835764,-71
2021-12-23 14:59:27.835774,-62
2021-12-23 14:59:27.835783,-81
2021-12-23 14:59:27.835793,-95
2021-12-23 14:59:27.835803,-76
2021-12-23 14:59:27.835813,-62
2021-12-23 14:59:27.835823,-66
2021-12-23 14:59:27.835832,-74
2021-12-23 14:59:27.835842,-69
2021-12-23 14:59:27.835852,-47
2021-12-23 14:59:28.014940,-35
2021-12-23 14:59:28.014964,-35
2021-12-23 14:59:28.014973,-38
2021-12-23 14:59:28.014981,-55
2021-12-23 14:59:28.014989,-90
2021-12-23 14:59:28.014997,-90
2021-12-23 14:59:28.015005,-57
2021-12-23 14:59:28.015013,-52
2021-12-23 14:59:28.015022,-69
2021-12-23 14:59:28.015029,-90
2021-12-23 14:59:28.015038,-98
2021-12-23 14:59:28.015046,-69
2021-12-23 14:59:28.015055,-47
2021-12-23 14:59:28.015065,-50
2021-12-23 14:59:28.015075,-64
2021-12-23 14:59:28.015085,-76
2021-12-23 14:59:28.015094,-64
2021-12-23 14:59:28.015104,-47
2021-12-23 14:59:28.015115,-50
2021-12-23 14:59:28.015125,-52
2021-12-23 14:59:28.015134,-71
2021-12-23 14:59:28.015142,-98
2021-12-23 14:59:28.015150,-95
2021-12-23 14:59:28.015160,-71
2021-12-23 14:59:28.015170,-62
2021-12-23 14:59:28.015179,-55
2021-12-23 14:59:28.015188,-64
2021-12-23 14:59:28.015196,-90
2021-12-23 14:59:28.015204,-76
2021-12-23 14:59:28.015213,-40
2021-12-23 14:59:28.195481,-33
2021-12-23 14:59:28.195502,-64
2021-12-23 14:59:28.195509,-90
2021-12-23 14:59:28.195516,55
2021-12-23 14:59:28.195522,452
2021-12-23 14:59:28.195529,720
2021-12-23 14:59:28.195535,545
2021-12-23 14:59:28.195541,55
2021-12-23 14:59:28.195548,-282
2021-12-23 14:59:28.195554,-169
2021-12-23 14:59:28.195560,0
2021-12-23 14:59:28.195566,-33
2021-12-23 14:59:28.195573,-28
2021-12-23 14:59:28.195579,28
2021-12-23 14:59:28.195585,-9
2021-12-23 14:59:28.195592,-47
2021-12-23 14:59:28.195598,-4
2021-12-23 14:59:28.195604,35
2021-12-23 14:59:28.195610,45
2021-12-23 14:59:28.195617,55
2021-12-23 14:59:28.195623,47
2021-12-23 14:59:28.195629,38
2021-12-23 14:59:28.195636,57
2021-12-23 14:59:28.195642,76
2021-12-23 14:59:28.195648,88
2021-12-23 14:59:28.195654,117
2021-12-23 14:59:28.195661,141
2021-12-23 14:59:28.195667,153
2021-12-23 14:59:28.195673,189
2021-12-23 14:59:28.195679,227
2021-12-23 14:59:28.420469,246
2021-12-23 14:59:28.420500,256
2021-12-23 14:59:28.420512,244
2021-12-23 14:59:28.420522,217
2021-12-23 14:59:28.420532,198
2021-12-23 14:59:28.420542,160
2021-12-23 14:59:28.420551,100
2021-12-23 14:59:28.420561,28
2021-12-23 14:59:28.420571,-64
2021-12-23 14:59:28.420580,-160
2021-12-23 14:59:28.420590,-208
2021-12-23 14:59:28.420600,-189
2021-12-23 14:59:28.420610,-165
2021-12-23 14:59:28.420619,-184
2021-12-23 14:59:28.420629,-220
2021-12-23 14:59:28.420638,-222
2021-12-23 14:59:28.420648,-189
2021-12-23 14:59:28.420658,-157
2021-12-23 14:59:28.420667,-160
2021-12-23 14:59:28.420677,-177
2021-12-23 14:59:28.420687,-179
2021-12-23 14:59:28.420696,-172
2021-12-23 14:59:28.420706,-162
2021-12-23 14:59:28.420716,-148
2021-12-23 14:59:28.420725,-150
2021-12-23 14:59:28.420735,-162
2021-12-23 14:59:28.420744,-155
2021-12-23 14:59:28.420754,-131
2021-12-23 14:59:28.420764,-112
2021-12-23 14:59:28.420773,-95
2021-12-23 14:59:28.645505,-86
2021-12-23 14:59:28.645535,-88
2021-12-23 14:59:28.645547,-86
2021-12-23 14:59:28.645557,-71
2021-12-23 14:59:28.645567,-57
2021-12-23 14:59:28.645576,-47
2021-12-23 14:59:28.645586,-50
2021-12-23 14:59:28.645596,-74
2021-12-23 14:59:28.645685,-81
2021-12-23 14:59:28.645696,-64
2021-12-23 14:59:28.645706,-78
2021-12-23 14:59:28.645716,-102
2021-12-23 14:59:28.645725,-107
2021-12-23 14:59:28.645734,-124
2021-12-23 14:59:28.645744,-129
2021-12-23 14:59:28.645753,-110
2021-12-23 14:59:28.645763,-102
2021-12-23 14:59:28.645772,-98
2021-12-23 14:59:28.645782,-100
2021-12-23 14:59:28.645791,-114
2021-12-23 14:59:28.645801,-117
2021-12-23 14:59:28.645810,-105
2021-12-23 14:59:28.645820,-93
2021-12-23 14:59:28.645829,-78
2021-12-23 14:59:28.645839,-66
2021-12-23 14:59:28.645849,-71
2021-12-23 14:59:28.645858,-81
2021-12-23 14:59:28.645868,-90
2021-12-23 14:59:28.645877,-98
2021-12-23 14:59:28.645887,-122
2021-12-23 14:59:28.915492,-98
2021-12-23 14:59:28.915522,198
2021-12-23 14:59:28.915534,605
2021-12-23 14:59:28.915544,653
2021-12-23 14:59:28.915554,260
2021-12-23 14:59:28.915564,-236
2021-12-23 14:59:28.915574,-354
2021-12-23 14:59:28.915584,-117
2021-12-23 14:59:28.915593,-47
2021-12-23 14:59:28.915603,-107
2021-12-23 14:59:28.915613,-45
2021-12-23 14:59:28.915622,-11
2021-12-23 14:59:28.915632,-57
2021-12-23 14:59:28.915642,-52
2021-12-23 14:59:28.915652,-26
2021-12-23 14:59:28.915661,-59
2021-12-23 14:59:28.915671,-69
2021-12-23 14:59:28.915681,-19
2021-12-23 14:59:28.915690,-4
2021-12-23 14:59:28.915700,4
2021-12-23 14:59:28.915710,52
2021-12-23 14:59:28.915720,90
2021-12-23 14:59:28.915729,114
2021-12-23 14:59:28.915739,150
2021-12-23 14:59:28.915749,174
2021-12-23 14:59:28.915758,198
2021-12-23 14:59:28.915768,227
2021-12-23 14:59:28.915778,241
2021-12-23 14:59:28.915787,239
2021-12-23 14:59:28.915797,222
2021-12-23 14:59:29.139342,200
2021-12-23 14:59:29.139372,193
2021-12-23 14:59:29.139384,162
2021-12-23 14:59:29.139394,93
2021-12-23 14:59:29.139404,33
2021-12-23 14:59:29.139414,-31
2021-12-23 14:59:29.139424,-95
2021-12-23 14:59:29.139434,-110
2021-12-23 14:59:29.139444,-110
2021-12-23 14:59:29.139454,-129
2021-12-23 14:59:29.139463,-126
2021-12-23 14:59:29.139473,-105
2021-12-23 14:59:29.139483,-98
2021-12-23 14:59:29.139493,-98
2021-12-23 14:59:29.139503,-105
2021-12-23 14:59:29.139513,-112
2021-12-23 14:59:29.139522,-110
2021-12-23 14:59:29.139532,-124
2021-12-23 14:59:29.139542,-131
2021-12-23 14:59:29.139552,-100
2021-12-23 14:59:29.139562,-76
2021-12-23 14:59:29.139572,-78
2021-12-23 14:59:29.139581,-76
2021-12-23 14:59:29.139591,-69
2021-12-23 14:59:29.139601,-55
2021-12-23 14:59:29.139610,-33
2021-12-23 14:59:29.139620,-33
2021-12-23 14:59:29.139630,-40
2021-12-23 14:59:29.139640,-31
2021-12-23 14:59:29.139650,-23
2021-12-23 14:59:29.320513,-35
2021-12-23 14:59:29.320543,-55
2021-12-23 14:59:29.320555,-55
2021-12-23 14:59:29.320565,-40
2021-12-23 14:59:29.320575,-64
2021-12-23 14:59:29.320584,-114
2021-12-23 14:59:29.320594,-124
2021-12-23 14:59:29.320604,-102
2021-12-23 14:59:29.320613,-117
2021-12-23 14:59:29.320623,-141
2021-12-23 14:59:29.320633,-153
2021-12-23 14:59:29.320642,-172
2021-12-23 14:59:29.320652,-160
2021-12-23 14:59:29.320661,-110
2021-12-23 14:59:29.320671,-86
2021-12-23 14:59:29.320680,-93
2021-12-23 14:59:29.320690,-93
2021-12-23 14:59:29.320700,-88
2021-12-23 14:59:29.320709,-86
2021-12-23 14:59:29.320719,-95
2021-12-23 14:59:29.320728,-141
2021-12-23 14:59:29.320738,-174
2021-12-23 14:59:29.320748,-157
2021-12-23 14:59:29.320757,-138
2021-12-23 14:59:29.320767,-129
