Time,ECG
2021-12-23 14:53:58.367105,9
2021-12-23 14:53:58.367127,7
2021-12-23 14:53:58.367136,11
2021-12-23 14:53:58.367144,7
2021-12-23 14:53:58.367152,-33
2021-12-23 14:53:58.367159,-50
2021-12-23 14:53:58.367187,131
2021-12-23 14:53:58.367200,519
2021-12-23 14:53:58.367205,789
2021-12-23 14:53:58.367210,686
2021-12-23 14:53:58.367215,181
2021-12-23 14:53:58.367219,-236
2021-12-23 14:53:58.367224,-83
2021-12-23 14:53:58.367228,78
2021-12-23 14:53:58.367233,-105
2021-12-23 14:53:58.367237,-160
2021-12-23 14:53:58.367241,-52
2021-12-23 14:53:58.367246,-57
2021-12-23 14:53:58.367251,-105
2021-12-23 14:53:58.367255,-64
2021-12-23 14:53:58.367260,-21
2021-12-23 14:53:58.367264,-28
2021-12-23 14:53:58.367268,-35
2021-12-23 14:53:58.367273,-38
2021-12-23 14:53:58.367277,-50
2021-12-23 14:53:58.367282,-38
2021-12-23 14:53:58.367286,-4
2021-12-23 14:53:58.367291,11
2021-12-23 14:53:58.367295,33
2021-12-23 14:53:58.367299,64
2021-12-23 14:53:58.482105,86
2021-12-23 14:53:58.482131,114
2021-12-23 14:53:58.482142,153
2021-12-23 14:53:58.482153,177
2021-12-23 14:53:58.482164,198
2021-12-23 14:53:58.482175,203
2021-12-23 14:53:58.482188,184
2021-12-23 14:53:58.482200,184
2021-12-23 14:53:58.482211,191
2021-12-23 14:53:58.482223,157
2021-12-23 14:53:58.482234,95
2021-12-23 14:53:58.482245,14
2021-12-23 14:53:58.482257,-76
2021-12-23 14:53:58.482268,-145
2021-12-23 14:53:58.482279,-210
2021-12-23 14:53:58.482291,-263
2021-12-23 14:53:58.482302,-277
2021-12-23 14:53:58.482315,-287
2021-12-23 14:53:58.482326,-287
2021-12-23 14:53:58.482338,-253
2021-12-23 14:53:58.482350,-232
2021-12-23 14:53:58.482362,-229
2021-12-23 14:53:58.482375,-217
2021-12-23 14:53:58.482386,-203
2021-12-23 14:53:58.482397,-191
2021-12-23 14:53:58.482409,-169
2021-12-23 14:53:58.482421,-155
2021-12-23 14:53:58.482432,-150
2021-12-23 14:53:58.482444,-141
2021-12-23 14:53:58.482459,-133
2021-12-23 14:53:58.707155,-126
2021-12-23 14:53:58.707175,-102
2021-12-23 14:53:58.707183,-88
2021-12-23 14:53:58.707189,-93
2021-12-23 14:53:58.707195,-102
2021-12-23 14:53:58.707202,-117
2021-12-23 14:53:58.707208,-117
2021-12-23 14:53:58.707214,-90
2021-12-23 14:53:58.707221,-74
2021-12-23 14:53:58.707227,-74
2021-12-23 14:53:58.707233,-86
2021-12-23 14:53:58.707239,-105
2021-12-23 14:53:58.707246,-98
2021-12-23 14:53:58.707267,-66
2021-12-23 14:53:58.707274,-62
2021-12-23 14:53:58.707281,-81
2021-12-23 14:53:58.707287,-105
2021-12-23 14:53:58.707294,-114
2021-12-23 14:53:58.707300,-102
2021-12-23 14:53:58.707306,-122
2021-12-23 14:53:58.707313,-155
2021-12-23 14:53:58.707319,-138
2021-12-23 14:53:58.707325,-117
2021-12-23 14:53:58.707331,-117
2021-12-23 14:53:58.707338,-98
2021-12-23 14:53:58.707344,-66
2021-12-23 14:53:58.707350,-62
2021-12-23 14:53:58.707356,-66
2021-12-23 14:53:58.707363,-64
2021-12-23 14:53:58.707371,-55
2021-12-23 14:53:58.932635,-40
2021-12-23 14:53:58.932667,-26
2021-12-23 14:53:58.932679,-23
2021-12-23 14:53:58.932689,-35
2021-12-23 14:53:58.932699,-69
2021-12-23 14:53:58.932708,-78
2021-12-23 14:53:58.932718,-50
2021-12-23 14:53:58.932727,-28
2021-12-23 14:53:58.932737,-28
2021-12-23 14:53:58.932746,-43
2021-12-23 14:53:58.932756,-66
2021-12-23 14:53:58.932766,-64
2021-12-23 14:53:58.932775,-35
2021-12-23 14:53:58.932785,-23
2021-12-23 14:53:58.932794,-21
2021-12-23 14:53:58.932804,-9
2021-12-23 14:53:58.932813,7
2021-12-23 14:53:58.932829,23
2021-12-23 14:53:58.932839,7
2021-12-23 14:53:58.932849,-11
2021-12-23 14:53:58.932858,-2
2021-12-23 14:53:58.932868,-9
2021-12-23 14:53:58.932877,-33
2021-12-23 14:53:58.932887,-26
2021-12-23 14:53:58.932896,-14
2021-12-23 14:53:58.932906,-23
2021-12-23 14:53:58.932915,-33
2021-12-23 14:53:58.932925,-38
2021-12-23 14:53:58.932934,-38
2021-12-23 14:53:58.932944,-23
2021-12-23 14:53:59.245581,0
2021-12-23 14:53:59.245600,4
2021-12-23 14:53:59.245608,-43
2021-12-23 14:53:59.245615,-105
2021-12-23 14:53:59.245621,52
2021-12-23 14:53:59.245628,452
2021-12-23 14:53:59.245635,705
2021-12-23 14:53:59.245646,593
2021-12-23 14:53:59.245653,114
2021-12-23 14:53:59.245660,-306
2021-12-23 14:53:59.245666,-165
2021-12-23 14:53:59.245673,40
2021-12-23 14:53:59.245679,-76
2021-12-23 14:53:59.245686,-114
2021-12-23 14:53:59.245692,-33
2021-12-23 14:53:59.245699,-52
2021-12-23 14:53:59.245705,-86
2021-12-23 14:53:59.245711,-55
2021-12-23 14:53:59.245718,-40
2021-12-23 14:53:59.245724,-62
2021-12-23 14:53:59.245731,-93
2021-12-23 14:53:59.245737,-107
2021-12-23 14:53:59.245744,-81
2021-12-23 14:53:59.245750,-38
2021-12-23 14:53:59.245757,-14
2021-12-23 14:53:59.245763,-9
2021-12-23 14:53:59.245770,-26
2021-12-23 14:53:59.245776,-21
2021-12-23 14:53:59.245782,31
2021-12-23 14:53:59.245790,88
2021-12-23 14:53:59.471930,126
2021-12-23 14:53:59.471966,160
2021-12-23 14:53:59.471978,181
2021-12-23 14:53:59.471988,181
2021-12-23 14:53:59.471998,196
2021-12-23 14:53:59.472008,224
2021-12-23 14:53:59.472018,220
2021-12-23 14:53:59.472028,181
2021-12-23 14:53:59.472037,105
2021-12-23 14:53:59.472047,2
2021-12-23 14:53:59.472057,-59
2021-12-23 14:53:59.472067,-78
2021-12-23 14:53:59.472076,-107
2021-12-23 14:53:59.472086,-138
2021-12-23 14:53:59.472096,-174
2021-12-23 14:53:59.472106,-208
2021-12-23 14:53:59.472116,-184
2021-12-23 14:53:59.472126,-141
2021-12-23 14:53:59.472136,-124
2021-12-23 14:53:59.472145,-107
2021-12-23 14:53:59.472155,-100
2021-12-23 14:53:59.472165,-114
2021-12-23 14:53:59.472175,-126
2021-12-23 14:53:59.472184,-126
2021-12-23 14:53:59.472200,-105
2021-12-23 14:53:59.472210,-83
2021-12-23 14:53:59.472220,-90
2021-12-23 14:53:59.472230,-100
2021-12-23 14:53:59.472241,-78
2021-12-23 14:53:59.472251,-52
2021-12-23 14:53:59.696632,-40
2021-12-23 14:53:59.696653,-33
2021-12-23 14:53:59.696660,-35
2021-12-23 14:53:59.696667,-40
2021-12-23 14:53:59.696674,-23
2021-12-23 14:53:59.696680,-2
2021-12-23 14:53:59.696686,11
2021-12-23 14:53:59.696693,4
2021-12-23 14:53:59.696699,-28
2021-12-23 14:53:59.696705,-45
2021-12-23 14:53:59.696712,-23
2021-12-23 14:53:59.696718,-2
2021-12-23 14:53:59.696724,2
2021-12-23 14:53:59.696730,-4
2021-12-23 14:53:59.696736,-23
2021-12-23 14:53:59.696742,-26
2021-12-23 14:53:59.696749,-4
2021-12-23 14:53:59.696755,9
2021-12-23 14:53:59.696761,11
2021-12-23 14:53:59.696767,4
2021-12-23 14:53:59.696773,-7
2021-12-23 14:53:59.696780,-2
2021-12-23 14:53:59.696788,14
2021-12-23 14:53:59.696794,19
2021-12-23 14:53:59.696801,-7
2021-12-23 14:53:59.696807,-33
2021-12-23 14:53:59.696813,-26
2021-12-23 14:53:59.696819,-14
2021-12-23 14:53:59.696826,-4
2021-12-23 14:53:59.696832,11
2021-12-23 14:53:59.877632,9
2021-12-23 14:53:59.877661,-31
2021-12-23 14:53:59.877673,-66
2021-12-23 14:53:59.877683,-47
2021-12-23 14:53:59.877693,-21
2021-12-23 14:53:59.877703,-14
2021-12-23 14:53:59.877712,-7
2021-12-23 14:53:59.877722,-21
2021-12-23 14:53:59.877732,-45
2021-12-23 14:53:59.877741,-40
2021-12-23 14:53:59.877751,-33
2021-12-23 14:53:59.877763,-38
2021-12-23 14:53:59.877772,-50
2021-12-23 14:53:59.877782,-76
2021-12-23 14:53:59.877792,-86
2021-12-23 14:53:59.877801,-74
2021-12-23 14:53:59.877811,-59
2021-12-23 14:53:59.877821,-45
2021-12-23 14:53:59.877831,-40
2021-12-23 14:53:59.877840,-52
2021-12-23 14:53:59.877850,-62
2021-12-23 14:53:59.877860,-90
2021-12-23 14:53:59.877869,-50
2021-12-23 14:53:59.877879,256
2021-12-23 14:53:59.877899,612
2021-12-23 14:53:59.877909,590
2021-12-23 14:53:59.877918,177
2021-12-23 14:53:59.877928,-299
2021-12-23 14:53:59.877938,-349
2021-12-23 14:53:59.877948,-74
2021-12-23 14:54:00.102513,-50
2021-12-23 14:54:00.102641,-145
2021-12-23 14:54:00.102663,-93
2021-12-23 14:54:00.102675,-59
2021-12-23 14:54:00.102686,-71
2021-12-23 14:54:00.102696,-52
2021-12-23 14:54:00.102706,-59
2021-12-23 14:54:00.102716,-69
2021-12-23 14:54:00.102726,-26
2021-12-23 14:54:00.102735,-4
2021-12-23 14:54:00.102745,-26
2021-12-23 14:54:00.102755,-4
2021-12-23 14:54:00.102766,28
2021-12-23 14:54:00.102776,33
2021-12-23 14:54:00.102786,62
2021-12-23 14:54:00.102796,102
2021-12-23 14:54:00.102806,131
2021-12-23 14:54:00.102816,169
2021-12-23 14:54:00.102826,208
2021-12-23 14:54:00.102836,236
2021-12-23 14:54:00.102846,260
2021-12-23 14:54:00.102855,279
2021-12-23 14:54:00.102865,299
2021-12-23 14:54:00.102875,313
2021-12-23 14:54:00.102885,299
2021-12-23 14:54:00.102895,265
2021-12-23 14:54:00.102905,217
2021-12-23 14:54:00.102915,133
2021-12-23 14:54:00.102925,35
2021-12-23 14:54:00.102935,-47
2021-12-23 14:54:00.417154,-100
2021-12-23 14:54:00.417175,-122
2021-12-23 14:54:00.417182,-129
2021-12-23 14:54:00.417188,-141
2021-12-23 14:54:00.417193,-138
2021-12-23 14:54:00.417198,-141
2021-12-23 14:54:00.417204,-177
2021-12-23 14:54:00.417209,-205
2021-12-23 14:54:00.417214,-210
2021-12-23 14:54:00.417219,-186
2021-12-23 14:54:00.417224,-155
2021-12-23 14:54:00.417229,-162
2021-12-23 14:54:00.417234,-177
2021-12-23 14:54:00.417239,-148
2021-12-23 14:54:00.417244,-117
2021-12-23 14:54:00.417249,-117
2021-12-23 14:54:00.417255,-100
2021-12-23 14:54:00.417260,-78
2021-12-23 14:54:00.417265,-76
2021-12-23 14:54:00.417270,-62
2021-12-23 14:54:00.417275,-38
2021-12-23 14:54:00.417280,-33
2021-12-23 14:54:00.417285,-28
2021-12-23 14:54:00.417290,-19
2021-12-23 14:54:00.417295,-16
2021-12-23 14:54:00.417300,-7
2021-12-23 14:54:00.417305,4
2021-12-23 14:54:00.417310,0
2021-12-23 14:54:00.417315,0
2021-12-23 14:54:00.417321,-2
2021-12-23 14:54:00.552562,-19
2021-12-23 14:54:00.552592,-31
2021-12-23 14:54:00.552603,-16
2021-12-23 14:54:00.552613,-11
2021-12-23 14:54:00.552623,-23
2021-12-23 14:54:00.552633,-40
2021-12-23 14:54:00.552643,-35
2021-12-23 14:54:00.552653,-2
2021-12-23 14:54:00.552663,26
2021-12-23 14:54:00.552673,33
2021-12-23 14:54:00.552693,14
2021-12-23 14:54:00.552704,-23
2021-12-23 14:54:00.552713,-35
2021-12-23 14:54:00.552723,-23
2021-12-23 14:54:00.552733,-23
2021-12-23 14:54:00.552742,-26
2021-12-23 14:54:00.552752,-28
2021-12-23 14:54:00.552762,-38
2021-12-23 14:54:00.552772,-21
2021-12-23 14:54:00.552781,11
2021-12-23 14:54:00.552791,19
2021-12-23 14:54:00.552801,7
2021-12-23 14:54:00.552811,-14
2021-12-23 14:54:00.552820,-57
2021-12-23 14:54:00.552830,-93
2021-12-23 14:54:00.552839,23
2021-12-23 14:54:00.552849,380
2021-12-23 14:54:00.552859,672
2021-12-23 14:54:00.552868,593
2021-12-23 14:54:00.552878,174
2021-12-23 14:54:00.866935,-239
2021-12-23 14:54:00.866966,-160
2021-12-23 14:54:00.866978,86
2021-12-23 14:54:00.866988,-16
2021-12-23 14:54:00.866998,-138
2021-12-23 14:54:00.867008,-71
2021-12-23 14:54:00.867018,-35
2021-12-23 14:54:00.867028,-43
2021-12-23 14:54:00.867038,-26
2021-12-23 14:54:00.867048,-38
2021-12-23 14:54:00.867057,-78
2021-12-23 14:54:00.867067,-66
2021-12-23 14:54:00.867077,-28
2021-12-23 14:54:00.867087,-45
2021-12-23 14:54:00.867097,-71
2021-12-23 14:54:00.867107,-43
2021-12-23 14:54:00.867117,-7
2021-12-23 14:54:00.867126,16
2021-12-23 14:54:00.867136,59
2021-12-23 14:54:00.867146,105
2021-12-23 14:54:00.867156,138
2021-12-23 14:54:00.867165,162
2021-12-23 14:54:00.867175,184
2021-12-23 14:54:00.867185,215
2021-12-23 14:54:00.867195,244
2021-12-23 14:54:00.867211,260
2021-12-23 14:54:00.867221,263
2021-12-23 14:54:00.867231,232
2021-12-23 14:54:00.867241,174
2021-12-23 14:54:00.867251,114
2021-12-23 14:54:01.047568,38
2021-12-23 14:54:01.047598,-52
2021-12-23 14:54:01.047610,-117
2021-12-23 14:54:01.047620,-179
2021-12-23 14:54:01.047630,-239
2021-12-23 14:54:01.047640,-256
2021-12-23 14:54:01.047649,-234
2021-12-23 14:54:01.047659,-215
2021-12-23 14:54:01.047669,-220
2021-12-23 14:54:01.047679,-241
2021-12-23 14:54:01.047688,-248
2021-12-23 14:54:01.047698,-220
2021-12-23 14:54:01.047708,-189
2021-12-23 14:54:01.047718,-177
2021-12-23 14:54:01.047727,-177
2021-12-23 14:54:01.047737,-203
2021-12-23 14:54:01.047747,-212
2021-12-23 14:54:01.047757,-174
2021-12-23 14:54:01.047767,-145
2021-12-23 14:54:01.047776,-136
2021-12-23 14:54:01.047786,-129
2021-12-23 14:54:01.047796,-136
2021-12-23 14:54:01.047806,-131
2021-12-23 14:54:01.047816,-105
2021-12-23 14:54:01.047826,-83
2021-12-23 14:54:01.047835,-71
2021-12-23 14:54:01.047845,-66
2021-12-23 14:54:01.047855,-76
2021-12-23 14:54:01.047865,-74
2021-12-23 14:54:01.047875,-50
2021-12-23 14:54:01.405800,-35
2021-12-23 14:54:01.405823,-31
2021-12-23 14:54:01.405832,-33
2021-12-23 14:54:01.405839,-47
2021-12-23 14:54:01.405845,-43
2021-12-23 14:54:01.405852,-28
2021-12-23 14:54:01.405858,-43
2021-12-23 14:54:01.405864,-62
2021-12-23 14:54:01.405871,-71
2021-12-23 14:54:01.405877,-98
2021-12-23 14:54:01.405883,-98
2021-12-23 14:54:01.405890,-62
2021-12-23 14:54:01.405896,-43
2021-12-23 14:54:01.405902,-40
2021-12-23 14:54:01.405908,-55
2021-12-23 14:54:01.405915,-88
2021-12-23 14:54:01.405926,-86
2021-12-23 14:54:01.405933,-52
2021-12-23 14:54:01.405939,-50
2021-12-23 14:54:01.405945,-86
2021-12-23 14:54:01.405951,-110
2021-12-23 14:54:01.405958,-93
2021-12-23 14:54:01.405964,-69
2021-12-23 14:54:01.405970,-59
2021-12-23 14:54:01.405976,-50
2021-12-23 14:54:01.405983,-50
2021-12-23 14:54:01.405989,-66
2021-12-23 14:54:01.405995,-78
2021-12-23 14:54:01.406001,-57
2021-12-23 14:54:01.406008,-35
2021-12-23 14:54:01.497511,-21
2021-12-23 14:54:01.497542,-11
2021-12-23 14:54:01.497554,-19
2021-12-23 14:54:01.497564,-35
2021-12-23 14:54:01.497573,-66
2021-12-23 14:54:01.497583,-74
2021-12-23 14:54:01.497593,122
2021-12-23 14:54:01.497602,512
2021-12-23 14:54:01.497612,734
2021-12-23 14:54:01.497622,600
2021-12-23 14:54:01.497631,126
2021-12-23 14:54:01.497641,-251
2021-12-23 14:54:01.497651,-62
2021-12-23 14:54:01.497660,117
2021-12-23 14:54:01.497670,-69
2021-12-23 14:54:01.497680,-124
2021-12-23 14:54:01.497689,-16
2021-12-23 14:54:01.497699,-9
2021-12-23 14:54:01.497709,-23
2021-12-23 14:54:01.497718,4
2021-12-23 14:54:01.497728,-2
2021-12-23 14:54:01.497737,-4
2021-12-23 14:54:01.497747,33
2021-12-23 14:54:01.497756,64
2021-12-23 14:54:01.497766,71
2021-12-23 14:54:01.497775,66
2021-12-23 14:54:01.497785,55
2021-12-23 14:54:01.497794,71
2021-12-23 14:54:01.497804,117
2021-12-23 14:54:01.497813,150
2021-12-23 14:54:01.767491,177
2021-12-23 14:54:01.767520,198
2021-12-23 14:54:01.767531,215
2021-12-23 14:54:01.767541,232
2021-12-23 14:54:01.767551,260
2021-12-23 14:54:01.767561,287
2021-12-23 14:54:01.767570,289
2021-12-23 14:54:01.767580,256
2021-12-23 14:54:01.767590,208
2021-12-23 14:54:01.767599,169
2021-12-23 14:54:01.767609,93
2021-12-23 14:54:01.767619,-26
2021-12-23 14:54:01.767628,-117
2021-12-23 14:54:01.767645,-174
2021-12-23 14:54:01.767655,-220
2021-12-23 14:54:01.767665,-236
2021-12-23 14:54:01.767675,-227
2021-12-23 14:54:01.767684,-210
2021-12-23 14:54:01.767694,-198
2021-12-23 14:54:01.767703,-193
2021-12-23 14:54:01.767713,-186
2021-12-23 14:54:01.767722,-174
2021-12-23 14:54:01.767732,-155
2021-12-23 14:54:01.767742,-133
2021-12-23 14:54:01.767751,-138
2021-12-23 14:54:01.767761,-174
2021-12-23 14:54:01.767770,-181
2021-12-23 14:54:01.767780,-150
2021-12-23 14:54:01.767790,-131
2021-12-23 14:54:01.767799,-122
2021-12-23 14:54:01.947481,-114
2021-12-23 14:54:01.947511,-107
2021-12-23 14:54:01.947523,-107
2021-12-23 14:54:01.947533,-119
2021-12-23 14:54:01.947543,-124
2021-12-23 14:54:01.947553,-126
2021-12-23 14:54:01.947563,-162
2021-12-23 14:54:01.947572,-189
2021-12-23 14:54:01.947582,-165
2021-12-23 14:54:01.947592,-148
2021-12-23 14:54:01.947602,-148
2021-12-23 14:54:01.947612,-133
2021-12-23 14:54:01.947621,-136
2021-12-23 14:54:01.947631,-155
2021-12-23 14:54:01.947641,-150
2021-12-23 14:54:01.947650,-136
2021-12-23 14:54:01.947660,-129
2021-12-23 14:54:01.947670,-122
2021-12-23 14:54:01.947680,-131
2021-12-23 14:54:01.947689,-143
2021-12-23 14:54:01.947699,-126
2021-12-23 14:54:01.947709,-112
2021-12-23 14:54:01.947718,-107
2021-12-23 14:54:01.947728,-95
2021-12-23 14:54:01.947738,-88
2021-12-23 14:54:01.947748,-81
2021-12-23 14:54:01.947757,-69
2021-12-23 14:54:01.947767,-64
2021-12-23 14:54:01.947777,-57
2021-12-23 14:54:01.947787,-47
2021-12-23 14:54:02.172579,-50
2021-12-23 14:54:02.172610,-45
2021-12-23 14:54:02.172621,-33
2021-12-23 14:54:02.172631,-31
2021-12-23 14:54:02.172641,-28
2021-12-23 14:54:02.172650,-35
2021-12-23 14:54:02.172660,-64
2021-12-23 14:54:02.172670,-62
2021-12-23 14:54:02.172680,-35
2021-12-23 14:54:02.172689,-33
2021-12-23 14:54:02.172699,-35
2021-12-23 14:54:02.172709,-47
2021-12-23 14:54:02.172718,-76
2021-12-23 14:54:02.172728,-69
2021-12-23 14:54:02.172738,-43
2021-12-23 14:54:02.172747,-47
2021-12-23 14:54:02.172757,-40
2021-12-23 14:54:02.172784,-33
2021-12-23 14:54:02.172794,-45
2021-12-23 14:54:02.172804,-35
2021-12-23 14:54:02.172814,-21
2021-12-23 14:54:02.172824,-45
2021-12-23 14:54:02.172834,-55
2021-12-23 14:54:02.172843,-38
2021-12-23 14:54:02.172853,-28
2021-12-23 14:54:02.172863,-23
2021-12-23 14:54:02.172872,-11
2021-12-23 14:54:02.172882,-7
2021-12-23 14:54:02.172892,0
2021-12-23 14:54:02.172902,-2
2021-12-23 14:54:02.397051,-83
2021-12-23 14:54:02.397070,-122
2021-12-23 14:54:02.397078,129
2021-12-23 14:54:02.397085,538
2021-12-23 14:54:02.397092,758
2021-12-23 14:54:02.397098,614
2021-12-23 14:54:02.397105,57
2021-12-23 14:54:02.397112,-325
2021-12-23 14:54:02.397118,-86
2021-12-23 14:54:02.397125,66
2021-12-23 14:54:02.397131,-126
2021-12-23 14:54:02.397138,-160
2021-12-23 14:54:02.397144,-69
2021-12-23 14:54:02.397150,-69
2021-12-23 14:54:02.397157,-74
2021-12-23 14:54:02.397163,-40
2021-12-23 14:54:02.397170,-38
2021-12-23 14:54:02.397176,-52
2021-12-23 14:54:02.397183,-28
2021-12-23 14:54:02.397189,7
2021-12-23 14:54:02.397195,23
2021-12-23 14:54:02.397202,33
2021-12-23 14:54:02.397208,50
2021-12-23 14:54:02.397215,74
2021-12-23 14:54:02.397221,110
2021-12-23 14:54:02.397264,143
2021-12-23 14:54:02.397278,169
2021-12-23 14:54:02.397286,193
2021-12-23 14:54:02.397293,215
2021-12-23 14:54:02.397299,239
2021-12-23 14:54:02.622583,267
2021-12-23 14:54:02.622614,287
2021-12-23 14:54:02.622626,275
2021-12-23 14:54:02.622636,246
2021-12-23 14:54:02.622646,217
2021-12-23 14:54:02.622655,177
2021-12-23 14:54:02.622665,126
2021-12-23 14:54:02.622675,62
2021-12-23 14:54:02.622685,-26
2021-12-23 14:54:02.622695,-110
2021-12-23 14:54:02.622705,-165
2021-12-23 14:54:02.622715,-189
2021-12-23 14:54:02.622724,-196
2021-12-23 14:54:02.622734,-198
2021-12-23 14:54:02.622744,-193
2021-12-23 14:54:02.622754,-193
2021-12-23 14:54:02.622763,-198
2021-12-23 14:54:02.622773,-181
2021-12-23 14:54:02.622783,-172
2021-12-23 14:54:02.622793,-181
2021-12-23 14:54:02.622802,-172
2021-12-23 14:54:02.622812,-155
2021-12-23 14:54:02.622822,-157
2021-12-23 14:54:02.622831,-143
2021-12-23 14:54:02.622841,-114
2021-12-23 14:54:02.622850,-98
2021-12-23 14:54:02.622860,-95
2021-12-23 14:54:02.622870,-102
2021-12-23 14:54:02.622879,-110
2021-12-23 14:54:02.622895,-93
2021-12-23 14:54:02.892540,-66
2021-12-23 14:54:02.892569,-57
2021-12-23 14:54:02.892581,-55
2021-12-23 14:54:02.892591,-88
2021-12-23 14:54:02.892601,-133
2021-12-23 14:54:02.892611,-133
2021-12-23 14:54:02.892621,-153
2021-12-23 14:54:02.892631,-205
2021-12-23 14:54:02.892640,-208
2021-12-23 14:54:02.892650,-210
2021-12-23 14:54:02.892660,-239
2021-12-23 14:54:02.892670,-210
2021-12-23 14:54:02.892680,-167
2021-12-23 14:54:02.892690,-162
2021-12-23 14:54:02.892700,-167
2021-12-23 14:54:02.892709,-177
2021-12-23 14:54:02.892719,-172
2021-12-23 14:54:02.892729,-143
2021-12-23 14:54:02.892739,-122
2021-12-23 14:54:02.892749,-117
2021-12-23 14:54:02.892758,-122
2021-12-23 14:54:02.892768,-145
2021-12-23 14:54:02.892778,-143
2021-12-23 14:54:02.892788,-107
2021-12-23 14:54:02.892798,-81
2021-12-23 14:54:02.892807,-74
2021-12-23 14:54:02.892817,-71
2021-12-23 14:54:02.892827,-83
2021-12-23 14:54:02.892837,-83
2021-12-23 14:54:02.892847,-64
2021-12-23 14:54:03.162522,-52
2021-12-23 14:54:03.162553,-35
2021-12-23 14:54:03.162564,-11
2021-12-23 14:54:03.162574,9
2021-12-23 14:54:03.162584,28
2021-12-23 14:54:03.162594,38
2021-12-23 14:54:03.162603,33
2021-12-23 14:54:03.162613,28
2021-12-23 14:54:03.162623,2
2021-12-23 14:54:03.162633,-40
2021-12-23 14:54:03.162643,-45
2021-12-23 14:54:03.162652,-16
2021-12-23 14:54:03.162662,0
2021-12-23 14:54:03.162672,7
2021-12-23 14:54:03.162681,-14
2021-12-23 14:54:03.162691,-52
2021-12-23 14:54:03.162701,-38
2021-12-23 14:54:03.162710,-7
2021-12-23 14:54:03.162720,-43
2021-12-23 14:54:03.162729,-74
2021-12-23 14:54:03.162739,112
2021-12-23 14:54:03.162748,490
2021-12-23 14:54:03.162758,727
2021-12-23 14:54:03.162768,605
2021-12-23 14:54:03.162777,126
2021-12-23 14:54:03.162787,-256
2021-12-23 14:54:03.162796,-98
2021-12-23 14:54:03.162806,74
2021-12-23 14:54:03.162816,-57
2021-12-23 14:54:03.162825,-81
2021-12-23 14:54:03.386362,9
2021-12-23 14:54:03.386391,0
2021-12-23 14:54:03.386406,-28
2021-12-23 14:54:03.386419,-4
2021-12-23 14:54:03.386431,26
2021-12-23 14:54:03.386442,43
2021-12-23 14:54:03.386454,64
2021-12-23 14:54:03.386466,76
2021-12-23 14:54:03.386478,66
2021-12-23 14:54:03.386489,69
2021-12-23 14:54:03.386500,102
2021-12-23 14:54:03.386511,122
2021-12-23 14:54:03.386523,102
2021-12-23 14:54:03.386534,90
2021-12-23 14:54:03.386544,100
2021-12-23 14:54:03.386554,122
2021-12-23 14:54:03.386565,162
2021-12-23 14:54:03.386576,205
2021-12-23 14:54:03.386587,232
2021-12-23 14:54:03.386599,234
2021-12-23 14:54:03.386618,210
2021-12-23 14:54:03.386630,198
2021-12-23 14:54:03.386642,198
2021-12-23 14:54:03.386706,172
2021-12-23 14:54:03.386906,100
2021-12-23 14:54:03.386919,-2
2021-12-23 14:54:03.386931,-88
2021-12-23 14:54:03.386939,-131
2021-12-23 14:54:03.386946,-145
2021-12-23 14:54:03.386952,-155
2021-12-23 14:54:03.567527,-155
2021-12-23 14:54:03.567557,-157
2021-12-23 14:54:03.567569,-162
2021-12-23 14:54:03.567579,-155
2021-12-23 14:54:03.567589,-136
2021-12-23 14:54:03.567599,-114
2021-12-23 14:54:03.567609,-107
2021-12-23 14:54:03.567619,-126
2021-12-23 14:54:03.567629,-141
2021-12-23 14:54:03.567639,-133
2021-12-23 14:54:03.567648,-131
2021-12-23 14:54:03.567658,-133
2021-12-23 14:54:03.567668,-126
2021-12-23 14:54:03.567678,-145
2021-12-23 14:54:03.567688,-162
2021-12-23 14:54:03.567698,-138
2021-12-23 14:54:03.567708,-112
2021-12-23 14:54:03.567717,-105
2021-12-23 14:54:03.567727,-98
2021-12-23 14:54:03.567737,-90
2021-12-23 14:54:03.567747,-86
2021-12-23 14:54:03.567756,-74
2021-12-23 14:54:03.567766,-64
2021-12-23 14:54:03.567776,-55
2021-12-23 14:54:03.567785,-50
2021-12-23 14:54:03.567795,-57
2021-12-23 14:54:03.567805,-66
2021-12-23 14:54:03.567815,-83
2021-12-23 14:54:03.567824,-86
2021-12-23 14:54:03.567834,-64
2021-12-23 14:54:03.836944,-59
2021-12-23 14:54:03.836974,-81
2021-12-23 14:54:03.836985,-100
2021-12-23 14:54:03.836995,-107
2021-12-23 14:54:03.837005,-117
2021-12-23 14:54:03.837015,-126
2021-12-23 14:54:03.837025,-141
2021-12-23 14:54:03.837034,-157
2021-12-23 14:54:03.837044,-153
2021-12-23 14:54:03.837054,-133
2021-12-23 14:54:03.837064,-124
2021-12-23 14:54:03.837073,-117
2021-12-23 14:54:03.837083,-131
2021-12-23 14:54:03.837093,-148
2021-12-23 14:54:03.837103,-133
2021-12-23 14:54:03.837112,-119
2021-12-23 14:54:03.837122,-126
2021-12-23 14:54:03.837132,-145
2021-12-23 14:54:03.837142,-174
2021-12-23 14:54:03.837152,-157
2021-12-23 14:54:03.837161,-105
2021-12-23 14:54:03.837171,-100
2021-12-23 14:54:03.837180,-110
2021-12-23 14:54:03.837190,-93
2021-12-23 14:54:03.837200,-93
2021-12-23 14:54:03.837209,-102
2021-12-23 14:54:03.837219,-95
2021-12-23 14:54:03.837229,-93
2021-12-23 14:54:03.837239,-95
2021-12-23 14:54:03.837248,-112
2021-12-23 14:54:04.017299,-122
2021-12-23 14:54:04.017327,-100
2021-12-23 14:54:04.017339,-76
2021-12-23 14:54:04.017349,-81
2021-12-23 14:54:04.017359,-83
2021-12-23 14:54:04.017369,-122
2021-12-23 14:54:04.017378,-160
2021-12-23 14:54:04.017388,50
2021-12-23 14:54:04.017398,468
2021-12-23 14:54:04.017408,696
2021-12-23 14:54:04.017417,559
2021-12-23 14:54:04.017427,55
2021-12-23 14:54:04.017437,-351
2021-12-23 14:54:04.017446,-145
2021-12-23 14:54:04.017456,55
2021-12-23 14:54:04.017465,-105
2021-12-23 14:54:04.017475,-133
2021-12-23 14:54:04.017485,-40
2021-12-23 14:54:04.017494,-64
2021-12-23 14:54:04.017504,-69
2021-12-23 14:54:04.017513,-14
2021-12-23 14:54:04.017523,-4
2021-12-23 14:54:04.017538,-2
2021-12-23 14:54:04.017548,21
2021-12-23 14:54:04.017558,33
2021-12-23 14:54:04.017568,57
2021-12-23 14:54:04.017577,86
2021-12-23 14:54:04.017587,95
2021-12-23 14:54:04.017597,117
2021-12-23 14:54:04.017606,143
2021-12-23 14:54:04.242505,157
2021-12-23 14:54:04.242535,165
2021-12-23 14:54:04.242547,184
2021-12-23 14:54:04.242557,215
2021-12-23 14:54:04.242567,232
2021-12-23 14:54:04.242576,222
2021-12-23 14:54:04.242586,222
2021-12-23 14:54:04.242596,253
2021-12-23 14:54:04.242606,265
2021-12-23 14:54:04.242615,232
2021-12-23 14:54:04.242625,174
2021-12-23 14:54:04.242635,90
2021-12-23 14:54:04.242644,7
2021-12-23 14:54:04.242654,-31
2021-12-23 14:54:04.242664,-71
2021-12-23 14:54:04.242674,-124
2021-12-23 14:54:04.242684,-148
2021-12-23 14:54:04.242693,-148
2021-12-23 14:54:04.242703,-136
2021-12-23 14:54:04.242712,-119
2021-12-23 14:54:04.242722,-105
2021-12-23 14:54:04.242732,-98
2021-12-23 14:54:04.242741,-95
2021-12-23 14:54:04.242751,-114
2021-12-23 14:54:04.242760,-141
2021-12-23 14:54:04.242770,-126
2021-12-23 14:54:04.242780,-119
2021-12-23 14:54:04.242789,-141
2021-12-23 14:54:04.242799,-150
2021-12-23 14:54:04.242809,-145
2021-12-23 14:54:04.467560,-129
2021-12-23 14:54:04.467590,-98
2021-12-23 14:54:04.467602,-86
2021-12-23 14:54:04.467612,-119
2021-12-23 14:54:04.467622,-172
2021-12-23 14:54:04.467632,-189
2021-12-23 14:54:04.467642,-157
2021-12-23 14:54:04.467652,-131
2021-12-23 14:54:04.467662,-112
2021-12-23 14:54:04.467671,-100
2021-12-23 14:54:04.467681,-122
2021-12-23 14:54:04.467691,-138
2021-12-23 14:54:04.467701,-105
2021-12-23 14:54:04.467711,-81
2021-12-23 14:54:04.467720,-90
2021-12-23 14:54:04.467730,-95
2021-12-23 14:54:04.467740,-90
2021-12-23 14:54:04.467750,-78
2021-12-23 14:54:04.467760,-59
2021-12-23 14:54:04.467770,-64
2021-12-23 14:54:04.467779,-90
2021-12-23 14:54:04.467789,-105
2021-12-23 14:54:04.467799,-114
2021-12-23 14:54:04.467808,-126
2021-12-23 14:54:04.467818,-119
2021-12-23 14:54:04.467828,-102
2021-12-23 14:54:04.467838,-98
2021-12-23 14:54:04.467848,-102
2021-12-23 14:54:04.467858,-102
2021-12-23 14:54:04.467868,-93
2021-12-23 14:54:04.781914,-81
2021-12-23 14:54:04.781944,-71
2021-12-23 14:54:04.781956,-69
2021-12-23 14:54:04.781966,-93
2021-12-23 14:54:04.781976,-129
2021-12-23 14:54:04.781986,-141
2021-12-23 14:54:04.781995,-126
2021-12-23 14:54:04.782005,-102
2021-12-23 14:54:04.782015,-95
2021-12-23 14:54:04.782025,-126
2021-12-23 14:54:04.782035,-155
2021-12-23 14:54:04.782044,-126
2021-12-23 14:54:04.782054,-88
2021-12-23 14:54:04.782064,-74
2021-12-23 14:54:04.782074,-74
2021-12-23 14:54:04.782083,-93
2021-12-23 14:54:04.782093,-88
2021-12-23 14:54:04.782103,-47
2021-12-23 14:54:04.782112,-9
2021-12-23 14:54:04.782122,7
2021-12-23 14:54:04.782132,0
2021-12-23 14:54:04.782142,-23
2021-12-23 14:54:04.782151,-23
2021-12-23 14:54:04.782161,-7
2021-12-23 14:54:04.782171,-9
2021-12-23 14:54:04.782181,-14
2021-12-23 14:54:04.782190,-14
2021-12-23 14:54:04.782200,-21
2021-12-23 14:54:04.782210,-35
2021-12-23 14:54:04.782220,-62
2021-12-23 14:54:05.006678,-66
2021-12-23 14:54:05.006695,-40
2021-12-23 14:54:05.006701,-35
2021-12-23 14:54:05.006706,-62
2021-12-23 14:54:05.006711,-98
2021-12-23 14:54:05.006722,-102
2021-12-23 14:54:05.006727,88
2021-12-23 14:54:05.006732,464
2021-12-23 14:54:05.006737,703
2021-12-23 14:54:05.006742,598
2021-12-23 14:54:05.006748,110
2021-12-23 14:54:05.006753,-306
2021-12-23 14:54:05.006758,-131
2021-12-23 14:54:05.006763,74
2021-12-23 14:54:05.006768,-98
2021-12-23 14:54:05.006773,-179
2021-12-23 14:54:05.006778,-78
2021-12-23 14:54:05.006783,-52
2021-12-23 14:54:05.006789,-64
2021-12-23 14:54:05.006794,-26
2021-12-23 14:54:05.006799,-16
2021-12-23 14:54:05.006804,-35
2021-12-23 14:54:05.006809,-7
2021-12-23 14:54:05.006814,35
2021-12-23 14:54:05.006819,52
2021-12-23 14:54:05.006824,69
2021-12-23 14:54:05.006829,83
2021-12-23 14:54:05.006834,88
2021-12-23 14:54:05.006839,117
2021-12-23 14:54:05.006844,162
2021-12-23 14:54:05.187064,191
2021-12-23 14:54:05.187085,198
2021-12-23 14:54:05.187093,191
2021-12-23 14:54:05.187099,200
2021-12-23 14:54:05.187106,234
2021-12-23 14:54:05.187112,260
2021-12-23 14:54:05.187118,267
2021-12-23 14:54:05.187125,272
2021-12-23 14:54:05.187131,258
2021-12-23 14:54:05.187137,193
2021-12-23 14:54:05.187144,112
2021-12-23 14:54:05.187150,62
2021-12-23 14:54:05.187157,11
2021-12-23 14:54:05.187163,-62
2021-12-23 14:54:05.187170,-143
2021-12-23 14:54:05.187176,-184
2021-12-23 14:54:05.187182,-169
2021-12-23 14:54:05.187189,-148
2021-12-23 14:54:05.187195,-143
2021-12-23 14:54:05.187202,-150
2021-12-23 14:54:05.187208,-169
2021-12-23 14:54:05.187215,-169
2021-12-23 14:54:05.187221,-153
2021-12-23 14:54:05.187227,-153
2021-12-23 14:54:05.187234,-155
2021-12-23 14:54:05.187240,-160
2021-12-23 14:54:05.187246,-179
2021-12-23 14:54:05.187253,-177
2021-12-23 14:54:05.187259,-148
2021-12-23 14:54:05.187265,-133
2021-12-23 14:54:05.501201,-126
2021-12-23 14:54:05.501239,-122
2021-12-23 14:54:05.501251,-124
2021-12-23 14:54:05.501261,-126
2021-12-23 14:54:05.501271,-145
2021-12-23 14:54:05.501281,-172
2021-12-23 14:54:05.501291,-167
2021-12-23 14:54:05.501301,-169
2021-12-23 14:54:05.501310,-189
2021-12-23 14:54:05.501320,-174
2021-12-23 14:54:05.501330,-153
2021-12-23 14:54:05.501340,-165
2021-12-23 14:54:05.501350,-181
2021-12-23 14:54:05.501359,-191
2021-12-23 14:54:05.501369,-193
2021-12-23 14:54:05.501379,-181
2021-12-23 14:54:05.501389,-157
2021-12-23 14:54:05.501399,-141
2021-12-23 14:54:05.501408,-131
2021-12-23 14:54:05.501418,-131
2021-12-23 14:54:05.501428,-124
2021-12-23 14:54:05.501438,-112
2021-12-23 14:54:05.501447,-100
2021-12-23 14:54:05.501457,-83
2021-12-23 14:54:05.501467,-71
2021-12-23 14:54:05.501477,-69
2021-12-23 14:54:05.501486,-66
2021-12-23 14:54:05.501496,-64
2021-12-23 14:54:05.501506,-55
2021-12-23 14:54:05.501516,-26
2021-12-23 14:54:05.637549,-19
2021-12-23 14:54:05.637580,-31
2021-12-23 14:54:05.637591,-26
2021-12-23 14:54:05.637601,-16
2021-12-23 14:54:05.637610,-11
2021-12-23 14:54:05.637620,2
2021-12-23 14:54:05.637630,-7
2021-12-23 14:54:05.637639,-38
2021-12-23 14:54:05.637649,-38
2021-12-23 14:54:05.637659,-23
2021-12-23 14:54:05.637668,-19
2021-12-23 14:54:05.637678,-2
2021-12-23 14:54:05.637754,26
2021-12-23 14:54:05.637773,33
2021-12-23 14:54:05.637783,19
2021-12-23 14:54:05.637793,4
2021-12-23 14:54:05.637803,11
2021-12-23 14:54:05.637831,16
2021-12-23 14:54:05.637846,-11
2021-12-23 14:54:05.637863,-40
2021-12-23 14:54:05.637874,-33
2021-12-23 14:54:05.637884,-19
2021-12-23 14:54:05.637893,-14
2021-12-23 14:54:05.637903,-11
2021-12-23 14:54:05.637913,-14
2021-12-23 14:54:05.637929,-7
2021-12-23 14:54:05.637940,9
2021-12-23 14:54:05.637950,14
2021-12-23 14:54:05.637959,11
2021-12-23 14:54:05.637969,-23
2021-12-23 14:54:05.862445,-62
2021-12-23 14:54:05.862471,126
2021-12-23 14:54:05.862479,540
2021-12-23 14:54:05.862485,765
2021-12-23 14:54:05.862492,607
2021-12-23 14:54:05.862498,129
2021-12-23 14:54:05.862504,-253
2021-12-23 14:54:05.862511,-88
2021-12-23 14:54:05.862517,102
2021-12-23 14:54:05.862523,-62
2021-12-23 14:54:05.862530,-143
2021-12-23 14:54:05.862536,-78
2021-12-23 14:54:05.862542,-112
2021-12-23 14:54:05.862549,-145
2021-12-23 14:54:05.862555,-93
2021-12-23 14:54:05.862561,-93
2021-12-23 14:54:05.862567,-114
2021-12-23 14:54:05.862574,-78
2021-12-23 14:54:05.862580,-45
2021-12-23 14:54:05.862586,-35
2021-12-23 14:54:05.862593,-11
2021-12-23 14:54:05.862599,11
2021-12-23 14:54:05.862605,38
2021-12-23 14:54:05.862612,69
2021-12-23 14:54:05.862618,95
2021-12-23 14:54:05.862624,129
2021-12-23 14:54:05.862630,167
2021-12-23 14:54:05.862637,196
2021-12-23 14:54:05.862643,220
2021-12-23 14:54:05.862649,248
2021-12-23 14:54:06.131027,265
2021-12-23 14:54:06.131042,279
2021-12-23 14:54:06.131048,279
2021-12-23 14:54:06.131052,239
2021-12-23 14:54:06.131057,165
2021-12-23 14:54:06.131061,69
2021-12-23 14:54:06.131065,-33
2021-12-23 14:54:06.131070,-105
2021-12-23 14:54:06.131074,-150
2021-12-23 14:54:06.131079,-198
2021-12-23 14:54:06.131083,-236
2021-12-23 14:54:06.131087,-258
2021-12-23 14:54:06.131092,-256
2021-12-23 14:54:06.131096,-229
2021-12-23 14:54:06.131100,-215
2021-12-23 14:54:06.131105,-212
2021-12-23 14:54:06.131109,-196
2021-12-23 14:54:06.131113,-186
2021-12-23 14:54:06.131118,-193
2021-12-23 14:54:06.131122,-179
2021-12-23 14:54:06.131127,-155
2021-12-23 14:54:06.131131,-145
2021-12-23 14:54:06.131135,-145
2021-12-23 14:54:06.131140,-153
2021-12-23 14:54:06.131144,-148
2021-12-23 14:54:06.131148,-129
2021-12-23 14:54:06.131153,-126
2021-12-23 14:54:06.131157,-124
2021-12-23 14:54:06.131161,-102
2021-12-23 14:54:06.131166,-86
2021-12-23 14:54:06.311673,-69
2021-12-23 14:54:06.311711,-38
2021-12-23 14:54:06.311716,-31
2021-12-23 14:54:06.311721,-47
2021-12-23 14:54:06.311725,-62
2021-12-23 14:54:06.311730,-66
2021-12-23 14:54:06.311734,-59
2021-12-23 14:54:06.311738,-40
2021-12-23 14:54:06.311743,-33
2021-12-23 14:54:06.311747,-45
2021-12-23 14:54:06.311752,-62
2021-12-23 14:54:06.311756,-59
2021-12-23 14:54:06.311760,-26
2021-12-23 14:54:06.311765,-2
2021-12-23 14:54:06.311769,-9
2021-12-23 14:54:06.311773,-47
2021-12-23 14:54:06.311778,-105
2021-12-23 14:54:06.311782,-98
2021-12-23 14:54:06.311817,-35
2021-12-23 14:54:06.311822,-35
2021-12-23 14:54:06.311826,-78
2021-12-23 14:54:06.311830,-83
2021-12-23 14:54:06.311835,-78
2021-12-23 14:54:06.311839,-76
2021-12-23 14:54:06.311843,-62
2021-12-23 14:54:06.311848,-47
2021-12-23 14:54:06.311852,-43
2021-12-23 14:54:06.311856,-47
2021-12-23 14:54:06.311861,-50
2021-12-23 14:54:06.311865,-33
2021-12-23 14:54:06.537488,-9
2021-12-23 14:54:06.537519,0
2021-12-23 14:54:06.537531,-2
2021-12-23 14:54:06.537541,-50
2021-12-23 14:54:06.537551,-129
2021-12-23 14:54:06.537560,-16
2021-12-23 14:54:06.537570,387
2021-12-23 14:54:06.537580,703
2021-12-23 14:54:06.537590,614
2021-12-23 14:54:06.537600,155
2021-12-23 14:54:06.537610,-306
2021-12-23 14:54:06.537620,-217
2021-12-23 14:54:06.537629,83
2021-12-23 14:54:06.537639,23
2021-12-23 14:54:06.537649,-74
2021-12-23 14:54:06.537659,-16
2021-12-23 14:54:06.537668,-11
2021-12-23 14:54:06.537678,-19
2021-12-23 14:54:06.537688,26
2021-12-23 14:54:06.537697,50
2021-12-23 14:54:06.537707,45
2021-12-23 14:54:06.537717,38
2021-12-23 14:54:06.537726,35
2021-12-23 14:54:06.537736,62
2021-12-23 14:54:06.537746,100
2021-12-23 14:54:06.537755,122
2021-12-23 14:54:06.537765,136
2021-12-23 14:54:06.537775,150
2021-12-23 14:54:06.537784,169
2021-12-23 14:54:06.537794,215
2021-12-23 14:54:06.851873,263
2021-12-23 14:54:06.851893,299
2021-12-23 14:54:06.851901,313
2021-12-23 14:54:06.851907,294
2021-12-23 14:54:06.851914,291
2021-12-23 14:54:06.851920,330
2021-12-23 14:54:06.851927,339
2021-12-23 14:54:06.851933,301
2021-12-23 14:54:06.851939,215
2021-12-23 14:54:06.851946,88
2021-12-23 14:54:06.851952,2
2021-12-23 14:54:06.851969,-38
2021-12-23 14:54:06.851976,-90
2021-12-23 14:54:06.851982,-136
2021-12-23 14:54:06.851988,-160
2021-12-23 14:54:06.851995,-181
2021-12-23 14:54:06.852001,-179
2021-12-23 14:54:06.852008,-150
2021-12-23 14:54:06.852014,-133
2021-12-23 14:54:06.852020,-122
2021-12-23 14:54:06.852027,-129
2021-12-23 14:54:06.852033,-172
2021-12-23 14:54:06.852040,-193
2021-12-23 14:54:06.852046,-172
2021-12-23 14:54:06.852052,-172
2021-12-23 14:54:06.852059,-172
2021-12-23 14:54:06.852065,-157
2021-12-23 14:54:06.852071,-155
2021-12-23 14:54:06.852078,-143
2021-12-23 14:54:06.852084,-129
2021-12-23 14:54:07.121637,-133
2021-12-23 14:54:07.121667,-133
2021-12-23 14:54:07.121679,-143
2021-12-23 14:54:07.121689,-169
2021-12-23 14:54:07.121699,-160
2021-12-23 14:54:07.121708,-131
2021-12-23 14:54:07.121718,-124
2021-12-23 14:54:07.121728,-129
2021-12-23 14:54:07.121738,-150
2021-12-23 14:54:07.121747,-169
2021-12-23 14:54:07.121757,-145
2021-12-23 14:54:07.121767,-117
2021-12-23 14:54:07.121777,-110
2021-12-23 14:54:07.121787,-107
2021-12-23 14:54:07.121796,-117
2021-12-23 14:54:07.121806,-129
2021-12-23 14:54:07.121816,-112
2021-12-23 14:54:07.121825,-90
2021-12-23 14:54:07.121835,-78
2021-12-23 14:54:07.121845,-78
2021-12-23 14:54:07.121854,-95
2021-12-23 14:54:07.121864,-98
2021-12-23 14:54:07.121874,-76
2021-12-23 14:54:07.121883,-59
2021-12-23 14:54:07.121893,-50
2021-12-23 14:54:07.121903,-57
2021-12-23 14:54:07.121912,-78
2021-12-23 14:54:07.121922,-78
2021-12-23 14:54:07.121932,-57
2021-12-23 14:54:07.121941,-43
2021-12-23 14:54:07.257556,-31
2021-12-23 14:54:07.257586,-28
2021-12-23 14:54:07.257597,-40
2021-12-23 14:54:07.257608,-45
2021-12-23 14:54:07.257617,-35
2021-12-23 14:54:07.257627,-16
2021-12-23 14:54:07.257637,7
2021-12-23 14:54:07.257647,11
2021-12-23 14:54:07.257656,-11
2021-12-23 14:54:07.257666,-21
2021-12-23 14:54:07.257676,-4
2021-12-23 14:54:07.257686,4
2021-12-23 14:54:07.257695,-2
2021-12-23 14:54:07.257705,-16
2021-12-23 14:54:07.257715,-14
2021-12-23 14:54:07.257724,-4
2021-12-23 14:54:07.257734,7
2021-12-23 14:54:07.257744,16
2021-12-23 14:54:07.257754,11
2021-12-23 14:54:07.257764,-16
2021-12-23 14:54:07.257773,-33
2021-12-23 14:54:07.257783,-28
2021-12-23 14:54:07.257792,-62
2021-12-23 14:54:07.257802,-69
2021-12-23 14:54:07.257812,160
2021-12-23 14:54:07.257821,552
2021-12-23 14:54:07.257831,727
2021-12-23 14:54:07.257841,500
2021-12-23 14:54:07.257851,-52
2021-12-23 14:54:07.257860,-363
2021-12-23 14:54:07.525932,-107
2021-12-23 14:54:07.525948,28
2021-12-23 14:54:07.525954,-136
2021-12-23 14:54:07.525959,-138
2021-12-23 14:54:07.525963,-55
2021-12-23 14:54:07.525967,-69
2021-12-23 14:54:07.525972,-88
2021-12-23 14:54:07.525976,-74
2021-12-23 14:54:07.525981,-62
2021-12-23 14:54:07.525985,-43
2021-12-23 14:54:07.525989,-19
2021-12-23 14:54:07.525994,4
2021-12-23 14:54:07.525998,2
2021-12-23 14:54:07.526003,-4
2021-12-23 14:54:07.526007,26
2021-12-23 14:54:07.526011,59
2021-12-23 14:54:07.526016,81
2021-12-23 14:54:07.526020,117
2021-12-23 14:54:07.526025,150
2021-12-23 14:54:07.526029,174
2021-12-23 14:54:07.526033,208
2021-12-23 14:54:07.526038,236
2021-12-23 14:54:07.526042,256
2021-12-23 14:54:07.526076,277
2021-12-23 14:54:07.526081,282
2021-12-23 14:54:07.526085,265
2021-12-23 14:54:07.526089,227
2021-12-23 14:54:07.526094,162
2021-12-23 14:54:07.526098,95
2021-12-23 14:54:07.526102,16
2021-12-23 14:54:07.707036,-69
2021-12-23 14:54:07.707057,-117
2021-12-23 14:54:07.707065,-136
2021-12-23 14:54:07.707072,-162
2021-12-23 14:54:07.707078,-169
2021-12-23 14:54:07.707085,-162
2021-12-23 14:54:07.707091,-177
2021-12-23 14:54:07.707097,-172
2021-12-23 14:54:07.707104,-145
2021-12-23 14:54:07.707110,-133
2021-12-23 14:54:07.707117,-129
2021-12-23 14:54:07.707123,-133
2021-12-23 14:54:07.707129,-160
2021-12-23 14:54:07.707135,-155
2021-12-23 14:54:07.707142,-114
2021-12-23 14:54:07.707148,-107
2021-12-23 14:54:07.707154,-107
2021-12-23 14:54:07.707161,-114
2021-12-23 14:54:07.707167,-145
2021-12-23 14:54:07.707173,-145
2021-12-23 14:54:07.707180,-138
2021-12-23 14:54:07.707186,-153
2021-12-23 14:54:07.707192,-148
2021-12-23 14:54:07.707199,-129
2021-12-23 14:54:07.707205,-131
2021-12-23 14:54:07.707211,-122
2021-12-23 14:54:07.707218,-105
2021-12-23 14:54:07.707224,-105
2021-12-23 14:54:07.707230,-100
2021-12-23 14:54:07.707237,-93
2021-12-23 14:54:07.932420,-98
2021-12-23 14:54:07.932451,-117
2021-12-23 14:54:07.932462,-174
2021-12-23 14:54:07.932472,-217
2021-12-23 14:54:07.932482,-198
2021-12-23 14:54:07.932492,-196
2021-12-23 14:54:07.932501,-212
2021-12-23 14:54:07.932511,-179
2021-12-23 14:54:07.932531,-148
2021-12-23 14:54:07.932541,-157
2021-12-23 14:54:07.932551,-160
2021-12-23 14:54:07.932561,-162
2021-12-23 14:54:07.932570,-165
2021-12-23 14:54:07.932580,-136
2021-12-23 14:54:07.932589,-117
2021-12-23 14:54:07.932599,-117
2021-12-23 14:54:07.932608,-114
2021-12-23 14:54:07.932618,-105
2021-12-23 14:54:07.932627,-93
2021-12-23 14:54:07.932637,-74
2021-12-23 14:54:07.932647,-62
2021-12-23 14:54:07.932656,-64
2021-12-23 14:54:07.932666,-62
2021-12-23 14:54:07.932675,-55
2021-12-23 14:54:07.932685,-43
2021-12-23 14:54:07.932694,-28
2021-12-23 14:54:07.932704,-19
2021-12-23 14:54:07.932713,-21
2021-12-23 14:54:07.932723,-26
2021-12-23 14:54:07.932732,-26
2021-12-23 14:54:08.157459,-19
2021-12-23 14:54:08.157489,-7
2021-12-23 14:54:08.157501,9
2021-12-23 14:54:08.157511,0
2021-12-23 14:54:08.157521,-38
2021-12-23 14:54:08.157531,-66
2021-12-23 14:54:08.157541,-62
2021-12-23 14:54:08.157550,-45
2021-12-23 14:54:08.157560,-43
2021-12-23 14:54:08.157570,-59
2021-12-23 14:54:08.157580,-93
2021-12-23 14:54:08.157589,-98
2021-12-23 14:54:08.157599,-57
2021-12-23 14:54:08.157609,-38
2021-12-23 14:54:08.157618,-50
2021-12-23 14:54:08.157628,-52
2021-12-23 14:54:08.157638,-52
2021-12-23 14:54:08.157647,-50
2021-12-23 14:54:08.157657,-28
2021-12-23 14:54:08.157667,-26
2021-12-23 14:54:08.157677,-90
2021-12-23 14:54:08.157686,-55
2021-12-23 14:54:08.157696,277
2021-12-23 14:54:08.157706,679
2021-12-23 14:54:08.157715,806
2021-12-23 14:54:08.157725,507
2021-12-23 14:54:08.157735,-74
2021-12-23 14:54:08.157745,-258
2021-12-23 14:54:08.157754,11
2021-12-23 14:54:08.157764,26
2021-12-23 14:54:08.382595,-122
2021-12-23 14:54:08.382627,-59
2021-12-23 14:54:08.382639,-2
2021-12-23 14:54:08.382649,-57
2021-12-23 14:54:08.382659,-78
2021-12-23 14:54:08.382669,-55
2021-12-23 14:54:08.382678,-47
2021-12-23 14:54:08.382688,-59
2021-12-23 14:54:08.382698,-83
2021-12-23 14:54:08.382708,-107
2021-12-23 14:54:08.382718,-100
2021-12-23 14:54:08.382727,-52
2021-12-23 14:54:08.382737,4
2021-12-23 14:54:08.382747,28
2021-12-23 14:54:08.382757,21
2021-12-23 14:54:08.382767,31
2021-12-23 14:54:08.382777,64
2021-12-23 14:54:08.382786,110
2021-12-23 14:54:08.382796,155
2021-12-23 14:54:08.382806,181
2021-12-23 14:54:08.382816,179
2021-12-23 14:54:08.382825,160
2021-12-23 14:54:08.382835,179
2021-12-23 14:54:08.382845,229
2021-12-23 14:54:08.382854,227
2021-12-23 14:54:08.382864,157
2021-12-23 14:54:08.382874,74
2021-12-23 14:54:08.382884,-4
2021-12-23 14:54:08.382894,-62
2021-12-23 14:54:08.382903,-90
2021-12-23 14:54:08.652503,-114
2021-12-23 14:54:08.652533,-112
2021-12-23 14:54:08.652545,-110
2021-12-23 14:54:08.652555,-165
2021-12-23 14:54:08.652565,-193
2021-12-23 14:54:08.652575,-162
2021-12-23 14:54:08.652585,-153
2021-12-23 14:54:08.652595,-184
2021-12-23 14:54:08.652605,-246
2021-12-23 14:54:08.652614,-284
2021-12-23 14:54:08.652624,-246
2021-12-23 14:54:08.652634,-196
2021-12-23 14:54:08.652643,-196
2021-12-23 14:54:08.652653,-198
2021-12-23 14:54:08.652663,-191
2021-12-23 14:54:08.652673,-189
2021-12-23 14:54:08.652683,-162
2021-12-23 14:54:08.652693,-129
2021-12-23 14:54:08.652702,-112
2021-12-23 14:54:08.652712,-93
2021-12-23 14:54:08.652722,-78
2021-12-23 14:54:08.652732,-90
2021-12-23 14:54:08.652742,-81
2021-12-23 14:54:08.652751,-52
2021-12-23 14:54:08.652761,-38
2021-12-23 14:54:08.652771,-31
2021-12-23 14:54:08.652781,-31
2021-12-23 14:54:08.652791,-47
2021-12-23 14:54:08.652800,-43
2021-12-23 14:54:08.652810,-16
2021-12-23 14:54:08.877399,-2
2021-12-23 14:54:08.877428,0
2021-12-23 14:54:08.877440,-4
2021-12-23 14:54:08.877450,-19
2021-12-23 14:54:08.877460,-9
2021-12-23 14:54:08.877469,11
2021-12-23 14:54:08.877479,21
2021-12-23 14:54:08.877489,14
2021-12-23 14:54:08.877499,-21
2021-12-23 14:54:08.877508,-64
2021-12-23 14:54:08.877518,-69
2021-12-23 14:54:08.877527,-47
2021-12-23 14:54:08.877537,-50
2021-12-23 14:54:08.877546,-98
2021-12-23 14:54:08.877556,-143
2021-12-23 14:54:08.877565,-133
2021-12-23 14:54:08.877575,-98
2021-12-23 14:54:08.877584,-81
2021-12-23 14:54:08.877594,-62
2021-12-23 14:54:08.877603,-45
2021-12-23 14:54:08.877613,-52
2021-12-23 14:54:08.877622,-57
2021-12-23 14:54:08.877632,-38
2021-12-23 14:54:08.877641,-23
2021-12-23 14:54:08.877651,-19
2021-12-23 14:54:08.877660,-16
2021-12-23 14:54:08.877670,-21
2021-12-23 14:54:08.877680,-23
2021-12-23 14:54:08.877689,-11
2021-12-23 14:54:08.877699,9
2021-12-23 14:54:09.102457,38
2021-12-23 14:54:09.102487,66
2021-12-23 14:54:09.102498,66
2021-12-23 14:54:09.102508,38
2021-12-23 14:54:09.102518,38
2021-12-23 14:54:09.102527,57
2021-12-23 14:54:09.102537,52
2021-12-23 14:54:09.102547,11
2021-12-23 14:54:09.102557,-23
2021-12-23 14:54:09.102566,-21
2021-12-23 14:54:09.102576,-2
2021-12-23 14:54:09.102586,-9
2021-12-23 14:54:09.102595,-38
2021-12-23 14:54:09.102605,-71
2021-12-23 14:54:09.102615,-83
2021-12-23 14:54:09.102624,-64
2021-12-23 14:54:09.102634,-62
2021-12-23 14:54:09.102643,-124
2021-12-23 14:54:09.102653,-114
2021-12-23 14:54:09.102662,160
2021-12-23 14:54:09.102672,564
2021-12-23 14:54:09.102682,768
2021-12-23 14:54:09.102692,588
2021-12-23 14:54:09.102708,64
2021-12-23 14:54:09.102718,-232
2021-12-23 14:54:09.102727,-9
2021-12-23 14:54:09.102737,81
2021-12-23 14:54:09.102747,-81
2021-12-23 14:54:09.102757,-69
2021-12-23 14:54:09.102767,16
2021-12-23 14:54:09.327422,-2
2021-12-23 14:54:09.327453,-11
2021-12-23 14:54:09.327464,19
2021-12-23 14:54:09.327474,26
2021-12-23 14:54:09.327484,28
2021-12-23 14:54:09.327494,62
2021-12-23 14:54:09.327504,69
2021-12-23 14:54:09.327513,47
2021-12-23 14:54:09.327523,59
2021-12-23 14:54:09.327533,93
2021-12-23 14:54:09.327542,107
2021-12-23 14:54:09.327552,129
2021-12-23 14:54:09.327562,131
2021-12-23 14:54:09.327571,102
2021-12-23 14:54:09.327581,105
2021-12-23 14:54:09.327591,136
2021-12-23 14:54:09.327600,160
2021-12-23 14:54:09.327610,167
2021-12-23 14:54:09.327620,141
2021-12-23 14:54:09.327629,98
2021-12-23 14:54:09.327639,86
2021-12-23 14:54:09.327649,86
2021-12-23 14:54:09.327658,59
2021-12-23 14:54:09.327668,2
2021-12-23 14:54:09.327677,-69
2021-12-23 14:54:09.327687,-131
2021-12-23 14:54:09.327697,-177
2021-12-23 14:54:09.327707,-210
2021-12-23 14:54:09.327716,-217
2021-12-23 14:54:09.327726,-208
2021-12-23 14:54:09.641090,-205
2021-12-23 14:54:09.641120,-196
2021-12-23 14:54:09.641132,-181
2021-12-23 14:54:09.641142,-186
2021-12-23 14:54:09.641152,-198
2021-12-23 14:54:09.641162,-208
2021-12-23 14:54:09.641172,-241
2021-12-23 14:54:09.641182,-263
2021-12-23 14:54:09.641192,-234
2021-12-23 14:54:09.641201,-215
2021-12-23 14:54:09.641211,-215
2021-12-23 14:54:09.641221,-210
2021-12-23 14:54:09.641231,-222
2021-12-23 14:54:09.641240,-217
2021-12-23 14:54:09.641250,-184
2021-12-23 14:54:09.641260,-184
2021-12-23 14:54:09.641270,-205
2021-12-23 14:54:09.641280,-203
2021-12-23 14:54:09.641289,-184
2021-12-23 14:54:09.641299,-165
2021-12-23 14:54:09.641309,-148
2021-12-23 14:54:09.641319,-138
2021-12-23 14:54:09.641329,-124
2021-12-23 14:54:09.641339,-114
2021-12-23 14:54:09.641348,-112
2021-12-23 14:54:09.641358,-98
2021-12-23 14:54:09.641368,-86
2021-12-23 14:54:09.641378,-90
2021-12-23 14:54:09.641388,-88
2021-12-23 14:54:09.641397,-76
2021-12-23 14:54:09.822556,-69
2021-12-23 14:54:09.822587,-50
2021-12-23 14:54:09.822598,-38
2021-12-23 14:54:09.822608,-59
2021-12-23 14:54:09.822618,-81
2021-12-23 14:54:09.822628,-88
2021-12-23 14:54:09.822638,-88
2021-12-23 14:54:09.822648,-57
2021-12-23 14:54:09.822657,-16
2021-12-23 14:54:09.822667,0
2021-12-23 14:54:09.822677,7
2021-12-23 14:54:09.822687,-9
2021-12-23 14:54:09.822696,-33
2021-12-23 14:54:09.822706,-23
2021-12-23 14:54:09.822715,-14
2021-12-23 14:54:09.822725,-31
2021-12-23 14:54:09.822734,-33
2021-12-23 14:54:09.822744,-19
2021-12-23 14:54:09.822754,-26
2021-12-23 14:54:09.822764,-38
2021-12-23 14:54:09.822773,-43
2021-12-23 14:54:09.822783,-74
2021-12-23 14:54:09.822792,-100
2021-12-23 14:54:09.822802,-88
2021-12-23 14:54:09.822812,-105
2021-12-23 14:54:09.822821,-169
2021-12-23 14:54:09.822831,-167
2021-12-23 14:54:09.822840,78
2021-12-23 14:54:09.822850,514
2021-12-23 14:54:09.822860,715
2021-12-23 14:54:10.001602,478
2021-12-23 14:54:10.001617,-28
2021-12-23 14:54:10.001622,-330
2021-12-23 14:54:10.001627,-102
2021-12-23 14:54:10.001631,64
2021-12-23 14:54:10.001636,-69
2021-12-23 14:54:10.001640,-43
2021-12-23 14:54:10.001644,57
2021-12-23 14:54:10.001649,26
2021-12-23 14:54:10.001654,7
2021-12-23 14:54:10.001658,26
2021-12-23 14:54:10.001662,11
2021-12-23 14:54:10.001667,28
2021-12-23 14:54:10.001671,74
2021-12-23 14:54:10.001676,86
2021-12-23 14:54:10.001680,81
2021-12-23 14:54:10.001684,81
2021-12-23 14:54:10.001689,88
2021-12-23 14:54:10.001693,136
2021-12-23 14:54:10.001697,177
2021-12-23 14:54:10.001702,169
2021-12-23 14:54:10.001706,172
2021-12-23 14:54:10.001711,215
2021-12-23 14:54:10.001715,272
2021-12-23 14:54:10.001719,313
2021-12-23 14:54:10.001724,325
2021-12-23 14:54:10.001728,311
2021-12-23 14:54:10.001732,311
2021-12-23 14:54:10.001737,337
2021-12-23 14:54:10.001741,334
2021-12-23 14:54:10.226744,282
2021-12-23 14:54:10.226760,200
2021-12-23 14:54:10.226765,105
2021-12-23 14:54:10.226769,-7
2021-12-23 14:54:10.226774,-112
2021-12-23 14:54:10.226778,-145
2021-12-23 14:54:10.226783,-133
2021-12-23 14:54:10.226787,-155
2021-12-23 14:54:10.226791,-193
2021-12-23 14:54:10.226795,-210
2021-12-23 14:54:10.226800,-227
2021-12-23 14:54:10.226804,-227
2021-12-23 14:54:10.226809,-184
2021-12-23 14:54:10.226813,-138
2021-12-23 14:54:10.226817,-160
2021-12-23 14:54:10.226822,-227
2021-12-23 14:54:10.226826,-234
2021-12-23 14:54:10.226830,-181
2021-12-23 14:54:10.226835,-133
2021-12-23 14:54:10.226839,-74
2021-12-23 14:54:10.226843,-40
2021-12-23 14:54:10.226848,-78
2021-12-23 14:54:10.226852,-124
2021-12-23 14:54:10.226856,-131
2021-12-23 14:54:10.226861,-136
2021-12-23 14:54:10.226865,-119
2021-12-23 14:54:10.226870,-81
2021-12-23 14:54:10.226874,-69
2021-12-23 14:54:10.226878,-52
2021-12-23 14:54:10.226883,-28
2021-12-23 14:54:10.496714,-66
2021-12-23 14:54:10.496730,-143
2021-12-23 14:54:10.496736,-186
2021-12-23 14:54:10.496741,-193
2021-12-23 14:54:10.496745,-181
2021-12-23 14:54:10.496749,-157
2021-12-23 14:54:10.496754,-148
2021-12-23 14:54:10.496758,-141
2021-12-23 14:54:10.496762,-138
2021-12-23 14:54:10.496767,-169
2021-12-23 14:54:10.496771,-184
2021-12-23 14:54:10.496775,-169
2021-12-23 14:54:10.496780,-160
2021-12-23 14:54:10.496784,-124
2021-12-23 14:54:10.496788,-107
2021-12-23 14:54:10.496793,-138
2021-12-23 14:54:10.496797,-117
2021-12-23 14:54:10.496801,-69
2021-12-23 14:54:10.496806,-88
2021-12-23 14:54:10.496810,-112
2021-12-23 14:54:10.496814,-98
2021-12-23 14:54:10.496819,-93
2021-12-23 14:54:10.496823,-83
2021-12-23 14:54:10.496827,-64
2021-12-23 14:54:10.496831,-81
2021-12-23 14:54:10.496836,-95
2021-12-23 14:54:10.496840,-74
2021-12-23 14:54:10.496844,-59
2021-12-23 14:54:10.496849,-62
2021-12-23 14:54:10.496856,-88
2021-12-23 14:54:10.721901,-21
2021-12-23 14:54:10.721921,334
2021-12-23 14:54:10.721928,712
2021-12-23 14:54:10.721934,693
2021-12-23 14:54:10.721940,289
2021-12-23 14:54:10.721945,-210
2021-12-23 14:54:10.721951,-282
2021-12-23 14:54:10.721956,16
2021-12-23 14:54:10.721962,14
2021-12-23 14:54:10.721967,-136
2021-12-23 14:54:10.721973,-57
2021-12-23 14:54:10.721979,7
2021-12-23 14:54:10.721984,-16
2021-12-23 14:54:10.721990,0
2021-12-23 14:54:10.721995,-2
2021-12-23 14:54:10.722000,-28
2021-12-23 14:54:10.722005,4
2021-12-23 14:54:10.722010,55
2021-12-23 14:54:10.722016,71
2021-12-23 14:54:10.722021,81
2021-12-23 14:54:10.722026,95
2021-12-23 14:54:10.722031,112
2021-12-23 14:54:10.722036,143
2021-12-23 14:54:10.722041,186
2021-12-23 14:54:10.722046,227
2021-12-23 14:54:10.722051,258
2021-12-23 14:54:10.722056,265
2021-12-23 14:54:10.722061,272
2021-12-23 14:54:10.722066,308
2021-12-23 14:54:10.722071,342
2021-12-23 14:54:10.946675,351
2021-12-23 14:54:10.946692,344
2021-12-23 14:54:10.946698,320
2021-12-23 14:54:10.946703,265
2021-12-23 14:54:10.946708,186
2021-12-23 14:54:10.946714,98
2021-12-23 14:54:10.946719,-19
2021-12-23 14:54:10.946724,-148
2021-12-23 14:54:10.946729,-215
2021-12-23 14:54:10.946734,-215
2021-12-23 14:54:10.946739,-215
2021-12-23 14:54:10.946745,-227
2021-12-23 14:54:10.946750,-234
2021-12-23 14:54:10.946755,-246
2021-12-23 14:54:10.946760,-251
2021-12-23 14:54:10.946765,-227
2021-12-23 14:54:10.946770,-198
2021-12-23 14:54:10.946775,-179
2021-12-23 14:54:10.946780,-169
2021-12-23 14:54:10.946785,-169
2021-12-23 14:54:10.946790,-169
2021-12-23 14:54:10.946796,-155
2021-12-23 14:54:10.946801,-136
2021-12-23 14:54:10.946806,-119
2021-12-23 14:54:10.946811,-110
2021-12-23 14:54:10.946816,-107
2021-12-23 14:54:10.946821,-98
2021-12-23 14:54:10.946826,-90
2021-12-23 14:54:10.946831,-105
2021-12-23 14:54:10.946836,-110
2021-12-23 14:54:11.217115,-90
2021-12-23 14:54:11.217142,-83
2021-12-23 14:54:11.217155,-93
2021-12-23 14:54:11.217167,-105
2021-12-23 14:54:11.217178,-107
2021-12-23 14:54:11.217190,-110
2021-12-23 14:54:11.217202,-143
2021-12-23 14:54:11.217213,-172
2021-12-23 14:54:11.217225,-160
2021-12-23 14:54:11.217264,-145
2021-12-23 14:54:11.217278,-138
2021-12-23 14:54:11.217286,-124
2021-12-23 14:54:11.217293,-136
2021-12-23 14:54:11.217299,-167
2021-12-23 14:54:11.217306,-165
2021-12-23 14:54:11.217312,-143
2021-12-23 14:54:11.217318,-131
2021-12-23 14:54:11.217325,-102
2021-12-23 14:54:11.217331,-74
2021-12-23 14:54:11.217337,-74
2021-12-23 14:54:11.217344,-78
2021-12-23 14:54:11.217350,-76
2021-12-23 14:54:11.217357,-74
2021-12-23 14:54:11.217363,-71
2021-12-23 14:54:11.217369,-78
2021-12-23 14:54:11.217376,-76
2021-12-23 14:54:11.217382,-62
2021-12-23 14:54:11.217388,-59
2021-12-23 14:54:11.217395,-55
2021-12-23 14:54:11.217401,-50
2021-12-23 14:54:11.440975,-90
2021-12-23 14:54:11.440991,-124
2021-12-23 14:54:11.440997,-105
2021-12-23 14:54:11.441002,-117
2021-12-23 14:54:11.441007,-162
2021-12-23 14:54:11.441013,-14
2021-12-23 14:54:11.441018,385
2021-12-23 14:54:11.441023,681
2021-12-23 14:54:11.441028,610
2021-12-23 14:54:11.441033,143
2021-12-23 14:54:11.441038,-337
2021-12-23 14:54:11.441043,-248
2021-12-23 14:54:11.441048,4
2021-12-23 14:54:11.441053,-117
2021-12-23 14:54:11.441059,-200
2021-12-23 14:54:11.441064,-98
2021-12-23 14:54:11.441070,-86
2021-12-23 14:54:11.441075,-124
2021-12-23 14:54:11.441081,-112
2021-12-23 14:54:11.441086,-81
2021-12-23 14:54:11.441091,-64
2021-12-23 14:54:11.441096,-40
2021-12-23 14:54:11.441101,14
2021-12-23 14:54:11.441106,62
2021-12-23 14:54:11.441111,69
2021-12-23 14:54:11.441117,86
2021-12-23 14:54:11.441122,122
2021-12-23 14:54:11.441127,138
2021-12-23 14:54:11.441132,165
2021-12-23 14:54:11.441137,200
2021-12-23 14:54:11.710561,222
2021-12-23 14:54:11.710582,251
2021-12-23 14:54:11.710589,267
2021-12-23 14:54:11.710596,260
2021-12-23 14:54:11.710602,277
2021-12-23 14:54:11.710609,284
2021-12-23 14:54:11.710615,260
2021-12-23 14:54:11.710621,246
2021-12-23 14:54:11.710627,215
2021-12-23 14:54:11.710634,131
2021-12-23 14:54:11.710640,35
2021-12-23 14:54:11.710646,-55
2021-12-23 14:54:11.710653,-124
2021-12-23 14:54:11.710659,-145
2021-12-23 14:54:11.710665,-145
2021-12-23 14:54:11.710672,-160
2021-12-23 14:54:11.710678,-162
2021-12-23 14:54:11.710684,-157
2021-12-23 14:54:11.710690,-145
2021-12-23 14:54:11.710697,-122
2021-12-23 14:54:11.710703,-107
2021-12-23 14:54:11.710709,-107
2021-12-23 14:54:11.710715,-102
2021-12-23 14:54:11.710722,-93
2021-12-23 14:54:11.710728,-81
2021-12-23 14:54:11.710734,-64
2021-12-23 14:54:11.710740,-55
2021-12-23 14:54:11.710746,-57
2021-12-23 14:54:11.710753,-55
2021-12-23 14:54:11.710759,-59
2021-12-23 14:54:11.846711,-71
2021-12-23 14:54:11.846726,-71
2021-12-23 14:54:11.846737,-66
2021-12-23 14:54:11.846743,-62
2021-12-23 14:54:11.846748,-69
2021-12-23 14:54:11.846753,-76
2021-12-23 14:54:11.846758,-59
2021-12-23 14:54:11.846763,-40
2021-12-23 14:54:11.846768,-40
2021-12-23 14:54:11.846801,-50
2021-12-23 14:54:11.846815,-71
2021-12-23 14:54:11.846821,-90
2021-12-23 14:54:11.846826,-71
2021-12-23 14:54:11.846831,-45
2021-12-23 14:54:11.846836,-45
2021-12-23 14:54:11.846841,-57
2021-12-23 14:54:11.846846,-78
2021-12-23 14:54:11.846852,-114
2021-12-23 14:54:11.846857,-141
2021-12-23 14:54:11.846862,-141
2021-12-23 14:54:11.846867,-122
2021-12-23 14:54:11.846872,-131
2021-12-23 14:54:11.846877,-165
2021-12-23 14:54:11.846882,-160
2021-12-23 14:54:11.846888,-145
2021-12-23 14:54:11.846893,-153
2021-12-23 14:54:11.846898,-143
2021-12-23 14:54:11.846903,-138
2021-12-23 14:54:11.846908,-153
2021-12-23 14:54:11.846913,-143
2021-12-23 14:54:12.071984,-114
2021-12-23 14:54:12.072004,-105
2021-12-23 14:54:12.072010,-105
2021-12-23 14:54:12.072015,-122
2021-12-23 14:54:12.072020,-150
2021-12-23 14:54:12.072026,-148
2021-12-23 14:54:12.072031,-138
2021-12-23 14:54:12.072036,-145
2021-12-23 14:54:12.072041,-141
2021-12-23 14:54:12.072046,-145
2021-12-23 14:54:12.072051,-172
2021-12-23 14:54:12.072056,-153
2021-12-23 14:54:12.072061,-112
2021-12-23 14:54:12.072066,-105
2021-12-23 14:54:12.072071,-107
2021-12-23 14:54:12.072076,-107
2021-12-23 14:54:12.072081,-107
2021-12-23 14:54:12.072086,-86
2021-12-23 14:54:12.072091,-57
2021-12-23 14:54:12.072096,-47
2021-12-23 14:54:12.072101,-47
2021-12-23 14:54:12.072107,-62
2021-12-23 14:54:12.072112,-66
2021-12-23 14:54:12.072117,-43
2021-12-23 14:54:12.072122,-9
2021-12-23 14:54:12.072127,14
2021-12-23 14:54:12.072132,28
2021-12-23 14:54:12.072137,11
2021-12-23 14:54:12.072163,-4
2021-12-23 14:54:12.072169,16
2021-12-23 14:54:12.341768,28
2021-12-23 14:54:12.341787,19
2021-12-23 14:54:12.341793,4
2021-12-23 14:54:12.341798,-35
2021-12-23 14:54:12.341804,-52
2021-12-23 14:54:12.341809,-14
2021-12-23 14:54:12.341814,7
2021-12-23 14:54:12.341819,-2
2021-12-23 14:54:12.341824,-31
2021-12-23 14:54:12.341829,-81
2021-12-23 14:54:12.341835,-88
2021-12-23 14:54:12.341840,-81
2021-12-23 14:54:12.341845,-129
2021-12-23 14:54:12.341850,-38
2021-12-23 14:54:12.341855,356
2021-12-23 14:54:12.341860,770
2021-12-23 14:54:12.341865,873
2021-12-23 14:54:12.341870,509
2021-12-23 14:54:12.341876,-112
2021-12-23 14:54:12.341881,-232
2021-12-23 14:54:12.341886,62
2021-12-23 14:54:12.341891,21
2021-12-23 14:54:12.341896,-133
2021-12-23 14:54:12.341901,-86
2021-12-23 14:54:12.341906,-76
2021-12-23 14:54:12.341911,-102
2021-12-23 14:54:12.341916,-66
2021-12-23 14:54:12.341921,-55
2021-12-23 14:54:12.341926,-50
2021-12-23 14:54:12.341931,-9
2021-12-23 14:54:12.567123,21
2021-12-23 14:54:12.567140,31
2021-12-23 14:54:12.567146,38
2021-12-23 14:54:12.567151,45
2021-12-23 14:54:12.567157,71
2021-12-23 14:54:12.567162,112
2021-12-23 14:54:12.567167,141
2021-12-23 14:54:12.567172,160
2021-12-23 14:54:12.567177,155
2021-12-23 14:54:12.567182,148
2021-12-23 14:54:12.567187,167
2021-12-23 14:54:12.567192,189
2021-12-23 14:54:12.567197,208
2021-12-23 14:54:12.567202,224
2021-12-23 14:54:12.567207,203
2021-12-23 14:54:12.567212,174
2021-12-23 14:54:12.567218,177
2021-12-23 14:54:12.567223,160
2021-12-23 14:54:12.567228,100
2021-12-23 14:54:12.567233,28
2021-12-23 14:54:12.567238,-38
2021-12-23 14:54:12.567243,-95
2021-12-23 14:54:12.567249,-119
2021-12-23 14:54:12.567254,-117
2021-12-23 14:54:12.567259,-117
2021-12-23 14:54:12.567264,-119
2021-12-23 14:54:12.567269,-119
2021-12-23 14:54:12.567274,-122
2021-12-23 14:54:12.567279,-131
2021-12-23 14:54:12.567285,-126
2021-12-23 14:54:12.835990,-107
2021-12-23 14:54:12.836006,-100
2021-12-23 14:54:12.836012,-107
2021-12-23 14:54:12.836017,-105
2021-12-23 14:54:12.836022,-86
2021-12-23 14:54:12.836027,-69
2021-12-23 14:54:12.836032,-62
2021-12-23 14:54:12.836037,-76
2021-12-23 14:54:12.836042,-102
2021-12-23 14:54:12.836047,-98
2021-12-23 14:54:12.836052,-69
2021-12-23 14:54:12.836057,-59
2021-12-23 14:54:12.836062,-81
2021-12-23 14:54:12.836067,-122
2021-12-23 14:54:12.836072,-141
2021-12-23 14:54:12.836077,-119
2021-12-23 14:54:12.836082,-98
2021-12-23 14:54:12.836087,-86
2021-12-23 14:54:12.836092,-78
2021-12-23 14:54:12.836097,-93
2021-12-23 14:54:12.836102,-119
2021-12-23 14:54:12.836106,-122
2021-12-23 14:54:12.836111,-124
2021-12-23 14:54:12.836117,-126
2021-12-23 14:54:12.836122,-117
2021-12-23 14:54:12.836127,-119
2021-12-23 14:54:12.836132,-124
2021-12-23 14:54:12.836137,-114
2021-12-23 14:54:12.836142,-105
2021-12-23 14:54:12.836147,-126
2021-12-23 14:54:13.016693,-167
2021-12-23 14:54:13.016715,-172
2021-12-23 14:54:13.016723,-145
2021-12-23 14:54:13.016730,-136
2021-12-23 14:54:13.016736,-129
2021-12-23 14:54:13.016743,-110
2021-12-23 14:54:13.016747,-114
2021-12-23 14:54:13.016752,-145
2021-12-23 14:54:13.016756,-143
2021-12-23 14:54:13.016761,-119
2021-12-23 14:54:13.016783,-105
2021-12-23 14:54:13.016800,-95
2021-12-23 14:54:13.016809,-100
2021-12-23 14:54:13.016818,-129
2021-12-23 14:54:13.016824,-141
2021-12-23 14:54:13.016831,-143
2021-12-23 14:54:13.016841,-133
2021-12-23 14:54:13.016850,-110
2021-12-23 14:54:13.016857,-105
2021-12-23 14:54:13.016865,-112
2021-12-23 14:54:13.016873,-98
2021-12-23 14:54:13.016877,-81
2021-12-23 14:54:13.016882,-74
2021-12-23 14:54:13.016886,-62
2021-12-23 14:54:13.016893,-59
2021-12-23 14:54:13.016901,-62
2021-12-23 14:54:13.016909,-52
2021-12-23 14:54:13.016926,-40
2021-12-23 14:54:13.016934,-21
2021-12-23 14:54:13.016942,11
2021-12-23 14:54:13.286710,23
2021-12-23 14:54:13.286732,7
2021-12-23 14:54:13.286743,9
2021-12-23 14:54:13.286752,11
2021-12-23 14:54:13.286761,9
2021-12-23 14:54:13.286770,0
2021-12-23 14:54:13.286779,-35
2021-12-23 14:54:13.286787,-55
2021-12-23 14:54:13.286796,-28
2021-12-23 14:54:13.286804,-14
2021-12-23 14:54:13.286812,-14
2021-12-23 14:54:13.286821,-11
2021-12-23 14:54:13.286829,-31
2021-12-23 14:54:13.286837,-38
2021-12-23 14:54:13.286845,-19
2021-12-23 14:54:13.286854,-50
2021-12-23 14:54:13.286862,-136
2021-12-23 14:54:13.286870,-52
2021-12-23 14:54:13.286878,344
2021-12-23 14:54:13.286886,770
2021-12-23 14:54:13.286895,868
2021-12-23 14:54:13.286903,456
2021-12-23 14:54:13.286912,-160
2021-12-23 14:54:13.286920,-232
2021-12-23 14:54:13.286928,57
2021-12-23 14:54:13.286936,19
2021-12-23 14:54:13.286945,-110
2021-12-23 14:54:13.286953,-45
2021-12-23 14:54:13.286961,-14
2021-12-23 14:54:13.286970,-45
2021-12-23 14:54:13.511022,-23
2021-12-23 14:54:13.511041,14
2021-12-23 14:54:13.511047,21
2021-12-23 14:54:13.511051,26
2021-12-23 14:54:13.511056,38
2021-12-23 14:54:13.511061,23
2021-12-23 14:54:13.511067,9
2021-12-23 14:54:13.511071,47
2021-12-23 14:54:13.511076,90
2021-12-23 14:54:13.511081,98
2021-12-23 14:54:13.511086,110
2021-12-23 14:54:13.511091,124
2021-12-23 14:54:13.511096,133
2021-12-23 14:54:13.511101,179
2021-12-23 14:54:13.511106,222
2021-12-23 14:54:13.511111,236
2021-12-23 14:54:13.511116,246
2021-12-23 14:54:13.511121,239
2021-12-23 14:54:13.511126,217
2021-12-23 14:54:13.511131,200
2021-12-23 14:54:13.511135,181
2021-12-23 14:54:13.511140,136
2021-12-23 14:54:13.511145,66
2021-12-23 14:54:13.511150,-4
2021-12-23 14:54:13.511155,-66
2021-12-23 14:54:13.511159,-122
2021-12-23 14:54:13.511164,-165
2021-12-23 14:54:13.511170,-181
2021-12-23 14:54:13.511175,-184
2021-12-23 14:54:13.511180,-181
2021-12-23 14:54:13.780583,-165
2021-12-23 14:54:13.780601,-145
2021-12-23 14:54:13.780607,-136
2021-12-23 14:54:13.780612,-133
2021-12-23 14:54:13.780617,-141
2021-12-23 14:54:13.780622,-160
2021-12-23 14:54:13.780628,-148
2021-12-23 14:54:13.780633,-114
2021-12-23 14:54:13.780638,-107
2021-12-23 14:54:13.780643,-117
2021-12-23 14:54:13.780648,-129
2021-12-23 14:54:13.780653,-141
2021-12-23 14:54:13.780658,-122
2021-12-23 14:54:13.780663,-88
2021-12-23 14:54:13.780668,-81
2021-12-23 14:54:13.780673,-88
2021-12-23 14:54:13.780678,-107
2021-12-23 14:54:13.780683,-129
2021-12-23 14:54:13.780688,-119
2021-12-23 14:54:13.780693,-112
2021-12-23 14:54:13.780697,-145
2021-12-23 14:54:13.780702,-177
2021-12-23 14:54:13.780707,-177
2021-12-23 14:54:13.780712,-160
2021-12-23 14:54:13.780717,-138
2021-12-23 14:54:13.780722,-119
2021-12-23 14:54:13.780727,-112
2021-12-23 14:54:13.780732,-119
2021-12-23 14:54:13.780738,-126
2021-12-23 14:54:13.780743,-114
2021-12-23 14:54:13.961015,-90
2021-12-23 14:54:13.961031,-78
2021-12-23 14:54:13.961036,-78
2021-12-23 14:54:13.961041,-95
2021-12-23 14:54:13.961045,-124
2021-12-23 14:54:13.961049,-122
2021-12-23 14:54:13.961054,-83
2021-12-23 14:54:13.961058,-64
2021-12-23 14:54:13.961062,-64
2021-12-23 14:54:13.961067,-69
2021-12-23 14:54:13.961071,-88
2021-12-23 14:54:13.961075,-119
2021-12-23 14:54:13.961080,-107
2021-12-23 14:54:13.961084,-69
2021-12-23 14:54:13.961088,-64
2021-12-23 14:54:13.961093,-95
2021-12-23 14:54:13.961097,-117
2021-12-23 14:54:13.961101,-98
2021-12-23 14:54:13.961106,-64
2021-12-23 14:54:13.961110,-55
2021-12-23 14:54:13.961114,-52
2021-12-23 14:54:13.961119,-55
2021-12-23 14:54:13.961123,-74
2021-12-23 14:54:13.961131,-83
2021-12-23 14:54:13.961135,-71
2021-12-23 14:54:13.961140,-50
2021-12-23 14:54:13.961144,-43
2021-12-23 14:54:13.961148,-57
2021-12-23 14:54:13.961153,-57
2021-12-23 14:54:13.961157,-38
2021-12-23 14:54:14.186758,-19
2021-12-23 14:54:14.186773,-7
2021-12-23 14:54:14.186778,-7
2021-12-23 14:54:14.186783,-28
2021-12-23 14:54:14.186787,-33
2021-12-23 14:54:14.186791,-7
2021-12-23 14:54:14.186796,11
2021-12-23 14:54:14.186800,16
2021-12-23 14:54:14.186804,7
2021-12-23 14:54:14.186809,-28
2021-12-23 14:54:14.186813,-40
2021-12-23 14:54:14.186817,-7
2021-12-23 14:54:14.186822,11
2021-12-23 14:54:14.186826,11
2021-12-23 14:54:14.186830,11
2021-12-23 14:54:14.186835,0
2021-12-23 14:54:14.186839,-4
2021-12-23 14:54:14.186843,11
2021-12-23 14:54:14.186848,23
2021-12-23 14:54:14.186852,38
2021-12-23 14:54:14.186856,59
2021-12-23 14:54:14.186861,59
2021-12-23 14:54:14.186865,52
2021-12-23 14:54:14.186869,57
2021-12-23 14:54:14.186873,52
2021-12-23 14:54:14.186878,23
2021-12-23 14:54:14.186882,2
2021-12-23 14:54:14.186886,-4
2021-12-23 14:54:14.186891,-2
2021-12-23 14:54:14.186895,11
2021-12-23 14:54:14.411547,26
2021-12-23 14:54:14.411564,31
2021-12-23 14:54:14.411570,19
2021-12-23 14:54:14.411574,-14
2021-12-23 14:54:14.411579,-21
2021-12-23 14:54:14.411583,0
2021-12-23 14:54:14.411588,-9
2021-12-23 14:54:14.411592,-83
2021-12-23 14:54:14.411596,-93
2021-12-23 14:54:14.411601,177
2021-12-23 14:54:14.411605,641
2021-12-23 14:54:14.411612,921
2021-12-23 14:54:14.411617,708
2021-12-23 14:54:14.411624,35
2021-12-23 14:54:14.411629,-334
2021-12-23 14:54:14.411633,-83
2021-12-23 14:54:14.411638,-14
2021-12-23 14:54:14.411642,-229
2021-12-23 14:54:14.411646,-193
2021-12-23 14:54:14.411650,-93
2021-12-23 14:54:14.411655,-143
2021-12-23 14:54:14.411659,-153
2021-12-23 14:54:14.411663,-81
2021-12-23 14:54:14.411667,-57
2021-12-23 14:54:14.411672,-64
2021-12-23 14:54:14.411676,-57
2021-12-23 14:54:14.411680,-59
2021-12-23 14:54:14.411685,-90
2021-12-23 14:54:14.411691,-88
2021-12-23 14:54:14.411696,-38
2021-12-23 14:54:14.681023,-4
2021-12-23 14:54:14.681040,4
2021-12-23 14:54:14.681046,16
2021-12-23 14:54:14.681050,38
2021-12-23 14:54:14.681055,74
2021-12-23 14:54:14.681059,119
2021-12-23 14:54:14.681064,153
2021-12-23 14:54:14.681069,150
2021-12-23 14:54:14.681073,131
2021-12-23 14:54:14.681077,136
2021-12-23 14:54:14.681082,157
2021-12-23 14:54:14.681086,160
2021-12-23 14:54:14.681091,136
2021-12-23 14:54:14.681095,66
2021-12-23 14:54:14.681100,-31
2021-12-23 14:54:14.681104,-88
2021-12-23 14:54:14.681108,-100
2021-12-23 14:54:14.681113,-126
2021-12-23 14:54:14.681117,-160
2021-12-23 14:54:14.681121,-189
2021-12-23 14:54:14.681126,-203
2021-12-23 14:54:14.681130,-174
2021-12-23 14:54:14.681135,-138
2021-12-23 14:54:14.681139,-131
2021-12-23 14:54:14.681143,-136
2021-12-23 14:54:14.681177,-129
2021-12-23 14:54:14.681182,-117
2021-12-23 14:54:14.681186,-81
2021-12-23 14:54:14.681190,-69
2021-12-23 14:54:14.681195,-100
2021-12-23 14:54:14.861678,-110
2021-12-23 14:54:14.861695,-93
2021-12-23 14:54:14.861700,-93
2021-12-23 14:54:14.861704,-90
2021-12-23 14:54:14.861709,-74
2021-12-23 14:54:14.861713,-59
2021-12-23 14:54:14.861718,-71
2021-12-23 14:54:14.861722,-102
2021-12-23 14:54:14.861726,-105
2021-12-23 14:54:14.861731,-69
2021-12-23 14:54:14.861735,-57
2021-12-23 14:54:14.861740,-57
2021-12-23 14:54:14.861744,-64
2021-12-23 14:54:14.861748,-90
2021-12-23 14:54:14.861753,-93
2021-12-23 14:54:14.861757,-74
2021-12-23 14:54:14.861761,-74
2021-12-23 14:54:14.861766,-66
2021-12-23 14:54:14.861770,-55
2021-12-23 14:54:14.861774,-47
2021-12-23 14:54:14.861779,-43
2021-12-23 14:54:14.861783,-69
2021-12-23 14:54:14.861787,-117
2021-12-23 14:54:14.861792,-131
2021-12-23 14:54:14.861796,-114
2021-12-23 14:54:14.861800,-90
2021-12-23 14:54:14.861805,-69
2021-12-23 14:54:14.861809,-64
2021-12-23 14:54:14.861820,-55
2021-12-23 14:54:14.861824,-33
2021-12-23 14:54:15.131750,-35
2021-12-23 14:54:15.131768,-62
2021-12-23 14:54:15.131774,-69
2021-12-23 14:54:15.131779,-55
2021-12-23 14:54:15.131784,-40
2021-12-23 14:54:15.131789,-40
2021-12-23 14:54:15.131794,-81
2021-12-23 14:54:15.131799,-117
2021-12-23 14:54:15.131804,-95
2021-12-23 14:54:15.131809,-71
2021-12-23 14:54:15.131814,-76
2021-12-23 14:54:15.131819,-86
2021-12-23 14:54:15.131824,-110
2021-12-23 14:54:15.131829,-110
2021-12-23 14:54:15.131833,-74
2021-12-23 14:54:15.131838,-71
2021-12-23 14:54:15.131843,-81
2021-12-23 14:54:15.131848,-71
2021-12-23 14:54:15.131853,-69
2021-12-23 14:54:15.131858,-62
2021-12-23 14:54:15.131863,-45
2021-12-23 14:54:15.131868,-50
2021-12-23 14:54:15.131873,-45
2021-12-23 14:54:15.131878,-31
2021-12-23 14:54:15.131883,-26
2021-12-23 14:54:15.131888,-11
2021-12-23 14:54:15.131893,-9
2021-12-23 14:54:15.131898,-23
2021-12-23 14:54:15.131903,-38
2021-12-23 14:54:15.131908,-59
2021-12-23 14:54:15.356774,-76
2021-12-23 14:54:15.356792,-71
2021-12-23 14:54:15.356797,-95
2021-12-23 14:54:15.356802,-148
2021-12-23 14:54:15.356806,-145
2021-12-23 14:54:15.356810,-112
2021-12-23 14:54:15.356814,-105
2021-12-23 14:54:15.356819,-74
2021-12-23 14:54:15.356823,-57
2021-12-23 14:54:15.356828,-86
2021-12-23 14:54:15.356832,-90
2021-12-23 14:54:15.356836,-95
2021-12-23 14:54:15.356841,-136
2021-12-23 14:54:15.356845,-126
2021-12-23 14:54:15.356849,-95
2021-12-23 14:54:15.356854,-112
2021-12-23 14:54:15.356858,-110
2021-12-23 14:54:15.356862,-105
2021-12-23 14:54:15.356867,-133
2021-12-23 14:54:15.356871,-122
2021-12-23 14:54:15.356876,-86
2021-12-23 14:54:15.356891,-95
2021-12-23 14:54:15.356896,-141
2021-12-23 14:54:15.356900,-184
2021-12-23 14:54:15.356905,-50
2021-12-23 14:54:15.356909,344
2021-12-23 14:54:15.356913,720
2021-12-23 14:54:15.356918,758
2021-12-23 14:54:15.356922,272
2021-12-23 14:54:15.356926,-325
2021-12-23 14:54:15.536806,-282
2021-12-23 14:54:15.536824,16
2021-12-23 14:54:15.536830,-86
2021-12-23 14:54:15.536836,-217
2021-12-23 14:54:15.536841,-129
2021-12-23 14:54:15.536846,-105
2021-12-23 14:54:15.536851,-150
2021-12-23 14:54:15.536856,-110
2021-12-23 14:54:15.536862,-66
2021-12-23 14:54:15.536867,-78
2021-12-23 14:54:15.536872,-78
2021-12-23 14:54:15.536877,-83
2021-12-23 14:54:15.536882,-81
2021-12-23 14:54:15.536887,-14
2021-12-23 14:54:15.536894,33
2021-12-23 14:54:15.536899,14
2021-12-23 14:54:15.536904,-2
2021-12-23 14:54:15.536909,16
2021-12-23 14:54:15.536914,43
2021-12-23 14:54:15.536920,83
2021-12-23 14:54:15.536925,138
2021-12-23 14:54:15.536930,160
2021-12-23 14:54:15.536935,153
2021-12-23 14:54:15.536940,169
2021-12-23 14:54:15.536945,189
2021-12-23 14:54:15.536950,205
2021-12-23 14:54:15.536955,217
2021-12-23 14:54:15.536960,167
2021-12-23 14:54:15.536965,98
2021-12-23 14:54:15.536970,66
2021-12-23 14:54:15.895323,31
2021-12-23 14:54:15.895340,-19
2021-12-23 14:54:15.895345,-62
2021-12-23 14:54:15.895350,-129
2021-12-23 14:54:15.895354,-196
2021-12-23 14:54:15.895376,-191
2021-12-23 14:54:15.895386,-160
2021-12-23 14:54:15.895396,-179
2021-12-23 14:54:15.895406,-193
2021-12-23 14:54:15.895416,-215
2021-12-23 14:54:15.895426,-267
2021-12-23 14:54:15.895435,-256
2021-12-23 14:54:15.895445,-200
2021-12-23 14:54:15.895455,-189
2021-12-23 14:54:15.895465,-208
2021-12-23 14:54:15.895475,-210
2021-12-23 14:54:15.895485,-186
2021-12-23 14:54:15.895495,-155
2021-12-23 14:54:15.895504,-153
2021-12-23 14:54:15.895514,-165
2021-12-23 14:54:15.895524,-136
2021-12-23 14:54:15.895533,-122
2021-12-23 14:54:15.895543,-160
2021-12-23 14:54:15.895553,-184
2021-12-23 14:54:15.895645,-143
2021-12-23 14:54:15.895653,-81
2021-12-23 14:54:15.895658,-78
2021-12-23 14:54:15.895663,-124
2021-12-23 14:54:15.895667,-124
2021-12-23 14:54:15.895671,-88
2021-12-23 14:54:16.031667,-83
2021-12-23 14:54:16.031685,-95
2021-12-23 14:54:16.031690,-155
2021-12-23 14:54:16.031694,-258
2021-12-23 14:54:16.031699,-248
2021-12-23 14:54:16.031703,-153
2021-12-23 14:54:16.031708,-143
2021-12-23 14:54:16.031712,-174
2021-12-23 14:54:16.031717,-172
2021-12-23 14:54:16.031721,-229
2021-12-23 14:54:16.031726,-318
2021-12-23 14:54:16.031730,-313
2021-12-23 14:54:16.031734,-265
2021-12-23 14:54:16.031739,-232
2021-12-23 14:54:16.031743,-232
2021-12-23 14:54:16.031747,-277
2021-12-23 14:54:16.031752,-282
2021-12-23 14:54:16.031759,-236
2021-12-23 14:54:16.031764,-227
2021-12-23 14:54:16.031768,-220
2021-12-23 14:54:16.031773,-220
2021-12-23 14:54:16.031777,-256
2021-12-23 14:54:16.031781,-253
2021-12-23 14:54:16.031786,-179
2021-12-23 14:54:16.031790,-110
2021-12-23 14:54:16.031795,-105
2021-12-23 14:54:16.031799,-138
2021-12-23 14:54:16.031804,-177
2021-12-23 14:54:16.031810,-169
2021-12-23 14:54:16.031815,-138
2021-12-23 14:54:16.301758,-114
2021-12-23 14:54:16.301777,-78
2021-12-23 14:54:16.301783,-47
2021-12-23 14:54:16.301787,-55
2021-12-23 14:54:16.301792,-59
2021-12-23 14:54:16.301796,-35
2021-12-23 14:54:16.301800,-21
2021-12-23 14:54:16.301804,-31
2021-12-23 14:54:16.301809,-69
2021-12-23 14:54:16.301813,-117
2021-12-23 14:54:16.301817,-122
2021-12-23 14:54:16.301822,-126
2021-12-23 14:54:16.301826,-141
2021-12-23 14:54:16.301830,-124
2021-12-23 14:54:16.301834,-143
2021-12-23 14:54:16.301838,-191
2021-12-23 14:54:16.301843,-145
2021-12-23 14:54:16.301847,-81
2021-12-23 14:54:16.301851,-112
2021-12-23 14:54:16.301855,-95
2021-12-23 14:54:16.301860,155
2021-12-23 14:54:16.301864,495
2021-12-23 14:54:16.301868,650
2021-12-23 14:54:16.301873,507
2021-12-23 14:54:16.301877,28
2021-12-23 14:54:16.301881,-291
2021-12-23 14:54:16.301885,-66
2021-12-23 14:54:16.301890,74
2021-12-23 14:54:16.301894,-55
2021-12-23 14:54:16.301898,-26
2021-12-23 14:54:16.481550,64
2021-12-23 14:54:16.481564,43
2021-12-23 14:54:16.481569,31
2021-12-23 14:54:16.481574,78
2021-12-23 14:54:16.481578,107
2021-12-23 14:54:16.481582,129
2021-12-23 14:54:16.481587,148
2021-12-23 14:54:16.481591,141
2021-12-23 14:54:16.481595,124
2021-12-23 14:54:16.481600,98
2021-12-23 14:54:16.481604,86
2021-12-23 14:54:16.481608,133
2021-12-23 14:54:16.481613,184
2021-12-23 14:54:16.481617,179
2021-12-23 14:54:16.481621,189
2021-12-23 14:54:16.481626,239
2021-12-23 14:54:16.481630,272
2021-12-23 14:54:16.481634,291
2021-12-23 14:54:16.481639,327
2021-12-23 14:54:16.481671,334
2021-12-23 14:54:16.481681,301
2021-12-23 14:54:16.481687,296
2021-12-23 14:54:16.481691,299
2021-12-23 14:54:16.481696,253
2021-12-23 14:54:16.481700,181
2021-12-23 14:54:16.481705,119
2021-12-23 14:54:16.481709,52
2021-12-23 14:54:16.481713,-16
2021-12-23 14:54:16.481718,-59
2021-12-23 14:54:16.481722,-62
2021-12-23 14:54:16.706610,-76
2021-12-23 14:54:16.706626,-107
2021-12-23 14:54:16.706631,-102
2021-12-23 14:54:16.706636,-98
2021-12-23 14:54:16.706640,-119
2021-12-23 14:54:16.706645,-105
2021-12-23 14:54:16.706649,-66
2021-12-23 14:54:16.706653,-43
2021-12-23 14:54:16.706658,-28
2021-12-23 14:54:16.706662,-16
2021-12-23 14:54:16.706666,-4
2021-12-23 14:54:16.706671,14
2021-12-23 14:54:16.706675,14
2021-12-23 14:54:16.706679,-14
2021-12-23 14:54:16.706684,-21
2021-12-23 14:54:16.706688,-23
2021-12-23 14:54:16.706692,-38
2021-12-23 14:54:16.706697,-14
2021-12-23 14:54:16.706701,9
2021-12-23 14:54:16.706705,-23
2021-12-23 14:54:16.706710,-47
2021-12-23 14:54:16.706714,-26
2021-12-23 14:54:16.706719,-19
2021-12-23 14:54:16.706723,-23
2021-12-23 14:54:16.706727,-23
2021-12-23 14:54:16.706732,-21
2021-12-23 14:54:16.706736,-14
2021-12-23 14:54:16.706740,-16
2021-12-23 14:54:16.706745,-23
2021-12-23 14:54:16.706749,-16
2021-12-23 14:54:16.931622,-16
2021-12-23 14:54:16.931638,-23
2021-12-23 14:54:16.931643,-21
2021-12-23 14:54:16.931648,-35
2021-12-23 14:54:16.931652,-35
2021-12-23 14:54:16.931657,0
2021-12-23 14:54:16.931661,2
2021-12-23 14:54:16.931666,-16
2021-12-23 14:54:16.931670,0
2021-12-23 14:54:16.931674,14
2021-12-23 14:54:16.931679,-7
2021-12-23 14:54:16.931683,-57
2021-12-23 14:54:16.931687,-114
2021-12-23 14:54:16.931692,-124
2021-12-23 14:54:16.931696,-145
2021-12-23 14:54:16.931701,-205
2021-12-23 14:54:16.931705,-205
2021-12-23 14:54:16.931709,-184
2021-12-23 14:54:16.931714,-205
2021-12-23 14:54:16.931718,-191
2021-12-23 14:54:16.931722,-148
2021-12-23 14:54:16.931727,-153
2021-12-23 14:54:16.931731,-189
2021-12-23 14:54:16.931735,-114
2021-12-23 14:54:16.931740,189
2021-12-23 14:54:16.931744,512
2021-12-23 14:54:16.931748,583
2021-12-23 14:54:16.931753,306
2021-12-23 14:54:16.931757,-191
2021-12-23 14:54:16.931761,-313
2021-12-23 14:54:17.202012,-26
2021-12-23 14:54:17.202042,11
2021-12-23 14:54:17.202048,-119
2021-12-23 14:54:17.202052,-71
2021-12-23 14:54:17.202057,-11
2021-12-23 14:54:17.202061,-47
2021-12-23 14:54:17.202066,-55
2021-12-23 14:54:17.202070,-9
2021-12-23 14:54:17.202074,21
2021-12-23 14:54:17.202079,14
2021-12-23 14:54:17.202083,9
2021-12-23 14:54:17.202087,14
2021-12-23 14:54:17.202092,21
2021-12-23 14:54:17.202096,45
2021-12-23 14:54:17.202101,78
2021-12-23 14:54:17.202105,110
2021-12-23 14:54:17.202109,150
2021-12-23 14:54:17.202114,203
2021-12-23 14:54:17.202118,251
2021-12-23 14:54:17.202122,279
2021-12-23 14:54:17.202127,279
2021-12-23 14:54:17.202131,270
2021-12-23 14:54:17.202136,263
2021-12-23 14:54:17.202140,260
2021-12-23 14:54:17.202144,244
2021-12-23 14:54:17.202148,212
2021-12-23 14:54:17.202153,174
2021-12-23 14:54:17.202157,102
2021-12-23 14:54:17.202162,14
2021-12-23 14:54:17.202166,-43
2021-12-23 14:54:17.427038,-62
2021-12-23 14:54:17.427058,-81
2021-12-23 14:54:17.427063,-112
2021-12-23 14:54:17.427068,-124
2021-12-23 14:54:17.427072,-126
2021-12-23 14:54:17.427076,-141
2021-12-23 14:54:17.427081,-124
2021-12-23 14:54:17.427085,-59
2021-12-23 14:54:17.427089,-35
2021-12-23 14:54:17.427093,-66
2021-12-23 14:54:17.427098,-95
2021-12-23 14:54:17.427102,-93
2021-12-23 14:54:17.427106,-81
2021-12-23 14:54:17.427111,-86
2021-12-23 14:54:17.427115,-93
2021-12-23 14:54:17.427119,-55
2021-12-23 14:54:17.427123,-43
2021-12-23 14:54:17.427128,-83
2021-12-23 14:54:17.427132,-52
2021-12-23 14:54:17.427136,-9
2021-12-23 14:54:17.427140,-83
2021-12-23 14:54:17.427145,-165
2021-12-23 14:54:17.427149,-177
2021-12-23 14:54:17.427153,-153
2021-12-23 14:54:17.427157,-102
2021-12-23 14:54:17.427162,-76
2021-12-23 14:54:17.427166,-90
2021-12-23 14:54:17.427170,-90
2021-12-23 14:54:17.427174,-81
2021-12-23 14:54:17.427179,-71
2021-12-23 14:54:17.606555,-50
2021-12-23 14:54:17.606588,-45
2021-12-23 14:54:17.606600,-64
2021-12-23 14:54:17.606610,-93
2021-12-23 14:54:17.606620,-110
2021-12-23 14:54:17.606630,-105
2021-12-23 14:54:17.606639,-88
2021-12-23 14:54:17.606649,-76
2021-12-23 14:54:17.606658,-74
2021-12-23 14:54:17.606668,-86
2021-12-23 14:54:17.606678,-88
2021-12-23 14:54:17.606687,-55
2021-12-23 14:54:17.606697,-14
2021-12-23 14:54:17.606707,0
2021-12-23 14:54:17.606716,-2
2021-12-23 14:54:17.606726,-33
2021-12-23 14:54:17.606736,-71
2021-12-23 14:54:17.606745,-62
2021-12-23 14:54:17.606757,-28
2021-12-23 14:54:17.606766,-19
2021-12-23 14:54:17.606776,-33
2021-12-23 14:54:17.606786,-43
2021-12-23 14:54:17.606795,-45
2021-12-23 14:54:17.606806,-59
2021-12-23 14:54:17.606857,-78
2021-12-23 14:54:17.606866,-74
2021-12-23 14:54:17.606871,-81
2021-12-23 14:54:17.606875,-138
2021-12-23 14:54:17.606880,-47
2021-12-23 14:54:17.606884,322
2021-12-23 14:54:17.920419,619
2021-12-23 14:54:17.920435,614
2021-12-23 14:54:17.920441,265
2021-12-23 14:54:17.920445,-287
2021-12-23 14:54:17.920449,-363
2021-12-23 14:54:17.920454,-31
2021-12-23 14:54:17.920458,-26
2021-12-23 14:54:17.920463,-155
2021-12-23 14:54:17.920467,-90
2021-12-23 14:54:17.920471,-71
2021-12-23 14:54:17.920476,-114
2021-12-23 14:54:17.920480,-69
2021-12-23 14:54:17.920484,-31
2021-12-23 14:54:17.920489,-28
2021-12-23 14:54:17.920493,0
2021-12-23 14:54:17.920497,-4
2021-12-23 14:54:17.920502,-28
2021-12-23 14:54:17.920506,-2
2021-12-23 14:54:17.920511,9
2021-12-23 14:54:17.920515,9
2021-12-23 14:54:17.920519,43
2021-12-23 14:54:17.920524,50
2021-12-23 14:54:17.920528,52
2021-12-23 14:54:17.920532,107
2021-12-23 14:54:17.920537,162
2021-12-23 14:54:17.920541,153
2021-12-23 14:54:17.920545,81
2021-12-23 14:54:17.920550,35
2021-12-23 14:54:17.920554,86
2021-12-23 14:54:17.920558,133
2021-12-23 14:54:18.101553,126
2021-12-23 14:54:18.101568,102
2021-12-23 14:54:18.101573,50
2021-12-23 14:54:18.101578,-45
2021-12-23 14:54:18.101582,-126
2021-12-23 14:54:18.101587,-160
2021-12-23 14:54:18.101591,-169
2021-12-23 14:54:18.101596,-193
2021-12-23 14:54:18.101600,-253
2021-12-23 14:54:18.101605,-277
2021-12-23 14:54:18.101609,-224
2021-12-23 14:54:18.101613,-174
2021-12-23 14:54:18.101618,-162
2021-12-23 14:54:18.101622,-167
2021-12-23 14:54:18.101626,-208
2021-12-23 14:54:18.101631,-234
2021-12-23 14:54:18.101635,-177
2021-12-23 14:54:18.101639,-114
2021-12-23 14:54:18.101644,-107
2021-12-23 14:54:18.101648,-119
2021-12-23 14:54:18.101652,-133
2021-12-23 14:54:18.101657,-119
2021-12-23 14:54:18.101661,-71
2021-12-23 14:54:18.101665,-35
2021-12-23 14:54:18.101670,-35
2021-12-23 14:54:18.101674,-52
2021-12-23 14:54:18.101678,-52
2021-12-23 14:54:18.101683,-50
2021-12-23 14:54:18.101687,-57
2021-12-23 14:54:18.101691,-50
2021-12-23 14:54:18.371186,-45
2021-12-23 14:54:18.371202,-62
2021-12-23 14:54:18.371208,-71
2021-12-23 14:54:18.371212,-76
2021-12-23 14:54:18.371217,-83
2021-12-23 14:54:18.371221,-76
2021-12-23 14:54:18.371225,-57
2021-12-23 14:54:18.371230,-69
2021-12-23 14:54:18.371234,-122
2021-12-23 14:54:18.371238,-155
2021-12-23 14:54:18.371242,-136
2021-12-23 14:54:18.371247,-105
2021-12-23 14:54:18.371251,-107
2021-12-23 14:54:18.371255,-136
2021-12-23 14:54:18.371271,-174
2021-12-23 14:54:18.371276,-189
2021-12-23 14:54:18.371280,-162
2021-12-23 14:54:18.371285,-122
2021-12-23 14:54:18.371289,-86
2021-12-23 14:54:18.371294,-100
2021-12-23 14:54:18.371298,-155
2021-12-23 14:54:18.371302,-150
2021-12-23 14:54:18.371307,-88
2021-12-23 14:54:18.371311,-69
2021-12-23 14:54:18.371315,-64
2021-12-23 14:54:18.371320,-33
2021-12-23 14:54:18.371324,-45
2021-12-23 14:54:18.371328,-81
2021-12-23 14:54:18.371333,-52
2021-12-23 14:54:18.371338,0
2021-12-23 14:54:18.595831,-4
2021-12-23 14:54:18.595846,-43
2021-12-23 14:54:18.595851,-83
2021-12-23 14:54:18.595856,-131
2021-12-23 14:54:18.595861,-76
2021-12-23 14:54:18.595865,227
2021-12-23 14:54:18.595870,583
2021-12-23 14:54:18.595874,705
2021-12-23 14:54:18.595878,478
2021-12-23 14:54:18.595883,-112
2021-12-23 14:54:18.595887,-411
2021-12-23 14:54:18.595892,-76
2021-12-23 14:54:18.595896,57
2021-12-23 14:54:18.595900,-153
2021-12-23 14:54:18.595905,-165
2021-12-23 14:54:18.595909,-98
2021-12-23 14:54:18.595914,-126
2021-12-23 14:54:18.595918,-93
2021-12-23 14:54:18.595922,-35
2021-12-23 14:54:18.595927,-21
2021-12-23 14:54:18.595931,0
2021-12-23 14:54:18.595935,-9
2021-12-23 14:54:18.595940,-23
2021-12-23 14:54:18.595944,40
2021-12-23 14:54:18.595948,57
2021-12-23 14:54:18.595953,23
2021-12-23 14:54:18.595957,78
2021-12-23 14:54:18.595961,155
2021-12-23 14:54:18.595966,189
2021-12-23 14:54:18.595970,241
2021-12-23 14:54:18.866036,256
2021-12-23 14:54:18.866052,229
2021-12-23 14:54:18.866057,267
2021-12-23 14:54:18.866062,311
2021-12-23 14:54:18.866066,277
2021-12-23 14:54:18.866070,265
2021-12-23 14:54:18.866075,282
2021-12-23 14:54:18.866079,220
2021-12-23 14:54:18.866083,122
2021-12-23 14:54:18.866088,74
2021-12-23 14:54:18.866092,52
2021-12-23 14:54:18.866096,-19
2021-12-23 14:54:18.866100,-112
2021-12-23 14:54:18.866105,-107
2021-12-23 14:54:18.866109,-98
2021-12-23 14:54:18.866113,-181
2021-12-23 14:54:18.866117,-208
2021-12-23 14:54:18.866122,-145
2021-12-23 14:54:18.866127,-141
2021-12-23 14:54:18.866131,-174
2021-12-23 14:54:18.866135,-160
2021-12-23 14:54:18.866140,-114
2021-12-23 14:54:18.866144,-83
2021-12-23 14:54:18.866148,-88
2021-12-23 14:54:18.866153,-100
2021-12-23 14:54:18.866157,-81
2021-12-23 14:54:18.866161,-69
2021-12-23 14:54:18.866165,-81
2021-12-23 14:54:18.866172,-66
2021-12-23 14:54:18.866180,-47
2021-12-23 14:54:19.091114,-52
2021-12-23 14:54:19.091132,-40
2021-12-23 14:54:19.091137,-11
2021-12-23 14:54:19.091142,-16
2021-12-23 14:54:19.091146,-50
2021-12-23 14:54:19.091151,-83
2021-12-23 14:54:19.091155,-98
2021-12-23 14:54:19.091159,-93
2021-12-23 14:54:19.091163,-138
2021-12-23 14:54:19.091168,-222
2021-12-23 14:54:19.091172,-212
2021-12-23 14:54:19.091176,-143
2021-12-23 14:54:19.091181,-133
2021-12-23 14:54:19.091185,-165
2021-12-23 14:54:19.091189,-205
2021-12-23 14:54:19.091194,-181
2021-12-23 14:54:19.091198,-110
2021-12-23 14:54:19.091202,-136
2021-12-23 14:54:19.091251,-203
2021-12-23 14:54:19.091255,-143
2021-12-23 14:54:19.091259,-76
2021-12-23 14:54:19.091264,-107
2021-12-23 14:54:19.091268,-119
2021-12-23 14:54:19.091272,-112
2021-12-23 14:54:19.091277,-126
2021-12-23 14:54:19.091281,-88
2021-12-23 14:54:19.091285,-43
2021-12-23 14:54:19.091290,-64
2021-12-23 14:54:19.091294,-105
2021-12-23 14:54:19.091298,-100
2021-12-23 14:54:19.226629,-57
2021-12-23 14:54:19.226645,-52
2021-12-23 14:54:19.226651,-95
2021-12-23 14:54:19.226655,-95
2021-12-23 14:54:19.226660,-59
2021-12-23 14:54:19.226664,-93
2021-12-23 14:54:19.226669,-119
2021-12-23 14:54:19.226673,-57
2021-12-23 14:54:19.226681,-57
2021-12-23 14:54:19.226686,-143
2021-12-23 14:54:19.226690,-136
2021-12-23 14:54:19.226695,-98
2021-12-23 14:54:19.226699,-122
2021-12-23 14:54:19.226703,26
2021-12-23 14:54:19.226708,423
2021-12-23 14:54:19.226712,681
2021-12-23 14:54:19.226718,512
2021-12-23 14:54:19.226722,-38
2021-12-23 14:54:19.226747,-421
2021-12-23 14:54:19.226760,-210
2021-12-23 14:54:19.226765,-45
2021-12-23 14:54:19.226770,-181
2021-12-23 14:54:19.226774,-177
2021-12-23 14:54:19.226789,-124
2021-12-23 14:54:19.226795,-122
2021-12-23 14:54:19.226800,-45
2021-12-23 14:54:19.226806,16
2021-12-23 14:54:19.226811,21
2021-12-23 14:54:19.226816,16
2021-12-23 14:54:19.226821,0
2021-12-23 14:54:19.541792,14
2021-12-23 14:54:19.541810,88
2021-12-23 14:54:19.541816,119
2021-12-23 14:54:19.541820,76
2021-12-23 14:54:19.541824,64
2021-12-23 14:54:19.541829,117
2021-12-23 14:54:19.541833,189
2021-12-23 14:54:19.541837,210
2021-12-23 14:54:19.541842,184
2021-12-23 14:54:19.541846,193
2021-12-23 14:54:19.541850,241
2021-12-23 14:54:19.541855,253
2021-12-23 14:54:19.541859,287
2021-12-23 14:54:19.541863,349
2021-12-23 14:54:19.541868,253
2021-12-23 14:54:19.541872,105
2021-12-23 14:54:19.541876,124
2021-12-23 14:54:19.541881,105
2021-12-23 14:54:19.541885,-33
2021-12-23 14:54:19.541890,-74
2021-12-23 14:54:19.541894,-47
2021-12-23 14:54:19.541898,-86
2021-12-23 14:54:19.541903,-174
2021-12-23 14:54:19.541907,-227
2021-12-23 14:54:19.541911,-145
2021-12-23 14:54:19.541915,-83
2021-12-23 14:54:19.541920,-186
2021-12-23 14:54:19.541924,-236
2021-12-23 14:54:19.541929,-141
2021-12-23 14:54:19.541933,-95
2021-12-23 14:54:19.811897,-102
2021-12-23 14:54:19.811913,-33
2021-12-23 14:54:19.811919,-16
2021-12-23 14:54:19.811923,-148
2021-12-23 14:54:19.811928,-157
2021-12-23 14:54:19.811932,-7
2021-12-23 14:54:19.811936,-35
2021-12-23 14:54:19.811941,-133
2021-12-23 14:54:19.811945,-50
2021-12-23 14:54:19.811949,4
2021-12-23 14:54:19.811954,-52
2021-12-23 14:54:19.811958,-81
2021-12-23 14:54:19.811963,-74
2021-12-23 14:54:19.811967,-35
2021-12-23 14:54:19.811971,-21
2021-12-23 14:54:19.811976,-55
2021-12-23 14:54:19.811980,-62
2021-12-23 14:54:19.811984,-95
2021-12-23 14:54:19.811989,-95
2021-12-23 14:54:19.811993,11
2021-12-23 14:54:19.811997,2
2021-12-23 14:54:19.812001,-102
2021-12-23 14:54:19.812006,-57
2021-12-23 14:54:19.812010,19
2021-12-23 14:54:19.812015,-16
2021-12-23 14:54:19.812019,-47
2021-12-23 14:54:19.812023,-7
2021-12-23 14:54:19.812027,19
2021-12-23 14:54:19.812032,-14
2021-12-23 14:54:19.812036,-28
2021-12-23 14:54:20.035420,-9
2021-12-23 14:54:20.035437,-21
2021-12-23 14:54:20.035442,-50
2021-12-23 14:54:20.035447,-76
2021-12-23 14:54:20.035451,-62
2021-12-23 14:54:20.035456,-4
2021-12-23 14:54:20.035460,-7
2021-12-23 14:54:20.035464,-50
2021-12-23 14:54:20.035469,-57
2021-12-23 14:54:20.035473,-76
2021-12-23 14:54:20.035478,-81
2021-12-23 14:54:20.035482,-64
2021-12-23 14:54:20.035487,-88
2021-12-23 14:54:20.035491,-69
2021-12-23 14:54:20.035495,-11
2021-12-23 14:54:20.035500,-28
2021-12-23 14:54:20.035504,-66
2021-12-23 14:54:20.035509,-59
2021-12-23 14:54:20.035514,-45
2021-12-23 14:54:20.035518,-50
2021-12-23 14:54:20.035523,-105
2021-12-23 14:54:20.035527,-165
2021-12-23 14:54:20.035532,-136
2021-12-23 14:54:20.035536,-98
2021-12-23 14:54:20.035540,-117
2021-12-23 14:54:20.035545,-136
2021-12-23 14:54:20.035549,-181
2021-12-23 14:54:20.035554,-212
2021-12-23 14:54:20.035558,-172
2021-12-23 14:54:20.035562,-28
2021-12-23 14:54:20.171577,325
2021-12-23 14:54:20.171593,662
2021-12-23 14:54:20.171598,586
2021-12-23 14:54:20.171603,23
2021-12-23 14:54:20.171607,-557
2021-12-23 14:54:20.171612,-483
2021-12-23 14:54:20.171616,-93
2021-12-23 14:54:20.171620,-114
2021-12-23 14:54:20.171624,-234
2021-12-23 14:54:20.171629,-138
2021-12-23 14:54:20.171633,-71
2021-12-23 14:54:20.171637,-83
2021-12-23 14:54:20.171641,-64
2021-12-23 14:54:20.171646,-50
2021-12-23 14:54:20.171650,-66
2021-12-23 14:54:20.171654,-47
2021-12-23 14:54:20.171659,-4
2021-12-23 14:54:20.171663,31
2021-12-23 14:54:20.171667,59
2021-12-23 14:54:20.171672,64
2021-12-23 14:54:20.171676,74
2021-12-23 14:54:20.171680,107
2021-12-23 14:54:20.171684,136
2021-12-23 14:54:20.171689,181
2021-12-23 14:54:20.171693,244
2021-12-23 14:54:20.171697,260
2021-12-23 14:54:20.171702,277
2021-12-23 14:54:20.171706,311
2021-12-23 14:54:20.171710,325
2021-12-23 14:54:20.171715,344
2021-12-23 14:54:20.396547,368
2021-12-23 14:54:20.396568,358
2021-12-23 14:54:20.396577,318
2021-12-23 14:54:20.396585,263
2021-12-23 14:54:20.396593,224
2021-12-23 14:54:20.396600,150
2021-12-23 14:54:20.396608,31
2021-12-23 14:54:20.396616,-57
2021-12-23 14:54:20.396624,-100
2021-12-23 14:54:20.396633,-98
2021-12-23 14:54:20.396641,-107
2021-12-23 14:54:20.396650,-133
2021-12-23 14:54:20.396658,-114
2021-12-23 14:54:20.396666,-107
2021-12-23 14:54:20.396675,-141
2021-12-23 14:54:20.396683,-157
2021-12-23 14:54:20.396692,-155
2021-12-23 14:54:20.396700,-122
2021-12-23 14:54:20.396708,-86
2021-12-23 14:54:20.396717,-102
2021-12-23 14:54:20.396725,-107
2021-12-23 14:54:20.396733,-71
2021-12-23 14:54:20.396742,-52
2021-12-23 14:54:20.396750,-50
2021-12-23 14:54:20.396757,-43
2021-12-23 14:54:20.396765,-43
2021-12-23 14:54:20.396774,-98
2021-12-23 14:54:20.396782,-160
2021-12-23 14:54:20.396788,-110
2021-12-23 14:54:20.396795,-40
2021-12-23 14:54:20.621654,-69
2021-12-23 14:54:20.621670,-83
2021-12-23 14:54:20.621675,-59
2021-12-23 14:54:20.621680,-69
2021-12-23 14:54:20.621685,-52
2021-12-23 14:54:20.621689,-19
2021-12-23 14:54:20.621694,-57
2021-12-23 14:54:20.621698,-98
2021-12-23 14:54:20.621703,-76
2021-12-23 14:54:20.621707,-50
2021-12-23 14:54:20.621711,-19
2021-12-23 14:54:20.621716,0
2021-12-23 14:54:20.621720,-45
2021-12-23 14:54:20.621725,-69
2021-12-23 14:54:20.621729,-47
2021-12-23 14:54:20.621733,-83
2021-12-23 14:54:20.621738,-93
2021-12-23 14:54:20.621742,-35
2021-12-23 14:54:20.621747,-40
2021-12-23 14:54:20.621751,-88
2021-12-23 14:54:20.621756,-64
2021-12-23 14:54:20.621760,-31
2021-12-23 14:54:20.621765,-35
2021-12-23 14:54:20.621769,-21
2021-12-23 14:54:20.621773,-4
2021-12-23 14:54:20.621778,-23
2021-12-23 14:54:20.621782,-45
2021-12-23 14:54:20.621787,100
2021-12-23 14:54:20.621791,502
2021-12-23 14:54:20.621796,796
2021-12-23 14:54:20.846688,617
2021-12-23 14:54:20.846734,-7
2021-12-23 14:54:20.846740,-523
2021-12-23 14:54:20.846744,-322
2021-12-23 14:54:20.846749,35
2021-12-23 14:54:20.846753,-45
2021-12-23 14:54:20.846758,-119
2021-12-23 14:54:20.846762,-26
2021-12-23 14:54:20.846766,-16
2021-12-23 14:54:20.846771,-31
2021-12-23 14:54:20.846775,4
2021-12-23 14:54:20.846780,4
2021-12-23 14:54:20.846784,-11
2021-12-23 14:54:20.846788,2
2021-12-23 14:54:20.846793,23
2021-12-23 14:54:20.846797,62
2021-12-23 14:54:20.846802,102
2021-12-23 14:54:20.846806,107
2021-12-23 14:54:20.846810,95
2021-12-23 14:54:20.846823,95
2021-12-23 14:54:20.846827,98
2021-12-23 14:54:20.846832,131
2021-12-23 14:54:20.846836,174
2021-12-23 14:54:20.846840,155
2021-12-23 14:54:20.846845,172
2021-12-23 14:54:20.846849,253
2021-12-23 14:54:20.846854,291
2021-12-23 14:54:20.846858,284
2021-12-23 14:54:20.846862,263
2021-12-23 14:54:20.846867,222
2021-12-23 14:54:21.115975,172
2021-12-23 14:54:21.115990,105
2021-12-23 14:54:21.115996,-23
2021-12-23 14:54:21.116000,-165
2021-12-23 14:54:21.116005,-224
2021-12-23 14:54:21.116009,-246
2021-12-23 14:54:21.116014,-284
2021-12-23 14:54:21.116018,-308
2021-12-23 14:54:21.116022,-289
2021-12-23 14:54:21.116027,-256
2021-12-23 14:54:21.116031,-260
2021-12-23 14:54:21.116036,-279
2021-12-23 14:54:21.116040,-246
2021-12-23 14:54:21.116045,-196
2021-12-23 14:54:21.116049,-210
2021-12-23 14:54:21.116053,-239
2021-12-23 14:54:21.116057,-191
2021-12-23 14:54:21.116062,-129
2021-12-23 14:54:21.116066,-119
2021-12-23 14:54:21.116071,-122
2021-12-23 14:54:21.116075,-105
2021-12-23 14:54:21.116079,-102
2021-12-23 14:54:21.116083,-122
2021-12-23 14:54:21.116088,-122
2021-12-23 14:54:21.116092,-74
2021-12-23 14:54:21.116096,-57
2021-12-23 14:54:21.116100,-83
2021-12-23 14:54:21.116105,-52
2021-12-23 14:54:21.116109,-4
2021-12-23 14:54:21.116115,-23
2021-12-23 14:54:21.297221,-59
2021-12-23 14:54:21.297242,-47
2021-12-23 14:54:21.297251,-9
2021-12-23 14:54:21.297260,-19
2021-12-23 14:54:21.297268,-88
2021-12-23 14:54:21.297276,-100
2021-12-23 14:54:21.297284,-35
2021-12-23 14:54:21.297292,-16
2021-12-23 14:54:21.297300,-43
2021-12-23 14:54:21.297309,-47
2021-12-23 14:54:21.297317,-62
2021-12-23 14:54:21.297325,-83
2021-12-23 14:54:21.297334,-90
2021-12-23 14:54:21.297342,-66
2021-12-23 14:54:21.297350,-19
2021-12-23 14:54:21.297359,-14
2021-12-23 14:54:21.297367,-47
2021-12-23 14:54:21.297375,-43
2021-12-23 14:54:21.297383,-11
2021-12-23 14:54:21.297392,-14
2021-12-23 14:54:21.297400,-38
2021-12-23 14:54:21.297408,-38
2021-12-23 14:54:21.297417,-11
2021-12-23 14:54:21.297425,-9
2021-12-23 14:54:21.297433,-50
2021-12-23 14:54:21.297441,-71
2021-12-23 14:54:21.297450,-45
2021-12-23 14:54:21.297458,-33
2021-12-23 14:54:21.297466,-43
2021-12-23 14:54:21.297474,-57
2021-12-23 14:54:21.566811,-69
2021-12-23 14:54:21.566830,143
2021-12-23 14:54:21.566836,605
2021-12-23 14:54:21.566841,823
2021-12-23 14:54:21.566847,576
2021-12-23 14:54:21.566852,14
2021-12-23 14:54:21.566857,-413
2021-12-23 14:54:21.566863,-229
2021-12-23 14:54:21.566889,-23
2021-12-23 14:54:21.566896,-162
2021-12-23 14:54:21.566901,-124
2021-12-23 14:54:21.566906,31
2021-12-23 14:54:21.566911,28
2021-12-23 14:54:21.566917,40
2021-12-23 14:54:21.566922,95
2021-12-23 14:54:21.566927,76
2021-12-23 14:54:21.566932,62
2021-12-23 14:54:21.566937,112
2021-12-23 14:54:21.566942,145
2021-12-23 14:54:21.566947,160
2021-12-23 14:54:21.566952,184
2021-12-23 14:54:21.566957,150
2021-12-23 14:54:21.566962,129
2021-12-23 14:54:21.566967,198
2021-12-23 14:54:21.566972,224
2021-12-23 14:54:21.566977,169
2021-12-23 14:54:21.566982,160
2021-12-23 14:54:21.566987,191
2021-12-23 14:54:21.566993,220
2021-12-23 14:54:21.566998,263
2021-12-23 14:54:21.836840,287
2021-12-23 14:54:21.836858,279
2021-12-23 14:54:21.836864,265
2021-12-23 14:54:21.836868,227
2021-12-23 14:54:21.836873,181
2021-12-23 14:54:21.836877,133
2021-12-23 14:54:21.836881,38
2021-12-23 14:54:21.836886,-83
2021-12-23 14:54:21.836890,-172
2021-12-23 14:54:21.836894,-229
2021-12-23 14:54:21.836899,-248
2021-12-23 14:54:21.836903,-229
2021-12-23 14:54:21.836907,-205
2021-12-23 14:54:21.836912,-177
2021-12-23 14:54:21.836916,-193
2021-12-23 14:54:21.836920,-258
2021-12-23 14:54:21.836925,-246
2021-12-23 14:54:21.836929,-177
2021-12-23 14:54:21.836933,-184
2021-12-23 14:54:21.836937,-208
2021-12-23 14:54:21.836942,-179
2021-12-23 14:54:21.836946,-186
2021-12-23 14:54:21.836950,-196
2021-12-23 14:54:21.836955,-160
2021-12-23 14:54:21.836959,-145
2021-12-23 14:54:21.836963,-129
2021-12-23 14:54:21.836967,-107
2021-12-23 14:54:21.836972,-148
2021-12-23 14:54:21.836976,-196
2021-12-23 14:54:21.836981,-157
2021-12-23 14:54:22.105301,-114
2021-12-23 14:54:22.105321,-131
2021-12-23 14:54:22.105331,-143
2021-12-23 14:54:22.105339,-126
2021-12-23 14:54:22.105347,-119
2021-12-23 14:54:22.105355,-107
2021-12-23 14:54:22.105363,-83
2021-12-23 14:54:22.105371,-93
2021-12-23 14:54:22.105379,-136
2021-12-23 14:54:22.105387,-150
2021-12-23 14:54:22.105395,-122
2021-12-23 14:54:22.105403,-102
2021-12-23 14:54:22.105410,-83
2021-12-23 14:54:22.105471,-81
2021-12-23 14:54:22.105485,-136
2021-12-23 14:54:22.105494,-145
2021-12-23 14:54:22.105502,-83
2021-12-23 14:54:22.105509,-76
2021-12-23 14:54:22.105518,-105
2021-12-23 14:54:22.105564,-114
2021-12-23 14:54:22.105574,-141
2021-12-23 14:54:22.105583,-138
2021-12-23 14:54:22.105591,-100
2021-12-23 14:54:22.105600,-95
2021-12-23 14:54:22.105608,-100
2021-12-23 14:54:22.105616,-78
2021-12-23 14:54:22.105625,-69
2021-12-23 14:54:22.105633,-64
2021-12-23 14:54:22.105641,-50
2021-12-23 14:54:22.105649,-74
2021-12-23 14:54:22.241822,-117
2021-12-23 14:54:22.241866,26
2021-12-23 14:54:22.241872,425
2021-12-23 14:54:22.241878,746
2021-12-23 14:54:22.241883,722
2021-12-23 14:54:22.241888,253
2021-12-23 14:54:22.241893,-392
2021-12-23 14:54:22.241898,-442
2021-12-23 14:54:22.241904,-90
2021-12-23 14:54:22.241909,-98
2021-12-23 14:54:22.241914,-189
2021-12-23 14:54:22.241919,-90
2021-12-23 14:54:22.241924,-69
2021-12-23 14:54:22.241929,-129
2021-12-23 14:54:22.241934,-122
2021-12-23 14:54:22.241939,-78
2021-12-23 14:54:22.241944,-33
2021-12-23 14:54:22.241949,-11
2021-12-23 14:54:22.241954,-14
2021-12-23 14:54:22.241960,11
2021-12-23 14:54:22.241965,47
2021-12-23 14:54:22.241970,57
2021-12-23 14:54:22.241975,100
2021-12-23 14:54:22.241980,162
2021-12-23 14:54:22.241985,181
2021-12-23 14:54:22.241990,196
2021-12-23 14:54:22.241995,215
2021-12-23 14:54:22.242000,234
2021-12-23 14:54:22.242006,277
2021-12-23 14:54:22.242011,294
2021-12-23 14:54:22.511461,241
2021-12-23 14:54:22.511478,208
2021-12-23 14:54:22.511484,222
2021-12-23 14:54:22.511488,196
2021-12-23 14:54:22.511493,141
2021-12-23 14:54:22.511497,88
2021-12-23 14:54:22.511501,-14
2021-12-23 14:54:22.511505,-119
2021-12-23 14:54:22.511510,-148
2021-12-23 14:54:22.511514,-167
2021-12-23 14:54:22.511518,-205
2021-12-23 14:54:22.511522,-208
2021-12-23 14:54:22.511526,-224
2021-12-23 14:54:22.511531,-265
2021-12-23 14:54:22.511535,-246
2021-12-23 14:54:22.511539,-215
2021-12-23 14:54:22.511544,-200
2021-12-23 14:54:22.511548,-184
2021-12-23 14:54:22.511552,-179
2021-12-23 14:54:22.511556,-203
2021-12-23 14:54:22.511560,-244
2021-12-23 14:54:22.511565,-229
2021-12-23 14:54:22.511569,-167
2021-12-23 14:54:22.511573,-181
2021-12-23 14:54:22.511577,-232
2021-12-23 14:54:22.511581,-193
2021-12-23 14:54:22.511586,-153
2021-12-23 14:54:22.511590,-162
2021-12-23 14:54:22.511594,-136
2021-12-23 14:54:22.511599,-105
2021-12-23 14:54:22.691561,-107
2021-12-23 14:54:22.691577,-95
2021-12-23 14:54:22.691582,-95
2021-12-23 14:54:22.691587,-124
2021-12-23 14:54:22.691591,-131
2021-12-23 14:54:22.691596,-124
2021-12-23 14:54:22.691600,-124
2021-12-23 14:54:22.691605,-100
2021-12-23 14:54:22.691609,-83
2021-12-23 14:54:22.691614,-98
2021-12-23 14:54:22.691618,-98
2021-12-23 14:54:22.691622,-102
2021-12-23 14:54:22.691627,-129
2021-12-23 14:54:22.691635,-124
2021-12-23 14:54:22.691639,-95
2021-12-23 14:54:22.691644,-90
2021-12-23 14:54:22.691648,-90
2021-12-23 14:54:22.691653,-114
2021-12-23 14:54:22.691657,-131
2021-12-23 14:54:22.691661,-69
2021-12-23 14:54:22.691666,-35
2021-12-23 14:54:22.691670,-71
2021-12-23 14:54:22.691675,-71
2021-12-23 14:54:22.691700,-62
2021-12-23 14:54:22.691713,-69
2021-12-23 14:54:22.691718,-74
2021-12-23 14:54:22.691723,-88
2021-12-23 14:54:22.691728,-74
2021-12-23 14:54:22.691732,-45
2021-12-23 14:54:22.691737,-64
2021-12-23 14:54:22.961006,-76
2021-12-23 14:54:22.961025,-38
2021-12-23 14:54:22.961030,-33
2021-12-23 14:54:22.961035,-47
2021-12-23 14:54:22.961039,-66
2021-12-23 14:54:22.961044,-148
2021-12-23 14:54:22.961048,-43
2021-12-23 14:54:22.961053,413
2021-12-23 14:54:22.961058,732
2021-12-23 14:54:22.961062,583
2021-12-23 14:54:22.961066,26
2021-12-23 14:54:22.961071,-562
2021-12-23 14:54:22.961075,-500
2021-12-23 14:54:22.961079,-153
2021-12-23 14:54:22.961084,-196
2021-12-23 14:54:22.961088,-303
2021-12-23 14:54:22.961093,-220
2021-12-23 14:54:22.961097,-191
2021-12-23 14:54:22.961102,-224
2021-12-23 14:54:22.961106,-184
2021-12-23 14:54:22.961110,-148
2021-12-23 14:54:22.961115,-157
2021-12-23 14:54:22.961119,-145
2021-12-23 14:54:22.961124,-122
2021-12-23 14:54:22.961128,-95
2021-12-23 14:54:22.961132,-83
2021-12-23 14:54:22.961137,-98
2021-12-23 14:54:22.961141,-83
2021-12-23 14:54:22.961146,-38
2021-12-23 14:54:22.961150,2
2021-12-23 14:54:23.187027,47
2021-12-23 14:54:23.187042,98
2021-12-23 14:54:23.187047,66
2021-12-23 14:54:23.187052,2
2021-12-23 14:54:23.187056,69
2021-12-23 14:54:23.187064,153
2021-12-23 14:54:23.187068,133
2021-12-23 14:54:23.187073,110
2021-12-23 14:54:23.187077,90
2021-12-23 14:54:23.187095,0
2021-12-23 14:54:23.187099,-88
2021-12-23 14:54:23.187103,-105
2021-12-23 14:54:23.187126,-148
2021-12-23 14:54:23.187130,-239
2021-12-23 14:54:23.187134,-282
2021-12-23 14:54:23.187139,-251
2021-12-23 14:54:23.187157,-234
2021-12-23 14:54:23.187180,-248
2021-12-23 14:54:23.187196,-234
2021-12-23 14:54:23.187202,-189
2021-12-23 14:54:23.187206,-169
2021-12-23 14:54:23.187211,-184
2021-12-23 14:54:23.187215,-193
2021-12-23 14:54:23.187219,-167
2021-12-23 14:54:23.187224,-74
2021-12-23 14:54:23.187236,2
2021-12-23 14:54:23.187241,-40
2021-12-23 14:54:23.187245,-86
2021-12-23 14:54:23.187249,-47
2021-12-23 14:54:23.187254,-19
2021-12-23 14:54:23.411672,-43
2021-12-23 14:54:23.411687,-57
2021-12-23 14:54:23.411693,-38
2021-12-23 14:54:23.411697,-28
2021-12-23 14:54:23.411702,-33
2021-12-23 14:54:23.411706,-26
2021-12-23 14:54:23.411711,-4
2021-12-23 14:54:23.411715,4
2021-12-23 14:54:23.411720,-35
2021-12-23 14:54:23.411724,-74
2021-12-23 14:54:23.411729,-52
2021-12-23 14:54:23.411733,-78
2021-12-23 14:54:23.411738,-117
2021-12-23 14:54:23.411742,-71
2021-12-23 14:54:23.411747,-55
2021-12-23 14:54:23.411751,-110
2021-12-23 14:54:23.411755,-133
2021-12-23 14:54:23.411760,-131
2021-12-23 14:54:23.411764,-117
2021-12-23 14:54:23.411769,-62
2021-12-23 14:54:23.411773,-52
2021-12-23 14:54:23.411777,-110
2021-12-23 14:54:23.411782,-83
2021-12-23 14:54:23.411786,-23
2021-12-23 14:54:23.411790,-52
2021-12-23 14:54:23.411795,-52
2021-12-23 14:54:23.411799,-4
2021-12-23 14:54:23.411804,-33
2021-12-23 14:54:23.411808,-43
2021-12-23 14:54:23.411812,19
2021-12-23 14:54:23.681924,19
2021-12-23 14:54:23.681940,-43
2021-12-23 14:54:23.681946,-69
2021-12-23 14:54:23.681950,-52
2021-12-23 14:54:23.681955,-21
2021-12-23 14:54:23.681959,-21
2021-12-23 14:54:23.681964,-9
2021-12-23 14:54:23.681968,9
2021-12-23 14:54:23.681973,-28
2021-12-23 14:54:23.681977,-45
2021-12-23 14:54:23.681982,-4
2021-12-23 14:54:23.681986,16
2021-12-23 14:54:23.681990,-23
2021-12-23 14:54:23.681995,-57
2021-12-23 14:54:23.681999,-43
2021-12-23 14:54:23.682004,-50
2021-12-23 14:54:23.682008,-93
2021-12-23 14:54:23.682012,-86
2021-12-23 14:54:23.682017,-2
2021-12-23 14:54:23.682021,19
2021-12-23 14:54:23.682026,-62
2021-12-23 14:54:23.682030,-105
2021-12-23 14:54:23.682034,-62
2021-12-23 14:54:23.682039,-50
2021-12-23 14:54:23.682043,-76
2021-12-23 14:54:23.682047,-14
2021-12-23 14:54:23.682052,38
2021-12-23 14:54:23.682056,-16
2021-12-23 14:54:23.682060,-47
2021-12-23 14:54:23.682065,2
2021-12-23 14:54:23.906575,43
2021-12-23 14:54:23.906591,28
2021-12-23 14:54:23.906596,9
2021-12-23 14:54:23.906601,2
2021-12-23 14:54:23.906605,-2
2021-12-23 14:54:23.906614,57
2021-12-23 14:54:23.906618,320
2021-12-23 14:54:23.906623,744
2021-12-23 14:54:23.906627,945
2021-12-23 14:54:23.906631,605
2021-12-23 14:54:23.906636,-136
2021-12-23 14:54:23.906640,-442
2021-12-23 14:54:23.906645,-81
2021-12-23 14:54:23.906649,14
2021-12-23 14:54:23.906653,-181
2021-12-23 14:54:23.906658,-136
2021-12-23 14:54:23.906662,-74
2021-12-23 14:54:23.906666,-119
2021-12-23 14:54:23.906671,-81
2021-12-23 14:54:23.906675,-26
2021-12-23 14:54:23.906679,-66
2021-12-23 14:54:23.906684,-98
2021-12-23 14:54:23.906688,-38
2021-12-23 14:54:23.906692,21
2021-12-23 14:54:23.906697,33
2021-12-23 14:54:23.906701,59
2021-12-23 14:54:23.906705,55
2021-12-23 14:54:23.906710,33
2021-12-23 14:54:23.906714,93
2021-12-23 14:54:23.906718,160
2021-12-23 14:54:24.175160,179
2021-12-23 14:54:24.175181,215
2021-12-23 14:54:24.175190,241
2021-12-23 14:54:24.175198,227
2021-12-23 14:54:24.175206,258
2021-12-23 14:54:24.175243,322
2021-12-23 14:54:24.175251,306
2021-12-23 14:54:24.175256,239
2021-12-23 14:54:24.175261,220
2021-12-23 14:54:24.175265,212
2021-12-23 14:54:24.175270,155
2021-12-23 14:54:24.175274,88
2021-12-23 14:54:24.175278,19
2021-12-23 14:54:24.175283,-95
2021-12-23 14:54:24.175287,-167
2021-12-23 14:54:24.175291,-148
2021-12-23 14:54:24.175296,-160
2021-12-23 14:54:24.175300,-179
2021-12-23 14:54:24.175304,-155
2021-12-23 14:54:24.175309,-191
2021-12-23 14:54:24.175313,-248
2021-12-23 14:54:24.175317,-177
2021-12-23 14:54:24.175322,-90
2021-12-23 14:54:24.175326,-133
2021-12-23 14:54:24.175330,-174
2021-12-23 14:54:24.175334,-124
2021-12-23 14:54:24.175339,-81
2021-12-23 14:54:24.175343,-62
2021-12-23 14:54:24.175348,-55
2021-12-23 14:54:24.175352,-76
2021-12-23 14:54:24.400936,-66
2021-12-23 14:54:24.400951,-2
2021-12-23 14:54:24.400956,16
2021-12-23 14:54:24.400961,-55
2021-12-23 14:54:24.400965,-86
2021-12-23 14:54:24.400970,-26
2021-12-23 14:54:24.400974,-38
2021-12-23 14:54:24.400979,-83
2021-12-23 14:54:24.400983,-31
2021-12-23 14:54:24.400988,-26
2021-12-23 14:54:24.400992,-100
2021-12-23 14:54:24.400997,-88
2021-12-23 14:54:24.401001,-64
2021-12-23 14:54:24.401006,-100
2021-12-23 14:54:24.401010,-98
2021-12-23 14:54:24.401014,-76
2021-12-23 14:54:24.401019,-57
2021-12-23 14:54:24.401023,-45
2021-12-23 14:54:24.401027,-93
2021-12-23 14:54:24.401032,-131
2021-12-23 14:54:24.401036,-98
2021-12-23 14:54:24.401041,-74
2021-12-23 14:54:24.401045,-83
2021-12-23 14:54:24.401049,-35
2021-12-23 14:54:24.401054,-31
2021-12-23 14:54:24.401058,-129
2021-12-23 14:54:24.401063,-124
2021-12-23 14:54:24.401067,-31
2021-12-23 14:54:24.401071,-31
2021-12-23 14:54:24.401076,-31
2021-12-23 14:54:24.581805,28
2021-12-23 14:54:24.581824,-4
2021-12-23 14:54:24.581831,-64
2021-12-23 14:54:24.581836,-14
2021-12-23 14:54:24.581841,28
2021-12-23 14:54:24.581846,-7
2021-12-23 14:54:24.581851,-66
2021-12-23 14:54:24.581856,-100
2021-12-23 14:54:24.581862,-64
2021-12-23 14:54:24.581867,-4
2021-12-23 14:54:24.581872,9
2021-12-23 14:54:24.581877,-11
2021-12-23 14:54:24.581882,-50
2021-12-23 14:54:24.581887,-64
2021-12-23 14:54:24.581892,-38
2021-12-23 14:54:24.581898,-43
2021-12-23 14:54:24.581903,-50
2021-12-23 14:54:24.581908,-43
2021-12-23 14:54:24.581913,-59
2021-12-23 14:54:24.581918,-47
2021-12-23 14:54:24.581924,-35
2021-12-23 14:54:24.581929,-52
2021-12-23 14:54:24.581934,-35
2021-12-23 14:54:24.581939,-43
2021-12-23 14:54:24.581944,-83
2021-12-23 14:54:24.581949,-71
2021-12-23 14:54:24.581954,28
2021-12-23 14:54:24.581959,334
2021-12-23 14:54:24.581964,732
2021-12-23 14:54:24.581970,832
2021-12-23 14:54:24.761652,456
2021-12-23 14:54:24.761669,-222
2021-12-23 14:54:24.761674,-526
2021-12-23 14:54:24.761678,-208
2021-12-23 14:54:24.761683,-43
2021-12-23 14:54:24.761687,-179
2021-12-23 14:54:24.761691,-138
2021-12-23 14:54:24.761696,-38
2021-12-23 14:54:24.761700,-50
2021-12-23 14:54:24.761704,-33
2021-12-23 14:54:24.761709,-9
2021-12-23 14:54:24.761713,-40
2021-12-23 14:54:24.761717,-14
2021-12-23 14:54:24.761721,43
2021-12-23 14:54:24.761726,28
2021-12-23 14:54:24.761730,21
2021-12-23 14:54:24.761734,50
2021-12-23 14:54:24.761739,45
2021-12-23 14:54:24.761743,55
2021-12-23 14:54:24.761747,110
2021-12-23 14:54:24.761751,167
2021-12-23 14:54:24.761756,212
2021-12-23 14:54:24.761760,181
2021-12-23 14:54:24.761764,131
2021-12-23 14:54:24.761769,229
2021-12-23 14:54:24.761773,320
2021-12-23 14:54:24.761777,287
2021-12-23 14:54:24.761782,279
2021-12-23 14:54:24.761786,303
2021-12-23 14:54:24.761790,282
2021-12-23 14:54:25.076743,215
2021-12-23 14:54:25.076762,100
2021-12-23 14:54:25.076767,-11
2021-12-23 14:54:25.076772,-59
2021-12-23 14:54:25.076776,-117
2021-12-23 14:54:25.076781,-186
2021-12-23 14:54:25.076785,-189
2021-12-23 14:54:25.076790,-141
2021-12-23 14:54:25.076794,-112
2021-12-23 14:54:25.076799,-153
2021-12-23 14:54:25.076803,-215
2021-12-23 14:54:25.076808,-208
2021-12-23 14:54:25.076812,-148
2021-12-23 14:54:25.076816,-107
2021-12-23 14:54:25.076821,-107
2021-12-23 14:54:25.076825,-102
2021-12-23 14:54:25.076830,-95
2021-12-23 14:54:25.076834,-129
2021-12-23 14:54:25.076838,-153
2021-12-23 14:54:25.076843,-138
2021-12-23 14:54:25.076847,-117
2021-12-23 14:54:25.076851,-112
2021-12-23 14:54:25.076856,-102
2021-12-23 14:54:25.076860,-98
2021-12-23 14:54:25.076865,-117
2021-12-23 14:54:25.076869,-88
2021-12-23 14:54:25.076873,-62
2021-12-23 14:54:25.076878,-114
2021-12-23 14:54:25.076882,-124
2021-12-23 14:54:25.076886,-55
2021-12-23 14:54:25.301557,-43
2021-12-23 14:54:25.301574,-69
2021-12-23 14:54:25.301579,-45
2021-12-23 14:54:25.301583,-26
2021-12-23 14:54:25.301588,-69
2021-12-23 14:54:25.301592,-98
2021-12-23 14:54:25.301596,-64
2021-12-23 14:54:25.301601,-55
2021-12-23 14:54:25.301605,-76
2021-12-23 14:54:25.301609,-57
2021-12-23 14:54:25.301614,-43
2021-12-23 14:54:25.301618,-59
2021-12-23 14:54:25.301622,-52
2021-12-23 14:54:25.301627,-4
2021-12-23 14:54:25.301631,2
2021-12-23 14:54:25.301635,-95
2021-12-23 14:54:25.301639,-172
2021-12-23 14:54:25.301644,-110
2021-12-23 14:54:25.301648,-52
2021-12-23 14:54:25.301652,-71
2021-12-23 14:54:25.301657,-83
2021-12-23 14:54:25.301661,-98
2021-12-23 14:54:25.301665,-107
2021-12-23 14:54:25.301670,-78
2021-12-23 14:54:25.301674,-76
2021-12-23 14:54:25.301678,-102
2021-12-23 14:54:25.301683,-102
2021-12-23 14:54:25.301687,-141
2021-12-23 14:54:25.301692,-203
2021-12-23 14:54:25.301696,-181
2021-12-23 14:54:25.571003,-150
2021-12-23 14:54:25.571017,-174
2021-12-23 14:54:25.571023,-177
2021-12-23 14:54:25.571028,-172
2021-12-23 14:54:25.571033,-212
2021-12-23 14:54:25.571041,-210
2021-12-23 14:54:25.571059,-155
2021-12-23 14:54:25.571068,-157
2021-12-23 14:54:25.571076,-177
2021-12-23 14:54:25.571083,-155
2021-12-23 14:54:25.571090,-177
2021-12-23 14:54:25.571132,-133
2021-12-23 14:54:25.571139,253
2021-12-23 14:54:25.571147,710
2021-12-23 14:54:25.571154,732
2021-12-23 14:54:25.571160,263
2021-12-23 14:54:25.571165,-358
2021-12-23 14:54:25.571169,-476
2021-12-23 14:54:25.571174,-126
2021-12-23 14:54:25.571178,-74
2021-12-23 14:54:25.571182,-198
2021-12-23 14:54:25.571187,-138
2021-12-23 14:54:25.571191,-114
2021-12-23 14:54:25.571196,-160
2021-12-23 14:54:25.571200,-131
2021-12-23 14:54:25.571204,-83
2021-12-23 14:54:25.571208,-78
2021-12-23 14:54:25.571213,-78
2021-12-23 14:54:25.571217,-93
2021-12-23 14:54:25.571221,-95
2021-12-23 14:54:25.750915,-45
2021-12-23 14:54:25.750930,19
2021-12-23 14:54:25.750936,16
2021-12-23 14:54:25.750940,7
2021-12-23 14:54:25.750945,83
2021-12-23 14:54:25.750949,119
2021-12-23 14:54:25.750953,112
2021-12-23 14:54:25.750958,186
2021-12-23 14:54:25.750962,236
2021-12-23 14:54:25.750966,196
2021-12-23 14:54:25.750971,203
2021-12-23 14:54:25.750975,277
2021-12-23 14:54:25.750980,284
2021-12-23 14:54:25.750984,236
2021-12-23 14:54:25.750988,251
2021-12-23 14:54:25.750993,229
2021-12-23 14:54:25.750997,98
2021-12-23 14:54:25.751002,16
2021-12-23 14:54:25.751006,-4
2021-12-23 14:54:25.751010,-81
2021-12-23 14:54:25.751015,-141
2021-12-23 14:54:25.751019,-138
2021-12-23 14:54:25.751024,-148
2021-12-23 14:54:25.751028,-141
2021-12-23 14:54:25.751032,-90
2021-12-23 14:54:25.751037,-117
2021-12-23 14:54:25.751041,-186
2021-12-23 14:54:25.751046,-136
2021-12-23 14:54:25.751050,-33
2021-12-23 14:54:25.751054,-57
2021-12-23 14:54:25.931675,-145
2021-12-23 14:54:25.931698,-138
2021-12-23 14:54:25.931707,-100
2021-12-23 14:54:25.931715,-122
2021-12-23 14:54:25.931724,-119
2021-12-23 14:54:25.931732,-62
2021-12-23 14:54:25.931740,-57
2021-12-23 14:54:25.931749,-150
2021-12-23 14:54:25.931757,-189
2021-12-23 14:54:25.931766,-112
2021-12-23 14:54:25.931774,-74
2021-12-23 14:54:25.931782,-100
2021-12-23 14:54:25.931791,-107
2021-12-23 14:54:25.931799,-110
2021-12-23 14:54:25.931807,-107
2021-12-23 14:54:25.931816,-124
2021-12-23 14:54:25.931824,-141
2021-12-23 14:54:25.931832,-98
2021-12-23 14:54:25.931841,-69
2021-12-23 14:54:25.931849,-119
2021-12-23 14:54:25.931857,-145
2021-12-23 14:54:25.931866,-98
2021-12-23 14:54:25.931874,-64
2021-12-23 14:54:25.931882,-81
2021-12-23 14:54:25.931890,-81
2021-12-23 14:54:25.931899,-69
2021-12-23 14:54:25.931907,-98
2021-12-23 14:54:25.931915,-110
2021-12-23 14:54:25.931924,-76
2021-12-23 14:54:25.931932,-71
2021-12-23 14:54:26.200260,-100
2021-12-23 14:54:26.200276,-138
2021-12-23 14:54:26.200281,-184
2021-12-23 14:54:26.200286,-196
2021-12-23 14:54:26.200293,-172
2021-12-23 14:54:26.200298,-150
2021-12-23 14:54:26.200302,-174
2021-12-23 14:54:26.200307,-205
2021-12-23 14:54:26.200311,-181
2021-12-23 14:54:26.200316,-153
2021-12-23 14:54:26.200320,-145
2021-12-23 14:54:26.200324,-133
2021-12-23 14:54:26.200329,-138
2021-12-23 14:54:26.200333,-148
2021-12-23 14:54:26.200337,-153
2021-12-23 14:54:26.200341,-122
2021-12-23 14:54:26.200346,148
2021-12-23 14:54:26.200350,598
2021-12-23 14:54:26.200356,741
2021-12-23 14:54:26.200362,401
2021-12-23 14:54:26.200366,-193
2021-12-23 14:54:26.200371,-456
2021-12-23 14:54:26.200375,-153
2021-12-23 14:54:26.200380,16
2021-12-23 14:54:26.200385,-98
2021-12-23 14:54:26.200389,-57
2021-12-23 14:54:26.200393,19
2021-12-23 14:54:26.200398,-11
2021-12-23 14:54:26.200402,-4
2021-12-23 14:54:26.200406,23
2021-12-23 14:54:26.426631,23
2021-12-23 14:54:26.426648,52
2021-12-23 14:54:26.426653,78
2021-12-23 14:54:26.426658,76
2021-12-23 14:54:26.426662,93
2021-12-23 14:54:26.426666,95
2021-12-23 14:54:26.426671,47
2021-12-23 14:54:26.426675,52
2021-12-23 14:54:26.426680,129
2021-12-23 14:54:26.426684,189
2021-12-23 14:54:26.426688,220
2021-12-23 14:54:26.426693,217
2021-12-23 14:54:26.426697,193
2021-12-23 14:54:26.426702,246
2021-12-23 14:54:26.426706,313
2021-12-23 14:54:26.426710,294
2021-12-23 14:54:26.426715,282
2021-12-23 14:54:26.426719,308
2021-12-23 14:54:26.426723,279
2021-12-23 14:54:26.426728,184
2021-12-23 14:54:26.426732,86
2021-12-23 14:54:26.426737,0
2021-12-23 14:54:26.426741,-57
2021-12-23 14:54:26.426746,-117
2021-12-23 14:54:26.426750,-189
2021-12-23 14:54:26.426754,-191
2021-12-23 14:54:26.426759,-157
2021-12-23 14:54:26.426763,-184
2021-12-23 14:54:26.426768,-212
2021-12-23 14:54:26.426772,-184
2021-12-23 14:54:26.695956,-148
2021-12-23 14:54:26.695971,-126
2021-12-23 14:54:26.695976,-114
2021-12-23 14:54:26.695981,-133
2021-12-23 14:54:26.695986,-155
2021-12-23 14:54:26.695990,-165
2021-12-23 14:54:26.695995,-174
2021-12-23 14:54:26.695999,-177
2021-12-23 14:54:26.696003,-181
2021-12-23 14:54:26.696008,-193
2021-12-23 14:54:26.696012,-189
2021-12-23 14:54:26.696017,-189
2021-12-23 14:54:26.696021,-186
2021-12-23 14:54:26.696025,-169
2021-12-23 14:54:26.696030,-150
2021-12-23 14:54:26.696034,-131
2021-12-23 14:54:26.696038,-150
2021-12-23 14:54:26.696043,-191
2021-12-23 14:54:26.696047,-157
2021-12-23 14:54:26.696051,-93
2021-12-23 14:54:26.696056,-131
2021-12-23 14:54:26.696060,-184
2021-12-23 14:54:26.696065,-148
2021-12-23 14:54:26.696069,-131
2021-12-23 14:54:26.696073,-148
2021-12-23 14:54:26.696078,-117
2021-12-23 14:54:26.696082,-86
2021-12-23 14:54:26.696086,-93
2021-12-23 14:54:26.696091,-122
2021-12-23 14:54:26.696095,-153
2021-12-23 14:54:26.876588,-124
2021-12-23 14:54:26.876603,-74
2021-12-23 14:54:26.876608,-90
2021-12-23 14:54:26.876613,-131
2021-12-23 14:54:26.876617,-133
2021-12-23 14:54:26.876621,-138
2021-12-23 14:54:26.876626,-167
2021-12-23 14:54:26.876630,-155
2021-12-23 14:54:26.876634,-143
2021-12-23 14:54:26.876639,-205
2021-12-23 14:54:26.876643,-246
2021-12-23 14:54:26.876647,-212
2021-12-23 14:54:26.876652,-157
2021-12-23 14:54:26.876656,-124
2021-12-23 14:54:26.876660,-143
2021-12-23 14:54:26.876664,-193
2021-12-23 14:54:26.876669,-208
2021-12-23 14:54:26.876673,-86
2021-12-23 14:54:26.876678,275
2021-12-23 14:54:26.876682,655
2021-12-23 14:54:26.876686,679
2021-12-23 14:54:26.876691,253
2021-12-23 14:54:26.876695,-346
2021-12-23 14:54:26.876699,-440
2021-12-23 14:54:26.876704,-86
2021-12-23 14:54:26.876708,-28
2021-12-23 14:54:26.876712,-131
2021-12-23 14:54:26.876717,-64
2021-12-23 14:54:26.876721,-21
2021-12-23 14:54:26.876725,-59
2021-12-23 14:54:27.146053,-38
2021-12-23 14:54:27.146068,19
2021-12-23 14:54:27.146074,19
2021-12-23 14:54:27.146078,-11
2021-12-23 14:54:27.146083,-9
2021-12-23 14:54:27.146087,4
2021-12-23 14:54:27.146091,38
2021-12-23 14:54:27.146096,107
2021-12-23 14:54:27.146145,126
2021-12-23 14:54:27.146150,74
2021-12-23 14:54:27.146154,69
2021-12-23 14:54:27.146159,105
2021-12-23 14:54:27.146163,117
2021-12-23 14:54:27.146167,148
2021-12-23 14:54:27.146172,189
2021-12-23 14:54:27.146176,189
2021-12-23 14:54:27.146180,179
2021-12-23 14:54:27.146185,198
2021-12-23 14:54:27.146189,220
2021-12-23 14:54:27.146193,246
2021-12-23 14:54:27.146198,217
2021-12-23 14:54:27.146202,69
2021-12-23 14:54:27.146206,-40
2021-12-23 14:54:27.146210,-50
2021-12-23 14:54:27.146215,-98
2021-12-23 14:54:27.146219,-177
2021-12-23 14:54:27.146223,-198
2021-12-23 14:54:27.146228,-193
2021-12-23 14:54:27.146232,-196
2021-12-23 14:54:27.146236,-193
2021-12-23 14:54:27.326436,-160
2021-12-23 14:54:27.326451,-122
2021-12-23 14:54:27.326456,-143
2021-12-23 14:54:27.326461,-181
2021-12-23 14:54:27.326465,-148
2021-12-23 14:54:27.326470,-78
2021-12-23 14:54:27.326474,-66
2021-12-23 14:54:27.326478,-90
2021-12-23 14:54:27.326483,-93
2021-12-23 14:54:27.326487,-83
2021-12-23 14:54:27.326492,-76
2021-12-23 14:54:27.326496,-66
2021-12-23 14:54:27.326500,-83
2021-12-23 14:54:27.326505,-117
2021-12-23 14:54:27.326510,-145
2021-12-23 14:54:27.326516,-160
2021-12-23 14:54:27.326535,-143
2021-12-23 14:54:27.326558,-112
2021-12-23 14:54:27.326565,-100
2021-12-23 14:54:27.326569,-112
2021-12-23 14:54:27.326574,-133
2021-12-23 14:54:27.326578,-138
2021-12-23 14:54:27.326582,-107
2021-12-23 14:54:27.326586,-74
2021-12-23 14:54:27.326591,-78
2021-12-23 14:54:27.326595,-86
2021-12-23 14:54:27.326599,-69
2021-12-23 14:54:27.326604,-50
2021-12-23 14:54:27.326608,-11
2021-12-23 14:54:27.326612,43
2021-12-23 14:54:27.551631,83
2021-12-23 14:54:27.551649,90
2021-12-23 14:54:27.551655,47
2021-12-23 14:54:27.551660,9
2021-12-23 14:54:27.551665,23
2021-12-23 14:54:27.551670,33
2021-12-23 14:54:27.551675,-9
2021-12-23 14:54:27.551680,-59
2021-12-23 14:54:27.551685,-88
2021-12-23 14:54:27.551690,-107
2021-12-23 14:54:27.551695,-83
2021-12-23 14:54:27.551700,-35
2021-12-23 14:54:27.551705,-40
2021-12-23 14:54:27.551710,-74
2021-12-23 14:54:27.551716,-93
2021-12-23 14:54:27.551721,-138
2021-12-23 14:54:27.551726,-184
2021-12-23 14:54:27.551731,69
2021-12-23 14:54:27.551736,564
2021-12-23 14:54:27.551741,732
2021-12-23 14:54:27.551746,423
2021-12-23 14:54:27.551751,-153
2021-12-23 14:54:27.551756,-464
2021-12-23 14:54:27.551761,-177
2021-12-23 14:54:27.551766,16
2021-12-23 14:54:27.551771,-122
2021-12-23 14:54:27.551776,-124
2021-12-23 14:54:27.551781,-40
2021-12-23 14:54:27.551786,-55
2021-12-23 14:54:27.551791,-52
2021-12-23 14:54:27.776580,9
2021-12-23 14:54:27.776596,28
2021-12-23 14:54:27.776601,2
2021-12-23 14:54:27.776606,4
2021-12-23 14:54:27.776610,45
2021-12-23 14:54:27.776615,98
2021-12-23 14:54:27.776619,119
2021-12-23 14:54:27.776623,86
2021-12-23 14:54:27.776628,86
2021-12-23 14:54:27.776632,150
