Time,ECG
2021-12-23 15:19:06.126766,203
2021-12-23 15:19:06.126781,217
2021-12-23 15:19:06.126786,200
2021-12-23 15:19:06.126791,162
2021-12-23 15:19:06.126795,124
2021-12-23 15:19:06.126800,95
2021-12-23 15:19:06.126804,43
2021-12-23 15:19:06.126808,-19
2021-12-23 15:19:06.126813,-57
2021-12-23 15:19:06.126818,-100
2021-12-23 15:19:06.126822,-141
2021-12-23 15:19:06.126826,-126
2021-12-23 15:19:06.126831,-102
2021-12-23 15:19:06.126835,-98
2021-12-23 15:19:06.126839,-102
2021-12-23 15:19:06.126844,-117
2021-12-23 15:19:06.126848,-112
2021-12-23 15:19:06.126853,-69
2021-12-23 15:19:06.126857,-43
2021-12-23 15:19:06.126862,-52
2021-12-23 15:19:06.126866,-66
2021-12-23 15:19:06.126871,-62
2021-12-23 15:19:06.126875,-47
2021-12-23 15:19:06.126879,-33
2021-12-23 15:19:06.126884,-14
2021-12-23 15:19:06.126888,0
2021-12-23 15:19:06.126906,-4
2021-12-23 15:19:06.126910,-14
2021-12-23 15:19:06.126914,-7
2021-12-23 15:19:06.126918,-14
2021-12-23 15:19:06.337655,-33
2021-12-23 15:19:06.337685,-23
2021-12-23 15:19:06.337697,-26
2021-12-23 15:19:06.337707,-55
2021-12-23 15:19:06.337717,-38
2021-12-23 15:19:06.337727,2
2021-12-23 15:19:06.337738,2
2021-12-23 15:19:06.337748,-11
2021-12-23 15:19:06.337758,-35
2021-12-23 15:19:06.337767,-62
2021-12-23 15:19:06.337777,-38
2021-12-23 15:19:06.337787,-21
2021-12-23 15:19:06.337797,-64
2021-12-23 15:19:06.337806,-88
2021-12-23 15:19:06.337816,-81
2021-12-23 15:19:06.337826,-81
2021-12-23 15:19:06.337835,-50
2021-12-23 15:19:06.337846,-2
2021-12-23 15:19:06.337856,2
2021-12-23 15:19:06.337866,-31
2021-12-23 15:19:06.337876,-66
2021-12-23 15:19:06.337885,-93
2021-12-23 15:19:06.337895,-98
2021-12-23 15:19:06.337905,-81
2021-12-23 15:19:06.337914,-74
2021-12-23 15:19:06.337924,-81
2021-12-23 15:19:06.337934,-76
2021-12-23 15:19:06.337943,-62
2021-12-23 15:19:06.337953,-50
2021-12-23 15:19:06.337966,-33
2021-12-23 15:19:06.518113,-19
2021-12-23 15:19:06.518133,-26
2021-12-23 15:19:06.518141,-71
2021-12-23 15:19:06.518147,-19
2021-12-23 15:19:06.518154,320
2021-12-23 15:19:06.518160,698
2021-12-23 15:19:06.518166,617
2021-12-23 15:19:06.518173,107
2021-12-23 15:19:06.518179,-289
2021-12-23 15:19:06.518185,-246
2021-12-23 15:19:06.518192,-69
2021-12-23 15:19:06.518198,-64
2021-12-23 15:19:06.518205,-86
2021-12-23 15:19:06.518215,-55
2021-12-23 15:19:06.518222,-71
2021-12-23 15:19:06.518228,-102
2021-12-23 15:19:06.518235,-71
2021-12-23 15:19:06.518241,-26
2021-12-23 15:19:06.518248,-19
2021-12-23 15:19:06.518254,-26
2021-12-23 15:19:06.518260,-21
2021-12-23 15:19:06.518267,-7
2021-12-23 15:19:06.518273,21
2021-12-23 15:19:06.518279,55
2021-12-23 15:19:06.518286,81
2021-12-23 15:19:06.518292,107
2021-12-23 15:19:06.518299,131
2021-12-23 15:19:06.518305,157
2021-12-23 15:19:06.518311,193
2021-12-23 15:19:06.518320,229
2021-12-23 15:19:06.787717,251
2021-12-23 15:19:06.787739,265
2021-12-23 15:19:06.787746,272
2021-12-23 15:19:06.787753,260
2021-12-23 15:19:06.787759,234
2021-12-23 15:19:06.787765,208
2021-12-23 15:19:06.787772,157
2021-12-23 15:19:06.787778,55
2021-12-23 15:19:06.787784,-38
2021-12-23 15:19:06.787791,-66
2021-12-23 15:19:06.787797,-90
2021-12-23 15:19:06.787803,-117
2021-12-23 15:19:06.787810,-131
2021-12-23 15:19:06.787816,-155
2021-12-23 15:19:06.787822,-165
2021-12-23 15:19:06.787829,-148
2021-12-23 15:19:06.787835,-155
2021-12-23 15:19:06.787845,-186
2021-12-23 15:19:06.787852,-196
2021-12-23 15:19:06.787858,-179
2021-12-23 15:19:06.787864,-167
2021-12-23 15:19:06.787871,-157
2021-12-23 15:19:06.787877,-133
2021-12-23 15:19:06.787883,-105
2021-12-23 15:19:06.787889,-93
2021-12-23 15:19:06.787896,-95
2021-12-23 15:19:06.787902,-83
2021-12-23 15:19:06.787908,-62
2021-12-23 15:19:06.787915,-47
2021-12-23 15:19:06.787922,-35
2021-12-23 15:19:07.013445,-23
2021-12-23 15:19:07.013484,-19
2021-12-23 15:19:07.013493,-21
2021-12-23 15:19:07.013501,-14
2021-12-23 15:19:07.013507,7
2021-12-23 15:19:07.013514,9
2021-12-23 15:19:07.013521,-19
2021-12-23 15:19:07.013533,-28
2021-12-23 15:19:07.013543,-4
2021-12-23 15:19:07.013555,2
2021-12-23 15:19:07.013563,9
2021-12-23 15:19:07.013570,26
2021-12-23 15:19:07.013576,11
2021-12-23 15:19:07.013584,-7
2021-12-23 15:19:07.013590,14
2021-12-23 15:19:07.013598,47
2021-12-23 15:19:07.013605,52
2021-12-23 15:19:07.013611,28
2021-12-23 15:19:07.013617,-4
2021-12-23 15:19:07.013624,-9
2021-12-23 15:19:07.013630,-2
2021-12-23 15:19:07.013636,-7
2021-12-23 15:19:07.013643,2
2021-12-23 15:19:07.013649,19
2021-12-23 15:19:07.013655,14
2021-12-23 15:19:07.013661,28
2021-12-23 15:19:07.013668,55
2021-12-23 15:19:07.013674,57
2021-12-23 15:19:07.013680,50
2021-12-23 15:19:07.013688,38
2021-12-23 15:19:07.281725,9
2021-12-23 15:19:07.281746,71
2021-12-23 15:19:07.281755,397
2021-12-23 15:19:07.281761,784
2021-12-23 15:19:07.281765,796
2021-12-23 15:19:07.281770,373
2021-12-23 15:19:07.281775,-138
2021-12-23 15:19:07.281779,-217
2021-12-23 15:19:07.281784,38
2021-12-23 15:19:07.281788,59
2021-12-23 15:19:07.281793,-21
2021-12-23 15:19:07.281797,31
2021-12-23 15:19:07.281801,28
2021-12-23 15:19:07.281806,-9
2021-12-23 15:19:07.281811,19
2021-12-23 15:19:07.281815,45
2021-12-23 15:19:07.281820,43
2021-12-23 15:19:07.281824,28
2021-12-23 15:19:07.281828,28
2021-12-23 15:19:07.281833,69
2021-12-23 15:19:07.281837,105
2021-12-23 15:19:07.281842,114
2021-12-23 15:19:07.281846,141
2021-12-23 15:19:07.281850,145
2021-12-23 15:19:07.281860,129
2021-12-23 15:19:07.281865,174
2021-12-23 15:19:07.281870,241
2021-12-23 15:19:07.281876,253
2021-12-23 15:19:07.281881,270
2021-12-23 15:19:07.281885,301
2021-12-23 15:19:07.417799,308
2021-12-23 15:19:07.417821,311
2021-12-23 15:19:07.417829,320
2021-12-23 15:19:07.417835,282
2021-12-23 15:19:07.417842,174
2021-12-23 15:19:07.417848,55
2021-12-23 15:19:07.417855,-19
2021-12-23 15:19:07.417861,-76
2021-12-23 15:19:07.417867,-145
2021-12-23 15:19:07.417874,-181
2021-12-23 15:19:07.417880,-203
2021-12-23 15:19:07.417887,-227
2021-12-23 15:19:07.417893,-220
2021-12-23 15:19:07.417899,-193
2021-12-23 15:19:07.417905,-181
2021-12-23 15:19:07.417912,-184
2021-12-23 15:19:07.417918,-184
2021-12-23 15:19:07.417924,-179
2021-12-23 15:19:07.417931,-181
2021-12-23 15:19:07.417937,-172
2021-12-23 15:19:07.417943,-141
2021-12-23 15:19:07.417950,-129
2021-12-23 15:19:07.417959,-141
2021-12-23 15:19:07.417965,-126
2021-12-23 15:19:07.417972,-86
2021-12-23 15:19:07.417978,-66
2021-12-23 15:19:07.417985,-66
2021-12-23 15:19:07.417991,-62
2021-12-23 15:19:07.417998,-66
2021-12-23 15:19:07.418004,-69
2021-12-23 15:19:07.685962,-47
2021-12-23 15:19:07.685979,-23
2021-12-23 15:19:07.685985,-21
2021-12-23 15:19:07.685991,-38
2021-12-23 15:19:07.685996,-55
2021-12-23 15:19:07.686001,-57
2021-12-23 15:19:07.686006,-47
2021-12-23 15:19:07.686011,-43
2021-12-23 15:19:07.686016,-45
2021-12-23 15:19:07.686022,-47
2021-12-23 15:19:07.686027,-50
2021-12-23 15:19:07.686032,-45
2021-12-23 15:19:07.686037,-45
2021-12-23 15:19:07.686042,-62
2021-12-23 15:19:07.686047,-64
2021-12-23 15:19:07.686052,-81
2021-12-23 15:19:07.686057,-110
2021-12-23 15:19:07.686062,-90
2021-12-23 15:19:07.686067,-57
2021-12-23 15:19:07.686073,-43
2021-12-23 15:19:07.686078,-35
2021-12-23 15:19:07.686083,-45
2021-12-23 15:19:07.686088,-55
2021-12-23 15:19:07.686093,-33
2021-12-23 15:19:07.686103,-16
2021-12-23 15:19:07.686108,-35
2021-12-23 15:19:07.686113,-45
2021-12-23 15:19:07.686119,133
2021-12-23 15:19:07.686125,538
2021-12-23 15:19:07.686130,794
2021-12-23 15:19:08.002054,619
2021-12-23 15:19:08.002071,45
2021-12-23 15:19:08.002077,-399
2021-12-23 15:19:08.002083,-232
2021-12-23 15:19:08.002088,-11
2021-12-23 15:19:08.002093,-100
2021-12-23 15:19:08.002098,-98
2021-12-23 15:19:08.002103,-2
2021-12-23 15:19:08.002108,-21
2021-12-23 15:19:08.002114,-66
2021-12-23 15:19:08.002119,-45
2021-12-23 15:19:08.002124,-4
2021-12-23 15:19:08.002129,14
2021-12-23 15:19:08.002134,28
2021-12-23 15:19:08.002139,26
2021-12-23 15:19:08.002144,14
2021-12-23 15:19:08.002149,35
2021-12-23 15:19:08.002154,76
2021-12-23 15:19:08.002159,107
2021-12-23 15:19:08.002164,148
2021-12-23 15:19:08.002169,186
2021-12-23 15:19:08.002175,203
2021-12-23 15:19:08.002180,234
2021-12-23 15:19:08.002185,289
2021-12-23 15:19:08.002190,322
2021-12-23 15:19:08.002195,327
2021-12-23 15:19:08.002201,320
2021-12-23 15:19:08.002206,308
2021-12-23 15:19:08.002211,282
2021-12-23 15:19:08.002216,227
2021-12-23 15:19:08.138578,150
2021-12-23 15:19:08.138598,66
2021-12-23 15:19:08.138605,-19
2021-12-23 15:19:08.138612,-107
2021-12-23 15:19:08.138619,-143
2021-12-23 15:19:08.138626,-131
2021-12-23 15:19:08.138632,-131
2021-12-23 15:19:08.138639,-136
2021-12-23 15:19:08.138646,-138
2021-12-23 15:19:08.138652,-162
2021-12-23 15:19:08.138658,-148
2021-12-23 15:19:08.138665,-102
2021-12-23 15:19:08.138671,-100
2021-12-23 15:19:08.138678,-110
2021-12-23 15:19:08.138684,-107
2021-12-23 15:19:08.138691,-122
2021-12-23 15:19:08.138697,-138
2021-12-23 15:19:08.138704,-141
2021-12-23 15:19:08.138710,-119
2021-12-23 15:19:08.138717,-105
2021-12-23 15:19:08.138723,-124
2021-12-23 15:19:08.138729,-133
2021-12-23 15:19:08.138736,-107
2021-12-23 15:19:08.138742,-88
2021-12-23 15:19:08.138749,-93
2021-12-23 15:19:08.138755,-107
2021-12-23 15:19:08.138762,-117
2021-12-23 15:19:08.138768,-133
2021-12-23 15:19:08.138775,-150
2021-12-23 15:19:08.138781,-141
2021-12-23 15:19:08.363184,-117
2021-12-23 15:19:08.363213,-112
2021-12-23 15:19:08.363225,-129
2021-12-23 15:19:08.363235,-141
2021-12-23 15:19:08.363245,-160
2021-12-23 15:19:08.363255,-179
2021-12-23 15:19:08.363265,-157
2021-12-23 15:19:08.363275,-141
2021-12-23 15:19:08.363285,-155
2021-12-23 15:19:08.363294,-148
2021-12-23 15:19:08.363311,-131
2021-12-23 15:19:08.363322,-133
2021-12-23 15:19:08.363331,-126
2021-12-23 15:19:08.363341,-131
2021-12-23 15:19:08.363351,-174
2021-12-23 15:19:08.363360,-181
2021-12-23 15:19:08.363370,-148
2021-12-23 15:19:08.363380,-131
2021-12-23 15:19:08.363389,-138
2021-12-23 15:19:08.363399,-153
2021-12-23 15:19:08.363409,-145
2021-12-23 15:19:08.363418,-124
2021-12-23 15:19:08.363428,-122
2021-12-23 15:19:08.363438,-145
2021-12-23 15:19:08.363447,-143
2021-12-23 15:19:08.363457,81
2021-12-23 15:19:08.363467,528
2021-12-23 15:19:08.363477,818
2021-12-23 15:19:08.363486,634
2021-12-23 15:19:08.363496,7
2021-12-23 15:19:08.588254,-416
2021-12-23 15:19:08.588275,-174
2021-12-23 15:19:08.588283,38
2021-12-23 15:19:08.588289,-95
2021-12-23 15:19:08.588296,-88
2021-12-23 15:19:08.588302,14
2021-12-23 15:19:08.588309,-21
2021-12-23 15:19:08.588315,-52
2021-12-23 15:19:08.588321,-9
2021-12-23 15:19:08.588328,19
2021-12-23 15:19:08.588334,28
2021-12-23 15:19:08.588340,52
2021-12-23 15:19:08.588347,66
2021-12-23 15:19:08.588353,52
2021-12-23 15:19:08.588359,55
2021-12-23 15:19:08.588366,93
2021-12-23 15:19:08.588372,133
2021-12-23 15:19:08.588378,157
2021-12-23 15:19:08.588385,191
2021-12-23 15:19:08.588391,227
2021-12-23 15:19:08.588397,234
2021-12-23 15:19:08.588404,224
2021-12-23 15:19:08.588410,236
2021-12-23 15:19:08.588416,277
2021-12-23 15:19:08.588423,291
2021-12-23 15:19:08.588434,270
2021-12-23 15:19:08.588440,236
2021-12-23 15:19:08.588447,189
2021-12-23 15:19:08.588453,114
2021-12-23 15:19:08.588460,33
2021-12-23 15:19:08.813232,-31
2021-12-23 15:19:08.813263,-74
2021-12-23 15:19:08.813274,-100
2021-12-23 15:19:08.813284,-124
2021-12-23 15:19:08.813294,-148
2021-12-23 15:19:08.813304,-160
2021-12-23 15:19:08.813313,-174
2021-12-23 15:19:08.813323,-179
2021-12-23 15:19:08.813333,-162
2021-12-23 15:19:08.813342,-172
2021-12-23 15:19:08.813353,-203
2021-12-23 15:19:08.813363,-205
2021-12-23 15:19:08.813372,-205
2021-12-23 15:19:08.813382,-212
2021-12-23 15:19:08.813392,-193
2021-12-23 15:19:08.813401,-172
2021-12-23 15:19:08.813411,-169
2021-12-23 15:19:08.813421,-167
2021-12-23 15:19:08.813431,-162
2021-12-23 15:19:08.813440,-148
2021-12-23 15:19:08.813450,-122
2021-12-23 15:19:08.813459,-112
2021-12-23 15:19:08.813469,-124
2021-12-23 15:19:08.813479,-138
2021-12-23 15:19:08.813488,-133
2021-12-23 15:19:08.813498,-112
2021-12-23 15:19:08.813507,-107
2021-12-23 15:19:08.813517,-119
2021-12-23 15:19:08.813526,-119
2021-12-23 15:19:08.813536,-131
2021-12-23 15:19:09.038319,-145
2021-12-23 15:19:09.038349,-124
2021-12-23 15:19:09.038361,-102
2021-12-23 15:19:09.038372,-110
2021-12-23 15:19:09.038382,-114
2021-12-23 15:19:09.038392,-122
2021-12-23 15:19:09.038402,-143
2021-12-23 15:19:09.038412,-126
2021-12-23 15:19:09.038421,-100
2021-12-23 15:19:09.038431,-105
2021-12-23 15:19:09.038441,-112
2021-12-23 15:19:09.038451,-122
2021-12-23 15:19:09.038460,-124
2021-12-23 15:19:09.038470,-105
2021-12-23 15:19:09.038480,-98
2021-12-23 15:19:09.038490,-100
2021-12-23 15:19:09.038505,-83
2021-12-23 15:19:09.038516,-76
2021-12-23 15:19:09.038526,-90
2021-12-23 15:19:09.038535,-78
2021-12-23 15:19:09.038545,-50
2021-12-23 15:19:09.038555,-47
2021-12-23 15:19:09.038565,-57
2021-12-23 15:19:09.038575,-47
2021-12-23 15:19:09.038585,-35
2021-12-23 15:19:09.038594,-23
2021-12-23 15:19:09.038604,-11
2021-12-23 15:19:09.038614,-9
2021-12-23 15:19:09.038624,-14
2021-12-23 15:19:09.038633,-14
2021-12-23 15:19:09.308293,-14
2021-12-23 15:19:09.308322,-11
2021-12-23 15:19:09.308334,-11
2021-12-23 15:19:09.308345,-9
2021-12-23 15:19:09.308355,-16
2021-12-23 15:19:09.308364,-38
2021-12-23 15:19:09.308374,-38
2021-12-23 15:19:09.308384,-9
2021-12-23 15:19:09.308395,0
2021-12-23 15:19:09.308405,-26
2021-12-23 15:19:09.308415,-71
2021-12-23 15:19:09.308424,-83
2021-12-23 15:19:09.308434,122
2021-12-23 15:19:09.308445,559
2021-12-23 15:19:09.308455,846
2021-12-23 15:19:09.308465,672
2021-12-23 15:19:09.308475,50
2021-12-23 15:19:09.308485,-416
2021-12-23 15:19:09.308495,-208
2021-12-23 15:19:09.308504,31
2021-12-23 15:19:09.308514,-83
2021-12-23 15:19:09.308524,-102
2021-12-23 15:19:09.308534,-16
2021-12-23 15:19:09.308543,-33
2021-12-23 15:19:09.308553,-28
2021-12-23 15:19:09.308563,33
2021-12-23 15:19:09.308573,31
2021-12-23 15:19:09.308583,-4
2021-12-23 15:19:09.308593,11
2021-12-23 15:19:09.308603,52
2021-12-23 15:19:09.488019,81
2021-12-23 15:19:09.488048,110
2021-12-23 15:19:09.488060,133
2021-12-23 15:19:09.488070,131
2021-12-23 15:19:09.488080,119
2021-12-23 15:19:09.488090,138
2021-12-23 15:19:09.488099,196
2021-12-23 15:19:09.488109,239
2021-12-23 15:19:09.488119,241
2021-12-23 15:19:09.488128,227
2021-12-23 15:19:09.488138,229
2021-12-23 15:19:09.488148,246
2021-12-23 15:19:09.488158,258
2021-12-23 15:19:09.488174,251
2021-12-23 15:19:09.488184,215
2021-12-23 15:19:09.488193,133
2021-12-23 15:19:09.488203,23
2021-12-23 15:19:09.488213,-43
2021-12-23 15:19:09.488223,-69
2021-12-23 15:19:09.488232,-100
2021-12-23 15:19:09.488242,-129
2021-12-23 15:19:09.488252,-145
2021-12-23 15:19:09.488261,-150
2021-12-23 15:19:09.488271,-138
2021-12-23 15:19:09.488280,-119
2021-12-23 15:19:09.488290,-105
2021-12-23 15:19:09.488300,-100
2021-12-23 15:19:09.488309,-100
2021-12-23 15:19:09.488319,-95
2021-12-23 15:19:09.488329,-114
2021-12-23 15:19:09.847372,-133
2021-12-23 15:19:09.847394,-117
2021-12-23 15:19:09.847401,-119
2021-12-23 15:19:09.847408,-157
2021-12-23 15:19:09.847414,-177
2021-12-23 15:19:09.847440,-155
2021-12-23 15:19:09.847449,-129
2021-12-23 15:19:09.847459,-112
2021-12-23 15:19:09.847469,-122
2021-12-23 15:19:09.847478,-157
2021-12-23 15:19:09.847488,-165
2021-12-23 15:19:09.847497,-133
2021-12-23 15:19:09.847507,-122
2021-12-23 15:19:09.847516,-107
2021-12-23 15:19:09.847526,-86
2021-12-23 15:19:09.847535,-105
2021-12-23 15:19:09.847545,-112
2021-12-23 15:19:09.847554,-78
2021-12-23 15:19:09.847564,-59
2021-12-23 15:19:09.847573,-55
2021-12-23 15:19:09.847583,-50
2021-12-23 15:19:09.847592,-66
2021-12-23 15:19:09.847602,-102
2021-12-23 15:19:09.847611,-122
2021-12-23 15:19:09.847621,-98
2021-12-23 15:19:09.847630,-71
2021-12-23 15:19:09.847640,-76
2021-12-23 15:19:09.847649,-78
2021-12-23 15:19:09.847659,-62
2021-12-23 15:19:09.847668,-50
2021-12-23 15:19:09.983203,-47
2021-12-23 15:19:09.983232,-55
2021-12-23 15:19:09.983244,-64
2021-12-23 15:19:09.983255,-69
2021-12-23 15:19:09.983266,-66
2021-12-23 15:19:09.983278,-52
2021-12-23 15:19:09.983289,-33
2021-12-23 15:19:09.983299,-26
2021-12-23 15:19:09.983310,-35
2021-12-23 15:19:09.983320,-47
2021-12-23 15:19:09.983327,-33
2021-12-23 15:19:09.983333,-11
2021-12-23 15:19:09.983339,-16
2021-12-23 15:19:09.983346,-21
2021-12-23 15:19:09.983352,-2
2021-12-23 15:19:09.983358,14
2021-12-23 15:19:09.983365,11
2021-12-23 15:19:09.983375,14
2021-12-23 15:19:09.983382,33
2021-12-23 15:19:09.983389,52
2021-12-23 15:19:09.983395,40
2021-12-23 15:19:09.983401,14
2021-12-23 15:19:09.983408,14
2021-12-23 15:19:09.983414,31
2021-12-23 15:19:09.983421,35
2021-12-23 15:19:09.983427,28
2021-12-23 15:19:09.983434,-2
2021-12-23 15:19:09.983440,-31
2021-12-23 15:19:09.983446,-19
2021-12-23 15:19:09.983453,7
2021-12-23 15:19:10.207424,19
2021-12-23 15:19:10.207444,31
2021-12-23 15:19:10.207451,26
2021-12-23 15:19:10.207458,-2
2021-12-23 15:19:10.207464,-14
2021-12-23 15:19:10.207471,-23
2021-12-23 15:19:10.207477,-33
2021-12-23 15:19:10.207484,112
2021-12-23 15:19:10.207490,485
2021-12-23 15:19:10.207496,760
2021-12-23 15:19:10.207503,590
2021-12-23 15:19:10.207509,62
2021-12-23 15:19:10.207515,-308
2021-12-23 15:19:10.207522,-193
2021-12-23 15:19:10.207528,-38
2021-12-23 15:19:10.207535,-105
2021-12-23 15:19:10.207541,-95
2021-12-23 15:19:10.207548,-14
2021-12-23 15:19:10.207554,-14
2021-12-23 15:19:10.207560,-16
2021-12-23 15:19:10.207567,2
2021-12-23 15:19:10.207573,7
2021-12-23 15:19:10.207579,21
2021-12-23 15:19:10.207586,50
2021-12-23 15:19:10.207592,69
2021-12-23 15:19:10.207598,88
2021-12-23 15:19:10.207605,105
2021-12-23 15:19:10.207611,95
2021-12-23 15:19:10.207617,83
2021-12-23 15:19:10.207623,105
2021-12-23 15:19:10.522568,133
2021-12-23 15:19:10.522598,124
2021-12-23 15:19:10.522610,124
2021-12-23 15:19:10.522620,148
2021-12-23 15:19:10.522630,148
2021-12-23 15:19:10.522640,133
2021-12-23 15:19:10.522650,138
2021-12-23 15:19:10.522660,122
2021-12-23 15:19:10.522670,88
2021-12-23 15:19:10.522680,76
2021-12-23 15:19:10.522690,50
2021-12-23 15:19:10.522700,-16
2021-12-23 15:19:10.522710,-86
2021-12-23 15:19:10.522720,-155
2021-12-23 15:19:10.522730,-210
2021-12-23 15:19:10.522740,-227
2021-12-23 15:19:10.522749,-215
2021-12-23 15:19:10.522759,-205
2021-12-23 15:19:10.522769,-210
2021-12-23 15:19:10.522779,-212
2021-12-23 15:19:10.522788,-203
2021-12-23 15:19:10.522798,-189
2021-12-23 15:19:10.522808,-165
2021-12-23 15:19:10.522817,-141
2021-12-23 15:19:10.522827,-129
2021-12-23 15:19:10.522837,-136
2021-12-23 15:19:10.522846,-138
2021-12-23 15:19:10.522856,-122
2021-12-23 15:19:10.522866,-98
2021-12-23 15:19:10.522881,-86
2021-12-23 15:19:10.658073,-83
2021-12-23 15:19:10.658092,-83
2021-12-23 15:19:10.658100,-81
2021-12-23 15:19:10.658107,-66
2021-12-23 15:19:10.658113,-40
2021-12-23 15:19:10.658119,-21
2021-12-23 15:19:10.658126,-23
2021-12-23 15:19:10.658132,-33
2021-12-23 15:19:10.658138,-33
2021-12-23 15:19:10.658145,-26
2021-12-23 15:19:10.658151,-19
2021-12-23 15:19:10.658157,-21
2021-12-23 15:19:10.658163,-33
2021-12-23 15:19:10.658170,-35
2021-12-23 15:19:10.658176,-21
2021-12-23 15:19:10.658182,-19
2021-12-23 15:19:10.658189,-19
2021-12-23 15:19:10.658195,-7
2021-12-23 15:19:10.658201,2
2021-12-23 15:19:10.658208,0
2021-12-23 15:19:10.658214,-4
2021-12-23 15:19:10.658221,-2
2021-12-23 15:19:10.658227,4
2021-12-23 15:19:10.658233,2
2021-12-23 15:19:10.658240,-9
2021-12-23 15:19:10.658246,-7
2021-12-23 15:19:10.658252,11
2021-12-23 15:19:10.658259,14
2021-12-23 15:19:10.658265,21
2021-12-23 15:19:10.658271,31
2021-12-23 15:19:10.972549,21
2021-12-23 15:19:10.972579,23
2021-12-23 15:19:10.972591,43
2021-12-23 15:19:10.972601,26
2021-12-23 15:19:10.972611,-19
2021-12-23 15:19:10.972621,-45
2021-12-23 15:19:10.972631,-55
2021-12-23 15:19:10.972640,-47
2021-12-23 15:19:10.972650,-38
2021-12-23 15:19:10.972660,-50
2021-12-23 15:19:10.972669,-50
2021-12-23 15:19:10.972679,-33
2021-12-23 15:19:10.972689,-52
2021-12-23 15:19:10.972698,-64
2021-12-23 15:19:10.972708,-50
2021-12-23 15:19:10.972718,-50
2021-12-23 15:19:10.972728,-59
2021-12-23 15:19:10.972737,-69
2021-12-23 15:19:10.972747,-76
2021-12-23 15:19:10.972757,-62
2021-12-23 15:19:10.972766,-45
2021-12-23 15:19:10.972776,-52
2021-12-23 15:19:10.972785,-57
2021-12-23 15:19:10.972795,-52
2021-12-23 15:19:10.972805,-43
2021-12-23 15:19:10.972814,-26
2021-12-23 15:19:10.972824,-28
2021-12-23 15:19:10.972834,-50
2021-12-23 15:19:10.972843,78
2021-12-23 15:19:10.972853,466
2021-12-23 15:19:11.108190,782
2021-12-23 15:19:11.108220,631
2021-12-23 15:19:11.108232,117
2021-12-23 15:19:11.108243,-265
2021-12-23 15:19:11.108253,-220
2021-12-23 15:19:11.108263,-95
2021-12-23 15:19:11.108272,-133
2021-12-23 15:19:11.108282,-107
2021-12-23 15:19:11.108292,-35
2021-12-23 15:19:11.108301,-55
2021-12-23 15:19:11.108311,-57
2021-12-23 15:19:11.108321,-33
2021-12-23 15:19:11.108330,-33
2021-12-23 15:19:11.108340,-23
2021-12-23 15:19:11.108350,2
2021-12-23 15:19:11.108360,11
2021-12-23 15:19:11.108369,9
2021-12-23 15:19:11.108379,9
2021-12-23 15:19:11.108389,28
2021-12-23 15:19:11.108398,64
2021-12-23 15:19:11.108418,93
2021-12-23 15:19:11.108428,114
2021-12-23 15:19:11.108438,138
2021-12-23 15:19:11.108448,157
2021-12-23 15:19:11.108457,189
2021-12-23 15:19:11.108467,234
2021-12-23 15:19:11.108477,258
2021-12-23 15:19:11.108487,256
2021-12-23 15:19:11.108496,251
2021-12-23 15:19:11.108506,253
2021-12-23 15:19:11.422612,246
2021-12-23 15:19:11.422632,200
2021-12-23 15:19:11.422639,129
2021-12-23 15:19:11.422646,55
2021-12-23 15:19:11.422652,-28
2021-12-23 15:19:11.422659,-95
2021-12-23 15:19:11.422665,-107
2021-12-23 15:19:11.422671,-105
2021-12-23 15:19:11.422677,-122
2021-12-23 15:19:11.422684,-160
2021-12-23 15:19:11.422690,-217
2021-12-23 15:19:11.422696,-229
2021-12-23 15:19:11.422702,-200
2021-12-23 15:19:11.422709,-198
2021-12-23 15:19:11.422715,-203
2021-12-23 15:19:11.422721,-191
2021-12-23 15:19:11.422727,-181
2021-12-23 15:19:11.422734,-169
2021-12-23 15:19:11.422740,-145
2021-12-23 15:19:11.422746,-114
2021-12-23 15:19:11.422753,-98
2021-12-23 15:19:11.422759,-105
2021-12-23 15:19:11.422765,-102
2021-12-23 15:19:11.422771,-74
2021-12-23 15:19:11.422778,-47
2021-12-23 15:19:11.422784,-35
2021-12-23 15:19:11.422790,-31
2021-12-23 15:19:11.422797,-28
2021-12-23 15:19:11.422803,-33
2021-12-23 15:19:11.422809,-21
2021-12-23 15:19:11.648178,-2
2021-12-23 15:19:11.648222,2
2021-12-23 15:19:11.648234,4
2021-12-23 15:19:11.648244,11
2021-12-23 15:19:11.648253,23
2021-12-23 15:19:11.648263,43
2021-12-23 15:19:11.648272,55
2021-12-23 15:19:11.648282,64
2021-12-23 15:19:11.648291,59
2021-12-23 15:19:11.648300,23
2021-12-23 15:19:11.648310,-11
2021-12-23 15:19:11.648320,-11
2021-12-23 15:19:11.648329,-2
2021-12-23 15:19:11.648339,0
2021-12-23 15:19:11.648349,2
2021-12-23 15:19:11.648358,-21
2021-12-23 15:19:11.648368,-35
2021-12-23 15:19:11.648377,-7
2021-12-23 15:19:11.648387,7
2021-12-23 15:19:11.648396,7
2021-12-23 15:19:11.648405,11
2021-12-23 15:19:11.648415,-14
2021-12-23 15:19:11.648424,-38
2021-12-23 15:19:11.648434,-9
2021-12-23 15:19:11.648443,31
2021-12-23 15:19:11.648453,50
2021-12-23 15:19:11.648462,52
2021-12-23 15:19:11.648472,40
2021-12-23 15:19:11.648481,31
2021-12-23 15:19:11.648491,45
2021-12-23 15:19:11.871558,50
2021-12-23 15:19:11.871586,19
2021-12-23 15:19:11.871598,-9
2021-12-23 15:19:11.871608,-23
2021-12-23 15:19:11.871618,-31
2021-12-23 15:19:11.871628,-23
2021-12-23 15:19:11.871638,-2
2021-12-23 15:19:11.871647,-4
2021-12-23 15:19:11.871657,-40
2021-12-23 15:19:11.871667,-71
2021-12-23 15:19:11.871677,-74
2021-12-23 15:19:11.871686,-66
2021-12-23 15:19:11.871696,69
2021-12-23 15:19:11.871706,466
2021-12-23 15:19:11.871716,775
2021-12-23 15:19:11.871725,557
2021-12-23 15:19:11.871735,-35
2021-12-23 15:19:11.871745,-421
2021-12-23 15:19:11.871755,-277
2021-12-23 15:19:11.871764,-64
2021-12-23 15:19:11.871774,-133
2021-12-23 15:19:11.871784,-157
2021-12-23 15:19:11.871800,-66
2021-12-23 15:19:11.871810,-52
2021-12-23 15:19:11.871819,-47
2021-12-23 15:19:11.871829,-7
2021-12-23 15:19:11.871839,0
2021-12-23 15:19:11.871848,-14
2021-12-23 15:19:11.871858,4
2021-12-23 15:19:11.871868,43
2021-12-23 15:19:12.052826,81
2021-12-23 15:19:12.052847,117
2021-12-23 15:19:12.052854,145
2021-12-23 15:19:12.052861,160
2021-12-23 15:19:12.052868,165
2021-12-23 15:19:12.052874,193
2021-12-23 15:19:12.052880,248
2021-12-23 15:19:12.052887,287
2021-12-23 15:19:12.052893,287
2021-12-23 15:19:12.052899,284
2021-12-23 15:19:12.052906,313
2021-12-23 15:19:12.052912,342
2021-12-23 15:19:12.052918,351
2021-12-23 15:19:12.052925,327
2021-12-23 15:19:12.052931,246
2021-12-23 15:19:12.052937,162
2021-12-23 15:19:12.052944,105
2021-12-23 15:19:12.052950,40
2021-12-23 15:19:12.052956,-31
2021-12-23 15:19:12.052963,-81
2021-12-23 15:19:12.052969,-124
2021-12-23 15:19:12.052976,-143
2021-12-23 15:19:12.052982,-122
2021-12-23 15:19:12.052988,-110
2021-12-23 15:19:12.052995,-114
2021-12-23 15:19:12.053001,-102
2021-12-23 15:19:12.053007,-95
2021-12-23 15:19:12.053013,-95
2021-12-23 15:19:12.053020,-76
2021-12-23 15:19:12.053026,-55
2021-12-23 15:19:12.278067,-45
2021-12-23 15:19:12.278088,-43
2021-12-23 15:19:12.278096,-31
2021-12-23 15:19:12.278102,-23
2021-12-23 15:19:12.278109,-31
2021-12-23 15:19:12.278115,-31
2021-12-23 15:19:12.278121,-28
2021-12-23 15:19:12.278128,-52
2021-12-23 15:19:12.278134,-81
2021-12-23 15:19:12.278140,-74
2021-12-23 15:19:12.278146,-52
2021-12-23 15:19:12.278152,-40
2021-12-23 15:19:12.278159,-43
2021-12-23 15:19:12.278165,-57
2021-12-23 15:19:12.278171,-76
2021-12-23 15:19:12.278178,-74
2021-12-23 15:19:12.278184,-59
2021-12-23 15:19:12.278190,-50
2021-12-23 15:19:12.278196,-52
2021-12-23 15:19:12.278203,-66
2021-12-23 15:19:12.278209,-107
2021-12-23 15:19:12.278215,-148
2021-12-23 15:19:12.278221,-148
2021-12-23 15:19:12.278228,-119
2021-12-23 15:19:12.278234,-107
2021-12-23 15:19:12.278240,-102
2021-12-23 15:19:12.278246,-76
2021-12-23 15:19:12.278252,-66
2021-12-23 15:19:12.278259,-81
2021-12-23 15:19:12.278265,-93
2021-12-23 15:19:12.503264,-112
2021-12-23 15:19:12.503295,-126
2021-12-23 15:19:12.503307,-124
2021-12-23 15:19:12.503317,-131
2021-12-23 15:19:12.503327,-124
2021-12-23 15:19:12.503336,-102
2021-12-23 15:19:12.503346,-107
2021-12-23 15:19:12.503355,-129
2021-12-23 15:19:12.503365,-129
2021-12-23 15:19:12.503374,-112
2021-12-23 15:19:12.503384,-100
2021-12-23 15:19:12.503394,-112
2021-12-23 15:19:12.503403,-172
2021-12-23 15:19:12.503413,-136
2021-12-23 15:19:12.503422,224
2021-12-23 15:19:12.503432,669
2021-12-23 15:19:12.503442,722
2021-12-23 15:19:12.503451,306
2021-12-23 15:19:12.503461,-267
2021-12-23 15:19:12.503470,-385
2021-12-23 15:19:12.503480,-76
2021-12-23 15:19:12.503489,-19
2021-12-23 15:19:12.503499,-117
2021-12-23 15:19:12.503508,-62
2021-12-23 15:19:12.503518,-47
2021-12-23 15:19:12.503527,-76
2021-12-23 15:19:12.503537,-38
2021-12-23 15:19:12.503546,-2
2021-12-23 15:19:12.503556,9
2021-12-23 15:19:12.503566,31
2021-12-23 15:19:12.727645,40
2021-12-23 15:19:12.727669,55
2021-12-23 15:19:12.727676,90
2021-12-23 15:19:12.727683,117
2021-12-23 15:19:12.727689,131
2021-12-23 15:19:12.727703,143
2021-12-23 15:19:12.727710,141
2021-12-23 15:19:12.727716,169
2021-12-23 15:19:12.727722,227
2021-12-23 15:19:12.727729,256
2021-12-23 15:19:12.727735,267
2021-12-23 15:19:12.727741,289
2021-12-23 15:19:12.727748,296
2021-12-23 15:19:12.727754,299
2021-12-23 15:19:12.727761,294
2021-12-23 15:19:12.727767,246
2021-12-23 15:19:12.727773,177
2021-12-23 15:19:12.727780,107
2021-12-23 15:19:12.727786,23
2021-12-23 15:19:12.727792,-43
2021-12-23 15:19:12.727799,-66
2021-12-23 15:19:12.727805,-83
2021-12-23 15:19:12.727812,-112
2021-12-23 15:19:12.727818,-112
2021-12-23 15:19:12.727824,-100
2021-12-23 15:19:12.727831,-122
2021-12-23 15:19:12.727837,-148
2021-12-23 15:19:12.727843,-136
2021-12-23 15:19:12.727850,-110
2021-12-23 15:19:12.727856,-105
2021-12-23 15:19:12.953238,-107
2021-12-23 15:19:12.953288,-88
2021-12-23 15:19:12.953349,-69
2021-12-23 15:19:12.953369,-81
2021-12-23 15:19:12.953380,-105
2021-12-23 15:19:12.953390,-119
2021-12-23 15:19:12.953399,-119
2021-12-23 15:19:12.953409,-100
2021-12-23 15:19:12.953418,-83
2021-12-23 15:19:12.953428,-81
2021-12-23 15:19:12.953438,-83
2021-12-23 15:19:12.953447,-95
2021-12-23 15:19:12.953457,-98
2021-12-23 15:19:12.953466,-74
2021-12-23 15:19:12.953476,-55
2021-12-23 15:19:12.953485,-45
2021-12-23 15:19:12.953495,-35
2021-12-23 15:19:12.953504,-35
2021-12-23 15:19:12.953514,-38
2021-12-23 15:19:12.953523,-26
2021-12-23 15:19:12.953533,-21
2021-12-23 15:19:12.953543,-28
2021-12-23 15:19:12.953552,-21
2021-12-23 15:19:12.953562,-9
2021-12-23 15:19:12.953571,-19
2021-12-23 15:19:12.953581,-33
2021-12-23 15:19:12.953591,-35
2021-12-23 15:19:12.953600,-59
2021-12-23 15:19:12.953610,-100
2021-12-23 15:19:12.953619,-95
2021-12-23 15:19:13.178243,-69
2021-12-23 15:19:13.178272,-64
2021-12-23 15:19:13.178284,-74
2021-12-23 15:19:13.178294,-88
2021-12-23 15:19:13.178304,-105
2021-12-23 15:19:13.178314,-110
2021-12-23 15:19:13.178323,-86
2021-12-23 15:19:13.178333,-69
2021-12-23 15:19:13.178342,-69
2021-12-23 15:19:13.178352,-81
2021-12-23 15:19:13.178361,-98
2021-12-23 15:19:13.178371,-90
2021-12-23 15:19:13.178380,-66
2021-12-23 15:19:13.178390,-55
2021-12-23 15:19:13.178400,-40
2021-12-23 15:19:13.178409,-21
2021-12-23 15:19:13.178419,-16
2021-12-23 15:19:13.178428,-9
2021-12-23 15:19:13.178438,2
2021-12-23 15:19:13.178448,4
2021-12-23 15:19:13.178457,0
2021-12-23 15:19:13.178467,-9
2021-12-23 15:19:13.178476,-26
2021-12-23 15:19:13.178486,-19
2021-12-23 15:19:13.178496,4
2021-12-23 15:19:13.178505,21
2021-12-23 15:19:13.178515,19
2021-12-23 15:19:13.178524,9
2021-12-23 15:19:13.178534,4
2021-12-23 15:19:13.178544,-9
2021-12-23 15:19:13.448225,-78
2021-12-23 15:19:13.448254,-131
2021-12-23 15:19:13.448266,62
2021-12-23 15:19:13.448276,490
2021-12-23 15:19:13.448285,732
2021-12-23 15:19:13.448295,555
2021-12-23 15:19:13.448324,45
2021-12-23 15:19:13.448334,-337
2021-12-23 15:19:13.448344,-200
2021-12-23 15:19:13.448354,-28
2021-12-23 15:19:13.448363,-126
2021-12-23 15:19:13.448373,-124
2021-12-23 15:19:13.448383,-38
2021-12-23 15:19:13.448392,-40
2021-12-23 15:19:13.448402,-40
2021-12-23 15:19:13.448412,-14
2021-12-23 15:19:13.448422,-7
2021-12-23 15:19:13.448431,26
2021-12-23 15:19:13.448441,76
2021-12-23 15:19:13.448451,83
2021-12-23 15:19:13.448460,81
2021-12-23 15:19:13.448470,102
2021-12-23 15:19:13.448480,124
2021-12-23 15:19:13.448490,145
2021-12-23 15:19:13.448499,174
2021-12-23 15:19:13.448509,210
2021-12-23 15:19:13.448519,248
2021-12-23 15:19:13.448528,275
2021-12-23 15:19:13.448538,289
2021-12-23 15:19:13.448548,311
2021-12-23 15:19:13.673203,325
2021-12-23 15:19:13.673241,322
2021-12-23 15:19:13.673253,299
2021-12-23 15:19:13.673263,267
2021-12-23 15:19:13.673274,232
2021-12-23 15:19:13.673283,186
2021-12-23 15:19:13.673293,122
2021-12-23 15:19:13.673303,52
2021-12-23 15:19:13.673313,-23
2021-12-23 15:19:13.673323,-98
2021-12-23 15:19:13.673333,-119
2021-12-23 15:19:13.673343,-102
2021-12-23 15:19:13.673352,-107
2021-12-23 15:19:13.673363,-112
2021-12-23 15:19:13.673373,-105
2021-12-23 15:19:13.673382,-119
2021-12-23 15:19:13.673392,-124
2021-12-23 15:19:13.673402,-105
2021-12-23 15:19:13.673412,-90
2021-12-23 15:19:13.673421,-74
2021-12-23 15:19:13.673431,-81
2021-12-23 15:19:13.673441,-107
2021-12-23 15:19:13.673451,-105
2021-12-23 15:19:13.673460,-81
2021-12-23 15:19:13.673470,-64
2021-12-23 15:19:13.673480,-55
2021-12-23 15:19:13.673489,-64
2021-12-23 15:19:13.673499,-69
2021-12-23 15:19:13.673509,-47
2021-12-23 15:19:13.673519,-35
2021-12-23 15:19:13.942343,-33
2021-12-23 15:19:13.942364,-21
2021-12-23 15:19:13.942371,-19
2021-12-23 15:19:13.942378,-47
2021-12-23 15:19:13.942384,-69
2021-12-23 15:19:13.942391,-59
2021-12-23 15:19:13.942397,-74
2021-12-23 15:19:13.942404,-124
2021-12-23 15:19:13.942410,-148
2021-12-23 15:19:13.942416,-141
2021-12-23 15:19:13.942423,-124
2021-12-23 15:19:13.942429,-112
2021-12-23 15:19:13.942436,-117
2021-12-23 15:19:13.942442,-136
2021-12-23 15:19:13.942448,-169
2021-12-23 15:19:13.942455,-184
2021-12-23 15:19:13.942461,-162
2021-12-23 15:19:13.942467,-143
2021-12-23 15:19:13.942474,-143
2021-12-23 15:19:13.942480,-136
2021-12-23 15:19:13.942486,-129
2021-12-23 15:19:13.942493,-126
2021-12-23 15:19:13.942499,-119
2021-12-23 15:19:13.942505,-107
2021-12-23 15:19:13.942511,-93
2021-12-23 15:19:13.942518,-90
2021-12-23 15:19:13.942524,-95
2021-12-23 15:19:13.942530,-90
2021-12-23 15:19:13.942537,-78
2021-12-23 15:19:13.942543,-71
2021-12-23 15:19:14.212898,-64
2021-12-23 15:19:14.212927,-40
2021-12-23 15:19:14.212940,-11
2021-12-23 15:19:14.212952,-7
2021-12-23 15:19:14.212963,-19
2021-12-23 15:19:14.212974,-26
2021-12-23 15:19:14.212992,-35
2021-12-23 15:19:14.213005,-74
2021-12-23 15:19:14.213016,-107
2021-12-23 15:19:14.213028,-93
2021-12-23 15:19:14.213040,-57
2021-12-23 15:19:14.213052,-40
2021-12-23 15:19:14.213063,-43
2021-12-23 15:19:14.213075,-57
2021-12-23 15:19:14.213086,-52
2021-12-23 15:19:14.213098,-33
2021-12-23 15:19:14.213110,-33
2021-12-23 15:19:14.213122,-74
2021-12-23 15:19:14.213134,-69
2021-12-23 15:19:14.213145,167
2021-12-23 15:19:14.213157,595
2021-12-23 15:19:14.213169,832
2021-12-23 15:19:14.213180,626
2021-12-23 15:19:14.213187,43
2021-12-23 15:19:14.213193,-334
2021-12-23 15:19:14.213200,-119
2021-12-23 15:19:14.213206,64
2021-12-23 15:19:14.213212,-52
2021-12-23 15:19:14.213218,-47
2021-12-23 15:19:14.213224,50
2021-12-23 15:19:14.348175,33
2021-12-23 15:19:14.348205,9
2021-12-23 15:19:14.348216,50
2021-12-23 15:19:14.348226,66
2021-12-23 15:19:14.348235,71
2021-12-23 15:19:14.348245,105
2021-12-23 15:19:14.348255,126
2021-12-23 15:19:14.348264,119
2021-12-23 15:19:14.348274,119
2021-12-23 15:19:14.348284,143
2021-12-23 15:19:14.348293,172
2021-12-23 15:19:14.348303,184
2021-12-23 15:19:14.348312,177
2021-12-23 15:19:14.348322,186
2021-12-23 15:19:14.348332,229
2021-12-23 15:19:14.348341,260
2021-12-23 15:19:14.348351,279
2021-12-23 15:19:14.348361,308
2021-12-23 15:19:14.348370,299
2021-12-23 15:19:14.348380,263
2021-12-23 15:19:14.348390,263
2021-12-23 15:19:14.348399,241
2021-12-23 15:19:14.348409,165
2021-12-23 15:19:14.348418,69
2021-12-23 15:19:14.348428,-26
2021-12-23 15:19:14.348438,-90
2021-12-23 15:19:14.348448,-110
2021-12-23 15:19:14.348457,-131
2021-12-23 15:19:14.348467,-141
2021-12-23 15:19:14.348477,-131
2021-12-23 15:19:14.663212,-129
2021-12-23 15:19:14.663249,-119
2021-12-23 15:19:14.663260,-102
2021-12-23 15:19:14.663270,-102
2021-12-23 15:19:14.663280,-98
2021-12-23 15:19:14.663289,-86
2021-12-23 15:19:14.663299,-102
2021-12-23 15:19:14.663308,-112
2021-12-23 15:19:14.663318,-93
2021-12-23 15:19:14.663327,-100
2021-12-23 15:19:14.663337,-117
2021-12-23 15:19:14.663356,-112
2021-12-23 15:19:14.663366,-114
2021-12-23 15:19:14.663376,-102
2021-12-23 15:19:14.663386,-71
2021-12-23 15:19:14.663395,-74
2021-12-23 15:19:14.663405,-100
2021-12-23 15:19:14.663414,-102
2021-12-23 15:19:14.663424,-81
2021-12-23 15:19:14.663433,-64
2021-12-23 15:19:14.663443,-66
2021-12-23 15:19:14.663453,-69
2021-12-23 15:19:14.663462,-55
2021-12-23 15:19:14.663472,-55
2021-12-23 15:19:14.663482,-66
2021-12-23 15:19:14.663491,-52
2021-12-23 15:19:14.663501,-40
2021-12-23 15:19:14.663510,-43
2021-12-23 15:19:14.663520,-35
2021-12-23 15:19:14.663530,-26
2021-12-23 15:19:14.797422,-23
2021-12-23 15:19:14.797437,-14
2021-12-23 15:19:14.797443,-7
2021-12-23 15:19:14.797448,-14
2021-12-23 15:19:14.797453,-14
2021-12-23 15:19:14.797457,-26
2021-12-23 15:19:14.797462,-47
2021-12-23 15:19:14.797467,-55
2021-12-23 15:19:14.797471,-57
2021-12-23 15:19:14.797476,-71
2021-12-23 15:19:14.797480,-86
2021-12-23 15:19:14.797485,-98
2021-12-23 15:19:14.797490,-107
2021-12-23 15:19:14.797495,-95
2021-12-23 15:19:14.797499,-78
2021-12-23 15:19:14.797504,-90
2021-12-23 15:19:14.797508,-95
2021-12-23 15:19:14.797513,-105
2021-12-23 15:19:14.797518,-126
2021-12-23 15:19:14.797522,-119
2021-12-23 15:19:14.797527,-93
2021-12-23 15:19:14.797531,-93
2021-12-23 15:19:14.797536,-95
2021-12-23 15:19:14.797540,-74
2021-12-23 15:19:14.797545,-52
2021-12-23 15:19:14.797550,-47
2021-12-23 15:19:14.797554,-52
2021-12-23 15:19:14.797559,-55
2021-12-23 15:19:14.797564,-57
2021-12-23 15:19:14.797568,-69
2021-12-23 15:19:15.023148,-62
2021-12-23 15:19:15.023170,-31
2021-12-23 15:19:15.023177,-23
2021-12-23 15:19:15.023184,-43
2021-12-23 15:19:15.023190,-62
2021-12-23 15:19:15.023196,-71
2021-12-23 15:19:15.023202,-50
2021-12-23 15:19:15.023209,-28
2021-12-23 15:19:15.023215,-55
2021-12-23 15:19:15.023221,-90
2021-12-23 15:19:15.023227,40
2021-12-23 15:19:15.023234,433
2021-12-23 15:19:15.023240,770
2021-12-23 15:19:15.023247,689
2021-12-23 15:19:15.023253,167
2021-12-23 15:19:15.023259,-330
2021-12-23 15:19:15.023265,-272
2021-12-23 15:19:15.023272,-23
2021-12-23 15:19:15.023278,-55
2021-12-23 15:19:15.023284,-93
2021-12-23 15:19:15.023290,-11
2021-12-23 15:19:15.023297,-9
2021-12-23 15:19:15.023303,-40
2021-12-23 15:19:15.023309,0
2021-12-23 15:19:15.023316,47
2021-12-23 15:19:15.023322,64
2021-12-23 15:19:15.023328,74
2021-12-23 15:19:15.023334,78
2021-12-23 15:19:15.023341,86
2021-12-23 15:19:15.023347,110
2021-12-23 15:19:15.293067,141
2021-12-23 15:19:15.293088,167
2021-12-23 15:19:15.293096,189
2021-12-23 15:19:15.293103,184
2021-12-23 15:19:15.293109,177
2021-12-23 15:19:15.293115,212
2021-12-23 15:19:15.293122,270
2021-12-23 15:19:15.293128,299
2021-12-23 15:19:15.293135,301
2021-12-23 15:19:15.293141,279
2021-12-23 15:19:15.293147,265
2021-12-23 15:19:15.293153,279
2021-12-23 15:19:15.293160,263
2021-12-23 15:19:15.293166,196
2021-12-23 15:19:15.293173,129
2021-12-23 15:19:15.293179,52
2021-12-23 15:19:15.293185,-33
2021-12-23 15:19:15.293192,-81
2021-12-23 15:19:15.293198,-86
2021-12-23 15:19:15.293205,-93
2021-12-23 15:19:15.293211,-112
2021-12-23 15:19:15.293217,-133
2021-12-23 15:19:15.293224,-141
2021-12-23 15:19:15.293230,-153
2021-12-23 15:19:15.293236,-177
2021-12-23 15:19:15.293242,-160
2021-12-23 15:19:15.293249,-122
2021-12-23 15:19:15.293255,-126
2021-12-23 15:19:15.293261,-133
2021-12-23 15:19:15.293268,-100
2021-12-23 15:19:15.606952,-76
2021-12-23 15:19:15.606995,-69
2021-12-23 15:19:15.607003,-57
2021-12-23 15:19:15.607009,-59
2021-12-23 15:19:15.607016,-64
2021-12-23 15:19:15.607022,-45
2021-12-23 15:19:15.607028,-38
2021-12-23 15:19:15.607034,-59
2021-12-23 15:19:15.607041,-83
2021-12-23 15:19:15.607047,-95
2021-12-23 15:19:15.607053,-88
2021-12-23 15:19:15.607059,-66
2021-12-23 15:19:15.607066,-57
2021-12-23 15:19:15.607072,-52
2021-12-23 15:19:15.607078,-62
2021-12-23 15:19:15.607085,-90
2021-12-23 15:19:15.607091,-95
2021-12-23 15:19:15.607097,-81
2021-12-23 15:19:15.607103,-95
2021-12-23 15:19:15.607109,-100
2021-12-23 15:19:15.607116,-83
2021-12-23 15:19:15.607122,-93
2021-12-23 15:19:15.607128,-93
2021-12-23 15:19:15.607134,-66
2021-12-23 15:19:15.607141,-50
2021-12-23 15:19:15.607147,-43
2021-12-23 15:19:15.607153,-47
2021-12-23 15:19:15.607159,-66
2021-12-23 15:19:15.607166,-69
2021-12-23 15:19:15.607172,-59
2021-12-23 15:19:15.743158,-71
2021-12-23 15:19:15.743188,-90
2021-12-23 15:19:15.743199,-100
2021-12-23 15:19:15.743209,-107
2021-12-23 15:19:15.743219,-95
2021-12-23 15:19:15.743229,-71
2021-12-23 15:19:15.743239,-62
2021-12-23 15:19:15.743248,-76
2021-12-23 15:19:15.743264,-93
2021-12-23 15:19:15.743274,-93
2021-12-23 15:19:15.743284,-66
2021-12-23 15:19:15.743294,-33
2021-12-23 15:19:15.743303,-9
2021-12-23 15:19:15.743313,-7
2021-12-23 15:19:15.743322,-47
2021-12-23 15:19:15.743332,-81
2021-12-23 15:19:15.743342,-64
2021-12-23 15:19:15.743352,-50
2021-12-23 15:19:15.743361,-64
2021-12-23 15:19:15.743371,-71
2021-12-23 15:19:15.743381,-76
2021-12-23 15:19:15.743391,-86
2021-12-23 15:19:15.743400,-71
2021-12-23 15:19:15.743410,-45
2021-12-23 15:19:15.743420,-38
2021-12-23 15:19:15.743429,-43
2021-12-23 15:19:15.743439,-52
2021-12-23 15:19:15.743448,-76
2021-12-23 15:19:15.743458,-114
2021-12-23 15:19:15.743468,7
2021-12-23 15:19:16.011949,413
2021-12-23 15:19:16.011974,715
2021-12-23 15:19:16.011981,514
2021-12-23 15:19:16.011988,-4
2021-12-23 15:19:16.011995,-318
2021-12-23 15:19:16.012001,-191
2021-12-23 15:19:16.012007,-31
2021-12-23 15:19:16.012014,-86
2021-12-23 15:19:16.012020,-105
2021-12-23 15:19:16.012026,-45
2021-12-23 15:19:16.012033,-28
2021-12-23 15:19:16.012039,-21
2021-12-23 15:19:16.012045,2
2021-12-23 15:19:16.012052,-2
2021-12-23 15:19:16.012058,-16
2021-12-23 15:19:16.012064,7
2021-12-23 15:19:16.012071,45
2021-12-23 15:19:16.012077,69
2021-12-23 15:19:16.012083,83
2021-12-23 15:19:16.012089,105
2021-12-23 15:19:16.012096,126
2021-12-23 15:19:16.012102,133
2021-12-23 15:19:16.012108,141
2021-12-23 15:19:16.012114,172
2021-12-23 15:19:16.012121,205
2021-12-23 15:19:16.012127,222
2021-12-23 15:19:16.012133,244
2021-12-23 15:19:16.012139,267
2021-12-23 15:19:16.012146,284
2021-12-23 15:19:16.012152,303
2021-12-23 15:19:16.192317,299
2021-12-23 15:19:16.192333,253
2021-12-23 15:19:16.192339,184
2021-12-23 15:19:16.192345,117
2021-12-23 15:19:16.192350,62
2021-12-23 15:19:16.192355,9
2021-12-23 15:19:16.192360,-59
2021-12-23 15:19:16.192365,-117
2021-12-23 15:19:16.192370,-119
2021-12-23 15:19:16.192376,-112
2021-12-23 15:19:16.192380,-117
2021-12-23 15:19:16.192386,-105
2021-12-23 15:19:16.192391,-105
2021-12-23 15:19:16.192396,-126
2021-12-23 15:19:16.192401,-126
2021-12-23 15:19:16.192406,-105
2021-12-23 15:19:16.192411,-83
2021-12-23 15:19:16.192416,-66
2021-12-23 15:19:16.192421,-69
2021-12-23 15:19:16.192426,-78
2021-12-23 15:19:16.192431,-81
2021-12-23 15:19:16.192436,-83
2021-12-23 15:19:16.192441,-71
2021-12-23 15:19:16.192446,-64
2021-12-23 15:19:16.192451,-81
2021-12-23 15:19:16.192456,-81
2021-12-23 15:19:16.192461,-57
2021-12-23 15:19:16.192466,-52
2021-12-23 15:19:16.192471,-50
2021-12-23 15:19:16.192476,-31
2021-12-23 15:19:16.418142,-26
2021-12-23 15:19:16.418172,-31
2021-12-23 15:19:16.418183,-33
2021-12-23 15:19:16.418194,-57
2021-12-23 15:19:16.418203,-98
2021-12-23 15:19:16.418213,-110
2021-12-23 15:19:16.418223,-112
2021-12-23 15:19:16.418233,-110
2021-12-23 15:19:16.418242,-83
2021-12-23 15:19:16.418252,-69
2021-12-23 15:19:16.418262,-76
2021-12-23 15:19:16.418272,-86
2021-12-23 15:19:16.418281,-107
2021-12-23 15:19:16.418291,-112
2021-12-23 15:19:16.418301,-114
2021-12-23 15:19:16.418311,-131
2021-12-23 15:19:16.418320,-126
2021-12-23 15:19:16.418330,-110
2021-12-23 15:19:16.418340,-107
2021-12-23 15:19:16.418349,-95
2021-12-23 15:19:16.418359,-86
2021-12-23 15:19:16.418369,-93
2021-12-23 15:19:16.418378,-86
2021-12-23 15:19:16.418388,-74
2021-12-23 15:19:16.418398,-81
2021-12-23 15:19:16.418408,-88
2021-12-23 15:19:16.418417,-90
2021-12-23 15:19:16.418427,-88
2021-12-23 15:19:16.418437,-62
2021-12-23 15:19:16.418447,-38
2021-12-23 15:19:16.643162,-38
2021-12-23 15:19:16.643192,-35
2021-12-23 15:19:16.643203,-35
2021-12-23 15:19:16.643213,-45
2021-12-23 15:19:16.643222,-57
2021-12-23 15:19:16.643232,-86
2021-12-23 15:19:16.643242,-105
2021-12-23 15:19:16.643251,-74
2021-12-23 15:19:16.643260,-40
2021-12-23 15:19:16.643270,-43
2021-12-23 15:19:16.643279,-55
2021-12-23 15:19:16.643289,-64
2021-12-23 15:19:16.643298,-62
2021-12-23 15:19:16.643308,-45
2021-12-23 15:19:16.643317,-55
2021-12-23 15:19:16.643327,-16
2021-12-23 15:19:16.643336,272
2021-12-23 15:19:16.643346,677
2021-12-23 15:19:16.643356,724
2021-12-23 15:19:16.643365,303
2021-12-23 15:19:16.643375,-186
2021-12-23 15:19:16.643384,-260
2021-12-23 15:19:16.643394,-26
2021-12-23 15:19:16.643403,9
2021-12-23 15:19:16.643413,-43
2021-12-23 15:19:16.643423,33
2021-12-23 15:19:16.643433,64
2021-12-23 15:19:16.643442,23
2021-12-23 15:19:16.643452,14
2021-12-23 15:19:16.643461,31
2021-12-23 15:19:16.958141,52
2021-12-23 15:19:16.958171,76
2021-12-23 15:19:16.958183,93
2021-12-23 15:19:16.958193,98
2021-12-23 15:19:16.958203,93
2021-12-23 15:19:16.958212,98
2021-12-23 15:19:16.958222,131
2021-12-23 15:19:16.958231,167
2021-12-23 15:19:16.958241,184
2021-12-23 15:19:16.958250,181
2021-12-23 15:19:16.958260,162
2021-12-23 15:19:16.958270,174
2021-12-23 15:19:16.958280,227
2021-12-23 15:19:16.958289,265
2021-12-23 15:19:16.958299,272
2021-12-23 15:19:16.958308,275
2021-12-23 15:19:16.958318,267
2021-12-23 15:19:16.958328,251
2021-12-23 15:19:16.958337,215
2021-12-23 15:19:16.958347,155
2021-12-23 15:19:16.958356,76
2021-12-23 15:19:16.958366,-11
2021-12-23 15:19:16.958376,-95
2021-12-23 15:19:16.958396,-131
2021-12-23 15:19:16.958406,-129
2021-12-23 15:19:16.958416,-129
2021-12-23 15:19:16.958426,-138
2021-12-23 15:19:16.958435,-150
2021-12-23 15:19:16.958445,-148
2021-12-23 15:19:16.958454,-133
2021-12-23 15:19:17.093122,-138
2021-12-23 15:19:17.093143,-143
2021-12-23 15:19:17.093151,-131
2021-12-23 15:19:17.093157,-148
2021-12-23 15:19:17.093164,-177
2021-12-23 15:19:17.093170,-145
2021-12-23 15:19:17.093176,-102
2021-12-23 15:19:17.093183,-102
2021-12-23 15:19:17.093189,-105
2021-12-23 15:19:17.093195,-107
2021-12-23 15:19:17.093202,-102
2021-12-23 15:19:17.093208,-74
2021-12-23 15:19:17.093214,-55
2021-12-23 15:19:17.093220,-62
2021-12-23 15:19:17.093227,-71
2021-12-23 15:19:17.093233,-86
2021-12-23 15:19:17.093239,-100
2021-12-23 15:19:17.093246,-95
2021-12-23 15:19:17.093252,-71
2021-12-23 15:19:17.093258,-64
2021-12-23 15:19:17.093265,-76
2021-12-23 15:19:17.093271,-98
2021-12-23 15:19:17.093277,-114
2021-12-23 15:19:17.093283,-110
2021-12-23 15:19:17.093290,-102
2021-12-23 15:19:17.093296,-105
2021-12-23 15:19:17.093302,-110
2021-12-23 15:19:17.093309,-114
2021-12-23 15:19:17.093315,-86
2021-12-23 15:19:17.093321,-33
2021-12-23 15:19:17.363195,-16
2021-12-23 15:19:17.363225,-43
2021-12-23 15:19:17.363237,-95
2021-12-23 15:19:17.363247,-150
2021-12-23 15:19:17.363257,-157
2021-12-23 15:19:17.363267,-133
2021-12-23 15:19:17.363276,-117
2021-12-23 15:19:17.363286,-100
2021-12-23 15:19:17.363296,-95
2021-12-23 15:19:17.363306,-110
2021-12-23 15:19:17.363316,-105
2021-12-23 15:19:17.363325,-83
2021-12-23 15:19:17.363335,-66
2021-12-23 15:19:17.363345,-64
2021-12-23 15:19:17.363355,-98
2021-12-23 15:19:17.363364,-131
2021-12-23 15:19:17.363374,86
2021-12-23 15:19:17.363384,547
2021-12-23 15:19:17.363394,753
2021-12-23 15:19:17.363404,464
2021-12-23 15:19:17.363413,-105
2021-12-23 15:19:17.363423,-399
2021-12-23 15:19:17.363433,-145
2021-12-23 15:19:17.363443,33
2021-12-23 15:19:17.363452,-62
2021-12-23 15:19:17.363462,-40
2021-12-23 15:19:17.363472,23
2021-12-23 15:19:17.363482,-9
2021-12-23 15:19:17.363492,-4
2021-12-23 15:19:17.363501,47
2021-12-23 15:19:17.632859,66
2021-12-23 15:19:17.632879,74
2021-12-23 15:19:17.632887,81
2021-12-23 15:19:17.632894,76
2021-12-23 15:19:17.632900,81
2021-12-23 15:19:17.632906,98
2021-12-23 15:19:17.632913,119
2021-12-23 15:19:17.632919,143
2021-12-23 15:19:17.632925,145
2021-12-23 15:19:17.632932,148
2021-12-23 15:19:17.632938,196
2021-12-23 15:19:17.632944,256
2021-12-23 15:19:17.632951,294
2021-12-23 15:19:17.632957,303
2021-12-23 15:19:17.632963,294
2021-12-23 15:19:17.632970,289
2021-12-23 15:19:17.632976,299
2021-12-23 15:19:17.632982,277
2021-12-23 15:19:17.632989,215
2021-12-23 15:19:17.632995,133
2021-12-23 15:19:17.633001,40
2021-12-23 15:19:17.633007,-33
2021-12-23 15:19:17.633014,-71
2021-12-23 15:19:17.633020,-93
2021-12-23 15:19:17.633027,-110
2021-12-23 15:19:17.633033,-114
2021-12-23 15:19:17.633039,-119
2021-12-23 15:19:17.633046,-119
2021-12-23 15:19:17.633052,-105
2021-12-23 15:19:17.633058,-86
2021-12-23 15:19:17.857616,-71
2021-12-23 15:19:17.857637,-62
2021-12-23 15:19:17.857645,-59
2021-12-23 15:19:17.857651,-59
2021-12-23 15:19:17.857676,-45
2021-12-23 15:19:17.857685,-38
2021-12-23 15:19:17.857695,-59
2021-12-23 15:19:17.857705,-98
2021-12-23 15:19:17.857715,-112
2021-12-23 15:19:17.857725,-95
2021-12-23 15:19:17.857735,-90
2021-12-23 15:19:17.857744,-98
2021-12-23 15:19:17.857754,-90
2021-12-23 15:19:17.857765,-74
2021-12-23 15:19:17.857774,-74
2021-12-23 15:19:17.857784,-78
2021-12-23 15:19:17.857794,-64
2021-12-23 15:19:17.857804,-38
2021-12-23 15:19:17.857813,-33
2021-12-23 15:19:17.857823,-59
2021-12-23 15:19:17.857833,-86
2021-12-23 15:19:17.857842,-112
2021-12-23 15:19:17.857852,-129
2021-12-23 15:19:17.857862,-105
2021-12-23 15:19:17.857871,-88
2021-12-23 15:19:17.857881,-102
2021-12-23 15:19:17.857890,-98
2021-12-23 15:19:17.857900,-83
2021-12-23 15:19:17.857910,-74
2021-12-23 15:19:17.857919,-57
2021-12-23 15:19:18.081844,-57
2021-12-23 15:19:18.081874,-76
2021-12-23 15:19:18.081885,-83
2021-12-23 15:19:18.081895,-64
2021-12-23 15:19:18.081905,-55
2021-12-23 15:19:18.081915,-62
2021-12-23 15:19:18.081925,-78
2021-12-23 15:19:18.081935,-112
2021-12-23 15:19:18.081944,-145
2021-12-23 15:19:18.081954,-160
2021-12-23 15:19:18.081964,-155
2021-12-23 15:19:18.081974,-138
2021-12-23 15:19:18.081984,-148
2021-12-23 15:19:18.081993,-167
2021-12-23 15:19:18.082003,-150
2021-12-23 15:19:18.082013,-124
2021-12-23 15:19:18.082023,-110
2021-12-23 15:19:18.082032,-105
2021-12-23 15:19:18.082042,-126
2021-12-23 15:19:18.082052,-172
2021-12-23 15:19:18.082062,-129
2021-12-23 15:19:18.082072,181
2021-12-23 15:19:18.082082,622
2021-12-23 15:19:18.082092,794
2021-12-23 15:19:18.082101,492
2021-12-23 15:19:18.082111,-119
2021-12-23 15:19:18.082121,-373
2021-12-23 15:19:18.082130,-78
2021-12-23 15:19:18.082140,31
2021-12-23 15:19:18.082150,-100
2021-12-23 15:19:18.263238,-59
2021-12-23 15:19:18.263267,19
2021-12-23 15:19:18.263279,-4
2021-12-23 15:19:18.263290,-7
2021-12-23 15:19:18.263300,28
2021-12-23 15:19:18.263309,28
2021-12-23 15:19:18.263319,14
2021-12-23 15:19:18.263329,38
2021-12-23 15:19:18.263339,66
2021-12-23 15:19:18.263348,66
2021-12-23 15:19:18.263358,62
2021-12-23 15:19:18.263368,64
2021-12-23 15:19:18.263378,71
2021-12-23 15:19:18.263388,107
2021-12-23 15:19:18.263398,160
2021-12-23 15:19:18.263407,189
2021-12-23 15:19:18.263417,210
2021-12-23 15:19:18.263427,241
2021-12-23 15:19:18.263437,270
2021-12-23 15:19:18.263447,299
2021-12-23 15:19:18.263456,311
2021-12-23 15:19:18.263466,284
2021-12-23 15:19:18.263476,246
2021-12-23 15:19:18.263486,198
2021-12-23 15:19:18.263495,110
2021-12-23 15:19:18.263505,26
2021-12-23 15:19:18.263515,-38
2021-12-23 15:19:18.263525,-117
2021-12-23 15:19:18.263534,-179
2021-12-23 15:19:18.263554,-184
2021-12-23 15:19:18.488018,-174
2021-12-23 15:19:18.488048,-167
2021-12-23 15:19:18.488059,-148
2021-12-23 15:19:18.488069,-143
2021-12-23 15:19:18.488079,-157
2021-12-23 15:19:18.488089,-179
2021-12-23 15:19:18.488099,-174
2021-12-23 15:19:18.488108,-141
2021-12-23 15:19:18.488118,-126
2021-12-23 15:19:18.488128,-131
2021-12-23 15:19:18.488138,-119
2021-12-23 15:19:18.488148,-119
2021-12-23 15:19:18.488158,-148
2021-12-23 15:19:18.488167,-157
2021-12-23 15:19:18.488177,-136
2021-12-23 15:19:18.488187,-119
2021-12-23 15:19:18.488197,-114
2021-12-23 15:19:18.488206,-110
2021-12-23 15:19:18.488216,-105
2021-12-23 15:19:18.488226,-98
2021-12-23 15:19:18.488236,-90
2021-12-23 15:19:18.488245,-83
2021-12-23 15:19:18.488255,-62
2021-12-23 15:19:18.488265,-35
2021-12-23 15:19:18.488274,-21
2021-12-23 15:19:18.488284,-7
2021-12-23 15:19:18.488294,-7
2021-12-23 15:19:18.488304,-35
2021-12-23 15:19:18.488313,-55
2021-12-23 15:19:18.488323,-45
2021-12-23 15:19:18.713159,-40
2021-12-23 15:19:18.713189,-52
2021-12-23 15:19:18.713200,-38
2021-12-23 15:19:18.713210,-21
2021-12-23 15:19:18.713220,-47
2021-12-23 15:19:18.713229,-66
2021-12-23 15:19:18.713239,-40
2021-12-23 15:19:18.713248,-35
2021-12-23 15:19:18.713258,-50
2021-12-23 15:19:18.713267,-43
2021-12-23 15:19:18.713277,-47
2021-12-23 15:19:18.713286,-59
2021-12-23 15:19:18.713296,-31
2021-12-23 15:19:18.713305,-19
2021-12-23 15:19:18.713314,-69
2021-12-23 15:19:18.713324,-102
2021-12-23 15:19:18.713333,-81
2021-12-23 15:19:18.713342,-57
2021-12-23 15:19:18.713352,-45
2021-12-23 15:19:18.713361,-40
2021-12-23 15:19:18.713371,-69
2021-12-23 15:19:18.713380,-102
2021-12-23 15:19:18.713389,-112
2021-12-23 15:19:18.713399,-114
2021-12-23 15:19:18.713408,-110
2021-12-23 15:19:18.713418,-90
2021-12-23 15:19:18.713427,-69
2021-12-23 15:19:18.713436,-66
2021-12-23 15:19:18.713446,-69
2021-12-23 15:19:18.713455,-57
2021-12-23 15:19:18.938225,-33
2021-12-23 15:19:18.938245,-23
2021-12-23 15:19:18.938253,-64
2021-12-23 15:19:18.938259,-162
2021-12-23 15:19:18.938265,-122
2021-12-23 15:19:18.938272,246
2021-12-23 15:19:18.938278,674
2021-12-23 15:19:18.938284,765
2021-12-23 15:19:18.938291,366
2021-12-23 15:19:18.938297,-265
2021-12-23 15:19:18.938303,-392
2021-12-23 15:19:18.938310,-74
2021-12-23 15:19:18.938316,-50
2021-12-23 15:19:18.938322,-165
2021-12-23 15:19:18.938328,-76
2021-12-23 15:19:18.938335,-31
2021-12-23 15:19:18.938341,-88
2021-12-23 15:19:18.938347,-86
2021-12-23 15:19:18.938353,-43
2021-12-23 15:19:18.938360,-7
2021-12-23 15:19:18.938366,16
2021-12-23 15:19:18.938372,11
2021-12-23 15:19:18.938378,9
2021-12-23 15:19:18.938385,47
2021-12-23 15:19:18.938391,93
2021-12-23 15:19:18.938397,117
2021-12-23 15:19:18.938404,129
2021-12-23 15:19:18.938410,148
2021-12-23 15:19:18.938416,191
2021-12-23 15:19:18.938422,239
2021-12-23 15:19:19.298204,267
2021-12-23 15:19:19.298234,296
2021-12-23 15:19:19.298246,318
2021-12-23 15:19:19.298256,294
2021-12-23 15:19:19.298266,256
2021-12-23 15:19:19.298276,270
2021-12-23 15:19:19.298286,277
2021-12-23 15:19:19.298295,208
2021-12-23 15:19:19.298305,107
2021-12-23 15:19:19.298315,19
2021-12-23 15:19:19.298325,-57
2021-12-23 15:19:19.298335,-98
2021-12-23 15:19:19.298345,-110
2021-12-23 15:19:19.298355,-110
2021-12-23 15:19:19.298365,-112
2021-12-23 15:19:19.298375,-133
2021-12-23 15:19:19.298385,-131
2021-12-23 15:19:19.298394,-102
2021-12-23 15:19:19.298404,-105
2021-12-23 15:19:19.298414,-119
2021-12-23 15:19:19.298424,-122
2021-12-23 15:19:19.298434,-117
2021-12-23 15:19:19.298443,-90
2021-12-23 15:19:19.298453,-62
2021-12-23 15:19:19.298463,-64
2021-12-23 15:19:19.298473,-64
2021-12-23 15:19:19.298483,-57
2021-12-23 15:19:19.298492,-57
2021-12-23 15:19:19.298503,-47
2021-12-23 15:19:19.298512,-31
2021-12-23 15:19:19.433136,-26
2021-12-23 15:19:19.433194,-21
2021-12-23 15:19:19.433202,-16
2021-12-23 15:19:19.433209,-14
2021-12-23 15:19:19.433215,-11
2021-12-23 15:19:19.433221,4
2021-12-23 15:19:19.433228,21
2021-12-23 15:19:19.433234,14
2021-12-23 15:19:19.433240,-26
2021-12-23 15:19:19.433246,-55
2021-12-23 15:19:19.433253,-31
2021-12-23 15:19:19.433259,2
2021-12-23 15:19:19.433265,11
2021-12-23 15:19:19.433271,-4
2021-12-23 15:19:19.433278,-50
2021-12-23 15:19:19.433284,-69
2021-12-23 15:19:19.433290,-26
2021-12-23 15:19:19.433296,-2
2021-12-23 15:19:19.433302,-21
2021-12-23 15:19:19.433309,-26
2021-12-23 15:19:19.433315,-31
2021-12-23 15:19:19.433321,-66
2021-12-23 15:19:19.433327,-64
2021-12-23 15:19:19.433334,-35
2021-12-23 15:19:19.433340,-38
2021-12-23 15:19:19.433346,-43
2021-12-23 15:19:19.433352,-50
2021-12-23 15:19:19.433359,-69
2021-12-23 15:19:19.433365,-66
2021-12-23 15:19:19.433371,-33
2021-12-23 15:19:19.658203,-14
2021-12-23 15:19:19.658232,-21
2021-12-23 15:19:19.658243,-26
2021-12-23 15:19:19.658253,-28
2021-12-23 15:19:19.658263,-21
2021-12-23 15:19:19.658272,-7
2021-12-23 15:19:19.658282,2
2021-12-23 15:19:19.658292,-9
2021-12-23 15:19:19.658302,-45
2021-12-23 15:19:19.658311,-50
2021-12-23 15:19:19.658321,-38
2021-12-23 15:19:19.658331,-50
2021-12-23 15:19:19.658341,-62
2021-12-23 15:19:19.658351,-81
2021-12-23 15:19:19.658360,-114
2021-12-23 15:19:19.658370,-112
2021-12-23 15:19:19.658380,-90
2021-12-23 15:19:19.658389,-81
2021-12-23 15:19:19.658399,-57
2021-12-23 15:19:19.658408,-28
2021-12-23 15:19:19.658418,-38
2021-12-23 15:19:19.658428,-66
2021-12-23 15:19:19.658437,-90
2021-12-23 15:19:19.658447,-107
2021-12-23 15:19:19.658457,-100
2021-12-23 15:19:19.658466,-90
2021-12-23 15:19:19.658476,-105
2021-12-23 15:19:19.658485,-107
2021-12-23 15:19:19.658495,-93
2021-12-23 15:19:19.658505,-64
2021-12-23 15:19:19.883241,-38
2021-12-23 15:19:19.883270,-28
2021-12-23 15:19:19.883282,-47
2021-12-23 15:19:19.883292,-93
2021-12-23 15:19:19.883302,-76
2021-12-23 15:19:19.883312,193
2021-12-23 15:19:19.883322,602
2021-12-23 15:19:19.883332,736
2021-12-23 15:19:19.883342,425
2021-12-23 15:19:19.883351,-131
2021-12-23 15:19:19.883361,-349
2021-12-23 15:19:19.883371,-78
2021-12-23 15:19:19.883381,14
2021-12-23 15:19:19.883390,-150
2021-12-23 15:19:19.883400,-155
2021-12-23 15:19:19.883410,-98
2021-12-23 15:19:19.883420,-114
2021-12-23 15:19:19.883429,-102
2021-12-23 15:19:19.883439,-59
2021-12-23 15:19:19.883449,-35
2021-12-23 15:19:19.883459,-16
2021-12-23 15:19:19.883468,-7
2021-12-23 15:19:19.883478,4
2021-12-23 15:19:19.883488,35
2021-12-23 15:19:19.883497,55
2021-12-23 15:19:19.883507,45
2021-12-23 15:19:19.883517,71
2021-12-23 15:19:19.883527,131
2021-12-23 15:19:19.883546,157
2021-12-23 15:19:19.883556,174
2021-12-23 15:19:20.151775,212
2021-12-23 15:19:20.151805,241
2021-12-23 15:19:20.151816,260
2021-12-23 15:19:20.151826,277
2021-12-23 15:19:20.151836,287
2021-12-23 15:19:20.151846,275
2021-12-23 15:19:20.151855,224
2021-12-23 15:19:20.151865,179
2021-12-23 15:19:20.151875,157
2021-12-23 15:19:20.151884,98
2021-12-23 15:19:20.151894,9
2021-12-23 15:19:20.151904,-57
2021-12-23 15:19:20.151914,-110
2021-12-23 15:19:20.151923,-122
2021-12-23 15:19:20.151933,-102
2021-12-23 15:19:20.151943,-119
2021-12-23 15:19:20.151952,-136
2021-12-23 15:19:20.151962,-119
2021-12-23 15:19:20.151971,-105
2021-12-23 15:19:20.151981,-90
2021-12-23 15:19:20.151991,-74
2021-12-23 15:19:20.152000,-69
2021-12-23 15:19:20.152010,-64
2021-12-23 15:19:20.152019,-59
2021-12-23 15:19:20.152029,-55
2021-12-23 15:19:20.152039,-31
2021-12-23 15:19:20.152048,-28
2021-12-23 15:19:20.152058,-64
2021-12-23 15:19:20.152067,-71
2021-12-23 15:19:20.152077,-47
2021-12-23 15:19:20.333234,-47
2021-12-23 15:19:20.333264,-47
2021-12-23 15:19:20.333276,-28
2021-12-23 15:19:20.333286,-26
2021-12-23 15:19:20.333296,-23
2021-12-23 15:19:20.333306,-31
2021-12-23 15:19:20.333316,-50
2021-12-23 15:19:20.333326,-45
2021-12-23 15:19:20.333336,-38
2021-12-23 15:19:20.333345,-52
2021-12-23 15:19:20.333355,-66
2021-12-23 15:19:20.333365,-83
2021-12-23 15:19:20.333374,-86
2021-12-23 15:19:20.333384,-66
2021-12-23 15:19:20.333394,-62
2021-12-23 15:19:20.333404,-71
2021-12-23 15:19:20.333414,-71
2021-12-23 15:19:20.333423,-57
2021-12-23 15:19:20.333433,-38
2021-12-23 15:19:20.333443,-43
2021-12-23 15:19:20.333453,-90
2021-12-23 15:19:20.333462,-119
2021-12-23 15:19:20.333472,-100
2021-12-23 15:19:20.333482,-90
2021-12-23 15:19:20.333491,-86
2021-12-23 15:19:20.333501,-52
2021-12-23 15:19:20.333511,-35
2021-12-23 15:19:20.333521,-47
2021-12-23 15:19:20.333530,-59
2021-12-23 15:19:20.333540,-78
2021-12-23 15:19:20.558315,-90
2021-12-23 15:19:20.558346,-83
2021-12-23 15:19:20.558358,-83
2021-12-23 15:19:20.558368,-100
2021-12-23 15:19:20.558377,-129
2021-12-23 15:19:20.558387,-141
2021-12-23 15:19:20.558397,-119
2021-12-23 15:19:20.558406,-100
2021-12-23 15:19:20.558416,-100
2021-12-23 15:19:20.558426,-100
2021-12-23 15:19:20.558435,-112
2021-12-23 15:19:20.558445,-117
2021-12-23 15:19:20.558455,-81
2021-12-23 15:19:20.558464,-50
2021-12-23 15:19:20.558474,-47
2021-12-23 15:19:20.558484,-50
2021-12-23 15:19:20.558493,-57
2021-12-23 15:19:20.558503,-71
2021-12-23 15:19:20.558513,-81
2021-12-23 15:19:20.558523,-83
2021-12-23 15:19:20.558532,-71
2021-12-23 15:19:20.558542,-47
2021-12-23 15:19:20.558552,-40
2021-12-23 15:19:20.558561,-47
2021-12-23 15:19:20.558571,-43
2021-12-23 15:19:20.558580,-21
2021-12-23 15:19:20.558590,-9
2021-12-23 15:19:20.558600,-28
2021-12-23 15:19:20.558609,-69
2021-12-23 15:19:20.558619,-21
2021-12-23 15:19:20.827494,282
2021-12-23 15:19:20.827514,657
2021-12-23 15:19:20.827522,691
2021-12-23 15:19:20.827528,296
2021-12-23 15:19:20.827535,-196
2021-12-23 15:19:20.827541,-299
2021-12-23 15:19:20.827547,-66
2021-12-23 15:19:20.827554,-11
2021-12-23 15:19:20.827560,-86
2021-12-23 15:19:20.827566,-45
2021-12-23 15:19:20.827573,-16
2021-12-23 15:19:20.827579,-38
2021-12-23 15:19:20.827586,-14
2021-12-23 15:19:20.827592,26
2021-12-23 15:19:20.827598,38
2021-12-23 15:19:20.827605,28
2021-12-23 15:19:20.827611,31
2021-12-23 15:19:20.827617,59
2021-12-23 15:19:20.827662,93
2021-12-23 15:19:20.827686,117
2021-12-23 15:19:20.827700,155
2021-12-23 15:19:20.827712,177
2021-12-23 15:19:20.827743,169
2021-12-23 15:19:20.827753,189
2021-12-23 15:19:20.827760,241
2021-12-23 15:19:20.827766,251
2021-12-23 15:19:20.827773,222
2021-12-23 15:19:20.827779,224
2021-12-23 15:19:20.827785,246
2021-12-23 15:19:20.827792,253
2021-12-23 15:19:21.098065,256
2021-12-23 15:19:21.098086,258
2021-12-23 15:19:21.098094,222
2021-12-23 15:19:21.098101,129
2021-12-23 15:19:21.098107,45
2021-12-23 15:19:21.098113,-2
2021-12-23 15:19:21.098120,-45
2021-12-23 15:19:21.098126,-64
2021-12-23 15:19:21.098132,-81
2021-12-23 15:19:21.098139,-122
2021-12-23 15:19:21.098145,-129
2021-12-23 15:19:21.098151,-110
2021-12-23 15:19:21.098158,-105
2021-12-23 15:19:21.098164,-93
2021-12-23 15:19:21.098170,-83
2021-12-23 15:19:21.098177,-102
2021-12-23 15:19:21.098183,-102
2021-12-23 15:19:21.098189,-81
2021-12-23 15:19:21.098196,-69
2021-12-23 15:19:21.098202,-50
2021-12-23 15:19:21.098208,-45
2021-12-23 15:19:21.098215,-59
2021-12-23 15:19:21.098221,-64
2021-12-23 15:19:21.098227,-57
2021-12-23 15:19:21.098233,-43
2021-12-23 15:19:21.098240,-21
2021-12-23 15:19:21.098246,-23
2021-12-23 15:19:21.098252,-50
2021-12-23 15:19:21.098259,-43
2021-12-23 15:19:21.098265,-19
2021-12-23 15:19:21.322437,-21
2021-12-23 15:19:21.322459,-31
2021-12-23 15:19:21.322466,-26
2021-12-23 15:19:21.322472,-9
2021-12-23 15:19:21.322478,4
2021-12-23 15:19:21.322485,-23
2021-12-23 15:19:21.322491,-59
2021-12-23 15:19:21.322497,-50
2021-12-23 15:19:21.322503,-50
2021-12-23 15:19:21.322510,-76
2021-12-23 15:19:21.322516,-69
2021-12-23 15:19:21.322522,-38
2021-12-23 15:19:21.322528,-21
2021-12-23 15:19:21.322535,-16
2021-12-23 15:19:21.322541,-28
2021-12-23 15:19:21.322547,-55
2021-12-23 15:19:21.322554,-59
2021-12-23 15:19:21.322560,-52
2021-12-23 15:19:21.322566,-71
2021-12-23 15:19:21.322572,-98
2021-12-23 15:19:21.322578,-100
2021-12-23 15:19:21.322584,-95
2021-12-23 15:19:21.322591,-102
2021-12-23 15:19:21.322597,-112
2021-12-23 15:19:21.322603,-95
2021-12-23 15:19:21.322609,-74
2021-12-23 15:19:21.322616,-81
2021-12-23 15:19:21.322622,-88
2021-12-23 15:19:21.322628,-78
2021-12-23 15:19:21.322634,-62
2021-12-23 15:19:21.502541,-52
2021-12-23 15:19:21.502561,-98
2021-12-23 15:19:21.502568,-148
2021-12-23 15:19:21.502575,-93
2021-12-23 15:19:21.502581,-33
2021-12-23 15:19:21.502588,-62
2021-12-23 15:19:21.502594,-95
2021-12-23 15:19:21.502600,-107
2021-12-23 15:19:21.502607,-145
2021-12-23 15:19:21.502613,-160
2021-12-23 15:19:21.502619,-131
2021-12-23 15:19:21.502626,-122
2021-12-23 15:19:21.502632,-124
2021-12-23 15:19:21.502638,-126
2021-12-23 15:19:21.502644,-145
2021-12-23 15:19:21.502651,-136
2021-12-23 15:19:21.502657,-112
2021-12-23 15:19:21.502663,-117
2021-12-23 15:19:21.502670,-141
2021-12-23 15:19:21.502676,-143
2021-12-23 15:19:21.502682,19
2021-12-23 15:19:21.502689,418
2021-12-23 15:19:21.502695,689
2021-12-23 15:19:21.502745,464
2021-12-23 15:19:21.502767,-50
2021-12-23 15:19:21.502780,-311
2021-12-23 15:19:21.502790,-162
2021-12-23 15:19:21.502801,-45
2021-12-23 15:19:21.502813,-78
2021-12-23 15:19:21.502824,-31
2021-12-23 15:19:21.773225,28
2021-12-23 15:19:21.773256,9
2021-12-23 15:19:21.773268,-7
2021-12-23 15:19:21.773278,14
2021-12-23 15:19:21.773288,40
2021-12-23 15:19:21.773297,62
2021-12-23 15:19:21.773307,66
2021-12-23 15:19:21.773317,57
2021-12-23 15:19:21.773327,55
2021-12-23 15:19:21.773336,45
2021-12-23 15:19:21.773346,57
2021-12-23 15:19:21.773356,112
2021-12-23 15:19:21.773366,126
2021-12-23 15:19:21.773376,107
2021-12-23 15:19:21.773385,141
2021-12-23 15:19:21.773395,186
2021-12-23 15:19:21.773405,205
2021-12-23 15:19:21.773414,241
2021-12-23 15:19:21.773424,256
2021-12-23 15:19:21.773434,234
2021-12-23 15:19:21.773443,244
2021-12-23 15:19:21.773453,258
2021-12-23 15:19:21.773463,227
2021-12-23 15:19:21.773478,174
2021-12-23 15:19:21.773488,105
2021-12-23 15:19:21.773498,31
2021-12-23 15:19:21.773508,-21
2021-12-23 15:19:21.773517,-71
2021-12-23 15:19:21.773527,-98
2021-12-23 15:19:21.773537,-102
2021-12-23 15:19:21.953302,-122
2021-12-23 15:19:21.953321,-129
2021-12-23 15:19:21.953328,-107
2021-12-23 15:19:21.953335,-93
2021-12-23 15:19:21.953341,-78
2021-12-23 15:19:21.953348,-71
2021-12-23 15:19:21.953354,-110
2021-12-23 15:19:21.953360,-143
2021-12-23 15:19:21.953366,-112
2021-12-23 15:19:21.953373,-88
2021-12-23 15:19:21.953379,-102
2021-12-23 15:19:21.953385,-122
2021-12-23 15:19:21.953392,-150
2021-12-23 15:19:21.953398,-150
2021-12-23 15:19:21.953404,-107
2021-12-23 15:19:21.953411,-90
2021-12-23 15:19:21.953417,-114
2021-12-23 15:19:21.953423,-141
2021-12-23 15:19:21.953430,-181
2021-12-23 15:19:21.953436,-189
2021-12-23 15:19:21.953442,-155
2021-12-23 15:19:21.953448,-148
2021-12-23 15:19:21.953455,-143
2021-12-23 15:19:21.953461,-129
2021-12-23 15:19:21.953467,-136
2021-12-23 15:19:21.953473,-124
2021-12-23 15:19:21.953480,-102
2021-12-23 15:19:21.953486,-110
2021-12-23 15:19:21.953492,-107
2021-12-23 15:19:21.953499,-88
2021-12-23 15:19:22.266367,-83
2021-12-23 15:19:22.266388,-78
2021-12-23 15:19:22.266395,-74
2021-12-23 15:19:22.266401,-71
2021-12-23 15:19:22.266407,-62
2021-12-23 15:19:22.266412,-81
2021-12-23 15:19:22.266418,-102
2021-12-23 15:19:22.266424,-81
2021-12-23 15:19:22.266429,-55
2021-12-23 15:19:22.266435,-50
2021-12-23 15:19:22.266441,-47
2021-12-23 15:19:22.266446,-62
2021-12-23 15:19:22.266451,-90
2021-12-23 15:19:22.266456,-100
2021-12-23 15:19:22.266461,-86
2021-12-23 15:19:22.266466,-71
2021-12-23 15:19:22.266471,-59
2021-12-23 15:19:22.266476,-47
2021-12-23 15:19:22.266481,-26
2021-12-23 15:19:22.266486,-7
2021-12-23 15:19:22.266491,-7
2021-12-23 15:19:22.266496,-16
2021-12-23 15:19:22.266501,-16
2021-12-23 15:19:22.266506,-28
2021-12-23 15:19:22.266511,-40
2021-12-23 15:19:22.266516,-21
2021-12-23 15:19:22.266521,-4
2021-12-23 15:19:22.266526,-7
2021-12-23 15:19:22.266532,-7
2021-12-23 15:19:22.266537,0
2021-12-23 15:19:22.402851,16
2021-12-23 15:19:22.402874,31
2021-12-23 15:19:22.402882,14
2021-12-23 15:19:22.402889,-14
2021-12-23 15:19:22.402895,57
2021-12-23 15:19:22.402901,382
2021-12-23 15:19:22.402908,734
2021-12-23 15:19:22.402914,657
2021-12-23 15:19:22.402920,189
2021-12-23 15:19:22.402926,-167
2021-12-23 15:19:22.402933,-145
2021-12-23 15:19:22.402939,-31
2021-12-23 15:19:22.402945,-57
2021-12-23 15:19:22.402951,-66
2021-12-23 15:19:22.402958,-26
2021-12-23 15:19:22.402964,-55
2021-12-23 15:19:22.402970,-95
2021-12-23 15:19:22.402976,-74
2021-12-23 15:19:22.402982,-35
2021-12-23 15:19:22.402989,-16
2021-12-23 15:19:22.402995,7
2021-12-23 15:19:22.403001,26
2021-12-23 15:19:22.403008,31
2021-12-23 15:19:22.403014,43
2021-12-23 15:19:22.403020,86
2021-12-23 15:19:22.403026,122
2021-12-23 15:19:22.403033,136
2021-12-23 15:19:22.403039,155
2021-12-23 15:19:22.403045,172
2021-12-23 15:19:22.403051,177
2021-12-23 15:19:22.628350,200
2021-12-23 15:19:22.628379,234
2021-12-23 15:19:22.628391,246
2021-12-23 15:19:22.628401,229
2021-12-23 15:19:22.628411,203
2021-12-23 15:19:22.628421,193
2021-12-23 15:19:22.628430,191
2021-12-23 15:19:22.628440,155
2021-12-23 15:19:22.628450,88
2021-12-23 15:19:22.628459,16
2021-12-23 15:19:22.628469,-57
2021-12-23 15:19:22.628479,-102
2021-12-23 15:19:22.628489,-107
2021-12-23 15:19:22.628499,-110
2021-12-23 15:19:22.628508,-122
2021-12-23 15:19:22.628518,-138
2021-12-23 15:19:22.628528,-150
2021-12-23 15:19:22.628538,-153
2021-12-23 15:19:22.628548,-148
2021-12-23 15:19:22.628557,-136
2021-12-23 15:19:22.628567,-131
2021-12-23 15:19:22.628577,-150
2021-12-23 15:19:22.628587,-167
2021-12-23 15:19:22.628597,-162
2021-12-23 15:19:22.628606,-153
2021-12-23 15:19:22.628616,-136
2021-12-23 15:19:22.628626,-119
2021-12-23 15:19:22.628636,-119
2021-12-23 15:19:22.628646,-129
2021-12-23 15:19:22.628655,-119
2021-12-23 15:19:23.033176,-100
2021-12-23 15:19:23.033205,-86
2021-12-23 15:19:23.033216,-81
2021-12-23 15:19:23.033226,-114
2021-12-23 15:19:23.033236,-136
2021-12-23 15:19:23.033245,-105
2021-12-23 15:19:23.033255,-71
2021-12-23 15:19:23.033264,-66
2021-12-23 15:19:23.033274,-86
2021-12-23 15:19:23.033284,-112
2021-12-23 15:19:23.033294,-107
2021-12-23 15:19:23.033303,-76
2021-12-23 15:19:23.033313,-62
2021-12-23 15:19:23.033322,-59
2021-12-23 15:19:23.033332,-55
2021-12-23 15:19:23.033342,-59
2021-12-23 15:19:23.033351,-52
2021-12-23 15:19:23.033361,-57
2021-12-23 15:19:23.033370,-100
2021-12-23 15:19:23.033380,-129
2021-12-23 15:19:23.033390,-122
2021-12-23 15:19:23.033399,-112
2021-12-23 15:19:23.033409,-107
2021-12-23 15:19:23.033418,-98
2021-12-23 15:19:23.033428,-83
2021-12-23 15:19:23.033437,-62
2021-12-23 15:19:23.033447,-52
2021-12-23 15:19:23.033456,-50
2021-12-23 15:19:23.033466,-26
2021-12-23 15:19:23.033476,4
2021-12-23 15:19:23.123169,9
2021-12-23 15:19:23.123189,7
2021-12-23 15:19:23.123197,-4
2021-12-23 15:19:23.123204,-31
2021-12-23 15:19:23.123210,-26
2021-12-23 15:19:23.123217,0
2021-12-23 15:19:23.123223,14
2021-12-23 15:19:23.123229,19
2021-12-23 15:19:23.123236,19
2021-12-23 15:19:23.123242,9
2021-12-23 15:19:23.123248,19
2021-12-23 15:19:23.123255,38
2021-12-23 15:19:23.123261,40
2021-12-23 15:19:23.123268,19
2021-12-23 15:19:23.123274,28
2021-12-23 15:19:23.123280,246
2021-12-23 15:19:23.123287,657
2021-12-23 15:19:23.123293,791
2021-12-23 15:19:23.123299,409
2021-12-23 15:19:23.123306,-69
2021-12-23 15:19:23.123312,-165
2021-12-23 15:19:23.123318,-9
2021-12-23 15:19:23.123325,2
2021-12-23 15:19:23.123331,-16
2021-12-23 15:19:23.123337,76
2021-12-23 15:19:23.123343,90
2021-12-23 15:19:23.123350,26
2021-12-23 15:19:23.123356,31
2021-12-23 15:19:23.123362,71
2021-12-23 15:19:23.123369,74
2021-12-23 15:19:23.391738,90
2021-12-23 15:19:23.391755,114
2021-12-23 15:19:23.391761,88
2021-12-23 15:19:23.391766,71
2021-12-23 15:19:23.391772,107
2021-12-23 15:19:23.391777,150
2021-12-23 15:19:23.391782,184
2021-12-23 15:19:23.391787,189
2021-12-23 15:19:23.391792,169
2021-12-23 15:19:23.391797,181
2021-12-23 15:19:23.391802,239
2021-12-23 15:19:23.391807,299
2021-12-23 15:19:23.391812,301
2021-12-23 15:19:23.391817,244
2021-12-23 15:19:23.391822,205
2021-12-23 15:19:23.391827,212
2021-12-23 15:19:23.391832,210
2021-12-23 15:19:23.391837,172
2021-12-23 15:19:23.391842,110
2021-12-23 15:19:23.391847,43
2021-12-23 15:19:23.391852,-11
2021-12-23 15:19:23.391857,-57
2021-12-23 15:19:23.391862,-83
2021-12-23 15:19:23.391867,-126
2021-12-23 15:19:23.391872,-196
2021-12-23 15:19:23.391878,-220
2021-12-23 15:19:23.391883,-196
2021-12-23 15:19:23.391888,-181
2021-12-23 15:19:23.391893,-184
2021-12-23 15:19:23.391898,-162
2021-12-23 15:19:23.573349,-129
2021-12-23 15:19:23.573381,-129
2021-12-23 15:19:23.573392,-141
2021-12-23 15:19:23.573402,-131
2021-12-23 15:19:23.573412,-119
2021-12-23 15:19:23.573421,-119
2021-12-23 15:19:23.573431,-141
2021-12-23 15:19:23.573441,-174
2021-12-23 15:19:23.573451,-179
2021-12-23 15:19:23.573460,-160
2021-12-23 15:19:23.573470,-148
2021-12-23 15:19:23.573480,-124
2021-12-23 15:19:23.573489,-117
2021-12-23 15:19:23.573499,-155
2021-12-23 15:19:23.573509,-167
2021-12-23 15:19:23.573518,-131
2021-12-23 15:19:23.573528,-110
2021-12-23 15:19:23.573538,-117
2021-12-23 15:19:23.573547,-119
2021-12-23 15:19:23.573557,-107
2021-12-23 15:19:23.573566,-98
2021-12-23 15:19:23.573576,-105
2021-12-23 15:19:23.573586,-98
2021-12-23 15:19:23.573595,-59
2021-12-23 15:19:23.573605,-38
2021-12-23 15:19:23.573615,-76
2021-12-23 15:19:23.573624,-114
2021-12-23 15:19:23.573634,-81
2021-12-23 15:19:23.573644,-26
2021-12-23 15:19:23.573653,-7
2021-12-23 15:19:23.797578,-14
2021-12-23 15:19:23.797598,-19
2021-12-23 15:19:23.797606,-26
2021-12-23 15:19:23.797612,-47
2021-12-23 15:19:23.797619,-50
2021-12-23 15:19:23.797625,-35
2021-12-23 15:19:23.797632,-59
2021-12-23 15:19:23.797638,-83
2021-12-23 15:19:23.797645,-55
2021-12-23 15:19:23.797651,-28
2021-12-23 15:19:23.797658,-19
2021-12-23 15:19:23.797664,-11
2021-12-23 15:19:23.797670,-40
2021-12-23 15:19:23.797677,-69
2021-12-23 15:19:23.797683,-64
2021-12-23 15:19:23.797690,-31
2021-12-23 15:19:23.797696,189
2021-12-23 15:19:23.797707,579
2021-12-23 15:19:23.797713,703
2021-12-23 15:19:23.797720,358
2021-12-23 15:19:23.797726,-105
2021-12-23 15:19:23.797733,-232
2021-12-23 15:19:23.797739,-45
2021-12-23 15:19:23.797746,26
2021-12-23 15:19:23.797752,-19
2021-12-23 15:19:23.797759,33
2021-12-23 15:19:23.797765,74
2021-12-23 15:19:23.797772,33
2021-12-23 15:19:23.797778,9
2021-12-23 15:19:23.797785,0
2021-12-23 15:19:24.068210,-23
2021-12-23 15:19:24.068255,-4
2021-12-23 15:19:24.068266,31
2021-12-23 15:19:24.068277,43
2021-12-23 15:19:24.068286,52
2021-12-23 15:19:24.068296,38
2021-12-23 15:19:24.068306,14
2021-12-23 15:19:24.068316,71
2021-12-23 15:19:24.068326,165
2021-12-23 15:19:24.068335,181
2021-12-23 15:19:24.068345,167
2021-12-23 15:19:24.068355,177
2021-12-23 15:19:24.068365,181
2021-12-23 15:19:24.068375,200
2021-12-23 15:19:24.068384,229
2021-12-23 15:19:24.068394,244
2021-12-23 15:19:24.068404,244
2021-12-23 15:19:24.068414,212
2021-12-23 15:19:24.068424,165
2021-12-23 15:19:24.068433,122
2021-12-23 15:19:24.068443,62
2021-12-23 15:19:24.068453,-7
2021-12-23 15:19:24.068462,-59
2021-12-23 15:19:24.068472,-88
2021-12-23 15:19:24.068482,-74
2021-12-23 15:19:24.068492,-57
2021-12-23 15:19:24.068501,-78
2021-12-23 15:19:24.068511,-100
2021-12-23 15:19:24.068521,-86
2021-12-23 15:19:24.068530,-76
2021-12-23 15:19:24.336828,-83
2021-12-23 15:19:24.336858,-66
2021-12-23 15:19:24.336869,-57
2021-12-23 15:19:24.336879,-62
2021-12-23 15:19:24.336889,-47
2021-12-23 15:19:24.336899,-31
2021-12-23 15:19:24.336909,-31
2021-12-23 15:19:24.336919,-19
2021-12-23 15:19:24.336928,-7
2021-12-23 15:19:24.336938,-4
2021-12-23 15:19:24.336948,-23
2021-12-23 15:19:24.336957,-52
2021-12-23 15:19:24.336967,-31
2021-12-23 15:19:24.336977,-9
2021-12-23 15:19:24.336986,-45
2021-12-23 15:19:24.336996,-55
2021-12-23 15:19:24.337006,-38
2021-12-23 15:19:24.337015,-57
2021-12-23 15:19:24.337025,-62
2021-12-23 15:19:24.337035,-33
2021-12-23 15:19:24.337044,-23
2021-12-23 15:19:24.337054,-55
2021-12-23 15:19:24.337063,-76
2021-12-23 15:19:24.337073,-31
2021-12-23 15:19:24.337083,21
2021-12-23 15:19:24.337093,23
2021-12-23 15:19:24.337102,16
2021-12-23 15:19:24.337112,16
2021-12-23 15:19:24.337122,-2
2021-12-23 15:19:24.337132,0
2021-12-23 15:19:24.563047,43
2021-12-23 15:19:24.563076,52
2021-12-23 15:19:24.563088,19
2021-12-23 15:19:24.563098,2
2021-12-23 15:19:24.563108,-33
2021-12-23 15:19:24.563118,-100
2021-12-23 15:19:24.563127,-136
2021-12-23 15:19:24.563137,-150
2021-12-23 15:19:24.563147,-167
2021-12-23 15:19:24.563157,-169
2021-12-23 15:19:24.563166,-169
2021-12-23 15:19:24.563176,-181
2021-12-23 15:19:24.563186,-169
2021-12-23 15:19:24.563196,-145
2021-12-23 15:19:24.563205,-145
2021-12-23 15:19:24.563215,-174
2021-12-23 15:19:24.563225,-196
2021-12-23 15:19:24.563235,-205
2021-12-23 15:19:24.563245,-167
2021-12-23 15:19:24.563255,105
2021-12-23 15:19:24.563265,531
2021-12-23 15:19:24.563275,619
2021-12-23 15:19:24.563285,205
2021-12-23 15:19:24.563294,-294
2021-12-23 15:19:24.563304,-382
2021-12-23 15:19:24.563314,-136
2021-12-23 15:19:24.563324,-52
2021-12-23 15:19:24.563333,-114
2021-12-23 15:19:24.563343,-88
2021-12-23 15:19:24.563353,-40
2021-12-23 15:19:24.743154,-19
2021-12-23 15:19:24.743184,11
2021-12-23 15:19:24.743196,14
2021-12-23 15:19:24.743206,-19
2021-12-23 15:19:24.743216,-19
2021-12-23 15:19:24.743226,33
2021-12-23 15:19:24.743236,76
2021-12-23 15:19:24.743245,88
2021-12-23 15:19:24.743255,90
2021-12-23 15:19:24.743264,83
2021-12-23 15:19:24.743274,100
2021-12-23 15:19:24.743284,153
2021-12-23 15:19:24.743293,191
2021-12-23 15:19:24.743303,205
2021-12-23 15:19:24.743313,220
2021-12-23 15:19:24.743322,212
2021-12-23 15:19:24.743332,217
2021-12-23 15:19:24.743342,267
2021-12-23 15:19:24.743351,296
2021-12-23 15:19:24.743361,282
2021-12-23 15:19:24.743371,246
2021-12-23 15:19:24.743380,167
2021-12-23 15:19:24.743390,78
2021-12-23 15:19:24.743400,28
2021-12-23 15:19:24.743409,-16
2021-12-23 15:19:24.743419,-57
2021-12-23 15:19:24.743428,-90
2021-12-23 15:19:24.743438,-119
2021-12-23 15:19:24.743448,-124
2021-12-23 15:19:24.743458,-119
2021-12-23 15:19:25.012521,-107
2021-12-23 15:19:25.012539,-74
2021-12-23 15:19:25.012544,-64
2021-12-23 15:19:25.012577,-83
2021-12-23 15:19:25.012587,-74
2021-12-23 15:19:25.012592,-64
2021-12-23 15:19:25.012597,-76
2021-12-23 15:19:25.012601,-78
2021-12-23 15:19:25.012606,-90
2021-12-23 15:19:25.012610,-122
2021-12-23 15:19:25.012614,-136
2021-12-23 15:19:25.012619,-133
2021-12-23 15:19:25.012623,-105
2021-12-23 15:19:25.012627,-83
2021-12-23 15:19:25.012632,-117
2021-12-23 15:19:25.012636,-138
2021-12-23 15:19:25.012641,-112
2021-12-23 15:19:25.012645,-95
2021-12-23 15:19:25.012649,-86
2021-12-23 15:19:25.012654,-59
2021-12-23 15:19:25.012658,-64
2021-12-23 15:19:25.012662,-81
2021-12-23 15:19:25.012667,-50
2021-12-23 15:19:25.012671,-14
2021-12-23 15:19:25.012676,-11
2021-12-23 15:19:25.012680,-19
2021-12-23 15:19:25.012684,-21
2021-12-23 15:19:25.012689,-21
2021-12-23 15:19:25.012693,-23
2021-12-23 15:19:25.012697,-14
2021-12-23 15:19:25.238056,23
2021-12-23 15:19:25.238077,59
2021-12-23 15:19:25.238085,55
2021-12-23 15:19:25.238091,26
2021-12-23 15:19:25.238097,14
2021-12-23 15:19:25.238104,19
2021-12-23 15:19:25.238110,21
2021-12-23 15:19:25.238116,-4
2021-12-23 15:19:25.238123,-50
2021-12-23 15:19:25.238129,-55
2021-12-23 15:19:25.238135,-28
2021-12-23 15:19:25.238141,-21
2021-12-23 15:19:25.238147,-9
2021-12-23 15:19:25.238154,-21
2021-12-23 15:19:25.238160,-64
2021-12-23 15:19:25.238166,-66
2021-12-23 15:19:25.238172,-69
2021-12-23 15:19:25.238179,-69
2021-12-23 15:19:25.238185,136
2021-12-23 15:19:25.238191,528
2021-12-23 15:19:25.238198,715
2021-12-23 15:19:25.238204,480
2021-12-23 15:19:25.238210,-19
2021-12-23 15:19:25.238217,-296
2021-12-23 15:19:25.238223,-126
2021-12-23 15:19:25.238229,11
2021-12-23 15:19:25.238235,-52
2021-12-23 15:19:25.238242,-47
2021-12-23 15:19:25.238248,-4
2021-12-23 15:19:25.238254,-26
2021-12-23 15:19:25.507831,-26
2021-12-23 15:19:25.507854,7
2021-12-23 15:19:25.507861,-4
2021-12-23 15:19:25.507868,-26
2021-12-23 15:19:25.507874,2
2021-12-23 15:19:25.507881,23
2021-12-23 15:19:25.507887,11
2021-12-23 15:19:25.507894,0
2021-12-23 15:19:25.507900,14
2021-12-23 15:19:25.507907,33
2021-12-23 15:19:25.507913,50
2021-12-23 15:19:25.507920,78
2021-12-23 15:19:25.507926,102
2021-12-23 15:19:25.507933,100
2021-12-23 15:19:25.507939,122
2021-12-23 15:19:25.507946,169
2021-12-23 15:19:25.507952,169
2021-12-23 15:19:25.507958,131
2021-12-23 15:19:25.507964,122
2021-12-23 15:19:25.507971,112
2021-12-23 15:19:25.507977,40
2021-12-23 15:19:25.507983,-43
2021-12-23 15:19:25.507989,-76
2021-12-23 15:19:25.507996,-95
2021-12-23 15:19:25.508002,-153
2021-12-23 15:19:25.508008,-200
2021-12-23 15:19:25.508015,-205
2021-12-23 15:19:25.508021,-210
2021-12-23 15:19:25.508027,-205
2021-12-23 15:19:25.508033,-174
2021-12-23 15:19:25.642882,-160
2021-12-23 15:19:25.642909,-145
2021-12-23 15:19:25.642921,-129
2021-12-23 15:19:25.642931,-126
2021-12-23 15:19:25.642941,-112
2021-12-23 15:19:25.642951,-100
2021-12-23 15:19:25.642960,-129
2021-12-23 15:19:25.642970,-141
2021-12-23 15:19:25.642980,-112
2021-12-23 15:19:25.642990,-98
2021-12-23 15:19:25.643000,-107
2021-12-23 15:19:25.643010,-102
2021-12-23 15:19:25.643019,-88
2021-12-23 15:19:25.643029,-69
2021-12-23 15:19:25.643039,-57
2021-12-23 15:19:25.643049,-66
2021-12-23 15:19:25.643059,-59
2021-12-23 15:19:25.643068,-28
2021-12-23 15:19:25.643078,-19
2021-12-23 15:19:25.643088,-23
2021-12-23 15:19:25.643097,-7
2021-12-23 15:19:25.643107,9
2021-12-23 15:19:25.643117,14
2021-12-23 15:19:25.643127,7
2021-12-23 15:19:25.643136,-21
2021-12-23 15:19:25.643146,-33
2021-12-23 15:19:25.643156,-7
2021-12-23 15:19:25.643165,4
2021-12-23 15:19:25.643175,-9
2021-12-23 15:19:25.643185,-19
2021-12-23 15:19:25.868066,-4
2021-12-23 15:19:25.868087,33
2021-12-23 15:19:25.868095,62
2021-12-23 15:19:25.868101,62
2021-12-23 15:19:25.868108,59
2021-12-23 15:19:25.868114,35
2021-12-23 15:19:25.868121,-2
2021-12-23 15:19:25.868127,2
2021-12-23 15:19:25.868134,16
2021-12-23 15:19:25.868140,-2
2021-12-23 15:19:25.868147,-14
2021-12-23 15:19:25.868153,-23
2021-12-23 15:19:25.868160,-45
2021-12-23 15:19:25.868166,-47
2021-12-23 15:19:25.868172,-50
2021-12-23 15:19:25.868179,-57
2021-12-23 15:19:25.868185,-55
2021-12-23 15:19:25.868192,-59
2021-12-23 15:19:25.868198,-76
2021-12-23 15:19:25.868204,-50
2021-12-23 15:19:25.868211,162
2021-12-23 15:19:25.868217,545
2021-12-23 15:19:25.868224,715
2021-12-23 15:19:25.868230,418
2021-12-23 15:19:25.868237,-81
2021-12-23 15:19:25.868243,-306
2021-12-23 15:19:25.868250,-145
2021-12-23 15:19:25.868256,-33
2021-12-23 15:19:25.868262,-86
2021-12-23 15:19:25.868269,-71
2021-12-23 15:19:26.093117,-26
2021-12-23 15:19:26.093147,-28
2021-12-23 15:19:26.093158,-21
2021-12-23 15:19:26.093169,2
2021-12-23 15:19:26.093179,0
2021-12-23 15:19:26.093188,-19
2021-12-23 15:19:26.093198,-14
2021-12-23 15:19:26.093208,19
2021-12-23 15:19:26.093217,52
2021-12-23 15:19:26.093227,74
2021-12-23 15:19:26.093236,78
2021-12-23 15:19:26.093246,74
2021-12-23 15:19:26.093256,100
2021-12-23 15:19:26.093265,145
2021-12-23 15:19:26.093280,172
2021-12-23 15:19:26.093290,193
2021-12-23 15:19:26.093300,198
2021-12-23 15:19:26.093309,191
2021-12-23 15:19:26.093319,203
2021-12-23 15:19:26.093328,227
2021-12-23 15:19:26.093338,217
2021-12-23 15:19:26.093348,177
2021-12-23 15:19:26.093358,112
2021-12-23 15:19:26.093367,23
2021-12-23 15:19:26.093377,-52
2021-12-23 15:19:26.093387,-98
2021-12-23 15:19:26.093396,-136
2021-12-23 15:19:26.093406,-169
2021-12-23 15:19:26.093416,-196
2021-12-23 15:19:26.093425,-203
2021-12-23 15:19:26.406838,-177
2021-12-23 15:19:26.406856,-155
2021-12-23 15:19:26.406863,-153
2021-12-23 15:19:26.406868,-160
2021-12-23 15:19:26.406873,-179
2021-12-23 15:19:26.406879,-186
2021-12-23 15:19:26.406884,-165
2021-12-23 15:19:26.406888,-141
2021-12-23 15:19:26.406893,-141
2021-12-23 15:19:26.406899,-162
2021-12-23 15:19:26.406904,-186
2021-12-23 15:19:26.406913,-160
2021-12-23 15:19:26.406922,-102
2021-12-23 15:19:26.406931,-74
2021-12-23 15:19:26.406941,-76
2021-12-23 15:19:26.406946,-86
2021-12-23 15:19:26.406951,-112
2021-12-23 15:19:26.406956,-119
2021-12-23 15:19:26.406962,-88
2021-12-23 15:19:26.406967,-57
2021-12-23 15:19:26.406974,-76
2021-12-23 15:19:26.406981,-107
2021-12-23 15:19:26.406986,-78
2021-12-23 15:19:26.406991,-35
2021-12-23 15:19:26.406996,-45
2021-12-23 15:19:26.407001,-66
2021-12-23 15:19:26.407006,-57
2021-12-23 15:19:26.407011,-23
2021-12-23 15:19:26.407016,-21
2021-12-23 15:19:26.407024,-71
2021-12-23 15:19:26.587476,-76
2021-12-23 15:19:26.587501,-33
2021-12-23 15:19:26.587511,-38
2021-12-23 15:19:26.587520,-64
2021-12-23 15:19:26.587529,-71
2021-12-23 15:19:26.587537,-69
2021-12-23 15:19:26.587547,-52
2021-12-23 15:19:26.587557,-23
2021-12-23 15:19:26.587567,-26
2021-12-23 15:19:26.587577,-45
2021-12-23 15:19:26.587587,-38
2021-12-23 15:19:26.587597,-11
2021-12-23 15:19:26.587607,-16
2021-12-23 15:19:26.587617,-28
2021-12-23 15:19:26.587627,-11
2021-12-23 15:19:26.587637,-9
2021-12-23 15:19:26.587648,-19
2021-12-23 15:19:26.587658,19
2021-12-23 15:19:26.587668,62
2021-12-23 15:19:26.587678,45
2021-12-23 15:19:26.587688,-2
2021-12-23 15:19:26.587698,-38
2021-12-23 15:19:26.587708,-35
2021-12-23 15:19:26.587719,-21
2021-12-23 15:19:26.587729,-28
2021-12-23 15:19:26.587739,-19
2021-12-23 15:19:26.587749,-4
2021-12-23 15:19:26.587759,-21
2021-12-23 15:19:26.587769,-33
2021-12-23 15:19:26.587779,-14
2021-12-23 15:19:26.812708,7
2021-12-23 15:19:26.812729,16
2021-12-23 15:19:26.812737,-2
2021-12-23 15:19:26.812744,-52
2021-12-23 15:19:26.812750,-40
2021-12-23 15:19:26.812757,181
2021-12-23 15:19:26.812763,567
2021-12-23 15:19:26.812769,768
2021-12-23 15:19:26.812776,523
2021-12-23 15:19:26.812782,28
2021-12-23 15:19:26.812788,-220
2021-12-23 15:19:26.812795,-81
2021-12-23 15:19:26.812801,14
2021-12-23 15:19:26.812807,-62
2021-12-23 15:19:26.812814,-69
2021-12-23 15:19:26.812820,-31
2021-12-23 15:19:26.812827,-40
2021-12-23 15:19:26.812833,-35
2021-12-23 15:19:26.812840,-2
2021-12-23 15:19:26.812846,9
2021-12-23 15:19:26.812852,9
2021-12-23 15:19:26.812859,19
2021-12-23 15:19:26.812865,21
2021-12-23 15:19:26.812871,23
2021-12-23 15:19:26.812878,47
2021-12-23 15:19:26.812884,74
2021-12-23 15:19:26.812890,88
2021-12-23 15:19:26.812897,105
2021-12-23 15:19:26.812903,129
2021-12-23 15:19:26.812909,167
2021-12-23 15:19:27.037873,212
2021-12-23 15:19:27.037894,224
2021-12-23 15:19:27.037902,220
2021-12-23 15:19:27.037908,217
2021-12-23 15:19:27.037915,191
2021-12-23 15:19:27.037921,165
2021-12-23 15:19:27.037927,157
2021-12-23 15:19:27.037934,98
2021-12-23 15:19:27.037940,-9
2021-12-23 15:19:27.037946,-81
2021-12-23 15:19:27.037953,-119
2021-12-23 15:19:27.037959,-157
2021-12-23 15:19:27.037965,-181
2021-12-23 15:19:27.037972,-212
2021-12-23 15:19:27.037978,-258
2021-12-23 15:19:27.037984,-256
2021-12-23 15:19:27.037991,-220
2021-12-23 15:19:27.037997,-205
2021-12-23 15:19:27.038003,-210
2021-12-23 15:19:27.038010,-200
2021-12-23 15:19:27.038016,-184
2021-12-23 15:19:27.038022,-174
2021-12-23 15:19:27.038029,-160
2021-12-23 15:19:27.038035,-157
2021-12-23 15:19:27.038041,-169
2021-12-23 15:19:27.038048,-157
2021-12-23 15:19:27.038054,-141
2021-12-23 15:19:27.038061,-136
2021-12-23 15:19:27.038067,-131
2021-12-23 15:19:27.038073,-129
2021-12-23 15:19:27.263207,-117
2021-12-23 15:19:27.263236,-93
2021-12-23 15:19:27.263248,-88
2021-12-23 15:19:27.263258,-93
2021-12-23 15:19:27.263268,-64
2021-12-23 15:19:27.263278,-28
2021-12-23 15:19:27.263288,-33
2021-12-23 15:19:27.263297,-66
2021-12-23 15:19:27.263307,-78
2021-12-23 15:19:27.263317,-66
2021-12-23 15:19:27.263326,-52
2021-12-23 15:19:27.263336,-38
2021-12-23 15:19:27.263346,-40
2021-12-23 15:19:27.263356,-64
2021-12-23 15:19:27.263365,-69
2021-12-23 15:19:27.263375,-33
2021-12-23 15:19:27.263385,4
2021-12-23 15:19:27.263395,16
2021-12-23 15:19:27.263405,0
2021-12-23 15:19:27.263415,-9
2021-12-23 15:19:27.263425,4
2021-12-23 15:19:27.263434,0
2021-12-23 15:19:27.263444,-23
2021-12-23 15:19:27.263454,-21
2021-12-23 15:19:27.263463,-7
2021-12-23 15:19:27.263473,-19
2021-12-23 15:19:27.263483,-50
2021-12-23 15:19:27.263493,-50
2021-12-23 15:19:27.263503,0
2021-12-23 15:19:27.263513,33
2021-12-23 15:19:27.487916,-4
2021-12-23 15:19:27.487938,-35
2021-12-23 15:19:27.487945,-9
2021-12-23 15:19:27.487952,114
2021-12-23 15:19:27.487958,428
2021-12-23 15:19:27.487965,703
2021-12-23 15:19:27.487971,528
2021-12-23 15:19:27.487977,31
2021-12-23 15:19:27.487984,-244
2021-12-23 15:19:27.487990,-160
2021-12-23 15:19:27.487997,-81
2021-12-23 15:19:27.488003,-110
2021-12-23 15:19:27.488009,-76
2021-12-23 15:19:27.488015,-35
2021-12-23 15:19:27.488021,-57
2021-12-23 15:19:27.488028,-43
2021-12-23 15:19:27.488034,9
2021-12-23 15:19:27.488040,19
2021-12-23 15:19:27.488046,14
2021-12-23 15:19:27.488053,33
2021-12-23 15:19:27.488059,52
2021-12-23 15:19:27.488065,71
2021-12-23 15:19:27.488072,93
2021-12-23 15:19:27.488078,88
2021-12-23 15:19:27.488084,83
2021-12-23 15:19:27.488090,122
2021-12-23 15:19:27.488097,160
2021-12-23 15:19:27.488103,167
2021-12-23 15:19:27.488109,167
2021-12-23 15:19:27.488116,172
2021-12-23 15:19:27.758216,196
2021-12-23 15:19:27.758236,215
2021-12-23 15:19:27.758244,222
2021-12-23 15:19:27.758250,227
2021-12-23 15:19:27.758256,205
2021-12-23 15:19:27.758263,141
2021-12-23 15:19:27.758269,59
2021-12-23 15:19:27.758275,14
2021-12-23 15:19:27.758281,-21
2021-12-23 15:19:27.758288,-76
2021-12-23 15:19:27.758294,-112
2021-12-23 15:19:27.758300,-143
2021-12-23 15:19:27.758307,-177
2021-12-23 15:19:27.758313,-167
2021-12-23 15:19:27.758319,-153
2021-12-23 15:19:27.758325,-179
2021-12-23 15:19:27.758332,-186
2021-12-23 15:19:27.758338,-167
2021-12-23 15:19:27.758344,-162
2021-12-23 15:19:27.758350,-162
2021-12-23 15:19:27.758357,-162
2021-12-23 15:19:27.758363,-157
2021-12-23 15:19:27.758369,-148
2021-12-23 15:19:27.758375,-145
2021-12-23 15:19:27.758382,-129
2021-12-23 15:19:27.758388,-98
2021-12-23 15:19:27.758394,-93
2021-12-23 15:19:27.758400,-100
2021-12-23 15:19:27.758407,-90
2021-12-23 15:19:27.758413,-86
2021-12-23 15:19:27.938219,-95
2021-12-23 15:19:27.938249,-95
2021-12-23 15:19:27.938260,-83
2021-12-23 15:19:27.938270,-78
2021-12-23 15:19:27.938280,-78
2021-12-23 15:19:27.938290,-100
2021-12-23 15:19:27.938299,-105
2021-12-23 15:19:27.938309,-74
2021-12-23 15:19:27.938318,-52
2021-12-23 15:19:27.938327,-69
2021-12-23 15:19:27.938337,-90
2021-12-23 15:19:27.938347,-86
2021-12-23 15:19:27.938356,-62
2021-12-23 15:19:27.938365,-38
2021-12-23 15:19:27.938375,-35
2021-12-23 15:19:27.938384,-81
2021-12-23 15:19:27.938394,-141
2021-12-23 15:19:27.938403,-153
2021-12-23 15:19:27.938413,-105
2021-12-23 15:19:27.938422,-66
2021-12-23 15:19:27.938431,-76
2021-12-23 15:19:27.938441,-93
2021-12-23 15:19:27.938450,-88
2021-12-23 15:19:27.938460,-71
2021-12-23 15:19:27.938469,-43
2021-12-23 15:19:27.938479,0
2021-12-23 15:19:27.938488,23
2021-12-23 15:19:27.938498,7
2021-12-23 15:19:27.938507,-14
2021-12-23 15:19:27.938517,-14
2021-12-23 15:19:28.207885,0
2021-12-23 15:19:28.207912,-9
2021-12-23 15:19:28.207925,-45
2021-12-23 15:19:28.207937,-62
2021-12-23 15:19:28.207948,-59
2021-12-23 15:19:28.207960,-69
2021-12-23 15:19:28.207971,-71
2021-12-23 15:19:28.207982,-52
2021-12-23 15:19:28.207993,-28
2021-12-23 15:19:28.208004,-28
2021-12-23 15:19:28.208016,-62
2021-12-23 15:19:28.208027,-90
2021-12-23 15:19:28.208039,-2
2021-12-23 15:19:28.208051,330
2021-12-23 15:19:28.208065,686
2021-12-23 15:19:28.208076,590
2021-12-23 15:19:28.208087,98
2021-12-23 15:19:28.208098,-222
2021-12-23 15:19:28.208110,-148
2021-12-23 15:19:28.208118,-21
2021-12-23 15:19:28.208125,-38
2021-12-23 15:19:28.208131,-21
2021-12-23 15:19:28.208137,28
2021-12-23 15:19:28.208143,23
2021-12-23 15:19:28.208149,7
2021-12-23 15:19:28.208155,21
2021-12-23 15:19:28.208162,50
2021-12-23 15:19:28.208168,50
2021-12-23 15:19:28.208174,28
2021-12-23 15:19:28.208180,69
2021-12-23 15:19:28.476811,133
2021-12-23 15:19:28.476843,150
2021-12-23 15:19:28.476855,143
2021-12-23 15:19:28.476865,143
2021-12-23 15:19:28.476875,145
2021-12-23 15:19:28.476885,160
2021-12-23 15:19:28.476895,191
2021-12-23 15:19:28.476904,227
2021-12-23 15:19:28.476914,244
2021-12-23 15:19:28.476924,222
2021-12-23 15:19:28.476934,203
2021-12-23 15:19:28.476943,229
2021-12-23 15:19:28.476953,251
2021-12-23 15:19:28.476963,241
2021-12-23 15:19:28.476973,210
2021-12-23 15:19:28.476982,131
2021-12-23 15:19:28.476992,35
2021-12-23 15:19:28.477002,-14
2021-12-23 15:19:28.477012,-62
2021-12-23 15:19:28.477022,-119
2021-12-23 15:19:28.477032,-157
2021-12-23 15:19:28.477042,-208
2021-12-23 15:19:28.477051,-246
2021-12-23 15:19:28.477061,-222
2021-12-23 15:19:28.477071,-196
2021-12-23 15:19:28.477081,-193
2021-12-23 15:19:28.477091,-189
2021-12-23 15:19:28.477101,-186
2021-12-23 15:19:28.477110,-167
2021-12-23 15:19:28.477120,-143
2021-12-23 15:19:28.747506,-133
2021-12-23 15:19:28.747529,-117
2021-12-23 15:19:28.747537,-107
2021-12-23 15:19:28.747543,-119
2021-12-23 15:19:28.747570,-105
2021-12-23 15:19:28.747579,-78
2021-12-23 15:19:28.747589,-90
2021-12-23 15:19:28.747598,-98
2021-12-23 15:19:28.747608,-102
2021-12-23 15:19:28.747618,-133
2021-12-23 15:19:28.747627,-119
2021-12-23 15:19:28.747637,-74
2021-12-23 15:19:28.747646,-57
2021-12-23 15:19:28.747656,-50
2021-12-23 15:19:28.747666,-57
2021-12-23 15:19:28.747675,-93
2021-12-23 15:19:28.747685,-83
2021-12-23 15:19:28.747694,-40
2021-12-23 15:19:28.747704,-33
2021-12-23 15:19:28.747719,-40
2021-12-23 15:19:28.747729,-28
2021-12-23 15:19:28.747738,-9
2021-12-23 15:19:28.747748,14
2021-12-23 15:19:28.747758,40
2021-12-23 15:19:28.747767,31
2021-12-23 15:19:28.747777,9
2021-12-23 15:19:28.747786,-4
2021-12-23 15:19:28.747796,-26
2021-12-23 15:19:28.747805,-33
2021-12-23 15:19:28.747815,-28
2021-12-23 15:19:28.973127,-28
2021-12-23 15:19:28.973148,-26
2021-12-23 15:19:28.973156,-26
2021-12-23 15:19:28.973163,-23
2021-12-23 15:19:28.973169,-9
2021-12-23 15:19:28.973176,2
2021-12-23 15:19:28.973182,7
2021-12-23 15:19:28.973188,4
2021-12-23 15:19:28.973195,-9
2021-12-23 15:19:28.973201,33
2021-12-23 15:19:28.973207,318
2021-12-23 15:19:28.973214,715
2021-12-23 15:19:28.973221,710
2021-12-23 15:19:28.973227,181
2021-12-23 15:19:28.973233,-282
2021-12-23 15:19:28.973240,-222
2021-12-23 15:19:28.973246,4
2021-12-23 15:19:28.973252,-7
2021-12-23 15:19:28.973259,-16
2021-12-23 15:19:28.973265,52
2021-12-23 15:19:28.973271,23
2021-12-23 15:19:28.973278,4
2021-12-23 15:19:28.973284,43
2021-12-23 15:19:28.973290,59
2021-12-23 15:19:28.973296,69
2021-12-23 15:19:28.973303,78
2021-12-23 15:19:28.973309,50
2021-12-23 15:19:28.973315,9
2021-12-23 15:19:28.973322,19
2021-12-23 15:19:28.973328,64
2021-12-23 15:19:29.243189,86
2021-12-23 15:19:29.243219,98
2021-12-23 15:19:29.243231,119
2021-12-23 15:19:29.243241,148
2021-12-23 15:19:29.243251,186
2021-12-23 15:19:29.243261,229
2021-12-23 15:19:29.243270,253
2021-12-23 15:19:29.243280,253
2021-12-23 15:19:29.243290,256
2021-12-23 15:19:29.243300,260
2021-12-23 15:19:29.243309,239
2021-12-23 15:19:29.243319,191
2021-12-23 15:19:29.243328,112
2021-12-23 15:19:29.243338,14
2021-12-23 15:19:29.243348,-59
2021-12-23 15:19:29.243357,-95
2021-12-23 15:19:29.243367,-126
2021-12-23 15:19:29.243376,-155
2021-12-23 15:19:29.243386,-184
2021-12-23 15:19:29.243395,-208
2021-12-23 15:19:29.243405,-205
2021-12-23 15:19:29.243414,-200
2021-12-23 15:19:29.243424,-208
2021-12-23 15:19:29.243434,-196
2021-12-23 15:19:29.243443,-193
2021-12-23 15:19:29.243453,-212
2021-12-23 15:19:29.243462,-205
2021-12-23 15:19:29.243472,-186
2021-12-23 15:19:29.243481,-174
2021-12-23 15:19:29.243491,-162
2021-12-23 15:19:29.332670,-153
2021-12-23 15:19:29.332689,-141
2021-12-23 15:19:29.332695,-133
2021-12-23 15:19:29.332700,-124
2021-12-23 15:19:29.332705,-102
2021-12-23 15:19:29.332710,-86
2021-12-23 15:19:29.332715,-93
2021-12-23 15:19:29.332720,-105
2021-12-23 15:19:29.332726,-78
2021-12-23 15:19:29.332731,-52
2021-12-23 15:19:29.332736,-62
2021-12-23 15:19:29.332741,-69
2021-12-23 15:19:29.332746,-62
2021-12-23 15:19:29.332751,-62
2021-12-23 15:19:29.332756,-52
2021-12-23 15:19:29.332761,-40
2021-12-23 15:19:29.332766,-40
2021-12-23 15:19:29.332771,-47
2021-12-23 15:19:29.332776,-55
2021-12-23 15:19:29.332781,-35
2021-12-23 15:19:29.332787,9
2021-12-23 15:19:29.332792,21
2021-12-23 15:19:29.332797,-4
2021-12-23 15:19:29.332802,-19
2021-12-23 15:19:29.332807,-14
2021-12-23 15:19:29.332812,-16
2021-12-23 15:19:29.332817,-21
2021-12-23 15:19:29.332822,-19
2021-12-23 15:19:29.332827,-9
2021-12-23 15:19:29.332832,-9
2021-12-23 15:19:29.558181,-23
2021-12-23 15:19:29.558211,-19
2021-12-23 15:19:29.558223,-16
2021-12-23 15:19:29.558233,-57
2021-12-23 15:19:29.558243,-69
2021-12-23 15:19:29.558252,-66
2021-12-23 15:19:29.558262,-93
2021-12-23 15:19:29.558272,107
2021-12-23 15:19:29.558282,576
2021-12-23 15:19:29.558292,772
2021-12-23 15:19:29.558302,406
2021-12-23 15:19:29.558311,-184
2021-12-23 15:19:29.558321,-401
2021-12-23 15:19:29.558331,-136
2021-12-23 15:19:29.558341,-21
2021-12-23 15:19:29.558351,-126
2021-12-23 15:19:29.558360,-59
2021-12-23 15:19:29.558370,21
2021-12-23 15:19:29.558380,-14
2021-12-23 15:19:29.558390,2
2021-12-23 15:19:29.558400,55
2021-12-23 15:19:29.558409,62
2021-12-23 15:19:29.558420,81
2021-12-23 15:19:29.558429,122
2021-12-23 15:19:29.558439,136
2021-12-23 15:19:29.558449,143
2021-12-23 15:19:29.558459,160
2021-12-23 15:19:29.558468,167
2021-12-23 15:19:29.558478,184
2021-12-23 15:19:29.558488,217
2021-12-23 15:19:29.828167,246
2021-12-23 15:19:29.828197,277
2021-12-23 15:19:29.828209,308
2021-12-23 15:19:29.828219,330
2021-12-23 15:19:29.828229,344
2021-12-23 15:19:29.828239,332
2021-12-23 15:19:29.828249,320
2021-12-23 15:19:29.828259,327
2021-12-23 15:19:29.828268,311
2021-12-23 15:19:29.828278,236
2021-12-23 15:19:29.828288,129
2021-12-23 15:19:29.828298,23
2021-12-23 15:19:29.828308,-40
2021-12-23 15:19:29.828318,-76
2021-12-23 15:19:29.828327,-112
2021-12-23 15:19:29.828337,-141
2021-12-23 15:19:29.828347,-162
2021-12-23 15:19:29.828357,-179
2021-12-23 15:19:29.828367,-174
2021-12-23 15:19:29.828376,-157
2021-12-23 15:19:29.828386,-169
2021-12-23 15:19:29.828396,-184
2021-12-23 15:19:29.828406,-174
2021-12-23 15:19:29.828416,-169
2021-12-23 15:19:29.828426,-177
2021-12-23 15:19:29.828436,-157
2021-12-23 15:19:29.828445,-126
2021-12-23 15:19:29.828455,-124
2021-12-23 15:19:29.828465,-133
2021-12-23 15:19:29.828475,-119
2021-12-23 15:19:30.007964,-93
2021-12-23 15:19:30.007985,-83
2021-12-23 15:19:30.007995,-69
2021-12-23 15:19:30.008003,-55
2021-12-23 15:19:30.008010,-76
2021-12-23 15:19:30.008018,-78
2021-12-23 15:19:30.008025,-40
2021-12-23 15:19:30.008033,-43
2021-12-23 15:19:30.008041,-95
2021-12-23 15:19:30.008047,-122
2021-12-23 15:19:30.008055,-110
2021-12-23 15:19:30.008092,-105
2021-12-23 15:19:30.008109,-98
2021-12-23 15:19:30.008116,-64
2021-12-23 15:19:30.008123,-31
2021-12-23 15:19:30.008129,-50
2021-12-23 15:19:30.008136,-100
2021-12-23 15:19:30.008142,-102
2021-12-23 15:19:30.008149,-83
2021-12-23 15:19:30.008155,-107
2021-12-23 15:19:30.008161,-124
2021-12-23 15:19:30.008168,-107
2021-12-23 15:19:30.008174,-107
2021-12-23 15:19:30.008180,-107
2021-12-23 15:19:30.008187,-86
2021-12-23 15:19:30.008193,-66
2021-12-23 15:19:30.008199,-62
2021-12-23 15:19:30.008206,-71
2021-12-23 15:19:30.008212,-74
2021-12-23 15:19:30.008219,-74
2021-12-23 15:19:30.322736,-74
2021-12-23 15:19:30.322756,102
2021-12-23 15:19:30.322764,552
2021-12-23 15:19:30.322771,849
2021-12-23 15:19:30.322777,634
2021-12-23 15:19:30.322784,50
2021-12-23 15:19:30.322790,-387
2021-12-23 15:19:30.322797,-239
2021-12-23 15:19:30.322803,19
2021-12-23 15:19:30.322880,-62
2021-12-23 15:19:30.322891,-117
2021-12-23 15:19:30.322897,-19
2021-12-23 15:19:30.322904,7
2021-12-23 15:19:30.322910,2
2021-12-23 15:19:30.322917,33
2021-12-23 15:19:30.322923,38
2021-12-23 15:19:30.322930,40
2021-12-23 15:19:30.322936,83
2021-12-23 15:19:30.322971,119
2021-12-23 15:19:30.322979,136
2021-12-23 15:19:30.322985,124
2021-12-23 15:19:30.322992,102
2021-12-23 15:19:30.322998,131
2021-12-23 15:19:30.323004,186
2021-12-23 15:19:30.323011,224
2021-12-23 15:19:30.323017,258
2021-12-23 15:19:30.323024,284
2021-12-23 15:19:30.323030,291
2021-12-23 15:19:30.323036,299
2021-12-23 15:19:30.323043,306
2021-12-23 15:19:30.546791,315
2021-12-23 15:19:30.546821,318
2021-12-23 15:19:30.546832,270
2021-12-23 15:19:30.546842,186
2021-12-23 15:19:30.546852,112
2021-12-23 15:19:30.546861,43
2021-12-23 15:19:30.546871,-35
2021-12-23 15:19:30.546881,-88
2021-12-23 15:19:30.546890,-131
2021-12-23 15:19:30.546900,-189
2021-12-23 15:19:30.546910,-196
2021-12-23 15:19:30.546920,-160
2021-12-23 15:19:30.546929,-145
2021-12-23 15:19:30.546939,-148
2021-12-23 15:19:30.546949,-162
2021-12-23 15:19:30.546958,-186
2021-12-23 15:19:30.546968,-179
2021-12-23 15:19:30.546978,-150
2021-12-23 15:19:30.546987,-129
2021-12-23 15:19:30.546997,-131
2021-12-23 15:19:30.547006,-172
2021-12-23 15:19:30.547016,-208
2021-12-23 15:19:30.547026,-215
2021-12-23 15:19:30.547035,-217
2021-12-23 15:19:30.547045,-200
2021-12-23 15:19:30.547055,-177
2021-12-23 15:19:30.547064,-179
2021-12-23 15:19:30.547074,-174
2021-12-23 15:19:30.547083,-148
2021-12-23 15:19:30.547093,-133
2021-12-23 15:19:30.728149,-117
2021-12-23 15:19:30.728171,-98
2021-12-23 15:19:30.728179,-107
2021-12-23 15:19:30.728185,-119
2021-12-23 15:19:30.728191,-98
2021-12-23 15:19:30.728198,-74
2021-12-23 15:19:30.728204,-71
2021-12-23 15:19:30.728210,-81
2021-12-23 15:19:30.728216,-98
2021-12-23 15:19:30.728222,-100
2021-12-23 15:19:30.728228,-71
2021-12-23 15:19:30.728235,-47
2021-12-23 15:19:30.728241,-52
2021-12-23 15:19:30.728247,-78
2021-12-23 15:19:30.728253,-112
2021-12-23 15:19:30.728259,-122
2021-12-23 15:19:30.728265,-105
2021-12-23 15:19:30.728272,-93
2021-12-23 15:19:30.728278,-74
2021-12-23 15:19:30.728284,-55
2021-12-23 15:19:30.728290,-66
2021-12-23 15:19:30.728296,-71
2021-12-23 15:19:30.728303,-47
2021-12-23 15:19:30.728309,-28
2021-12-23 15:19:30.728315,-52
2021-12-23 15:19:30.728321,-117
2021-12-23 15:19:30.728327,-66
2021-12-23 15:19:30.728333,306
2021-12-23 15:19:30.728340,782
2021-12-23 15:19:30.728346,899
2021-12-23 15:19:30.997828,490
2021-12-23 15:19:30.997850,-177
2021-12-23 15:19:30.997858,-373
2021-12-23 15:19:30.997865,-52
2021-12-23 15:19:30.997871,26
2021-12-23 15:19:30.997878,-71
2021-12-23 15:19:30.997884,9
2021-12-23 15:19:30.997890,35
2021-12-23 15:19:30.997897,-26
2021-12-23 15:19:30.997903,0
2021-12-23 15:19:30.997910,55
2021-12-23 15:19:30.997916,57
2021-12-23 15:19:30.997923,55
2021-12-23 15:19:30.997929,64
2021-12-23 15:19:30.997935,76
2021-12-23 15:19:30.997942,105
2021-12-23 15:19:30.997948,129
2021-12-23 15:19:30.997954,148
2021-12-23 15:19:30.997961,184
2021-12-23 15:19:30.997967,212
2021-12-23 15:19:30.997973,215
2021-12-23 15:19:30.997980,234
2021-12-23 15:19:30.997986,282
2021-12-23 15:19:30.997993,320
2021-12-23 15:19:30.997999,334
2021-12-23 15:19:30.998005,330
2021-12-23 15:19:30.998012,313
2021-12-23 15:19:30.998019,272
2021-12-23 15:19:30.998025,224
2021-12-23 15:19:30.998031,162
2021-12-23 15:19:31.178284,62
2021-12-23 15:19:31.178306,-26
2021-12-23 15:19:31.178313,-71
2021-12-23 15:19:31.178319,-112
2021-12-23 15:19:31.178326,-141
2021-12-23 15:19:31.178332,-133
2021-12-23 15:19:31.178338,-138
2021-12-23 15:19:31.178344,-157
2021-12-23 15:19:31.178351,-150
2021-12-23 15:19:31.178357,-133
2021-12-23 15:19:31.178363,-124
2021-12-23 15:19:31.178369,-110
2021-12-23 15:19:31.178376,-112
2021-12-23 15:19:31.178382,-126
2021-12-23 15:19:31.178388,-124
2021-12-23 15:19:31.178394,-117
2021-12-23 15:19:31.178400,-112
2021-12-23 15:19:31.178406,-105
2021-12-23 15:19:31.178413,-114
2021-12-23 15:19:31.178419,-124
2021-12-23 15:19:31.178425,-107
2021-12-23 15:19:31.178431,-93
2021-12-23 15:19:31.178438,-86
2021-12-23 15:19:31.178444,-76
2021-12-23 15:19:31.178450,-69
2021-12-23 15:19:31.178456,-57
2021-12-23 15:19:31.178462,-45
2021-12-23 15:19:31.178468,-45
2021-12-23 15:19:31.178474,-52
2021-12-23 15:19:31.178480,-66
2021-12-23 15:19:31.402688,-74
2021-12-23 15:19:31.402709,-64
2021-12-23 15:19:31.402715,-52
2021-12-23 15:19:31.402721,-59
2021-12-23 15:19:31.402727,-71
2021-12-23 15:19:31.402733,-93
2021-12-23 15:19:31.402739,-129
2021-12-23 15:19:31.402744,-155
2021-12-23 15:19:31.402750,-160
2021-12-23 15:19:31.402755,-145
2021-12-23 15:19:31.402760,-112
2021-12-23 15:19:31.402765,-102
2021-12-23 15:19:31.402770,-126
2021-12-23 15:19:31.402775,-129
2021-12-23 15:19:31.402780,-119
2021-12-23 15:19:31.402785,-124
2021-12-23 15:19:31.402790,-124
2021-12-23 15:19:31.402795,-133
2021-12-23 15:19:31.402800,-143
2021-12-23 15:19:31.402806,-117
2021-12-23 15:19:31.402812,-90
2021-12-23 15:19:31.402817,-93
2021-12-23 15:19:31.402822,-88
2021-12-23 15:19:31.402827,-81
2021-12-23 15:19:31.402832,-90
2021-12-23 15:19:31.402837,-107
2021-12-23 15:19:31.402842,-157
2021-12-23 15:19:31.402847,-191
2021-12-23 15:19:31.402852,-35
2021-12-23 15:19:31.402857,399
2021-12-23 15:19:31.628194,775
2021-12-23 15:19:31.628223,696
2021-12-23 15:19:31.628234,162
2021-12-23 15:19:31.628244,-382
2021-12-23 15:19:31.628254,-366
2021-12-23 15:19:31.628270,-100
2021-12-23 15:19:31.628280,-129
2021-12-23 15:19:31.628290,-169
2021-12-23 15:19:31.628299,-66
2021-12-23 15:19:31.628309,-47
2021-12-23 15:19:31.628319,-90
2021-12-23 15:19:31.628328,-74
2021-12-23 15:19:31.628338,-40
2021-12-23 15:19:31.628347,-19
2021-12-23 15:19:31.628357,2
2021-12-23 15:19:31.628385,21
2021-12-23 15:19:31.628395,43
2021-12-23 15:19:31.628404,62
2021-12-23 15:19:31.628414,81
2021-12-23 15:19:31.628423,110
2021-12-23 15:19:31.628433,148
2021-12-23 15:19:31.628442,174
2021-12-23 15:19:31.628452,205
2021-12-23 15:19:31.628461,244
2021-12-23 15:19:31.628557,270
2021-12-23 15:19:31.628578,296
2021-12-23 15:19:31.628590,330
2021-12-23 15:19:31.628600,344
2021-12-23 15:19:31.628610,320
2021-12-23 15:19:31.628620,287
2021-12-23 15:19:31.853204,246
2021-12-23 15:19:31.853234,174
2021-12-23 15:19:31.853245,69
2021-12-23 15:19:31.853255,-35
2021-12-23 15:19:31.853265,-112
2021-12-23 15:19:31.853274,-153
2021-12-23 15:19:31.853284,-162
2021-12-23 15:19:31.853293,-157
2021-12-23 15:19:31.853303,-153
2021-12-23 15:19:31.853312,-150
2021-12-23 15:19:31.853322,-165
2021-12-23 15:19:31.853332,-189
2021-12-23 15:19:31.853341,-184
2021-12-23 15:19:31.853351,-160
2021-12-23 15:19:31.853360,-153
2021-12-23 15:19:31.853370,-165
2021-12-23 15:19:31.853379,-153
2021-12-23 15:19:31.853389,-119
2021-12-23 15:19:31.853398,-100
2021-12-23 15:19:31.853408,-90
2021-12-23 15:19:31.853417,-76
2021-12-23 15:19:31.853427,-78
2021-12-23 15:19:31.853437,-83
2021-12-23 15:19:31.853446,-62
2021-12-23 15:19:31.853456,-50
2021-12-23 15:19:31.853465,-45
2021-12-23 15:19:31.853475,-28
2021-12-23 15:19:31.853484,-28
2021-12-23 15:19:31.853494,-35
2021-12-23 15:19:31.853504,-21
2021-12-23 15:19:32.123154,-21
2021-12-23 15:19:32.123183,-59
2021-12-23 15:19:32.123195,-93
2021-12-23 15:19:32.123205,-119
2021-12-23 15:19:32.123215,-160
2021-12-23 15:19:32.123225,-186
2021-12-23 15:19:32.123234,-181
2021-12-23 15:19:32.123244,-167
2021-12-23 15:19:32.123254,-169
2021-12-23 15:19:32.123263,-193
2021-12-23 15:19:32.123273,-198
2021-12-23 15:19:32.123282,-167
2021-12-23 15:19:32.123292,-138
2021-12-23 15:19:32.123302,-133
2021-12-23 15:19:32.123311,-133
2021-12-23 15:19:32.123321,-133
2021-12-23 15:19:32.123330,-129
2021-12-23 15:19:32.123340,-107
2021-12-23 15:19:32.123350,-88
2021-12-23 15:19:32.123359,-81
2021-12-23 15:19:32.123369,-76
2021-12-23 15:19:32.123378,-71
2021-12-23 15:19:32.123388,-66
2021-12-23 15:19:32.123398,-57
2021-12-23 15:19:32.123407,-45
2021-12-23 15:19:32.123417,-28
2021-12-23 15:19:32.123426,-16
2021-12-23 15:19:32.123436,-14
2021-12-23 15:19:32.123445,-11
2021-12-23 15:19:32.123455,-2
2021-12-23 15:19:32.437605,7
2021-12-23 15:19:32.437635,16
2021-12-23 15:19:32.437646,19
2021-12-23 15:19:32.437656,9
2021-12-23 15:19:32.437666,23
2021-12-23 15:19:32.437676,50
2021-12-23 15:19:32.437686,55
2021-12-23 15:19:32.437695,55
2021-12-23 15:19:32.437705,43
2021-12-23 15:19:32.437715,11
2021-12-23 15:19:32.437724,-7
2021-12-23 15:19:32.437734,9
2021-12-23 15:19:32.437744,14
2021-12-23 15:19:32.437754,0
2021-12-23 15:19:32.437764,-23
2021-12-23 15:19:32.437773,-45
2021-12-23 15:19:32.437783,-23
2021-12-23 15:19:32.437793,9
2021-12-23 15:19:32.437803,14
2021-12-23 15:19:32.437812,21
2021-12-23 15:19:32.437822,23
2021-12-23 15:19:32.437832,-7
2021-12-23 15:19:32.437841,-40
2021-12-23 15:19:32.437851,59
2021-12-23 15:19:32.437861,447
2021-12-23 15:19:32.437871,885
2021-12-23 15:19:32.437881,923
2021-12-23 15:19:32.437890,459
2021-12-23 15:19:32.437900,-133
2021-12-23 15:19:32.437910,-220
2021-12-23 15:19:32.661773,71
2021-12-23 15:19:32.661794,88
2021-12-23 15:19:32.661802,-16
2021-12-23 15:19:32.661828,47
2021-12-23 15:19:32.661838,93
2021-12-23 15:19:32.661848,66
2021-12-23 15:19:32.661858,50
2021-12-23 15:19:32.661867,47
2021-12-23 15:19:32.661877,69
2021-12-23 15:19:32.661886,71
2021-12-23 15:19:32.661896,59
2021-12-23 15:19:32.661906,98
2021-12-23 15:19:32.661915,148
2021-12-23 15:19:32.661925,160
2021-12-23 15:19:32.661934,150
2021-12-23 15:19:32.661944,169
2021-12-23 15:19:32.661953,210
2021-12-23 15:19:32.661963,251
2021-12-23 15:19:32.661973,291
2021-12-23 15:19:32.661982,303
2021-12-23 15:19:32.661992,284
2021-12-23 15:19:32.662001,279
2021-12-23 15:19:32.662011,306
2021-12-23 15:19:32.662020,327
2021-12-23 15:19:32.662030,320
2021-12-23 15:19:32.662039,279
2021-12-23 15:19:32.662049,200
2021-12-23 15:19:32.662059,110
2021-12-23 15:19:32.662068,38
2021-12-23 15:19:32.662078,-21
2021-12-23 15:19:32.843190,-71
2021-12-23 15:19:32.843220,-119
2021-12-23 15:19:32.843231,-150
2021-12-23 15:19:32.843241,-145
2021-12-23 15:19:32.843251,-131
2021-12-23 15:19:32.843260,-126
2021-12-23 15:19:32.843270,-117
2021-12-23 15:19:32.843279,-124
2021-12-23 15:19:32.843289,-153
2021-12-23 15:19:32.843298,-153
2021-12-23 15:19:32.843308,-129
2021-12-23 15:19:32.843317,-136
2021-12-23 15:19:32.843327,-179
2021-12-23 15:19:32.843336,-220
2021-12-23 15:19:32.843346,-232
2021-12-23 15:19:32.843355,-217
2021-12-23 15:19:32.843365,-200
2021-12-23 15:19:32.843374,-186
2021-12-23 15:19:32.843384,-184
2021-12-23 15:19:32.843393,-179
2021-12-23 15:19:32.843402,-155
2021-12-23 15:19:32.843412,-136
2021-12-23 15:19:32.843421,-143
2021-12-23 15:19:32.843431,-136
2021-12-23 15:19:32.843440,-110
2021-12-23 15:19:32.843450,-102
2021-12-23 15:19:32.843459,-102
2021-12-23 15:19:32.843469,-86
2021-12-23 15:19:32.843478,-69
2021-12-23 15:19:32.843488,-62
2021-12-23 15:19:33.023299,-55
2021-12-23 15:19:33.023329,-57
2021-12-23 15:19:33.023341,-69
2021-12-23 15:19:33.023351,-69
2021-12-23 15:19:33.023361,-55
2021-12-23 15:19:33.023370,-43
2021-12-23 15:19:33.023380,-50
2021-12-23 15:19:33.023390,-52
2021-12-23 15:19:33.023399,-38
2021-12-23 15:19:33.023409,-33
2021-12-23 15:19:33.023419,-33
2021-12-23 15:19:33.023428,-21
2021-12-23 15:19:33.023438,-52
2021-12-23 15:19:33.023448,-126
2021-12-23 15:19:33.023457,-136
2021-12-23 15:19:33.023467,-95
2021-12-23 15:19:33.023477,-81
2021-12-23 15:19:33.023486,-86
2021-12-23 15:19:33.023496,-86
2021-12-23 15:19:33.023506,-86
2021-12-23 15:19:33.023515,-76
2021-12-23 15:19:33.023525,-66
2021-12-23 15:19:33.023535,-86
2021-12-23 15:19:33.023545,-102
2021-12-23 15:19:33.023554,66
2021-12-23 15:19:33.023564,504
2021-12-23 15:19:33.023574,846
2021-12-23 15:19:33.023584,758
2021-12-23 15:19:33.023593,224
2021-12-23 15:19:33.023603,-315
2021-12-23 15:19:33.248190,-248
2021-12-23 15:19:33.248220,47
2021-12-23 15:19:33.248231,7
2021-12-23 15:19:33.248242,-57
2021-12-23 15:19:33.248251,33
2021-12-23 15:19:33.248261,38
2021-12-23 15:19:33.248271,-19
2021-12-23 15:19:33.248281,7
2021-12-23 15:19:33.248290,52
2021-12-23 15:19:33.248300,62
2021-12-23 15:19:33.248310,69
2021-12-23 15:19:33.248319,76
2021-12-23 15:19:33.248329,74
2021-12-23 15:19:33.248339,105
2021-12-23 15:19:33.248348,136
2021-12-23 15:19:33.248358,126
2021-12-23 15:19:33.248367,131
2021-12-23 15:19:33.248377,160
2021-12-23 15:19:33.248387,177
2021-12-23 15:19:33.248396,205
2021-12-23 15:19:33.248406,246
2021-12-23 15:19:33.248416,265
2021-12-23 15:19:33.248425,289
2021-12-23 15:19:33.248435,311
2021-12-23 15:19:33.248444,284
2021-12-23 15:19:33.248454,246
2021-12-23 15:19:33.248463,196
2021-12-23 15:19:33.248473,112
2021-12-23 15:19:33.248483,21
2021-12-23 15:19:33.248492,-52
2021-12-23 15:19:33.473201,-112
2021-12-23 15:19:33.473231,-131
2021-12-23 15:19:33.473243,-129
2021-12-23 15:19:33.473253,-143
2021-12-23 15:19:33.473263,-167
2021-12-23 15:19:33.473273,-179
2021-12-23 15:19:33.473283,-169
2021-12-23 15:19:33.473293,-145
2021-12-23 15:19:33.473303,-133
2021-12-23 15:19:33.473313,-148
2021-12-23 15:19:33.473322,-169
2021-12-23 15:19:33.473332,-196
2021-12-23 15:19:33.473342,-210
2021-12-23 15:19:33.473352,-189
2021-12-23 15:19:33.473362,-165
2021-12-23 15:19:33.473372,-167
2021-12-23 15:19:33.473382,-169
2021-12-23 15:19:33.473391,-186
2021-12-23 15:19:33.473401,-217
2021-12-23 15:19:33.473411,-205
2021-12-23 15:19:33.473421,-174
2021-12-23 15:19:33.473431,-174
2021-12-23 15:19:33.473441,-177
2021-12-23 15:19:33.473451,-160
2021-12-23 15:19:33.473460,-141
2021-12-23 15:19:33.473470,-124
2021-12-23 15:19:33.473480,-114
2021-12-23 15:19:33.473490,-114
2021-12-23 15:19:33.473500,-112
2021-12-23 15:19:33.473509,-110
2021-12-23 15:19:33.698081,-95
2021-12-23 15:19:33.698102,-74
2021-12-23 15:19:33.698109,-62
2021-12-23 15:19:33.698116,-64
2021-12-23 15:19:33.698122,-83
2021-12-23 15:19:33.698129,-98
2021-12-23 15:19:33.698135,-81
2021-12-23 15:19:33.698141,-62
2021-12-23 15:19:33.698148,-50
2021-12-23 15:19:33.698154,-47
2021-12-23 15:19:33.698160,-81
2021-12-23 15:19:33.698167,-100
2021-12-23 15:19:33.698173,-57
2021-12-23 15:19:33.698179,-16
2021-12-23 15:19:33.698186,-9
2021-12-23 15:19:33.698192,-14
2021-12-23 15:19:33.698198,-21
2021-12-23 15:19:33.698204,-14
2021-12-23 15:19:33.698211,-9
2021-12-23 15:19:33.698217,-47
2021-12-23 15:19:33.698223,-83
2021-12-23 15:19:33.698230,-69
2021-12-23 15:19:33.698236,-57
2021-12-23 15:19:33.698242,-45
2021-12-23 15:19:33.698248,-19
2021-12-23 15:19:33.698255,-7
2021-12-23 15:19:33.698261,-7
2021-12-23 15:19:33.698267,-11
2021-12-23 15:19:33.698274,-38
2021-12-23 15:19:33.698280,-47
2021-12-23 15:19:33.923214,145
2021-12-23 15:19:33.923244,574
2021-12-23 15:19:33.923255,892
2021-12-23 15:19:33.923265,796
2021-12-23 15:19:33.923275,217
2021-12-23 15:19:33.923285,-339
2021-12-23 15:19:33.923294,-212
2021-12-23 15:19:33.923304,86
2021-12-23 15:19:33.923314,-9
2021-12-23 15:19:33.923323,-95
2021-12-23 15:19:33.923333,-19
2021-12-23 15:19:33.923342,-2
2021-12-23 15:19:33.923352,-9
2021-12-23 15:19:33.923361,35
2021-12-23 15:19:33.923371,52
2021-12-23 15:19:33.923380,14
2021-12-23 15:19:33.923390,9
2021-12-23 15:19:33.923400,59
2021-12-23 15:19:33.923409,95
2021-12-23 15:19:33.923419,107
2021-12-23 15:19:33.923428,122
2021-12-23 15:19:33.923438,117
2021-12-23 15:19:33.923448,126
2021-12-23 15:19:33.923457,167
2021-12-23 15:19:33.923467,179
2021-12-23 15:19:33.923476,181
2021-12-23 15:19:33.923486,220
2021-12-23 15:19:33.923495,246
2021-12-23 15:19:33.923504,253
2021-12-23 15:19:33.923514,272
2021-12-23 15:19:34.238156,282
2021-12-23 15:19:34.238185,260
2021-12-23 15:19:34.238197,196
2021-12-23 15:19:34.238207,76
2021-12-23 15:19:34.238217,-19
2021-12-23 15:19:34.238226,-66
2021-12-23 15:19:34.238236,-124
2021-12-23 15:19:34.238246,-174
2021-12-23 15:19:34.238256,-205
2021-12-23 15:19:34.238266,-248
2021-12-23 15:19:34.238276,-270
2021-12-23 15:19:34.238286,-246
2021-12-23 15:19:34.238295,-224
2021-12-23 15:19:34.238305,-217
2021-12-23 15:19:34.238315,-215
2021-12-23 15:19:34.238324,-220
2021-12-23 15:19:34.238334,-205
2021-12-23 15:19:34.238344,-174
2021-12-23 15:19:34.238353,-155
2021-12-23 15:19:34.238363,-145
2021-12-23 15:19:34.238373,-138
2021-12-23 15:19:34.238383,-145
2021-12-23 15:19:34.238393,-145
2021-12-23 15:19:34.238402,-138
2021-12-23 15:19:34.238412,-136
2021-12-23 15:19:34.238422,-129
2021-12-23 15:19:34.238431,-129
2021-12-23 15:19:34.238441,-129
2021-12-23 15:19:34.238451,-110
2021-12-23 15:19:34.238460,-76
2021-12-23 15:19:34.418198,-59
2021-12-23 15:19:34.418219,-62
2021-12-23 15:19:34.418227,-59
2021-12-23 15:19:34.418234,-64
2021-12-23 15:19:34.418240,-66
2021-12-23 15:19:34.418247,-45
2021-12-23 15:19:34.418253,-28
2021-12-23 15:19:34.418260,-38
2021-12-23 15:19:34.418266,-50
2021-12-23 15:19:34.418272,-43
2021-12-23 15:19:34.418279,-26
2021-12-23 15:19:34.418285,-23
2021-12-23 15:19:34.418291,-26
2021-12-23 15:19:34.418298,-28
2021-12-23 15:19:34.418304,-47
2021-12-23 15:19:34.418310,-55
2021-12-23 15:19:34.418317,-28
2021-12-23 15:19:34.418323,-11
2021-12-23 15:19:34.418329,-19
2021-12-23 15:19:34.418336,-23
2021-12-23 15:19:34.418342,-38
2021-12-23 15:19:34.418349,-55
2021-12-23 15:19:34.418355,-43
2021-12-23 15:19:34.418361,-11
2021-12-23 15:19:34.418368,-2
2021-12-23 15:19:34.418374,-21
2021-12-23 15:19:34.418380,-38
2021-12-23 15:19:34.418387,-26
2021-12-23 15:19:34.418393,-9
2021-12-23 15:19:34.418399,-31
2021-12-23 15:19:34.686845,-64
2021-12-23 15:19:34.686865,-66
2021-12-23 15:19:34.686873,-64
2021-12-23 15:19:34.686887,-52
2021-12-23 15:19:34.686894,-11
2021-12-23 15:19:34.686900,21
2021-12-23 15:19:34.686906,21
2021-12-23 15:19:34.686913,-7
2021-12-23 15:19:34.686919,-38
2021-12-23 15:19:34.686964,-55
2021-12-23 15:19:34.686977,-69
2021-12-23 15:19:34.686984,-69
2021-12-23 15:19:34.686991,-59
2021-12-23 15:19:34.686997,-74
2021-12-23 15:19:34.687003,-100
2021-12-23 15:19:34.687010,-88
2021-12-23 15:19:34.687016,-55
2021-12-23 15:19:34.687022,-43
2021-12-23 15:19:34.687029,-45
2021-12-23 15:19:34.687035,-71
2021-12-23 15:19:34.687041,-86
2021-12-23 15:19:34.687047,100
2021-12-23 15:19:34.687054,545
2021-12-23 15:19:34.687060,861
2021-12-23 15:19:34.687066,744
2021-12-23 15:19:34.687073,184
2021-12-23 15:19:34.687079,-342
2021-12-23 15:19:34.687085,-229
2021-12-23 15:19:34.687092,33
2021-12-23 15:19:34.687098,-47
2021-12-23 15:19:34.912738,-90
2021-12-23 15:19:34.912768,-26
2021-12-23 15:19:34.912780,-52
2021-12-23 15:19:34.912789,-78
2021-12-23 15:19:34.912799,-45
2021-12-23 15:19:34.912809,-33
2021-12-23 15:19:34.912818,-43
2021-12-23 15:19:34.912828,-40
2021-12-23 15:19:34.912918,-23
2021-12-23 15:19:34.912929,-4
2021-12-23 15:19:34.912939,23
2021-12-23 15:19:34.912949,52
2021-12-23 15:19:34.912958,52
2021-12-23 15:19:34.912968,50
2021-12-23 15:19:34.912978,90
2021-12-23 15:19:34.912987,136
2021-12-23 15:19:34.912997,165
2021-12-23 15:19:34.913007,200
2021-12-23 15:19:34.913016,229
2021-12-23 15:19:34.913026,236
2021-12-23 15:19:34.913036,260
2021-12-23 15:19:34.913045,270
2021-12-23 15:19:34.913055,256
2021-12-23 15:19:34.913065,220
2021-12-23 15:19:34.913074,143
2021-12-23 15:19:34.913084,50
2021-12-23 15:19:34.913094,-11
2021-12-23 15:19:34.913103,-52
2021-12-23 15:19:34.913113,-86
2021-12-23 15:19:34.913123,-124
2021-12-23 15:19:35.093203,-167
2021-12-23 15:19:35.093233,-167
2021-12-23 15:19:35.093245,-143
2021-12-23 15:19:35.093255,-141
2021-12-23 15:19:35.093264,-136
2021-12-23 15:19:35.093274,-165
2021-12-23 15:19:35.093284,-222
2021-12-23 15:19:35.093294,-217
2021-12-23 15:19:35.093303,-174
2021-12-23 15:19:35.093313,-165
2021-12-23 15:19:35.093323,-155
2021-12-23 15:19:35.093333,-143
2021-12-23 15:19:35.093343,-150
2021-12-23 15:19:35.093352,-138
2021-12-23 15:19:35.093362,-114
2021-12-23 15:19:35.093372,-114
2021-12-23 15:19:35.093382,-100
2021-12-23 15:19:35.093391,-83
2021-12-23 15:19:35.093401,-90
2021-12-23 15:19:35.093411,-83
2021-12-23 15:19:35.093420,-64
2021-12-23 15:19:35.093430,-55
2021-12-23 15:19:35.093440,-43
2021-12-23 15:19:35.093450,-38
2021-12-23 15:19:35.093459,-43
2021-12-23 15:19:35.093469,-26
2021-12-23 15:19:35.093479,-7
2021-12-23 15:19:35.093489,-11
2021-12-23 15:19:35.093498,-14
2021-12-23 15:19:35.093508,-7
2021-12-23 15:19:35.362784,-4
2021-12-23 15:19:35.362804,-11
2021-12-23 15:19:35.362811,-31
2021-12-23 15:19:35.362818,-33
2021-12-23 15:19:35.362824,-31
2021-12-23 15:19:35.362831,-57
2021-12-23 15:19:35.362837,-76
2021-12-23 15:19:35.362843,-50
2021-12-23 15:19:35.362849,-47
2021-12-23 15:19:35.362856,-62
2021-12-23 15:19:35.362862,-52
2021-12-23 15:19:35.362868,-59
2021-12-23 15:19:35.362874,-78
2021-12-23 15:19:35.362881,-57
2021-12-23 15:19:35.362887,-28
2021-12-23 15:19:35.362893,-33
2021-12-23 15:19:35.362900,-43
2021-12-23 15:19:35.362907,-43
2021-12-23 15:19:35.362914,-35
2021-12-23 15:19:35.362920,-16
2021-12-23 15:19:35.362926,11
2021-12-23 15:19:35.362933,28
2021-12-23 15:19:35.362939,19
2021-12-23 15:19:35.362945,7
2021-12-23 15:19:35.362952,14
2021-12-23 15:19:35.362958,21
2021-12-23 15:19:35.362964,2
2021-12-23 15:19:35.362970,-16
2021-12-23 15:19:35.362977,-23
2021-12-23 15:19:35.362983,-45
2021-12-23 15:19:35.543196,-62
2021-12-23 15:19:35.543226,-47
2021-12-23 15:19:35.543237,-40
2021-12-23 15:19:35.543247,-69
2021-12-23 15:19:35.543257,-112
2021-12-23 15:19:35.543267,-143
2021-12-23 15:19:35.543276,-157
2021-12-23 15:19:35.543286,-35
2021-12-23 15:19:35.543296,351
2021-12-23 15:19:35.543306,739
2021-12-23 15:19:35.543316,732
2021-12-23 15:19:35.543325,246
2021-12-23 15:19:35.543335,-330
2021-12-23 15:19:35.543345,-346
2021-12-23 15:19:35.543355,-45
2021-12-23 15:19:35.543364,-69
2021-12-23 15:19:35.543374,-179
2021-12-23 15:19:35.543383,-105
2021-12-23 15:19:35.543393,-52
2021-12-23 15:19:35.543403,-59
2021-12-23 15:19:35.543412,-33
2021-12-23 15:19:35.543422,-11
