Time,ECG
2021-12-27 14:22:41.492378,-233
2021-12-27 14:22:41.492393,-270
2021-12-27 14:22:41.492398,-275
2021-12-27 14:22:41.492403,-252
2021-12-27 14:22:41.492407,-236
2021-12-27 14:22:41.492412,-222
2021-12-27 14:22:41.492417,-226
2021-12-27 14:22:41.492421,-245
2021-12-27 14:22:41.492425,-233
2021-12-27 14:22:41.492430,-206
2021-12-27 14:22:41.492434,-189
2021-12-27 14:22:41.492439,-182
2021-12-27 14:22:41.492443,-187
2021-12-27 14:22:41.492447,-219
2021-12-27 14:22:41.492452,-266
2021-12-27 14:22:41.492456,-277
2021-12-27 14:22:41.492460,-238
2021-12-27 14:22:41.492465,-219
2021-12-27 14:22:41.492469,-247
2021-12-27 14:22:41.492473,-268
2021-12-27 14:22:41.492478,-259
2021-12-27 14:22:41.492482,-252
2021-12-27 14:22:41.492486,-238
2021-12-27 14:22:41.492491,-213
2021-12-27 14:22:41.492495,-196
2021-12-27 14:22:41.492499,-196
2021-12-27 14:22:41.492504,-222
2021-12-27 14:22:41.492508,-247
2021-12-27 14:22:41.492513,-224
2021-12-27 14:22:41.492517,-189
2021-12-27 14:22:41.576677,-173
2021-12-27 14:22:41.576698,-155
2021-12-27 14:22:41.576705,-152
2021-12-27 14:22:41.576712,-173
2021-12-27 14:22:41.576718,-162
2021-12-27 14:22:41.576724,-125
2021-12-27 14:22:41.576732,-108
2021-12-27 14:22:41.576738,-101
2021-12-27 14:22:41.576744,-104
2021-12-27 14:22:41.576751,-127
2021-12-27 14:22:41.576757,-118
2021-12-27 14:22:41.576763,-81
2021-12-27 14:22:41.576770,-55
2021-12-27 14:22:41.576776,-37
2021-12-27 14:22:41.576783,-39
2021-12-27 14:22:41.576789,-85
2021-12-27 14:22:41.576795,-118
2021-12-27 14:22:41.576802,-101
2021-12-27 14:22:41.576808,-83
2021-12-27 14:22:41.576815,-83
2021-12-27 14:22:41.576821,-104
2021-12-27 14:22:41.576827,-136
2021-12-27 14:22:41.576834,-122
2021-12-27 14:22:41.576840,-101
2021-12-27 14:22:41.576846,-148
2021-12-27 14:22:41.576852,-101
2021-12-27 14:22:41.576859,351
2021-12-27 14:22:41.576865,1220
2021-12-27 14:22:41.576871,2088
2021-12-27 14:22:41.576880,2106
2021-12-27 14:22:41.818863,476
2021-12-27 14:22:41.818884,-1192
2021-12-27 14:22:41.818891,-886
2021-12-27 14:22:41.818897,-203
2021-12-27 14:22:41.818903,-439
2021-12-27 14:22:41.818909,-453
2021-12-27 14:22:41.818916,-148
2021-12-27 14:22:41.818922,-141
2021-12-27 14:22:41.818928,-185
2021-12-27 14:22:41.818934,-94
2021-12-27 14:22:41.818940,-71
2021-12-27 14:22:41.818946,-78
2021-12-27 14:22:41.818952,-13
2021-12-27 14:22:41.818963,34
2021-12-27 14:22:41.818969,27
2021-12-27 14:22:41.818976,34
2021-12-27 14:22:41.818982,64
2021-12-27 14:22:41.818988,74
2021-12-27 14:22:41.818994,85
2021-12-27 14:22:41.819000,131
2021-12-27 14:22:41.819007,166
2021-12-27 14:22:41.819013,180
2021-12-27 14:22:41.819019,180
2021-12-27 14:22:41.819025,185
2021-12-27 14:22:41.819031,224
2021-12-27 14:22:41.819037,282
2021-12-27 14:22:41.819044,331
2021-12-27 14:22:41.819050,365
2021-12-27 14:22:41.819056,393
2021-12-27 14:22:41.819063,400
2021-12-27 14:22:42.064616,395
2021-12-27 14:22:42.064637,407
2021-12-27 14:22:42.064645,405
2021-12-27 14:22:42.064651,349
2021-12-27 14:22:42.064657,245
2021-12-27 14:22:42.064663,120
2021-12-27 14:22:42.064669,-9
2021-12-27 14:22:42.064676,-99
2021-12-27 14:22:42.064682,-138
2021-12-27 14:22:42.064688,-175
2021-12-27 14:22:42.064694,-201
2021-12-27 14:22:42.064700,-189
2021-12-27 14:22:42.064706,-206
2021-12-27 14:22:42.064712,-243
2021-12-27 14:22:42.064718,-226
2021-12-27 14:22:42.064724,-196
2021-12-27 14:22:42.064731,-185
2021-12-27 14:22:42.064740,-159
2021-12-27 14:22:42.064747,-148
2021-12-27 14:22:42.064753,-173
2021-12-27 14:22:42.064759,-182
2021-12-27 14:22:42.064765,-180
2021-12-27 14:22:42.064771,-196
2021-12-27 14:22:42.064777,-194
2021-12-27 14:22:42.064783,-201
2021-12-27 14:22:42.064790,-240
2021-12-27 14:22:42.064796,-250
2021-12-27 14:22:42.064802,-224
2021-12-27 14:22:42.064808,-203
2021-12-27 14:22:42.064826,-192
2021-12-27 14:22:42.259613,-185
2021-12-27 14:22:42.259643,-180
2021-12-27 14:22:42.259654,-180
2021-12-27 14:22:42.259663,-178
2021-12-27 14:22:42.259673,-159
2021-12-27 14:22:42.259682,-129
2021-12-27 14:22:42.259692,-111
2021-12-27 14:22:42.259709,-111
2021-12-27 14:22:42.259719,-152
2021-12-27 14:22:42.259728,-194
2021-12-27 14:22:42.259737,-175
2021-12-27 14:22:42.259747,-138
2021-12-27 14:22:42.259756,-125
2021-12-27 14:22:42.259766,-129
2021-12-27 14:22:42.259775,-150
2021-12-27 14:22:42.259784,-150
2021-12-27 14:22:42.259794,-111
2021-12-27 14:22:42.259803,-71
2021-12-27 14:22:42.259813,-50
2021-12-27 14:22:42.259822,-48
2021-12-27 14:22:42.259832,-81
2021-12-27 14:22:42.259841,-120
2021-12-27 14:22:42.259851,-125
2021-12-27 14:22:42.259860,-97
2021-12-27 14:22:42.259870,-69
2021-12-27 14:22:42.259879,-69
2021-12-27 14:22:42.259889,-92
2021-12-27 14:22:42.259898,-104
2021-12-27 14:22:42.259908,-83
2021-12-27 14:22:42.259919,-81
2021-12-27 14:22:42.454275,-131
2021-12-27 14:22:42.454304,-32
2021-12-27 14:22:42.454316,548
2021-12-27 14:22:42.454326,1511
2021-12-27 14:22:42.454335,2308
2021-12-27 14:22:42.454345,1923
2021-12-27 14:22:42.454354,0
2021-12-27 14:22:42.454364,-1261
2021-12-27 14:22:42.454374,-585
2021-12-27 14:22:42.454383,-85
2021-12-27 14:22:42.454392,-379
2021-12-27 14:22:42.454402,-254
2021-12-27 14:22:42.454412,4
2021-12-27 14:22:42.454421,-64
2021-12-27 14:22:42.454431,-81
2021-12-27 14:22:42.454440,-13
2021-12-27 14:22:42.454450,-50
2021-12-27 14:22:42.454459,-60
2021-12-27 14:22:42.454469,6
2021-12-27 14:22:42.454478,43
2021-12-27 14:22:42.454488,48
2021-12-27 14:22:42.454497,57
2021-12-27 14:22:42.454507,74
2021-12-27 14:22:42.454516,104
2021-12-27 14:22:42.454533,148
2021-12-27 14:22:42.454543,182
2021-12-27 14:22:42.454552,203
2021-12-27 14:22:42.454562,219
2021-12-27 14:22:42.454571,229
2021-12-27 14:22:42.454581,247
2021-12-27 14:22:42.698356,296
2021-12-27 14:22:42.698376,349
2021-12-27 14:22:42.698384,386
2021-12-27 14:22:42.698390,402
2021-12-27 14:22:42.698396,395
2021-12-27 14:22:42.698403,375
2021-12-27 14:22:42.698409,375
2021-12-27 14:22:42.698415,391
2021-12-27 14:22:42.698421,368
2021-12-27 14:22:42.698427,287
2021-12-27 14:22:42.698434,169
2021-12-27 14:22:42.698440,20
2021-12-27 14:22:42.698446,-90
2021-12-27 14:22:42.698452,-150
2021-12-27 14:22:42.698459,-240
2021-12-27 14:22:42.698465,-324
2021-12-27 14:22:42.698471,-317
2021-12-27 14:22:42.698477,-284
2021-12-27 14:22:42.698483,-282
2021-12-27 14:22:42.698490,-252
2021-12-27 14:22:42.698496,-226
2021-12-27 14:22:42.698502,-233
2021-12-27 14:22:42.698510,-224
2021-12-27 14:22:42.698516,-194
2021-12-27 14:22:42.698523,-187
2021-12-27 14:22:42.698529,-171
2021-12-27 14:22:42.698535,-150
2021-12-27 14:22:42.698541,-169
2021-12-27 14:22:42.698547,-185
2021-12-27 14:22:42.698553,-185
2021-12-27 14:22:43.039562,-226
2021-12-27 14:22:43.039592,-256
2021-12-27 14:22:43.039603,-233
2021-12-27 14:22:43.039613,-222
2021-12-27 14:22:43.039623,-226
2021-12-27 14:22:43.039632,-217
2021-12-27 14:22:43.039641,-240
2021-12-27 14:22:43.039651,-273
2021-12-27 14:22:43.039661,-250
2021-12-27 14:22:43.039670,-219
2021-12-27 14:22:43.039680,-213
2021-12-27 14:22:43.039689,-196
2021-12-27 14:22:43.039699,-201
2021-12-27 14:22:43.039708,-229
2021-12-27 14:22:43.039718,-222
2021-12-27 14:22:43.039727,-189
2021-12-27 14:22:43.039737,-178
2021-12-27 14:22:43.039746,-162
2021-12-27 14:22:43.039756,-138
2021-12-27 14:22:43.039765,-127
2021-12-27 14:22:43.039775,-120
2021-12-27 14:22:43.039784,-104
2021-12-27 14:22:43.039793,-85
2021-12-27 14:22:43.039803,-62
2021-12-27 14:22:43.039818,-48
2021-12-27 14:22:43.039828,-57
2021-12-27 14:22:43.039838,-71
2021-12-27 14:22:43.039848,-78
2021-12-27 14:22:43.039857,-74
2021-12-27 14:22:43.039867,-46
2021-12-27 14:22:43.185794,-23
2021-12-27 14:22:43.185824,-20
2021-12-27 14:22:43.185835,-43
2021-12-27 14:22:43.185844,-81
2021-12-27 14:22:43.185854,-131
2021-12-27 14:22:43.185864,-143
2021-12-27 14:22:43.185873,150
2021-12-27 14:22:43.185883,953
2021-12-27 14:22:43.185892,1935
2021-12-27 14:22:43.185902,2310
2021-12-27 14:22:43.185911,1099
2021-12-27 14:22:43.185921,-879
2021-12-27 14:22:43.185930,-1155
2021-12-27 14:22:43.185939,-226
2021-12-27 14:22:43.185949,-155
2021-12-27 14:22:43.185958,-363
2021-12-27 14:22:43.185968,-111
2021-12-27 14:22:43.185977,6
2021-12-27 14:22:43.185987,-81
2021-12-27 14:22:43.185996,-85
2021-12-27 14:22:43.186006,-101
2021-12-27 14:22:43.186015,-141
2021-12-27 14:22:43.186025,-101
2021-12-27 14:22:43.186034,-41
2021-12-27 14:22:43.186044,-20
2021-12-27 14:22:43.186053,6
2021-12-27 14:22:43.186063,27
2021-12-27 14:22:43.186072,0
2021-12-27 14:22:43.186082,-2
2021-12-27 14:22:43.186091,53
2021-12-27 14:22:43.526355,104
2021-12-27 14:22:43.526377,134
2021-12-27 14:22:43.526384,171
2021-12-27 14:22:43.526391,201
2021-12-27 14:22:43.526397,208
2021-12-27 14:22:43.526403,226
2021-12-27 14:22:43.526410,280
2021-12-27 14:22:43.526416,328
2021-12-27 14:22:43.526422,356
2021-12-27 14:22:43.526428,344
2021-12-27 14:22:43.526434,300
2021-12-27 14:22:43.526440,300
2021-12-27 14:22:43.526446,324
2021-12-27 14:22:43.526453,296
2021-12-27 14:22:43.526459,210
2021-12-27 14:22:43.526465,87
2021-12-27 14:22:43.526471,-43
2021-12-27 14:22:43.526478,-138
2021-12-27 14:22:43.526484,-175
2021-12-27 14:22:43.526490,-194
2021-12-27 14:22:43.526496,-213
2021-12-27 14:22:43.526502,-219
2021-12-27 14:22:43.526508,-215
2021-12-27 14:22:43.526514,-196
2021-12-27 14:22:43.526520,-171
2021-12-27 14:22:43.526527,-143
2021-12-27 14:22:43.526533,-125
2021-12-27 14:22:43.526539,-115
2021-12-27 14:22:43.526545,-113
2021-12-27 14:22:43.526551,-127
2021-12-27 14:22:43.623997,-136
2021-12-27 14:22:43.624018,-111
2021-12-27 14:22:43.624026,-97
2021-12-27 14:22:43.624032,-108
2021-12-27 14:22:43.624038,-118
2021-12-27 14:22:43.624045,-141
2021-12-27 14:22:43.624051,-189
2021-12-27 14:22:43.624057,-229
2021-12-27 14:22:43.624063,-245
2021-12-27 14:22:43.624070,-243
2021-12-27 14:22:43.624082,-238
2021-12-27 14:22:43.624088,-261
2021-12-27 14:22:43.624094,-282
2021-12-27 14:22:43.624101,-259
2021-12-27 14:22:43.624107,-231
2021-12-27 14:22:43.624113,-231
2021-12-27 14:22:43.624119,-217
2021-12-27 14:22:43.624126,-194
2021-12-27 14:22:43.624132,-185
2021-12-27 14:22:43.624138,-173
2021-12-27 14:22:43.624144,-155
2021-12-27 14:22:43.624151,-152
2021-12-27 14:22:43.624157,-152
2021-12-27 14:22:43.624163,-136
2021-12-27 14:22:43.624169,-145
2021-12-27 14:22:43.624176,-178
2021-12-27 14:22:43.624182,-180
2021-12-27 14:22:43.624188,-150
2021-12-27 14:22:43.624194,-122
2021-12-27 14:22:43.624202,-113
2021-12-27 14:22:43.915540,-136
2021-12-27 14:22:43.915570,-162
2021-12-27 14:22:43.915581,-162
2021-12-27 14:22:43.915591,-162
2021-12-27 14:22:43.915601,-159
2021-12-27 14:22:43.915610,-127
2021-12-27 14:22:43.915620,-122
2021-12-27 14:22:43.915629,-169
2021-12-27 14:22:43.915639,-208
2021-12-27 14:22:43.915648,-229
2021-12-27 14:22:43.915658,-275
2021-12-27 14:22:43.915667,-243
2021-12-27 14:22:43.915676,169
2021-12-27 14:22:43.915686,1053
2021-12-27 14:22:43.915696,2000
2021-12-27 14:22:43.915705,2123
2021-12-27 14:22:43.915714,546
2021-12-27 14:22:43.915724,-1245
2021-12-27 14:22:43.915733,-1018
2021-12-27 14:22:43.915743,-164
2021-12-27 14:22:43.915752,-300
2021-12-27 14:22:43.915761,-388
2021-12-27 14:22:43.915771,-108
2021-12-27 14:22:43.915780,-87
2021-12-27 14:22:43.915789,-145
2021-12-27 14:22:43.915804,-50
2021-12-27 14:22:43.915813,-30
2021-12-27 14:22:43.915823,-67
2021-12-27 14:22:43.915832,-23
2021-12-27 14:22:43.915842,34
2021-12-27 14:22:44.063329,43
2021-12-27 14:22:44.063350,62
2021-12-27 14:22:44.063357,78
2021-12-27 14:22:44.063363,74
2021-12-27 14:22:44.063369,97
2021-12-27 14:22:44.063375,150
2021-12-27 14:22:44.063381,187
2021-12-27 14:22:44.063387,217
2021-12-27 14:22:44.063393,219
2021-12-27 14:22:44.063399,196
2021-12-27 14:22:44.063406,208
2021-12-27 14:22:44.063412,245
2021-12-27 14:22:44.063418,284
2021-12-27 14:22:44.063424,328
2021-12-27 14:22:44.063430,342
2021-12-27 14:22:44.063436,303
2021-12-27 14:22:44.063442,289
2021-12-27 14:22:44.063448,321
2021-12-27 14:22:44.063454,328
2021-12-27 14:22:44.063460,287
2021-12-27 14:22:44.063466,203
2021-12-27 14:22:44.063472,67
2021-12-27 14:22:44.063478,-50
2021-12-27 14:22:44.063484,-99
2021-12-27 14:22:44.063490,-129
2021-12-27 14:22:44.063496,-150
2021-12-27 14:22:44.063503,-157
2021-12-27 14:22:44.063509,-180
2021-12-27 14:22:44.063515,-189
2021-12-27 14:22:44.063521,-159
2021-12-27 14:22:44.307264,-162
2021-12-27 14:22:44.307295,-210
2021-12-27 14:22:44.307306,-213
2021-12-27 14:22:44.307315,-196
2021-12-27 14:22:44.307325,-226
2021-12-27 14:22:44.307334,-219
2021-12-27 14:22:44.307343,-164
2021-12-27 14:22:44.307352,-157
2021-12-27 14:22:44.307362,-187
2021-12-27 14:22:44.307371,-196
2021-12-27 14:22:44.307380,-206
2021-12-27 14:22:44.307390,-231
2021-12-27 14:22:44.307399,-252
2021-12-27 14:22:44.307409,-280
2021-12-27 14:22:44.307418,-298
2021-12-27 14:22:44.307427,-296
2021-12-27 14:22:44.307444,-312
2021-12-27 14:22:44.307454,-331
2021-12-27 14:22:44.307464,-303
2021-12-27 14:22:44.307473,-268
2021-12-27 14:22:44.307482,-266
2021-12-27 14:22:44.307492,-259
2021-12-27 14:22:44.307501,-240
2021-12-27 14:22:44.307511,-233
2021-12-27 14:22:44.307520,-224
2021-12-27 14:22:44.307530,-196
2021-12-27 14:22:44.307539,-182
2021-12-27 14:22:44.307549,-180
2021-12-27 14:22:44.307558,-164
2021-12-27 14:22:44.307568,-150
2021-12-27 14:22:44.550212,-145
2021-12-27 14:22:44.550233,-129
2021-12-27 14:22:44.550239,-122
2021-12-27 14:22:44.550244,-122
2021-12-27 14:22:44.550249,-94
2021-12-27 14:22:44.550255,-92
2021-12-27 14:22:44.550260,-129
2021-12-27 14:22:44.550265,-108
2021-12-27 14:22:44.550270,-67
2021-12-27 14:22:44.550275,-87
2021-12-27 14:22:44.550280,-97
2021-12-27 14:22:44.550285,-81
2021-12-27 14:22:44.550291,-115
2021-12-27 14:22:44.550297,-152
2021-12-27 14:22:44.550302,-152
2021-12-27 14:22:44.550307,-166
2021-12-27 14:22:44.550312,-155
2021-12-27 14:22:44.550317,-118
2021-12-27 14:22:44.550322,-131
2021-12-27 14:22:44.550327,-196
2021-12-27 14:22:44.550332,-199
2021-12-27 14:22:44.550337,113
2021-12-27 14:22:44.550342,928
2021-12-27 14:22:44.550347,1944
2021-12-27 14:22:44.550352,2333
2021-12-27 14:22:44.550357,1048
2021-12-27 14:22:44.550362,-937
2021-12-27 14:22:44.550367,-1111
2021-12-27 14:22:44.550372,-178
2021-12-27 14:22:44.550377,-141
2021-12-27 14:22:44.794625,-331
2021-12-27 14:22:44.794655,-97
2021-12-27 14:22:44.794666,-34
2021-12-27 14:22:44.794676,-122
2021-12-27 14:22:44.794685,-50
2021-12-27 14:22:44.794695,4
2021-12-27 14:22:44.794704,-69
2021-12-27 14:22:44.794714,-141
2021-12-27 14:22:44.794723,-136
2021-12-27 14:22:44.794733,-104
2021-12-27 14:22:44.794742,-67
2021-12-27 14:22:44.794752,-27
2021-12-27 14:22:44.794761,4
2021-12-27 14:22:44.794776,13
2021-12-27 14:22:44.794786,2
2021-12-27 14:22:44.794795,11
2021-12-27 14:22:44.794805,34
2021-12-27 14:22:44.794814,53
2021-12-27 14:22:44.794824,97
2021-12-27 14:22:44.794833,150
2021-12-27 14:22:44.794843,175
2021-12-27 14:22:44.794852,201
2021-12-27 14:22:44.794862,247
2021-12-27 14:22:44.794871,289
2021-12-27 14:22:44.794880,314
2021-12-27 14:22:44.794890,331
2021-12-27 14:22:44.794900,328
2021-12-27 14:22:44.794909,303
2021-12-27 14:22:44.794919,268
2021-12-27 14:22:44.794928,213
2021-12-27 14:22:45.086612,122
2021-12-27 14:22:45.086652,30
2021-12-27 14:22:45.086659,-62
2021-12-27 14:22:45.086696,-152
2021-12-27 14:22:45.086729,-189
2021-12-27 14:22:45.086742,-175
2021-12-27 14:22:45.086749,-157
2021-12-27 14:22:45.086756,-143
2021-12-27 14:22:45.086762,-150
2021-12-27 14:22:45.086768,-189
2021-12-27 14:22:45.086774,-192
2021-12-27 14:22:45.086780,-141
2021-12-27 14:22:45.086786,-106
2021-12-27 14:22:45.086793,-94
2021-12-27 14:22:45.086799,-83
2021-12-27 14:22:45.086805,-120
2021-12-27 14:22:45.086811,-185
2021-12-27 14:22:45.086817,-182
2021-12-27 14:22:45.086823,-164
2021-12-27 14:22:45.086829,-192
2021-12-27 14:22:45.086835,-196
2021-12-27 14:22:45.086841,-194
2021-12-27 14:22:45.086847,-236
2021-12-27 14:22:45.086854,-247
2021-12-27 14:22:45.086860,-229
2021-12-27 14:22:45.086866,-243
2021-12-27 14:22:45.086872,-256
2021-12-27 14:22:45.086878,-245
2021-12-27 14:22:45.086884,-245
2021-12-27 14:22:45.086890,-238
2021-12-27 14:22:45.281457,-208
2021-12-27 14:22:45.281486,-180
2021-12-27 14:22:45.281497,-169
2021-12-27 14:22:45.281507,-180
2021-12-27 14:22:45.281516,-203
2021-12-27 14:22:45.281525,-213
2021-12-27 14:22:45.281535,-192
2021-12-27 14:22:45.281544,-159
2021-12-27 14:22:45.281554,-145
2021-12-27 14:22:45.281563,-141
2021-12-27 14:22:45.281573,-134
2021-12-27 14:22:45.281582,-152
2021-12-27 14:22:45.281592,-196
2021-12-27 14:22:45.281601,-187
2021-12-27 14:22:45.281610,-148
2021-12-27 14:22:45.281620,-136
2021-12-27 14:22:45.281629,-134
2021-12-27 14:22:45.281644,-145
2021-12-27 14:22:45.281654,-145
2021-12-27 14:22:45.281663,-113
2021-12-27 14:22:45.281673,-120
2021-12-27 14:22:45.281682,-171
2021-12-27 14:22:45.281692,-182
2021-12-27 14:22:45.281701,-175
2021-12-27 14:22:45.281711,-182
2021-12-27 14:22:45.281720,-159
2021-12-27 14:22:45.281730,-125
2021-12-27 14:22:45.281739,-115
2021-12-27 14:22:45.281749,-101
2021-12-27 14:22:45.281758,-92
2021-12-27 14:22:45.573801,-136
2021-12-27 14:22:45.573830,-185
2021-12-27 14:22:45.573841,-11
2021-12-27 14:22:45.573851,648
2021-12-27 14:22:45.573860,1641
2021-12-27 14:22:45.573870,2345
2021-12-27 14:22:45.573879,1648
2021-12-27 14:22:45.573888,-402
2021-12-27 14:22:45.573898,-1303
2021-12-27 14:22:45.573907,-428
2021-12-27 14:22:45.573916,-60
2021-12-27 14:22:45.573926,-338
2021-12-27 14:22:45.573935,-199
2021-12-27 14:22:45.573945,-57
2021-12-27 14:22:45.573954,-150
2021-12-27 14:22:45.573964,-125
2021-12-27 14:22:45.573973,-34
2021-12-27 14:22:45.573982,-25
2021-12-27 14:22:45.573992,-23
2021-12-27 14:22:45.574001,0
2021-12-27 14:22:45.574011,13
2021-12-27 14:22:45.574020,39
2021-12-27 14:22:45.574029,50
2021-12-27 14:22:45.574055,39
2021-12-27 14:22:45.574065,53
2021-12-27 14:22:45.574074,83
2021-12-27 14:22:45.574084,99
2021-12-27 14:22:45.574093,120
2021-12-27 14:22:45.574103,162
2021-12-27 14:22:45.574112,208
2021-12-27 14:22:45.672200,254
2021-12-27 14:22:45.672230,287
2021-12-27 14:22:45.672241,307
2021-12-27 14:22:45.672251,333
2021-12-27 14:22:45.672260,361
2021-12-27 14:22:45.672270,388
2021-12-27 14:22:45.672279,414
2021-12-27 14:22:45.672288,409
2021-12-27 14:22:45.672298,370
2021-12-27 14:22:45.672307,319
2021-12-27 14:22:45.672316,268
2021-12-27 14:22:45.672326,194
2021-12-27 14:22:45.672335,104
2021-12-27 14:22:45.672345,20
2021-12-27 14:22:45.672354,-57
2021-12-27 14:22:45.672364,-122
2021-12-27 14:22:45.672373,-150
2021-12-27 14:22:45.672383,-185
2021-12-27 14:22:45.672392,-226
2021-12-27 14:22:45.672402,-217
2021-12-27 14:22:45.672411,-208
2021-12-27 14:22:45.672421,-256
2021-12-27 14:22:45.672430,-268
2021-12-27 14:22:45.672439,-226
2021-12-27 14:22:45.672449,-219
2021-12-27 14:22:45.672458,-243
2021-12-27 14:22:45.672467,-243
2021-12-27 14:22:45.672477,-256
2021-12-27 14:22:45.672486,-277
2021-12-27 14:22:45.672501,-263
2021-12-27 14:22:46.011942,-254
2021-12-27 14:22:46.011973,-268
2021-12-27 14:22:46.011984,-282
2021-12-27 14:22:46.011994,-312
2021-12-27 14:22:46.012003,-333
2021-12-27 14:22:46.012013,-310
2021-12-27 14:22:46.012022,-275
2021-12-27 14:22:46.012032,-247
2021-12-27 14:22:46.012041,-236
2021-12-27 14:22:46.012051,-270
2021-12-27 14:22:46.012060,-296
2021-12-27 14:22:46.012070,-259
2021-12-27 14:22:46.012080,-219
2021-12-27 14:22:46.012089,-203
2021-12-27 14:22:46.012099,-187
2021-12-27 14:22:46.012108,-189
2021-12-27 14:22:46.012118,-199
2021-12-27 14:22:46.012127,-175
2021-12-27 14:22:46.012137,-143
2021-12-27 14:22:46.012146,-122
2021-12-27 14:22:46.012156,-104
2021-12-27 14:22:46.012165,-104
2021-12-27 14:22:46.012175,-108
2021-12-27 14:22:46.012184,-94
2021-12-27 14:22:46.012194,-69
2021-12-27 14:22:46.012203,-60
2021-12-27 14:22:46.012213,-74
2021-12-27 14:22:46.012222,-85
2021-12-27 14:22:46.012232,-85
2021-12-27 14:22:46.012241,-62
2021-12-27 14:22:46.207834,-34
2021-12-27 14:22:46.207941,-20
2021-12-27 14:22:46.207957,-13
2021-12-27 14:22:46.207967,-13
2021-12-27 14:22:46.207977,-37
2021-12-27 14:22:46.207987,-85
2021-12-27 14:22:46.207996,-97
2021-12-27 14:22:46.208006,-50
2021-12-27 14:22:46.208015,-16
2021-12-27 14:22:46.208025,-20
2021-12-27 14:22:46.208035,-30
2021-12-27 14:22:46.208044,-71
2021-12-27 14:22:46.208053,-166
2021-12-27 14:22:46.208063,-101
2021-12-27 14:22:46.208072,446
2021-12-27 14:22:46.208082,1403
2021-12-27 14:22:46.208091,2252
2021-12-27 14:22:46.208101,2018
2021-12-27 14:22:46.208111,173
2021-12-27 14:22:46.208120,-1240
2021-12-27 14:22:46.208130,-643
2021-12-27 14:22:46.208139,-11
2021-12-27 14:22:46.208149,-268
2021-12-27 14:22:46.208158,-250
2021-12-27 14:22:46.208168,-64
2021-12-27 14:22:46.208177,-136
2021-12-27 14:22:46.208187,-138
2021-12-27 14:22:46.208196,-41
2021-12-27 14:22:46.208206,-37
2021-12-27 14:22:46.208215,-57
2021-12-27 14:22:46.402753,-37
2021-12-27 14:22:46.402773,-18
2021-12-27 14:22:46.402779,-6
2021-12-27 14:22:46.402785,16
2021-12-27 14:22:46.402790,48
2021-12-27 14:22:46.402795,104
2021-12-27 14:22:46.402800,122
2021-12-27 14:22:46.402805,99
2021-12-27 14:22:46.402810,118
2021-12-27 14:22:46.402815,155
2021-12-27 14:22:46.402820,182
2021-12-27 14:22:46.402825,238
2021-12-27 14:22:46.402830,273
2021-12-27 14:22:46.402834,273
2021-12-27 14:22:46.402839,312
2021-12-27 14:22:46.402844,377
2021-12-27 14:22:46.402849,393
2021-12-27 14:22:46.402854,398
2021-12-27 14:22:46.402859,423
2021-12-27 14:22:46.402864,426
2021-12-27 14:22:46.402881,391
2021-12-27 14:22:46.402887,342
2021-12-27 14:22:46.402892,266
2021-12-27 14:22:46.402897,162
2021-12-27 14:22:46.402901,76
2021-12-27 14:22:46.402906,-4
2021-12-27 14:22:46.402912,-104
2021-12-27 14:22:46.402917,-182
2021-12-27 14:22:46.402922,-187
2021-12-27 14:22:46.402927,-164
2021-12-27 14:22:46.598169,-178
2021-12-27 14:22:46.598189,-213
2021-12-27 14:22:46.598196,-231
2021-12-27 14:22:46.598203,-229
2021-12-27 14:22:46.598209,-213
2021-12-27 14:22:46.598215,-222
2021-12-27 14:22:46.598221,-236
2021-12-27 14:22:46.598228,-222
2021-12-27 14:22:46.598234,-238
2021-12-27 14:22:46.598240,-268
2021-12-27 14:22:46.598246,-226
2021-12-27 14:22:46.598252,-192
2021-12-27 14:22:46.598258,-222
2021-12-27 14:22:46.598265,-213
2021-12-27 14:22:46.598271,-196
2021-12-27 14:22:46.598277,-240
2021-12-27 14:22:46.598283,-256
2021-12-27 14:22:46.598289,-215
2021-12-27 14:22:46.598296,-185
2021-12-27 14:22:46.598302,-169
2021-12-27 14:22:46.598309,-166
2021-12-27 14:22:46.598315,-185
2021-12-27 14:22:46.598321,-189
2021-12-27 14:22:46.598327,-155
2021-12-27 14:22:46.598333,-129
2021-12-27 14:22:46.598339,-118
2021-12-27 14:22:46.598346,-108
2021-12-27 14:22:46.598352,-122
2021-12-27 14:22:46.598358,-141
2021-12-27 14:22:46.598364,-150
2021-12-27 14:22:46.889987,-178
2021-12-27 14:22:46.890017,-187
2021-12-27 14:22:46.890029,-178
2021-12-27 14:22:46.890038,-233
2021-12-27 14:22:46.890048,-298
2021-12-27 14:22:46.890057,-280
2021-12-27 14:22:46.890067,-219
2021-12-27 14:22:46.890076,-192
2021-12-27 14:22:46.890086,-178
2021-12-27 14:22:46.890095,-129
2021-12-27 14:22:46.890105,-118
2021-12-27 14:22:46.890114,-159
2021-12-27 14:22:46.890123,-145
2021-12-27 14:22:46.890133,-106
2021-12-27 14:22:46.890142,-122
2021-12-27 14:22:46.890152,-148
2021-12-27 14:22:46.890161,-141
2021-12-27 14:22:46.890171,-122
2021-12-27 14:22:46.890180,-97
2021-12-27 14:22:46.890190,-67
2021-12-27 14:22:46.890199,-57
2021-12-27 14:22:46.890209,-101
2021-12-27 14:22:46.890218,-152
2021-12-27 14:22:46.890228,62
2021-12-27 14:22:46.890237,784
2021-12-27 14:22:46.890247,1771
2021-12-27 14:22:46.890256,2326
2021-12-27 14:22:46.890266,1407
2021-12-27 14:22:46.890276,-618
2021-12-27 14:22:46.890285,-1231
2021-12-27 14:22:47.134703,-314
2021-12-27 14:22:47.134724,-64
2021-12-27 14:22:47.134731,-303
2021-12-27 14:22:47.134738,-111
2021-12-27 14:22:47.134744,2
2021-12-27 14:22:47.134750,-138
2021-12-27 14:22:47.134756,-134
2021-12-27 14:22:47.134762,-25
2021-12-27 14:22:47.134768,-18
2021-12-27 14:22:47.134774,-27
2021-12-27 14:22:47.134781,16
2021-12-27 14:22:47.134787,18
2021-12-27 14:22:47.134793,-11
2021-12-27 14:22:47.134799,13
2021-12-27 14:22:47.134805,60
2021-12-27 14:22:47.134811,74
2021-12-27 14:22:47.134817,94
2021-12-27 14:22:47.134824,131
2021-12-27 14:22:47.134830,148
2021-12-27 14:22:47.134836,166
2021-12-27 14:22:47.134842,213
2021-12-27 14:22:47.134848,245
2021-12-27 14:22:47.134861,280
2021-12-27 14:22:47.134867,324
2021-12-27 14:22:47.134873,347
2021-12-27 14:22:47.134880,361
2021-12-27 14:22:47.134886,386
2021-12-27 14:22:47.134892,398
2021-12-27 14:22:47.134898,405
2021-12-27 14:22:47.134904,402
2021-12-27 14:22:47.378353,368
2021-12-27 14:22:47.378383,287
2021-12-27 14:22:47.378394,159
2021-12-27 14:22:47.378404,16
2021-12-27 14:22:47.378414,-108
2021-12-27 14:22:47.378423,-215
2021-12-27 14:22:47.378433,-287
2021-12-27 14:22:47.378443,-328
2021-12-27 14:22:47.378452,-368
2021-12-27 14:22:47.378462,-379
2021-12-27 14:22:47.378471,-361
2021-12-27 14:22:47.378481,-349
2021-12-27 14:22:47.378490,-347
2021-12-27 14:22:47.378500,-356
2021-12-27 14:22:47.378509,-372
2021-12-27 14:22:47.378519,-354
2021-12-27 14:22:47.378528,-310
2021-12-27 14:22:47.378538,-280
2021-12-27 14:22:47.378547,-256
2021-12-27 14:22:47.378557,-263
2021-12-27 14:22:47.378566,-298
2021-12-27 14:22:47.378576,-296
2021-12-27 14:22:47.378585,-261
2021-12-27 14:22:47.378595,-240
2021-12-27 14:22:47.378604,-222
2021-12-27 14:22:47.378614,-213
2021-12-27 14:22:47.378623,-224
2021-12-27 14:22:47.378633,-224
2021-12-27 14:22:47.378642,-199
2021-12-27 14:22:47.378652,-175
2021-12-27 14:22:47.621758,-155
2021-12-27 14:22:47.621777,-141
2021-12-27 14:22:47.621784,-145
2021-12-27 14:22:47.621791,-157
2021-12-27 14:22:47.621797,-141
2021-12-27 14:22:47.621803,-113
2021-12-27 14:22:47.621810,-99
2021-12-27 14:22:47.621816,-83
2021-12-27 14:22:47.621822,-81
2021-12-27 14:22:47.621828,-113
2021-12-27 14:22:47.621834,-127
2021-12-27 14:22:47.621840,-90
2021-12-27 14:22:47.621846,-57
2021-12-27 14:22:47.621853,-48
2021-12-27 14:22:47.621859,-64
2021-12-27 14:22:47.621865,-101
2021-12-27 14:22:47.621871,-111
2021-12-27 14:22:47.621877,-64
2021-12-27 14:22:47.621884,-34
2021-12-27 14:22:47.621890,-27
2021-12-27 14:22:47.621896,-30
2021-12-27 14:22:47.621902,-74
2021-12-27 14:22:47.621908,-118
2021-12-27 14:22:47.621914,-94
2021-12-27 14:22:47.621920,-71
2021-12-27 14:22:47.621927,-71
2021-12-27 14:22:47.621933,-57
2021-12-27 14:22:47.621939,-50
2021-12-27 14:22:47.621945,-60
2021-12-27 14:22:47.621952,-46
2021-12-27 14:22:47.817037,-34
2021-12-27 14:22:47.817066,-83
2021-12-27 14:22:47.817078,-94
2021-12-27 14:22:47.817087,250
2021-12-27 14:22:47.817097,1062
2021-12-27 14:22:47.817106,1993
2021-12-27 14:22:47.817115,2257
2021-12-27 14:22:47.817125,865
2021-12-27 14:22:47.817134,-1041
2021-12-27 14:22:47.817144,-1037
2021-12-27 14:22:47.817153,-148
2021-12-27 14:22:47.817162,-245
2021-12-27 14:22:47.817172,-409
2021-12-27 14:22:47.817181,-104
2021-12-27 14:22:47.817190,-43
2021-12-27 14:22:47.817199,-145
2021-12-27 14:22:47.817209,-78
2021-12-27 14:22:47.817218,-34
2021-12-27 14:22:47.817227,-53
2021-12-27 14:22:47.817237,-6
2021-12-27 14:22:47.817246,32
2021-12-27 14:22:47.817255,27
2021-12-27 14:22:47.817265,39
2021-12-27 14:22:47.817274,46
2021-12-27 14:22:47.817283,46
2021-12-27 14:22:47.817292,76
2021-12-27 14:22:47.817302,111
2021-12-27 14:22:47.817311,131
2021-12-27 14:22:47.817320,159
2021-12-27 14:22:47.817330,189
2021-12-27 14:22:48.156966,219
2021-12-27 14:22:48.156997,259
2021-12-27 14:22:48.157008,303
2021-12-27 14:22:48.157018,333
2021-12-27 14:22:48.157028,365
2021-12-27 14:22:48.157046,372
2021-12-27 14:22:48.157056,342
2021-12-27 14:22:48.157098,333
2021-12-27 14:22:48.157108,351
2021-12-27 14:22:48.157117,340
2021-12-27 14:22:48.157127,298
2021-12-27 14:22:48.157136,222
2021-12-27 14:22:48.157146,85
2021-12-27 14:22:48.157155,-55
2021-12-27 14:22:48.157165,-148
2021-12-27 14:22:48.157175,-201
2021-12-27 14:22:48.157184,-233
2021-12-27 14:22:48.157194,-273
2021-12-27 14:22:48.157203,-328
2021-12-27 14:22:48.157213,-368
2021-12-27 14:22:48.157222,-375
2021-12-27 14:22:48.157232,-370
2021-12-27 14:22:48.157241,-347
2021-12-27 14:22:48.157251,-307
2021-12-27 14:22:48.157260,-287
2021-12-27 14:22:48.157269,-275
2021-12-27 14:22:48.157279,-261
2021-12-27 14:22:48.157288,-250
2021-12-27 14:22:48.157298,-231
2021-12-27 14:22:48.157307,-203
2021-12-27 14:22:48.255713,-187
2021-12-27 14:22:48.255734,-199
2021-12-27 14:22:48.255741,-208
2021-12-27 14:22:48.255748,-201
2021-12-27 14:22:48.255754,-185
2021-12-27 14:22:48.255760,-162
2021-12-27 14:22:48.255766,-148
2021-12-27 14:22:48.255772,-171
2021-12-27 14:22:48.255778,-206
2021-12-27 14:22:48.255785,-203
2021-12-27 14:22:48.255791,-173
2021-12-27 14:22:48.255797,-150
2021-12-27 14:22:48.255803,-129
2021-12-27 14:22:48.255809,-106
2021-12-27 14:22:48.255815,-108
2021-12-27 14:22:48.255821,-150
2021-12-27 14:22:48.255827,-208
2021-12-27 14:22:48.255833,-224
2021-12-27 14:22:48.255839,-189
2021-12-27 14:22:48.255846,-166
2021-12-27 14:22:48.255852,-203
2021-12-27 14:22:48.255858,-238
2021-12-27 14:22:48.255864,-206
2021-12-27 14:22:48.255870,-159
2021-12-27 14:22:48.255876,-143
2021-12-27 14:22:48.255882,-131
2021-12-27 14:22:48.255888,-120
2021-12-27 14:22:48.255894,-115
2021-12-27 14:22:48.255901,-85
2021-12-27 14:22:48.255907,-48
2021-12-27 14:22:48.450546,-27
2021-12-27 14:22:48.450576,-16
2021-12-27 14:22:48.450587,-25
2021-12-27 14:22:48.450597,-48
2021-12-27 14:22:48.450606,-55
2021-12-27 14:22:48.450616,-41
2021-12-27 14:22:48.450625,-25
2021-12-27 14:22:48.450635,-6
2021-12-27 14:22:48.450644,-9
2021-12-27 14:22:48.450654,-55
2021-12-27 14:22:48.450663,-85
2021-12-27 14:22:48.450673,-60
2021-12-27 14:22:48.450682,-83
2021-12-27 14:22:48.450691,-104
2021-12-27 14:22:48.450701,236
2021-12-27 14:22:48.450711,1041
2021-12-27 14:22:48.450720,1940
2021-12-27 14:22:48.450730,2208
2021-12-27 14:22:48.450739,863
2021-12-27 14:22:48.450749,-1055
2021-12-27 14:22:48.450758,-1106
2021-12-27 14:22:48.450768,-201
2021-12-27 14:22:48.450777,-231
2021-12-27 14:22:48.450787,-375
2021-12-27 14:22:48.450796,-97
2021-12-27 14:22:48.450806,-46
2021-12-27 14:22:48.450815,-136
2021-12-27 14:22:48.450825,-69
2021-12-27 14:22:48.450834,-23
2021-12-27 14:22:48.450844,-41
2021-12-27 14:22:48.694608,0
2021-12-27 14:22:48.694638,48
2021-12-27 14:22:48.694649,53
2021-12-27 14:22:48.694659,60
2021-12-27 14:22:48.694668,60
2021-12-27 14:22:48.694678,41
2021-12-27 14:22:48.694687,60
2021-12-27 14:22:48.694697,111
2021-12-27 14:22:48.694706,141
2021-12-27 14:22:48.694716,157
2021-12-27 14:22:48.694725,175
2021-12-27 14:22:48.694734,178
2021-12-27 14:22:48.694744,194
2021-12-27 14:22:48.694753,252
2021-12-27 14:22:48.694763,294
2021-12-27 14:22:48.694772,305
2021-12-27 14:22:48.694782,326
2021-12-27 14:22:48.694792,338
2021-12-27 14:22:48.694801,319
2021-12-27 14:22:48.694810,289
2021-12-27 14:22:48.694820,254
2021-12-27 14:22:48.694829,178
2021-12-27 14:22:48.694839,41
2021-12-27 14:22:48.694849,-90
2021-12-27 14:22:48.694858,-187
2021-12-27 14:22:48.694867,-252
2021-12-27 14:22:48.694877,-294
2021-12-27 14:22:48.694887,-331
2021-12-27 14:22:48.694896,-358
2021-12-27 14:22:48.694906,-377
2021-12-27 14:22:48.938309,-393
2021-12-27 14:22:48.938348,-398
2021-12-27 14:22:48.938360,-393
2021-12-27 14:22:48.938370,-375
2021-12-27 14:22:48.938379,-344
2021-12-27 14:22:48.938389,-324
2021-12-27 14:22:48.938398,-342
2021-12-27 14:22:48.938407,-358
2021-12-27 14:22:48.938417,-310
2021-12-27 14:22:48.938426,-250
2021-12-27 14:22:48.938436,-240
2021-12-27 14:22:48.938445,-236
2021-12-27 14:22:48.938455,-238
2021-12-27 14:22:48.938464,-275
2021-12-27 14:22:48.938474,-282
2021-12-27 14:22:48.938483,-250
2021-12-27 14:22:48.938492,-238
2021-12-27 14:22:48.938502,-222
2021-12-27 14:22:48.938511,-206
2021-12-27 14:22:48.938520,-206
2021-12-27 14:22:48.938530,-213
2021-12-27 14:22:48.938539,-231
2021-12-27 14:22:48.938549,-238
2021-12-27 14:22:48.938558,-201
2021-12-27 14:22:48.938567,-166
2021-12-27 14:22:48.938577,-162
2021-12-27 14:22:48.938586,-164
2021-12-27 14:22:48.938596,-148
2021-12-27 14:22:48.938605,-125
2021-12-27 14:22:48.938615,-108
2021-12-27 14:22:49.230082,-90
2021-12-27 14:22:49.230102,-71
2021-12-27 14:22:49.230109,-81
2021-12-27 14:22:49.230115,-104
2021-12-27 14:22:49.230121,-92
2021-12-27 14:22:49.230128,-50
2021-12-27 14:22:49.230134,-16
2021-12-27 14:22:49.230140,-16
2021-12-27 14:22:49.230146,-53
2021-12-27 14:22:49.230152,-71
2021-12-27 14:22:49.230158,-48
2021-12-27 14:22:49.230165,-20
2021-12-27 14:22:49.230171,-6
2021-12-27 14:22:49.230177,-13
2021-12-27 14:22:49.230183,-57
2021-12-27 14:22:49.230189,-99
2021-12-27 14:22:49.230196,-81
2021-12-27 14:22:49.230202,-39
2021-12-27 14:22:49.230208,-16
2021-12-27 14:22:49.230214,2
2021-12-27 14:22:49.230221,-25
2021-12-27 14:22:49.230227,-118
2021-12-27 14:22:49.230233,-118
2021-12-27 14:22:49.230239,268
2021-12-27 14:22:49.230245,1102
2021-12-27 14:22:49.230252,2030
2021-12-27 14:22:49.230258,2238
2021-12-27 14:22:49.230264,720
2021-12-27 14:22:49.230270,-1190
2021-12-27 14:22:49.230276,-1055
2021-12-27 14:22:49.376231,-150
2021-12-27 14:22:49.376248,-252
2021-12-27 14:22:49.376254,-365
2021-12-27 14:22:49.376259,-127
2021-12-27 14:22:49.376264,-145
2021-12-27 14:22:49.376269,-201
2021-12-27 14:22:49.376274,-85
2021-12-27 14:22:49.376279,-37
2021-12-27 14:22:49.376284,-55
2021-12-27 14:22:49.376289,-48
2021-12-27 14:22:49.376295,-55
2021-12-27 14:22:49.376300,-50
2021-12-27 14:22:49.376305,9
2021-12-27 14:22:49.376310,50
2021-12-27 14:22:49.376315,67
2021-12-27 14:22:49.376320,92
2021-12-27 14:22:49.376325,115
2021-12-27 14:22:49.376330,141
2021-12-27 14:22:49.376335,187
2021-12-27 14:22:49.376341,236
2021-12-27 14:22:49.376346,268
2021-12-27 14:22:49.376351,296
2021-12-27 14:22:49.376356,317
2021-12-27 14:22:49.376361,333
2021-12-27 14:22:49.376366,358
2021-12-27 14:22:49.376371,368
2021-12-27 14:22:49.376376,354
2021-12-27 14:22:49.376381,356
2021-12-27 14:22:49.376386,361
2021-12-27 14:22:49.376391,340
2021-12-27 14:22:49.620254,303
2021-12-27 14:22:49.620275,243
2021-12-27 14:22:49.620283,148
2021-12-27 14:22:49.620289,27
2021-12-27 14:22:49.620296,-108
2021-12-27 14:22:49.620303,-229
2021-12-27 14:22:49.620309,-273
2021-12-27 14:22:49.620316,-254
2021-12-27 14:22:49.620322,-245
2021-12-27 14:22:49.620328,-254
2021-12-27 14:22:49.620334,-270
2021-12-27 14:22:49.620340,-300
2021-12-27 14:22:49.620346,-328
2021-12-27 14:22:49.620353,-317
2021-12-27 14:22:49.620359,-294
2021-12-27 14:22:49.620365,-284
2021-12-27 14:22:49.620371,-263
2021-12-27 14:22:49.620377,-240
2021-12-27 14:22:49.620384,-250
2021-12-27 14:22:49.620390,-240
2021-12-27 14:22:49.620396,-203
2021-12-27 14:22:49.620402,-203
2021-12-27 14:22:49.620409,-224
2021-12-27 14:22:49.620415,-217
2021-12-27 14:22:49.620421,-203
2021-12-27 14:22:49.620427,-185
2021-12-27 14:22:49.620433,-178
2021-12-27 14:22:49.620439,-210
2021-12-27 14:22:49.620446,-222
2021-12-27 14:22:49.620452,-185
2021-12-27 14:22:49.864391,-169
2021-12-27 14:22:49.864420,-185
2021-12-27 14:22:49.864432,-201
2021-12-27 14:22:49.864442,-226
2021-12-27 14:22:49.864451,-213
2021-12-27 14:22:49.864461,-162
2021-12-27 14:22:49.864470,-169
2021-12-27 14:22:49.864479,-208
2021-12-27 14:22:49.864489,-201
2021-12-27 14:22:49.864498,-169
2021-12-27 14:22:49.864508,-150
2021-12-27 14:22:49.864525,-129
2021-12-27 14:22:49.864535,-115
2021-12-27 14:22:49.864545,-120
2021-12-27 14:22:49.864554,-127
2021-12-27 14:22:49.864564,-111
2021-12-27 14:22:49.864573,-83
2021-12-27 14:22:49.864583,-67
2021-12-27 14:22:49.864592,-55
2021-12-27 14:22:49.864601,-53
2021-12-27 14:22:49.864611,-71
2021-12-27 14:22:49.864620,-81
2021-12-27 14:22:49.864630,-53
2021-12-27 14:22:49.864639,-25
2021-12-27 14:22:49.864648,-4
2021-12-27 14:22:49.864658,2
2021-12-27 14:22:49.864668,-11
2021-12-27 14:22:49.864677,-46
2021-12-27 14:22:49.864687,-99
2021-12-27 14:22:49.864696,-27
2021-12-27 14:22:50.106719,497
2021-12-27 14:22:50.106749,1458
2021-12-27 14:22:50.106760,2299
2021-12-27 14:22:50.106770,1995
2021-12-27 14:22:50.106779,101
2021-12-27 14:22:50.106789,-1273
2021-12-27 14:22:50.106798,-641
2021-12-27 14:22:50.106808,-27
2021-12-27 14:22:50.106817,-314
2021-12-27 14:22:50.106826,-294
2021-12-27 14:22:50.106836,-46
2021-12-27 14:22:50.106845,-76
2021-12-27 14:22:50.106855,-85
2021-12-27 14:22:50.106864,16
2021-12-27 14:22:50.106873,11
2021-12-27 14:22:50.106883,-39
2021-12-27 14:22:50.106892,-4
2021-12-27 14:22:50.106901,50
2021-12-27 14:22:50.106911,71
2021-12-27 14:22:50.106920,104
2021-12-27 14:22:50.106930,127
2021-12-27 14:22:50.106939,118
2021-12-27 14:22:50.106948,129
2021-12-27 14:22:50.106958,173
2021-12-27 14:22:50.106967,215
2021-12-27 14:22:50.106977,254
2021-12-27 14:22:50.106986,291
2021-12-27 14:22:50.106995,300
2021-12-27 14:22:50.107005,317
2021-12-27 14:22:50.107014,368
2021-12-27 14:22:50.303137,409
2021-12-27 14:22:50.303168,407
2021-12-27 14:22:50.303179,393
2021-12-27 14:22:50.303189,375
2021-12-27 14:22:50.303198,342
2021-12-27 14:22:50.303208,335
2021-12-27 14:22:50.303217,338
2021-12-27 14:22:50.303227,289
2021-12-27 14:22:50.303236,164
2021-12-27 14:22:50.303246,-16
2021-12-27 14:22:50.303256,-178
2021-12-27 14:22:50.303265,-254
2021-12-27 14:22:50.303275,-273
2021-12-27 14:22:50.303284,-296
2021-12-27 14:22:50.303294,-324
2021-12-27 14:22:50.303304,-324
2021-12-27 14:22:50.303314,-310
2021-12-27 14:22:50.303323,-300
2021-12-27 14:22:50.303333,-273
2021-12-27 14:22:50.303343,-247
2021-12-27 14:22:50.303352,-250
2021-12-27 14:22:50.303362,-250
2021-12-27 14:22:50.303371,-252
2021-12-27 14:22:50.303381,-266
2021-12-27 14:22:50.303390,-250
2021-12-27 14:22:50.303400,-215
2021-12-27 14:22:50.303409,-201
2021-12-27 14:22:50.303419,-201
2021-12-27 14:22:50.303428,-203
2021-12-27 14:22:50.303438,-203
2021-12-27 14:22:50.595278,-196
2021-12-27 14:22:50.595345,-175
2021-12-27 14:22:50.595353,-173
2021-12-27 14:22:50.595360,-206
2021-12-27 14:22:50.595366,-229
2021-12-27 14:22:50.595372,-238
2021-12-27 14:22:50.595379,-259
2021-12-27 14:22:50.595385,-247
2021-12-27 14:22:50.595391,-215
2021-12-27 14:22:50.595397,-203
2021-12-27 14:22:50.595403,-185
2021-12-27 14:22:50.595409,-178
2021-12-27 14:22:50.595415,-203
2021-12-27 14:22:50.595422,-203
2021-12-27 14:22:50.595428,-171
2021-12-27 14:22:50.595434,-164
2021-12-27 14:22:50.595440,-155
2021-12-27 14:22:50.595446,-120
2021-12-27 14:22:50.595453,-101
2021-12-27 14:22:50.595459,-97
2021-12-27 14:22:50.595465,-71
2021-12-27 14:22:50.595471,-55
2021-12-27 14:22:50.595477,-50
2021-12-27 14:22:50.595483,-34
2021-12-27 14:22:50.595489,-27
2021-12-27 14:22:50.595496,-43
2021-12-27 14:22:50.595502,-53
2021-12-27 14:22:50.595508,-46
2021-12-27 14:22:50.595514,-30
2021-12-27 14:22:50.595520,-6
2021-12-27 14:22:50.790591,0
2021-12-27 14:22:50.790620,-11
2021-12-27 14:22:50.790631,-43
2021-12-27 14:22:50.790641,-101
2021-12-27 14:22:50.790650,-16
2021-12-27 14:22:50.790660,516
2021-12-27 14:22:50.790669,1458
2021-12-27 14:22:50.790679,2271
2021-12-27 14:22:50.790688,1930
2021-12-27 14:22:50.790697,20
2021-12-27 14:22:50.790707,-1342
2021-12-27 14:22:50.790716,-694
2021-12-27 14:22:50.790726,-60
2021-12-27 14:22:50.790735,-331
2021-12-27 14:22:50.790745,-326
2021-12-27 14:22:50.790754,-111
2021-12-27 14:22:50.790763,-141
2021-12-27 14:22:50.790773,-143
2021-12-27 14:22:50.790782,-39
2021-12-27 14:22:50.790792,-34
2021-12-27 14:22:50.790801,-90
2021-12-27 14:22:50.790810,-71
2021-12-27 14:22:50.790820,-18
2021-12-27 14:22:50.790829,9
2021-12-27 14:22:50.790839,30
2021-12-27 14:22:50.790848,69
2021-12-27 14:22:50.790858,83
2021-12-27 14:22:50.790867,81
2021-12-27 14:22:50.790876,108
2021-12-27 14:22:50.790886,162
2021-12-27 14:22:50.985562,203
2021-12-27 14:22:50.985592,245
2021-12-27 14:22:50.985603,275
2021-12-27 14:22:50.985613,280
2021-12-27 14:22:50.985622,305
2021-12-27 14:22:50.985632,368
2021-12-27 14:22:50.985641,409
2021-12-27 14:22:50.985650,393
2021-12-27 14:22:50.985664,347
2021-12-27 14:22:50.985674,303
2021-12-27 14:22:50.985683,287
2021-12-27 14:22:50.985692,284
2021-12-27 14:22:50.985702,245
2021-12-27 14:22:50.985711,155
2021-12-27 14:22:50.985721,43
2021-12-27 14:22:50.985730,-85
2021-12-27 14:22:50.985740,-194
2021-12-27 14:22:50.985749,-222
2021-12-27 14:22:50.985759,-213
2021-12-27 14:22:50.985768,-215
2021-12-27 14:22:50.985777,-208
2021-12-27 14:22:50.985787,-206
2021-12-27 14:22:50.985796,-208
2021-12-27 14:22:50.985806,-203
2021-12-27 14:22:50.985815,-189
2021-12-27 14:22:50.985824,-162
2021-12-27 14:22:50.985834,-138
2021-12-27 14:22:50.985843,-141
2021-12-27 14:22:50.985853,-150
2021-12-27 14:22:50.985862,-164
2021-12-27 14:22:51.229336,-166
2021-12-27 14:22:51.229366,-157
2021-12-27 14:22:51.229377,-173
2021-12-27 14:22:51.229387,-215
2021-12-27 14:22:51.229396,-252
2021-12-27 14:22:51.229406,-266
2021-12-27 14:22:51.229415,-240
2021-12-27 14:22:51.229425,-217
2021-12-27 14:22:51.229434,-219
2021-12-27 14:22:51.229444,-250
2021-12-27 14:22:51.229453,-298
2021-12-27 14:22:51.229463,-321
2021-12-27 14:22:51.229472,-296
2021-12-27 14:22:51.229481,-259
2021-12-27 14:22:51.229491,-238
2021-12-27 14:22:51.229500,-229
2021-12-27 14:22:51.229510,-222
2021-12-27 14:22:51.229519,-219
2021-12-27 14:22:51.229529,-231
2021-12-27 14:22:51.229538,-261
2021-12-27 14:22:51.229548,-277
2021-12-27 14:22:51.229557,-252
2021-12-27 14:22:51.229566,-231
2021-12-27 14:22:51.229576,-222
2021-12-27 14:22:51.229585,-196
2021-12-27 14:22:51.229595,-155
2021-12-27 14:22:51.229604,-131
2021-12-27 14:22:51.229614,-120
2021-12-27 14:22:51.229623,-108
2021-12-27 14:22:51.229633,-97
2021-12-27 14:22:51.473099,-92
2021-12-27 14:22:51.473119,-94
2021-12-27 14:22:51.473126,-94
2021-12-27 14:22:51.473133,-92
2021-12-27 14:22:51.473139,-78
2021-12-27 14:22:51.473146,-67
2021-12-27 14:22:51.473152,-90
2021-12-27 14:22:51.473158,-104
2021-12-27 14:22:51.473164,-104
2021-12-27 14:22:51.473171,-162
2021-12-27 14:22:51.473177,-143
2021-12-27 14:22:51.473183,303
2021-12-27 14:22:51.473189,1194
2021-12-27 14:22:51.473196,2081
2021-12-27 14:22:51.473202,2083
2021-12-27 14:22:51.473208,400
2021-12-27 14:22:51.473214,-1303
2021-12-27 14:22:51.473221,-933
2021-12-27 14:22:51.473227,-122
2021-12-27 14:22:51.473233,-312
2021-12-27 14:22:51.473239,-361
2021-12-27 14:22:51.473246,-90
2021-12-27 14:22:51.473252,-101
2021-12-27 14:22:51.473258,-138
2021-12-27 14:22:51.473264,-34
2021-12-27 14:22:51.473270,-16
2021-12-27 14:22:51.473276,-41
2021-12-27 14:22:51.473283,4
2021-12-27 14:22:51.473289,39
2021-12-27 14:22:51.473295,46
2021-12-27 14:22:51.667449,76
2021-12-27 14:22:51.667469,101
2021-12-27 14:22:51.667476,104
2021-12-27 14:22:51.667534,118
2021-12-27 14:22:51.667551,148
2021-12-27 14:22:51.667559,185
2021-12-27 14:22:51.667570,222
2021-12-27 14:22:51.667581,243
2021-12-27 14:22:51.667593,231
2021-12-27 14:22:51.667602,233
2021-12-27 14:22:51.667609,282
2021-12-27 14:22:51.667615,338
2021-12-27 14:22:51.667623,358
2021-12-27 14:22:51.667630,342
2021-12-27 14:22:51.667636,287
2021-12-27 14:22:51.667642,259
2021-12-27 14:22:51.667648,294
2021-12-27 14:22:51.667654,300
2021-12-27 14:22:51.667661,245
2021-12-27 14:22:51.667667,164
2021-12-27 14:22:51.667673,55
2021-12-27 14:22:51.667679,-62
2021-12-27 14:22:51.667685,-131
2021-12-27 14:22:51.667691,-164
2021-12-27 14:22:51.667697,-213
2021-12-27 14:22:51.667703,-268
2021-12-27 14:22:51.667709,-289
2021-12-27 14:22:51.667716,-282
2021-12-27 14:22:51.667722,-259
2021-12-27 14:22:51.667728,-215
2021-12-27 14:22:51.911797,-178
2021-12-27 14:22:51.911827,-150
2021-12-27 14:22:51.911838,-138
2021-12-27 14:22:51.911848,-180
2021-12-27 14:22:51.911858,-233
2021-12-27 14:22:51.911867,-224
2021-12-27 14:22:51.911877,-180
2021-12-27 14:22:51.911886,-155
2021-12-27 14:22:51.911896,-155
2021-12-27 14:22:51.911905,-199
2021-12-27 14:22:51.911915,-261
2021-12-27 14:22:51.911924,-261
2021-12-27 14:22:51.911934,-231
2021-12-27 14:22:51.911943,-250
2021-12-27 14:22:51.911953,-275
2021-12-27 14:22:51.911962,-284
2021-12-27 14:22:51.911972,-305
2021-12-27 14:22:51.911981,-294
2021-12-27 14:22:51.911991,-247
2021-12-27 14:22:51.912000,-224
2021-12-27 14:22:51.912010,-224
2021-12-27 14:22:51.912019,-222
2021-12-27 14:22:51.912029,-219
2021-12-27 14:22:51.912038,-208
2021-12-27 14:22:51.912047,-180
2021-12-27 14:22:51.912057,-155
2021-12-27 14:22:51.912066,-148
2021-12-27 14:22:51.912076,-148
2021-12-27 14:22:51.912085,-145
2021-12-27 14:22:51.912095,-138
2021-12-27 14:22:52.251529,-115
2021-12-27 14:22:52.251552,-94
2021-12-27 14:22:52.251560,-90
2021-12-27 14:22:52.251566,-83
2021-12-27 14:22:52.251572,-85
2021-12-27 14:22:52.251578,-101
2021-12-27 14:22:52.251584,-97
2021-12-27 14:22:52.251590,-67
2021-12-27 14:22:52.251596,-53
2021-12-27 14:22:52.251602,-55
2021-12-27 14:22:52.251609,-64
2021-12-27 14:22:52.251615,-104
2021-12-27 14:22:52.251621,-134
2021-12-27 14:22:52.251627,-104
2021-12-27 14:22:52.251633,-71
2021-12-27 14:22:52.251639,-69
2021-12-27 14:22:52.251645,-57
2021-12-27 14:22:52.251651,-62
2021-12-27 14:22:52.251658,-125
2021-12-27 14:22:52.251664,-180
2021-12-27 14:22:52.251670,-4
2021-12-27 14:22:52.251676,645
2021-12-27 14:22:52.251682,1653
2021-12-27 14:22:52.251692,2384
2021-12-27 14:22:52.251699,1704
2021-12-27 14:22:52.251705,-356
2021-12-27 14:22:52.251711,-1296
2021-12-27 14:22:52.251718,-437
2021-12-27 14:22:52.251724,-43
2021-12-27 14:22:52.251730,-314
2021-12-27 14:22:52.496252,-182
2021-12-27 14:22:52.496282,-55
2021-12-27 14:22:52.496294,-162
2021-12-27 14:22:52.496304,-131
2021-12-27 14:22:52.496313,-37
2021-12-27 14:22:52.496323,-39
2021-12-27 14:22:52.496332,-55
2021-12-27 14:22:52.496342,-48
2021-12-27 14:22:52.496351,-27
2021-12-27 14:22:52.496361,-6
2021-12-27 14:22:52.496370,16
2021-12-27 14:22:52.496380,50
2021-12-27 14:22:52.496389,69
2021-12-27 14:22:52.496399,53
2021-12-27 14:22:52.496408,62
2021-12-27 14:22:52.496418,108
2021-12-27 14:22:52.496427,148
2021-12-27 14:22:52.496437,182
2021-12-27 14:22:52.496446,233
2021-12-27 14:22:52.496456,266
2021-12-27 14:22:52.496465,266
2021-12-27 14:22:52.496475,273
2021-12-27 14:22:52.496484,310
2021-12-27 14:22:52.496493,351
2021-12-27 14:22:52.496503,372
2021-12-27 14:22:52.496512,368
2021-12-27 14:22:52.496522,354
2021-12-27 14:22:52.496606,324
2021-12-27 14:22:52.496649,270
2021-12-27 14:22:52.496659,185
2021-12-27 14:22:52.643132,92
2021-12-27 14:22:52.643162,2
2021-12-27 14:22:52.643173,-87
2021-12-27 14:22:52.643183,-157
2021-12-27 14:22:52.643193,-171
2021-12-27 14:22:52.643202,-152
2021-12-27 14:22:52.643212,-134
2021-12-27 14:22:52.643221,-125
2021-12-27 14:22:52.643231,-138
2021-12-27 14:22:52.643241,-159
2021-12-27 14:22:52.643250,-138
2021-12-27 14:22:52.643260,-87
2021-12-27 14:22:52.643269,-76
2021-12-27 14:22:52.643279,-94
2021-12-27 14:22:52.643288,-136
2021-12-27 14:22:52.643298,-185
2021-12-27 14:22:52.643307,-178
2021-12-27 14:22:52.643317,-138
2021-12-27 14:22:52.643326,-127
2021-12-27 14:22:52.643336,-141
2021-12-27 14:22:52.643345,-162
2021-12-27 14:22:52.643356,-208
2021-12-27 14:22:52.643365,-259
2021-12-27 14:22:52.643375,-252
2021-12-27 14:22:52.643384,-215
2021-12-27 14:22:52.643394,-203
2021-12-27 14:22:52.643404,-213
2021-12-27 14:22:52.643413,-236
2021-12-27 14:22:52.643423,-247
2021-12-27 14:22:52.643432,-222
2021-12-27 14:22:52.838106,-194
2021-12-27 14:22:52.838136,-178
2021-12-27 14:22:52.838147,-164
2021-12-27 14:22:52.838157,-166
2021-12-27 14:22:52.838166,-171
2021-12-27 14:22:52.838176,-150
2021-12-27 14:22:52.838185,-159
2021-12-27 14:22:52.838194,-208
2021-12-27 14:22:52.838204,-213
2021-12-27 14:22:52.838213,-206
2021-12-27 14:22:52.838223,-250
2021-12-27 14:22:52.838232,-252
2021-12-27 14:22:52.838241,-194
2021-12-27 14:22:52.838251,-171
2021-12-27 14:22:52.838260,-178
2021-12-27 14:22:52.838270,-166
2021-12-27 14:22:52.838279,-164
2021-12-27 14:22:52.838289,-171
2021-12-27 14:22:52.838298,-141
2021-12-27 14:22:52.838307,-101
2021-12-27 14:22:52.838317,-99
2021-12-27 14:22:52.838326,-99
2021-12-27 14:22:52.838336,-81
2021-12-27 14:22:52.838345,-94
2021-12-27 14:22:52.838355,-134
2021-12-27 14:22:52.838364,-129
2021-12-27 14:22:52.838374,-97
2021-12-27 14:22:52.838383,-97
2021-12-27 14:22:52.838392,-94
2021-12-27 14:22:52.838402,-76
2021-12-27 14:22:53.081843,-92
2021-12-27 14:22:53.081864,-143
2021-12-27 14:22:53.081871,-71
2021-12-27 14:22:53.081878,423
2021-12-27 14:22:53.081884,1359
2021-12-27 14:22:53.081890,2224
2021-12-27 14:22:53.081897,2002
2021-12-27 14:22:53.081903,162
2021-12-27 14:22:53.081909,-1303
2021-12-27 14:22:53.081915,-738
2021-12-27 14:22:53.081921,-62
2021-12-27 14:22:53.081928,-324
2021-12-27 14:22:53.081934,-333
2021-12-27 14:22:53.081940,-78
2021-12-27 14:22:53.081946,-106
2021-12-27 14:22:53.081952,-143
2021-12-27 14:22:53.081958,-41
2021-12-27 14:22:53.081965,-16
2021-12-27 14:22:53.081971,-39
2021-12-27 14:22:53.081977,4
2021-12-27 14:22:53.081983,46
2021-12-27 14:22:53.081989,43
2021-12-27 14:22:53.081995,64
2021-12-27 14:22:53.082001,106
2021-12-27 14:22:53.082007,115
2021-12-27 14:22:53.082014,104
2021-12-27 14:22:53.082020,99
2021-12-27 14:22:53.082026,108
2021-12-27 14:22:53.082032,143
2021-12-27 14:22:53.082038,192
2021-12-27 14:22:53.325683,226
2021-12-27 14:22:53.325706,252
2021-12-27 14:22:53.325713,280
2021-12-27 14:22:53.325719,307
2021-12-27 14:22:53.325726,335
2021-12-27 14:22:53.325732,368
2021-12-27 14:22:53.325738,377
2021-12-27 14:22:53.325744,342
2021-12-27 14:22:53.325750,305
2021-12-27 14:22:53.325756,296
2021-12-27 14:22:53.325762,261
2021-12-27 14:22:53.325769,155
2021-12-27 14:22:53.325775,-6
2021-12-27 14:22:53.325781,-150
2021-12-27 14:22:53.325787,-238
2021-12-27 14:22:53.325793,-287
2021-12-27 14:22:53.325800,-296
2021-12-27 14:22:53.325806,-273
2021-12-27 14:22:53.325812,-252
2021-12-27 14:22:53.325818,-256
2021-12-27 14:22:53.325825,-287
2021-12-27 14:22:53.325831,-294
2021-12-27 14:22:53.325837,-256
2021-12-27 14:22:53.325843,-215
2021-12-27 14:22:53.325849,-189
2021-12-27 14:22:53.325855,-178
2021-12-27 14:22:53.325862,-215
2021-12-27 14:22:53.325868,-266
2021-12-27 14:22:53.325874,-296
2021-12-27 14:22:53.325881,-303
2021-12-27 14:22:53.520654,-275
2021-12-27 14:22:53.520674,-250
2021-12-27 14:22:53.520681,-266
2021-12-27 14:22:53.520688,-289
2021-12-27 14:22:53.520694,-266
2021-12-27 14:22:53.520700,-229
2021-12-27 14:22:53.520707,-222
2021-12-27 14:22:53.520713,-210
2021-12-27 14:22:53.520719,-213
2021-12-27 14:22:53.520725,-259
2021-12-27 14:22:53.520731,-266
2021-12-27 14:22:53.520738,-210
2021-12-27 14:22:53.520744,-175
2021-12-27 14:22:53.520750,-169
2021-12-27 14:22:53.520756,-173
2021-12-27 14:22:53.520762,-206
2021-12-27 14:22:53.520768,-217
2021-12-27 14:22:53.520774,-173
2021-12-27 14:22:53.520781,-134
2021-12-27 14:22:53.520787,-122
2021-12-27 14:22:53.520793,-122
2021-12-27 14:22:53.520799,-136
2021-12-27 14:22:53.520805,-138
2021-12-27 14:22:53.520812,-104
2021-12-27 14:22:53.520818,-76
2021-12-27 14:22:53.520824,-62
2021-12-27 14:22:53.520830,-46
2021-12-27 14:22:53.520836,-57
2021-12-27 14:22:53.520842,-74
2021-12-27 14:22:53.520854,-71
2021-12-27 14:22:53.812716,-69
2021-12-27 14:22:53.812737,-60
2021-12-27 14:22:53.812743,-32
2021-12-27 14:22:53.812749,-39
2021-12-27 14:22:53.812754,-87
2021-12-27 14:22:53.812759,-111
2021-12-27 14:22:53.812764,-74
2021-12-27 14:22:53.812769,-46
2021-12-27 14:22:53.812773,-64
2021-12-27 14:22:53.812778,-81
2021-12-27 14:22:53.812783,-87
2021-12-27 14:22:53.812788,-101
2021-12-27 14:22:53.812793,-81
2021-12-27 14:22:53.812798,-39
2021-12-27 14:22:53.812803,-32
2021-12-27 14:22:53.812808,-92
2021-12-27 14:22:53.812813,-136
2021-12-27 14:22:53.812818,99
2021-12-27 14:22:53.812823,835
2021-12-27 14:22:53.812828,1838
2021-12-27 14:22:53.812833,2340
2021-12-27 14:22:53.812838,1213
2021-12-27 14:22:53.812843,-831
2021-12-27 14:22:53.812848,-1194
2021-12-27 14:22:53.812853,-252
2021-12-27 14:22:53.812858,-134
2021-12-27 14:22:53.812863,-342
2021-12-27 14:22:53.812868,-104
2021-12-27 14:22:53.812872,-2
2021-12-27 14:22:53.812877,-97
2021-12-27 14:22:54.007534,-50
2021-12-27 14:22:54.007556,13
2021-12-27 14:22:54.007567,-27
2021-12-27 14:22:54.007575,-41
2021-12-27 14:22:54.007584,9
2021-12-27 14:22:54.007592,37
2021-12-27 14:22:54.007601,43
2021-12-27 14:22:54.007610,76
2021-12-27 14:22:54.007615,115
2021-12-27 14:22:54.007620,129
2021-12-27 14:22:54.007625,150
2021-12-27 14:22:54.007630,180
2021-12-27 14:22:54.007635,175
2021-12-27 14:22:54.007640,178
2021-12-27 14:22:54.007645,224
2021-12-27 14:22:54.007650,263
2021-12-27 14:22:54.007654,289
2021-12-27 14:22:54.007659,333
2021-12-27 14:22:54.007664,351
2021-12-27 14:22:54.007669,338
2021-12-27 14:22:54.007674,351
2021-12-27 14:22:54.007679,372
2021-12-27 14:22:54.007684,377
2021-12-27 14:22:54.007688,379
2021-12-27 14:22:54.007693,347
2021-12-27 14:22:54.007698,245
2021-12-27 14:22:54.007703,111
2021-12-27 14:22:54.007708,6
2021-12-27 14:22:54.007713,-64
2021-12-27 14:22:54.007718,-120
2021-12-27 14:22:54.348102,-175
2021-12-27 14:22:54.348132,-231
2021-12-27 14:22:54.348143,-263
2021-12-27 14:22:54.348153,-298
2021-12-27 14:22:54.348162,-340
2021-12-27 14:22:54.348172,-321
2021-12-27 14:22:54.348181,-275
2021-12-27 14:22:54.348191,-291
2021-12-27 14:22:54.348200,-326
2021-12-27 14:22:54.348210,-296
2021-12-27 14:22:54.348219,-252
2021-12-27 14:22:54.348229,-233
2021-12-27 14:22:54.348238,-208
2021-12-27 14:22:54.348247,-201
2021-12-27 14:22:54.348257,-245
2021-12-27 14:22:54.348266,-261
2021-12-27 14:22:54.348276,-222
2021-12-27 14:22:54.348285,-196
2021-12-27 14:22:54.348295,-196
2021-12-27 14:22:54.348304,-185
2021-12-27 14:22:54.348313,-180
2021-12-27 14:22:54.348323,-201
2021-12-27 14:22:54.348332,-233
2021-12-27 14:22:54.348342,-252
2021-12-27 14:22:54.348351,-229
2021-12-27 14:22:54.348360,-199
2021-12-27 14:22:54.348370,-199
2021-12-27 14:22:54.348379,-199
2021-12-27 14:22:54.348389,-171
2021-12-27 14:22:54.348398,-138
2021-12-27 14:22:54.495677,-111
2021-12-27 14:22:54.495707,-87
2021-12-27 14:22:54.495718,-92
2021-12-27 14:22:54.495728,-106
2021-12-27 14:22:54.495737,-99
2021-12-27 14:22:54.495747,-94
2021-12-27 14:22:54.495756,-120
2021-12-27 14:22:54.495766,-108
2021-12-27 14:22:54.495775,-83
2021-12-27 14:22:54.495785,-122
2021-12-27 14:22:54.495794,-162
2021-12-27 14:22:54.495804,-129
2021-12-27 14:22:54.495813,-81
2021-12-27 14:22:54.495822,-46
2021-12-27 14:22:54.495832,-20
2021-12-27 14:22:54.495841,-32
2021-12-27 14:22:54.495851,-55
2021-12-27 14:22:54.495860,-32
2021-12-27 14:22:54.495870,-4
2021-12-27 14:22:54.495879,-2
2021-12-27 14:22:54.495889,-6
2021-12-27 14:22:54.495898,-53
2021-12-27 14:22:54.495908,-115
2021-12-27 14:22:54.495917,-83
2021-12-27 14:22:54.495926,-11
2021-12-27 14:22:54.495936,-2
2021-12-27 14:22:54.495946,-2
2021-12-27 14:22:54.495955,-27
2021-12-27 14:22:54.495964,-108
2021-12-27 14:22:54.495974,18
2021-12-27 14:22:54.689949,699
2021-12-27 14:22:54.689965,1731
2021-12-27 14:22:54.689971,2433
2021-12-27 14:22:54.689976,1759
2021-12-27 14:22:54.689981,-298
2021-12-27 14:22:54.689987,-1310
2021-12-27 14:22:54.689991,-483
2021-12-27 14:22:54.689996,-67
2021-12-27 14:22:54.690001,-372
2021-12-27 14:22:54.690006,-245
2021-12-27 14:22:54.690011,-46
2021-12-27 14:22:54.690016,-157
2021-12-27 14:22:54.690021,-157
2021-12-27 14:22:54.690026,-20
2021-12-27 14:22:54.690031,-4
2021-12-27 14:22:54.690036,-32
2021-12-27 14:22:54.690041,4
2021-12-27 14:22:54.690046,6
2021-12-27 14:22:54.690051,-18
2021-12-27 14:22:54.690056,30
2021-12-27 14:22:54.690061,85
2021-12-27 14:22:54.690066,85
2021-12-27 14:22:54.690071,106
2021-12-27 14:22:54.690076,143
2021-12-27 14:22:54.690081,157
2021-12-27 14:22:54.690086,189
2021-12-27 14:22:54.690090,243
2021-12-27 14:22:54.690095,261
2021-12-27 14:22:54.690101,252
2021-12-27 14:22:54.690105,243
2021-12-27 14:22:54.934556,254
2021-12-27 14:22:54.934576,268
2021-12-27 14:22:54.934584,270
2021-12-27 14:22:54.934590,270
2021-12-27 14:22:54.934596,282
2021-12-27 14:22:54.934602,284
2021-12-27 14:22:54.934609,219
2021-12-27 14:22:54.934615,104
2021-12-27 14:22:54.934621,-4
2021-12-27 14:22:54.934627,-125
2021-12-27 14:22:54.934634,-277
2021-12-27 14:22:54.934640,-372
2021-12-27 14:22:54.934646,-412
2021-12-27 14:22:54.934652,-467
2021-12-27 14:22:54.934658,-488
2021-12-27 14:22:54.934664,-456
2021-12-27 14:22:54.934671,-421
2021-12-27 14:22:54.934677,-386
2021-12-27 14:22:54.934683,-354
2021-12-27 14:22:54.934689,-338
2021-12-27 14:22:54.934696,-312
2021-12-27 14:22:54.934702,-277
2021-12-27 14:22:54.934708,-259
2021-12-27 14:22:54.934714,-236
2021-12-27 14:22:54.934720,-203
2021-12-27 14:22:54.934726,-189
2021-12-27 14:22:54.934732,-192
2021-12-27 14:22:54.934739,-185
2021-12-27 14:22:54.934745,-164
2021-12-27 14:22:54.934751,-143
2021-12-27 14:22:55.129411,-122
2021-12-27 14:22:55.129441,-113
2021-12-27 14:22:55.129452,-129
2021-12-27 14:22:55.129462,-138
2021-12-27 14:22:55.129471,-125
2021-12-27 14:22:55.129481,-92
2021-12-27 14:22:55.129490,-76
2021-12-27 14:22:55.129499,-87
2021-12-27 14:22:55.129509,-122
2021-12-27 14:22:55.129518,-143
2021-12-27 14:22:55.129528,-120
2021-12-27 14:22:55.129537,-97
2021-12-27 14:22:55.129547,-115
2021-12-27 14:22:55.129556,-136
2021-12-27 14:22:55.129566,-152
2021-12-27 14:22:55.129575,-173
2021-12-27 14:22:55.129584,-150
2021-12-27 14:22:55.129594,-111
2021-12-27 14:22:55.129603,-97
2021-12-27 14:22:55.129613,-81
2021-12-27 14:22:55.129622,-76
2021-12-27 14:22:55.129632,-94
2021-12-27 14:22:55.129641,-87
2021-12-27 14:22:55.129651,-43
2021-12-27 14:22:55.129660,-6
2021-12-27 14:22:55.129669,13
2021-12-27 14:22:55.129679,23
2021-12-27 14:22:55.129688,6
2021-12-27 14:22:55.129702,-2
2021-12-27 14:22:55.129712,18
2021-12-27 14:22:55.373201,34
2021-12-27 14:22:55.373231,27
2021-12-27 14:22:55.373242,16
2021-12-27 14:22:55.373252,-18
2021-12-27 14:22:55.373262,-87
2021-12-27 14:22:55.373271,-131
2021-12-27 14:22:55.373281,-115
2021-12-27 14:22:55.373291,-104
2021-12-27 14:22:55.373300,-155
2021-12-27 14:22:55.373309,-127
2021-12-27 14:22:55.373319,342
2021-12-27 14:22:55.373328,1298
2021-12-27 14:22:55.373338,2185
2021-12-27 14:22:55.373347,1998
2021-12-27 14:22:55.373357,162
2021-12-27 14:22:55.373366,-1377
2021-12-27 14:22:55.373376,-845
2021-12-27 14:22:55.373385,-122
2021-12-27 14:22:55.373395,-338
2021-12-27 14:22:55.373404,-310
2021-12-27 14:22:55.373414,-46
2021-12-27 14:22:55.373423,-101
2021-12-27 14:22:55.373433,-152
2021-12-27 14:22:55.373442,-48
2021-12-27 14:22:55.373452,-9
2021-12-27 14:22:55.373461,-11
2021-12-27 14:22:55.373471,32
2021-12-27 14:22:55.373480,57
2021-12-27 14:22:55.373490,53
2021-12-27 14:22:55.373499,60
2021-12-27 14:22:55.616673,87
2021-12-27 14:22:55.616695,122
2021-12-27 14:22:55.616703,157
2021-12-27 14:22:55.616709,173
2021-12-27 14:22:55.616715,178
2021-12-27 14:22:55.616722,171
2021-12-27 14:22:55.616728,182
2021-12-27 14:22:55.616734,240
2021-12-27 14:22:55.616740,294
2021-12-27 14:22:55.616746,312
2021-12-27 14:22:55.616752,321
2021-12-27 14:22:55.616758,300
2021-12-27 14:22:55.616764,273
2021-12-27 14:22:55.616770,298
2021-12-27 14:22:55.616777,328
2021-12-27 14:22:55.616783,298
2021-12-27 14:22:55.616789,226
2021-12-27 14:22:55.616795,125
2021-12-27 14:22:55.616801,16
2021-12-27 14:22:55.616807,-94
2021-12-27 14:22:55.616814,-210
2021-12-27 14:22:55.616820,-300
2021-12-27 14:22:55.616826,-347
2021-12-27 14:22:55.616832,-365
2021-12-27 14:22:55.616838,-370
2021-12-27 14:22:55.616844,-361
2021-12-27 14:22:55.616850,-340
2021-12-27 14:22:55.616857,-321
2021-12-27 14:22:55.616863,-294
2021-12-27 14:22:55.616869,-256
2021-12-27 14:22:55.909480,-240
2021-12-27 14:22:55.909509,-236
2021-12-27 14:22:55.909521,-215
2021-12-27 14:22:55.909530,-194
2021-12-27 14:22:55.909540,-185
2021-12-27 14:22:55.909549,-164
2021-12-27 14:22:55.909559,-157
2021-12-27 14:22:55.909568,-192
2021-12-27 14:22:55.909577,-208
2021-12-27 14:22:55.909587,-210
2021-12-27 14:22:55.909596,-252
2021-12-27 14:22:55.909606,-270
2021-12-27 14:22:55.909615,-236
2021-12-27 14:22:55.909624,-247
2021-12-27 14:22:55.909634,-277
2021-12-27 14:22:55.909643,-250
2021-12-27 14:22:55.909653,-217
2021-12-27 14:22:55.909662,-215
2021-12-27 14:22:55.909672,-226
2021-12-27 14:22:55.909681,-238
2021-12-27 14:22:55.909690,-231
2021-12-27 14:22:55.909700,-210
2021-12-27 14:22:55.909709,-187
2021-12-27 14:22:55.909719,-159
2021-12-27 14:22:55.909728,-131
2021-12-27 14:22:55.909738,-120
2021-12-27 14:22:55.909747,-127
2021-12-27 14:22:55.909756,-125
2021-12-27 14:22:55.909766,-97
2021-12-27 14:22:55.909775,-71
2021-12-27 14:22:56.104400,-55
2021-12-27 14:22:56.104431,-46
2021-12-27 14:22:56.104442,-53
2021-12-27 14:22:56.104452,-64
2021-12-27 14:22:56.104461,-39
2021-12-27 14:22:56.104471,4
2021-12-27 14:22:56.104480,27
2021-12-27 14:22:56.104490,41
2021-12-27 14:22:56.104499,16
2021-12-27 14:22:56.104508,-43
2021-12-27 14:22:56.104518,-48
2021-12-27 14:22:56.104527,-13
2021-12-27 14:22:56.104537,-11
2021-12-27 14:22:56.104546,-6
2021-12-27 14:22:56.104556,-2
2021-12-27 14:22:56.104565,-34
2021-12-27 14:22:56.104575,-41
2021-12-27 14:22:56.104584,-2
2021-12-27 14:22:56.104593,-9
2021-12-27 14:22:56.104603,-83
2021-12-27 14:22:56.104612,-30
2021-12-27 14:22:56.104622,481
2021-12-27 14:22:56.104631,1440
2021-12-27 14:22:56.104641,2268
2021-12-27 14:22:56.104650,1900
2021-12-27 14:22:56.104660,-20
2021-12-27 14:22:56.104669,-1303
2021-12-27 14:22:56.104679,-639
2021-12-27 14:22:56.104688,-76
2021-12-27 14:22:56.104697,-326
2021-12-27 14:22:56.346826,-229
2021-12-27 14:22:56.346847,11
2021-12-27 14:22:56.346854,-62
2021-12-27 14:22:56.346861,-113
2021-12-27 14:22:56.346867,-57
2021-12-27 14:22:56.346873,-55
2021-12-27 14:22:56.346879,-41
2021-12-27 14:22:56.346885,13
2021-12-27 14:22:56.346891,39
2021-12-27 14:22:56.346898,39
2021-12-27 14:22:56.346904,57
2021-12-27 14:22:56.346910,87
2021-12-27 14:22:56.346916,115
2021-12-27 14:22:56.346922,145
2021-12-27 14:22:56.346928,169
2021-12-27 14:22:56.346934,143
2021-12-27 14:22:56.346940,81
2021-12-27 14:22:56.346946,83
2021-12-27 14:22:56.346952,155
2021-12-27 14:22:56.346958,206
2021-12-27 14:22:56.346965,236
2021-12-27 14:22:56.346971,263
2021-12-27 14:22:56.346977,252
2021-12-27 14:22:56.346983,208
2021-12-27 14:22:56.346989,210
2021-12-27 14:22:56.346995,250
2021-12-27 14:22:56.347001,256
2021-12-27 14:22:56.347007,229
2021-12-27 14:22:56.347013,166
2021-12-27 14:22:56.347019,50
2021-12-27 14:22:56.542870,-71
2021-12-27 14:22:56.542892,-164
2021-12-27 14:22:56.542900,-256
2021-12-27 14:22:56.542906,-333
2021-12-27 14:22:56.542912,-356
2021-12-27 14:22:56.542918,-375
2021-12-27 14:22:56.542925,-402
2021-12-27 14:22:56.542931,-388
2021-12-27 14:22:56.542937,-349
2021-12-27 14:22:56.542943,-326
2021-12-27 14:22:56.542949,-303
2021-12-27 14:22:56.542955,-291
2021-12-27 14:22:56.542961,-312
2021-12-27 14:22:56.542967,-305
2021-12-27 14:22:56.542973,-266
2021-12-27 14:22:56.542979,-247
2021-12-27 14:22:56.542985,-229
2021-12-27 14:22:56.542992,-206
2021-12-27 14:22:56.542998,-208
2021-12-27 14:22:56.543004,-201
2021-12-27 14:22:56.543010,-173
2021-12-27 14:22:56.543016,-164
2021-12-27 14:22:56.543022,-166
2021-12-27 14:22:56.543028,-159
2021-12-27 14:22:56.543034,-162
2021-12-27 14:22:56.543040,-173
2021-12-27 14:22:56.543046,-157
2021-12-27 14:22:56.543052,-143
2021-12-27 14:22:56.543058,-131
2021-12-27 14:22:56.543064,-104
2021-12-27 14:22:56.786456,-92
2021-12-27 14:22:56.786475,-104
2021-12-27 14:22:56.786482,-106
2021-12-27 14:22:56.786490,-99
2021-12-27 14:22:56.786497,-83
2021-12-27 14:22:56.786503,-55
2021-12-27 14:22:56.786509,-46
2021-12-27 14:22:56.786515,-74
2021-12-27 14:22:56.786521,-101
2021-12-27 14:22:56.786527,-92
2021-12-27 14:22:56.786533,-67
2021-12-27 14:22:56.786539,-48
2021-12-27 14:22:56.786545,-34
2021-12-27 14:22:56.786552,-55
2021-12-27 14:22:56.786558,-97
2021-12-27 14:22:56.786564,-83
2021-12-27 14:22:56.786570,-32
2021-12-27 14:22:56.786576,-6
2021-12-27 14:22:56.786582,4
2021-12-27 14:22:56.786589,13
2021-12-27 14:22:56.786595,-27
2021-12-27 14:22:56.786601,-92
2021-12-27 14:22:56.786607,-94
2021-12-27 14:22:56.786613,-67
2021-12-27 14:22:56.786619,-50
2021-12-27 14:22:56.786625,-32
2021-12-27 14:22:56.786631,-48
2021-12-27 14:22:56.786637,-85
2021-12-27 14:22:56.786643,-64
2021-12-27 14:22:56.786650,-37
2021-12-27 14:22:56.982134,-83
2021-12-27 14:22:56.982164,-50
2021-12-27 14:22:56.982176,384
2021-12-27 14:22:56.982186,1245
2021-12-27 14:22:56.982195,2136
2021-12-27 14:22:56.982204,2192
2021-12-27 14:22:56.982214,571
2021-12-27 14:22:56.982223,-1127
2021-12-27 14:22:56.982233,-817
2021-12-27 14:22:56.982242,-69
2021-12-27 14:22:56.982252,-266
2021-12-27 14:22:56.982261,-284
2021-12-27 14:22:56.982271,-2
2021-12-27 14:22:56.982280,-13
2021-12-27 14:22:56.982290,-76
2021-12-27 14:22:56.982299,-30
2021-12-27 14:22:56.982309,-39
2021-12-27 14:22:56.982318,-32
2021-12-27 14:22:56.982327,32
2021-12-27 14:22:56.982337,62
2021-12-27 14:22:56.982346,62
2021-12-27 14:22:56.982356,62
2021-12-27 14:22:56.982365,64
2021-12-27 14:22:56.982379,62
2021-12-27 14:22:56.982389,69
2021-12-27 14:22:56.982399,122
2021-12-27 14:22:56.982408,178
2021-12-27 14:22:56.982417,180
2021-12-27 14:22:56.982427,169
2021-12-27 14:22:56.982436,187
2021-12-27 14:22:57.225987,233
2021-12-27 14:22:57.226008,277
2021-12-27 14:22:57.226016,307
2021-12-27 14:22:57.226022,340
2021-12-27 14:22:57.226028,349
2021-12-27 14:22:57.226035,328
2021-12-27 14:22:57.226041,333
2021-12-27 14:22:57.226047,344
2021-12-27 14:22:57.226053,291
2021-12-27 14:22:57.226059,192
2021-12-27 14:22:57.226066,90
2021-12-27 14:22:57.226072,-13
2021-12-27 14:22:57.226078,-115
2021-12-27 14:22:57.226084,-217
2021-12-27 14:22:57.226091,-312
2021-12-27 14:22:57.226097,-354
2021-12-27 14:22:57.226104,-391
2021-12-27 14:22:57.226110,-437
2021-12-27 14:22:57.226116,-384
2021-12-27 14:22:57.226122,-273
2021-12-27 14:22:57.226128,-256
2021-12-27 14:22:57.226135,-275
2021-12-27 14:22:57.226141,-236
2021-12-27 14:22:57.226147,-215
2021-12-27 14:22:57.226153,-224
2021-12-27 14:22:57.226159,-203
2021-12-27 14:22:57.226166,-210
2021-12-27 14:22:57.226172,-273
2021-12-27 14:22:57.226178,-275
2021-12-27 14:22:57.226184,-224
2021-12-27 14:22:57.468951,-238
2021-12-27 14:22:57.468970,-261
2021-12-27 14:22:57.468977,-229
2021-12-27 14:22:57.468984,-215
2021-12-27 14:22:57.468990,-217
2021-12-27 14:22:57.468996,-203
2021-12-27 14:22:57.469002,-222
2021-12-27 14:22:57.469009,-243
2021-12-27 14:22:57.469015,-210
2021-12-27 14:22:57.469021,-187
2021-12-27 14:22:57.469027,-182
2021-12-27 14:22:57.469039,-166
2021-12-27 14:22:57.469045,-173
2021-12-27 14:22:57.469051,-192
2021-12-27 14:22:57.469071,-173
2021-12-27 14:22:57.469079,-145
2021-12-27 14:22:57.469088,-134
2021-12-27 14:22:57.469096,-106
2021-12-27 14:22:57.469101,-94
2021-12-27 14:22:57.469106,-106
2021-12-27 14:22:57.469111,-90
2021-12-27 14:22:57.469116,-69
2021-12-27 14:22:57.469121,-62
2021-12-27 14:22:57.469126,-43
2021-12-27 14:22:57.469131,-25
2021-12-27 14:22:57.469136,-32
2021-12-27 14:22:57.469141,-30
2021-12-27 14:22:57.469146,-6
2021-12-27 14:22:57.469151,13
2021-12-27 14:22:57.469156,27
2021-12-27 14:22:57.663633,48
2021-12-27 14:22:57.663649,64
2021-12-27 14:22:57.663655,30
2021-12-27 14:22:57.663660,-20
2021-12-27 14:22:57.663665,-16
2021-12-27 14:22:57.663670,2
2021-12-27 14:22:57.663675,-4
2021-12-27 14:22:57.663680,-11
2021-12-27 14:22:57.663685,-32
2021-12-27 14:22:57.663690,-48
2021-12-27 14:22:57.663694,-27
2021-12-27 14:22:57.663699,-16
2021-12-27 14:22:57.663704,-67
2021-12-27 14:22:57.663709,-69
2021-12-27 14:22:57.663714,282
2021-12-27 14:22:57.663719,1113
2021-12-27 14:22:57.663724,2046
2021-12-27 14:22:57.663729,2208
2021-12-27 14:22:57.663734,692
2021-12-27 14:22:57.663739,-1085
2021-12-27 14:22:57.663743,-909
2021-12-27 14:22:57.663748,-99
2021-12-27 14:22:57.663753,-206
2021-12-27 14:22:57.663758,-268
2021-12-27 14:22:57.663763,-6
2021-12-27 14:22:57.663768,0
2021-12-27 14:22:57.663773,-71
2021-12-27 14:22:57.663778,-4
2021-12-27 14:22:57.663783,37
2021-12-27 14:22:57.663788,37
2021-12-27 14:22:57.907457,78
2021-12-27 14:22:57.907473,115
2021-12-27 14:22:57.907479,71
2021-12-27 14:22:57.907483,-25
2021-12-27 14:22:57.907487,-69
2021-12-27 14:22:57.907492,-32
2021-12-27 14:22:57.907496,9
2021-12-27 14:22:57.907500,41
2021-12-27 14:22:57.907504,81
2021-12-27 14:22:57.907509,76
2021-12-27 14:22:57.907513,64
2021-12-27 14:22:57.907517,120
2021-12-27 14:22:57.907521,187
2021-12-27 14:22:57.907526,224
2021-12-27 14:22:57.907530,263
2021-12-27 14:22:57.907534,294
2021-12-27 14:22:57.907539,296
2021-12-27 14:22:57.907543,314
2021-12-27 14:22:57.907547,347
2021-12-27 14:22:57.907551,354
2021-12-27 14:22:57.907556,314
2021-12-27 14:22:57.907560,245
2021-12-27 14:22:57.907564,155
2021-12-27 14:22:57.907568,62
2021-12-27 14:22:57.907573,-20
2021-12-27 14:22:57.907577,-113
2021-12-27 14:22:57.907582,-210
2021-12-27 14:22:57.907586,-270
2021-12-27 14:22:57.907591,-307
2021-12-27 14:22:57.907595,-338
2021-12-27 14:22:58.152088,-321
2021-12-27 14:22:58.152109,-275
2021-12-27 14:22:58.152117,-252
2021-12-27 14:22:58.152123,-261
2021-12-27 14:22:58.152129,-268
2021-12-27 14:22:58.152135,-282
2021-12-27 14:22:58.152141,-296
2021-12-27 14:22:58.152148,-289
2021-12-27 14:22:58.152154,-266
2021-12-27 14:22:58.152160,-250
2021-12-27 14:22:58.152166,-252
2021-12-27 14:22:58.152172,-266
2021-12-27 14:22:58.152179,-270
2021-12-27 14:22:58.152185,-243
2021-12-27 14:22:58.152191,-222
2021-12-27 14:22:58.152197,-215
2021-12-27 14:22:58.152203,-199
2021-12-27 14:22:58.152210,-192
2021-12-27 14:22:58.152216,-187
2021-12-27 14:22:58.152222,-157
2021-12-27 14:22:58.152228,-136
2021-12-27 14:22:58.152234,-138
2021-12-27 14:22:58.152241,-129
2021-12-27 14:22:58.152247,-120
2021-12-27 14:22:58.152253,-120
2021-12-27 14:22:58.152259,-99
2021-12-27 14:22:58.152265,-71
2021-12-27 14:22:58.152271,-71
2021-12-27 14:22:58.152277,-69
2021-12-27 14:22:58.152284,-43
2021-12-27 14:22:58.443128,-39
2021-12-27 14:22:58.443158,-43
2021-12-27 14:22:58.443169,-23
2021-12-27 14:22:58.443178,-20
2021-12-27 14:22:58.443188,-32
2021-12-27 14:22:58.443197,-13
2021-12-27 14:22:58.443207,-16
2021-12-27 14:22:58.443216,-81
2021-12-27 14:22:58.443225,-152
2021-12-27 14:22:58.443234,-180
2021-12-27 14:22:58.443244,-150
2021-12-27 14:22:58.443253,-111
2021-12-27 14:22:58.443263,-122
2021-12-27 14:22:58.443272,-162
2021-12-27 14:22:58.443281,-173
2021-12-27 14:22:58.443291,-155
2021-12-27 14:22:58.443300,-136
2021-12-27 14:22:58.443310,-101
2021-12-27 14:22:58.443319,-76
2021-12-27 14:22:58.443328,-81
2021-12-27 14:22:58.443338,-99
2021-12-27 14:22:58.443347,-145
2021-12-27 14:22:58.443356,-152
2021-12-27 14:22:58.443366,192
2021-12-27 14:22:58.443375,1044
2021-12-27 14:22:58.443385,2035
2021-12-27 14:22:58.443394,2340
2021-12-27 14:22:58.443403,967
2021-12-27 14:22:58.443413,-981
2021-12-27 14:22:58.443422,-1053
2021-12-27 14:22:58.590359,-129
2021-12-27 14:22:58.590382,-125
2021-12-27 14:22:58.590389,-303
2021-12-27 14:22:58.590395,-85
2021-12-27 14:22:58.590402,-23
2021-12-27 14:22:58.590408,-64
2021-12-27 14:22:58.590414,20
2021-12-27 14:22:58.590420,57
2021-12-27 14:22:58.590426,2
2021-12-27 14:22:58.590432,-23
2021-12-27 14:22:58.590438,-9
2021-12-27 14:22:58.590444,-9
2021-12-27 14:22:58.590450,-4
2021-12-27 14:22:58.590457,23
2021-12-27 14:22:58.590463,18
2021-12-27 14:22:58.590469,4
2021-12-27 14:22:58.590475,69
2021-12-27 14:22:58.590481,129
2021-12-27 14:22:58.590487,148
2021-12-27 14:22:58.590493,224
2021-12-27 14:22:58.590499,247
2021-12-27 14:22:58.590506,178
2021-12-27 14:22:58.590512,208
2021-12-27 14:22:58.590518,300
2021-12-27 14:22:58.590524,310
2021-12-27 14:22:58.590530,331
2021-12-27 14:22:58.590536,451
2021-12-27 14:22:58.590542,560
2021-12-27 14:22:58.590549,511
2021-12-27 14:22:58.590555,340
2021-12-27 14:22:58.834163,213
2021-12-27 14:22:58.834184,169
2021-12-27 14:22:58.834190,97
2021-12-27 14:22:58.834195,-60
2021-12-27 14:22:58.834200,-196
2021-12-27 14:22:58.834205,-250
2021-12-27 14:22:58.834210,-296
2021-12-27 14:22:58.834215,-324
2021-12-27 14:22:58.834220,-319
2021-12-27 14:22:58.834225,-368
2021-12-27 14:22:58.834230,-439
2021-12-27 14:22:58.834235,-419
2021-12-27 14:22:58.834240,-393
2021-12-27 14:22:58.834245,-465
2021-12-27 14:22:58.834250,-502
2021-12-27 14:22:58.834255,-444
2021-12-27 14:22:58.834260,-407
2021-12-27 14:22:58.834264,-407
2021-12-27 14:22:58.834269,-365
2021-12-27 14:22:58.834274,-294
2021-12-27 14:22:58.834279,-256
2021-12-27 14:22:58.834284,-250
2021-12-27 14:22:58.834289,-254
2021-12-27 14:22:58.834294,-263
2021-12-27 14:22:58.834299,-247
2021-12-27 14:22:58.834304,-213
2021-12-27 14:22:58.834309,-203
2021-12-27 14:22:58.834314,-208
2021-12-27 14:22:58.834318,-194
2021-12-27 14:22:58.834323,-182
2021-12-27 14:22:59.078210,-182
2021-12-27 14:22:59.078240,-166
2021-12-27 14:22:59.078251,-134
2021-12-27 14:22:59.078261,-131
2021-12-27 14:22:59.078270,-150
2021-12-27 14:22:59.078280,-159
2021-12-27 14:22:59.078289,-155
2021-12-27 14:22:59.078299,-131
2021-12-27 14:22:59.078308,-111
2021-12-27 14:22:59.078317,-108
2021-12-27 14:22:59.078327,-97
2021-12-27 14:22:59.078336,-90
2021-12-27 14:22:59.078346,-113
2021-12-27 14:22:59.078355,-120
2021-12-27 14:22:59.078364,-129
2021-12-27 14:22:59.078374,-145
2021-12-27 14:22:59.078383,-108
2021-12-27 14:22:59.078397,-87
2021-12-27 14:22:59.078407,-106
2021-12-27 14:22:59.078416,-76
2021-12-27 14:22:59.078426,-32
2021-12-27 14:22:59.078435,-34
2021-12-27 14:22:59.078445,-53
2021-12-27 14:22:59.078454,-55
2021-12-27 14:22:59.078463,-30
2021-12-27 14:22:59.078473,0
2021-12-27 14:22:59.078483,-27
2021-12-27 14:22:59.078492,-67
2021-12-27 14:22:59.078502,-34
2021-12-27 14:22:59.078511,20
2021-12-27 14:22:59.370838,-4
2021-12-27 14:22:59.370859,-41
2021-12-27 14:22:59.370867,215
2021-12-27 14:22:59.370873,965
2021-12-27 14:22:59.370879,1889
2021-12-27 14:22:59.370885,2236
2021-12-27 14:22:59.370891,1090
2021-12-27 14:22:59.370897,-812
2021-12-27 14:22:59.370904,-1150
2021-12-27 14:22:59.370910,-268
2021-12-27 14:22:59.370916,-143
2021-12-27 14:22:59.370922,-335
2021-12-27 14:22:59.370928,-85
2021-12-27 14:22:59.370934,-2
2021-12-27 14:22:59.370941,-145
2021-12-27 14:22:59.370947,-101
2021-12-27 14:22:59.370953,-30
2021-12-27 14:22:59.370959,-69
2021-12-27 14:22:59.370965,-46
2021-12-27 14:22:59.370971,-30
2021-12-27 14:22:59.370977,-131
2021-12-27 14:22:59.370984,-155
2021-12-27 14:22:59.370990,-39
2021-12-27 14:22:59.370996,37
2021-12-27 14:22:59.371002,43
2021-12-27 14:22:59.371008,74
2021-12-27 14:22:59.371014,118
2021-12-27 14:22:59.371020,129
2021-12-27 14:22:59.371027,150
2021-12-27 14:22:59.371033,206
2021-12-27 14:22:59.516944,245
2021-12-27 14:22:59.516973,254
2021-12-27 14:22:59.516985,280
2021-12-27 14:22:59.516995,294
2021-12-27 14:22:59.517004,275
2021-12-27 14:22:59.517013,291
2021-12-27 14:22:59.517023,342
2021-12-27 14:22:59.517032,358
2021-12-27 14:22:59.517041,333
2021-12-27 14:22:59.517051,270
2021-12-27 14:22:59.517060,155
2021-12-27 14:22:59.517069,25
2021-12-27 14:22:59.517079,-71
2021-12-27 14:22:59.517088,-134
2021-12-27 14:22:59.517098,-192
2021-12-27 14:22:59.517107,-254
2021-12-27 14:22:59.517117,-305
2021-12-27 14:22:59.517126,-331
2021-12-27 14:22:59.517135,-338
2021-12-27 14:22:59.517145,-361
2021-12-27 14:22:59.517154,-386
2021-12-27 14:22:59.517163,-398
2021-12-27 14:22:59.517173,-419
2021-12-27 14:22:59.517182,-391
2021-12-27 14:22:59.517191,-333
2021-12-27 14:22:59.517201,-326
2021-12-27 14:22:59.517210,-333
2021-12-27 14:22:59.517219,-317
2021-12-27 14:22:59.517229,-282
2021-12-27 14:22:59.517238,-252
2021-12-27 14:22:59.760839,-254
2021-12-27 14:22:59.760869,-263
2021-12-27 14:22:59.760880,-226
2021-12-27 14:22:59.760890,-219
2021-12-27 14:22:59.760900,-284
2021-12-27 14:22:59.760909,-303
2021-12-27 14:22:59.760919,-240
2021-12-27 14:22:59.760928,-210
2021-12-27 14:22:59.760937,-222
2021-12-27 14:22:59.760947,-222
2021-12-27 14:22:59.760956,-236
2021-12-27 14:22:59.760965,-245
2021-12-27 14:22:59.760974,-210
2021-12-27 14:22:59.760984,-210
2021-12-27 14:22:59.760993,-222
2021-12-27 14:22:59.761003,-159
2021-12-27 14:22:59.761012,-108
2021-12-27 14:22:59.761021,-134
2021-12-27 14:22:59.761031,-136
2021-12-27 14:22:59.761040,-104
2021-12-27 14:22:59.761050,-115
2021-12-27 14:22:59.761059,-159
2021-12-27 14:22:59.761068,-159
2021-12-27 14:22:59.761078,-138
2021-12-27 14:22:59.761087,-166
2021-12-27 14:22:59.761096,-210
2021-12-27 14:22:59.761106,-213
2021-12-27 14:22:59.761115,-173
2021-12-27 14:22:59.761125,-138
2021-12-27 14:22:59.761134,-131
2021-12-27 14:23:00.003905,-125
2021-12-27 14:23:00.003924,-92
2021-12-27 14:23:00.003932,-83
2021-12-27 14:23:00.003938,-104
2021-12-27 14:23:00.003944,-92
2021-12-27 14:23:00.003951,-71
2021-12-27 14:23:00.003957,-78
2021-12-27 14:23:00.003963,-74
2021-12-27 14:23:00.003969,-99
2021-12-27 14:23:00.003976,-169
2021-12-27 14:23:00.003982,-64
2021-12-27 14:23:00.003988,486
2021-12-27 14:23:00.003994,1354
2021-12-27 14:23:00.004000,2039
2021-12-27 14:23:00.004006,1715
2021-12-27 14:23:00.004013,18
2021-12-27 14:23:00.004019,-1215
2021-12-27 14:23:00.004025,-643
2021-12-27 14:23:00.004031,-53
2021-12-27 14:23:00.004037,-277
2021-12-27 14:23:00.004044,-240
2021-12-27 14:23:00.004050,-13
2021-12-27 14:23:00.004056,-67
2021-12-27 14:23:00.004062,-127
2021-12-27 14:23:00.004068,-64
2021-12-27 14:23:00.004075,-41
2021-12-27 14:23:00.004081,-43
2021-12-27 14:23:00.004087,-11
2021-12-27 14:23:00.004093,20
2021-12-27 14:23:00.004100,46
2021-12-27 14:23:00.248346,69
2021-12-27 14:23:00.248370,69
2021-12-27 14:23:00.248377,50
2021-12-27 14:23:00.248383,71
2021-12-27 14:23:00.248390,150
2021-12-27 14:23:00.248396,219
2021-12-27 14:23:00.248402,222
2021-12-27 14:23:00.248408,182
2021-12-27 14:23:00.248414,152
2021-12-27 14:23:00.248420,166
2021-12-27 14:23:00.248427,224
2021-12-27 14:23:00.248433,303
2021-12-27 14:23:00.248439,351
2021-12-27 14:23:00.248445,344
2021-12-27 14:23:00.248451,298
2021-12-27 14:23:00.248457,280
2021-12-27 14:23:00.248463,298
2021-12-27 14:23:00.248470,307
2021-12-27 14:23:00.248476,266
2021-12-27 14:23:00.248482,180
2021-12-27 14:23:00.248488,71
2021-12-27 14:23:00.248494,-48
2021-12-27 14:23:00.248500,-148
2021-12-27 14:23:00.248507,-210
2021-12-27 14:23:00.248513,-268
2021-12-27 14:23:00.248519,-305
2021-12-27 14:23:00.248525,-296
2021-12-27 14:23:00.248531,-300
2021-12-27 14:23:00.248538,-338
2021-12-27 14:23:00.248544,-326
2021-12-27 14:23:00.539501,-307
2021-12-27 14:23:00.539532,-377
2021-12-27 14:23:00.539544,-419
2021-12-27 14:23:00.539554,-372
2021-12-27 14:23:00.539563,-338
2021-12-27 14:23:00.539572,-321
2021-12-27 14:23:00.539582,-289
2021-12-27 14:23:00.539591,-259
2021-12-27 14:23:00.539601,-266
2021-12-27 14:23:00.539610,-321
2021-12-27 14:23:00.539619,-356
2021-12-27 14:23:00.539629,-312
2021-12-27 14:23:00.539638,-263
2021-12-27 14:23:00.539648,-250
2021-12-27 14:23:00.539658,-229
2021-12-27 14:23:00.539667,-243
2021-12-27 14:23:00.539676,-291
2021-12-27 14:23:00.539686,-275
2021-12-27 14:23:00.539695,-215
2021-12-27 14:23:00.539704,-203
2021-12-27 14:23:00.539714,-201
2021-12-27 14:23:00.539723,-173
2021-12-27 14:23:00.539733,-180
2021-12-27 14:23:00.539742,-189
2021-12-27 14:23:00.539752,-150
2021-12-27 14:23:00.539761,-122
2021-12-27 14:23:00.539771,-148
2021-12-27 14:23:00.539780,-182
2021-12-27 14:23:00.539790,-185
2021-12-27 14:23:00.539799,-145
2021-12-27 14:23:00.735031,-118
2021-12-27 14:23:00.735048,-120
2021-12-27 14:23:00.735054,-106
2021-12-27 14:23:00.735059,-87
2021-12-27 14:23:00.735064,-106
2021-12-27 14:23:00.735069,-131
2021-12-27 14:23:00.735074,-101
2021-12-27 14:23:00.735079,-67
2021-12-27 14:23:00.735084,-76
2021-12-27 14:23:00.735089,-85
2021-12-27 14:23:00.735094,-99
2021-12-27 14:23:00.735099,-134
2021-12-27 14:23:00.735104,-127
2021-12-27 14:23:00.735109,-85
2021-12-27 14:23:00.735115,-76
2021-12-27 14:23:00.735120,-71
2021-12-27 14:23:00.735125,-60
2021-12-27 14:23:00.735130,-90
2021-12-27 14:23:00.735135,-34
2021-12-27 14:23:00.735140,405
2021-12-27 14:23:00.735146,1234
2021-12-27 14:23:00.735151,1991
2021-12-27 14:23:00.735156,1903
2021-12-27 14:23:00.735161,365
2021-12-27 14:23:00.735166,-1129
2021-12-27 14:23:00.735171,-796
2021-12-27 14:23:00.735176,-90
2021-12-27 14:23:00.735181,-243
2021-12-27 14:23:00.735186,-270
2021-12-27 14:23:00.735191,-43
2021-12-27 14:23:00.930757,-69
2021-12-27 14:23:00.930787,-111
2021-12-27 14:23:00.930798,-11
2021-12-27 14:23:00.930808,20
2021-12-27 14:23:00.930818,6
2021-12-27 14:23:00.930827,46
2021-12-27 14:23:00.930836,43
2021-12-27 14:23:00.930846,-13
2021-12-27 14:23:00.930855,-16
2021-12-27 14:23:00.930865,16
2021-12-27 14:23:00.930874,64
2021-12-27 14:23:00.930884,108
2021-12-27 14:23:00.930893,108
2021-12-27 14:23:00.930902,106
2021-12-27 14:23:00.930912,138
2021-12-27 14:23:00.930921,189
2021-12-27 14:23:00.930931,231
2021-12-27 14:23:00.930940,254
2021-12-27 14:23:00.930950,263
2021-12-27 14:23:00.930960,256
2021-12-27 14:23:00.930969,233
2021-12-27 14:23:00.930978,247
2021-12-27 14:23:00.930988,294
2021-12-27 14:23:00.930997,326
2021-12-27 14:23:00.931007,338
2021-12-27 14:23:00.931016,324
2021-12-27 14:23:00.931025,277
2021-12-27 14:23:00.931035,196
2021-12-27 14:23:00.931044,97
2021-12-27 14:23:00.931054,2
2021-12-27 14:23:01.125570,-81
2021-12-27 14:23:01.125599,-171
2021-12-27 14:23:01.125610,-247
2021-12-27 14:23:01.125620,-263
2021-12-27 14:23:01.125630,-252
2021-12-27 14:23:01.125639,-238
2021-12-27 14:23:01.125649,-219
2021-12-27 14:23:01.125659,-240
2021-12-27 14:23:01.125668,-287
2021-12-27 14:23:01.125678,-275
2021-12-27 14:23:01.125687,-238
2021-12-27 14:23:01.125697,-247
2021-12-27 14:23:01.125706,-261
2021-12-27 14:23:01.125716,-268
2021-12-27 14:23:01.125726,-307
2021-12-27 14:23:01.125735,-344
2021-12-27 14:23:01.125744,-324
2021-12-27 14:23:01.125754,-284
2021-12-27 14:23:01.125763,-270
2021-12-27 14:23:01.125773,-256
2021-12-27 14:23:01.125782,-250
2021-12-27 14:23:01.125792,-266
2021-12-27 14:23:01.125801,-247
2021-12-27 14:23:01.125811,-196
2021-12-27 14:23:01.125820,-185
2021-12-27 14:23:01.125830,-178
2021-12-27 14:23:01.125839,-152
2021-12-27 14:23:01.125849,-169
2021-12-27 14:23:01.125858,-194
2021-12-27 14:23:01.125868,-155
2021-12-27 14:23:01.418245,-122
2021-12-27 14:23:01.418276,-136
2021-12-27 14:23:01.418287,-145
2021-12-27 14:23:01.418297,-180
2021-12-27 14:23:01.418306,-226
2021-12-27 14:23:01.418316,-196
2021-12-27 14:23:01.418325,-152
2021-12-27 14:23:01.418334,-141
2021-12-27 14:23:01.418344,-111
2021-12-27 14:23:01.418353,-127
2021-12-27 14:23:01.418363,-187
2021-12-27 14:23:01.418372,-210
2021-12-27 14:23:01.418382,-231
2021-12-27 14:23:01.418391,-222
2021-12-27 14:23:01.418420,-187
2021-12-27 14:23:01.418430,-206
2021-12-27 14:23:01.418440,-217
2021-12-27 14:23:01.418449,-169
2021-12-27 14:23:01.418459,-134
2021-12-27 14:23:01.418468,-134
2021-12-27 14:23:01.418478,-136
2021-12-27 14:23:01.418487,-166
2021-12-27 14:23:01.418497,-194
2021-12-27 14:23:01.418506,60
2021-12-27 14:23:01.418516,784
2021-12-27 14:23:01.418526,1692
2021-12-27 14:23:01.418535,2136
2021-12-27 14:23:01.418545,1148
2021-12-27 14:23:01.418555,-722
2021-12-27 14:23:01.418564,-1136
2021-12-27 14:23:01.661727,-300
2021-12-27 14:23:01.661749,-164
2021-12-27 14:23:01.661756,-333
2021-12-27 14:23:01.661763,-94
2021-12-27 14:23:01.661769,-9
2021-12-27 14:23:01.661775,-138
2021-12-27 14:23:01.661781,-94
2021-12-27 14:23:01.661788,2
2021-12-27 14:23:01.661794,-27
2021-12-27 14:23:01.661800,-34
2021-12-27 14:23:01.661806,16
2021-12-27 14:23:01.661812,-2
2021-12-27 14:23:01.661819,-37
2021-12-27 14:23:01.661825,11
2021-12-27 14:23:01.661831,71
2021-12-27 14:23:01.661837,92
2021-12-27 14:23:01.661843,113
2021-12-27 14:23:01.661850,120
2021-12-27 14:23:01.661856,94
2021-12-27 14:23:01.661862,118
2021-12-27 14:23:01.661868,185
2021-12-27 14:23:01.661874,201
2021-12-27 14:23:01.661881,217
2021-12-27 14:23:01.661887,268
2021-12-27 14:23:01.661893,280
2021-12-27 14:23:01.661899,261
2021-12-27 14:23:01.661905,261
2021-12-27 14:23:01.661912,277
2021-12-27 14:23:01.661918,303
2021-12-27 14:23:01.661924,331
2021-12-27 14:23:01.905729,307
2021-12-27 14:23:01.905749,224
2021-12-27 14:23:01.905757,129
2021-12-27 14:23:01.905764,43
2021-12-27 14:23:01.905770,-39
2021-12-27 14:23:01.905776,-108
2021-12-27 14:23:01.905783,-145
2021-12-27 14:23:01.905789,-175
2021-12-27 14:23:01.905795,-199
2021-12-27 14:23:01.905801,-185
2021-12-27 14:23:01.905807,-148
2021-12-27 14:23:01.905813,-115
2021-12-27 14:23:01.905820,-108
2021-12-27 14:23:01.905826,-143
2021-12-27 14:23:01.905832,-185
2021-12-27 14:23:01.905838,-171
2021-12-27 14:23:01.905845,-148
2021-12-27 14:23:01.905851,-182
2021-12-27 14:23:01.905857,-231
2021-12-27 14:23:01.905863,-254
2021-12-27 14:23:01.905869,-289
2021-12-27 14:23:01.905876,-319
2021-12-27 14:23:01.905882,-314
2021-12-27 14:23:01.905888,-294
2021-12-27 14:23:01.905894,-277
2021-12-27 14:23:01.905901,-282
2021-12-27 14:23:01.905907,-287
2021-12-27 14:23:01.905913,-268
2021-12-27 14:23:01.905919,-240
2021-12-27 14:23:01.905926,-213
2021-12-27 14:23:02.198540,-199
2021-12-27 14:23:02.198561,-192
2021-12-27 14:23:02.198569,-196
2021-12-27 14:23:02.198575,-192
2021-12-27 14:23:02.198581,-171
2021-12-27 14:23:02.198588,-169
2021-12-27 14:23:02.198594,-171
2021-12-27 14:23:02.198600,-141
2021-12-27 14:23:02.198606,-129
2021-12-27 14:23:02.198612,-155
2021-12-27 14:23:02.198618,-152
2021-12-27 14:23:02.198625,-120
2021-12-27 14:23:02.198631,-97
2021-12-27 14:23:02.198637,-78
2021-12-27 14:23:02.198643,-81
2021-12-27 14:23:02.198649,-120
2021-12-27 14:23:02.198655,-122
2021-12-27 14:23:02.198662,-90
2021-12-27 14:23:02.198668,-101
2021-12-27 14:23:02.198674,-113
2021-12-27 14:23:02.198680,-94
2021-12-27 14:23:02.198686,-118
2021-12-27 14:23:02.198692,-141
2021-12-27 14:23:02.198699,-106
2021-12-27 14:23:02.198705,-94
2021-12-27 14:23:02.198711,-125
2021-12-27 14:23:02.198717,23
2021-12-27 14:23:02.198723,567
2021-12-27 14:23:02.198730,1384
2021-12-27 14:23:02.198736,2000
2021-12-27 14:23:02.344765,1518
2021-12-27 14:23:02.344795,-219
2021-12-27 14:23:02.344806,-1159
2021-12-27 14:23:02.344816,-483
2021-12-27 14:23:02.344825,-108
2021-12-27 14:23:02.344835,-328
2021-12-27 14:23:02.344844,-173
2021-12-27 14:23:02.344854,13
2021-12-27 14:23:02.344864,-64
2021-12-27 14:23:02.344873,-78
2021-12-27 14:23:02.344882,-9
2021-12-27 14:23:02.344892,-16
2021-12-27 14:23:02.344901,-34
2021-12-27 14:23:02.344911,13
2021-12-27 14:23:02.344920,41
2021-12-27 14:23:02.344930,34
2021-12-27 14:23:02.344939,25
2021-12-27 14:23:02.344949,18
2021-12-27 14:23:02.344958,43
2021-12-27 14:23:02.344967,92
2021-12-27 14:23:02.344977,118
2021-12-27 14:23:02.344986,134
2021-12-27 14:23:02.344996,145
2021-12-27 14:23:02.345005,134
2021-12-27 14:23:02.345015,129
2021-12-27 14:23:02.345024,171
2021-12-27 14:23:02.345034,224
2021-12-27 14:23:02.345043,247
2021-12-27 14:23:02.345053,266
2021-12-27 14:23:02.345062,261
2021-12-27 14:23:02.586871,231
2021-12-27 14:23:02.586901,243
2021-12-27 14:23:02.586912,275
2021-12-27 14:23:02.586922,268
2021-12-27 14:23:02.586932,215
2021-12-27 14:23:02.586941,118
2021-12-27 14:23:02.586951,6
2021-12-27 14:23:02.586960,-57
2021-12-27 14:23:02.586970,-118
2021-12-27 14:23:02.586979,-208
2021-12-27 14:23:02.586989,-243
2021-12-27 14:23:02.586998,-219
2021-12-27 14:23:02.587008,-231
2021-12-27 14:23:02.587017,-252
2021-12-27 14:23:02.587027,-224
2021-12-27 14:23:02.587036,-194
2021-12-27 14:23:02.587046,-178
2021-12-27 14:23:02.587055,-159
2021-12-27 14:23:02.587064,-180
2021-12-27 14:23:02.587074,-192
2021-12-27 14:23:02.587084,-152
2021-12-27 14:23:02.587093,-129
2021-12-27 14:23:02.587102,-148
2021-12-27 14:23:02.587112,-169
2021-12-27 14:23:02.587121,-157
2021-12-27 14:23:02.587131,-134
2021-12-27 14:23:02.587141,-136
2021-12-27 14:23:02.587150,-148
2021-12-27 14:23:02.587160,-178
2021-12-27 14:23:02.587169,-192
2021-12-27 14:23:02.831329,-192
2021-12-27 14:23:02.831350,-240
2021-12-27 14:23:02.831357,-268
2021-12-27 14:23:02.831364,-254
2021-12-27 14:23:02.831370,-245
2021-12-27 14:23:02.831377,-206
2021-12-27 14:23:02.831383,-162
2021-12-27 14:23:02.831389,-192
2021-12-27 14:23:02.831395,-231
2021-12-27 14:23:02.831401,-222
2021-12-27 14:23:02.831408,-194
2021-12-27 14:23:02.831414,-159
2021-12-27 14:23:02.831420,-101
2021-12-27 14:23:02.831426,-94
2021-12-27 14:23:02.831433,-152
2021-12-27 14:23:02.831439,-173
2021-12-27 14:23:02.831445,-159
2021-12-27 14:23:02.831451,-155
2021-12-27 14:23:02.831457,-143
2021-12-27 14:23:02.831464,-127
2021-12-27 14:23:02.831470,-127
2021-12-27 14:23:02.831476,-138
2021-12-27 14:23:02.831482,-134
2021-12-27 14:23:02.831489,-113
2021-12-27 14:23:02.831495,-113
2021-12-27 14:23:02.831501,-141
2021-12-27 14:23:02.831507,-27
2021-12-27 14:23:02.831514,490
2021-12-27 14:23:02.831520,1342
2021-12-27 14:23:02.831526,1977
2021-12-27 14:23:02.978373,1514
2021-12-27 14:23:02.978404,-208
2021-12-27 14:23:02.978416,-1275
2021-12-27 14:23:02.978425,-687
2021-12-27 14:23:02.978435,-210
2021-12-27 14:23:02.978444,-377
2021-12-27 14:23:02.978454,-266
2021-12-27 14:23:02.978463,-78
2021-12-27 14:23:02.978473,-143
2021-12-27 14:23:02.978482,-171
2021-12-27 14:23:02.978492,-97
2021-12-27 14:23:02.978501,-62
2021-12-27 14:23:02.978511,-46
2021-12-27 14:23:02.978520,-4
2021-12-27 14:23:02.978530,16
2021-12-27 14:23:02.978539,-20
2021-12-27 14:23:02.978549,-46
2021-12-27 14:23:02.978559,-9
2021-12-27 14:23:02.978568,30
2021-12-27 14:23:02.978578,74
2021-12-27 14:23:02.978587,99
2021-12-27 14:23:02.978597,53
2021-12-27 14:23:02.978607,32
2021-12-27 14:23:02.978616,104
2021-12-27 14:23:02.978626,173
2021-12-27 14:23:02.978635,208
2021-12-27 14:23:02.978645,256
2021-12-27 14:23:02.978654,282
2021-12-27 14:23:02.978664,277
2021-12-27 14:23:02.978673,298
2021-12-27 14:23:03.222032,328
2021-12-27 14:23:03.222053,342
2021-12-27 14:23:03.222060,361
2021-12-27 14:23:03.222067,338
2021-12-27 14:23:03.222073,236
2021-12-27 14:23:03.222080,134
2021-12-27 14:23:03.222086,60
2021-12-27 14:23:03.222092,-27
2021-12-27 14:23:03.222099,-92
2021-12-27 14:23:03.222105,-115
2021-12-27 14:23:03.222111,-171
2021-12-27 14:23:03.222117,-294
2021-12-27 14:23:03.222124,-351
2021-12-27 14:23:03.222130,-273
2021-12-27 14:23:03.222136,-206
2021-12-27 14:23:03.222143,-201
2021-12-27 14:23:03.222149,-187
2021-12-27 14:23:03.222155,-171
2021-12-27 14:23:03.222161,-159
2021-12-27 14:23:03.222168,-150
2021-12-27 14:23:03.222174,-141
2021-12-27 14:23:03.222180,-120
2021-12-27 14:23:03.222186,-97
2021-12-27 14:23:03.222193,-78
2021-12-27 14:23:03.222199,-48
2021-12-27 14:23:03.222205,-25
2021-12-27 14:23:03.222211,-37
2021-12-27 14:23:03.222218,-50
2021-12-27 14:23:03.222224,-43
2021-12-27 14:23:03.222230,-43
2021-12-27 14:23:03.465951,-64
2021-12-27 14:23:03.465981,-81
2021-12-27 14:23:03.465992,-83
2021-12-27 14:23:03.466002,-62
2021-12-27 14:23:03.466011,-57
2021-12-27 14:23:03.466021,-127
2021-12-27 14:23:03.466030,-217
2021-12-27 14:23:03.466040,-222
2021-12-27 14:23:03.466049,-169
2021-12-27 14:23:03.466059,-157
2021-12-27 14:23:03.466068,-194
2021-12-27 14:23:03.466077,-201
2021-12-27 14:23:03.466087,-217
2021-12-27 14:23:03.466096,-291
2021-12-27 14:23:03.466106,-321
2021-12-27 14:23:03.466115,-289
2021-12-27 14:23:03.466125,-268
2021-12-27 14:23:03.466134,-245
2021-12-27 14:23:03.466144,-226
2021-12-27 14:23:03.466153,-229
2021-12-27 14:23:03.466162,-231
2021-12-27 14:23:03.466172,-247
2021-12-27 14:23:03.466181,-294
2021-12-27 14:23:03.466190,-317
2021-12-27 14:23:03.466200,-125
2021-12-27 14:23:03.466209,486
2021-12-27 14:23:03.466219,1391
2021-12-27 14:23:03.466228,2009
2021-12-27 14:23:03.466238,1315
2021-12-27 14:23:03.466247,-541
2021-12-27 14:23:03.758273,-1273
2021-12-27 14:23:03.758303,-495
2021-12-27 14:23:03.758315,-208
2021-12-27 14:23:03.758325,-432
2021-12-27 14:23:03.758334,-252
2021-12-27 14:23:03.758344,-67
2021-12-27 14:23:03.758353,-131
2021-12-27 14:23:03.758363,-134
2021-12-27 14:23:03.758372,-97
2021-12-27 14:23:03.758381,-118
2021-12-27 14:23:03.758391,-94
2021-12-27 14:23:03.758400,-37
2021-12-27 14:23:03.758409,-13
2021-12-27 14:23:03.758419,-9
2021-12-27 14:23:03.758428,-20
2021-12-27 14:23:03.758438,-32
2021-12-27 14:23:03.758447,2
2021-12-27 14:23:03.758457,53
2021-12-27 14:23:03.758466,85
2021-12-27 14:23:03.758475,118
2021-12-27 14:23:03.758485,143
2021-12-27 14:23:03.758494,152
2021-12-27 14:23:03.758503,178
2021-12-27 14:23:03.758512,203
2021-12-27 14:23:03.758528,217
2021-12-27 14:23:03.758537,263
2021-12-27 14:23:03.758559,296
2021-12-27 14:23:03.758565,284
2021-12-27 14:23:03.758571,296
2021-12-27 14:23:03.758578,335
2021-12-27 14:23:03.953263,344
2021-12-27 14:23:03.953293,310
2021-12-27 14:23:03.953305,219
2021-12-27 14:23:03.953314,64
2021-12-27 14:23:03.953324,-62
2021-12-27 14:23:03.953334,-106
2021-12-27 14:23:03.953343,-134
2021-12-27 14:23:03.953352,-173
2021-12-27 14:23:03.953362,-182
2021-12-27 14:23:03.953371,-194
2021-12-27 14:23:03.953381,-243
2021-12-27 14:23:03.953390,-254
2021-12-27 14:23:03.953400,-203
2021-12-27 14:23:03.953409,-164
2021-12-27 14:23:03.953419,-145
2021-12-27 14:23:03.953428,-134
2021-12-27 14:23:03.953438,-122
2021-12-27 14:23:03.953448,-94
2021-12-27 14:23:03.953457,-62
2021-12-27 14:23:03.953478,-39
2021-12-27 14:23:03.953488,-34
2021-12-27 14:23:03.953497,-57
2021-12-27 14:23:03.953506,-90
2021-12-27 14:23:03.953516,-92
2021-12-27 14:23:03.953525,-81
2021-12-27 14:23:03.953535,-101
2021-12-27 14:23:03.953544,-127
2021-12-27 14:23:03.953554,-111
2021-12-27 14:23:03.953564,-101
2021-12-27 14:23:03.953573,-106
2021-12-27 14:23:04.148530,-92
2021-12-27 14:23:04.148560,-60
2021-12-27 14:23:04.148571,-48
2021-12-27 14:23:04.148581,-53
2021-12-27 14:23:04.148591,-30
2021-12-27 14:23:04.148600,-4
2021-12-27 14:23:04.148610,0
2021-12-27 14:23:04.148619,18
2021-12-27 14:23:04.148629,23
2021-12-27 14:23:04.148638,-9
2021-12-27 14:23:04.148648,-50
2021-12-27 14:23:04.148657,-94
2021-12-27 14:23:04.148667,-118
2021-12-27 14:23:04.148677,-92
2021-12-27 14:23:04.148686,-85
2021-12-27 14:23:04.148696,-129
2021-12-27 14:23:04.148705,-150
2021-12-27 14:23:04.148715,-175
2021-12-27 14:23:04.148725,-273
2021-12-27 14:23:04.148734,-321
2021-12-27 14:23:04.148744,-78
2021-12-27 14:23:04.148753,599
2021-12-27 14:23:04.148763,1516
2021-12-27 14:23:04.148772,2049
2021-12-27 14:23:04.148782,1155
2021-12-27 14:23:04.148791,-754
2021-12-27 14:23:04.148801,-1296
2021-12-27 14:23:04.148810,-481
2021-12-27 14:23:04.148820,-317
2021-12-27 14:23:04.148829,-523
2021-12-27 14:23:04.392178,-310
2021-12-27 14:23:04.392208,-182
2021-12-27 14:23:04.392219,-259
2021-12-27 14:23:04.392229,-217
2021-12-27 14:23:04.392238,-138
2021-12-27 14:23:04.392248,-131
2021-12-27 14:23:04.392257,-143
2021-12-27 14:23:04.392267,-148
2021-12-27 14:23:04.392276,-131
2021-12-27 14:23:04.392286,-101
2021-12-27 14:23:04.392295,-67
2021-12-27 14:23:04.392305,-23
2021-12-27 14:23:04.392314,-11
2021-12-27 14:23:04.392324,-23
2021-12-27 14:23:04.392333,-11
2021-12-27 14:23:04.392343,-11
2021-12-27 14:23:04.392352,-27
2021-12-27 14:23:04.392362,16
2021-12-27 14:23:04.392371,90
2021-12-27 14:23:04.392381,125
2021-12-27 14:23:04.392390,150
2021-12-27 14:23:04.392400,192
2021-12-27 14:23:04.392409,229
2021-12-27 14:23:04.392419,254
2021-12-27 14:23:04.392428,284
2021-12-27 14:23:04.392438,294
2021-12-27 14:23:04.392447,266
2021-12-27 14:23:04.392457,210
2021-12-27 14:23:04.392466,131
2021-12-27 14:23:04.392476,25
2021-12-27 14:23:04.634330,-85
2021-12-27 14:23:04.634351,-159
2021-12-27 14:23:04.634359,-208
2021-12-27 14:23:04.634366,-254
2021-12-27 14:23:04.634372,-256
2021-12-27 14:23:04.634378,-222
2021-12-27 14:23:04.634385,-201
2021-12-27 14:23:04.634391,-196
2021-12-27 14:23:04.634398,-213
2021-12-27 14:23:04.634404,-226
2021-12-27 14:23:04.634410,-187
2021-12-27 14:23:04.634416,-136
2021-12-27 14:23:04.634422,-113
2021-12-27 14:23:04.634429,-99
2021-12-27 14:23:04.634435,-108
2021-12-27 14:23:04.634441,-136
2021-12-27 14:23:04.634447,-122
2021-12-27 14:23:04.634454,-81
2021-12-27 14:23:04.634460,-64
2021-12-27 14:23:04.634466,-53
2021-12-27 14:23:04.634472,-43
2021-12-27 14:23:04.634479,-71
2021-12-27 14:23:04.634485,-90
2021-12-27 14:23:04.634491,-69
2021-12-27 14:23:04.634497,-46
2021-12-27 14:23:04.634503,-34
2021-12-27 14:23:04.634510,-39
2021-12-27 14:23:04.634516,-60
2021-12-27 14:23:04.634522,-64
2021-12-27 14:23:04.634528,-34
2021-12-27 14:23:04.830900,-4
2021-12-27 14:23:04.830932,-9
2021-12-27 14:23:04.830944,-41
2021-12-27 14:23:04.830953,-71
2021-12-27 14:23:04.830963,-97
2021-12-27 14:23:04.830972,-92
2021-12-27 14:23:04.830982,-74
2021-12-27 14:23:04.830992,-69
2021-12-27 14:23:04.831001,-62
2021-12-27 14:23:04.831011,-69
2021-12-27 14:23:04.831020,-101
2021-12-27 14:23:04.831030,-90
2021-12-27 14:23:04.831039,-46
2021-12-27 14:23:04.831049,-55
2021-12-27 14:23:04.831058,-131
2021-12-27 14:23:04.831068,-199
2021-12-27 14:23:04.831077,-30
2021-12-27 14:23:04.831087,634
2021-12-27 14:23:04.831097,1618
2021-12-27 14:23:04.831106,2231
2021-12-27 14:23:04.831116,1375
2021-12-27 14:23:04.831126,-683
2021-12-27 14:23:04.831135,-1449
2021-12-27 14:23:04.831145,-595
2021-12-27 14:23:04.831154,-305
2021-12-27 14:23:04.831164,-541
2021-12-27 14:23:04.831174,-347
2021-12-27 14:23:04.831184,-196
2021-12-27 14:23:04.831193,-294
2021-12-27 14:23:04.831203,-259
2021-12-27 14:23:05.074657,-164
2021-12-27 14:23:05.074687,-157
2021-12-27 14:23:05.074699,-152
2021-12-27 14:23:05.074708,-145
2021-12-27 14:23:05.074718,-166
2021-12-27 14:23:05.074728,-180
2021-12-27 14:23:05.074737,-173
2021-12-27 14:23:05.074747,-134
2021-12-27 14:23:05.074756,-87
2021-12-27 14:23:05.074765,-62
2021-12-27 14:23:05.074775,-34
2021-12-27 14:23:05.074784,-16
2021-12-27 14:23:05.074794,-11
2021-12-27 14:23:05.074803,25
2021-12-27 14:23:05.074813,87
2021-12-27 14:23:05.074822,125
2021-12-27 14:23:05.074832,159
2021-12-27 14:23:05.074841,210
2021-12-27 14:23:05.074851,231
2021-12-27 14:23:05.074860,245
2021-12-27 14:23:05.074869,273
2021-12-27 14:23:05.074879,280
2021-12-27 14:23:05.074888,268
2021-12-27 14:23:05.074897,236
2021-12-27 14:23:05.074907,145
2021-12-27 14:23:05.074916,39
2021-12-27 14:23:05.074926,-39
2021-12-27 14:23:05.074935,-106
2021-12-27 14:23:05.074944,-157
2021-12-27 14:23:05.074954,-175
2021-12-27 14:23:05.318553,-185
2021-12-27 14:23:05.318583,-189
2021-12-27 14:23:05.318594,-175
2021-12-27 14:23:05.318604,-159
2021-12-27 14:23:05.318614,-155
2021-12-27 14:23:05.318623,-155
2021-12-27 14:23:05.318633,-169
2021-12-27 14:23:05.318642,-189
2021-12-27 14:23:05.318652,-189
2021-12-27 14:23:05.318661,-162
2021-12-27 14:23:05.318671,-134
2021-12-27 14:23:05.318680,-111
2021-12-27 14:23:05.318690,-99
2021-12-27 14:23:05.318700,-120
2021-12-27 14:23:05.318709,-145
2021-12-27 14:23:05.318719,-136
2021-12-27 14:23:05.318728,-101
2021-12-27 14:23:05.318738,-83
2021-12-27 14:23:05.318747,-69
2021-12-27 14:23:05.318757,-62
2021-12-27 14:23:05.318766,-78
2021-12-27 14:23:05.318776,-87
2021-12-27 14:23:05.318785,-76
2021-12-27 14:23:05.318795,-53
2021-12-27 14:23:05.318804,-30
2021-12-27 14:23:05.318814,-20
2021-12-27 14:23:05.318823,-57
2021-12-27 14:23:05.318833,-108
2021-12-27 14:23:05.318842,-87
2021-12-27 14:23:05.318852,-25
2021-12-27 14:23:05.513488,-16
2021-12-27 14:23:05.513517,-16
2021-12-27 14:23:05.513529,0
2021-12-27 14:23:05.513539,-9
2021-12-27 14:23:05.513549,-13
2021-12-27 14:23:05.513558,-11
2021-12-27 14:23:05.513568,-23
2021-12-27 14:23:05.513577,-39
2021-12-27 14:23:05.513587,-94
2021-12-27 14:23:05.513596,-150
2021-12-27 14:23:05.513605,-122
2021-12-27 14:23:05.513615,-71
2021-12-27 14:23:05.513625,-60
2021-12-27 14:23:05.513634,-76
2021-12-27 14:23:05.513644,-129
2021-12-27 14:23:05.513653,-90
2021-12-27 14:23:05.513663,382
2021-12-27 14:23:05.513672,1280
2021-12-27 14:23:05.513682,2051
2021-12-27 14:23:05.513691,1736
2021-12-27 14:23:05.513701,-50
2021-12-27 14:23:05.513710,-1305
2021-12-27 14:23:05.513720,-694
2021-12-27 14:23:05.513729,-152
2021-12-27 14:23:05.513739,-409
2021-12-27 14:23:05.513748,-361
2021-12-27 14:23:05.513758,-171
2021-12-27 14:23:05.513767,-240
2021-12-27 14:23:05.513777,-261
2021-12-27 14:23:05.513786,-175
2021-12-27 14:23:05.853904,-150
2021-12-27 14:23:05.853934,-141
2021-12-27 14:23:05.853945,-108
2021-12-27 14:23:05.853956,-111
2021-12-27 14:23:05.853966,-143
2021-12-27 14:23:05.853975,-125
2021-12-27 14:23:05.853985,-76
2021-12-27 14:23:05.853995,-50
2021-12-27 14:23:05.854005,-34
2021-12-27 14:23:05.854014,-43
2021-12-27 14:23:05.854024,-83
2021-12-27 14:23:05.854033,-69
2021-12-27 14:23:05.854043,2
2021-12-27 14:23:05.854053,60
2021-12-27 14:23:05.854063,94
2021-12-27 14:23:05.854072,138
2021-12-27 14:23:05.854082,175
2021-12-27 14:23:05.854092,185
2021-12-27 14:23:05.854101,208
2021-12-27 14:23:05.854111,243
2021-12-27 14:23:05.854120,240
2021-12-27 14:23:05.854130,233
2021-12-27 14:23:05.854140,224
2021-12-27 14:23:05.854149,166
2021-12-27 14:23:05.854159,76
2021-12-27 14:23:05.854169,9
2021-12-27 14:23:05.854178,-43
2021-12-27 14:23:05.854188,-113
2021-12-27 14:23:05.854198,-169
2021-12-27 14:23:05.854207,-196
2021-12-27 14:23:06.098647,-201
2021-12-27 14:23:06.098677,-185
2021-12-27 14:23:06.098688,-208
2021-12-27 14:23:06.098698,-256
2021-12-27 14:23:06.098708,-238
2021-12-27 14:23:06.098717,-201
2021-12-27 14:23:06.098727,-203
2021-12-27 14:23:06.098736,-185
2021-12-27 14:23:06.098746,-148
2021-12-27 14:23:06.098755,-122
2021-12-27 14:23:06.098765,-120
2021-12-27 14:23:06.098774,-145
2021-12-27 14:23:06.098784,-166
2021-12-27 14:23:06.098794,-148
2021-12-27 14:23:06.098803,-125
2021-12-27 14:23:06.098813,-115
2021-12-27 14:23:06.098822,-94
2021-12-27 14:23:06.098832,-78
2021-12-27 14:23:06.098841,-101
2021-12-27 14:23:06.098851,-127
2021-12-27 14:23:06.098860,-108
2021-12-27 14:23:06.098870,-99
2021-12-27 14:23:06.098879,-92
2021-12-27 14:23:06.098888,-60
2021-12-27 14:23:06.098898,-57
2021-12-27 14:23:06.098907,-67
2021-12-27 14:23:06.098917,-57
2021-12-27 14:23:06.098927,-55
2021-12-27 14:23:06.098936,-46
2021-12-27 14:23:06.098946,-20
2021-12-27 14:23:06.293303,-2
2021-12-27 14:23:06.293334,-2
2021-12-27 14:23:06.293345,13
2021-12-27 14:23:06.293355,25
2021-12-27 14:23:06.293365,4
2021-12-27 14:23:06.293375,9
2021-12-27 14:23:06.293384,48
2021-12-27 14:23:06.293394,34
2021-12-27 14:23:06.293404,-13
2021-12-27 14:23:06.293413,-25
2021-12-27 14:23:06.293423,0
2021-12-27 14:23:06.293432,18
2021-12-27 14:23:06.293442,25
2021-12-27 14:23:06.293452,20
2021-12-27 14:23:06.293462,-4
2021-12-27 14:23:06.293471,-9
2021-12-27 14:23:06.293481,-13
2021-12-27 14:23:06.293490,-81
2021-12-27 14:23:06.293500,-78
2021-12-27 14:23:06.293510,273
2021-12-27 14:23:06.293519,1004
2021-12-27 14:23:06.293529,1822
2021-12-27 14:23:06.293538,1998
2021-12-27 14:23:06.293548,625
2021-12-27 14:23:06.293557,-1069
2021-12-27 14:23:06.293567,-967
2021-12-27 14:23:06.293577,-261
2021-12-27 14:23:06.293586,-421
2021-12-27 14:23:06.293596,-488
2021-12-27 14:23:06.293606,-208
2021-12-27 14:23:06.537345,-192
2021-12-27 14:23:06.537368,-250
2021-12-27 14:23:06.537375,-171
2021-12-27 14:23:06.537382,-157
2021-12-27 14:23:06.537388,-173
2021-12-27 14:23:06.537395,-111
2021-12-27 14:23:06.537401,-62
2021-12-27 14:23:06.537407,-71
2021-12-27 14:23:06.537413,-127
2021-12-27 14:23:06.537420,-194
2021-12-27 14:23:06.537426,-185
2021-12-27 14:23:06.537432,-115
2021-12-27 14:23:06.537439,-71
2021-12-27 14:23:06.537445,-32
2021-12-27 14:23:06.537451,20
2021-12-27 14:23:06.537458,32
2021-12-27 14:23:06.537464,34
2021-12-27 14:23:06.537470,92
2021-12-27 14:23:06.537477,162
2021-12-27 14:23:06.537483,201
2021-12-27 14:23:06.537489,231
2021-12-27 14:23:06.537495,229
2021-12-27 14:23:06.537502,206
2021-12-27 14:23:06.537508,215
2021-12-27 14:23:06.537514,250
2021-12-27 14:23:06.537520,250
2021-12-27 14:23:06.537527,201
2021-12-27 14:23:06.537533,115
2021-12-27 14:23:06.537539,16
2021-12-27 14:23:06.537545,-69
2021-12-27 14:23:06.828222,-120
2021-12-27 14:23:06.828252,-148
2021-12-27 14:23:06.828263,-162
2021-12-27 14:23:06.828273,-173
2021-12-27 14:23:06.828283,-206
2021-12-27 14:23:06.828293,-229
2021-12-27 14:23:06.828302,-206
2021-12-27 14:23:06.828312,-166
2021-12-27 14:23:06.828321,-148
2021-12-27 14:23:06.828331,-129
2021-12-27 14:23:06.828341,-111
2021-12-27 14:23:06.828350,-115
2021-12-27 14:23:06.828360,-113
2021-12-27 14:23:06.828369,-76
2021-12-27 14:23:06.828379,-55
2021-12-27 14:23:06.828389,-57
2021-12-27 14:23:06.828398,-48
2021-12-27 14:23:06.828408,-50
2021-12-27 14:23:06.828417,-69
2021-12-27 14:23:06.828427,-57
2021-12-27 14:23:06.828436,-32
2021-12-27 14:23:06.828446,-27
2021-12-27 14:23:06.828455,-30
2021-12-27 14:23:06.828465,-43
2021-12-27 14:23:06.828474,-74
2021-12-27 14:23:06.828484,-64
2021-12-27 14:23:06.828494,-37
2021-12-27 14:23:06.828503,-43
2021-12-27 14:23:06.828513,-34
2021-12-27 14:23:06.828522,-6
2021-12-27 14:23:07.024916,-6
2021-12-27 14:23:07.024937,-9
2021-12-27 14:23:07.024944,9
2021-12-27 14:23:07.024951,9
2021-12-27 14:23:07.024957,9
2021-12-27 14:23:07.024966,20
2021-12-27 14:23:07.024973,13
2021-12-27 14:23:07.024979,-2
2021-12-27 14:23:07.024985,6
2021-12-27 14:23:07.024992,27
2021-12-27 14:23:07.024998,32
2021-12-27 14:23:07.025004,41
2021-12-27 14:23:07.025010,48
2021-12-27 14:23:07.025016,2
2021-12-27 14:23:07.025023,-81
2021-12-27 14:23:07.025029,-106
2021-12-27 14:23:07.025035,-78
2021-12-27 14:23:07.025041,-55
2021-12-27 14:23:07.025047,-43
2021-12-27 14:23:07.025054,-48
2021-12-27 14:23:07.025060,-115
2021-12-27 14:23:07.025066,-224
2021-12-27 14:23:07.025072,-213
2021-12-27 14:23:07.025078,185
2021-12-27 14:23:07.025085,1018
2021-12-27 14:23:07.025091,1907
2021-12-27 14:23:07.025097,1970
2021-12-27 14:23:07.025103,405
2021-12-27 14:23:07.025110,-1257
2021-12-27 14:23:07.025116,-977
2021-12-27 14:23:07.122208,-213
2021-12-27 14:23:07.122228,-377
2021-12-27 14:23:07.122236,-435
2021-12-27 14:23:07.122242,-178
2021-12-27 14:23:07.122248,-169
2021-12-27 14:23:07.122254,-203
2021-12-27 14:23:07.122260,-101
2021-12-27 14:23:07.122266,-78
2021-12-27 14:23:07.122273,-138
2021-12-27 14:23:07.122279,-141
2021-12-27 14:23:07.122285,-83
2021-12-27 14:23:07.122291,-43
2021-12-27 14:23:07.122297,-23
2021-12-27 14:23:07.122303,6
2021-12-27 14:23:07.122310,11
2021-12-27 14:23:07.122316,6
2021-12-27 14:23:07.122322,46
2021-12-27 14:23:07.122328,97
2021-12-27 14:23:07.122334,127
2021-12-27 14:23:07.122340,166
2021-12-27 14:23:07.122346,213
2021-12-27 14:23:07.122353,226
2021-12-27 14:23:07.122359,224
2021-12-27 14:23:07.122365,261
2021-12-27 14:23:07.122371,317
2021-12-27 14:23:07.122377,349
2021-12-27 14:23:07.122384,358
2021-12-27 14:23:07.122390,324
2021-12-27 14:23:07.122396,289
2021-12-27 14:23:07.122402,296
2021-12-27 14:23:07.366033,270
2021-12-27 14:23:07.366063,189
2021-12-27 14:23:07.366074,74
2021-12-27 14:23:07.366084,-74
2021-12-27 14:23:07.366093,-187
2021-12-27 14:23:07.366103,-210
2021-12-27 14:23:07.366112,-201
2021-12-27 14:23:07.366121,-206
2021-12-27 14:23:07.366130,-206
2021-12-27 14:23:07.366140,-219
2021-12-27 14:23:07.366149,-243
2021-12-27 14:23:07.366158,-215
2021-12-27 14:23:07.366167,-157
2021-12-27 14:23:07.366177,-134
2021-12-27 14:23:07.366186,-115
2021-12-27 14:23:07.366195,-99
2021-12-27 14:23:07.366205,-99
2021-12-27 14:23:07.366214,-83
2021-12-27 14:23:07.366223,-55
2021-12-27 14:23:07.366232,-74
2021-12-27 14:23:07.366242,-127
2021-12-27 14:23:07.366251,-138
2021-12-27 14:23:07.366260,-125
2021-12-27 14:23:07.366269,-141
2021-12-27 14:23:07.366279,-162
2021-12-27 14:23:07.366288,-150
2021-12-27 14:23:07.366297,-131
2021-12-27 14:23:07.366306,-122
2021-12-27 14:23:07.366316,-120
2021-12-27 14:23:07.366325,-115
2021-12-27 14:23:07.609852,-94
2021-12-27 14:23:07.609874,-71
2021-12-27 14:23:07.609881,-57
2021-12-27 14:23:07.609888,-57
2021-12-27 14:23:07.609894,-71
2021-12-27 14:23:07.609900,-97
2021-12-27 14:23:07.609907,-101
2021-12-27 14:23:07.609913,-71
2021-12-27 14:23:07.609919,-53
2021-12-27 14:23:07.609925,-57
2021-12-27 14:23:07.609932,-60
2021-12-27 14:23:07.609938,-94
2021-12-27 14:23:07.609944,-127
2021-12-27 14:23:07.609950,-97
2021-12-27 14:23:07.609957,-83
2021-12-27 14:23:07.609963,-106
2021-12-27 14:23:07.609969,-118
2021-12-27 14:23:07.609976,-145
2021-12-27 14:23:07.609982,-185
2021-12-27 14:23:07.609988,-189
2021-12-27 14:23:07.609995,-180
2021-12-27 14:23:07.610001,-180
2021-12-27 14:23:07.610007,-178
2021-12-27 14:23:07.610013,-169
2021-12-27 14:23:07.610019,-210
2021-12-27 14:23:07.610026,-298
2021-12-27 14:23:07.610032,-201
2021-12-27 14:23:07.610038,379
2021-12-27 14:23:07.610045,1345
2021-12-27 14:23:07.610051,2104
2021-12-27 14:23:07.853521,1602
2021-12-27 14:23:07.853551,-303
2021-12-27 14:23:07.853562,-1342
2021-12-27 14:23:07.853572,-599
2021-12-27 14:23:07.853582,-162
2021-12-27 14:23:07.853592,-419
2021-12-27 14:23:07.853601,-317
2021-12-27 14:23:07.853611,-164
2021-12-27 14:23:07.853620,-250
2021-12-27 14:23:07.853630,-229
2021-12-27 14:23:07.853640,-127
2021-12-27 14:23:07.853649,-106
2021-12-27 14:23:07.853659,-101
2021-12-27 14:23:07.853668,-92
2021-12-27 14:23:07.853678,-99
2021-12-27 14:23:07.853688,-81
2021-12-27 14:23:07.853698,-34
2021-12-27 14:23:07.853707,6
2021-12-27 14:23:07.853717,27
2021-12-27 14:23:07.853727,41
2021-12-27 14:23:07.853736,53
2021-12-27 14:23:07.853746,78
2021-12-27 14:23:07.853756,120
2021-12-27 14:23:07.853765,164
2021-12-27 14:23:07.853775,213
2021-12-27 14:23:07.853785,226
2021-12-27 14:23:07.853794,199
2021-12-27 14:23:07.853804,196
2021-12-27 14:23:07.853813,213
2021-12-27 14:23:07.853823,229
2021-12-27 14:23:08.048608,270
2021-12-27 14:23:08.048638,296
2021-12-27 14:23:08.048650,275
2021-12-27 14:23:08.048659,226
2021-12-27 14:23:08.048669,166
2021-12-27 14:23:08.048679,94
2021-12-27 14:23:08.048689,9
2021-12-27 14:23:08.048699,-76
2021-12-27 14:23:08.048708,-175
2021-12-27 14:23:08.048718,-266
2021-12-27 14:23:08.048728,-273
2021-12-27 14:23:08.048738,-236
2021-12-27 14:23:08.048747,-222
2021-12-27 14:23:08.048757,-219
2021-12-27 14:23:08.048766,-243
2021-12-27 14:23:08.048776,-261
2021-12-27 14:23:08.048785,-201
2021-12-27 14:23:08.048795,-125
2021-12-27 14:23:08.048805,-106
2021-12-27 14:23:08.048814,-97
2021-12-27 14:23:08.048824,-81
2021-12-27 14:23:08.048833,-92
2021-12-27 14:23:08.048843,-92
2021-12-27 14:23:08.048853,-57
2021-12-27 14:23:08.048862,-41
2021-12-27 14:23:08.048872,-41
2021-12-27 14:23:08.048882,-37
2021-12-27 14:23:08.048891,-50
2021-12-27 14:23:08.048901,-55
2021-12-27 14:23:08.048911,-41
2021-12-27 14:23:08.292439,-67
2021-12-27 14:23:08.292470,-85
2021-12-27 14:23:08.292481,-55
2021-12-27 14:23:08.292491,-71
2021-12-27 14:23:08.292501,-127
2021-12-27 14:23:08.292510,-125
2021-12-27 14:23:08.292520,-101
2021-12-27 14:23:08.292529,-122
2021-12-27 14:23:08.292538,-129
2021-12-27 14:23:08.292548,-127
2021-12-27 14:23:08.292557,-152
2021-12-27 14:23:08.292567,-169
2021-12-27 14:23:08.292576,-159
2021-12-27 14:23:08.292586,-164
2021-12-27 14:23:08.292596,-180
2021-12-27 14:23:08.292605,-201
2021-12-27 14:23:08.292614,-217
2021-12-27 14:23:08.292624,-196
2021-12-27 14:23:08.292633,-162
2021-12-27 14:23:08.292643,-166
2021-12-27 14:23:08.292652,-175
2021-12-27 14:23:08.292662,-148
2021-12-27 14:23:08.292671,-136
2021-12-27 14:23:08.292681,-164
2021-12-27 14:23:08.292690,-157
2021-12-27 14:23:08.292699,-122
2021-12-27 14:23:08.292709,-120
2021-12-27 14:23:08.292719,-134
2021-12-27 14:23:08.292728,-134
2021-12-27 14:23:08.292738,-101
2021-12-27 14:23:08.536193,-120
2021-12-27 14:23:08.536224,-261
2021-12-27 14:23:08.536235,-219
2021-12-27 14:23:08.536245,423
2021-12-27 14:23:08.536255,1472
2021-12-27 14:23:08.536265,2174
2021-12-27 14:23:08.536274,1504
2021-12-27 14:23:08.536284,-465
2021-12-27 14:23:08.536294,-1391
2021-12-27 14:23:08.536303,-567
2021-12-27 14:23:08.536313,-164
2021-12-27 14:23:08.536323,-460
2021-12-27 14:23:08.536332,-363
2021-12-27 14:23:08.536342,-175
2021-12-27 14:23:08.536351,-217
2021-12-27 14:23:08.536361,-199
2021-12-27 14:23:08.536371,-136
2021-12-27 14:23:08.536380,-125
2021-12-27 14:23:08.536390,-76
2021-12-27 14:23:08.536399,-27
2021-12-27 14:23:08.536409,-23
2021-12-27 14:23:08.536418,-16
2021-12-27 14:23:08.536428,16
2021-12-27 14:23:08.536438,60
2021-12-27 14:23:08.536447,81
2021-12-27 14:23:08.536457,99
2021-12-27 14:23:08.536466,145
2021-12-27 14:23:08.536476,182
2021-12-27 14:23:08.536485,199
2021-12-27 14:23:08.536495,243
2021-12-27 14:23:08.827328,324
2021-12-27 14:23:08.827359,351
2021-12-27 14:23:08.827370,296
2021-12-27 14:23:08.827380,284
2021-12-27 14:23:08.827390,347
2021-12-27 14:23:08.827399,361
2021-12-27 14:23:08.827409,333
2021-12-27 14:23:08.827418,319
2021-12-27 14:23:08.827428,319
2021-12-27 14:23:08.827437,300
2021-12-27 14:23:08.827447,222
2021-12-27 14:23:08.827456,129
2021-12-27 14:23:08.827465,74
2021-12-27 14:23:08.827475,-25
2021-12-27 14:23:08.827485,-166
2021-12-27 14:23:08.827495,-222
2021-12-27 14:23:08.827504,-189
2021-12-27 14:23:08.827514,-171
2021-12-27 14:23:08.827523,-173
2021-12-27 14:23:08.827533,-138
2021-12-27 14:23:08.827542,-106
2021-12-27 14:23:08.827552,-136
2021-12-27 14:23:08.827561,-136
2021-12-27 14:23:08.827571,-57
2021-12-27 14:23:08.827580,-20
2021-12-27 14:23:08.827590,-43
2021-12-27 14:23:08.827600,-32
2021-12-27 14:23:08.827610,16
2021-12-27 14:23:08.827619,18
2021-12-27 14:23:08.827629,-30
2021-12-27 14:23:08.974755,-9
2021-12-27 14:23:08.974785,43
2021-12-27 14:23:08.974796,23
2021-12-27 14:23:08.974806,-16
2021-12-27 14:23:08.974816,-11
2021-12-27 14:23:08.974825,13
2021-12-27 14:23:08.974835,-43
2021-12-27 14:23:08.974844,-164
2021-12-27 14:23:08.974854,-187
2021-12-27 14:23:08.974863,-166
2021-12-27 14:23:08.974873,-189
2021-12-27 14:23:08.974882,-210
2021-12-27 14:23:08.974892,-199
2021-12-27 14:23:08.974901,-159
2021-12-27 14:23:08.974911,-171
2021-12-27 14:23:08.974920,-256
2021-12-27 14:23:08.974930,-287
2021-12-27 14:23:08.974939,-261
2021-12-27 14:23:08.974949,-256
2021-12-27 14:23:08.974958,-240
2021-12-27 14:23:08.974968,-192
2021-12-27 14:23:08.974977,-182
2021-12-27 14:23:08.974987,-215
2021-12-27 14:23:08.974996,-192
2021-12-27 14:23:08.975006,-129
2021-12-27 14:23:08.975015,-118
2021-12-27 14:23:08.975024,-143
2021-12-27 14:23:08.975034,-148
2021-12-27 14:23:08.975044,-120
2021-12-27 14:23:08.975053,-108
2021-12-27 14:23:09.267421,-115
2021-12-27 14:23:09.267451,-87
2021-12-27 14:23:09.267463,-46
2021-12-27 14:23:09.267472,-62
2021-12-27 14:23:09.267482,-155
2021-12-27 14:23:09.267491,-233
2021-12-27 14:23:09.267501,-185
2021-12-27 14:23:09.267510,118
2021-12-27 14:23:09.267520,833
2021-12-27 14:23:09.267529,1810
2021-12-27 14:23:09.267539,2204
2021-12-27 14:23:09.267548,912
2021-12-27 14:23:09.267557,-1034
2021-12-27 14:23:09.267567,-1150
2021-12-27 14:23:09.267576,-259
2021-12-27 14:23:09.267586,-277
2021-12-27 14:23:09.267595,-419
2021-12-27 14:23:09.267604,-175
2021-12-27 14:23:09.267614,-134
2021-12-27 14:23:09.267623,-150
2021-12-27 14:23:09.267633,-64
2021-12-27 14:23:09.267642,-76
2021-12-27 14:23:09.267652,-94
2021-12-27 14:23:09.267661,-46
2021-12-27 14:23:09.267670,-30
2021-12-27 14:23:09.267680,-6
2021-12-27 14:23:09.267689,39
2021-12-27 14:23:09.267699,60
2021-12-27 14:23:09.267708,90
2021-12-27 14:23:09.267717,134
2021-12-27 14:23:09.462499,113
2021-12-27 14:23:09.462530,99
2021-12-27 14:23:09.462541,145
2021-12-27 14:23:09.462551,171
2021-12-27 14:23:09.462561,208
2021-12-27 14:23:09.462570,300
2021-12-27 14:23:09.462580,312
2021-12-27 14:23:09.462589,261
2021-12-27 14:23:09.462599,294
2021-12-27 14:23:09.462608,344
2021-12-27 14:23:09.462618,303
2021-12-27 14:23:09.462627,226
2021-12-27 14:23:09.462637,194
2021-12-27 14:23:09.462646,175
2021-12-27 14:23:09.462656,171
2021-12-27 14:23:09.462665,148
2021-12-27 14:23:09.462675,16
2021-12-27 14:23:09.462685,-99
2021-12-27 14:23:09.462694,-141
2021-12-27 14:23:09.462704,-231
2021-12-27 14:23:09.462713,-296
2021-12-27 14:23:09.462723,-266
2021-12-27 14:23:09.462732,-252
2021-12-27 14:23:09.462742,-238
2021-12-27 14:23:09.462752,-201
2021-12-27 14:23:09.462761,-194
2021-12-27 14:23:09.462771,-171
2021-12-27 14:23:09.462781,-150
2021-12-27 14:23:09.462790,-141
2021-12-27 14:23:09.462800,-90
2021-12-27 14:23:09.657374,-69
2021-12-27 14:23:09.657402,-92
2021-12-27 14:23:09.657409,-85
2021-12-27 14:23:09.657416,-74
2021-12-27 14:23:09.657423,-104
2021-12-27 14:23:09.657429,-78
2021-12-27 14:23:09.657435,-2
2021-12-27 14:23:09.657442,-34
2021-12-27 14:23:09.657448,-131
2021-12-27 14:23:09.657454,-157
2021-12-27 14:23:09.657461,-134
2021-12-27 14:23:09.657467,-104
2021-12-27 14:23:09.657473,-138
2021-12-27 14:23:09.657480,-224
2021-12-27 14:23:09.657486,-247
2021-12-27 14:23:09.657492,-247
2021-12-27 14:23:09.657498,-254
2021-12-27 14:23:09.657504,-243
2021-12-27 14:23:09.657511,-268
2021-12-27 14:23:09.657517,-284
2021-12-27 14:23:09.657523,-261
2021-12-27 14:23:09.657529,-280
2021-12-27 14:23:09.657536,-266
2021-12-27 14:23:09.657542,-192
2021-12-27 14:23:09.657548,-175
2021-12-27 14:23:09.657555,-162
2021-12-27 14:23:09.657561,-127
2021-12-27 14:23:09.657567,-164
2021-12-27 14:23:09.657573,-201
2021-12-27 14:23:09.657580,-189
2021-12-27 14:23:09.901035,-162
2021-12-27 14:23:09.901066,-136
2021-12-27 14:23:09.901078,-171
2021-12-27 14:23:09.901088,-231
2021-12-27 14:23:09.901097,-199
2021-12-27 14:23:09.901107,-155
2021-12-27 14:23:09.901116,-203
2021-12-27 14:23:09.901126,-226
2021-12-27 14:23:09.901135,-67
2021-12-27 14:23:09.901145,423
2021-12-27 14:23:09.901155,1245
2021-12-27 14:23:09.901164,1974
2021-12-27 14:23:09.901174,1641
2021-12-27 14:23:09.901183,-127
2021-12-27 14:23:09.901193,-1340
2021-12-27 14:23:09.901203,-754
2021-12-27 14:23:09.901212,-229
2021-12-27 14:23:09.901222,-465
2021-12-27 14:23:09.901232,-430
2021-12-27 14:23:09.901241,-233
2021-12-27 14:23:09.901251,-254
2021-12-27 14:23:09.901261,-247
2021-12-27 14:23:09.901270,-148
2021-12-27 14:23:09.901280,-129
2021-12-27 14:23:09.901289,-157
2021-12-27 14:23:09.901299,-129
2021-12-27 14:23:09.901308,-48
2021-12-27 14:23:09.901318,-9
2021-12-27 14:23:09.901327,-41
2021-12-27 14:23:09.901337,-30
2021-12-27 14:23:10.144811,27
2021-12-27 14:23:10.144841,37
2021-12-27 14:23:10.144852,62
2021-12-27 14:23:10.144861,127
2021-12-27 14:23:10.144871,134
2021-12-27 14:23:10.144880,113
2021-12-27 14:23:10.144890,136
2021-12-27 14:23:10.144899,187
2021-12-27 14:23:10.144987,226
2021-12-27 14:23:10.144998,250
2021-12-27 14:23:10.145008,250
2021-12-27 14:23:10.145017,217
2021-12-27 14:23:10.145027,196
2021-12-27 14:23:10.145036,240
2021-12-27 14:23:10.145046,287
2021-12-27 14:23:10.145055,261
2021-12-27 14:23:10.145065,138
2021-12-27 14:23:10.145074,-11
2021-12-27 14:23:10.145083,-71
2021-12-27 14:23:10.145093,-90
2021-12-27 14:23:10.145102,-169
2021-12-27 14:23:10.145112,-236
2021-12-27 14:23:10.145121,-199
2021-12-27 14:23:10.145131,-155
2021-12-27 14:23:10.145140,-175
2021-12-27 14:23:10.145150,-201
2021-12-27 14:23:10.145159,-173
2021-12-27 14:23:10.145169,-104
2021-12-27 14:23:10.145178,-74
2021-12-27 14:23:10.145188,-81
2021-12-27 14:23:10.436649,-62
2021-12-27 14:23:10.436679,-41
2021-12-27 14:23:10.436690,-34
2021-12-27 14:23:10.436700,-39
2021-12-27 14:23:10.436710,-30
2021-12-27 14:23:10.436719,-13
2021-12-27 14:23:10.436729,-37
2021-12-27 14:23:10.436739,-67
2021-12-27 14:23:10.436748,-37
2021-12-27 14:23:10.436758,-11
2021-12-27 14:23:10.436767,-46
2021-12-27 14:23:10.436777,-50
2021-12-27 14:23:10.436786,-30
2021-12-27 14:23:10.436796,-78
2021-12-27 14:23:10.436805,-152
2021-12-27 14:23:10.436815,-152
2021-12-27 14:23:10.436824,-90
2021-12-27 14:23:10.436834,-53
2021-12-27 14:23:10.436843,-113
2021-12-27 14:23:10.436853,-201
2021-12-27 14:23:10.436862,-178
2021-12-27 14:23:10.436872,-157
2021-12-27 14:23:10.436881,-250
2021-12-27 14:23:10.436891,-291
2021-12-27 14:23:10.436900,-240
2021-12-27 14:23:10.436910,-245
2021-12-27 14:23:10.436919,-277
2021-12-27 14:23:10.436929,-236
2021-12-27 14:23:10.436954,-189
2021-12-27 14:23:10.436964,-187
2021-12-27 14:23:10.583911,-164
2021-12-27 14:23:10.583972,-169
2021-12-27 14:23:10.583982,-210
2021-12-27 14:23:10.583989,-208
2021-12-27 14:23:10.583995,-180
2021-12-27 14:23:10.584001,-141
2021-12-27 14:23:10.584007,-97
