Time,ECG
2021-12-27 14:32:44.869238,-94
2021-12-27 14:32:44.869259,-120
2021-12-27 14:32:44.869266,-120
2021-12-27 14:32:44.869272,-113
2021-12-27 14:32:44.869278,-99
2021-12-27 14:32:44.869287,-69
2021-12-27 14:32:44.869293,-62
2021-12-27 14:32:44.869299,-90
2021-12-27 14:32:44.869309,-99
2021-12-27 14:32:44.869322,-71
2021-12-27 14:32:44.869333,-46
2021-12-27 14:32:44.869339,-27
2021-12-27 14:32:44.869348,-11
2021-12-27 14:32:44.869358,-34
2021-12-27 14:32:44.869369,-62
2021-12-27 14:32:44.869379,-53
2021-12-27 14:32:44.869390,-32
2021-12-27 14:32:44.869401,-25
2021-12-27 14:32:44.869412,-9
2021-12-27 14:32:44.869423,-4
2021-12-27 14:32:44.869433,-16
2021-12-27 14:32:44.869493,-13
2021-12-27 14:32:44.869552,6
2021-12-27 14:32:44.869565,23
2021-12-27 14:32:44.869572,30
2021-12-27 14:32:44.869578,20
2021-12-27 14:32:44.869585,-16
2021-12-27 14:32:44.869591,-41
2021-12-27 14:32:44.869597,-39
2021-12-27 14:32:44.869604,-48
2021-12-27 14:32:45.065022,-55
2021-12-27 14:32:45.065052,-50
2021-12-27 14:32:45.065063,-92
2021-12-27 14:32:45.065072,-166
2021-12-27 14:32:45.065082,-203
2021-12-27 14:32:45.065091,-194
2021-12-27 14:32:45.065102,-164
2021-12-27 14:32:45.065111,-145
2021-12-27 14:32:45.065121,-162
2021-12-27 14:32:45.065130,-194
2021-12-27 14:32:45.065139,-187
2021-12-27 14:32:45.065149,-157
2021-12-27 14:32:45.065158,-148
2021-12-27 14:32:45.065167,-148
2021-12-27 14:32:45.065177,-155
2021-12-27 14:32:45.065186,-187
2021-12-27 14:32:45.065195,-189
2021-12-27 14:32:45.065206,-148
2021-12-27 14:32:45.065215,-127
2021-12-27 14:32:45.065225,-138
2021-12-27 14:32:45.065234,-164
2021-12-27 14:32:45.065243,-94
2021-12-27 14:32:45.065253,333
2021-12-27 14:32:45.065262,1129
2021-12-27 14:32:45.065272,1859
2021-12-27 14:32:45.065281,1741
2021-12-27 14:32:45.065291,233
2021-12-27 14:32:45.065300,-1143
2021-12-27 14:32:45.065309,-777
2021-12-27 14:32:45.065323,-125
2021-12-27 14:32:45.308673,-270
2021-12-27 14:32:45.308694,-280
2021-12-27 14:32:45.308701,-57
2021-12-27 14:32:45.308708,-85
2021-12-27 14:32:45.308714,-166
2021-12-27 14:32:45.308720,-106
2021-12-27 14:32:45.308726,-48
2021-12-27 14:32:45.308732,-32
2021-12-27 14:32:45.308738,4
2021-12-27 14:32:45.308744,23
2021-12-27 14:32:45.308751,0
2021-12-27 14:32:45.308757,0
2021-12-27 14:32:45.308763,48
2021-12-27 14:32:45.308774,97
2021-12-27 14:32:45.308780,115
2021-12-27 14:32:45.308786,134
2021-12-27 14:32:45.308793,164
2021-12-27 14:32:45.308799,189
2021-12-27 14:32:45.308805,226
2021-12-27 14:32:45.308811,270
2021-12-27 14:32:45.308817,298
2021-12-27 14:32:45.308823,307
2021-12-27 14:32:45.308829,321
2021-12-27 14:32:45.308835,328
2021-12-27 14:32:45.308841,321
2021-12-27 14:32:45.308848,333
2021-12-27 14:32:45.308854,344
2021-12-27 14:32:45.308860,312
2021-12-27 14:32:45.308866,266
2021-12-27 14:32:45.308874,203
2021-12-27 14:32:45.552491,122
2021-12-27 14:32:45.552511,48
2021-12-27 14:32:45.552519,-30
2021-12-27 14:32:45.552525,-111
2021-12-27 14:32:45.552532,-131
2021-12-27 14:32:45.552538,-125
2021-12-27 14:32:45.552544,-155
2021-12-27 14:32:45.552550,-171
2021-12-27 14:32:45.552556,-180
2021-12-27 14:32:45.552562,-203
2021-12-27 14:32:45.552568,-173
2021-12-27 14:32:45.552575,-134
2021-12-27 14:32:45.552581,-148
2021-12-27 14:32:45.552587,-155
2021-12-27 14:32:45.552593,-122
2021-12-27 14:32:45.552599,-99
2021-12-27 14:32:45.552605,-87
2021-12-27 14:32:45.552615,-64
2021-12-27 14:32:45.552621,-55
2021-12-27 14:32:45.552627,-57
2021-12-27 14:32:45.552633,-48
2021-12-27 14:32:45.552639,-41
2021-12-27 14:32:45.552645,-34
2021-12-27 14:32:45.552652,-18
2021-12-27 14:32:45.552658,-13
2021-12-27 14:32:45.552664,-20
2021-12-27 14:32:45.552670,-18
2021-12-27 14:32:45.552676,-9
2021-12-27 14:32:45.552682,0
2021-12-27 14:32:45.552688,11
2021-12-27 14:32:45.843309,18
2021-12-27 14:32:45.843339,11
2021-12-27 14:32:45.843351,-13
2021-12-27 14:32:45.843360,-41
2021-12-27 14:32:45.843370,-55
2021-12-27 14:32:45.843379,-74
2021-12-27 14:32:45.843389,-87
2021-12-27 14:32:45.843406,-104
2021-12-27 14:32:45.843415,-152
2021-12-27 14:32:45.843425,-180
2021-12-27 14:32:45.843434,-155
2021-12-27 14:32:45.843444,-148
2021-12-27 14:32:45.843453,-152
2021-12-27 14:32:45.843462,-162
2021-12-27 14:32:45.843472,-201
2021-12-27 14:32:45.843481,-229
2021-12-27 14:32:45.843491,-208
2021-12-27 14:32:45.843500,-185
2021-12-27 14:32:45.843510,-171
2021-12-27 14:32:45.843519,-155
2021-12-27 14:32:45.843528,-155
2021-12-27 14:32:45.843538,-169
2021-12-27 14:32:45.843547,-182
2021-12-27 14:32:45.843557,-189
2021-12-27 14:32:45.843566,-11
2021-12-27 14:32:45.843575,581
2021-12-27 14:32:45.843585,1430
2021-12-27 14:32:45.843595,2005
2021-12-27 14:32:45.843604,1449
2021-12-27 14:32:45.843615,-307
2021-12-27 14:32:45.991303,-1231
2021-12-27 14:32:45.991323,-520
2021-12-27 14:32:45.991331,-108
2021-12-27 14:32:45.991337,-344
2021-12-27 14:32:45.991343,-208
2021-12-27 14:32:45.991349,-9
2021-12-27 14:32:45.991355,-92
2021-12-27 14:32:45.991362,-118
2021-12-27 14:32:45.991368,-57
2021-12-27 14:32:45.991374,-90
2021-12-27 14:32:45.991380,-113
2021-12-27 14:32:45.991386,-46
2021-12-27 14:32:45.991392,0
2021-12-27 14:32:45.991399,6
2021-12-27 14:32:45.991405,-11
2021-12-27 14:32:45.991411,-67
2021-12-27 14:32:45.991417,-81
2021-12-27 14:32:45.991423,-16
2021-12-27 14:32:45.991429,41
2021-12-27 14:32:45.991435,71
2021-12-27 14:32:45.991442,111
2021-12-27 14:32:45.991448,138
2021-12-27 14:32:45.991454,152
2021-12-27 14:32:45.991460,182
2021-12-27 14:32:45.991471,217
2021-12-27 14:32:45.991478,233
2021-12-27 14:32:45.991484,243
2021-12-27 14:32:45.991490,243
2021-12-27 14:32:45.991496,222
2021-12-27 14:32:45.991502,208
2021-12-27 14:32:46.235065,196
2021-12-27 14:32:46.235095,157
2021-12-27 14:32:46.235106,81
2021-12-27 14:32:46.235116,-9
2021-12-27 14:32:46.235126,-101
2021-12-27 14:32:46.235135,-175
2021-12-27 14:32:46.235145,-199
2021-12-27 14:32:46.235154,-189
2021-12-27 14:32:46.235164,-203
2021-12-27 14:32:46.235173,-229
2021-12-27 14:32:46.235183,-240
2021-12-27 14:32:46.235192,-240
2021-12-27 14:32:46.235202,-224
2021-12-27 14:32:46.235211,-182
2021-12-27 14:32:46.235221,-155
2021-12-27 14:32:46.235230,-141
2021-12-27 14:32:46.235240,-118
2021-12-27 14:32:46.235249,-101
2021-12-27 14:32:46.235258,-94
2021-12-27 14:32:46.235268,-76
2021-12-27 14:32:46.235277,-62
2021-12-27 14:32:46.235286,-62
2021-12-27 14:32:46.235299,-55
2021-12-27 14:32:46.235309,-46
2021-12-27 14:32:46.235318,-48
2021-12-27 14:32:46.235328,-41
2021-12-27 14:32:46.235337,-27
2021-12-27 14:32:46.235346,-32
2021-12-27 14:32:46.235356,-32
2021-12-27 14:32:46.235366,-18
2021-12-27 14:32:46.526937,-16
2021-12-27 14:32:46.526967,-16
2021-12-27 14:32:46.526978,-6
2021-12-27 14:32:46.526988,-11
2021-12-27 14:32:46.526998,-11
2021-12-27 14:32:46.527007,-16
2021-12-27 14:32:46.527017,-64
2021-12-27 14:32:46.527026,-106
2021-12-27 14:32:46.527036,-87
2021-12-27 14:32:46.527045,-78
2021-12-27 14:32:46.527055,-104
2021-12-27 14:32:46.527064,-136
2021-12-27 14:32:46.527073,-175
2021-12-27 14:32:46.527083,-206
2021-12-27 14:32:46.527092,-217
2021-12-27 14:32:46.527102,-222
2021-12-27 14:32:46.527111,-210
2021-12-27 14:32:46.527121,-189
2021-12-27 14:32:46.527130,-187
2021-12-27 14:32:46.527140,-215
2021-12-27 14:32:46.527149,-270
2021-12-27 14:32:46.527159,-312
2021-12-27 14:32:46.527169,-287
2021-12-27 14:32:46.527178,-240
2021-12-27 14:32:46.527196,-231
2021-12-27 14:32:46.527206,-238
2021-12-27 14:32:46.527215,-270
2021-12-27 14:32:46.527225,-280
2021-12-27 14:32:46.527234,-20
2021-12-27 14:32:46.527244,659
2021-12-27 14:32:46.770323,1514
2021-12-27 14:32:46.770350,1947
2021-12-27 14:32:46.770362,1058
2021-12-27 14:32:46.770372,-747
2021-12-27 14:32:46.770381,-1234
2021-12-27 14:32:46.770391,-398
2021-12-27 14:32:46.770400,-185
2021-12-27 14:32:46.770409,-386
2021-12-27 14:32:46.770419,-226
2021-12-27 14:32:46.770428,-141
2021-12-27 14:32:46.770438,-210
2021-12-27 14:32:46.770447,-150
2021-12-27 14:32:46.770456,-90
2021-12-27 14:32:46.770466,-131
2021-12-27 14:32:46.770475,-162
2021-12-27 14:32:46.770485,-150
2021-12-27 14:32:46.770494,-118
2021-12-27 14:32:46.770503,-74
2021-12-27 14:32:46.770513,-37
2021-12-27 14:32:46.770522,-4
2021-12-27 14:32:46.770532,16
2021-12-27 14:32:46.770541,18
2021-12-27 14:32:46.770551,46
2021-12-27 14:32:46.770560,101
2021-12-27 14:32:46.770569,145
2021-12-27 14:32:46.770579,178
2021-12-27 14:32:46.770589,206
2021-12-27 14:32:46.770598,210
2021-12-27 14:32:46.770608,213
2021-12-27 14:32:46.770617,240
2021-12-27 14:32:46.916549,256
2021-12-27 14:32:46.916563,254
2021-12-27 14:32:46.916568,250
2021-12-27 14:32:46.916573,206
2021-12-27 14:32:46.916577,131
2021-12-27 14:32:46.916582,87
2021-12-27 14:32:46.916586,48
2021-12-27 14:32:46.916590,-9
2021-12-27 14:32:46.916595,-67
2021-12-27 14:32:46.916599,-145
2021-12-27 14:32:46.916603,-219
2021-12-27 14:32:46.916607,-217
2021-12-27 14:32:46.916612,-173
2021-12-27 14:32:46.916616,-162
2021-12-27 14:32:46.916620,-173
2021-12-27 14:32:46.916624,-187
2021-12-27 14:32:46.916629,-187
2021-12-27 14:32:46.916633,-155
2021-12-27 14:32:46.916637,-120
2021-12-27 14:32:46.916642,-99
2021-12-27 14:32:46.916646,-81
2021-12-27 14:32:46.916650,-74
2021-12-27 14:32:46.916654,-81
2021-12-27 14:32:46.916659,-83
2021-12-27 14:32:46.916663,-64
2021-12-27 14:32:46.916667,-71
2021-12-27 14:32:46.916671,-125
2021-12-27 14:32:46.916676,-152
2021-12-27 14:32:46.916680,-134
2021-12-27 14:32:46.916684,-129
2021-12-27 14:32:47.160754,-122
2021-12-27 14:32:47.160786,-94
2021-12-27 14:32:47.160799,-85
2021-12-27 14:32:47.160834,-90
2021-12-27 14:32:47.160867,-90
2021-12-27 14:32:47.160879,-106
2021-12-27 14:32:47.160890,-120
2021-12-27 14:32:47.160901,-97
2021-12-27 14:32:47.160912,-90
2021-12-27 14:32:47.160923,-118
2021-12-27 14:32:47.160939,-120
2021-12-27 14:32:47.160950,-120
2021-12-27 14:32:47.160962,-145
2021-12-27 14:32:47.160973,-141
2021-12-27 14:32:47.160984,-134
2021-12-27 14:32:47.160995,-164
2021-12-27 14:32:47.161006,-182
2021-12-27 14:32:47.161017,-203
2021-12-27 14:32:47.161028,-226
2021-12-27 14:32:47.161039,-206
2021-12-27 14:32:47.161050,-175
2021-12-27 14:32:47.161061,-169
2021-12-27 14:32:47.161072,-157
2021-12-27 14:32:47.161083,-145
2021-12-27 14:32:47.161094,-155
2021-12-27 14:32:47.161106,-162
2021-12-27 14:32:47.161117,-152
2021-12-27 14:32:47.161129,-143
2021-12-27 14:32:47.161140,-131
2021-12-27 14:32:47.161152,-113
2021-12-27 14:32:47.405092,-101
2021-12-27 14:32:47.405122,-111
2021-12-27 14:32:47.405133,-141
2021-12-27 14:32:47.405143,-99
2021-12-27 14:32:47.405152,263
2021-12-27 14:32:47.405162,995
2021-12-27 14:32:47.405171,1743
2021-12-27 14:32:47.405180,1817
2021-12-27 14:32:47.405190,507
2021-12-27 14:32:47.405199,-1048
2021-12-27 14:32:47.405208,-937
2021-12-27 14:32:47.405218,-187
2021-12-27 14:32:47.405227,-243
2021-12-27 14:32:47.405237,-335
2021-12-27 14:32:47.405246,-120
2021-12-27 14:32:47.405255,-92
2021-12-27 14:32:47.405264,-143
2021-12-27 14:32:47.405274,-57
2021-12-27 14:32:47.405283,-9
2021-12-27 14:32:47.405292,-46
2021-12-27 14:32:47.405301,-43
2021-12-27 14:32:47.405311,-4
2021-12-27 14:32:47.405320,20
2021-12-27 14:32:47.405330,48
2021-12-27 14:32:47.405339,83
2021-12-27 14:32:47.405354,106
2021-12-27 14:32:47.405363,113
2021-12-27 14:32:47.405373,131
2021-12-27 14:32:47.405382,171
2021-12-27 14:32:47.405391,206
2021-12-27 14:32:47.600108,233
2021-12-27 14:32:47.600138,250
2021-12-27 14:32:47.600149,222
2021-12-27 14:32:47.600159,182
2021-12-27 14:32:47.600168,201
2021-12-27 14:32:47.600177,233
2021-12-27 14:32:47.600187,233
2021-12-27 14:32:47.600196,231
2021-12-27 14:32:47.600205,206
2021-12-27 14:32:47.600215,148
2021-12-27 14:32:47.600224,113
2021-12-27 14:32:47.600234,94
2021-12-27 14:32:47.600243,48
2021-12-27 14:32:47.600253,-2
2021-12-27 14:32:47.600262,-60
2021-12-27 14:32:47.600271,-138
2021-12-27 14:32:47.600281,-173
2021-12-27 14:32:47.600290,-148
2021-12-27 14:32:47.600299,-127
2021-12-27 14:32:47.600309,-120
2021-12-27 14:32:47.600318,-120
2021-12-27 14:32:47.600327,-141
2021-12-27 14:32:47.600337,-143
2021-12-27 14:32:47.600346,-104
2021-12-27 14:32:47.600355,-67
2021-12-27 14:32:47.600365,-48
2021-12-27 14:32:47.600374,-34
2021-12-27 14:32:47.600384,-43
2021-12-27 14:32:47.600393,-53
2021-12-27 14:32:47.600402,-30
2021-12-27 14:32:47.890443,0
2021-12-27 14:32:47.890463,4
2021-12-27 14:32:47.890469,0
2021-12-27 14:32:47.890474,-23
2021-12-27 14:32:47.890479,-62
2021-12-27 14:32:47.890484,-67
2021-12-27 14:32:47.890489,-37
2021-12-27 14:32:47.890494,-20
2021-12-27 14:32:47.890499,-20
2021-12-27 14:32:47.890503,-32
2021-12-27 14:32:47.890508,-76
2021-12-27 14:32:47.890513,-118
2021-12-27 14:32:47.890517,-104
2021-12-27 14:32:47.890522,-76
2021-12-27 14:32:47.890527,-71
2021-12-27 14:32:47.890532,-71
2021-12-27 14:32:47.890544,-83
2021-12-27 14:32:47.890549,-111
2021-12-27 14:32:47.890554,-113
2021-12-27 14:32:47.890559,-104
2021-12-27 14:32:47.890564,-122
2021-12-27 14:32:47.890569,-134
2021-12-27 14:32:47.890574,-129
2021-12-27 14:32:47.890579,-143
2021-12-27 14:32:47.890583,-143
2021-12-27 14:32:47.890588,-108
2021-12-27 14:32:47.890593,-92
2021-12-27 14:32:47.890598,-94
2021-12-27 14:32:47.890602,-81
2021-12-27 14:32:47.890607,-69
2021-12-27 14:32:48.087634,-74
2021-12-27 14:32:48.087664,-69
2021-12-27 14:32:48.087676,-71
2021-12-27 14:32:48.087685,-76
2021-12-27 14:32:48.087695,-60
2021-12-27 14:32:48.087704,-62
2021-12-27 14:32:48.087714,-97
2021-12-27 14:32:48.087723,-118
2021-12-27 14:32:48.087733,-169
2021-12-27 14:32:48.087742,-219
2021-12-27 14:32:48.087752,-55
2021-12-27 14:32:48.087761,472
2021-12-27 14:32:48.087771,1208
2021-12-27 14:32:48.087781,1798
2021-12-27 14:32:48.087790,1465
2021-12-27 14:32:48.087800,-157
2021-12-27 14:32:48.087809,-1238
2021-12-27 14:32:48.087819,-636
2021-12-27 14:32:48.087829,-141
2021-12-27 14:32:48.087838,-338
2021-12-27 14:32:48.087848,-236
2021-12-27 14:32:48.087857,-39
2021-12-27 14:32:48.087867,-99
2021-12-27 14:32:48.087876,-94
2021-12-27 14:32:48.087886,-9
2021-12-27 14:32:48.087895,-25
2021-12-27 14:32:48.087904,-46
2021-12-27 14:32:48.087914,4
2021-12-27 14:32:48.087924,41
2021-12-27 14:32:48.087933,55
2021-12-27 14:32:48.379532,81
2021-12-27 14:32:48.379562,99
2021-12-27 14:32:48.379574,115
2021-12-27 14:32:48.379583,138
2021-12-27 14:32:48.379592,169
2021-12-27 14:32:48.379602,206
2021-12-27 14:32:48.379611,236
2021-12-27 14:32:48.379620,238
2021-12-27 14:32:48.379630,222
2021-12-27 14:32:48.379639,238
2021-12-27 14:32:48.379649,277
2021-12-27 14:32:48.379658,305
2021-12-27 14:32:48.379668,317
2021-12-27 14:32:48.379770,300
2021-12-27 14:32:48.379789,256
2021-12-27 14:32:48.379799,233
2021-12-27 14:32:48.379809,236
2021-12-27 14:32:48.379819,210
2021-12-27 14:32:48.379828,155
2021-12-27 14:32:48.379838,90
2021-12-27 14:32:48.379848,18
2021-12-27 14:32:48.379857,-50
2021-12-27 14:32:48.379867,-85
2021-12-27 14:32:48.379876,-85
2021-12-27 14:32:48.379886,-83
2021-12-27 14:32:48.379895,-76
2021-12-27 14:32:48.379905,-69
2021-12-27 14:32:48.379914,-85
2021-12-27 14:32:48.379924,-87
2021-12-27 14:32:48.379933,-55
2021-12-27 14:32:48.526465,-25
2021-12-27 14:32:48.526486,-9
2021-12-27 14:32:48.526493,-4
2021-12-27 14:32:48.526500,-16
2021-12-27 14:32:48.526506,-9
2021-12-27 14:32:48.526513,20
2021-12-27 14:32:48.526519,34
2021-12-27 14:32:48.526525,37
2021-12-27 14:32:48.526531,39
2021-12-27 14:32:48.526537,13
2021-12-27 14:32:48.526543,-4
2021-12-27 14:32:48.526549,20
2021-12-27 14:32:48.526556,20
2021-12-27 14:32:48.526562,-43
2021-12-27 14:32:48.526568,-115
2021-12-27 14:32:48.526574,-155
2021-12-27 14:32:48.526580,-169
2021-12-27 14:32:48.526586,-152
2021-12-27 14:32:48.526592,-129
2021-12-27 14:32:48.526599,-129
2021-12-27 14:32:48.526605,-150
2021-12-27 14:32:48.526611,-178
2021-12-27 14:32:48.526617,-203
2021-12-27 14:32:48.526623,-208
2021-12-27 14:32:48.526629,-187
2021-12-27 14:32:48.526635,-164
2021-12-27 14:32:48.526642,-159
2021-12-27 14:32:48.526648,-164
2021-12-27 14:32:48.526654,-162
2021-12-27 14:32:48.526660,-159
2021-12-27 14:32:48.867533,-164
2021-12-27 14:32:48.867553,-152
2021-12-27 14:32:48.867561,-131
2021-12-27 14:32:48.867567,-127
2021-12-27 14:32:48.867573,-145
2021-12-27 14:32:48.867579,-169
2021-12-27 14:32:48.867586,-157
2021-12-27 14:32:48.867592,-138
2021-12-27 14:32:48.867598,-143
2021-12-27 14:32:48.867604,-136
2021-12-27 14:32:48.867610,-131
2021-12-27 14:32:48.867616,-157
2021-12-27 14:32:48.867623,-148
2021-12-27 14:32:48.867629,-111
2021-12-27 14:32:48.867635,-127
2021-12-27 14:32:48.867641,-155
2021-12-27 14:32:48.867647,48
2021-12-27 14:32:48.867657,659
2021-12-27 14:32:48.867664,1495
2021-12-27 14:32:48.867670,2035
2021-12-27 14:32:48.867676,1382
2021-12-27 14:32:48.867682,-412
2021-12-27 14:32:48.867689,-1213
2021-12-27 14:32:48.867695,-458
2021-12-27 14:32:48.867701,-108
2021-12-27 14:32:48.867707,-312
2021-12-27 14:32:48.867714,-141
2021-12-27 14:32:48.867720,25
2021-12-27 14:32:48.867726,-50
2021-12-27 14:32:48.867732,-39
2021-12-27 14:32:49.013880,20
2021-12-27 14:32:49.013903,-9
2021-12-27 14:32:49.013910,-23
2021-12-27 14:32:49.013917,16
2021-12-27 14:32:49.013923,39
2021-12-27 14:32:49.013929,55
2021-12-27 14:32:49.013935,83
2021-12-27 14:32:49.013941,111
2021-12-27 14:32:49.013948,138
2021-12-27 14:32:49.013954,159
2021-12-27 14:32:49.013960,187
2021-12-27 14:32:49.013966,222
2021-12-27 14:32:49.013972,219
2021-12-27 14:32:49.013979,203
2021-12-27 14:32:49.013985,240
2021-12-27 14:32:49.013991,277
2021-12-27 14:32:49.013997,287
2021-12-27 14:32:49.014004,305
2021-12-27 14:32:49.014010,300
2021-12-27 14:32:49.014016,243
2021-12-27 14:32:49.014022,210
2021-12-27 14:32:49.014029,222
2021-12-27 14:32:49.014035,206
2021-12-27 14:32:49.014041,152
2021-12-27 14:32:49.014047,81
2021-12-27 14:32:49.014053,-20
2021-12-27 14:32:49.014060,-113
2021-12-27 14:32:49.014066,-157
2021-12-27 14:32:49.014072,-173
2021-12-27 14:32:49.014078,-180
2021-12-27 14:32:49.208883,-166
2021-12-27 14:32:49.208906,-162
2021-12-27 14:32:49.208913,-173
2021-12-27 14:32:49.208920,-185
2021-12-27 14:32:49.208926,-180
2021-12-27 14:32:49.208932,-148
2021-12-27 14:32:49.208938,-115
2021-12-27 14:32:49.208944,-125
2021-12-27 14:32:49.208950,-155
2021-12-27 14:32:49.208956,-152
2021-12-27 14:32:49.208963,-115
2021-12-27 14:32:49.208969,-99
2021-12-27 14:32:49.208975,-90
2021-12-27 14:32:49.208981,-83
2021-12-27 14:32:49.208987,-118
2021-12-27 14:32:49.208994,-152
2021-12-27 14:32:49.209000,-145
2021-12-27 14:32:49.209006,-145
2021-12-27 14:32:49.209012,-155
2021-12-27 14:32:49.209019,-141
2021-12-27 14:32:49.209025,-141
2021-12-27 14:32:49.209031,-166
2021-12-27 14:32:49.209037,-175
2021-12-27 14:32:49.209043,-173
2021-12-27 14:32:49.209049,-175
2021-12-27 14:32:49.209056,-182
2021-12-27 14:32:49.209062,-203
2021-12-27 14:32:49.209068,-222
2021-12-27 14:32:49.209074,-215
2021-12-27 14:32:49.209084,-192
2021-12-27 14:32:49.452607,-169
2021-12-27 14:32:49.452628,-155
2021-12-27 14:32:49.452635,-162
2021-12-27 14:32:49.452642,-196
2021-12-27 14:32:49.452648,-210
2021-12-27 14:32:49.452654,-208
2021-12-27 14:32:49.452660,-213
2021-12-27 14:32:49.452666,-187
2021-12-27 14:32:49.452672,-159
2021-12-27 14:32:49.452679,-194
2021-12-27 14:32:49.452685,-238
2021-12-27 14:32:49.452691,-226
2021-12-27 14:32:49.452697,-201
2021-12-27 14:32:49.452703,-187
2021-12-27 14:32:49.452709,-169
2021-12-27 14:32:49.452716,-166
2021-12-27 14:32:49.452722,-171
2021-12-27 14:32:49.452728,-159
2021-12-27 14:32:49.452734,-171
2021-12-27 14:32:49.452741,-180
2021-12-27 14:32:49.452747,48
2021-12-27 14:32:49.452753,676
2021-12-27 14:32:49.452759,1477
2021-12-27 14:32:49.452766,1933
2021-12-27 14:32:49.452772,1162
2021-12-27 14:32:49.452778,-643
2021-12-27 14:32:49.452784,-1294
2021-12-27 14:32:49.452790,-488
2021-12-27 14:32:49.452796,-215
2021-12-27 14:32:49.452803,-421
2021-12-27 14:32:49.696530,-222
2021-12-27 14:32:49.696551,-64
2021-12-27 14:32:49.696558,-145
2021-12-27 14:32:49.696564,-120
2021-12-27 14:32:49.696571,-62
2021-12-27 14:32:49.696577,-101
2021-12-27 14:32:49.696583,-104
2021-12-27 14:32:49.696589,-67
2021-12-27 14:32:49.696595,-74
2021-12-27 14:32:49.696601,-69
2021-12-27 14:32:49.696608,-34
2021-12-27 14:32:49.696614,-34
2021-12-27 14:32:49.696620,-34
2021-12-27 14:32:49.696626,20
2021-12-27 14:32:49.696632,69
2021-12-27 14:32:49.696638,87
2021-12-27 14:32:49.696644,120
2021-12-27 14:32:49.696651,157
2021-12-27 14:32:49.696657,178
2021-12-27 14:32:49.696663,203
2021-12-27 14:32:49.696669,231
2021-12-27 14:32:49.696675,236
2021-12-27 14:32:49.696681,238
2021-12-27 14:32:49.696688,243
2021-12-27 14:32:49.696694,233
2021-12-27 14:32:49.696700,224
2021-12-27 14:32:49.696706,208
2021-12-27 14:32:49.696712,150
2021-12-27 14:32:49.696718,78
2021-12-27 14:32:49.696725,20
2021-12-27 14:32:49.987767,-39
2021-12-27 14:32:49.987796,-90
2021-12-27 14:32:49.987807,-111
2021-12-27 14:32:49.987817,-122
2021-12-27 14:32:49.987827,-127
2021-12-27 14:32:49.987836,-108
2021-12-27 14:32:49.987846,-111
2021-12-27 14:32:49.987855,-136
2021-12-27 14:32:49.987865,-131
2021-12-27 14:32:49.987874,-129
2021-12-27 14:32:49.987884,-145
2021-12-27 14:32:49.987893,-122
2021-12-27 14:32:49.987903,-99
2021-12-27 14:32:49.987912,-127
2021-12-27 14:32:49.987922,-138
2021-12-27 14:32:49.987931,-115
2021-12-27 14:32:49.987941,-97
2021-12-27 14:32:49.987950,-83
2021-12-27 14:32:49.987960,-67
2021-12-27 14:32:49.987969,-78
2021-12-27 14:32:49.987986,-113
2021-12-27 14:32:49.987996,-136
2021-12-27 14:32:49.988006,-120
2021-12-27 14:32:49.988015,-92
2021-12-27 14:32:49.988025,-87
2021-12-27 14:32:49.988035,-97
2021-12-27 14:32:49.988044,-127
2021-12-27 14:32:49.988054,-150
2021-12-27 14:32:49.988063,-150
2021-12-27 14:32:49.988073,-159
2021-12-27 14:32:50.135368,-201
2021-12-27 14:32:50.135397,-247
2021-12-27 14:32:50.135409,-263
2021-12-27 14:32:50.135418,-252
2021-12-27 14:32:50.135428,-231
2021-12-27 14:32:50.135437,-210
2021-12-27 14:32:50.135446,-192
2021-12-27 14:32:50.135456,-182
2021-12-27 14:32:50.135465,-196
2021-12-27 14:32:50.135475,-206
2021-12-27 14:32:50.135484,-194
2021-12-27 14:32:50.135494,-189
2021-12-27 14:32:50.135503,-192
2021-12-27 14:32:50.135513,-173
2021-12-27 14:32:50.135522,-185
2021-12-27 14:32:50.135532,-236
2021-12-27 14:32:50.135541,-236
2021-12-27 14:32:50.135550,-199
2021-12-27 14:32:50.135560,-178
2021-12-27 14:32:50.135569,-159
2021-12-27 14:32:50.135579,-152
2021-12-27 14:32:50.135588,-175
2021-12-27 14:32:50.135597,-180
2021-12-27 14:32:50.135607,-178
2021-12-27 14:32:50.135616,-159
2021-12-27 14:32:50.135626,113
2021-12-27 14:32:50.135635,780
2021-12-27 14:32:50.135645,1551
2021-12-27 14:32:50.135654,1868
2021-12-27 14:32:50.135664,935
2021-12-27 14:32:50.427019,-731
2021-12-27 14:32:50.427038,-1062
2021-12-27 14:32:50.427046,-282
2021-12-27 14:32:50.427052,-178
2021-12-27 14:32:50.427058,-368
2021-12-27 14:32:50.427064,-152
2021-12-27 14:32:50.427071,-39
2021-12-27 14:32:50.427077,-115
2021-12-27 14:32:50.427083,-67
2021-12-27 14:32:50.427089,-18
2021-12-27 14:32:50.427095,-67
2021-12-27 14:32:50.427101,-64
2021-12-27 14:32:50.427107,-2
2021-12-27 14:32:50.427114,-4
2021-12-27 14:32:50.427120,-30
2021-12-27 14:32:50.427126,-11
2021-12-27 14:32:50.427132,13
2021-12-27 14:32:50.427138,37
2021-12-27 14:32:50.427144,81
2021-12-27 14:32:50.427150,125
2021-12-27 14:32:50.427157,148
2021-12-27 14:32:50.427163,180
2021-12-27 14:32:50.427169,208
2021-12-27 14:32:50.427175,224
2021-12-27 14:32:50.427181,243
2021-12-27 14:32:50.427192,263
2021-12-27 14:32:50.427203,275
2021-12-27 14:32:50.427215,270
2021-12-27 14:32:50.427226,261
2021-12-27 14:32:50.427239,256
2021-12-27 14:32:50.671505,252
2021-12-27 14:32:50.671535,236
2021-12-27 14:32:50.671546,189
2021-12-27 14:32:50.671556,118
2021-12-27 14:32:50.671565,55
2021-12-27 14:32:50.671575,0
2021-12-27 14:32:50.671584,-78
2021-12-27 14:32:50.671593,-152
2021-12-27 14:32:50.671603,-175
2021-12-27 14:32:50.671612,-159
2021-12-27 14:32:50.671621,-145
2021-12-27 14:32:50.671631,-150
2021-12-27 14:32:50.671640,-164
2021-12-27 14:32:50.671649,-148
2021-12-27 14:32:50.671659,-120
2021-12-27 14:32:50.671668,-136
2021-12-27 14:32:50.671677,-155
2021-12-27 14:32:50.671687,-136
2021-12-27 14:32:50.671696,-141
2021-12-27 14:32:50.671705,-150
2021-12-27 14:32:50.671715,-127
2021-12-27 14:32:50.671724,-111
2021-12-27 14:32:50.671738,-106
2021-12-27 14:32:50.671748,-92
2021-12-27 14:32:50.671757,-85
2021-12-27 14:32:50.671766,-94
2021-12-27 14:32:50.671776,-111
2021-12-27 14:32:50.671785,-127
2021-12-27 14:32:50.671795,-113
2021-12-27 14:32:50.671804,-85
2021-12-27 14:32:50.866388,-85
2021-12-27 14:32:50.866417,-111
2021-12-27 14:32:50.866428,-127
2021-12-27 14:32:50.866438,-134
2021-12-27 14:32:50.866448,-143
2021-12-27 14:32:50.866457,-152
2021-12-27 14:32:50.866467,-157
2021-12-27 14:32:50.866476,-180
2021-12-27 14:32:50.866486,-201
2021-12-27 14:32:50.866495,-182
2021-12-27 14:32:50.866505,-157
2021-12-27 14:32:50.866514,-143
2021-12-27 14:32:50.866523,-129
2021-12-27 14:32:50.866533,-125
2021-12-27 14:32:50.866542,-127
2021-12-27 14:32:50.866551,-118
2021-12-27 14:32:50.866561,-106
2021-12-27 14:32:50.866570,-101
2021-12-27 14:32:50.866579,-106
2021-12-27 14:32:50.866589,-120
2021-12-27 14:32:50.866598,-145
2021-12-27 14:32:50.866607,-159
2021-12-27 14:32:50.866617,-150
2021-12-27 14:32:50.866626,-127
2021-12-27 14:32:50.866635,-97
2021-12-27 14:32:50.866645,-78
2021-12-27 14:32:50.866654,-83
2021-12-27 14:32:50.866664,-87
2021-12-27 14:32:50.866673,-99
2021-12-27 14:32:50.866682,-99
2021-12-27 14:32:51.061632,92
2021-12-27 14:32:51.061662,664
2021-12-27 14:32:51.061673,1442
2021-12-27 14:32:51.061683,1961
2021-12-27 14:32:51.061692,1426
2021-12-27 14:32:51.061702,-229
2021-12-27 14:32:51.061711,-1092
2021-12-27 14:32:51.061721,-437
2021-12-27 14:32:51.061730,-76
2021-12-27 14:32:51.061740,-314
2021-12-27 14:32:51.061749,-185
2021-12-27 14:32:51.061759,13
2021-12-27 14:32:51.061768,-85
2021-12-27 14:32:51.061777,-136
2021-12-27 14:32:51.061787,-62
2021-12-27 14:32:51.061796,-71
2021-12-27 14:32:51.061806,-99
2021-12-27 14:32:51.061815,-37
2021-12-27 14:32:51.061825,13
2021-12-27 14:32:51.061834,6
2021-12-27 14:32:51.061844,0
2021-12-27 14:32:51.061853,13
2021-12-27 14:32:51.061863,41
2021-12-27 14:32:51.061873,83
2021-12-27 14:32:51.061882,127
2021-12-27 14:32:51.061892,169
2021-12-27 14:32:51.061901,206
2021-12-27 14:32:51.061911,222
2021-12-27 14:32:51.061921,226
2021-12-27 14:32:51.061930,250
2021-12-27 14:32:51.353543,284
2021-12-27 14:32:51.353566,303
2021-12-27 14:32:51.353574,303
2021-12-27 14:32:51.353580,287
2021-12-27 14:32:51.353637,250
2021-12-27 14:32:51.353655,226
2021-12-27 14:32:51.353662,229
2021-12-27 14:32:51.353669,208
2021-12-27 14:32:51.353675,141
2021-12-27 14:32:51.353681,62
2021-12-27 14:32:51.353687,-30
2021-12-27 14:32:51.353693,-108
2021-12-27 14:32:51.353699,-129
2021-12-27 14:32:51.353706,-118
2021-12-27 14:32:51.353712,-122
2021-12-27 14:32:51.353718,-122
2021-12-27 14:32:51.353724,-111
2021-12-27 14:32:51.353730,-101
2021-12-27 14:32:51.353736,-78
2021-12-27 14:32:51.353742,-43
2021-12-27 14:32:51.353748,-32
2021-12-27 14:32:51.353754,-50
2021-12-27 14:32:51.353760,-71
2021-12-27 14:32:51.353766,-64
2021-12-27 14:32:51.353772,-43
2021-12-27 14:32:51.353779,-25
2021-12-27 14:32:51.353785,-16
2021-12-27 14:32:51.353791,-18
2021-12-27 14:32:51.353797,-13
2021-12-27 14:32:51.353803,-11
2021-12-27 14:32:51.549156,-18
2021-12-27 14:32:51.549177,-9
2021-12-27 14:32:51.549184,-6
2021-12-27 14:32:51.549190,-34
2021-12-27 14:32:51.549197,-48
2021-12-27 14:32:51.549206,-43
2021-12-27 14:32:51.549212,-57
2021-12-27 14:32:51.549219,-62
2021-12-27 14:32:51.549225,-60
2021-12-27 14:32:51.549231,-81
2021-12-27 14:32:51.549237,-94
2021-12-27 14:32:51.549243,-108
2021-12-27 14:32:51.549249,-159
2021-12-27 14:32:51.549255,-178
2021-12-27 14:32:51.549261,-150
2021-12-27 14:32:51.549268,-145
2021-12-27 14:32:51.549274,-152
2021-12-27 14:32:51.549280,-150
2021-12-27 14:32:51.549286,-187
2021-12-27 14:32:51.549292,-229
2021-12-27 14:32:51.549298,-206
2021-12-27 14:32:51.549304,-171
2021-12-27 14:32:51.549310,-159
2021-12-27 14:32:51.549316,-164
2021-12-27 14:32:51.549322,-194
2021-12-27 14:32:51.549328,-217
2021-12-27 14:32:51.549334,-210
2021-12-27 14:32:51.549340,-192
2021-12-27 14:32:51.549346,-175
2021-12-27 14:32:51.549352,-145
2021-12-27 14:32:51.792720,-127
2021-12-27 14:32:51.792741,-136
2021-12-27 14:32:51.792748,-171
2021-12-27 14:32:51.792755,-192
2021-12-27 14:32:51.792761,0
2021-12-27 14:32:51.792767,611
2021-12-27 14:32:51.792774,1460
2021-12-27 14:32:51.792780,2005
2021-12-27 14:32:51.792786,1375
2021-12-27 14:32:51.792792,-416
2021-12-27 14:32:51.792798,-1259
2021-12-27 14:32:51.792804,-497
2021-12-27 14:32:51.792811,-104
2021-12-27 14:32:51.792817,-338
2021-12-27 14:32:51.792823,-236
2021-12-27 14:32:51.792829,-87
2021-12-27 14:32:51.792835,-143
2021-12-27 14:32:51.792841,-113
2021-12-27 14:32:51.792848,-25
2021-12-27 14:32:51.792854,-18
2021-12-27 14:32:51.792860,-25
2021-12-27 14:32:51.792866,-4
2021-12-27 14:32:51.792872,20
2021-12-27 14:32:51.792878,53
2021-12-27 14:32:51.792884,87
2021-12-27 14:32:51.792891,97
2021-12-27 14:32:51.792897,78
2021-12-27 14:32:51.792903,71
2021-12-27 14:32:51.792909,108
2021-12-27 14:32:51.792916,155
2021-12-27 14:32:52.035149,189
2021-12-27 14:32:52.035180,226
2021-12-27 14:32:52.035192,250
2021-12-27 14:32:52.035202,247
2021-12-27 14:32:52.035212,254
2021-12-27 14:32:52.035222,280
2021-12-27 14:32:52.035232,294
2021-12-27 14:32:52.035241,298
2021-12-27 14:32:52.035250,289
2021-12-27 14:32:52.035260,236
2021-12-27 14:32:52.035269,162
2021-12-27 14:32:52.035279,113
2021-12-27 14:32:52.035288,69
2021-12-27 14:32:52.035298,23
2021-12-27 14:32:52.035307,-6
2021-12-27 14:32:52.035317,-69
2021-12-27 14:32:52.035326,-162
2021-12-27 14:32:52.035336,-180
2021-12-27 14:32:52.035345,-125
2021-12-27 14:32:52.035355,-94
2021-12-27 14:32:52.035364,-118
2021-12-27 14:32:52.035374,-131
2021-12-27 14:32:52.035383,-94
2021-12-27 14:32:52.035393,-90
2021-12-27 14:32:52.035403,-129
2021-12-27 14:32:52.035413,-122
2021-12-27 14:32:52.035422,-90
2021-12-27 14:32:52.035432,-94
2021-12-27 14:32:52.035441,-92
2021-12-27 14:32:52.035451,-60
2021-12-27 14:32:52.231440,-30
2021-12-27 14:32:52.231460,-18
2021-12-27 14:32:52.231468,-20
2021-12-27 14:32:52.231474,-37
2021-12-27 14:32:52.231480,-62
2021-12-27 14:32:52.231486,-87
2021-12-27 14:32:52.231492,-97
2021-12-27 14:32:52.231499,-94
2021-12-27 14:32:52.231505,-122
2021-12-27 14:32:52.231511,-169
2021-12-27 14:32:52.231517,-182
2021-12-27 14:32:52.231523,-180
2021-12-27 14:32:52.231529,-189
2021-12-27 14:32:52.231535,-187
2021-12-27 14:32:52.231541,-189
2021-12-27 14:32:52.231547,-215
2021-12-27 14:32:52.231553,-233
2021-12-27 14:32:52.231560,-254
2021-12-27 14:32:52.231566,-256
2021-12-27 14:32:52.231572,-194
2021-12-27 14:32:52.231578,-122
2021-12-27 14:32:52.231584,-90
2021-12-27 14:32:52.231590,-53
2021-12-27 14:32:52.231596,-48
2021-12-27 14:32:52.231603,-92
2021-12-27 14:32:52.231609,-85
2021-12-27 14:32:52.231615,-39
2021-12-27 14:32:52.231621,-64
2021-12-27 14:32:52.231627,-97
2021-12-27 14:32:52.231633,-87
2021-12-27 14:32:52.475443,-92
2021-12-27 14:32:52.475467,-118
2021-12-27 14:32:52.475474,-118
2021-12-27 14:32:52.475481,-99
2021-12-27 14:32:52.475487,-87
2021-12-27 14:32:52.475493,-64
2021-12-27 14:32:52.475499,-76
2021-12-27 14:32:52.475505,-143
2021-12-27 14:32:52.475511,-150
2021-12-27 14:32:52.475517,48
2021-12-27 14:32:52.475524,557
2021-12-27 14:32:52.475530,1298
2021-12-27 14:32:52.475536,1829
2021-12-27 14:32:52.475542,1271
2021-12-27 14:32:52.475548,-393
2021-12-27 14:32:52.475554,-1187
2021-12-27 14:32:52.475560,-474
2021-12-27 14:32:52.475567,-78
2021-12-27 14:32:52.475573,-275
2021-12-27 14:32:52.475579,-173
2021-12-27 14:32:52.475585,-25
2021-12-27 14:32:52.475591,-87
2021-12-27 14:32:52.475597,-101
2021-12-27 14:32:52.475603,-57
2021-12-27 14:32:52.475609,-71
2021-12-27 14:32:52.475615,-67
2021-12-27 14:32:52.475622,-11
2021-12-27 14:32:52.475628,4
2021-12-27 14:32:52.475634,-13
2021-12-27 14:32:52.475640,-23
2021-12-27 14:32:52.767744,-25
2021-12-27 14:32:52.767766,-9
2021-12-27 14:32:52.767773,20
2021-12-27 14:32:52.767779,41
2021-12-27 14:32:52.767785,57
2021-12-27 14:32:52.767791,111
2021-12-27 14:32:52.767797,208
2021-12-27 14:32:52.767804,252
2021-12-27 14:32:52.767810,182
2021-12-27 14:32:52.767816,157
2021-12-27 14:32:52.767822,236
2021-12-27 14:32:52.767828,263
2021-12-27 14:32:52.767834,238
2021-12-27 14:32:52.767840,240
2021-12-27 14:32:52.767846,199
2021-12-27 14:32:52.767852,111
2021-12-27 14:32:52.767859,87
2021-12-27 14:32:52.767865,74
2021-12-27 14:32:52.767871,-4
2021-12-27 14:32:52.767877,-55
2021-12-27 14:32:52.767883,-74
2021-12-27 14:32:52.767889,-125
2021-12-27 14:32:52.767895,-145
2021-12-27 14:32:52.767901,-118
2021-12-27 14:32:52.767907,-99
2021-12-27 14:32:52.767913,-55
2021-12-27 14:32:52.767919,-6
2021-12-27 14:32:52.767925,-27
2021-12-27 14:32:52.767931,-46
2021-12-27 14:32:52.767937,11
2021-12-27 14:32:52.962642,69
2021-12-27 14:32:52.962671,67
2021-12-27 14:32:52.962678,48
2021-12-27 14:32:52.962685,30
2021-12-27 14:32:52.962691,-4
2021-12-27 14:32:52.962697,-9
2021-12-27 14:32:52.962704,25
2021-12-27 14:32:52.962710,43
2021-12-27 14:32:52.962716,34
2021-12-27 14:32:52.962722,11
2021-12-27 14:32:52.962729,11
2021-12-27 14:32:52.962735,37
2021-12-27 14:32:52.962741,20
2021-12-27 14:32:52.962747,-11
2021-12-27 14:32:52.962753,-9
2021-12-27 14:32:52.962760,-16
2021-12-27 14:32:52.962766,-57
2021-12-27 14:32:52.962772,-81
2021-12-27 14:32:52.962778,-74
2021-12-27 14:32:52.962784,-81
2021-12-27 14:32:52.962791,-94
2021-12-27 14:32:52.962797,-113
2021-12-27 14:32:52.962803,-152
2021-12-27 14:32:52.962809,-178
2021-12-27 14:32:52.962815,-159
2021-12-27 14:32:52.962822,-127
2021-12-27 14:32:52.962828,-118
2021-12-27 14:32:52.962834,-125
2021-12-27 14:32:52.962840,-113
2021-12-27 14:32:52.962846,-90
2021-12-27 14:32:53.206719,-81
2021-12-27 14:32:53.206740,-64
2021-12-27 14:32:53.206747,-41
2021-12-27 14:32:53.206753,-48
2021-12-27 14:32:53.206759,-94
2021-12-27 14:32:53.206765,-162
2021-12-27 14:32:53.206771,-201
2021-12-27 14:32:53.206777,-175
2021-12-27 14:32:53.206783,-138
2021-12-27 14:32:53.206789,-127
2021-12-27 14:32:53.206795,-120
2021-12-27 14:32:53.206801,-115
2021-12-27 14:32:53.206807,-143
2021-12-27 14:32:53.206813,-152
2021-12-27 14:32:53.206820,-4
2021-12-27 14:32:53.206826,495
2021-12-27 14:32:53.206832,1273
2021-12-27 14:32:53.206838,1898
2021-12-27 14:32:53.206844,1544
2021-12-27 14:32:53.206850,-74
2021-12-27 14:32:53.206856,-1162
2021-12-27 14:32:53.206862,-615
2021-12-27 14:32:53.206868,-122
2021-12-27 14:32:53.206874,-296
2021-12-27 14:32:53.206880,-215
2021-12-27 14:32:53.206886,-27
2021-12-27 14:32:53.206892,-76
2021-12-27 14:32:53.206898,-78
2021-12-27 14:32:53.206904,16
2021-12-27 14:32:53.206910,39
2021-12-27 14:32:53.449705,27
2021-12-27 14:32:53.449734,53
2021-12-27 14:32:53.449746,83
2021-12-27 14:32:53.449756,94
2021-12-27 14:32:53.449765,113
2021-12-27 14:32:53.449774,148
2021-12-27 14:32:53.449784,178
2021-12-27 14:32:53.449793,201
2021-12-27 14:32:53.449802,215
2021-12-27 14:32:53.449812,217
2021-12-27 14:32:53.449821,236
2021-12-27 14:32:53.449835,273
2021-12-27 14:32:53.449845,294
2021-12-27 14:32:53.449854,268
2021-12-27 14:32:53.449864,247
2021-12-27 14:32:53.449873,263
2021-12-27 14:32:53.449883,284
2021-12-27 14:32:53.449892,305
2021-12-27 14:32:53.449901,324
2021-12-27 14:32:53.449911,300
2021-12-27 14:32:53.449920,243
2021-12-27 14:32:53.449929,171
2021-12-27 14:32:53.449939,108
2021-12-27 14:32:53.449948,57
2021-12-27 14:32:53.449958,-2
2021-12-27 14:32:53.449968,-71
2021-12-27 14:32:53.449977,-122
2021-12-27 14:32:53.449987,-127
2021-12-27 14:32:53.449996,-94
2021-12-27 14:32:53.450006,-62
2021-12-27 14:32:53.596384,-27
2021-12-27 14:32:53.596405,-4
2021-12-27 14:32:53.596412,-27
2021-12-27 14:32:53.596419,-53
2021-12-27 14:32:53.596425,-41
2021-12-27 14:32:53.596431,-34
2021-12-27 14:32:53.596437,-13
2021-12-27 14:32:53.596443,9
2021-12-27 14:32:53.596449,-16
2021-12-27 14:32:53.596455,-57
2021-12-27 14:32:53.596461,-67
2021-12-27 14:32:53.596467,-62
2021-12-27 14:32:53.596474,-46
2021-12-27 14:32:53.596480,-34
2021-12-27 14:32:53.596486,-85
2021-12-27 14:32:53.596492,-157
2021-12-27 14:32:53.596498,-166
2021-12-27 14:32:53.596504,-148
2021-12-27 14:32:53.596510,-152
2021-12-27 14:32:53.596516,-148
2021-12-27 14:32:53.596522,-141
2021-12-27 14:32:53.596528,-164
2021-12-27 14:32:53.596534,-185
2021-12-27 14:32:53.596541,-180
2021-12-27 14:32:53.596547,-169
2021-12-27 14:32:53.596553,-162
2021-12-27 14:32:53.596559,-180
2021-12-27 14:32:53.596565,-206
2021-12-27 14:32:53.596571,-199
2021-12-27 14:32:53.596577,-155
2021-12-27 14:32:53.839419,-125
2021-12-27 14:32:53.839438,-113
2021-12-27 14:32:53.839445,-83
2021-12-27 14:32:53.839452,-71
2021-12-27 14:32:53.839458,-111
2021-12-27 14:32:53.839465,-131
2021-12-27 14:32:53.839471,-104
2021-12-27 14:32:53.839477,-97
2021-12-27 14:32:53.839483,-120
2021-12-27 14:32:53.839489,-134
2021-12-27 14:32:53.839495,-150
2021-12-27 14:32:53.839502,-187
2021-12-27 14:32:53.839508,-217
2021-12-27 14:32:53.839514,-238
2021-12-27 14:32:53.839520,-261
2021-12-27 14:32:53.839526,-226
2021-12-27 14:32:53.839533,83
2021-12-27 14:32:53.839539,777
2021-12-27 14:32:53.839545,1583
2021-12-27 14:32:53.839551,1900
2021-12-27 14:32:53.839557,877
2021-12-27 14:32:53.839564,-840
2021-12-27 14:32:53.839570,-1129
2021-12-27 14:32:53.839576,-338
2021-12-27 14:32:53.839582,-217
2021-12-27 14:32:53.839588,-351
2021-12-27 14:32:53.839594,-127
2021-12-27 14:32:53.839601,-37
2021-12-27 14:32:53.839607,-97
2021-12-27 14:32:53.839613,-23
2021-12-27 14:32:54.180273,48
2021-12-27 14:32:54.180295,37
2021-12-27 14:32:54.180303,53
2021-12-27 14:32:54.180309,78
2021-12-27 14:32:54.180316,92
2021-12-27 14:32:54.180322,94
2021-12-27 14:32:54.180328,83
2021-12-27 14:32:54.180334,113
2021-12-27 14:32:54.180340,164
2021-12-27 14:32:54.180346,185
2021-12-27 14:32:54.180353,201
2021-12-27 14:32:54.180359,224
2021-12-27 14:32:54.180365,224
2021-12-27 14:32:54.180371,222
2021-12-27 14:32:54.180409,224
2021-12-27 14:32:54.180415,185
2021-12-27 14:32:54.180421,145
2021-12-27 14:32:54.180427,162
2021-12-27 14:32:54.180434,180
2021-12-27 14:32:54.180440,169
2021-12-27 14:32:54.180446,169
2021-12-27 14:32:54.180452,175
2021-12-27 14:32:54.180458,150
2021-12-27 14:32:54.180464,101
2021-12-27 14:32:54.180470,34
2021-12-27 14:32:54.180476,-37
2021-12-27 14:32:54.180483,-101
2021-12-27 14:32:54.180489,-150
2021-12-27 14:32:54.180495,-171
2021-12-27 14:32:54.180501,-159
2021-12-27 14:32:54.424341,-155
2021-12-27 14:32:54.424371,-155
2021-12-27 14:32:54.424383,-148
2021-12-27 14:32:54.424393,-129
2021-12-27 14:32:54.424402,-106
2021-12-27 14:32:54.424412,-81
2021-12-27 14:32:54.424421,-69
2021-12-27 14:32:54.424431,-85
2021-12-27 14:32:54.424440,-111
2021-12-27 14:32:54.424450,-101
2021-12-27 14:32:54.424460,-76
2021-12-27 14:32:54.424469,-57
2021-12-27 14:32:54.424478,-48
2021-12-27 14:32:54.424488,-57
2021-12-27 14:32:54.424497,-83
2021-12-27 14:32:54.424507,-101
2021-12-27 14:32:54.424516,-115
2021-12-27 14:32:54.424526,-125
2021-12-27 14:32:54.424535,-111
2021-12-27 14:32:54.424545,-101
2021-12-27 14:32:54.424554,-134
2021-12-27 14:32:54.424564,-164
2021-12-27 14:32:54.424573,-157
2021-12-27 14:32:54.424583,-152
2021-12-27 14:32:54.424592,-150
2021-12-27 14:32:54.424601,-129
2021-12-27 14:32:54.424611,-125
2021-12-27 14:32:54.424620,-138
2021-12-27 14:32:54.424630,-141
2021-12-27 14:32:54.424639,-129
2021-12-27 14:32:54.522767,-129
2021-12-27 14:32:54.522797,-145
2021-12-27 14:32:54.522808,-162
2021-12-27 14:32:54.522817,-173
2021-12-27 14:32:54.522827,-173
2021-12-27 14:32:54.522836,-166
2021-12-27 14:32:54.522846,-166
2021-12-27 14:32:54.522855,-164
2021-12-27 14:32:54.522870,-162
2021-12-27 14:32:54.522880,-169
2021-12-27 14:32:54.522889,-159
2021-12-27 14:32:54.522899,-136
2021-12-27 14:32:54.522908,-131
2021-12-27 14:32:54.522918,-134
2021-12-27 14:32:54.522927,-150
2021-12-27 14:32:54.522937,-120
2021-12-27 14:32:54.522946,254
2021-12-27 14:32:54.522956,1034
2021-12-27 14:32:54.522965,1741
2021-12-27 14:32:54.522975,1618
2021-12-27 14:32:54.522985,136
2021-12-27 14:32:54.522994,-1328
2021-12-27 14:32:54.523004,-1060
2021-12-27 14:32:54.523013,-347
2021-12-27 14:32:54.523023,-419
2021-12-27 14:32:54.523032,-414
2021-12-27 14:32:54.523042,-173
2021-12-27 14:32:54.523052,-187
2021-12-27 14:32:54.523061,-252
2021-12-27 14:32:54.523071,-166
2021-12-27 14:32:54.765856,-106
2021-12-27 14:32:54.765875,-97
2021-12-27 14:32:54.765882,-67
2021-12-27 14:32:54.765888,-50
2021-12-27 14:32:54.765895,-71
2021-12-27 14:32:54.765901,-69
2021-12-27 14:32:54.765907,-25
2021-12-27 14:32:54.765913,16
2021-12-27 14:32:54.765920,43
2021-12-27 14:32:54.765926,71
2021-12-27 14:32:54.765932,78
2021-12-27 14:32:54.765938,69
2021-12-27 14:32:54.765945,92
2021-12-27 14:32:54.765951,150
2021-12-27 14:32:54.765957,185
2021-12-27 14:32:54.765963,189
2021-12-27 14:32:54.765969,199
2021-12-27 14:32:54.765975,206
2021-12-27 14:32:54.765982,199
2021-12-27 14:32:54.765988,199
2021-12-27 14:32:54.765994,169
2021-12-27 14:32:54.766000,108
2021-12-27 14:32:54.766007,69
2021-12-27 14:32:54.766013,30
2021-12-27 14:32:54.766019,-46
2021-12-27 14:32:54.766025,-115
2021-12-27 14:32:54.766031,-155
2021-12-27 14:32:54.766038,-194
2021-12-27 14:32:54.766044,-210
2021-12-27 14:32:54.766050,-196
2021-12-27 14:32:55.058909,-185
2021-12-27 14:32:55.058934,-171
2021-12-27 14:32:55.058941,-145
2021-12-27 14:32:55.058948,-129
2021-12-27 14:32:55.058954,-111
2021-12-27 14:32:55.058960,-90
2021-12-27 14:32:55.058967,-106
2021-12-27 14:32:55.058973,-122
2021-12-27 14:32:55.058979,-97
2021-12-27 14:32:55.058985,-78
2021-12-27 14:32:55.058991,-78
2021-12-27 14:32:55.058997,-64
2021-12-27 14:32:55.059003,-69
2021-12-27 14:32:55.059010,-101
2021-12-27 14:32:55.059016,-101
2021-12-27 14:32:55.059022,-83
2021-12-27 14:32:55.059028,-83
2021-12-27 14:32:55.059034,-83
2021-12-27 14:32:55.059040,-78
2021-12-27 14:32:55.059046,-67
2021-12-27 14:32:55.059053,-53
2021-12-27 14:32:55.059059,-71
2021-12-27 14:32:55.059065,-111
2021-12-27 14:32:55.059071,-118
2021-12-27 14:32:55.059077,-92
2021-12-27 14:32:55.059083,-78
2021-12-27 14:32:55.059090,-118
2021-12-27 14:32:55.059096,-189
2021-12-27 14:32:55.059102,-208
2021-12-27 14:32:55.059108,-148
2021-12-27 14:32:55.205229,-115
2021-12-27 14:32:55.205252,-138
2021-12-27 14:32:55.205259,-164
2021-12-27 14:32:55.205265,-173
2021-12-27 14:32:55.205271,-173
2021-12-27 14:32:55.205277,-180
2021-12-27 14:32:55.205283,-194
2021-12-27 14:32:55.205290,-219
2021-12-27 14:32:55.205296,-256
2021-12-27 14:32:55.205302,-268
2021-12-27 14:32:55.205308,-245
2021-12-27 14:32:55.205314,-224
2021-12-27 14:32:55.205320,-208
2021-12-27 14:32:55.205326,-178
2021-12-27 14:32:55.205332,-213
2021-12-27 14:32:55.205338,-261
2021-12-27 14:32:55.205344,-9
2021-12-27 14:32:55.205351,683
2021-12-27 14:32:55.205357,1509
2021-12-27 14:32:55.205363,1910
2021-12-27 14:32:55.205369,990
2021-12-27 14:32:55.205375,-812
2021-12-27 14:32:55.205381,-1243
2021-12-27 14:32:55.205387,-419
2021-12-27 14:32:55.205393,-277
2021-12-27 14:32:55.205399,-474
2021-12-27 14:32:55.205406,-243
2021-12-27 14:32:55.205412,-134
2021-12-27 14:32:55.205418,-224
2021-12-27 14:32:55.205424,-159
2021-12-27 14:32:55.448968,-69
2021-12-27 14:32:55.448988,-64
2021-12-27 14:32:55.448996,-62
2021-12-27 14:32:55.449002,-74
2021-12-27 14:32:55.449008,-81
2021-12-27 14:32:55.449014,-30
2021-12-27 14:32:55.449021,25
2021-12-27 14:32:55.449027,48
2021-12-27 14:32:55.449033,64
2021-12-27 14:32:55.449039,64
2021-12-27 14:32:55.449045,62
2021-12-27 14:32:55.449051,108
2021-12-27 14:32:55.449057,136
2021-12-27 14:32:55.449063,115
2021-12-27 14:32:55.449069,122
2021-12-27 14:32:55.449075,164
2021-12-27 14:32:55.449081,187
2021-12-27 14:32:55.449087,196
2021-12-27 14:32:55.449093,224
2021-12-27 14:32:55.449099,256
2021-12-27 14:32:55.449105,250
2021-12-27 14:32:55.449111,208
2021-12-27 14:32:55.449117,169
2021-12-27 14:32:55.449123,99
2021-12-27 14:32:55.449129,-4
2021-12-27 14:32:55.449135,-76
2021-12-27 14:32:55.449141,-125
2021-12-27 14:32:55.449147,-180
2021-12-27 14:32:55.449153,-196
2021-12-27 14:32:55.449159,-196
2021-12-27 14:32:55.692815,-199
2021-12-27 14:32:55.692836,-185
2021-12-27 14:32:55.692843,-215
2021-12-27 14:32:55.692849,-233
2021-12-27 14:32:55.692855,-182
2021-12-27 14:32:55.692861,-187
2021-12-27 14:32:55.692868,-213
2021-12-27 14:32:55.692874,-141
2021-12-27 14:32:55.692880,-74
2021-12-27 14:32:55.692886,-85
2021-12-27 14:32:55.692892,-92
2021-12-27 14:32:55.692898,-76
2021-12-27 14:32:55.692904,-85
2021-12-27 14:32:55.692911,-85
2021-12-27 14:32:55.692917,-62
2021-12-27 14:32:55.692923,-62
2021-12-27 14:32:55.692929,-71
2021-12-27 14:32:55.692935,-64
2021-12-27 14:32:55.692941,-60
2021-12-27 14:32:55.692947,-48
2021-12-27 14:32:55.692953,-30
2021-12-27 14:32:55.692960,-25
2021-12-27 14:32:55.692966,-39
2021-12-27 14:32:55.692978,-64
2021-12-27 14:32:55.692985,-67
2021-12-27 14:32:55.692991,-30
2021-12-27 14:32:55.692997,-13
2021-12-27 14:32:55.693003,-32
2021-12-27 14:32:55.693009,-48
2021-12-27 14:32:55.693015,-62
2021-12-27 14:32:55.985174,-67
2021-12-27 14:32:55.985204,-67
2021-12-27 14:32:55.985215,-60
2021-12-27 14:32:55.985224,-41
2021-12-27 14:32:55.985234,-23
2021-12-27 14:32:55.985244,-6
2021-12-27 14:32:55.985253,-4
2021-12-27 14:32:55.985263,-39
2021-12-27 14:32:55.985272,-76
2021-12-27 14:32:55.985281,-90
2021-12-27 14:32:55.985290,-111
2021-12-27 14:32:55.985300,-125
2021-12-27 14:32:55.985309,-120
2021-12-27 14:32:55.985319,-138
2021-12-27 14:32:55.985328,-162
2021-12-27 14:32:55.985338,-143
2021-12-27 14:32:55.985347,-125
2021-12-27 14:32:55.985357,-150
2021-12-27 14:32:55.985366,-108
2021-12-27 14:32:55.985376,226
2021-12-27 14:32:55.985385,905
2021-12-27 14:32:55.985395,1643
2021-12-27 14:32:55.985404,1812
2021-12-27 14:32:55.985414,636
2021-12-27 14:32:55.985423,-935
2021-12-27 14:32:55.985433,-939
2021-12-27 14:32:55.985442,-210
2021-12-27 14:32:55.985452,-213
2021-12-27 14:32:55.985461,-263
2021-12-27 14:32:55.985471,-37
2021-12-27 14:32:56.227321,-41
2021-12-27 14:32:56.227342,-141
2021-12-27 14:32:56.227350,-85
2021-12-27 14:32:56.227356,-48
2021-12-27 14:32:56.227362,-55
2021-12-27 14:32:56.227369,-11
2021-12-27 14:32:56.227375,37
2021-12-27 14:32:56.227381,39
2021-12-27 14:32:56.227387,11
2021-12-27 14:32:56.227393,-11
2021-12-27 14:32:56.227399,23
2021-12-27 14:32:56.227405,81
2021-12-27 14:32:56.227411,113
2021-12-27 14:32:56.227419,143
2021-12-27 14:32:56.227426,155
2021-12-27 14:32:56.227432,122
2021-12-27 14:32:56.227438,127
2021-12-27 14:32:56.227444,182
2021-12-27 14:32:56.227450,215
2021-12-27 14:32:56.227456,226
2021-12-27 14:32:56.227462,224
2021-12-27 14:32:56.227469,178
2021-12-27 14:32:56.227475,150
2021-12-27 14:32:56.227481,178
2021-12-27 14:32:56.227487,187
2021-12-27 14:32:56.227493,157
2021-12-27 14:32:56.227499,115
2021-12-27 14:32:56.227505,48
2021-12-27 14:32:56.227511,-18
2021-12-27 14:32:56.227517,-60
2021-12-27 14:32:56.375190,-87
2021-12-27 14:32:56.375210,-94
2021-12-27 14:32:56.375217,-113
2021-12-27 14:32:56.375224,-169
2021-12-27 14:32:56.375230,-182
2021-12-27 14:32:56.375236,-141
2021-12-27 14:32:56.375242,-108
2021-12-27 14:32:56.375248,-85
2021-12-27 14:32:56.375254,-57
2021-12-27 14:32:56.375260,-57
2021-12-27 14:32:56.375266,-85
2021-12-27 14:32:56.375273,-85
2021-12-27 14:32:56.375279,-46
2021-12-27 14:32:56.375285,-18
2021-12-27 14:32:56.375291,-9
2021-12-27 14:32:56.375297,-13
2021-12-27 14:32:56.375303,-41
2021-12-27 14:32:56.375309,-67
2021-12-27 14:32:56.375315,-46
2021-12-27 14:32:56.375321,-20
2021-12-27 14:32:56.375327,-20
2021-12-27 14:32:56.375333,-18
2021-12-27 14:32:56.375339,-13
2021-12-27 14:32:56.375346,-16
2021-12-27 14:32:56.375352,-6
2021-12-27 14:32:56.375358,13
2021-12-27 14:32:56.375364,23
2021-12-27 14:32:56.375370,23
2021-12-27 14:32:56.375376,25
2021-12-27 14:32:56.375382,30
2021-12-27 14:32:56.619232,39
2021-12-27 14:32:56.619252,55
2021-12-27 14:32:56.619259,67
2021-12-27 14:32:56.619265,57
2021-12-27 14:32:56.619272,30
2021-12-27 14:32:56.619278,-25
2021-12-27 14:32:56.619284,-62
2021-12-27 14:32:56.619291,-57
2021-12-27 14:32:56.619297,-43
2021-12-27 14:32:56.619303,-41
2021-12-27 14:32:56.619309,-23
2021-12-27 14:32:56.619316,-20
2021-12-27 14:32:56.619322,-71
2021-12-27 14:32:56.619328,-131
2021-12-27 14:32:56.619334,-192
2021-12-27 14:32:56.619340,-245
2021-12-27 14:32:56.619346,-245
2021-12-27 14:32:56.619353,-210
2021-12-27 14:32:56.619359,-203
2021-12-27 14:32:56.619365,-199
2021-12-27 14:32:56.619371,-182
2021-12-27 14:32:56.619377,-210
2021-12-27 14:32:56.619384,-199
2021-12-27 14:32:56.619390,92
2021-12-27 14:32:56.619396,754
2021-12-27 14:32:56.619402,1541
2021-12-27 14:32:56.619409,1910
2021-12-27 14:32:56.619415,986
2021-12-27 14:32:56.619421,-747
2021-12-27 14:32:56.619428,-1132
2021-12-27 14:32:56.910755,-338
2021-12-27 14:32:56.910774,-185
2021-12-27 14:32:56.910781,-340
2021-12-27 14:32:56.910788,-122
2021-12-27 14:32:56.910794,-23
2021-12-27 14:32:56.910800,-97
2021-12-27 14:32:56.910807,-83
2021-12-27 14:32:56.910813,-92
2021-12-27 14:32:56.910819,-138
2021-12-27 14:32:56.910825,-101
2021-12-27 14:32:56.910832,-46
2021-12-27 14:32:56.910838,-27
2021-12-27 14:32:56.910844,4
2021-12-27 14:32:56.910850,32
2021-12-27 14:32:56.910857,27
2021-12-27 14:32:56.910863,48
2021-12-27 14:32:56.910869,94
2021-12-27 14:32:56.910875,134
2021-12-27 14:32:56.910881,169
2021-12-27 14:32:56.910888,203
2021-12-27 14:32:56.910894,226
2021-12-27 14:32:56.910900,240
2021-12-27 14:32:56.910906,266
2021-12-27 14:32:56.910912,291
2021-12-27 14:32:56.910919,312
2021-12-27 14:32:56.910925,317
2021-12-27 14:32:56.910931,289
2021-12-27 14:32:56.910937,250
2021-12-27 14:32:56.910944,243
2021-12-27 14:32:56.910950,240
2021-12-27 14:32:57.106577,187
2021-12-27 14:32:57.106607,118
2021-12-27 14:32:57.106618,46
2021-12-27 14:32:57.106628,-39
2021-12-27 14:32:57.106637,-83
2021-12-27 14:32:57.106647,-67
2021-12-27 14:32:57.106656,-34
2021-12-27 14:32:57.106665,-23
2021-12-27 14:32:57.106675,-43
2021-12-27 14:32:57.106684,-64
2021-12-27 14:32:57.106694,-41
2021-12-27 14:32:57.106703,-2
2021-12-27 14:32:57.106712,16
2021-12-27 14:32:57.106722,30
2021-12-27 14:32:57.106731,23
2021-12-27 14:32:57.106740,-32
2021-12-27 14:32:57.106750,-74
2021-12-27 14:32:57.106759,-57
2021-12-27 14:32:57.106769,-27
2021-12-27 14:32:57.106778,-30
2021-12-27 14:32:57.106788,-67
2021-12-27 14:32:57.106797,-131
2021-12-27 14:32:57.106806,-159
2021-12-27 14:32:57.106816,-125
2021-12-27 14:32:57.106825,-90
2021-12-27 14:32:57.106834,-87
2021-12-27 14:32:57.106844,-81
2021-12-27 14:32:57.106853,-76
2021-12-27 14:32:57.106863,-85
2021-12-27 14:32:57.106876,-71
2021-12-27 14:32:57.447227,-41
2021-12-27 14:32:57.447257,-25
2021-12-27 14:32:57.447268,-16
2021-12-27 14:32:57.447278,-20
2021-12-27 14:32:57.447287,-55
2021-12-27 14:32:57.447297,-74
2021-12-27 14:32:57.447306,-46
2021-12-27 14:32:57.447315,-23
2021-12-27 14:32:57.447324,-43
2021-12-27 14:32:57.447334,-62
2021-12-27 14:32:57.447343,-57
2021-12-27 14:32:57.447352,-67
2021-12-27 14:32:57.447362,-62
2021-12-27 14:32:57.447371,-32
2021-12-27 14:32:57.447381,-39
2021-12-27 14:32:57.447390,-64
2021-12-27 14:32:57.447399,-87
2021-12-27 14:32:57.447408,-148
2021-12-27 14:32:57.447418,-180
2021-12-27 14:32:57.447427,-138
2021-12-27 14:32:57.447436,-115
2021-12-27 14:32:57.447446,-127
2021-12-27 14:32:57.447455,-120
2021-12-27 14:32:57.447464,-120
2021-12-27 14:32:57.447473,-152
2021-12-27 14:32:57.447483,-143
2021-12-27 14:32:57.447492,113
2021-12-27 14:32:57.447502,768
2021-12-27 14:32:57.447511,1613
2021-12-27 14:32:57.447520,2053
2021-12-27 14:32:57.593850,1169
2021-12-27 14:32:57.593880,-650
2021-12-27 14:32:57.593891,-1192
2021-12-27 14:32:57.593901,-377
2021-12-27 14:32:57.593910,-145
2021-12-27 14:32:57.593920,-351
2021-12-27 14:32:57.593929,-185
2021-12-27 14:32:57.593938,-64
2021-12-27 14:32:57.593948,-129
2021-12-27 14:32:57.593957,-92
2021-12-27 14:32:57.593966,-18
2021-12-27 14:32:57.593975,-13
2021-12-27 14:32:57.593985,-11
2021-12-27 14:32:57.593994,-2
2021-12-27 14:32:57.594004,11
2021-12-27 14:32:57.594013,39
2021-12-27 14:32:57.594022,71
2021-12-27 14:32:57.594032,104
2021-12-27 14:32:57.594041,120
2021-12-27 14:32:57.594050,129
2021-12-27 14:32:57.594060,162
2021-12-27 14:32:57.594069,192
2021-12-27 14:32:57.594079,217
2021-12-27 14:32:57.594088,263
2021-12-27 14:32:57.594097,303
2021-12-27 14:32:57.594107,291
2021-12-27 14:32:57.594116,252
2021-12-27 14:32:57.594126,250
2021-12-27 14:32:57.594135,273
2021-12-27 14:32:57.594144,284
2021-12-27 14:32:57.740292,282
2021-12-27 14:32:57.740321,250
2021-12-27 14:32:57.740332,187
2021-12-27 14:32:57.740342,120
2021-12-27 14:32:57.740351,62
2021-12-27 14:32:57.740361,6
2021-12-27 14:32:57.740370,-53
2021-12-27 14:32:57.740380,-125
2021-12-27 14:32:57.740389,-199
2021-12-27 14:32:57.740399,-226
2021-12-27 14:32:57.740408,-194
2021-12-27 14:32:57.740417,-155
2021-12-27 14:32:57.740427,-136
2021-12-27 14:32:57.740436,-120
2021-12-27 14:32:57.740446,-113
2021-12-27 14:32:57.740455,-125
2021-12-27 14:32:57.740464,-111
2021-12-27 14:32:57.740474,-74
2021-12-27 14:32:57.740483,-50
2021-12-27 14:32:57.740492,-41
2021-12-27 14:32:57.740502,-62
2021-12-27 14:32:57.740511,-94
2021-12-27 14:32:57.740521,-78
2021-12-27 14:32:57.740530,-46
2021-12-27 14:32:57.740539,-37
2021-12-27 14:32:57.740549,-32
2021-12-27 14:32:57.740558,-32
2021-12-27 14:32:57.740567,-53
2021-12-27 14:32:57.740577,-48
2021-12-27 14:32:57.740586,-18
2021-12-27 14:32:57.983922,-13
2021-12-27 14:32:57.983944,-11
2021-12-27 14:32:57.983951,-13
2021-12-27 14:32:57.983957,-53
2021-12-27 14:32:57.983964,-76
2021-12-27 14:32:57.983970,-43
2021-12-27 14:32:57.983976,-18
2021-12-27 14:32:57.983982,-16
2021-12-27 14:32:57.983988,-39
2021-12-27 14:32:57.983994,-94
2021-12-27 14:32:57.984000,-122
2021-12-27 14:32:57.984006,-87
2021-12-27 14:32:57.984012,-48
2021-12-27 14:32:57.984019,-57
2021-12-27 14:32:57.984025,-85
2021-12-27 14:32:57.984031,-92
2021-12-27 14:32:57.984037,-101
2021-12-27 14:32:57.984043,-141
2021-12-27 14:32:57.984049,-150
2021-12-27 14:32:57.984056,-134
2021-12-27 14:32:57.984062,-141
2021-12-27 14:32:57.984068,-157
2021-12-27 14:32:57.984074,-152
2021-12-27 14:32:57.984080,-129
2021-12-27 14:32:57.984086,-111
2021-12-27 14:32:57.984092,-99
2021-12-27 14:32:57.984099,-108
2021-12-27 14:32:57.984105,-152
2021-12-27 14:32:57.984112,-92
2021-12-27 14:32:57.984118,351
2021-12-27 14:32:58.323944,1178
2021-12-27 14:32:58.323974,1914
2021-12-27 14:32:58.323985,1766
2021-12-27 14:32:58.323995,192
2021-12-27 14:32:58.324004,-1303
2021-12-27 14:32:58.324013,-983
2021-12-27 14:32:58.324023,-261
2021-12-27 14:32:58.324032,-365
2021-12-27 14:32:58.324041,-370
2021-12-27 14:32:58.324051,-127
2021-12-27 14:32:58.324060,-148
2021-12-27 14:32:58.324070,-222
2021-12-27 14:32:58.324079,-150
2021-12-27 14:32:58.324088,-92
2021-12-27 14:32:58.324097,-87
2021-12-27 14:32:58.324107,-60
2021-12-27 14:32:58.324116,-27
2021-12-27 14:32:58.324125,-16
2021-12-27 14:32:58.324135,-13
2021-12-27 14:32:58.324144,-11
2021-12-27 14:32:58.324153,11
2021-12-27 14:32:58.324163,50
2021-12-27 14:32:58.324172,85
2021-12-27 14:32:58.324182,113
2021-12-27 14:32:58.324191,143
2021-12-27 14:32:58.324200,180
2021-12-27 14:32:58.324210,219
2021-12-27 14:32:58.324219,243
2021-12-27 14:32:58.324229,266
2021-12-27 14:32:58.324238,287
2021-12-27 14:32:58.520340,284
2021-12-27 14:32:58.520362,280
2021-12-27 14:32:58.520369,287
2021-12-27 14:32:58.520376,273
2021-12-27 14:32:58.520382,245
2021-12-27 14:32:58.520388,206
2021-12-27 14:32:58.520395,134
2021-12-27 14:32:58.520401,43
2021-12-27 14:32:58.520407,-27
2021-12-27 14:32:58.520413,-83
2021-12-27 14:32:58.520419,-120
2021-12-27 14:32:58.520426,-129
2021-12-27 14:32:58.520432,-148
2021-12-27 14:32:58.520438,-175
2021-12-27 14:32:58.520444,-171
2021-12-27 14:32:58.520450,-143
2021-12-27 14:32:58.520457,-122
2021-12-27 14:32:58.520463,-97
2021-12-27 14:32:58.520469,-83
2021-12-27 14:32:58.520475,-111
2021-12-27 14:32:58.520481,-148
2021-12-27 14:32:58.520487,-159
2021-12-27 14:32:58.520493,-143
2021-12-27 14:32:58.520499,-115
2021-12-27 14:32:58.520505,-101
2021-12-27 14:32:58.520512,-101
2021-12-27 14:32:58.520518,-106
2021-12-27 14:32:58.520524,-101
2021-12-27 14:32:58.520530,-90
2021-12-27 14:32:58.520536,-71
2021-12-27 14:32:58.666525,-60
2021-12-27 14:32:58.666554,-57
2021-12-27 14:32:58.666566,-71
2021-12-27 14:32:58.666576,-78
2021-12-27 14:32:58.666585,-64
2021-12-27 14:32:58.666594,-48
2021-12-27 14:32:58.666604,-37
2021-12-27 14:32:58.666613,-55
2021-12-27 14:32:58.666622,-125
2021-12-27 14:32:58.666632,-173
2021-12-27 14:32:58.666641,-155
2021-12-27 14:32:58.666650,-155
2021-12-27 14:32:58.666660,-206
2021-12-27 14:32:58.666669,-252
2021-12-27 14:32:58.666678,-307
2021-12-27 14:32:58.666688,-361
2021-12-27 14:32:58.666697,-335
2021-12-27 14:32:58.666706,-305
2021-12-27 14:32:58.666716,-314
2021-12-27 14:32:58.666725,-289
2021-12-27 14:32:58.666734,-266
2021-12-27 14:32:58.666744,-305
2021-12-27 14:32:58.666753,-333
2021-12-27 14:32:58.666763,-333
2021-12-27 14:32:58.666772,-333
2021-12-27 14:32:58.666781,-310
2021-12-27 14:32:58.666791,-284
2021-12-27 14:32:58.666800,-287
2021-12-27 14:32:58.666817,-277
2021-12-27 14:32:58.666827,-240
2021-12-27 14:32:58.913318,-229
2021-12-27 14:32:58.913364,-252
2021-12-27 14:32:58.913425,-215
2021-12-27 14:32:58.913441,111
2021-12-27 14:32:58.913605,835
2021-12-27 14:32:58.913893,1655
2021-12-27 14:32:58.913995,1856
2021-12-27 14:32:58.914003,615
2021-12-27 14:32:58.914009,-1081
2021-12-27 14:32:58.914014,-1136
2021-12-27 14:32:58.914019,-335
2021-12-27 14:32:58.914024,-312
2021-12-27 14:32:58.914029,-405
2021-12-27 14:32:58.914034,-162
2021-12-27 14:32:58.914038,-115
2021-12-27 14:32:58.914044,-192
2021-12-27 14:32:58.914048,-138
2021-12-27 14:32:58.914053,-99
2021-12-27 14:32:58.914058,-120
2021-12-27 14:32:58.914063,-108
2021-12-27 14:32:58.914071,-57
2021-12-27 14:32:58.914079,9
2021-12-27 14:32:58.914086,50
2021-12-27 14:32:58.914094,41
2021-12-27 14:32:58.914102,57
2021-12-27 14:32:58.914110,99
2021-12-27 14:32:58.914118,106
2021-12-27 14:32:58.914126,120
2021-12-27 14:32:58.914135,159
2021-12-27 14:32:58.914143,187
2021-12-27 14:32:59.202673,215
2021-12-27 14:32:59.202703,252
2021-12-27 14:32:59.202715,277
2021-12-27 14:32:59.202724,277
2021-12-27 14:32:59.202734,270
2021-12-27 14:32:59.202743,243
2021-12-27 14:32:59.202753,215
2021-12-27 14:32:59.202762,222
2021-12-27 14:32:59.202772,222
2021-12-27 14:32:59.202781,175
2021-12-27 14:32:59.202791,115
2021-12-27 14:32:59.202800,37
2021-12-27 14:32:59.202810,-76
2021-12-27 14:32:59.202819,-178
2021-12-27 14:32:59.202829,-238
2021-12-27 14:32:59.202838,-252
2021-12-27 14:32:59.202848,-238
2021-12-27 14:32:59.202857,-226
2021-12-27 14:32:59.202866,-219
2021-12-27 14:32:59.202876,-196
2021-12-27 14:32:59.202885,-166
2021-12-27 14:32:59.202895,-155
2021-12-27 14:32:59.202904,-134
2021-12-27 14:32:59.202914,-104
2021-12-27 14:32:59.202924,-94
2021-12-27 14:32:59.202933,-92
2021-12-27 14:32:59.202943,-87
2021-12-27 14:32:59.202952,-108
2021-12-27 14:32:59.202962,-113
2021-12-27 14:32:59.202971,-85
2021-12-27 14:32:59.397608,-76
2021-12-27 14:32:59.397629,-85
2021-12-27 14:32:59.397637,-78
2021-12-27 14:32:59.397643,-76
2021-12-27 14:32:59.397649,-71
2021-12-27 14:32:59.397655,-53
2021-12-27 14:32:59.397662,-50
2021-12-27 14:32:59.397668,-55
2021-12-27 14:32:59.397674,-50
2021-12-27 14:32:59.397680,-50
2021-12-27 14:32:59.397686,-60
2021-12-27 14:32:59.397692,-69
2021-12-27 14:32:59.397698,-85
2021-12-27 14:32:59.397705,-115
2021-12-27 14:32:59.397711,-141
2021-12-27 14:32:59.397717,-131
2021-12-27 14:32:59.397723,-115
2021-12-27 14:32:59.397729,-122
2021-12-27 14:32:59.397735,-131
2021-12-27 14:32:59.397741,-155
2021-12-27 14:32:59.397748,-213
2021-12-27 14:32:59.397754,-226
2021-12-27 14:32:59.397760,-180
2021-12-27 14:32:59.397766,-155
2021-12-27 14:32:59.397772,-152
2021-12-27 14:32:59.397778,-131
2021-12-27 14:32:59.397784,-125
2021-12-27 14:32:59.397791,-136
2021-12-27 14:32:59.397797,-143
2021-12-27 14:32:59.397803,-162
2021-12-27 14:32:59.592535,-173
2021-12-27 14:32:59.592556,-152
2021-12-27 14:32:59.592564,-145
2021-12-27 14:32:59.592570,-155
2021-12-27 14:32:59.592576,-134
2021-12-27 14:32:59.592582,-101
2021-12-27 14:32:59.592588,-101
2021-12-27 14:32:59.592595,-125
2021-12-27 14:32:59.592601,-43
2021-12-27 14:32:59.592607,375
2021-12-27 14:32:59.592613,1122
2021-12-27 14:32:59.592619,1789
2021-12-27 14:32:59.592626,1613
2021-12-27 14:32:59.592632,125
2021-12-27 14:32:59.592638,-1169
2021-12-27 14:32:59.592644,-789
2021-12-27 14:32:59.592651,-169
2021-12-27 14:32:59.592657,-291
2021-12-27 14:32:59.592663,-300
2021-12-27 14:32:59.592669,-136
2021-12-27 14:32:59.592675,-162
2021-12-27 14:32:59.592682,-192
2021-12-27 14:32:59.592688,-129
2021-12-27 14:32:59.592694,-90
2021-12-27 14:32:59.592700,-69
2021-12-27 14:32:59.592706,-27
2021-12-27 14:32:59.592713,0
2021-12-27 14:32:59.592719,2
2021-12-27 14:32:59.592725,18
2021-12-27 14:32:59.592731,55
2021-12-27 14:32:59.836846,83
2021-12-27 14:32:59.836874,81
2021-12-27 14:32:59.836887,87
2021-12-27 14:32:59.836898,101
2021-12-27 14:32:59.836909,87
2021-12-27 14:32:59.836920,90
2021-12-27 14:32:59.836931,134
2021-12-27 14:32:59.836942,182
2021-12-27 14:32:59.836953,219
2021-12-27 14:32:59.836964,213
2021-12-27 14:32:59.836975,143
2021-12-27 14:32:59.836986,81
2021-12-27 14:32:59.836996,97
2021-12-27 14:32:59.837008,131
2021-12-27 14:32:59.837019,115
2021-12-27 14:32:59.837185,78
2021-12-27 14:32:59.837233,30
2021-12-27 14:32:59.837379,-34
2021-12-27 14:32:59.837392,-78
2021-12-27 14:32:59.837403,-106
2021-12-27 14:32:59.837415,-138
2021-12-27 14:32:59.837425,-159
2021-12-27 14:32:59.837436,-157
2021-12-27 14:32:59.837446,-150
2021-12-27 14:32:59.837457,-136
2021-12-27 14:32:59.837468,-108
2021-12-27 14:32:59.837479,-87
2021-12-27 14:32:59.837490,-78
2021-12-27 14:32:59.837500,-60
2021-12-27 14:32:59.837511,-48
2021-12-27 14:33:00.127942,-43
2021-12-27 14:33:00.127972,-25
2021-12-27 14:33:00.127983,-20
2021-12-27 14:33:00.127993,-55
2021-12-27 14:33:00.128003,-74
2021-12-27 14:33:00.128013,-74
2021-12-27 14:33:00.128023,-101
2021-12-27 14:33:00.128032,-111
2021-12-27 14:33:00.128042,-85
2021-12-27 14:33:00.128051,-78
2021-12-27 14:33:00.128061,-76
2021-12-27 14:33:00.128070,-67
2021-12-27 14:33:00.128080,-92
2021-12-27 14:33:00.128089,-108
2021-12-27 14:33:00.128099,-87
2021-12-27 14:33:00.128109,-94
2021-12-27 14:33:00.128118,-120
2021-12-27 14:33:00.128128,-106
2021-12-27 14:33:00.128137,-92
2021-12-27 14:33:00.128147,-97
2021-12-27 14:33:00.128157,-92
2021-12-27 14:33:00.128166,-106
2021-12-27 14:33:00.128176,-129
2021-12-27 14:33:00.128185,-136
2021-12-27 14:33:00.128195,-185
2021-12-27 14:33:00.128204,-245
2021-12-27 14:33:00.128220,-229
2021-12-27 14:33:00.128229,-201
2021-12-27 14:33:00.128251,-199
2021-12-27 14:33:00.128257,-166
2021-12-27 14:33:00.420002,-136
2021-12-27 14:33:00.420033,-143
2021-12-27 14:33:00.420044,-136
2021-12-27 14:33:00.420054,-113
2021-12-27 14:33:00.420064,-120
2021-12-27 14:33:00.420073,-148
2021-12-27 14:33:00.420082,-164
2021-12-27 14:33:00.420092,-185
2021-12-27 14:33:00.420101,-217
2021-12-27 14:33:00.420111,-208
2021-12-27 14:33:00.420120,-166
2021-12-27 14:33:00.420130,-141
2021-12-27 14:33:00.420139,-131
2021-12-27 14:33:00.420149,-155
2021-12-27 14:33:00.420158,-203
2021-12-27 14:33:00.420168,-67
2021-12-27 14:33:00.420177,465
2021-12-27 14:33:00.420187,1215
2021-12-27 14:33:00.420196,1745
2021-12-27 14:33:00.420206,1345
2021-12-27 14:33:00.420215,-217
2021-12-27 14:33:00.420225,-1215
2021-12-27 14:33:00.420234,-632
2021-12-27 14:33:00.420244,-143
2021-12-27 14:33:00.420260,-296
2021-12-27 14:33:00.420283,-187
2021-12-27 14:33:00.420289,-16
2021-12-27 14:33:00.420295,-94
2021-12-27 14:33:00.420301,-97
2021-12-27 14:33:00.420308,16
2021-12-27 14:33:00.616186,81
2021-12-27 14:33:00.616216,131
2021-12-27 14:33:00.616227,148
2021-12-27 14:33:00.616237,127
2021-12-27 14:33:00.616247,143
2021-12-27 14:33:00.616312,187
2021-12-27 14:33:00.616332,196
2021-12-27 14:33:00.616344,185
2021-12-27 14:33:00.616354,175
2021-12-27 14:33:00.616363,155
2021-12-27 14:33:00.616373,157
2021-12-27 14:33:00.616382,203
2021-12-27 14:33:00.616392,245
2021-12-27 14:33:00.616401,266
2021-12-27 14:33:00.616411,280
2021-12-27 14:33:00.616420,256
2021-12-27 14:33:00.616430,219
2021-12-27 14:33:00.616439,231
2021-12-27 14:33:00.616449,263
2021-12-27 14:33:00.616458,268
2021-12-27 14:33:00.616468,263
2021-12-27 14:33:00.616477,247
2021-12-27 14:33:00.616487,201
2021-12-27 14:33:00.616505,152
2021-12-27 14:33:00.616515,108
2021-12-27 14:33:00.616561,55
2021-12-27 14:33:00.616624,6
2021-12-27 14:33:00.616659,-37
2021-12-27 14:33:00.616687,-67
2021-12-27 14:33:00.616697,-94
2021-12-27 14:33:00.762179,-129
2021-12-27 14:33:00.762250,-131
2021-12-27 14:33:00.762271,-104
2021-12-27 14:33:00.762280,-94
2021-12-27 14:33:00.762286,-115
2021-12-27 14:33:00.762292,-125
2021-12-27 14:33:00.762299,-92
2021-12-27 14:33:00.762305,-57
2021-12-27 14:33:00.762311,-67
2021-12-27 14:33:00.762317,-97
2021-12-27 14:33:00.762323,-97
2021-12-27 14:33:00.762330,-74
2021-12-27 14:33:00.762336,-60
2021-12-27 14:33:00.762342,-53
2021-12-27 14:33:00.762348,-39
2021-12-27 14:33:00.762355,-30
2021-12-27 14:33:00.762361,-32
2021-12-27 14:33:00.762367,-46
2021-12-27 14:33:00.762373,-74
2021-12-27 14:33:00.762380,-97
2021-12-27 14:33:00.762386,-94
2021-12-27 14:33:00.762392,-83
2021-12-27 14:33:00.762398,-78
2021-12-27 14:33:00.762405,-92
2021-12-27 14:33:00.762411,-125
2021-12-27 14:33:00.762417,-134
2021-12-27 14:33:00.762423,-122
2021-12-27 14:33:00.762429,-129
2021-12-27 14:33:00.762435,-138
2021-12-27 14:33:00.762442,-129
2021-12-27 14:33:01.054428,-122
2021-12-27 14:33:01.054445,-118
2021-12-27 14:33:01.054450,-108
2021-12-27 14:33:01.054456,-113
2021-12-27 14:33:01.054461,-108
2021-12-27 14:33:01.054466,-85
2021-12-27 14:33:01.054471,-97
2021-12-27 14:33:01.054476,-122
2021-12-27 14:33:01.054481,-99
2021-12-27 14:33:01.054486,-67
2021-12-27 14:33:01.054491,-71
2021-12-27 14:33:01.054496,-101
2021-12-27 14:33:01.054500,-145
2021-12-27 14:33:01.054505,-175
2021-12-27 14:33:01.054510,-164
2021-12-27 14:33:01.054515,-141
2021-12-27 14:33:01.054520,-125
2021-12-27 14:33:01.054525,-101
2021-12-27 14:33:01.054530,-85
2021-12-27 14:33:01.054535,-99
2021-12-27 14:33:01.054540,-122
2021-12-27 14:33:01.054545,11
2021-12-27 14:33:01.054550,525
2021-12-27 14:33:01.054555,1319
2021-12-27 14:33:01.054560,1940
2021-12-27 14:33:01.054565,1618
2021-12-27 14:33:01.054570,9
2021-12-27 14:33:01.054575,-1153
2021-12-27 14:33:01.054580,-613
2021-12-27 14:33:01.054585,-53
2021-12-27 14:33:01.201331,-231
2021-12-27 14:33:01.201362,-169
2021-12-27 14:33:01.201373,39
2021-12-27 14:33:01.201383,-11
2021-12-27 14:33:01.201392,-30
2021-12-27 14:33:01.201402,34
2021-12-27 14:33:01.201412,0
2021-12-27 14:33:01.201421,-41
2021-12-27 14:33:01.201431,-25
2021-12-27 14:33:01.201440,-13
2021-12-27 14:33:01.201450,11
2021-12-27 14:33:01.201459,62
2021-12-27 14:33:01.201469,87
2021-12-27 14:33:01.201478,83
2021-12-27 14:33:01.201488,67
2021-12-27 14:33:01.201497,76
2021-12-27 14:33:01.201506,122
2021-12-27 14:33:01.201516,169
2021-12-27 14:33:01.201525,206
2021-12-27 14:33:01.201534,240
2021-12-27 14:33:01.201544,243
2021-12-27 14:33:01.201553,213
2021-12-27 14:33:01.201563,222
2021-12-27 14:33:01.201572,261
2021-12-27 14:33:01.201581,270
2021-12-27 14:33:01.201591,275
2021-12-27 14:33:01.201600,275
2021-12-27 14:33:01.201610,233
2021-12-27 14:33:01.201619,185
2021-12-27 14:33:01.201629,145
2021-12-27 14:33:01.493643,87
2021-12-27 14:33:01.493698,18
2021-12-27 14:33:01.493705,-46
2021-12-27 14:33:01.493712,-129
2021-12-27 14:33:01.493718,-187
2021-12-27 14:33:01.493724,-164
2021-12-27 14:33:01.493731,-120
2021-12-27 14:33:01.493737,-106
2021-12-27 14:33:01.493743,-99
2021-12-27 14:33:01.493749,-113
2021-12-27 14:33:01.493755,-134
2021-12-27 14:33:01.493762,-106
2021-12-27 14:33:01.493768,-60
2021-12-27 14:33:01.493774,-43
2021-12-27 14:33:01.493780,-43
2021-12-27 14:33:01.493786,-71
2021-12-27 14:33:01.493793,-104
2021-12-27 14:33:01.493799,-87
2021-12-27 14:33:01.493805,-55
2021-12-27 14:33:01.493811,-46
2021-12-27 14:33:01.493817,-53
2021-12-27 14:33:01.493823,-74
2021-12-27 14:33:01.493830,-104
2021-12-27 14:33:01.493836,-104
2021-12-27 14:33:01.493842,-78
2021-12-27 14:33:01.493849,-67
2021-12-27 14:33:01.493855,-76
2021-12-27 14:33:01.493861,-101
2021-12-27 14:33:01.493867,-120
2021-12-27 14:33:01.493873,-131
2021-12-27 14:33:01.688206,-150
2021-12-27 14:33:01.688226,-148
2021-12-27 14:33:01.688233,-129
2021-12-27 14:33:01.688239,-129
2021-12-27 14:33:01.688245,-148
2021-12-27 14:33:01.688252,-173
2021-12-27 14:33:01.688258,-178
2021-12-27 14:33:01.688264,-155
2021-12-27 14:33:01.688270,-145
2021-12-27 14:33:01.688276,-145
2021-12-27 14:33:01.688282,-125
2021-12-27 14:33:01.688288,-136
2021-12-27 14:33:01.688295,-180
2021-12-27 14:33:01.688301,-166
2021-12-27 14:33:01.688307,-120
2021-12-27 14:33:01.688313,-122
2021-12-27 14:33:01.688319,-138
2021-12-27 14:33:01.688325,-162
2021-12-27 14:33:01.688331,-206
2021-12-27 14:33:01.688338,-192
2021-12-27 14:33:01.688344,-150
2021-12-27 14:33:01.688350,-145
2021-12-27 14:33:01.688356,-134
2021-12-27 14:33:01.688362,-115
2021-12-27 14:33:01.688368,-152
2021-12-27 14:33:01.688374,-145
2021-12-27 14:33:01.688381,162
2021-12-27 14:33:01.688420,852
2021-12-27 14:33:01.688445,1639
2021-12-27 14:33:01.688459,1956
2021-12-27 14:33:01.932372,949
2021-12-27 14:33:01.932392,-780
2021-12-27 14:33:01.932399,-1076
2021-12-27 14:33:01.932406,-270
2021-12-27 14:33:01.932412,-150
2021-12-27 14:33:01.932419,-287
2021-12-27 14:33:01.932425,-85
2021-12-27 14:33:01.932431,-46
2021-12-27 14:33:01.932437,-136
2021-12-27 14:33:01.932444,-71
2021-12-27 14:33:01.932450,-4
2021-12-27 14:33:01.932456,-9
2021-12-27 14:33:01.932462,6
2021-12-27 14:33:01.932468,11
2021-12-27 14:33:01.932475,-4
2021-12-27 14:33:01.932481,2
2021-12-27 14:33:01.932487,32
2021-12-27 14:33:01.932494,55
2021-12-27 14:33:01.932500,41
2021-12-27 14:33:01.932506,39
2021-12-27 14:33:01.932512,113
2021-12-27 14:33:01.932519,194
2021-12-27 14:33:01.932526,213
2021-12-27 14:33:01.932532,233
2021-12-27 14:33:01.932539,282
2021-12-27 14:33:01.932545,296
2021-12-27 14:33:01.932551,282
2021-12-27 14:33:01.932557,277
2021-12-27 14:33:01.932564,284
2021-12-27 14:33:01.932570,289
2021-12-27 14:33:02.127485,291
2021-12-27 14:33:02.127506,282
2021-12-27 14:33:02.127513,233
2021-12-27 14:33:02.127520,159
2021-12-27 14:33:02.127526,97
2021-12-27 14:33:02.127532,46
2021-12-27 14:33:02.127539,-6
2021-12-27 14:33:02.127545,-55
2021-12-27 14:33:02.127551,-120
2021-12-27 14:33:02.127557,-180
2021-12-27 14:33:02.127564,-171
2021-12-27 14:33:02.127570,-125
2021-12-27 14:33:02.127576,-106
2021-12-27 14:33:02.127582,-92
2021-12-27 14:33:02.127588,-90
2021-12-27 14:33:02.127594,-120
2021-12-27 14:33:02.127601,-129
2021-12-27 14:33:02.127607,-134
2021-12-27 14:33:02.127613,-162
2021-12-27 14:33:02.127619,-148
2021-12-27 14:33:02.127625,-118
2021-12-27 14:33:02.127631,-148
2021-12-27 14:33:02.127638,-171
2021-12-27 14:33:02.127644,-134
2021-12-27 14:33:02.127650,-113
2021-12-27 14:33:02.127656,-131
2021-12-27 14:33:02.127662,-155
2021-12-27 14:33:02.127669,-164
2021-12-27 14:33:02.127678,-166
2021-12-27 14:33:02.127684,-152
2021-12-27 14:33:02.419361,-138
2021-12-27 14:33:02.419382,-150
2021-12-27 14:33:02.419390,-173
2021-12-27 14:33:02.419396,-210
2021-12-27 14:33:02.419402,-259
2021-12-27 14:33:02.419409,-263
2021-12-27 14:33:02.419415,-224
2021-12-27 14:33:02.419421,-206
2021-12-27 14:33:02.419427,-203
2021-12-27 14:33:02.419433,-210
2021-12-27 14:33:02.419440,-236
2021-12-27 14:33:02.419446,-240
2021-12-27 14:33:02.419452,-210
2021-12-27 14:33:02.419458,-185
2021-12-27 14:33:02.419464,-175
2021-12-27 14:33:02.419470,-162
2021-12-27 14:33:02.419476,-162
2021-12-27 14:33:02.419482,-159
2021-12-27 14:33:02.419489,-125
2021-12-27 14:33:02.419495,-92
2021-12-27 14:33:02.419501,-92
2021-12-27 14:33:02.419507,-101
2021-12-27 14:33:02.419513,-111
2021-12-27 14:33:02.419519,-131
2021-12-27 14:33:02.419525,-141
2021-12-27 14:33:02.419532,-113
2021-12-27 14:33:02.419538,-92
2021-12-27 14:33:02.419544,-92
2021-12-27 14:33:02.419550,-92
2021-12-27 14:33:02.419556,-120
2021-12-27 14:33:02.663146,-125
2021-12-27 14:33:02.663177,138
2021-12-27 14:33:02.663189,798
2021-12-27 14:33:02.663198,1583
2021-12-27 14:33:02.663208,1958
2021-12-27 14:33:02.663217,1088
2021-12-27 14:33:02.663227,-662
2021-12-27 14:33:02.663236,-1134
2021-12-27 14:33:02.663246,-324
2021-12-27 14:33:02.663255,-127
2021-12-27 14:33:02.663265,-307
2021-12-27 14:33:02.663274,-118
2021-12-27 14:33:02.663284,-41
2021-12-27 14:33:02.663293,-134
2021-12-27 14:33:02.663303,-76
2021-12-27 14:33:02.663312,-11
2021-12-27 14:33:02.663322,-20
2021-12-27 14:33:02.663336,0
2021-12-27 14:33:02.663345,18
2021-12-27 14:33:02.663355,11
2021-12-27 14:33:02.663364,34
2021-12-27 14:33:02.663374,57
2021-12-27 14:33:02.663383,39
2021-12-27 14:33:02.663393,18
2021-12-27 14:33:02.663403,46
2021-12-27 14:33:02.663412,74
2021-12-27 14:33:02.663437,69
2021-12-27 14:33:02.663447,94
2021-12-27 14:33:02.663456,145
2021-12-27 14:33:02.663466,180
2021-12-27 14:33:02.858865,199
2021-12-27 14:33:02.858886,210
2021-12-27 14:33:02.858894,213
2021-12-27 14:33:02.858900,210
2021-12-27 14:33:02.858906,215
2021-12-27 14:33:02.858913,224
2021-12-27 14:33:02.858919,222
2021-12-27 14:33:02.858925,173
2021-12-27 14:33:02.858931,104
2021-12-27 14:33:02.858937,41
2021-12-27 14:33:02.858943,-16
2021-12-27 14:33:02.858950,-64
2021-12-27 14:33:02.858956,-99
2021-12-27 14:33:02.858962,-145
2021-12-27 14:33:02.858968,-199
2021-12-27 14:33:02.858974,-201
2021-12-27 14:33:02.858980,-166
2021-12-27 14:33:02.858987,-143
2021-12-27 14:33:02.858993,-120
2021-12-27 14:33:02.858999,-104
2021-12-27 14:33:02.859005,-111
2021-12-27 14:33:02.859011,-111
2021-12-27 14:33:02.859017,-83
2021-12-27 14:33:02.859023,-53
2021-12-27 14:33:02.859030,-39
2021-12-27 14:33:02.859036,-23
2021-12-27 14:33:02.859042,-18
2021-12-27 14:33:02.859048,-46
2021-12-27 14:33:02.859054,-69
2021-12-27 14:33:02.859060,-50
2021-12-27 14:33:03.102024,-34
2021-12-27 14:33:03.102054,-62
2021-12-27 14:33:03.102066,-97
2021-12-27 14:33:03.102075,-106
2021-12-27 14:33:03.102085,-99
2021-12-27 14:33:03.102095,-83
2021-12-27 14:33:03.102104,-83
2021-12-27 14:33:03.102114,-101
2021-12-27 14:33:03.102123,-134
2021-12-27 14:33:03.102132,-189
2021-12-27 14:33:03.102142,-229
2021-12-27 14:33:03.102151,-199
2021-12-27 14:33:03.102161,-162
2021-12-27 14:33:03.102170,-159
2021-12-27 14:33:03.102180,-171
2021-12-27 14:33:03.102190,-201
2021-12-27 14:33:03.102199,-222
2021-12-27 14:33:03.102209,-189
2021-12-27 14:33:03.102218,-155
2021-12-27 14:33:03.102228,-145
2021-12-27 14:33:03.102252,-143
2021-12-27 14:33:03.102258,-148
2021-12-27 14:33:03.102264,-143
2021-12-27 14:33:03.102270,-113
2021-12-27 14:33:03.102277,-85
2021-12-27 14:33:03.102322,-64
2021-12-27 14:33:03.102349,-43
2021-12-27 14:33:03.102359,-53
2021-12-27 14:33:03.102365,-101
2021-12-27 14:33:03.102371,-169
2021-12-27 14:33:03.346303,-194
2021-12-27 14:33:03.346326,-164
2021-12-27 14:33:03.346333,-134
2021-12-27 14:33:03.346340,-143
2021-12-27 14:33:03.346346,-169
2021-12-27 14:33:03.346352,-175
2021-12-27 14:33:03.346358,-173
2021-12-27 14:33:03.346365,-173
2021-12-27 14:33:03.346371,-2
2021-12-27 14:33:03.346377,551
2021-12-27 14:33:03.346383,1326
2021-12-27 14:33:03.346389,1842
2021-12-27 14:33:03.346396,1342
2021-12-27 14:33:03.346402,-291
2021-12-27 14:33:03.346408,-1203
2021-12-27 14:33:03.346414,-557
2021-12-27 14:33:03.346452,-131
2021-12-27 14:33:03.346459,-335
2021-12-27 14:33:03.346465,-208
2021-12-27 14:33:03.346471,-6
2021-12-27 14:33:03.346477,-67
2021-12-27 14:33:03.346483,-76
2021-12-27 14:33:03.346489,11
2021-12-27 14:33:03.346496,18
2021-12-27 14:33:03.346502,11
2021-12-27 14:33:03.346508,60
2021-12-27 14:33:03.346514,90
2021-12-27 14:33:03.346520,94
2021-12-27 14:33:03.346527,118
2021-12-27 14:33:03.346533,148
2021-12-27 14:33:03.541629,157
2021-12-27 14:33:03.541649,155
2021-12-27 14:33:03.541657,150
2021-12-27 14:33:03.541663,166
2021-12-27 14:33:03.541669,203
2021-12-27 14:33:03.541676,224
2021-12-27 14:33:03.541682,219
2021-12-27 14:33:03.541688,231
2021-12-27 14:33:03.541694,263
2021-12-27 14:33:03.541701,268
2021-12-27 14:33:03.541707,268
2021-12-27 14:33:03.541713,275
2021-12-27 14:33:03.541719,252
2021-12-27 14:33:03.541726,210
2021-12-27 14:33:03.541732,196
2021-12-27 14:33:03.541738,162
2021-12-27 14:33:03.541744,92
2021-12-27 14:33:03.541750,34
2021-12-27 14:33:03.541757,-34
2021-12-27 14:33:03.541763,-125
2021-12-27 14:33:03.541769,-169
2021-12-27 14:33:03.541775,-173
2021-12-27 14:33:03.541782,-171
2021-12-27 14:33:03.541788,-148
2021-12-27 14:33:03.541794,-127
2021-12-27 14:33:03.541800,-125
2021-12-27 14:33:03.541807,-118
2021-12-27 14:33:03.541813,-99
2021-12-27 14:33:03.541819,-76
2021-12-27 14:33:03.541825,-50
2021-12-27 14:33:03.736550,-27
2021-12-27 14:33:03.736571,-30
2021-12-27 14:33:03.736578,-43
2021-12-27 14:33:03.736584,-69
2021-12-27 14:33:03.736591,-113
2021-12-27 14:33:03.736597,-122
2021-12-27 14:33:03.736603,-90
2021-12-27 14:33:03.736609,-111
2021-12-27 14:33:03.736615,-175
2021-12-27 14:33:03.736621,-182
2021-12-27 14:33:03.736628,-150
2021-12-27 14:33:03.736634,-136
2021-12-27 14:33:03.736640,-129
2021-12-27 14:33:03.736646,-145
2021-12-27 14:33:03.736652,-203
2021-12-27 14:33:03.736658,-238
2021-12-27 14:33:03.736664,-231
2021-12-27 14:33:03.736670,-236
2021-12-27 14:33:03.736677,-226
2021-12-27 14:33:03.736683,-194
2021-12-27 14:33:03.736689,-201
2021-12-27 14:33:03.736695,-222
2021-12-27 14:33:03.736701,-196
2021-12-27 14:33:03.736707,-166
2021-12-27 14:33:03.736713,-155
2021-12-27 14:33:03.736720,-141
2021-12-27 14:33:03.736726,-136
2021-12-27 14:33:03.736732,-150
2021-12-27 14:33:03.736738,-148
2021-12-27 14:33:03.736744,-125
2021-12-27 14:33:03.979737,-99
2021-12-27 14:33:03.979760,-76
2021-12-27 14:33:03.979767,-87
2021-12-27 14:33:03.979773,-131
2021-12-27 14:33:03.979843,-138
2021-12-27 14:33:03.979853,-122
2021-12-27 14:33:03.979860,-141
2021-12-27 14:33:03.979867,-148
2021-12-27 14:33:03.979873,-141
2021-12-27 14:33:03.979879,-175
2021-12-27 14:33:03.979885,-196
2021-12-27 14:33:03.979891,-155
2021-12-27 14:33:03.979898,-122
2021-12-27 14:33:03.979904,-113
2021-12-27 14:33:03.979910,-120
2021-12-27 14:33:03.979917,-164
2021-12-27 14:33:03.979923,-101
2021-12-27 14:33:03.979929,342
2021-12-27 14:33:03.979935,1125
2021-12-27 14:33:03.979942,1829
2021-12-27 14:33:03.979948,1778
2021-12-27 14:33:03.979954,340
2021-12-27 14:33:03.979960,-1120
2021-12-27 14:33:03.979967,-805
2021-12-27 14:33:03.979973,-71
2021-12-27 14:33:03.979979,-194
2021-12-27 14:33:03.979986,-219
2021-12-27 14:33:03.979992,9
2021-12-27 14:33:03.979999,-20
2021-12-27 14:33:03.980005,-78
2021-12-27 14:33:04.224196,18
2021-12-27 14:33:04.224215,60
2021-12-27 14:33:04.224223,43
2021-12-27 14:33:04.224229,67
2021-12-27 14:33:04.224236,74
2021-12-27 14:33:04.224242,50
2021-12-27 14:33:04.224248,62
2021-12-27 14:33:04.224254,90
2021-12-27 14:33:04.224261,74
2021-12-27 14:33:04.224267,46
2021-12-27 14:33:04.224273,23
2021-12-27 14:33:04.224280,16
2021-12-27 14:33:04.224286,41
2021-12-27 14:33:04.224292,94
2021-12-27 14:33:04.224298,134
2021-12-27 14:33:04.224305,152
2021-12-27 14:33:04.224311,175
2021-12-27 14:33:04.224317,187
2021-12-27 14:33:04.224323,185
2021-12-27 14:33:04.224329,199
2021-12-27 14:33:04.224336,208
2021-12-27 14:33:04.224342,189
2021-12-27 14:33:04.224348,178
2021-12-27 14:33:04.224354,152
2021-12-27 14:33:04.224360,85
2021-12-27 14:33:04.224367,25
2021-12-27 14:33:04.224373,-20
2021-12-27 14:33:04.224379,-81
2021-12-27 14:33:04.224385,-122
2021-12-27 14:33:04.224392,-134
2021-12-27 14:33:04.564064,-143
2021-12-27 14:33:04.564095,-141
2021-12-27 14:33:04.564107,-113
2021-12-27 14:33:04.564117,-104
2021-12-27 14:33:04.564126,-94
2021-12-27 14:33:04.564136,-69
2021-12-27 14:33:04.564145,-74
2021-12-27 14:33:04.564155,-97
2021-12-27 14:33:04.564164,-81
2021-12-27 14:33:04.564173,-78
2021-12-27 14:33:04.564183,-106
2021-12-27 14:33:04.564193,-94
2021-12-27 14:33:04.564202,-78
2021-12-27 14:33:04.564211,-122
2021-12-27 14:33:04.564221,-164
2021-12-27 14:33:04.564230,-157
2021-12-27 14:33:04.564240,-136
2021-12-27 14:33:04.564249,-122
2021-12-27 14:33:04.564259,-115
2021-12-27 14:33:04.564268,-136
2021-12-27 14:33:04.564278,-169
2021-12-27 14:33:04.564287,-180
2021-12-27 14:33:04.564297,-182
2021-12-27 14:33:04.564306,-192
2021-12-27 14:33:04.564316,-185
2021-12-27 14:33:04.564325,-178
2021-12-27 14:33:04.564335,-187
2021-12-27 14:33:04.564344,-185
2021-12-27 14:33:04.564354,-159
2021-12-27 14:33:04.564363,-143
2021-12-27 14:33:04.662482,-134
2021-12-27 14:33:04.662504,-125
2021-12-27 14:33:04.662512,-125
2021-12-27 14:33:04.662518,-131
2021-12-27 14:33:04.662525,-118
2021-12-27 14:33:04.662531,-94
2021-12-27 14:33:04.662537,-85
2021-12-27 14:33:04.662543,-94
2021-12-27 14:33:04.662549,-122
2021-12-27 14:33:04.662556,-136
2021-12-27 14:33:04.662562,-115
2021-12-27 14:33:04.662568,-113
2021-12-27 14:33:04.662574,-127
2021-12-27 14:33:04.662580,-97
2021-12-27 14:33:04.662587,-92
2021-12-27 14:33:04.662593,-162
2021-12-27 14:33:04.662599,-199
2021-12-27 14:33:04.662605,-162
2021-12-27 14:33:04.662611,-134
2021-12-27 14:33:04.662618,-122
2021-12-27 14:33:04.662624,-125
2021-12-27 14:33:04.662630,-155
2021-12-27 14:33:04.662636,-157
2021-12-27 14:33:04.662642,-136
2021-12-27 14:33:04.662648,-143
2021-12-27 14:33:04.662655,-11
2021-12-27 14:33:04.662661,507
2021-12-27 14:33:04.662667,1268
2021-12-27 14:33:04.662674,1847
2021-12-27 14:33:04.662680,1539
2021-12-27 14:33:04.906393,-25
2021-12-27 14:33:04.906414,-1153
2021-12-27 14:33:04.906421,-608
2021-12-27 14:33:04.906428,-106
2021-12-27 14:33:04.906434,-335
2021-12-27 14:33:04.906440,-252
2021-12-27 14:33:04.906446,-20
2021-12-27 14:33:04.906452,-74
2021-12-27 14:33:04.906458,-92
2021-12-27 14:33:04.906464,-25
2021-12-27 14:33:04.906470,-55
2021-12-27 14:33:04.906476,-67
2021-12-27 14:33:04.906482,-2
2021-12-27 14:33:04.906488,16
2021-12-27 14:33:04.906497,-11
2021-12-27 14:33:04.906504,0
2021-12-27 14:33:04.906510,32
2021-12-27 14:33:04.906516,57
2021-12-27 14:33:04.906522,90
2021-12-27 14:33:04.906528,131
2021-12-27 14:33:04.906535,166
2021-12-27 14:33:04.906541,187
2021-12-27 14:33:04.906547,203
2021-12-27 14:33:04.906553,229
2021-12-27 14:33:04.906559,261
2021-12-27 14:33:04.906565,287
2021-12-27 14:33:04.906572,291
2021-12-27 14:33:04.906578,289
2021-12-27 14:33:04.906584,287
2021-12-27 14:33:04.906590,280
2021-12-27 14:33:05.198174,270
2021-12-27 14:33:05.198205,261
2021-12-27 14:33:05.198216,217
2021-12-27 14:33:05.198226,138
2021-12-27 14:33:05.198235,64
2021-12-27 14:33:05.198245,-20
2021-12-27 14:33:05.198254,-106
2021-12-27 14:33:05.198264,-129
2021-12-27 14:33:05.198273,-127
2021-12-27 14:33:05.198283,-143
2021-12-27 14:33:05.198292,-138
2021-12-27 14:33:05.198302,-136
2021-12-27 14:33:05.198311,-152
2021-12-27 14:33:05.198320,-134
2021-12-27 14:33:05.198330,-97
2021-12-27 14:33:05.198339,-111
2021-12-27 14:33:05.198349,-131
2021-12-27 14:33:05.198358,-122
2021-12-27 14:33:05.198368,-129
2021-12-27 14:33:05.198377,-166
2021-12-27 14:33:05.198387,-203
2021-12-27 14:33:05.198396,-224
2021-12-27 14:33:05.198406,-201
2021-12-27 14:33:05.198415,-180
2021-12-27 14:33:05.198425,-213
2021-12-27 14:33:05.198434,-229
2021-12-27 14:33:05.198444,-215
2021-12-27 14:33:05.198453,-231
2021-12-27 14:33:05.198463,-245
2021-12-27 14:33:05.198472,-215
2021-12-27 14:33:05.442791,-208
2021-12-27 14:33:05.442822,-226
2021-12-27 14:33:05.442833,-219
2021-12-27 14:33:05.442843,-208
2021-12-27 14:33:05.442852,-203
2021-12-27 14:33:05.442862,-180
2021-12-27 14:33:05.442871,-166
2021-12-27 14:33:05.442881,-187
2021-12-27 14:33:05.442890,-201
2021-12-27 14:33:05.442900,-175
2021-12-27 14:33:05.442909,-150
2021-12-27 14:33:05.442919,-136
2021-12-27 14:33:05.442928,-127
2021-12-27 14:33:05.442938,-145
2021-12-27 14:33:05.442947,-171
2021-12-27 14:33:05.442957,-162
2021-12-27 14:33:05.442966,-143
2021-12-27 14:33:05.442976,-131
2021-12-27 14:33:05.442985,-125
2021-12-27 14:33:05.442995,-131
2021-12-27 14:33:05.443004,-138
2021-12-27 14:33:05.443014,-131
2021-12-27 14:33:05.443023,-106
2021-12-27 14:33:05.443032,-81
2021-12-27 14:33:05.443042,-74
2021-12-27 14:33:05.443051,-81
2021-12-27 14:33:05.443061,-97
2021-12-27 14:33:05.443070,-92
2021-12-27 14:33:05.443080,-62
2021-12-27 14:33:05.443089,-32
2021-12-27 14:33:05.589174,-13
2021-12-27 14:33:05.589195,-9
2021-12-27 14:33:05.589202,-46
2021-12-27 14:33:05.589209,-46
2021-12-27 14:33:05.589215,259
2021-12-27 14:33:05.589221,942
2021-12-27 14:33:05.589227,1683
2021-12-27 14:33:05.589233,1926
2021-12-27 14:33:05.589240,902
2021-12-27 14:33:05.589246,-743
2021-12-27 14:33:05.589252,-967
2021-12-27 14:33:05.589258,-189
2021-12-27 14:33:05.589264,-87
2021-12-27 14:33:05.589270,-206
2021-12-27 14:33:05.589276,0
2021-12-27 14:33:05.589283,46
2021-12-27 14:33:05.589289,-37
2021-12-27 14:33:05.589295,37
2021-12-27 14:33:05.589301,108
2021-12-27 14:33:05.589307,78
2021-12-27 14:33:05.589313,46
2021-12-27 14:33:05.589319,27
2021-12-27 14:33:05.589326,18
2021-12-27 14:33:05.589332,60
2021-12-27 14:33:05.589338,108
2021-12-27 14:33:05.589344,108
2021-12-27 14:33:05.589350,74
2021-12-27 14:33:05.589356,60
2021-12-27 14:33:05.589363,90
2021-12-27 14:33:05.589369,138
2021-12-27 14:33:05.832752,187
2021-12-27 14:33:05.832774,231
2021-12-27 14:33:05.832781,261
2021-12-27 14:33:05.832788,259
2021-12-27 14:33:05.832794,233
2021-12-27 14:33:05.832800,229
2021-12-27 14:33:05.832806,256
2021-12-27 14:33:05.832812,277
2021-12-27 14:33:05.832819,280
2021-12-27 14:33:05.832825,261
2021-12-27 14:33:05.832831,196
2021-12-27 14:33:05.832837,106
2021-12-27 14:33:05.832843,53
2021-12-27 14:33:05.832849,16
2021-12-27 14:33:05.832855,-48
2021-12-27 14:33:05.832861,-108
2021-12-27 14:33:05.832868,-138
2021-12-27 14:33:05.832874,-152
2021-12-27 14:33:05.832880,-145
2021-12-27 14:33:05.832886,-122
2021-12-27 14:33:05.832893,-97
2021-12-27 14:33:05.832899,-94
2021-12-27 14:33:05.832905,-122
2021-12-27 14:33:05.832911,-150
2021-12-27 14:33:05.832917,-148
2021-12-27 14:33:05.832924,-120
2021-12-27 14:33:05.832930,-97
2021-12-27 14:33:05.832936,-92
2021-12-27 14:33:05.832942,-92
2021-12-27 14:33:05.832948,-106
2021-12-27 14:33:06.076262,-134
2021-12-27 14:33:06.076282,-138
2021-12-27 14:33:06.076290,-152
2021-12-27 14:33:06.076296,-185
2021-12-27 14:33:06.076303,-189
2021-12-27 14:33:06.076309,-194
2021-12-27 14:33:06.076315,-231
2021-12-27 14:33:06.076322,-236
2021-12-27 14:33:06.076328,-201
2021-12-27 14:33:06.076334,-192
2021-12-27 14:33:06.076340,-189
2021-12-27 14:33:06.076347,-180
2021-12-27 14:33:06.076353,-199
2021-12-27 14:33:06.076359,-210
2021-12-27 14:33:06.076365,-185
2021-12-27 14:33:06.076372,-171
2021-12-27 14:33:06.076378,-162
2021-12-27 14:33:06.076384,-138
2021-12-27 14:33:06.076390,-136
2021-12-27 14:33:06.076397,-136
2021-12-27 14:33:06.076403,-118
2021-12-27 14:33:06.076409,-104
2021-12-27 14:33:06.076415,-99
2021-12-27 14:33:06.076421,-87
2021-12-27 14:33:06.076428,-106
2021-12-27 14:33:06.076434,-127
2021-12-27 14:33:06.076440,-106
2021-12-27 14:33:06.076446,-74
2021-12-27 14:33:06.076452,-60
2021-12-27 14:33:06.076459,-43
2021-12-27 14:33:06.369031,-46
2021-12-27 14:33:06.369062,-99
2021-12-27 14:33:06.369073,-148
2021-12-27 14:33:06.369083,-127
2021-12-27 14:33:06.369093,-92
2021-12-27 14:33:06.369102,-81
2021-12-27 14:33:06.369112,-69
2021-12-27 14:33:06.369121,-90
2021-12-27 14:33:06.369131,-159
2021-12-27 14:33:06.369140,-113
2021-12-27 14:33:06.369150,300
2021-12-27 14:33:06.369159,1067
2021-12-27 14:33:06.369169,1826
2021-12-27 14:33:06.369178,1903
2021-12-27 14:33:06.369188,544
2021-12-27 14:33:06.369197,-1071
2021-12-27 14:33:06.369207,-946
2021-12-27 14:33:06.369216,-173
2021-12-27 14:33:06.369226,-231
2021-12-27 14:33:06.369235,-289
2021-12-27 14:33:06.369245,-53
2021-12-27 14:33:06.369254,-46
2021-12-27 14:33:06.369264,-97
2021-12-27 14:33:06.369274,-2
2021-12-27 14:33:06.369283,48
2021-12-27 14:33:06.369293,23
2021-12-27 14:33:06.369302,6
2021-12-27 14:33:06.369312,0
2021-12-27 14:33:06.369321,27
2021-12-27 14:33:06.369331,81
2021-12-27 14:33:06.562862,120
2021-12-27 14:33:06.562892,141
2021-12-27 14:33:06.562903,155
2021-12-27 14:33:06.562913,164
2021-12-27 14:33:06.562923,194
2021-12-27 14:33:06.562933,243
2021-12-27 14:33:06.562942,270
2021-12-27 14:33:06.562952,298
2021-12-27 14:33:06.562962,324
2021-12-27 14:33:06.562971,319
2021-12-27 14:33:06.562981,312
2021-12-27 14:33:06.562990,333
2021-12-27 14:33:06.563000,356
2021-12-27 14:33:06.563010,354
2021-12-27 14:33:06.563020,340
2021-12-27 14:33:06.563029,287
2021-12-27 14:33:06.563039,196
2021-12-27 14:33:06.563048,127
2021-12-27 14:33:06.563058,74
2021-12-27 14:33:06.563068,4
2021-12-27 14:33:06.563077,-62
2021-12-27 14:33:06.563087,-127
2021-12-27 14:33:06.563096,-194
2021-12-27 14:33:06.563106,-210
2021-12-27 14:33:06.563116,-180
2021-12-27 14:33:06.563125,-155
2021-12-27 14:33:06.563135,-150
2021-12-27 14:33:06.563144,-150
2021-12-27 14:33:06.563154,-152
2021-12-27 14:33:06.563163,-141
2021-12-27 14:33:06.758862,-125
2021-12-27 14:33:06.758893,-134
2021-12-27 14:33:06.758905,-143
2021-12-27 14:33:06.758914,-136
2021-12-27 14:33:06.758924,-155
2021-12-27 14:33:06.758933,-185
2021-12-27 14:33:06.758943,-213
2021-12-27 14:33:06.758952,-252
2021-12-27 14:33:06.758962,-270
2021-12-27 14:33:06.758971,-275
2021-12-27 14:33:06.758981,-307
2021-12-27 14:33:06.758990,-335
2021-12-27 14:33:06.759000,-324
2021-12-27 14:33:06.759009,-294
2021-12-27 14:33:06.759019,-282
2021-12-27 14:33:06.759028,-280
2021-12-27 14:33:06.759037,-266
2021-12-27 14:33:06.759047,-256
2021-12-27 14:33:06.759056,-245
2021-12-27 14:33:06.759066,-213
2021-12-27 14:33:06.759075,-196
2021-12-27 14:33:06.759085,-201
2021-12-27 14:33:06.759094,-185
2021-12-27 14:33:06.759104,-164
2021-12-27 14:33:06.759113,-169
2021-12-27 14:33:06.759123,-155
2021-12-27 14:33:06.759132,-129
2021-12-27 14:33:06.759142,-125
2021-12-27 14:33:06.759151,-115
2021-12-27 14:33:06.759161,-90
2021-12-27 14:33:07.002599,-104
2021-12-27 14:33:07.002619,-115
2021-12-27 14:33:07.002627,-78
2021-12-27 14:33:07.002634,-57
2021-12-27 14:33:07.002640,-60
2021-12-27 14:33:07.002646,-53
2021-12-27 14:33:07.002652,-83
2021-12-27 14:33:07.002659,-125
2021-12-27 14:33:07.002665,-108
2021-12-27 14:33:07.002671,-85
2021-12-27 14:33:07.002677,-78
2021-12-27 14:33:07.002683,-57
2021-12-27 14:33:07.002689,-60
2021-12-27 14:33:07.002696,-115
2021-12-27 14:33:07.002702,-155
2021-12-27 14:33:07.002708,-27
2021-12-27 14:33:07.002714,469
2021-12-27 14:33:07.002721,1291
2021-12-27 14:33:07.002727,1991
2021-12-27 14:33:07.002733,1750
2021-12-27 14:33:07.002739,120
2021-12-27 14:33:07.002746,-1169
2021-12-27 14:33:07.002752,-671
2021-12-27 14:33:07.002758,-60
2021-12-27 14:33:07.002764,-236
2021-12-27 14:33:07.002770,-196
2021-12-27 14:33:07.002777,13
2021-12-27 14:33:07.002783,-30
2021-12-27 14:33:07.002789,-48
2021-12-27 14:33:07.002795,46
2021-12-27 14:33:07.246658,71
2021-12-27 14:33:07.246680,57
2021-12-27 14:33:07.246687,60
2021-12-27 14:33:07.246693,50
2021-12-27 14:33:07.246700,74
2021-12-27 14:33:07.246706,127
2021-12-27 14:33:07.246712,157
2021-12-27 14:33:07.246718,162
2021-12-27 14:33:07.246724,148
2021-12-27 14:33:07.246730,145
2021-12-27 14:33:07.246737,187
2021-12-27 14:33:07.246743,229
2021-12-27 14:33:07.246749,224
2021-12-27 14:33:07.246755,203
2021-12-27 14:33:07.246761,196
2021-12-27 14:33:07.246767,194
2021-12-27 14:33:07.246773,215
2021-12-27 14:33:07.246779,250
2021-12-27 14:33:07.246786,263
2021-12-27 14:33:07.246792,268
2021-12-27 14:33:07.246798,261
2021-12-27 14:33:07.246804,213
2021-12-27 14:33:07.246810,152
2021-12-27 14:33:07.246817,101
2021-12-27 14:33:07.246823,34
2021-12-27 14:33:07.246829,-27
2021-12-27 14:33:07.246836,-85
2021-12-27 14:33:07.246842,-143
2021-12-27 14:33:07.246848,-164
2021-12-27 14:33:07.246854,-145
2021-12-27 14:33:07.538847,-127
2021-12-27 14:33:07.538877,-111
2021-12-27 14:33:07.538889,-92
2021-12-27 14:33:07.538898,-97
2021-12-27 14:33:07.538908,-118
2021-12-27 14:33:07.538917,-111
2021-12-27 14:33:07.538927,-71
2021-12-27 14:33:07.538936,-43
2021-12-27 14:33:07.538946,-48
2021-12-27 14:33:07.538955,-92
2021-12-27 14:33:07.538965,-136
2021-12-27 14:33:07.538975,-125
2021-12-27 14:33:07.538984,-92
2021-12-27 14:33:07.538993,-81
2021-12-27 14:33:07.539003,-94
2021-12-27 14:33:07.539012,-138
2021-12-27 14:33:07.539022,-189
2021-12-27 14:33:07.539031,-215
2021-12-27 14:33:07.539041,-217
2021-12-27 14:33:07.539055,-206
2021-12-27 14:33:07.539064,-194
2021-12-27 14:33:07.539074,-199
2021-12-27 14:33:07.539084,-208
2021-12-27 14:33:07.539093,-201
2021-12-27 14:33:07.539102,-180
2021-12-27 14:33:07.539112,-164
2021-12-27 14:33:07.539121,-157
2021-12-27 14:33:07.539131,-155
2021-12-27 14:33:07.539140,-152
2021-12-27 14:33:07.539150,-148
2021-12-27 14:33:07.685430,-131
2021-12-27 14:33:07.685461,-111
2021-12-27 14:33:07.685472,-104
2021-12-27 14:33:07.685482,-108
2021-12-27 14:33:07.685492,-101
2021-12-27 14:33:07.685501,-81
2021-12-27 14:33:07.685511,-81
2021-12-27 14:33:07.685520,-94
2021-12-27 14:33:07.685530,-83
2021-12-27 14:33:07.685539,-60
2021-12-27 14:33:07.685549,-53
2021-12-27 14:33:07.685558,-83
2021-12-27 14:33:07.685568,-120
2021-12-27 14:33:07.685577,-115
2021-12-27 14:33:07.685587,-104
2021-12-27 14:33:07.685597,-106
2021-12-27 14:33:07.685606,-92
2021-12-27 14:33:07.685616,-85
2021-12-27 14:33:07.685625,-122
2021-12-27 14:33:07.685635,-143
2021-12-27 14:33:07.685645,-152
2021-12-27 14:33:07.685654,-162
2021-12-27 14:33:07.685664,78
2021-12-27 14:33:07.685673,759
2021-12-27 14:33:07.685683,1595
2021-12-27 14:33:07.685692,2023
2021-12-27 14:33:07.685702,1194
2021-12-27 14:33:07.685712,-622
2021-12-27 14:33:07.685721,-1201
2021-12-27 14:33:07.685731,-368
2021-12-27 14:33:07.928440,-136
2021-12-27 14:33:07.928460,-361
2021-12-27 14:33:07.928467,-159
2021-12-27 14:33:07.928474,-23
2021-12-27 14:33:07.928480,-111
2021-12-27 14:33:07.928486,-62
2021-12-27 14:33:07.928492,-2
2021-12-27 14:33:07.928498,-62
2021-12-27 14:33:07.928505,-92
2021-12-27 14:33:07.928511,-55
2021-12-27 14:33:07.928517,-27
2021-12-27 14:33:07.928523,0
2021-12-27 14:33:07.928529,25
2021-12-27 14:33:07.928535,25
2021-12-27 14:33:07.928542,30
2021-12-27 14:33:07.928548,64
2021-12-27 14:33:07.928554,108
2021-12-27 14:33:07.928560,150
2021-12-27 14:33:07.928566,192
2021-12-27 14:33:07.928573,222
2021-12-27 14:33:07.928579,238
2021-12-27 14:33:07.928585,263
2021-12-27 14:33:07.928591,294
2021-12-27 14:33:07.928597,317
2021-12-27 14:33:07.928603,328
2021-12-27 14:33:07.928610,331
2021-12-27 14:33:07.928616,312
2021-12-27 14:33:07.928622,284
2021-12-27 14:33:07.928628,250
2021-12-27 14:33:07.928634,196
2021-12-27 14:33:08.124033,122
2021-12-27 14:33:08.124056,43
2021-12-27 14:33:08.124064,-39
2021-12-27 14:33:08.124070,-108
2021-12-27 14:33:08.124077,-134
2021-12-27 14:33:08.124083,-129
2021-12-27 14:33:08.124089,-120
2021-12-27 14:33:08.124095,-108
2021-12-27 14:33:08.124102,-129
2021-12-27 14:33:08.124108,-175
2021-12-27 14:33:08.124114,-187
2021-12-27 14:33:08.124120,-166
2021-12-27 14:33:08.124126,-136
2021-12-27 14:33:08.124133,-108
2021-12-27 14:33:08.124139,-115
2021-12-27 14:33:08.124145,-152
2021-12-27 14:33:08.124151,-152
2021-12-27 14:33:08.124157,-136
2021-12-27 14:33:08.124164,-145
2021-12-27 14:33:08.124170,-141
2021-12-27 14:33:08.124176,-122
2021-12-27 14:33:08.124182,-136
2021-12-27 14:33:08.124188,-155
2021-12-27 14:33:08.124195,-166
2021-12-27 14:33:08.124201,-226
2021-12-27 14:33:08.124207,-273
2021-12-27 14:33:08.124213,-282
2021-12-27 14:33:08.124220,-314
2021-12-27 14:33:08.124226,-312
2021-12-27 14:33:08.124232,-266
2021-12-27 14:33:08.367935,-252
2021-12-27 14:33:08.367956,-247
2021-12-27 14:33:08.367963,-226
2021-12-27 14:33:08.367970,-250
2021-12-27 14:33:08.367976,-305
2021-12-27 14:33:08.367982,-298
2021-12-27 14:33:08.367988,-240
2021-12-27 14:33:08.367995,-208
2021-12-27 14:33:08.368001,-201
2021-12-27 14:33:08.368007,-203
2021-12-27 14:33:08.368013,-236
2021-12-27 14:33:08.368019,-261
2021-12-27 14:33:08.368025,-254
2021-12-27 14:33:08.368032,-245
2021-12-27 14:33:08.368038,-224
2021-12-27 14:33:08.368044,-201
2021-12-27 14:33:08.368050,-206
2021-12-27 14:33:08.368056,-201
2021-12-27 14:33:08.368062,-157
2021-12-27 14:33:08.368068,-129
2021-12-27 14:33:08.368075,-129
2021-12-27 14:33:08.368081,-131
2021-12-27 14:33:08.368087,-138
2021-12-27 14:33:08.368093,-145
2021-12-27 14:33:08.368099,-122
2021-12-27 14:33:08.368105,-90
2021-12-27 14:33:08.368112,-74
2021-12-27 14:33:08.368118,-62
2021-12-27 14:33:08.368124,-57
2021-12-27 14:33:08.368130,-90
2021-12-27 14:33:08.707783,-74
2021-12-27 14:33:08.707814,245
2021-12-27 14:33:08.707826,960
2021-12-27 14:33:08.707836,1768
2021-12-27 14:33:08.707845,2076
2021-12-27 14:33:08.707854,1014
2021-12-27 14:33:08.707864,-768
2021-12-27 14:33:08.707873,-1034
2021-12-27 14:33:08.707883,-194
2021-12-27 14:33:08.707892,-111
2021-12-27 14:33:08.707902,-277
2021-12-27 14:33:08.707911,-67
2021-12-27 14:33:08.707921,-30
2021-12-27 14:33:08.707930,-125
2021-12-27 14:33:08.707940,-71
2021-12-27 14:33:08.707949,-41
2021-12-27 14:33:08.707958,-53
2021-12-27 14:33:08.707968,-11
2021-12-27 14:33:08.707977,16
2021-12-27 14:33:08.707987,23
2021-12-27 14:33:08.707996,53
2021-12-27 14:33:08.708006,81
2021-12-27 14:33:08.708015,90
2021-12-27 14:33:08.708025,111
2021-12-27 14:33:08.708034,148
2021-12-27 14:33:08.708044,187
2021-12-27 14:33:08.708053,213
2021-12-27 14:33:08.708063,229
2021-12-27 14:33:08.708072,245
2021-12-27 14:33:08.708082,236
2021-12-27 14:33:08.855479,215
2021-12-27 14:33:08.855501,229
2021-12-27 14:33:08.855508,252
2021-12-27 14:33:08.855515,250
2021-12-27 14:33:08.855521,252
2021-12-27 14:33:08.855527,263
2021-12-27 14:33:08.855534,252
2021-12-27 14:33:08.855540,194
2021-12-27 14:33:08.855546,108
2021-12-27 14:33:08.855552,37
2021-12-27 14:33:08.855558,-20
2021-12-27 14:33:08.855564,-67
2021-12-27 14:33:08.855571,-104
2021-12-27 14:33:08.855577,-150
2021-12-27 14:33:08.855583,-201
2021-12-27 14:33:08.855590,-217
2021-12-27 14:33:08.855596,-213
2021-12-27 14:33:08.855602,-210
2021-12-27 14:33:08.855608,-185
2021-12-27 14:33:08.855614,-162
2021-12-27 14:33:08.855620,-178
2021-12-27 14:33:08.855627,-182
2021-12-27 14:33:08.855633,-143
2021-12-27 14:33:08.855639,-113
2021-12-27 14:33:08.855645,-99
2021-12-27 14:33:08.855651,-87
2021-12-27 14:33:08.855657,-104
2021-12-27 14:33:08.855663,-134
2021-12-27 14:33:08.855670,-115
2021-12-27 14:33:08.855676,-83
2021-12-27 14:33:09.099057,-76
2021-12-27 14:33:09.099078,-81
2021-12-27 14:33:09.099086,-111
2021-12-27 14:33:09.099092,-157
2021-12-27 14:33:09.099098,-166
2021-12-27 14:33:09.099105,-166
2021-12-27 14:33:09.099111,-164
2021-12-27 14:33:09.099117,-148
2021-12-27 14:33:09.099123,-159
2021-12-27 14:33:09.099129,-210
2021-12-27 14:33:09.099135,-217
2021-12-27 14:33:09.099141,-171
2021-12-27 14:33:09.099148,-150
2021-12-27 14:33:09.099154,-148
2021-12-27 14:33:09.099160,-145
2021-12-27 14:33:09.099166,-173
2021-12-27 14:33:09.099173,-194
2021-12-27 14:33:09.099179,-166
2021-12-27 14:33:09.099185,-159
2021-12-27 14:33:09.099191,-182
2021-12-27 14:33:09.099197,-169
2021-12-27 14:33:09.099204,-157
2021-12-27 14:33:09.099210,-166
2021-12-27 14:33:09.099216,-152
2021-12-27 14:33:09.099222,-122
2021-12-27 14:33:09.099228,-99
2021-12-27 14:33:09.099235,-71
2021-12-27 14:33:09.099241,-67
2021-12-27 14:33:09.099247,-74
2021-12-27 14:33:09.099253,-48
2021-12-27 14:33:09.294243,-16
2021-12-27 14:33:09.294264,-11
2021-12-27 14:33:09.294271,-9
2021-12-27 14:33:09.294277,-6
2021-12-27 14:33:09.294284,-41
2021-12-27 14:33:09.294290,-94
2021-12-27 14:33:09.294296,-94
2021-12-27 14:33:09.294302,-50
2021-12-27 14:33:09.294308,-27
2021-12-27 14:33:09.294315,-37
2021-12-27 14:33:09.294321,-83
2021-12-27 14:33:09.294327,-141
2021-12-27 14:33:09.294333,-4
2021-12-27 14:33:09.294340,537
2021-12-27 14:33:09.294346,1322
2021-12-27 14:33:09.294352,1930
2021-12-27 14:33:09.294358,1599
2021-12-27 14:33:09.294364,-41
2021-12-27 14:33:09.294371,-1187
2021-12-27 14:33:09.294377,-608
2021-12-27 14:33:09.294383,-101
2021-12-27 14:33:09.294389,-342
2021-12-27 14:33:09.294395,-256
2021-12-27 14:33:09.294402,-30
2021-12-27 14:33:09.294408,-87
2021-12-27 14:33:09.294414,-97
2021-12-27 14:33:09.294420,2
2021-12-27 14:33:09.294426,13
2021-12-27 14:33:09.294433,11
2021-12-27 14:33:09.294439,55
2021-12-27 14:33:09.585977,81
2021-12-27 14:33:09.586007,94
2021-12-27 14:33:09.586018,129
2021-12-27 14:33:09.586028,150
2021-12-27 14:33:09.586038,169
2021-12-27 14:33:09.586047,189
2021-12-27 14:33:09.586056,180
2021-12-27 14:33:09.586066,175
2021-12-27 14:33:09.586075,222
2021-12-27 14:33:09.586085,263
2021-12-27 14:33:09.586094,282
2021-12-27 14:33:09.586104,310
2021-12-27 14:33:09.586113,319
2021-12-27 14:33:09.586122,298
2021-12-27 14:33:09.586132,300
2021-12-27 14:33:09.586141,296
2021-12-27 14:33:09.586151,240
2021-12-27 14:33:09.586160,210
2021-12-27 14:33:09.586169,206
2021-12-27 14:33:09.586179,143
2021-12-27 14:33:09.586188,85
2021-12-27 14:33:09.586198,85
2021-12-27 14:33:09.586207,34
2021-12-27 14:33:09.586217,-81
2021-12-27 14:33:09.586226,-118
2021-12-27 14:33:09.586236,-108
2021-12-27 14:33:09.586245,-122
2021-12-27 14:33:09.586255,-120
2021-12-27 14:33:09.586265,-92
2021-12-27 14:33:09.586274,-74
2021-12-27 14:33:09.732792,-57
2021-12-27 14:33:09.732810,-50
2021-12-27 14:33:09.732818,-74
2021-12-27 14:33:09.732824,-92
2021-12-27 14:33:09.732830,-67
2021-12-27 14:33:09.732837,-37
2021-12-27 14:33:09.732843,-23
2021-12-27 14:33:09.732849,-32
2021-12-27 14:33:09.732855,-71
2021-12-27 14:33:09.732861,-118
2021-12-27 14:33:09.732867,-166
2021-12-27 14:33:09.732874,-206
2021-12-27 14:33:09.732880,-194
2021-12-27 14:33:09.732886,-185
2021-12-27 14:33:09.732892,-229
2021-12-27 14:33:09.732898,-256
2021-12-27 14:33:09.732905,-226
2021-12-27 14:33:09.732911,-192
2021-12-27 14:33:09.732917,-180
2021-12-27 14:33:09.732923,-171
2021-12-27 14:33:09.732929,-185
2021-12-27 14:33:09.732935,-201
2021-12-27 14:33:09.732941,-178
2021-12-27 14:33:09.732948,-150
2021-12-27 14:33:09.732954,-166
2021-12-27 14:33:09.732960,-180
2021-12-27 14:33:09.732966,-166
2021-12-27 14:33:09.732973,-166
2021-12-27 14:33:09.732979,-162
2021-12-27 14:33:09.732985,-127
2021-12-27 14:33:09.976514,-101
2021-12-27 14:33:09.976551,-92
2021-12-27 14:33:09.976561,-94
2021-12-27 14:33:09.976570,-125
2021-12-27 14:33:09.976578,-148
2021-12-27 14:33:09.976586,-118
2021-12-27 14:33:09.976594,-78
2021-12-27 14:33:09.976602,-60
2021-12-27 14:33:09.976610,-50
2021-12-27 14:33:09.976618,-67
2021-12-27 14:33:09.976627,-85
2021-12-27 14:33:09.976636,-67
2021-12-27 14:33:09.976644,-39
2021-12-27 14:33:09.976652,-39
2021-12-27 14:33:09.976661,-46
2021-12-27 14:33:09.976669,-55
2021-12-27 14:33:09.976678,-60
2021-12-27 14:33:09.976686,-41
2021-12-27 14:33:09.976695,-11
2021-12-27 14:33:09.976704,6
2021-12-27 14:33:09.976712,-9
2021-12-27 14:33:09.976721,-53
2021-12-27 14:33:09.976729,30
2021-12-27 14:33:09.976738,497
2021-12-27 14:33:09.976746,1305
2021-12-27 14:33:09.976753,2032
2021-12-27 14:33:09.976761,1884
2021-12-27 14:33:09.976769,284
2021-12-27 14:33:09.976777,-1150
2021-12-27 14:33:09.976785,-740
2021-12-27 14:33:10.220435,-62
2021-12-27 14:33:10.220466,-224
2021-12-27 14:33:10.220478,-215
2021-12-27 14:33:10.220487,16
2021-12-27 14:33:10.220497,-34
2021-12-27 14:33:10.220506,-111
2021-12-27 14:33:10.220516,-32
2021-12-27 14:33:10.220525,13
2021-12-27 14:33:10.220535,6
2021-12-27 14:33:10.220544,32
2021-12-27 14:33:10.220554,55
2021-12-27 14:33:10.220563,41
2021-12-27 14:33:10.220573,43
2021-12-27 14:33:10.220582,87
2021-12-27 14:33:10.220592,106
2021-12-27 14:33:10.220601,71
2021-12-27 14:33:10.220610,55
2021-12-27 14:33:10.220620,94
2021-12-27 14:33:10.220629,129
2021-12-27 14:33:10.220639,164
2021-12-27 14:33:10.220648,208
2021-12-27 14:33:10.220657,238
2021-12-27 14:33:10.220667,261
2021-12-27 14:33:10.220676,282
2021-12-27 14:33:10.220686,282
2021-12-27 14:33:10.220695,287
2021-12-27 14:33:10.220704,298
2021-12-27 14:33:10.220714,287
2021-12-27 14:33:10.220723,238
2021-12-27 14:33:10.220733,159
2021-12-27 14:33:10.464179,76
2021-12-27 14:33:10.464209,6
2021-12-27 14:33:10.464220,-60
2021-12-27 14:33:10.464230,-127
2021-12-27 14:33:10.464240,-166
2021-12-27 14:33:10.464254,-180
2021-12-27 14:33:10.464264,-217
2021-12-27 14:33:10.464273,-270
2021-12-27 14:33:10.464283,-287
2021-12-27 14:33:10.464292,-277
2021-12-27 14:33:10.464302,-261
2021-12-27 14:33:10.464311,-224
2021-12-27 14:33:10.464321,-192
2021-12-27 14:33:10.464330,-226
2021-12-27 14:33:10.464339,-263
2021-12-27 14:33:10.464349,-247
2021-12-27 14:33:10.464358,-245
2021-12-27 14:33:10.464368,-259
2021-12-27 14:33:10.464377,-243
2021-12-27 14:33:10.464386,-233
2021-12-27 14:33:10.464396,-245
2021-12-27 14:33:10.464405,-240
2021-12-27 14:33:10.464415,-224
2021-12-27 14:33:10.464424,-208
2021-12-27 14:33:10.464433,-194
2021-12-27 14:33:10.464443,-192
2021-12-27 14:33:10.464452,-199
2021-12-27 14:33:10.464462,-201
2021-12-27 14:33:10.464471,-187
2021-12-27 14:33:10.464480,-169
2021-12-27 14:33:10.706562,-178
2021-12-27 14:33:10.706592,-208
2021-12-27 14:33:10.706604,-215
2021-12-27 14:33:10.706613,-199
2021-12-27 14:33:10.706623,-185
2021-12-27 14:33:10.706633,-164
2021-12-27 14:33:10.706642,-138
2021-12-27 14:33:10.706652,-131
2021-12-27 14:33:10.706661,-164
2021-12-27 14:33:10.706671,-192
2021-12-27 14:33:10.706680,-166
2021-12-27 14:33:10.706690,-131
2021-12-27 14:33:10.706699,-122
2021-12-27 14:33:10.706709,-113
2021-12-27 14:33:10.706718,-131
2021-12-27 14:33:10.706728,-173
2021-12-27 14:33:10.706737,-159
2021-12-27 14:33:10.706747,-106
2021-12-27 14:33:10.706756,-83
2021-12-27 14:33:10.706766,-78
2021-12-27 14:33:10.706775,-99
2021-12-27 14:33:10.706785,-152
2021-12-27 14:33:10.706794,-157
2021-12-27 14:33:10.706804,-118
2021-12-27 14:33:10.706813,-108
2021-12-27 14:33:10.706823,-108
2021-12-27 14:33:10.706833,-94
2021-12-27 14:33:10.706842,-97
2021-12-27 14:33:10.706852,-94
2021-12-27 14:33:10.706861,-67
2021-12-27 14:33:10.902679,-50
2021-12-27 14:33:10.902700,-76
2021-12-27 14:33:10.902707,-108
2021-12-27 14:33:10.902714,53
2021-12-27 14:33:10.902720,636
2021-12-27 14:33:10.902726,1463
2021-12-27 14:33:10.902732,1933
2021-12-27 14:33:10.902738,1171
2021-12-27 14:33:10.902745,-560
2021-12-27 14:33:10.902751,-1176
2021-12-27 14:33:10.902757,-439
2021-12-27 14:33:10.902763,-180
2021-12-27 14:33:10.902769,-347
2021-12-27 14:33:10.902775,-157
2021-12-27 14:33:10.902781,-32
2021-12-27 14:33:10.902787,-120
2021-12-27 14:33:10.902793,-97
2021-12-27 14:33:10.902800,-20
2021-12-27 14:33:10.902806,-13
2021-12-27 14:33:10.902812,6
2021-12-27 14:33:10.902818,48
2021-12-27 14:33:10.902824,60
2021-12-27 14:33:10.902830,64
2021-12-27 14:33:10.902836,83
2021-12-27 14:33:10.902842,115
2021-12-27 14:33:10.902848,152
2021-12-27 14:33:10.902854,178
2021-12-27 14:33:10.902861,194
2021-12-27 14:33:10.902867,215
2021-12-27 14:33:10.902873,238
2021-12-27 14:33:11.195323,261
2021-12-27 14:33:11.195345,298
2021-12-27 14:33:11.195353,324
2021-12-27 14:33:11.195359,326
2021-12-27 14:33:11.195365,307
2021-12-27 14:33:11.195371,254
2021-12-27 14:33:11.195378,213
2021-12-27 14:33:11.195384,231
2021-12-27 14:33:11.195390,243
2021-12-27 14:33:11.195396,203
2021-12-27 14:33:11.195402,152
2021-12-27 14:33:11.195408,76
2021-12-27 14:33:11.195414,-27
2021-12-27 14:33:11.195421,-97
2021-12-27 14:33:11.195427,-148
2021-12-27 14:33:11.195433,-210
2021-12-27 14:33:11.195439,-226
2021-12-27 14:33:11.195445,-210
2021-12-27 14:33:11.195452,-217
2021-12-27 14:33:11.195458,-215
2021-12-27 14:33:11.195464,-210
2021-12-27 14:33:11.195470,-219
2021-12-27 14:33:11.195476,-215
2021-12-27 14:33:11.195482,-210
2021-12-27 14:33:11.195488,-224
2021-12-27 14:33:11.195495,-245
2021-12-27 14:33:11.195501,-280
2021-12-27 14:33:11.195507,-294
2021-12-27 14:33:11.195513,-259
2021-12-27 14:33:11.195520,-229
2021-12-27 14:33:11.438891,-229
2021-12-27 14:33:11.438911,-226
2021-12-27 14:33:11.438918,-215
2021-12-27 14:33:11.438925,-210
2021-12-27 14:33:11.438931,-201
2021-12-27 14:33:11.438937,-180
2021-12-27 14:33:11.438943,-180
2021-12-27 14:33:11.438949,-201
2021-12-27 14:33:11.438955,-201
2021-12-27 14:33:11.438961,-180
2021-12-27 14:33:11.438968,-166
2021-12-27 14:33:11.438974,-148
2021-12-27 14:33:11.438980,-134
2021-12-27 14:33:11.438986,-152
2021-12-27 14:33:11.438992,-180
2021-12-27 14:33:11.438998,-169
2021-12-27 14:33:11.439004,-141
2021-12-27 14:33:11.439010,-120
2021-12-27 14:33:11.439017,-101
2021-12-27 14:33:11.439023,-106
2021-12-27 14:33:11.439029,-136
2021-12-27 14:33:11.439035,-141
2021-12-27 14:33:11.439041,-111
2021-12-27 14:33:11.439047,-87
2021-12-27 14:33:11.439053,-71
2021-12-27 14:33:11.439060,-60
2021-12-27 14:33:11.439066,-67
2021-12-27 14:33:11.439072,-78
2021-12-27 14:33:11.439078,-48
2021-12-27 14:33:11.439084,-11
2021-12-27 14:33:11.634227,2
2021-12-27 14:33:11.634248,16
2021-12-27 14:33:11.634256,18
2021-12-27 14:33:11.634262,2
2021-12-27 14:33:11.634269,2
2021-12-27 14:33:11.634275,23
2021-12-27 14:33:11.634281,25
2021-12-27 14:33:11.634287,18
2021-12-27 14:33:11.634294,13
2021-12-27 14:33:11.634300,-9
2021-12-27 14:33:11.634306,-11
2021-12-27 14:33:11.634312,20
2021-12-27 14:33:11.634319,30
2021-12-27 14:33:11.634325,2
2021-12-27 14:33:11.634331,30
2021-12-27 14:33:11.634337,312
2021-12-27 14:33:11.634344,953
2021-12-27 14:33:11.634350,1678
2021-12-27 14:33:11.634356,1849
2021-12-27 14:33:11.634362,720
2021-12-27 14:33:11.634368,-826
2021-12-27 14:33:11.634374,-896
2021-12-27 14:33:11.634381,-201
2021-12-27 14:33:11.634387,-180
2021-12-27 14:33:11.634393,-240
2021-12-27 14:33:11.634399,-20
2021-12-27 14:33:11.634405,9
2021-12-27 14:33:11.634412,-67
2021-12-27 14:33:11.634418,-16
2021-12-27 14:33:11.634424,39
2021-12-27 14:33:11.877955,39
2021-12-27 14:33:11.877976,43
2021-12-27 14:33:11.877983,23
2021-12-27 14:33:11.877989,-13
2021-12-27 14:33:11.877996,-20
2021-12-27 14:33:11.878002,-2
2021-12-27 14:33:11.878008,32
2021-12-27 14:33:11.878014,74
2021-12-27 14:33:11.878021,106
2021-12-27 14:33:11.878027,125
2021-12-27 14:33:11.878033,138
2021-12-27 14:33:11.878039,148
2021-12-27 14:33:11.878045,175
2021-12-27 14:33:11.878052,217
2021-12-27 14:33:11.878058,240
2021-12-27 14:33:11.878064,245
2021-12-27 14:33:11.878070,238
2021-12-27 14:33:11.878076,215
2021-12-27 14:33:11.878082,201
2021-12-27 14:33:11.878088,224
2021-12-27 14:33:11.878095,229
2021-12-27 14:33:11.878101,189
2021-12-27 14:33:11.878107,127
2021-12-27 14:33:11.878113,43
2021-12-27 14:33:11.878120,-41
2021-12-27 14:33:11.878126,-87
2021-12-27 14:33:11.878132,-115
2021-12-27 14:33:11.878138,-157
2021-12-27 14:33:11.878144,-185
2021-12-27 14:33:11.878150,-201
2021-12-27 14:33:12.170154,-210
2021-12-27 14:33:12.170175,-208
2021-12-27 14:33:12.170183,-222
2021-12-27 14:33:12.170189,-236
2021-12-27 14:33:12.170195,-210
2021-12-27 14:33:12.170202,-194
2021-12-27 14:33:12.170208,-217
2021-12-27 14:33:12.170214,-213
2021-12-27 14:33:12.170220,-180
2021-12-27 14:33:12.170226,-173
2021-12-27 14:33:12.170233,-164
2021-12-27 14:33:12.170239,-141
2021-12-27 14:33:12.170245,-141
2021-12-27 14:33:12.170251,-164
2021-12-27 14:33:12.170257,-166
2021-12-27 14:33:12.170263,-152
2021-12-27 14:33:12.170270,-138
2021-12-27 14:33:12.170276,-129
2021-12-27 14:33:12.170282,-141
2021-12-27 14:33:12.170288,-159
2021-12-27 14:33:12.170294,-152
2021-12-27 14:33:12.170301,-138
2021-12-27 14:33:12.170307,-131
2021-12-27 14:33:12.170313,-113
2021-12-27 14:33:12.170319,-94
2021-12-27 14:33:12.170325,-97
2021-12-27 14:33:12.170331,-92
2021-12-27 14:33:12.170338,-71
2021-12-27 14:33:12.170344,-53
2021-12-27 14:33:12.170350,-39
2021-12-27 14:33:12.316646,-30
2021-12-27 14:33:12.316667,-30
2021-12-27 14:33:12.316674,-30
2021-12-27 14:33:12.316681,-25
2021-12-27 14:33:12.316687,-11
2021-12-27 14:33:12.316693,9
2021-12-27 14:33:12.316699,23
2021-12-27 14:33:12.316705,13
2021-12-27 14:33:12.316711,-27
2021-12-27 14:33:12.316717,-57
2021-12-27 14:33:12.316724,-23
2021-12-27 14:33:12.316730,16
2021-12-27 14:33:12.316736,25
2021-12-27 14:33:12.316742,43
2021-12-27 14:33:12.316749,48
2021-12-27 14:33:12.316755,6
2021-12-27 14:33:12.316761,-11
2021-12-27 14:33:12.316767,9
2021-12-27 14:33:12.316773,20
2021-12-27 14:33:12.316779,11
2021-12-27 14:33:12.316786,-16
2021-12-27 14:33:12.316792,-37
2021-12-27 14:33:12.316798,-16
2021-12-27 14:33:12.316804,-4
2021-12-27 14:33:12.316810,-25
2021-12-27 14:33:12.316817,113
2021-12-27 14:33:12.316823,597
2021-12-27 14:33:12.316829,1319
2021-12-27 14:33:12.316835,1923
2021-12-27 14:33:12.316841,1673
2021-12-27 14:33:12.560481,104
2021-12-27 14:33:12.560503,-1085
2021-12-27 14:33:12.560511,-583
2021-12-27 14:33:12.560517,-55
2021-12-27 14:33:12.560523,-240
2021-12-27 14:33:12.560561,-157
2021-12-27 14:33:12.560568,62
2021-12-27 14:33:12.560574,23
2021-12-27 14:33:12.560580,0
2021-12-27 14:33:12.560586,30
2021-12-27 14:33:12.560592,2
2021-12-27 14:33:12.560598,23
2021-12-27 14:33:12.560604,85
2021-12-27 14:33:12.560610,111
2021-12-27 14:33:12.560616,127
2021-12-27 14:33:12.560622,129
2021-12-27 14:33:12.560628,92
2021-12-27 14:33:12.560634,76
2021-12-27 14:33:12.560640,115
2021-12-27 14:33:12.560646,166
2021-12-27 14:33:12.560653,196
2021-12-27 14:33:12.560659,210
2021-12-27 14:33:12.560665,229
2021-12-27 14:33:12.560671,261
2021-12-27 14:33:12.560677,305
2021-12-27 14:33:12.560683,335
2021-12-27 14:33:12.560689,349
2021-12-27 14:33:12.560695,349
2021-12-27 14:33:12.560701,342
2021-12-27 14:33:12.560707,340
2021-12-27 14:33:12.802892,347
2021-12-27 14:33:12.802913,340
2021-12-27 14:33:12.802920,284
2021-12-27 14:33:12.802927,192
2021-12-27 14:33:12.802933,74
2021-12-27 14:33:12.802939,-48
2021-12-27 14:33:12.802946,-118
2021-12-27 14:33:12.802952,-134
2021-12-27 14:33:12.802958,-155
2021-12-27 14:33:12.802964,-182
2021-12-27 14:33:12.802970,-208
2021-12-27 14:33:12.802976,-236
2021-12-27 14:33:12.802982,-236
2021-12-27 14:33:12.802989,-231
2021-12-27 14:33:12.802995,-273
2021-12-27 14:33:12.803001,-317
2021-12-27 14:33:12.803007,-300
2021-12-27 14:33:12.803013,-296
2021-12-27 14:33:12.803019,-326
2021-12-27 14:33:12.803026,-328
2021-12-27 14:33:12.803032,-303
2021-12-27 14:33:12.803038,-289
2021-12-27 14:33:12.803044,-275
2021-12-27 14:33:12.803050,-259
2021-12-27 14:33:12.803056,-254
2021-12-27 14:33:12.803062,-243
2021-12-27 14:33:12.803069,-219
2021-12-27 14:33:12.803075,-215
2021-12-27 14:33:12.803081,-206
2021-12-27 14:33:12.803087,-189
2021-12-27 14:33:12.998232,-187
2021-12-27 14:33:12.998249,-180
2021-12-27 14:33:12.998254,-162
2021-12-27 14:33:12.998260,-155
2021-12-27 14:33:12.998265,-145
2021-12-27 14:33:12.998270,-131
2021-12-27 14:33:12.998274,-148
2021-12-27 14:33:12.998279,-171
2021-12-27 14:33:12.998284,-152
2021-12-27 14:33:12.998289,-131
2021-12-27 14:33:12.998294,-122
2021-12-27 14:33:12.998299,-101
2021-12-27 14:33:12.998308,-106
2021-12-27 14:33:12.998316,-138
2021-12-27 14:33:12.998325,-136
2021-12-27 14:33:12.998334,-113
2021-12-27 14:33:12.998343,-94
2021-12-27 14:33:12.998352,-69
2021-12-27 14:33:12.998361,-60
2021-12-27 14:33:12.998370,-78
2021-12-27 14:33:12.998375,-92
2021-12-27 14:33:12.998381,-101
2021-12-27 14:33:12.998385,-106
2021-12-27 14:33:12.998390,-92
2021-12-27 14:33:12.998395,-87
2021-12-27 14:33:12.998400,-99
2021-12-27 14:33:12.998405,-90
2021-12-27 14:33:12.998410,-71
2021-12-27 14:33:12.998415,-60
2021-12-27 14:33:12.998420,-39
2021-12-27 14:33:13.194164,-30
2021-12-27 14:33:13.194194,-74
2021-12-27 14:33:13.194206,-48
2021-12-27 14:33:13.194216,333
2021-12-27 14:33:13.194226,1097
2021-12-27 14:33:13.194235,1859
2021-12-27 14:33:13.194245,1951
2021-12-27 14:33:13.194254,629
2021-12-27 14:33:13.194263,-1011
2021-12-27 14:33:13.194273,-949
2021-12-27 14:33:13.194282,-159
2021-12-27 14:33:13.194292,-189
2021-12-27 14:33:13.194301,-263
2021-12-27 14:33:13.194311,-25
2021-12-27 14:33:13.194320,-32
2021-12-27 14:33:13.194329,-145
2021-12-27 14:33:13.194339,-64
2021-12-27 14:33:13.194348,9
2021-12-27 14:33:13.194358,0
2021-12-27 14:33:13.194367,27
2021-12-27 14:33:13.194377,41
2021-12-27 14:33:13.194386,-9
2021-12-27 14:33:13.194395,-23
2021-12-27 14:33:13.194405,9
2021-12-27 14:33:13.194414,30
2021-12-27 14:33:13.194424,60
2021-12-27 14:33:13.194433,99
2021-12-27 14:33:13.194443,106
2021-12-27 14:33:13.194452,127
2021-12-27 14:33:13.194462,182
2021-12-27 14:33:13.534628,229
2021-12-27 14:33:13.534649,240
2021-12-27 14:33:13.534658,224
2021-12-27 14:33:13.534666,213
2021-12-27 14:33:13.534674,233
2021-12-27 14:33:13.534682,247
2021-12-27 14:33:13.534690,250
2021-12-27 14:33:13.534698,261
2021-12-27 14:33:13.534706,250
2021-12-27 14:33:13.534713,175
2021-12-27 14:33:13.534721,67
2021-12-27 14:33:13.534729,-6
2021-12-27 14:33:13.534737,-50
2021-12-27 14:33:13.534745,-104
2021-12-27 14:33:13.534753,-162
2021-12-27 14:33:13.534761,-219
2021-12-27 14:33:13.534769,-259
2021-12-27 14:33:13.534777,-250
2021-12-27 14:33:13.534785,-215
2021-12-27 14:33:13.534793,-192
2021-12-27 14:33:13.534799,-192
2021-12-27 14:33:13.534805,-210
2021-12-27 14:33:13.534812,-222
2021-12-27 14:33:13.534816,-229
2021-12-27 14:33:13.534820,-243
2021-12-27 14:33:13.534826,-256
2021-12-27 14:33:13.534832,-256
2021-12-27 14:33:13.534840,-245
2021-12-27 14:33:13.534847,-236
2021-12-27 14:33:13.534855,-236
2021-12-27 14:33:13.728830,-219
2021-12-27 14:33:13.728845,-192
2021-12-27 14:33:13.728851,-185
2021-12-27 14:33:13.728855,-194
2021-12-27 14:33:13.728859,-187
2021-12-27 14:33:13.728864,-175
2021-12-27 14:33:13.728868,-169
2021-12-27 14:33:13.728872,-150
2021-12-27 14:33:13.728916,-136
2021-12-27 14:33:13.728921,-134
2021-12-27 14:33:13.728926,-131
2021-12-27 14:33:13.728930,-129
2021-12-27 14:33:13.728934,-136
2021-12-27 14:33:13.728938,-125
2021-12-27 14:33:13.728942,-104
2021-12-27 14:33:13.728947,-99
2021-12-27 14:33:13.728951,-92
2021-12-27 14:33:13.728955,-83
2021-12-27 14:33:13.728959,-87
2021-12-27 14:33:13.728964,-83
2021-12-27 14:33:13.728968,-64
2021-12-27 14:33:13.728972,-64
2021-12-27 14:33:13.728976,-55
2021-12-27 14:33:13.728981,-37
2021-12-27 14:33:13.728985,-60
2021-12-27 14:33:13.728989,-94
2021-12-27 14:33:13.728993,-125
2021-12-27 14:33:13.728997,-171
2021-12-27 14:33:13.729002,-173
2021-12-27 14:33:13.729006,-131
2021-12-27 14:33:13.924431,-136
2021-12-27 14:33:13.924448,-162
2021-12-27 14:33:13.924453,-148
2021-12-27 14:33:13.924458,-125
2021-12-27 14:33:13.924462,-108
2021-12-27 14:33:13.924467,-87
2021-12-27 14:33:13.924471,-78
2021-12-27 14:33:13.924475,-106
2021-12-27 14:33:13.924479,-148
2021-12-27 14:33:13.924483,-120
2021-12-27 14:33:13.924488,189
2021-12-27 14:33:13.924492,877
2021-12-27 14:33:13.924497,1662
2021-12-27 14:33:13.924501,1935
2021-12-27 14:33:13.924505,875
2021-12-27 14:33:13.924509,-828
2021-12-27 14:33:13.924514,-1069
2021-12-27 14:33:13.924518,-259
2021-12-27 14:33:13.924522,-152
2021-12-27 14:33:13.924526,-305
2021-12-27 14:33:13.924531,-106
2021-12-27 14:33:13.924535,-34
2021-12-27 14:33:13.924539,-99
2021-12-27 14:33:13.924543,-32
2021-12-27 14:33:13.924548,32
2021-12-27 14:33:13.924552,16
2021-12-27 14:33:13.924556,18
2021-12-27 14:33:13.924591,50
2021-12-27 14:33:13.924595,62
2021-12-27 14:33:13.924599,50
2021-12-27 14:33:14.119934,62
2021-12-27 14:33:14.119956,99
2021-12-27 14:33:14.119963,113
2021-12-27 14:33:14.119969,111
2021-12-27 14:33:14.119976,145
2021-12-27 14:33:14.119982,196
2021-12-27 14:33:14.119988,229
2021-12-27 14:33:14.119994,261
2021-12-27 14:33:14.120000,266
2021-12-27 14:33:14.120006,236
2021-12-27 14:33:14.120012,243
2021-12-27 14:33:14.120019,284
2021-12-27 14:33:14.120025,294
2021-12-27 14:33:14.120031,291
2021-12-27 14:33:14.120037,282
2021-12-27 14:33:14.120043,231
2021-12-27 14:33:14.120049,175
