Time,ECG
2021-12-27 14:52:51.299443,4327
2021-12-27 14:52:51.786775,-2773
2021-12-27 14:52:51.786805,3998
2021-12-27 14:52:51.786846,2039
2021-12-27 14:52:52.469457,3926
2021-12-27 14:52:52.469480,4922
2021-12-27 14:52:52.761920,2326
2021-12-27 14:52:52.761941,-4040
2021-12-27 14:52:52.761951,-7316
2021-12-27 14:52:52.761962,-8538
2021-12-27 14:52:52.761971,-4169
2021-12-27 14:52:52.761981,3651
2021-12-27 14:52:52.761990,4699
2021-12-27 14:52:52.762000,2836
2021-12-27 14:52:53.395340,319
2021-12-27 14:52:54.321418,2910
2021-12-27 14:52:54.321433,4030
2021-12-27 14:52:54.321444,-2688
2021-12-27 14:52:54.321450,504
2021-12-27 14:52:54.321460,1581
2021-12-27 14:52:54.321465,-2190
2021-12-27 14:52:54.321470,-2579
2021-12-27 14:52:54.321475,1768
2021-12-27 14:52:54.321480,1616
2021-12-27 14:52:54.565622,-3037
2021-12-27 14:52:54.565642,-3417
2021-12-27 14:52:54.565650,-3685
2021-12-27 14:52:54.565656,-4026
2021-12-27 14:52:54.565662,4139
2021-12-27 14:52:54.565676,3317
2021-12-27 14:52:54.565682,3009
2021-12-27 14:52:54.565688,6
2021-12-27 14:52:54.565694,314
2021-12-27 14:52:54.565707,-946
2021-12-27 14:52:54.565713,-2231
2021-12-27 14:52:54.565719,4489
2021-12-27 14:52:55.296240,3058
2021-12-27 14:52:55.296270,3486
2021-12-27 14:52:55.296281,-1347
2021-12-27 14:52:55.296290,-6001
2021-12-27 14:52:55.296300,-16074
2021-12-27 14:52:55.296309,-17563
2021-12-27 14:52:55.296318,-18281
2021-12-27 14:52:55.296327,-18966
2021-12-27 14:52:55.296337,-18966
2021-12-27 14:52:55.296346,-18966
2021-12-27 14:52:55.296356,-18966
2021-12-27 14:52:55.296366,-18966
2021-12-27 14:52:55.296376,-18966
2021-12-27 14:52:55.296385,-18966
2021-12-27 14:52:55.296394,-18966
2021-12-27 14:52:55.296404,-18966
2021-12-27 14:52:55.296413,-18966
2021-12-27 14:52:55.296423,-18966
2021-12-27 14:52:55.296432,-18966
2021-12-27 14:52:55.296442,-18966
2021-12-27 14:52:55.296451,-18966
2021-12-27 14:52:55.296460,-18966
2021-12-27 14:52:55.296470,-4595
2021-12-27 14:52:55.734618,-4142
2021-12-27 14:52:55.734640,-6723
2021-12-27 14:52:55.734660,2167
2021-12-27 14:52:55.930249,-3327
2021-12-27 14:52:55.930285,-18966
2021-12-27 14:52:55.930293,-13870
2021-12-27 14:52:56.418104,-16111
2021-12-27 14:52:56.418119,-18966
2021-12-27 14:52:56.418125,-4910
2021-12-27 14:52:56.613186,4463
2021-12-27 14:52:56.613201,789
2021-12-27 14:52:56.613208,1250
2021-12-27 14:52:56.905291,1685
2021-12-27 14:52:56.905305,1861
2021-12-27 14:52:56.905323,553
2021-12-27 14:52:56.905330,-588
2021-12-27 14:52:56.905336,4843
2021-12-27 14:52:56.905342,4466
2021-12-27 14:52:56.905348,-6753
2021-12-27 14:52:56.905355,-18123
2021-12-27 14:52:56.905361,-18966
2021-12-27 14:52:56.905367,-12421
2021-12-27 14:52:57.100711,4158
2021-12-27 14:52:57.100737,944
2021-12-27 14:52:57.100763,4229
2021-12-27 14:52:57.100773,770
2021-12-27 14:52:57.100822,3389
2021-12-27 14:52:57.295624,-4438
2021-12-27 14:52:57.295639,-8904
2021-12-27 14:52:57.295645,-18966
2021-12-27 14:52:57.295656,-18966
2021-12-27 14:52:57.295663,-12845
2021-12-27 14:52:57.295669,-13023
2021-12-27 14:52:57.295675,-16940
2021-12-27 14:52:57.295681,-12618
2021-12-27 14:52:57.295688,-13308
2021-12-27 14:52:57.295694,-17848
2021-12-27 14:52:57.295700,-12312
2021-12-27 14:52:57.295706,-7242
2021-12-27 14:52:57.539266,-10367
2021-12-27 14:52:57.539295,-11178
2021-12-27 14:52:57.539306,-13805
2021-12-27 14:52:57.539316,-18966
2021-12-27 14:52:57.539325,-18966
2021-12-27 14:52:57.539335,-13486
2021-12-27 14:52:57.539344,-15741
2021-12-27 14:52:57.539354,-18966
2021-12-27 14:52:57.539363,-18966
2021-12-27 14:52:57.539376,-18966
2021-12-27 14:52:57.539385,-16711
2021-12-27 14:52:57.539410,-11011
2021-12-27 14:52:57.539420,-18966
2021-12-27 14:52:57.539429,-18966
2021-12-27 14:52:57.539438,-14576
2021-12-27 14:52:57.539447,-7804
2021-12-27 14:52:57.539457,-465
2021-12-27 14:52:57.539466,657
2021-12-27 14:52:57.539475,-18397
2021-12-27 14:52:57.539485,-18966
2021-12-27 14:52:57.539494,-18966
2021-12-27 14:52:57.539503,-18966
2021-12-27 14:52:57.539513,-18966
2021-12-27 14:52:57.539522,-18966
2021-12-27 14:52:57.539531,-18966
2021-12-27 14:52:57.928153,2410
2021-12-27 14:52:57.928171,1676
2021-12-27 14:52:57.928178,-6982
2021-12-27 14:52:57.928184,-8652
2021-12-27 14:52:57.928195,-10414
2021-12-27 14:52:57.928201,-10323
2021-12-27 14:52:57.928207,-5339
2021-12-27 14:52:57.928214,-5357
2021-12-27 14:52:57.928220,-7772
2021-12-27 14:52:57.928226,-4982
2021-12-27 14:52:57.928232,-3952
2021-12-27 14:52:57.928238,-5822
2021-12-27 14:52:57.928244,-5156
2021-12-27 14:52:57.928250,-5589
2021-12-27 14:52:57.928256,-6413
2021-12-27 14:52:57.928262,-4607
2021-12-27 14:52:57.928268,-6848
2021-12-27 14:52:57.928274,-10754
2021-12-27 14:52:57.928280,-7904
2021-12-27 14:52:57.928286,-5267
2021-12-27 14:52:57.928292,-6846
2021-12-27 14:52:57.928298,-6348
2021-12-27 14:52:57.928304,-5320
2021-12-27 14:52:58.171491,-5968
2021-12-27 14:52:58.171512,-4799
2021-12-27 14:52:58.171520,-2153
2021-12-27 14:52:58.171528,384
2021-12-27 14:52:58.171536,3815
2021-12-27 14:52:58.171546,3188
2021-12-27 14:52:58.171552,3271
2021-12-27 14:52:58.318689,-18688
2021-12-27 14:52:58.318719,-18966
2021-12-27 14:52:58.318731,-13940
2021-12-27 14:52:58.318740,-18966
2021-12-27 14:52:58.318750,-18966
2021-12-27 14:52:58.318759,-18966
2021-12-27 14:52:58.318768,-7809
2021-12-27 14:52:58.318778,-344
2021-12-27 14:52:58.318787,-13
2021-12-27 14:52:58.318817,-4743
2021-12-27 14:52:58.318826,-16859
2021-12-27 14:52:58.318836,-18966
2021-12-27 14:52:58.318845,-18966
2021-12-27 14:52:58.318854,-18966
2021-12-27 14:52:58.318864,-18966
2021-12-27 14:52:58.318873,-18966
2021-12-27 14:52:58.318882,-18966
2021-12-27 14:52:58.318892,-18966
2021-12-27 14:52:58.318901,-18966
2021-12-27 14:52:58.318910,-18966
2021-12-27 14:52:58.318920,-18966
2021-12-27 14:52:58.318936,-18966
2021-12-27 14:52:58.318946,-18966
2021-12-27 14:52:58.318956,-8080
2021-12-27 14:52:58.318965,-2961
2021-12-27 14:52:58.318974,-178
2021-12-27 14:52:58.465935,3377
2021-12-27 14:52:58.709245,-2018
2021-12-27 14:52:58.709261,-3215
2021-12-27 14:52:58.709268,-4799
2021-12-27 14:52:58.709274,-10770
2021-12-27 14:52:58.709280,-10821
2021-12-27 14:52:58.709286,-12259
2021-12-27 14:52:58.709292,-11113
2021-12-27 14:52:58.709298,-4102
2021-12-27 14:52:58.709304,-5619
2021-12-27 14:52:58.709311,928
2021-12-27 14:52:58.709336,2595
2021-12-27 14:52:58.709342,-18966
2021-12-27 14:52:58.709349,-7945
2021-12-27 14:52:58.709361,-18966
2021-12-27 14:52:58.709367,-18966
2021-12-27 14:52:58.709374,-16204
2021-12-27 14:52:58.953497,-15695
2021-12-27 14:52:58.953519,-14502
2021-12-27 14:52:58.953526,-11185
2021-12-27 14:52:58.953533,-6207
2021-12-27 14:52:58.953539,1627
2021-12-27 14:52:58.953545,3741
2021-12-27 14:52:58.953553,-3817
2021-12-27 14:52:58.953560,-12416
2021-12-27 14:52:58.953566,-8885
2021-12-27 14:52:58.953572,2907
2021-12-27 14:52:58.953588,2579
2021-12-27 14:52:58.953594,-694
2021-12-27 14:52:59.148365,-39
2021-12-27 14:52:59.148383,-1243
2021-12-27 14:52:59.148408,534
2021-12-27 14:52:59.148415,-11583
2021-12-27 14:52:59.148421,-5010
2021-12-27 14:52:59.148431,4806
2021-12-27 14:52:59.148437,3667
2021-12-27 14:52:59.148443,-3966
2021-12-27 14:52:59.148449,-17968
2021-12-27 14:52:59.148455,-9286
2021-12-27 14:52:59.148465,-2470
2021-12-27 14:52:59.148471,-14616
2021-12-27 14:52:59.148477,-8735
2021-12-27 14:52:59.148483,2472
2021-12-27 14:52:59.148489,4975
2021-12-27 14:52:59.148505,3283
2021-12-27 14:52:59.148511,300
2021-12-27 14:52:59.148517,1201
2021-12-27 14:52:59.391842,18
2021-12-27 14:52:59.391862,-4139
2021-12-27 14:52:59.391873,-326
2021-12-27 14:52:59.391882,4213
2021-12-27 14:52:59.391907,930
2021-12-27 14:52:59.391917,3090
2021-12-27 14:52:59.391985,4452
2021-12-27 14:52:59.392000,4012
2021-12-27 14:52:59.392034,194
2021-12-27 14:52:59.392044,1546
2021-12-27 14:52:59.392054,365
2021-12-27 14:52:59.635610,-967
2021-12-27 14:52:59.635631,2544
2021-12-27 14:52:59.635639,808
2021-12-27 14:52:59.635645,-3220
2021-12-27 14:52:59.635652,1018
2021-12-27 14:52:59.635658,-1109
2021-12-27 14:52:59.635664,-9312
2021-12-27 14:52:59.635670,-5109
2021-12-27 14:52:59.635677,-3181
2021-12-27 14:52:59.635683,-7110
2021-12-27 14:52:59.635689,-3551
2021-12-27 14:52:59.635695,-7712
2021-12-27 14:52:59.635701,-18966
2021-12-27 14:52:59.635708,-14018
2021-12-27 14:52:59.635714,-1509
2021-12-27 14:52:59.635720,-919
2021-12-27 14:52:59.635726,-2403
2021-12-27 14:52:59.635732,-2912
2021-12-27 14:52:59.635738,-7288
2021-12-27 14:52:59.635744,-4912
2021-12-27 14:52:59.635751,1220
2021-12-27 14:52:59.635767,2204
2021-12-27 14:52:59.635773,-6024
2021-12-27 14:52:59.927401,2644
2021-12-27 14:52:59.927423,1685
2021-12-27 14:52:59.927434,1868
2021-12-27 14:52:59.927444,-1500
2021-12-27 14:52:59.927453,122
2021-12-27 14:52:59.927463,4139
2021-12-27 14:52:59.927472,-4070
2021-12-27 14:52:59.927481,-10437
2021-12-27 14:52:59.927491,-4463
2021-12-27 14:52:59.927500,-5207
2021-12-27 14:52:59.927512,-3345
2021-12-27 14:52:59.927522,3827
2021-12-27 14:52:59.927532,-6214
2021-12-27 14:52:59.927541,-14296
2021-12-27 14:52:59.927550,-520
2021-12-27 14:52:59.927565,2736
2021-12-27 14:52:59.927575,509
2021-12-27 14:52:59.927584,787
2021-12-27 14:52:59.927594,-6035
2021-12-27 14:52:59.927603,-7304
2021-12-27 14:52:59.927612,643
2021-12-27 14:52:59.927622,2023
2021-12-27 14:52:59.927631,-1375
2021-12-27 14:52:59.927641,-1525
2021-12-27 14:52:59.927650,-5213
2021-12-27 14:52:59.927660,-7519
2021-12-27 14:52:59.927669,-437
2021-12-27 14:52:59.927679,3338
2021-12-27 14:53:00.074286,1034
2021-12-27 14:53:00.074307,1826
2021-12-27 14:53:00.074314,173
2021-12-27 14:53:00.074321,-2111
2021-12-27 14:53:00.074343,-3405
2021-12-27 14:53:00.074350,467
2021-12-27 14:53:00.074359,534
2021-12-27 14:53:00.074365,595
2021-12-27 14:53:00.074375,-958
2021-12-27 14:53:00.074381,-3021
2021-12-27 14:53:00.074403,-18
2021-12-27 14:53:00.074426,4037
2021-12-27 14:53:00.074432,-3648
2021-12-27 14:53:00.317896,-6288
2021-12-27 14:53:00.317944,2729
2021-12-27 14:53:00.317954,-8932
2021-12-27 14:53:00.317964,-18966
2021-12-27 14:53:00.317973,-18966
2021-12-27 14:53:00.317983,-18966
2021-12-27 14:53:00.317992,-17591
2021-12-27 14:53:00.318002,-15753
2021-12-27 14:53:00.318011,-18966
2021-12-27 14:53:00.318028,-17799
2021-12-27 14:53:00.318038,-12902
2021-12-27 14:53:00.318048,-18966
2021-12-27 14:53:00.318057,-15030
2021-12-27 14:53:00.318067,4438
2021-12-27 14:53:00.318076,4750
2021-12-27 14:53:00.318091,2035
2021-12-27 14:53:00.318119,4961
2021-12-27 14:53:00.562059,3225
2021-12-27 14:53:00.562080,2458
2021-12-27 14:53:00.562111,-4512
2021-12-27 14:53:00.562120,-13030
2021-12-27 14:53:00.562130,-4412
2021-12-27 14:53:00.562140,-3783
2021-12-27 14:53:00.562149,-15442
2021-12-27 14:53:00.562158,-12213
2021-12-27 14:53:00.562168,395
2021-12-27 14:53:00.562177,199
2021-12-27 14:53:00.562187,-2912
2021-12-27 14:53:00.562197,1146
2021-12-27 14:53:00.562206,426
2021-12-27 14:53:00.562216,-3317
2021-12-27 14:53:00.562225,-1974
2021-12-27 14:53:00.562235,-6424
2021-12-27 14:53:00.562244,-12113
2021-12-27 14:53:00.562254,-4405
2021-12-27 14:53:00.562263,2648
2021-12-27 14:53:00.562273,97
2021-12-27 14:53:00.805286,-1085
2021-12-27 14:53:00.805312,-1477
2021-12-27 14:53:00.805323,-4350
2021-12-27 14:53:00.805333,-1213
2021-12-27 14:53:00.805342,694
2021-12-27 14:53:00.805352,-9006
2021-12-27 14:53:00.805361,-7788
2021-12-27 14:53:00.805370,162
2021-12-27 14:53:00.805379,-12150
2021-12-27 14:53:00.805386,-16426
2021-12-27 14:53:00.805391,-5505
2021-12-27 14:53:00.805396,-8897
2021-12-27 14:53:00.805401,-9629
2021-12-27 14:53:00.805406,-3044
2021-12-27 14:53:00.805411,-12157
2021-12-27 14:53:00.805416,-14032
2021-12-27 14:53:00.805426,-1923
2021-12-27 14:53:00.805434,4188
2021-12-27 14:53:00.805457,3477
2021-12-27 14:53:01.000672,-11235
2021-12-27 14:53:01.000693,-13810
2021-12-27 14:53:01.000703,4593
2021-12-27 14:53:01.000718,3563
2021-12-27 14:53:01.000728,2368
2021-12-27 14:53:01.000737,-7207
2021-12-27 14:53:01.000747,-16000
2021-12-27 14:53:01.000756,-5142
2021-12-27 14:53:01.000771,4183
2021-12-27 14:53:01.000780,2912
2021-12-27 14:53:01.000790,1115
2021-12-27 14:53:01.000799,-1370
2021-12-27 14:53:01.000809,4246
2021-12-27 14:53:01.000824,-696
2021-12-27 14:53:01.000833,-11990
2021-12-27 14:53:01.000843,-16945
2021-12-27 14:53:01.000852,-14319
2021-12-27 14:53:01.000862,-2771
2021-12-27 14:53:01.243825,3317
2021-12-27 14:53:01.243840,2968
2021-12-27 14:53:01.243847,2519
2021-12-27 14:53:01.243853,-4399
2021-12-27 14:53:01.243860,-1433
2021-12-27 14:53:01.243872,-3959
2021-12-27 14:53:01.243879,-12046
2021-12-27 14:53:01.243885,-18966
2021-12-27 14:53:01.243891,-8948
2021-12-27 14:53:01.243904,-1579
2021-12-27 14:53:01.243910,-10275
2021-12-27 14:53:01.243916,-18082
2021-12-27 14:53:01.243923,-12787
2021-12-27 14:53:01.243929,-5223
2021-12-27 14:53:01.243935,-11104
2021-12-27 14:53:01.243941,-18612
2021-12-27 14:53:01.243947,-18966
2021-12-27 14:53:01.243953,-18966
2021-12-27 14:53:01.243959,-17112
2021-12-27 14:53:01.243966,-12696
2021-12-27 14:53:01.243972,-11259
2021-12-27 14:53:01.243978,-13750
2021-12-27 14:53:01.243984,-13704
2021-12-27 14:53:01.243990,-14086
2021-12-27 14:53:01.536339,-18140
2021-12-27 14:53:01.536359,-18239
2021-12-27 14:53:01.536366,-16994
2021-12-27 14:53:01.536373,-18966
2021-12-27 14:53:01.536379,-18966
2021-12-27 14:53:01.536386,-18966
2021-12-27 14:53:01.536392,-18966
2021-12-27 14:53:01.536403,-18966
2021-12-27 14:53:01.536409,-17334
2021-12-27 14:53:01.536416,-9976
2021-12-27 14:53:01.536422,-7300
2021-12-27 14:53:01.536428,-4216
2021-12-27 14:53:01.536434,-5758
2021-12-27 14:53:01.536441,-11831
2021-12-27 14:53:01.536447,-9520
2021-12-27 14:53:01.536453,-3445
2021-12-27 14:53:01.536459,-4956
2021-12-27 14:53:01.536466,-5200
2021-12-27 14:53:01.536472,-2000
2021-12-27 14:53:01.536478,-5382
2021-12-27 14:53:01.536484,-12405
2021-12-27 14:53:01.536490,-15347
2021-12-27 14:53:01.536497,-17026
2021-12-27 14:53:01.536503,-18966
2021-12-27 14:53:01.536509,-18966
2021-12-27 14:53:01.536515,-18966
2021-12-27 14:53:01.536521,-18966
2021-12-27 14:53:01.536528,-18966
2021-12-27 14:53:01.536534,-18966
2021-12-27 14:53:01.536540,-18966
2021-12-27 14:53:01.683045,-18966
2021-12-27 14:53:01.683065,-18966
2021-12-27 14:53:01.683073,-18966
2021-12-27 14:53:01.683079,-18966
2021-12-27 14:53:01.683085,-18966
2021-12-27 14:53:01.683091,-18966
2021-12-27 14:53:01.683097,-18966
2021-12-27 14:53:01.683104,-18966
2021-12-27 14:53:01.683110,-18966
2021-12-27 14:53:01.683116,-18966
2021-12-27 14:53:01.683122,-18966
2021-12-27 14:53:01.683128,-18966
2021-12-27 14:53:01.683134,-18966
2021-12-27 14:53:01.683141,-18966
2021-12-27 14:53:01.683147,-18966
2021-12-27 14:53:01.683153,-18966
2021-12-27 14:53:01.683159,-18966
2021-12-27 14:53:01.683165,-16862
2021-12-27 14:53:01.683171,-11275
2021-12-27 14:53:01.683177,-10161
2021-12-27 14:53:01.683184,-10592
2021-12-27 14:53:01.683190,-14234
2021-12-27 14:53:01.683196,-12930
2021-12-27 14:53:01.683202,-7418
2021-12-27 14:53:01.683208,-6313
2021-12-27 14:53:01.683214,-7212
2021-12-27 14:53:01.683220,-11134
2021-12-27 14:53:01.683226,-15868
2021-12-27 14:53:01.683232,-17283
2021-12-27 14:53:01.683238,-18966
2021-12-27 14:53:01.974693,-18966
2021-12-27 14:53:01.974725,-18966
2021-12-27 14:53:01.974769,-18966
2021-12-27 14:53:01.974779,-18966
2021-12-27 14:53:01.974794,-18966
2021-12-27 14:53:01.974804,-18966
2021-12-27 14:53:01.974813,-18966
2021-12-27 14:53:01.974823,-18966
2021-12-27 14:53:01.974832,-18966
2021-12-27 14:53:01.974842,-18966
2021-12-27 14:53:01.974852,-18966
2021-12-27 14:53:01.974861,-18966
2021-12-27 14:53:01.974871,-18966
2021-12-27 14:53:01.974880,-18966
2021-12-27 14:53:01.974890,-18966
2021-12-27 14:53:01.974899,-18966
2021-12-27 14:53:01.974909,-18966
2021-12-27 14:53:01.974918,-18966
2021-12-27 14:53:01.974928,-18966
2021-12-27 14:53:01.974937,-18966
2021-12-27 14:53:01.974947,-18966
2021-12-27 14:53:01.974956,-18966
2021-12-27 14:53:01.974966,-18966
2021-12-27 14:53:01.974975,-18966
2021-12-27 14:53:01.974985,-18966
2021-12-27 14:53:01.974994,-18966
2021-12-27 14:53:01.975004,-18966
2021-12-27 14:53:01.975013,-18966
2021-12-27 14:53:01.975023,-18966
2021-12-27 14:53:01.975032,-18966
2021-12-27 14:53:02.170061,-18966
2021-12-27 14:53:02.170082,-18966
2021-12-27 14:53:02.170089,-18966
2021-12-27 14:53:02.170094,-18966
2021-12-27 14:53:02.170099,-18966
2021-12-27 14:53:02.170104,-18316
2021-12-27 14:53:02.170109,-18626
2021-12-27 14:53:02.170114,-17702
2021-12-27 14:53:02.170120,-14887
2021-12-27 14:53:02.170125,-13650
2021-12-27 14:53:02.170130,-11969
2021-12-27 14:53:02.170135,-9367
2021-12-27 14:53:02.170140,-12180
2021-12-27 14:53:02.170145,-17299
2021-12-27 14:53:02.170150,-18116
2021-12-27 14:53:02.170155,-17815
2021-12-27 14:53:02.170160,-18461
2021-12-27 14:53:02.170165,-18966
2021-12-27 14:53:02.170170,-18966
2021-12-27 14:53:02.170175,-18966
2021-12-27 14:53:02.170180,-18966
2021-12-27 14:53:02.170186,-18966
2021-12-27 14:53:02.170191,-18966
2021-12-27 14:53:02.170196,-18496
2021-12-27 14:53:02.170201,-16401
2021-12-27 14:53:02.170206,-16977
2021-12-27 14:53:02.170211,-13590
2021-12-27 14:53:02.170216,-10814
2021-12-27 14:53:02.170222,-9411
2021-12-27 14:53:02.170227,-2539
2021-12-27 14:53:02.414348,-7550
2021-12-27 14:53:02.414370,-18966
2021-12-27 14:53:02.414381,-18966
2021-12-27 14:53:02.414391,-18966
2021-12-27 14:53:02.414400,-18966
2021-12-27 14:53:02.414410,-18966
2021-12-27 14:53:02.414420,-18966
2021-12-27 14:53:02.414429,-11115
2021-12-27 14:53:02.414444,-8832
2021-12-27 14:53:02.414454,-9193
2021-12-27 14:53:02.414489,-12525
2021-12-27 14:53:02.414498,-18966
2021-12-27 14:53:02.414508,-18966
2021-12-27 14:53:02.414518,-18966
2021-12-27 14:53:02.414527,-18966
2021-12-27 14:53:02.414537,-18966
2021-12-27 14:53:02.414546,-18966
2021-12-27 14:53:02.414556,-13639
2021-12-27 14:53:02.414565,-14565
2021-12-27 14:53:02.414574,-18966
2021-12-27 14:53:02.414584,-18966
2021-12-27 14:53:02.414593,2393
2021-12-27 14:53:02.414603,-2083
2021-12-27 14:53:02.658186,-4167
2021-12-27 14:53:02.658206,-18012
2021-12-27 14:53:02.658214,-18966
2021-12-27 14:53:02.658220,-6072
2021-12-27 14:53:02.658226,-13041
2021-12-27 14:53:02.658233,-3377
2021-12-27 14:53:02.658239,1294
2021-12-27 14:53:02.658245,-4811
2021-12-27 14:53:02.658255,-3412
2021-12-27 14:53:02.658262,1039
2021-12-27 14:53:02.658271,-6054
2021-12-27 14:53:07.289524,2766
2021-12-27 14:53:07.289546,3421
2021-12-27 14:53:07.533165,2912
2021-12-27 14:53:07.533217,4373
2021-12-27 14:53:07.533224,1597
2021-12-27 14:53:07.678807,805
2021-12-27 14:53:07.678821,-3000
2021-12-27 14:53:07.678844,-1007
2021-12-27 14:53:07.678850,3780
2021-12-27 14:53:07.678866,-2475
2021-12-27 14:53:07.678873,-16220
2021-12-27 14:53:07.678879,-4693
2021-12-27 14:53:07.678892,4771
2021-12-27 14:53:07.678905,3144
2021-12-27 14:53:07.922856,141
2021-12-27 14:53:07.922869,-3709
2021-12-27 14:53:07.922885,4077
2021-12-27 14:53:07.922890,-266
2021-12-27 14:53:07.922895,169
2021-12-27 14:53:07.922905,4574
2021-12-27 14:53:07.922915,1787
2021-12-27 14:53:07.922920,2097
2021-12-27 14:53:07.922930,3357
2021-12-27 14:53:07.922948,3748
2021-12-27 14:53:08.214345,4901
2021-12-27 14:53:08.214387,3711
2021-12-27 14:53:08.214403,1065
2021-12-27 14:53:08.214413,-4269
2021-12-27 14:53:08.214422,3977
2021-12-27 14:53:08.214437,3000
2021-12-27 14:53:08.214446,4767
2021-12-27 14:53:08.214461,-4950
2021-12-27 14:53:08.214471,479
2021-12-27 14:53:08.214485,3963
2021-12-27 14:53:08.214510,-942
2021-12-27 14:53:08.214520,-1942
2021-12-27 14:53:08.214544,4623
2021-12-27 14:53:08.214554,1789
2021-12-27 14:53:08.214563,-3250
2021-12-27 14:53:08.214573,-10576
2021-12-27 14:53:08.214583,-2106
2021-12-27 14:53:08.410730,-426
2021-12-27 14:53:08.410752,4297
2021-12-27 14:53:08.410762,4273
2021-12-27 14:53:08.410782,3887
2021-12-27 14:53:08.410792,-3773
2021-12-27 14:53:08.410807,-6357
2021-12-27 14:53:08.410816,4350
2021-12-27 14:53:08.410831,4931
2021-12-27 14:53:08.410845,-1220
2021-12-27 14:53:08.410855,-9256
2021-12-27 14:53:08.410865,613
2021-12-27 14:53:08.410894,444
2021-12-27 14:53:08.410904,-7131
2021-12-27 14:53:08.410914,1150
2021-12-27 14:53:08.410938,2000
2021-12-27 14:53:08.410948,953
2021-12-27 14:53:08.654509,2079
2021-12-27 14:53:08.654524,-252
2021-12-27 14:53:08.654545,1944
2021-12-27 14:53:08.654551,-8369
2021-12-27 14:53:08.654557,-1340
2021-12-27 14:53:08.654570,4963
2021-12-27 14:53:08.654576,3519
2021-12-27 14:53:08.654582,-6399
2021-12-27 14:53:08.654589,-5040
2021-12-27 14:53:08.654601,4987
2021-12-27 14:53:08.654607,3417
2021-12-27 14:53:08.654614,2287
2021-12-27 14:53:08.654620,-1287
2021-12-27 14:53:08.654626,-1643
2021-12-27 14:53:08.654632,1308
2021-12-27 14:53:08.654645,831
2021-12-27 14:53:08.654651,1102
2021-12-27 14:53:08.849524,-4227
2021-12-27 14:53:08.849544,-14155
2021-12-27 14:53:08.849554,-3845
2021-12-27 14:53:08.849579,4246
2021-12-27 14:53:08.849589,3072
2021-12-27 14:53:08.849598,1977
2021-12-27 14:53:08.849608,671
2021-12-27 14:53:08.849627,4311
2021-12-27 14:53:08.849637,2824
2021-12-27 14:53:08.849646,1097
2021-12-27 14:53:08.849656,-3387
2021-12-27 14:53:08.849665,-1778
2021-12-27 14:53:08.849685,377
2021-12-27 14:53:08.849700,4799
2021-12-27 14:53:08.849709,-1178
2021-12-27 14:53:08.849719,-1370
2021-12-27 14:53:08.849728,-2537
2021-12-27 14:53:08.849737,2139
2021-12-27 14:53:08.849752,3141
2021-12-27 14:53:09.142076,1699
2021-12-27 14:53:09.142106,4982
2021-12-27 14:53:09.142118,4836
2021-12-27 14:53:09.142127,2400
2021-12-27 14:53:09.142137,4236
2021-12-27 14:53:09.142146,4023
2021-12-27 14:53:09.142156,-5677
2021-12-27 14:53:09.142165,-3843
2021-12-27 14:53:09.142180,3771
2021-12-27 14:53:09.142190,3044
2021-12-27 14:53:09.142204,-3544
2021-12-27 14:53:09.142214,-6149
2021-12-27 14:53:09.142223,3463
2021-12-27 14:53:09.142238,3986
2021-12-27 14:53:09.142252,4618
2021-12-27 14:53:09.142261,291
2021-12-27 14:53:09.142271,1236
2021-12-27 14:53:09.142280,4954
2021-12-27 14:53:09.142289,4556
2021-12-27 14:53:09.142309,442
2021-12-27 14:53:09.142319,-493
2021-12-27 14:53:09.142328,-4463
2021-12-27 14:53:09.142338,-3280
2021-12-27 14:53:09.288114,497
2021-12-27 14:53:09.288132,-1317
2021-12-27 14:53:09.288139,1701
2021-12-27 14:53:09.288155,870
2021-12-27 14:53:09.288161,-12831
2021-12-27 14:53:09.288167,-9863
2021-12-27 14:53:09.288180,3120
2021-12-27 14:53:09.288186,-81
2021-12-27 14:53:09.288193,-7969
2021-12-27 14:53:09.288199,-8661
2021-12-27 14:53:09.288212,2484
2021-12-27 14:53:09.288226,3093
2021-12-27 14:53:09.288233,-3141
2021-12-27 14:53:09.288240,-10520
2021-12-27 14:53:09.288246,3762
2021-12-27 14:53:09.288255,3354
2021-12-27 14:53:09.288262,4294
2021-12-27 14:53:09.288268,1456
2021-12-27 14:53:09.288274,-3123
2021-12-27 14:53:09.288280,900
2021-12-27 14:53:09.288286,141
2021-12-27 14:53:09.532091,-2972
2021-12-27 14:53:09.532113,2998
2021-12-27 14:53:09.532120,1761
2021-12-27 14:53:09.532127,-11386
2021-12-27 14:53:09.532133,-6667
2021-12-27 14:53:09.532151,1666
2021-12-27 14:53:09.532161,3306
2021-12-27 14:53:09.532172,-6325
2021-12-27 14:53:09.532182,-8050
2021-12-27 14:53:09.532202,3817
2021-12-27 14:53:09.532211,1778
2021-12-27 14:53:09.532221,372
2021-12-27 14:53:09.532232,-178
2021-12-27 14:53:09.532243,3463
2021-12-27 14:53:09.532258,4783
2021-12-27 14:53:09.532270,1984
2021-12-27 14:53:09.532277,1687
2021-12-27 14:53:09.532284,131
2021-12-27 14:53:09.532290,3252
2021-12-27 14:53:09.532299,4711
2021-12-27 14:53:09.532305,2792
2021-12-27 14:53:09.532312,-351
2021-12-27 14:53:09.532318,412
2021-12-27 14:53:09.532324,2759
2021-12-27 14:53:09.776060,2428
2021-12-27 14:53:09.776090,-1393
2021-12-27 14:53:09.776101,-6929
2021-12-27 14:53:09.776111,-1085
2021-12-27 14:53:09.776121,1201
2021-12-27 14:53:09.776130,-8832
2021-12-27 14:53:09.776140,-1956
2021-12-27 14:53:09.776155,2412
2021-12-27 14:53:09.776164,-493
2021-12-27 14:53:09.776174,1433
2021-12-27 14:53:09.776184,-4871
2021-12-27 14:53:09.776193,-5295
2021-12-27 14:53:09.776203,2637
2021-12-27 14:53:09.776212,-6316
2021-12-27 14:53:09.776222,-15440
2021-12-27 14:53:09.776231,2699
2021-12-27 14:53:09.776246,-3100
2021-12-27 14:53:09.776256,3044
2021-12-27 14:53:09.776270,437
2021-12-27 14:53:09.776280,3871
2021-12-27 14:53:09.776295,597
2021-12-27 14:53:09.776304,2898
2021-12-27 14:53:09.776313,4121
2021-12-27 14:53:09.776323,2537
2021-12-27 14:53:09.776332,3729
2021-12-27 14:53:09.776342,4936
2021-12-27 14:53:10.019507,2035
2021-12-27 14:53:10.019537,395
2021-12-27 14:53:10.019548,2072
2021-12-27 14:53:10.019558,-4783
2021-12-27 14:53:10.019568,-6399
2021-12-27 14:53:10.019577,4720
2021-12-27 14:53:10.019587,-1421
2021-12-27 14:53:10.019596,-10268
2021-12-27 14:53:10.019606,736
2021-12-27 14:53:10.019621,3271
2021-12-27 14:53:10.019631,4389
2021-12-27 14:53:10.019640,256
2021-12-27 14:53:10.019650,-7344
2021-12-27 14:53:10.019659,-4285
2021-12-27 14:53:10.019679,3408
2021-12-27 14:53:10.019693,606
2021-12-27 14:53:10.019703,-1794
2021-12-27 14:53:10.019712,2662
2021-12-27 14:53:10.019722,4901
2021-12-27 14:53:10.019736,4401
2021-12-27 14:53:10.019745,1220
2021-12-27 14:53:10.019755,-678
2021-12-27 14:53:10.019764,405
2021-12-27 14:53:10.261860,3565
2021-12-27 14:53:10.261889,3396
2021-12-27 14:53:10.261901,-1986
2021-12-27 14:53:10.261911,-1935
2021-12-27 14:53:10.261920,4454
2021-12-27 14:53:10.261929,-1190
2021-12-27 14:53:10.261939,-5264
2021-12-27 14:53:10.261948,-310
2021-12-27 14:53:10.261957,-7323
2021-12-27 14:53:10.261972,-11553
2021-12-27 14:53:10.261981,3648
2021-12-27 14:53:10.261996,2606
2021-12-27 14:53:10.262005,1553
2021-12-27 14:53:10.262015,-2521
2021-12-27 14:53:10.262024,-11006
2021-12-27 14:53:10.262034,821
2021-12-27 14:53:10.262048,2451
2021-12-27 14:53:10.262058,-5392
2021-12-27 14:53:10.262067,-14910
2021-12-27 14:53:10.262077,-11807
2021-12-27 14:53:10.262096,2954
2021-12-27 14:53:10.262105,4938
2021-12-27 14:53:10.262115,2208
2021-12-27 14:53:10.262124,-2380
2021-12-27 14:53:10.262133,173
2021-12-27 14:53:10.458391,2836
2021-12-27 14:53:10.458413,2109
2021-12-27 14:53:10.458424,-6714
2021-12-27 14:53:10.458434,-10126
2021-12-27 14:53:10.458443,3678
2021-12-27 14:53:10.458457,-3475
2021-12-27 14:53:10.458467,-7686
2021-12-27 14:53:10.458476,-5339
2021-12-27 14:53:10.458486,-6230
2021-12-27 14:53:10.458495,-3553
2021-12-27 14:53:10.458514,-145
2021-12-27 14:53:10.458523,798
2021-12-27 14:53:10.458533,1773
2021-12-27 14:53:10.458542,1354
2021-12-27 14:53:10.458562,2326
2021-12-27 14:53:10.458571,1280
2021-12-27 14:53:10.458580,652
2021-12-27 14:53:10.458590,1530
2021-12-27 14:53:10.458599,3479
2021-12-27 14:53:10.458614,3523
2021-12-27 14:53:10.458623,270
2021-12-27 14:53:10.458632,3046
2021-12-27 14:53:10.458642,2042
2021-12-27 14:53:10.702145,1481
2021-12-27 14:53:10.702182,2604
2021-12-27 14:53:10.702192,23
2021-12-27 14:53:10.702202,2086
2021-12-27 14:53:10.702211,-5269
2021-12-27 14:53:10.702220,-7730
2021-12-27 14:53:10.702229,2831
2021-12-27 14:53:10.702239,4063
2021-12-27 14:53:10.702248,-6635
2021-12-27 14:53:10.702257,-7577
2021-12-27 14:53:10.702267,-2157
2021-12-27 14:53:10.702276,-5903
2021-12-27 14:53:10.702285,-1319
2021-12-27 14:53:10.702300,1060
2021-12-27 14:53:10.702309,2275
2021-12-27 14:53:10.702323,-384
2021-12-27 14:53:10.702333,1289
2021-12-27 14:53:10.702342,4153
2021-12-27 14:53:10.702351,1863
2021-12-27 14:53:10.702361,3850
2021-12-27 14:53:10.702370,4706
2021-12-27 14:53:10.702379,1611
2021-12-27 14:53:10.702389,-5044
2021-12-27 14:53:10.702398,-13650
2021-12-27 14:53:10.702407,-9258
2021-12-27 14:53:10.945739,145
2021-12-27 14:53:10.945768,-958
2021-12-27 14:53:10.945780,3259
2021-12-27 14:53:10.945789,1470
2021-12-27 14:53:10.945799,3042
2021-12-27 14:53:10.945814,-500
2021-12-27 14:53:10.945823,-8934
2021-12-27 14:53:10.945832,-5741
2021-12-27 14:53:10.945842,3415
2021-12-27 14:53:10.945856,-2706
2021-12-27 14:53:10.945866,-6508
2021-12-27 14:53:10.945875,-5959
2021-12-27 14:53:10.945884,-7272
2021-12-27 14:53:10.945894,97
2021-12-27 14:53:10.945913,4533
2021-12-27 14:53:10.945923,1623
2021-12-27 14:53:10.945932,-1914
2021-12-27 14:53:10.945942,-134
2021-12-27 14:53:10.945961,3748
2021-12-27 14:53:10.945971,3049
2021-12-27 14:53:10.945980,-393
2021-12-27 14:53:10.945990,-2176
2021-12-27 14:53:11.140734,3565
2021-12-27 14:53:11.140754,4304
2021-12-27 14:53:11.140761,-1646
2021-12-27 14:53:11.140768,-3982
2021-12-27 14:53:11.140774,3945
2021-12-27 14:53:11.140784,4558
2021-12-27 14:53:11.140790,2787
2021-12-27 14:53:11.140796,-4396
2021-12-27 14:53:11.140802,-12335
2021-12-27 14:53:11.140809,-1891
2021-12-27 14:53:11.140818,3394
2021-12-27 14:53:11.140824,-4528
2021-12-27 14:53:11.140831,-9518
2021-12-27 14:53:11.140837,-13817
2021-12-27 14:53:11.140843,-2977
2021-12-27 14:53:11.140852,4866
2021-12-27 14:53:11.140859,3329
2021-12-27 14:53:11.140871,1965
2021-12-27 14:53:11.140877,-2449
2021-12-27 14:53:11.140883,-717
2021-12-27 14:53:11.140896,3403
2021-12-27 14:53:11.140902,1889
2021-12-27 14:53:11.140908,419
2021-12-27 14:53:11.140914,-1011
2021-12-27 14:53:11.140921,4355
2021-12-27 14:53:11.384322,3720
2021-12-27 14:53:11.384350,-10212
2021-12-27 14:53:11.384361,-14678
2021-12-27 14:53:11.384370,-5109
2021-12-27 14:53:11.384380,-4679
2021-12-27 14:53:11.384390,-6107
2021-12-27 14:53:11.384399,4838
2021-12-27 14:53:11.384415,312
2021-12-27 14:53:11.384424,-1298
2021-12-27 14:53:11.384434,-2259
2021-12-27 14:53:11.384443,-6394
2021-12-27 14:53:11.384453,3155
2021-12-27 14:53:11.384467,-50
2021-12-27 14:53:11.384477,-5186
2021-12-27 14:53:11.384486,-7105
2021-12-27 14:53:11.384496,-2292
2021-12-27 14:53:11.384510,5000
2021-12-27 14:53:11.384520,2414
2021-12-27 14:53:11.384530,1379
2021-12-27 14:53:11.384539,2889
2021-12-27 14:53:11.384548,2600
2021-12-27 14:53:11.384558,-757
2021-12-27 14:53:11.384567,-1229
2021-12-27 14:53:11.384577,-2958
2021-12-27 14:53:11.384586,-1048
2021-12-27 14:53:11.384595,4676
2021-12-27 14:53:11.384605,821
2021-12-27 14:53:11.676991,-3544
2021-12-27 14:53:11.677021,-2961
2021-12-27 14:53:11.677032,-4572
2021-12-27 14:53:11.677042,-5160
2021-12-27 14:53:11.677051,-5320
2021-12-27 14:53:11.677061,-7411
2021-12-27 14:53:11.677070,-9640
2021-12-27 14:53:11.677079,-4220
2021-12-27 14:53:11.677089,3158
2021-12-27 14:53:11.677099,-368
2021-12-27 14:53:11.677108,27
2021-12-27 14:53:11.677118,2822
2021-12-27 14:53:11.677127,-7575
2021-12-27 14:53:11.677137,-7344
2021-12-27 14:53:11.677147,4269
2021-12-27 14:53:11.677156,2495
2021-12-27 14:53:11.677166,629
2021-12-27 14:53:11.677175,-1759
2021-12-27 14:53:11.677185,-9911
2021-12-27 14:53:11.677194,-4491
2021-12-27 14:53:11.677204,4243
2021-12-27 14:53:11.677214,2727
2021-12-27 14:53:11.677223,2340
2021-12-27 14:53:11.677238,4262
2021-12-27 14:53:11.677247,-696
2021-12-27 14:53:11.677257,965
2021-12-27 14:53:11.677266,3838
2021-12-27 14:53:11.677276,3639
2021-12-27 14:53:11.823245,4241
2021-12-27 14:53:11.823266,-169
2021-12-27 14:53:11.823273,-69
2021-12-27 14:53:11.823279,1433
2021-12-27 14:53:11.823292,2127
2021-12-27 14:53:11.823298,-6621
2021-12-27 14:53:11.823305,-13046
2021-12-27 14:53:11.823311,-310
2021-12-27 14:53:11.823320,3678
2021-12-27 14:53:11.823326,3908
2021-12-27 14:53:11.823333,435
2021-12-27 14:53:11.823339,-11141
2021-12-27 14:53:11.823345,-5299
2021-12-27 14:53:11.823358,2697
2021-12-27 14:53:11.823364,-3926
2021-12-27 14:53:11.823370,-16602
2021-12-27 14:53:11.823376,-13201
2021-12-27 14:53:11.823389,856
2021-12-27 14:53:11.823398,1905
2021-12-27 14:53:11.823404,-4625
2021-12-27 14:53:11.823410,4366
2021-12-27 14:53:12.067028,4669
2021-12-27 14:53:12.067057,4350
2021-12-27 14:53:12.067068,-3218
2021-12-27 14:53:12.067078,-12027
2021-12-27 14:53:12.067088,-2910
2021-12-27 14:53:12.067107,1782
2021-12-27 14:53:12.067117,1822
2021-12-27 14:53:12.067126,-7714
2021-12-27 14:53:12.067136,-7066
2021-12-27 14:53:12.067155,2551
2021-12-27 14:53:12.067164,2947
2021-12-27 14:53:12.067174,-1451
2021-12-27 14:53:12.067183,-819
2021-12-27 14:53:12.067203,4808
2021-12-27 14:53:12.067212,1477
2021-12-27 14:53:12.067222,-4389
2021-12-27 14:53:12.067231,-11261
2021-12-27 14:53:12.067240,-4331
2021-12-27 14:53:12.067255,4243
2021-12-27 14:53:12.067264,-370
2021-12-27 14:53:12.067274,-2113
2021-12-27 14:53:12.067283,-7151
2021-12-27 14:53:12.067293,-3739
2021-12-27 14:53:12.357863,-92
2021-12-27 14:53:12.357884,-3773
2021-12-27 14:53:12.357892,-3394
2021-12-27 14:53:12.357898,-1236
2021-12-27 14:53:12.357904,-5964
2021-12-27 14:53:12.357910,-10564
2021-12-27 14:53:12.357916,-217
2021-12-27 14:53:12.357926,-284
2021-12-27 14:53:12.357932,-1555
2021-12-27 14:53:12.357948,18
2021-12-27 14:53:12.357954,-7952
2021-12-27 14:53:12.357961,-9717
2021-12-27 14:53:12.357967,-8369
2021-12-27 14:53:12.357973,-5389
2021-12-27 14:53:12.357979,2514
2021-12-27 14:53:12.357985,3593
2021-12-27 14:53:12.357991,277
2021-12-27 14:53:12.357997,588
2021-12-27 14:53:12.358003,4970
2021-12-27 14:53:12.358009,4878
2021-12-27 14:53:12.358016,488
2021-12-27 14:53:12.358022,4276
2021-12-27 14:53:12.358028,2931
2021-12-27 14:53:12.358034,-5207
2021-12-27 14:53:12.358040,907
2021-12-27 14:53:12.358049,1680
2021-12-27 14:53:12.358056,3845
2021-12-27 14:53:12.358062,4683
2021-12-27 14:53:12.554561,548
2021-12-27 14:53:12.554591,-2942
2021-12-27 14:53:12.554602,-4294
2021-12-27 14:53:12.554612,-375
2021-12-27 14:53:12.554622,4086
2021-12-27 14:53:12.554631,3211
2021-12-27 14:53:12.554641,-6936
2021-12-27 14:53:12.554650,-13863
2021-12-27 14:53:12.554659,-4704
2021-12-27 14:53:12.554669,-509
2021-12-27 14:53:12.554678,-5179
2021-12-27 14:53:12.554687,-2556
2021-12-27 14:53:12.554697,-4315
2021-12-27 14:53:12.554706,-10006
2021-12-27 14:53:12.554716,-3720
2021-12-27 14:53:12.554725,3970
2021-12-27 14:53:12.554734,3926
2021-12-27 14:53:12.554744,2926
2021-12-27 14:53:12.554753,3213
2021-12-27 14:53:12.554763,106
2021-12-27 14:53:12.554773,-1537
2021-12-27 14:53:12.554782,3114
2021-12-27 14:53:12.554792,4820
2021-12-27 14:53:12.554801,4818
2021-12-27 14:53:12.554816,-317
2021-12-27 14:53:12.554825,-7073
2021-12-27 14:53:12.554835,-3801
2021-12-27 14:53:12.749268,3264
2021-12-27 14:53:12.749344,1935
2021-12-27 14:53:12.749354,-814
2021-12-27 14:53:12.749361,-933
2021-12-27 14:53:12.749375,4209
2021-12-27 14:53:12.749381,1294
2021-12-27 14:53:12.749387,-9575
2021-12-27 14:53:12.749393,-6827
2021-12-27 14:53:12.749406,3903
2021-12-27 14:53:12.749412,2664
2021-12-27 14:53:12.749418,-6225
2021-12-27 14:53:12.749424,-10293
2021-12-27 14:53:12.749430,3817
2021-12-27 14:53:12.749440,-3690
2021-12-27 14:53:12.749446,-12967
2021-12-27 14:53:12.749452,-5910
2021-12-27 14:53:12.749458,27
2021-12-27 14:53:12.749464,4172
2021-12-27 14:53:12.749480,3387
2021-12-27 14:53:12.749486,-1805
2021-12-27 14:53:12.749493,-3771
2021-12-27 14:53:12.749499,1294
2021-12-27 14:53:12.993310,-819
2021-12-27 14:53:12.993332,-7242
2021-12-27 14:53:12.993342,-7117
2021-12-27 14:53:12.993361,2801
2021-12-27 14:53:12.993371,3199
2021-12-27 14:53:12.993381,-3456
2021-12-27 14:53:12.993390,-8149
2021-12-27 14:53:12.993399,2553
2021-12-27 14:53:12.993419,1914
2021-12-27 14:53:12.993428,886
2021-12-27 14:53:12.993438,1192
2021-12-27 14:53:12.993447,2475
2021-12-27 14:53:12.993467,1815
2021-12-27 14:53:12.993476,1954
2021-12-27 14:53:12.993486,1423
2021-12-27 14:53:12.993495,2099
2021-12-27 14:53:12.993515,3181
2021-12-27 14:53:12.993524,1604
2021-12-27 14:53:12.993534,4394
2021-12-27 14:53:12.993543,3324
2021-12-27 14:53:13.237099,-4818
2021-12-27 14:53:13.237129,-595
2021-12-27 14:53:13.237146,916
2021-12-27 14:53:13.237156,-729
2021-12-27 14:53:13.237165,-5614
2021-12-27 14:53:13.237175,-4459
2021-12-27 14:53:13.237189,4496
2021-12-27 14:53:13.237199,-111
2021-12-27 14:53:13.237208,2505
2021-12-27 14:53:13.237217,-2762
2021-12-27 14:53:13.237227,-6996
2021-12-27 14:53:13.237236,2738
2021-12-27 14:53:13.237251,136
2021-12-27 14:53:13.237260,2259
2021-12-27 14:53:13.237275,-595
2021-12-27 14:53:13.237284,1731
2021-12-27 14:53:13.237299,1206
2021-12-27 14:53:13.237308,3648
2021-12-27 14:53:13.237317,1643
2021-12-27 14:53:13.237327,-11122
2021-12-27 14:53:13.237336,-7878
2021-12-27 14:53:13.237346,4924
2021-12-27 14:53:13.237355,4549
2021-12-27 14:53:13.237365,1562
2021-12-27 14:53:13.237374,4781
2021-12-27 14:53:13.480777,3364
2021-12-27 14:53:13.480807,-4959
2021-12-27 14:53:13.480818,-8348
2021-12-27 14:53:13.480828,-2982
2021-12-27 14:53:13.480838,4651
2021-12-27 14:53:13.480852,-2769
2021-12-27 14:53:13.480862,-9534
2021-12-27 14:53:13.480871,-1789
2021-12-27 14:53:13.480881,4007
2021-12-27 14:53:13.480890,4315
2021-12-27 14:53:13.480900,4940
2021-12-27 14:53:13.480909,1331
2021-12-27 14:53:13.480918,-6012
2021-12-27 14:53:13.480928,-7144
2021-12-27 14:53:13.480937,2986
2021-12-27 14:53:13.480952,3197
2021-12-27 14:53:13.480961,4477
2021-12-27 14:53:13.480976,2051
2021-12-27 14:53:13.480985,-3097
2021-12-27 14:53:13.480995,1083
2021-12-27 14:53:13.481014,4507
2021-12-27 14:53:13.481024,1687
2021-12-27 14:53:13.481033,-1222
2021-12-27 14:53:13.481043,-898
2021-12-27 14:53:13.676307,3266
2021-12-27 14:53:13.676326,3440
2021-12-27 14:53:13.676333,-1886
2021-12-27 14:53:13.676340,-8325
2021-12-27 14:53:13.676346,-4841
2021-12-27 14:53:13.676352,578
2021-12-27 14:53:13.676362,2961
2021-12-27 14:53:13.676368,-9844
2021-12-27 14:53:13.676374,-11842
2021-12-27 14:53:13.676380,2806
2021-12-27 14:53:13.676390,3528
2021-12-27 14:53:13.676396,2264
2021-12-27 14:53:13.676402,-1546
2021-12-27 14:53:13.676408,-11448
2021-12-27 14:53:13.676414,-3039
2021-12-27 14:53:13.676424,4558
2021-12-27 14:53:13.676430,2116
2021-12-27 14:53:13.676436,2875
2021-12-27 14:53:13.676442,-3537
2021-12-27 14:53:13.676448,-273
2021-12-27 14:53:13.676461,3845
2021-12-27 14:53:13.676467,1655
2021-12-27 14:53:13.676473,-1041
2021-12-27 14:53:13.676479,-481
2021-12-27 14:53:13.676485,914
2021-12-27 14:53:13.919661,-7633
2021-12-27 14:53:13.919691,-11597
2021-12-27 14:53:13.919702,2099
2021-12-27 14:53:13.919711,-777
2021-12-27 14:53:13.919721,-13491
2021-12-27 14:53:13.919730,-4679
2021-12-27 14:53:13.919743,314
2021-12-27 14:53:13.919760,-2479
2021-12-27 14:53:13.919809,2407
2021-12-27 14:53:13.919826,4
2021-12-27 14:53:13.919853,-7790
2021-12-27 14:53:13.919859,-4892
2021-12-27 14:53:13.919872,194
2021-12-27 14:53:13.919878,845
2021-12-27 14:53:13.919885,2725
2021-12-27 14:53:13.919891,266
2021-12-27 14:53:13.919897,4329
2021-12-27 14:53:13.919906,2093
2021-12-27 14:53:13.919912,1449
2021-12-27 14:53:13.919919,1921
2021-12-27 14:53:13.919925,1734
2021-12-27 14:53:13.919931,2581
2021-12-27 14:53:13.919940,4042
2021-12-27 14:53:13.919946,469
2021-12-27 14:53:13.919953,3171
2021-12-27 14:53:13.919959,2951
2021-12-27 14:53:14.163393,240
2021-12-27 14:53:14.163418,3440
2021-12-27 14:53:14.163425,-416
2021-12-27 14:53:14.163431,3246
2021-12-27 14:53:14.163438,-2877
2021-12-27 14:53:14.163444,-9349
2021-12-27 14:53:14.163450,-2470
2021-12-27 14:53:14.163456,-3544
2021-12-27 14:53:14.163462,-6739
2021-12-27 14:53:14.163468,3137
2021-12-27 14:53:14.163475,3287
2021-12-27 14:53:14.163481,-9119
2021-12-27 14:53:14.163487,-4264
2021-12-27 14:53:14.163497,1947
2021-12-27 14:53:14.163503,1104
2021-12-27 14:53:14.163512,560
2021-12-27 14:53:14.163518,-599
2021-12-27 14:53:14.163525,3482
2021-12-27 14:53:14.163531,2058
2021-12-27 14:53:14.163537,3665
2021-12-27 14:53:14.163546,2130
2021-12-27 14:53:14.163553,92
2021-12-27 14:53:14.163559,1065
2021-12-27 14:53:14.163565,3155
2021-12-27 14:53:14.163571,3482
2021-12-27 14:53:14.163577,4889
2021-12-27 14:53:14.405226,3799
2021-12-27 14:53:14.405245,-1051
2021-12-27 14:53:14.405252,-331
2021-12-27 14:53:14.405259,1706
2021-12-27 14:53:14.405265,2986
2021-12-27 14:53:14.405271,-750
2021-12-27 14:53:14.405277,-14736
2021-12-27 14:53:14.405283,-17466
2021-12-27 14:53:14.405289,-6091
2021-12-27 14:53:14.405296,-1104
2021-12-27 14:53:14.405302,-4317
2021-12-27 14:53:14.405308,-3088
2021-12-27 14:53:14.405314,5000
2021-12-27 14:53:14.405320,-449
2021-12-27 14:53:14.405326,-12287
2021-12-27 14:53:14.405333,-1889
2021-12-27 14:53:14.405343,4271
2021-12-27 14:53:14.405349,3736
2021-12-27 14:53:14.405355,3373
2021-12-27 14:53:14.405361,-2396
2021-12-27 14:53:14.405367,-1912
2021-12-27 14:53:14.405373,4917
2021-12-27 14:53:14.405383,3706
2021-12-27 14:53:14.405389,2995
2021-12-27 14:53:14.405395,338
2021-12-27 14:53:14.405401,-3259
2021-12-27 14:53:14.405407,4338
2021-12-27 14:53:14.650942,3208
2021-12-27 14:53:14.650972,3891
2021-12-27 14:53:14.650983,-4607
2021-12-27 14:53:14.650993,-12490
2021-12-27 14:53:14.651003,243
2021-12-27 14:53:14.651018,4415
2021-12-27 14:53:14.651027,2266
2021-12-27 14:53:14.651037,-1870
2021-12-27 14:53:14.651046,-11293
2021-12-27 14:53:14.651055,-6086
2021-12-27 14:53:14.651070,-1923
2021-12-27 14:53:14.651080,-6443
2021-12-27 14:53:14.651089,3637
2021-12-27 14:53:14.651099,-446
2021-12-27 14:53:14.651108,-2968
2021-12-27 14:53:14.651128,-92
2021-12-27 14:53:14.651137,-5540
2021-12-27 14:53:14.651147,-7140
2021-12-27 14:53:14.651156,-754
2021-12-27 14:53:14.651166,3489
2021-12-27 14:53:14.651175,4160
2021-12-27 14:53:14.651184,-409
2021-12-27 14:53:14.651194,-7110
2021-12-27 14:53:14.651203,-6126
2021-12-27 14:53:14.651212,-6943
2021-12-27 14:53:14.651222,-6617
2021-12-27 14:53:14.846045,1935
2021-12-27 14:53:14.846074,3864
2021-12-27 14:53:14.846086,-1081
2021-12-27 14:53:14.846096,-4899
2021-12-27 14:53:14.846105,-8881
2021-12-27 14:53:14.846115,-8101
2021-12-27 14:53:14.846124,1602
2021-12-27 14:53:14.846139,333
2021-12-27 14:53:14.846149,-1236
2021-12-27 14:53:14.846158,4880
2021-12-27 14:53:14.846173,-3081
2021-12-27 14:53:14.846183,-13479
2021-12-27 14:53:14.846192,-5339
2021-12-27 14:53:14.846201,-2961
2021-12-27 14:53:14.846211,-7036
2021-12-27 14:53:14.846220,-2000
2021-12-27 14:53:14.846230,-3431
2021-12-27 14:53:14.846239,-4378
2021-12-27 14:53:14.846248,4792
2021-12-27 14:53:14.846263,-277
2021-12-27 14:53:14.846273,2322
2021-12-27 14:53:14.846282,4285
2021-12-27 14:53:14.846292,-152
2021-12-27 14:53:14.846301,3859
2021-12-27 14:53:14.846316,405
2021-12-27 14:53:14.846325,4091
2021-12-27 14:53:14.846335,4912
2021-12-27 14:53:15.089660,238
2021-12-27 14:53:15.089690,3706
2021-12-27 14:53:15.089701,3952
2021-12-27 14:53:15.089710,1199
2021-12-27 14:53:15.089720,4114
2021-12-27 14:53:15.089729,2016
2021-12-27 14:53:15.089739,-6749
2021-12-27 14:53:15.089748,-5382
2021-12-27 14:53:15.089763,4419
2021-12-27 14:53:15.089773,1391
2021-12-27 14:53:15.089787,-2732
2021-12-27 14:53:15.089797,-8288
2021-12-27 14:53:15.089806,2819
2021-12-27 14:53:15.089815,2590
2021-12-27 14:53:15.089825,-5945
2021-12-27 14:53:15.089834,-2359
2021-12-27 14:53:15.089844,3509
2021-12-27 14:53:15.089853,1715
2021-12-27 14:53:15.089862,-523
2021-12-27 14:53:15.089872,3387
2021-12-27 14:53:15.089886,4674
2021-12-27 14:53:15.089896,4440
2021-12-27 14:53:15.089905,1488
2021-12-27 14:53:15.089914,-562
2021-12-27 14:53:15.089924,3151
2021-12-27 14:53:15.089933,4970
2021-12-27 14:53:15.284883,4940
2021-12-27 14:53:15.284904,740
2021-12-27 14:53:15.284912,-1062
2021-12-27 14:53:15.284918,597
2021-12-27 14:53:15.284931,3333
2021-12-27 14:53:15.284937,-1757
2021-12-27 14:53:15.284943,-10404
2021-12-27 14:53:15.284949,-5058
2021-12-27 14:53:15.284962,2873
2021-12-27 14:53:15.284968,2275
2021-12-27 14:53:15.284974,-9031
2021-12-27 14:53:15.284981,-8876
2021-12-27 14:53:15.284987,2859
2021-12-27 14:53:15.284993,-7355
2021-12-27 14:53:15.284999,-18966
2021-12-27 14:53:15.285006,-6107
2021-12-27 14:53:15.285015,-4429
2021-12-27 14:53:15.285021,463
2021-12-27 14:53:15.285031,4387
2021-12-27 14:53:15.285037,2829
2021-12-27 14:53:15.285043,2609
2021-12-27 14:53:15.285049,-2977
2021-12-27 14:53:15.285056,2660
2021-12-27 14:53:15.528461,4908
2021-12-27 14:53:15.528481,4505
2021-12-27 14:53:15.528489,-1236
2021-12-27 14:53:15.528495,-10951
2021-12-27 14:53:15.528502,-6482
2021-12-27 14:53:15.528515,1650
2021-12-27 14:53:15.528521,1565
2021-12-27 14:53:15.528527,-5306
2021-12-27 14:53:15.528533,-9110
2021-12-27 14:53:15.528539,4762
2021-12-27 14:53:15.528549,2657
2021-12-27 14:53:15.528555,2574
2021-12-27 14:53:15.528561,-328
2021-12-27 14:53:15.528567,-1053
2021-12-27 14:53:15.528574,3741
2021-12-27 14:53:15.528591,3222
2021-12-27 14:53:15.528602,-6508
2021-12-27 14:53:15.528611,-8325
2021-12-27 14:53:15.528618,986
2021-12-27 14:53:15.528624,4229
2021-12-27 14:53:15.528630,4519
2021-12-27 14:53:15.528636,4845
2021-12-27 14:53:15.528642,2639
2021-12-27 14:53:15.528648,634
2021-12-27 14:53:15.528655,-469
2021-12-27 14:53:15.528661,2134
2021-12-27 14:53:15.772370,4718
2021-12-27 14:53:15.772393,4607
2021-12-27 14:53:15.772400,2623
2021-12-27 14:53:15.772406,-314
2021-12-27 14:53:15.772413,-2192
2021-12-27 14:53:15.772419,-6869
2021-12-27 14:53:15.772425,-3023
2021-12-27 14:53:15.772435,3347
2021-12-27 14:53:15.772441,-1509
2021-12-27 14:53:15.772447,2393
2021-12-27 14:53:15.772453,-4623
2021-12-27 14:53:15.772459,-6063
2021-12-27 14:53:15.772472,-314
2021-12-27 14:53:15.772478,2938
2021-12-27 14:53:15.772485,3868
2021-12-27 14:53:15.772491,-90
2021-12-27 14:53:15.772497,2292
2021-12-27 14:53:15.772507,-1317
2021-12-27 14:53:15.772513,-7381
2021-12-27 14:53:15.772519,-14361
2021-12-27 14:53:15.772525,-16602
2021-12-27 14:53:15.772531,-4558
2021-12-27 14:53:15.772537,-581
2021-12-27 14:53:15.772543,-2632
2021-12-27 14:53:15.772549,4158
2021-12-27 14:53:15.772556,4102
2021-12-27 14:53:16.015960,-3477
2021-12-27 14:53:16.015983,-6973
2021-12-27 14:53:16.015990,-5202
2021-12-27 14:53:16.015997,-3588
2021-12-27 14:53:16.016003,-5408
2021-12-27 14:53:16.016009,-1745
2021-12-27 14:53:16.016015,-2884
2021-12-27 14:53:16.016022,-10715
2021-12-27 14:53:16.016028,-3127
2021-12-27 14:53:16.016034,4060
2021-12-27 14:53:16.016040,1530
2021-12-27 14:53:16.016047,3669
2021-12-27 14:53:16.016053,-886
2021-12-27 14:53:16.016059,-9365
2021-12-27 14:53:16.016065,-4892
2021-12-27 14:53:16.016072,3296
2021-12-27 14:53:16.016082,3535
2021-12-27 14:53:16.016088,3324
2021-12-27 14:53:16.016094,1229
2021-12-27 14:53:16.016100,-2630
2021-12-27 14:53:16.016110,1528
2021-12-27 14:53:16.016120,2914
2021-12-27 14:53:16.016126,-2609
2021-12-27 14:53:16.016132,-6918
2021-12-27 14:53:16.016139,-2349
2021-12-27 14:53:16.016145,3259
2021-12-27 14:53:16.016151,3778
2021-12-27 14:53:16.211155,2340
2021-12-27 14:53:16.211171,-1164
2021-12-27 14:53:16.211178,-1741
2021-12-27 14:53:16.211191,3743
2021-12-27 14:53:16.211197,2873
2021-12-27 14:53:16.211203,-7566
2021-12-27 14:53:16.211209,-10395
2021-12-27 14:53:16.211221,3380
2021-12-27 14:53:16.211227,3222
2021-12-27 14:53:16.211234,-3852
2021-12-27 14:53:16.211240,-10640
2021-12-27 14:53:16.211246,571
2021-12-27 14:53:16.211255,4630
2021-12-27 14:53:16.211261,2199
2021-12-27 14:53:16.211267,3093
2021-12-27 14:53:16.211274,-3278
2021-12-27 14:53:16.211280,657
2021-12-27 14:53:16.211293,2444
2021-12-27 14:53:16.211299,-4517
2021-12-27 14:53:16.211305,-11761
2021-12-27 14:53:16.211315,-7962
2021-12-27 14:53:16.211321,-7783
2021-12-27 14:53:16.502169,-2268
2021-12-27 14:53:16.502205,2248
2021-12-27 14:53:16.502215,-8061
2021-12-27 14:53:16.502225,-8390
2021-12-27 14:53:16.502235,3502
2021-12-27 14:53:16.502249,3273
2021-12-27 14:53:16.502259,2509
2021-12-27 14:53:16.502268,-1734
2021-12-27 14:53:16.502277,-8080
2021-12-27 14:53:16.502287,-1000
2021-12-27 14:53:16.502306,1738
2021-12-27 14:53:16.502315,523
2021-12-27 14:53:16.502324,1903
2021-12-27 14:53:16.502334,1460
2021-12-27 14:53:16.502343,4975
2021-12-27 14:53:16.502358,1819
2021-12-27 14:53:16.502367,1403
2021-12-27 14:53:16.502376,2634
2021-12-27 14:53:16.502386,1484
2021-12-27 14:53:16.502395,4454
2021-12-27 14:53:16.502409,2938
2021-12-27 14:53:16.502419,-20
2021-12-27 14:53:16.502428,-5320
2021-12-27 14:53:16.502437,-7137
2021-12-27 14:53:16.698295,803
2021-12-27 14:53:16.698329,2940
2021-12-27 14:53:16.698339,-995
2021-12-27 14:53:16.698349,3475
2021-12-27 14:53:16.698358,-3315
2021-12-27 14:53:16.698368,-8522
2021-12-27 14:53:16.698377,4072
2021-12-27 14:53:16.698392,-953
2021-12-27 14:53:16.698401,3477
2021-12-27 14:53:16.698410,-1053
2021-12-27 14:53:16.698420,-10608
2021-12-27 14:53:16.698429,-6737
2021-12-27 14:53:16.698438,-544
2021-12-27 14:53:16.698448,-349
2021-12-27 14:53:16.698457,2146
2021-12-27 14:53:16.698467,4403
2021-12-27 14:53:16.698476,-2268
2021-12-27 14:53:16.698485,-7005
2021-12-27 14:53:16.698495,-3352
2021-12-27 14:53:16.698504,-3959
2021-12-27 14:53:16.698513,-6285
2021-12-27 14:53:16.698523,-3831
2021-12-27 14:53:16.698532,-3130
2021-12-27 14:53:16.698542,-3426
2021-12-27 14:53:16.698551,-2456
2021-12-27 14:53:16.698561,-960
2021-12-27 14:53:16.698570,1148
2021-12-27 14:53:16.698580,388
2021-12-27 14:53:16.941501,-4669
2021-12-27 14:53:16.941517,-7929
2021-12-27 14:53:16.941522,-2613
2021-12-27 14:53:16.941527,1171
2021-12-27 14:53:16.941531,-6982
2021-12-27 14:53:16.941536,-14521
2021-12-27 14:53:16.941540,-10907
2021-12-27 14:53:16.941544,-7385
2021-12-27 14:53:16.941548,-7181
2021-12-27 14:53:16.941552,-1034
2021-12-27 14:53:16.941561,1866
2021-12-27 14:53:16.941566,-3389
2021-12-27 14:53:16.941570,-7906
2021-12-27 14:53:16.941574,55
2021-12-27 14:53:16.941583,4338
2021-12-27 14:53:16.941587,4401
2021-12-27 14:53:16.941591,-1963
2021-12-27 14:53:16.941596,451
2021-12-27 14:53:16.941607,3447
2021-12-27 14:53:16.941611,-143
2021-12-27 14:53:16.941615,-766
2021-12-27 14:53:17.234737,4514
2021-12-27 14:53:17.234767,4051
2021-12-27 14:53:17.234778,-2046
2021-12-27 14:53:17.234788,-8492
2021-12-27 14:53:17.234797,3660
2021-12-27 14:53:17.234812,4081
2021-12-27 14:53:17.234822,4375
2021-12-27 14:53:17.234831,-3234
2021-12-27 14:53:17.234840,-12206
2021-12-27 14:53:17.234850,-1004
2021-12-27 14:53:17.234869,2477
2021-12-27 14:53:17.234879,791
2021-12-27 14:53:17.234888,-8365
2021-12-27 14:53:17.234898,-5890
2021-12-27 14:53:17.234917,2150
2021-12-27 14:53:17.234927,3868
2021-12-27 14:53:17.234937,-928
2021-12-27 14:53:17.234946,-597
2021-12-27 14:53:17.234965,4841
2021-12-27 14:53:17.234975,2632
2021-12-27 14:53:17.234985,37
2021-12-27 14:53:17.234994,233
2021-12-27 14:53:17.235004,3702
2021-12-27 14:53:17.429515,4672
2021-12-27 14:53:17.429530,1495
2021-12-27 14:53:17.429537,1074
2021-12-27 14:53:17.429543,-2535
2021-12-27 14:53:17.429550,-3097
2021-12-27 14:53:17.429556,3252
2021-12-27 14:53:17.429565,2870
2021-12-27 14:53:17.429571,76
2021-12-27 14:53:17.429578,1484
2021-12-27 14:53:17.429584,-5906
2021-12-27 14:53:17.429590,-9302
2021-12-27 14:53:17.429602,-1905
2021-12-27 14:53:17.429608,-1944
2021-12-27 14:53:17.429615,-6200
2021-12-27 14:53:17.429621,-1847
2021-12-27 14:53:17.429630,3058
2021-12-27 14:53:17.429636,-69
2021-12-27 14:53:17.429642,1009
2021-12-27 14:53:17.429649,-4831
2021-12-27 14:53:17.429655,-5318
2021-12-27 14:53:17.429667,-585
2021-12-27 14:53:17.429674,2954
2021-12-27 14:53:17.429680,4741
2021-12-27 14:53:17.673490,-944
2021-12-27 14:53:17.673521,3479
2021-12-27 14:53:17.673532,4940
2021-12-27 14:53:17.673542,-363
2021-12-27 14:53:17.673552,4079
2021-12-27 14:53:17.673567,-1759
2021-12-27 14:53:17.673576,-5156
2021-12-27 14:53:17.673586,178
2021-12-27 14:53:17.673595,4493
2021-12-27 14:53:17.673604,3204
2021-12-27 14:53:17.673614,1095
2021-12-27 14:53:17.673623,-5561
2021-12-27 14:53:17.673632,-7295
2021-12-27 14:53:17.673642,3593
2021-12-27 14:53:17.673651,4785
2021-12-27 14:53:17.673661,1194
2021-12-27 14:53:17.673670,4442
2021-12-27 14:53:17.673679,-3697
2021-12-27 14:53:17.673689,-9251
2021-12-27 14:53:17.673698,1058
2021-12-27 14:53:17.673707,4574
2021-12-27 14:53:17.673717,3019
2021-12-27 14:53:17.673726,4656
2021-12-27 14:53:17.673736,3028
2021-12-27 14:53:17.673745,-261
2021-12-27 14:53:17.673755,-750
2021-12-27 14:53:17.673764,2794
2021-12-27 14:53:17.673774,4593
2021-12-27 14:53:17.673783,4355
2021-12-27 14:53:17.819702,4424
2021-12-27 14:53:17.819722,16
2021-12-27 14:53:17.819730,-2171
2021-12-27 14:53:17.819736,1317
2021-12-27 14:53:17.819743,4044
2021-12-27 14:53:17.819752,4475
2021-12-27 14:53:17.819759,3111
2021-12-27 14:53:17.819765,-2435
2021-12-27 14:53:17.819771,-8929
2021-12-27 14:53:17.819777,1213
2021-12-27 14:53:17.819787,2875
2021-12-27 14:53:17.819793,-2111
2021-12-27 14:53:17.819799,-9904
2021-12-27 14:53:17.819805,-8911
2021-12-27 14:53:17.819811,-4519
2021-12-27 14:53:17.819817,-8170
2021-12-27 14:53:17.819823,1088
2021-12-27 14:53:17.819833,-10853
2021-12-27 14:53:17.819839,-11675
2021-12-27 14:53:17.819852,2023
2021-12-27 14:53:17.819858,2824
2021-12-27 14:53:17.819864,1548
2021-12-27 14:53:17.819870,-4660
2021-12-27 14:53:17.819876,2461
2021-12-27 14:53:18.063965,3415
2021-12-27 14:53:18.063995,3584
2021-12-27 14:53:18.064007,-2023
2021-12-27 14:53:18.064017,-13014
2021-12-27 14:53:18.064026,-3632
2021-12-27 14:53:18.064046,2243
2021-12-27 14:53:18.064055,-150
2021-12-27 14:53:18.064065,-8969
2021-12-27 14:53:18.064074,-13942
2021-12-27 14:53:18.064083,-3806
2021-12-27 14:53:18.064098,3787
2021-12-27 14:53:18.064107,1206
2021-12-27 14:53:18.064126,-2366
2021-12-27 14:53:18.064136,-1407
2021-12-27 14:53:18.064155,3952
2021-12-27 14:53:18.064165,3039
2021-12-27 14:53:18.064174,-740
2021-12-27 14:53:18.064184,62
2021-12-27 14:53:18.064193,3243
2021-12-27 14:53:18.064212,1391
2021-12-27 14:53:18.064222,683
2021-12-27 14:53:18.064231,673
2021-12-27 14:53:18.064240,1384
2021-12-27 14:53:18.307603,4625
2021-12-27 14:53:18.307624,1312
2021-12-27 14:53:18.307634,-400
2021-12-27 14:53:18.307644,-5329
2021-12-27 14:53:18.307653,-7941
2021-12-27 14:53:18.307663,226
2021-12-27 14:53:18.307678,2609
2021-12-27 14:53:18.307687,-1391
2021-12-27 14:53:18.307696,618
2021-12-27 14:53:18.307706,-6126
2021-12-27 14:53:18.307715,-10358
2021-12-27 14:53:18.307724,-3067
2021-12-27 14:53:18.307734,349
2021-12-27 14:53:18.307743,1518
2021-12-27 14:53:18.307753,3257
2021-12-27 14:53:18.307762,539
2021-12-27 14:53:18.307771,757
2021-12-27 14:53:18.307781,4151
2021-12-27 14:53:18.307790,2889
2021-12-27 14:53:18.307799,-6700
2021-12-27 14:53:18.307809,-13808
2021-12-27 14:53:18.307818,-4364
2021-12-27 14:53:18.307828,3875
2021-12-27 14:53:18.307837,2690
2021-12-27 14:53:18.307846,2611
2021-12-27 14:53:18.307856,1766
2021-12-27 14:53:18.307865,4104
2021-12-27 14:53:18.307874,4415
2021-12-27 14:53:18.598421,-233
2021-12-27 14:53:18.598450,2187
2021-12-27 14:53:18.598462,3278
2021-12-27 14:53:18.598472,761
2021-12-27 14:53:18.598481,3891
2021-12-27 14:53:18.598491,3364
2021-12-27 14:53:18.598500,-5679
2021-12-27 14:53:18.598510,-8432
2021-12-27 14:53:18.598519,1620
2021-12-27 14:53:18.598534,1518
2021-12-27 14:53:18.598544,4442
2021-12-27 14:53:18.598553,-553
2021-12-27 14:53:18.598563,-10302
2021-12-27 14:53:18.598572,-7392
2021-12-27 14:53:18.598582,-5431
2021-12-27 14:53:18.598591,-578
2021-12-27 14:53:18.598606,2813
2021-12-27 14:53:18.598615,-1798
2021-12-27 14:53:18.598625,106
2021-12-27 14:53:18.598635,2345
2021-12-27 14:53:18.598644,4994
2021-12-27 14:53:18.598653,4774
2021-12-27 14:53:18.598663,4148
2021-12-27 14:53:18.598672,1646
2021-12-27 14:53:18.598681,-2153
2021-12-27 14:53:18.598691,977
2021-12-27 14:53:18.598700,3938
2021-12-27 14:53:18.598710,4364
2021-12-27 14:53:18.746453,1231
2021-12-27 14:53:18.746468,-2486
2021-12-27 14:53:18.746475,-784
2021-12-27 14:53:18.746481,4470
2021-12-27 14:53:18.746490,3371
2021-12-27 14:53:18.746496,-349
2021-12-27 14:53:18.746502,-9404
2021-12-27 14:53:18.746508,-9443
2021-12-27 14:53:18.746521,1541
2021-12-27 14:53:18.746527,3007
2021-12-27 14:53:18.746533,-6232
2021-12-27 14:53:18.746539,-11875
2021-12-27 14:53:18.746545,-2329
2021-12-27 14:53:18.746551,-891
2021-12-27 14:53:18.746557,-898
2021-12-27 14:53:18.746563,4586
2021-12-27 14:53:18.746569,865
2021-12-27 14:53:18.746575,-5123
2021-12-27 14:53:18.746581,1558
2021-12-27 14:53:18.746590,3910
2021-12-27 14:53:18.746596,2648
2021-12-27 14:53:18.746602,-421
2021-12-27 14:53:18.746608,-13836
2021-12-27 14:53:18.746614,-8529
2021-12-27 14:53:18.989776,1847
2021-12-27 14:53:18.989797,90
2021-12-27 14:53:18.989808,-8934
2021-12-27 14:53:18.989818,-10124
2021-12-27 14:53:18.989827,3864
2021-12-27 14:53:18.989842,1995
2021-12-27 14:53:18.989851,523
2021-12-27 14:53:18.989861,-2928
2021-12-27 14:53:18.989870,-9550
2021-12-27 14:53:18.989879,226
2021-12-27 14:53:18.989894,3445
2021-12-27 14:53:18.989903,1238
2021-12-27 14:53:18.989913,-37
2021-12-27 14:53:18.989922,-884
2021-12-27 14:53:18.989932,1905
2021-12-27 14:53:18.989941,-74
2021-12-27 14:53:18.989951,-4528
2021-12-27 14:53:18.989960,-2708
2021-12-27 14:53:18.989970,2558
2021-12-27 14:53:18.989979,1905
2021-12-27 14:53:18.989989,-518
2021-12-27 14:53:18.989998,4894
2021-12-27 14:53:18.990013,826
2021-12-27 14:53:18.990022,1271
2021-12-27 14:53:18.990032,2046
2021-12-27 14:53:18.990041,919
2021-12-27 14:53:19.233893,3148
2021-12-27 14:53:19.233922,4739
2021-12-27 14:53:19.233934,2623
2021-12-27 14:53:19.233944,-213
2021-12-27 14:53:19.233953,-395
2021-12-27 14:53:19.233963,-5503
2021-12-27 14:53:19.233972,-6843
2021-12-27 14:53:19.233992,-2123
2021-12-27 14:53:19.234002,2780
2021-12-27 14:53:19.234011,-1963
2021-12-27 14:53:19.234021,-8619
2021-12-27 14:53:19.234030,2468
2021-12-27 14:53:19.234044,-277
2021-12-27 14:53:19.234054,2315
2021-12-27 14:53:19.234063,3993
2021-12-27 14:53:19.234073,-180
2021-12-27 14:53:19.234082,282
2021-12-27 14:53:19.234092,-527
2021-12-27 14:53:19.234101,-8531
2021-12-27 14:53:19.234110,-2757
2021-12-27 14:53:19.234125,664
2021-12-27 14:53:19.234134,-1507
2021-12-27 14:53:19.234144,4653
2021-12-27 14:53:19.234153,1954
2021-12-27 14:53:19.234162,2701
2021-12-27 14:53:19.477147,1118
2021-12-27 14:53:19.477186,-224
2021-12-27 14:53:19.477197,-1912
2021-12-27 14:53:19.477207,-11384
2021-12-27 14:53:19.477217,-11837
2021-12-27 14:53:19.477226,4063
2021-12-27 14:53:19.477236,3699
2021-12-27 14:53:19.477245,-11791
2021-12-27 14:53:19.477254,-5348
2021-12-27 14:53:19.477269,3391
2021-12-27 14:53:19.477279,3516
2021-12-27 14:53:19.477288,2660
2021-12-27 14:53:19.477297,-7205
2021-12-27 14:53:19.477307,-7934
2021-12-27 14:53:19.477316,2130
2021-12-27 14:53:19.477331,3919
2021-12-27 14:53:19.477340,2963
2021-12-27 14:53:19.477350,2488
2021-12-27 14:53:19.477359,-2755
2021-12-27 14:53:19.477368,-365
2021-12-27 14:53:19.477378,2171
2021-12-27 14:53:19.477387,-4880
2021-12-27 14:53:19.477396,-1125
2021-12-27 14:53:19.477406,4639
2021-12-27 14:53:19.477416,-2076
2021-12-27 14:53:19.477425,-2220
2021-12-27 14:53:19.672138,3734
2021-12-27 14:53:19.672167,2257
2021-12-27 14:53:19.672179,-814
2021-12-27 14:53:19.672189,-3678
2021-12-27 14:53:19.672199,3778
2021-12-27 14:53:19.672214,2912
2021-12-27 14:53:19.672223,2486
2021-12-27 14:53:19.672233,-5730
2021-12-27 14:53:19.672242,-12590
2021-12-27 14:53:19.672251,1805
2021-12-27 14:53:19.672266,3188
2021-12-27 14:53:19.672275,2852
2021-12-27 14:53:19.672285,-2926
2021-12-27 14:53:19.672294,-11868
2021-12-27 14:53:19.672303,-3852
2021-12-27 14:53:19.672323,953
2021-12-27 14:53:19.672332,2414
2021-12-27 14:53:19.672342,-2312
2021-12-27 14:53:19.672351,-1736
2021-12-27 14:53:19.672365,1146
2021-12-27 14:53:19.672375,-7117
2021-12-27 14:53:19.672384,-3222
2021-12-27 14:53:19.672394,-106
2021-12-27 14:53:19.672404,30
2021-12-27 14:53:19.672413,3002
2021-12-27 14:53:19.916045,4727
2021-12-27 14:53:19.916060,370
2021-12-27 14:53:19.916067,-4257
2021-12-27 14:53:19.916074,-8767
2021-12-27 14:53:19.916080,-2546
2021-12-27 14:53:19.916090,4563
2021-12-27 14:53:19.916096,-926
2021-12-27 14:53:19.916102,-10823
2021-12-27 14:53:19.916108,-18966
2021-12-27 14:53:19.916114,-8682
2021-12-27 14:53:19.916127,-201
2021-12-27 14:53:19.916133,1250
2021-12-27 14:53:19.916140,2329
2021-12-27 14:53:19.916146,129
2021-12-27 14:53:19.916152,1067
2021-12-27 14:53:19.916158,261
2021-12-27 14:53:19.916172,-5137
2021-12-27 14:53:19.916178,-627
2021-12-27 14:53:19.916185,3477
2021-12-27 14:53:19.916191,-1305
2021-12-27 14:53:19.916197,-1305
2021-12-27 14:53:19.916203,-2461
2021-12-27 14:53:19.916210,-9406
2021-12-27 14:53:19.916216,-15169
2021-12-27 14:53:19.916222,-12495
2021-12-27 14:53:19.916228,-1977
2021-12-27 14:53:20.159928,821
2021-12-27 14:53:20.159958,307
2021-12-27 14:53:20.159970,1382
2021-12-27 14:53:20.159980,-1398
2021-12-27 14:53:20.159989,1118
2021-12-27 14:53:20.159999,-2549
2021-12-27 14:53:20.160008,-10872
2021-12-27 14:53:20.160017,-333
2021-12-27 14:53:20.160032,-650
2021-12-27 14:53:20.160042,2280
2021-12-27 14:53:20.160051,1099
2021-12-27 14:53:20.160060,-8080
2021-12-27 14:53:20.160069,-4461
2021-12-27 14:53:20.160079,4639
2021-12-27 14:53:20.160088,2942
2021-12-27 14:53:20.160097,1220
2021-12-27 14:53:20.160112,2171
2021-12-27 14:53:20.160121,-1407
2021-12-27 14:53:20.160130,3475
2021-12-27 14:53:20.160140,2975
2021-12-27 14:53:20.160149,2852
2021-12-27 14:53:20.160163,2183
2021-12-27 14:53:20.160173,-53
2021-12-27 14:53:20.160182,2185
2021-12-27 14:53:20.160191,2354
2021-12-27 14:53:20.160201,1155
2021-12-27 14:53:20.160210,-3729
2021-12-27 14:53:20.354885,-2780
2021-12-27 14:53:20.354906,2150
2021-12-27 14:53:20.354914,171
2021-12-27 14:53:20.354921,865
2021-12-27 14:53:20.354927,4801
2021-12-27 14:53:20.354937,3269
2021-12-27 14:53:20.354944,-6260
2021-12-27 14:53:20.354950,-8848
2021-12-27 14:53:20.354956,1254
2021-12-27 14:53:20.354969,3220
2021-12-27 14:53:20.354976,-1780
2021-12-27 14:53:20.354982,-14428
2021-12-27 14:53:20.354989,-18091
2021-12-27 14:53:20.354995,-2197
2021-12-27 14:53:20.355005,4938
2021-12-27 14:53:20.355011,1984
2021-12-27 14:53:20.355017,-1535
2021-12-27 14:53:20.355024,-537
2021-12-27 14:53:20.355040,3614
2021-12-27 14:53:20.355046,-393
2021-12-27 14:53:20.355052,-1826
2021-12-27 14:53:20.355059,3905
2021-12-27 14:53:20.694679,1046
2021-12-27 14:53:20.694699,-5934
2021-12-27 14:53:20.694707,-9175
2021-12-27 14:53:20.694713,-10497
2021-12-27 14:53:20.694719,840
2021-12-27 14:53:20.694729,4329
2021-12-27 14:53:20.694735,4172
2021-12-27 14:53:20.694741,-761
2021-12-27 14:53:20.694748,-10772
2021-12-27 14:53:20.694754,-4304
2021-12-27 14:53:20.694766,2343
2021-12-27 14:53:20.694772,2021
2021-12-27 14:53:20.694779,-636
2021-12-27 14:53:20.694785,-1352
2021-12-27 14:53:20.694798,2382
2021-12-27 14:53:20.694804,3484
2021-12-27 14:53:20.694810,-340
2021-12-27 14:53:20.694816,-683
2021-12-27 14:53:20.694829,4686
2021-12-27 14:53:20.694835,2493
2021-12-27 14:53:20.694841,-326
2021-12-27 14:53:20.694847,632
2021-12-27 14:53:20.694853,2519
2021-12-27 14:53:20.842326,-2602
2021-12-27 14:53:20.842348,-10157
2021-12-27 14:53:20.842358,-12798
2021-12-27 14:53:20.842368,-5318
2021-12-27 14:53:20.842388,1653
2021-12-27 14:53:20.842397,754
2021-12-27 14:53:20.842407,143
2021-12-27 14:53:20.842416,-1308
2021-12-27 14:53:20.842425,1217
2021-12-27 14:53:20.842440,3202
2021-12-27 14:53:20.842449,-511
2021-12-27 14:53:20.842459,3107
2021-12-27 14:53:20.842468,-368
2021-12-27 14:53:20.842478,-1009
2021-12-27 14:53:20.842492,-2773
2021-12-27 14:53:20.842502,-15968
2021-12-27 14:53:20.842511,-7635
2021-12-27 14:53:20.842526,2266
2021-12-27 14:53:20.842535,476
2021-12-27 14:53:20.842544,4984
2021-12-27 14:53:20.842554,2458
2021-12-27 14:53:20.842563,2021
2021-12-27 14:53:20.842573,4470
2021-12-27 14:53:21.086495,60
2021-12-27 14:53:21.086525,1641
2021-12-27 14:53:21.086536,4625
2021-12-27 14:53:21.086546,377
2021-12-27 14:53:21.086555,527
2021-12-27 14:53:21.086565,-6070
2021-12-27 14:53:21.086574,-15540
2021-12-27 14:53:21.086584,-5112
2021-12-27 14:53:21.086599,2252
2021-12-27 14:53:21.086608,1954
2021-12-27 14:53:21.086617,4618
2021-12-27 14:53:21.086626,-2741
2021-12-27 14:53:21.086636,-8823
2021-12-27 14:53:21.086645,1118
2021-12-27 14:53:21.086659,1780
2021-12-27 14:53:21.086674,3901
2021-12-27 14:53:21.086683,-1509
2021-12-27 14:53:21.086693,967
2021-12-27 14:53:21.086702,2794
2021-12-27 14:53:21.086711,4264
2021-12-27 14:53:21.086726,3044
2021-12-27 14:53:21.086735,905
2021-12-27 14:53:21.086744,-916
2021-12-27 14:53:21.086753,1419
2021-12-27 14:53:21.086763,3303
2021-12-27 14:53:21.086772,-2375
2021-12-27 14:53:21.329275,-2338
2021-12-27 14:53:21.329295,657
2021-12-27 14:53:21.329303,-2866
2021-12-27 14:53:21.329309,-1896
2021-12-27 14:53:21.329315,615
2021-12-27 14:53:21.329322,-2655
2021-12-27 14:53:21.329328,-6188
2021-12-27 14:53:21.329334,-15614
2021-12-27 14:53:21.329340,-18966
2021-12-27 14:53:21.329346,-9821
2021-12-27 14:53:21.329356,3773
2021-12-27 14:53:21.329362,-949
2021-12-27 14:53:21.329368,1356
2021-12-27 14:53:21.329374,-9105
2021-12-27 14:53:21.329381,-12157
2021-12-27 14:53:21.329387,4977
2021-12-27 14:53:21.329396,1208
2021-12-27 14:53:21.329402,3049
2021-12-27 14:53:21.329409,-1173
2021-12-27 14:53:21.329415,-4880
2021-12-27 14:53:21.329421,2380
2021-12-27 14:53:21.329431,4338
2021-12-27 14:53:21.329437,-1886
2021-12-27 14:53:21.329443,-13930
2021-12-27 14:53:21.329449,-17244
2021-12-27 14:53:21.329455,2667
2021-12-27 14:53:21.573650,1585
2021-12-27 14:53:21.573680,3220
2021-12-27 14:53:21.573690,2227
2021-12-27 14:53:21.573700,-11870
2021-12-27 14:53:21.573710,-7471
2021-12-27 14:53:21.573730,2683
2021-12-27 14:53:21.573739,-37
2021-12-27 14:53:21.573749,-5350
2021-12-27 14:53:21.573758,-3713
2021-12-27 14:53:21.573778,2706
2021-12-27 14:53:21.573787,2648
2021-12-27 14:53:21.573796,-2132
2021-12-27 14:53:21.573806,-8934
2021-12-27 14:53:21.573815,206
2021-12-27 14:53:21.573835,2250
2021-12-27 14:53:21.573844,902
2021-12-27 14:53:21.573853,930
2021-12-27 14:53:21.573863,2058
2021-12-27 14:53:21.573872,4818
2021-12-27 14:53:21.573881,3273
2021-12-27 14:53:21.573891,-5508
2021-12-27 14:53:21.573900,-3852
2021-12-27 14:53:21.573910,1905
2021-12-27 14:53:21.573919,-259
2021-12-27 14:53:21.816744,2389
2021-12-27 14:53:21.816764,1104
2021-12-27 14:53:21.816771,-6906
2021-12-27 14:53:21.816778,-5519
2021-12-27 14:53:21.816784,-8740
2021-12-27 14:53:21.816790,-17927
2021-12-27 14:53:21.816796,-8573
2021-12-27 14:53:21.816806,94
2021-12-27 14:53:21.816812,-5896
2021-12-27 14:53:21.816818,-282
2021-12-27 14:53:21.816824,-3549
2021-12-27 14:53:21.816830,-7767
2021-12-27 14:53:21.816836,2600
2021-12-27 14:53:21.816843,2787
2021-12-27 14:53:21.816849,-3289
2021-12-27 14:53:21.816855,1308
2021-12-27 14:53:21.816861,-3470
2021-12-27 14:53:21.816867,-10400
2021-12-27 14:53:21.816873,-754
2021-12-27 14:53:21.816879,4449
2021-12-27 14:53:21.816885,-812
2021-12-27 14:53:21.816891,486
2021-12-27 14:53:21.816898,3551
2021-12-27 14:53:21.816904,-1187
2021-12-27 14:53:21.816910,-1333
2021-12-27 14:53:21.816916,3637
2021-12-27 14:53:21.816922,794
2021-12-27 14:53:21.816928,1453
2021-12-27 14:53:22.060390,1317
2021-12-27 14:53:22.060409,-9358
2021-12-27 14:53:22.060417,-13991
2021-12-27 14:53:22.060423,-2120
2021-12-27 14:53:22.060433,1870
2021-12-27 14:53:22.060439,-6040
2021-12-27 14:53:22.060445,-8226
2021-12-27 14:53:22.060451,-2308
2021-12-27 14:53:22.060458,4260
2021-12-27 14:53:22.060464,2887
2021-12-27 14:53:22.060470,3484
2021-12-27 14:53:22.060476,3716
2021-12-27 14:53:22.060482,-4600
2021-12-27 14:53:22.060488,-6339
2021-12-27 14:53:22.060494,1377
2021-12-27 14:53:22.060504,4609
2021-12-27 14:53:22.060510,1115
2021-12-27 14:53:22.060516,-5765
2021-12-27 14:53:22.060522,-8244
2021-12-27 14:53:22.060529,231
2021-12-27 14:53:22.060538,3632
2021-12-27 14:53:22.060544,2674
2021-12-27 14:53:22.060550,2896
2021-12-27 14:53:22.060556,-3357
2021-12-27 14:53:22.060562,-469
2021-12-27 14:53:22.207407,3917
2021-12-27 14:53:22.207429,-564
2021-12-27 14:53:22.207436,-259
2021-12-27 14:53:22.207452,2701
2021-12-27 14:53:22.207458,-4864
2021-12-27 14:53:22.207464,-9793
2021-12-27 14:53:22.207470,4834
2021-12-27 14:53:22.207480,3246
2021-12-27 14:53:22.207489,3100
2021-12-27 14:53:22.207495,-6336
2021-12-27 14:53:22.207501,-3412
2021-12-27 14:53:22.207514,3276
2021-12-27 14:53:22.207520,-2127
2021-12-27 14:53:22.207526,-8744
2021-12-27 14:53:22.207532,-4079
2021-12-27 14:53:22.207545,2236
2021-12-27 14:53:22.207551,3690
2021-12-27 14:53:22.207557,-1141
2021-12-27 14:53:22.207563,-500
2021-12-27 14:53:22.451159,4579
2021-12-27 14:53:22.451181,2405
2021-12-27 14:53:22.451191,-6202
2021-12-27 14:53:22.451201,-8615
2021-12-27 14:53:22.451211,1759
2021-12-27 14:53:22.451225,-8226
2021-12-27 14:53:22.451235,-12905
2021-12-27 14:53:22.451244,-752
2021-12-27 14:53:22.451254,-3607
2021-12-27 14:53:22.451263,-5058
2021-12-27 14:53:22.451282,796
2021-12-27 14:53:22.451292,1199
2021-12-27 14:53:22.451301,3831
2021-12-27 14:53:22.451311,-340
2021-12-27 14:53:22.451320,-3864
2021-12-27 14:53:22.451340,-655
2021-12-27 14:53:22.451349,2007
2021-12-27 14:53:22.451359,2544
2021-12-27 14:53:22.451368,3158
2021-12-27 14:53:22.451383,2894
2021-12-27 14:53:22.451392,1530
2021-12-27 14:53:22.451401,3375
2021-12-27 14:53:22.451411,1963
2021-12-27 14:53:22.742210,2759
2021-12-27 14:53:22.742241,4899
2021-12-27 14:53:22.742252,3459
2021-12-27 14:53:22.742261,664
2021-12-27 14:53:22.742271,1625
2021-12-27 14:53:22.742280,-2563
2021-12-27 14:53:22.742289,-8140
2021-12-27 14:53:22.742299,2683
2021-12-27 14:53:22.742314,-1616
2021-12-27 14:53:22.742323,3188
2021-12-27 14:53:22.742333,1535
2021-12-27 14:53:22.742342,-8668
2021-12-27 14:53:22.742351,-395
2021-12-27 14:53:22.742366,1511
2021-12-27 14:53:22.742375,2743
2021-12-27 14:53:22.742385,4940
2021-12-27 14:53:22.742394,-439
2021-12-27 14:53:22.742403,-7265
2021-12-27 14:53:22.742413,-4940
2021-12-27 14:53:22.742422,2711
2021-12-27 14:53:22.742437,4855
2021-12-27 14:53:22.742446,1759
2021-12-27 14:53:22.742456,393
2021-12-27 14:53:22.742465,3375
2021-12-27 14:53:22.742474,2340
2021-12-27 14:53:22.742484,3885
2021-12-27 14:53:22.938580,1919
2021-12-27 14:53:22.938610,74
2021-12-27 14:53:22.938621,652
2021-12-27 14:53:22.938631,1766
2021-12-27 14:53:22.938640,4417
2021-12-27 14:53:22.938650,4866
2021-12-27 14:53:22.938659,1639
2021-12-27 14:53:22.938668,-7195
2021-12-27 14:53:22.938678,-7969
2021-12-27 14:53:22.938687,3197
2021-12-27 14:53:22.938702,3368
2021-12-27 14:53:22.938712,-4081
2021-12-27 14:53:22.938721,-18966
2021-12-27 14:53:22.938731,-18966
2021-12-27 14:53:22.938740,1900
2021-12-27 14:53:22.938755,2808
2021-12-27 14:53:22.938764,3329
2021-12-27 14:53:22.938773,4155
2021-12-27 14:53:22.938783,-4528
2021-12-27 14:53:22.938792,-10261
2021-12-27 14:53:22.938802,-2836
2021-12-27 14:53:22.938821,2329
2021-12-27 14:53:22.938831,-3403
2021-12-27 14:53:22.938840,-2039
2021-12-27 14:53:22.938850,4403
2021-12-27 14:53:23.133964,4718
2021-12-27 14:53:23.133994,3021
2021-12-27 14:53:23.134005,-115
2021-12-27 14:53:23.134015,-3357
2021-12-27 14:53:23.134024,3097
2021-12-27 14:53:23.134039,3829
2021-12-27 14:53:23.134048,3514
2021-12-27 14:53:23.134058,-2032
2021-12-27 14:53:23.134067,-12592
2021-12-27 14:53:23.134076,-1842
2021-12-27 14:53:23.134091,4850
2021-12-27 14:53:23.134100,2940
2021-12-27 14:53:23.134110,-365
2021-12-27 14:53:23.134119,-9629
2021-12-27 14:53:23.134128,-6610
2021-12-27 14:53:23.134148,1472
2021-12-27 14:53:23.134157,1970
2021-12-27 14:53:23.134167,-347
2021-12-27 14:53:23.134176,-3336
2021-12-27 14:53:23.134185,-1662
2021-12-27 14:53:23.134195,-2921
2021-12-27 14:53:23.134204,2021
2021-12-27 14:53:23.134219,-2315
2021-12-27 14:53:23.134228,-1488
2021-12-27 14:53:23.134237,4882
2021-12-27 14:53:23.376854,4410
2021-12-27 14:53:23.376869,1447
2021-12-27 14:53:23.376875,-2505
2021-12-27 14:53:23.376880,-6936
2021-12-27 14:53:23.376885,-5315
2021-12-27 14:53:23.376895,125
2021-12-27 14:53:23.376900,349
2021-12-27 14:53:23.376905,-4248
2021-12-27 14:53:23.376910,-7246
2021-12-27 14:53:23.376915,2079
2021-12-27 14:53:23.376922,1917
2021-12-27 14:53:23.376927,-592
2021-12-27 14:53:23.376935,970
2021-12-27 14:53:23.376940,-12463
2021-12-27 14:53:23.376945,-5795
2021-12-27 14:53:23.376952,2493
2021-12-27 14:53:23.376957,703
2021-12-27 14:53:23.376962,1511
2021-12-27 14:53:23.376967,810
2021-12-27 14:53:23.376972,-2620
2021-12-27 14:53:23.376977,-6482
2021-12-27 14:53:23.376982,6
2021-12-27 14:53:23.376989,2213
2021-12-27 14:53:23.621194,23
2021-12-27 14:53:23.621224,3634
2021-12-27 14:53:23.621236,4375
2021-12-27 14:53:23.621245,-69
2021-12-27 14:53:23.621255,3012
2021-12-27 14:53:23.621265,1743
2021-12-27 14:53:23.621274,-9550
2021-12-27 14:53:23.621283,-3461
2021-12-27 14:53:23.621299,1282
2021-12-27 14:53:23.621308,2194
2021-12-27 14:53:23.621318,3329
2021-12-27 14:53:23.621327,-6049
2021-12-27 14:53:23.621336,-7052
2021-12-27 14:53:23.621346,2808
2021-12-27 14:53:23.621355,4825
2021-12-27 14:53:23.621364,1541
2021-12-27 14:53:23.621373,4195
2021-12-27 14:53:23.621383,2373
2021-12-27 14:53:23.621392,-2845
2021-12-27 14:53:23.621402,1328
2021-12-27 14:53:23.621411,3361
2021-12-27 14:53:23.621420,2463
2021-12-27 14:53:23.621435,2789
2021-12-27 14:53:23.621444,-946
2021-12-27 14:53:23.621453,-842
2021-12-27 14:53:23.621463,-5843
2021-12-27 14:53:23.621472,-5989
2021-12-27 14:53:23.621482,2706
2021-12-27 14:53:23.816234,-555
2021-12-27 14:53:23.816249,-3276
2021-12-27 14:53:23.816255,1928
2021-12-27 14:53:23.816266,4218
2021-12-27 14:53:23.816272,4463
2021-12-27 14:53:23.816278,-3975
2021-12-27 14:53:23.816284,-11506
2021-12-27 14:53:23.816290,-1852
2021-12-27 14:53:23.816302,3086
2021-12-27 14:53:23.816308,-634
2021-12-27 14:53:23.816315,-10180
2021-12-27 14:53:23.816321,-8844
2021-12-27 14:53:23.816333,2079
2021-12-27 14:53:23.816340,4878
2021-12-27 14:53:23.816346,-808
2021-12-27 14:53:23.816352,-4399
2021-12-27 14:53:23.816358,2706
2021-12-27 14:53:23.816364,-4720
2021-12-27 14:53:23.816370,-12782
2021-12-27 14:53:23.816376,449
2021-12-27 14:53:23.816382,4952
2021-12-27 14:53:23.816388,-4699
2021-12-27 14:53:23.816394,-581
2021-12-27 14:53:23.816401,3320
2021-12-27 14:53:24.059929,-4871
2021-12-27 14:53:24.059949,-97
2021-12-27 14:53:24.059957,1896
2021-12-27 14:53:24.059964,-13004
2021-12-27 14:53:24.059970,-6084
2021-12-27 14:53:24.059983,2007
2021-12-27 14:53:24.059989,1208
2021-12-27 14:53:24.059996,-8751
2021-12-27 14:53:24.060002,-7758
2021-12-27 14:53:24.060015,2447
2021-12-27 14:53:24.060021,-18
2021-12-27 14:53:24.060027,-1430
2021-12-27 14:53:24.060034,-3202
2021-12-27 14:53:24.060040,2606
2021-12-27 14:53:24.060049,2132
2021-12-27 14:53:24.060056,1481
2021-12-27 14:53:24.060062,-419
2021-12-27 14:53:24.060068,-379
2021-12-27 14:53:24.060074,4345
2021-12-27 14:53:24.060081,4727
2021-12-27 14:53:24.060087,4359
2021-12-27 14:53:24.060093,2437
2021-12-27 14:53:24.060099,-534
2021-12-27 14:53:24.060105,974
2021-12-27 14:53:24.060111,1947
2021-12-27 14:53:24.303607,4137
2021-12-27 14:53:24.303637,136
2021-12-27 14:53:24.303648,-8800
2021-12-27 14:53:24.303658,-2963
2021-12-27 14:53:24.303667,-1451
2021-12-27 14:53:24.303676,-9710
2021-12-27 14:53:24.303686,-1599
2021-12-27 14:53:24.303701,2097
2021-12-27 14:53:24.303710,-1467
2021-12-27 14:53:24.303719,-532
2021-12-27 14:53:24.303729,-5292
2021-12-27 14:53:24.303738,-5521
2021-12-27 14:53:24.303758,-2248
2021-12-27 14:53:24.303767,3445
2021-12-27 14:53:24.303776,2773
2021-12-27 14:53:24.303786,-1370
2021-12-27 14:53:24.303795,4480
2021-12-27 14:53:24.303804,3797
2021-12-27 14:53:24.303814,578
2021-12-27 14:53:24.303823,3560
2021-12-27 14:53:24.303832,2711
2021-12-27 14:53:24.303842,254
2021-12-27 14:53:24.303851,2164
2021-12-27 14:53:24.303860,3806
2021-12-27 14:53:24.303870,1493
2021-12-27 14:53:24.303879,-134
2021-12-27 14:53:24.303889,-8015
2021-12-27 14:53:24.547356,-16148
2021-12-27 14:53:24.547377,-1139
2021-12-27 14:53:24.547388,-8156
2021-12-27 14:53:24.547395,-8573
2021-12-27 14:53:24.547401,3299
2021-12-27 14:53:24.547407,-4232
2021-12-27 14:53:24.547413,-10038
2021-12-27 14:53:24.547420,1039
2021-12-27 14:53:24.547429,2502
2021-12-27 14:53:24.547435,3192
2021-12-27 14:53:24.547441,-41
2021-12-27 14:53:24.547448,-8436
2021-12-27 14:53:24.547454,-2843
2021-12-27 14:53:24.547463,3838
2021-12-27 14:53:24.547469,4524
2021-12-27 14:53:24.547479,-370
2021-12-27 14:53:24.547485,-268
2021-12-27 14:53:24.547491,2706
2021-12-27 14:53:24.547504,3614
2021-12-27 14:53:24.547510,1903
2021-12-27 14:53:24.547523,-1958
2021-12-27 14:53:24.547530,97
2021-12-27 14:53:24.547536,4586
2021-12-27 14:53:24.547542,2875
2021-12-27 14:53:24.789855,3970
2021-12-27 14:53:24.789884,1817
2021-12-27 14:53:24.789896,-3709
2021-12-27 14:53:24.789905,-983
2021-12-27 14:53:24.789915,3470
2021-12-27 14:53:24.789924,472
2021-12-27 14:53:24.789933,-5880
2021-12-27 14:53:24.789943,-4290
2021-12-27 14:53:24.789952,-6786
2021-12-27 14:53:24.789961,-10849
2021-12-27 14:53:24.789971,4341
2021-12-27 14:53:24.789985,1169
2021-12-27 14:53:24.789995,3357
2021-12-27 14:53:24.790004,-3301
2021-12-27 14:53:24.790014,-10018
2021-12-27 14:53:24.790023,3993
2021-12-27 14:53:24.790038,3820
2021-12-27 14:53:24.790047,2593
2021-12-27 14:53:24.790057,-1914
2021-12-27 14:53:24.790066,-5769
2021-12-27 14:53:24.790075,-1071
2021-12-27 14:53:24.790090,4060
2021-12-27 14:53:24.790099,143
2021-12-27 14:53:24.790108,2234
2021-12-27 14:53:24.790118,-3630
2021-12-27 14:53:24.790127,-1178
2021-12-27 14:53:24.986279,3750
2021-12-27 14:53:24.986309,3672
2021-12-27 14:53:24.986320,863
2021-12-27 14:53:24.986330,-11648
2021-12-27 14:53:24.986340,-17716
2021-12-27 14:53:24.986350,-12180
2021-12-27 14:53:24.986375,2690
2021-12-27 14:53:24.986385,1504
2021-12-27 14:53:24.986395,-10705
2021-12-27 14:53:24.986404,-7758
2021-12-27 14:53:24.986414,-6496
2021-12-27 14:53:24.986423,-1171
2021-12-27 14:53:24.986438,3843
2021-12-27 14:53:24.986448,3493
2021-12-27 14:53:24.986534,2229
2021-12-27 14:53:24.986547,571
2021-12-27 14:53:24.986572,3945
2021-12-27 14:53:24.986581,-1507
2021-12-27 14:53:24.986591,2764
2021-12-27 14:53:24.986600,-182
2021-12-27 14:53:24.986610,2940
2021-12-27 14:53:24.986624,-384
2021-12-27 14:53:24.986634,1523
2021-12-27 14:53:24.986644,2368
2021-12-27 14:53:24.986654,-1164
2021-12-27 14:53:25.229303,4503
2021-12-27 14:53:25.229323,3183
2021-12-27 14:53:25.229330,634
2021-12-27 14:53:25.229336,395
2021-12-27 14:53:25.229342,-2282
2021-12-27 14:53:25.229349,-5709
2021-12-27 14:53:25.229355,-10038
2021-12-27 14:53:25.229361,-3850
2021-12-27 14:53:25.229367,-1141
2021-12-27 14:53:25.229373,-9615
2021-12-27 14:53:25.229379,-7663
2021-12-27 14:53:25.229385,-5984
2021-12-27 14:53:25.229391,-10256
2021-12-27 14:53:25.229397,-6160
2021-12-27 14:53:25.229403,-3993
2021-12-27 14:53:25.229410,-5477
2021-12-27 14:53:25.229416,-5244
2021-12-27 14:53:25.229422,-3882
2021-12-27 14:53:25.229428,-583
2021-12-27 14:53:25.229434,-344
2021-12-27 14:53:25.229440,294
2021-12-27 14:53:25.229446,1310
2021-12-27 14:53:25.229452,1136
2021-12-27 14:53:25.229459,3672
2021-12-27 14:53:25.229465,407
2021-12-27 14:53:25.229471,-1511
2021-12-27 14:53:25.229477,3405
2021-12-27 14:53:25.229483,1125
2021-12-27 14:53:25.229489,2081
2021-12-27 14:53:25.473319,270
2021-12-27 14:53:25.473338,-363
2021-12-27 14:53:25.473346,1574
2021-12-27 14:53:25.473353,993
2021-12-27 14:53:25.473359,4012
2021-12-27 14:53:25.473365,4410
2021-12-27 14:53:25.473371,-1074
2021-12-27 14:53:25.473378,-8858
2021-12-27 14:53:25.473384,-5598
2021-12-27 14:53:25.473390,4498
2021-12-27 14:53:25.473396,-4820
2021-12-27 14:53:25.473402,-18966
2021-12-27 14:53:25.473408,-15158
2021-12-27 14:53:25.473414,-6964
2021-12-27 14:53:25.473421,-5167
2021-12-27 14:53:25.473427,-595
2021-12-27 14:53:25.473440,2449
2021-12-27 14:53:25.473446,1995
2021-12-27 14:53:25.473452,-1129
2021-12-27 14:53:25.473459,-1203
2021-12-27 14:53:25.473471,-321
2021-12-27 14:53:25.473478,4220
2021-12-27 14:53:25.473487,-7371
2021-12-27 14:53:25.473493,-3646
2021-12-27 14:53:25.668079,-2185
2021-12-27 14:53:25.668093,-419
2021-12-27 14:53:25.668100,-4966
2021-12-27 14:53:25.668106,-6144
2021-12-27 14:53:25.668112,2354
2021-12-27 14:53:25.668118,-1132
2021-12-27 14:53:25.668124,-5635
2021-12-27 14:53:25.668130,-7473
2021-12-27 14:53:25.668137,-10502
2021-12-27 14:53:25.668148,835
2021-12-27 14:53:25.668165,1944
2021-12-27 14:53:25.668173,-1384
2021-12-27 14:53:25.668179,-15489
2021-12-27 14:53:25.668185,-18195
2021-12-27 14:53:25.668191,-1389
2021-12-27 14:53:25.668204,2079
2021-12-27 14:53:25.668210,2998
2021-12-27 14:53:25.668280,-1076
2021-12-27 14:53:25.668297,-2000
2021-12-27 14:53:25.668324,2648
2021-12-27 14:53:25.668336,-178
2021-12-27 14:53:25.668343,692
2021-12-27 14:53:25.912434,2600
2021-12-27 14:53:25.912455,-2250
2021-12-27 14:53:25.912465,-6302
2021-12-27 14:53:25.912475,-3507
2021-12-27 14:53:25.912494,599
2021-12-27 14:53:25.912504,2882
2021-12-27 14:53:25.912513,-6850
2021-12-27 14:53:25.912522,-4591
2021-12-27 14:53:25.912542,4822
2021-12-27 14:53:25.912551,-5021
2021-12-27 14:53:25.912561,-14986
2021-12-27 14:53:25.912570,-12889
2021-12-27 14:53:25.912579,2850
2021-12-27 14:53:25.912594,-2275
2021-12-27 14:53:25.912603,-2051
2021-12-27 14:53:25.912618,-768
2021-12-27 14:53:25.912627,136
2021-12-27 14:53:25.912637,-13
2021-12-27 14:53:25.912646,-4311
2021-12-27 14:53:25.912655,2183
2021-12-27 14:53:25.912665,1754
2021-12-27 14:53:25.912674,85
2021-12-27 14:53:26.155788,-2224
2021-12-27 14:53:26.155818,-5964
2021-12-27 14:53:26.155831,-1208
2021-12-27 14:53:26.155841,-5804
2021-12-27 14:53:26.155894,-6732
2021-12-27 14:53:26.155909,-2815
2021-12-27 14:53:26.155921,-9374
2021-12-27 14:53:26.155932,-893
2021-12-27 14:53:26.155943,4255
2021-12-27 14:53:26.155955,-1764
2021-12-27 14:53:26.155967,3602
2021-12-27 14:53:26.155979,-1229
2021-12-27 14:53:26.155991,-9318
2021-12-27 14:53:26.156003,-4167
2021-12-27 14:53:26.156014,2141
2021-12-27 14:53:26.156026,4040
2021-12-27 14:53:26.156038,314
2021-12-27 14:53:26.156051,-826
2021-12-27 14:53:26.156062,-6052
2021-12-27 14:53:26.156075,-7964
2021-12-27 14:53:26.156094,3847
2021-12-27 14:53:26.156106,-13
2021-12-27 14:53:26.156124,2009
2021-12-27 14:53:26.156135,-692
2021-12-27 14:53:26.156146,4292
2021-12-27 14:53:26.156157,1815
2021-12-27 14:53:26.351379,3016
2021-12-27 14:53:26.351408,2938
2021-12-27 14:53:26.351420,-5540
2021-12-27 14:53:26.351429,-4188
2021-12-27 14:53:26.351439,1991
2021-12-27 14:53:26.351448,4725
2021-12-27 14:53:26.351463,-8432
2021-12-27 14:53:26.351473,-14440
2021-12-27 14:53:26.351482,-5526
2021-12-27 14:53:26.351491,317
2021-12-27 14:53:26.351501,233
2021-12-27 14:53:26.351510,-5767
2021-12-27 14:53:26.351520,-6211
2021-12-27 14:53:26.351529,-8450
2021-12-27 14:53:26.351539,-7989
2021-12-27 14:53:26.351558,-671
2021-12-27 14:53:26.351568,3164
2021-12-27 14:53:26.351577,-9344
2021-12-27 14:53:26.351587,-18781
2021-12-27 14:53:26.351596,-10603
2021-12-27 14:53:26.351605,2678
2021-12-27 14:53:26.351620,840
2021-12-27 14:53:26.351629,-3931
2021-12-27 14:53:26.351638,414
2021-12-27 14:53:26.351648,2440
2021-12-27 14:53:26.594897,2236
2021-12-27 14:53:26.594918,1058
2021-12-27 14:53:26.594929,-10129
2021-12-27 14:53:26.594938,-377
2021-12-27 14:53:26.594953,3134
2021-12-27 14:53:26.594968,419
2021-12-27 14:53:26.594977,-11194
2021-12-27 14:53:26.594986,-2921
2021-12-27 14:53:26.595006,3672
2021-12-27 14:53:26.595015,247
2021-12-27 14:53:26.595025,1194
2021-12-27 14:53:26.595034,-1500
2021-12-27 14:53:26.595053,1009
2021-12-27 14:53:26.595068,-238
2021-12-27 14:53:26.595077,-6302
2021-12-27 14:53:26.595086,3114
2021-12-27 14:53:26.595106,3454
2021-12-27 14:53:26.595115,-905
2021-12-27 14:53:26.595124,3549
2021-12-27 14:53:26.595134,2190
2021-12-27 14:53:26.886197,-333
2021-12-27 14:53:26.886217,1588
2021-12-27 14:53:26.886228,-2692
2021-12-27 14:53:26.886238,-5920
2021-12-27 14:53:26.886247,4827
2021-12-27 14:53:26.886257,1037
2021-12-27 14:53:26.886266,-5179
2021-12-27 14:53:26.886275,-1632
2021-12-27 14:53:26.886285,-2345
2021-12-27 14:53:26.886294,-6033
2021-12-27 14:53:26.886303,-4825
2021-12-27 14:53:26.886313,2037
2021-12-27 14:53:26.886322,-2741
2021-12-27 14:53:26.886331,-7978
2021-12-27 14:53:26.886341,-1947
2021-12-27 14:53:26.886350,-6121
2021-12-27 14:53:26.886359,-2414
2021-12-27 14:53:26.886374,-636
2021-12-27 14:53:26.886383,-414
2021-12-27 14:53:26.886398,-442
2021-12-27 14:53:26.886407,-3912
2021-12-27 14:53:26.886416,-3204
2021-12-27 14:53:26.886426,3028
2021-12-27 14:53:26.886435,-4586
2021-12-27 14:53:26.886445,-13553
2021-12-27 14:53:26.886454,2322
2021-12-27 14:53:27.082516,4621
2021-12-27 14:53:27.082548,-273
2021-12-27 14:53:27.082565,1127
2021-12-27 14:53:27.082574,4461
2021-12-27 14:53:27.082584,3799
2021-12-27 14:53:27.082594,-8867
2021-12-27 14:53:27.082603,-3935
2021-12-27 14:53:27.082613,3954
2021-12-27 14:53:27.082622,4512
2021-12-27 14:53:27.082631,4468
2021-12-27 14:53:27.082641,2667
2021-12-27 14:53:27.082650,-622
2021-12-27 14:53:27.082659,-8142
2021-12-27 14:53:27.082669,-449
2021-12-27 14:53:27.082683,1518
2021-12-27 14:53:27.082703,-1812
2021-12-27 14:53:27.082712,3461
2021-12-27 14:53:27.082722,3144
2021-12-27 14:53:27.082731,4565
2021-12-27 14:53:27.082745,3387
2021-12-27 14:53:27.082755,3929
2021-12-27 14:53:27.082764,-4410
2021-12-27 14:53:27.082773,-5332
2021-12-27 14:53:27.325896,4111
2021-12-27 14:53:27.325918,3169
2021-12-27 14:53:27.325925,-3558
2021-12-27 14:53:27.325931,1704
2021-12-27 14:53:27.325938,4600
2021-12-27 14:53:27.325950,-4093
2021-12-27 14:53:27.325956,-9638
2021-12-27 14:53:27.325962,-5343
2021-12-27 14:53:27.325975,933
2021-12-27 14:53:27.325981,3338
2021-12-27 14:53:27.325987,-3908
2021-12-27 14:53:27.325993,-10624
2021-12-27 14:53:27.326006,2481
2021-12-27 14:53:27.326015,-2055
2021-12-27 14:53:27.326022,-3215
2021-12-27 14:53:27.326028,3491
2021-12-27 14:53:27.326040,1956
2021-12-27 14:53:27.326047,4216
2021-12-27 14:53:27.326053,138
2021-12-27 14:53:27.326059,-7360
2021-12-27 14:53:27.326065,1576
2021-12-27 14:53:27.521223,4818
2021-12-27 14:53:27.521239,-1247
2021-12-27 14:53:27.521246,-14106
2021-12-27 14:53:27.521252,-3375
2021-12-27 14:53:27.521272,4781
2021-12-27 14:53:27.521278,4882
2021-12-27 14:53:27.521284,217
2021-12-27 14:53:27.521290,-6526
2021-12-27 14:53:27.521297,-8895
2021-12-27 14:53:27.521303,1025
2021-12-27 14:53:27.521312,2130
2021-12-27 14:53:27.521318,201
2021-12-27 14:53:27.521325,680
2021-12-27 14:53:27.521331,-8710
2021-12-27 14:53:27.521337,83
2021-12-27 14:53:27.521346,3878
2021-12-27 14:53:27.521352,3847
2021-12-27 14:53:27.521358,-884
2021-12-27 14:53:27.521365,398
2021-12-27 14:53:27.521371,2586
2021-12-27 14:53:27.521377,2984
2021-12-27 14:53:27.521386,1398
2021-12-27 14:53:27.521392,-155
2021-12-27 14:53:27.521398,3438
2021-12-27 14:53:27.521404,-4926
2021-12-27 14:53:27.764969,-5079
2021-12-27 14:53:27.764999,-1250
2021-12-27 14:53:27.765010,1389
2021-12-27 14:53:27.765020,3435
2021-12-27 14:53:27.765029,-4961
2021-12-27 14:53:27.765039,-7770
2021-12-27 14:53:27.765048,-1961
2021-12-27 14:53:27.765058,4649
2021-12-27 14:53:27.765073,-1451
2021-12-27 14:53:27.765082,1243
2021-12-27 14:53:27.765092,-300
2021-12-27 14:53:27.765101,-8443
2021-12-27 14:53:27.765121,-2185
2021-12-27 14:53:27.765136,1366
2021-12-27 14:53:27.765145,-6313
2021-12-27 14:53:27.765155,-4165
2021-12-27 14:53:27.765164,-421
2021-12-27 14:53:27.765174,3329
2021-12-27 14:53:27.765183,747
2021-12-27 14:53:27.765193,916
2021-12-27 14:53:27.765202,-3496
2021-12-27 14:53:27.765212,-9022
2021-12-27 14:53:27.765221,-338
2021-12-27 14:53:27.765230,-5051
2021-12-27 14:53:27.765240,-6883
2021-12-27 14:53:28.008753,-1104
2021-12-27 14:53:28.008783,-5929
2021-12-27 14:53:28.008794,-6535
2021-12-27 14:53:28.008804,-8455
2021-12-27 14:53:28.008814,4250
2021-12-27 14:53:28.008823,4297
2021-12-27 14:53:28.008833,-7237
2021-12-27 14:53:28.008842,-12599
2021-12-27 14:53:28.008852,-17246
2021-12-27 14:53:28.008861,-9995
2021-12-27 14:53:28.008871,2338
2021-12-27 14:53:28.008886,1710
2021-12-27 14:53:28.008895,-9161
2021-12-27 14:53:28.008905,-3739
2021-12-27 14:53:28.008915,4554
2021-12-27 14:53:28.008924,2741
2021-12-27 14:53:28.008938,3528
2021-12-27 14:53:28.008948,-534
2021-12-27 14:53:28.008957,731
2021-12-27 14:53:28.008967,101
2021-12-27 14:53:28.008986,2671
2021-12-27 14:53:28.009001,-2349
2021-12-27 14:53:28.009010,326
2021-12-27 14:53:28.009025,3982
2021-12-27 14:53:28.203849,2660
2021-12-27 14:53:28.203870,-3292
2021-12-27 14:53:28.203881,-2590
2021-12-27 14:53:28.203891,-5042
2021-12-27 14:53:28.203900,729
2021-12-27 14:53:28.203915,2685
2021-12-27 14:53:28.203924,-3917
2021-12-27 14:53:28.203934,-10508
2021-12-27 14:53:28.203944,4577
2021-12-27 14:53:28.203958,896
2021-12-27 14:53:28.203973,-2829
2021-12-27 14:53:28.203982,-12845
2021-12-27 14:53:28.203992,1803
2021-12-27 14:53:28.204011,3433
2021-12-27 14:53:28.204021,0
2021-12-27 14:53:28.204031,-1044
2021-12-27 14:53:28.204040,-898
2021-12-27 14:53:28.204060,1088
2021-12-27 14:53:28.204074,-1060
2021-12-27 14:53:28.204084,-1106
2021-12-27 14:53:28.447014,4035
2021-12-27 14:53:28.447033,4873
2021-12-27 14:53:28.447041,2901
2021-12-27 14:53:28.447047,-8383
2021-12-27 14:53:28.447053,-8629
2021-12-27 14:53:28.447060,-3195
2021-12-27 14:53:28.447066,-280
2021-12-27 14:53:28.447072,-2789
2021-12-27 14:53:28.447078,-782
2021-12-27 14:53:28.447084,2954
2021-12-27 14:53:28.447091,-7897
2021-12-27 14:53:28.447097,-4174
2021-12-27 14:53:28.447107,-5028
2021-12-27 14:53:28.447113,-17568
2021-12-27 14:53:28.447119,-7401
2021-12-27 14:53:28.447125,3894
2021-12-27 14:53:28.447131,3785
2021-12-27 14:53:28.447138,326
2021-12-27 14:53:28.447150,-1965
2021-12-27 14:53:28.447157,4857
2021-12-27 14:53:28.447163,2477
2021-12-27 14:53:28.447169,1914
2021-12-27 14:53:28.447179,1213
2021-12-27 14:53:28.447185,1873
2021-12-27 14:53:28.447191,4077
2021-12-27 14:53:28.447197,141
2021-12-27 14:53:28.740303,3945
2021-12-27 14:53:28.740323,3813
2021-12-27 14:53:28.740331,3100
2021-12-27 14:53:28.740337,1944
2021-12-27 14:53:28.740343,99
2021-12-27 14:53:28.740350,-958
2021-12-27 14:53:28.740356,-8251
2021-12-27 14:53:28.740362,-805
2021-12-27 14:53:28.740368,219
2021-12-27 14:53:28.740374,-11699
2021-12-27 14:53:28.740380,3415
2021-12-27 14:53:28.740386,4836
2021-12-27 14:53:28.740393,-11328
2021-12-27 14:53:28.740399,108
2021-12-27 14:53:28.740409,1409
2021-12-27 14:53:28.740415,3681
2021-12-27 14:53:28.740421,3248
2021-12-27 14:53:28.740427,2349
2021-12-27 14:53:28.740433,-386
2021-12-27 14:53:28.740440,1965
2021-12-27 14:53:28.740446,4023
2021-12-27 14:53:28.740452,863
2021-12-27 14:53:28.740461,3352
2021-12-27 14:53:28.740467,-2055
2021-12-27 14:53:28.740477,1912
2021-12-27 14:53:28.740483,2032
2021-12-27 14:53:28.740489,1998
2021-12-27 14:53:28.982357,-6908
2021-12-27 14:53:28.982387,-1324
2021-12-27 14:53:28.982398,731
2021-12-27 14:53:28.982407,-937
2021-12-27 14:53:28.982417,2845
2021-12-27 14:53:28.982426,-3447
2021-12-27 14:53:28.982435,-4500
2021-12-27 14:53:28.982445,-7216
2021-12-27 14:53:28.982454,-14132
2021-12-27 14:53:28.982463,-6360
2021-12-27 14:53:28.982472,-5056
2021-12-27 14:53:28.982482,-4899
2021-12-27 14:53:28.982491,1567
2021-12-27 14:53:28.982501,-3118
2021-12-27 14:53:28.982510,-5602
2021-12-27 14:53:28.982519,-2072
2021-12-27 14:53:28.982529,4389
2021-12-27 14:53:28.982544,-3039
2021-12-27 14:53:28.982553,-13748
2021-12-27 14:53:28.982562,-18966
2021-12-27 14:53:28.982571,-6705
2021-12-27 14:53:28.982586,2113
2021-12-27 14:53:28.982595,1544
2021-12-27 14:53:28.982609,-4359
2021-12-27 14:53:28.982619,-2377
2021-12-27 14:53:29.130139,48
2021-12-27 14:53:29.130155,-5429
2021-12-27 14:53:29.130161,-8594
2021-12-27 14:53:29.130168,1014
2021-12-27 14:53:29.130177,1104
2021-12-27 14:53:29.130183,254
2021-12-27 14:53:29.130189,-4871
2021-12-27 14:53:29.130195,-17890
2021-12-27 14:53:29.130201,-5642
2021-12-27 14:53:29.130207,-1491
2021-12-27 14:53:29.130214,-10881
2021-12-27 14:53:29.130220,-5213
2021-12-27 14:53:29.130226,-3634
2021-12-27 14:53:29.130232,-11110
2021-12-27 14:53:29.130238,-10069
2021-12-27 14:53:29.130244,4690
2021-12-27 14:53:29.130253,-659
2021-12-27 14:53:29.130259,967
2021-12-27 14:53:29.130265,2051
2021-12-27 14:53:29.130271,-3144
2021-12-27 14:53:29.130284,2421
2021-12-27 14:53:29.130290,4859
2021-12-27 14:53:29.130296,-2532
2021-12-27 14:53:29.130303,-669
2021-12-27 14:53:29.130309,4996
2021-12-27 14:53:29.373792,4561
2021-12-27 14:53:29.373828,1305
2021-12-27 14:53:29.373838,-1694
2021-12-27 14:53:29.373848,-3567
2021-12-27 14:53:29.373858,-5987
2021-12-27 14:53:29.373877,-280
2021-12-27 14:53:29.373887,2794
2021-12-27 14:53:29.373896,-4468
2021-12-27 14:53:29.373905,-6177
2021-12-27 14:53:29.373915,3505
2021-12-27 14:53:29.373929,-2192
2021-12-27 14:53:29.373939,-8244
2021-12-27 14:53:29.373949,3188
2021-12-27 14:53:29.373963,-1185
2021-12-27 14:53:29.373983,-157
2021-12-27 14:53:29.373998,2051
2021-12-27 14:53:29.374007,1734
2021-12-27 14:53:29.374016,-1007
2021-12-27 14:53:29.374026,-12148
2021-12-27 14:53:29.374035,-2581
2021-12-27 14:53:29.374050,3618
2021-12-27 14:53:29.617366,893
2021-12-27 14:53:29.617387,2708
2021-12-27 14:53:29.617398,921
2021-12-27 14:53:29.617405,2595
2021-12-27 14:53:29.617414,-7913
2021-12-27 14:53:29.617421,-2143
2021-12-27 14:53:29.617430,1467
2021-12-27 14:53:29.617440,3299
2021-12-27 14:53:29.617446,-5873
2021-12-27 14:53:29.617452,-5153
2021-12-27 14:53:29.617458,1671
2021-12-27 14:53:29.617468,-3866
2021-12-27 14:53:29.617474,-4186
2021-12-27 14:53:29.617480,4725
2021-12-27 14:53:29.617486,-1018
2021-12-27 14:53:29.617492,747
2021-12-27 14:53:29.617498,4602
2021-12-27 14:53:29.617505,2951
2021-12-27 14:53:29.617514,2470
2021-12-27 14:53:29.617520,-4033
2021-12-27 14:53:29.617526,-4873
2021-12-27 14:53:29.617532,-3697
2021-12-27 14:53:29.812957,324
2021-12-27 14:53:29.812980,-680
2021-12-27 14:53:29.812988,-11094
2021-12-27 14:53:29.812994,-5146
2021-12-27 14:53:29.813000,1046
2021-12-27 14:53:29.813006,-4690
2021-12-27 14:53:29.813012,1817
2021-12-27 14:53:29.813019,-4612
2021-12-27 14:53:29.813056,-14843
2021-12-27 14:53:29.813062,-3648
2021-12-27 14:53:29.813075,1641
2021-12-27 14:53:29.813082,-2259
2021-12-27 14:53:29.813088,-7767
2021-12-27 14:53:29.813094,-9587
2021-12-27 14:53:29.813106,-8054
2021-12-27 14:53:29.813112,-3935
2021-12-27 14:53:29.813118,-1789
2021-12-27 14:53:29.813124,-1974
2021-12-27 14:53:29.813130,4799
2021-12-27 14:53:29.813136,4903
2021-12-27 14:53:29.813146,4077
2021-12-27 14:53:29.813152,-1701
2021-12-27 14:53:29.813158,-564
2021-12-27 14:53:29.813165,1738
2021-12-27 14:53:30.056532,4725
2021-12-27 14:53:30.056563,-10603
2021-12-27 14:53:30.056574,-16679
2021-12-27 14:53:30.056584,-13201
2021-12-27 14:53:30.056594,1261
2021-12-27 14:53:30.056609,2551
2021-12-27 14:53:30.056624,2380
2021-12-27 14:53:30.056633,-10515
2021-12-27 14:53:30.056643,-5176
2021-12-27 14:53:30.056663,4519
2021-12-27 14:53:30.056672,173
2021-12-27 14:53:30.056682,2840
2021-12-27 14:53:30.056691,-599
2021-12-27 14:53:30.056701,4297
2021-12-27 14:53:30.056715,1148
2021-12-27 14:53:30.056725,-2935
2021-12-27 14:53:30.056734,-7492
2021-12-27 14:53:30.056744,-2136
2021-12-27 14:53:30.056758,3584
2021-12-27 14:53:30.056778,-805
2021-12-27 14:53:30.056787,3229
2021-12-27 14:53:30.056797,2347
2021-12-27 14:53:30.348737,4572
2021-12-27 14:53:30.348774,120
2021-12-27 14:53:30.348784,1766
2021-12-27 14:53:30.348794,-1194
2021-12-27 14:53:30.348803,-8205
2021-12-27 14:53:30.348813,2349
2021-12-27 14:53:30.348827,3375
2021-12-27 14:53:30.348836,1444
2021-12-27 14:53:30.348846,-1303
2021-12-27 14:53:30.348855,-3289
2021-12-27 14:53:30.348864,-4813
2021-12-27 14:53:30.348884,-4936
2021-12-27 14:53:30.348893,-2280
2021-12-27 14:53:30.348902,-2109
2021-12-27 14:53:30.348911,-2097
2021-12-27 14:53:30.348926,1196
2021-12-27 14:53:30.348935,-3625
2021-12-27 14:53:30.348944,-7918
2021-12-27 14:53:30.348954,-13599
2021-12-27 14:53:30.348963,-5100
2021-12-27 14:53:30.348972,-3829
2021-12-27 14:53:30.348981,-3118
2021-12-27 14:53:30.348991,1940
2021-12-27 14:53:30.349000,446
2021-12-27 14:53:30.349009,3748
2021-12-27 14:53:30.543781,-150
2021-12-27 14:53:30.543811,-1717
2021-12-27 14:53:30.543822,4702
2021-12-27 14:53:30.543832,-833
2021-12-27 14:53:30.543842,2498
2021-12-27 14:53:30.543857,858
2021-12-27 14:53:30.543867,-3653
2021-12-27 14:53:30.543876,-12787
2021-12-27 14:53:30.543886,-4040
2021-12-27 14:53:30.543900,2051
2021-12-27 14:53:30.543910,-2576
2021-12-27 14:53:30.543919,-6813
2021-12-27 14:53:30.543928,-4454
2021-12-27 14:53:30.543943,2810
2021-12-27 14:53:30.543952,4963
2021-12-27 14:53:30.543962,3854
2021-12-27 14:53:30.543971,-9147
2021-12-27 14:53:30.543996,-4994
2021-12-27 14:53:30.544005,3079
2021-12-27 14:53:30.544025,-4774
2021-12-27 14:53:30.544035,-7276
2021-12-27 14:53:30.544044,-3185
2021-12-27 14:53:30.544053,2493
2021-12-27 14:53:30.544068,2481
2021-12-27 14:53:30.738881,-3984
2021-12-27 14:53:30.738897,1308
2021-12-27 14:53:30.738914,-1088
2021-12-27 14:53:30.738920,-8580
2021-12-27 14:53:30.738934,-8360
2021-12-27 14:53:30.738941,4936
2021-12-27 14:53:30.738951,1217
2021-12-27 14:53:30.738957,3653
2021-12-27 14:53:30.738963,328
2021-12-27 14:53:30.738969,-10397
2021-12-27 14:53:30.738975,4343
2021-12-27 14:53:30.738985,2954
2021-12-27 14:53:30.738994,-1030
2021-12-27 14:53:30.739000,-3317
2021-12-27 14:53:30.739006,2625
2021-12-27 14:53:30.739019,1037
2021-12-27 14:53:30.739025,-5213
2021-12-27 14:53:30.739031,-10675
2021-12-27 14:53:30.739037,-3206
2021-12-27 14:53:31.029935,4361
2021-12-27 14:53:31.029965,1347
2021-12-27 14:53:31.029982,-10471
2021-12-27 14:53:31.029992,-10025
2021-12-27 14:53:31.030016,69
2021-12-27 14:53:31.030026,-3273
2021-12-27 14:53:31.030035,-6505
2021-12-27 14:53:31.030045,-2373
2021-12-27 14:53:31.030059,-7772
2021-12-27 14:53:31.030069,-11347
2021-12-27 14:53:31.030078,4160
2021-12-27 14:53:31.030088,627
2021-12-27 14:53:31.030097,419
2021-12-27 14:53:31.030112,4065
2021-12-27 14:53:31.030121,4260
2021-12-27 14:53:31.030130,-377
2021-12-27 14:53:31.030140,1509
2021-12-27 14:53:31.030149,3181
2021-12-27 14:53:31.030159,1495
2021-12-27 14:53:31.030173,2606
2021-12-27 14:53:31.030183,-1085
2021-12-27 14:53:31.030192,1898
2021-12-27 14:53:31.030202,-4489
2021-12-27 14:53:31.226298,2984
2021-12-27 14:53:31.226333,-527
2021-12-27 14:53:31.226344,1627
2021-12-27 14:53:31.226354,-131
2021-12-27 14:53:31.226363,-6394
2021-12-27 14:53:31.226372,-5619
2021-12-27 14:53:31.226382,3174
2021-12-27 14:53:31.226396,-1164
2021-12-27 14:53:31.226406,1352
2021-12-27 14:53:31.226415,2611
2021-12-27 14:53:31.226425,-9557
2021-12-27 14:53:31.226434,2424
2021-12-27 14:53:31.226449,-669
2021-12-27 14:53:31.226463,3880
2021-12-27 14:53:31.226473,-775
2021-12-27 14:53:31.226482,2449
2021-12-27 14:53:31.226492,817
2021-12-27 14:53:31.226501,2236
2021-12-27 14:53:31.226511,3005
2021-12-27 14:53:31.226520,4975
2021-12-27 14:53:31.226529,4526
2021-12-27 14:53:31.226539,-1553
2021-12-27 14:53:31.226549,4130
2021-12-27 14:53:31.226558,4019
2021-12-27 14:53:31.226567,1220
2021-12-27 14:53:31.469770,-1433
2021-12-27 14:53:31.469792,-5929
2021-12-27 14:53:31.469799,2271
2021-12-27 14:53:31.469805,2387
2021-12-27 14:53:31.469815,4966
2021-12-27 14:53:31.469821,-1905
2021-12-27 14:53:31.469827,-7029
2021-12-27 14:53:31.469834,-7114
2021-12-27 14:53:31.469846,2000
2021-12-27 14:53:31.469856,-5378
2021-12-27 14:53:31.469862,-9210
2021-12-27 14:53:31.469874,1986
2021-12-27 14:53:31.469880,3947
2021-12-27 14:53:31.469902,-4533
2021-12-27 14:53:31.469907,-18966
2021-12-27 14:53:31.469912,-12428
2021-12-27 14:53:31.469917,1620
2021-12-27 14:53:31.469925,3037
2021-12-27 14:53:31.469930,1766
2021-12-27 14:53:31.469937,-3523
2021-12-27 14:53:31.469942,-2646
2021-12-27 14:53:31.469950,3519
2021-12-27 14:53:31.713857,3662
2021-12-27 14:53:31.713881,-5633
2021-12-27 14:53:31.713891,-7964
2021-12-27 14:53:31.713901,-1215
2021-12-27 14:53:31.713915,4845
2021-12-27 14:53:31.713925,-560
2021-12-27 14:53:31.713934,-694
2021-12-27 14:53:31.713944,-11379
2021-12-27 14:53:31.713953,-1495
2021-12-27 14:53:31.713968,1708
2021-12-27 14:53:31.713977,3847
2021-12-27 14:53:31.713986,-1548
2021-12-27 14:53:31.713996,-14000
2021-12-27 14:53:31.714005,-2894
2021-12-27 14:53:31.714025,2586
2021-12-27 14:53:31.714034,-1627
2021-12-27 14:53:31.714044,-5088
2021-12-27 14:53:31.714053,-9897
2021-12-27 14:53:31.714062,2007
2021-12-27 14:53:31.714077,-1245
2021-12-27 14:53:31.714086,956
2021-12-27 14:53:31.714096,-5535
2021-12-27 14:53:31.714105,-9967
2021-12-27 14:53:31.714115,1294
2021-12-27 14:53:31.957566,-3331
2021-12-27 14:53:31.957595,-4869
2021-12-27 14:53:31.957606,136
2021-12-27 14:53:31.957616,-2556
2021-12-27 14:53:31.957626,-2664
2021-12-27 14:53:31.957635,-7149
2021-12-27 14:53:31.957645,-833
2021-12-27 14:53:31.957660,-2535
2021-12-27 14:53:31.957669,-2243
2021-12-27 14:53:31.957678,-5040
2021-12-27 14:53:31.957688,-7221
2021-12-27 14:53:31.957697,4399
2021-12-27 14:53:31.957707,3834
2021-12-27 14:53:31.957717,738
2021-12-27 14:53:31.957726,-169
2021-12-27 14:53:31.957735,-6482
2021-12-27 14:53:31.957745,-6658
2021-12-27 14:53:31.957754,-1528
2021-12-27 14:53:31.957769,4287
2021-12-27 14:53:31.957778,-3239
2021-12-27 14:53:31.957793,27
2021-12-27 14:53:31.957802,-15783
2021-12-27 14:53:31.957811,-5477
2021-12-27 14:53:31.957821,4322
2021-12-27 14:53:31.957830,3373
2021-12-27 14:53:31.957840,1120
2021-12-27 14:53:31.957849,-446
2021-12-27 14:53:32.152555,3294
2021-12-27 14:53:32.152586,2549
2021-12-27 14:53:32.152598,2771
2021-12-27 14:53:32.152607,2792
2021-12-27 14:53:32.152617,1372
2021-12-27 14:53:32.152632,532
2021-12-27 14:53:32.152641,-7274
2021-12-27 14:53:32.152651,2002
2021-12-27 14:53:32.152660,2671
2021-12-27 14:53:32.152670,4447
2021-12-27 14:53:32.152679,1852
2021-12-27 14:53:32.152689,-9816
2021-12-27 14:53:32.152698,-2732
2021-12-27 14:53:32.152708,4255
2021-12-27 14:53:32.152717,2917
2021-12-27 14:53:32.152726,4306
2021-12-27 14:53:32.152736,1727
2021-12-27 14:53:32.152745,-2711
2021-12-27 14:53:32.152755,-7515
2021-12-27 14:53:32.152764,199
2021-12-27 14:53:32.152779,564
2021-12-27 14:53:32.152798,-2914
2021-12-27 14:53:32.152808,3183
2021-12-27 14:53:32.152817,2757
2021-12-27 14:53:32.152827,3213
2021-12-27 14:53:32.347242,1190
2021-12-27 14:53:32.347264,1102
2021-12-27 14:53:32.347271,-400
2021-12-27 14:53:32.347277,-627
2021-12-27 14:53:32.347287,3803
2021-12-27 14:53:32.347293,3169
2021-12-27 14:53:32.347299,-5019
2021-12-27 14:53:32.347305,-18966
2021-12-27 14:53:32.347311,-12810
2021-12-27 14:53:32.347318,2014
2021-12-27 14:53:32.347327,2611
2021-12-27 14:53:32.347333,-12270
2021-12-27 14:53:32.347340,-17519
2021-12-27 14:53:32.347346,-8684
2021-12-27 14:53:32.347352,-1822
2021-12-27 14:53:32.347358,-680
2021-12-27 14:53:32.347364,-891
2021-12-27 14:53:32.347370,3528
2021-12-27 14:53:32.347376,-2838
2021-12-27 14:53:32.347382,-7008
2021-12-27 14:53:32.347391,4945
2021-12-27 14:53:32.347398,1338
2021-12-27 14:53:32.347407,-3959
2021-12-27 14:53:32.347413,-3896
2021-12-27 14:53:32.347419,-1625
2021-12-27 14:53:32.347425,-11467
2021-12-27 14:53:32.591614,-8077
2021-12-27 14:53:32.591643,3718
2021-12-27 14:53:32.591655,-750
2021-12-27 14:53:32.591664,-14280
2021-12-27 14:53:32.591674,-3699
2021-12-27 14:53:32.591689,3343
2021-12-27 14:53:32.591698,1044
2021-12-27 14:53:32.591708,4378
2021-12-27 14:53:32.591717,-10828
2021-12-27 14:53:32.591727,-9318
2021-12-27 14:53:32.591736,-423
2021-12-27 14:53:32.591745,1754
2021-12-27 14:53:32.591760,963
2021-12-27 14:53:32.591770,-2400
2021-12-27 14:53:32.591779,1328
2021-12-27 14:53:32.591789,4280
2021-12-27 14:53:32.591803,2752
2021-12-27 14:53:32.591813,1183
2021-12-27 14:53:32.591822,2898
2021-12-27 14:53:32.591832,-1453
2021-12-27 14:53:32.591851,3120
2021-12-27 14:53:32.591866,-152
2021-12-27 14:53:32.591875,347
2021-12-27 14:53:32.591885,4713
2021-12-27 14:53:32.835190,3868
2021-12-27 14:53:32.835226,2109
2021-12-27 14:53:32.835237,-937
2021-12-27 14:53:32.835246,-1027
2021-12-27 14:53:32.835256,-7413
2021-12-27 14:53:32.835265,4010
2021-12-27 14:53:32.835280,-676
2021-12-27 14:53:32.835289,1717
2021-12-27 14:53:32.835299,-2581
2021-12-27 14:53:32.835308,-7492
2021-12-27 14:53:32.835318,-4299
2021-12-27 14:53:32.835327,-3315
2021-12-27 14:53:32.835337,351
2021-12-27 14:53:32.835346,428
2021-12-27 14:53:32.835356,3065
2021-12-27 14:53:32.835365,3898
2021-12-27 14:53:32.835375,-1025
2021-12-27 14:53:32.835394,-805
2021-12-27 14:53:32.835409,2303
2021-12-27 14:53:32.835418,500
2021-12-27 14:53:32.835433,1991
2021-12-27 14:53:32.835442,2931
2021-12-27 14:53:32.835452,3445
2021-12-27 14:53:32.835461,3120
2021-12-27 14:53:33.126527,2491
2021-12-27 14:53:33.126557,55
2021-12-27 14:53:33.126573,1752
2021-12-27 14:53:33.126583,-5327
2021-12-27 14:53:33.126593,-10601
2021-12-27 14:53:33.126602,-17163
2021-12-27 14:53:33.126611,-2581
2021-12-27 14:53:33.126626,-912
2021-12-27 14:53:33.126635,4862
2021-12-27 14:53:33.126649,-5269
2021-12-27 14:53:33.126659,-7232
2021-12-27 14:53:33.126668,-6413
2021-12-27 14:53:33.126677,-5021
2021-12-27 14:53:33.126687,-2055
2021-12-27 14:53:33.126706,-3271
2021-12-27 14:53:33.126715,620
2021-12-27 14:53:33.126730,1873
2021-12-27 14:53:33.126744,4146
2021-12-27 14:53:33.126754,-902
2021-12-27 14:53:33.126763,1900
2021-12-27 14:53:33.126773,669
2021-12-27 14:53:33.322932,2410
2021-12-27 14:53:33.322961,4565
2021-12-27 14:53:33.322972,-2928
2021-12-27 14:53:33.322982,-516
2021-12-27 14:53:33.322997,3604
2021-12-27 14:53:33.323011,-1639
2021-12-27 14:53:33.323021,-12974
2021-12-27 14:53:33.323030,-4797
2021-12-27 14:53:33.323049,3114
2021-12-27 14:53:33.323059,-363
2021-12-27 14:53:33.323068,-5019
2021-12-27 14:53:33.323078,-11914
2021-12-27 14:53:33.323087,196
2021-12-27 14:53:33.323097,1854
2021-12-27 14:53:33.323106,-5244
2021-12-27 14:53:33.323121,2178
2021-12-27 14:53:33.323130,-5913
2021-12-27 14:53:33.323149,4838
2021-12-27 14:53:33.323159,4429
2021-12-27 14:53:33.323168,-1393
2021-12-27 14:53:33.323178,-2160
2021-12-27 14:53:33.323187,-129
2021-12-27 14:53:33.517577,699
2021-12-27 14:53:33.517599,2606
2021-12-27 14:53:33.517610,-7969
2021-12-27 14:53:33.517620,-8233
2021-12-27 14:53:33.517640,3197
2021-12-27 14:53:33.517649,3470
2021-12-27 14:53:33.517658,-277
2021-12-27 14:53:33.517668,-1907
2021-12-27 14:53:33.517677,-10210
2021-12-27 14:53:33.517687,-1027
2021-12-27 14:53:33.517701,-791
2021-12-27 14:53:33.517710,-4012
2021-12-27 14:53:33.517720,-6378
2021-12-27 14:53:33.517729,-2174
2021-12-27 14:53:33.517739,4841
2021-12-27 14:53:33.517748,-5547
2021-12-27 14:53:33.517758,-4000
2021-12-27 14:53:33.517767,2516
2021-12-27 14:53:33.517777,-1312
2021-12-27 14:53:33.517786,1775
2021-12-27 14:53:33.517796,3713
2021-12-27 14:53:33.517810,3880
2021-12-27 14:53:33.517820,-1379
2021-12-27 14:53:33.517829,3333
2021-12-27 14:53:33.517839,238
2021-12-27 14:53:33.761372,1125
2021-12-27 14:53:33.761400,-118
2021-12-27 14:53:33.761407,32
2021-12-27 14:53:33.761413,83
2021-12-27 14:53:33.761419,-9543
2021-12-27 14:53:33.761425,-2616
2021-12-27 14:53:33.761434,3586
2021-12-27 14:53:33.761440,254
2021-12-27 14:53:33.761447,-803
2021-12-27 14:53:33.761453,-2072
2021-12-27 14:53:33.761459,-7818
2021-12-27 14:53:33.761465,2553
2021-12-27 14:53:33.761474,-2600
2021-12-27 14:53:33.761480,3433
2021-12-27 14:53:33.761490,-2817
2021-12-27 14:53:33.761496,4216
2021-12-27 14:53:33.761502,-933
2021-12-27 14:53:33.761508,-10383
2021-12-27 14:53:33.761514,-1991
2021-12-27 14:53:33.761521,4030
2021-12-27 14:53:33.761527,2500
2021-12-27 14:53:33.761533,-972
2021-12-27 14:53:33.761539,2380
2021-12-27 14:53:33.761545,4605
2021-12-27 14:53:33.761551,481
2021-12-27 14:53:34.004788,2993
2021-12-27 14:53:34.004804,-2368
2021-12-27 14:53:34.004811,4475
2021-12-27 14:53:34.004816,854
2021-12-27 14:53:34.004821,2312
2021-12-27 14:53:34.004830,-6130
2021-12-27 14:53:34.004835,-9765
2021-12-27 14:53:34.004840,-1977
2021-12-27 14:53:34.004845,3935
2021-12-27 14:53:34.004853,1562
2021-12-27 14:53:34.004858,2113
2021-12-27 14:53:34.004863,-5839
2021-12-27 14:53:34.004867,-8904
2021-12-27 14:53:34.004872,3088
2021-12-27 14:53:34.004877,-6707
2021-12-27 14:53:34.004882,-13220
2021-12-27 14:53:34.004887,2301
2021-12-27 14:53:34.004892,2595
2021-12-27 14:53:34.004897,-2947
2021-12-27 14:53:34.004902,-923
2021-12-27 14:53:34.004906,1875
2021-12-27 14:53:34.004912,-1824
2021-12-27 14:53:34.004916,-5230
2021-12-27 14:53:34.004921,4468
2021-12-27 14:53:34.004926,708
2021-12-27 14:53:34.004931,-4468
2021-12-27 14:53:34.199658,2796
2021-12-27 14:53:34.199678,4936
2021-12-27 14:53:34.199685,-4058
2021-12-27 14:53:34.199692,-1773
2021-12-27 14:53:34.199698,4537
2021-12-27 14:53:34.199711,-300
2021-12-27 14:53:34.199717,-7651
2021-12-27 14:53:34.199724,-11011
2021-12-27 14:53:34.199730,1217
2021-12-27 14:53:34.199739,1247
2021-12-27 14:53:34.199746,1972
2021-12-27 14:53:34.199752,1426
2021-12-27 14:53:34.199758,-11701
2021-12-27 14:53:34.199764,-92
2021-12-27 14:53:34.199774,3016
2021-12-27 14:53:34.199780,4697
2021-12-27 14:53:34.199786,-641
2021-12-27 14:53:34.199792,-3685
2021-12-27 14:53:34.199798,803
2021-12-27 14:53:34.199805,4679
2021-12-27 14:53:34.199811,4794
2021-12-27 14:53:34.199817,-6397
2021-12-27 14:53:34.199826,-6188
2021-12-27 14:53:34.199833,69
2021-12-27 14:53:34.199839,-1627
2021-12-27 14:53:34.443862,2148
2021-12-27 14:53:34.443875,3966
2021-12-27 14:53:34.443882,-8476
2021-12-27 14:53:34.443888,-11157
2021-12-27 14:53:34.443895,1030
2021-12-27 14:53:34.443908,-472
2021-12-27 14:53:34.443914,-2588
2021-12-27 14:53:34.443920,-4887
2021-12-27 14:53:34.443926,-5996
2021-12-27 14:53:34.443939,-1752
2021-12-27 14:53:34.443945,2407
2021-12-27 14:53:34.443951,-801
2021-12-27 14:53:34.443957,752
2021-12-27 14:53:34.443967,3391
2021-12-27 14:53:34.443973,4218
2021-12-27 14:53:34.443979,-4588
2021-12-27 14:53:34.443985,-15611
2021-12-27 14:53:34.443992,-13690
2021-12-27 14:53:34.443998,-2086
2021-12-27 14:53:34.444004,2757
2021-12-27 14:53:34.444010,-9369
2021-12-27 14:53:34.444016,-11569
2021-12-27 14:53:34.444023,-1162
2021-12-27 14:53:34.444029,-1368
2021-12-27 14:53:34.686741,-1884
2021-12-27 14:53:34.686761,-3315
2021-12-27 14:53:34.686804,-5850
2021-12-27 14:53:34.686819,-3813
2021-12-27 14:53:34.686827,-8038
2021-12-27 14:53:34.686834,-9427
2021-12-27 14:53:34.686840,-7823
2021-12-27 14:53:34.686846,-2234
2021-12-27 14:53:34.686856,-2340
2021-12-27 14:53:34.686862,-1421
2021-12-27 14:53:34.686869,3246
2021-12-27 14:53:34.686875,-9434
2021-12-27 14:53:34.686881,-2574
2021-12-27 14:53:34.686890,-696
2021-12-27 14:53:34.686896,3734
2021-12-27 14:53:34.686902,3746
2021-12-27 14:53:34.686908,-1011
2021-12-27 14:53:34.686914,1474
2021-12-27 14:53:34.686921,808
2021-12-27 14:53:34.686927,3211
2021-12-27 14:53:34.686933,3204
2021-12-27 14:53:34.686939,3750
2021-12-27 14:53:34.686945,4741
2021-12-27 14:53:34.686951,-1710
2021-12-27 14:53:34.686957,2424
2021-12-27 14:53:34.686963,4010
2021-12-27 14:53:34.686969,-1803
2021-12-27 14:53:34.686975,-1433
2021-12-27 14:53:34.931297,-5413
2021-12-27 14:53:34.931328,-400
2021-12-27 14:53:34.931339,4401
2021-12-27 14:53:34.931349,-1560
2021-12-27 14:53:34.931369,-567
2021-12-27 14:53:34.931378,-4667
2021-12-27 14:53:34.931388,-8716
2021-12-27 14:53:34.931397,2912
2021-12-27 14:53:34.931411,1905
2021-12-27 14:53:34.931426,-3032
2021-12-27 14:53:34.931435,-10657
2021-12-27 14:53:34.931445,856
2021-12-27 14:53:34.931464,3813
2021-12-27 14:53:34.931473,1090
2021-12-27 14:53:34.931483,678
2021-12-27 14:53:34.931492,-2502
2021-12-27 14:53:34.931511,1683
2021-12-27 14:53:34.931540,-585
2021-12-27 14:53:34.931546,-4239
2021-12-27 14:53:34.931552,-2224
2021-12-27 14:53:34.931558,-8941
2021-12-27 14:53:35.173251,-62
2021-12-27 14:53:35.173274,32
2021-12-27 14:53:35.173281,-10972
2021-12-27 14:53:35.173287,-2803
2021-12-27 14:53:35.173294,4769
2021-12-27 14:53:35.173303,4917
2021-12-27 14:53:35.173309,2275
2021-12-27 14:53:35.173315,1261
2021-12-27 14:53:35.173321,-10499
2021-12-27 14:53:35.173327,-3220
2021-12-27 14:53:35.173337,3264
2021-12-27 14:53:35.173343,4088
2021-12-27 14:53:35.173349,1303
2021-12-27 14:53:35.173355,-11687
2021-12-27 14:53:35.173361,-5285
2021-12-27 14:53:35.173374,3778
2021-12-27 14:53:35.173380,-384
2021-12-27 14:53:35.173386,1736
2021-12-27 14:53:35.173392,-1305
2021-12-27 14:53:35.173398,4290
2021-12-27 14:53:35.173407,1792
2021-12-27 14:53:35.173414,3984
2021-12-27 14:53:35.173420,1303
2021-12-27 14:53:35.173426,-1928
2021-12-27 14:53:35.370273,4774
2021-12-27 14:53:35.370308,1734
2021-12-27 14:53:35.370319,-13002
2021-12-27 14:53:35.370329,-14255
2021-12-27 14:53:35.370339,-5503
2021-12-27 14:53:35.370358,-2118
2021-12-27 14:53:35.370367,2275
2021-12-27 14:53:35.370377,-1150
2021-12-27 14:53:35.370386,-8603
2021-12-27 14:53:35.370395,2866
2021-12-27 14:53:35.370405,1609
2021-12-27 14:53:35.370414,-6422
2021-12-27 14:53:35.370423,-2826
2021-12-27 14:53:35.370433,1196
2021-12-27 14:53:35.370442,2252
2021-12-27 14:53:35.370451,-1731
2021-12-27 14:53:35.370460,-1109
2021-12-27 14:53:35.370470,-2829
2021-12-27 14:53:35.370479,-7830
2021-12-27 14:53:35.370488,-3463
2021-12-27 14:53:35.370497,-7237
2021-12-27 14:53:35.370507,-5218
2021-12-27 14:53:35.370521,-1097
2021-12-27 14:53:35.370530,-2065
2021-12-27 14:53:35.370540,4632
2021-12-27 14:53:35.370549,-261
2021-12-27 14:53:35.613730,206
2021-12-27 14:53:35.613760,1437
2021-12-27 14:53:35.613771,879
2021-12-27 14:53:35.613781,-3482
2021-12-27 14:53:35.613791,-15996
2021-12-27 14:53:35.613800,-18360
2021-12-27 14:53:35.613809,-13669
2021-12-27 14:53:35.613819,-1972
2021-12-27 14:53:35.613834,-1106
2021-12-27 14:53:35.613844,3118
2021-12-27 14:53:35.613858,-8480
2021-12-27 14:53:35.613868,-5769
2021-12-27 14:53:35.613877,3753
2021-12-27 14:53:35.613887,4348
2021-12-27 14:53:35.613896,4577
2021-12-27 14:53:35.613906,3345
2021-12-27 14:53:35.613915,4459
2021-12-27 14:53:35.613924,-546
2021-12-27 14:53:35.613934,-1125
2021-12-27 14:53:35.613949,3264
2021-12-27 14:53:35.613968,-1356
2021-12-27 14:53:35.613977,2905
2021-12-27 14:53:35.613987,2968
2021-12-27 14:53:35.613996,4049
2021-12-27 14:53:35.857170,2215
2021-12-27 14:53:35.857192,2083
2021-12-27 14:53:35.857200,-97
2021-12-27 14:53:35.857206,-476
2021-12-27 14:53:35.857216,4313
2021-12-27 14:53:35.857222,2792
2021-12-27 14:53:35.857228,-3278
2021-12-27 14:53:35.857234,-14113
2021-12-27 14:53:35.857240,-963
2021-12-27 14:53:35.857250,4123
2021-12-27 14:53:35.857259,-2079
2021-12-27 14:53:35.857266,-9964
2021-12-27 14:53:35.857272,-7841
2021-12-27 14:53:35.857285,713
2021-12-27 14:53:35.857291,3544
2021-12-27 14:53:35.857297,2361
2021-12-27 14:53:35.857303,-6105
2021-12-27 14:53:35.857309,2215
2021-12-27 14:53:35.857315,456
2021-12-27 14:53:35.857321,-1335
2021-12-27 14:53:35.857331,-2495
2021-12-27 14:53:35.857337,-5237
2021-12-27 14:53:35.857343,-1159
2021-12-27 14:53:35.857349,-2294
2021-12-27 14:53:36.101421,814
2021-12-27 14:53:36.101442,-3993
2021-12-27 14:53:36.101450,-10659
2021-12-27 14:53:36.101456,-13007
2021-12-27 14:53:36.101462,-6850
2021-12-27 14:53:36.101472,3371
2021-12-27 14:53:36.101478,27
2021-12-27 14:53:36.101484,1993
2021-12-27 14:53:36.101490,-14018
2021-12-27 14:53:36.101496,-12912
2021-12-27 14:53:36.101502,4922
2021-12-27 14:53:36.101512,3759
2021-12-27 14:53:36.101518,-669
2021-12-27 14:53:36.101524,-4987
2021-12-27 14:53:36.101530,-7795
2021-12-27 14:53:36.101536,-828
2021-12-27 14:53:36.101546,3741
2021-12-27 14:53:36.101552,-338
2021-12-27 14:53:36.101558,3396
2021-12-27 14:53:36.101564,-1532
2021-12-27 14:53:36.101570,3516
2021-12-27 14:53:36.101580,3639
2021-12-27 14:53:36.101589,379
2021-12-27 14:53:36.101595,794
2021-12-27 14:53:36.101601,3646
2021-12-27 14:53:36.344996,2905
2021-12-27 14:53:36.345032,2391
2021-12-27 14:53:36.345043,-701
2021-12-27 14:53:36.345052,733
2021-12-27 14:53:36.345062,-7790
2021-12-27 14:53:36.345071,530
2021-12-27 14:53:36.345085,921
2021-12-27 14:53:36.345095,1812
2021-12-27 14:53:36.345104,2312
2021-12-27 14:53:36.345114,-1366
2021-12-27 14:53:36.345123,-2887
2021-12-27 14:53:36.345132,2245
2021-12-27 14:53:36.345147,171
2021-12-27 14:53:36.345156,861
2021-12-27 14:53:36.345166,1245
2021-12-27 14:53:36.345175,-8082
2021-12-27 14:53:36.345184,3762
2021-12-27 14:53:36.345199,-1595
2021-12-27 14:53:36.345213,3526
2021-12-27 14:53:36.345222,-884
2021-12-27 14:53:36.345232,3838
2021-12-27 14:53:36.345241,2662
2021-12-27 14:53:36.345250,3218
2021-12-27 14:53:36.345260,3371
2021-12-27 14:53:36.345269,3868
2021-12-27 14:53:36.589005,3211
2021-12-27 14:53:36.589024,-861
2021-12-27 14:53:36.589032,3986
2021-12-27 14:53:36.589038,2569
2021-12-27 14:53:36.589044,1250
2021-12-27 14:53:36.589054,-5626
2021-12-27 14:53:36.589060,-9772
2021-12-27 14:53:36.589067,3093
2021-12-27 14:53:36.589073,3440
2021-12-27 14:53:36.589079,4021
2021-12-27 14:53:36.589085,4727
2021-12-27 14:53:36.589091,3357
2021-12-27 14:53:36.589097,-2185
2021-12-27 14:53:36.589103,-18966
2021-12-27 14:53:36.589110,-14456
2021-12-27 14:53:36.589116,4894
2021-12-27 14:53:36.589126,1583
2021-12-27 14:53:36.589132,-7286
2021-12-27 14:53:36.589138,-4966
2021-12-27 14:53:36.589144,3669
2021-12-27 14:53:36.589150,3655
2021-12-27 14:53:36.589160,3954
2021-12-27 14:53:36.589166,-398
2021-12-27 14:53:36.589173,203
2021-12-27 14:53:36.589184,-3354
2021-12-27 14:53:36.589192,-1750
2021-12-27 14:53:36.589198,-828
2021-12-27 14:53:36.831936,1331
2021-12-27 14:53:36.831965,4864
2021-12-27 14:53:36.831977,-5035
2021-12-27 14:53:36.831987,-6394
2021-12-27 14:53:36.831996,-1264
2021-12-27 14:53:36.832006,-2530
2021-12-27 14:53:36.832016,-187
2021-12-27 14:53:36.832025,-8899
2021-12-27 14:53:36.832034,-18228
2021-12-27 14:53:36.832044,-9849
2021-12-27 14:53:36.832053,1875
2021-12-27 14:53:36.832068,1588
2021-12-27 14:53:36.832078,622
2021-12-27 14:53:36.832087,3646
2021-12-27 14:53:36.832097,-8351
2021-12-27 14:53:36.832106,-7082
2021-12-27 14:53:36.832120,4366
2021-12-27 14:53:36.832130,3602
2021-12-27 14:53:36.832139,-4375
2021-12-27 14:53:36.832149,-12997
2021-12-27 14:53:36.832158,-553
2021-12-27 14:53:36.832177,3222
2021-12-27 14:53:36.832187,-664
2021-12-27 14:53:36.832196,-1597
2021-12-27 14:53:36.832206,-1641
2021-12-27 14:53:36.978766,1065
2021-12-27 14:53:36.978788,3732
2021-12-27 14:53:36.978798,-2486
2021-12-27 14:53:36.978808,-3975
2021-12-27 14:53:36.978828,4257
2021-12-27 14:53:36.978837,3632
2021-12-27 14:53:36.978846,-6547
2021-12-27 14:53:36.978856,-8828
2021-12-27 14:53:36.978865,-2211
2021-12-27 14:53:36.978885,-1868
2021-12-27 14:53:36.978894,3667
2021-12-27 14:53:36.978903,3852
2021-12-27 14:53:36.978913,-3456
2021-12-27 14:53:36.978922,-2623
2021-12-27 14:53:36.978932,657
2021-12-27 14:53:36.978941,-3736
2021-12-27 14:53:36.978950,-14958
2021-12-27 14:53:36.978960,-7524
2021-12-27 14:53:36.978974,1627
2021-12-27 14:53:36.978984,4118
2021-12-27 14:53:36.978999,-717
2021-12-27 14:53:36.979008,3530
2021-12-27 14:53:36.979017,2317
2021-12-27 14:53:37.270273,1322
2021-12-27 14:53:37.270299,1291
2021-12-27 14:53:37.270305,722
2021-12-27 14:53:37.270312,2417
2021-12-27 14:53:37.270318,-7540
2021-12-27 14:53:37.270324,-5267
2021-12-27 14:53:37.270330,4422
2021-12-27 14:53:37.270340,743
2021-12-27 14:53:37.270346,-3940
2021-12-27 14:53:37.270352,-7478
2021-12-27 14:53:37.270358,-11724
2021-12-27 14:53:37.270364,597
2021-12-27 14:53:37.270373,-4067
2021-12-27 14:53:37.270379,-2525
2021-12-27 14:53:37.270385,-2069
2021-12-27 14:53:37.270391,-9082
2021-12-27 14:53:37.270398,-9518
2021-12-27 14:53:37.270404,-13125
2021-12-27 14:53:37.270410,-2891
2021-12-27 14:53:37.270419,-669
2021-12-27 14:53:37.270425,-532
2021-12-27 14:53:37.270431,474
2021-12-27 14:53:37.270437,-150
2021-12-27 14:53:37.270443,2118
2021-12-27 14:53:37.270450,1102
2021-12-27 14:53:37.465570,2991
2021-12-27 14:53:37.465587,-2593
2021-12-27 14:53:37.465593,3750
2021-12-27 14:53:37.465598,1296
2021-12-27 14:53:37.465603,2743
2021-12-27 14:53:37.465611,-3107
2021-12-27 14:53:37.465616,-8552
2021-12-27 14:53:37.465621,-4639
2021-12-27 14:53:37.465626,3498
2021-12-27 14:53:37.465634,2046
2021-12-27 14:53:37.465639,3699
2021-12-27 14:53:37.465644,-3271
2021-12-27 14:53:37.465649,-11004
2021-12-27 14:53:37.465654,3097
2021-12-27 14:53:37.465663,3961
2021-12-27 14:53:37.465670,268
2021-12-27 14:53:37.465675,-1643
2021-12-27 14:53:37.465680,-5283
2021-12-27 14:53:37.465685,-4223
2021-12-27 14:53:37.465695,4470
2021-12-27 14:53:37.465701,-2370
2021-12-27 14:53:37.465706,-12363
2021-12-27 14:53:37.465712,1349
2021-12-27 14:53:37.661554,4778
2021-12-27 14:53:37.661583,4060
2021-12-27 14:53:37.661594,-3264
2021-12-27 14:53:37.661604,-1923
2021-12-27 14:53:37.661614,4255
2021-12-27 14:53:37.661633,1560
2021-12-27 14:53:37.661643,-4493
2021-12-27 14:53:37.661652,-11347
2021-12-27 14:53:37.661662,-2187
2021-12-27 14:53:37.661676,3722
2021-12-27 14:53:37.661686,2118
