Time,ECG
2021-12-27 14:37:46.317429,388
2021-12-27 14:37:46.317451,338
2021-12-27 14:37:46.317456,222
2021-12-27 14:37:46.317461,159
2021-12-27 14:37:46.317465,101
2021-12-27 14:37:46.317469,-2
2021-12-27 14:37:46.317473,-104
2021-12-27 14:37:46.317478,-157
2021-12-27 14:37:46.317482,-178
2021-12-27 14:37:46.317486,-238
2021-12-27 14:37:46.317491,-319
2021-12-27 14:37:46.317495,-300
2021-12-27 14:37:46.317500,-192
2021-12-27 14:37:46.317505,-155
2021-12-27 14:37:46.317509,-187
2021-12-27 14:37:46.317513,-187
2021-12-27 14:37:46.317517,-185
2021-12-27 14:37:46.317522,-226
2021-12-27 14:37:46.317526,-254
2021-12-27 14:37:46.317530,-206
2021-12-27 14:37:46.317534,-136
2021-12-27 14:37:46.317539,-97
2021-12-27 14:37:46.317543,-83
2021-12-27 14:37:46.317547,-169
2021-12-27 14:37:46.317551,-252
2021-12-27 14:37:46.317556,-194
2021-12-27 14:37:46.317560,-203
2021-12-27 14:37:46.317565,-317
2021-12-27 14:37:46.317569,-287
2021-12-27 14:37:46.317573,-157
2021-12-27 14:37:46.486637,-138
2021-12-27 14:37:46.486660,-185
2021-12-27 14:37:46.486667,-169
2021-12-27 14:37:46.486673,-155
2021-12-27 14:37:46.486679,-217
2021-12-27 14:37:46.486685,-287
2021-12-27 14:37:46.486693,-326
2021-12-27 14:37:46.486699,-351
2021-12-27 14:37:46.486705,-326
2021-12-27 14:37:46.486711,-275
2021-12-27 14:37:46.486717,-245
2021-12-27 14:37:46.486723,-222
2021-12-27 14:37:46.486729,-238
2021-12-27 14:37:46.486735,-273
2021-12-27 14:37:46.486741,-243
2021-12-27 14:37:46.486747,-178
2021-12-27 14:37:46.486754,-145
2021-12-27 14:37:46.486761,-155
2021-12-27 14:37:46.486767,-171
2021-12-27 14:37:46.486773,-178
2021-12-27 14:37:46.486779,-173
2021-12-27 14:37:46.486785,-162
2021-12-27 14:37:46.486791,-155
2021-12-27 14:37:46.486797,-134
2021-12-27 14:37:46.486803,-120
2021-12-27 14:37:46.486809,-159
2021-12-27 14:37:46.486815,-196
2021-12-27 14:37:46.486821,-67
2021-12-27 14:37:46.486827,486
2021-12-27 14:37:46.486837,1405
2021-12-27 14:37:46.728407,2208
2021-12-27 14:37:46.728426,2079
2021-12-27 14:37:46.728431,338
2021-12-27 14:37:46.728436,-1379
2021-12-27 14:37:46.728440,-1023
2021-12-27 14:37:46.728445,-138
2021-12-27 14:37:46.728449,-245
2021-12-27 14:37:46.728453,-349
2021-12-27 14:37:46.728458,-155
2021-12-27 14:37:46.728462,-173
2021-12-27 14:37:46.728466,-196
2021-12-27 14:37:46.728470,-32
2021-12-27 14:37:46.728475,23
2021-12-27 14:37:46.728485,-74
2021-12-27 14:37:46.728489,-118
2021-12-27 14:37:46.728494,-83
2021-12-27 14:37:46.728498,-27
2021-12-27 14:37:46.728502,37
2021-12-27 14:37:46.728507,90
2021-12-27 14:37:46.728511,106
2021-12-27 14:37:46.728515,97
2021-12-27 14:37:46.728520,97
2021-12-27 14:37:46.728524,157
2021-12-27 14:37:46.728528,252
2021-12-27 14:37:46.728533,305
2021-12-27 14:37:46.728537,275
2021-12-27 14:37:46.728542,240
2021-12-27 14:37:46.728546,298
2021-12-27 14:37:46.728550,356
2021-12-27 14:37:46.728556,344
2021-12-27 14:37:46.973455,331
2021-12-27 14:37:46.973476,342
2021-12-27 14:37:46.973483,326
2021-12-27 14:37:46.973490,256
2021-12-27 14:37:46.973496,171
2021-12-27 14:37:46.973502,122
2021-12-27 14:37:46.973508,87
2021-12-27 14:37:46.973514,0
2021-12-27 14:37:46.973520,-118
2021-12-27 14:37:46.973526,-208
2021-12-27 14:37:46.973532,-289
2021-12-27 14:37:46.973538,-361
2021-12-27 14:37:46.973544,-347
2021-12-27 14:37:46.973550,-289
2021-12-27 14:37:46.973557,-287
2021-12-27 14:37:46.973563,-294
2021-12-27 14:37:46.973569,-256
2021-12-27 14:37:46.973579,-243
2021-12-27 14:37:46.973585,-231
2021-12-27 14:37:46.973591,-169
2021-12-27 14:37:46.973597,-143
2021-12-27 14:37:46.973603,-182
2021-12-27 14:37:46.973609,-150
2021-12-27 14:37:46.973616,-71
2021-12-27 14:37:46.973622,-97
2021-12-27 14:37:46.973639,-173
2021-12-27 14:37:46.973646,-171
2021-12-27 14:37:46.973652,-134
2021-12-27 14:37:46.973658,-129
2021-12-27 14:37:46.973664,-166
2021-12-27 14:37:47.169047,-185
2021-12-27 14:37:47.169068,-113
2021-12-27 14:37:47.169075,-76
2021-12-27 14:37:47.169082,-166
2021-12-27 14:37:47.169088,-243
2021-12-27 14:37:47.169094,-240
2021-12-27 14:37:47.169100,-222
2021-12-27 14:37:47.169111,-233
2021-12-27 14:37:47.169117,-254
2021-12-27 14:37:47.169123,-233
2021-12-27 14:37:47.169129,-217
2021-12-27 14:37:47.169136,-245
2021-12-27 14:37:47.169142,-250
2021-12-27 14:37:47.169148,-201
2021-12-27 14:37:47.169154,-178
2021-12-27 14:37:47.169160,-199
2021-12-27 14:37:47.169166,-171
2021-12-27 14:37:47.169172,-141
2021-12-27 14:37:47.169178,-185
2021-12-27 14:37:47.169185,-182
2021-12-27 14:37:47.169191,-159
2021-12-27 14:37:47.169197,-201
2021-12-27 14:37:47.169203,-180
2021-12-27 14:37:47.169209,-90
2021-12-27 14:37:47.169215,-81
2021-12-27 14:37:47.169222,-115
2021-12-27 14:37:47.169228,-131
2021-12-27 14:37:47.169234,-159
2021-12-27 14:37:47.169240,16
2021-12-27 14:37:47.169248,636
2021-12-27 14:37:47.461427,1523
2021-12-27 14:37:47.461457,2187
2021-12-27 14:37:47.461468,1694
2021-12-27 14:37:47.461478,-233
2021-12-27 14:37:47.461488,-1386
2021-12-27 14:37:47.461497,-613
2021-12-27 14:37:47.461506,-71
2021-12-27 14:37:47.461516,-363
2021-12-27 14:37:47.461525,-277
2021-12-27 14:37:47.461535,-37
2021-12-27 14:37:47.461544,-92
2021-12-27 14:37:47.461554,-115
2021-12-27 14:37:47.461563,-64
2021-12-27 14:37:47.461572,-104
2021-12-27 14:37:47.461582,-127
2021-12-27 14:37:47.461591,-69
2021-12-27 14:37:47.461601,9
2021-12-27 14:37:47.461611,2
2021-12-27 14:37:47.461620,-87
2021-12-27 14:37:47.461629,-53
2021-12-27 14:37:47.461639,34
2021-12-27 14:37:47.461649,2
2021-12-27 14:37:47.461658,37
2021-12-27 14:37:47.461667,189
2021-12-27 14:37:47.461684,199
2021-12-27 14:37:47.461694,118
2021-12-27 14:37:47.461704,175
2021-12-27 14:37:47.461713,259
2021-12-27 14:37:47.461723,259
2021-12-27 14:37:47.461732,247
2021-12-27 14:37:47.606994,261
2021-12-27 14:37:47.607009,289
2021-12-27 14:37:47.607015,284
2021-12-27 14:37:47.607019,261
2021-12-27 14:37:47.607023,256
2021-12-27 14:37:47.607028,250
2021-12-27 14:37:47.607032,182
2021-12-27 14:37:47.607037,57
2021-12-27 14:37:47.607041,-50
2021-12-27 14:37:47.607045,-138
2021-12-27 14:37:47.607050,-208
2021-12-27 14:37:47.607054,-185
2021-12-27 14:37:47.607058,-125
2021-12-27 14:37:47.607063,-162
2021-12-27 14:37:47.607067,-231
2021-12-27 14:37:47.607071,-171
2021-12-27 14:37:47.607075,-62
2021-12-27 14:37:47.607080,-76
2021-12-27 14:37:47.607084,-138
2021-12-27 14:37:47.607088,-122
2021-12-27 14:37:47.607093,-118
2021-12-27 14:37:47.607097,-196
2021-12-27 14:37:47.607103,-180
2021-12-27 14:37:47.607107,-34
2021-12-27 14:37:47.607111,13
2021-12-27 14:37:47.607116,-57
2021-12-27 14:37:47.607120,-90
2021-12-27 14:37:47.607124,-64
2021-12-27 14:37:47.607128,-50
2021-12-27 14:37:47.607133,-87
2021-12-27 14:37:47.851100,-87
2021-12-27 14:37:47.851120,4
2021-12-27 14:37:47.851136,16
2021-12-27 14:37:47.851147,-83
2021-12-27 14:37:47.851159,-101
2021-12-27 14:37:47.851199,-81
2021-12-27 14:37:47.851213,-122
2021-12-27 14:37:47.851220,-113
2021-12-27 14:37:47.851226,-55
2021-12-27 14:37:47.851232,-92
2021-12-27 14:37:47.851239,-152
2021-12-27 14:37:47.851245,-152
2021-12-27 14:37:47.851251,-148
2021-12-27 14:37:47.851257,-138
2021-12-27 14:37:47.851263,-127
2021-12-27 14:37:47.851269,-152
2021-12-27 14:37:47.851275,-171
2021-12-27 14:37:47.851282,-169
2021-12-27 14:37:47.851288,-194
2021-12-27 14:37:47.851294,-236
2021-12-27 14:37:47.851300,-247
2021-12-27 14:37:47.851306,-247
2021-12-27 14:37:47.851312,-256
2021-12-27 14:37:47.851318,-254
2021-12-27 14:37:47.851328,-247
2021-12-27 14:37:47.851334,-224
2021-12-27 14:37:47.851341,-180
2021-12-27 14:37:47.851347,-217
2021-12-27 14:37:47.851353,-157
2021-12-27 14:37:47.851359,393
2021-12-27 14:37:48.094647,1296
2021-12-27 14:37:48.094666,2030
2021-12-27 14:37:48.094673,1868
2021-12-27 14:37:48.094682,215
2021-12-27 14:37:48.094688,-1379
2021-12-27 14:37:48.094694,-1060
2021-12-27 14:37:48.094700,-275
2021-12-27 14:37:48.094708,-333
2021-12-27 14:37:48.094714,-319
2021-12-27 14:37:48.094720,-67
2021-12-27 14:37:48.094727,-131
2021-12-27 14:37:48.094733,-273
2021-12-27 14:37:48.094739,-180
2021-12-27 14:37:48.094745,-115
2021-12-27 14:37:48.094751,-136
2021-12-27 14:37:48.094757,-48
2021-12-27 14:37:48.094764,34
2021-12-27 14:37:48.094770,13
2021-12-27 14:37:48.094776,13
2021-12-27 14:37:48.094783,60
2021-12-27 14:37:48.094789,50
2021-12-27 14:37:48.094795,11
2021-12-27 14:37:48.094801,101
2021-12-27 14:37:48.094807,229
2021-12-27 14:37:48.094813,194
2021-12-27 14:37:48.094819,138
2021-12-27 14:37:48.094826,203
2021-12-27 14:37:48.094832,261
2021-12-27 14:37:48.094838,263
2021-12-27 14:37:48.094844,287
2021-12-27 14:37:48.339002,307
2021-12-27 14:37:48.339022,266
2021-12-27 14:37:48.339030,217
2021-12-27 14:37:48.339036,226
2021-12-27 14:37:48.339043,247
2021-12-27 14:37:48.339049,233
2021-12-27 14:37:48.339055,196
2021-12-27 14:37:48.339061,94
2021-12-27 14:37:48.339067,-39
2021-12-27 14:37:48.339073,-94
2021-12-27 14:37:48.339080,-83
2021-12-27 14:37:48.339086,-111
2021-12-27 14:37:48.339092,-150
2021-12-27 14:37:48.339098,-152
2021-12-27 14:37:48.339104,-178
2021-12-27 14:37:48.339110,-201
2021-12-27 14:37:48.339117,-157
2021-12-27 14:37:48.339123,-111
2021-12-27 14:37:48.339129,-92
2021-12-27 14:37:48.339135,-90
2021-12-27 14:37:48.339141,-122
2021-12-27 14:37:48.339147,-138
2021-12-27 14:37:48.339153,-74
2021-12-27 14:37:48.339160,-25
2021-12-27 14:37:48.339166,-53
2021-12-27 14:37:48.339172,-74
2021-12-27 14:37:48.339178,-78
2021-12-27 14:37:48.339184,-134
2021-12-27 14:37:48.339190,-187
2021-12-27 14:37:48.339197,-164
2021-12-27 14:37:48.534301,-143
2021-12-27 14:37:48.534321,-152
2021-12-27 14:37:48.534329,-131
2021-12-27 14:37:48.534335,-101
2021-12-27 14:37:48.534341,-101
2021-12-27 14:37:48.534347,-87
2021-12-27 14:37:48.534354,-60
2021-12-27 14:37:48.534360,-48
2021-12-27 14:37:48.534366,-90
2021-12-27 14:37:48.534372,-169
2021-12-27 14:37:48.534383,-145
2021-12-27 14:37:48.534389,-37
2021-12-27 14:37:48.534395,-13
2021-12-27 14:37:48.534401,-69
2021-12-27 14:37:48.534408,-76
2021-12-27 14:37:48.534414,-27
2021-12-27 14:37:48.534420,-32
2021-12-27 14:37:48.534426,-134
2021-12-27 14:37:48.534433,-173
2021-12-27 14:37:48.534439,-90
2021-12-27 14:37:48.534445,-62
2021-12-27 14:37:48.534451,-131
2021-12-27 14:37:48.534457,-169
2021-12-27 14:37:48.534463,-166
2021-12-27 14:37:48.534469,-199
2021-12-27 14:37:48.534476,-263
2021-12-27 14:37:48.534482,-273
2021-12-27 14:37:48.534488,-62
2021-12-27 14:37:48.534494,504
2021-12-27 14:37:48.534500,1328
2021-12-27 14:37:48.825314,1947
2021-12-27 14:37:48.825343,1484
2021-12-27 14:37:48.825355,-305
2021-12-27 14:37:48.825364,-1460
2021-12-27 14:37:48.825374,-861
2021-12-27 14:37:48.825384,-319
2021-12-27 14:37:48.825393,-463
2021-12-27 14:37:48.825403,-349
2021-12-27 14:37:48.825412,-157
2021-12-27 14:37:48.825422,-208
2021-12-27 14:37:48.825431,-231
2021-12-27 14:37:48.825441,-171
2021-12-27 14:37:48.825450,-150
2021-12-27 14:37:48.825460,-143
2021-12-27 14:37:48.825469,-71
2021-12-27 14:37:48.825479,13
2021-12-27 14:37:48.825489,9
2021-12-27 14:37:48.825498,-53
2021-12-27 14:37:48.825508,-4
2021-12-27 14:37:48.825517,111
2021-12-27 14:37:48.825527,92
2021-12-27 14:37:48.825537,60
2021-12-27 14:37:48.825546,148
2021-12-27 14:37:48.825556,178
2021-12-27 14:37:48.825565,118
2021-12-27 14:37:48.825582,118
2021-12-27 14:37:48.825593,180
2021-12-27 14:37:48.825602,210
2021-12-27 14:37:48.825612,210
2021-12-27 14:37:48.825621,201
2021-12-27 14:37:49.021669,187
2021-12-27 14:37:49.021690,208
2021-12-27 14:37:49.021698,215
2021-12-27 14:37:49.021704,155
2021-12-27 14:37:49.021711,76
2021-12-27 14:37:49.021717,6
2021-12-27 14:37:49.021723,-76
2021-12-27 14:37:49.021729,-178
2021-12-27 14:37:49.021735,-256
2021-12-27 14:37:49.021742,-236
2021-12-27 14:37:49.021748,-169
2021-12-27 14:37:49.021754,-219
2021-12-27 14:37:49.021760,-298
2021-12-27 14:37:49.021766,-254
2021-12-27 14:37:49.021773,-245
2021-12-27 14:37:49.021779,-298
2021-12-27 14:37:49.021785,-203
2021-12-27 14:37:49.021791,-99
2021-12-27 14:37:49.021797,-159
2021-12-27 14:37:49.021804,-173
2021-12-27 14:37:49.021810,-83
2021-12-27 14:37:49.021816,-69
2021-12-27 14:37:49.021822,-108
2021-12-27 14:37:49.021828,-76
2021-12-27 14:37:49.021834,-57
2021-12-27 14:37:49.021841,-125
2021-12-27 14:37:49.021847,-173
2021-12-27 14:37:49.021853,-166
2021-12-27 14:37:49.021859,-120
2021-12-27 14:37:49.021865,-62
2021-12-27 14:37:49.313936,-90
2021-12-27 14:37:49.313966,-141
2021-12-27 14:37:49.313978,-78
2021-12-27 14:37:49.313988,-46
2021-12-27 14:37:49.313997,-108
2021-12-27 14:37:49.314007,-81
2021-12-27 14:37:49.314017,0
2021-12-27 14:37:49.314026,-25
2021-12-27 14:37:49.314036,-99
2021-12-27 14:37:49.314045,-122
2021-12-27 14:37:49.314055,-69
2021-12-27 14:37:49.314064,9
2021-12-27 14:37:49.314074,37
2021-12-27 14:37:49.314083,0
2021-12-27 14:37:49.314093,-53
2021-12-27 14:37:49.314102,-76
2021-12-27 14:37:49.314120,-85
2021-12-27 14:37:49.314130,-76
2021-12-27 14:37:49.314139,-55
2021-12-27 14:37:49.314149,-87
2021-12-27 14:37:49.314158,-118
2021-12-27 14:37:49.314168,-85
2021-12-27 14:37:49.314177,-57
2021-12-27 14:37:49.314186,-76
2021-12-27 14:37:49.314196,-85
2021-12-27 14:37:49.314205,101
2021-12-27 14:37:49.314215,659
2021-12-27 14:37:49.314224,1435
2021-12-27 14:37:49.314234,1963
2021-12-27 14:37:49.314243,1370
2021-12-27 14:37:49.459523,-463
2021-12-27 14:37:49.459542,-1447
2021-12-27 14:37:49.459549,-733
2021-12-27 14:37:49.459555,-282
2021-12-27 14:37:49.459562,-465
2021-12-27 14:37:49.459568,-296
2021-12-27 14:37:49.459574,-71
2021-12-27 14:37:49.459581,-125
2021-12-27 14:37:49.459587,-189
2021-12-27 14:37:49.459593,-171
2021-12-27 14:37:49.459599,-145
2021-12-27 14:37:49.459605,-127
2021-12-27 14:37:49.459612,-76
2021-12-27 14:37:49.459618,-18
2021-12-27 14:37:49.459624,-13
2021-12-27 14:37:49.459630,-30
2021-12-27 14:37:49.459637,-6
2021-12-27 14:37:49.459643,60
2021-12-27 14:37:49.459649,60
2021-12-27 14:37:49.459656,6
2021-12-27 14:37:49.459662,92
2021-12-27 14:37:49.459668,208
2021-12-27 14:37:49.459675,129
2021-12-27 14:37:49.459681,60
2021-12-27 14:37:49.459687,187
2021-12-27 14:37:49.459693,259
2021-12-27 14:37:49.459700,180
2021-12-27 14:37:49.459706,173
2021-12-27 14:37:49.459712,231
2021-12-27 14:37:49.459719,222
2021-12-27 14:37:49.704073,192
2021-12-27 14:37:49.704095,199
2021-12-27 14:37:49.704102,175
2021-12-27 14:37:49.704108,60
2021-12-27 14:37:49.704114,-37
2021-12-27 14:37:49.704121,-83
2021-12-27 14:37:49.704127,-148
2021-12-27 14:37:49.704133,-208
2021-12-27 14:37:49.704139,-231
2021-12-27 14:37:49.704145,-213
2021-12-27 14:37:49.704151,-199
2021-12-27 14:37:49.704157,-219
2021-12-27 14:37:49.704164,-210
2021-12-27 14:37:49.704173,-180
2021-12-27 14:37:49.704179,-150
2021-12-27 14:37:49.704185,-108
2021-12-27 14:37:49.704192,-106
2021-12-27 14:37:49.704198,-111
2021-12-27 14:37:49.704204,-81
2021-12-27 14:37:49.704210,-53
2021-12-27 14:37:49.704216,-41
2021-12-27 14:37:49.704222,-43
2021-12-27 14:37:49.704228,-43
2021-12-27 14:37:49.704235,-25
2021-12-27 14:37:49.704241,-25
2021-12-27 14:37:49.704247,-30
2021-12-27 14:37:49.704253,-13
2021-12-27 14:37:49.704259,0
2021-12-27 14:37:49.704266,-4
2021-12-27 14:37:49.704272,-11
2021-12-27 14:37:49.947802,-37
2021-12-27 14:37:49.947822,-60
2021-12-27 14:37:49.947829,-18
2021-12-27 14:37:49.947836,37
2021-12-27 14:37:49.947842,20
2021-12-27 14:37:49.947848,-11
2021-12-27 14:37:49.947855,-18
2021-12-27 14:37:49.947861,-46
2021-12-27 14:37:49.947867,-71
2021-12-27 14:37:49.947873,-67
2021-12-27 14:37:49.947880,-39
2021-12-27 14:37:49.947886,32
2021-12-27 14:37:49.947892,34
2021-12-27 14:37:49.947898,-85
2021-12-27 14:37:49.947904,-115
2021-12-27 14:37:49.947910,-46
2021-12-27 14:37:49.947917,-69
2021-12-27 14:37:49.947923,-127
2021-12-27 14:37:49.947929,-115
2021-12-27 14:37:49.947935,-104
2021-12-27 14:37:49.947941,-148
2021-12-27 14:37:49.947947,-178
2021-12-27 14:37:49.947954,25
2021-12-27 14:37:49.947960,657
2021-12-27 14:37:49.947966,1576
2021-12-27 14:37:49.947972,2218
2021-12-27 14:37:49.947979,1565
2021-12-27 14:37:49.947985,-398
2021-12-27 14:37:49.947991,-1389
2021-12-27 14:37:49.947997,-657
2021-12-27 14:37:50.142875,-273
2021-12-27 14:37:50.142905,-469
2021-12-27 14:37:50.142917,-245
2021-12-27 14:37:50.142926,-94
2021-12-27 14:37:50.142935,-289
2021-12-27 14:37:50.142945,-294
2021-12-27 14:37:50.142954,-111
2021-12-27 14:37:50.142963,-85
2021-12-27 14:37:50.142973,-187
2021-12-27 14:37:50.142982,-192
2021-12-27 14:37:50.142991,-92
2021-12-27 14:37:50.143001,-32
2021-12-27 14:37:50.143010,-23
2021-12-27 14:37:50.143019,0
2021-12-27 14:37:50.143029,-30
2021-12-27 14:37:50.143038,-67
2021-12-27 14:37:50.143047,20
2021-12-27 14:37:50.143061,97
2021-12-27 14:37:50.143071,94
2021-12-27 14:37:50.143080,141
2021-12-27 14:37:50.143090,215
2021-12-27 14:37:50.143099,226
2021-12-27 14:37:50.143108,180
2021-12-27 14:37:50.143118,150
2021-12-27 14:37:50.143127,199
2021-12-27 14:37:50.143137,287
2021-12-27 14:37:50.143146,287
2021-12-27 14:37:50.143155,199
2021-12-27 14:37:50.143165,180
2021-12-27 14:37:50.143174,185
2021-12-27 14:37:50.386208,97
2021-12-27 14:37:50.386230,18
2021-12-27 14:37:50.386289,-11
2021-12-27 14:37:50.386307,-108
2021-12-27 14:37:50.386315,-213
2021-12-27 14:37:50.386322,-224
2021-12-27 14:37:50.386328,-233
2021-12-27 14:37:50.386334,-250
2021-12-27 14:37:50.386340,-213
2021-12-27 14:37:50.386346,-215
2021-12-27 14:37:50.386352,-252
2021-12-27 14:37:50.386358,-233
2021-12-27 14:37:50.386364,-178
2021-12-27 14:37:50.386371,-104
2021-12-27 14:37:50.386377,-99
2021-12-27 14:37:50.386383,-169
2021-12-27 14:37:50.386389,-138
2021-12-27 14:37:50.386395,-60
2021-12-27 14:37:50.386401,-71
2021-12-27 14:37:50.386407,-78
2021-12-27 14:37:50.386413,-76
2021-12-27 14:37:50.386419,-138
2021-12-27 14:37:50.386425,-180
2021-12-27 14:37:50.386431,-155
2021-12-27 14:37:50.386437,-122
2021-12-27 14:37:50.386443,-85
2021-12-27 14:37:50.386449,-69
2021-12-27 14:37:50.386455,-115
2021-12-27 14:37:50.386462,-143
2021-12-27 14:37:50.386468,-94
2021-12-27 14:37:50.630269,-50
2021-12-27 14:37:50.630290,-57
2021-12-27 14:37:50.630297,-50
2021-12-27 14:37:50.630304,-13
2021-12-27 14:37:50.630310,-13
2021-12-27 14:37:50.630316,-67
2021-12-27 14:37:50.630322,-76
2021-12-27 14:37:50.630328,-9
2021-12-27 14:37:50.630334,-13
2021-12-27 14:37:50.630341,-94
2021-12-27 14:37:50.630347,-108
2021-12-27 14:37:50.630353,-99
2021-12-27 14:37:50.630359,-125
2021-12-27 14:37:50.630366,-122
2021-12-27 14:37:50.630372,-97
2021-12-27 14:37:50.630378,-85
2021-12-27 14:37:50.630384,-57
2021-12-27 14:37:50.630390,-57
2021-12-27 14:37:50.630397,-127
2021-12-27 14:37:50.630403,-74
2021-12-27 14:37:50.630409,386
2021-12-27 14:37:50.630415,1213
2021-12-27 14:37:50.630421,2039
2021-12-27 14:37:50.630427,2116
2021-12-27 14:37:50.630433,548
2021-12-27 14:37:50.630440,-1227
2021-12-27 14:37:50.630446,-990
2021-12-27 14:37:50.630452,-185
2021-12-27 14:37:50.630458,-340
2021-12-27 14:37:50.630468,-375
2021-12-27 14:37:50.921618,-97
2021-12-27 14:37:50.921647,-134
2021-12-27 14:37:50.921658,-194
2021-12-27 14:37:50.921668,-115
2021-12-27 14:37:50.921677,-118
2021-12-27 14:37:50.921686,-108
2021-12-27 14:37:50.921696,-62
2021-12-27 14:37:50.921705,-104
2021-12-27 14:37:50.921714,-94
2021-12-27 14:37:50.921724,9
2021-12-27 14:37:50.921733,2
2021-12-27 14:37:50.921743,-57
2021-12-27 14:37:50.921752,-6
2021-12-27 14:37:50.921761,39
2021-12-27 14:37:50.921771,-18
2021-12-27 14:37:50.921780,-23
2021-12-27 14:37:50.921790,64
2021-12-27 14:37:50.921799,97
2021-12-27 14:37:50.921808,97
2021-12-27 14:37:50.921818,175
2021-12-27 14:37:50.921827,236
2021-12-27 14:37:50.921837,196
2021-12-27 14:37:50.921846,157
2021-12-27 14:37:50.921856,180
2021-12-27 14:37:50.921865,208
2021-12-27 14:37:50.921874,171
2021-12-27 14:37:50.921884,99
2021-12-27 14:37:50.921893,39
2021-12-27 14:37:50.921903,-41
2021-12-27 14:37:50.921912,-131
2021-12-27 14:37:51.069380,-189
2021-12-27 14:37:51.069401,-219
2021-12-27 14:37:51.069408,-240
2021-12-27 14:37:51.069415,-252
2021-12-27 14:37:51.069421,-270
2021-12-27 14:37:51.069427,-266
2021-12-27 14:37:51.069434,-192
2021-12-27 14:37:51.069440,-150
2021-12-27 14:37:51.069446,-199
2021-12-27 14:37:51.069452,-229
2021-12-27 14:37:51.069458,-159
2021-12-27 14:37:51.069464,-106
2021-12-27 14:37:51.069471,-125
2021-12-27 14:37:51.069477,-148
2021-12-27 14:37:51.069483,-187
2021-12-27 14:37:51.069489,-229
2021-12-27 14:37:51.069495,-194
2021-12-27 14:37:51.069501,-155
2021-12-27 14:37:51.069508,-175
2021-12-27 14:37:51.069514,-152
2021-12-27 14:37:51.069520,-81
2021-12-27 14:37:51.069526,-92
2021-12-27 14:37:51.069532,-134
2021-12-27 14:37:51.069539,-81
2021-12-27 14:37:51.069545,-20
2021-12-27 14:37:51.069551,-60
2021-12-27 14:37:51.069557,-90
2021-12-27 14:37:51.069563,-69
2021-12-27 14:37:51.069570,-74
2021-12-27 14:37:51.069576,-48
2021-12-27 14:37:51.312247,-13
2021-12-27 14:37:51.312267,-23
2021-12-27 14:37:51.312275,-27
2021-12-27 14:37:51.312281,-43
2021-12-27 14:37:51.312287,-67
2021-12-27 14:37:51.312293,-30
2021-12-27 14:37:51.312299,2
2021-12-27 14:37:51.312305,-4
2021-12-27 14:37:51.312312,0
2021-12-27 14:37:51.312318,-27
2021-12-27 14:37:51.312324,-78
2021-12-27 14:37:51.312330,-74
2021-12-27 14:37:51.312336,-53
2021-12-27 14:37:51.312342,-62
2021-12-27 14:37:51.312348,-60
2021-12-27 14:37:51.312354,-87
2021-12-27 14:37:51.312360,-145
2021-12-27 14:37:51.312366,-111
2021-12-27 14:37:51.312372,196
2021-12-27 14:37:51.312378,879
2021-12-27 14:37:51.312387,1731
2021-12-27 14:37:51.312394,2155
2021-12-27 14:37:51.312400,1162
2021-12-27 14:37:51.312406,-773
2021-12-27 14:37:51.312412,-1250
2021-12-27 14:37:51.312418,-377
2021-12-27 14:37:51.312424,-189
2021-12-27 14:37:51.312431,-384
2021-12-27 14:37:51.312437,-159
2021-12-27 14:37:51.312443,-39
2021-12-27 14:37:51.556142,-155
2021-12-27 14:37:51.556163,-148
2021-12-27 14:37:51.556170,-101
2021-12-27 14:37:51.556177,-143
2021-12-27 14:37:51.556183,-178
2021-12-27 14:37:51.556190,-206
2021-12-27 14:37:51.556196,-215
2021-12-27 14:37:51.556202,-148
2021-12-27 14:37:51.556208,-83
2021-12-27 14:37:51.556214,-97
2021-12-27 14:37:51.556220,-69
2021-12-27 14:37:51.556235,25
2021-12-27 14:37:51.556242,11
2021-12-27 14:37:51.556248,-39
2021-12-27 14:37:51.556254,32
2021-12-27 14:37:51.556260,92
2021-12-27 14:37:51.556267,81
2021-12-27 14:37:51.556273,81
2021-12-27 14:37:51.556279,62
2021-12-27 14:37:51.556285,55
2021-12-27 14:37:51.556291,108
2021-12-27 14:37:51.556297,131
2021-12-27 14:37:51.556304,106
2021-12-27 14:37:51.556310,120
2021-12-27 14:37:51.556354,143
2021-12-27 14:37:51.556361,74
2021-12-27 14:37:51.556367,-30
2021-12-27 14:37:51.556374,-74
2021-12-27 14:37:51.556380,-90
2021-12-27 14:37:51.556386,-125
2021-12-27 14:37:51.849147,-171
2021-12-27 14:37:51.849176,-192
2021-12-27 14:37:51.849187,-210
2021-12-27 14:37:51.849197,-238
2021-12-27 14:37:51.849206,-206
2021-12-27 14:37:51.849216,-108
2021-12-27 14:37:51.849225,-64
2021-12-27 14:37:51.849234,-125
2021-12-27 14:37:51.849243,-152
2021-12-27 14:37:51.849253,-97
2021-12-27 14:37:51.849262,-67
2021-12-27 14:37:51.849271,-108
2021-12-27 14:37:51.849280,-113
2021-12-27 14:37:51.849290,-41
2021-12-27 14:37:51.849299,-32
2021-12-27 14:37:51.849308,-106
2021-12-27 14:37:51.849318,-90
2021-12-27 14:37:51.849327,-6
2021-12-27 14:37:51.849336,-32
2021-12-27 14:37:51.849345,-113
2021-12-27 14:37:51.849355,-115
2021-12-27 14:37:51.849364,-87
2021-12-27 14:37:51.849373,-94
2021-12-27 14:37:51.849382,-78
2021-12-27 14:37:51.849392,-32
2021-12-27 14:37:51.849401,-18
2021-12-27 14:37:51.849410,-23
2021-12-27 14:37:51.849420,-4
2021-12-27 14:37:51.849429,2
2021-12-27 14:37:51.849438,-13
2021-12-27 14:37:52.044397,6
2021-12-27 14:37:52.044428,34
2021-12-27 14:37:52.044439,20
2021-12-27 14:37:52.044449,-20
2021-12-27 14:37:52.044459,-46
2021-12-27 14:37:52.044468,30
2021-12-27 14:37:52.044478,145
2021-12-27 14:37:52.044487,152
2021-12-27 14:37:52.044497,85
2021-12-27 14:37:52.044506,6
2021-12-27 14:37:52.044516,-53
2021-12-27 14:37:52.044525,-69
2021-12-27 14:37:52.044535,-27
2021-12-27 14:37:52.044544,69
2021-12-27 14:37:52.044554,99
2021-12-27 14:37:52.044563,11
2021-12-27 14:37:52.044573,-62
2021-12-27 14:37:52.044582,-64
2021-12-27 14:37:52.044592,32
2021-12-27 14:37:52.044601,460
2021-12-27 14:37:52.044611,1275
2021-12-27 14:37:52.044620,2058
2021-12-27 14:37:52.044635,2000
2021-12-27 14:37:52.044644,398
2021-12-27 14:37:52.044654,-1208
2021-12-27 14:37:52.044663,-884
2021-12-27 14:37:52.044673,-173
2021-12-27 14:37:52.044683,-382
2021-12-27 14:37:52.044692,-356
2021-12-27 14:37:52.044702,-46
2021-12-27 14:37:52.238860,-131
2021-12-27 14:37:52.238922,-206
2021-12-27 14:37:52.238972,-69
2021-12-27 14:37:52.238985,-74
2021-12-27 14:37:52.238996,-120
2021-12-27 14:37:52.239006,-71
2021-12-27 14:37:52.239017,-50
2021-12-27 14:37:52.239028,-23
2021-12-27 14:37:52.239039,48
2021-12-27 14:37:52.239049,67
2021-12-27 14:37:52.239057,53
2021-12-27 14:37:52.239064,64
2021-12-27 14:37:52.239070,101
2021-12-27 14:37:52.239076,134
2021-12-27 14:37:52.239082,155
2021-12-27 14:37:52.239088,180
2021-12-27 14:37:52.239094,199
2021-12-27 14:37:52.239100,192
2021-12-27 14:37:52.239106,182
2021-12-27 14:37:52.239112,219
2021-12-27 14:37:52.239118,277
2021-12-27 14:37:52.239124,291
2021-12-27 14:37:52.239131,268
2021-12-27 14:37:52.239137,231
2021-12-27 14:37:52.239143,217
2021-12-27 14:37:52.239149,206
2021-12-27 14:37:52.239155,127
2021-12-27 14:37:52.239161,46
2021-12-27 14:37:52.239167,-4
2021-12-27 14:37:52.239173,-106
2021-12-27 14:37:52.482909,-169
2021-12-27 14:37:52.482930,-122
2021-12-27 14:37:52.482937,-122
2021-12-27 14:37:52.482944,-194
2021-12-27 14:37:52.482951,-171
2021-12-27 14:37:52.482957,-92
2021-12-27 14:37:52.482963,-125
2021-12-27 14:37:52.482969,-173
2021-12-27 14:37:52.482976,-127
2021-12-27 14:37:52.482982,-76
2021-12-27 14:37:52.482988,-71
2021-12-27 14:37:52.482994,-81
2021-12-27 14:37:52.483000,-76
2021-12-27 14:37:52.483006,-55
2021-12-27 14:37:52.483013,-97
2021-12-27 14:37:52.483019,-152
2021-12-27 14:37:52.483025,-113
2021-12-27 14:37:52.483032,-74
2021-12-27 14:37:52.483038,-104
2021-12-27 14:37:52.483044,-118
2021-12-27 14:37:52.483050,-106
2021-12-27 14:37:52.483056,-104
2021-12-27 14:37:52.483063,-71
2021-12-27 14:37:52.483069,-39
2021-12-27 14:37:52.483075,-67
2021-12-27 14:37:52.483081,-87
2021-12-27 14:37:52.483087,-60
2021-12-27 14:37:52.483093,-46
2021-12-27 14:37:52.483100,-41
2021-12-27 14:37:52.483106,-9
2021-12-27 14:37:52.726284,27
2021-12-27 14:37:52.726313,6
2021-12-27 14:37:52.726325,-62
2021-12-27 14:37:52.726335,-71
2021-12-27 14:37:52.726344,-20
2021-12-27 14:37:52.726354,6
2021-12-27 14:37:52.726363,39
2021-12-27 14:37:52.726372,64
2021-12-27 14:37:52.726382,11
2021-12-27 14:37:52.726391,-18
2021-12-27 14:37:52.726401,34
2021-12-27 14:37:52.726410,62
2021-12-27 14:37:52.726419,39
2021-12-27 14:37:52.726429,16
2021-12-27 14:37:52.726495,-37
2021-12-27 14:37:52.726508,-113
2021-12-27 14:37:52.726517,-67
2021-12-27 14:37:52.726527,48
2021-12-27 14:37:52.726536,18
2021-12-27 14:37:52.726545,-104
2021-12-27 14:37:52.726555,-90
2021-12-27 14:37:52.726564,155
2021-12-27 14:37:52.726574,726
2021-12-27 14:37:52.726583,1613
2021-12-27 14:37:52.726593,2326
2021-12-27 14:37:52.726602,1713
2021-12-27 14:37:52.726611,-338
2021-12-27 14:37:52.726621,-1409
2021-12-27 14:37:52.726630,-650
2021-12-27 14:37:52.726640,-219
2021-12-27 14:37:52.969258,-439
2021-12-27 14:37:52.969288,-270
2021-12-27 14:37:52.969299,-106
2021-12-27 14:37:52.969308,-266
2021-12-27 14:37:52.969317,-298
2021-12-27 14:37:52.969334,-141
2021-12-27 14:37:52.969345,-81
2021-12-27 14:37:52.969354,-113
2021-12-27 14:37:52.969363,-87
2021-12-27 14:37:52.969373,-69
2021-12-27 14:37:52.969382,-81
2021-12-27 14:37:52.969392,-27
2021-12-27 14:37:52.969401,23
2021-12-27 14:37:52.969411,20
2021-12-27 14:37:52.969420,57
2021-12-27 14:37:52.969430,87
2021-12-27 14:37:52.969439,83
2021-12-27 14:37:52.969449,118
2021-12-27 14:37:52.969458,171
2021-12-27 14:37:52.969467,203
2021-12-27 14:37:52.969477,189
2021-12-27 14:37:52.969486,157
2021-12-27 14:37:52.969496,155
2021-12-27 14:37:52.969505,162
2021-12-27 14:37:52.969514,192
2021-12-27 14:37:52.969524,231
2021-12-27 14:37:52.969533,171
2021-12-27 14:37:52.969542,97
2021-12-27 14:37:52.969552,145
2021-12-27 14:37:52.969561,118
2021-12-27 14:37:53.213145,-55
2021-12-27 14:37:53.213172,-134
2021-12-27 14:37:53.213183,-136
2021-12-27 14:37:53.213195,-222
2021-12-27 14:37:53.213208,-314
2021-12-27 14:37:53.213220,-333
2021-12-27 14:37:53.213232,-303
2021-12-27 14:37:53.213244,-268
2021-12-27 14:37:53.213256,-238
2021-12-27 14:37:53.213267,-196
2021-12-27 14:37:53.213278,-185
2021-12-27 14:37:53.213290,-243
2021-12-27 14:37:53.213301,-284
2021-12-27 14:37:53.213312,-224
2021-12-27 14:37:53.213322,-157
2021-12-27 14:37:53.213333,-171
2021-12-27 14:37:53.213343,-159
2021-12-27 14:37:53.213355,-67
2021-12-27 14:37:53.213367,-25
2021-12-27 14:37:53.213379,-50
2021-12-27 14:37:53.213390,-34
2021-12-27 14:37:53.213402,-48
2021-12-27 14:37:53.213413,-106
2021-12-27 14:37:53.213424,-76
2021-12-27 14:37:53.213434,-9
2021-12-27 14:37:53.213444,-4
2021-12-27 14:37:53.213455,-23
2021-12-27 14:37:53.213466,-11
2021-12-27 14:37:53.213474,-6
2021-12-27 14:37:53.213481,-37
2021-12-27 14:37:53.457862,-23
2021-12-27 14:37:53.457882,16
2021-12-27 14:37:53.457890,-13
2021-12-27 14:37:53.457896,-50
2021-12-27 14:37:53.457902,-43
2021-12-27 14:37:53.457909,-43
2021-12-27 14:37:53.457915,-71
2021-12-27 14:37:53.457921,-111
2021-12-27 14:37:53.457927,-127
2021-12-27 14:37:53.457933,-138
2021-12-27 14:37:53.457939,-136
2021-12-27 14:37:53.457945,-64
2021-12-27 14:37:53.457951,-67
2021-12-27 14:37:53.457958,-166
2021-12-27 14:37:53.457964,-134
2021-12-27 14:37:53.457970,-69
2021-12-27 14:37:53.457976,-145
2021-12-27 14:37:53.457982,-104
2021-12-27 14:37:53.457989,39
2021-12-27 14:37:53.457995,-25
2021-12-27 14:37:53.458001,-155
2021-12-27 14:37:53.458007,-134
2021-12-27 14:37:53.458013,-166
2021-12-27 14:37:53.458019,-236
2021-12-27 14:37:53.458025,-155
2021-12-27 14:37:53.458031,-141
2021-12-27 14:37:53.458038,-298
2021-12-27 14:37:53.458044,-372
2021-12-27 14:37:53.458050,-273
2021-12-27 14:37:53.458056,155
2021-12-27 14:37:53.604280,1002
2021-12-27 14:37:53.604310,1877
2021-12-27 14:37:53.604321,2000
2021-12-27 14:37:53.604330,497
2021-12-27 14:37:53.604340,-1310
2021-12-27 14:37:53.604350,-1129
2021-12-27 14:37:53.604359,-256
2021-12-27 14:37:53.604368,-382
2021-12-27 14:37:53.604378,-483
2021-12-27 14:37:53.604388,-226
2021-12-27 14:37:53.604397,-238
2021-12-27 14:37:53.604407,-300
2021-12-27 14:37:53.604416,-171
2021-12-27 14:37:53.604426,-115
2021-12-27 14:37:53.604435,-159
2021-12-27 14:37:53.604445,-131
2021-12-27 14:37:53.604454,-81
2021-12-27 14:37:53.604463,-53
2021-12-27 14:37:53.604473,16
2021-12-27 14:37:53.604483,55
2021-12-27 14:37:53.604492,-18
2021-12-27 14:37:53.604502,-87
2021-12-27 14:37:53.604511,-9
2021-12-27 14:37:53.604521,127
2021-12-27 14:37:53.604531,162
2021-12-27 14:37:53.604540,131
2021-12-27 14:37:53.604550,173
2021-12-27 14:37:53.604559,263
2021-12-27 14:37:53.604569,284
2021-12-27 14:37:53.604578,273
2021-12-27 14:37:53.848389,277
2021-12-27 14:37:53.848423,282
2021-12-27 14:37:53.848435,284
2021-12-27 14:37:53.848445,252
2021-12-27 14:37:53.848454,171
2021-12-27 14:37:53.848463,99
2021-12-27 14:37:53.848473,76
2021-12-27 14:37:53.848482,37
2021-12-27 14:37:53.848492,-41
2021-12-27 14:37:53.848501,-127
2021-12-27 14:37:53.848511,-203
2021-12-27 14:37:53.848520,-256
2021-12-27 14:37:53.848530,-277
2021-12-27 14:37:53.848539,-256
2021-12-27 14:37:53.848549,-229
2021-12-27 14:37:53.848558,-256
2021-12-27 14:37:53.848567,-254
2021-12-27 14:37:53.848577,-162
2021-12-27 14:37:53.848586,-106
2021-12-27 14:37:53.848595,-129
2021-12-27 14:37:53.848605,-113
2021-12-27 14:37:53.848614,-83
2021-12-27 14:37:53.848623,-120
2021-12-27 14:37:53.848633,-178
2021-12-27 14:37:53.848642,-131
2021-12-27 14:37:53.848652,-16
2021-12-27 14:37:53.848661,-4
2021-12-27 14:37:53.848671,-55
2021-12-27 14:37:53.848680,-37
2021-12-27 14:37:53.848690,-20
2021-12-27 14:37:54.091866,-18
2021-12-27 14:37:54.091887,-27
2021-12-27 14:37:54.091894,-131
2021-12-27 14:37:54.091901,-169
2021-12-27 14:37:54.091907,-87
2021-12-27 14:37:54.091913,-94
2021-12-27 14:37:54.091919,-185
2021-12-27 14:37:54.091925,-192
2021-12-27 14:37:54.091931,-111
2021-12-27 14:37:54.091937,-104
2021-12-27 14:37:54.091944,-178
2021-12-27 14:37:54.091950,-162
2021-12-27 14:37:54.091956,-101
2021-12-27 14:37:54.091962,-138
2021-12-27 14:37:54.091968,-201
2021-12-27 14:37:54.091974,-166
2021-12-27 14:37:54.091981,-106
2021-12-27 14:37:54.091987,-138
2021-12-27 14:37:54.091993,-182
2021-12-27 14:37:54.091999,-141
2021-12-27 14:37:54.092005,-136
2021-12-27 14:37:54.092011,-201
2021-12-27 14:37:54.092017,-178
2021-12-27 14:37:54.092024,-143
2021-12-27 14:37:54.092030,-199
2021-12-27 14:37:54.092036,-159
2021-12-27 14:37:54.092042,-57
2021-12-27 14:37:54.092048,-97
2021-12-27 14:37:54.092054,-157
2021-12-27 14:37:54.092060,-101
2021-12-27 14:37:54.384355,-50
2021-12-27 14:37:54.384460,-81
2021-12-27 14:37:54.384476,-138
2021-12-27 14:37:54.384486,-178
2021-12-27 14:37:54.384496,-125
2021-12-27 14:37:54.384505,-30
2021-12-27 14:37:54.384515,-46
2021-12-27 14:37:54.384524,-152
2021-12-27 14:37:54.384534,-203
2021-12-27 14:37:54.384543,-219
2021-12-27 14:37:54.384553,-113
2021-12-27 14:37:54.384562,444
2021-12-27 14:37:54.384571,1359
2021-12-27 14:37:54.384581,2102
2021-12-27 14:37:54.384591,1798
2021-12-27 14:37:54.384600,-25
2021-12-27 14:37:54.384610,-1384
2021-12-27 14:37:54.384619,-766
2021-12-27 14:37:54.384629,-129
2021-12-27 14:37:54.384638,-372
2021-12-27 14:37:54.384648,-326
2021-12-27 14:37:54.384657,-83
2021-12-27 14:37:54.384666,-113
2021-12-27 14:37:54.384676,-111
2021-12-27 14:37:54.384685,-27
2021-12-27 14:37:54.384695,-34
2021-12-27 14:37:54.384704,-30
2021-12-27 14:37:54.384714,30
2021-12-27 14:37:54.384724,46
2021-12-27 14:37:54.384733,23
2021-12-27 14:37:54.530704,94
2021-12-27 14:37:54.530726,194
2021-12-27 14:37:54.530734,131
2021-12-27 14:37:54.530740,71
2021-12-27 14:37:54.530747,201
2021-12-27 14:37:54.530753,273
2021-12-27 14:37:54.530759,169
2021-12-27 14:37:54.530765,127
2021-12-27 14:37:54.530771,217
2021-12-27 14:37:54.530777,259
2021-12-27 14:37:54.530784,243
2021-12-27 14:37:54.530790,250
2021-12-27 14:37:54.530796,240
2021-12-27 14:37:54.530802,245
2021-12-27 14:37:54.530808,261
2021-12-27 14:37:54.530814,206
2021-12-27 14:37:54.530820,157
2021-12-27 14:37:54.530826,182
2021-12-27 14:37:54.530832,159
2021-12-27 14:37:54.530838,90
2021-12-27 14:37:54.530845,16
2021-12-27 14:37:54.530851,-106
2021-12-27 14:37:54.530857,-194
2021-12-27 14:37:54.530863,-210
2021-12-27 14:37:54.530869,-219
2021-12-27 14:37:54.530875,-194
2021-12-27 14:37:54.530881,-152
2021-12-27 14:37:54.530887,-150
2021-12-27 14:37:54.530894,-166
2021-12-27 14:37:54.530900,-141
2021-12-27 14:37:54.823392,-99
2021-12-27 14:37:54.823421,-69
2021-12-27 14:37:54.823432,-48
2021-12-27 14:37:54.823441,-67
2021-12-27 14:37:54.823451,-115
2021-12-27 14:37:54.823460,-113
2021-12-27 14:37:54.823469,-62
2021-12-27 14:37:54.823478,-39
2021-12-27 14:37:54.823488,-43
2021-12-27 14:37:54.823497,-41
2021-12-27 14:37:54.823506,-53
2021-12-27 14:37:54.823520,-78
2021-12-27 14:37:54.823530,-101
2021-12-27 14:37:54.823539,-166
2021-12-27 14:37:54.823548,-210
2021-12-27 14:37:54.823558,-136
2021-12-27 14:37:54.823567,-87
2021-12-27 14:37:54.823576,-175
2021-12-27 14:37:54.823585,-219
2021-12-27 14:37:54.823595,-159
2021-12-27 14:37:54.823604,-148
2021-12-27 14:37:54.823613,-185
2021-12-27 14:37:54.823622,-180
2021-12-27 14:37:54.823632,-157
2021-12-27 14:37:54.823641,-150
2021-12-27 14:37:54.823651,-148
2021-12-27 14:37:54.823660,-157
2021-12-27 14:37:54.823669,-150
2021-12-27 14:37:54.823678,-113
2021-12-27 14:37:54.823688,-111
2021-12-27 14:37:55.065704,-120
2021-12-27 14:37:55.065734,-85
2021-12-27 14:37:55.065746,-53
2021-12-27 14:37:55.065756,-50
2021-12-27 14:37:55.065765,-50
2021-12-27 14:37:55.065775,-69
2021-12-27 14:37:55.065784,-111
2021-12-27 14:37:55.065794,-111
2021-12-27 14:37:55.065803,-64
2021-12-27 14:37:55.065813,-41
2021-12-27 14:37:55.065822,-37
2021-12-27 14:37:55.065832,-4
2021-12-27 14:37:55.065841,6
2021-12-27 14:37:55.065851,-41
2021-12-27 14:37:55.065860,-92
2021-12-27 14:37:55.065870,-125
2021-12-27 14:37:55.065879,-138
2021-12-27 14:37:55.065888,-129
2021-12-27 14:37:55.065898,-145
2021-12-27 14:37:55.065907,-152
2021-12-27 14:37:55.065917,-108
2021-12-27 14:37:55.065927,-74
2021-12-27 14:37:55.065936,-78
2021-12-27 14:37:55.065946,-101
2021-12-27 14:37:55.065955,-30
2021-12-27 14:37:55.065965,414
2021-12-27 14:37:55.065974,1245
2021-12-27 14:37:55.065984,2067
2021-12-27 14:37:55.065993,2111
2021-12-27 14:37:55.066003,588
2021-12-27 14:37:55.261851,-1041
2021-12-27 14:37:55.261881,-775
2021-12-27 14:37:55.261892,-41
2021-12-27 14:37:55.261902,-224
2021-12-27 14:37:55.261911,-263
2021-12-27 14:37:55.261921,20
2021-12-27 14:37:55.261930,13
2021-12-27 14:37:55.261939,-53
2021-12-27 14:37:55.261949,4
2021-12-27 14:37:55.261958,23
2021-12-27 14:37:55.261968,32
2021-12-27 14:37:55.261977,57
2021-12-27 14:37:55.261986,69
2021-12-27 14:37:55.261996,101
2021-12-27 14:37:55.262005,122
2021-12-27 14:37:55.262015,108
2021-12-27 14:37:55.262024,118
2021-12-27 14:37:55.262033,145
2021-12-27 14:37:55.262043,152
2021-12-27 14:37:55.262052,157
2021-12-27 14:37:55.262061,180
2021-12-27 14:37:55.262071,208
2021-12-27 14:37:55.262080,243
2021-12-27 14:37:55.262090,314
2021-12-27 14:37:55.262099,384
2021-12-27 14:37:55.262108,388
2021-12-27 14:37:55.262118,358
2021-12-27 14:37:55.262127,351
2021-12-27 14:37:55.262136,370
2021-12-27 14:37:55.262146,388
2021-12-27 14:37:55.456765,402
2021-12-27 14:37:55.456793,391
2021-12-27 14:37:55.456804,296
2021-12-27 14:37:55.456814,152
2021-12-27 14:37:55.456824,83
2021-12-27 14:37:55.456833,64
2021-12-27 14:37:55.456843,-2
2021-12-27 14:37:55.456853,-62
2021-12-27 14:37:55.456862,-76
2021-12-27 14:37:55.456872,-152
2021-12-27 14:37:55.456881,-224
2021-12-27 14:37:55.456890,-159
2021-12-27 14:37:55.456900,-104
2021-12-27 14:37:55.456909,-136
2021-12-27 14:37:55.456919,-131
2021-12-27 14:37:55.456928,-104
2021-12-27 14:37:55.456938,-120
2021-12-27 14:37:55.456947,-118
2021-12-27 14:37:55.456957,-157
2021-12-27 14:37:55.456967,-314
2021-12-27 14:37:55.456976,-368
2021-12-27 14:37:55.456985,-252
2021-12-27 14:37:55.456995,-215
2021-12-27 14:37:55.457004,-233
2021-12-27 14:37:55.457014,-194
2021-12-27 14:37:55.457023,-175
2021-12-27 14:37:55.457033,-196
2021-12-27 14:37:55.457042,-215
2021-12-27 14:37:55.457052,-243
2021-12-27 14:37:55.457061,-259
2021-12-27 14:37:55.749557,-252
2021-12-27 14:37:55.749587,-215
2021-12-27 14:37:55.749598,-152
2021-12-27 14:37:55.749608,-134
2021-12-27 14:37:55.749617,-189
2021-12-27 14:37:55.749627,-213
2021-12-27 14:37:55.749636,-150
2021-12-27 14:37:55.749645,-150
2021-12-27 14:37:55.749655,-203
2021-12-27 14:37:55.749664,-182
2021-12-27 14:37:55.749674,-155
2021-12-27 14:37:55.749683,-213
2021-12-27 14:37:55.749692,-229
2021-12-27 14:37:55.749702,-166
2021-12-27 14:37:55.749711,-162
2021-12-27 14:37:55.749720,-185
2021-12-27 14:37:55.749730,-145
2021-12-27 14:37:55.749739,-111
2021-12-27 14:37:55.749749,-115
2021-12-27 14:37:55.749758,-148
2021-12-27 14:37:55.749767,-166
2021-12-27 14:37:55.749777,-145
2021-12-27 14:37:55.749786,-136
2021-12-27 14:37:55.749796,-129
2021-12-27 14:37:55.749805,-87
2021-12-27 14:37:55.749814,-57
2021-12-27 14:37:55.749824,-74
2021-12-27 14:37:55.749833,-101
2021-12-27 14:37:55.749843,-122
2021-12-27 14:37:55.749852,-141
2021-12-27 14:37:55.944716,-104
2021-12-27 14:37:55.944736,-18
2021-12-27 14:37:55.944744,-20
2021-12-27 14:37:55.944750,-78
2021-12-27 14:37:55.944756,-71
2021-12-27 14:37:55.944762,-83
2021-12-27 14:37:55.944768,-118
2021-12-27 14:37:55.944774,162
2021-12-27 14:37:55.944784,944
2021-12-27 14:37:55.944791,1833
2021-12-27 14:37:55.944797,2086
2021-12-27 14:37:55.944803,898
2021-12-27 14:37:55.944809,-805
2021-12-27 14:37:55.944815,-912
2021-12-27 14:37:55.944821,-131
2021-12-27 14:37:55.944827,-141
2021-12-27 14:37:55.944833,-307
2021-12-27 14:37:55.944840,-97
2021-12-27 14:37:55.944846,-30
2021-12-27 14:37:55.944852,-99
2021-12-27 14:37:55.944858,-99
2021-12-27 14:37:55.944864,-122
2021-12-27 14:37:55.944870,-71
2021-12-27 14:37:55.944876,37
2021-12-27 14:37:55.944882,-41
2021-12-27 14:37:55.944889,-113
2021-12-27 14:37:55.944895,32
2021-12-27 14:37:55.944901,122
2021-12-27 14:37:55.944907,106
2021-12-27 14:37:55.944913,127
2021-12-27 14:37:56.139643,90
2021-12-27 14:37:56.139663,37
2021-12-27 14:37:56.139671,78
2021-12-27 14:37:56.139677,97
2021-12-27 14:37:56.139683,90
2021-12-27 14:37:56.139689,159
2021-12-27 14:37:56.139695,247
2021-12-27 14:37:56.139701,266
2021-12-27 14:37:56.139708,194
2021-12-27 14:37:56.139714,122
2021-12-27 14:37:56.139720,166
2021-12-27 14:37:56.139726,236
2021-12-27 14:37:56.139732,224
2021-12-27 14:37:56.139738,203
2021-12-27 14:37:56.139744,120
2021-12-27 14:37:56.139750,-39
2021-12-27 14:37:56.139756,-101
2021-12-27 14:37:56.139762,-78
2021-12-27 14:37:56.139769,-90
2021-12-27 14:37:56.139775,-127
2021-12-27 14:37:56.139781,-131
2021-12-27 14:37:56.139787,-173
2021-12-27 14:37:56.139793,-247
2021-12-27 14:37:56.139799,-236
2021-12-27 14:37:56.139805,-192
2021-12-27 14:37:56.139811,-219
2021-12-27 14:37:56.139817,-240
2021-12-27 14:37:56.139823,-229
2021-12-27 14:37:56.139829,-245
2021-12-27 14:37:56.139835,-245
2021-12-27 14:37:56.383046,-157
2021-12-27 14:37:56.383066,-64
2021-12-27 14:37:56.383073,-104
2021-12-27 14:37:56.383079,-203
2021-12-27 14:37:56.383085,-189
2021-12-27 14:37:56.383091,-152
2021-12-27 14:37:56.383098,-203
2021-12-27 14:37:56.383104,-201
2021-12-27 14:37:56.383110,-169
2021-12-27 14:37:56.383116,-254
2021-12-27 14:37:56.383122,-314
2021-12-27 14:37:56.383128,-231
2021-12-27 14:37:56.383134,-201
2021-12-27 14:37:56.383140,-259
2021-12-27 14:37:56.383147,-226
2021-12-27 14:37:56.383153,-141
2021-12-27 14:37:56.383159,-131
2021-12-27 14:37:56.383165,-108
2021-12-27 14:37:56.383171,-25
2021-12-27 14:37:56.383177,13
2021-12-27 14:37:56.383183,25
2021-12-27 14:37:56.383190,41
2021-12-27 14:37:56.383196,41
2021-12-27 14:37:56.383202,16
2021-12-27 14:37:56.383208,-34
2021-12-27 14:37:56.383215,-41
2021-12-27 14:37:56.383221,0
2021-12-27 14:37:56.383227,-18
2021-12-27 14:37:56.383233,-67
2021-12-27 14:37:56.383239,-41
2021-12-27 14:37:56.627380,-34
2021-12-27 14:37:56.627410,-92
2021-12-27 14:37:56.627420,-92
2021-12-27 14:37:56.627430,-50
2021-12-27 14:37:56.627440,-62
2021-12-27 14:37:56.627449,-57
2021-12-27 14:37:56.627458,-16
2021-12-27 14:37:56.627468,-43
2021-12-27 14:37:56.627477,-115
2021-12-27 14:37:56.627487,-83
2021-12-27 14:37:56.627496,-4
2021-12-27 14:37:56.627506,-74
2021-12-27 14:37:56.627515,-180
2021-12-27 14:37:56.627525,-115
2021-12-27 14:37:56.627534,-2
2021-12-27 14:37:56.627544,18
2021-12-27 14:37:56.627553,0
2021-12-27 14:37:56.627563,-41
2021-12-27 14:37:56.627572,-115
2021-12-27 14:37:56.627581,-67
2021-12-27 14:37:56.627591,273
2021-12-27 14:37:56.627600,923
2021-12-27 14:37:56.627610,1671
2021-12-27 14:37:56.627619,1940
2021-12-27 14:37:56.627629,831
2021-12-27 14:37:56.627638,-819
2021-12-27 14:37:56.627648,-884
2021-12-27 14:37:56.627657,-118
2021-12-27 14:37:56.627667,-175
2021-12-27 14:37:56.627676,-328
2021-12-27 14:37:56.870847,-69
2021-12-27 14:37:56.870867,11
2021-12-27 14:37:56.870875,-83
2021-12-27 14:37:56.870881,-50
2021-12-27 14:37:56.870888,46
2021-12-27 14:37:56.870894,57
2021-12-27 14:37:56.870900,11
2021-12-27 14:37:56.870906,-32
2021-12-27 14:37:56.870912,-43
2021-12-27 14:37:56.870918,41
2021-12-27 14:37:56.870924,131
2021-12-27 14:37:56.870930,101
2021-12-27 14:37:56.870936,74
2021-12-27 14:37:56.870942,87
2021-12-27 14:37:56.870949,53
2021-12-27 14:37:56.870955,50
2021-12-27 14:37:56.870961,138
2021-12-27 14:37:56.870967,206
2021-12-27 14:37:56.870973,208
2021-12-27 14:37:56.870979,233
2021-12-27 14:37:56.870985,252
2021-12-27 14:37:56.870991,250
2021-12-27 14:37:56.870998,275
2021-12-27 14:37:56.871004,270
2021-12-27 14:37:56.871010,277
2021-12-27 14:37:56.871016,291
2021-12-27 14:37:56.871022,182
2021-12-27 14:37:56.871028,78
2021-12-27 14:37:56.871034,97
2021-12-27 14:37:56.871040,71
2021-12-27 14:37:57.210967,-16
2021-12-27 14:37:57.210987,-145
2021-12-27 14:37:57.210995,-349
2021-12-27 14:37:57.211001,-393
2021-12-27 14:37:57.211007,-259
2021-12-27 14:37:57.211013,-261
2021-12-27 14:37:57.211019,-331
2021-12-27 14:37:57.211025,-282
2021-12-27 14:37:57.211032,-261
2021-12-27 14:37:57.211038,-314
2021-12-27 14:37:57.211044,-328
2021-12-27 14:37:57.211050,-300
2021-12-27 14:37:57.211056,-217
2021-12-27 14:37:57.211062,-145
2021-12-27 14:37:57.211069,-173
2021-12-27 14:37:57.211075,-217
2021-12-27 14:37:57.211081,-206
2021-12-27 14:37:57.211087,-194
2021-12-27 14:37:57.211093,-196
2021-12-27 14:37:57.211099,-162
2021-12-27 14:37:57.211105,-134
2021-12-27 14:37:57.211111,-182
2021-12-27 14:37:57.211118,-180
2021-12-27 14:37:57.211131,-71
2021-12-27 14:37:57.211137,-37
2021-12-27 14:37:57.211143,-67
2021-12-27 14:37:57.211149,-67
2021-12-27 14:37:57.211156,-111
2021-12-27 14:37:57.211162,-155
2021-12-27 14:37:57.211168,-87
2021-12-27 14:37:57.358321,-4
2021-12-27 14:37:57.358350,6
2021-12-27 14:37:57.358362,-18
2021-12-27 14:37:57.358371,-43
2021-12-27 14:37:57.358381,-43
2021-12-27 14:37:57.358391,-43
2021-12-27 14:37:57.358400,-57
2021-12-27 14:37:57.358409,-41
2021-12-27 14:37:57.358419,20
2021-12-27 14:37:57.358428,27
2021-12-27 14:37:57.358438,-67
2021-12-27 14:37:57.358447,-90
2021-12-27 14:37:57.358457,4
2021-12-27 14:37:57.358466,37
2021-12-27 14:37:57.358476,2
2021-12-27 14:37:57.358485,-18
2021-12-27 14:37:57.358494,-20
2021-12-27 14:37:57.358504,-2
2021-12-27 14:37:57.358514,6
2021-12-27 14:37:57.358523,32
2021-12-27 14:37:57.358532,67
2021-12-27 14:37:57.358542,11
2021-12-27 14:37:57.358551,-41
2021-12-27 14:37:57.358561,-37
2021-12-27 14:37:57.358570,-39
2021-12-27 14:37:57.358580,0
2021-12-27 14:37:57.358589,27
2021-12-27 14:37:57.358599,-9
2021-12-27 14:37:57.358608,-9
2021-12-27 14:37:57.358618,30
2021-12-27 14:37:57.602256,48
2021-12-27 14:37:57.602277,18
2021-12-27 14:37:57.602284,13
2021-12-27 14:37:57.602291,229
2021-12-27 14:37:57.602297,819
2021-12-27 14:37:57.602303,1623
2021-12-27 14:37:57.602309,2067
2021-12-27 14:37:57.602315,1273
2021-12-27 14:37:57.602321,-474
2021-12-27 14:37:57.602327,-1044
2021-12-27 14:37:57.602333,-270
2021-12-27 14:37:57.602340,-127
2021-12-27 14:37:57.602346,-446
2021-12-27 14:37:57.602352,-222
2021-12-27 14:37:57.602358,27
2021-12-27 14:37:57.602364,-32
2021-12-27 14:37:57.602371,-43
2021-12-27 14:37:57.602377,-27
2021-12-27 14:37:57.602383,-81
2021-12-27 14:37:57.602389,-69
2021-12-27 14:37:57.602395,34
2021-12-27 14:37:57.602401,120
2021-12-27 14:37:57.602407,108
2021-12-27 14:37:57.602413,76
2021-12-27 14:37:57.602419,115
2021-12-27 14:37:57.602426,155
2021-12-27 14:37:57.602432,157
2021-12-27 14:37:57.602438,166
2021-12-27 14:37:57.602444,203
2021-12-27 14:37:57.602450,215
2021-12-27 14:37:57.846019,182
2021-12-27 14:37:57.846042,196
2021-12-27 14:37:57.846049,259
2021-12-27 14:37:57.846055,296
2021-12-27 14:37:57.846061,303
2021-12-27 14:37:57.846099,317
2021-12-27 14:37:57.846105,338
2021-12-27 14:37:57.846111,312
2021-12-27 14:37:57.846117,266
2021-12-27 14:37:57.846124,229
2021-12-27 14:37:57.846130,157
2021-12-27 14:37:57.846135,71
2021-12-27 14:37:57.846142,16
2021-12-27 14:37:57.846148,-83
2021-12-27 14:37:57.846154,-201
2021-12-27 14:37:57.846160,-247
2021-12-27 14:37:57.846166,-240
2021-12-27 14:37:57.846172,-236
2021-12-27 14:37:57.846178,-231
2021-12-27 14:37:57.846184,-213
2021-12-27 14:37:57.846190,-259
2021-12-27 14:37:57.846196,-314
2021-12-27 14:37:57.846202,-245
2021-12-27 14:37:57.846208,-187
2021-12-27 14:37:57.846214,-203
2021-12-27 14:37:57.846220,-199
2021-12-27 14:37:57.846226,-217
2021-12-27 14:37:57.846232,-222
2021-12-27 14:37:57.846238,-157
2021-12-27 14:37:57.846244,-92
2021-12-27 14:37:58.089442,-74
2021-12-27 14:37:58.089463,-143
2021-12-27 14:37:58.089470,-215
2021-12-27 14:37:58.089477,-185
2021-12-27 14:37:58.089483,-141
2021-12-27 14:37:58.089489,-157
2021-12-27 14:37:58.089495,-145
2021-12-27 14:37:58.089501,-97
2021-12-27 14:37:58.089508,-87
2021-12-27 14:37:58.089514,-127
2021-12-27 14:37:58.089520,-162
2021-12-27 14:37:58.089526,-145
2021-12-27 14:37:58.089532,-94
2021-12-27 14:37:58.089538,-37
2021-12-27 14:37:58.089545,-23
2021-12-27 14:37:58.089551,-87
2021-12-27 14:37:58.089557,-182
2021-12-27 14:37:58.089563,-224
2021-12-27 14:37:58.089569,-164
2021-12-27 14:37:58.089576,-92
2021-12-27 14:37:58.089582,-92
2021-12-27 14:37:58.089588,-104
2021-12-27 14:37:58.089594,-69
2021-12-27 14:37:58.089600,-2
2021-12-27 14:37:58.089607,37
2021-12-27 14:37:58.089613,37
2021-12-27 14:37:58.089619,18
2021-12-27 14:37:58.089625,-13
2021-12-27 14:37:58.089631,-18
2021-12-27 14:37:58.089637,25
2021-12-27 14:37:58.235265,62
2021-12-27 14:37:58.235287,62
2021-12-27 14:37:58.235295,67
2021-12-27 14:37:58.235301,74
2021-12-27 14:37:58.235307,62
2021-12-27 14:37:58.235313,57
2021-12-27 14:37:58.235319,83
2021-12-27 14:37:58.235326,113
2021-12-27 14:37:58.235332,111
2021-12-27 14:37:58.235338,78
2021-12-27 14:37:58.235344,69
2021-12-27 14:37:58.235350,53
2021-12-27 14:37:58.235356,55
2021-12-27 14:37:58.235363,370
2021-12-27 14:37:58.235369,1111
2021-12-27 14:37:58.235375,1954
2021-12-27 14:37:58.235381,2271
2021-12-27 14:37:58.235387,1134
2021-12-27 14:37:58.235394,-720
2021-12-27 14:37:58.235400,-944
2021-12-27 14:37:58.235406,-90
2021-12-27 14:37:58.235412,-64
2021-12-27 14:37:58.235419,-243
2021-12-27 14:37:58.235425,-11
2021-12-27 14:37:58.235431,48
2021-12-27 14:37:58.235437,-18
2021-12-27 14:37:58.235444,50
2021-12-27 14:37:58.235450,94
2021-12-27 14:37:58.235456,81
2021-12-27 14:37:58.235462,106
2021-12-27 14:37:58.479394,138
2021-12-27 14:37:58.479414,159
2021-12-27 14:37:58.479421,187
2021-12-27 14:37:58.479427,196
2021-12-27 14:37:58.479433,187
2021-12-27 14:37:58.479440,192
2021-12-27 14:37:58.479446,194
2021-12-27 14:37:58.479452,196
2021-12-27 14:37:58.479458,219
2021-12-27 14:37:58.479464,247
2021-12-27 14:37:58.479470,287
2021-12-27 14:37:58.479477,335
2021-12-27 14:37:58.479483,354
2021-12-27 14:37:58.479489,317
2021-12-27 14:37:58.479495,261
2021-12-27 14:37:58.479502,270
2021-12-27 14:37:58.479508,300
2021-12-27 14:37:58.479514,284
2021-12-27 14:37:58.479520,263
2021-12-27 14:37:58.479526,231
2021-12-27 14:37:58.479533,159
2021-12-27 14:37:58.479539,50
2021-12-27 14:37:58.479545,-81
2021-12-27 14:37:58.479551,-169
2021-12-27 14:37:58.479557,-222
2021-12-27 14:37:58.479564,-289
2021-12-27 14:37:58.479570,-333
2021-12-27 14:37:58.479576,-344
2021-12-27 14:37:58.479582,-335
2021-12-27 14:37:58.479595,-326
2021-12-27 14:37:58.723552,-317
2021-12-27 14:37:58.723574,-300
2021-12-27 14:37:58.723582,-296
2021-12-27 14:37:58.723588,-289
2021-12-27 14:37:58.723595,-261
2021-12-27 14:37:58.723601,-243
2021-12-27 14:37:58.723607,-224
2021-12-27 14:37:58.723613,-201
2021-12-27 14:37:58.723619,-226
2021-12-27 14:37:58.723625,-275
2021-12-27 14:37:58.723631,-277
2021-12-27 14:37:58.723637,-252
2021-12-27 14:37:58.723644,-224
2021-12-27 14:37:58.723650,-201
2021-12-27 14:37:58.723656,-203
2021-12-27 14:37:58.723662,-224
2021-12-27 14:37:58.723668,-263
2021-12-27 14:37:58.723674,-294
2021-12-27 14:37:58.723680,-252
2021-12-27 14:37:58.723687,-196
2021-12-27 14:37:58.723693,-210
2021-12-27 14:37:58.723699,-224
2021-12-27 14:37:58.723705,-201
2021-12-27 14:37:58.723711,-180
2021-12-27 14:37:58.723717,-173
2021-12-27 14:37:58.723723,-150
2021-12-27 14:37:58.723729,-113
2021-12-27 14:37:58.723736,-101
2021-12-27 14:37:58.723742,-118
2021-12-27 14:37:58.723748,-108
2021-12-27 14:37:58.918386,-83
2021-12-27 14:37:58.918415,-81
2021-12-27 14:37:58.918426,-90
2021-12-27 14:37:58.918436,-111
2021-12-27 14:37:58.918445,-108
2021-12-27 14:37:58.918455,-50
2021-12-27 14:37:58.918464,0
2021-12-27 14:37:58.918473,-11
2021-12-27 14:37:58.918483,-50
2021-12-27 14:37:58.918492,-76
2021-12-27 14:37:58.918501,-87
2021-12-27 14:37:58.918511,-60
2021-12-27 14:37:58.918520,-20
2021-12-27 14:37:58.918530,-18
2021-12-27 14:37:58.918539,-32
2021-12-27 14:37:58.918548,-108
2021-12-27 14:37:58.918558,-226
2021-12-27 14:37:58.918567,-171
2021-12-27 14:37:58.918576,-64
2021-12-27 14:37:58.918586,-141
2021-12-27 14:37:58.918595,-94
2021-12-27 14:37:58.918605,426
2021-12-27 14:37:58.918614,1243
2021-12-27 14:37:58.918623,1905
2021-12-27 14:37:58.918633,1754
2021-12-27 14:37:58.918642,273
2021-12-27 14:37:58.918652,-1109
2021-12-27 14:37:58.918661,-856
2021-12-27 14:37:58.918670,-300
2021-12-27 14:37:58.918680,-370
2021-12-27 14:37:59.209365,-275
2021-12-27 14:37:59.209387,-67
2021-12-27 14:37:59.209395,-108
2021-12-27 14:37:59.209401,-134
2021-12-27 14:37:59.209407,-60
2021-12-27 14:37:59.209414,-90
2021-12-27 14:37:59.209420,-162
2021-12-27 14:37:59.209426,-108
2021-12-27 14:37:59.209432,0
2021-12-27 14:37:59.209438,16
2021-12-27 14:37:59.209444,13
2021-12-27 14:37:59.209450,55
2021-12-27 14:37:59.209456,46
2021-12-27 14:37:59.209463,46
2021-12-27 14:37:59.209469,115
2021-12-27 14:37:59.209475,131
2021-12-27 14:37:59.209481,134
2021-12-27 14:37:59.209487,189
2021-12-27 14:37:59.209493,206
2021-12-27 14:37:59.209499,187
2021-12-27 14:37:59.209505,215
2021-12-27 14:37:59.209512,250
2021-12-27 14:37:59.209518,240
2021-12-27 14:37:59.209524,229
2021-12-27 14:37:59.209530,238
2021-12-27 14:37:59.209536,215
2021-12-27 14:37:59.209542,217
2021-12-27 14:37:59.209548,233
2021-12-27 14:37:59.209554,166
2021-12-27 14:37:59.209560,78
2021-12-27 14:37:59.405708,11
2021-12-27 14:37:59.405738,-69
2021-12-27 14:37:59.405749,-136
2021-12-27 14:37:59.405759,-185
2021-12-27 14:37:59.405769,-215
2021-12-27 14:37:59.405778,-206
2021-12-27 14:37:59.405788,-217
2021-12-27 14:37:59.405797,-261
2021-12-27 14:37:59.405806,-259
2021-12-27 14:37:59.405816,-236
2021-12-27 14:37:59.405826,-259
2021-12-27 14:37:59.405835,-287
2021-12-27 14:37:59.405844,-254
2021-12-27 14:37:59.405854,-233
2021-12-27 14:37:59.405864,-259
2021-12-27 14:37:59.405873,-252
2021-12-27 14:37:59.405882,-219
2021-12-27 14:37:59.405892,-208
2021-12-27 14:37:59.405901,-206
2021-12-27 14:37:59.405911,-208
2021-12-27 14:37:59.405920,-219
2021-12-27 14:37:59.405930,-233
2021-12-27 14:37:59.405939,-254
2021-12-27 14:37:59.405949,-254
2021-12-27 14:37:59.405958,-217
2021-12-27 14:37:59.405967,-196
2021-12-27 14:37:59.405977,-206
2021-12-27 14:37:59.405986,-208
2021-12-27 14:37:59.405996,-189
2021-12-27 14:37:59.406005,-162
2021-12-27 14:37:59.697790,-134
2021-12-27 14:37:59.697819,-122
2021-12-27 14:37:59.697830,-141
2021-12-27 14:37:59.697840,-171
2021-12-27 14:37:59.697850,-173
2021-12-27 14:37:59.697859,-162
2021-12-27 14:37:59.697868,-134
2021-12-27 14:37:59.697878,-101
2021-12-27 14:37:59.697887,-129
2021-12-27 14:37:59.697897,-169
2021-12-27 14:37:59.697906,-120
2021-12-27 14:37:59.697916,-69
2021-12-27 14:37:59.697925,-83
2021-12-27 14:37:59.697934,-64
2021-12-27 14:37:59.698001,-37
2021-12-27 14:37:59.698014,-76
2021-12-27 14:37:59.698023,-90
2021-12-27 14:37:59.698033,-48
2021-12-27 14:37:59.698042,-39
2021-12-27 14:37:59.698051,-43
2021-12-27 14:37:59.698061,-34
2021-12-27 14:37:59.698070,-43
2021-12-27 14:37:59.698080,-48
2021-12-27 14:37:59.698089,-37
2021-12-27 14:37:59.698099,-60
2021-12-27 14:37:59.698108,-101
2021-12-27 14:37:59.698117,-104
2021-12-27 14:37:59.698127,37
2021-12-27 14:37:59.698137,546
2021-12-27 14:37:59.698146,1363
2021-12-27 14:37:59.844732,2018
2021-12-27 14:37:59.844752,1706
2021-12-27 14:37:59.844759,81
2021-12-27 14:37:59.844766,-1104
2021-12-27 14:37:59.844772,-613
2021-12-27 14:37:59.844778,-101
2021-12-27 14:37:59.844784,-268
2021-12-27 14:37:59.844791,-187
2021-12-27 14:37:59.844797,11
2021-12-27 14:37:59.844803,-50
2021-12-27 14:37:59.844809,-104
2021-12-27 14:37:59.844815,-41
2021-12-27 14:37:59.844821,-16
2021-12-27 14:37:59.844827,-6
2021-12-27 14:37:59.844834,20
2021-12-27 14:37:59.844840,34
2021-12-27 14:37:59.844846,39
2021-12-27 14:37:59.844852,57
2021-12-27 14:37:59.844858,83
2021-12-27 14:37:59.844865,104
2021-12-27 14:37:59.844876,127
2021-12-27 14:37:59.844887,145
2021-12-27 14:37:59.844897,152
2021-12-27 14:37:59.844908,164
2021-12-27 14:37:59.844914,192
2021-12-27 14:37:59.844921,217
2021-12-27 14:37:59.844927,208
2021-12-27 14:37:59.844933,199
2021-12-27 14:37:59.844939,217
2021-12-27 14:37:59.844945,224
2021-12-27 14:38:00.088200,222
2021-12-27 14:38:00.088220,240
2021-12-27 14:38:00.088227,243
2021-12-27 14:38:00.088234,226
2021-12-27 14:38:00.088240,208
2021-12-27 14:38:00.088246,152
2021-12-27 14:38:00.088252,50
2021-12-27 14:38:00.088258,-43
2021-12-27 14:38:00.088265,-148
2021-12-27 14:38:00.088271,-238
2021-12-27 14:38:00.088277,-259
2021-12-27 14:38:00.088283,-277
2021-12-27 14:38:00.088290,-331
2021-12-27 14:38:00.088296,-331
2021-12-27 14:38:00.088302,-273
2021-12-27 14:38:00.088308,-254
2021-12-27 14:38:00.088315,-263
2021-12-27 14:38:00.088321,-252
2021-12-27 14:38:00.088327,-247
2021-12-27 14:38:00.088333,-256
2021-12-27 14:38:00.088339,-263
2021-12-27 14:38:00.088345,-270
2021-12-27 14:38:00.088352,-256
2021-12-27 14:38:00.088358,-229
2021-12-27 14:38:00.088364,-233
2021-12-27 14:38:00.088370,-263
2021-12-27 14:38:00.088376,-270
2021-12-27 14:38:00.088383,-270
2021-12-27 14:38:00.088398,-324
2021-12-27 14:38:00.088405,-365
2021-12-27 14:38:00.331107,-310
2021-12-27 14:38:00.331122,-268
2021-12-27 14:38:00.331127,-291
2021-12-27 14:38:00.331132,-284
2021-12-27 14:38:00.331136,-250
2021-12-27 14:38:00.331140,-219
2021-12-27 14:38:00.331145,-219
2021-12-27 14:38:00.331149,-254
2021-12-27 14:38:00.331153,-256
2021-12-27 14:38:00.331158,-217
2021-12-27 14:38:00.331162,-201
2021-12-27 14:38:00.331166,-182
2021-12-27 14:38:00.331170,-157
2021-12-27 14:38:00.331175,-169
2021-12-27 14:38:00.331179,-201
2021-12-27 14:38:00.331183,-192
2021-12-27 14:38:00.331187,-150
2021-12-27 14:38:00.331192,-120
2021-12-27 14:38:00.331196,-101
2021-12-27 14:38:00.331200,-81
2021-12-27 14:38:00.331204,-76
2021-12-27 14:38:00.331209,-81
2021-12-27 14:38:00.331213,-69
2021-12-27 14:38:00.331217,-55
2021-12-27 14:38:00.331221,-37
2021-12-27 14:38:00.331226,-18
2021-12-27 14:38:00.331230,-32
2021-12-27 14:38:00.331234,-50
2021-12-27 14:38:00.331238,-23
2021-12-27 14:38:00.331243,-2
2021-12-27 14:38:00.526150,-32
2021-12-27 14:38:00.526167,-85
2021-12-27 14:38:00.526173,-83
2021-12-27 14:38:00.526178,155
2021-12-27 14:38:00.526183,775
2021-12-27 14:38:00.526188,1569
2021-12-27 14:38:00.526193,2018
2021-12-27 14:38:00.526198,1243
2021-12-27 14:38:00.526203,-495
2021-12-27 14:38:00.526208,-1085
2021-12-27 14:38:00.526213,-354
2021-12-27 14:38:00.526218,-125
2021-12-27 14:38:00.526223,-287
2021-12-27 14:38:00.526228,-111
2021-12-27 14:38:00.526233,-55
2021-12-27 14:38:00.526238,-201
2021-12-27 14:38:00.526243,-175
2021-12-27 14:38:00.526248,-69
2021-12-27 14:38:00.526253,-55
2021-12-27 14:38:00.526257,-39
2021-12-27 14:38:00.526262,2
2021-12-27 14:38:00.526267,6
2021-12-27 14:38:00.526272,18
2021-12-27 14:38:00.526277,62
2021-12-27 14:38:00.526282,97
2021-12-27 14:38:00.526287,125
2021-12-27 14:38:00.526292,157
2021-12-27 14:38:00.526297,173
2021-12-27 14:38:00.526302,189
2021-12-27 14:38:00.526307,236
2021-12-27 14:38:00.770753,277
2021-12-27 14:38:00.770778,270
2021-12-27 14:38:00.770785,252
2021-12-27 14:38:00.770792,247
2021-12-27 14:38:00.770798,233
2021-12-27 14:38:00.770804,217
2021-12-27 14:38:00.770810,236
2021-12-27 14:38:00.770816,263
2021-12-27 14:38:00.770822,263
2021-12-27 14:38:00.770829,243
2021-12-27 14:38:00.770835,187
2021-12-27 14:38:00.770841,99
2021-12-27 14:38:00.770847,37
2021-12-27 14:38:00.770853,11
2021-12-27 14:38:00.770860,-32
2021-12-27 14:38:00.770866,-76
2021-12-27 14:38:00.770872,-92
2021-12-27 14:38:00.770878,-101
2021-12-27 14:38:00.770884,-99
2021-12-27 14:38:00.770891,-76
2021-12-27 14:38:00.770897,-55
2021-12-27 14:38:00.770903,-43
2021-12-27 14:38:00.770909,-30
2021-12-27 14:38:00.770915,-13
2021-12-27 14:38:00.770922,0
2021-12-27 14:38:00.770928,23
2021-12-27 14:38:00.770934,30
2021-12-27 14:38:00.770940,6
2021-12-27 14:38:00.770947,2
2021-12-27 14:38:00.770953,13
2021-12-27 14:38:01.014669,11
2021-12-27 14:38:01.014691,25
2021-12-27 14:38:01.014698,43
2021-12-27 14:38:01.014705,18
2021-12-27 14:38:01.014711,-37
2021-12-27 14:38:01.014717,-90
2021-12-27 14:38:01.014723,-134
2021-12-27 14:38:01.014729,-138
2021-12-27 14:38:01.014735,-122
2021-12-27 14:38:01.014742,-122
2021-12-27 14:38:01.014748,-120
2021-12-27 14:38:01.014754,-106
2021-12-27 14:38:01.014760,-125
2021-12-27 14:38:01.014767,-150
2021-12-27 14:38:01.014773,-131
2021-12-27 14:38:01.014779,-113
2021-12-27 14:38:01.014785,-106
2021-12-27 14:38:01.014791,-85
2021-12-27 14:38:01.014797,-81
2021-12-27 14:38:01.014804,-108
2021-12-27 14:38:01.014810,-122
2021-12-27 14:38:01.014816,-97
2021-12-27 14:38:01.014822,-76
2021-12-27 14:38:01.014828,-60
2021-12-27 14:38:01.014834,-37
2021-12-27 14:38:01.014840,-30
2021-12-27 14:38:01.014847,-39
2021-12-27 14:38:01.014853,-48
2021-12-27 14:38:01.014859,-43
2021-12-27 14:38:01.014865,-30
2021-12-27 14:38:01.256800,-32
2021-12-27 14:38:01.256829,-39
2021-12-27 14:38:01.256843,-16
2021-12-27 14:38:01.256853,11
2021-12-27 14:38:01.256864,-18
2021-12-27 14:38:01.256874,-41
2021-12-27 14:38:01.256884,194
2021-12-27 14:38:01.256894,831
2021-12-27 14:38:01.256906,1627
2021-12-27 14:38:01.256917,2069
2021-12-27 14:38:01.256929,1222
2021-12-27 14:38:01.256939,-639
2021-12-27 14:38:01.256950,-1234
2021-12-27 14:38:01.256961,-426
2021-12-27 14:38:01.256973,-233
2021-12-27 14:38:01.256985,-458
2021-12-27 14:38:01.256996,-231
2021-12-27 14:38:01.257007,-69
2021-12-27 14:38:01.257032,-138
2021-12-27 14:38:01.257042,-92
2021-12-27 14:38:01.257064,-27
2021-12-27 14:38:01.257070,-53
2021-12-27 14:38:01.257076,-27
2021-12-27 14:38:01.257083,43
2021-12-27 14:38:01.257089,76
2021-12-27 14:38:01.257095,97
2021-12-27 14:38:01.257101,125
2021-12-27 14:38:01.257111,136
2021-12-27 14:38:01.257122,157
2021-12-27 14:38:01.257133,199
2021-12-27 14:38:01.501857,231
2021-12-27 14:38:01.501887,263
2021-12-27 14:38:01.501898,282
2021-12-27 14:38:01.501908,266
2021-12-27 14:38:01.501918,266
2021-12-27 14:38:01.501927,314
2021-12-27 14:38:01.501937,347
2021-12-27 14:38:01.501946,351
2021-12-27 14:38:01.501956,335
2021-12-27 14:38:01.501965,275
2021-12-27 14:38:01.501975,226
2021-12-27 14:38:01.501984,243
2021-12-27 14:38:01.501994,245
2021-12-27 14:38:01.502003,185
2021-12-27 14:38:01.502013,106
2021-12-27 14:38:01.502023,23
2021-12-27 14:38:01.502032,-60
2021-12-27 14:38:01.502042,-113
2021-12-27 14:38:01.502051,-141
2021-12-27 14:38:01.502061,-152
2021-12-27 14:38:01.502070,-152
2021-12-27 14:38:01.502079,-155
2021-12-27 14:38:01.502089,-152
2021-12-27 14:38:01.502098,-136
2021-12-27 14:38:01.502108,-113
2021-12-27 14:38:01.502117,-125
2021-12-27 14:38:01.502127,-157
2021-12-27 14:38:01.502136,-148
2021-12-27 14:38:01.502146,-122
2021-12-27 14:38:01.502155,-113
2021-12-27 14:38:01.794483,-92
2021-12-27 14:38:01.794513,-60
2021-12-27 14:38:01.794524,-53
2021-12-27 14:38:01.794534,-69
2021-12-27 14:38:01.794544,-90
2021-12-27 14:38:01.794553,-120
2021-12-27 14:38:01.794563,-131
2021-12-27 14:38:01.794572,-122
2021-12-27 14:38:01.794581,-127
2021-12-27 14:38:01.794591,-143
2021-12-27 14:38:01.794600,-178
2021-12-27 14:38:01.794610,-219
2021-12-27 14:38:01.794619,-236
2021-12-27 14:38:01.794629,-226
2021-12-27 14:38:01.794638,-224
2021-12-27 14:38:01.794647,-236
2021-12-27 14:38:01.794657,-245
2021-12-27 14:38:01.794666,-254
2021-12-27 14:38:01.794676,-266
2021-12-27 14:38:01.794685,-238
2021-12-27 14:38:01.794695,-201
2021-12-27 14:38:01.794704,-201
2021-12-27 14:38:01.794714,-189
2021-12-27 14:38:01.794724,-166
2021-12-27 14:38:01.794733,-169
2021-12-27 14:38:01.794742,-169
2021-12-27 14:38:01.794752,-157
2021-12-27 14:38:01.794761,-171
2021-12-27 14:38:01.794771,-178
2021-12-27 14:38:01.794780,-152
2021-12-27 14:38:01.989462,-138
2021-12-27 14:38:01.989494,-131
2021-12-27 14:38:01.989505,-115
2021-12-27 14:38:01.989515,-122
2021-12-27 14:38:01.989525,-162
2021-12-27 14:38:01.989535,-203
2021-12-27 14:38:01.989544,-85
2021-12-27 14:38:01.989554,467
2021-12-27 14:38:01.989563,1382
2021-12-27 14:38:01.989573,2111
2021-12-27 14:38:01.989583,1724
2021-12-27 14:38:01.989593,-74
2021-12-27 14:38:01.989602,-1289
2021-12-27 14:38:01.989612,-685
2021-12-27 14:38:01.989621,-150
2021-12-27 14:38:01.989631,-375
2021-12-27 14:38:01.989640,-282
2021-12-27 14:38:01.989650,-48
2021-12-27 14:38:01.989660,-104
2021-12-27 14:38:01.989702,-136
2021-12-27 14:38:01.989712,-30
2021-12-27 14:38:01.989721,48
2021-12-27 14:38:01.989731,92
2021-12-27 14:38:01.989755,138
2021-12-27 14:38:01.989765,155
2021-12-27 14:38:01.989775,136
2021-12-27 14:38:01.989784,120
2021-12-27 14:38:01.989794,134
2021-12-27 14:38:01.989809,169
2021-12-27 14:38:01.989833,194
2021-12-27 14:38:02.232626,222
2021-12-27 14:38:02.232656,238
2021-12-27 14:38:02.232668,210
2021-12-27 14:38:02.232677,203
2021-12-27 14:38:02.232687,254
2021-12-27 14:38:02.232696,298
2021-12-27 14:38:02.232706,317
2021-12-27 14:38:02.232715,326
2021-12-27 14:38:02.232725,296
2021-12-27 14:38:02.232734,247
2021-12-27 14:38:02.232743,256
2021-12-27 14:38:02.232753,280
2021-12-27 14:38:02.232762,266
2021-12-27 14:38:02.232772,224
2021-12-27 14:38:02.232782,141
2021-12-27 14:38:02.232807,25
2021-12-27 14:38:02.232817,-50
2021-12-27 14:38:02.232826,-85
2021-12-27 14:38:02.232836,-120
2021-12-27 14:38:02.232845,-141
2021-12-27 14:38:02.232870,-159
2021-12-27 14:38:02.232877,-194
2021-12-27 14:38:02.232883,-192
2021-12-27 14:38:02.232890,-143
2021-12-27 14:38:02.232896,-113
2021-12-27 14:38:02.232933,-99
2021-12-27 14:38:02.232966,-81
2021-12-27 14:38:02.232978,-85
2021-12-27 14:38:02.232985,-83
2021-12-27 14:38:02.232991,-55
2021-12-27 14:38:02.378760,-32
2021-12-27 14:38:02.378778,-18
2021-12-27 14:38:02.378784,-9
2021-12-27 14:38:02.378789,-41
2021-12-27 14:38:02.378794,-87
2021-12-27 14:38:02.378799,-78
2021-12-27 14:38:02.378804,-50
2021-12-27 14:38:02.378809,-46
2021-12-27 14:38:02.378814,-46
2021-12-27 14:38:02.378819,-55
2021-12-27 14:38:02.378824,-81
2021-12-27 14:38:02.378829,-76
2021-12-27 14:38:02.378834,-50
2021-12-27 14:38:02.378839,-46
2021-12-27 14:38:02.378844,-67
2021-12-27 14:38:02.378849,-90
2021-12-27 14:38:02.378854,-104
2021-12-27 14:38:02.378859,-113
2021-12-27 14:38:02.378864,-97
2021-12-27 14:38:02.378869,-69
2021-12-27 14:38:02.378874,-83
2021-12-27 14:38:02.378879,-111
2021-12-27 14:38:02.378884,-120
2021-12-27 14:38:02.378889,-134
2021-12-27 14:38:02.378893,-136
2021-12-27 14:38:02.378898,-118
2021-12-27 14:38:02.378903,-125
2021-12-27 14:38:02.378908,-152
2021-12-27 14:38:02.378913,-159
2021-12-27 14:38:02.378918,-152
2021-12-27 14:38:02.622495,-141
2021-12-27 14:38:02.622515,-120
2021-12-27 14:38:02.622522,-113
2021-12-27 14:38:02.622529,-141
2021-12-27 14:38:02.622535,-208
2021-12-27 14:38:02.622541,-201
2021-12-27 14:38:02.622548,189
2021-12-27 14:38:02.622554,1014
2021-12-27 14:38:02.622560,1803
2021-12-27 14:38:02.622567,1826
2021-12-27 14:38:02.622573,375
2021-12-27 14:38:02.622579,-1324
2021-12-27 14:38:02.622585,-1159
2021-12-27 14:38:02.622591,-270
2021-12-27 14:38:02.622598,-335
2021-12-27 14:38:02.622604,-451
2021-12-27 14:38:02.622610,-180
2021-12-27 14:38:02.622617,-138
2021-12-27 14:38:02.622623,-224
2021-12-27 14:38:02.622629,-164
2021-12-27 14:38:02.622636,-115
2021-12-27 14:38:02.622662,-115
2021-12-27 14:38:02.622684,-76
2021-12-27 14:38:02.622697,-37
2021-12-27 14:38:02.622706,-37
2021-12-27 14:38:02.622717,-20
2021-12-27 14:38:02.622729,18
2021-12-27 14:38:02.622740,37
2021-12-27 14:38:02.622751,57
2021-12-27 14:38:02.622758,99
2021-12-27 14:38:02.866686,122
2021-12-27 14:38:02.866724,134
2021-12-27 14:38:02.866731,159
2021-12-27 14:38:02.866738,185
2021-12-27 14:38:02.866744,206
2021-12-27 14:38:02.866750,243
2021-12-27 14:38:02.866756,254
2021-12-27 14:38:02.866762,224
2021-12-27 14:38:02.866768,210
2021-12-27 14:38:02.866774,229
2021-12-27 14:38:02.866781,236
2021-12-27 14:38:02.866787,229
2021-12-27 14:38:02.866793,210
2021-12-27 14:38:02.866799,131
2021-12-27 14:38:02.866805,13
2021-12-27 14:38:02.866811,-57
2021-12-27 14:38:02.866817,-94
2021-12-27 14:38:02.866823,-129
2021-12-27 14:38:02.866829,-150
2021-12-27 14:38:02.866836,-155
2021-12-27 14:38:02.866842,-171
2021-12-27 14:38:02.866848,-194
2021-12-27 14:38:02.866854,-185
2021-12-27 14:38:02.866861,-152
2021-12-27 14:38:02.866867,-122
2021-12-27 14:38:02.866873,-106
2021-12-27 14:38:02.866879,-113
2021-12-27 14:38:02.866885,-118
2021-12-27 14:38:02.866891,-92
2021-12-27 14:38:02.866898,-64
2021-12-27 14:38:03.061900,-55
2021-12-27 14:38:03.061921,-48
2021-12-27 14:38:03.061929,-55
2021-12-27 14:38:03.061935,-76
2021-12-27 14:38:03.061941,-71
2021-12-27 14:38:03.061947,-46
2021-12-27 14:38:03.061953,-39
2021-12-27 14:38:03.061960,-37
2021-12-27 14:38:03.061966,-55
2021-12-27 14:38:03.061972,-99
2021-12-27 14:38:03.061978,-101
2021-12-27 14:38:03.061984,-60
2021-12-27 14:38:03.061990,-46
2021-12-27 14:38:03.061996,-74
2021-12-27 14:38:03.062003,-131
2021-12-27 14:38:03.062009,-175
2021-12-27 14:38:03.062015,-164
2021-12-27 14:38:03.062021,-127
2021-12-27 14:38:03.062027,-101
2021-12-27 14:38:03.062033,-74
2021-12-27 14:38:03.062040,-67
2021-12-27 14:38:03.062046,-104
2021-12-27 14:38:03.062052,-136
2021-12-27 14:38:03.062058,-131
2021-12-27 14:38:03.062064,-122
2021-12-27 14:38:03.062070,-120
2021-12-27 14:38:03.062077,-134
2021-12-27 14:38:03.062083,-180
2021-12-27 14:38:03.062089,-208
2021-12-27 14:38:03.062095,-196
2021-12-27 14:38:03.401800,-194
2021-12-27 14:38:03.401830,-189
2021-12-27 14:38:03.401841,-178
2021-12-27 14:38:03.401851,-226
2021-12-27 14:38:03.401861,-326
2021-12-27 14:38:03.401870,-245
2021-12-27 14:38:03.401880,275
2021-12-27 14:38:03.401889,1113
2021-12-27 14:38:03.401898,1831
2021-12-27 14:38:03.401908,1653
2021-12-27 14:38:03.401917,43
2021-12-27 14:38:03.401927,-1317
2021-12-27 14:38:03.401936,-865
2021-12-27 14:38:03.401945,-233
2021-12-27 14:38:03.401955,-395
2021-12-27 14:38:03.401964,-358
2021-12-27 14:38:03.401974,-138
2021-12-27 14:38:03.401983,-178
2021-12-27 14:38:03.401993,-199
2021-12-27 14:38:03.402002,-97
2021-12-27 14:38:03.402011,-76
2021-12-27 14:38:03.402021,-87
2021-12-27 14:38:03.402030,-48
2021-12-27 14:38:03.402040,-20
2021-12-27 14:38:03.402049,-34
2021-12-27 14:38:03.402059,-34
2021-12-27 14:38:03.402068,-6
2021-12-27 14:38:03.402078,18
2021-12-27 14:38:03.402087,41
2021-12-27 14:38:03.402097,67
2021-12-27 14:38:03.549446,90
2021-12-27 14:38:03.549467,127
2021-12-27 14:38:03.549474,159
2021-12-27 14:38:03.549481,171
2021-12-27 14:38:03.549487,189
2021-12-27 14:38:03.549493,199
2021-12-27 14:38:03.549499,180
2021-12-27 14:38:03.549505,182
2021-12-27 14:38:03.549512,203
2021-12-27 14:38:03.549518,206
2021-12-27 14:38:03.549524,206
2021-12-27 14:38:03.549530,206
2021-12-27 14:38:03.549537,150
2021-12-27 14:38:03.549543,67
2021-12-27 14:38:03.549549,11
2021-12-27 14:38:03.549555,-37
2021-12-27 14:38:03.549562,-92
2021-12-27 14:38:03.549568,-122
2021-12-27 14:38:03.549574,-134
2021-12-27 14:38:03.549580,-169
2021-12-27 14:38:03.549586,-206
2021-12-27 14:38:03.549592,-199
2021-12-27 14:38:03.549599,-169
2021-12-27 14:38:03.549605,-148
2021-12-27 14:38:03.549611,-129
2021-12-27 14:38:03.549617,-115
2021-12-27 14:38:03.549623,-122
2021-12-27 14:38:03.549630,-141
2021-12-27 14:38:03.549636,-136
2021-12-27 14:38:03.549642,-106
2021-12-27 14:38:03.842055,-90
2021-12-27 14:38:03.842085,-90
2021-12-27 14:38:03.842096,-87
2021-12-27 14:38:03.842106,-83
2021-12-27 14:38:03.842116,-78
2021-12-27 14:38:03.842125,-62
2021-12-27 14:38:03.842135,-46
2021-12-27 14:38:03.842144,-69
2021-12-27 14:38:03.842154,-106
2021-12-27 14:38:03.842163,-99
2021-12-27 14:38:03.842173,-67
2021-12-27 14:38:03.842182,-50
2021-12-27 14:38:03.842192,-43
2021-12-27 14:38:03.842201,-43
2021-12-27 14:38:03.842211,-69
2021-12-27 14:38:03.842220,-78
2021-12-27 14:38:03.842229,-53
2021-12-27 14:38:03.842239,-27
2021-12-27 14:38:03.842248,-6
2021-12-27 14:38:03.842258,16
2021-12-27 14:38:03.842267,25
2021-12-27 14:38:03.842277,18
2021-12-27 14:38:03.842286,37
2021-12-27 14:38:03.842296,81
2021-12-27 14:38:03.842305,101
2021-12-27 14:38:03.842315,87
2021-12-27 14:38:03.842324,55
2021-12-27 14:38:03.842334,11
2021-12-27 14:38:03.842343,-18
2021-12-27 14:38:03.842353,-32
2021-12-27 14:38:03.988283,-18
2021-12-27 14:38:03.988304,6
2021-12-27 14:38:03.988311,-4
2021-12-27 14:38:03.988318,-48
2021-12-27 14:38:03.988324,-90
2021-12-27 14:38:03.988331,-122
2021-12-27 14:38:03.988337,23
2021-12-27 14:38:03.988343,595
2021-12-27 14:38:03.988349,1444
2021-12-27 14:38:03.988355,2025
2021-12-27 14:38:03.988362,1514
2021-12-27 14:38:03.988368,-217
2021-12-27 14:38:03.988374,-1236
2021-12-27 14:38:03.988380,-595
2021-12-27 14:38:03.988387,-134
2021-12-27 14:38:03.988393,-347
2021-12-27 14:38:03.988399,-240
2021-12-27 14:38:03.988413,-34
2021-12-27 14:38:03.988419,-81
2021-12-27 14:38:03.988425,-74
2021-12-27 14:38:03.988432,16
2021-12-27 14:38:03.988438,-9
2021-12-27 14:38:03.988444,-53
2021-12-27 14:38:03.988451,-20
2021-12-27 14:38:03.988457,-9
2021-12-27 14:38:03.988463,-50
2021-12-27 14:38:03.988469,-50
2021-12-27 14:38:03.988475,-6
2021-12-27 14:38:03.988482,16
2021-12-27 14:38:03.988488,39
2021-12-27 14:38:04.279933,64
2021-12-27 14:38:04.279954,67
2021-12-27 14:38:04.279961,87
2021-12-27 14:38:04.279968,115
2021-12-27 14:38:04.279974,108
2021-12-27 14:38:04.279980,99
2021-12-27 14:38:04.279986,138
2021-12-27 14:38:04.279993,182
2021-12-27 14:38:04.279999,192
2021-12-27 14:38:04.280005,192
2021-12-27 14:38:04.280011,196
2021-12-27 14:38:04.280017,182
2021-12-27 14:38:04.280023,157
2021-12-27 14:38:04.280029,120
2021-12-27 14:38:04.280036,46
2021-12-27 14:38:04.280042,-6
2021-12-27 14:38:04.280048,-27
2021-12-27 14:38:04.280054,-113
2021-12-27 14:38:04.280060,-213
2021-12-27 14:38:04.280066,-194
2021-12-27 14:38:04.280073,-145
2021-12-27 14:38:04.280079,-169
2021-12-27 14:38:04.280085,-178
2021-12-27 14:38:04.280091,-136
2021-12-27 14:38:04.280097,-120
2021-12-27 14:38:04.280104,-143
2021-12-27 14:38:04.280110,-187
2021-12-27 14:38:04.280116,-189
2021-12-27 14:38:04.280122,-129
2021-12-27 14:38:04.280128,-94
2021-12-27 14:38:04.475334,-53
2021-12-27 14:38:04.475384,4
2021-12-27 14:38:04.475399,-48
2021-12-27 14:38:04.475409,-143
2021-12-27 14:38:04.475420,-143
2021-12-27 14:38:04.475431,-148
2021-12-27 14:38:04.475438,-213
2021-12-27 14:38:04.475444,-219
2021-12-27 14:38:04.475450,-182
2021-12-27 14:38:04.475457,-180
2021-12-27 14:38:04.475467,-169
2021-12-27 14:38:04.475474,-143
2021-12-27 14:38:04.475480,-162
2021-12-27 14:38:04.475487,-173
2021-12-27 14:38:04.475493,-113
2021-12-27 14:38:04.475500,-43
2021-12-27 14:38:04.475506,4
2021-12-27 14:38:04.475512,53
2021-12-27 14:38:04.475518,74
2021-12-27 14:38:04.475524,67
2021-12-27 14:38:04.475531,62
2021-12-27 14:38:04.475537,69
2021-12-27 14:38:04.475543,67
2021-12-27 14:38:04.475549,30
2021-12-27 14:38:04.475555,-20
2021-12-27 14:38:04.475562,-13
2021-12-27 14:38:04.475568,25
2021-12-27 14:38:04.475574,30
2021-12-27 14:38:04.475580,23
2021-12-27 14:38:04.475587,23
2021-12-27 14:38:04.670711,-16
2021-12-27 14:38:04.670741,-64
2021-12-27 14:38:04.670752,-81
2021-12-27 14:38:04.670762,-152
2021-12-27 14:38:04.670772,-213
2021-12-27 14:38:04.670781,71
2021-12-27 14:38:04.670791,877
2021-12-27 14:38:04.670800,1805
2021-12-27 14:38:04.670810,1970
2021-12-27 14:38:04.670819,599
2021-12-27 14:38:04.670828,-1169
2021-12-27 14:38:04.670838,-1264
2021-12-27 14:38:04.670847,-446
2021-12-27 14:38:04.670857,-412
2021-12-27 14:38:04.670866,-560
2021-12-27 14:38:04.670876,-303
2021-12-27 14:38:04.670885,-180
2021-12-27 14:38:04.670895,-229
2021-12-27 14:38:04.670904,-171
2021-12-27 14:38:04.670914,-120
2021-12-27 14:38:04.670923,-125
2021-12-27 14:38:04.670933,-94
2021-12-27 14:38:04.670942,-37
2021-12-27 14:38:04.670951,0
2021-12-27 14:38:04.670961,25
2021-12-27 14:38:04.670970,64
2021-12-27 14:38:04.670980,90
2021-12-27 14:38:04.670989,94
2021-12-27 14:38:04.670998,115
2021-12-27 14:38:04.671008,164
2021-12-27 14:38:05.011968,206
2021-12-27 14:38:05.011998,238
2021-12-27 14:38:05.012009,259
2021-12-27 14:38:05.012020,238
2021-12-27 14:38:05.012029,210
2021-12-27 14:38:05.012039,238
2021-12-27 14:38:05.012048,268
2021-12-27 14:38:05.012057,243
2021-12-27 14:38:05.012067,224
2021-12-27 14:38:05.012076,213
2021-12-27 14:38:05.012086,171
2021-12-27 14:38:05.012095,141
2021-12-27 14:38:05.012105,125
2021-12-27 14:38:05.012114,64
2021-12-27 14:38:05.012124,-16
2021-12-27 14:38:05.012133,-94
2021-12-27 14:38:05.012143,-173
2021-12-27 14:38:05.012152,-219
2021-12-27 14:38:05.012162,-224
2021-12-27 14:38:05.012171,-226
2021-12-27 14:38:05.012181,-236
2021-12-27 14:38:05.012190,-236
2021-12-27 14:38:05.012215,-226
2021-12-27 14:38:05.012225,-215
2021-12-27 14:38:05.012234,-178
2021-12-27 14:38:05.012244,-131
2021-12-27 14:38:05.012253,-120
2021-12-27 14:38:05.012263,-118
2021-12-27 14:38:05.012272,-101
2021-12-27 14:38:05.012282,-94
2021-12-27 14:38:05.158410,-83
2021-12-27 14:38:05.158432,-50
2021-12-27 14:38:05.158439,-39
2021-12-27 14:38:05.158446,-53
2021-12-27 14:38:05.158452,-53
2021-12-27 14:38:05.158458,-62
2021-12-27 14:38:05.158464,-106
2021-12-27 14:38:05.158470,-115
2021-12-27 14:38:05.158477,-99
2021-12-27 14:38:05.158483,-125
2021-12-27 14:38:05.158489,-143
2021-12-27 14:38:05.158495,-141
2021-12-27 14:38:05.158502,-155
2021-12-27 14:38:05.158508,-143
2021-12-27 14:38:05.158514,-108
2021-12-27 14:38:05.158520,-85
2021-12-27 14:38:05.158526,-62
2021-12-27 14:38:05.158532,-48
2021-12-27 14:38:05.158539,-48
2021-12-27 14:38:05.158545,-30
2021-12-27 14:38:05.158551,-11
2021-12-27 14:38:05.158557,-27
2021-12-27 14:38:05.158563,-39
2021-12-27 14:38:05.158570,-41
2021-12-27 14:38:05.158576,-81
2021-12-27 14:38:05.158582,-108
2021-12-27 14:38:05.158589,-78
2021-12-27 14:38:05.158595,-55
2021-12-27 14:38:05.158601,-50
2021-12-27 14:38:05.158607,-50
2021-12-27 14:38:05.449346,-104
2021-12-27 14:38:05.449376,-164
2021-12-27 14:38:05.449387,32
2021-12-27 14:38:05.449397,671
2021-12-27 14:38:05.449407,1555
2021-12-27 14:38:05.449416,2132
2021-12-27 14:38:05.449426,1440
2021-12-27 14:38:05.449435,-486
2021-12-27 14:38:05.449445,-1382
2021-12-27 14:38:05.449454,-613
2021-12-27 14:38:05.449464,-250
2021-12-27 14:38:05.449473,-509
2021-12-27 14:38:05.449482,-372
2021-12-27 14:38:05.449492,-215
2021-12-27 14:38:05.449501,-310
2021-12-27 14:38:05.449511,-289
2021-12-27 14:38:05.449521,-185
2021-12-27 14:38:05.449530,-180
2021-12-27 14:38:05.449539,-175
2021-12-27 14:38:05.449549,-131
2021-12-27 14:38:05.449558,-115
2021-12-27 14:38:05.449568,-104
2021-12-27 14:38:05.449577,-69
2021-12-27 14:38:05.449587,-30
2021-12-27 14:38:05.449596,6
2021-12-27 14:38:05.449605,39
2021-12-27 14:38:05.449615,55
2021-12-27 14:38:05.449625,76
2021-12-27 14:38:05.449634,113
2021-12-27 14:38:05.449644,152
2021-12-27 14:38:05.597167,185
2021-12-27 14:38:05.597189,213
2021-12-27 14:38:05.597196,217
2021-12-27 14:38:05.597203,206
2021-12-27 14:38:05.597209,215
2021-12-27 14:38:05.597215,238
2021-12-27 14:38:05.597221,256
2021-12-27 14:38:05.597227,261
2021-12-27 14:38:05.597234,213
2021-12-27 14:38:05.597240,118
2021-12-27 14:38:05.597246,34
2021-12-27 14:38:05.597252,-55
2021-12-27 14:38:05.597259,-173
2021-12-27 14:38:05.597265,-254
2021-12-27 14:38:05.597271,-307
2021-12-27 14:38:05.597277,-368
2021-12-27 14:38:05.597284,-365
2021-12-27 14:38:05.597290,-296
2021-12-27 14:38:05.597296,-263
2021-12-27 14:38:05.597302,-261
2021-12-27 14:38:05.597309,-243
2021-12-27 14:38:05.597315,-236
2021-12-27 14:38:05.597321,-229
2021-12-27 14:38:05.597327,-194
2021-12-27 14:38:05.597333,-164
2021-12-27 14:38:05.597340,-148
2021-12-27 14:38:05.597346,-136
2021-12-27 14:38:05.597352,-143
2021-12-27 14:38:05.597358,-155
2021-12-27 14:38:05.597364,-131
2021-12-27 14:38:05.841076,-108
2021-12-27 14:38:05.841105,-104
2021-12-27 14:38:05.841116,-101
2021-12-27 14:38:05.841126,-122
2021-12-27 14:38:05.841136,-164
2021-12-27 14:38:05.841145,-157
2021-12-27 14:38:05.841155,-111
2021-12-27 14:38:05.841164,-97
2021-12-27 14:38:05.841174,-106
2021-12-27 14:38:05.841183,-106
2021-12-27 14:38:05.841192,-113
2021-12-27 14:38:05.841202,-120
2021-12-27 14:38:05.841211,-94
2021-12-27 14:38:05.841221,-64
2021-12-27 14:38:05.841230,-67
2021-12-27 14:38:05.841239,-92
2021-12-27 14:38:05.841249,-115
2021-12-27 14:38:05.841258,-115
2021-12-27 14:38:05.841268,-81
2021-12-27 14:38:05.841277,-50
2021-12-27 14:38:05.841286,-64
2021-12-27 14:38:05.841296,-83
2021-12-27 14:38:05.841305,-71
2021-12-27 14:38:05.841315,-62
2021-12-27 14:38:05.841324,-60
2021-12-27 14:38:05.841334,-46
2021-12-27 14:38:05.841343,-41
2021-12-27 14:38:05.841353,-53
2021-12-27 14:38:05.841362,-101
2021-12-27 14:38:05.841371,-150
2021-12-27 14:38:06.084788,69
2021-12-27 14:38:06.084808,791
2021-12-27 14:38:06.084816,1759
2021-12-27 14:38:06.084822,2292
2021-12-27 14:38:06.084829,1382
2021-12-27 14:38:06.084835,-634
2021-12-27 14:38:06.084841,-1331
2021-12-27 14:38:06.084847,-451
2021-12-27 14:38:06.084853,-155
2021-12-27 14:38:06.084860,-386
2021-12-27 14:38:06.084866,-171
2021-12-27 14:38:06.084872,-41
2021-12-27 14:38:06.084878,-194
2021-12-27 14:38:06.084884,-199
2021-12-27 14:38:06.084891,-118
2021-12-27 14:38:06.084897,-111
2021-12-27 14:38:06.084903,-81
2021-12-27 14:38:06.084909,-78
2021-12-27 14:38:06.084915,-125
2021-12-27 14:38:06.084921,-99
2021-12-27 14:38:06.084928,-43
2021-12-27 14:38:06.084934,-37
2021-12-27 14:38:06.084940,-13
2021-12-27 14:38:06.084946,39
2021-12-27 14:38:06.084952,60
2021-12-27 14:38:06.084958,69
2021-12-27 14:38:06.084965,101
2021-12-27 14:38:06.084971,134
2021-12-27 14:38:06.084977,157
2021-12-27 14:38:06.084983,189
2021-12-27 14:38:06.328498,213
2021-12-27 14:38:06.328520,217
2021-12-27 14:38:06.328527,222
2021-12-27 14:38:06.328534,229
2021-12-27 14:38:06.328540,206
2021-12-27 14:38:06.328546,162
2021-12-27 14:38:06.328552,106
2021-12-27 14:38:06.328559,64
2021-12-27 14:38:06.328565,46
2021-12-27 14:38:06.328571,-11
2021-12-27 14:38:06.328577,-78
2021-12-27 14:38:06.328584,-108
2021-12-27 14:38:06.328590,-134
2021-12-27 14:38:06.328596,-180
2021-12-27 14:38:06.328614,-215
2021-12-27 14:38:06.328621,-213
2021-12-27 14:38:06.328627,-185
2021-12-27 14:38:06.328634,-152
2021-12-27 14:38:06.328640,-127
2021-12-27 14:38:06.328646,-129
2021-12-27 14:38:06.328652,-157
2021-12-27 14:38:06.328659,-162
2021-12-27 14:38:06.328665,-136
2021-12-27 14:38:06.328671,-113
2021-12-27 14:38:06.328677,-97
2021-12-27 14:38:06.328684,-87
2021-12-27 14:38:06.328690,-101
2021-12-27 14:38:06.328696,-113
2021-12-27 14:38:06.328702,-99
2021-12-27 14:38:06.328708,-83
2021-12-27 14:38:06.523336,-71
2021-12-27 14:38:06.523366,-53
2021-12-27 14:38:06.523377,-48
2021-12-27 14:38:06.523387,-55
2021-12-27 14:38:06.523397,-48
2021-12-27 14:38:06.523406,-27
2021-12-27 14:38:06.523416,-11
2021-12-27 14:38:06.523425,0
2021-12-27 14:38:06.523435,-6
2021-12-27 14:38:06.523444,-39
2021-12-27 14:38:06.523454,-46
2021-12-27 14:38:06.523463,-11
2021-12-27 14:38:06.523473,2
2021-12-27 14:38:06.523482,11
2021-12-27 14:38:06.523492,32
2021-12-27 14:38:06.523501,-9
2021-12-27 14:38:06.523511,-67
2021-12-27 14:38:06.523520,-37
2021-12-27 14:38:06.523530,25
2021-12-27 14:38:06.523539,23
2021-12-27 14:38:06.523549,-9
2021-12-27 14:38:06.523558,-50
2021-12-27 14:38:06.523568,-106
2021-12-27 14:38:06.523577,-148
2021-12-27 14:38:06.523586,-157
2021-12-27 14:38:06.523596,-136
2021-12-27 14:38:06.523605,-129
2021-12-27 14:38:06.523615,-152
2021-12-27 14:38:06.523625,-217
2021-12-27 14:38:06.523634,-338
2021-12-27 14:38:06.767317,-245
2021-12-27 14:38:06.767338,384
2021-12-27 14:38:06.767345,1291
2021-12-27 14:38:06.767351,1879
2021-12-27 14:38:06.767358,1342
2021-12-27 14:38:06.767364,-402
2021-12-27 14:38:06.767370,-1361
2021-12-27 14:38:06.767376,-680
2021-12-27 14:38:06.767382,-280
2021-12-27 14:38:06.767388,-527
2021-12-27 14:38:06.767394,-405
2021-12-27 14:38:06.767401,-236
2021-12-27 14:38:06.767407,-307
2021-12-27 14:38:06.767413,-282
2021-12-27 14:38:06.767419,-182
2021-12-27 14:38:06.767425,-169
2021-12-27 14:38:06.767431,-150
2021-12-27 14:38:06.767438,-108
2021-12-27 14:38:06.767444,-90
2021-12-27 14:38:06.767450,-62
2021-12-27 14:38:06.767456,-27
2021-12-27 14:38:06.767462,-16
2021-12-27 14:38:06.767468,0
2021-12-27 14:38:06.767475,13
2021-12-27 14:38:06.767481,23
2021-12-27 14:38:06.767487,60
2021-12-27 14:38:06.767493,85
2021-12-27 14:38:06.767499,94
2021-12-27 14:38:06.767505,134
2021-12-27 14:38:06.767511,162
2021-12-27 14:38:07.011065,166
2021-12-27 14:38:07.011086,206
2021-12-27 14:38:07.011094,222
2021-12-27 14:38:07.011100,203
2021-12-27 14:38:07.011106,203
2021-12-27 14:38:07.011113,206
2021-12-27 14:38:07.011119,164
2021-12-27 14:38:07.011125,108
2021-12-27 14:38:07.011131,67
2021-12-27 14:38:07.011137,13
2021-12-27 14:38:07.011143,-48
2021-12-27 14:38:07.011150,-94
2021-12-27 14:38:07.011156,-155
2021-12-27 14:38:07.011162,-201
2021-12-27 14:38:07.011168,-196
2021-12-27 14:38:07.011174,-180
2021-12-27 14:38:07.011180,-175
2021-12-27 14:38:07.011187,-155
2021-12-27 14:38:07.011193,-134
2021-12-27 14:38:07.011199,-125
2021-12-27 14:38:07.011205,-108
2021-12-27 14:38:07.011211,-87
2021-12-27 14:38:07.011217,-71
2021-12-27 14:38:07.011224,-60
2021-12-27 14:38:07.011230,-62
2021-12-27 14:38:07.011236,-74
2021-12-27 14:38:07.011242,-83
2021-12-27 14:38:07.011249,-74
2021-12-27 14:38:07.011255,-64
2021-12-27 14:38:07.011261,-87
2021-12-27 14:38:07.205958,-131
2021-12-27 14:38:07.205979,-143
2021-12-27 14:38:07.205987,-131
2021-12-27 14:38:07.205993,-129
2021-12-27 14:38:07.205999,-125
2021-12-27 14:38:07.206005,-104
2021-12-27 14:38:07.206012,-78
2021-12-27 14:38:07.206018,-81
2021-12-27 14:38:07.206024,-104
2021-12-27 14:38:07.206030,-111
2021-12-27 14:38:07.206036,-90
2021-12-27 14:38:07.206042,-64
2021-12-27 14:38:07.206048,-53
2021-12-27 14:38:07.206055,-46
2021-12-27 14:38:07.206061,-69
2021-12-27 14:38:07.206067,-101
2021-12-27 14:38:07.206073,-83
2021-12-27 14:38:07.206079,-46
2021-12-27 14:38:07.206085,-4
2021-12-27 14:38:07.206091,48
2021-12-27 14:38:07.206098,27
2021-12-27 14:38:07.206104,-32
2021-12-27 14:38:07.206110,-18
2021-12-27 14:38:07.206116,27
2021-12-27 14:38:07.206122,43
2021-12-27 14:38:07.206128,39
2021-12-27 14:38:07.206135,13
2021-12-27 14:38:07.206141,-37
2021-12-27 14:38:07.206147,-85
2021-12-27 14:38:07.206153,-67
2021-12-27 14:38:07.545664,-11
2021-12-27 14:38:07.545706,-25
2021-12-27 14:38:07.545717,-127
2021-12-27 14:38:07.545727,-261
2021-12-27 14:38:07.545737,-238
2021-12-27 14:38:07.545747,206
2021-12-27 14:38:07.545756,944
2021-12-27 14:38:07.545766,1620
2021-12-27 14:38:07.545775,1796
2021-12-27 14:38:07.545785,620
2021-12-27 14:38:07.545794,-1065
2021-12-27 14:38:07.545804,-1065
2021-12-27 14:38:07.545814,-231
2021-12-27 14:38:07.545823,-277
2021-12-27 14:38:07.545833,-400
2021-12-27 14:38:07.545842,-143
2021-12-27 14:38:07.545852,-141
2021-12-27 14:38:07.545861,-243
2021-12-27 14:38:07.545871,-164
2021-12-27 14:38:07.545881,-113
2021-12-27 14:38:07.545890,-111
2021-12-27 14:38:07.545900,-71
2021-12-27 14:38:07.545909,-53
2021-12-27 14:38:07.545919,4
2021-12-27 14:38:07.545928,87
2021-12-27 14:38:07.545938,76
2021-12-27 14:38:07.545948,48
2021-12-27 14:38:07.545957,85
2021-12-27 14:38:07.545967,115
2021-12-27 14:38:07.545977,87
2021-12-27 14:38:07.693647,76
2021-12-27 14:38:07.693677,152
2021-12-27 14:38:07.693689,243
2021-12-27 14:38:07.693699,226
2021-12-27 14:38:07.693708,194
2021-12-27 14:38:07.693718,217
2021-12-27 14:38:07.693727,201
2021-12-27 14:38:07.693736,162
2021-12-27 14:38:07.693746,185
2021-12-27 14:38:07.693755,213
2021-12-27 14:38:07.693765,182
2021-12-27 14:38:07.693774,106
2021-12-27 14:38:07.693784,62
2021-12-27 14:38:07.693793,53
2021-12-27 14:38:07.693802,2
2021-12-27 14:38:07.693812,-64
2021-12-27 14:38:07.693822,-92
2021-12-27 14:38:07.693831,-148
2021-12-27 14:38:07.693840,-254
2021-12-27 14:38:07.693850,-307
2021-12-27 14:38:07.693859,-261
2021-12-27 14:38:07.693869,-171
2021-12-27 14:38:07.693878,-101
2021-12-27 14:38:07.693888,-87
2021-12-27 14:38:07.693897,-53
2021-12-27 14:38:07.693907,9
2021-12-27 14:38:07.693916,-9
2021-12-27 14:38:07.693925,-76
2021-12-27 14:38:07.693935,-46
2021-12-27 14:38:07.693945,53
2021-12-27 14:38:07.937395,57
2021-12-27 14:38:07.937425,0
2021-12-27 14:38:07.937437,-4
2021-12-27 14:38:07.937447,-2
2021-12-27 14:38:07.937456,-39
2021-12-27 14:38:07.937466,-37
2021-12-27 14:38:07.937475,-67
2021-12-27 14:38:07.937485,-162
2021-12-27 14:38:07.937494,-87
2021-12-27 14:38:07.937503,55
2021-12-27 14:38:07.937513,30
2021-12-27 14:38:07.937522,-23
2021-12-27 14:38:07.937532,-2
2021-12-27 14:38:07.937542,-23
2021-12-27 14:38:07.937551,-43
2021-12-27 14:38:07.937560,-9
2021-12-27 14:38:07.937570,18
2021-12-27 14:38:07.937579,34
2021-12-27 14:38:07.937589,67
2021-12-27 14:38:07.937598,90
2021-12-27 14:38:07.937607,37
2021-12-27 14:38:07.937617,-2
2021-12-27 14:38:07.937626,81
2021-12-27 14:38:07.937635,131
2021-12-27 14:38:07.937645,78
2021-12-27 14:38:07.937654,97
2021-12-27 14:38:07.937663,192
2021-12-27 14:38:07.937673,199
2021-12-27 14:38:07.937682,143
2021-12-27 14:38:07.937691,90
2021-12-27 14:38:08.132362,39
2021-12-27 14:38:08.132385,48
2021-12-27 14:38:08.132393,64
2021-12-27 14:38:08.132399,-9
2021-12-27 14:38:08.132405,-62
2021-12-27 14:38:08.132411,-27
2021-12-27 14:38:08.132417,-46
2021-12-27 14:38:08.132424,-166
2021-12-27 14:38:08.132430,-289
2021-12-27 14:38:08.132436,-233
2021-12-27 14:38:08.132442,238
2021-12-27 14:38:08.132448,1030
2021-12-27 14:38:08.132454,1743
2021-12-27 14:38:08.132460,1632
2021-12-27 14:38:08.132467,62
2021-12-27 14:38:08.132473,-1370
2021-12-27 14:38:08.132479,-965
2021-12-27 14:38:08.132485,-300
2021-12-27 14:38:08.132491,-460
2021-12-27 14:38:08.132497,-407
2021-12-27 14:38:08.132503,-127
2021-12-27 14:38:08.132510,-173
2021-12-27 14:38:08.132516,-268
2021-12-27 14:38:08.132522,-155
2021-12-27 14:38:08.132528,-55
2021-12-27 14:38:08.132534,-90
2021-12-27 14:38:08.132540,-71
2021-12-27 14:38:08.132546,13
2021-12-27 14:38:08.132552,39
2021-12-27 14:38:08.132559,30
2021-12-27 14:38:08.376212,20
2021-12-27 14:38:08.376232,43
2021-12-27 14:38:08.376240,169
2021-12-27 14:38:08.376246,291
2021-12-27 14:38:08.376253,268
2021-12-27 14:38:08.376259,217
2021-12-27 14:38:08.376265,229
2021-12-27 14:38:08.376271,199
2021-12-27 14:38:08.376277,180
2021-12-27 14:38:08.376283,203
2021-12-27 14:38:08.376289,169
2021-12-27 14:38:08.376296,162
2021-12-27 14:38:08.376302,240
2021-12-27 14:38:08.376308,287
2021-12-27 14:38:08.376314,243
2021-12-27 14:38:08.376320,196
2021-12-27 14:38:08.376326,201
2021-12-27 14:38:08.376333,178
2021-12-27 14:38:08.376339,108
2021-12-27 14:38:08.376345,53
2021-12-27 14:38:08.376351,-9
2021-12-27 14:38:08.376357,-94
2021-12-27 14:38:08.376364,-131
2021-12-27 14:38:08.376370,-108
2021-12-27 14:38:08.376376,-92
2021-12-27 14:38:08.376382,-90
2021-12-27 14:38:08.376388,-64
2021-12-27 14:38:08.376394,-39
2021-12-27 14:38:08.376401,-11
2021-12-27 14:38:08.376407,4
2021-12-27 14:38:08.619588,0
2021-12-27 14:38:08.619618,18
2021-12-27 14:38:08.619629,23
2021-12-27 14:38:08.619639,-2
2021-12-27 14:38:08.619649,23
2021-12-27 14:38:08.619658,50
2021-12-27 14:38:08.619668,37
2021-12-27 14:38:08.619677,23
2021-12-27 14:38:08.619687,-6
2021-12-27 14:38:08.619696,-27
2021-12-27 14:38:08.619706,-4
2021-12-27 14:38:08.619715,-9
2021-12-27 14:38:08.619725,-55
2021-12-27 14:38:08.619734,-78
2021-12-27 14:38:08.619744,-71
2021-12-27 14:38:08.619753,-74
2021-12-27 14:38:08.619763,-90
2021-12-27 14:38:08.619773,-94
2021-12-27 14:38:08.619782,-101
2021-12-27 14:38:08.619792,-108
2021-12-27 14:38:08.619801,-71
2021-12-27 14:38:08.619811,-64
2021-12-27 14:38:08.619820,-125
2021-12-27 14:38:08.619829,-113
2021-12-27 14:38:08.619839,-13
2021-12-27 14:38:08.619849,11
2021-12-27 14:38:08.619858,-60
2021-12-27 14:38:08.619868,-67
2021-12-27 14:38:08.619877,4
2021-12-27 14:38:08.619887,37
2021-12-27 14:38:08.863369,39
2021-12-27 14:38:08.863392,-11
2021-12-27 14:38:08.863400,-83
2021-12-27 14:38:08.863406,-71
2021-12-27 14:38:08.863412,-83
2021-12-27 14:38:08.863418,-129
2021-12-27 14:38:08.863425,-90
2021-12-27 14:38:08.863431,-108
2021-12-27 14:38:08.863437,-238
2021-12-27 14:38:08.863443,-317
2021-12-27 14:38:08.863449,-307
2021-12-27 14:38:08.863455,-129
2021-12-27 14:38:08.863462,446
2021-12-27 14:38:08.863468,1368
2021-12-27 14:38:08.863474,2046
2021-12-27 14:38:08.863480,1465
2021-12-27 14:38:08.863486,-407
2021-12-27 14:38:08.863493,-1384
2021-12-27 14:38:08.863499,-657
2021-12-27 14:38:08.863565,-245
2021-12-27 14:38:08.863572,-511
2021-12-27 14:38:08.863578,-372
2021-12-27 14:38:08.863585,-122
2021-12-27 14:38:08.863591,-164
2021-12-27 14:38:08.863597,-164
2021-12-27 14:38:08.863603,-74
2021-12-27 14:38:08.863609,-85
2021-12-27 14:38:08.863615,-85
2021-12-27 14:38:08.863622,-6
2021-12-27 14:38:08.863628,18
2021-12-27 14:38:09.058478,13
2021-12-27 14:38:09.058508,39
2021-12-27 14:38:09.058519,64
2021-12-27 14:38:09.058529,92
2021-12-27 14:38:09.058538,111
2021-12-27 14:38:09.058548,118
2021-12-27 14:38:09.058557,199
2021-12-27 14:38:09.058567,270
2021-12-27 14:38:09.058577,213
2021-12-27 14:38:09.058586,150
2021-12-27 14:38:09.058596,213
2021-12-27 14:38:09.058605,280
2021-12-27 14:38:09.058615,247
2021-12-27 14:38:09.058625,238
2021-12-27 14:38:09.058634,247
2021-12-27 14:38:09.058644,192
2021-12-27 14:38:09.058653,175
2021-12-27 14:38:09.058662,194
2021-12-27 14:38:09.058672,127
2021-12-27 14:38:09.058681,78
2021-12-27 14:38:09.058691,69
2021-12-27 14:38:09.058701,-57
2021-12-27 14:38:09.058710,-192
2021-12-27 14:38:09.058720,-199
2021-12-27 14:38:09.058729,-208
2021-12-27 14:38:09.058738,-226
2021-12-27 14:38:09.058748,-189
2021-12-27 14:38:09.058758,-182
2021-12-27 14:38:09.058767,-208
2021-12-27 14:38:09.058777,-182
2021-12-27 14:38:09.302313,-131
2021-12-27 14:38:09.302344,-78
2021-12-27 14:38:09.302355,-43
2021-12-27 14:38:09.302365,-85
2021-12-27 14:38:09.302374,-136
2021-12-27 14:38:09.302383,-97
2021-12-27 14:38:09.302393,-55
2021-12-27 14:38:09.302402,-90
2021-12-27 14:38:09.302411,-115
2021-12-27 14:38:09.302421,-90
2021-12-27 14:38:09.302430,-83
2021-12-27 14:38:09.302440,-106
2021-12-27 14:38:09.302449,-104
2021-12-27 14:38:09.302459,-87
2021-12-27 14:38:09.302468,-108
2021-12-27 14:38:09.302477,-141
2021-12-27 14:38:09.302487,-157
2021-12-27 14:38:09.302496,-150
2021-12-27 14:38:09.302505,-113
2021-12-27 14:38:09.302515,-69
2021-12-27 14:38:09.302524,-60
2021-12-27 14:38:09.302533,-94
2021-12-27 14:38:09.302543,-90
2021-12-27 14:38:09.302552,-50
2021-12-27 14:38:09.302561,-87
2021-12-27 14:38:09.302571,-120
2021-12-27 14:38:09.302580,-81
2021-12-27 14:38:09.302589,-67
2021-12-27 14:38:09.302599,-55
2021-12-27 14:38:09.302608,-25
2021-12-27 14:38:09.593204,-69
2021-12-27 14:38:09.593234,-104
2021-12-27 14:38:09.593245,-101
2021-12-27 14:38:09.593255,-166
2021-12-27 14:38:09.593265,-201
2021-12-27 14:38:09.593274,-148
2021-12-27 14:38:09.593284,-143
2021-12-27 14:38:09.593293,-189
2021-12-27 14:38:09.593303,-178
2021-12-27 14:38:09.593312,-138
2021-12-27 14:38:09.593322,-162
2021-12-27 14:38:09.593331,-243
2021-12-27 14:38:09.593340,-166
2021-12-27 14:38:09.593350,388
2021-12-27 14:38:09.593360,1317
2021-12-27 14:38:09.593370,2023
2021-12-27 14:38:09.593379,1639
2021-12-27 14:38:09.593389,-120
2021-12-27 14:38:09.593398,-1377
2021-12-27 14:38:09.593410,-782
2021-12-27 14:38:09.593422,-162
2021-12-27 14:38:09.593431,-384
2021-12-27 14:38:09.593441,-319
2021-12-27 14:38:09.593450,-71
2021-12-27 14:38:09.593460,-141
2021-12-27 14:38:09.593469,-196
2021-12-27 14:38:09.593479,-122
2021-12-27 14:38:09.593488,-120
2021-12-27 14:38:09.593498,-148
2021-12-27 14:38:09.593508,-101
2021-12-27 14:38:09.789865,-32
2021-12-27 14:38:09.789885,-4
2021-12-27 14:38:09.789893,-32
2021-12-27 14:38:09.789899,-25
2021-12-27 14:38:09.789905,57
2021-12-27 14:38:09.789911,113
2021-12-27 14:38:09.789917,94
2021-12-27 14:38:09.789924,94
2021-12-27 14:38:09.789930,136
2021-12-27 14:38:09.789936,157
2021-12-27 14:38:09.789942,164
2021-12-27 14:38:09.789948,213
2021-12-27 14:38:09.789954,268
2021-12-27 14:38:09.789961,259
2021-12-27 14:38:09.789967,194
2021-12-27 14:38:09.789973,134
2021-12-27 14:38:09.789979,162
2021-12-27 14:38:09.789985,231
2021-12-27 14:38:09.789991,213
2021-12-27 14:38:09.789997,159
2021-12-27 14:38:09.790004,104
2021-12-27 14:38:09.790010,-16
2021-12-27 14:38:09.790016,-131
2021-12-27 14:38:09.790022,-173
2021-12-27 14:38:09.790028,-159
2021-12-27 14:38:09.790035,-141
2021-12-27 14:38:09.790041,-164
2021-12-27 14:38:09.790047,-194
2021-12-27 14:38:09.790053,-196
2021-12-27 14:38:09.790059,-171
2021-12-27 14:38:09.984691,-108
2021-12-27 14:38:09.984711,-50
2021-12-27 14:38:09.984719,-57
2021-12-27 14:38:09.984725,-74
2021-12-27 14:38:09.984731,-37
2021-12-27 14:38:09.984737,4
2021-12-27 14:38:09.984744,27
2021-12-27 14:38:09.984750,48
2021-12-27 14:38:09.984756,25
2021-12-27 14:38:09.984762,-32
2021-12-27 14:38:09.984768,-27
2021-12-27 14:38:09.984774,64
2021-12-27 14:38:09.984780,94
2021-12-27 14:38:09.984787,34
2021-12-27 14:38:09.984793,32
2021-12-27 14:38:09.984799,37
2021-12-27 14:38:09.984805,-30
2021-12-27 14:38:09.984811,-50
2021-12-27 14:38:09.984817,2
2021-12-27 14:38:09.984823,16
2021-12-27 14:38:09.984829,-25
2021-12-27 14:38:09.984835,-55
2021-12-27 14:38:09.984842,-67
2021-12-27 14:38:09.984848,-87
2021-12-27 14:38:09.984854,-92
2021-12-27 14:38:09.984860,-62
2021-12-27 14:38:09.984866,-46
2021-12-27 14:38:09.984872,-76
2021-12-27 14:38:09.984878,-83
2021-12-27 14:38:09.984884,-64
2021-12-27 14:38:10.325443,-85
2021-12-27 14:38:10.325472,-131
2021-12-27 14:38:10.325484,-162
2021-12-27 14:38:10.325494,-159
2021-12-27 14:38:10.325504,-185
2021-12-27 14:38:10.325513,-273
2021-12-27 14:38:10.325523,-310
2021-12-27 14:38:10.325532,-282
2021-12-27 14:38:10.325542,-254
2021-12-27 14:38:10.325551,-240
2021-12-27 14:38:10.325561,-266
2021-12-27 14:38:10.325570,-275
2021-12-27 14:38:10.325580,-247
2021-12-27 14:38:10.325589,-280
2021-12-27 14:38:10.325599,-268
2021-12-27 14:38:10.325609,53
2021-12-27 14:38:10.325618,764
2021-12-27 14:38:10.325628,1606
2021-12-27 14:38:10.325637,1974
2021-12-27 14:38:10.325647,953
2021-12-27 14:38:10.325656,-872
2021-12-27 14:38:10.325666,-1257
2021-12-27 14:38:10.325675,-444
2021-12-27 14:38:10.325685,-324
2021-12-27 14:38:10.325694,-467
2021-12-27 14:38:10.325704,-196
2021-12-27 14:38:10.325713,-104
2021-12-27 14:38:10.325723,-226
2021-12-27 14:38:10.325732,-185
2021-12-27 14:38:10.325742,-81
2021-12-27 14:38:10.471969,-76
2021-12-27 14:38:10.471989,-87
2021-12-27 14:38:10.471996,-60
2021-12-27 14:38:10.472003,-27
2021-12-27 14:38:10.472009,-9
2021-12-27 14:38:10.472015,6
2021-12-27 14:38:10.472021,57
2021-12-27 14:38:10.472028,87
2021-12-27 14:38:10.472034,50
2021-12-27 14:38:10.472040,69
2021-12-27 14:38:10.472046,141
2021-12-27 14:38:10.472052,152
2021-12-27 14:38:10.472058,134
2021-12-27 14:38:10.472064,166
2021-12-27 14:38:10.472070,252
2021-12-27 14:38:10.472076,284
2021-12-27 14:38:10.472083,243
2021-12-27 14:38:10.472089,231
2021-12-27 14:38:10.472095,243
2021-12-27 14:38:10.472101,219
2021-12-27 14:38:10.472107,226
2021-12-27 14:38:10.472113,240
2021-12-27 14:38:10.472119,173
2021-12-27 14:38:10.472125,74
2021-12-27 14:38:10.472131,-13
2021-12-27 14:38:10.472138,-78
2021-12-27 14:38:10.472144,-115
2021-12-27 14:38:10.472150,-196
2021-12-27 14:38:10.472156,-261
2021-12-27 14:38:10.472162,-203
2021-12-27 14:38:10.667095,-101
2021-12-27 14:38:10.667115,-101
2021-12-27 14:38:10.667122,-178
2021-12-27 14:38:10.667129,-159
2021-12-27 14:38:10.667135,-71
2021-12-27 14:38:10.667141,-67
2021-12-27 14:38:10.667147,-101
2021-12-27 14:38:10.667153,-85
2021-12-27 14:38:10.667160,-90
2021-12-27 14:38:10.667166,-180
2021-12-27 14:38:10.667172,-229
2021-12-27 14:38:10.667178,-141
2021-12-27 14:38:10.667184,-99
2021-12-27 14:38:10.667190,-155
2021-12-27 14:38:10.667196,-171
2021-12-27 14:38:10.667203,-178
2021-12-27 14:38:10.667209,-192
2021-12-27 14:38:10.667215,-155
2021-12-27 14:38:10.667221,-134
2021-12-27 14:38:10.667227,-134
2021-12-27 14:38:10.667233,-106
2021-12-27 14:38:10.667251,-120
2021-12-27 14:38:10.667257,-148
2021-12-27 14:38:10.667263,-87
2021-12-27 14:38:10.667269,-27
2021-12-27 14:38:10.667276,-64
2021-12-27 14:38:10.667282,-138
2021-12-27 14:38:10.667288,-164
2021-12-27 14:38:10.667294,-155
2021-12-27 14:38:10.667300,-143
2021-12-27 14:38:10.911120,-118
2021-12-27 14:38:10.911150,-78
2021-12-27 14:38:10.911161,-64
2021-12-27 14:38:10.911171,-108
2021-12-27 14:38:10.911181,-180
2021-12-27 14:38:10.911190,-201
2021-12-27 14:38:10.911199,-175
2021-12-27 14:38:10.911209,-145
2021-12-27 14:38:10.911218,-150
2021-12-27 14:38:10.911228,-208
2021-12-27 14:38:10.911237,-254
2021-12-27 14:38:10.911247,-233
2021-12-27 14:38:10.911256,-189
2021-12-27 14:38:10.911265,-182
2021-12-27 14:38:10.911275,-203
2021-12-27 14:38:10.911284,-215
2021-12-27 14:38:10.911293,-206
2021-12-27 14:38:10.911303,-203
2021-12-27 14:38:10.911312,-252
2021-12-27 14:38:10.911322,-166
2021-12-27 14:38:10.911332,358
2021-12-27 14:38:10.911341,1224
2021-12-27 14:38:10.911351,1958
2021-12-27 14:38:10.911361,1789
2021-12-27 14:38:10.911370,185
2021-12-27 14:38:10.911380,-1192
2021-12-27 14:38:10.911390,-754
2021-12-27 14:38:10.911399,-152
2021-12-27 14:38:10.911409,-402
2021-12-27 14:38:10.911418,-400
2021-12-27 14:38:11.154655,-115
2021-12-27 14:38:11.154678,-101
2021-12-27 14:38:11.154686,-150
2021-12-27 14:38:11.154692,-92
2021-12-27 14:38:11.154698,-81
2021-12-27 14:38:11.154704,-113
2021-12-27 14:38:11.154710,-108
2021-12-27 14:38:11.154716,-85
2021-12-27 14:38:11.154722,-39
2021-12-27 14:38:11.154729,39
2021-12-27 14:38:11.154735,50
2021-12-27 14:38:11.154741,-2
2021-12-27 14:38:11.154747,13
2021-12-27 14:38:11.154753,83
2021-12-27 14:38:11.154759,67
2021-12-27 14:38:11.154765,6
2021-12-27 14:38:11.154772,50
2021-12-27 14:38:11.154778,104
2021-12-27 14:38:11.154784,69
2021-12-27 14:38:11.154790,74
2021-12-27 14:38:11.154796,164
2021-12-27 14:38:11.154802,196
2021-12-27 14:38:11.154809,155
2021-12-27 14:38:11.154815,129
2021-12-27 14:38:11.154821,150
2021-12-27 14:38:11.154827,185
2021-12-27 14:38:11.154833,159
2021-12-27 14:38:11.154839,104
2021-12-27 14:38:11.154845,85
2021-12-27 14:38:11.154852,11
2021-12-27 14:38:11.398363,-125
2021-12-27 14:38:11.398393,-180
2021-12-27 14:38:11.398405,-187
2021-12-27 14:38:11.398415,-240
2021-12-27 14:38:11.398424,-261
2021-12-27 14:38:11.398434,-173
2021-12-27 14:38:11.398443,-76
2021-12-27 14:38:11.398453,-90
2021-12-27 14:38:11.398463,-185
2021-12-27 14:38:11.398472,-196
2021-12-27 14:38:11.398482,-106
2021-12-27 14:38:11.398491,-55
2021-12-27 14:38:11.398501,-90
2021-12-27 14:38:11.398511,-155
2021-12-27 14:38:11.398520,-164
2021-12-27 14:38:11.398530,-106
2021-12-27 14:38:11.398539,-92
2021-12-27 14:38:11.398549,-90
2021-12-27 14:38:11.398558,-9
2021-12-27 14:38:11.398568,2
2021-12-27 14:38:11.398578,-101
2021-12-27 14:38:11.398587,-113
2021-12-27 14:38:11.398597,-41
2021-12-27 14:38:11.398606,-46
2021-12-27 14:38:11.398616,-48
2021-12-27 14:38:11.398625,6
2021-12-27 14:38:11.398635,9
2021-12-27 14:38:11.398644,-43
2021-12-27 14:38:11.398654,-18
2021-12-27 14:38:11.398663,37
2021-12-27 14:38:11.689419,32
2021-12-27 14:38:11.689449,-16
2021-12-27 14:38:11.689460,-81
2021-12-27 14:38:11.689470,-67
2021-12-27 14:38:11.689480,-30
2021-12-27 14:38:11.689489,-104
2021-12-27 14:38:11.689499,-94
2021-12-27 14:38:11.689508,48
2021-12-27 14:38:11.689518,6
2021-12-27 14:38:11.689527,-182
2021-12-27 14:38:11.689536,-196
2021-12-27 14:38:11.689546,-113
2021-12-27 14:38:11.689555,-115
2021-12-27 14:38:11.689565,-129
2021-12-27 14:38:11.689574,-134
2021-12-27 14:38:11.689584,-155
2021-12-27 14:38:11.689593,-131
2021-12-27 14:38:11.689603,-108
2021-12-27 14:38:11.689612,-129
2021-12-27 14:38:11.689621,-143
2021-12-27 14:38:11.689631,-196
2021-12-27 14:38:11.689640,-275
2021-12-27 14:38:11.689650,-270
2021-12-27 14:38:11.689659,-219
2021-12-27 14:38:11.689669,-173
2021-12-27 14:38:11.689678,-150
2021-12-27 14:38:11.689688,-166
2021-12-27 14:38:11.689697,-219
2021-12-27 14:38:11.689707,-203
2021-12-27 14:38:11.689716,159
2021-12-27 14:38:11.885931,896
2021-12-27 14:38:11.885962,1606
2021-12-27 14:38:11.885973,1704
2021-12-27 14:38:11.885983,546
2021-12-27 14:38:11.885993,-970
2021-12-27 14:38:11.886013,-1011
2021-12-27 14:38:11.886023,-289
2021-12-27 14:38:11.886033,-243
2021-12-27 14:38:11.886043,-335
2021-12-27 14:38:11.886052,-178
2021-12-27 14:38:11.886062,-175
2021-12-27 14:38:11.886071,-222
2021-12-27 14:38:11.886081,-138
2021-12-27 14:38:11.886090,-78
2021-12-27 14:38:11.886100,-74
2021-12-27 14:38:11.886109,-50
2021-12-27 14:38:11.886118,-55
2021-12-27 14:38:11.886128,-74
2021-12-27 14:38:11.886137,-32
2021-12-27 14:38:11.886147,-11
2021-12-27 14:38:11.886156,-48
2021-12-27 14:38:11.886165,-20
2021-12-27 14:38:11.886175,67
2021-12-27 14:38:11.886185,81
2021-12-27 14:38:11.886194,57
2021-12-27 14:38:11.886204,125
2021-12-27 14:38:11.886213,189
2021-12-27 14:38:11.886223,150
2021-12-27 14:38:11.886232,134
2021-12-27 14:38:11.886242,164
2021-12-27 14:38:12.129732,164
2021-12-27 14:38:12.129762,175
2021-12-27 14:38:12.129774,217
2021-12-27 14:38:12.129783,252
2021-12-27 14:38:12.129793,243
2021-12-27 14:38:12.129802,210
2021-12-27 14:38:12.129812,173
2021-12-27 14:38:12.129821,108
2021-12-27 14:38:12.129830,39
2021-12-27 14:38:12.129840,-2
2021-12-27 14:38:12.129849,-43
2021-12-27 14:38:12.129859,-106
2021-12-27 14:38:12.129868,-120
2021-12-27 14:38:12.129878,-90
2021-12-27 14:38:12.129887,-106
2021-12-27 14:38:12.129897,-122
2021-12-27 14:38:12.129906,-81
2021-12-27 14:38:12.129916,-71
2021-12-27 14:38:12.129925,-115
2021-12-27 14:38:12.129935,-122
2021-12-27 14:38:12.129944,-74
2021-12-27 14:38:12.129953,-41
2021-12-27 14:38:12.129963,-53
2021-12-27 14:38:12.129972,-34
2021-12-27 14:38:12.129982,2
2021-12-27 14:38:12.129991,-20
2021-12-27 14:38:12.130001,-83
2021-12-27 14:38:12.130010,-127
2021-12-27 14:38:12.130020,-118
2021-12-27 14:38:12.130029,-97
2021-12-27 14:38:12.421705,-83
2021-12-27 14:38:12.421735,-62
2021-12-27 14:38:12.421746,-39
2021-12-27 14:38:12.421756,-18
2021-12-27 14:38:12.421765,-43
2021-12-27 14:38:12.421775,-71
2021-12-27 14:38:12.421784,-71
2021-12-27 14:38:12.421793,-85
2021-12-27 14:38:12.421803,-104
2021-12-27 14:38:12.421812,-101
2021-12-27 14:38:12.421822,-106
2021-12-27 14:38:12.421831,-106
2021-12-27 14:38:12.421841,-94
2021-12-27 14:38:12.421850,-125
2021-12-27 14:38:12.421859,-178
2021-12-27 14:38:12.421869,-182
2021-12-27 14:38:12.421878,-157
2021-12-27 14:38:12.421888,-143
2021-12-27 14:38:12.421897,-141
2021-12-27 14:38:12.421906,-157
2021-12-27 14:38:12.421916,-175
2021-12-27 14:38:12.421925,-169
2021-12-27 14:38:12.421935,-141
2021-12-27 14:38:12.421944,-129
2021-12-27 14:38:12.421953,-122
2021-12-27 14:38:12.421963,-81
2021-12-27 14:38:12.421972,-39
2021-12-27 14:38:12.421982,-64
2021-12-27 14:38:12.421991,-92
2021-12-27 14:38:12.422000,-74
2021-12-27 14:38:12.519392,-67
2021-12-27 14:38:12.519411,-69
2021-12-27 14:38:12.519419,-62
2021-12-27 14:38:12.519425,-50
2021-12-27 14:38:12.519432,-41
2021-12-27 14:38:12.519438,-71
2021-12-27 14:38:12.519444,-90
2021-12-27 14:38:12.519450,-11
2021-12-27 14:38:12.519457,282
2021-12-27 14:38:12.519464,916
2021-12-27 14:38:12.519470,1683
2021-12-27 14:38:12.519476,1954
2021-12-27 14:38:12.519483,946
2021-12-27 14:38:12.519489,-685
2021-12-27 14:38:12.519495,-967
2021-12-27 14:38:12.519502,-250
2021-12-27 14:38:12.519508,-164
2021-12-27 14:38:12.519514,-298
2021-12-27 14:38:12.519520,-69
2021-12-27 14:38:12.519527,30
2021-12-27 14:38:12.519533,-48
2021-12-27 14:38:12.519539,-34
2021-12-27 14:38:12.519545,-18
2021-12-27 14:38:12.519552,-25
2021-12-27 14:38:12.519558,39
2021-12-27 14:38:12.519564,104
2021-12-27 14:38:12.519570,76
2021-12-27 14:38:12.519576,53
2021-12-27 14:38:12.519583,111
2021-12-27 14:38:12.519589,152
2021-12-27 14:38:12.763501,150
2021-12-27 14:38:12.763530,173
2021-12-27 14:38:12.763541,166
2021-12-27 14:38:12.763551,118
2021-12-27 14:38:12.763560,113
2021-12-27 14:38:12.763570,120
2021-12-27 14:38:12.763579,138
2021-12-27 14:38:12.763588,189
2021-12-27 14:38:12.763598,208
2021-12-27 14:38:12.763607,208
2021-12-27 14:38:12.763617,199
2021-12-27 14:38:12.763626,155
2021-12-27 14:38:12.763636,143
2021-12-27 14:38:12.763645,157
2021-12-27 14:38:12.763655,118
2021-12-27 14:38:12.763664,78
2021-12-27 14:38:12.763674,71
2021-12-27 14:38:12.763683,4
2021-12-27 14:38:12.763693,-97
2021-12-27 14:38:12.763702,-113
2021-12-27 14:38:12.763712,-118
2021-12-27 14:38:12.763721,-175
2021-12-27 14:38:12.763731,-162
2021-12-27 14:38:12.763740,-122
2021-12-27 14:38:12.763749,-155
2021-12-27 14:38:12.763759,-138
2021-12-27 14:38:12.763768,-62
2021-12-27 14:38:12.763778,-62
2021-12-27 14:38:12.763787,-85
2021-12-27 14:38:12.763796,-41
2021-12-27 14:38:13.056119,-30
2021-12-27 14:38:13.056140,-48
2021-12-27 14:38:13.056147,-6
2021-12-27 14:38:13.056154,9
2021-12-27 14:38:13.056160,-23
2021-12-27 14:38:13.056166,-27
2021-12-27 14:38:13.056172,-37
2021-12-27 14:38:13.056179,-90
2021-12-27 14:38:13.056185,-92
2021-12-27 14:38:13.056191,-55
2021-12-27 14:38:13.056197,-57
2021-12-27 14:38:13.056203,-90
2021-12-27 14:38:13.056209,-127
2021-12-27 14:38:13.056215,-157
2021-12-27 14:38:13.056222,-196
2021-12-27 14:38:13.056228,-254
2021-12-27 14:38:13.056234,-238
2021-12-27 14:38:13.056240,-187
2021-12-27 14:38:13.056246,-192
2021-12-27 14:38:13.056252,-182
2021-12-27 14:38:13.056258,-157
2021-12-27 14:38:13.056264,-187
2021-12-27 14:38:13.056271,-201
2021-12-27 14:38:13.056277,-134
2021-12-27 14:38:13.056283,-92
2021-12-27 14:38:13.056289,-125
2021-12-27 14:38:13.056295,-148
2021-12-27 14:38:13.056301,-120
2021-12-27 14:38:13.056307,-85
2021-12-27 14:38:13.056314,-83
2021-12-27 14:38:13.250339,-85
2021-12-27 14:38:13.250368,-57
2021-12-27 14:38:13.250379,-39
2021-12-27 14:38:13.250389,-50
2021-12-27 14:38:13.250398,-27
2021-12-27 14:38:13.250408,9
2021-12-27 14:38:13.250417,-4
2021-12-27 14:38:13.250427,-23
2021-12-27 14:38:13.250436,-46
2021-12-27 14:38:13.250445,-94
2021-12-27 14:38:13.250455,-104
2021-12-27 14:38:13.250464,-85
2021-12-27 14:38:13.250473,-67
2021-12-27 14:38:13.250543,-39
2021-12-27 14:38:13.250584,-78
2021-12-27 14:38:13.250597,-185
2021-12-27 14:38:13.250607,-206
2021-12-27 14:38:13.250617,25
2021-12-27 14:38:13.250627,627
2021-12-27 14:38:13.250636,1435
2021-12-27 14:38:13.250646,1947
2021-12-27 14:38:13.250655,1284
2021-12-27 14:38:13.250665,-458
2021-12-27 14:38:13.250675,-1210
2021-12-27 14:38:13.250684,-497
2021-12-27 14:38:13.250694,-185
2021-12-27 14:38:13.250703,-344
2021-12-27 14:38:13.250713,-141
2021-12-27 14:38:13.250722,-23
2021-12-27 14:38:13.250732,-122
2021-12-27 14:38:13.493914,-97
2021-12-27 14:38:13.493943,-48
2021-12-27 14:38:13.493954,-23
2021-12-27 14:38:13.493964,32
2021-12-27 14:38:13.493973,37
2021-12-27 14:38:13.493983,-23
2021-12-27 14:38:13.493992,-37
2021-12-27 14:38:13.494002,60
2021-12-27 14:38:13.494011,150
2021-12-27 14:38:13.494020,113
2021-12-27 14:38:13.494030,71
2021-12-27 14:38:13.494039,115
2021-12-27 14:38:13.494049,131
2021-12-27 14:38:13.494058,111
2021-12-27 14:38:13.494068,180
2021-12-27 14:38:13.494077,247
2021-12-27 14:38:13.494086,219
2021-12-27 14:38:13.494096,206
2021-12-27 14:38:13.494105,219
2021-12-27 14:38:13.494115,215
2021-12-27 14:38:13.494124,210
2021-12-27 14:38:13.494133,194
2021-12-27 14:38:13.494143,175
2021-12-27 14:38:13.494168,164
2021-12-27 14:38:13.494177,145
2021-12-27 14:38:13.494187,106
2021-12-27 14:38:13.494196,43
2021-12-27 14:38:13.494206,-16
2021-12-27 14:38:13.494215,-50
2021-12-27 14:38:13.494225,-106
2021-12-27 14:38:13.785850,-175
2021-12-27 14:38:13.785880,-152
2021-12-27 14:38:13.785891,-78
2021-12-27 14:38:13.785901,-71
2021-12-27 14:38:13.785910,-115
2021-12-27 14:38:13.785920,-152
2021-12-27 14:38:13.785929,-150
2021-12-27 14:38:13.785939,-113
2021-12-27 14:38:13.785948,-131
2021-12-27 14:38:13.785957,-171
2021-12-27 14:38:13.785967,-106
2021-12-27 14:38:13.785976,-60
2021-12-27 14:38:13.785986,-129
2021-12-27 14:38:13.785995,-189
2021-12-27 14:38:13.786005,-213
2021-12-27 14:38:13.786014,-229
2021-12-27 14:38:13.786024,-247
2021-12-27 14:38:13.786033,-284
2021-12-27 14:38:13.786043,-287
2021-12-27 14:38:13.786052,-263
2021-12-27 14:38:13.786061,-294
2021-12-27 14:38:13.786071,-326
2021-12-27 14:38:13.786081,-324
2021-12-27 14:38:13.786090,-300
2021-12-27 14:38:13.786099,-263
2021-12-27 14:38:13.786109,-250
2021-12-27 14:38:13.786118,-254
2021-12-27 14:38:13.786128,-229
2021-12-27 14:38:13.786137,-187
2021-12-27 14:38:13.786147,-187
2021-12-27 14:38:13.981595,-213
2021-12-27 14:38:13.981626,-199
2021-12-27 14:38:13.981637,-157
2021-12-27 14:38:13.981646,-148
2021-12-27 14:38:13.981656,-171
2021-12-27 14:38:13.981665,-134
2021-12-27 14:38:13.981675,-106
2021-12-27 14:38:13.981684,-169
2021-12-27 14:38:13.981694,-194
2021-12-27 14:38:13.981703,-152
2021-12-27 14:38:13.981713,-122
2021-12-27 14:38:13.981722,-127
2021-12-27 14:38:13.981731,-134
2021-12-27 14:38:13.981791,-78
2021-12-27 14:38:13.981812,-41
2021-12-27 14:38:13.981823,-90
2021-12-27 14:38:13.981833,-78
2021-12-27 14:38:13.981842,11
2021-12-27 14:38:13.981851,20
2021-12-27 14:38:13.981861,-9
2021-12-27 14:38:13.981870,18
2021-12-27 14:38:13.981880,27
2021-12-27 14:38:13.981889,-30
2021-12-27 14:38:13.981898,-99
2021-12-27 14:38:13.981908,-87
2021-12-27 14:38:13.981917,9
2021-12-27 14:38:13.981927,71
2021-12-27 14:38:13.981936,229
2021-12-27 14:38:13.981946,821
2021-12-27 14:38:13.981955,1666
2021-12-27 14:38:14.128508,2176
2021-12-27 14:38:14.128538,1585
2021-12-27 14:38:14.128550,-122
2021-12-27 14:38:14.128560,-1000
2021-12-27 14:38:14.128569,-338
2021-12-27 14:38:14.128579,18
2021-12-27 14:38:14.128588,-182
2021-12-27 14:38:14.128597,-9
2021-12-27 14:38:14.128607,138
2021-12-27 14:38:14.128616,4
2021-12-27 14:38:14.128626,11
2021-12-27 14:38:14.128635,85
2021-12-27 14:38:14.128645,30
2021-12-27 14:38:14.128654,62
2021-12-27 14:38:14.128663,148
2021-12-27 14:38:14.128673,92
2021-12-27 14:38:14.128682,78
2021-12-27 14:38:14.128691,162
2021-12-27 14:38:14.128701,166
2021-12-27 14:38:14.128710,141
2021-12-27 14:38:14.128719,141
2021-12-27 14:38:14.128729,138
2021-12-27 14:38:14.128738,157
2021-12-27 14:38:14.128747,206
2021-12-27 14:38:14.128757,201
2021-12-27 14:38:14.128766,159
2021-12-27 14:38:14.128775,213
2021-12-27 14:38:14.128785,270
2021-12-27 14:38:14.128794,233
2021-12-27 14:38:14.128804,238
2021-12-27 14:38:14.420704,275
2021-12-27 14:38:14.420734,266
2021-12-27 14:38:14.420745,236
2021-12-27 14:38:14.420755,175
2021-12-27 14:38:14.420764,106
2021-12-27 14:38:14.420773,74
2021-12-27 14:38:14.420783,50
2021-12-27 14:38:14.420792,4
2021-12-27 14:38:14.420802,-53
2021-12-27 14:38:14.420811,-120
2021-12-27 14:38:14.420821,-187
2021-12-27 14:38:14.420830,-192
2021-12-27 14:38:14.420839,-169
2021-12-27 14:38:14.420849,-194
2021-12-27 14:38:14.420858,-229
2021-12-27 14:38:14.420867,-231
2021-12-27 14:38:14.420877,-224
2021-12-27 14:38:14.420886,-166
2021-12-27 14:38:14.420896,-118
2021-12-27 14:38:14.420905,-136
2021-12-27 14:38:14.420915,-145
2021-12-27 14:38:14.420924,-150
2021-12-27 14:38:14.420933,-178
2021-12-27 14:38:14.420943,-201
2021-12-27 14:38:14.420952,-194
2021-12-27 14:38:14.420962,-175
2021-12-27 14:38:14.420971,-206
2021-12-27 14:38:14.420981,-254
2021-12-27 14:38:14.420990,-206
2021-12-27 14:38:14.421000,-162
2021-12-27 14:38:14.615727,-210
2021-12-27 14:38:14.615756,-215
2021-12-27 14:38:14.615767,-166
2021-12-27 14:38:14.615776,-166
2021-12-27 14:38:14.615785,-180
2021-12-27 14:38:14.615795,-173
2021-12-27 14:38:14.615804,-201
2021-12-27 14:38:14.615813,-203
2021-12-27 14:38:14.615823,-148
2021-12-27 14:38:14.615832,-138
2021-12-27 14:38:14.615841,-164
2021-12-27 14:38:14.615850,-143
2021-12-27 14:38:14.615860,-99
2021-12-27 14:38:14.615869,-97
2021-12-27 14:38:14.615878,-92
2021-12-27 14:38:14.615888,-48
2021-12-27 14:38:14.615897,-53
2021-12-27 14:38:14.615907,-83
2021-12-27 14:38:14.615916,-85
2021-12-27 14:38:14.615925,-97
2021-12-27 14:38:14.615935,-87
2021-12-27 14:38:14.615944,-57
2021-12-27 14:38:14.615953,-50
2021-12-27 14:38:14.615975,-32
2021-12-27 14:38:14.615985,13
2021-12-27 14:38:14.615995,-2
2021-12-27 14:38:14.616005,-78
2021-12-27 14:38:14.616014,-92
2021-12-27 14:38:14.616024,-78
2021-12-27 14:38:14.616033,-122
2021-12-27 14:38:14.859573,-127
2021-12-27 14:38:14.859596,-85
2021-12-27 14:38:14.859603,-85
2021-12-27 14:38:14.859610,-122
2021-12-27 14:38:14.859616,-92
2021-12-27 14:38:14.859654,-18
2021-12-27 14:38:14.859660,-71
2021-12-27 14:38:14.859666,-125
2021-12-27 14:38:14.859673,182
2021-12-27 14:38:14.859679,896
2021-12-27 14:38:14.859685,1683
2021-12-27 14:38:14.859691,1930
2021-12-27 14:38:14.859697,840
2021-12-27 14:38:14.859704,-812
2021-12-27 14:38:14.859710,-993
2021-12-27 14:38:14.859716,-245
2021-12-27 14:38:14.859722,-201
2021-12-27 14:38:14.859728,-310
2021-12-27 14:38:14.859735,-39
2021-12-27 14:38:14.859741,23
2021-12-27 14:38:14.859747,-104
2021-12-27 14:38:14.859753,-53
2021-12-27 14:38:14.859759,23
2021-12-27 14:38:14.859765,4
2021-12-27 14:38:14.859771,20
2021-12-27 14:38:14.859778,69
2021-12-27 14:38:14.859784,94
2021-12-27 14:38:14.859790,92
2021-12-27 14:38:14.859796,99
2021-12-27 14:38:14.859802,125
2021-12-27 14:38:15.054532,131
2021-12-27 14:38:15.054562,138
2021-12-27 14:38:15.054573,173
2021-12-27 14:38:15.054583,182
2021-12-27 14:38:15.054592,185
2021-12-27 14:38:15.054602,238
2021-12-27 14:38:15.054611,296
2021-12-27 14:38:15.054621,303
2021-12-27 14:38:15.054709,277
2021-12-27 14:38:15.054721,243
2021-12-27 14:38:15.054731,219
2021-12-27 14:38:15.054740,245
2021-12-27 14:38:15.054750,300
2021-12-27 14:38:15.054760,289
2021-12-27 14:38:15.054769,215
2021-12-27 14:38:15.054779,155
2021-12-27 14:38:15.054788,99
2021-12-27 14:38:15.054798,39
2021-12-27 14:38:15.054807,-4
2021-12-27 14:38:15.054817,-67
2021-12-27 14:38:15.054826,-115
2021-12-27 14:38:15.054836,-108
2021-12-27 14:38:15.054846,-125
2021-12-27 14:38:15.054861,-187
2021-12-27 14:38:15.054885,-164
2021-12-27 14:38:15.054891,-87
2021-12-27 14:38:15.054897,-92
2021-12-27 14:38:15.054903,-136
2021-12-27 14:38:15.054909,-148
2021-12-27 14:38:15.054915,-120
2021-12-27 14:38:15.298541,-122
2021-12-27 14:38:15.298561,-203
2021-12-27 14:38:15.298569,-280
2021-12-27 14:38:15.298575,-314
2021-12-27 14:38:15.298582,-317
2021-12-27 14:38:15.298588,-298
2021-12-27 14:38:15.298594,-314
2021-12-27 14:38:15.298600,-317
2021-12-27 14:38:15.298606,-247
2021-12-27 14:38:15.298612,-233
2021-12-27 14:38:15.298618,-291
2021-12-27 14:38:15.298624,-298
2021-12-27 14:38:15.298630,-254
2021-12-27 14:38:15.298636,-240
2021-12-27 14:38:15.298642,-231
2021-12-27 14:38:15.298648,-187
2021-12-27 14:38:15.298654,-171
2021-12-27 14:38:15.298660,-180
2021-12-27 14:38:15.298666,-173
2021-12-27 14:38:15.298673,-175
2021-12-27 14:38:15.298679,-164
2021-12-27 14:38:15.298685,-122
2021-12-27 14:38:15.298691,-101
2021-12-27 14:38:15.298697,-122
2021-12-27 14:38:15.298703,-125
2021-12-27 14:38:15.298709,-81
2021-12-27 14:38:15.298715,-50
2021-12-27 14:38:15.298722,-50
2021-12-27 14:38:15.298728,-39
2021-12-27 14:38:15.298734,-57
2021-12-27 14:38:15.590356,-87
2021-12-27 14:38:15.590378,-23
2021-12-27 14:38:15.590385,25
2021-12-27 14:38:15.590392,-13
2021-12-27 14:38:15.590398,-20
2021-12-27 14:38:15.590404,-23
2021-12-27 14:38:15.590410,-74
2021-12-27 14:38:15.590416,-99
2021-12-27 14:38:15.590422,-71
2021-12-27 14:38:15.590428,-37
2021-12-27 14:38:15.590434,-25
2021-12-27 14:38:15.590441,-46
2021-12-27 14:38:15.590447,-48
2021-12-27 14:38:15.590453,34
2021-12-27 14:38:15.590459,74
2021-12-27 14:38:15.590465,18
2021-12-27 14:38:15.590471,-6
2021-12-27 14:38:15.590477,-4
2021-12-27 14:38:15.590483,90
2021-12-27 14:38:15.590489,544
2021-12-27 14:38:15.590495,1342
2021-12-27 14:38:15.590502,2053
2021-12-27 14:38:15.590508,1914
2021-12-27 14:38:15.590514,414
