Time,ECG
2021-12-27 14:27:43.442151,-9
2021-12-27 14:27:43.442171,27
2021-12-27 14:27:43.442178,48
2021-12-27 14:27:43.442185,69
2021-12-27 14:27:43.442191,99
2021-12-27 14:27:43.442198,101
2021-12-27 14:27:43.442204,90
2021-12-27 14:27:43.442211,122
2021-12-27 14:27:43.442217,162
2021-12-27 14:27:43.442224,175
2021-12-27 14:27:43.442230,194
2021-12-27 14:27:43.442236,199
2021-12-27 14:27:43.442242,171
2021-12-27 14:27:43.442249,171
2021-12-27 14:27:43.442255,192
2021-12-27 14:27:43.442286,180
2021-12-27 14:27:43.442325,162
2021-12-27 14:27:43.442334,125
2021-12-27 14:27:43.442341,50
2021-12-27 14:27:43.442347,-16
2021-12-27 14:27:43.442354,-55
2021-12-27 14:27:43.442360,-106
2021-12-27 14:27:43.442366,-138
2021-12-27 14:27:43.442372,-134
2021-12-27 14:27:43.442378,-131
2021-12-27 14:27:43.442385,-148
2021-12-27 14:27:43.442392,-164
2021-12-27 14:27:43.442398,-185
2021-12-27 14:27:43.442404,-210
2021-12-27 14:27:43.442410,-192
2021-12-27 14:27:43.686265,-152
2021-12-27 14:27:43.686293,-143
2021-12-27 14:27:43.686305,-134
2021-12-27 14:27:43.686315,-113
2021-12-27 14:27:43.686324,-99
2021-12-27 14:27:43.686334,-83
2021-12-27 14:27:43.686345,-83
2021-12-27 14:27:43.686354,-111
2021-12-27 14:27:43.686364,-129
2021-12-27 14:27:43.686373,-118
2021-12-27 14:27:43.686383,-106
2021-12-27 14:27:43.686392,-87
2021-12-27 14:27:43.686402,-74
2021-12-27 14:27:43.686411,-101
2021-12-27 14:27:43.686421,-141
2021-12-27 14:27:43.686430,-122
2021-12-27 14:27:43.686439,-83
2021-12-27 14:27:43.686450,-78
2021-12-27 14:27:43.686459,-87
2021-12-27 14:27:43.686469,-94
2021-12-27 14:27:43.686478,-106
2021-12-27 14:27:43.686488,-90
2021-12-27 14:27:43.686497,-16
2021-12-27 14:27:43.686507,30
2021-12-27 14:27:43.686516,20
2021-12-27 14:27:43.686525,9
2021-12-27 14:27:43.686535,-20
2021-12-27 14:27:43.686544,-78
2021-12-27 14:27:43.686554,-85
2021-12-27 14:27:43.686566,-53
2021-12-27 14:27:43.880766,-55
2021-12-27 14:27:43.880790,-48
2021-12-27 14:27:43.880798,-16
2021-12-27 14:27:43.880806,-32
2021-12-27 14:27:43.880813,-120
2021-12-27 14:27:43.880820,-150
2021-12-27 14:27:43.880828,145
2021-12-27 14:27:43.880834,852
2021-12-27 14:27:43.880842,1660
2021-12-27 14:27:43.880849,1961
2021-12-27 14:27:43.880856,877
2021-12-27 14:27:43.880864,-900
2021-12-27 14:27:43.880870,-1171
2021-12-27 14:27:43.880882,-370
2021-12-27 14:27:43.880890,-307
2021-12-27 14:27:43.880897,-493
2021-12-27 14:27:43.880904,-282
2021-12-27 14:27:43.880932,-185
2021-12-27 14:27:43.880959,-250
2021-12-27 14:27:43.880967,-192
2021-12-27 14:27:43.880973,-127
2021-12-27 14:27:43.880980,-155
2021-12-27 14:27:43.880986,-150
2021-12-27 14:27:43.880992,-90
2021-12-27 14:27:43.880998,-60
2021-12-27 14:27:43.881004,-43
2021-12-27 14:27:43.881010,-20
2021-12-27 14:27:43.881016,-13
2021-12-27 14:27:43.881023,-11
2021-12-27 14:27:43.881032,-6
2021-12-27 14:27:44.125375,2
2021-12-27 14:27:44.125405,32
2021-12-27 14:27:44.125416,37
2021-12-27 14:27:44.125426,-18
2021-12-27 14:27:44.125436,-46
2021-12-27 14:27:44.125445,-6
2021-12-27 14:27:44.125455,37
2021-12-27 14:27:44.125464,67
2021-12-27 14:27:44.125474,85
2021-12-27 14:27:44.125483,81
2021-12-27 14:27:44.125493,48
2021-12-27 14:27:44.125502,18
2021-12-27 14:27:44.125512,11
2021-12-27 14:27:44.125521,-13
2021-12-27 14:27:44.125531,-76
2021-12-27 14:27:44.125540,-143
2021-12-27 14:27:44.125550,-199
2021-12-27 14:27:44.125564,-231
2021-12-27 14:27:44.125573,-236
2021-12-27 14:27:44.125583,-224
2021-12-27 14:27:44.125592,-208
2021-12-27 14:27:44.125602,-196
2021-12-27 14:27:44.125611,-182
2021-12-27 14:27:44.125621,-169
2021-12-27 14:27:44.125630,-143
2021-12-27 14:27:44.125639,-106
2021-12-27 14:27:44.125649,-83
2021-12-27 14:27:44.125658,-78
2021-12-27 14:27:44.125668,-62
2021-12-27 14:27:44.125677,-46
2021-12-27 14:27:44.368970,-53
2021-12-27 14:27:44.368990,-71
2021-12-27 14:27:44.368998,-90
2021-12-27 14:27:44.369004,-97
2021-12-27 14:27:44.369011,-87
2021-12-27 14:27:44.369017,-97
2021-12-27 14:27:44.369023,-127
2021-12-27 14:27:44.369035,-122
2021-12-27 14:27:44.369041,-92
2021-12-27 14:27:44.369047,-85
2021-12-27 14:27:44.369053,-76
2021-12-27 14:27:44.369060,-60
2021-12-27 14:27:44.369066,-83
2021-12-27 14:27:44.369072,-106
2021-12-27 14:27:44.369078,-87
2021-12-27 14:27:44.369085,-67
2021-12-27 14:27:44.369091,-46
2021-12-27 14:27:44.369097,-13
2021-12-27 14:27:44.369103,-9
2021-12-27 14:27:44.369109,-13
2021-12-27 14:27:44.369116,-11
2021-12-27 14:27:44.369122,-11
2021-12-27 14:27:44.369128,-4
2021-12-27 14:27:44.369134,9
2021-12-27 14:27:44.369140,6
2021-12-27 14:27:44.369147,6
2021-12-27 14:27:44.369153,13
2021-12-27 14:27:44.369159,13
2021-12-27 14:27:44.369165,23
2021-12-27 14:27:44.369173,30
2021-12-27 14:27:44.612575,-6
2021-12-27 14:27:44.612596,-55
2021-12-27 14:27:44.612603,129
2021-12-27 14:27:44.612609,733
2021-12-27 14:27:44.612616,1544
2021-12-27 14:27:44.612622,2032
2021-12-27 14:27:44.612628,1238
2021-12-27 14:27:44.612634,-632
2021-12-27 14:27:44.612640,-1308
2021-12-27 14:27:44.612647,-544
2021-12-27 14:27:44.612653,-289
2021-12-27 14:27:44.612659,-465
2021-12-27 14:27:44.612665,-289
2021-12-27 14:27:44.612671,-201
2021-12-27 14:27:44.612677,-333
2021-12-27 14:27:44.612683,-335
2021-12-27 14:27:44.612690,-245
2021-12-27 14:27:44.612696,-210
2021-12-27 14:27:44.612702,-192
2021-12-27 14:27:44.612708,-187
2021-12-27 14:27:44.612715,-194
2021-12-27 14:27:44.612721,-180
2021-12-27 14:27:44.612727,-136
2021-12-27 14:27:44.612733,-92
2021-12-27 14:27:44.612743,-62
2021-12-27 14:27:44.612749,-41
2021-12-27 14:27:44.612755,-34
2021-12-27 14:27:44.612762,-27
2021-12-27 14:27:44.612768,16
2021-12-27 14:27:44.612774,67
2021-12-27 14:27:44.855263,90
2021-12-27 14:27:44.855284,115
2021-12-27 14:27:44.855292,127
2021-12-27 14:27:44.855298,94
2021-12-27 14:27:44.855304,74
2021-12-27 14:27:44.855310,74
2021-12-27 14:27:44.855317,53
2021-12-27 14:27:44.855323,48
2021-12-27 14:27:44.855329,41
2021-12-27 14:27:44.855335,-48
2021-12-27 14:27:44.855342,-145
2021-12-27 14:27:44.855348,-162
2021-12-27 14:27:44.855354,-175
2021-12-27 14:27:44.855360,-219
2021-12-27 14:27:44.855366,-240
2021-12-27 14:27:44.855372,-275
2021-12-27 14:27:44.855378,-310
2021-12-27 14:27:44.855384,-277
2021-12-27 14:27:44.855390,-231
2021-12-27 14:27:44.855396,-206
2021-12-27 14:27:44.855402,-178
2021-12-27 14:27:44.855409,-166
2021-12-27 14:27:44.855417,-166
2021-12-27 14:27:44.855423,-138
2021-12-27 14:27:44.855429,-104
2021-12-27 14:27:44.855435,-78
2021-12-27 14:27:44.855441,-67
2021-12-27 14:27:44.855447,-69
2021-12-27 14:27:44.855453,-78
2021-12-27 14:27:44.855459,-67
2021-12-27 14:27:45.050970,-34
2021-12-27 14:27:45.050990,30
2021-12-27 14:27:45.050998,87
2021-12-27 14:27:45.051004,62
2021-12-27 14:27:45.051010,0
2021-12-27 14:27:45.051016,-11
2021-12-27 14:27:45.051022,4
2021-12-27 14:27:45.051029,-16
2021-12-27 14:27:45.051035,-55
2021-12-27 14:27:45.051041,-53
2021-12-27 14:27:45.051047,-55
2021-12-27 14:27:45.051053,-85
2021-12-27 14:27:45.051059,-69
2021-12-27 14:27:45.051065,-23
2021-12-27 14:27:45.051071,-34
2021-12-27 14:27:45.051077,-87
2021-12-27 14:27:45.051083,-92
2021-12-27 14:27:45.051089,-67
2021-12-27 14:27:45.051095,-69
2021-12-27 14:27:45.051101,-74
2021-12-27 14:27:45.051108,-60
2021-12-27 14:27:45.051114,-64
2021-12-27 14:27:45.051120,-67
2021-12-27 14:27:45.051126,-50
2021-12-27 14:27:45.051138,-46
2021-12-27 14:27:45.051144,-34
2021-12-27 14:27:45.051151,-37
2021-12-27 14:27:45.051157,-87
2021-12-27 14:27:45.051163,-9
2021-12-27 14:27:45.051169,472
2021-12-27 14:27:45.294649,1266
2021-12-27 14:27:45.294670,1949
2021-12-27 14:27:45.294677,1710
2021-12-27 14:27:45.294684,101
2021-12-27 14:27:45.294690,-1097
2021-12-27 14:27:45.294696,-569
2021-12-27 14:27:45.294703,-76
2021-12-27 14:27:45.294709,-314
2021-12-27 14:27:45.294715,-240
2021-12-27 14:27:45.294721,-55
2021-12-27 14:27:45.294727,-138
2021-12-27 14:27:45.294733,-164
2021-12-27 14:27:45.294739,-120
2021-12-27 14:27:45.294745,-169
2021-12-27 14:27:45.294751,-199
2021-12-27 14:27:45.294757,-194
2021-12-27 14:27:45.294764,-182
2021-12-27 14:27:45.294770,-129
2021-12-27 14:27:45.294776,-90
2021-12-27 14:27:45.294782,-85
2021-12-27 14:27:45.294788,-81
2021-12-27 14:27:45.294794,-94
2021-12-27 14:27:45.294800,-64
2021-12-27 14:27:45.294806,43
2021-12-27 14:27:45.294812,94
2021-12-27 14:27:45.294818,76
2021-12-27 14:27:45.294824,90
2021-12-27 14:27:45.294831,120
2021-12-27 14:27:45.294837,141
2021-12-27 14:27:45.294843,169
2021-12-27 14:27:45.490125,185
2021-12-27 14:27:45.490156,175
2021-12-27 14:27:45.490167,159
2021-12-27 14:27:45.490177,159
2021-12-27 14:27:45.490186,150
2021-12-27 14:27:45.490196,122
2021-12-27 14:27:45.490205,74
2021-12-27 14:27:45.490215,2
2021-12-27 14:27:45.490225,-108
2021-12-27 14:27:45.490234,-210
2021-12-27 14:27:45.490244,-245
2021-12-27 14:27:45.490253,-229
2021-12-27 14:27:45.490263,-215
2021-12-27 14:27:45.490272,-203
2021-12-27 14:27:45.490282,-213
2021-12-27 14:27:45.490291,-240
2021-12-27 14:27:45.490301,-210
2021-12-27 14:27:45.490310,-150
2021-12-27 14:27:45.490319,-125
2021-12-27 14:27:45.490329,-113
2021-12-27 14:27:45.490338,-127
2021-12-27 14:27:45.490348,-173
2021-12-27 14:27:45.490357,-162
2021-12-27 14:27:45.490367,-108
2021-12-27 14:27:45.490376,-90
2021-12-27 14:27:45.490386,-83
2021-12-27 14:27:45.490395,-76
2021-12-27 14:27:45.490405,-87
2021-12-27 14:27:45.490414,-83
2021-12-27 14:27:45.490424,-55
2021-12-27 14:27:45.733983,-41
2021-12-27 14:27:45.734006,-25
2021-12-27 14:27:45.734013,-30
2021-12-27 14:27:45.734020,-83
2021-12-27 14:27:45.734026,-118
2021-12-27 14:27:45.734032,-81
2021-12-27 14:27:45.734038,-43
2021-12-27 14:27:45.734045,-37
2021-12-27 14:27:45.734051,-30
2021-12-27 14:27:45.734057,-53
2021-12-27 14:27:45.734070,-83
2021-12-27 14:27:45.734076,-48
2021-12-27 14:27:45.734082,-9
2021-12-27 14:27:45.734089,-25
2021-12-27 14:27:45.734095,-48
2021-12-27 14:27:45.734101,-57
2021-12-27 14:27:45.734107,-67
2021-12-27 14:27:45.734114,-60
2021-12-27 14:27:45.734120,-41
2021-12-27 14:27:45.734126,-32
2021-12-27 14:27:45.734132,-23
2021-12-27 14:27:45.734138,-16
2021-12-27 14:27:45.734144,-18
2021-12-27 14:27:45.734150,-13
2021-12-27 14:27:45.734157,-27
2021-12-27 14:27:45.734163,-48
2021-12-27 14:27:45.734169,104
2021-12-27 14:27:45.734175,643
2021-12-27 14:27:45.734182,1430
2021-12-27 14:27:45.734188,1972
2021-12-27 14:27:45.977928,1398
2021-12-27 14:27:45.977949,-273
2021-12-27 14:27:45.977957,-1034
2021-12-27 14:27:45.977963,-349
2021-12-27 14:27:45.977970,-71
2021-12-27 14:27:45.977976,-326
2021-12-27 14:27:45.977982,-192
2021-12-27 14:27:45.977988,-25
2021-12-27 14:27:45.977994,-94
2021-12-27 14:27:45.978000,-90
2021-12-27 14:27:45.978007,-50
2021-12-27 14:27:45.978013,-104
2021-12-27 14:27:45.978019,-127
2021-12-27 14:27:45.978025,-97
2021-12-27 14:27:45.978031,-104
2021-12-27 14:27:45.978037,-131
2021-12-27 14:27:45.978044,-129
2021-12-27 14:27:45.978050,-106
2021-12-27 14:27:45.978056,-87
2021-12-27 14:27:45.978062,-64
2021-12-27 14:27:45.978068,-32
2021-12-27 14:27:45.978074,-6
2021-12-27 14:27:45.978081,23
2021-12-27 14:27:45.978087,50
2021-12-27 14:27:45.978093,60
2021-12-27 14:27:45.978104,67
2021-12-27 14:27:45.978110,57
2021-12-27 14:27:45.978116,25
2021-12-27 14:27:45.978122,30
2021-12-27 14:27:45.978129,60
2021-12-27 14:27:46.221662,60
2021-12-27 14:27:46.221691,50
2021-12-27 14:27:46.221702,53
2021-12-27 14:27:46.221712,25
2021-12-27 14:27:46.221721,-25
2021-12-27 14:27:46.221731,-67
2021-12-27 14:27:46.221740,-129
2021-12-27 14:27:46.221749,-206
2021-12-27 14:27:46.221759,-238
2021-12-27 14:27:46.221768,-229
2021-12-27 14:27:46.221777,-219
2021-12-27 14:27:46.221786,-233
2021-12-27 14:27:46.221796,-287
2021-12-27 14:27:46.221805,-284
2021-12-27 14:27:46.221814,-196
2021-12-27 14:27:46.221824,-143
2021-12-27 14:27:46.221833,-143
2021-12-27 14:27:46.221842,-129
2021-12-27 14:27:46.221852,-127
2021-12-27 14:27:46.221861,-136
2021-12-27 14:27:46.221870,-129
2021-12-27 14:27:46.221880,-118
2021-12-27 14:27:46.221889,-106
2021-12-27 14:27:46.221898,-90
2021-12-27 14:27:46.221907,-71
2021-12-27 14:27:46.221917,-67
2021-12-27 14:27:46.221926,-78
2021-12-27 14:27:46.221935,-101
2021-12-27 14:27:46.221945,-85
2021-12-27 14:27:46.221954,-27
2021-12-27 14:27:46.416102,-4
2021-12-27 14:27:46.416125,-20
2021-12-27 14:27:46.416132,-30
2021-12-27 14:27:46.416139,-30
2021-12-27 14:27:46.416145,-20
2021-12-27 14:27:46.416151,-2
2021-12-27 14:27:46.416157,9
2021-12-27 14:27:46.416163,-16
2021-12-27 14:27:46.416170,-76
2021-12-27 14:27:46.416176,-90
2021-12-27 14:27:46.416182,-37
2021-12-27 14:27:46.416188,9
2021-12-27 14:27:46.416194,34
2021-12-27 14:27:46.416201,64
2021-12-27 14:27:46.416207,46
2021-12-27 14:27:46.416213,-11
2021-12-27 14:27:46.416225,-11
2021-12-27 14:27:46.416231,20
2021-12-27 14:27:46.416238,20
2021-12-27 14:27:46.416244,11
2021-12-27 14:27:46.416250,2
2021-12-27 14:27:46.416256,-18
2021-12-27 14:27:46.416262,-23
2021-12-27 14:27:46.416269,-23
2021-12-27 14:27:46.416275,-27
2021-12-27 14:27:46.416281,171
2021-12-27 14:27:46.416287,770
2021-12-27 14:27:46.416293,1560
2021-12-27 14:27:46.416300,1993
2021-12-27 14:27:46.416306,1220
2021-12-27 14:27:46.660146,-483
2021-12-27 14:27:46.660175,-1104
2021-12-27 14:27:46.660187,-465
2021-12-27 14:27:46.660196,-263
2021-12-27 14:27:46.660206,-391
2021-12-27 14:27:46.660215,-196
2021-12-27 14:27:46.660225,-99
2021-12-27 14:27:46.660234,-164
2021-12-27 14:27:46.660244,-138
2021-12-27 14:27:46.660253,-115
2021-12-27 14:27:46.660263,-166
2021-12-27 14:27:46.660272,-185
2021-12-27 14:27:46.660281,-92
2021-12-27 14:27:46.660291,-32
2021-12-27 14:27:46.660300,-120
2021-12-27 14:27:46.660310,-173
2021-12-27 14:27:46.660320,-115
2021-12-27 14:27:46.660329,-83
2021-12-27 14:27:46.660339,-78
2021-12-27 14:27:46.660348,-4
2021-12-27 14:27:46.660358,78
2021-12-27 14:27:46.660367,83
2021-12-27 14:27:46.660377,41
2021-12-27 14:27:46.660386,57
2021-12-27 14:27:46.660396,129
2021-12-27 14:27:46.660405,166
2021-12-27 14:27:46.660414,159
2021-12-27 14:27:46.660423,134
2021-12-27 14:27:46.660433,173
2021-12-27 14:27:46.660442,245
2021-12-27 14:27:46.951640,203
2021-12-27 14:27:46.951670,125
2021-12-27 14:27:46.951681,78
2021-12-27 14:27:46.951691,6
2021-12-27 14:27:46.951701,-71
2021-12-27 14:27:46.951710,-136
2021-12-27 14:27:46.951720,-203
2021-12-27 14:27:46.951729,-226
2021-12-27 14:27:46.951739,-210
2021-12-27 14:27:46.951748,-208
2021-12-27 14:27:46.951758,-203
2021-12-27 14:27:46.951767,-192
2021-12-27 14:27:46.951777,-196
2021-12-27 14:27:46.951792,-178
2021-12-27 14:27:46.951802,-134
2021-12-27 14:27:46.951812,-111
2021-12-27 14:27:46.951821,-85
2021-12-27 14:27:46.951830,-57
2021-12-27 14:27:46.951840,-57
2021-12-27 14:27:46.951850,-55
2021-12-27 14:27:46.951859,-32
2021-12-27 14:27:46.951869,-23
2021-12-27 14:27:46.951878,-20
2021-12-27 14:27:46.951887,-27
2021-12-27 14:27:46.951897,-69
2021-12-27 14:27:46.951906,-90
2021-12-27 14:27:46.951916,-67
2021-12-27 14:27:46.951925,-64
2021-12-27 14:27:46.951935,-62
2021-12-27 14:27:46.951944,-37
2021-12-27 14:27:47.148015,-30
2021-12-27 14:27:47.148036,-39
2021-12-27 14:27:47.148044,-34
2021-12-27 14:27:47.148050,-30
2021-12-27 14:27:47.148056,-30
2021-12-27 14:27:47.148063,-9
2021-12-27 14:27:47.148069,2
2021-12-27 14:27:47.148075,-27
2021-12-27 14:27:47.148081,-94
2021-12-27 14:27:47.148087,-129
2021-12-27 14:27:47.148094,-94
2021-12-27 14:27:47.148100,-57
2021-12-27 14:27:47.148106,-53
2021-12-27 14:27:47.148112,-85
2021-12-27 14:27:47.148118,-141
2021-12-27 14:27:47.148124,-157
2021-12-27 14:27:47.148130,-120
2021-12-27 14:27:47.148137,-71
2021-12-27 14:27:47.148143,-4
2021-12-27 14:27:47.148149,48
2021-12-27 14:27:47.148155,16
2021-12-27 14:27:47.148161,-60
2021-12-27 14:27:47.148167,-13
2021-12-27 14:27:47.148173,363
2021-12-27 14:27:47.148180,1127
2021-12-27 14:27:47.148186,1970
2021-12-27 14:27:47.148192,2046
2021-12-27 14:27:47.148198,513
2021-12-27 14:27:47.148204,-1166
2021-12-27 14:27:47.148211,-930
2021-12-27 14:27:47.342697,-152
2021-12-27 14:27:47.342727,-280
2021-12-27 14:27:47.342739,-342
2021-12-27 14:27:47.342748,-106
2021-12-27 14:27:47.342758,-92
2021-12-27 14:27:47.342767,-129
2021-12-27 14:27:47.342777,-74
2021-12-27 14:27:47.342786,-64
2021-12-27 14:27:47.342795,-78
2021-12-27 14:27:47.342804,-83
2021-12-27 14:27:47.342814,-78
2021-12-27 14:27:47.342823,-37
2021-12-27 14:27:47.342833,4
2021-12-27 14:27:47.342842,13
2021-12-27 14:27:47.342852,23
2021-12-27 14:27:47.342861,18
2021-12-27 14:27:47.342870,13
2021-12-27 14:27:47.342885,60
2021-12-27 14:27:47.342894,108
2021-12-27 14:27:47.342904,134
2021-12-27 14:27:47.342913,166
2021-12-27 14:27:47.342923,199
2021-12-27 14:27:47.342932,215
2021-12-27 14:27:47.342942,240
2021-12-27 14:27:47.342951,263
2021-12-27 14:27:47.342961,275
2021-12-27 14:27:47.342970,282
2021-12-27 14:27:47.342980,250
2021-12-27 14:27:47.342989,182
2021-12-27 14:27:47.342998,150
2021-12-27 14:27:47.586130,120
2021-12-27 14:27:47.586157,46
2021-12-27 14:27:47.586175,-43
2021-12-27 14:27:47.586199,-136
2021-12-27 14:27:47.586205,-247
2021-12-27 14:27:47.586212,-291
2021-12-27 14:27:47.586218,-250
2021-12-27 14:27:47.586224,-213
2021-12-27 14:27:47.586230,-201
2021-12-27 14:27:47.586236,-189
2021-12-27 14:27:47.586243,-213
2021-12-27 14:27:47.586249,-231
2021-12-27 14:27:47.586255,-192
2021-12-27 14:27:47.586261,-145
2021-12-27 14:27:47.586267,-155
2021-12-27 14:27:47.586273,-196
2021-12-27 14:27:47.586279,-210
2021-12-27 14:27:47.586286,-169
2021-12-27 14:27:47.586292,-108
2021-12-27 14:27:47.586298,-81
2021-12-27 14:27:47.586304,-108
2021-12-27 14:27:47.586310,-131
2021-12-27 14:27:47.586316,-111
2021-12-27 14:27:47.586322,-99
2021-12-27 14:27:47.586328,-99
2021-12-27 14:27:47.586334,-64
2021-12-27 14:27:47.586340,-32
2021-12-27 14:27:47.586346,-43
2021-12-27 14:27:47.586352,-30
2021-12-27 14:27:47.586359,-2
2021-12-27 14:27:47.830265,-41
2021-12-27 14:27:47.830295,-60
2021-12-27 14:27:47.830306,-2
2021-12-27 14:27:47.830315,16
2021-12-27 14:27:47.830325,18
2021-12-27 14:27:47.830334,43
2021-12-27 14:27:47.830344,-16
2021-12-27 14:27:47.830353,-83
2021-12-27 14:27:47.830362,-41
2021-12-27 14:27:47.830372,-13
2021-12-27 14:27:47.830381,-39
2021-12-27 14:27:47.830391,-41
2021-12-27 14:27:47.830400,-50
2021-12-27 14:27:47.830409,-69
2021-12-27 14:27:47.830419,-55
2021-12-27 14:27:47.830428,-30
2021-12-27 14:27:47.830438,-27
2021-12-27 14:27:47.830447,-64
2021-12-27 14:27:47.830456,-76
2021-12-27 14:27:47.830466,231
2021-12-27 14:27:47.830475,1009
2021-12-27 14:27:47.830485,1889
2021-12-27 14:27:47.830494,2132
2021-12-27 14:27:47.830503,849
2021-12-27 14:27:47.830513,-967
2021-12-27 14:27:47.830522,-1051
2021-12-27 14:27:47.830532,-213
2021-12-27 14:27:47.830541,-206
2021-12-27 14:27:47.830551,-314
2021-12-27 14:27:47.830565,-69
2021-12-27 14:27:48.122820,-37
2021-12-27 14:27:48.122841,-141
2021-12-27 14:27:48.122848,-131
2021-12-27 14:27:48.122854,-131
2021-12-27 14:27:48.122860,-141
2021-12-27 14:27:48.122866,-99
2021-12-27 14:27:48.122872,-69
2021-12-27 14:27:48.122879,-87
2021-12-27 14:27:48.122885,-118
2021-12-27 14:27:48.122891,-104
2021-12-27 14:27:48.122897,-53
2021-12-27 14:27:48.122903,-16
2021-12-27 14:27:48.122909,16
2021-12-27 14:27:48.122915,41
2021-12-27 14:27:48.122921,32
2021-12-27 14:27:48.122928,23
2021-12-27 14:27:48.122934,69
2021-12-27 14:27:48.122940,134
2021-12-27 14:27:48.122946,157
2021-12-27 14:27:48.122952,138
2021-12-27 14:27:48.122958,97
2021-12-27 14:27:48.122964,87
2021-12-27 14:27:48.122970,115
2021-12-27 14:27:48.122976,134
2021-12-27 14:27:48.122983,127
2021-12-27 14:27:48.122989,97
2021-12-27 14:27:48.122995,23
2021-12-27 14:27:48.123001,-81
2021-12-27 14:27:48.123007,-150
2021-12-27 14:27:48.123013,-180
2021-12-27 14:27:48.317862,-210
2021-12-27 14:27:48.317882,-226
2021-12-27 14:27:48.317889,-222
2021-12-27 14:27:48.317896,-231
2021-12-27 14:27:48.317902,-250
2021-12-27 14:27:48.317908,-231
2021-12-27 14:27:48.317914,-182
2021-12-27 14:27:48.317920,-148
2021-12-27 14:27:48.317926,-143
2021-12-27 14:27:48.317933,-164
2021-12-27 14:27:48.317939,-155
2021-12-27 14:27:48.317945,-81
2021-12-27 14:27:48.317951,-43
2021-12-27 14:27:48.317957,-43
2021-12-27 14:27:48.317963,-11
2021-12-27 14:27:48.317969,-48
2021-12-27 14:27:48.317975,-141
2021-12-27 14:27:48.317981,-134
2021-12-27 14:27:48.317987,-76
2021-12-27 14:27:48.317993,-69
2021-12-27 14:27:48.318000,-74
2021-12-27 14:27:48.318006,-76
2021-12-27 14:27:48.318012,-111
2021-12-27 14:27:48.318018,-134
2021-12-27 14:27:48.318024,-104
2021-12-27 14:27:48.318033,-62
2021-12-27 14:27:48.318039,-53
2021-12-27 14:27:48.318045,-57
2021-12-27 14:27:48.318051,-50
2021-12-27 14:27:48.318057,-30
2021-12-27 14:27:48.561516,-4
2021-12-27 14:27:48.561537,27
2021-12-27 14:27:48.561544,43
2021-12-27 14:27:48.561550,16
2021-12-27 14:27:48.561557,4
2021-12-27 14:27:48.561563,16
2021-12-27 14:27:48.561569,-13
2021-12-27 14:27:48.561575,-37
2021-12-27 14:27:48.561581,-6
2021-12-27 14:27:48.561587,6
2021-12-27 14:27:48.561593,-11
2021-12-27 14:27:48.561599,-30
2021-12-27 14:27:48.561605,-50
2021-12-27 14:27:48.561612,-78
2021-12-27 14:27:48.561618,-94
2021-12-27 14:27:48.561624,120
2021-12-27 14:27:48.561630,808
2021-12-27 14:27:48.561636,1713
2021-12-27 14:27:48.561642,2197
2021-12-27 14:27:48.561649,1338
2021-12-27 14:27:48.561661,-597
2021-12-27 14:27:48.561667,-1268
2021-12-27 14:27:48.561674,-407
2021-12-27 14:27:48.561680,-122
2021-12-27 14:27:48.561686,-372
2021-12-27 14:27:48.561692,-243
2021-12-27 14:27:48.561698,-159
2021-12-27 14:27:48.561705,-266
2021-12-27 14:27:48.561711,-236
2021-12-27 14:27:48.561717,-180
2021-12-27 14:27:48.756633,-201
2021-12-27 14:27:48.756655,-164
2021-12-27 14:27:48.756662,-81
2021-12-27 14:27:48.756669,-60
2021-12-27 14:27:48.756675,-90
2021-12-27 14:27:48.756681,-55
2021-12-27 14:27:48.756688,11
2021-12-27 14:27:48.756694,18
2021-12-27 14:27:48.756700,4
2021-12-27 14:27:48.756706,-43
2021-12-27 14:27:48.756712,-94
2021-12-27 14:27:48.756719,-41
2021-12-27 14:27:48.756725,27
2021-12-27 14:27:48.756731,20
2021-12-27 14:27:48.756737,30
2021-12-27 14:27:48.756743,90
2021-12-27 14:27:48.756749,162
2021-12-27 14:27:48.756756,217
2021-12-27 14:27:48.756762,201
2021-12-27 14:27:48.756768,97
2021-12-27 14:27:48.756774,27
2021-12-27 14:27:48.756780,23
2021-12-27 14:27:48.756787,-18
2021-12-27 14:27:48.756793,-90
2021-12-27 14:27:48.756799,-141
2021-12-27 14:27:48.756805,-206
2021-12-27 14:27:48.756811,-268
2021-12-27 14:27:48.756817,-291
2021-12-27 14:27:48.756824,-287
2021-12-27 14:27:48.756830,-266
2021-12-27 14:27:49.047970,-222
2021-12-27 14:27:49.048002,-159
2021-12-27 14:27:49.048013,-113
2021-12-27 14:27:49.048023,-120
2021-12-27 14:27:49.048033,-145
2021-12-27 14:27:49.048042,-125
2021-12-27 14:27:49.048051,-94
2021-12-27 14:27:49.048061,-106
2021-12-27 14:27:49.048070,-143
2021-12-27 14:27:49.048112,-173
2021-12-27 14:27:49.048122,-180
2021-12-27 14:27:49.048131,-164
2021-12-27 14:27:49.048141,-143
2021-12-27 14:27:49.048150,-125
2021-12-27 14:27:49.048160,-145
2021-12-27 14:27:49.048169,-185
2021-12-27 14:27:49.048179,-155
2021-12-27 14:27:49.048188,-111
2021-12-27 14:27:49.048198,-138
2021-12-27 14:27:49.048207,-143
2021-12-27 14:27:49.048216,-108
2021-12-27 14:27:49.048226,-118
2021-12-27 14:27:49.048235,-120
2021-12-27 14:27:49.048245,-90
2021-12-27 14:27:49.048254,-69
2021-12-27 14:27:49.048263,-57
2021-12-27 14:27:49.048273,-43
2021-12-27 14:27:49.048282,-43
2021-12-27 14:27:49.048292,-41
2021-12-27 14:27:49.048301,-18
2021-12-27 14:27:49.195631,-34
2021-12-27 14:27:49.195661,-85
2021-12-27 14:27:49.195672,-92
2021-12-27 14:27:49.195682,-106
2021-12-27 14:27:49.195691,-162
2021-12-27 14:27:49.195701,-150
2021-12-27 14:27:49.195710,-94
2021-12-27 14:27:49.195720,-74
2021-12-27 14:27:49.195729,-57
2021-12-27 14:27:49.195739,-62
2021-12-27 14:27:49.195748,-162
2021-12-27 14:27:49.195758,-254
2021-12-27 14:27:49.195767,-34
2021-12-27 14:27:49.195777,685
2021-12-27 14:27:49.195787,1639
2021-12-27 14:27:49.195796,2146
2021-12-27 14:27:49.195806,1190
2021-12-27 14:27:49.195815,-789
2021-12-27 14:27:49.195825,-1342
2021-12-27 14:27:49.195834,-442
2021-12-27 14:27:49.195844,-219
2021-12-27 14:27:49.195853,-446
2021-12-27 14:27:49.195871,-250
2021-12-27 14:27:49.195881,-145
2021-12-27 14:27:49.195890,-252
2021-12-27 14:27:49.195900,-208
2021-12-27 14:27:49.195909,-148
2021-12-27 14:27:49.195919,-196
2021-12-27 14:27:49.195928,-192
2021-12-27 14:27:49.195938,-145
2021-12-27 14:27:49.438584,-134
2021-12-27 14:27:49.438604,-104
2021-12-27 14:27:49.438611,-60
2021-12-27 14:27:49.438616,-41
2021-12-27 14:27:49.438621,-25
2021-12-27 14:27:49.438626,-20
2021-12-27 14:27:49.438631,-37
2021-12-27 14:27:49.438636,-6
2021-12-27 14:27:49.438641,53
2021-12-27 14:27:49.438646,85
2021-12-27 14:27:49.438651,108
2021-12-27 14:27:49.438656,125
2021-12-27 14:27:49.438661,122
2021-12-27 14:27:49.438666,125
2021-12-27 14:27:49.438671,115
2021-12-27 14:27:49.438688,90
2021-12-27 14:27:49.438693,108
2021-12-27 14:27:49.438698,120
2021-12-27 14:27:49.438703,71
2021-12-27 14:27:49.438708,2
2021-12-27 14:27:49.438725,-53
2021-12-27 14:27:49.438732,-111
2021-12-27 14:27:49.438737,-166
2021-12-27 14:27:49.438742,-203
2021-12-27 14:27:49.438747,-222
2021-12-27 14:27:49.438752,-226
2021-12-27 14:27:49.438776,-215
2021-12-27 14:27:49.438797,-203
2021-12-27 14:27:49.438802,-185
2021-12-27 14:27:49.438807,-152
2021-12-27 14:27:49.683118,-131
2021-12-27 14:27:49.683148,-122
2021-12-27 14:27:49.683159,-108
2021-12-27 14:27:49.683169,-97
2021-12-27 14:27:49.683178,-78
2021-12-27 14:27:49.683188,-81
2021-12-27 14:27:49.683197,-136
2021-12-27 14:27:49.683207,-187
2021-12-27 14:27:49.683216,-175
2021-12-27 14:27:49.683225,-152
2021-12-27 14:27:49.683235,-145
2021-12-27 14:27:49.683245,-122
2021-12-27 14:27:49.683254,-106
2021-12-27 14:27:49.683263,-134
2021-12-27 14:27:49.683273,-169
2021-12-27 14:27:49.683282,-169
2021-12-27 14:27:49.683292,-166
2021-12-27 14:27:49.683301,-171
2021-12-27 14:27:49.683311,-150
2021-12-27 14:27:49.683320,-131
2021-12-27 14:27:49.683329,-143
2021-12-27 14:27:49.683339,-138
2021-12-27 14:27:49.683348,-111
2021-12-27 14:27:49.683357,-87
2021-12-27 14:27:49.683367,-62
2021-12-27 14:27:49.683377,-41
2021-12-27 14:27:49.683386,-46
2021-12-27 14:27:49.683396,-34
2021-12-27 14:27:49.683405,2
2021-12-27 14:27:49.683415,16
2021-12-27 14:27:49.878148,13
2021-12-27 14:27:49.878168,20
2021-12-27 14:27:49.878176,2
2021-12-27 14:27:49.878183,-23
2021-12-27 14:27:49.878191,-6
2021-12-27 14:27:49.878202,20
2021-12-27 14:27:49.878213,34
2021-12-27 14:27:49.878224,43
2021-12-27 14:27:49.878236,-13
2021-12-27 14:27:49.878245,-122
2021-12-27 14:27:49.878265,-25
2021-12-27 14:27:49.878288,530
2021-12-27 14:27:49.878300,1414
2021-12-27 14:27:49.878310,2153
2021-12-27 14:27:49.878319,1845
2021-12-27 14:27:49.878330,46
2021-12-27 14:27:49.878340,-1271
2021-12-27 14:27:49.878351,-694
2021-12-27 14:27:49.878362,-134
2021-12-27 14:27:49.878373,-368
2021-12-27 14:27:49.878384,-296
2021-12-27 14:27:49.878395,-101
2021-12-27 14:27:49.878404,-194
2021-12-27 14:27:49.878415,-217
2021-12-27 14:27:49.878459,-120
2021-12-27 14:27:49.878500,-127
2021-12-27 14:27:49.878517,-169
2021-12-27 14:27:49.878524,-150
2021-12-27 14:27:49.878531,-131
2021-12-27 14:27:49.878537,-118
2021-12-27 14:27:50.121605,-78
2021-12-27 14:27:50.121634,-37
2021-12-27 14:27:50.121646,-16
2021-12-27 14:27:50.121656,-23
2021-12-27 14:27:50.121665,-46
2021-12-27 14:27:50.121683,-32
2021-12-27 14:27:50.121693,30
2021-12-27 14:27:50.121703,76
2021-12-27 14:27:50.121712,94
2021-12-27 14:27:50.121722,120
2021-12-27 14:27:50.121732,120
2021-12-27 14:27:50.121741,83
2021-12-27 14:27:50.121751,46
2021-12-27 14:27:50.121760,41
2021-12-27 14:27:50.121770,55
2021-12-27 14:27:50.121780,62
2021-12-27 14:27:50.121789,50
2021-12-27 14:27:50.121799,11
2021-12-27 14:27:50.121808,-48
2021-12-27 14:27:50.121818,-113
2021-12-27 14:27:50.121828,-187
2021-12-27 14:27:50.121837,-254
2021-12-27 14:27:50.121847,-280
2021-12-27 14:27:50.121856,-280
2021-12-27 14:27:50.121866,-270
2021-12-27 14:27:50.121875,-245
2021-12-27 14:27:50.121885,-217
2021-12-27 14:27:50.121894,-199
2021-12-27 14:27:50.121904,-178
2021-12-27 14:27:50.121913,-157
2021-12-27 14:27:50.365376,-141
2021-12-27 14:27:50.365406,-111
2021-12-27 14:27:50.365418,-90
2021-12-27 14:27:50.365428,-85
2021-12-27 14:27:50.365437,-69
2021-12-27 14:27:50.365447,-67
2021-12-27 14:27:50.365456,-99
2021-12-27 14:27:50.365466,-104
2021-12-27 14:27:50.365475,-78
2021-12-27 14:27:50.365485,-87
2021-12-27 14:27:50.365494,-92
2021-12-27 14:27:50.365504,-71
2021-12-27 14:27:50.365513,-81
2021-12-27 14:27:50.365523,-87
2021-12-27 14:27:50.365532,-60
2021-12-27 14:27:50.365542,-55
2021-12-27 14:27:50.365551,-53
2021-12-27 14:27:50.365560,-23
2021-12-27 14:27:50.365570,-16
2021-12-27 14:27:50.365579,-27
2021-12-27 14:27:50.365589,-13
2021-12-27 14:27:50.365598,-6
2021-12-27 14:27:50.365608,-43
2021-12-27 14:27:50.365617,-57
2021-12-27 14:27:50.365627,-25
2021-12-27 14:27:50.365636,-2
2021-12-27 14:27:50.365646,4
2021-12-27 14:27:50.365655,20
2021-12-27 14:27:50.365665,34
2021-12-27 14:27:50.365674,39
2021-12-27 14:27:50.658113,37
2021-12-27 14:27:50.658143,30
2021-12-27 14:27:50.658154,18
2021-12-27 14:27:50.658164,11
2021-12-27 14:27:50.658173,25
2021-12-27 14:27:50.658183,53
2021-12-27 14:27:50.658192,64
2021-12-27 14:27:50.658202,30
2021-12-27 14:27:50.658211,-48
2021-12-27 14:27:50.658221,-92
2021-12-27 14:27:50.658230,99
2021-12-27 14:27:50.658240,715
2021-12-27 14:27:50.658249,1576
2021-12-27 14:27:50.658259,2136
2021-12-27 14:27:50.658268,1428
2021-12-27 14:27:50.658278,-460
2021-12-27 14:27:50.658287,-1264
2021-12-27 14:27:50.658297,-507
2021-12-27 14:27:50.658306,-215
2021-12-27 14:27:50.658316,-430
2021-12-27 14:27:50.658325,-268
2021-12-27 14:27:50.658335,-159
2021-12-27 14:27:50.658344,-263
2021-12-27 14:27:50.658353,-254
2021-12-27 14:27:50.658363,-210
2021-12-27 14:27:50.658372,-233
2021-12-27 14:27:50.658382,-226
2021-12-27 14:27:50.658391,-194
2021-12-27 14:27:50.658401,-178
2021-12-27 14:27:50.658410,-143
2021-12-27 14:27:50.804440,-92
2021-12-27 14:27:50.804461,-60
2021-12-27 14:27:50.804468,-53
2021-12-27 14:27:50.804475,-41
2021-12-27 14:27:50.804481,-6
2021-12-27 14:27:50.804487,32
2021-12-27 14:27:50.804493,62
2021-12-27 14:27:50.804499,101
2021-12-27 14:27:50.804505,131
2021-12-27 14:27:50.804512,141
2021-12-27 14:27:50.804518,155
2021-12-27 14:27:50.804524,180
2021-12-27 14:27:50.804530,201
2021-12-27 14:27:50.804536,217
2021-12-27 14:27:50.804542,215
2021-12-27 14:27:50.804548,175
2021-12-27 14:27:50.804555,118
2021-12-27 14:27:50.804561,81
2021-12-27 14:27:50.804567,43
2021-12-27 14:27:50.804573,-11
2021-12-27 14:27:50.804579,-67
2021-12-27 14:27:50.804585,-138
2021-12-27 14:27:50.804591,-213
2021-12-27 14:27:50.804597,-226
2021-12-27 14:27:50.804603,-194
2021-12-27 14:27:50.804610,-175
2021-12-27 14:27:50.804616,-182
2021-12-27 14:27:50.804622,-192
2021-12-27 14:27:50.804628,-185
2021-12-27 14:27:50.804635,-159
2021-12-27 14:27:51.095697,-122
2021-12-27 14:27:51.095732,-94
2021-12-27 14:27:51.095744,-87
2021-12-27 14:27:51.095754,-81
2021-12-27 14:27:51.095763,-92
2021-12-27 14:27:51.095773,-122
2021-12-27 14:27:51.095782,-115
2021-12-27 14:27:51.095792,-78
2021-12-27 14:27:51.095801,-71
2021-12-27 14:27:51.095811,-78
2021-12-27 14:27:51.095820,-83
2021-12-27 14:27:51.095830,-106
2021-12-27 14:27:51.095839,-108
2021-12-27 14:27:51.095848,-64
2021-12-27 14:27:51.095858,-46
2021-12-27 14:27:51.095867,-57
2021-12-27 14:27:51.095877,-48
2021-12-27 14:27:51.095886,-41
2021-12-27 14:27:51.095896,-43
2021-12-27 14:27:51.095905,-20
2021-12-27 14:27:51.095915,-9
2021-12-27 14:27:51.095924,-16
2021-12-27 14:27:51.095934,-4
2021-12-27 14:27:51.095943,-4
2021-12-27 14:27:51.095953,-39
2021-12-27 14:27:51.095962,-27
2021-12-27 14:27:51.095971,9
2021-12-27 14:27:51.095981,-6
2021-12-27 14:27:51.095990,-48
2021-12-27 14:27:51.096000,-71
2021-12-27 14:27:51.291313,-71
2021-12-27 14:27:51.291334,-57
2021-12-27 14:27:51.291340,-46
2021-12-27 14:27:51.291345,-41
2021-12-27 14:27:51.291350,-32
2021-12-27 14:27:51.291368,-18
2021-12-27 14:27:51.291374,-55
2021-12-27 14:27:51.291379,-136
2021-12-27 14:27:51.291384,-99
2021-12-27 14:27:51.291389,277
2021-12-27 14:27:51.291394,1018
2021-12-27 14:27:51.291399,1787
2021-12-27 14:27:51.291404,1873
2021-12-27 14:27:51.291409,495
2021-12-27 14:27:51.291414,-1099
2021-12-27 14:27:51.291419,-942
2021-12-27 14:27:51.291424,-208
2021-12-27 14:27:51.291429,-298
2021-12-27 14:27:51.291434,-358
2021-12-27 14:27:51.291476,-164
2021-12-27 14:27:51.291483,-196
2021-12-27 14:27:51.291488,-245
2021-12-27 14:27:51.291493,-152
2021-12-27 14:27:51.291497,-111
2021-12-27 14:27:51.291502,-122
2021-12-27 14:27:51.291507,-99
2021-12-27 14:27:51.291512,-76
2021-12-27 14:27:51.291517,-71
2021-12-27 14:27:51.291522,-48
2021-12-27 14:27:51.291527,-20
2021-12-27 14:27:51.534847,-18
2021-12-27 14:27:51.534876,-32
2021-12-27 14:27:51.534888,-23
2021-12-27 14:27:51.534898,9
2021-12-27 14:27:51.534908,37
2021-12-27 14:27:51.534917,69
2021-12-27 14:27:51.534927,122
2021-12-27 14:27:51.534936,145
2021-12-27 14:27:51.534946,118
2021-12-27 14:27:51.534955,99
2021-12-27 14:27:51.534965,129
2021-12-27 14:27:51.534974,148
2021-12-27 14:27:51.534984,148
2021-12-27 14:27:51.534993,145
2021-12-27 14:27:51.535003,111
2021-12-27 14:27:51.535012,46
2021-12-27 14:27:51.535022,6
2021-12-27 14:27:51.535032,-18
2021-12-27 14:27:51.535041,-60
2021-12-27 14:27:51.535051,-99
2021-12-27 14:27:51.535060,-143
2021-12-27 14:27:51.535070,-189
2021-12-27 14:27:51.535080,-192
2021-12-27 14:27:51.535089,-150
2021-12-27 14:27:51.535099,-118
2021-12-27 14:27:51.535108,-99
2021-12-27 14:27:51.535133,-87
2021-12-27 14:27:51.535143,-90
2021-12-27 14:27:51.535153,-92
2021-12-27 14:27:51.535162,-108
2021-12-27 14:27:51.730584,-125
2021-12-27 14:27:51.730613,-106
2021-12-27 14:27:51.730624,-115
2021-12-27 14:27:51.730634,-173
2021-12-27 14:27:51.730644,-169
2021-12-27 14:27:51.730653,-115
2021-12-27 14:27:51.730663,-111
2021-12-27 14:27:51.730672,-120
2021-12-27 14:27:51.730682,-115
2021-12-27 14:27:51.730691,-143
2021-12-27 14:27:51.730701,-182
2021-12-27 14:27:51.730710,-155
2021-12-27 14:27:51.730719,-99
2021-12-27 14:27:51.730729,-81
2021-12-27 14:27:51.730738,-74
2021-12-27 14:27:51.730748,-74
2021-12-27 14:27:51.730757,-83
2021-12-27 14:27:51.730767,-69
2021-12-27 14:27:51.730776,-37
2021-12-27 14:27:51.730786,-25
2021-12-27 14:27:51.730795,-18
2021-12-27 14:27:51.730804,2
2021-12-27 14:27:51.730814,11
2021-12-27 14:27:51.730823,9
2021-12-27 14:27:51.730833,32
2021-12-27 14:27:51.730842,60
2021-12-27 14:27:51.730851,60
2021-12-27 14:27:51.730861,37
2021-12-27 14:27:51.730870,18
2021-12-27 14:27:51.730880,13
2021-12-27 14:27:52.023123,23
2021-12-27 14:27:52.023144,43
2021-12-27 14:27:52.023151,57
2021-12-27 14:27:52.023158,53
2021-12-27 14:27:52.023164,4
2021-12-27 14:27:52.023170,-101
2021-12-27 14:27:52.023176,-125
2021-12-27 14:27:52.023182,182
2021-12-27 14:27:52.023189,877
2021-12-27 14:27:52.023195,1653
2021-12-27 14:27:52.023201,1877
2021-12-27 14:27:52.023211,692
2021-12-27 14:27:52.023217,-1014
2021-12-27 14:27:52.023223,-1092
2021-12-27 14:27:52.023230,-307
2021-12-27 14:27:52.023236,-326
2021-12-27 14:27:52.023242,-446
2021-12-27 14:27:52.023248,-215
2021-12-27 14:27:52.023255,-180
2021-12-27 14:27:52.023261,-247
2021-12-27 14:27:52.023267,-169
2021-12-27 14:27:52.023273,-118
2021-12-27 14:27:52.023279,-129
2021-12-27 14:27:52.023285,-97
2021-12-27 14:27:52.023292,-67
2021-12-27 14:27:52.023298,-55
2021-12-27 14:27:52.023304,-23
2021-12-27 14:27:52.023311,4
2021-12-27 14:27:52.023317,16
2021-12-27 14:27:52.023323,37
2021-12-27 14:27:52.266850,60
2021-12-27 14:27:52.266870,85
2021-12-27 14:27:52.266878,104
2021-12-27 14:27:52.266884,92
2021-12-27 14:27:52.266890,69
2021-12-27 14:27:52.266896,60
2021-12-27 14:27:52.266902,62
2021-12-27 14:27:52.266908,64
2021-12-27 14:27:52.266914,71
2021-12-27 14:27:52.266920,85
2021-12-27 14:27:52.266926,94
2021-12-27 14:27:52.266932,106
2021-12-27 14:27:52.266938,106
2021-12-27 14:27:52.266944,57
2021-12-27 14:27:52.266950,-11
2021-12-27 14:27:52.266956,-43
2021-12-27 14:27:52.266962,-67
2021-12-27 14:27:52.266968,-120
2021-12-27 14:27:52.266974,-162
2021-12-27 14:27:52.266980,-192
2021-12-27 14:27:52.266986,-222
2021-12-27 14:27:52.266992,-217
2021-12-27 14:27:52.266998,-182
2021-12-27 14:27:52.267004,-148
2021-12-27 14:27:52.267010,-115
2021-12-27 14:27:52.267016,-97
2021-12-27 14:27:52.267022,-97
2021-12-27 14:27:52.267028,-92
2021-12-27 14:27:52.267034,-69
2021-12-27 14:27:52.267040,-39
2021-12-27 14:27:52.462051,-16
2021-12-27 14:27:52.462072,0
2021-12-27 14:27:52.462079,-13
2021-12-27 14:27:52.462085,-39
2021-12-27 14:27:52.462092,-34
2021-12-27 14:27:52.462098,-2
2021-12-27 14:27:52.462104,11
2021-12-27 14:27:52.462110,6
2021-12-27 14:27:52.462117,-9
2021-12-27 14:27:52.462123,-37
2021-12-27 14:27:52.462129,-39
2021-12-27 14:27:52.462135,-11
2021-12-27 14:27:52.462141,9
2021-12-27 14:27:52.462147,23
2021-12-27 14:27:52.462153,4
2021-12-27 14:27:52.462160,-43
2021-12-27 14:27:52.462166,-43
2021-12-27 14:27:52.462172,6
2021-12-27 14:27:52.462178,34
2021-12-27 14:27:52.462184,43
2021-12-27 14:27:52.462190,50
2021-12-27 14:27:52.462197,11
2021-12-27 14:27:52.462203,-32
2021-12-27 14:27:52.462209,-6
2021-12-27 14:27:52.462215,11
2021-12-27 14:27:52.462221,0
2021-12-27 14:27:52.462227,9
2021-12-27 14:27:52.462233,9
2021-12-27 14:27:52.462240,-4
2021-12-27 14:27:52.462246,13
2021-12-27 14:27:52.705534,30
2021-12-27 14:27:52.705554,-2
2021-12-27 14:27:52.705562,-27
2021-12-27 14:27:52.705568,152
2021-12-27 14:27:52.705574,717
2021-12-27 14:27:52.705580,1514
2021-12-27 14:27:52.705586,1958
2021-12-27 14:27:52.705592,1102
2021-12-27 14:27:52.705599,-645
2021-12-27 14:27:52.705605,-1153
2021-12-27 14:27:52.705611,-469
2021-12-27 14:27:52.705617,-326
2021-12-27 14:27:52.705623,-465
2021-12-27 14:27:52.705629,-275
2021-12-27 14:27:52.705635,-182
2021-12-27 14:27:52.705642,-259
2021-12-27 14:27:52.705648,-254
2021-12-27 14:27:52.705654,-219
2021-12-27 14:27:52.705660,-206
2021-12-27 14:27:52.705666,-169
2021-12-27 14:27:52.705672,-145
2021-12-27 14:27:52.705678,-145
2021-12-27 14:27:52.705685,-129
2021-12-27 14:27:52.705691,-97
2021-12-27 14:27:52.705697,-64
2021-12-27 14:27:52.705703,-27
2021-12-27 14:27:52.705709,11
2021-12-27 14:27:52.705715,32
2021-12-27 14:27:52.705721,46
2021-12-27 14:27:52.705728,71
2021-12-27 14:27:52.900891,97
2021-12-27 14:27:52.900920,125
2021-12-27 14:27:52.900931,150
2021-12-27 14:27:52.900941,159
2021-12-27 14:27:52.900950,169
2021-12-27 14:27:52.900960,152
2021-12-27 14:27:52.900969,99
2021-12-27 14:27:52.900978,94
2021-12-27 14:27:52.900987,122
2021-12-27 14:27:52.900997,99
2021-12-27 14:27:52.901006,55
2021-12-27 14:27:52.901015,27
2021-12-27 14:27:52.901025,-27
2021-12-27 14:27:52.901034,-111
2021-12-27 14:27:52.901043,-152
2021-12-27 14:27:52.901053,-157
2021-12-27 14:27:52.901062,-150
2021-12-27 14:27:52.901071,-145
2021-12-27 14:27:52.901081,-173
2021-12-27 14:27:52.901090,-182
2021-12-27 14:27:52.901099,-143
2021-12-27 14:27:52.901108,-120
2021-12-27 14:27:52.901118,-106
2021-12-27 14:27:52.901127,-69
2021-12-27 14:27:52.901136,-55
2021-12-27 14:27:52.901145,-67
2021-12-27 14:27:52.901155,-50
2021-12-27 14:27:52.901164,-32
2021-12-27 14:27:52.901174,-32
2021-12-27 14:27:52.901183,-23
2021-12-27 14:27:53.191733,-13
2021-12-27 14:27:53.191763,-16
2021-12-27 14:27:53.191774,-18
2021-12-27 14:27:53.191784,-11
2021-12-27 14:27:53.191794,2
2021-12-27 14:27:53.191803,11
2021-12-27 14:27:53.191813,2
2021-12-27 14:27:53.191822,-25
2021-12-27 14:27:53.191843,-46
2021-12-27 14:27:53.191854,-41
2021-12-27 14:27:53.191863,-32
2021-12-27 14:27:53.191873,-23
2021-12-27 14:27:53.191882,4
2021-12-27 14:27:53.191892,13
2021-12-27 14:27:53.191902,-46
2021-12-27 14:27:53.191911,-108
2021-12-27 14:27:53.191921,-101
2021-12-27 14:27:53.191930,-74
2021-12-27 14:27:53.191940,-60
2021-12-27 14:27:53.191949,-60
2021-12-27 14:27:53.191959,-81
2021-12-27 14:27:53.191968,-90
2021-12-27 14:27:53.191978,-62
2021-12-27 14:27:53.191987,-32
2021-12-27 14:27:53.191997,-25
2021-12-27 14:27:53.192007,-23
2021-12-27 14:27:53.192016,-43
2021-12-27 14:27:53.192026,-97
2021-12-27 14:27:53.192035,-46
2021-12-27 14:27:53.192045,319
2021-12-27 14:27:53.339218,1032
2021-12-27 14:27:53.339241,1775
2021-12-27 14:27:53.339248,1815
2021-12-27 14:27:53.339254,451
2021-12-27 14:27:53.339261,-1018
2021-12-27 14:27:53.339267,-817
2021-12-27 14:27:53.339273,-127
2021-12-27 14:27:53.339279,-201
2021-12-27 14:27:53.339285,-273
2021-12-27 14:27:53.339291,-131
2021-12-27 14:27:53.339297,-155
2021-12-27 14:27:53.339303,-199
2021-12-27 14:27:53.339310,-138
2021-12-27 14:27:53.339316,-108
2021-12-27 14:27:53.339322,-120
2021-12-27 14:27:53.339328,-143
2021-12-27 14:27:53.339334,-178
2021-12-27 14:27:53.339340,-171
2021-12-27 14:27:53.339346,-127
2021-12-27 14:27:53.339352,-94
2021-12-27 14:27:53.339358,-78
2021-12-27 14:27:53.339364,-64
2021-12-27 14:27:53.339370,-50
2021-12-27 14:27:53.339376,-13
2021-12-27 14:27:53.339383,27
2021-12-27 14:27:53.339389,55
2021-12-27 14:27:53.339395,69
2021-12-27 14:27:53.339401,81
2021-12-27 14:27:53.339407,81
2021-12-27 14:27:53.339413,85
2021-12-27 14:27:53.583112,111
2021-12-27 14:27:53.583135,134
2021-12-27 14:27:53.583142,125
2021-12-27 14:27:53.583149,101
2021-12-27 14:27:53.583155,67
2021-12-27 14:27:53.583161,25
2021-12-27 14:27:53.583167,-2
2021-12-27 14:27:53.583174,-32
2021-12-27 14:27:53.583180,-67
2021-12-27 14:27:53.583186,-106
2021-12-27 14:27:53.583192,-162
2021-12-27 14:27:53.583198,-208
2021-12-27 14:27:53.583204,-203
2021-12-27 14:27:53.583211,-173
2021-12-27 14:27:53.583217,-150
2021-12-27 14:27:53.583223,-134
2021-12-27 14:27:53.583229,-120
2021-12-27 14:27:53.583235,-118
2021-12-27 14:27:53.583242,-120
2021-12-27 14:27:53.583248,-141
2021-12-27 14:27:53.583254,-178
2021-12-27 14:27:53.583260,-199
2021-12-27 14:27:53.583266,-180
2021-12-27 14:27:53.583272,-152
2021-12-27 14:27:53.583278,-150
2021-12-27 14:27:53.583285,-143
2021-12-27 14:27:53.583291,-122
2021-12-27 14:27:53.583297,-115
2021-12-27 14:27:53.583303,-113
2021-12-27 14:27:53.583309,-104
2021-12-27 14:27:53.827150,-97
2021-12-27 14:27:53.827171,-87
2021-12-27 14:27:53.827178,-74
2021-12-27 14:27:53.827184,-60
2021-12-27 14:27:53.827190,-55
2021-12-27 14:27:53.827196,-69
2021-12-27 14:27:53.827202,-97
2021-12-27 14:27:53.827208,-87
2021-12-27 14:27:53.827214,-43
2021-12-27 14:27:53.827220,-32
2021-12-27 14:27:53.827226,-27
2021-12-27 14:27:53.827232,0
2021-12-27 14:27:53.827238,-20
2021-12-27 14:27:53.827244,-62
2021-12-27 14:27:53.827250,-41
2021-12-27 14:27:53.827256,-23
2021-12-27 14:27:53.827262,-39
2021-12-27 14:27:53.827268,-27
2021-12-27 14:27:53.827274,-11
2021-12-27 14:27:53.827280,-23
2021-12-27 14:27:53.827286,-39
2021-12-27 14:27:53.827292,-78
2021-12-27 14:27:53.827298,-125
2021-12-27 14:27:53.827304,-39
2021-12-27 14:27:53.827310,361
2021-12-27 14:27:53.827316,1081
2021-12-27 14:27:53.827322,1775
2021-12-27 14:27:53.827328,1676
2021-12-27 14:27:53.827334,243
2021-12-27 14:27:53.827340,-1025
2021-12-27 14:27:54.021918,-652
2021-12-27 14:27:54.021947,-78
2021-12-27 14:27:54.021958,-247
2021-12-27 14:27:54.021968,-245
2021-12-27 14:27:54.021978,-34
2021-12-27 14:27:54.021987,-46
2021-12-27 14:27:54.021997,-69
2021-12-27 14:27:54.022006,-25
2021-12-27 14:27:54.022016,-71
2021-12-27 14:27:54.022025,-115
2021-12-27 14:27:54.022035,-90
2021-12-27 14:27:54.022044,-81
2021-12-27 14:27:54.022054,-76
2021-12-27 14:27:54.022063,-53
2021-12-27 14:27:54.022073,-71
2021-12-27 14:27:54.022082,-94
2021-12-27 14:27:54.022091,-53
2021-12-27 14:27:54.022101,-4
2021-12-27 14:27:54.022110,16
2021-12-27 14:27:54.022120,41
2021-12-27 14:27:54.022129,55
2021-12-27 14:27:54.022139,48
2021-12-27 14:27:54.022148,46
2021-12-27 14:27:54.022158,48
2021-12-27 14:27:54.022167,43
2021-12-27 14:27:54.022177,23
2021-12-27 14:27:54.022186,-37
2021-12-27 14:27:54.022196,-69
2021-12-27 14:27:54.022205,-37
2021-12-27 14:27:54.022215,-9
2021-12-27 14:27:54.265416,-18
2021-12-27 14:27:54.265445,-41
2021-12-27 14:27:54.265457,-99
2021-12-27 14:27:54.265466,-203
2021-12-27 14:27:54.265476,-256
2021-12-27 14:27:54.265485,-226
2021-12-27 14:27:54.265494,-213
2021-12-27 14:27:54.265507,-215
2021-12-27 14:27:54.265516,-203
2021-12-27 14:27:54.265526,-215
2021-12-27 14:27:54.265535,-229
2021-12-27 14:27:54.265545,-192
2021-12-27 14:27:54.265554,-141
2021-12-27 14:27:54.265564,-120
2021-12-27 14:27:54.265573,-104
2021-12-27 14:27:54.265582,-94
2021-12-27 14:27:54.265591,-104
2021-12-27 14:27:54.265601,-97
2021-12-27 14:27:54.265610,-64
2021-12-27 14:27:54.265619,-39
2021-12-27 14:27:54.265629,-32
2021-12-27 14:27:54.265638,-39
2021-12-27 14:27:54.265647,-50
2021-12-27 14:27:54.265669,-48
2021-12-27 14:27:54.265679,-43
2021-12-27 14:27:54.265689,-60
2021-12-27 14:27:54.265698,-71
2021-12-27 14:27:54.265708,-67
2021-12-27 14:27:54.265717,-67
2021-12-27 14:27:54.265727,-69
2021-12-27 14:27:54.509337,-48
2021-12-27 14:27:54.509367,-9
2021-12-27 14:27:54.509378,11
2021-12-27 14:27:54.509388,16
2021-12-27 14:27:54.509397,2
2021-12-27 14:27:54.509407,-18
2021-12-27 14:27:54.509416,-18
2021-12-27 14:27:54.509425,-6
2021-12-27 14:27:54.509435,-16
2021-12-27 14:27:54.509444,-20
2021-12-27 14:27:54.509453,-23
2021-12-27 14:27:54.509463,-53
2021-12-27 14:27:54.509472,-74
2021-12-27 14:27:54.509482,-43
2021-12-27 14:27:54.509491,-13
2021-12-27 14:27:54.509501,-23
2021-12-27 14:27:54.509510,-50
2021-12-27 14:27:54.509520,-32
2021-12-27 14:27:54.509529,233
2021-12-27 14:27:54.509538,882
2021-12-27 14:27:54.509548,1643
2021-12-27 14:27:54.509557,1847
2021-12-27 14:27:54.509567,736
2021-12-27 14:27:54.509576,-787
2021-12-27 14:27:54.509585,-828
2021-12-27 14:27:54.509595,-118
2021-12-27 14:27:54.509605,-131
2021-12-27 14:27:54.509614,-261
2021-12-27 14:27:54.509623,-39
2021-12-27 14:27:54.509633,60
2021-12-27 14:27:54.802219,-27
2021-12-27 14:27:54.802248,-67
2021-12-27 14:27:54.802259,-41
2021-12-27 14:27:54.802269,-2
2021-12-27 14:27:54.802279,39
2021-12-27 14:27:54.802288,46
2021-12-27 14:27:54.802298,0
2021-12-27 14:27:54.802307,-67
2021-12-27 14:27:54.802317,-94
2021-12-27 14:27:54.802326,-94
2021-12-27 14:27:54.802335,-76
2021-12-27 14:27:54.802345,-37
2021-12-27 14:27:54.802354,-20
2021-12-27 14:27:54.802364,-16
2021-12-27 14:27:54.802373,0
2021-12-27 14:27:54.802383,2
2021-12-27 14:27:54.802393,30
2021-12-27 14:27:54.802402,76
2021-12-27 14:27:54.802412,55
2021-12-27 14:27:54.802421,20
2021-12-27 14:27:54.802430,41
2021-12-27 14:27:54.802440,48
2021-12-27 14:27:54.802449,48
2021-12-27 14:27:54.802459,78
2021-12-27 14:27:54.802468,90
2021-12-27 14:27:54.802477,41
2021-12-27 14:27:54.802487,-27
2021-12-27 14:27:54.802496,-74
2021-12-27 14:27:54.802506,-122
2021-12-27 14:27:54.802515,-178
2021-12-27 14:27:54.996344,-192
2021-12-27 14:27:54.996374,-178
2021-12-27 14:27:54.996385,-182
2021-12-27 14:27:54.996395,-185
2021-12-27 14:27:54.996404,-162
2021-12-27 14:27:54.996414,-134
2021-12-27 14:27:54.996423,-101
2021-12-27 14:27:54.996433,-71
2021-12-27 14:27:54.996442,-81
2021-12-27 14:27:54.996451,-94
2021-12-27 14:27:54.996461,-69
2021-12-27 14:27:54.996470,-37
2021-12-27 14:27:54.996480,-27
2021-12-27 14:27:54.996489,-6
2021-12-27 14:27:54.996498,-6
2021-12-27 14:27:54.996508,-64
2021-12-27 14:27:54.996517,-81
2021-12-27 14:27:54.996527,-34
2021-12-27 14:27:54.996552,-20
2021-12-27 14:27:54.996562,-23
2021-12-27 14:27:54.996571,-25
2021-12-27 14:27:54.996581,-53
2021-12-27 14:27:54.996590,-53
2021-12-27 14:27:54.996600,-27
2021-12-27 14:27:54.996609,-23
2021-12-27 14:27:54.996619,2
2021-12-27 14:27:54.996686,27
2021-12-27 14:27:54.996698,9
2021-12-27 14:27:54.996708,2
2021-12-27 14:27:54.996718,37
2021-12-27 14:27:55.239285,37
2021-12-27 14:27:55.239314,-4
2021-12-27 14:27:55.239325,-23
2021-12-27 14:27:55.239335,-48
2021-12-27 14:27:55.239344,-101
2021-12-27 14:27:55.239354,-99
2021-12-27 14:27:55.239363,-76
2021-12-27 14:27:55.239372,-113
2021-12-27 14:27:55.239382,-138
2021-12-27 14:27:55.239391,-148
2021-12-27 14:27:55.239400,-196
2021-12-27 14:27:55.239410,-94
2021-12-27 14:27:55.239419,328
2021-12-27 14:27:55.239428,949
2021-12-27 14:27:55.239438,1602
2021-12-27 14:27:55.239447,1632
2021-12-27 14:27:55.239456,256
2021-12-27 14:27:55.239466,-1095
2021-12-27 14:27:55.239475,-761
2021-12-27 14:27:55.239484,-125
2021-12-27 14:27:55.239494,-229
2021-12-27 14:27:55.239503,-224
2021-12-27 14:27:55.239512,-43
2021-12-27 14:27:55.239522,-67
2021-12-27 14:27:55.239531,-78
2021-12-27 14:27:55.239540,20
2021-12-27 14:27:55.239550,53
2021-12-27 14:27:55.239559,37
2021-12-27 14:27:55.239568,32
2021-12-27 14:27:55.239578,18
2021-12-27 14:27:55.435799,34
2021-12-27 14:27:55.435822,94
2021-12-27 14:27:55.435829,136
2021-12-27 14:27:55.435836,129
2021-12-27 14:27:55.435842,90
2021-12-27 14:27:55.435848,13
2021-12-27 14:27:55.435854,-48
2021-12-27 14:27:55.435861,-2
2021-12-27 14:27:55.435867,53
2021-12-27 14:27:55.435873,-11
2021-12-27 14:27:55.435879,-62
2021-12-27 14:27:55.435885,-37
2021-12-27 14:27:55.435891,-50
2021-12-27 14:27:55.435898,-78
2021-12-27 14:27:55.435904,-57
2021-12-27 14:27:55.435911,-23
2021-12-27 14:27:55.435917,25
2021-12-27 14:27:55.435923,48
2021-12-27 14:27:55.435929,2
2021-12-27 14:27:55.435936,-43
2021-12-27 14:27:55.435942,-67
2021-12-27 14:27:55.435948,-120
2021-12-27 14:27:55.435954,-157
2021-12-27 14:27:55.435961,-162
2021-12-27 14:27:55.435967,-192
2021-12-27 14:27:55.435973,-178
2021-12-27 14:27:55.435979,-115
2021-12-27 14:27:55.435985,-94
2021-12-27 14:27:55.435992,-78
2021-12-27 14:27:55.435998,-37
2021-12-27 14:27:55.679742,-23
2021-12-27 14:27:55.679765,-37
2021-12-27 14:27:55.679772,-27
2021-12-27 14:27:55.679779,-16
2021-12-27 14:27:55.679785,-18
2021-12-27 14:27:55.679791,-32
2021-12-27 14:27:55.679797,-67
2021-12-27 14:27:55.679803,-115
2021-12-27 14:27:55.679809,-138
2021-12-27 14:27:55.679815,-127
2021-12-27 14:27:55.679821,-108
2021-12-27 14:27:55.679827,-113
2021-12-27 14:27:55.679833,-164
2021-12-27 14:27:55.679840,-224
2021-12-27 14:27:55.679846,-233
2021-12-27 14:27:55.679852,-213
2021-12-27 14:27:55.679858,-194
2021-12-27 14:27:55.679864,-162
2021-12-27 14:27:55.679870,-115
2021-12-27 14:27:55.679876,-108
2021-12-27 14:27:55.679882,-127
2021-12-27 14:27:55.679888,-111
2021-12-27 14:27:55.679895,-87
2021-12-27 14:27:55.679901,-87
2021-12-27 14:27:55.679907,-78
2021-12-27 14:27:55.679913,-78
2021-12-27 14:27:55.679919,-94
2021-12-27 14:27:55.679925,-104
2021-12-27 14:27:55.679931,-78
2021-12-27 14:27:55.679945,-18
2021-12-27 14:27:55.874591,0
2021-12-27 14:27:55.874620,-2
2021-12-27 14:27:55.874631,16
2021-12-27 14:27:55.874641,13
2021-12-27 14:27:55.874651,-9
2021-12-27 14:27:55.874660,25
2021-12-27 14:27:55.874669,340
2021-12-27 14:27:55.874679,1014
2021-12-27 14:27:55.874688,1708
2021-12-27 14:27:55.874698,1673
2021-12-27 14:27:55.874707,305
2021-12-27 14:27:55.874716,-1039
2021-12-27 14:27:55.874726,-768
2021-12-27 14:27:55.874735,-134
2021-12-27 14:27:55.874745,-236
2021-12-27 14:27:55.874755,-275
2021-12-27 14:27:55.874764,-92
2021-12-27 14:27:55.874773,-78
2021-12-27 14:27:55.874783,-83
2021-12-27 14:27:55.874792,9
2021-12-27 14:27:55.874801,57
2021-12-27 14:27:55.874811,57
2021-12-27 14:27:55.874820,81
2021-12-27 14:27:55.874830,101
2021-12-27 14:27:55.874839,97
2021-12-27 14:27:55.874848,115
2021-12-27 14:27:55.874858,150
2021-12-27 14:27:55.874867,152
2021-12-27 14:27:55.874876,143
2021-12-27 14:27:55.874886,159
2021-12-27 14:27:56.118133,173
2021-12-27 14:27:56.118154,164
2021-12-27 14:27:56.118161,145
2021-12-27 14:27:56.118168,92
2021-12-27 14:27:56.118174,32
2021-12-27 14:27:56.118180,43
2021-12-27 14:27:56.118186,101
2021-12-27 14:27:56.118192,131
2021-12-27 14:27:56.118198,127
2021-12-27 14:27:56.118204,125
2021-12-27 14:27:56.118210,97
2021-12-27 14:27:56.118216,16
2021-12-27 14:27:56.118222,-57
2021-12-27 14:27:56.118228,-85
2021-12-27 14:27:56.118234,-115
2021-12-27 14:27:56.118240,-169
2021-12-27 14:27:56.118246,-229
2021-12-27 14:27:56.118253,-287
2021-12-27 14:27:56.118259,-321
2021-12-27 14:27:56.118265,-321
2021-12-27 14:27:56.118271,-303
2021-12-27 14:27:56.118277,-266
2021-12-27 14:27:56.118283,-238
2021-12-27 14:27:56.118289,-236
2021-12-27 14:27:56.118295,-203
2021-12-27 14:27:56.118301,-127
2021-12-27 14:27:56.118307,-76
2021-12-27 14:27:56.118313,-69
2021-12-27 14:27:56.118319,-55
2021-12-27 14:27:56.118325,-20
2021-12-27 14:27:56.362078,-50
2021-12-27 14:27:56.362099,-74
2021-12-27 14:27:56.362106,-4
2021-12-27 14:27:56.362112,-20
2021-12-27 14:27:56.362118,-118
2021-12-27 14:27:56.362125,-115
2021-12-27 14:27:56.362131,-99
2021-12-27 14:27:56.362137,-131
2021-12-27 14:27:56.362143,-115
2021-12-27 14:27:56.362149,-57
2021-12-27 14:27:56.362156,-25
2021-12-27 14:27:56.362162,-60
2021-12-27 14:27:56.362168,-148
2021-12-27 14:27:56.362174,-166
2021-12-27 14:27:56.362180,-90
2021-12-27 14:27:56.362186,-53
2021-12-27 14:27:56.362194,-74
2021-12-27 14:27:56.362201,-60
2021-12-27 14:27:56.362207,-37
2021-12-27 14:27:56.362213,-46
2021-12-27 14:27:56.362219,-48
2021-12-27 14:27:56.362225,-34
2021-12-27 14:27:56.362231,-27
2021-12-27 14:27:56.362237,-11
2021-12-27 14:27:56.362243,2
2021-12-27 14:27:56.362250,6
2021-12-27 14:27:56.362256,20
2021-12-27 14:27:56.362262,11
2021-12-27 14:27:56.362268,-46
2021-12-27 14:27:56.362274,-25
2021-12-27 14:27:56.654651,340
2021-12-27 14:27:56.654681,1106
2021-12-27 14:27:56.654693,1958
2021-12-27 14:27:56.654702,2136
2021-12-27 14:27:56.654712,759
2021-12-27 14:27:56.654722,-930
2021-12-27 14:27:56.654732,-831
2021-12-27 14:27:56.654741,-83
2021-12-27 14:27:56.654750,-187
2021-12-27 14:27:56.654760,-266
2021-12-27 14:27:56.654770,-13
2021-12-27 14:27:56.654779,9
2021-12-27 14:27:56.654789,-57
2021-12-27 14:27:56.654798,-23
2021-12-27 14:27:56.654807,-41
2021-12-27 14:27:56.654817,-55
2021-12-27 14:27:56.654827,13
2021-12-27 14:27:56.654836,64
2021-12-27 14:27:56.654846,94
2021-12-27 14:27:56.654855,127
2021-12-27 14:27:56.654865,111
2021-12-27 14:27:56.654874,60
2021-12-27 14:27:56.654884,60
2021-12-27 14:27:56.654893,92
2021-12-27 14:27:56.654903,71
2021-12-27 14:27:56.654912,48
2021-12-27 14:27:56.654922,67
2021-12-27 14:27:56.654931,74
2021-12-27 14:27:56.654940,81
2021-12-27 14:27:56.654950,104
2021-12-27 14:27:56.801000,113
2021-12-27 14:27:56.801029,127
2021-12-27 14:27:56.801041,150
2021-12-27 14:27:56.801051,178
2021-12-27 14:27:56.801060,192
2021-12-27 14:27:56.801069,141
2021-12-27 14:27:56.801079,55
2021-12-27 14:27:56.801088,27
2021-12-27 14:27:56.801098,-2
2021-12-27 14:27:56.801107,-134
2021-12-27 14:27:56.801116,-252
2021-12-27 14:27:56.801126,-250
2021-12-27 14:27:56.801135,-238
2021-12-27 14:27:56.801145,-250
2021-12-27 14:27:56.801154,-243
2021-12-27 14:27:56.801164,-250
2021-12-27 14:27:56.801173,-256
2021-12-27 14:27:56.801182,-210
2021-12-27 14:27:56.801192,-152
2021-12-27 14:27:56.801201,-113
2021-12-27 14:27:56.801210,-85
2021-12-27 14:27:56.801220,-87
2021-12-27 14:27:56.801229,-108
2021-12-27 14:27:56.801239,-97
2021-12-27 14:27:56.801248,-60
2021-12-27 14:27:56.801258,-34
2021-12-27 14:27:56.801267,-25
2021-12-27 14:27:56.801276,-32
2021-12-27 14:27:56.801286,-50
2021-12-27 14:27:56.801295,-55
2021-12-27 14:27:57.142048,-32
2021-12-27 14:27:57.142077,-9
2021-12-27 14:27:57.142088,-13
2021-12-27 14:27:57.142098,-34
2021-12-27 14:27:57.142107,-62
2021-12-27 14:27:57.142116,-87
2021-12-27 14:27:57.142126,-64
2021-12-27 14:27:57.142135,-16
2021-12-27 14:27:57.142145,-4
2021-12-27 14:27:57.142154,-11
2021-12-27 14:27:57.142163,-9
2021-12-27 14:27:57.142173,-34
2021-12-27 14:27:57.142182,-60
2021-12-27 14:27:57.142192,-39
2021-12-27 14:27:57.142201,-25
2021-12-27 14:27:57.142211,-46
2021-12-27 14:27:57.142220,-48
2021-12-27 14:27:57.142230,-43
2021-12-27 14:27:57.142239,-50
2021-12-27 14:27:57.142249,-43
2021-12-27 14:27:57.142258,-43
2021-12-27 14:27:57.142267,-92
2021-12-27 14:27:57.142277,-85
2021-12-27 14:27:57.142286,245
2021-12-27 14:27:57.142296,1002
2021-12-27 14:27:57.142305,1893
2021-12-27 14:27:57.142315,2169
2021-12-27 14:27:57.142324,875
2021-12-27 14:27:57.142334,-921
2021-12-27 14:27:57.142343,-942
2021-12-27 14:27:57.383472,-136
2021-12-27 14:27:57.383487,-213
2021-12-27 14:27:57.383492,-319
2021-12-27 14:27:57.383497,-50
2021-12-27 14:27:57.383501,-23
2021-12-27 14:27:57.383505,-90
2021-12-27 14:27:57.383509,-2
2021-12-27 14:27:57.383514,43
2021-12-27 14:27:57.383518,27
2021-12-27 14:27:57.383522,50
2021-12-27 14:27:57.383526,46
2021-12-27 14:27:57.383530,11
2021-12-27 14:27:57.383535,16
2021-12-27 14:27:57.383539,25
2021-12-27 14:27:57.383543,23
2021-12-27 14:27:57.383547,25
2021-12-27 14:27:57.383551,39
2021-12-27 14:27:57.383556,81
2021-12-27 14:27:57.383560,118
2021-12-27 14:27:57.383564,120
2021-12-27 14:27:57.383568,115
2021-12-27 14:27:57.383572,122
2021-12-27 14:27:57.383576,136
2021-12-27 14:27:57.383581,152
2021-12-27 14:27:57.383585,138
2021-12-27 14:27:57.383589,92
2021-12-27 14:27:57.383593,60
2021-12-27 14:27:57.383597,55
2021-12-27 14:27:57.383604,46
2021-12-27 14:27:57.383608,9
2021-12-27 14:27:57.482419,-48
2021-12-27 14:27:57.482436,-125
2021-12-27 14:27:57.482442,-208
2021-12-27 14:27:57.482447,-266
2021-12-27 14:27:57.482452,-282
2021-12-27 14:27:57.482457,-277
2021-12-27 14:27:57.482462,-266
2021-12-27 14:27:57.482467,-261
2021-12-27 14:27:57.482472,-291
2021-12-27 14:27:57.482477,-307
2021-12-27 14:27:57.482482,-259
2021-12-27 14:27:57.482487,-203
2021-12-27 14:27:57.482491,-185
2021-12-27 14:27:57.482496,-173
2021-12-27 14:27:57.482501,-182
2021-12-27 14:27:57.482506,-208
2021-12-27 14:27:57.482511,-189
2021-12-27 14:27:57.482516,-150
2021-12-27 14:27:57.482521,-134
2021-12-27 14:27:57.482526,-111
2021-12-27 14:27:57.482531,-78
2021-12-27 14:27:57.482536,-71
2021-12-27 14:27:57.482541,-78
2021-12-27 14:27:57.482546,-67
2021-12-27 14:27:57.482551,-46
2021-12-27 14:27:57.482556,-37
2021-12-27 14:27:57.482561,-34
2021-12-27 14:27:57.482566,-53
2021-12-27 14:27:57.482571,-60
2021-12-27 14:27:57.482576,-34
2021-12-27 14:27:57.726860,-6
2021-12-27 14:27:57.726890,13
2021-12-27 14:27:57.726902,-6
2021-12-27 14:27:57.726911,-97
2021-12-27 14:27:57.726921,-131
2021-12-27 14:27:57.726930,-83
2021-12-27 14:27:57.726939,-145
2021-12-27 14:27:57.726949,-243
2021-12-27 14:27:57.726958,-210
2021-12-27 14:27:57.726967,-201
2021-12-27 14:27:57.726976,-256
2021-12-27 14:27:57.726986,-224
2021-12-27 14:27:57.726995,-152
2021-12-27 14:27:57.727004,-145
2021-12-27 14:27:57.727013,-157
2021-12-27 14:27:57.727023,-201
2021-12-27 14:27:57.727032,-226
2021-12-27 14:27:57.727041,106
2021-12-27 14:27:57.727051,926
2021-12-27 14:27:57.727060,1826
2021-12-27 14:27:57.727070,2083
2021-12-27 14:27:57.727079,817
2021-12-27 14:27:57.727088,-990
2021-12-27 14:27:57.727097,-1067
2021-12-27 14:27:57.727107,-219
2021-12-27 14:27:57.727116,-208
2021-12-27 14:27:57.727126,-321
2021-12-27 14:27:57.727135,-83
2021-12-27 14:27:57.727144,-53
2021-12-27 14:27:57.727154,-138
2021-12-27 14:27:57.970888,-55
2021-12-27 14:27:57.970909,13
2021-12-27 14:27:57.970916,-4
2021-12-27 14:27:57.970923,6
2021-12-27 14:27:57.970929,32
2021-12-27 14:27:57.970935,9
2021-12-27 14:27:57.970941,4
2021-12-27 14:27:57.970947,55
2021-12-27 14:27:57.970953,87
2021-12-27 14:27:57.970960,71
2021-12-27 14:27:57.970966,69
2021-12-27 14:27:57.970972,81
2021-12-27 14:27:57.970978,76
2021-12-27 14:27:57.970984,104
2021-12-27 14:27:57.970991,155
2021-12-27 14:27:57.970997,145
2021-12-27 14:27:57.971003,125
2021-12-27 14:27:57.971009,136
2021-12-27 14:27:57.971015,113
2021-12-27 14:27:57.971021,81
2021-12-27 14:27:57.971028,87
2021-12-27 14:27:57.971034,87
2021-12-27 14:27:57.971040,64
2021-12-27 14:27:57.971046,27
2021-12-27 14:27:57.971052,-43
2021-12-27 14:27:57.971058,-148
2021-12-27 14:27:57.971065,-226
2021-12-27 14:27:57.971071,-254
2021-12-27 14:27:57.971077,-261
2021-12-27 14:27:57.971083,-268
2021-12-27 14:27:58.214400,-275
2021-12-27 14:27:58.214420,-266
2021-12-27 14:27:58.214428,-245
2021-12-27 14:27:58.214434,-238
2021-12-27 14:27:58.214440,-226
2021-12-27 14:27:58.214446,-189
2021-12-27 14:27:58.214452,-173
2021-12-27 14:27:58.214458,-194
2021-12-27 14:27:58.214464,-194
2021-12-27 14:27:58.214470,-173
2021-12-27 14:27:58.214477,-173
2021-12-27 14:27:58.214483,-206
2021-12-27 14:27:58.214489,-236
2021-12-27 14:27:58.214495,-245
2021-12-27 14:27:58.214501,-250
2021-12-27 14:27:58.214507,-238
2021-12-27 14:27:58.214514,-208
2021-12-27 14:27:58.214520,-187
2021-12-27 14:27:58.214526,-180
2021-12-27 14:27:58.214532,-173
2021-12-27 14:27:58.214538,-159
2021-12-27 14:27:58.214544,-155
2021-12-27 14:27:58.214550,-141
2021-12-27 14:27:58.214556,-111
2021-12-27 14:27:58.214563,-92
2021-12-27 14:27:58.214569,-92
2021-12-27 14:27:58.214575,-97
2021-12-27 14:27:58.214581,-108
2021-12-27 14:27:58.214587,-115
2021-12-27 14:27:58.214593,-92
2021-12-27 14:27:58.409617,-50
2021-12-27 14:27:58.409646,-34
2021-12-27 14:27:58.409658,-48
2021-12-27 14:27:58.409668,-71
2021-12-27 14:27:58.409677,-78
2021-12-27 14:27:58.409687,-62
2021-12-27 14:27:58.409696,-43
2021-12-27 14:27:58.409706,-27
2021-12-27 14:27:58.409715,-46
2021-12-27 14:27:58.409724,-90
2021-12-27 14:27:58.409734,-104
2021-12-27 14:27:58.409744,-120
2021-12-27 14:27:58.409753,-97
2021-12-27 14:27:58.409763,268
2021-12-27 14:27:58.409772,1058
2021-12-27 14:27:58.409781,1863
2021-12-27 14:27:58.409791,1977
2021-12-27 14:27:58.409800,627
2021-12-27 14:27:58.409810,-1027
2021-12-27 14:27:58.409819,-909
2021-12-27 14:27:58.409829,-122
2021-12-27 14:27:58.409839,-213
2021-12-27 14:27:58.409848,-291
2021-12-27 14:27:58.409857,-25
2021-12-27 14:27:58.409867,-13
2021-12-27 14:27:58.409876,-87
2021-12-27 14:27:58.409886,4
2021-12-27 14:27:58.409895,34
2021-12-27 14:27:58.409905,-16
2021-12-27 14:27:58.409914,-6
2021-12-27 14:27:58.653215,34
2021-12-27 14:27:58.653245,94
2021-12-27 14:27:58.653256,145
2021-12-27 14:27:58.653266,71
2021-12-27 14:27:58.653276,-32
2021-12-27 14:27:58.653286,-4
2021-12-27 14:27:58.653296,64
2021-12-27 14:27:58.653306,99
2021-12-27 14:27:58.653315,148
2021-12-27 14:27:58.653325,127
2021-12-27 14:27:58.653334,43
2021-12-27 14:27:58.653344,46
2021-12-27 14:27:58.653353,92
2021-12-27 14:27:58.653363,85
2021-12-27 14:27:58.653373,62
2021-12-27 14:27:58.653382,60
2021-12-27 14:27:58.653392,55
2021-12-27 14:27:58.653402,18
2021-12-27 14:27:58.653411,-43
2021-12-27 14:27:58.653421,-81
2021-12-27 14:27:58.653430,-113
2021-12-27 14:27:58.653440,-175
2021-12-27 14:27:58.653449,-231
2021-12-27 14:27:58.653459,-259
2021-12-27 14:27:58.653469,-277
2021-12-27 14:27:58.653479,-282
2021-12-27 14:27:58.653488,-268
2021-12-27 14:27:58.653498,-254
2021-12-27 14:27:58.653508,-247
2021-12-27 14:27:58.653517,-247
2021-12-27 14:27:58.896918,-238
2021-12-27 14:27:58.896939,-219
2021-12-27 14:27:58.896946,-215
2021-12-27 14:27:58.896952,-210
2021-12-27 14:27:58.896958,-194
2021-12-27 14:27:58.896964,-199
2021-12-27 14:27:58.896971,-217
2021-12-27 14:27:58.896977,-196
2021-12-27 14:27:58.896983,-162
2021-12-27 14:27:58.896989,-159
2021-12-27 14:27:58.896995,-145
2021-12-27 14:27:58.897002,-145
2021-12-27 14:27:58.897008,-180
2021-12-27 14:27:58.897014,-175
2021-12-27 14:27:58.897020,-136
2021-12-27 14:27:58.897026,-134
2021-12-27 14:27:58.897032,-131
2021-12-27 14:27:58.897039,-101
2021-12-27 14:27:58.897045,-94
2021-12-27 14:27:58.897051,-108
2021-12-27 14:27:58.897057,-83
2021-12-27 14:27:58.897063,-55
2021-12-27 14:27:58.897069,-71
2021-12-27 14:27:58.897076,-64
2021-12-27 14:27:58.897082,-20
2021-12-27 14:27:58.897088,2
2021-12-27 14:27:58.897094,30
2021-12-27 14:27:58.897101,81
2021-12-27 14:27:58.897107,101
2021-12-27 14:27:58.897113,106
2021-12-27 14:27:59.140787,118
2021-12-27 14:27:59.140808,104
2021-12-27 14:27:59.140815,76
2021-12-27 14:27:59.140821,32
2021-12-27 14:27:59.140827,-4
2021-12-27 14:27:59.140834,16
2021-12-27 14:27:59.140840,37
2021-12-27 14:27:59.140846,4
2021-12-27 14:27:59.140852,-30
2021-12-27 14:27:59.140858,-34
2021-12-27 14:27:59.140864,-83
2021-12-27 14:27:59.140870,-50
2021-12-27 14:27:59.140876,361
2021-12-27 14:27:59.140882,1092
2021-12-27 14:27:59.140888,1785
2021-12-27 14:27:59.140894,1766
2021-12-27 14:27:59.140900,314
2021-12-27 14:27:59.140906,-1146
2021-12-27 14:27:59.140912,-808
2021-12-27 14:27:59.140918,-104
2021-12-27 14:27:59.140924,-254
2021-12-27 14:27:59.140931,-291
2021-12-27 14:27:59.140937,-104
2021-12-27 14:27:59.140946,-155
2021-12-27 14:27:59.140952,-178
2021-12-27 14:27:59.140958,-74
2021-12-27 14:27:59.140964,-74
2021-12-27 14:27:59.140970,-120
2021-12-27 14:27:59.140976,-97
2021-12-27 14:27:59.140982,-50
2021-12-27 14:27:59.431510,-25
2021-12-27 14:27:59.431524,-2
2021-12-27 14:27:59.431528,0
2021-12-27 14:27:59.431533,-30
2021-12-27 14:27:59.431536,-39
2021-12-27 14:27:59.431540,-25
2021-12-27 14:27:59.431544,-34
2021-12-27 14:27:59.431548,-30
2021-12-27 14:27:59.431552,-13
2021-12-27 14:27:59.431556,-34
2021-12-27 14:27:59.431560,-34
2021-12-27 14:27:59.431564,13
2021-12-27 14:27:59.431568,41
2021-12-27 14:27:59.431572,46
2021-12-27 14:27:59.431576,43
2021-12-27 14:27:59.431580,11
2021-12-27 14:27:59.431584,-13
2021-12-27 14:27:59.431588,2
2021-12-27 14:27:59.431592,4
2021-12-27 14:27:59.431596,-30
2021-12-27 14:27:59.431600,-85
2021-12-27 14:27:59.431604,-159
2021-12-27 14:27:59.431608,-215
2021-12-27 14:27:59.431612,-215
2021-12-27 14:27:59.431615,-203
2021-12-27 14:27:59.431619,-189
2021-12-27 14:27:59.431623,-166
2021-12-27 14:27:59.431627,-178
2021-12-27 14:27:59.431631,-201
2021-12-27 14:27:59.431635,-166
2021-12-27 14:27:59.579059,-111
2021-12-27 14:27:59.579079,-97
2021-12-27 14:27:59.579087,-87
2021-12-27 14:27:59.579093,-78
2021-12-27 14:27:59.579099,-106
2021-12-27 14:27:59.579105,-125
2021-12-27 14:27:59.579111,-99
2021-12-27 14:27:59.579118,-101
2021-12-27 14:27:59.579124,-127
2021-12-27 14:27:59.579130,-115
2021-12-27 14:27:59.579137,-122
2021-12-27 14:27:59.579143,-155
2021-12-27 14:27:59.579149,-136
2021-12-27 14:27:59.579155,-101
2021-12-27 14:27:59.579161,-115
2021-12-27 14:27:59.579168,-122
2021-12-27 14:27:59.579174,-99
2021-12-27 14:27:59.579180,-106
2021-12-27 14:27:59.579186,-115
2021-12-27 14:27:59.579192,-85
2021-12-27 14:27:59.579199,-62
2021-12-27 14:27:59.579205,-69
2021-12-27 14:27:59.579211,-67
2021-12-27 14:27:59.579217,-60
2021-12-27 14:27:59.579223,-67
2021-12-27 14:27:59.579230,-50
2021-12-27 14:27:59.579236,-25
2021-12-27 14:27:59.579244,-55
2021-12-27 14:27:59.579251,-94
2021-12-27 14:27:59.579257,-76
2021-12-27 14:27:59.823287,-53
2021-12-27 14:27:59.823318,-48
2021-12-27 14:27:59.823329,-30
2021-12-27 14:27:59.823339,-25
2021-12-27 14:27:59.823348,-39
2021-12-27 14:27:59.823358,-37
2021-12-27 14:27:59.823368,-37
2021-12-27 14:27:59.823377,-48
2021-12-27 14:27:59.823386,-50
2021-12-27 14:27:59.823396,-76
2021-12-27 14:27:59.823405,-122
2021-12-27 14:27:59.823415,-150
2021-12-27 14:27:59.823424,-55
2021-12-27 14:27:59.823434,421
2021-12-27 14:27:59.823443,1238
2021-12-27 14:27:59.823453,1836
2021-12-27 14:27:59.823462,1370
2021-12-27 14:27:59.823472,-243
2021-12-27 14:27:59.823481,-1153
2021-12-27 14:27:59.823523,-537
2021-12-27 14:27:59.823533,-131
2021-12-27 14:27:59.823542,-338
2021-12-27 14:27:59.823552,-236
2021-12-27 14:27:59.823561,-48
2021-12-27 14:27:59.823570,-92
2021-12-27 14:27:59.823580,-106
2021-12-27 14:27:59.823589,-46
2021-12-27 14:27:59.823599,-48
2021-12-27 14:27:59.823608,-55
2021-12-27 14:27:59.823618,-37
2021-12-27 14:28:00.067058,-32
2021-12-27 14:28:00.067079,-11
2021-12-27 14:28:00.067087,20
2021-12-27 14:28:00.067093,11
2021-12-27 14:28:00.067099,13
2021-12-27 14:28:00.067106,57
2021-12-27 14:28:00.067112,97
2021-12-27 14:28:00.067118,97
2021-12-27 14:28:00.067124,78
2021-12-27 14:28:00.067130,94
2021-12-27 14:28:00.067136,120
2021-12-27 14:28:00.067143,118
2021-12-27 14:28:00.067149,120
2021-12-27 14:28:00.067155,136
2021-12-27 14:28:00.067161,141
2021-12-27 14:28:00.067167,145
2021-12-27 14:28:00.067173,159
2021-12-27 14:28:00.067179,159
2021-12-27 14:28:00.067186,162
2021-12-27 14:28:00.067192,159
2021-12-27 14:28:00.067198,94
2021-12-27 14:28:00.067204,2
2021-12-27 14:28:00.067210,-53
2021-12-27 14:28:00.067217,-81
2021-12-27 14:28:00.067223,-115
2021-12-27 14:28:00.067229,-155
2021-12-27 14:28:00.067236,-182
2021-12-27 14:28:00.067242,-180
2021-12-27 14:28:00.067248,-131
2021-12-27 14:28:00.067254,-64
2021-12-27 14:28:00.261851,-41
2021-12-27 14:28:00.261875,-39
2021-12-27 14:28:00.261882,-55
2021-12-27 14:28:00.261888,-125
2021-12-27 14:28:00.261895,-150
2021-12-27 14:28:00.261901,-99
2021-12-27 14:28:00.261907,-69
2021-12-27 14:28:00.261913,-69
2021-12-27 14:28:00.261919,-60
2021-12-27 14:28:00.261925,-76
2021-12-27 14:28:00.261932,-94
2021-12-27 14:28:00.261938,-71
2021-12-27 14:28:00.261944,-46
2021-12-27 14:28:00.261950,-53
2021-12-27 14:28:00.261956,-81
2021-12-27 14:28:00.261962,-113
2021-12-27 14:28:00.261968,-143
2021-12-27 14:28:00.261974,-125
2021-12-27 14:28:00.261981,-74
2021-12-27 14:28:00.261987,-62
2021-12-27 14:28:00.261993,-74
2021-12-27 14:28:00.261999,-67
2021-12-27 14:28:00.262005,-57
2021-12-27 14:28:00.262012,-39
2021-12-27 14:28:00.262018,0
2021-12-27 14:28:00.262024,39
2021-12-27 14:28:00.262030,60
2021-12-27 14:28:00.262036,62
2021-12-27 14:28:00.262043,50
2021-12-27 14:28:00.262049,50
2021-12-27 14:28:00.554419,74
2021-12-27 14:28:00.554439,90
2021-12-27 14:28:00.554447,83
2021-12-27 14:28:00.554453,62
2021-12-27 14:28:00.554460,32
2021-12-27 14:28:00.554466,-9
2021-12-27 14:28:00.554472,-30
2021-12-27 14:28:00.554478,4
2021-12-27 14:28:00.554484,9
2021-12-27 14:28:00.554491,-57
2021-12-27 14:28:00.554497,-118
2021-12-27 14:28:00.554503,-150
2021-12-27 14:28:00.554509,25
2021-12-27 14:28:00.554515,655
2021-12-27 14:28:00.554522,1491
2021-12-27 14:28:00.554528,1889
2021-12-27 14:28:00.554534,997
2021-12-27 14:28:00.554540,-752
2021-12-27 14:28:00.554546,-1224
2021-12-27 14:28:00.554553,-435
2021-12-27 14:28:00.554559,-250
2021-12-27 14:28:00.554565,-446
2021-12-27 14:28:00.554571,-266
2021-12-27 14:28:00.554577,-175
2021-12-27 14:28:00.554583,-275
2021-12-27 14:28:00.554590,-226
2021-12-27 14:28:00.554596,-143
2021-12-27 14:28:00.554602,-164
2021-12-27 14:28:00.554608,-143
2021-12-27 14:28:00.554615,-83
2021-12-27 14:28:00.749114,-83
2021-12-27 14:28:00.749133,-76
2021-12-27 14:28:00.749138,-32
2021-12-27 14:28:00.749143,-9
2021-12-27 14:28:00.749148,0
2021-12-27 14:28:00.749152,23
2021-12-27 14:28:00.749157,20
2021-12-27 14:28:00.749163,0
2021-12-27 14:28:00.749204,-13
2021-12-27 14:28:00.749233,-27
2021-12-27 14:28:00.749241,-9
2021-12-27 14:28:00.749248,37
2021-12-27 14:28:00.749255,46
2021-12-27 14:28:00.749261,27
2021-12-27 14:28:00.749265,30
2021-12-27 14:28:00.749269,41
2021-12-27 14:28:00.749275,53
2021-12-27 14:28:00.749280,55
2021-12-27 14:28:00.749284,20
2021-12-27 14:28:00.749288,-48
2021-12-27 14:28:00.749292,-118
2021-12-27 14:28:00.749297,-166
2021-12-27 14:28:00.749301,-203
2021-12-27 14:28:00.749305,-219
2021-12-27 14:28:00.749309,-217
2021-12-27 14:28:00.749313,-215
2021-12-27 14:28:00.749318,-226
2021-12-27 14:28:00.749322,-226
2021-12-27 14:28:00.749326,-171
2021-12-27 14:28:00.749330,-83
2021-12-27 14:28:00.944501,-50
2021-12-27 14:28:00.944523,-87
2021-12-27 14:28:00.944530,-111
2021-12-27 14:28:00.944537,-85
2021-12-27 14:28:00.944543,-60
2021-12-27 14:28:00.944549,-57
2021-12-27 14:28:00.944556,-41
2021-12-27 14:28:00.944562,-18
2021-12-27 14:28:00.944568,-53
2021-12-27 14:28:00.944574,-101
2021-12-27 14:28:00.944581,-81
2021-12-27 14:28:00.944587,-48
2021-12-27 14:28:00.944593,-46
2021-12-27 14:28:00.944599,-32
2021-12-27 14:28:00.944605,-46
2021-12-27 14:28:00.944612,-94
2021-12-27 14:28:00.944618,-87
2021-12-27 14:28:00.944624,-46
2021-12-27 14:28:00.944630,-34
2021-12-27 14:28:00.944637,-39
2021-12-27 14:28:00.944643,-64
2021-12-27 14:28:00.944649,-97
2021-12-27 14:28:00.944655,-78
2021-12-27 14:28:00.944662,-39
2021-12-27 14:28:00.944668,-30
2021-12-27 14:28:00.944674,-16
2021-12-27 14:28:00.944680,9
2021-12-27 14:28:00.944687,2
2021-12-27 14:28:00.944693,2
2021-12-27 14:28:00.944699,34
2021-12-27 14:28:01.188247,46
2021-12-27 14:28:01.188277,48
2021-12-27 14:28:01.188289,60
2021-12-27 14:28:01.188299,16
2021-12-27 14:28:01.188308,-55
2021-12-27 14:28:01.188318,-43
2021-12-27 14:28:01.188327,0
2021-12-27 14:28:01.188337,4
2021-12-27 14:28:01.188347,-6
2021-12-27 14:28:01.188356,-50
2021-12-27 14:28:01.188366,-120
2021-12-27 14:28:01.188375,-164
2021-12-27 14:28:01.188384,-48
2021-12-27 14:28:01.188394,428
2021-12-27 14:28:01.188404,1171
2021-12-27 14:28:01.188413,1757
2021-12-27 14:28:01.188423,1421
2021-12-27 14:28:01.188437,-196
2021-12-27 14:28:01.188447,-1317
2021-12-27 14:28:01.188457,-747
2021-12-27 14:28:01.188466,-231
2021-12-27 14:28:01.188476,-437
2021-12-27 14:28:01.188485,-386
2021-12-27 14:28:01.188495,-192
2021-12-27 14:28:01.188504,-222
2021-12-27 14:28:01.188514,-231
2021-12-27 14:28:01.188524,-155
2021-12-27 14:28:01.188533,-134
2021-12-27 14:28:01.188543,-141
2021-12-27 14:28:01.188552,-113
2021-12-27 14:28:01.576901,-81
2021-12-27 14:28:01.576931,-50
2021-12-27 14:28:01.576943,-25
2021-12-27 14:28:01.576952,-6
2021-12-27 14:28:01.576962,6
2021-12-27 14:28:01.576972,0
2021-12-27 14:28:01.576981,-2
2021-12-27 14:28:01.576991,39
2021-12-27 14:28:01.577001,76
2021-12-27 14:28:01.577010,90
2021-12-27 14:28:01.577019,115
2021-12-27 14:28:01.577029,122
2021-12-27 14:28:01.577038,99
2021-12-27 14:28:01.577048,106
2021-12-27 14:28:01.577058,131
2021-12-27 14:28:01.577067,127
2021-12-27 14:28:01.577076,125
2021-12-27 14:28:01.577086,138
2021-12-27 14:28:01.577096,131
2021-12-27 14:28:01.577105,111
2021-12-27 14:28:01.577115,78
2021-12-27 14:28:01.577124,18
2021-12-27 14:28:01.577134,-34
2021-12-27 14:28:01.577143,-71
2021-12-27 14:28:01.577153,-131
2021-12-27 14:28:01.577162,-169
2021-12-27 14:28:01.577172,-145
2021-12-27 14:28:01.577181,-127
2021-12-27 14:28:01.577191,-118
2021-12-27 14:28:01.577201,-85
2021-12-27 14:28:01.675715,-60
2021-12-27 14:28:01.675736,-62
2021-12-27 14:28:01.675743,-55
2021-12-27 14:28:01.675750,-37
2021-12-27 14:28:01.675756,-20
2021-12-27 14:28:01.675762,2
2021-12-27 14:28:01.675768,9
2021-12-27 14:28:01.675774,-25
2021-12-27 14:28:01.675781,-48
2021-12-27 14:28:01.675787,-34
2021-12-27 14:28:01.675793,-25
2021-12-27 14:28:01.675799,-16
2021-12-27 14:28:01.675805,0
2021-12-27 14:28:01.675811,-20
2021-12-27 14:28:01.675818,-60
2021-12-27 14:28:01.675824,-60
2021-12-27 14:28:01.675830,-39
2021-12-27 14:28:01.675836,-34
2021-12-27 14:28:01.675842,-16
2021-12-27 14:28:01.675849,-16
2021-12-27 14:28:01.675855,-57
2021-12-27 14:28:01.675861,-87
2021-12-27 14:28:01.675867,-69
2021-12-27 14:28:01.675873,-34
2021-12-27 14:28:01.675879,-13
2021-12-27 14:28:01.675885,-11
2021-12-27 14:28:01.675892,-30
2021-12-27 14:28:01.675898,-37
2021-12-27 14:28:01.675904,-13
2021-12-27 14:28:01.675910,4
2021-12-27 14:28:01.870732,9
2021-12-27 14:28:01.870762,20
2021-12-27 14:28:01.870773,6
2021-12-27 14:28:01.870783,-41
2021-12-27 14:28:01.870793,-64
2021-12-27 14:28:01.870802,-50
2021-12-27 14:28:01.870812,-34
2021-12-27 14:28:01.870821,-25
2021-12-27 14:28:01.870831,-50
2021-12-27 14:28:01.870840,-138
2021-12-27 14:28:01.870850,-182
2021-12-27 14:28:01.870859,71
2021-12-27 14:28:01.870869,676
2021-12-27 14:28:01.870878,1366
2021-12-27 14:28:01.870888,1706
2021-12-27 14:28:01.870897,882
2021-12-27 14:28:01.870907,-720
2021-12-27 14:28:01.870916,-1071
2021-12-27 14:28:01.870926,-326
2021-12-27 14:28:01.870935,-182
2021-12-27 14:28:01.870945,-317
2021-12-27 14:28:01.870954,-127
2021-12-27 14:28:01.870963,-57
2021-12-27 14:28:01.870973,-122
2021-12-27 14:28:01.870982,-62
2021-12-27 14:28:01.870992,0
2021-12-27 14:28:01.871002,-6
2021-12-27 14:28:01.871011,-9
2021-12-27 14:28:01.871021,-9
2021-12-27 14:28:01.871030,-6
2021-12-27 14:28:02.114327,30
2021-12-27 14:28:02.114350,69
2021-12-27 14:28:02.114358,83
2021-12-27 14:28:02.114365,78
2021-12-27 14:28:02.114371,57
2021-12-27 14:28:02.114377,55
2021-12-27 14:28:02.114383,99
2021-12-27 14:28:02.114390,138
2021-12-27 14:28:02.114396,150
2021-12-27 14:28:02.114402,155
2021-12-27 14:28:02.114408,141
2021-12-27 14:28:02.114414,115
2021-12-27 14:28:02.114420,129
2021-12-27 14:28:02.114427,155
2021-12-27 14:28:02.114433,148
2021-12-27 14:28:02.114439,134
2021-12-27 14:28:02.114445,131
2021-12-27 14:28:02.114451,125
2021-12-27 14:28:02.114458,99
2021-12-27 14:28:02.114464,69
2021-12-27 14:28:02.114470,32
2021-12-27 14:28:02.114476,-11
2021-12-27 14:28:02.114483,-46
2021-12-27 14:28:02.114489,-71
2021-12-27 14:28:02.114495,-83
2021-12-27 14:28:02.114501,-106
2021-12-27 14:28:02.114507,-155
2021-12-27 14:28:02.114513,-157
2021-12-27 14:28:02.114520,-111
2021-12-27 14:28:02.114526,-90
2021-12-27 14:28:02.358203,-101
2021-12-27 14:28:02.358226,-90
2021-12-27 14:28:02.358233,-60
2021-12-27 14:28:02.358240,-46
2021-12-27 14:28:02.358246,-37
2021-12-27 14:28:02.358252,-43
2021-12-27 14:28:02.358258,-76
2021-12-27 14:28:02.358264,-76
2021-12-27 14:28:02.358270,-48
2021-12-27 14:28:02.358277,-46
2021-12-27 14:28:02.358283,-43
2021-12-27 14:28:02.358289,-34
2021-12-27 14:28:02.358295,-55
2021-12-27 14:28:02.358302,-71
2021-12-27 14:28:02.358308,-48
2021-12-27 14:28:02.358314,-39
2021-12-27 14:28:02.358320,-39
2021-12-27 14:28:02.358326,-13
2021-12-27 14:28:02.358332,-4
2021-12-27 14:28:02.358338,-11
2021-12-27 14:28:02.358345,2
2021-12-27 14:28:02.358351,16
2021-12-27 14:28:02.358357,30
2021-12-27 14:28:02.358363,62
2021-12-27 14:28:02.358369,85
2021-12-27 14:28:02.358376,76
2021-12-27 14:28:02.358382,60
2021-12-27 14:28:02.358388,48
2021-12-27 14:28:02.358394,74
2021-12-27 14:28:02.358400,106
2021-12-27 14:28:02.602139,99
2021-12-27 14:28:02.602162,83
2021-12-27 14:28:02.602170,60
2021-12-27 14:28:02.602176,18
2021-12-27 14:28:02.602183,4
2021-12-27 14:28:02.602189,23
2021-12-27 14:28:02.602195,20
2021-12-27 14:28:02.602202,-53
2021-12-27 14:28:02.602208,-129
2021-12-27 14:28:02.602214,25
2021-12-27 14:28:02.602220,622
2021-12-27 14:28:02.602226,1463
2021-12-27 14:28:02.602232,1879
2021-12-27 14:28:02.602239,946
2021-12-27 14:28:02.602245,-805
2021-12-27 14:28:02.602251,-1227
2021-12-27 14:28:02.602258,-426
2021-12-27 14:28:02.602264,-215
2021-12-27 14:28:02.602270,-358
2021-12-27 14:28:02.602277,-169
2021-12-27 14:28:02.602283,-81
2021-12-27 14:28:02.602289,-162
2021-12-27 14:28:02.602296,-113
2021-12-27 14:28:02.602302,-71
2021-12-27 14:28:02.602308,-118
2021-12-27 14:28:02.602314,-57
2021-12-27 14:28:02.602320,32
2021-12-27 14:28:02.602326,4
2021-12-27 14:28:02.602333,4
2021-12-27 14:28:02.602339,78
2021-12-27 14:28:02.797016,111
2021-12-27 14:28:02.797039,94
2021-12-27 14:28:02.797046,64
2021-12-27 14:28:02.797053,48
2021-12-27 14:28:02.797059,60
2021-12-27 14:28:02.797065,92
2021-12-27 14:28:02.797071,141
2021-12-27 14:28:02.797077,185
2021-12-27 14:28:02.797084,196
2021-12-27 14:28:02.797090,173
2021-12-27 14:28:02.797096,148
2021-12-27 14:28:02.797102,145
2021-12-27 14:28:02.797108,162
2021-12-27 14:28:02.797115,213
2021-12-27 14:28:02.797121,229
2021-12-27 14:28:02.797127,157
2021-12-27 14:28:02.797134,62
2021-12-27 14:28:02.797140,9
2021-12-27 14:28:02.797146,-30
2021-12-27 14:28:02.797152,-78
2021-12-27 14:28:02.797158,-113
2021-12-27 14:28:02.797164,-141
2021-12-27 14:28:02.797171,-169
2021-12-27 14:28:02.797177,-155
2021-12-27 14:28:02.797183,-113
2021-12-27 14:28:02.797189,-87
2021-12-27 14:28:02.797195,-71
2021-12-27 14:28:02.797201,-57
2021-12-27 14:28:02.797207,-43
2021-12-27 14:28:02.797214,-18
2021-12-27 14:28:03.089185,13
2021-12-27 14:28:03.089217,37
2021-12-27 14:28:03.089228,34
2021-12-27 14:28:03.089299,25
2021-12-27 14:28:03.089340,4
2021-12-27 14:28:03.089354,-43
2021-12-27 14:28:03.089364,-83
2021-12-27 14:28:03.089374,-78
2021-12-27 14:28:03.089383,-60
2021-12-27 14:28:03.089393,-55
2021-12-27 14:28:03.089403,-64
2021-12-27 14:28:03.089412,-87
2021-12-27 14:28:03.089421,-97
2021-12-27 14:28:03.089431,-69
2021-12-27 14:28:03.089440,-50
2021-12-27 14:28:03.089450,-48
2021-12-27 14:28:03.089459,-37
2021-12-27 14:28:03.089469,-34
2021-12-27 14:28:03.089478,-32
2021-12-27 14:28:03.089488,-6
2021-12-27 14:28:03.089530,20
2021-12-27 14:28:03.089540,30
2021-12-27 14:28:03.089549,41
2021-12-27 14:28:03.089558,50
2021-12-27 14:28:03.089568,43
2021-12-27 14:28:03.089577,50
2021-12-27 14:28:03.089587,64
2021-12-27 14:28:03.089596,48
2021-12-27 14:28:03.089605,41
2021-12-27 14:28:03.089615,57
2021-12-27 14:28:03.333345,57
2021-12-27 14:28:03.333366,55
2021-12-27 14:28:03.333373,64
2021-12-27 14:28:03.333379,27
2021-12-27 14:28:03.333386,-60
2021-12-27 14:28:03.333392,11
2021-12-27 14:28:03.333398,507
2021-12-27 14:28:03.333404,1359
2021-12-27 14:28:03.333411,2079
2021-12-27 14:28:03.333417,1727
2021-12-27 14:28:03.333423,-87
2021-12-27 14:28:03.333429,-1363
2021-12-27 14:28:03.333435,-803
2021-12-27 14:28:03.333441,-307
2021-12-27 14:28:03.333447,-537
2021-12-27 14:28:03.333453,-428
2021-12-27 14:28:03.333460,-194
2021-12-27 14:28:03.333466,-229
2021-12-27 14:28:03.333472,-238
2021-12-27 14:28:03.333478,-166
2021-12-27 14:28:03.333484,-162
2021-12-27 14:28:03.333491,-157
2021-12-27 14:28:03.333497,-115
2021-12-27 14:28:03.333503,-81
2021-12-27 14:28:03.333509,-53
2021-12-27 14:28:03.333515,-34
2021-12-27 14:28:03.333521,-25
2021-12-27 14:28:03.333527,0
2021-12-27 14:28:03.333533,46
2021-12-27 14:28:03.333540,87
2021-12-27 14:28:03.526926,125
2021-12-27 14:28:03.526956,155
2021-12-27 14:28:03.526967,171
2021-12-27 14:28:03.526977,187
2021-12-27 14:28:03.526986,222
2021-12-27 14:28:03.526996,254
2021-12-27 14:28:03.527005,277
2021-12-27 14:28:03.527015,273
2021-12-27 14:28:03.527024,229
2021-12-27 14:28:03.527034,173
2021-12-27 14:28:03.527043,145
2021-12-27 14:28:03.527053,120
2021-12-27 14:28:03.527062,81
2021-12-27 14:28:03.527072,23
2021-12-27 14:28:03.527086,-64
2021-12-27 14:28:03.527096,-155
2021-12-27 14:28:03.527106,-196
2021-12-27 14:28:03.527115,-203
2021-12-27 14:28:03.527125,-210
2021-12-27 14:28:03.527134,-201
2021-12-27 14:28:03.527144,-203
2021-12-27 14:28:03.527153,-238
2021-12-27 14:28:03.527163,-229
2021-12-27 14:28:03.527172,-164
2021-12-27 14:28:03.527182,-122
2021-12-27 14:28:03.527192,-104
2021-12-27 14:28:03.527201,-83
2021-12-27 14:28:03.527211,-83
2021-12-27 14:28:03.527220,-76
2021-12-27 14:28:03.527230,-46
2021-12-27 14:28:03.723548,-25
2021-12-27 14:28:03.723580,-18
2021-12-27 14:28:03.723591,-20
2021-12-27 14:28:03.723601,-62
2021-12-27 14:28:03.723611,-99
2021-12-27 14:28:03.723620,-81
2021-12-27 14:28:03.723630,-55
2021-12-27 14:28:03.723639,-50
2021-12-27 14:28:03.723648,-48
2021-12-27 14:28:03.723658,-74
2021-12-27 14:28:03.723700,-111
2021-12-27 14:28:03.723709,-113
2021-12-27 14:28:03.723719,-122
2021-12-27 14:28:03.723728,-180
2021-12-27 14:28:03.723737,-217
2021-12-27 14:28:03.723746,-194
2021-12-27 14:28:03.723756,-169
2021-12-27 14:28:03.723765,-152
2021-12-27 14:28:03.723774,-113
2021-12-27 14:28:03.723783,-85
2021-12-27 14:28:03.723793,-81
2021-12-27 14:28:03.723802,-87
2021-12-27 14:28:03.723811,-101
2021-12-27 14:28:03.723820,-108
2021-12-27 14:28:03.723830,-83
2021-12-27 14:28:03.723839,-55
2021-12-27 14:28:03.723848,-43
2021-12-27 14:28:03.723858,-41
2021-12-27 14:28:03.723867,-53
2021-12-27 14:28:03.723876,-115
2021-12-27 14:28:03.967256,-192
2021-12-27 14:28:03.967279,-4
2021-12-27 14:28:03.967286,715
2021-12-27 14:28:03.967292,1669
2021-12-27 14:28:03.967299,2104
2021-12-27 14:28:03.967305,1076
2021-12-27 14:28:03.967311,-828
2021-12-27 14:28:03.967317,-1217
2021-12-27 14:28:03.967323,-312
2021-12-27 14:28:03.967329,-185
2021-12-27 14:28:03.967336,-421
2021-12-27 14:28:03.967342,-222
2021-12-27 14:28:03.967348,-164
2021-12-27 14:28:03.967354,-287
2021-12-27 14:28:03.967360,-252
2021-12-27 14:28:03.967366,-203
2021-12-27 14:28:03.967373,-215
2021-12-27 14:28:03.967379,-187
2021-12-27 14:28:03.967385,-148
2021-12-27 14:28:03.967391,-131
2021-12-27 14:28:03.967397,-104
2021-12-27 14:28:03.967403,-76
2021-12-27 14:28:03.967409,-48
2021-12-27 14:28:03.967416,-4
2021-12-27 14:28:03.967422,25
2021-12-27 14:28:03.967428,18
2021-12-27 14:28:03.967434,-13
2021-12-27 14:28:03.967440,-2
2021-12-27 14:28:03.967446,71
2021-12-27 14:28:03.967452,157
2021-12-27 14:28:04.210726,229
2021-12-27 14:28:04.210747,252
2021-12-27 14:28:04.210755,243
2021-12-27 14:28:04.210761,243
2021-12-27 14:28:04.210767,247
2021-12-27 14:28:04.210773,245
2021-12-27 14:28:04.210779,210
2021-12-27 14:28:04.210785,127
2021-12-27 14:28:04.210792,43
2021-12-27 14:28:04.210798,-13
2021-12-27 14:28:04.210804,-81
2021-12-27 14:28:04.210810,-141
2021-12-27 14:28:04.210816,-194
2021-12-27 14:28:04.210822,-268
2021-12-27 14:28:04.210828,-289
2021-12-27 14:28:04.210835,-233
2021-12-27 14:28:04.210841,-231
2021-12-27 14:28:04.210847,-259
2021-12-27 14:28:04.210853,-252
2021-12-27 14:28:04.210859,-273
2021-12-27 14:28:04.210865,-277
2021-12-27 14:28:04.210871,-222
2021-12-27 14:28:04.210878,-185
2021-12-27 14:28:04.210884,-166
2021-12-27 14:28:04.210890,-134
2021-12-27 14:28:04.210896,-115
2021-12-27 14:28:04.210902,-125
2021-12-27 14:28:04.210908,-125
2021-12-27 14:28:04.210914,-101
2021-12-27 14:28:04.210921,-76
2021-12-27 14:28:04.453877,-67
2021-12-27 14:28:04.453896,-62
2021-12-27 14:28:04.453904,-62
2021-12-27 14:28:04.453910,-71
2021-12-27 14:28:04.453916,-62
2021-12-27 14:28:04.453923,-39
2021-12-27 14:28:04.453929,-25
2021-12-27 14:28:04.453935,-18
2021-12-27 14:28:04.453941,-55
2021-12-27 14:28:04.453947,-131
2021-12-27 14:28:04.453953,-129
2021-12-27 14:28:04.453959,-37
2021-12-27 14:28:04.453966,4
2021-12-27 14:28:04.453972,-4
2021-12-27 14:28:04.453978,-13
2021-12-27 14:28:04.453984,-57
2021-12-27 14:28:04.453991,-94
2021-12-27 14:28:04.453997,-104
2021-12-27 14:28:04.454003,-131
2021-12-27 14:28:04.454009,-152
2021-12-27 14:28:04.454015,-136
2021-12-27 14:28:04.454021,-134
2021-12-27 14:28:04.454028,-134
2021-12-27 14:28:04.454034,-99
2021-12-27 14:28:04.454040,-90
2021-12-27 14:28:04.454046,-148
2021-12-27 14:28:04.454052,-134
2021-12-27 14:28:04.454059,240
2021-12-27 14:28:04.454065,1065
2021-12-27 14:28:04.454071,1967
2021-12-27 14:28:04.698212,2113
2021-12-27 14:28:04.698242,659
2021-12-27 14:28:04.698254,-1074
2021-12-27 14:28:04.698264,-970
2021-12-27 14:28:04.698274,-217
2021-12-27 14:28:04.698283,-310
2021-12-27 14:28:04.698293,-354
2021-12-27 14:28:04.698303,-92
2021-12-27 14:28:04.698312,-92
2021-12-27 14:28:04.698322,-173
2021-12-27 14:28:04.698331,-122
2021-12-27 14:28:04.698341,-101
2021-12-27 14:28:04.698350,-122
2021-12-27 14:28:04.698360,-111
2021-12-27 14:28:04.698369,-92
2021-12-27 14:28:04.698379,-87
2021-12-27 14:28:04.698389,-101
2021-12-27 14:28:04.698398,-108
2021-12-27 14:28:04.698408,-71
2021-12-27 14:28:04.698417,-32
2021-12-27 14:28:04.698427,-39
2021-12-27 14:28:04.698436,-46
2021-12-27 14:28:04.698446,-2
2021-12-27 14:28:04.698455,32
2021-12-27 14:28:04.698465,11
2021-12-27 14:28:04.698474,16
2021-12-27 14:28:04.698484,74
2021-12-27 14:28:04.698494,118
2021-12-27 14:28:04.698503,150
2021-12-27 14:28:04.698513,145
2021-12-27 14:28:04.893551,150
2021-12-27 14:28:04.893573,217
2021-12-27 14:28:04.893580,213
2021-12-27 14:28:04.893587,113
2021-12-27 14:28:04.893593,41
2021-12-27 14:28:04.893599,-34
2021-12-27 14:28:04.893605,-141
2021-12-27 14:28:04.893611,-194
2021-12-27 14:28:04.893618,-199
2021-12-27 14:28:04.893624,-222
2021-12-27 14:28:04.893630,-224
2021-12-27 14:28:04.893636,-194
2021-12-27 14:28:04.893642,-182
2021-12-27 14:28:04.893648,-171
2021-12-27 14:28:04.893655,-143
2021-12-27 14:28:04.893661,-125
2021-12-27 14:28:04.893667,-106
2021-12-27 14:28:04.893673,-87
2021-12-27 14:28:04.893679,-101
2021-12-27 14:28:04.893685,-120
2021-12-27 14:28:04.893691,-94
2021-12-27 14:28:04.893697,-81
2021-12-27 14:28:04.893703,-108
2021-12-27 14:28:04.893710,-125
2021-12-27 14:28:04.893716,-111
2021-12-27 14:28:04.893722,-108
2021-12-27 14:28:04.893728,-108
2021-12-27 14:28:04.893734,-99
2021-12-27 14:28:04.893740,-87
2021-12-27 14:28:04.893746,-69
2021-12-27 14:28:05.137307,-60
2021-12-27 14:28:05.137329,-67
2021-12-27 14:28:05.137336,-97
2021-12-27 14:28:05.137342,-131
2021-12-27 14:28:05.137349,-125
2021-12-27 14:28:05.137355,-108
2021-12-27 14:28:05.137361,-83
2021-12-27 14:28:05.137367,-69
2021-12-27 14:28:05.137374,-141
2021-12-27 14:28:05.137380,-169
2021-12-27 14:28:05.137386,-99
2021-12-27 14:28:05.137392,-69
2021-12-27 14:28:05.137398,-74
2021-12-27 14:28:05.137404,-81
2021-12-27 14:28:05.137411,-120
2021-12-27 14:28:05.137417,-150
2021-12-27 14:28:05.137424,-134
2021-12-27 14:28:05.137430,-108
2021-12-27 14:28:05.137436,-87
2021-12-27 14:28:05.137442,-71
2021-12-27 14:28:05.137448,-76
2021-12-27 14:28:05.137454,-90
2021-12-27 14:28:05.137460,-101
2021-12-27 14:28:05.137467,-150
2021-12-27 14:28:05.137473,-101
2021-12-27 14:28:05.137479,358
2021-12-27 14:28:05.137485,1227
2021-12-27 14:28:05.137491,2002
2021-12-27 14:28:05.137498,1801
2021-12-27 14:28:05.137504,97
2021-12-27 14:28:05.332230,-1305
2021-12-27 14:28:05.332260,-824
2021-12-27 14:28:05.332271,-213
2021-12-27 14:28:05.332281,-444
2021-12-27 14:28:05.332290,-398
2021-12-27 14:28:05.332300,-129
2021-12-27 14:28:05.332310,-150
2021-12-27 14:28:05.332319,-136
2021-12-27 14:28:05.332328,-20
2021-12-27 14:28:05.332338,-81
2021-12-27 14:28:05.332348,-150
2021-12-27 14:28:05.332357,-97
2021-12-27 14:28:05.332367,-74
2021-12-27 14:28:05.332376,-74
2021-12-27 14:28:05.332386,-50
2021-12-27 14:28:05.332395,-64
2021-12-27 14:28:05.332405,-81
2021-12-27 14:28:05.332414,-34
2021-12-27 14:28:05.332424,23
2021-12-27 14:28:05.332433,48
2021-12-27 14:28:05.332443,76
2021-12-27 14:28:05.332452,97
2021-12-27 14:28:05.332462,106
2021-12-27 14:28:05.332471,141
2021-12-27 14:28:05.332481,187
2021-12-27 14:28:05.332490,201
2021-12-27 14:28:05.332500,178
2021-12-27 14:28:05.332509,136
2021-12-27 14:28:05.332519,120
2021-12-27 14:28:05.332528,127
2021-12-27 14:28:05.623184,113
2021-12-27 14:28:05.623215,71
2021-12-27 14:28:05.623226,9
2021-12-27 14:28:05.623236,-76
2021-12-27 14:28:05.623246,-173
2021-12-27 14:28:05.623256,-238
2021-12-27 14:28:05.623266,-243
2021-12-27 14:28:05.623275,-229
2021-12-27 14:28:05.623285,-226
2021-12-27 14:28:05.623294,-222
2021-12-27 14:28:05.623303,-224
2021-12-27 14:28:05.623313,-236
2021-12-27 14:28:05.623322,-210
2021-12-27 14:28:05.623332,-166
2021-12-27 14:28:05.623341,-143
2021-12-27 14:28:05.623351,-127
2021-12-27 14:28:05.623360,-106
2021-12-27 14:28:05.623370,-99
2021-12-27 14:28:05.623379,-90
2021-12-27 14:28:05.623388,-62
2021-12-27 14:28:05.623398,-46
2021-12-27 14:28:05.623408,-53
2021-12-27 14:28:05.623417,-50
2021-12-27 14:28:05.623426,-39
2021-12-27 14:28:05.623436,-39
2021-12-27 14:28:05.623446,-34
2021-12-27 14:28:05.623455,-23
2021-12-27 14:28:05.623465,-30
2021-12-27 14:28:05.623474,-55
2021-12-27 14:28:05.623484,-81
2021-12-27 14:28:05.819865,-85
2021-12-27 14:28:05.819886,-64
2021-12-27 14:28:05.819894,-46
2021-12-27 14:28:05.819900,-48
2021-12-27 14:28:05.819907,-46
2021-12-27 14:28:05.819913,-71
2021-12-27 14:28:05.819919,-152
2021-12-27 14:28:05.819925,-180
2021-12-27 14:28:05.819931,-131
2021-12-27 14:28:05.819938,-115
2021-12-27 14:28:05.819944,-113
2021-12-27 14:28:05.819950,-85
2021-12-27 14:28:05.819957,-85
2021-12-27 14:28:05.819963,-108
2021-12-27 14:28:05.819969,-90
2021-12-27 14:28:05.819975,-57
2021-12-27 14:28:05.819981,-50
2021-12-27 14:28:05.819988,-41
2021-12-27 14:28:05.819994,-34
2021-12-27 14:28:05.820000,-46
2021-12-27 14:28:05.820006,-53
2021-12-27 14:28:05.820013,-37
2021-12-27 14:28:05.820019,-18
2021-12-27 14:28:05.820025,-4
2021-12-27 14:28:05.820031,9
2021-12-27 14:28:05.820038,0
2021-12-27 14:28:05.820044,-46
2021-12-27 14:28:05.820050,-69
2021-12-27 14:28:05.820057,136
2021-12-27 14:28:05.820063,736
2021-12-27 14:28:06.063062,1518
2021-12-27 14:28:06.063083,1944
2021-12-27 14:28:06.063135,1157
2021-12-27 14:28:06.063158,-553
2021-12-27 14:28:06.063167,-1104
2021-12-27 14:28:06.063174,-368
2021-12-27 14:28:06.063180,-171
2021-12-27 14:28:06.063186,-388
2021-12-27 14:28:06.063192,-259
2021-12-27 14:28:06.063199,-173
2021-12-27 14:28:06.063205,-243
2021-12-27 14:28:06.063211,-194
2021-12-27 14:28:06.063217,-120
2021-12-27 14:28:06.063224,-141
2021-12-27 14:28:06.063230,-166
2021-12-27 14:28:06.063236,-162
2021-12-27 14:28:06.063242,-131
2021-12-27 14:28:06.063248,-94
2021-12-27 14:28:06.063254,-57
2021-12-27 14:28:06.063264,-32
2021-12-27 14:28:06.063271,-25
2021-12-27 14:28:06.063277,-20
2021-12-27 14:28:06.063283,13
2021-12-27 14:28:06.063289,60
2021-12-27 14:28:06.063296,94
2021-12-27 14:28:06.063302,125
2021-12-27 14:28:06.063308,145
2021-12-27 14:28:06.063314,141
2021-12-27 14:28:06.063321,150
2021-12-27 14:28:06.063327,180
2021-12-27 14:28:06.355544,196
2021-12-27 14:28:06.355582,194
2021-12-27 14:28:06.355615,157
2021-12-27 14:28:06.355623,74
2021-12-27 14:28:06.355629,23
2021-12-27 14:28:06.355635,20
2021-12-27 14:28:06.355642,-6
2021-12-27 14:28:06.355648,-57
2021-12-27 14:28:06.355654,-101
2021-12-27 14:28:06.355660,-173
2021-12-27 14:28:06.355667,-250
2021-12-27 14:28:06.355673,-280
2021-12-27 14:28:06.355679,-298
2021-12-27 14:28:06.355685,-282
2021-12-27 14:28:06.355691,-243
2021-12-27 14:28:06.355697,-233
2021-12-27 14:28:06.355704,-236
2021-12-27 14:28:06.355710,-199
2021-12-27 14:28:06.355716,-150
2021-12-27 14:28:06.355722,-122
2021-12-27 14:28:06.355728,-99
2021-12-27 14:28:06.355734,-90
2021-12-27 14:28:06.355741,-94
2021-12-27 14:28:06.355747,-78
2021-12-27 14:28:06.355753,-48
2021-12-27 14:28:06.355759,-30
2021-12-27 14:28:06.355765,-23
2021-12-27 14:28:06.355771,-23
2021-12-27 14:28:06.355777,-25
2021-12-27 14:28:06.355784,-30
2021-12-27 14:28:06.550427,-16
2021-12-27 14:28:06.550448,9
2021-12-27 14:28:06.550454,20
2021-12-27 14:28:06.550459,9
2021-12-27 14:28:06.550464,-9
2021-12-27 14:28:06.550469,-20
2021-12-27 14:28:06.550474,-9
2021-12-27 14:28:06.550479,13
2021-12-27 14:28:06.550484,27
2021-12-27 14:28:06.550489,30
2021-12-27 14:28:06.550494,25
2021-12-27 14:28:06.550500,0
2021-12-27 14:28:06.550504,-13
2021-12-27 14:28:06.550509,11
2021-12-27 14:28:06.550515,30
2021-12-27 14:28:06.550520,23
2021-12-27 14:28:06.550525,32
2021-12-27 14:28:06.550530,39
2021-12-27 14:28:06.550534,23
2021-12-27 14:28:06.550539,27
2021-12-27 14:28:06.550544,50
2021-12-27 14:28:06.550549,57
2021-12-27 14:28:06.550581,74
2021-12-27 14:28:06.550610,92
2021-12-27 14:28:06.550618,83
2021-12-27 14:28:06.550624,83
2021-12-27 14:28:06.550629,90
2021-12-27 14:28:06.550634,62
2021-12-27 14:28:06.550639,39
2021-12-27 14:28:06.550644,43
2021-12-27 14:28:06.794552,32
2021-12-27 14:28:06.794573,23
2021-12-27 14:28:06.794581,30
2021-12-27 14:28:06.794587,9
2021-12-27 14:28:06.794594,-9
2021-12-27 14:28:06.794600,-27
2021-12-27 14:28:06.794606,-122
2021-12-27 14:28:06.794612,-175
2021-12-27 14:28:06.794619,99
2021-12-27 14:28:06.794625,801
2021-12-27 14:28:06.794631,1653
2021-12-27 14:28:06.794637,2037
2021-12-27 14:28:06.794643,974
2021-12-27 14:28:06.794650,-852
2021-12-27 14:28:06.794656,-1125
2021-12-27 14:28:06.794662,-307
2021-12-27 14:28:06.794668,-266
2021-12-27 14:28:06.794674,-463
2021-12-27 14:28:06.794680,-247
2021-12-27 14:28:06.794686,-178
2021-12-27 14:28:06.794693,-275
2021-12-27 14:28:06.794699,-206
2021-12-27 14:28:06.794705,-118
2021-12-27 14:28:06.794711,-118
2021-12-27 14:28:06.794717,-92
2021-12-27 14:28:06.794723,-53
2021-12-27 14:28:06.794730,-48
2021-12-27 14:28:06.794736,-32
2021-12-27 14:28:06.794742,11
2021-12-27 14:28:06.794748,50
2021-12-27 14:28:07.037823,83
2021-12-27 14:28:07.037852,113
2021-12-27 14:28:07.037864,131
2021-12-27 14:28:07.037873,145
2021-12-27 14:28:07.037883,180
2021-12-27 14:28:07.037892,219
2021-12-27 14:28:07.037901,259
2021-12-27 14:28:07.037911,298
2021-12-27 14:28:07.037920,303
2021-12-27 14:28:07.037929,273
2021-12-27 14:28:07.037939,268
2021-12-27 14:28:07.037948,294
2021-12-27 14:28:07.037958,300
2021-12-27 14:28:07.037967,294
2021-12-27 14:28:07.037977,243
2021-12-27 14:28:07.037986,134
2021-12-27 14:28:07.037995,53
2021-12-27 14:28:07.038005,18
2021-12-27 14:28:07.038014,-30
2021-12-27 14:28:07.038024,-71
2021-12-27 14:28:07.038033,-113
2021-12-27 14:28:07.038043,-178
2021-12-27 14:28:07.038052,-194
2021-12-27 14:28:07.038062,-148
2021-12-27 14:28:07.038071,-111
2021-12-27 14:28:07.038160,-92
2021-12-27 14:28:07.038183,-78
2021-12-27 14:28:07.038195,-85
2021-12-27 14:28:07.038204,-78
2021-12-27 14:28:07.038214,-34
2021-12-27 14:28:07.282108,4
2021-12-27 14:28:07.282153,18
2021-12-27 14:28:07.282162,25
2021-12-27 14:28:07.282168,-4
2021-12-27 14:28:07.282174,-48
2021-12-27 14:28:07.282181,-39
2021-12-27 14:28:07.282187,-11
2021-12-27 14:28:07.282193,-9
2021-12-27 14:28:07.282199,-2
2021-12-27 14:28:07.282205,4
2021-12-27 14:28:07.282211,-13
2021-12-27 14:28:07.282217,-37
2021-12-27 14:28:07.282224,-25
2021-12-27 14:28:07.282230,-4
2021-12-27 14:28:07.282236,0
2021-12-27 14:28:07.282242,-9
2021-12-27 14:28:07.282248,-37
2021-12-27 14:28:07.282255,-55
2021-12-27 14:28:07.282261,-30
2021-12-27 14:28:07.282267,2
2021-12-27 14:28:07.282273,6
2021-12-27 14:28:07.282279,-23
2021-12-27 14:28:07.282285,-104
2021-12-27 14:28:07.282291,-157
2021-12-27 14:28:07.282297,-127
2021-12-27 14:28:07.282304,-97
2021-12-27 14:28:07.282310,-101
2021-12-27 14:28:07.282316,-94
2021-12-27 14:28:07.282322,-99
2021-12-27 14:28:07.282328,-120
2021-12-27 14:28:07.476707,-118
2021-12-27 14:28:07.476736,-113
2021-12-27 14:28:07.476748,-129
2021-12-27 14:28:07.476757,-134
2021-12-27 14:28:07.476872,-127
2021-12-27 14:28:07.476930,-138
2021-12-27 14:28:07.476942,-143
2021-12-27 14:28:07.476951,-118
2021-12-27 14:28:07.476960,-99
2021-12-27 14:28:07.476970,-99
2021-12-27 14:28:07.476979,-87
2021-12-27 14:28:07.476988,-81
2021-12-27 14:28:07.476998,-148
2021-12-27 14:28:07.477007,-196
2021-12-27 14:28:07.477017,108
2021-12-27 14:28:07.477026,891
2021-12-27 14:28:07.477036,1817
2021-12-27 14:28:07.477045,2157
2021-12-27 14:28:07.477055,900
2021-12-27 14:28:07.477064,-997
2021-12-27 14:28:07.477074,-1120
2021-12-27 14:28:07.477083,-261
2021-12-27 14:28:07.477093,-261
2021-12-27 14:28:07.477102,-391
2021-12-27 14:28:07.477111,-169
2021-12-27 14:28:07.477121,-150
2021-12-27 14:28:07.477130,-203
2021-12-27 14:28:07.477140,-104
2021-12-27 14:28:07.477149,-39
2021-12-27 14:28:07.477158,-39
2021-12-27 14:28:07.719581,-13
2021-12-27 14:28:07.719612,11
2021-12-27 14:28:07.719623,25
2021-12-27 14:28:07.719633,48
2021-12-27 14:28:07.719642,71
2021-12-27 14:28:07.719652,99
2021-12-27 14:28:07.719661,99
2021-12-27 14:28:07.719671,69
2021-12-27 14:28:07.719680,83
2021-12-27 14:28:07.719690,150
2021-12-27 14:28:07.719699,189
2021-12-27 14:28:07.719708,182
2021-12-27 14:28:07.719718,185
2021-12-27 14:28:07.719727,192
2021-12-27 14:28:07.719737,162
2021-12-27 14:28:07.719746,150
2021-12-27 14:28:07.719756,208
2021-12-27 14:28:07.719765,259
2021-12-27 14:28:07.719775,240
2021-12-27 14:28:07.719784,201
2021-12-27 14:28:07.719794,150
2021-12-27 14:28:07.719803,69
2021-12-27 14:28:07.719813,0
2021-12-27 14:28:07.719822,-48
2021-12-27 14:28:07.719832,-94
2021-12-27 14:28:07.719841,-138
2021-12-27 14:28:07.719851,-178
2021-12-27 14:28:07.719860,-219
2021-12-27 14:28:07.719870,-270
2021-12-27 14:28:07.719879,-277
2021-12-27 14:28:07.915259,-229
2021-12-27 14:28:07.915289,-182
2021-12-27 14:28:07.915300,-171
2021-12-27 14:28:07.915310,-164
2021-12-27 14:28:07.915319,-131
2021-12-27 14:28:07.915329,-92
2021-12-27 14:28:07.915338,-67
2021-12-27 14:28:07.915348,-46
2021-12-27 14:28:07.915357,-53
2021-12-27 14:28:07.915366,-90
2021-12-27 14:28:07.915376,-94
2021-12-27 14:28:07.915386,-60
2021-12-27 14:28:07.915395,-43
2021-12-27 14:28:07.915404,-39
2021-12-27 14:28:07.915414,-43
2021-12-27 14:28:07.915423,-90
2021-12-27 14:28:07.915433,-134
2021-12-27 14:28:07.915442,-148
2021-12-27 14:28:07.915451,-157
2021-12-27 14:28:07.915461,-162
2021-12-27 14:28:07.915470,-155
2021-12-27 14:28:07.915479,-162
2021-12-27 14:28:07.915489,-169
2021-12-27 14:28:07.915498,-155
2021-12-27 14:28:07.915508,-157
2021-12-27 14:28:07.915517,-162
2021-12-27 14:28:07.915541,-159
2021-12-27 14:28:07.915552,-185
2021-12-27 14:28:07.915561,-213
2021-12-27 14:28:07.915571,-194
2021-12-27 14:28:08.159351,-169
2021-12-27 14:28:08.159381,-166
2021-12-27 14:28:08.159392,-162
2021-12-27 14:28:08.159445,-166
2021-12-27 14:28:08.159501,-192
2021-12-27 14:28:08.159515,-194
2021-12-27 14:28:08.159525,-152
2021-12-27 14:28:08.159535,-122
2021-12-27 14:28:08.159544,-127
2021-12-27 14:28:08.159553,-141
2021-12-27 14:28:08.159563,-145
2021-12-27 14:28:08.159572,-164
2021-12-27 14:28:08.159582,-162
2021-12-27 14:28:08.159591,-127
2021-12-27 14:28:08.159601,-108
2021-12-27 14:28:08.159610,-106
2021-12-27 14:28:08.159619,-104
2021-12-27 14:28:08.159629,-118
2021-12-27 14:28:08.159638,-194
2021-12-27 14:28:08.159648,-305
2021-12-27 14:28:08.159657,-143
2021-12-27 14:28:08.159667,592
2021-12-27 14:28:08.159677,1609
2021-12-27 14:28:08.159686,2153
2021-12-27 14:28:08.159696,1319
2021-12-27 14:28:08.159706,-532
2021-12-27 14:28:08.159715,-1187
2021-12-27 14:28:08.159725,-400
2021-12-27 14:28:08.159735,-131
2021-12-27 14:28:08.159744,-354
2021-12-27 14:28:08.354823,-187
2021-12-27 14:28:08.354853,-39
2021-12-27 14:28:08.354865,-113
2021-12-27 14:28:08.354875,-120
2021-12-27 14:28:08.354884,-101
2021-12-27 14:28:08.354894,-145
2021-12-27 14:28:08.354903,-157
2021-12-27 14:28:08.354913,-115
2021-12-27 14:28:08.354922,-78
2021-12-27 14:28:08.354931,-60
2021-12-27 14:28:08.354941,-32
2021-12-27 14:28:08.354950,2
2021-12-27 14:28:08.354960,2
2021-12-27 14:28:08.354969,2
2021-12-27 14:28:08.354979,50
2021-12-27 14:28:08.354988,94
2021-12-27 14:28:08.354998,127
2021-12-27 14:28:08.355007,178
2021-12-27 14:28:08.355016,210
2021-12-27 14:28:08.355026,219
2021-12-27 14:28:08.355035,233
2021-12-27 14:28:08.355045,226
2021-12-27 14:28:08.355054,215
2021-12-27 14:28:08.355064,243
2021-12-27 14:28:08.355073,252
2021-12-27 14:28:08.355083,222
2021-12-27 14:28:08.355092,182
2021-12-27 14:28:08.355102,122
2021-12-27 14:28:08.355111,46
2021-12-27 14:28:08.355121,-6
2021-12-27 14:28:08.647213,-53
2021-12-27 14:28:08.647235,-108
2021-12-27 14:28:08.647242,-145
2021-12-27 14:28:08.647249,-169
2021-12-27 14:28:08.647255,-194
2021-12-27 14:28:08.647261,-182
2021-12-27 14:28:08.647267,-131
2021-12-27 14:28:08.647273,-118
2021-12-27 14:28:08.647280,-152
2021-12-27 14:28:08.647286,-143
2021-12-27 14:28:08.647292,-94
2021-12-27 14:28:08.647298,-69
2021-12-27 14:28:08.647304,-50
2021-12-27 14:28:08.647310,-46
2021-12-27 14:28:08.647316,-81
2021-12-27 14:28:08.647323,-108
2021-12-27 14:28:08.647329,-104
2021-12-27 14:28:08.647335,-92
2021-12-27 14:28:08.647341,-78
2021-12-27 14:28:08.647347,-67
2021-12-27 14:28:08.647353,-83
2021-12-27 14:28:08.647359,-113
2021-12-27 14:28:08.647365,-148
2021-12-27 14:28:08.647371,-187
2021-12-27 14:28:08.647377,-210
2021-12-27 14:28:08.647383,-213
2021-12-27 14:28:08.647390,-224
2021-12-27 14:28:08.647396,-238
2021-12-27 14:28:08.647402,-222
2021-12-27 14:28:08.647408,-192
2021-12-27 14:28:08.793518,-173
2021-12-27 14:28:08.793548,-159
2021-12-27 14:28:08.793559,-155
2021-12-27 14:28:08.793568,-171
2021-12-27 14:28:08.793578,-164
2021-12-27 14:28:08.793587,-131
2021-12-27 14:28:08.793596,-108
2021-12-27 14:28:08.793606,-97
2021-12-27 14:28:08.793615,-106
2021-12-27 14:28:08.793624,-157
2021-12-27 14:28:08.793634,-182
2021-12-27 14:28:08.793643,-143
2021-12-27 14:28:08.793652,-104
2021-12-27 14:28:08.793662,-87
2021-12-27 14:28:08.793671,-71
2021-12-27 14:28:08.793680,-87
2021-12-27 14:28:08.793690,-120
2021-12-27 14:28:08.793699,-104
2021-12-27 14:28:08.793708,-69
2021-12-27 14:28:08.793718,-64
2021-12-27 14:28:08.793727,-67
2021-12-27 14:28:08.793736,-83
2021-12-27 14:28:08.793746,-120
2021-12-27 14:28:08.793755,-115
2021-12-27 14:28:08.793764,-90
2021-12-27 14:28:08.793774,-106
2021-12-27 14:28:08.793783,-136
2021-12-27 14:28:08.793792,-178
2021-12-27 14:28:08.793801,-208
2021-12-27 14:28:08.793811,64
2021-12-27 14:28:09.037266,835
2021-12-27 14:28:09.037288,1780
2021-12-27 14:28:09.037295,2174
2021-12-27 14:28:09.037302,1067
2021-12-27 14:28:09.037308,-826
2021-12-27 14:28:09.037319,-1136
2021-12-27 14:28:09.037325,-266
2021-12-27 14:28:09.037331,-164
2021-12-27 14:28:09.037337,-347
2021-12-27 14:28:09.037344,-125
2021-12-27 14:28:09.037350,-50
2021-12-27 14:28:09.037356,-164
2021-12-27 14:28:09.037362,-118
2021-12-27 14:28:09.037368,-30
2021-12-27 14:28:09.037375,-32
2021-12-27 14:28:09.037381,-25
2021-12-27 14:28:09.037387,-9
2021-12-27 14:28:09.037393,-27
2021-12-27 14:28:09.037399,11
2021-12-27 14:28:09.037406,97
2021-12-27 14:28:09.037412,115
2021-12-27 14:28:09.037418,115
2021-12-27 14:28:09.037424,157
2021-12-27 14:28:09.037430,185
2021-12-27 14:28:09.037437,192
2021-12-27 14:28:09.037443,222
2021-12-27 14:28:09.037449,252
2021-12-27 14:28:09.037455,245
2021-12-27 14:28:09.037461,247
2021-12-27 14:28:09.037468,282
2021-12-27 14:28:09.280973,289
2021-12-27 14:28:09.280995,282
2021-12-27 14:28:09.281002,289
2021-12-27 14:28:09.281008,282
2021-12-27 14:28:09.281014,266
2021-12-27 14:28:09.281020,238
2021-12-27 14:28:09.281027,150
2021-12-27 14:28:09.281033,37
2021-12-27 14:28:09.281039,-27
2021-12-27 14:28:09.281045,-76
2021-12-27 14:28:09.281051,-122
2021-12-27 14:28:09.281057,-136
2021-12-27 14:28:09.281063,-155
2021-12-27 14:28:09.281069,-194
2021-12-27 14:28:09.281075,-213
2021-12-27 14:28:09.281081,-259
2021-12-27 14:28:09.281088,-331
2021-12-27 14:28:09.281094,-324
2021-12-27 14:28:09.281100,-266
2021-12-27 14:28:09.281106,-252
2021-12-27 14:28:09.281112,-273
2021-12-27 14:28:09.281118,-273
2021-12-27 14:28:09.281124,-208
2021-12-27 14:28:09.281130,-115
2021-12-27 14:28:09.281136,-81
2021-12-27 14:28:09.281143,-125
2021-12-27 14:28:09.281149,-171
2021-12-27 14:28:09.281155,-178
2021-12-27 14:28:09.281161,-196
2021-12-27 14:28:09.281167,-243
2021-12-27 14:28:09.524504,-252
2021-12-27 14:28:09.524524,-233
2021-12-27 14:28:09.524531,-243
2021-12-27 14:28:09.524538,-256
2021-12-27 14:28:09.524544,-231
2021-12-27 14:28:09.524550,-201
2021-12-27 14:28:09.524557,-187
2021-12-27 14:28:09.524563,-187
2021-12-27 14:28:09.524569,-213
2021-12-27 14:28:09.524575,-233
2021-12-27 14:28:09.524581,-210
2021-12-27 14:28:09.524588,-178
2021-12-27 14:28:09.524594,-157
2021-12-27 14:28:09.524600,-150
2021-12-27 14:28:09.524606,-175
2021-12-27 14:28:09.524613,-203
2021-12-27 14:28:09.524619,-175
2021-12-27 14:28:09.524625,-136
2021-12-27 14:28:09.524631,-127
2021-12-27 14:28:09.524638,-115
2021-12-27 14:28:09.524644,-108
2021-12-27 14:28:09.524650,-122
2021-12-27 14:28:09.524656,-111
2021-12-27 14:28:09.524663,-76
2021-12-27 14:28:09.524669,-60
2021-12-27 14:28:09.524675,-41
2021-12-27 14:28:09.524681,-18
2021-12-27 14:28:09.524688,-23
2021-12-27 14:28:09.524694,-25
2021-12-27 14:28:09.524700,4
2021-12-27 14:28:09.767276,16
2021-12-27 14:28:09.767300,-16
2021-12-27 14:28:09.767307,-50
2021-12-27 14:28:09.767314,-90
2021-12-27 14:28:09.767320,-125
2021-12-27 14:28:09.767326,-108
2021-12-27 14:28:09.767332,-71
2021-12-27 14:28:09.767338,-60
2021-12-27 14:28:09.767344,-46
2021-12-27 14:28:09.767351,-46
2021-12-27 14:28:09.767357,-78
2021-12-27 14:28:09.767363,-87
2021-12-27 14:28:09.767369,118
2021-12-27 14:28:09.767376,689
2021-12-27 14:28:09.767382,1465
2021-12-27 14:28:09.767389,1937
2021-12-27 14:28:09.767395,1227
2021-12-27 14:28:09.767401,-465
2021-12-27 14:28:09.767407,-1048
2021-12-27 14:28:09.767414,-317
2021-12-27 14:28:09.767420,-104
2021-12-27 14:28:09.767426,-340
2021-12-27 14:28:09.767432,-219
2021-12-27 14:28:09.767438,-90
2021-12-27 14:28:09.767444,-131
2021-12-27 14:28:09.767451,-92
2021-12-27 14:28:09.767457,-18
2021-12-27 14:28:09.767463,-20
2021-12-27 14:28:09.767470,-18
2021-12-27 14:28:09.767476,13
2021-12-27 14:28:09.963316,37
2021-12-27 14:28:09.963337,64
2021-12-27 14:28:09.963345,81
2021-12-27 14:28:09.963351,55
2021-12-27 14:28:09.963358,34
2021-12-27 14:28:09.963364,37
2021-12-27 14:28:09.963370,53
2021-12-27 14:28:09.963376,94
2021-12-27 14:28:09.963382,136
2021-12-27 14:28:09.963388,155
2021-12-27 14:28:09.963395,173
2021-12-27 14:28:09.963401,173
2021-12-27 14:28:09.963407,152
2021-12-27 14:28:09.963413,169
2021-12-27 14:28:09.963419,201
2021-12-27 14:28:09.963425,201
2021-12-27 14:28:09.963431,194
2021-12-27 14:28:09.963438,196
2021-12-27 14:28:09.963444,185
2021-12-27 14:28:09.963450,159
2021-12-27 14:28:09.963456,125
2021-12-27 14:28:09.963462,64
2021-12-27 14:28:09.963468,16
2021-12-27 14:28:09.963475,-11
2021-12-27 14:28:09.963481,-48
2021-12-27 14:28:09.963487,-71
2021-12-27 14:28:09.963493,-60
2021-12-27 14:28:09.963499,-50
2021-12-27 14:28:09.963506,-46
2021-12-27 14:28:09.963512,-37
2021-12-27 14:28:10.207111,-55
2021-12-27 14:28:10.207140,-62
2021-12-27 14:28:10.207151,-32
2021-12-27 14:28:10.207161,-23
2021-12-27 14:28:10.207171,-39
2021-12-27 14:28:10.207181,-62
2021-12-27 14:28:10.207191,-108
2021-12-27 14:28:10.207200,-152
2021-12-27 14:28:10.207209,-175
2021-12-27 14:28:10.207219,-194
2021-12-27 14:28:10.207228,-182
2021-12-27 14:28:10.207238,-150
2021-12-27 14:28:10.207247,-150
2021-12-27 14:28:10.207257,-182
2021-12-27 14:28:10.207266,-201
2021-12-27 14:28:10.207275,-185
2021-12-27 14:28:10.207285,-162
2021-12-27 14:28:10.207294,-148
2021-12-27 14:28:10.207304,-136
2021-12-27 14:28:10.207313,-125
2021-12-27 14:28:10.207323,-122
2021-12-27 14:28:10.207332,-120
2021-12-27 14:28:10.207341,-99
2021-12-27 14:28:10.207351,-76
2021-12-27 14:28:10.207360,-60
2021-12-27 14:28:10.207370,-53
2021-12-27 14:28:10.207379,-69
2021-12-27 14:28:10.207389,-113
2021-12-27 14:28:10.207398,-145
2021-12-27 14:28:10.207408,-120
2021-12-27 14:28:10.402305,-78
2021-12-27 14:28:10.402334,-67
2021-12-27 14:28:10.402346,-76
2021-12-27 14:28:10.402355,-83
2021-12-27 14:28:10.402364,-67
2021-12-27 14:28:10.402374,-34
2021-12-27 14:28:10.402383,-13
2021-12-27 14:28:10.402392,-27
2021-12-27 14:28:10.402402,-76
2021-12-27 14:28:10.402411,-106
2021-12-27 14:28:10.402421,-83
2021-12-27 14:28:10.402430,-46
2021-12-27 14:28:10.402439,-41
2021-12-27 14:28:10.402449,-39
2021-12-27 14:28:10.402458,-46
2021-12-27 14:28:10.402467,-83
2021-12-27 14:28:10.402477,-83
2021-12-27 14:28:10.402486,-39
2021-12-27 14:28:10.402496,-9
2021-12-27 14:28:10.402505,2
2021-12-27 14:28:10.402515,-25
2021-12-27 14:28:10.402524,-90
2021-12-27 14:28:10.402533,11
2021-12-27 14:28:10.402543,534
2021-12-27 14:28:10.402552,1366
2021-12-27 14:28:10.402562,2049
2021-12-27 14:28:10.402572,1748
2021-12-27 14:28:10.402581,76
2021-12-27 14:28:10.402591,-1113
2021-12-27 14:28:10.402600,-553
2021-12-27 14:28:10.742937,-16
2021-12-27 14:28:10.742966,-201
2021-12-27 14:28:10.742977,-122
2021-12-27 14:28:10.742986,60
2021-12-27 14:28:10.743011,-30
2021-12-27 14:28:10.743022,-50
2021-12-27 14:28:10.743031,64
2021-12-27 14:28:10.743040,97
2021-12-27 14:28:10.743050,76
2021-12-27 14:28:10.743059,64
2021-12-27 14:28:10.743068,32
2021-12-27 14:28:10.743078,27
2021-12-27 14:28:10.743087,78
2021-12-27 14:28:10.743157,125
2021-12-27 14:28:10.743169,145
2021-12-27 14:28:10.743179,162
2021-12-27 14:28:10.743188,182
2021-12-27 14:28:10.743198,196
2021-12-27 14:28:10.743207,238
2021-12-27 14:28:10.743217,296
2021-12-27 14:28:10.743226,319
2021-12-27 14:28:10.743236,328
2021-12-27 14:28:10.743246,351
2021-12-27 14:28:10.743255,354
2021-12-27 14:28:10.743264,349
2021-12-27 14:28:10.743274,361
2021-12-27 14:28:10.743284,368
2021-12-27 14:28:10.743293,363
2021-12-27 14:28:10.743303,342
2021-12-27 14:28:10.743312,289
2021-12-27 14:28:10.938470,219
2021-12-27 14:28:10.938493,157
2021-12-27 14:28:10.938500,74
2021-12-27 14:28:10.938507,-53
2021-12-27 14:28:10.938513,-143
2021-12-27 14:28:10.938519,-171
2021-12-27 14:28:10.938525,-199
2021-12-27 14:28:10.938532,-203
2021-12-27 14:28:10.938538,-178
2021-12-27 14:28:10.938544,-171
2021-12-27 14:28:10.938550,-169
2021-12-27 14:28:10.938557,-182
2021-12-27 14:28:10.938563,-215
2021-12-27 14:28:10.938569,-189
2021-12-27 14:28:10.938575,-175
2021-12-27 14:28:10.938582,-217
2021-12-27 14:28:10.938588,-187
2021-12-27 14:28:10.938594,-136
2021-12-27 14:28:10.938600,-182
2021-12-27 14:28:10.938606,-224
2021-12-27 14:28:10.938613,-196
2021-12-27 14:28:10.938619,-182
2021-12-27 14:28:10.938625,-194
2021-12-27 14:28:10.938631,-182
2021-12-27 14:28:10.938638,-175
2021-12-27 14:28:10.938644,-178
2021-12-27 14:28:10.938650,-166
2021-12-27 14:28:10.938656,-157
2021-12-27 14:28:10.938662,-148
2021-12-27 14:28:10.938669,-129
2021-12-27 14:28:11.230939,-120
2021-12-27 14:28:11.230969,-131
2021-12-27 14:28:11.230980,-131
2021-12-27 14:28:11.230990,-120
2021-12-27 14:28:11.230999,-108
2021-12-27 14:28:11.231008,-87
2021-12-27 14:28:11.231018,-76
2021-12-27 14:28:11.231027,-104
2021-12-27 14:28:11.231037,-159
2021-12-27 14:28:11.231046,-210
2021-12-27 14:28:11.231055,-206
2021-12-27 14:28:11.231065,-115
2021-12-27 14:28:11.231074,-57
2021-12-27 14:28:11.231084,-131
2021-12-27 14:28:11.231093,-189
2021-12-27 14:28:11.231103,-141
2021-12-27 14:28:11.231112,-106
2021-12-27 14:28:11.231121,-85
2021-12-27 14:28:11.231131,-13
2021-12-27 14:28:11.231140,18
2021-12-27 14:28:11.231150,-43
2021-12-27 14:28:11.231159,-81
2021-12-27 14:28:11.231169,-41
2021-12-27 14:28:11.231178,-13
2021-12-27 14:28:11.231187,-6
2021-12-27 14:28:11.231197,-4
2021-12-27 14:28:11.231206,-60
2021-12-27 14:28:11.231216,-115
2021-12-27 14:28:11.231225,143
2021-12-27 14:28:11.231235,879
2021-12-27 14:28:11.474047,1787
2021-12-27 14:28:11.474077,2229
2021-12-27 14:28:11.474088,1245
2021-12-27 14:28:11.474098,-645
2021-12-27 14:28:11.474108,-1088
2021-12-27 14:28:11.474117,-222
2021-12-27 14:28:11.474127,-53
2021-12-27 14:28:11.474136,-250
2021-12-27 14:28:11.474145,-55
2021-12-27 14:28:11.474155,-11
2021-12-27 14:28:11.474164,-141
2021-12-27 14:28:11.474174,-67
2021-12-27 14:28:11.474183,32
2021-12-27 14:28:11.474192,20
2021-12-27 14:28:11.474202,37
2021-12-27 14:28:11.474211,50
2021-12-27 14:28:11.474221,30
2021-12-27 14:28:11.474230,60
2021-12-27 14:28:11.474239,113
2021-12-27 14:28:11.474264,134
2021-12-27 14:28:11.474274,152
2021-12-27 14:28:11.474283,152
2021-12-27 14:28:11.474293,134
2021-12-27 14:28:11.474302,155
2021-12-27 14:28:11.474312,215
2021-12-27 14:28:11.474321,261
2021-12-27 14:28:11.474331,296
2021-12-27 14:28:11.474419,305
2021-12-27 14:28:11.474444,280
2021-12-27 14:28:11.474455,266
2021-12-27 14:28:11.571604,294
2021-12-27 14:28:11.571624,310
2021-12-27 14:28:11.571631,296
2021-12-27 14:28:11.571638,266
2021-12-27 14:28:11.571644,194
2021-12-27 14:28:11.571651,92
2021-12-27 14:28:11.571657,27
2021-12-27 14:28:11.571663,-16
2021-12-27 14:28:11.571669,-81
2021-12-27 14:28:11.571675,-148
2021-12-27 14:28:11.571682,-194
2021-12-27 14:28:11.571688,-247
2021-12-27 14:28:11.571694,-275
2021-12-27 14:28:11.571700,-240
2021-12-27 14:28:11.571706,-210
2021-12-27 14:28:11.571713,-215
2021-12-27 14:28:11.571719,-206
2021-12-27 14:28:11.571725,-213
2021-12-27 14:28:11.571731,-256
2021-12-27 14:28:11.571737,-247
2021-12-27 14:28:11.571744,-210
2021-12-27 14:28:11.571750,-226
2021-12-27 14:28:11.571756,-233
2021-12-27 14:28:11.571762,-217
2021-12-27 14:28:11.571768,-222
2021-12-27 14:28:11.571775,-213
2021-12-27 14:28:11.571781,-203
2021-12-27 14:28:11.571787,-224
2021-12-27 14:28:11.571793,-236
2021-12-27 14:28:11.571800,-229
2021-12-27 14:28:11.960477,-226
2021-12-27 14:28:11.960498,-185
2021-12-27 14:28:11.960505,-129
2021-12-27 14:28:11.960512,-131
2021-12-27 14:28:11.960518,-145
2021-12-27 14:28:11.960524,-138
2021-12-27 14:28:11.960530,-159
2021-12-27 14:28:11.960536,-182
2021-12-27 14:28:11.960542,-152
2021-12-27 14:28:11.960548,-129
2021-12-27 14:28:11.960555,-134
2021-12-27 14:28:11.960561,-122
2021-12-27 14:28:11.960567,-118
2021-12-27 14:28:11.960573,-138
2021-12-27 14:28:11.960579,-159
2021-12-27 14:28:11.960585,-194
2021-12-27 14:28:11.960591,-213
2021-12-27 14:28:11.960597,-166
2021-12-27 14:28:11.960604,-125
2021-12-27 14:28:11.960610,-138
2021-12-27 14:28:11.960616,-152
2021-12-27 14:28:11.960622,-138
2021-12-27 14:28:11.960628,-118
2021-12-27 14:28:11.960634,-106
2021-12-27 14:28:11.960641,-108
2021-12-27 14:28:11.960647,-113
2021-12-27 14:28:11.960653,-104
2021-12-27 14:28:11.960659,-87
2021-12-27 14:28:11.960666,-81
2021-12-27 14:28:11.960672,-67
2021-12-27 14:28:12.059103,-76
2021-12-27 14:28:12.059133,-125
2021-12-27 14:28:12.059144,-37
2021-12-27 14:28:12.059154,486
2021-12-27 14:28:12.059163,1368
2021-12-27 14:28:12.059173,2088
2021-12-27 14:28:12.059182,1759
2021-12-27 14:28:12.059191,32
2021-12-27 14:28:12.059201,-1190
2021-12-27 14:28:12.059210,-618
2021-12-27 14:28:12.059220,-55
2021-12-27 14:28:12.059229,-250
2021-12-27 14:28:12.059238,-166
2021-12-27 14:28:12.059248,37
2021-12-27 14:28:12.059257,-64
2021-12-27 14:28:12.059267,-122
2021-12-27 14:28:12.059277,-18
2021-12-27 14:28:12.059286,18
2021-12-27 14:28:12.059296,13
2021-12-27 14:28:12.059305,57
2021-12-27 14:28:12.059328,85
2021-12-27 14:28:12.059335,57
2021-12-27 14:28:12.059341,41
2021-12-27 14:28:12.059347,78
2021-12-27 14:28:12.059353,122
2021-12-27 14:28:12.059410,148
2021-12-27 14:28:12.059427,150
2021-12-27 14:28:12.059434,131
2021-12-27 14:28:12.059441,145
2021-12-27 14:28:12.059447,206
2021-12-27 14:28:12.254787,250
2021-12-27 14:28:12.254817,266
2021-12-27 14:28:12.254828,252
2021-12-27 14:28:12.254838,199
2021-12-27 14:28:12.254847,171
2021-12-27 14:28:12.254857,203
2021-12-27 14:28:12.254866,256
2021-12-27 14:28:12.254876,280
2021-12-27 14:28:12.254963,238
2021-12-27 14:28:12.254974,141
2021-12-27 14:28:12.254984,30
2021-12-27 14:28:12.254993,-32
2021-12-27 14:28:12.255003,-67
2021-12-27 14:28:12.255012,-115
2021-12-27 14:28:12.255022,-155
2021-12-27 14:28:12.255032,-187
2021-12-27 14:28:12.255041,-215
2021-12-27 14:28:12.255051,-201
2021-12-27 14:28:12.255060,-166
2021-12-27 14:28:12.255069,-150
2021-12-27 14:28:12.255079,-166
2021-12-27 14:28:12.255088,-233
2021-12-27 14:28:12.255098,-289
2021-12-27 14:28:12.255107,-282
2021-12-27 14:28:12.255117,-266
2021-12-27 14:28:12.255126,-259
2021-12-27 14:28:12.255136,-291
2021-12-27 14:28:12.255145,-379
2021-12-27 14:28:12.255155,-421
2021-12-27 14:28:12.255164,-402
2021-12-27 14:28:12.546147,-395
2021-12-27 14:28:12.546168,-365
2021-12-27 14:28:12.546176,-282
2021-12-27 14:28:12.546182,-222
2021-12-27 14:28:12.546188,-259
2021-12-27 14:28:12.546195,-319
2021-12-27 14:28:12.546201,-307
2021-12-27 14:28:12.546207,-268
2021-12-27 14:28:12.546213,-261
2021-12-27 14:28:12.546219,-266
2021-12-27 14:28:12.546226,-254
2021-12-27 14:28:12.546232,-268
2021-12-27 14:28:12.546238,-280
2021-12-27 14:28:12.546244,-250
2021-12-27 14:28:12.546250,-222
2021-12-27 14:28:12.546257,-217
2021-12-27 14:28:12.546263,-206
2021-12-27 14:28:12.546269,-199
2021-12-27 14:28:12.546275,-201
2021-12-27 14:28:12.546281,-178
2021-12-27 14:28:12.546287,-138
2021-12-27 14:28:12.546293,-118
2021-12-27 14:28:12.546299,-106
2021-12-27 14:28:12.546305,-87
2021-12-27 14:28:12.546311,-90
2021-12-27 14:28:12.546317,-111
2021-12-27 14:28:12.546323,-134
2021-12-27 14:28:12.546329,-141
2021-12-27 14:28:12.546336,-129
2021-12-27 14:28:12.546342,-120
2021-12-27 14:28:12.742084,-115
2021-12-27 14:28:12.742105,-99
2021-12-27 14:28:12.742112,-78
2021-12-27 14:28:12.742119,-71
2021-12-27 14:28:12.742125,-83
2021-12-27 14:28:12.742131,-115
2021-12-27 14:28:12.742137,-113
2021-12-27 14:28:12.742144,192
2021-12-27 14:28:12.742150,916
2021-12-27 14:28:12.742156,1699
2021-12-27 14:28:12.742162,1859
2021-12-27 14:28:12.742169,641
2021-12-27 14:28:12.742175,-946
2021-12-27 14:28:12.742181,-939
2021-12-27 14:28:12.742187,-215
2021-12-27 14:28:12.742193,-240
2021-12-27 14:28:12.742200,-300
2021-12-27 14:28:12.742206,-67
2021-12-27 14:28:12.742212,-37
2021-12-27 14:28:12.742218,-108
2021-12-27 14:28:12.742224,-62
2021-12-27 14:28:12.742230,-20
2021-12-27 14:28:12.742237,-16
2021-12-27 14:28:12.742243,16
2021-12-27 14:28:12.742249,53
2021-12-27 14:28:12.742256,62
2021-12-27 14:28:12.742262,37
2021-12-27 14:28:12.742268,-20
2021-12-27 14:28:12.742274,-50
2021-12-27 14:28:12.742280,-2
2021-12-27 14:28:12.937260,55
2021-12-27 14:28:12.937282,78
2021-12-27 14:28:12.937289,90
2021-12-27 14:28:12.937296,101
2021-12-27 14:28:12.937302,129
2021-12-27 14:28:12.937308,175
2021-12-27 14:28:12.937314,210
2021-12-27 14:28:12.937320,213
