Time,ECG
2021-12-27 15:12:59.329929,-8920
2021-12-27 15:12:59.329938,-18966
2021-12-27 15:12:59.329943,-13201
2021-12-27 15:12:59.329947,-10976
2021-12-27 15:12:59.329952,-64
2021-12-27 15:12:59.329988,4880
2021-12-27 15:12:59.330005,981
2021-12-27 15:12:59.330013,-6962
2021-12-27 15:12:59.330020,-3769
2021-12-27 15:12:59.330029,4688
2021-12-27 15:12:59.330042,4767
2021-12-27 15:12:59.330050,-3929
2021-12-27 15:12:59.330058,-7235
2021-12-27 15:12:59.330066,-8422
2021-12-27 15:12:59.330083,930
2021-12-27 15:12:59.330092,2530
2021-12-27 15:12:59.330099,3440
2021-12-27 15:12:59.330107,729
2021-12-27 15:12:59.330122,2676
2021-12-27 15:12:59.330126,1467
2021-12-27 15:12:59.330131,4091
2021-12-27 15:12:59.537254,2822
2021-12-27 15:12:59.537296,-1058
2021-12-27 15:12:59.537306,3032
2021-12-27 15:12:59.537316,-4382
2021-12-27 15:12:59.537326,-10390
2021-12-27 15:12:59.537346,720
2021-12-27 15:12:59.537356,4767
2021-12-27 15:12:59.537365,388
2021-12-27 15:12:59.537375,-14181
2021-12-27 15:12:59.537384,-16271
2021-12-27 15:12:59.537393,1238
2021-12-27 15:12:59.537403,3827
2021-12-27 15:12:59.537412,-2563
2021-12-27 15:12:59.537421,-2428
2021-12-27 15:12:59.537431,-15581
2021-12-27 15:12:59.537441,-14458
2021-12-27 15:12:59.537450,-4271
2021-12-27 15:12:59.537460,-11754
2021-12-27 15:12:59.537469,-3257
2021-12-27 15:12:59.537484,-5193
2021-12-27 15:12:59.537493,-3762
2021-12-27 15:12:59.537502,652
2021-12-27 15:12:59.537512,166
2021-12-27 15:12:59.537521,2498
2021-12-27 15:12:59.537531,4109
2021-12-27 15:12:59.683568,3371
2021-12-27 15:12:59.683590,-2398
2021-12-27 15:12:59.683598,-1231
2021-12-27 15:12:59.683604,2796
2021-12-27 15:12:59.683610,1724
2021-12-27 15:12:59.683620,1666
2021-12-27 15:12:59.683626,-18230
2021-12-27 15:12:59.683632,-17598
2021-12-27 15:12:59.683638,-1935
2021-12-27 15:12:59.683651,4716
2021-12-27 15:12:59.683660,-5908
2021-12-27 15:12:59.683667,-12882
2021-12-27 15:12:59.683673,4787
2021-12-27 15:12:59.683687,-3058
2021-12-27 15:12:59.683694,-14711
2021-12-27 15:12:59.683700,-5894
2021-12-27 15:12:59.683713,3141
2021-12-27 15:12:59.683719,-13660
2021-12-27 15:12:59.683725,-18966
2021-12-27 15:12:59.683731,-12629
2021-12-27 15:12:59.878565,-3762
2021-12-27 15:12:59.878586,-6059
2021-12-27 15:12:59.878593,-10712
2021-12-27 15:12:59.878599,-18339
2021-12-27 15:12:59.878605,-9580
2021-12-27 15:12:59.878612,1370
2021-12-27 15:12:59.878622,2393
2021-12-27 15:12:59.878632,-12064
2021-12-27 15:12:59.878639,-17274
2021-12-27 15:12:59.878645,-3234
2021-12-27 15:12:59.878658,1713
2021-12-27 15:12:59.878664,-761
2021-12-27 15:12:59.878670,-16843
2021-12-27 15:12:59.878676,-18966
2021-12-27 15:12:59.878682,-2706
2021-12-27 15:12:59.878695,3148
2021-12-27 15:12:59.878701,-5644
2021-12-27 15:12:59.878708,923
2021-12-27 15:12:59.878723,3208
2021-12-27 15:12:59.878729,152
2021-12-27 15:12:59.878736,669
2021-12-27 15:13:00.122048,4475
2021-12-27 15:13:00.122063,-2481
2021-12-27 15:13:00.122074,-14035
2021-12-27 15:13:00.122080,-2086
2021-12-27 15:13:00.122096,-1759
2021-12-27 15:13:00.122103,-8080
2021-12-27 15:13:00.122109,-7640
2021-12-27 15:13:00.122115,-3164
2021-12-27 15:13:00.122121,-10476
2021-12-27 15:13:00.122127,-15398
2021-12-27 15:13:00.122133,3461
2021-12-27 15:13:00.122143,-5396
2021-12-27 15:13:00.122149,-3646
2021-12-27 15:13:00.122155,-1928
2021-12-27 15:13:00.122162,2039
2021-12-27 15:13:00.122171,1965
2021-12-27 15:13:00.122177,4095
2021-12-27 15:13:00.122193,2796
2021-12-27 15:13:00.413524,2030
2021-12-27 15:13:00.413566,1590
2021-12-27 15:13:00.413588,-3384
2021-12-27 15:13:00.413598,-11351
2021-12-27 15:13:00.413607,965
2021-12-27 15:13:00.413622,3012
2021-12-27 15:13:00.413631,2491
2021-12-27 15:13:00.413641,4746
2021-12-27 15:13:00.413650,-6982
2021-12-27 15:13:00.413659,-6628
2021-12-27 15:13:00.413674,4994
2021-12-27 15:13:00.413683,2993
2021-12-27 15:13:00.413698,2157
2021-12-27 15:13:00.413707,-808
2021-12-27 15:13:00.413717,-3748
2021-12-27 15:13:00.413726,-8480
2021-12-27 15:13:00.413735,4102
2021-12-27 15:13:00.413750,3882
2021-12-27 15:13:00.413759,1458
2021-12-27 15:13:00.413769,2713
2021-12-27 15:13:00.609595,-106
2021-12-27 15:13:00.609618,1808
2021-12-27 15:13:00.609637,3609
2021-12-27 15:13:00.609647,4764
2021-12-27 15:13:00.609662,2759
2021-12-27 15:13:00.609672,-9573
2021-12-27 15:13:00.609681,-12169
2021-12-27 15:13:00.609691,-495
2021-12-27 15:13:00.609715,368
2021-12-27 15:13:00.609725,-15970
2021-12-27 15:13:00.609735,-6193
2021-12-27 15:13:00.609754,-4841
2021-12-27 15:13:00.609764,-18966
2021-12-27 15:13:00.609774,-13940
2021-12-27 15:13:00.609783,-2704
2021-12-27 15:13:00.609793,-7369
2021-12-27 15:13:00.609802,-5408
2021-12-27 15:13:00.609812,4838
2021-12-27 15:13:00.609826,-821
2021-12-27 15:13:00.609836,-6158
2021-12-27 15:13:00.805116,277
2021-12-27 15:13:00.805132,-4989
2021-12-27 15:13:00.805139,4720
2021-12-27 15:13:00.805155,-2289
2021-12-27 15:13:00.805163,-13937
2021-12-27 15:13:00.805170,-8832
2021-12-27 15:13:00.805183,3037
2021-12-27 15:13:00.805189,4461
2021-12-27 15:13:00.805195,-12113
2021-12-27 15:13:00.805201,-12562
2021-12-27 15:13:00.805217,2704
2021-12-27 15:13:00.805224,-1738
2021-12-27 15:13:00.805230,-1240
2021-12-27 15:13:00.805268,1273
2021-12-27 15:13:00.805274,-889
2021-12-27 15:13:00.805280,-7019
2021-12-27 15:13:00.805286,148
2021-12-27 15:13:00.805292,4341
2021-12-27 15:13:00.805299,-3905
2021-12-27 15:13:00.805305,3269
2021-12-27 15:13:01.048598,4931
2021-12-27 15:13:01.048619,-6329
2021-12-27 15:13:01.048628,-2826
2021-12-27 15:13:01.048682,-4047
2021-12-27 15:13:01.048691,-15114
2021-12-27 15:13:01.048698,-14076
2021-12-27 15:13:01.048705,-5315
2021-12-27 15:13:01.048711,-2412
2021-12-27 15:13:01.048762,-9110
2021-12-27 15:13:01.048779,-14736
2021-12-27 15:13:01.048792,-16308
2021-12-27 15:13:01.048802,-14905
2021-12-27 15:13:01.048853,-1092
2021-12-27 15:13:01.048874,-1731
2021-12-27 15:13:01.048886,-490
2021-12-27 15:13:01.048898,-518
2021-12-27 15:13:01.048910,-2167
2021-12-27 15:13:01.048923,1551
2021-12-27 15:13:01.048935,4667
2021-12-27 15:13:01.048956,289
2021-12-27 15:13:01.048970,3516
2021-12-27 15:13:01.048991,-13611
2021-12-27 15:13:01.049006,-16885
2021-12-27 15:13:01.049018,-6329
2021-12-27 15:13:01.049030,-7339
2021-12-27 15:13:01.049043,650
2021-12-27 15:13:01.049055,4718
2021-12-27 15:13:01.291746,1178
2021-12-27 15:13:01.291768,5000
2021-12-27 15:13:01.291775,4357
2021-12-27 15:13:01.291782,3220
2021-12-27 15:13:01.291788,4632
2021-12-27 15:13:01.291794,902
2021-12-27 15:13:01.291801,-9043
2021-12-27 15:13:01.291807,-7388
2021-12-27 15:13:01.291835,1896
2021-12-27 15:13:01.291854,-4005
2021-12-27 15:13:01.291925,-9756
2021-12-27 15:13:01.291937,4711
2021-12-27 15:13:01.291953,4267
2021-12-27 15:13:01.291960,1981
2021-12-27 15:13:01.291966,1435
2021-12-27 15:13:01.291985,1428
2021-12-27 15:13:01.291991,777
2021-12-27 15:13:01.291997,2500
2021-12-27 15:13:01.292003,-7582
2021-12-27 15:13:01.292009,-5612
2021-12-27 15:13:01.487074,4419
2021-12-27 15:13:01.487105,3896
2021-12-27 15:13:01.487117,-1713
2021-12-27 15:13:01.487127,-1750
2021-12-27 15:13:01.487147,4568
2021-12-27 15:13:01.487157,-736
2021-12-27 15:13:01.487166,-14544
2021-12-27 15:13:01.487176,-6142
2021-12-27 15:13:01.487200,1180
2021-12-27 15:13:01.487210,-15665
2021-12-27 15:13:01.487219,-11418
2021-12-27 15:13:01.487243,4220
2021-12-27 15:13:01.487253,2273
2021-12-27 15:13:01.487262,-6221
2021-12-27 15:13:01.487272,4257
2021-12-27 15:13:01.487296,3095
2021-12-27 15:13:01.487306,-4482
2021-12-27 15:13:01.487316,3479
2021-12-27 15:13:01.487325,-5237
2021-12-27 15:13:01.731394,-18966
2021-12-27 15:13:01.731414,-18353
2021-12-27 15:13:01.731422,-3600
2021-12-27 15:13:01.731434,-14574
2021-12-27 15:13:01.731440,-14148
2021-12-27 15:13:01.731453,1115
2021-12-27 15:13:01.731463,-6285
2021-12-27 15:13:01.731469,-11453
2021-12-27 15:13:01.731485,4950
2021-12-27 15:13:01.731491,-1717
2021-12-27 15:13:01.731497,-388
2021-12-27 15:13:01.731513,2509
2021-12-27 15:13:01.731519,2435
2021-12-27 15:13:01.731525,41
2021-12-27 15:13:01.731532,3780
2021-12-27 15:13:01.731547,2984
2021-12-27 15:13:01.731554,-1032
2021-12-27 15:13:01.731560,4290
2021-12-27 15:13:01.975016,-4936
2021-12-27 15:13:01.975037,-13981
2021-12-27 15:13:01.975048,-6700
2021-12-27 15:13:01.975058,-8749
2021-12-27 15:13:01.975067,-2854
2021-12-27 15:13:01.975082,3266
2021-12-27 15:13:01.975091,347
2021-12-27 15:13:01.975101,-287
2021-12-27 15:13:01.975110,-13792
2021-12-27 15:13:01.975120,-15197
2021-12-27 15:13:01.975129,-4021
2021-12-27 15:13:01.975139,3037
2021-12-27 15:13:01.975148,-259
2021-12-27 15:13:01.975158,-1069
2021-12-27 15:13:01.975167,-263
2021-12-27 15:13:01.975176,-11499
2021-12-27 15:13:01.975186,-7552
2021-12-27 15:13:01.975196,11
2021-12-27 15:13:01.975205,-11685
2021-12-27 15:13:01.975214,-6142
2021-12-27 15:13:01.975224,2377
2021-12-27 15:13:01.975236,-3630
2021-12-27 15:13:01.975246,615
2021-12-27 15:13:01.975255,1928
2021-12-27 15:13:01.975265,-412
2021-12-27 15:13:01.975274,2880
2021-12-27 15:13:01.975284,2206
2021-12-27 15:13:02.218807,379
2021-12-27 15:13:02.218828,-270
2021-12-27 15:13:02.218835,2238
2021-12-27 15:13:02.218842,-879
2021-12-27 15:13:02.218848,-12291
2021-12-27 15:13:02.218854,-18832
2021-12-27 15:13:02.218860,-18966
2021-12-27 15:13:02.218867,-13673
2021-12-27 15:13:02.218873,3139
2021-12-27 15:13:02.218879,1268
2021-12-27 15:13:02.218885,3660
2021-12-27 15:13:02.218895,-4871
2021-12-27 15:13:02.218902,-11481
2021-12-27 15:13:02.218908,-2102
2021-12-27 15:13:02.218927,2180
2021-12-27 15:13:02.218934,-1185
2021-12-27 15:13:02.218953,1289
2021-12-27 15:13:02.218959,1618
2021-12-27 15:13:02.218965,3002
2021-12-27 15:13:02.461180,57
2021-12-27 15:13:02.461202,-1472
2021-12-27 15:13:02.461223,-4401
2021-12-27 15:13:02.461232,-11854
2021-12-27 15:13:02.461242,-17971
2021-12-27 15:13:02.461251,-8666
2021-12-27 15:13:02.461276,1845
2021-12-27 15:13:02.461285,-8124
2021-12-27 15:13:02.461295,-14171
2021-12-27 15:13:02.461304,3019
2021-12-27 15:13:02.461319,4570
2021-12-27 15:13:02.461338,-5012
2021-12-27 15:13:02.461347,4556
2021-12-27 15:13:02.461372,1627
2021-12-27 15:13:02.461382,-2826
2021-12-27 15:13:02.461399,1845
2021-12-27 15:13:02.657294,4989
2021-12-27 15:13:02.657316,2229
2021-12-27 15:13:02.657328,-9307
2021-12-27 15:13:02.657338,-12706
2021-12-27 15:13:02.657358,1583
2021-12-27 15:13:02.657367,-7075
2021-12-27 15:13:02.657377,-18966
2021-12-27 15:13:02.657386,-18966
2021-12-27 15:13:02.657396,-11969
2021-12-27 15:13:02.657405,-8777
2021-12-27 15:13:02.657415,2958
2021-12-27 15:13:02.657430,-11
2021-12-27 15:13:02.657439,-569
2021-12-27 15:13:02.657449,3954
2021-12-27 15:13:02.657469,4095
2021-12-27 15:13:02.657478,3824
2021-12-27 15:13:02.657488,-1192
2021-12-27 15:13:02.657497,3484
2021-12-27 15:13:02.657522,1201
2021-12-27 15:13:02.657532,2495
2021-12-27 15:13:02.657541,-388
2021-12-27 15:13:02.901346,-7501
2021-12-27 15:13:02.901375,74
2021-12-27 15:13:02.901387,2067
2021-12-27 15:13:02.901397,-884
2021-12-27 15:13:02.901407,-2579
2021-12-27 15:13:02.901416,-17968
2021-12-27 15:13:02.901426,-18966
2021-12-27 15:13:02.901436,-3838
2021-12-27 15:13:02.901445,-4054
2021-12-27 15:13:02.901455,-16480
2021-12-27 15:13:02.901465,-18966
2021-12-27 15:13:02.901474,-18966
2021-12-27 15:13:02.901484,-16866
2021-12-27 15:13:02.901493,1685
2021-12-27 15:13:02.901509,-4433
2021-12-27 15:13:02.901518,1970
2021-12-27 15:13:02.901533,-3433
2021-12-27 15:13:02.901543,3509
2021-12-27 15:13:02.901557,574
2021-12-27 15:13:02.901577,1382
2021-12-27 15:13:02.901586,2956
2021-12-27 15:13:02.901596,3986
2021-12-27 15:13:02.901605,4878
2021-12-27 15:13:02.901621,4144
2021-12-27 15:13:03.193774,-456
2021-12-27 15:13:03.193801,3891
2021-12-27 15:13:03.193812,3648
2021-12-27 15:13:03.193827,-4524
2021-12-27 15:13:03.193836,-13842
2021-12-27 15:13:03.193846,-1893
2021-12-27 15:13:03.193865,2963
2021-12-27 15:13:03.193875,-8804
2021-12-27 15:13:03.193884,-18966
2021-12-27 15:13:03.193894,-11567
2021-12-27 15:13:03.193908,97
2021-12-27 15:13:03.193918,-16646
2021-12-27 15:13:03.193927,-12303
2021-12-27 15:13:03.193937,-363
2021-12-27 15:13:03.193946,2069
2021-12-27 15:13:03.193955,-351
2021-12-27 15:13:03.193980,3678
2021-12-27 15:13:03.193990,2419
2021-12-27 15:13:03.193999,9
2021-12-27 15:13:03.340143,-1530
2021-12-27 15:13:03.340159,-1889
2021-12-27 15:13:03.340175,3037
2021-12-27 15:13:03.340182,-11905
2021-12-27 15:13:03.340188,-16095
2021-12-27 15:13:03.340194,2454
2021-12-27 15:13:03.340207,2523
2021-12-27 15:13:03.340213,-1266
2021-12-27 15:13:03.340219,-11861
2021-12-27 15:13:03.340225,3646
2021-12-27 15:13:03.340235,2030
2021-12-27 15:13:03.340241,-2176
2021-12-27 15:13:03.340247,-11870
2021-12-27 15:13:03.340254,-18966
2021-12-27 15:13:03.340260,-7645
2021-12-27 15:13:03.340273,-7193
2021-12-27 15:13:03.340279,-9339
2021-12-27 15:13:03.340285,-10710
2021-12-27 15:13:03.340291,-16755
2021-12-27 15:13:03.340297,-1481
2021-12-27 15:13:03.583410,1125
2021-12-27 15:13:03.583425,310
2021-12-27 15:13:03.583432,-12375
2021-12-27 15:13:03.583439,-18556
2021-12-27 15:13:03.583445,-1090
2021-12-27 15:13:03.583458,1099
2021-12-27 15:13:03.583464,-5267
2021-12-27 15:13:03.583471,-11421
2021-12-27 15:13:03.583477,-7517
2021-12-27 15:13:03.583490,-215
2021-12-27 15:13:03.583496,1514
2021-12-27 15:13:03.583507,-5026
2021-12-27 15:13:03.583514,-5519
2021-12-27 15:13:03.583530,2600
2021-12-27 15:13:03.583537,3748
2021-12-27 15:13:03.583543,-3199
2021-12-27 15:13:03.583549,-14782
2021-12-27 15:13:03.583556,2030
2021-12-27 15:13:03.583565,-78
2021-12-27 15:13:03.583572,3577
2021-12-27 15:13:03.583578,3637
2021-12-27 15:13:03.924682,3577
2021-12-27 15:13:03.924718,4306
2021-12-27 15:13:03.924729,2968
2021-12-27 15:13:03.924738,2208
2021-12-27 15:13:03.924748,-6934
2021-12-27 15:13:03.924758,-9409
2021-12-27 15:13:03.924767,3343
2021-12-27 15:13:03.924782,1576
2021-12-27 15:13:03.924791,2565
2021-12-27 15:13:03.924801,3750
2021-12-27 15:13:03.924810,-10733
2021-12-27 15:13:03.924820,-1081
2021-12-27 15:13:03.924834,1516
2021-12-27 15:13:03.924854,-3482
2021-12-27 15:13:03.924864,-4857
2021-12-27 15:13:03.924874,2463
2021-12-27 15:13:03.924888,4963
2021-12-27 15:13:03.924908,-138
2021-12-27 15:13:03.924918,4100
2021-12-27 15:13:03.924932,4063
2021-12-27 15:13:04.071297,71
2021-12-27 15:13:04.071312,4345
2021-12-27 15:13:04.071319,2315
2021-12-27 15:13:04.071332,2708
2021-12-27 15:13:04.071338,-1724
2021-12-27 15:13:04.071344,-3625
2021-12-27 15:13:04.071351,3479
2021-12-27 15:13:04.071367,-310
2021-12-27 15:13:04.071373,-6459
2021-12-27 15:13:04.071379,1979
2021-12-27 15:13:04.071395,3394
2021-12-27 15:13:04.071401,-4679
2021-12-27 15:13:04.071407,-12414
2021-12-27 15:13:04.071414,3405
2021-12-27 15:13:04.071423,3621
2021-12-27 15:13:04.071429,1613
2021-12-27 15:13:04.071436,-10812
2021-12-27 15:13:04.071442,-12789
2021-12-27 15:13:04.071448,4987
2021-12-27 15:13:04.071454,-5429
2021-12-27 15:13:04.265945,-18966
2021-12-27 15:13:04.265975,-6109
2021-12-27 15:13:04.265986,1222
2021-12-27 15:13:04.265997,-7015
2021-12-27 15:13:04.266006,-683
2021-12-27 15:13:04.266026,2183
2021-12-27 15:13:04.266036,-1014
2021-12-27 15:13:04.266051,-14377
2021-12-27 15:13:04.266061,-4366
2021-12-27 15:13:04.266086,64
2021-12-27 15:13:04.266096,-17276
2021-12-27 15:13:04.266105,-8376
2021-12-27 15:13:04.266125,4947
2021-12-27 15:13:04.266135,3317
2021-12-27 15:13:04.266144,3215
2021-12-27 15:13:04.266154,-6211
2021-12-27 15:13:04.266163,-5531
2021-12-27 15:13:04.266183,3697
2021-12-27 15:13:04.266192,-2118
2021-12-27 15:13:04.266202,-2840
2021-12-27 15:13:04.556953,4829
2021-12-27 15:13:04.556968,-8205
2021-12-27 15:13:04.556974,-14750
2021-12-27 15:13:04.556979,-7288
2021-12-27 15:13:04.556990,-368
2021-12-27 15:13:04.556995,-219
2021-12-27 15:13:04.557000,-9182
2021-12-27 15:13:04.557005,-15600
2021-12-27 15:13:04.557010,1428
2021-12-27 15:13:04.557018,747
2021-12-27 15:13:04.557023,-4635
2021-12-27 15:13:04.557028,-13185
2021-12-27 15:13:04.557033,-12208
2021-12-27 15:13:04.557037,-6931
2021-12-27 15:13:04.557042,-6783
2021-12-27 15:13:04.557047,-7140
2021-12-27 15:13:04.557053,-4473
2021-12-27 15:13:04.557057,939
2021-12-27 15:13:04.557062,-6211
2021-12-27 15:13:04.557067,-15563
2021-12-27 15:13:04.557073,-8538
2021-12-27 15:13:04.557078,-1403
2021-12-27 15:13:04.557083,444
2021-12-27 15:13:04.557088,-525
2021-12-27 15:13:04.557093,-2586
2021-12-27 15:13:04.753459,1322
2021-12-27 15:13:04.753489,3549
2021-12-27 15:13:04.753500,2928
2021-12-27 15:13:04.753510,1011
2021-12-27 15:13:04.753520,-3648
2021-12-27 15:13:04.753529,-15301
2021-12-27 15:13:04.753539,-18966
2021-12-27 15:13:04.753548,-4327
2021-12-27 15:13:04.753563,-1963
2021-12-27 15:13:04.753573,3093
2021-12-27 15:13:04.753588,-13356
2021-12-27 15:13:04.753597,-7846
2021-12-27 15:13:04.753612,4554
2021-12-27 15:13:04.753621,4137
2021-12-27 15:13:04.753641,703
2021-12-27 15:13:04.753650,3021
2021-12-27 15:13:04.753665,4086
2021-12-27 15:13:04.753684,-4060
2021-12-27 15:13:04.753694,-7885
2021-12-27 15:13:04.753703,-9228
2021-12-27 15:13:04.753713,4139
2021-12-27 15:13:04.997435,2748
2021-12-27 15:13:04.997458,2023
2021-12-27 15:13:04.997465,2018
2021-12-27 15:13:04.997472,1055
2021-12-27 15:13:04.997488,-3919
2021-12-27 15:13:04.997498,-13755
2021-12-27 15:13:04.997505,-185
2021-12-27 15:13:04.997521,-3630
2021-12-27 15:13:04.997527,-13111
2021-12-27 15:13:04.997533,-5758
2021-12-27 15:13:04.997546,4264
2021-12-27 15:13:04.997556,1099
2021-12-27 15:13:04.997562,-4716
2021-12-27 15:13:04.997581,-1215
2021-12-27 15:13:04.997587,-5357
2021-12-27 15:13:04.997593,-5202
2021-12-27 15:13:04.997600,-2961
2021-12-27 15:13:05.192406,87
2021-12-27 15:13:05.192427,-5417
2021-12-27 15:13:05.192438,1933
2021-12-27 15:13:05.192463,2169
2021-12-27 15:13:05.192472,-16899
2021-12-27 15:13:05.192482,-15634
2021-12-27 15:13:05.192491,-8865
2021-12-27 15:13:05.192501,-6591
2021-12-27 15:13:05.192515,1474
2021-12-27 15:13:05.192525,-14319
2021-12-27 15:13:05.192534,-13366
2021-12-27 15:13:05.192554,3190
2021-12-27 15:13:05.192563,3607
2021-12-27 15:13:05.192573,2495
2021-12-27 15:13:05.192582,-3470
2021-12-27 15:13:05.192612,-196
2021-12-27 15:13:05.192622,-206
2021-12-27 15:13:05.192631,1856
2021-12-27 15:13:05.436080,-5063
2021-12-27 15:13:05.436109,-4625
2021-12-27 15:13:05.436120,527
2021-12-27 15:13:05.436130,986
2021-12-27 15:13:05.436140,-8112
2021-12-27 15:13:05.436149,-11050
2021-12-27 15:13:05.436169,1416
2021-12-27 15:13:05.436179,2190
2021-12-27 15:13:05.436188,-5123
2021-12-27 15:13:05.436198,-10835
2021-12-27 15:13:05.436207,-676
2021-12-27 15:13:05.436227,-608
2021-12-27 15:13:05.436237,4232
2021-12-27 15:13:05.436246,4480
2021-12-27 15:13:05.436256,162
2021-12-27 15:13:05.436276,472
2021-12-27 15:13:05.436290,3051
2021-12-27 15:13:05.436300,1900
2021-12-27 15:13:05.436314,4901
2021-12-27 15:13:05.436324,3646
2021-12-27 15:13:05.436333,3801
2021-12-27 15:13:05.680032,2248
2021-12-27 15:13:05.680053,-1271
2021-12-27 15:13:05.680061,-5563
2021-12-27 15:13:05.680067,-13076
2021-12-27 15:13:05.680073,1071
2021-12-27 15:13:05.680083,-12833
2021-12-27 15:13:05.680090,-9680
2021-12-27 15:13:05.680099,1083
2021-12-27 15:13:05.680105,3158
2021-12-27 15:13:05.680112,4651
2021-12-27 15:13:05.680118,-6725
2021-12-27 15:13:05.680124,-11965
2021-12-27 15:13:05.680130,-597
2021-12-27 15:13:05.680140,-11305
2021-12-27 15:13:05.680146,-18966
2021-12-27 15:13:05.680152,-4088
2021-12-27 15:13:05.680158,1467
2021-12-27 15:13:05.680165,893
2021-12-27 15:13:05.680171,2097
2021-12-27 15:13:05.680183,3866
2021-12-27 15:13:05.680190,896
2021-12-27 15:13:05.680199,2099
2021-12-27 15:13:05.680206,1366
2021-12-27 15:13:05.874959,4500
2021-12-27 15:13:05.874975,-3516
2021-12-27 15:13:05.874982,-2155
2021-12-27 15:13:05.874988,-3662
2021-12-27 15:13:05.874994,-5846
2021-12-27 15:13:05.875004,-3442
2021-12-27 15:13:05.875010,-18966
2021-12-27 15:13:05.875016,-8503
2021-12-27 15:13:05.875029,3787
2021-12-27 15:13:05.875035,1146
2021-12-27 15:13:05.875041,-9904
2021-12-27 15:13:05.875047,-14829
2021-12-27 15:13:05.875060,3195
2021-12-27 15:13:05.875070,-2648
2021-12-27 15:13:05.875076,-15931
2021-12-27 15:13:05.875082,-8325
2021-12-27 15:13:05.875088,4612
2021-12-27 15:13:05.875098,2109
2021-12-27 15:13:05.875104,-4762
2021-12-27 15:13:05.875110,-13917
2021-12-27 15:13:05.875116,-12671
2021-12-27 15:13:05.875123,1495
2021-12-27 15:13:06.118623,-4991
2021-12-27 15:13:06.118653,-9853
2021-12-27 15:13:06.118664,-2572
2021-12-27 15:13:06.118674,-15607
2021-12-27 15:13:06.118684,-14593
2021-12-27 15:13:06.118693,1944
2021-12-27 15:13:06.118703,-6670
2021-12-27 15:13:06.118712,-11678
2021-12-27 15:13:06.118722,-4118
2021-12-27 15:13:06.118732,-12136
2021-12-27 15:13:06.118741,-16762
2021-12-27 15:13:06.118751,1391
2021-12-27 15:13:06.118766,3329
2021-12-27 15:13:06.118776,-192
2021-12-27 15:13:06.118786,1296
2021-12-27 15:13:06.118796,-4213
2021-12-27 15:13:06.118805,4202
2021-12-27 15:13:06.118830,-1460
2021-12-27 15:13:06.118839,-15232
2021-12-27 15:13:06.118849,-14185
2021-12-27 15:13:06.118859,3134
2021-12-27 15:13:06.118874,2701
2021-12-27 15:13:06.118883,-875
2021-12-27 15:13:06.118898,1761
2021-12-27 15:13:06.362192,2593
2021-12-27 15:13:06.362207,1944
2021-12-27 15:13:06.362214,-4676
2021-12-27 15:13:06.362220,-11988
2021-12-27 15:13:06.362227,-263
2021-12-27 15:13:06.362236,-6137
2021-12-27 15:13:06.362242,-13539
2021-12-27 15:13:06.362248,-1893
2021-12-27 15:13:06.362255,-2736
2021-12-27 15:13:06.362261,-9756
2021-12-27 15:13:06.362273,-1305
2021-12-27 15:13:06.362286,724
2021-12-27 15:13:06.362299,3915
2021-12-27 15:13:06.362312,3857
2021-12-27 15:13:06.362318,3306
2021-12-27 15:13:06.362327,3646
2021-12-27 15:13:06.362333,3498
2021-12-27 15:13:06.653362,2493
2021-12-27 15:13:06.653392,1868
2021-12-27 15:13:06.653409,1736
2021-12-27 15:13:06.653429,-8376
2021-12-27 15:13:06.653439,-11636
2021-12-27 15:13:06.653449,32
2021-12-27 15:13:06.653458,4473
2021-12-27 15:13:06.653468,-6633
2021-12-27 15:13:06.653478,-7716
2021-12-27 15:13:06.653487,-254
2021-12-27 15:13:06.653497,-9925
2021-12-27 15:13:06.653506,-7019
2021-12-27 15:13:06.653531,4975
2021-12-27 15:13:06.653541,-1903
2021-12-27 15:13:06.653550,905
2021-12-27 15:13:06.653560,2509
2021-12-27 15:13:06.653594,4880
2021-12-27 15:13:06.653604,-1565
2021-12-27 15:13:06.653613,-2590
2021-12-27 15:13:06.653623,-6806
2021-12-27 15:13:06.653633,-13629
2021-12-27 15:13:06.801017,2956
2021-12-27 15:13:06.801043,-5952
2021-12-27 15:13:06.801050,-2042
2021-12-27 15:13:06.801066,-752
2021-12-27 15:13:06.801072,-11916
2021-12-27 15:13:06.801079,-14259
2021-12-27 15:13:06.801092,-8990
2021-12-27 15:13:06.801098,-7531
2021-12-27 15:13:06.801104,-6248
2021-12-27 15:13:06.801111,-14083
2021-12-27 15:13:06.801117,-849
2021-12-27 15:13:06.801133,270
2021-12-27 15:13:06.801140,-2245
2021-12-27 15:13:06.801146,1655
2021-12-27 15:13:06.801159,4498
2021-12-27 15:13:06.801168,-3079
2021-12-27 15:13:06.801175,-1185
2021-12-27 15:13:07.044895,3206
2021-12-27 15:13:07.044917,-14701
2021-12-27 15:13:07.044928,-14201
2021-12-27 15:13:07.044938,4077
2021-12-27 15:13:07.044957,777
2021-12-27 15:13:07.044967,-3632
2021-12-27 15:13:07.044977,-12898
2021-12-27 15:13:07.044986,-2148
2021-12-27 15:13:07.045001,1893
2021-12-27 15:13:07.045010,-10365
2021-12-27 15:13:07.045020,-13180
2021-12-27 15:13:07.045029,-4982
2021-12-27 15:13:07.045059,-97
2021-12-27 15:13:07.045069,1891
2021-12-27 15:13:07.045078,2627
2021-12-27 15:13:07.045098,2799
2021-12-27 15:13:07.045107,2421
2021-12-27 15:13:07.045117,3732
2021-12-27 15:13:07.045126,666
2021-12-27 15:13:07.288204,3565
2021-12-27 15:13:07.288219,-4440
2021-12-27 15:13:07.288226,-18966
2021-12-27 15:13:07.288232,-18966
2021-12-27 15:13:07.288239,-10034
2021-12-27 15:13:07.288251,-3357
2021-12-27 15:13:07.288261,-856
2021-12-27 15:13:07.288267,-11703
2021-12-27 15:13:07.288273,4060
2021-12-27 15:13:07.288283,-2738
2021-12-27 15:13:07.288289,-6325
2021-12-27 15:13:07.288296,-9024
2021-12-27 15:13:07.288302,-1831
2021-12-27 15:13:07.288308,4498
2021-12-27 15:13:07.288314,4010
2021-12-27 15:13:07.288321,3148
2021-12-27 15:13:07.288327,3845
2021-12-27 15:13:07.288336,2852
2021-12-27 15:13:07.288343,567
2021-12-27 15:13:07.288352,2690
2021-12-27 15:13:07.288358,4561
2021-12-27 15:13:07.532155,1291
2021-12-27 15:13:07.532186,1518
2021-12-27 15:13:07.532197,3014
2021-12-27 15:13:07.532207,1687
2021-12-27 15:13:07.532228,-826
2021-12-27 15:13:07.532237,-12474
2021-12-27 15:13:07.532247,-8182
2021-12-27 15:13:07.532256,4987
2021-12-27 15:13:07.532266,3502
2021-12-27 15:13:07.532280,3979
2021-12-27 15:13:07.532290,-12597
2021-12-27 15:13:07.532299,-10226
2021-12-27 15:13:07.532309,2370
2021-12-27 15:13:07.532323,4526
2021-12-27 15:13:07.532333,-7795
2021-12-27 15:13:07.532342,-12000
2021-12-27 15:13:07.532352,-5575
2021-12-27 15:13:07.532362,1713
2021-12-27 15:13:07.532392,-4229
2021-12-27 15:13:07.532401,-504
2021-12-27 15:13:07.532411,4723
2021-12-27 15:13:07.727372,3065
2021-12-27 15:13:07.727388,-1817
2021-12-27 15:13:07.727395,-3915
2021-12-27 15:13:07.727401,3743
2021-12-27 15:13:07.727411,4963
2021-12-27 15:13:07.727417,4496
2021-12-27 15:13:07.727423,-4271
2021-12-27 15:13:07.727429,-18966
2021-12-27 15:13:07.727436,-18966
2021-12-27 15:13:07.727445,-4892
2021-12-27 15:13:07.727458,-10187
2021-12-27 15:13:07.727465,-16195
2021-12-27 15:13:07.727471,-3148
2021-12-27 15:13:07.727484,-118
2021-12-27 15:13:07.727490,-10675
2021-12-27 15:13:07.727496,-18637
2021-12-27 15:13:07.727502,-4371
2021-12-27 15:13:07.727515,4010
2021-12-27 15:13:07.727525,-3854
2021-12-27 15:13:07.727531,-1477
2021-12-27 15:13:07.971064,2118
2021-12-27 15:13:07.971086,-7672
2021-12-27 15:13:07.971096,-13680
2021-12-27 15:13:07.971106,-2984
2021-12-27 15:13:07.971120,4311
2021-12-27 15:13:07.971130,-6920
2021-12-27 15:13:07.971139,-11393
2021-12-27 15:13:07.971149,-16148
2021-12-27 15:13:07.971158,-6709
2021-12-27 15:13:07.971168,4813
2021-12-27 15:13:07.971177,3375
2021-12-27 15:13:07.971187,-6591
2021-12-27 15:13:07.971196,-14238
2021-12-27 15:13:07.971205,-10351
2021-12-27 15:13:07.971215,-12757
2021-12-27 15:13:07.971224,-9233
2021-12-27 15:13:07.971239,203
2021-12-27 15:13:07.971248,-8471
2021-12-27 15:13:07.971258,-10217
2021-12-27 15:13:07.971267,-13611
2021-12-27 15:13:07.971277,67
2021-12-27 15:13:07.971292,-94
2021-12-27 15:13:07.971301,368
2021-12-27 15:13:07.971310,1430
2021-12-27 15:13:07.971320,1284
2021-12-27 15:13:08.214606,1641
2021-12-27 15:13:08.214627,4667
2021-12-27 15:13:08.214638,-657
2021-12-27 15:13:08.214644,1435
2021-12-27 15:13:08.214650,-1956
2021-12-27 15:13:08.214656,-12590
2021-12-27 15:13:08.214662,2525
2021-12-27 15:13:08.214672,-842
2021-12-27 15:13:08.214678,4044
2021-12-27 15:13:08.214684,-5306
2021-12-27 15:13:08.214690,-18966
2021-12-27 15:13:08.214697,-7432
2021-12-27 15:13:08.214703,1778
2021-12-27 15:13:08.214709,-15449
2021-12-27 15:13:08.214715,-18966
2021-12-27 15:13:08.214721,-5975
2021-12-27 15:13:08.214727,-8098
2021-12-27 15:13:08.214733,-14301
2021-12-27 15:13:08.214739,-6496
2021-12-27 15:13:08.214745,-9098
2021-12-27 15:13:08.214752,-2280
2021-12-27 15:13:08.214761,-8501
2021-12-27 15:13:08.214767,-9923
2021-12-27 15:13:08.214773,2921
2021-12-27 15:13:08.214780,2065
2021-12-27 15:13:08.214786,3588
2021-12-27 15:13:08.458192,4206
2021-12-27 15:13:08.458214,810
2021-12-27 15:13:08.458222,-1129
2021-12-27 15:13:08.458228,3998
2021-12-27 15:13:08.458244,-9677
2021-12-27 15:13:08.458251,-10064
2021-12-27 15:13:08.458257,3387
2021-12-27 15:13:08.458270,4725
2021-12-27 15:13:08.458276,-5207
2021-12-27 15:13:08.458282,-11039
2021-12-27 15:13:08.458288,-1842
2021-12-27 15:13:08.458308,-2525
2021-12-27 15:13:08.458314,-759
2021-12-27 15:13:08.458330,4915
2021-12-27 15:13:08.458336,-6408
2021-12-27 15:13:08.458342,-8962
2021-12-27 15:13:08.458348,4023
2021-12-27 15:13:08.700879,4030
2021-12-27 15:13:08.700901,-6218
2021-12-27 15:13:08.700912,4401
2021-12-27 15:13:08.700937,-4945
2021-12-27 15:13:08.700946,-18485
2021-12-27 15:13:08.700956,-2752
2021-12-27 15:13:08.700980,319
2021-12-27 15:13:08.700990,-10585
2021-12-27 15:13:08.701000,-10208
2021-12-27 15:13:08.701020,1974
2021-12-27 15:13:08.701029,-3628
2021-12-27 15:13:08.701039,-18966
2021-12-27 15:13:08.701048,-10921
2021-12-27 15:13:08.701078,1245
2021-12-27 15:13:08.701088,-3331
2021-12-27 15:13:08.701098,-4530
2021-12-27 15:13:08.897170,1555
2021-12-27 15:13:08.897185,-826
2021-12-27 15:13:08.897192,-8328
2021-12-27 15:13:08.897198,-5480
2021-12-27 15:13:08.897214,81
2021-12-27 15:13:08.897220,-8969
2021-12-27 15:13:08.897226,-9925
2021-12-27 15:13:08.897232,2164
2021-12-27 15:13:08.897245,4612
2021-12-27 15:13:08.897252,-333
2021-12-27 15:13:08.897261,2060
2021-12-27 15:13:08.897267,4035
2021-12-27 15:13:08.897277,3935
2021-12-27 15:13:08.897283,3229
2021-12-27 15:13:08.897289,4028
2021-12-27 15:13:08.897295,1352
2021-12-27 15:13:08.897301,3449
2021-12-27 15:13:08.897314,2660
2021-12-27 15:13:08.897320,4297
2021-12-27 15:13:09.140804,-4070
2021-12-27 15:13:09.140825,-6635
2021-12-27 15:13:09.140832,4243
2021-12-27 15:13:09.140839,2718
2021-12-27 15:13:09.140845,4167
2021-12-27 15:13:09.140851,-2060
2021-12-27 15:13:09.140857,-13440
2021-12-27 15:13:09.140863,-3035
2021-12-27 15:13:09.140873,3188
2021-12-27 15:13:09.140879,3169
2021-12-27 15:13:09.140885,2650
2021-12-27 15:13:09.140892,-6707
2021-12-27 15:13:09.140898,-10170
2021-12-27 15:13:09.140904,4526
2021-12-27 15:13:09.140913,817
2021-12-27 15:13:09.140923,3822
2021-12-27 15:13:09.140929,-2310
2021-12-27 15:13:09.140935,4644
2021-12-27 15:13:09.140941,3204
2021-12-27 15:13:09.140957,-2660
2021-12-27 15:13:09.140964,-18920
2021-12-27 15:13:09.140970,-9585
2021-12-27 15:13:09.335811,4169
2021-12-27 15:13:09.335827,-9485
2021-12-27 15:13:09.335834,-13062
2021-12-27 15:13:09.335840,1896
2021-12-27 15:13:09.335850,2887
2021-12-27 15:13:09.335856,-11085
2021-12-27 15:13:09.335862,-13310
2021-12-27 15:13:09.335868,-4732
2021-12-27 15:13:09.335880,3438
2021-12-27 15:13:09.335887,1171
2021-12-27 15:13:09.335893,-13919
2021-12-27 15:13:09.335899,-10432
2021-12-27 15:13:09.335918,-3618
2021-12-27 15:13:09.335924,-3841
2021-12-27 15:13:09.335930,4202
2021-12-27 15:13:09.335943,3688
2021-12-27 15:13:09.335949,2317
2021-12-27 15:13:09.335955,-4790
2021-12-27 15:13:09.335961,2630
2021-12-27 15:13:09.579430,-3000
2021-12-27 15:13:09.579445,-18966
2021-12-27 15:13:09.579452,-18267
2021-12-27 15:13:09.579458,-3630
2021-12-27 15:13:09.579468,-254
2021-12-27 15:13:09.579474,-17021
2021-12-27 15:13:09.579480,-18966
2021-12-27 15:13:09.579486,-10995
2021-12-27 15:13:09.579499,-7948
2021-12-27 15:13:09.579505,-9830
2021-12-27 15:13:09.579512,-12997
2021-12-27 15:13:09.579518,-18598
2021-12-27 15:13:09.579524,-7524
2021-12-27 15:13:09.579530,1484
2021-12-27 15:13:09.579537,2625
2021-12-27 15:13:09.579543,-613
2021-12-27 15:13:09.579549,-6385
2021-12-27 15:13:09.579555,-3116
2021-12-27 15:13:09.579562,1426
2021-12-27 15:13:09.579575,157
2021-12-27 15:13:09.579581,-60
2021-12-27 15:13:09.579587,-1231
2021-12-27 15:13:09.579593,599
2021-12-27 15:13:09.823536,-7607
2021-12-27 15:13:09.823551,-18966
2021-12-27 15:13:09.823558,-15514
2021-12-27 15:13:09.823565,-7295
2021-12-27 15:13:09.823571,-13301
2021-12-27 15:13:09.823577,-13275
2021-12-27 15:13:09.823583,-1544
2021-12-27 15:13:09.823589,3308
2021-12-27 15:13:09.823595,-618
2021-12-27 15:13:09.823601,-1715
2021-12-27 15:13:09.823608,-8554
2021-12-27 15:13:09.823614,-2896
2021-12-27 15:13:09.823623,4311
2021-12-27 15:13:09.823630,921
2021-12-27 15:13:09.823639,1986
2021-12-27 15:13:09.823645,3570
2021-12-27 15:13:09.823658,-3419
2021-12-27 15:13:09.823664,-7499
2021-12-27 15:13:09.823670,1535
2021-12-27 15:13:09.823676,1815
2021-12-27 15:13:09.823682,2509
2021-12-27 15:13:09.823688,4952
2021-12-27 15:13:09.823694,-8441
2021-12-27 15:13:09.823701,-7360
2021-12-27 15:13:09.823707,-1194
2021-12-27 15:13:10.067590,-11821
2021-12-27 15:13:10.067612,-7672
2021-12-27 15:13:10.067622,1178
2021-12-27 15:13:10.067631,-694
2021-12-27 15:13:10.067640,1238
2021-12-27 15:13:10.067649,-1097
2021-12-27 15:13:10.067658,-11685
2021-12-27 15:13:10.067667,-16128
2021-12-27 15:13:10.067676,-11328
2021-12-27 15:13:10.067685,-8948
2021-12-27 15:13:10.067695,-1361
2021-12-27 15:13:10.067710,-2926
2021-12-27 15:13:10.067720,-12722
2021-12-27 15:13:10.067730,2697
2021-12-27 15:13:10.067745,3783
2021-12-27 15:13:10.067760,4176
2021-12-27 15:13:10.067773,1298
2021-12-27 15:13:10.067783,2153
2021-12-27 15:13:10.067793,4158
2021-12-27 15:13:10.067818,4260
2021-12-27 15:13:10.067828,-852
2021-12-27 15:13:10.262348,2039
2021-12-27 15:13:10.262363,379
2021-12-27 15:13:10.262369,1548
2021-12-27 15:13:10.262382,-2095
2021-12-27 15:13:10.262389,-18966
2021-12-27 15:13:10.262395,-18966
2021-12-27 15:13:10.262401,-8858
2021-12-27 15:13:10.262407,606
2021-12-27 15:13:10.262413,-7438
2021-12-27 15:13:10.262426,-14972
2021-12-27 15:13:10.262432,-12967
2021-12-27 15:13:10.262451,3264
2021-12-27 15:13:10.262457,-2986
2021-12-27 15:13:10.262463,3903
2021-12-27 15:13:10.262482,-3134
2021-12-27 15:13:10.262488,4621
2021-12-27 15:13:10.505662,-1356
2021-12-27 15:13:10.505676,-15794
2021-12-27 15:13:10.505683,-10377
2021-12-27 15:13:10.505696,3590
2021-12-27 15:13:10.505702,3713
2021-12-27 15:13:10.505708,-3755
2021-12-27 15:13:10.505715,-12201
2021-12-27 15:13:10.505721,3030
2021-12-27 15:13:10.505727,1854
2021-12-27 15:13:10.505733,-7091
2021-12-27 15:13:10.505739,3296
2021-12-27 15:13:10.505745,1375
2021-12-27 15:13:10.505751,-2576
2021-12-27 15:13:10.505758,4922
2021-12-27 15:13:10.505767,495
2021-12-27 15:13:10.505773,-7837
2021-12-27 15:13:10.505780,-2275
2021-12-27 15:13:10.505786,1687
2021-12-27 15:13:10.505792,-680
2021-12-27 15:13:10.505798,4572
2021-12-27 15:13:10.505804,-2319
2021-12-27 15:13:10.505810,-9198
2021-12-27 15:13:10.505817,-7137
2021-12-27 15:13:10.505823,-14995
2021-12-27 15:13:10.505829,-10191
2021-12-27 15:13:10.797339,3755
2021-12-27 15:13:10.797370,4699
2021-12-27 15:13:10.797381,872
2021-12-27 15:13:10.797391,-3151
2021-12-27 15:13:10.797400,-5334
2021-12-27 15:13:10.797409,-11817
2021-12-27 15:13:10.797419,-7293
2021-12-27 15:13:10.797434,3329
2021-12-27 15:13:10.797443,-3699
2021-12-27 15:13:10.797453,2127
2021-12-27 15:13:10.797462,-8638
2021-12-27 15:13:10.797471,-16947
2021-12-27 15:13:10.797481,-17352
2021-12-27 15:13:10.797490,-18966
2021-12-27 15:13:10.797499,-12685
2021-12-27 15:13:10.797509,3313
2021-12-27 15:13:10.797523,-736
2021-12-27 15:13:10.797532,4111
2021-12-27 15:13:10.797547,2600
2021-12-27 15:13:10.797556,4746
2021-12-27 15:13:10.797571,1414
2021-12-27 15:13:10.797590,3352
2021-12-27 15:13:10.993208,3447
2021-12-27 15:13:10.993236,4181
2021-12-27 15:13:10.993248,4111
2021-12-27 15:13:10.993273,-451
2021-12-27 15:13:10.993283,-11759
2021-12-27 15:13:10.993292,1278
2021-12-27 15:13:10.993307,3718
2021-12-27 15:13:10.993321,-442
2021-12-27 15:13:10.993331,-13171
2021-12-27 15:13:10.993340,-4943
2021-12-27 15:13:10.993350,1954
2021-12-27 15:13:10.993359,-4732
2021-12-27 15:13:10.993369,-8524
2021-12-27 15:13:10.993389,-4829
2021-12-27 15:13:10.993398,2287
2021-12-27 15:13:10.993423,2863
2021-12-27 15:13:10.993433,-1322
2021-12-27 15:13:10.993442,2757
2021-12-27 15:13:11.188678,4361
2021-12-27 15:13:11.188694,1102
2021-12-27 15:13:11.188701,-2465
2021-12-27 15:13:11.188721,-10990
2021-12-27 15:13:11.188727,-14611
2021-12-27 15:13:11.188743,3841
2021-12-27 15:13:11.188749,-7742
2021-12-27 15:13:11.188755,-15537
2021-12-27 15:13:11.188761,-444
2021-12-27 15:13:11.188771,-5806
2021-12-27 15:13:11.188777,-18966
2021-12-27 15:13:11.188783,-4586
2021-12-27 15:13:11.188789,-1819
2021-12-27 15:13:11.188795,689
2021-12-27 15:13:11.188812,2968
2021-12-27 15:13:11.188818,-3408
2021-12-27 15:13:11.188824,2120
2021-12-27 15:13:11.431889,1391
2021-12-27 15:13:11.431911,-7665
2021-12-27 15:13:11.431922,-14185
2021-12-27 15:13:11.431932,3563
2021-12-27 15:13:11.431947,3993
2021-12-27 15:13:11.431961,-4929
2021-12-27 15:13:11.431971,-15077
2021-12-27 15:13:11.431980,-1435
2021-12-27 15:13:11.432000,2945
2021-12-27 15:13:11.432010,224
2021-12-27 15:13:11.432019,1664
2021-12-27 15:13:11.432028,761
2021-12-27 15:13:11.432048,-11083
2021-12-27 15:13:11.432057,-12104
2021-12-27 15:13:11.432067,-726
2021-12-27 15:13:11.432076,4341
2021-12-27 15:13:11.432101,2407
2021-12-27 15:13:11.432110,893
2021-12-27 15:13:11.432119,4155
2021-12-27 15:13:11.675675,2766
2021-12-27 15:13:11.675703,-775
2021-12-27 15:13:11.675710,3141
2021-12-27 15:13:11.675716,-5704
2021-12-27 15:13:11.675722,-9372
2021-12-27 15:13:11.675732,3546
2021-12-27 15:13:11.675738,-5547
2021-12-27 15:13:11.675744,-9207
2021-12-27 15:13:11.675753,-13660
2021-12-27 15:13:11.675760,-13322
2021-12-27 15:13:11.675766,-2296
2021-12-27 15:13:11.675775,-6742
2021-12-27 15:13:11.675782,-12129
2021-12-27 15:13:11.675788,-2676
2021-12-27 15:13:11.675794,-11858
2021-12-27 15:13:11.675800,-14417
2021-12-27 15:13:11.675806,-696
2021-12-27 15:13:11.675812,-4459
2021-12-27 15:13:11.675818,-13454
2021-12-27 15:13:11.675825,-18966
2021-12-27 15:13:11.675831,-18966
2021-12-27 15:13:11.675837,-10740
2021-12-27 15:13:11.675843,437
2021-12-27 15:13:11.675849,2099
2021-12-27 15:13:11.675855,2113
2021-12-27 15:13:11.919898,-1910
2021-12-27 15:13:11.919913,826
2021-12-27 15:13:11.919920,3940
2021-12-27 15:13:11.919927,2572
2021-12-27 15:13:11.919936,-886
2021-12-27 15:13:11.919943,-15347
2021-12-27 15:13:11.919949,-5399
2021-12-27 15:13:11.919955,4581
2021-12-27 15:13:11.919968,2424
2021-12-27 15:13:11.919974,-6077
2021-12-27 15:13:11.919980,-11756
2021-12-27 15:13:11.919986,1782
2021-12-27 15:13:11.920002,4977
2021-12-27 15:13:11.920008,-3327
2021-12-27 15:13:11.920015,1900
2021-12-27 15:13:11.920027,-2081
2021-12-27 15:13:11.920033,-9390
2021-12-27 15:13:11.920040,-1919
2021-12-27 15:13:11.920046,641
2021-12-27 15:13:12.114452,175
2021-12-27 15:13:12.114467,-4424
2021-12-27 15:13:12.114487,-8397
2021-12-27 15:13:12.114493,-14750
2021-12-27 15:13:12.114500,97
2021-12-27 15:13:12.114512,3472
2021-12-27 15:13:12.114518,1673
2021-12-27 15:13:12.114524,-13074
2021-12-27 15:13:12.114531,-6223
2021-12-27 15:13:12.114550,-4811
2021-12-27 15:13:12.114556,97
2021-12-27 15:13:12.114569,4658
2021-12-27 15:13:12.114575,-10194
2021-12-27 15:13:12.114581,-14889
2021-12-27 15:13:12.114587,-7575
2021-12-27 15:13:12.114593,-10603
2021-12-27 15:13:12.358644,-15190
2021-12-27 15:13:12.358667,90
2021-12-27 15:13:12.358678,-8529
2021-12-27 15:13:12.358684,-18369
2021-12-27 15:13:12.358691,1106
2021-12-27 15:13:12.358707,-2606
2021-12-27 15:13:12.358713,-9249
2021-12-27 15:13:12.358719,-7582
2021-12-27 15:13:12.358732,870
2021-12-27 15:13:12.358738,2523
2021-12-27 15:13:12.358744,4107
2021-12-27 15:13:12.358750,518
2021-12-27 15:13:12.358763,4792
2021-12-27 15:13:12.358769,3419
2021-12-27 15:13:12.358776,1819
2021-12-27 15:13:12.358782,4179
2021-12-27 15:13:12.358788,4026
2021-12-27 15:13:12.358801,-2664
2021-12-27 15:13:12.358807,-7781
2021-12-27 15:13:12.358813,-9768
2021-12-27 15:13:12.602008,-1030
2021-12-27 15:13:12.602035,2569
2021-12-27 15:13:12.602042,-85
2021-12-27 15:13:12.602052,-5917
2021-12-27 15:13:12.602058,-12467
2021-12-27 15:13:12.602064,731
2021-12-27 15:13:12.602074,2081
2021-12-27 15:13:12.602080,1606
2021-12-27 15:13:12.602086,4012
2021-12-27 15:13:12.602092,-9193
2021-12-27 15:13:12.602098,-6399
2021-12-27 15:13:12.602108,2437
2021-12-27 15:13:12.602114,2690
2021-12-27 15:13:12.602123,-1405
2021-12-27 15:13:12.602130,60
2021-12-27 15:13:12.602136,4737
2021-12-27 15:13:12.602142,3116
2021-12-27 15:13:12.602158,796
2021-12-27 15:13:12.602164,1361
2021-12-27 15:13:12.602174,3834
2021-12-27 15:13:12.893444,-4155
2021-12-27 15:13:12.893474,-14363
2021-12-27 15:13:12.893485,-1030
2021-12-27 15:13:12.893495,3567
2021-12-27 15:13:12.893505,-5989
2021-12-27 15:13:12.893514,-13854
2021-12-27 15:13:12.893524,-15317
2021-12-27 15:13:12.893533,-10682
2021-12-27 15:13:12.893543,-13055
2021-12-27 15:13:12.893552,-4104
2021-12-27 15:13:12.893577,-314
2021-12-27 15:13:12.893587,-14051
2021-12-27 15:13:12.893596,-3947
2021-12-27 15:13:12.893621,2787
2021-12-27 15:13:12.893631,-1389
2021-12-27 15:13:12.893641,-2134
2021-12-27 15:13:12.893670,1569
2021-12-27 15:13:12.893680,-5051
2021-12-27 15:13:13.089217,-9492
2021-12-27 15:13:13.089233,-13021
2021-12-27 15:13:13.089240,3199
2021-12-27 15:13:13.089252,3885
2021-12-27 15:13:13.089259,-1472
2021-12-27 15:13:13.089265,-14803
2021-12-27 15:13:13.089271,-8629
2021-12-27 15:13:13.089283,3271
2021-12-27 15:13:13.089289,2861
2021-12-27 15:13:13.089296,-15841
2021-12-27 15:13:13.089302,-13479
2021-12-27 15:13:13.089318,1396
2021-12-27 15:13:13.089324,-1284
2021-12-27 15:13:13.089330,-1511
2021-12-27 15:13:13.089336,4512
2021-12-27 15:13:13.089349,2609
2021-12-27 15:13:13.089355,951
2021-12-27 15:13:13.089361,-4109
2021-12-27 15:13:13.089367,4415
2021-12-27 15:13:13.332480,4889
2021-12-27 15:13:13.332491,-3546
2021-12-27 15:13:13.332496,-8219
2021-12-27 15:13:13.332501,-5017
2021-12-27 15:13:13.332506,3866
2021-12-27 15:13:13.332514,1305
2021-12-27 15:13:13.332519,-7168
2021-12-27 15:13:13.332524,-16607
2021-12-27 15:13:13.332529,-18966
2021-12-27 15:13:13.332534,194
2021-12-27 15:13:13.332541,599
2021-12-27 15:13:13.332546,1210
2021-12-27 15:13:13.332551,-3456
2021-12-27 15:13:13.332556,-11222
2021-12-27 15:13:13.332561,-4549
2021-12-27 15:13:13.332571,-1021
2021-12-27 15:13:13.332576,3771
2021-12-27 15:13:13.332584,-1231
2021-12-27 15:13:13.332597,-178
2021-12-27 15:13:13.332604,3384
2021-12-27 15:13:13.577331,766
2021-12-27 15:13:13.577368,3790
2021-12-27 15:13:13.577378,2160
2021-12-27 15:13:13.577388,3368
2021-12-27 15:13:13.577403,-2134
2021-12-27 15:13:13.577412,-8696
2021-12-27 15:13:13.577422,3674
2021-12-27 15:13:13.577431,4526
2021-12-27 15:13:13.577441,1933
2021-12-27 15:13:13.577455,-9629
2021-12-27 15:13:13.577465,-11930
2021-12-27 15:13:13.577474,2845
2021-12-27 15:13:13.577484,3776
2021-12-27 15:13:13.577493,3676
2021-12-27 15:13:13.577503,4368
2021-12-27 15:13:13.577512,-4746
2021-12-27 15:13:13.577522,-12706
2021-12-27 15:13:13.577531,-4352
2021-12-27 15:13:13.577546,3146
2021-12-27 15:13:13.577565,-2204
2021-12-27 15:13:13.577575,-974
2021-12-27 15:13:13.577584,2664
2021-12-27 15:13:13.577593,1977
2021-12-27 15:13:13.772453,4834
2021-12-27 15:13:13.772474,-247
2021-12-27 15:13:13.772482,-1153
2021-12-27 15:13:13.772488,-939
2021-12-27 15:13:13.772507,-9907
2021-12-27 15:13:13.772514,-13162
2021-12-27 15:13:13.772520,3419
2021-12-27 15:13:13.772532,-5091
2021-12-27 15:13:13.772538,-17813
2021-12-27 15:13:13.772544,-18966
2021-12-27 15:13:13.772551,-14998
2021-12-27 15:13:13.772557,-4190
2021-12-27 15:13:13.772563,3438
2021-12-27 15:13:13.772569,-3567
2021-12-27 15:13:13.772575,-18966
2021-12-27 15:13:13.772581,-18966
2021-12-27 15:13:13.772588,4405
2021-12-27 15:13:13.772597,-676
2021-12-27 15:13:13.772603,-1507
2021-12-27 15:13:13.772609,-14604
2021-12-27 15:13:13.772615,-18841
2021-12-27 15:13:13.772621,-8795
2021-12-27 15:13:13.772627,-5230
2021-12-27 15:13:14.015867,1738
2021-12-27 15:13:14.015992,2704
2021-12-27 15:13:14.016014,-9543
2021-12-27 15:13:14.016025,-18966
2021-12-27 15:13:14.016034,-10909
2021-12-27 15:13:14.016055,469
2021-12-27 15:13:14.016070,-2435
2021-12-27 15:13:14.016079,-10126
2021-12-27 15:13:14.016089,-5186
2021-12-27 15:13:14.016098,3929
2021-12-27 15:13:14.016113,74
2021-12-27 15:13:14.016123,-13076
2021-12-27 15:13:14.016133,-12523
2021-12-27 15:13:14.016142,893
2021-12-27 15:13:14.016162,967
2021-12-27 15:13:14.016172,2294
2021-12-27 15:13:14.016181,-2400
2021-12-27 15:13:14.016191,3739
2021-12-27 15:13:14.016215,1458
2021-12-27 15:13:14.016225,-919
2021-12-27 15:13:14.016234,2289
2021-12-27 15:13:14.210996,-3294
2021-12-27 15:13:14.211016,-2421
2021-12-27 15:13:14.211023,1190
2021-12-27 15:13:14.211030,-1745
2021-12-27 15:13:14.211036,-7290
2021-12-27 15:13:14.211042,-17190
2021-12-27 15:13:14.211048,-12006
2021-12-27 15:13:14.211054,-1409
2021-12-27 15:13:14.211060,-7295
2021-12-27 15:13:14.211066,-12199
2021-12-27 15:13:14.211073,-10444
2021-12-27 15:13:14.211079,-10634
2021-12-27 15:13:14.211085,-14470
2021-12-27 15:13:14.211091,-10759
2021-12-27 15:13:14.211097,2606
2021-12-27 15:13:14.211104,1477
2021-12-27 15:13:14.211110,-3993
2021-12-27 15:13:14.211116,-6156
2021-12-27 15:13:14.211122,-9856
2021-12-27 15:13:14.211128,4151
2021-12-27 15:13:14.211138,-14111
2021-12-27 15:13:14.211144,-18966
2021-12-27 15:13:14.211150,-9589
2021-12-27 15:13:14.211156,3090
2021-12-27 15:13:14.211166,2028
2021-12-27 15:13:14.211172,4945
2021-12-27 15:13:14.211181,4755
2021-12-27 15:13:14.453951,4192
2021-12-27 15:13:14.453975,3301
2021-12-27 15:13:14.453992,4577
2021-12-27 15:13:14.454002,4232
2021-12-27 15:13:14.454017,-4389
2021-12-27 15:13:14.454026,-8828
2021-12-27 15:13:14.454059,-3144
2021-12-27 15:13:14.454069,-12384
2021-12-27 15:13:14.454080,-13430
2021-12-27 15:13:14.454089,-5762
2021-12-27 15:13:14.454116,817
2021-12-27 15:13:14.454144,1905
2021-12-27 15:13:14.454197,1706
2021-12-27 15:13:14.454215,2481
2021-12-27 15:13:14.454225,1979
2021-12-27 15:13:14.649404,-419
2021-12-27 15:13:14.649420,-111
2021-12-27 15:13:14.649437,-444
2021-12-27 15:13:14.649443,-18128
2021-12-27 15:13:14.649449,-9967
2021-12-27 15:13:14.649482,2421
2021-12-27 15:13:14.649495,-6656
2021-12-27 15:13:14.649506,-17711
2021-12-27 15:13:14.649516,-8580
2021-12-27 15:13:14.649526,942
2021-12-27 15:13:14.649536,2685
2021-12-27 15:13:14.649551,1363
2021-12-27 15:13:14.649557,-6878
2021-12-27 15:13:14.649591,-5396
2021-12-27 15:13:14.649598,-18966
2021-12-27 15:13:14.649613,-11057
2021-12-27 15:13:14.940697,2037
2021-12-27 15:13:14.940719,4378
2021-12-27 15:13:14.940729,-8330
2021-12-27 15:13:14.940739,-11958
2021-12-27 15:13:14.940764,4822
2021-12-27 15:13:14.940774,-8906
2021-12-27 15:13:14.940783,-12388
2021-12-27 15:13:14.940792,2051
2021-12-27 15:13:14.940812,1345
2021-12-27 15:13:14.940821,2757
2021-12-27 15:13:14.940831,-307
2021-12-27 15:13:14.940841,-41
2021-12-27 15:13:14.940850,-101
2021-12-27 15:13:14.940859,-6098
2021-12-27 15:13:14.940869,2606
2021-12-27 15:13:14.940879,4602
2021-12-27 15:13:14.940888,-2801
2021-12-27 15:13:14.940898,4211
2021-12-27 15:13:14.940922,944
2021-12-27 15:13:14.940931,3625
2021-12-27 15:13:14.940941,3016
2021-12-27 15:13:15.137041,4947
2021-12-27 15:13:15.137077,2711
2021-12-27 15:13:15.137087,868
2021-12-27 15:13:15.137097,-1088
2021-12-27 15:13:15.137106,-12046
2021-12-27 15:13:15.137115,-4361
2021-12-27 15:13:15.137135,845
2021-12-27 15:13:15.137144,-476
2021-12-27 15:13:15.137153,-6267
2021-12-27 15:13:15.137163,-11685
2021-12-27 15:13:15.137172,4081
2021-12-27 15:13:15.137187,-1898
2021-12-27 15:13:15.137196,4447
2021-12-27 15:13:15.137211,-826
2021-12-27 15:13:15.137220,2743
2021-12-27 15:13:15.137230,-5915
2021-12-27 15:13:15.137239,-12516
2021-12-27 15:13:15.137253,3528
2021-12-27 15:13:15.137267,-597
2021-12-27 15:13:15.137277,810
2021-12-27 15:13:15.137291,4595
2021-12-27 15:13:15.137301,2500
2021-12-27 15:13:15.380902,4005
2021-12-27 15:13:15.380923,-2565
2021-12-27 15:13:15.380930,-5054
2021-12-27 15:13:15.380937,-15933
2021-12-27 15:13:15.380943,-3972
2021-12-27 15:13:15.380952,-7591
2021-12-27 15:13:15.380959,-15706
2021-12-27 15:13:15.380965,-1509
2021-12-27 15:13:15.380977,4857
2021-12-27 15:13:15.380983,3178
2021-12-27 15:13:15.380990,-9647
2021-12-27 15:13:15.380996,-9886
2021-12-27 15:13:15.381015,-136
2021-12-27 15:13:15.381021,-877
2021-12-27 15:13:15.381028,-1183
2021-12-27 15:13:15.381034,-6600
2021-12-27 15:13:15.381040,-4695
2021-12-27 15:13:15.381046,3445
2021-12-27 15:13:15.381056,-2720
2021-12-27 15:13:15.381062,-1923
2021-12-27 15:13:15.575861,-3764
2021-12-27 15:13:15.575882,-2597
2021-12-27 15:13:15.575908,469
2021-12-27 15:13:15.575918,-12011
2021-12-27 15:13:15.575928,-16491
2021-12-27 15:13:15.575938,2167
2021-12-27 15:13:15.575952,3278
2021-12-27 15:13:15.575962,4679
2021-12-27 15:13:15.575971,710
2021-12-27 15:13:15.575980,-14252
2021-12-27 15:13:15.575990,-1280
2021-12-27 15:13:15.576004,4787
2021-12-27 15:13:15.576019,217
2021-12-27 15:13:15.576028,-5602
2021-12-27 15:13:15.576038,-145
2021-12-27 15:13:15.576053,-1949
2021-12-27 15:13:15.576062,-9184
2021-12-27 15:13:15.576072,977
2021-12-27 15:13:15.576081,162
2021-12-27 15:13:15.576091,-4764
2021-12-27 15:13:15.819724,4426
2021-12-27 15:13:15.819739,4192
2021-12-27 15:13:15.819746,-12000
2021-12-27 15:13:15.819752,-16642
2021-12-27 15:13:15.819758,898
2021-12-27 15:13:15.819768,-4790
2021-12-27 15:13:15.819774,-18966
2021-12-27 15:13:15.819781,-15306
2021-12-27 15:13:15.819787,-8212
2021-12-27 15:13:15.819793,-6311
2021-12-27 15:13:15.819806,97
2021-12-27 15:13:15.819812,-6399
2021-12-27 15:13:15.819818,-13986
2021-12-27 15:13:15.819824,-3301
2021-12-27 15:13:15.819834,4581
2021-12-27 15:13:15.819840,1060
2021-12-27 15:13:15.819846,-10228
2021-12-27 15:13:15.819852,-12740
2021-12-27 15:13:15.819859,-7848
2021-12-27 15:13:15.819865,-9756
2021-12-27 15:13:15.819871,-7054
2021-12-27 15:13:15.819877,-11773
2021-12-27 15:13:15.819883,-14722
2021-12-27 15:13:15.819889,-3044
2021-12-27 15:13:15.819895,-611
2021-12-27 15:13:16.111629,328
2021-12-27 15:13:16.111648,4079
2021-12-27 15:13:16.111655,1650
2021-12-27 15:13:16.111662,92
2021-12-27 15:13:16.111668,-2671
2021-12-27 15:13:16.111674,-9643
2021-12-27 15:13:16.111681,-12062
2021-12-27 15:13:16.111687,2143
2021-12-27 15:13:16.111697,-1819
2021-12-27 15:13:16.111703,1768
2021-12-27 15:13:16.111709,2294
2021-12-27 15:13:16.111715,-11754
2021-12-27 15:13:16.111721,-81
2021-12-27 15:13:16.111731,601
2021-12-27 15:13:16.111743,1018
2021-12-27 15:13:16.111749,2771
2021-12-27 15:13:16.111756,4401
2021-12-27 15:13:16.111762,4869
2021-12-27 15:13:16.111768,4227
2021-12-27 15:13:16.111781,-99
2021-12-27 15:13:16.111790,1595
2021-12-27 15:13:16.111796,-8689
2021-12-27 15:13:16.111802,-3618
2021-12-27 15:13:16.306671,1618
2021-12-27 15:13:16.306689,3137
2021-12-27 15:13:16.306694,2000
2021-12-27 15:13:16.306698,1502
2021-12-27 15:13:16.306706,50
2021-12-27 15:13:16.306710,-9633
2021-12-27 15:13:16.306714,-9925
2021-12-27 15:13:16.306739,-11550
2021-12-27 15:13:16.306762,-15850
2021-12-27 15:13:16.306766,1122
2021-12-27 15:13:16.306789,4862
2021-12-27 15:13:16.306793,-3352
2021-12-27 15:13:16.306798,-12775
2021-12-27 15:13:16.306802,-6001
2021-12-27 15:13:16.306811,4669
2021-12-27 15:13:16.306817,-2238
2021-12-27 15:13:16.306821,-2722
2021-12-27 15:13:16.502192,-2901
2021-12-27 15:13:16.502215,-7800
2021-12-27 15:13:16.502223,-3669
2021-12-27 15:13:16.502230,-1785
2021-12-27 15:13:16.502236,1690
2021-12-27 15:13:16.502249,4392
2021-12-27 15:13:16.502255,-583
2021-12-27 15:13:16.502261,-13669
2021-12-27 15:13:16.502267,-1069
2021-12-27 15:13:16.502283,-2336
2021-12-27 15:13:16.502290,-17290
2021-12-27 15:13:16.502296,-6630
2021-12-27 15:13:16.502309,4162
2021-12-27 15:13:16.502315,2646
2021-12-27 15:13:16.502321,-627
2021-12-27 15:13:16.502328,-3167
2021-12-27 15:13:16.502341,4389
2021-12-27 15:13:16.502350,-2440
2021-12-27 15:13:16.502357,-4010
2021-12-27 15:13:16.745585,-6992
2021-12-27 15:13:16.745605,-18966
2021-12-27 15:13:16.745617,-15292
2021-12-27 15:13:16.745624,-4054
2021-12-27 15:13:16.745637,1328
2021-12-27 15:13:16.745643,1694
2021-12-27 15:13:16.745650,-7957
2021-12-27 15:13:16.745656,-8804
2021-12-27 15:13:16.745668,4482
2021-12-27 15:13:16.745675,770
2021-12-27 15:13:16.745681,777
2021-12-27 15:13:16.745687,2498
2021-12-27 15:13:16.745693,-3072
2021-12-27 15:13:16.745699,-13472
2021-12-27 15:13:16.745706,-18512
2021-12-27 15:13:16.745712,-2192
2021-12-27 15:13:16.745721,-1923
2021-12-27 15:13:16.745727,1963
2021-12-27 15:13:16.745737,3264
2021-12-27 15:13:16.745743,2525
2021-12-27 15:13:16.745752,2644
2021-12-27 15:13:17.036950,2972
2021-12-27 15:13:17.036981,4956
2021-12-27 15:13:17.036998,-1944
2021-12-27 15:13:17.037007,-10786
2021-12-27 15:13:17.037017,-13178
2021-12-27 15:13:17.037027,-13579
2021-12-27 15:13:17.037036,983
2021-12-27 15:13:17.037050,-632
2021-12-27 15:13:17.037065,2250
2021-12-27 15:13:17.037074,-12426
2021-12-27 15:13:17.037084,-5160
2021-12-27 15:13:17.037098,4565
2021-12-27 15:13:17.037108,3296
2021-12-27 15:13:17.037127,-1326
2021-12-27 15:13:17.037137,3646
2021-12-27 15:13:17.037152,2949
2021-12-27 15:13:17.037166,4618
2021-12-27 15:13:17.037176,-789
2021-12-27 15:13:17.037185,3746
2021-12-27 15:13:17.037194,1504
2021-12-27 15:13:17.233488,3639
2021-12-27 15:13:17.233508,1782
2021-12-27 15:13:17.233516,-1419
2021-12-27 15:13:17.233522,1581
2021-12-27 15:13:17.233532,2831
2021-12-27 15:13:17.233538,-5607
2021-12-27 15:13:17.233544,-18825
2021-12-27 15:13:17.233550,-15125
2021-12-27 15:13:17.233556,923
2021-12-27 15:13:17.233562,4667
2021-12-27 15:13:17.233575,-7202
2021-12-27 15:13:17.233581,-17072
2021-12-27 15:13:17.233587,-8865
2021-12-27 15:13:17.233600,2924
2021-12-27 15:13:17.233609,-1491
2021-12-27 15:13:17.233615,-4783
2021-12-27 15:13:17.233631,2312
2021-12-27 15:13:17.233638,-12289
2021-12-27 15:13:17.233644,-18966
2021-12-27 15:13:17.233650,-8098
2021-12-27 15:13:17.477164,3146
2021-12-27 15:13:17.477186,-5461
2021-12-27 15:13:17.477197,2204
2021-12-27 15:13:17.477217,4382
2021-12-27 15:13:17.477226,-9710
2021-12-27 15:13:17.477236,-18966
2021-12-27 15:13:17.477245,-9562
2021-12-27 15:13:17.477265,4329
2021-12-27 15:13:17.477274,57
2021-12-27 15:13:17.477283,-10421
2021-12-27 15:13:17.477293,-13382
2021-12-27 15:13:17.477312,2382
2021-12-27 15:13:17.477322,4646
2021-12-27 15:13:17.477331,581
2021-12-27 15:13:17.477340,-4014
2021-12-27 15:13:17.477370,-1099
2021-12-27 15:13:17.477380,138
2021-12-27 15:13:17.477389,3289
2021-12-27 15:13:17.720888,1150
2021-12-27 15:13:17.720902,-858
2021-12-27 15:13:17.720909,-8103
2021-12-27 15:13:17.720916,-16579
2021-12-27 15:13:17.720922,-8798
2021-12-27 15:13:17.720928,-1092
2021-12-27 15:13:17.720934,305
2021-12-27 15:13:17.720941,-4845
2021-12-27 15:13:17.720947,-12372
2021-12-27 15:13:17.720953,-12817
2021-12-27 15:13:17.720959,-9525
2021-12-27 15:13:17.720965,-1849
2021-12-27 15:13:17.720972,-6795
2021-12-27 15:13:17.720978,-15574
2021-12-27 15:13:17.720984,-6202
2021-12-27 15:13:17.720990,-9636
2021-12-27 15:13:17.720996,-11578
2021-12-27 15:13:17.721003,4723
2021-12-27 15:13:17.721009,2090
2021-12-27 15:13:17.721015,-3461
2021-12-27 15:13:17.721021,1666
2021-12-27 15:13:17.721027,-743
2021-12-27 15:13:17.721033,-1095
2021-12-27 15:13:17.721040,3058
2021-12-27 15:13:17.721046,4565
2021-12-27 15:13:17.721052,1414
2021-12-27 15:13:17.721058,2143
2021-12-27 15:13:17.965050,-7258
2021-12-27 15:13:17.965080,-16139
2021-12-27 15:13:17.965091,-210
2021-12-27 15:13:17.965101,3347
2021-12-27 15:13:17.965110,2958
2021-12-27 15:13:17.965120,426
2021-12-27 15:13:17.965129,-12856
2021-12-27 15:13:17.965139,-6718
2021-12-27 15:13:17.965154,4348
2021-12-27 15:13:17.965163,4348
2021-12-27 15:13:17.965173,4132
2021-12-27 15:13:17.965182,-1389
2021-12-27 15:13:17.965191,-6357
2021-12-27 15:13:17.965201,1379
2021-12-27 15:13:17.965215,2264
2021-12-27 15:13:17.965230,1787
2021-12-27 15:13:17.965239,-11682
2021-12-27 15:13:17.965248,-1157
2021-12-27 15:13:17.965273,4549
2021-12-27 15:13:17.965282,2021
2021-12-27 15:13:17.965292,486
2021-12-27 15:13:17.965301,3046
2021-12-27 15:13:18.111066,4267
2021-12-27 15:13:18.111083,-2901
2021-12-27 15:13:18.111090,2470
2021-12-27 15:13:18.111106,-6515
2021-12-27 15:13:18.111112,-15905
2021-12-27 15:13:18.111118,-6563
2021-12-27 15:13:18.111131,3808
2021-12-27 15:13:18.111140,-3012
2021-12-27 15:13:18.111146,-11953
2021-12-27 15:13:18.111162,4371
2021-12-27 15:13:18.111168,-11536
2021-12-27 15:13:18.111175,-15560
2021-12-27 15:13:18.111181,2794
2021-12-27 15:13:18.111194,3526
2021-12-27 15:13:18.111200,3331
2021-12-27 15:13:18.111206,-3611
2021-12-27 15:13:18.111212,921
2021-12-27 15:13:18.353963,1071
2021-12-27 15:13:18.353973,-17514
2021-12-27 15:13:18.353978,-10610
2021-12-27 15:13:18.353983,-4019
2021-12-27 15:13:18.353987,-14951
2021-12-27 15:13:18.353991,-4218
2021-12-27 15:13:18.353996,3250
2021-12-27 15:13:18.354000,-13720
2021-12-27 15:13:18.354005,-16306
2021-12-27 15:13:18.354014,1947
2021-12-27 15:13:18.354018,3847
2021-12-27 15:13:18.354023,3454
2021-12-27 15:13:18.354027,-8862
2021-12-27 15:13:18.354031,-4012
2021-12-27 15:13:18.354043,-2278
2021-12-27 15:13:18.354047,-296
2021-12-27 15:13:18.354052,4121
2021-12-27 15:13:18.354061,3208
2021-12-27 15:13:18.354065,1102
2021-12-27 15:13:18.354070,2611
2021-12-27 15:13:18.354074,1213
2021-12-27 15:13:18.598335,2639
2021-12-27 15:13:18.598355,1671
2021-12-27 15:13:18.598365,-7922
2021-12-27 15:13:18.598375,-12335
2021-12-27 15:13:18.598385,-993
2021-12-27 15:13:18.598405,-1095
2021-12-27 15:13:18.598414,13
2021-12-27 15:13:18.598424,-7015
2021-12-27 15:13:18.598433,-8483
2021-12-27 15:13:18.598453,-2023
2021-12-27 15:13:18.598467,3831
2021-12-27 15:13:18.598477,-6846
2021-12-27 15:13:18.598486,-7112
2021-12-27 15:13:18.598496,2521
2021-12-27 15:13:18.598511,1196
2021-12-27 15:13:18.598520,3502
2021-12-27 15:13:18.598529,2155
2021-12-27 15:13:18.598539,1518
2021-12-27 15:13:18.598553,2431
2021-12-27 15:13:18.598563,3507
2021-12-27 15:13:18.842802,85
2021-12-27 15:13:18.842832,2433
2021-12-27 15:13:18.842848,585
2021-12-27 15:13:18.842863,3401
2021-12-27 15:13:18.842873,-9483
2021-12-27 15:13:18.842883,-13162
2021-12-27 15:13:18.842892,-564
2021-12-27 15:13:18.842907,-9643
2021-12-27 15:13:18.842916,-18966
2021-12-27 15:13:18.842926,-13910
2021-12-27 15:13:18.842935,-9082
2021-12-27 15:13:18.842945,-2951
2021-12-27 15:13:18.842954,958
2021-12-27 15:13:18.842964,4336
2021-12-27 15:13:18.842978,2942
2021-12-27 15:13:18.842988,-3468
2021-12-27 15:13:18.842997,-10048
2021-12-27 15:13:18.843007,-10932
2021-12-27 15:13:18.843026,4211
2021-12-27 15:13:18.843036,3456
2021-12-27 15:13:18.843045,-2088
2021-12-27 15:13:18.843055,1750
2021-12-27 15:13:19.133466,1879
2021-12-27 15:13:19.133488,-2898
2021-12-27 15:13:19.133498,-606
2021-12-27 15:13:19.133508,4632
2021-12-27 15:13:19.133528,-733
2021-12-27 15:13:19.133537,-11983
2021-12-27 15:13:19.133547,-14400
2021-12-27 15:13:19.133566,3070
2021-12-27 15:13:19.133581,-10205
2021-12-27 15:13:19.133590,-17848
2021-12-27 15:13:19.133600,2426
2021-12-27 15:13:19.133619,3739
2021-12-27 15:13:19.133628,808
2021-12-27 15:13:19.133638,-7327
2021-12-27 15:13:19.133647,-12382
2021-12-27 15:13:19.133656,-2727
2021-12-27 15:13:19.133676,2887
2021-12-27 15:13:19.133685,-6174
2021-12-27 15:13:19.133695,1173
2021-12-27 15:13:19.280886,120
2021-12-27 15:13:19.280901,-16308
2021-12-27 15:13:19.280908,-14396
2021-12-27 15:13:19.280914,4084
2021-12-27 15:13:19.280924,3653
2021-12-27 15:13:19.280930,831
2021-12-27 15:13:19.280936,-3813
2021-12-27 15:13:19.280943,-14968
2021-12-27 15:13:19.280949,-1340
2021-12-27 15:13:19.280959,4584
2021-12-27 15:13:19.280965,3678
2021-12-27 15:13:19.280971,-6901
2021-12-27 15:13:19.280977,-18966
2021-12-27 15:13:19.280983,-8851
2021-12-27 15:13:19.280996,1115
2021-12-27 15:13:19.281002,-76
2021-12-27 15:13:19.281009,3002
2021-12-27 15:13:19.281015,-3861
2021-12-27 15:13:19.281021,-6679
2021-12-27 15:13:19.281027,-4656
2021-12-27 15:13:19.281034,37
2021-12-27 15:13:19.281041,4438
2021-12-27 15:13:19.281052,-1456
2021-12-27 15:13:19.281065,-393
2021-12-27 15:13:19.524814,1203
2021-12-27 15:13:19.524835,-2979
2021-12-27 15:13:19.524846,-8675
2021-12-27 15:13:19.524856,-8881
2021-12-27 15:13:19.524876,-2393
2021-12-27 15:13:19.524885,4308
2021-12-27 15:13:19.524895,-4044
2021-12-27 15:13:19.524904,-11520
2021-12-27 15:13:19.524914,3762
2021-12-27 15:13:19.524928,803
2021-12-27 15:13:19.524938,3074
2021-12-27 15:13:19.524947,4417
2021-12-27 15:13:19.524957,1122
2021-12-27 15:13:19.524966,1201
2021-12-27 15:13:19.524981,2854
2021-12-27 15:13:19.524995,2289
2021-12-27 15:13:19.525010,900
2021-12-27 15:13:19.525020,-2134
2021-12-27 15:13:19.525029,-5195
2021-12-27 15:13:19.525039,-13322
2021-12-27 15:13:19.525048,1132
2021-12-27 15:13:19.768509,-502
2021-12-27 15:13:19.768531,314
2021-12-27 15:13:19.768538,2224
2021-12-27 15:13:19.768545,2583
2021-12-27 15:13:19.768551,4139
2021-12-27 15:13:19.768561,-379
2021-12-27 15:13:19.768567,-14178
2021-12-27 15:13:19.768573,-5815
2021-12-27 15:13:19.768582,2854
2021-12-27 15:13:19.768592,1502
2021-12-27 15:13:19.768598,-13287
2021-12-27 15:13:19.768604,-9323
2021-12-27 15:13:19.768610,1752
2021-12-27 15:13:19.768623,4283
2021-12-27 15:13:19.768629,3887
2021-12-27 15:13:19.768635,-5429
2021-12-27 15:13:19.768641,-13162
2021-12-27 15:13:19.768648,-16155
2021-12-27 15:13:19.768654,-5785
2021-12-27 15:13:19.768663,2667
2021-12-27 15:13:19.768669,-6767
2021-12-27 15:13:19.768675,-1511
2021-12-27 15:13:19.768681,-6392
2021-12-27 15:13:19.768687,-5931
2021-12-27 15:13:19.963717,-2810
2021-12-27 15:13:19.963738,-5681
2021-12-27 15:13:19.963759,4109
2021-12-27 15:13:19.963774,-6084
2021-12-27 15:13:19.963784,-16484
2021-12-27 15:13:19.963793,1812
2021-12-27 15:13:19.963813,4704
2021-12-27 15:13:19.963822,-7012
2021-12-27 15:13:19.963832,-16774
2021-12-27 15:13:19.963841,-4674
2021-12-27 15:13:19.963861,2116
2021-12-27 15:13:19.963870,4831
2021-12-27 15:13:19.963880,-5181
2021-12-27 15:13:19.963889,-3000
2021-12-27 15:13:19.963914,4188
2021-12-27 15:13:19.963923,-5417
2021-12-27 15:13:19.963933,-1125
2021-12-27 15:13:19.963943,3169
2021-12-27 15:13:20.207810,-4033
2021-12-27 15:13:20.207831,-7445
2021-12-27 15:13:20.207839,-1078
2021-12-27 15:13:20.207845,-4808
2021-12-27 15:13:20.207852,-17938
2021-12-27 15:13:20.207858,-9749
2021-12-27 15:13:20.207864,16
2021-12-27 15:13:20.207870,-2857
2021-12-27 15:13:20.207877,2136
2021-12-27 15:13:20.207883,-4980
2021-12-27 15:13:20.207889,-18966
2021-12-27 15:13:20.207895,-14903
2021-12-27 15:13:20.207901,-5998
2021-12-27 15:13:20.207908,-1555
2021-12-27 15:13:20.207914,-8934
2021-12-27 15:13:20.207920,-15973
2021-12-27 15:13:20.207926,-5677
2021-12-27 15:13:20.207932,-2180
2021-12-27 15:13:20.207939,426
2021-12-27 15:13:20.207949,-414
2021-12-27 15:13:20.207955,-1136
2021-12-27 15:13:20.207961,310
2021-12-27 15:13:20.207967,-1419
2021-12-27 15:13:20.207973,4079
2021-12-27 15:13:20.207980,4563
2021-12-27 15:13:20.207986,-5352
2021-12-27 15:13:20.207992,-18744
2021-12-27 15:13:20.207998,-13521
2021-12-27 15:13:20.208004,3709
2021-12-27 15:13:20.451486,2146
2021-12-27 15:13:20.451515,62
2021-12-27 15:13:20.451527,-4656
2021-12-27 15:13:20.451537,-13178
2021-12-27 15:13:20.451546,1004
2021-12-27 15:13:20.451556,-2
2021-12-27 15:13:20.451566,-12215
2021-12-27 15:13:20.451575,3139
2021-12-27 15:13:20.451590,1185
2021-12-27 15:13:20.451599,4405
2021-12-27 15:13:20.451609,-1435
2021-12-27 15:13:20.451618,-10025
2021-12-27 15:13:20.451628,-2194
2021-12-27 15:13:20.451642,4438
2021-12-27 15:13:20.451652,2076
2021-12-27 15:13:20.451666,3456
2021-12-27 15:13:20.451676,326
2021-12-27 15:13:20.451690,4065
2021-12-27 15:13:20.451709,2382
2021-12-27 15:13:20.451719,2949
2021-12-27 15:13:20.451728,4665
2021-12-27 15:13:20.451738,4183
2021-12-27 15:13:20.694777,1891
2021-12-27 15:13:20.694792,-240
2021-12-27 15:13:20.694800,731
2021-12-27 15:13:20.694806,-7617
2021-12-27 15:13:20.694812,-4373
2021-12-27 15:13:20.694819,652
2021-12-27 15:13:20.694825,-12870
2021-12-27 15:13:20.694831,-12486
2021-12-27 15:13:20.694838,2521
2021-12-27 15:13:20.694851,2887
2021-12-27 15:13:20.694857,-4077
2021-12-27 15:13:20.694863,-12532
2021-12-27 15:13:20.694869,-1954
2021-12-27 15:13:20.694889,-4264
2021-12-27 15:13:20.694895,-1088
2021-12-27 15:13:20.694911,3533
2021-12-27 15:13:20.694918,222
2021-12-27 15:13:20.694924,-1905
2021-12-27 15:13:20.890137,-1396
2021-12-27 15:13:20.890152,-18339
2021-12-27 15:13:20.890158,-4461
2021-12-27 15:13:20.890168,-4813
2021-12-27 15:13:20.890174,-8923
2021-12-27 15:13:20.890180,-8362
2021-12-27 15:13:20.890186,-13944
2021-12-27 15:13:20.890193,-6322
2021-12-27 15:13:20.890205,2616
2021-12-27 15:13:20.890212,608
2021-12-27 15:13:20.890218,-10893
2021-12-27 15:13:20.890224,-10124
2021-12-27 15:13:20.890237,4074
2021-12-27 15:13:20.890243,2838
2021-12-27 15:13:20.890249,-13470
2021-12-27 15:13:20.890255,-11182
2021-12-27 15:13:20.890268,4723
2021-12-27 15:13:20.890274,-4030
2021-12-27 15:13:20.890280,-14225
2021-12-27 15:13:20.890286,-13400
2021-12-27 15:13:20.890292,-5892
2021-12-27 15:13:21.181116,-4308
2021-12-27 15:13:21.181146,-5019
2021-12-27 15:13:21.181157,365
2021-12-27 15:13:21.181167,-6397
2021-12-27 15:13:21.181177,-18966
2021-12-27 15:13:21.181186,-8277
2021-12-27 15:13:21.181201,1873
2021-12-27 15:13:21.181211,-10654
2021-12-27 15:13:21.181220,-18378
2021-12-27 15:13:21.181230,-12574
2021-12-27 15:13:21.181240,-9145
2021-12-27 15:13:21.181250,13
2021-12-27 15:13:21.181264,2224
2021-12-27 15:13:21.181274,-444
2021-12-27 15:13:21.181284,4688
2021-12-27 15:13:21.181293,39
2021-12-27 15:13:21.181303,4899
2021-12-27 15:13:21.181317,3847
2021-12-27 15:13:21.181327,3299
2021-12-27 15:13:21.181336,2653
2021-12-27 15:13:21.181346,3720
2021-12-27 15:13:21.181355,4044
2021-12-27 15:13:21.181375,1884
2021-12-27 15:13:21.181384,4713
2021-12-27 15:13:21.377414,632
2021-12-27 15:13:21.377442,266
2021-12-27 15:13:21.377452,-2009
2021-12-27 15:13:21.377458,-12382
2021-12-27 15:13:21.377465,-2310
2021-12-27 15:13:21.377471,-3164
2021-12-27 15:13:21.377477,-18966
2021-12-27 15:13:21.377483,-18966
2021-12-27 15:13:21.377489,-5637
2021-12-27 15:13:21.377495,-7874
2021-12-27 15:13:21.377501,-11252
2021-12-27 15:13:21.377514,2505
2021-12-27 15:13:21.377524,3984
2021-12-27 15:13:21.377530,1518
2021-12-27 15:13:21.377539,4676
2021-12-27 15:13:21.377555,2470
2021-12-27 15:13:21.377561,1062
2021-12-27 15:13:21.572728,1164
2021-12-27 15:13:21.572751,960
2021-12-27 15:13:21.572761,3755
2021-12-27 15:13:21.572781,4572
2021-12-27 15:13:21.572790,-7978
2021-12-27 15:13:21.572800,-12937
2021-12-27 15:13:21.572809,-2343
2021-12-27 15:13:21.572824,3544
2021-12-27 15:13:21.572833,-8934
2021-12-27 15:13:21.572842,-12787
2021-12-27 15:13:21.572852,-15465
2021-12-27 15:13:21.572861,-4838
2021-12-27 15:13:21.572885,4158
2021-12-27 15:13:21.572895,-1764
2021-12-27 15:13:21.572904,-1729
2021-12-27 15:13:21.572929,-1699
2021-12-27 15:13:21.572938,-9749
2021-12-27 15:13:21.572948,-12027
2021-12-27 15:13:21.816534,1528
2021-12-27 15:13:21.816555,-414
2021-12-27 15:13:21.816562,-17308
2021-12-27 15:13:21.816568,-18966
2021-12-27 15:13:21.816574,-15896
2021-12-27 15:13:21.816581,-3405
2021-12-27 15:13:21.816587,3567
2021-12-27 15:13:21.816593,1979
2021-12-27 15:13:21.816599,-5781
2021-12-27 15:13:21.816605,-15412
2021-12-27 15:13:21.816611,-12231
2021-12-27 15:13:21.816624,-8202
2021-12-27 15:13:21.816631,-18966
2021-12-27 15:13:21.816637,-18966
2021-12-27 15:13:21.816643,-2116
2021-12-27 15:13:21.816652,3938
2021-12-27 15:13:21.816665,-2572
2021-12-27 15:13:21.816671,18
2021-12-27 15:13:21.816688,3273
2021-12-27 15:13:21.816694,3678
2021-12-27 15:13:21.816700,-150
2021-12-27 15:13:21.816706,4489
2021-12-27 15:13:22.060297,-442
2021-12-27 15:13:22.060313,-10335
2021-12-27 15:13:22.060319,-9048
2021-12-27 15:13:22.060326,3266
2021-12-27 15:13:22.060335,4461
2021-12-27 15:13:22.060342,-280
2021-12-27 15:13:22.060348,1171
2021-12-27 15:13:22.060354,-9006
2021-12-27 15:13:22.060360,-1143
2021-12-27 15:13:22.060369,4033
2021-12-27 15:13:22.060376,-363
2021-12-27 15:13:22.060382,-6348
2021-12-27 15:13:22.060388,-11145
2021-12-27 15:13:22.060394,1173
2021-12-27 15:13:22.060407,2194
2021-12-27 15:13:22.060419,993
2021-12-27 15:13:22.060440,1537
2021-12-27 15:13:22.303900,1065
2021-12-27 15:13:22.303926,4769
2021-12-27 15:13:22.303933,2954
2021-12-27 15:13:22.303942,2303
2021-12-27 15:13:22.303948,-8101
2021-12-27 15:13:22.303955,-9656
2021-12-27 15:13:22.303967,1203
2021-12-27 15:13:22.303977,-2801
2021-12-27 15:13:22.303983,-12157
2021-12-27 15:13:22.303989,2157
2021-12-27 15:13:22.304002,4827
2021-12-27 15:13:22.304008,-5987
2021-12-27 15:13:22.304014,-17220
2021-12-27 15:13:22.304020,-18966
2021-12-27 15:13:22.304027,-3854
2021-12-27 15:13:22.304042,1560
2021-12-27 15:13:22.304049,-1185
2021-12-27 15:13:22.304055,4155
2021-12-27 15:13:22.498912,1224
2021-12-27 15:13:22.498927,476
2021-12-27 15:13:22.498934,-240
2021-12-27 15:13:22.498951,-30
2021-12-27 15:13:22.498957,-14539
2021-12-27 15:13:22.498963,-9177
2021-12-27 15:13:22.498979,2338
2021-12-27 15:13:22.498985,-15188
2021-12-27 15:13:22.498991,-13940
2021-12-27 15:13:22.498998,4973
2021-12-27 15:13:22.499010,1548
2021-12-27 15:13:22.499017,-3924
2021-12-27 15:13:22.499023,-12162
2021-12-27 15:13:22.499029,2715
2021-12-27 15:13:22.499038,4155
2021-12-27 15:13:22.499048,2741
2021-12-27 15:13:22.499054,-8950
2021-12-27 15:13:22.499060,1187
2021-12-27 15:13:22.742734,-3709
2021-12-27 15:13:22.742755,-16424
2021-12-27 15:13:22.742765,-12090
2021-12-27 15:13:22.742785,1618
2021-12-27 15:13:22.742795,4452
2021-12-27 15:13:22.742804,-5760
2021-12-27 15:13:22.742813,-13002
2021-12-27 15:13:22.742823,4743
2021-12-27 15:13:22.742842,4220
2021-12-27 15:13:22.742851,-2630
2021-12-27 15:13:22.742861,-1868
2021-12-27 15:13:22.742870,3553
2021-12-27 15:13:22.742889,1567
2021-12-27 15:13:22.742898,676
2021-12-27 15:13:22.742908,-4829
2021-12-27 15:13:22.742917,-5702
2021-12-27 15:13:22.742932,-5454
2021-12-27 15:13:22.742941,-18966
2021-12-27 15:13:22.742951,-13993
2021-12-27 15:13:22.742960,2854
2021-12-27 15:13:22.742970,3380
2021-12-27 15:13:22.986086,1166
2021-12-27 15:13:22.986128,-2877
2021-12-27 15:13:22.986139,-3046
2021-12-27 15:13:22.986148,-9580
2021-12-27 15:13:22.986158,-4730
2021-12-27 15:13:22.986173,3597
2021-12-27 15:13:22.986182,-509
2021-12-27 15:13:22.986192,1405
2021-12-27 15:13:22.986201,-10066
2021-12-27 15:13:22.986211,-7589
2021-12-27 15:13:22.986263,382
2021-12-27 15:13:22.986272,2002
2021-12-27 15:13:22.986287,-409
2021-12-27 15:13:22.986297,3438
2021-12-27 15:13:22.986311,560
2021-12-27 15:13:22.986320,4864
2021-12-27 15:13:22.986335,-6487
2021-12-27 15:13:22.986344,-5987
2021-12-27 15:13:22.986353,2593
2021-12-27 15:13:22.986363,4142
2021-12-27 15:13:22.986372,4616
2021-12-27 15:13:22.986382,3803
2021-12-27 15:13:23.277180,3296
2021-12-27 15:13:23.277210,1099
2021-12-27 15:13:23.277221,1458
2021-12-27 15:13:23.277231,2366
2021-12-27 15:13:23.277240,1951
2021-12-27 15:13:23.277255,-6656
2021-12-27 15:13:23.277265,-18966
2021-12-27 15:13:23.277274,-11777
2021-12-27 15:13:23.277283,2060
2021-12-27 15:13:23.277293,2683
2021-12-27 15:13:23.277302,3810
2021-12-27 15:13:23.277311,-8691
2021-12-27 15:13:23.277321,-18966
2021-12-27 15:13:23.277331,-17172
2021-12-27 15:13:23.277340,-7260
2021-12-27 15:13:23.277349,-9226
2021-12-27 15:13:23.277359,-6260
2021-12-27 15:13:23.277368,3871
2021-12-27 15:13:23.277378,-3512
2021-12-27 15:13:23.277387,-9911
2021-12-27 15:13:23.277396,770
2021-12-27 15:13:23.277406,3234
2021-12-27 15:13:23.277415,3815
2021-12-27 15:13:23.277430,157
2021-12-27 15:13:23.277439,-9534
2021-12-27 15:13:23.277449,-13467
2021-12-27 15:13:23.277458,1666
2021-12-27 15:13:23.424780,-1069
2021-12-27 15:13:23.424801,-14331
2021-12-27 15:13:23.424808,-18966
2021-12-27 15:13:23.424814,-9013
2021-12-27 15:13:23.424827,4614
2021-12-27 15:13:23.424834,4473
2021-12-27 15:13:23.424840,-15655
2021-12-27 15:13:23.424846,-15132
2021-12-27 15:13:23.424862,2569
2021-12-27 15:13:23.424868,-6721
2021-12-27 15:13:23.424874,-16114
2021-12-27 15:13:23.424880,-291
2021-12-27 15:13:23.424899,-5271
2021-12-27 15:13:23.424905,2914
2021-12-27 15:13:23.424921,4855
2021-12-27 15:13:23.424927,1326
2021-12-27 15:13:23.424934,-4014
2021-12-27 15:13:23.424940,-4563
2021-12-27 15:13:23.668610,254
2021-12-27 15:13:23.668631,-9538
2021-12-27 15:13:23.668641,-12703
2021-12-27 15:13:23.668662,3465
2021-12-27 15:13:23.668671,4216
2021-12-27 15:13:23.668681,-7290
2021-12-27 15:13:23.668690,-14002
2021-12-27 15:13:23.668700,-3702
2021-12-27 15:13:23.668709,-62
2021-12-27 15:13:23.668719,-2333
2021-12-27 15:13:23.668728,-1620
2021-12-27 15:13:23.668738,564
2021-12-27 15:13:23.668747,-2109
2021-12-27 15:13:23.668757,-5257
2021-12-27 15:13:23.668766,-2764
2021-12-27 15:13:23.668776,-4160
2021-12-27 15:13:23.668785,-6839
2021-12-27 15:13:23.668795,-10522
2021-12-27 15:13:23.668805,-11277
2021-12-27 15:13:23.668814,-382
2021-12-27 15:13:23.668824,3794
2021-12-27 15:13:23.668833,2266
2021-12-27 15:13:23.668843,3820
2021-12-27 15:13:23.668852,-1014
2021-12-27 15:13:23.668862,-544
2021-12-27 15:13:23.668871,-1910
2021-12-27 15:13:23.911740,-11743
2021-12-27 15:13:23.911756,-6380
2021-12-27 15:13:23.911762,1368
2021-12-27 15:13:23.911767,889
2021-12-27 15:13:23.911772,-608
2021-12-27 15:13:23.911777,-10240
2021-12-27 15:13:23.911782,-12801
2021-12-27 15:13:23.911787,-11235
2021-12-27 15:13:23.911792,-12365
2021-12-27 15:13:23.911800,-1261
2021-12-27 15:13:23.911809,3959
2021-12-27 15:13:23.911819,-6035
2021-12-27 15:13:23.911829,-10754
2021-12-27 15:13:23.911838,2701
2021-12-27 15:13:23.911852,828
2021-12-27 15:13:23.911857,3871
2021-12-27 15:13:23.911865,252
2021-12-27 15:13:23.911873,4408
2021-12-27 15:13:23.911887,2965
2021-12-27 15:13:23.911904,3144
2021-12-27 15:13:23.911910,4306
2021-12-27 15:13:23.911915,4702
2021-12-27 15:13:24.156545,-3178
2021-12-27 15:13:24.156562,-8749
2021-12-27 15:13:24.156569,-9235
2021-12-27 15:13:24.156575,3195
2021-12-27 15:13:24.156585,-3919
2021-12-27 15:13:24.156591,-13893
2021-12-27 15:13:24.156597,-2090
2021-12-27 15:13:24.156613,3878
2021-12-27 15:13:24.156619,-5422
2021-12-27 15:13:24.156625,-11076
2021-12-27 15:13:24.156631,3753
2021-12-27 15:13:24.156641,-689
2021-12-27 15:13:24.156647,-2984
2021-12-27 15:13:24.156653,-4153
2021-12-27 15:13:24.156659,-3496
2021-12-27 15:13:24.156665,-317
2021-12-27 15:13:24.156672,2692
2021-12-27 15:13:24.156678,2644
2021-12-27 15:13:24.156684,-5621
2021-12-27 15:13:24.156690,-7119
2021-12-27 15:13:24.156696,-12016
2021-12-27 15:13:24.156702,-16394
2021-12-27 15:13:24.156709,2363
2021-12-27 15:13:24.351208,967
2021-12-27 15:13:24.351230,3922
2021-12-27 15:13:24.351237,-3954
2021-12-27 15:13:24.351244,-10455
2021-12-27 15:13:24.351250,-7612
2021-12-27 15:13:24.351256,-5436
2021-12-27 15:13:24.351266,4607
2021-12-27 15:13:24.351272,-12865
2021-12-27 15:13:24.351278,-17841
2021-12-27 15:13:24.351284,245
2021-12-27 15:13:24.351294,-5945
2021-12-27 15:13:24.351300,-18966
2021-12-27 15:13:24.351306,-9235
2021-12-27 15:13:24.351312,-9124
2021-12-27 15:13:24.351318,-3702
2021-12-27 15:13:24.351334,3164
2021-12-27 15:13:24.351341,-3942
2021-12-27 15:13:24.351347,2136
2021-12-27 15:13:24.351363,4067
2021-12-27 15:13:24.351369,2289
2021-12-27 15:13:24.351375,-192
2021-12-27 15:13:24.595194,-5906
2021-12-27 15:13:24.595209,-15398
2021-12-27 15:13:24.595216,-2465
2021-12-27 15:13:24.595222,-879
2021-12-27 15:13:24.595228,-4010
2021-12-27 15:13:24.595234,2352
2021-12-27 15:13:24.595241,456
2021-12-27 15:13:24.595247,-9305
2021-12-27 15:13:24.595253,-7533
2021-12-27 15:13:24.595266,1076
2021-12-27 15:13:24.595272,4669
2021-12-27 15:13:24.595278,2894
2021-12-27 15:13:24.595284,-101
2021-12-27 15:13:24.595300,4037
2021-12-27 15:13:24.595306,2914
2021-12-27 15:13:24.595312,2799
2021-12-27 15:13:24.595319,-5264
2021-12-27 15:13:24.595325,-1606
2021-12-27 15:13:24.595331,4588
2021-12-27 15:13:24.595337,696
2021-12-27 15:13:24.595343,3373
2021-12-27 15:13:24.595350,-2322
2021-12-27 15:13:24.839087,-10446
2021-12-27 15:13:24.839117,-3417
2021-12-27 15:13:24.839128,-4857
2021-12-27 15:13:24.839138,-11402
2021-12-27 15:13:24.839147,-6779
2021-12-27 15:13:24.839157,-8235
2021-12-27 15:13:24.839166,-14634
2021-12-27 15:13:24.839175,-7823
2021-12-27 15:13:24.839185,-6651
2021-12-27 15:13:24.839194,-15266
2021-12-27 15:13:24.839204,-1803
2021-12-27 15:13:24.839219,-13755
2021-12-27 15:13:24.839228,-6281
2021-12-27 15:13:24.839243,1129
2021-12-27 15:13:24.839252,2222
2021-12-27 15:13:24.839262,-3181
2021-12-27 15:13:24.839271,-18966
2021-12-27 15:13:24.839280,-9284
2021-12-27 15:13:24.839295,4341
2021-12-27 15:13:24.839304,3176
2021-12-27 15:13:24.839324,342
2021-12-27 15:13:24.839333,3945
2021-12-27 15:13:24.839348,4649
2021-12-27 15:13:25.082769,671
2021-12-27 15:13:25.082785,4581
2021-12-27 15:13:25.082795,3470
2021-12-27 15:13:25.082808,2148
2021-12-27 15:13:25.082814,-7730
2021-12-27 15:13:25.082821,-10587
2021-12-27 15:13:25.082827,-164
2021-12-27 15:13:25.082833,-118
2021-12-27 15:13:25.082839,-6751
2021-12-27 15:13:25.082848,1879
2021-12-27 15:13:25.082855,-14262
2021-12-27 15:13:25.082861,-1435
2021-12-27 15:13:25.082877,4463
2021-12-27 15:13:25.082883,1139
2021-12-27 15:13:25.082889,-1076
2021-12-27 15:13:25.082908,2333
2021-12-27 15:13:25.082914,-2956
2021-12-27 15:13:25.324293,-1090
2021-12-27 15:13:25.324305,-3296
2021-12-27 15:13:25.324310,4139
2021-12-27 15:13:25.324321,4922
2021-12-27 15:13:25.324326,113
2021-12-27 15:13:25.324331,-13403
2021-12-27 15:13:25.324336,-5894
2021-12-27 15:13:25.324343,-3854
2021-12-27 15:13:25.324348,-8003
2021-12-27 15:13:25.324353,314
2021-12-27 15:13:25.324358,-12875
2021-12-27 15:13:25.324363,-11488
2021-12-27 15:13:25.324375,1734
2021-12-27 15:13:25.324380,444
2021-12-27 15:13:25.324385,-7161
2021-12-27 15:13:25.324390,-15540
2021-12-27 15:13:25.324395,-10682
2021-12-27 15:13:25.324400,3433
2021-12-27 15:13:25.324407,-1782
2021-12-27 15:13:25.324412,-2998
2021-12-27 15:13:25.520479,-4514
2021-12-27 15:13:25.520492,-12199
2021-12-27 15:13:25.520498,-7323
2021-12-27 15:13:25.520511,944
2021-12-27 15:13:25.520518,1322
2021-12-27 15:13:25.520524,-1998
2021-12-27 15:13:25.520530,-10136
2021-12-27 15:13:25.520536,3243
2021-12-27 15:13:25.520545,-9777
2021-12-27 15:13:25.520552,-12449
2021-12-27 15:13:25.520558,775
2021-12-27 15:13:25.520567,1576
2021-12-27 15:13:25.520580,-428
2021-12-27 15:13:25.520586,3949
2021-12-27 15:13:25.520596,673
2021-12-27 15:13:25.520608,-25
2021-12-27 15:13:25.520618,3639
2021-12-27 15:13:25.764561,2685
2021-12-27 15:13:25.764587,4760
2021-12-27 15:13:25.764594,2780
2021-12-27 15:13:25.764600,2815
2021-12-27 15:13:25.764614,1639
2021-12-27 15:13:25.764624,-10293
2021-12-27 15:13:25.764635,-6297
2021-12-27 15:13:25.764652,2778
2021-12-27 15:13:25.764738,2475
2021-12-27 15:13:25.764749,-9784
2021-12-27 15:13:25.764756,-9256
2021-12-27 15:13:25.764762,4077
2021-12-27 15:13:25.764768,340
2021-12-27 15:13:25.764774,-8165
2021-12-27 15:13:25.764780,-7052
2021-12-27 15:13:25.764786,2248
2021-12-27 15:13:25.764792,1278
2021-12-27 15:13:25.764799,-1115
2021-12-27 15:13:25.764808,4998
2021-12-27 15:13:25.764821,-588
2021-12-27 15:13:25.764827,2648
2021-12-27 15:13:25.764833,1472
2021-12-27 15:13:25.764839,-12648
2021-12-27 15:13:25.764845,-17545
2021-12-27 15:13:25.960415,-3808
2021-12-27 15:13:25.960440,-2586
2021-12-27 15:13:25.960447,-2569
2021-12-27 15:13:25.960459,4466
2021-12-27 15:13:25.960465,-1836
2021-12-27 15:13:25.960472,-14931
2021-12-27 15:13:25.960478,-3674
2021-12-27 15:13:25.960493,-2563
2021-12-27 15:13:25.960499,-14850
2021-12-27 15:13:25.960505,-9393
2021-12-27 15:13:25.960518,-7383
2021-12-27 15:13:25.960524,-7878
2021-12-27 15:13:25.960530,-1335
2021-12-27 15:13:25.960536,-4417
2021-12-27 15:13:25.960542,4771
2021-12-27 15:13:25.960558,-1166
2021-12-27 15:13:25.960564,-4213
2021-12-27 15:13:25.960570,4767
2021-12-27 15:13:26.204123,4977
2021-12-27 15:13:26.204138,-3646
2021-12-27 15:13:26.204145,-15243
2021-12-27 15:13:26.204151,-7698
2021-12-27 15:13:26.204164,3072
2021-12-27 15:13:26.204170,3327
2021-12-27 15:13:26.204177,-14549
2021-12-27 15:13:26.204183,-16172
2021-12-27 15:13:26.204189,-3153
2021-12-27 15:13:26.204195,-247
2021-12-27 15:13:26.204201,3871
2021-12-27 15:13:26.204207,590
2021-12-27 15:13:26.204213,-6836
2021-12-27 15:13:26.204219,-9020
2021-12-27 15:13:26.204225,-7895
2021-12-27 15:13:26.204231,-669
2021-12-27 15:13:26.204237,-8545
2021-12-27 15:13:26.204243,-18966
2021-12-27 15:13:26.204249,-18966
2021-12-27 15:13:26.204255,-6103
2021-12-27 15:13:26.204261,4264
2021-12-27 15:13:26.204267,1991
2021-12-27 15:13:26.204273,2387
2021-12-27 15:13:26.204283,-3283
2021-12-27 15:13:26.204289,-3692
2021-12-27 15:13:26.204295,2921
2021-12-27 15:13:26.447852,4329
2021-12-27 15:13:26.447887,1836
2021-12-27 15:13:26.447898,-10235
2021-12-27 15:13:26.447907,-18966
2021-12-27 15:13:26.447917,-18966
2021-12-27 15:13:26.447926,2787
2021-12-27 15:13:26.447940,16
2021-12-27 15:13:26.447949,2303
2021-12-27 15:13:26.447959,-2817
2021-12-27 15:13:26.447968,-11268
2021-12-27 15:13:26.447977,-2377
2021-12-27 15:13:26.447997,706
2021-12-27 15:13:26.448006,4368
2021-12-27 15:13:26.448020,338
2021-12-27 15:13:26.448040,-2262
2021-12-27 15:13:26.448049,-4781
2021-12-27 15:13:26.448058,-8059
2021-12-27 15:13:26.448068,-238
2021-12-27 15:13:26.448082,3753
2021-12-27 15:13:26.448091,3558
2021-12-27 15:13:26.691285,3648
2021-12-27 15:13:26.691305,2928
2021-12-27 15:13:26.691316,3590
2021-12-27 15:13:26.691323,3792
2021-12-27 15:13:26.691332,-7679
2021-12-27 15:13:26.691338,-11293
2021-12-27 15:13:26.691345,4528
2021-12-27 15:13:26.691361,-3984
2021-12-27 15:13:26.691367,-10282
2021-12-27 15:13:26.691373,-2005
2021-12-27 15:13:26.691392,-243
2021-12-27 15:13:26.691399,305
2021-12-27 15:13:26.691408,4970
2021-12-27 15:13:26.691418,-4294
2021-12-27 15:13:26.691424,-12502
2021-12-27 15:13:26.691430,-1180
2021-12-27 15:13:26.691436,3868
2021-12-27 15:13:26.886620,-3035
2021-12-27 15:13:26.886634,-208
2021-12-27 15:13:26.886651,-1724
2021-12-27 15:13:26.886657,-18304
2021-12-27 15:13:26.886663,-18566
2021-12-27 15:13:26.886669,-12034
2021-12-27 15:13:26.886676,-349
2021-12-27 15:13:26.886685,1995
2021-12-27 15:13:26.886691,-10481
2021-12-27 15:13:26.886697,-14796
2021-12-27 15:13:26.886710,3579
2021-12-27 15:13:26.886720,1752
2021-12-27 15:13:26.886726,-6619
2021-12-27 15:13:26.886742,3546
2021-12-27 15:13:26.886748,-12375
2021-12-27 15:13:26.886754,-17427
2021-12-27 15:13:26.886760,-317
2021-12-27 15:13:27.130316,3685
2021-12-27 15:13:27.130344,-11398
2021-12-27 15:13:27.130354,-11784
2021-12-27 15:13:27.130379,3560
2021-12-27 15:13:27.130388,-10664
2021-12-27 15:13:27.130398,-13252
2021-12-27 15:13:27.130407,2162
2021-12-27 15:13:27.130426,1090
2021-12-27 15:13:27.130435,2690
2021-12-27 15:13:27.130445,-1627
2021-12-27 15:13:27.130454,3313
2021-12-27 15:13:27.130478,1944
2021-12-27 15:13:27.130488,-1875
2021-12-27 15:13:27.130497,4322
2021-12-27 15:13:27.130522,-2701
2021-12-27 15:13:27.130531,-5010
2021-12-27 15:13:27.130540,-4959
2021-12-27 15:13:27.421279,333
2021-12-27 15:13:27.421300,620
2021-12-27 15:13:27.421311,-2495
2021-12-27 15:13:27.421320,-13766
2021-12-27 15:13:27.421330,-4352
2021-12-27 15:13:27.421349,-76
2021-12-27 15:13:27.421359,-777
2021-12-27 15:13:27.421368,-5517
2021-12-27 15:13:27.421378,-10499
2021-12-27 15:13:27.421387,4991
2021-12-27 15:13:27.421402,-16574
2021-12-27 15:13:27.421411,-18966
2021-12-27 15:13:27.421420,-5540
2021-12-27 15:13:27.421430,2671
2021-12-27 15:13:27.421439,4695
2021-12-27 15:13:27.421449,2266
2021-12-27 15:13:27.421458,3528
2021-12-27 15:13:27.421472,3315
2021-12-27 15:13:27.421482,2493
2021-12-27 15:13:27.421491,2537
2021-12-27 15:13:27.421506,4556
2021-12-27 15:13:27.421515,3188
2021-12-27 15:13:27.617690,-2169
2021-12-27 15:13:27.617720,-7313
2021-12-27 15:13:27.617731,4128
2021-12-27 15:13:27.617741,2546
2021-12-27 15:13:27.617750,3496
2021-12-27 15:13:27.617765,-6834
2021-12-27 15:13:27.617775,-13285
2021-12-27 15:13:27.617784,-2769
2021-12-27 15:13:27.617798,4959
2021-12-27 15:13:27.617808,4426
2021-12-27 15:13:27.617817,2218
2021-12-27 15:13:27.617827,-11824
2021-12-27 15:13:27.617836,-10416
2021-12-27 15:13:27.617851,4033
2021-12-27 15:13:27.617860,4394
2021-12-27 15:13:27.617875,-238
2021-12-27 15:13:27.617884,-708
2021-12-27 15:13:27.617894,669
2021-12-27 15:13:27.617913,4530
2021-12-27 15:13:27.617922,3232
2021-12-27 15:13:27.617932,-2370
2021-12-27 15:13:27.617941,-1585
2021-12-27 15:13:27.861373,4982
2021-12-27 15:13:27.861395,-11277
2021-12-27 15:13:27.861405,-13021
2021-12-27 15:13:27.861415,2574
2021-12-27 15:13:27.861435,-1636
2021-12-27 15:13:27.861444,-11583
2021-12-27 15:13:27.861454,-16628
2021-12-27 15:13:27.861463,2160
2021-12-27 15:13:27.861478,2697
2021-12-27 15:13:27.861487,4743
2021-12-27 15:13:27.861496,-428
2021-12-27 15:13:27.861506,-14785
2021-12-27 15:13:27.861515,-852
2021-12-27 15:13:27.861540,-879
2021-12-27 15:13:27.861549,-15625
2021-12-27 15:13:27.861559,-18010
2021-12-27 15:13:27.861568,3415
2021-12-27 15:13:27.861583,1724
2021-12-27 15:13:27.861592,1416
2021-12-27 15:13:27.861602,-1553
2021-12-27 15:13:27.861611,-3762
2021-12-27 15:13:28.104290,4989
2021-12-27 15:13:28.104307,-3273
2021-12-27 15:13:28.104314,-7557
2021-12-27 15:13:28.104321,-5269
2021-12-27 15:13:28.104327,4806
2021-12-27 15:13:28.104336,138
2021-12-27 15:13:28.104343,-7017
2021-12-27 15:13:28.104349,-12150
2021-12-27 15:13:28.104355,-6100
2021-12-27 15:13:28.104368,889
2021-12-27 15:13:28.104374,-1090
2021-12-27 15:13:28.104380,-12777
2021-12-27 15:13:28.104386,-9034
2021-12-27 15:13:28.104399,3630
2021-12-27 15:13:28.104405,-1240
2021-12-27 15:13:28.104411,1502
2021-12-27 15:13:28.104417,1088
2021-12-27 15:13:28.104423,2838
2021-12-27 15:13:28.104433,3016
2021-12-27 15:13:28.104439,0
2021-12-27 15:13:28.104445,4287
2021-12-27 15:13:28.104451,69
2021-12-27 15:13:28.299678,3570
2021-12-27 15:13:28.299704,2683
2021-12-27 15:13:28.299711,1287
2021-12-27 15:13:28.299717,3169
2021-12-27 15:13:28.299727,-3614
2021-12-27 15:13:28.299733,-8612
2021-12-27 15:13:28.299740,3952
2021-12-27 15:13:28.299746,2956
2021-12-27 15:13:28.299752,814
2021-12-27 15:13:28.299758,-1817
2021-12-27 15:13:28.299764,-11909
2021-12-27 15:13:28.299771,-664
2021-12-27 15:13:28.299780,-935
2021-12-27 15:13:28.299786,3530
2021-12-27 15:13:28.299792,-1259
2021-12-27 15:13:28.299799,-12676
2021-12-27 15:13:28.299805,-6549
2021-12-27 15:13:28.299811,4852
2021-12-27 15:13:28.299817,4151
2021-12-27 15:13:28.299833,666
2021-12-27 15:13:28.299844,3361
2021-12-27 15:13:28.299850,-3090
2021-12-27 15:13:28.299856,1113
2021-12-27 15:13:28.299863,-11916
2021-12-27 15:13:28.299869,-17038
2021-12-27 15:13:28.299875,3734
2021-12-27 15:13:28.542963,4528
2021-12-27 15:13:28.542982,-2586
2021-12-27 15:13:28.542989,1051
2021-12-27 15:13:28.542996,2349
2021-12-27 15:13:28.543009,-652
2021-12-27 15:13:28.543015,-15308
2021-12-27 15:13:28.543021,-18966
2021-12-27 15:13:28.543027,-10432
2021-12-27 15:13:28.543033,4482
2021-12-27 15:13:28.543043,3211
2021-12-27 15:13:28.543049,-10733
2021-12-27 15:13:28.543055,-11990
2021-12-27 15:13:28.543061,405
2021-12-27 15:13:28.543073,4662
2021-12-27 15:13:28.543079,2440
2021-12-27 15:13:28.543086,-1694
2021-12-27 15:13:28.543092,-2512
2021-12-27 15:13:28.543111,-4628
2021-12-27 15:13:28.543117,-4998
2021-12-27 15:13:28.738551,-1854
2021-12-27 15:13:28.738566,-16116
2021-12-27 15:13:28.738573,-15273
2021-12-27 15:13:28.738579,1400
2021-12-27 15:13:28.738589,1664
2021-12-27 15:13:28.738595,-4128
2021-12-27 15:13:28.738601,-12824
2021-12-27 15:13:28.738607,-18966
2021-12-27 15:13:28.738613,-18966
2021-12-27 15:13:28.738619,-15167
2021-12-27 15:13:28.738626,-2613
2021-12-27 15:13:28.738635,-10944
2021-12-27 15:13:28.738641,-18966
2021-12-27 15:13:28.738647,-7582
2021-12-27 15:13:28.738660,1819
2021-12-27 15:13:28.738666,60
2021-12-27 15:13:28.738672,-4278
2021-12-27 15:13:28.738679,-5114
2021-12-27 15:13:28.738691,3026
2021-12-27 15:13:28.738701,-2352
2021-12-27 15:13:28.738707,-2567
2021-12-27 15:13:28.982627,-7816
2021-12-27 15:13:28.982647,-18966
2021-12-27 15:13:28.982657,-18966
2021-12-27 15:13:28.982667,-1224
2021-12-27 15:13:28.982686,1236
2021-12-27 15:13:28.982696,1727
2021-12-27 15:13:28.982706,-9240
2021-12-27 15:13:28.982715,-10578
2021-12-27 15:13:28.982724,-3949
2021-12-27 15:13:28.982734,-3808
2021-12-27 15:13:28.982743,3090
2021-12-27 15:13:28.982752,3389
2021-12-27 15:13:28.982762,-134
2021-12-27 15:13:28.982771,3074
2021-12-27 15:13:28.982796,1639
2021-12-27 15:13:28.982810,2769
2021-12-27 15:13:28.982820,4549
2021-12-27 15:13:28.982834,4382
2021-12-27 15:13:28.982844,3919
2021-12-27 15:13:28.982853,4943
2021-12-27 15:13:28.982862,3403
2021-12-27 15:13:29.275229,4378
2021-12-27 15:13:29.275257,2123
2021-12-27 15:13:29.275264,2525
2021-12-27 15:13:29.275270,729
2021-12-27 15:13:29.275276,-11918
2021-12-27 15:13:29.275283,-76
2021-12-27 15:13:29.275292,-509
2021-12-27 15:13:29.275298,4618
2021-12-27 15:13:29.275304,2588
2021-12-27 15:13:29.275311,-11888
2021-12-27 15:13:29.275317,-7732
2021-12-27 15:13:29.275323,-9145
2021-12-27 15:13:29.275329,-18966
2021-12-27 15:13:29.275335,-10694
2021-12-27 15:13:29.275345,2505
2021-12-27 15:13:29.275351,-5447
2021-12-27 15:13:29.275357,863
2021-12-27 15:13:29.275363,-5049
2021-12-27 15:13:29.275370,-10212
2021-12-27 15:13:29.275376,766
2021-12-27 15:13:29.275382,-8668
2021-12-27 15:13:29.275388,-13641
2021-12-27 15:13:29.275394,854
2021-12-27 15:13:29.275401,530
2021-12-27 15:13:29.275407,1132
2021-12-27 15:13:29.517071,1833
2021-12-27 15:13:29.517101,-1268
2021-12-27 15:13:29.517112,-3579
2021-12-27 15:13:29.517122,794
2021-12-27 15:13:29.517147,-3410
2021-12-27 15:13:29.517156,-18966
2021-12-27 15:13:29.517166,-15597
2021-12-27 15:13:29.517185,2257
2021-12-27 15:13:29.517195,-7635
2021-12-27 15:13:29.517204,-13393
2021-12-27 15:13:29.517214,-11330
2021-12-27 15:13:29.517223,-3894
2021-12-27 15:13:29.517232,-3718
2021-12-27 15:13:29.517242,2678
2021-12-27 15:13:29.517256,-13859
2021-12-27 15:13:29.517266,-11411
2021-12-27 15:13:29.517296,-958
2021-12-27 15:13:29.517305,-2303
2021-12-27 15:13:29.665026,4730
2021-12-27 15:13:29.665048,-3315
2021-12-27 15:13:29.665058,3454
2021-12-27 15:13:29.665083,-988
2021-12-27 15:13:29.665093,-17075
2021-12-27 15:13:29.665102,-5431
2021-12-27 15:13:29.665126,34
2021-12-27 15:13:29.665136,-10643
2021-12-27 15:13:29.665145,-12629
2021-12-27 15:13:29.665154,4294
2021-12-27 15:13:29.665164,2734
2021-12-27 15:13:29.665173,-9335
2021-12-27 15:13:29.665182,1361
2021-12-27 15:13:29.665192,-4676
2021-12-27 15:13:29.665201,-13491
2021-12-27 15:13:29.665210,4843
2021-12-27 15:13:29.665225,4767
2021-12-27 15:13:29.665234,-71
2021-12-27 15:13:29.665244,-13956
2021-12-27 15:13:29.665253,-13734
2021-12-27 15:13:29.665262,-5843
2021-12-27 15:13:29.908486,-4922
2021-12-27 15:13:29.908508,-2231
2021-12-27 15:13:29.908515,-782
2021-12-27 15:13:29.908522,-3218
2021-12-27 15:13:29.908528,-11819
2021-12-27 15:13:29.908534,-10208
2021-12-27 15:13:29.908547,1951
2021-12-27 15:13:29.908553,217
2021-12-27 15:13:29.908560,-8392
2021-12-27 15:13:29.908566,-10717
2021-12-27 15:13:29.908572,-571
2021-12-27 15:13:29.908578,2308
2021-12-27 15:13:29.908584,-16276
2021-12-27 15:13:29.908591,-18309
2021-12-27 15:13:29.908600,4572
2021-12-27 15:13:29.908606,-1650
2021-12-27 15:13:29.908616,-5755
2021-12-27 15:13:29.908622,-12495
2021-12-27 15:13:29.908628,4368
2021-12-27 15:13:29.908637,2301
2021-12-27 15:13:29.908650,4426
2021-12-27 15:13:29.908657,3993
2021-12-27 15:13:30.152473,3614
2021-12-27 15:13:30.152494,4723
2021-12-27 15:13:30.152505,2382
2021-12-27 15:13:30.152515,4713
2021-12-27 15:13:30.152521,-11472
2021-12-27 15:13:30.152527,-3711
2021-12-27 15:13:30.152542,4785
2021-12-27 15:13:30.152549,-4306
2021-12-27 15:13:30.152555,-8994
2021-12-27 15:13:30.152561,3294
2021-12-27 15:13:30.152570,2817
2021-12-27 15:13:30.152583,-613
2021-12-27 15:13:30.152592,1849
2021-12-27 15:13:30.152598,-6742
2021-12-27 15:13:30.152604,-2755
2021-12-27 15:13:30.152610,3692
2021-12-27 15:13:30.152620,92
2021-12-27 15:13:30.152626,2833
2021-12-27 15:13:30.347938,-1914
2021-12-27 15:13:30.347953,3232
2021-12-27 15:13:30.347969,-6228
2021-12-27 15:13:30.347975,-14456
2021-12-27 15:13:30.347982,-4327
2021-12-27 15:13:30.347994,4343
2021-12-27 15:13:30.348000,2671
2021-12-27 15:13:30.348006,-9758
2021-12-27 15:13:30.348013,-11395
2021-12-27 15:13:30.348025,4651
2021-12-27 15:13:30.348031,-1312
2021-12-27 15:13:30.348038,-18966
2021-12-27 15:13:30.348044,-17577
2021-12-27 15:13:30.348057,-5457
2021-12-27 15:13:30.348063,-7121
2021-12-27 15:13:30.348144,2123
2021-12-27 15:13:30.348150,-1030
2021-12-27 15:13:30.348157,805
2021-12-27 15:13:30.591355,1949
2021-12-27 15:13:30.591376,-15384
2021-12-27 15:13:30.591387,-6809
2021-12-27 15:13:30.591412,-138
2021-12-27 15:13:30.591421,-12215
2021-12-27 15:13:30.591431,-11497
2021-12-27 15:13:30.591450,3674
2021-12-27 15:13:30.591460,3438
2021-12-27 15:13:30.591469,1796
2021-12-27 15:13:30.591479,-4364
2021-12-27 15:13:30.591508,-643
2021-12-27 15:13:30.591517,-351
2021-12-27 15:13:30.591542,-8047
2021-12-27 15:13:30.591551,-12497
2021-12-27 15:13:30.591561,78
2021-12-27 15:13:30.591571,3780
2021-12-27 15:13:30.835130,3667
2021-12-27 15:13:30.835145,1497
2021-12-27 15:13:30.835152,-8672
2021-12-27 15:13:30.835158,-11664
2021-12-27 15:13:30.835165,583
2021-12-27 15:13:30.835178,-845
2021-12-27 15:13:30.835184,-699
2021-12-27 15:13:30.835191,-7119
2021-12-27 15:13:30.835197,-7216
2021-12-27 15:13:30.835210,-1428
2021-12-27 15:13:30.835220,2495
2021-12-27 15:13:30.835226,782
2021-12-27 15:13:30.835239,3280
2021-12-27 15:13:30.835245,3574
2021-12-27 15:13:30.835252,4906
2021-12-27 15:13:30.835258,1393
2021-12-27 15:13:30.835264,-10124
2021-12-27 15:13:30.835270,-18966
2021-12-27 15:13:30.835276,-16737
2021-12-27 15:13:30.835283,-5959
2021-12-27 15:13:30.835289,-5457
2021-12-27 15:13:31.078841,-5491
2021-12-27 15:13:31.078883,-1083
2021-12-27 15:13:31.078899,4220
2021-12-27 15:13:31.078909,-10256
2021-12-27 15:13:31.078918,-11129
2021-12-27 15:13:31.078928,1528
2021-12-27 15:13:31.078943,2535
2021-12-27 15:13:31.078957,1579
2021-12-27 15:13:31.078966,-12632
2021-12-27 15:13:31.078976,-2319
2021-12-27 15:13:31.078991,3391
2021-12-27 15:13:31.079005,4940
2021-12-27 15:13:31.079015,-444
2021-12-27 15:13:31.079024,1067
2021-12-27 15:13:31.079034,1928
2021-12-27 15:13:31.079058,4299
2021-12-27 15:13:31.079068,-2646
2021-12-27 15:13:31.079077,2018
2021-12-27 15:13:31.079092,3023
2021-12-27 15:13:31.273402,-4584
2021-12-27 15:13:31.273422,-12784
2021-12-27 15:13:31.273430,-6151
2021-12-27 15:13:31.273436,1481
2021-12-27 15:13:31.273443,2759
2021-12-27 15:13:31.273456,-2076
2021-12-27 15:13:31.273462,-13247
2021-12-27 15:13:31.273468,-13037
2021-12-27 15:13:31.273481,3086
2021-12-27 15:13:31.273491,-9733
2021-12-27 15:13:31.273497,-17084
2021-12-27 15:13:31.273503,3417
2021-12-27 15:13:31.273516,4348
2021-12-27 15:13:31.273522,386
2021-12-27 15:13:31.273528,-4125
2021-12-27 15:13:31.273534,726
2021-12-27 15:13:31.273547,3979
2021-12-27 15:13:31.273557,-4926
2021-12-27 15:13:31.273563,23
2021-12-27 15:13:31.564881,4859
2021-12-27 15:13:31.564912,-5896
2021-12-27 15:13:31.564923,-18966
2021-12-27 15:13:31.564933,-18966
2021-12-27 15:13:31.564942,-11520
2021-12-27 15:13:31.564962,4862
2021-12-27 15:13:31.564971,1947
2021-12-27 15:13:31.564981,-5304
2021-12-27 15:13:31.564990,-14197
2021-12-27 15:13:31.564999,1254
2021-12-27 15:13:31.565014,4218
2021-12-27 15:13:31.565023,4665
2021-12-27 15:13:31.565033,532
2021-12-27 15:13:31.565042,-3070
2021-12-27 15:13:31.565051,4635
2021-12-27 15:13:31.565071,4741
2021-12-27 15:13:31.565080,-92
2021-12-27 15:13:31.565089,2185
2021-12-27 15:13:31.565099,1440
2021-12-27 15:13:31.565118,775
2021-12-27 15:13:31.565127,974
2021-12-27 15:13:31.565137,1115
2021-12-27 15:13:31.565146,1203
2021-12-27 15:13:31.809730,4894
2021-12-27 15:13:31.809751,-2898
2021-12-27 15:13:31.809762,-17343
2021-12-27 15:13:31.809771,-18966
2021-12-27 15:13:31.809781,-8723
2021-12-27 15:13:31.809801,-3116
2021-12-27 15:13:31.809815,-4253
2021-12-27 15:13:31.809825,-13548
2021-12-27 15:13:31.809834,-3389
2021-12-27 15:13:31.809844,-5605
2021-12-27 15:13:31.809853,-5246
2021-12-27 15:13:31.809862,3308
2021-12-27 15:13:31.809872,1669
2021-12-27 15:13:31.809881,-3421
2021-12-27 15:13:31.809891,-8084
2021-12-27 15:13:31.809901,-7705
2021-12-27 15:13:31.809910,-8418
2021-12-27 15:13:31.809920,-11268
2021-12-27 15:13:31.809929,-6753
2021-12-27 15:13:31.809938,-5704
2021-12-27 15:13:31.809948,-2053
2021-12-27 15:13:31.809957,1991
2021-12-27 15:13:31.809967,-2470
2021-12-27 15:13:31.809976,2919
2021-12-27 15:13:31.809986,4697
2021-12-27 15:13:32.053615,-2477
2021-12-27 15:13:32.053645,-622
2021-12-27 15:13:32.053657,92
2021-12-27 15:13:32.053667,372
2021-12-27 15:13:32.053676,3394
2021-12-27 15:13:32.053686,2042
2021-12-27 15:13:32.053696,-6975
2021-12-27 15:13:32.053705,-18966
2021-12-27 15:13:32.053715,-18211
2021-12-27 15:13:32.053725,-398
2021-12-27 15:13:32.053734,4697
2021-12-27 15:13:32.053749,-625
2021-12-27 15:13:32.053759,-14171
2021-12-27 15:13:32.053768,-8378
2021-12-27 15:13:32.053778,2458
2021-12-27 15:13:32.053792,4718
2021-12-27 15:13:32.053802,-7172
2021-12-27 15:13:32.053812,-16348
2021-12-27 15:13:32.053821,-16121
2021-12-27 15:13:32.053830,-720
2021-12-27 15:13:32.053845,-481
2021-12-27 15:13:32.053854,-4218
2021-12-27 15:13:32.053878,-7584
2021-12-27 15:13:32.053889,-13782
2021-12-27 15:13:32.053898,-12627
2021-12-27 15:13:32.053908,-3725
2021-12-27 15:13:32.248290,-1736
2021-12-27 15:13:32.248312,-3014
2021-12-27 15:13:32.248323,-5498
2021-12-27 15:13:32.248332,3412
2021-12-27 15:13:32.248347,4030
2021-12-27 15:13:32.248357,4549
2021-12-27 15:13:32.248366,-4931
2021-12-27 15:13:32.248375,-11465
2021-12-27 15:13:32.248385,4827
2021-12-27 15:13:32.248409,-7309
2021-12-27 15:13:32.248418,-15963
2021-12-27 15:13:32.248428,-2160
2021-12-27 15:13:32.248447,3280
2021-12-27 15:13:32.248457,2479
2021-12-27 15:13:32.248467,-11717
2021-12-27 15:13:32.248476,-7728
2021-12-27 15:13:32.248505,-3185
2021-12-27 15:13:32.248515,338
2021-12-27 15:13:32.492386,2016
2021-12-27 15:13:32.492407,-6760
2021-12-27 15:13:32.492417,-13048
2021-12-27 15:13:32.492427,814
2021-12-27 15:13:32.492446,4283
2021-12-27 15:13:32.492455,2986
2021-12-27 15:13:32.492464,-7073
2021-12-27 15:13:32.492474,-3889
2021-12-27 15:13:32.492483,-6577
2021-12-27 15:13:32.492492,-15658
2021-12-27 15:13:32.492501,-5938
2021-12-27 15:13:32.492511,1648
2021-12-27 15:13:32.492520,-7700
2021-12-27 15:13:32.492529,-11041
2021-12-27 15:13:32.492549,632
2021-12-27 15:13:32.492558,-2590
2021-12-27 15:13:32.492567,-5308
2021-12-27 15:13:32.492577,-7131
2021-12-27 15:13:32.492596,1562
2021-12-27 15:13:32.492606,-3387
2021-12-27 15:13:32.492615,-9860
2021-12-27 15:13:32.492624,-6350
2021-12-27 15:13:32.735951,-6492
2021-12-27 15:13:32.736004,-6410
2021-12-27 15:13:32.736012,-53
2021-12-27 15:13:32.736018,-2368
2021-12-27 15:13:32.736025,-893
2021-12-27 15:13:32.736031,-6332
2021-12-27 15:13:32.736037,-13544
2021-12-27 15:13:32.736043,1284
2021-12-27 15:13:32.736053,-351
2021-12-27 15:13:32.736059,4991
2021-12-27 15:13:32.736065,4276
2021-12-27 15:13:32.736072,-3771
2021-12-27 15:13:32.736078,-6510
2021-12-27 15:13:32.736084,2590
2021-12-27 15:13:32.736093,1919
2021-12-27 15:13:32.736100,2968
2021-12-27 15:13:32.736106,-6524
2021-12-27 15:13:32.736112,-7033
2021-12-27 15:13:32.736121,4801
2021-12-27 15:13:32.736128,3618
2021-12-27 15:13:32.736137,2090
2021-12-27 15:13:32.736143,1866
2021-12-27 15:13:32.736152,4220
2021-12-27 15:13:32.979839,2641
2021-12-27 15:13:32.979861,1067
2021-12-27 15:13:32.979888,4477
2021-12-27 15:13:32.979897,-12240
2021-12-27 15:13:32.979907,-7355
2021-12-27 15:13:32.979941,-3769
2021-12-27 15:13:32.979950,-10120
2021-12-27 15:13:32.979970,-15910
2021-12-27 15:13:32.979979,-18966
2021-12-27 15:13:32.979989,-13190
2021-12-27 15:13:32.979998,520
2021-12-27 15:13:32.980007,4669
2021-12-27 15:13:32.980027,-6792
2021-12-27 15:13:32.980037,-13088
2021-12-27 15:13:32.980046,-4107
2021-12-27 15:13:33.125932,365
2021-12-27 15:13:33.125955,-6068
2021-12-27 15:13:33.125962,-10143
2021-12-27 15:13:33.125969,-16320
2021-12-27 15:13:33.125975,-8811
2021-12-27 15:13:33.125981,1016
2021-12-27 15:13:33.125987,4889
2021-12-27 15:13:33.125993,4338
2021-12-27 15:13:33.125999,-11060
2021-12-27 15:13:33.126005,-18531
2021-12-27 15:13:33.126011,-3148
2021-12-27 15:13:33.126056,2866
2021-12-27 15:13:33.126063,4984
2021-12-27 15:13:33.126069,428
2021-12-27 15:13:33.126075,-9744
2021-12-27 15:13:33.126081,-2907
2021-12-27 15:13:33.126094,2011
2021-12-27 15:13:33.126100,-14250
2021-12-27 15:13:33.126106,-10631
2021-12-27 15:13:33.126122,3252
2021-12-27 15:13:33.126128,-405
2021-12-27 15:13:33.126134,-92
2021-12-27 15:13:33.369931,3188
2021-12-27 15:13:33.369945,-372
2021-12-27 15:13:33.369952,-11069
2021-12-27 15:13:33.369959,-3368
2021-12-27 15:13:33.369975,-710
2021-12-27 15:13:33.369981,-8216
2021-12-27 15:13:33.369987,-7300
2021-12-27 15:13:33.369993,4922
2021-12-27 15:13:33.370003,3662
2021-12-27 15:13:33.370009,1143
2021-12-27 15:13:33.370018,-2822
2021-12-27 15:13:33.370025,-7121
2021-12-27 15:13:33.370031,-2602
2021-12-27 15:13:33.370037,3137
2021-12-27 15:13:33.370047,1071
2021-12-27 15:13:33.370053,-8140
2021-12-27 15:13:33.370059,-14600
2021-12-27 15:13:33.370065,-307
2021-12-27 15:13:33.370075,1541
2021-12-27 15:13:33.370081,2326
2021-12-27 15:13:33.661016,1930
2021-12-27 15:13:33.661044,1465
2021-12-27 15:13:33.661055,-1963
2021-12-27 15:13:33.661061,-12333
2021-12-27 15:13:33.661067,259
2021-12-27 15:13:33.661077,3947
2021-12-27 15:13:33.661086,3512
2021-12-27 15:13:33.661096,3683
2021-12-27 15:13:33.661108,-6450
2021-12-27 15:13:33.661115,-7607
2021-12-27 15:13:33.661128,676
2021-12-27 15:13:33.661138,3032
2021-12-27 15:13:33.661144,-2727
2021-12-27 15:13:33.661150,-5496
2021-12-27 15:13:33.661156,-8679
2021-12-27 15:13:33.661169,2410
2021-12-27 15:13:33.661175,2130
2021-12-27 15:13:33.661182,2488
2021-12-27 15:13:33.857246,562
2021-12-27 15:13:33.857268,-645
2021-12-27 15:13:33.857279,2491
2021-12-27 15:13:33.857288,4114
2021-12-27 15:13:33.857303,4287
2021-12-27 15:13:33.857312,-9953
2021-12-27 15:13:33.857321,-12592
2021-12-27 15:13:33.857331,-1597
2021-12-27 15:13:33.857350,4202
2021-12-27 15:13:33.857360,444
2021-12-27 15:13:33.857369,-16551
2021-12-27 15:13:33.857378,-9036
2021-12-27 15:13:33.857408,-2597
2021-12-27 15:13:33.857417,-5489
2021-12-27 15:13:33.857427,-7705
2021-12-27 15:13:33.857436,-2488
2021-12-27 15:13:33.857456,-879
2021-12-27 15:13:33.857465,-7466
2021-12-27 15:13:33.857475,3984
2021-12-27 15:13:33.857484,852
2021-12-27 15:13:34.052148,-16500
2021-12-27 15:13:34.052169,-3146
2021-12-27 15:13:34.052177,3919
2021-12-27 15:13:34.052183,-6369
2021-12-27 15:13:34.052190,1687
2021-12-27 15:13:34.052206,-3183
2021-12-27 15:13:34.052212,-14539
2021-12-27 15:13:34.052218,-10041
2021-12-27 15:13:34.052231,2319
2021-12-27 15:13:34.052241,-7804
2021-12-27 15:13:34.052247,-12409
2021-12-27 15:13:34.052263,4142
2021-12-27 15:13:34.052269,-1961
2021-12-27 15:13:34.052275,-967
2021-12-27 15:13:34.052282,513
2021-12-27 15:13:34.052288,-3095
2021-12-27 15:13:34.052294,-5475
2021-12-27 15:13:34.052300,937
2021-12-27 15:13:34.052307,4544
2021-12-27 15:13:34.052313,-2792
2021-12-27 15:13:34.052319,2870
2021-12-27 15:13:34.296336,4568
2021-12-27 15:13:34.296357,-465
2021-12-27 15:13:34.296368,-12470
2021-12-27 15:13:34.296378,-10043
2021-12-27 15:13:34.296388,3621
2021-12-27 15:13:34.296402,3917
2021-12-27 15:13:34.296412,-1120
2021-12-27 15:13:34.296421,-1053
2021-12-27 15:13:34.296431,-10453
2021-12-27 15:13:34.296440,-1877
2021-12-27 15:13:34.296455,2523
2021-12-27 15:13:34.296465,604
2021-12-27 15:13:34.296474,4297
2021-12-27 15:13:34.296484,518
2021-12-27 15:13:34.296493,3169
2021-12-27 15:13:34.296513,2252
2021-12-27 15:13:34.296522,2447
2021-12-27 15:13:34.296537,733
2021-12-27 15:13:34.296546,1532
2021-12-27 15:13:34.296556,-4102
2021-12-27 15:13:34.296566,-12997
2021-12-27 15:13:34.296575,3769
2021-12-27 15:13:34.540065,-2535
2021-12-27 15:13:34.540086,4591
2021-12-27 15:13:34.540097,189
2021-12-27 15:13:34.540103,-4871
2021-12-27 15:13:34.540109,-18966
2021-12-27 15:13:34.540115,-18966
2021-12-27 15:13:34.540121,-7482
2021-12-27 15:13:34.540131,1493
2021-12-27 15:13:34.540137,652
2021-12-27 15:13:34.540146,-3440
2021-12-27 15:13:34.540153,-11807
2021-12-27 15:13:34.540159,3259
2021-12-27 15:13:34.540165,4447
2021-12-27 15:13:34.540171,3695
2021-12-27 15:13:34.540181,2986
2021-12-27 15:13:34.540187,632
2021-12-27 15:13:34.540193,1058
2021-12-27 15:13:34.540199,3753
2021-12-27 15:13:34.540215,1375
2021-12-27 15:13:34.540221,-3164
2021-12-27 15:13:34.540227,-824
2021-12-27 15:13:34.540233,-7587
2021-12-27 15:13:34.540239,-4917
2021-12-27 15:13:34.783338,1914
2021-12-27 15:13:34.783353,-2458
2021-12-27 15:13:34.783360,-951
2021-12-27 15:13:34.783373,3956
2021-12-27 15:13:34.783379,-1801
2021-12-27 15:13:34.783385,-14375
2021-12-27 15:13:34.783391,-8638
2021-12-27 15:13:34.783407,2366
2021-12-27 15:13:34.783413,-15998
2021-12-27 15:13:34.783419,-13289
2021-12-27 15:13:34.783435,3144
2021-12-27 15:13:34.783441,872
2021-12-27 15:13:34.783447,-5857
2021-12-27 15:13:34.783454,2553
2021-12-27 15:13:34.783470,3952
2021-12-27 15:13:34.783476,-5352
2021-12-27 15:13:34.783482,3644
2021-12-27 15:13:34.978826,-6417
2021-12-27 15:13:34.978848,-6749
2021-12-27 15:13:34.978855,-6862
2021-12-27 15:13:34.978861,-17336
2021-12-27 15:13:34.978867,-13583
2021-12-27 15:13:34.978880,1007
2021-12-27 15:13:34.978890,2352
2021-12-27 15:13:34.978896,-15537
2021-12-27 15:13:34.978902,-15880
2021-12-27 15:13:34.978909,1354
2021-12-27 15:13:34.978919,2419
2021-12-27 15:13:34.978925,-12984
2021-12-27 15:13:34.978931,-12546
2021-12-27 15:13:34.978937,64
2021-12-27 15:13:34.978950,1027
2021-12-27 15:13:34.978956,803
2021-12-27 15:13:34.978962,-6
2021-12-27 15:13:34.978968,1190
2021-12-27 15:13:34.978981,3158
2021-12-27 15:13:34.978987,2924
2021-12-27 15:13:34.978993,-1176
2021-12-27 15:13:34.978999,3019
2021-12-27 15:13:35.222316,3320
2021-12-27 15:13:35.222332,-7151
2021-12-27 15:13:35.222339,-14771
2021-12-27 15:13:35.222345,-6626
2021-12-27 15:13:35.222351,-8490
2021-12-27 15:13:35.222357,-5602
2021-12-27 15:13:35.222367,4313
2021-12-27 15:13:35.222373,-1636
2021-12-27 15:13:35.222379,1389
2021-12-27 15:13:35.222385,-9599
2021-12-27 15:13:35.222391,-6695
2021-12-27 15:13:35.222404,745
2021-12-27 15:13:35.222410,2136
2021-12-27 15:13:35.222416,4373
2021-12-27 15:13:35.222422,530
2021-12-27 15:13:35.222428,3676
2021-12-27 15:13:35.222438,726
2021-12-27 15:13:35.222444,3783
2021-12-27 15:13:35.222453,-689
2021-12-27 15:13:35.222460,4635
2021-12-27 15:13:35.222469,1115
2021-12-27 15:13:35.222479,4792
2021-12-27 15:13:35.466332,1280
2021-12-27 15:13:35.466361,2060
2021-12-27 15:13:35.466372,2442
2021-12-27 15:13:35.466382,-136
2021-12-27 15:13:35.466391,-9122
2021-12-27 15:13:35.466401,-7874
2021-12-27 15:13:35.466410,-6510
2021-12-27 15:13:35.466420,-11506
2021-12-27 15:13:35.466430,-608
2021-12-27 15:13:35.466439,4267
2021-12-27 15:13:35.466449,2854
2021-12-27 15:13:35.466464,-4403
2021-12-27 15:13:35.466473,-13643
2021-12-27 15:13:35.466483,-4838
2021-12-27 15:13:35.466493,-8610
2021-12-27 15:13:35.466502,-18966
2021-12-27 15:13:35.466512,-9978
2021-12-27 15:13:35.466527,1560
2021-12-27 15:13:35.466536,-7401
2021-12-27 15:13:35.466566,1349
2021-12-27 15:13:35.466576,-1611
2021-12-27 15:13:35.466586,1963
2021-12-27 15:13:35.708534,2984
2021-12-27 15:13:35.708556,-905
2021-12-27 15:13:35.708566,-3440
2021-12-27 15:13:35.708582,4320
2021-12-27 15:13:35.708591,-9538
2021-12-27 15:13:35.708601,-11953
2021-12-27 15:13:35.708610,-14921
2021-12-27 15:13:35.708619,-11289
2021-12-27 15:13:35.708629,2921
2021-12-27 15:13:35.708648,1252
2021-12-27 15:13:35.708658,-11036
2021-12-27 15:13:35.708667,-16322
2021-12-27 15:13:35.708677,569
2021-12-27 15:13:35.708691,4774
2021-12-27 15:13:35.708701,2836
2021-12-27 15:13:35.708710,-145
2021-12-27 15:13:35.708720,-14593
2021-12-27 15:13:35.708729,-2391
2021-12-27 15:13:35.708744,3743
2021-12-27 15:13:35.708753,3338
2021-12-27 15:13:35.708763,-7853
2021-12-27 15:13:35.708772,-18417
2021-12-27 15:13:35.708781,-8823
2021-12-27 15:13:35.708791,-5283
2021-12-27 15:13:35.904696,-5501
2021-12-27 15:13:35.904717,-437
2021-12-27 15:13:35.904724,-2134
2021-12-27 15:13:35.904730,-15463
2021-12-27 15:13:35.904737,-17709
2021-12-27 15:13:35.904743,3294
2021-12-27 15:13:35.904753,-3648
2021-12-27 15:13:35.904759,-10731
2021-12-27 15:13:35.904765,-18966
2021-12-27 15:13:35.904771,-18966
2021-12-27 15:13:35.904777,511
2021-12-27 15:13:35.904790,2171
2021-12-27 15:13:35.904796,-1324
2021-12-27 15:13:35.904802,-92
2021-12-27 15:13:35.904808,1398
2021-12-27 15:13:35.904821,1234
2021-12-27 15:13:35.904827,-5426
2021-12-27 15:13:35.904833,-18966
2021-12-27 15:13:35.904839,-10754
2021-12-27 15:13:35.904851,3894
2021-12-27 15:13:35.904857,2403
2021-12-27 15:13:35.904863,2484
2021-12-27 15:13:35.904870,3621
2021-12-27 15:13:36.148477,3771
2021-12-27 15:13:36.148506,-152
2021-12-27 15:13:36.148513,3076
2021-12-27 15:13:36.148519,-6600
2021-12-27 15:13:36.148525,-6343
2021-12-27 15:13:36.148538,-1011
2021-12-27 15:13:36.148544,-8615
2021-12-27 15:13:36.148550,-17693
2021-12-27 15:13:36.148557,-11446
2021-12-27 15:13:36.148563,4702
2021-12-27 15:13:36.148573,803
2021-12-27 15:13:36.148579,4014
2021-12-27 15:13:36.148589,74
2021-12-27 15:13:36.148595,4093
2021-12-27 15:13:36.148604,2086
2021-12-27 15:13:36.148617,1646
2021-12-27 15:13:36.148623,4440
2021-12-27 15:13:36.148629,4505
2021-12-27 15:13:36.148729,4470
2021-12-27 15:13:36.392512,263
2021-12-27 15:13:36.392526,3644
2021-12-27 15:13:36.392533,4806
2021-12-27 15:13:36.392539,3373
2021-12-27 15:13:36.392549,-2280
2021-12-27 15:13:36.392555,-14963
2021-12-27 15:13:36.392561,-2896
2021-12-27 15:13:36.392574,3361
2021-12-27 15:13:36.392580,-11601
2021-12-27 15:13:36.392586,-18966
2021-12-27 15:13:36.392592,-12893
2021-12-27 15:13:36.392598,4218
2021-12-27 15:13:36.392608,4304
2021-12-27 15:13:36.392617,2671
2021-12-27 15:13:36.392623,-3621
2021-12-27 15:13:36.392629,3067
2021-12-27 15:13:36.392645,2588
2021-12-27 15:13:36.392651,-3019
2021-12-27 15:13:36.392658,-17640
2021-12-27 15:13:36.392664,-14225
2021-12-27 15:13:36.587471,4616
2021-12-27 15:13:36.587494,-2956
2021-12-27 15:13:36.587504,-2676
2021-12-27 15:13:36.587529,4871
2021-12-27 15:13:36.587538,-11888
2021-12-27 15:13:36.587548,-16236
2021-12-27 15:13:36.587557,981
2021-12-27 15:13:36.587576,-303
2021-12-27 15:13:36.587586,-8846
2021-12-27 15:13:36.587595,-18966
2021-12-27 15:13:36.587605,-6012
2021-12-27 15:13:36.587619,4903
2021-12-27 15:13:36.587634,4743
2021-12-27 15:13:36.587643,-5982
2021-12-27 15:13:36.587652,937
2021-12-27 15:13:36.587677,2398
2021-12-27 15:13:36.587686,-351
2021-12-27 15:13:36.587695,-1148
2021-12-27 15:13:36.831208,4588
2021-12-27 15:13:36.831229,4551
2021-12-27 15:13:36.831240,-6929
2021-12-27 15:13:36.831249,-16757
2021-12-27 15:13:36.831259,171
2021-12-27 15:13:36.831278,2060
2021-12-27 15:13:36.831288,-13949
2021-12-27 15:13:36.831297,-18966
2021-12-27 15:13:36.831306,-11958
2021-12-27 15:13:36.831326,-5663
2021-12-27 15:13:36.831335,-11249
2021-12-27 15:13:36.831344,-17635
2021-12-27 15:13:36.831353,-15190
2021-12-27 15:13:36.831363,-6535
2021-12-27 15:13:36.831372,-6170
2021-12-27 15:13:36.831382,-1275
2021-12-27 15:13:36.831391,-750
2021-12-27 15:13:36.831400,-5473
2021-12-27 15:13:36.831409,-1625
2021-12-27 15:13:36.831419,1252
2021-12-27 15:13:36.831433,4135
2021-12-27 15:13:36.831442,-2136
2021-12-27 15:13:36.831452,2868
2021-12-27 15:13:36.831461,1845
2021-12-27 15:13:37.074932,-115
2021-12-27 15:13:37.074957,-11530
2021-12-27 15:13:37.074964,-18966
2021-12-27 15:13:37.074970,-4232
2021-12-27 15:13:37.074976,-4227
2021-12-27 15:13:37.074983,-13690
2021-12-27 15:13:37.074989,-259
2021-12-27 15:13:37.074998,1291
2021-12-27 15:13:37.075004,513
2021-12-27 15:13:37.075011,3178
2021-12-27 15:13:37.075017,-9930
2021-12-27 15:13:37.075023,-4091
2021-12-27 15:13:37.075032,2116
2021-12-27 15:13:37.075039,3727
2021-12-27 15:13:37.075048,-4764
2021-12-27 15:13:37.075054,-4466
2021-12-27 15:13:37.075060,4324
2021-12-27 15:13:37.075080,861
2021-12-27 15:13:37.075086,2910
2021-12-27 15:13:37.075096,4519
2021-12-27 15:13:37.318714,-57
2021-12-27 15:13:37.318730,4010
2021-12-27 15:13:37.318736,3440
2021-12-27 15:13:37.318749,314
2021-12-27 15:13:37.318755,-10860
2021-12-27 15:13:37.318761,-10546
2021-12-27 15:13:37.318767,1618
2021-12-27 15:13:37.318783,-2030
2021-12-27 15:13:37.318789,-14042
2021-12-27 15:13:37.318795,-659
2021-12-27 15:13:37.318811,3359
2021-12-27 15:13:37.318817,-6408
2021-12-27 15:13:37.318823,-10471
2021-12-27 15:13:37.318829,4361
2021-12-27 15:13:37.318871,4357
2021-12-27 15:13:37.318877,4922
2021-12-27 15:13:37.318883,1643
2021-12-27 15:13:37.318889,-4621
2021-12-27 15:13:37.513666,-2229
2021-12-27 15:13:37.513687,-4822
2021-12-27 15:13:37.513697,4204
2021-12-27 15:13:37.513717,-12606
2021-12-27 15:13:37.513727,-18966
2021-12-27 15:13:37.513736,-18966
2021-12-27 15:13:37.513745,16
2021-12-27 15:13:37.513760,4713
2021-12-27 15:13:37.513774,2725
2021-12-27 15:13:37.513784,-16493
2021-12-27 15:13:37.513793,-8869
2021-12-27 15:13:37.513818,3699
2021-12-27 15:13:37.513827,1048
2021-12-27 15:13:37.513836,-5387
2021-12-27 15:13:37.513846,-5054
2021-12-27 15:13:37.513865,326
2021-12-27 15:13:37.513874,-1815
2021-12-27 15:13:37.513884,-2465
2021-12-27 15:13:37.853436,-5727
2021-12-27 15:13:37.853457,-14394
2021-12-27 15:13:37.853467,-6825
2021-12-27 15:13:37.853487,923
2021-12-27 15:13:37.853497,-896
2021-12-27 15:13:37.853506,-4079
2021-12-27 15:13:37.853516,-10703
2021-12-27 15:13:37.853525,4278
2021-12-27 15:13:37.853540,1565
2021-12-27 15:13:37.853549,1949
2021-12-27 15:13:37.853558,1148
2021-12-27 15:13:37.853568,916
2021-12-27 15:13:37.853578,4151
2021-12-27 15:13:37.853592,3229
2021-12-27 15:13:37.853602,-10210
2021-12-27 15:13:37.853611,-5084
2021-12-27 15:13:37.853621,4760
2021-12-27 15:13:37.853630,-8351
2021-12-27 15:13:37.853640,-9272
2021-12-27 15:13:37.853649,-2373
2021-12-27 15:13:37.853659,-8842
2021-12-27 15:13:37.853668,-8094
2021-12-27 15:13:37.853678,-8980
2021-12-27 15:13:38.001051,-12569
2021-12-27 15:13:38.001080,-4243
2021-12-27 15:13:38.001091,733
2021-12-27 15:13:38.001101,-2458
2021-12-27 15:13:38.001110,-2611
2021-12-27 15:13:38.001120,-4392
2021-12-27 15:13:38.001129,-14607
2021-12-27 15:13:38.001138,-8635
2021-12-27 15:13:38.001153,-46
2021-12-27 15:13:38.001163,-655
2021-12-27 15:13:38.001177,-9735
2021-12-27 15:13:38.001187,-18966
2021-12-27 15:13:38.001196,-4693
2021-12-27 15:13:38.001206,4926
2021-12-27 15:13:38.001215,4410
2021-12-27 15:13:38.001224,1326
2021-12-27 15:13:38.001234,-7348
2021-12-27 15:13:38.001243,-12727
2021-12-27 15:13:38.001253,-2224
2021-12-27 15:13:38.001267,3398
2021-12-27 15:13:38.001287,-5000
2021-12-27 15:13:38.001296,-12544
2021-12-27 15:13:38.001306,-8552
2021-12-27 15:13:38.001315,4121
2021-12-27 15:13:38.196030,2826
2021-12-27 15:13:38.196060,-266
2021-12-27 15:13:38.196071,2426
2021-12-27 15:13:38.196081,766
2021-12-27 15:13:38.196100,4841
2021-12-27 15:13:38.196110,-3579
2021-12-27 15:13:38.196119,-14766
2021-12-27 15:13:38.196128,-1655
2021-12-27 15:13:38.196152,-1738
2021-12-27 15:13:38.196162,-15549
2021-12-27 15:13:38.196171,-6832
2021-12-27 15:13:38.196200,1923
2021-12-27 15:13:38.196210,-4787
2021-12-27 15:13:38.196239,502
2021-12-27 15:13:38.196248,-8235
2021-12-27 15:13:38.196257,-6316
2021-12-27 15:13:38.196267,-2977
2021-12-27 15:13:38.439377,-8839
2021-12-27 15:13:38.439392,-18197
2021-12-27 15:13:38.439399,-4554
2021-12-27 15:13:38.439413,3262
2021-12-27 15:13:38.439422,-10770
2021-12-27 15:13:38.439428,-9004
2021-12-27 15:13:38.439444,4019
2021-12-27 15:13:38.439450,-3104
2021-12-27 15:13:38.439457,-1585
2021-12-27 15:13:38.439463,-6487
2021-12-27 15:13:38.439469,-15470
2021-12-27 15:13:38.439475,-6855
2021-12-27 15:13:38.439485,1840
2021-12-27 15:13:38.439491,-5139
2021-12-27 15:13:38.439504,4429
2021-12-27 15:13:38.439513,2016
2021-12-27 15:13:38.439520,-1884
2021-12-27 15:13:38.439526,2136
2021-12-27 15:13:38.683557,-4906
2021-12-27 15:13:38.683578,-4424
2021-12-27 15:13:38.683586,3195
2021-12-27 15:13:38.683592,-118
2021-12-27 15:13:38.683599,-8163
2021-12-27 15:13:38.683605,-11868
2021-12-27 15:13:38.683611,2461
2021-12-27 15:13:38.683621,972
2021-12-27 15:13:38.683627,2113
2021-12-27 15:13:38.683633,-2625
2021-12-27 15:13:38.683639,-11754
2021-12-27 15:13:38.683645,-627
2021-12-27 15:13:38.683658,1083
2021-12-27 15:13:38.683664,2831
2021-12-27 15:13:38.683670,4709
2021-12-27 15:13:38.683676,708
2021-12-27 15:13:38.683689,476
2021-12-27 15:13:38.683702,625
2021-12-27 15:13:38.683711,4973
2021-12-27 15:13:38.683717,2727
2021-12-27 15:13:38.683726,4264
2021-12-27 15:13:38.927286,2586
2021-12-27 15:13:38.927306,-1562
2021-12-27 15:13:38.927314,-9082
2021-12-27 15:13:38.927320,-11875
2021-12-27 15:13:38.927327,1611
2021-12-27 15:13:38.927337,-10608
2021-12-27 15:13:38.927343,-10256
2021-12-27 15:13:38.927352,2593
2021-12-27 15:13:38.927358,3060
2021-12-27 15:13:38.927368,-7017
2021-12-27 15:13:38.927374,-11650
2021-12-27 15:13:38.927380,-726
2021-12-27 15:13:38.927390,4313
2021-12-27 15:13:38.927402,-595
2021-12-27 15:13:38.927408,-796
2021-12-27 15:13:38.927418,-62
2021-12-27 15:13:38.927424,-10907
2021-12-27 15:13:38.927430,-17971
2021-12-27 15:13:38.927436,-6042
2021-12-27 15:13:38.927446,-1315
2021-12-27 15:13:38.927452,4535
2021-12-27 15:13:39.121519,4595
2021-12-27 15:13:39.121542,3164
2021-12-27 15:13:39.121549,-1500
2021-12-27 15:13:39.121555,-4748
2021-12-27 15:13:39.121613,-4892
2021-12-27 15:13:39.121631,-5693
2021-12-27 15:13:39.121642,9
2021-12-27 15:13:39.121649,-18966
2021-12-27 15:13:39.121655,-8552
2021-12-27 15:13:39.121671,-32
2021-12-27 15:13:39.121677,-11618
2021-12-27 15:13:39.121683,-15146
2021-12-27 15:13:39.121696,2833
2021-12-27 15:13:39.121706,2813
2021-12-27 15:13:39.121712,-6788
2021-12-27 15:13:39.121718,4901
2021-12-27 15:13:39.121734,-115
2021-12-27 15:13:39.121740,-3632
2021-12-27 15:13:39.121747,1794
2021-12-27 15:13:39.365982,4049
2021-12-27 15:13:39.365997,990
2021-12-27 15:13:39.366004,-12569
2021-12-27 15:13:39.366010,-11523
2021-12-27 15:13:39.366020,-9995
2021-12-27 15:13:39.366026,-18966
2021-12-27 15:13:39.366032,-7522
2021-12-27 15:13:39.366038,-10867
2021-12-27 15:13:39.366044,-17237
2021-12-27 15:13:39.366050,-1347
2021-12-27 15:13:39.366056,4155
2021-12-27 15:13:39.366063,-7788
2021-12-27 15:13:39.366069,-11321
2021-12-27 15:13:39.366075,-11851
2021-12-27 15:13:39.366081,-17487
2021-12-27 15:13:39.366087,-4153
2021-12-27 15:13:39.366096,574
2021-12-27 15:13:39.366102,-1539
2021-12-27 15:13:39.366108,-997
2021-12-27 15:13:39.366114,-5767
2021-12-27 15:13:39.366121,1366
2021-12-27 15:13:39.366133,4338
2021-12-27 15:13:39.366139,-152
2021-12-27 15:13:39.366145,886
2021-12-27 15:13:39.366152,-8987
2021-12-27 15:13:39.609716,-13088
2021-12-27 15:13:39.609745,-2338
2021-12-27 15:13:39.609752,-2803
2021-12-27 15:13:39.609758,-9439
2021-12-27 15:13:39.609764,-2553
2021-12-27 15:13:39.609770,3797
2021-12-27 15:13:39.609776,-8992
2021-12-27 15:13:39.609782,-12706
2021-12-27 15:13:39.609788,-2407
2021-12-27 15:13:39.609794,-4616
2021-12-27 15:13:39.609800,-9974
2021-12-27 15:13:39.609813,-2143
2021-12-27 15:13:39.609819,2704
2021-12-27 15:13:39.609829,-544
2021-12-27 15:13:39.609841,2060
2021-12-27 15:13:39.609854,2986
2021-12-27 15:13:39.609860,4947
2021-12-27 15:13:39.609873,4442
2021-12-27 15:13:39.949599,4790
2021-12-27 15:13:39.949628,824
2021-12-27 15:13:39.949645,3426
2021-12-27 15:13:39.949654,4220
2021-12-27 15:13:39.949669,-7230
2021-12-27 15:13:39.949678,-12391
2021-12-27 15:13:39.949688,1171
2021-12-27 15:13:39.949697,1926
2021-12-27 15:13:39.949707,-7260
2021-12-27 15:13:39.949716,-6711
2021-12-27 15:13:39.949726,-208
2021-12-27 15:13:39.949735,-8536
2021-12-27 15:13:39.949744,-9205
2021-12-27 15:13:39.949774,544
2021-12-27 15:13:39.949783,-196
2021-12-27 15:13:39.949793,3421
2021-12-27 15:13:39.949817,3093
2021-12-27 15:13:39.949827,576
2021-12-27 15:13:39.949836,131
2021-12-27 15:13:40.048525,-3412
2021-12-27 15:13:40.048541,-2780
2021-12-27 15:13:40.048547,-5320
2021-12-27 15:13:40.048554,-15208
2021-12-27 15:13:40.048560,-2727
2021-12-27 15:13:40.048566,3051
2021-12-27 15:13:40.048572,-15285
2021-12-27 15:13:40.048579,-17792
2021-12-27 15:13:40.048591,-8175
2021-12-27 15:13:40.048598,-7661
2021-12-27 15:13:40.048604,-696
2021-12-27 15:13:40.048610,-9210
2021-12-27 15:13:40.048616,1919
2021-12-27 15:13:40.048632,-949
2021-12-27 15:13:40.048638,-8707
2021-12-27 15:13:40.048644,1227
2021-12-27 15:13:40.048660,2963
2021-12-27 15:13:40.048666,-1403
2021-12-27 15:13:40.048673,-1648
