Time,ECG
2021-12-27 15:02:54.967207,4473
2021-12-27 15:02:54.967232,-2308
2021-12-27 15:02:54.967239,-3232
2021-12-27 15:02:54.967248,-789
2021-12-27 15:02:54.967253,-16864
2021-12-27 15:02:54.967257,-18966
2021-12-27 15:02:54.967261,-16306
2021-12-27 15:02:54.967266,-6598
2021-12-27 15:02:54.967270,2664
2021-12-27 15:02:54.967277,4334
2021-12-27 15:02:54.967281,-3049
2021-12-27 15:02:54.967285,-12301
2021-12-27 15:02:54.967289,1159
2021-12-27 15:02:54.967296,4598
2021-12-27 15:02:54.967302,3526
2021-12-27 15:02:54.967306,-5533
2021-12-27 15:02:54.967311,2713
2021-12-27 15:02:54.967322,2069
2021-12-27 15:02:54.967326,-544
2021-12-27 15:02:54.967331,-208
2021-12-27 15:02:55.126028,3857
2021-12-27 15:02:55.126043,4241
2021-12-27 15:02:55.126050,-7089
2021-12-27 15:02:55.126056,-13470
2021-12-27 15:02:55.126063,3794
2021-12-27 15:02:55.126076,3808
2021-12-27 15:02:55.126083,-5035
2021-12-27 15:02:55.126089,-11057
2021-12-27 15:02:55.126096,-9888
2021-12-27 15:02:55.126102,-3808
2021-12-27 15:02:55.126108,1176
2021-12-27 15:02:55.126114,1863
2021-12-27 15:02:55.126120,2826
2021-12-27 15:02:55.126126,-696
2021-12-27 15:02:55.126132,555
2021-12-27 15:02:55.126138,3301
2021-12-27 15:02:55.126145,-4153
2021-12-27 15:02:55.126151,-1639
2021-12-27 15:02:55.126158,2398
2021-12-27 15:02:55.126164,-1627
2021-12-27 15:02:55.126170,-291
2021-12-27 15:02:55.126176,-3280
2021-12-27 15:02:55.126182,-4454
2021-12-27 15:02:55.126188,-3257
2021-12-27 15:02:55.126194,-10796
2021-12-27 15:02:55.126200,-8881
2021-12-27 15:02:55.126207,-2319
2021-12-27 15:02:55.321663,731
2021-12-27 15:02:55.321694,4130
2021-12-27 15:02:55.321705,-754
2021-12-27 15:02:55.321715,-1227
2021-12-27 15:02:55.321724,-338
2021-12-27 15:02:55.321734,-11060
2021-12-27 15:02:55.321743,-10881
2021-12-27 15:02:55.321753,2632
2021-12-27 15:02:55.321768,-949
2021-12-27 15:02:55.321777,1523
2021-12-27 15:02:55.321792,-10789
2021-12-27 15:02:55.321802,-18204
2021-12-27 15:02:55.321815,-8126
2021-12-27 15:02:55.321825,-4074
2021-12-27 15:02:55.321835,4662
2021-12-27 15:02:55.321844,2354
2021-12-27 15:02:55.321854,-11828
2021-12-27 15:02:55.321863,-3120
2021-12-27 15:02:55.321878,3266
2021-12-27 15:02:55.321888,4544
2021-12-27 15:02:55.321903,3653
2021-12-27 15:02:55.321912,356
2021-12-27 15:02:55.321921,3540
2021-12-27 15:02:55.321936,3563
2021-12-27 15:02:55.565767,-405
2021-12-27 15:02:55.565789,4426
2021-12-27 15:02:55.565807,3273
2021-12-27 15:02:55.565817,4871
2021-12-27 15:02:55.565832,-1065
2021-12-27 15:02:55.565842,-10279
2021-12-27 15:02:55.565851,-6695
2021-12-27 15:02:55.565860,4440
2021-12-27 15:02:55.565875,4368
2021-12-27 15:02:55.565889,-3442
2021-12-27 15:02:55.565899,-12314
2021-12-27 15:02:55.565908,-2748
2021-12-27 15:02:55.565918,-1676
2021-12-27 15:02:55.565927,335
2021-12-27 15:02:55.565942,2326
2021-12-27 15:02:55.565951,-2569
2021-12-27 15:02:55.565961,456
2021-12-27 15:02:55.565980,4704
2021-12-27 15:02:55.565992,4359
2021-12-27 15:02:55.566002,-898
2021-12-27 15:02:55.566011,-3174
2021-12-27 15:02:55.807803,-2444
2021-12-27 15:02:55.807825,-3533
2021-12-27 15:02:55.807835,4936
2021-12-27 15:02:55.807855,3315
2021-12-27 15:02:55.807865,-4047
2021-12-27 15:02:55.807875,-13266
2021-12-27 15:02:55.807884,-2444
2021-12-27 15:02:55.807904,3537
2021-12-27 15:02:55.807913,1801
2021-12-27 15:02:55.807923,-14255
2021-12-27 15:02:55.807932,-6186
2021-12-27 15:02:55.807947,-9856
2021-12-27 15:02:55.807956,-16931
2021-12-27 15:02:55.807966,-1537
2021-12-27 15:02:55.807975,2442
2021-12-27 15:02:55.807991,-4058
2021-12-27 15:02:55.808001,4683
2021-12-27 15:02:55.808016,3938
2021-12-27 15:02:55.808025,2243
2021-12-27 15:02:55.808035,1988
2021-12-27 15:02:55.808044,-1919
2021-12-27 15:02:56.004042,4906
2021-12-27 15:02:56.004070,-6047
2021-12-27 15:02:56.004081,-12879
2021-12-27 15:02:56.004091,-4012
2021-12-27 15:02:56.004111,-6193
2021-12-27 15:02:56.004120,-10652
2021-12-27 15:02:56.004130,-8649
2021-12-27 15:02:56.004139,-9650
2021-12-27 15:02:56.004149,2995
2021-12-27 15:02:56.004164,-9740
2021-12-27 15:02:56.004173,-11196
2021-12-27 15:02:56.004183,-7256
2021-12-27 15:02:56.004192,-9772
2021-12-27 15:02:56.004202,-7378
2021-12-27 15:02:56.004218,-2894
2021-12-27 15:02:56.004228,-10596
2021-12-27 15:02:56.004237,-13213
2021-12-27 15:02:56.004247,1928
2021-12-27 15:02:56.004256,2183
2021-12-27 15:02:56.004266,-4301
2021-12-27 15:02:56.004281,4785
2021-12-27 15:02:56.004290,-1919
2021-12-27 15:02:56.004300,4378
2021-12-27 15:02:56.004309,1690
2021-12-27 15:02:56.247645,388
2021-12-27 15:02:56.247672,2891
2021-12-27 15:02:56.247679,1229
2021-12-27 15:02:56.247685,2042
2021-12-27 15:02:56.247692,-2488
2021-12-27 15:02:56.247698,-10918
2021-12-27 15:02:56.247704,-2956
2021-12-27 15:02:56.247714,1264
2021-12-27 15:02:56.247720,1572
2021-12-27 15:02:56.247729,-7911
2021-12-27 15:02:56.247735,-5658
2021-12-27 15:02:56.247745,3171
2021-12-27 15:02:56.247753,4324
2021-12-27 15:02:56.247763,2317
2021-12-27 15:02:56.247769,875
2021-12-27 15:02:56.247775,1926
2021-12-27 15:02:56.247781,458
2021-12-27 15:02:56.247787,-9460
2021-12-27 15:02:56.247793,-16820
2021-12-27 15:02:56.247799,-17237
2021-12-27 15:02:56.247805,-7311
2021-12-27 15:02:56.247815,3542
2021-12-27 15:02:56.247821,2130
2021-12-27 15:02:56.442792,-159
2021-12-27 15:02:56.442814,2486
2021-12-27 15:02:56.442825,1810
2021-12-27 15:02:56.442844,3940
2021-12-27 15:02:56.442854,-4176
2021-12-27 15:02:56.442864,-12875
2021-12-27 15:02:56.442873,590
2021-12-27 15:02:56.442898,-2294
2021-12-27 15:02:56.442907,-14405
2021-12-27 15:02:56.442917,-5204
2021-12-27 15:02:56.442936,4612
2021-12-27 15:02:56.442946,4181
2021-12-27 15:02:56.442955,1245
2021-12-27 15:02:56.442964,-3801
2021-12-27 15:02:56.442991,-7902
2021-12-27 15:02:56.443001,-1342
2021-12-27 15:02:56.443011,1196
2021-12-27 15:02:56.443020,-2924
2021-12-27 15:02:56.443030,4114
2021-12-27 15:02:56.686896,4278
2021-12-27 15:02:56.686912,-7700
2021-12-27 15:02:56.686918,-16264
2021-12-27 15:02:56.686925,-3759
2021-12-27 15:02:56.686938,-3428
2021-12-27 15:02:56.686944,-6677
2021-12-27 15:02:56.686950,-16609
2021-12-27 15:02:56.686956,-6700
2021-12-27 15:02:56.686966,4146
2021-12-27 15:02:56.686972,-1305
2021-12-27 15:02:56.686978,-8362
2021-12-27 15:02:56.686984,-13296
2021-12-27 15:02:56.686990,-10518
2021-12-27 15:02:56.686996,-6292
2021-12-27 15:02:56.687002,3871
2021-12-27 15:02:56.687009,4533
2021-12-27 15:02:56.687015,-2292
2021-12-27 15:02:56.687021,-2933
2021-12-27 15:02:56.687027,-3637
2021-12-27 15:02:56.687033,3202
2021-12-27 15:02:56.687043,-3007
2021-12-27 15:02:56.687049,-10219
2021-12-27 15:02:56.687055,-7587
2021-12-27 15:02:56.687063,-724
2021-12-27 15:02:56.687069,-8888
2021-12-27 15:02:56.930195,-13625
2021-12-27 15:02:56.930237,-6341
2021-12-27 15:02:56.930247,-6755
2021-12-27 15:02:56.930257,-6968
2021-12-27 15:02:56.930266,3357
2021-12-27 15:02:56.930281,1442
2021-12-27 15:02:56.930290,1678
2021-12-27 15:02:56.930300,-2234
2021-12-27 15:02:56.930309,-9624
2021-12-27 15:02:56.930318,951
2021-12-27 15:02:56.930338,1384
2021-12-27 15:02:56.930347,3079
2021-12-27 15:02:56.930356,4672
2021-12-27 15:02:56.930366,1322
2021-12-27 15:02:56.930385,578
2021-12-27 15:02:56.930394,3903
2021-12-27 15:02:56.930404,-2701
2021-12-27 15:02:56.930413,-6540
2021-12-27 15:02:56.930428,4243
2021-12-27 15:02:56.930437,-4917
2021-12-27 15:02:56.930446,-12321
2021-12-27 15:02:56.930456,-16054
2021-12-27 15:02:57.173457,-7105
2021-12-27 15:02:57.173481,-4199
2021-12-27 15:02:57.173493,-9119
2021-12-27 15:02:57.173503,-6237
2021-12-27 15:02:57.173512,2708
2021-12-27 15:02:57.173522,2926
2021-12-27 15:02:57.173531,-11358
2021-12-27 15:02:57.173541,-8443
2021-12-27 15:02:57.173560,854
2021-12-27 15:02:57.173570,2456
2021-12-27 15:02:57.173584,-7286
2021-12-27 15:02:57.173593,-9967
2021-12-27 15:02:57.173603,375
2021-12-27 15:02:57.173617,4139
2021-12-27 15:02:57.173636,-277
2021-12-27 15:02:57.173646,78
2021-12-27 15:02:57.173660,4329
2021-12-27 15:02:57.173679,-25
2021-12-27 15:02:57.173689,2539
2021-12-27 15:02:57.173698,3072
2021-12-27 15:02:57.173712,4656
2021-12-27 15:02:57.368720,-6962
2021-12-27 15:02:57.368740,-4852
2021-12-27 15:02:57.368748,-268
2021-12-27 15:02:57.368754,-4128
2021-12-27 15:02:57.368760,-11317
2021-12-27 15:02:57.368766,-9460
2021-12-27 15:02:57.368776,1824
2021-12-27 15:02:57.368782,-17526
2021-12-27 15:02:57.368788,-4480
2021-12-27 15:02:57.368804,1500
2021-12-27 15:02:57.368810,-8575
2021-12-27 15:02:57.368817,-10583
2021-12-27 15:02:57.368832,3428
2021-12-27 15:02:57.368843,3600
2021-12-27 15:02:57.368850,-4581
2021-12-27 15:02:57.368869,1187
2021-12-27 15:02:57.368875,-1440
2021-12-27 15:02:57.368881,3412
2021-12-27 15:02:57.613182,-615
2021-12-27 15:02:57.613205,-11532
2021-12-27 15:02:57.613215,-18966
2021-12-27 15:02:57.613225,-6103
2021-12-27 15:02:57.613245,4896
2021-12-27 15:02:57.613262,-10372
2021-12-27 15:02:57.613272,-10395
2021-12-27 15:02:57.613296,1521
2021-12-27 15:02:57.613306,497
2021-12-27 15:02:57.613315,-1761
2021-12-27 15:02:57.613325,2914
2021-12-27 15:02:57.613340,-4419
2021-12-27 15:02:57.613349,-2143
2021-12-27 15:02:57.613359,2280
2021-12-27 15:02:57.613368,-2919
2021-12-27 15:02:57.613378,1541
2021-12-27 15:02:57.613387,111
2021-12-27 15:02:57.613397,-4866
2021-12-27 15:02:57.613406,-3185
2021-12-27 15:02:57.613416,-10252
2021-12-27 15:02:57.613425,-11365
2021-12-27 15:02:57.613435,-2486
2021-12-27 15:02:57.903734,3847
2021-12-27 15:02:57.903760,-1724
2021-12-27 15:02:57.903767,-6228
2021-12-27 15:02:57.903773,-13935
2021-12-27 15:02:57.903780,-18350
2021-12-27 15:02:57.903786,-1113
2021-12-27 15:02:57.903795,-4035
2021-12-27 15:02:57.903801,-16417
2021-12-27 15:02:57.903807,-17139
2021-12-27 15:02:57.903813,-7915
2021-12-27 15:02:57.903820,-4554
2021-12-27 15:02:57.903826,3505
2021-12-27 15:02:57.903835,30
2021-12-27 15:02:57.903841,4091
2021-12-27 15:02:57.903851,-412
2021-12-27 15:02:57.903863,1995
2021-12-27 15:02:57.903873,4950
2021-12-27 15:02:57.903879,2595
2021-12-27 15:02:57.903885,4649
2021-12-27 15:02:57.903898,4415
2021-12-27 15:02:58.197994,4359
2021-12-27 15:02:58.198024,849
2021-12-27 15:02:58.198042,3169
2021-12-27 15:02:58.198059,3938
2021-12-27 15:02:58.198069,4602
2021-12-27 15:02:58.198079,-16338
2021-12-27 15:02:58.198088,-17994
2021-12-27 15:02:58.198098,3185
2021-12-27 15:02:58.198113,4257
2021-12-27 15:02:58.198128,1699
2021-12-27 15:02:58.198137,-9703
2021-12-27 15:02:58.198147,-6637
2021-12-27 15:02:58.198176,919
2021-12-27 15:02:58.198186,606
2021-12-27 15:02:58.198196,4181
2021-12-27 15:02:58.198220,2349
2021-12-27 15:02:58.198230,-266
2021-12-27 15:02:58.198239,213
2021-12-27 15:02:58.344217,-3371
2021-12-27 15:02:58.344239,-1284
2021-12-27 15:02:58.344264,562
2021-12-27 15:02:58.344274,-8221
2021-12-27 15:02:58.344284,-6487
2021-12-27 15:02:58.344303,4348
2021-12-27 15:02:58.344313,4361
2021-12-27 15:02:58.344322,-1618
2021-12-27 15:02:58.344332,-15815
2021-12-27 15:02:58.344341,-1576
2021-12-27 15:02:58.344361,2866
2021-12-27 15:02:58.344370,-12243
2021-12-27 15:02:58.344380,-18966
2021-12-27 15:02:58.344390,-6195
2021-12-27 15:02:58.344409,-2708
2021-12-27 15:02:58.344419,-11134
2021-12-27 15:02:58.344429,-18966
2021-12-27 15:02:58.344438,-18415
2021-12-27 15:02:58.344447,-4044
2021-12-27 15:02:58.587603,486
2021-12-27 15:02:58.587623,942
2021-12-27 15:02:58.587631,581
2021-12-27 15:02:58.587638,-15459
2021-12-27 15:02:58.587644,-16609
2021-12-27 15:02:58.587650,2572
2021-12-27 15:02:58.587660,4188
2021-12-27 15:02:58.587666,805
2021-12-27 15:02:58.587673,-2664
2021-12-27 15:02:58.587679,-6390
2021-12-27 15:02:58.587685,-3986
2021-12-27 15:02:58.587702,370
2021-12-27 15:02:58.587709,210
2021-12-27 15:02:58.587715,-8395
2021-12-27 15:02:58.587721,-6109
2021-12-27 15:02:58.587735,3966
2021-12-27 15:02:58.587741,752
2021-12-27 15:02:58.587747,1169
2021-12-27 15:02:58.587753,2787
2021-12-27 15:02:58.587760,3574
2021-12-27 15:02:58.587769,3412
2021-12-27 15:02:58.587776,247
2021-12-27 15:02:58.587785,1634
2021-12-27 15:02:58.830993,3966
2021-12-27 15:02:58.831020,2662
2021-12-27 15:02:58.831027,2104
2021-12-27 15:02:58.831033,518
2021-12-27 15:02:58.831040,-8242
2021-12-27 15:02:58.831046,-7617
2021-12-27 15:02:58.831052,4977
2021-12-27 15:02:58.831062,92
2021-12-27 15:02:58.831068,3581
2021-12-27 15:02:58.831077,-5459
2021-12-27 15:02:58.831135,-3100
2021-12-27 15:02:58.831158,2861
2021-12-27 15:02:58.831165,4623
2021-12-27 15:02:58.831171,194
2021-12-27 15:02:58.831177,-10027
2021-12-27 15:02:58.831184,-4542
2021-12-27 15:02:58.831190,-7804
2021-12-27 15:02:58.831196,-15574
2021-12-27 15:02:58.831202,-1518
2021-12-27 15:02:58.831212,2312
2021-12-27 15:02:58.831218,-2664
2021-12-27 15:02:58.831231,2271
2021-12-27 15:02:59.075034,4162
2021-12-27 15:02:59.075054,-178
2021-12-27 15:02:59.075062,4713
2021-12-27 15:02:59.075069,2294
2021-12-27 15:02:59.075082,-2037
2021-12-27 15:02:59.075088,-10687
2021-12-27 15:02:59.075095,-7244
2021-12-27 15:02:59.075107,4074
2021-12-27 15:02:59.075117,2289
2021-12-27 15:02:59.075123,-10048
2021-12-27 15:02:59.075129,-6471
2021-12-27 15:02:59.075142,3389
2021-12-27 15:02:59.075148,-6482
2021-12-27 15:02:59.075155,-10233
2021-12-27 15:02:59.075161,-3820
2021-12-27 15:02:59.075174,2868
2021-12-27 15:02:59.075180,1768
2021-12-27 15:02:59.075190,-11340
2021-12-27 15:02:59.075196,-8698
2021-12-27 15:02:59.221361,3459
2021-12-27 15:02:59.221392,-2250
2021-12-27 15:02:59.221404,-15556
2021-12-27 15:02:59.221413,-13090
2021-12-27 15:02:59.221423,-5693
2021-12-27 15:02:59.221432,-2914
2021-12-27 15:02:59.221442,335
2021-12-27 15:02:59.221451,1669
2021-12-27 15:02:59.221461,-6584
2021-12-27 15:02:59.221470,-17047
2021-12-27 15:02:59.221480,-2306
2021-12-27 15:02:59.221495,1701
2021-12-27 15:02:59.221504,3801
2021-12-27 15:02:59.221514,4304
2021-12-27 15:02:59.221524,-5211
2021-12-27 15:02:59.221533,-7890
2021-12-27 15:02:59.221543,-3535
2021-12-27 15:02:59.221562,-4512
2021-12-27 15:02:59.221572,-11942
2021-12-27 15:02:59.221581,-9682
2021-12-27 15:02:59.221601,-145
2021-12-27 15:02:59.221610,-7987
2021-12-27 15:02:59.221620,-18251
2021-12-27 15:02:59.221629,-7800
2021-12-27 15:02:59.465423,4399
2021-12-27 15:02:59.465451,-7378
2021-12-27 15:02:59.465461,-13164
2021-12-27 15:02:59.465471,-2863
2021-12-27 15:02:59.465490,275
2021-12-27 15:02:59.465500,1518
2021-12-27 15:02:59.465509,-5012
2021-12-27 15:02:59.465519,-6522
2021-12-27 15:02:59.465539,3158
2021-12-27 15:02:59.465548,2468
2021-12-27 15:02:59.465558,926
2021-12-27 15:02:59.465567,-597
2021-12-27 15:02:59.465576,-6251
2021-12-27 15:02:59.465586,-1104
2021-12-27 15:02:59.465600,2018
2021-12-27 15:02:59.465610,840
2021-12-27 15:02:59.465619,-4885
2021-12-27 15:02:59.465629,-4924
2021-12-27 15:02:59.465643,3266
2021-12-27 15:02:59.465653,-641
2021-12-27 15:02:59.465662,250
2021-12-27 15:02:59.465672,-7827
2021-12-27 15:02:59.708838,-6054
2021-12-27 15:02:59.708868,-2410
2021-12-27 15:02:59.708879,-8624
2021-12-27 15:02:59.708888,-7925
2021-12-27 15:02:59.708898,460
2021-12-27 15:02:59.708907,-3834
2021-12-27 15:02:59.708917,-15875
2021-12-27 15:02:59.708926,-2738
2021-12-27 15:02:59.708941,-2461
2021-12-27 15:02:59.708955,1745
2021-12-27 15:02:59.708965,2894
2021-12-27 15:02:59.708975,-12370
2021-12-27 15:02:59.708984,-4917
2021-12-27 15:02:59.708998,2347
2021-12-27 15:02:59.709008,3273
2021-12-27 15:02:59.709022,2810
2021-12-27 15:02:59.709032,-4720
2021-12-27 15:02:59.709041,-9788
2021-12-27 15:02:59.709050,-5035
2021-12-27 15:02:59.709060,3968
2021-12-27 15:02:59.709074,3234
2021-12-27 15:02:59.709083,-1030
2021-12-27 15:02:59.709098,3486
2021-12-27 15:02:59.709107,4755
2021-12-27 15:03:00.000115,-2375
2021-12-27 15:03:00.000153,-15764
2021-12-27 15:03:00.000164,-9027
2021-12-27 15:03:00.000184,1974
2021-12-27 15:03:00.000193,-4239
2021-12-27 15:03:00.000203,-10532
2021-12-27 15:03:00.000212,1849
2021-12-27 15:03:00.000237,-4023
2021-12-27 15:03:00.000246,-11240
2021-12-27 15:03:00.000256,-2727
2021-12-27 15:03:00.000275,4056
2021-12-27 15:03:00.000290,724
2021-12-27 15:03:00.000300,-7316
2021-12-27 15:03:00.000309,-3600
2021-12-27 15:03:00.000319,-893
2021-12-27 15:03:00.000338,-3387
2021-12-27 15:03:00.000348,-1993
2021-12-27 15:03:00.147575,4873
2021-12-27 15:03:00.147598,1868
2021-12-27 15:03:00.147609,-2613
2021-12-27 15:03:00.147619,2558
2021-12-27 15:03:00.147644,1456
2021-12-27 15:03:00.147654,-14486
2021-12-27 15:03:00.147664,-5376
2021-12-27 15:03:00.147689,-648
2021-12-27 15:03:00.147699,-12497
2021-12-27 15:03:00.147708,-11854
2021-12-27 15:03:00.147728,2461
2021-12-27 15:03:00.147738,2486
2021-12-27 15:03:00.147747,1949
2021-12-27 15:03:00.147757,-2819
2021-12-27 15:03:00.147767,3213
2021-12-27 15:03:00.147777,-1910
2021-12-27 15:03:00.147786,-4790
2021-12-27 15:03:00.147801,664
2021-12-27 15:03:00.147811,-2822
2021-12-27 15:03:00.147821,4047
2021-12-27 15:03:00.391321,1891
2021-12-27 15:03:00.391337,-1666
2021-12-27 15:03:00.391344,-6619
2021-12-27 15:03:00.391350,-9388
2021-12-27 15:03:00.391356,2741
2021-12-27 15:03:00.391362,-4797
2021-12-27 15:03:00.391368,-16704
2021-12-27 15:03:00.391375,-1822
2021-12-27 15:03:00.391381,-1636
2021-12-27 15:03:00.391387,-11502
2021-12-27 15:03:00.391393,-377
2021-12-27 15:03:00.391406,-956
2021-12-27 15:03:00.391416,4287
2021-12-27 15:03:00.391423,4021
2021-12-27 15:03:00.391429,252
2021-12-27 15:03:00.391442,118
2021-12-27 15:03:00.391451,2769
2021-12-27 15:03:00.391457,1729
2021-12-27 15:03:00.391464,2502
2021-12-27 15:03:00.391470,-8506
2021-12-27 15:03:00.391476,-8629
2021-12-27 15:03:00.391482,3910
2021-12-27 15:03:00.635527,-171
2021-12-27 15:03:00.635557,2039
2021-12-27 15:03:00.635574,979
2021-12-27 15:03:00.635583,2632
2021-12-27 15:03:00.635598,-9115
2021-12-27 15:03:00.635607,-6096
2021-12-27 15:03:00.635622,2989
2021-12-27 15:03:00.635631,4044
2021-12-27 15:03:00.635641,3792
2021-12-27 15:03:00.635650,-6614
2021-12-27 15:03:00.635660,-9594
2021-12-27 15:03:00.635669,576
2021-12-27 15:03:00.635684,997
2021-12-27 15:03:00.635704,-2440
2021-12-27 15:03:00.635713,1553
2021-12-27 15:03:00.635728,3340
2021-12-27 15:03:00.635742,4023
2021-12-27 15:03:00.635752,-328
2021-12-27 15:03:00.635761,1335
2021-12-27 15:03:00.635771,-2644
2021-12-27 15:03:00.635780,-5836
2021-12-27 15:03:00.635790,-4000
2021-12-27 15:03:00.830190,4926
2021-12-27 15:03:00.830213,4843
2021-12-27 15:03:00.830220,-5815
2021-12-27 15:03:00.830227,215
2021-12-27 15:03:00.830243,-4940
2021-12-27 15:03:00.830250,-16294
2021-12-27 15:03:00.830256,-5447
2021-12-27 15:03:00.830269,-1854
2021-12-27 15:03:00.830276,-18966
2021-12-27 15:03:00.830282,-18966
2021-12-27 15:03:00.830288,-11476
2021-12-27 15:03:00.830301,1694
2021-12-27 15:03:00.830311,-1268
2021-12-27 15:03:00.830317,-6079
2021-12-27 15:03:00.830337,-34
2021-12-27 15:03:00.830343,-2903
2021-12-27 15:03:00.830349,1470
2021-12-27 15:03:01.074117,-3852
2021-12-27 15:03:01.074147,-6760
2021-12-27 15:03:01.074158,1257
2021-12-27 15:03:01.074169,-11032
2021-12-27 15:03:01.074179,-9318
2021-12-27 15:03:01.074199,4681
2021-12-27 15:03:01.074209,981
2021-12-27 15:03:01.074219,-11587
2021-12-27 15:03:01.074229,-10891
2021-12-27 15:03:01.074238,4315
2021-12-27 15:03:01.074253,4174
2021-12-27 15:03:01.074262,701
2021-12-27 15:03:01.074272,1370
2021-12-27 15:03:01.074281,-2799
2021-12-27 15:03:01.074291,4424
2021-12-27 15:03:01.074306,4070
2021-12-27 15:03:01.074315,4554
2021-12-27 15:03:01.074325,439
2021-12-27 15:03:01.074335,-2000
2021-12-27 15:03:01.074345,4760
2021-12-27 15:03:01.074364,4216
2021-12-27 15:03:01.074374,-321
2021-12-27 15:03:01.074384,2011
2021-12-27 15:03:01.074398,928
2021-12-27 15:03:01.317597,4542
2021-12-27 15:03:01.317619,-11599
2021-12-27 15:03:01.317629,-11407
2021-12-27 15:03:01.317639,-5262
2021-12-27 15:03:01.317649,-9976
2021-12-27 15:03:01.317658,-2813
2021-12-27 15:03:01.317678,-365
2021-12-27 15:03:01.317687,-2039
2021-12-27 15:03:01.317697,-6362
2021-12-27 15:03:01.317706,-7770
2021-12-27 15:03:01.317726,-2741
2021-12-27 15:03:01.317736,4850
2021-12-27 15:03:01.317745,3722
2021-12-27 15:03:01.317755,-9034
2021-12-27 15:03:01.317764,-14236
2021-12-27 15:03:01.317774,-11120
2021-12-27 15:03:01.317783,2419
2021-12-27 15:03:01.317798,-5271
2021-12-27 15:03:01.317807,-8311
2021-12-27 15:03:01.317816,-1655
2021-12-27 15:03:01.317826,4477
2021-12-27 15:03:01.317835,664
2021-12-27 15:03:01.317844,-687
2021-12-27 15:03:01.317854,-150
2021-12-27 15:03:01.561324,-10969
2021-12-27 15:03:01.561354,-8534
2021-12-27 15:03:01.561365,-5366
2021-12-27 15:03:01.561375,-18966
2021-12-27 15:03:01.561385,-17068
2021-12-27 15:03:01.561394,-9633
2021-12-27 15:03:01.561404,-15072
2021-12-27 15:03:01.561414,-15343
2021-12-27 15:03:01.561423,-6614
2021-12-27 15:03:01.561433,97
2021-12-27 15:03:01.561443,-314
2021-12-27 15:03:01.561452,-266
2021-12-27 15:03:01.561462,-3229
2021-12-27 15:03:01.561471,-14400
2021-12-27 15:03:01.561481,-8543
2021-12-27 15:03:01.561490,3320
2021-12-27 15:03:01.561500,414
2021-12-27 15:03:01.561510,3512
2021-12-27 15:03:01.561519,3107
2021-12-27 15:03:01.561529,-4359
2021-12-27 15:03:01.561538,-2375
2021-12-27 15:03:01.561548,-347
2021-12-27 15:03:01.561557,3628
2021-12-27 15:03:01.561572,1532
2021-12-27 15:03:01.561582,0
2021-12-27 15:03:01.561592,-5012
2021-12-27 15:03:01.561601,-2125
2021-12-27 15:03:01.561616,3817
2021-12-27 15:03:01.756448,4866
2021-12-27 15:03:01.756480,2495
2021-12-27 15:03:01.756492,-5586
2021-12-27 15:03:01.756502,-2062
2021-12-27 15:03:01.756511,3496
2021-12-27 15:03:01.756521,3239
2021-12-27 15:03:01.756530,-5357
2021-12-27 15:03:01.756540,-13620
2021-12-27 15:03:01.756550,-14049
2021-12-27 15:03:01.756559,-11886
2021-12-27 15:03:01.756569,2942
2021-12-27 15:03:01.756584,1650
2021-12-27 15:03:01.756594,3560
2021-12-27 15:03:01.756603,-3690
2021-12-27 15:03:01.756613,-13516
2021-12-27 15:03:01.756623,1773
2021-12-27 15:03:01.756637,4385
2021-12-27 15:03:01.756647,4482
2021-12-27 15:03:01.756657,-1296
2021-12-27 15:03:01.756666,-4674
2021-12-27 15:03:01.756676,680
2021-12-27 15:03:01.756691,2081
2021-12-27 15:03:01.756700,-15926
2021-12-27 15:03:01.756710,-15648
2021-12-27 15:03:01.756720,-3778
2021-12-27 15:03:01.756729,1866
2021-12-27 15:03:02.047555,4878
2021-12-27 15:03:02.047592,1752
2021-12-27 15:03:02.047611,-14271
2021-12-27 15:03:02.047622,-12118
2021-12-27 15:03:02.047632,4162
2021-12-27 15:03:02.047647,1606
2021-12-27 15:03:02.047656,-11224
2021-12-27 15:03:02.047666,-16005
2021-12-27 15:03:02.047675,-11495
2021-12-27 15:03:02.047685,363
2021-12-27 15:03:02.047699,3834
2021-12-27 15:03:02.047709,2176
2021-12-27 15:03:02.047718,1342
2021-12-27 15:03:02.047728,-2840
2021-12-27 15:03:02.047737,3634
2021-12-27 15:03:02.047757,4669
2021-12-27 15:03:02.047767,-648
2021-12-27 15:03:02.047777,1111
2021-12-27 15:03:02.047786,2322
2021-12-27 15:03:02.047796,4005
2021-12-27 15:03:02.047811,1970
2021-12-27 15:03:02.047820,791
2021-12-27 15:03:02.047830,3630
2021-12-27 15:03:02.047839,74
2021-12-27 15:03:02.292116,4385
2021-12-27 15:03:02.292154,1764
2021-12-27 15:03:02.292164,680
2021-12-27 15:03:02.292174,-2905
2021-12-27 15:03:02.292184,-8626
2021-12-27 15:03:02.292194,-8068
2021-12-27 15:03:02.292203,4843
2021-12-27 15:03:02.292218,-6114
2021-12-27 15:03:02.292227,-9643
2021-12-27 15:03:02.292237,-11590
2021-12-27 15:03:02.292263,-10983
2021-12-27 15:03:02.292273,4521
2021-12-27 15:03:02.292283,4850
2021-12-27 15:03:02.292292,-1157
2021-12-27 15:03:02.292307,3368
2021-12-27 15:03:02.292317,157
2021-12-27 15:03:02.292326,2745
2021-12-27 15:03:02.292336,3641
2021-12-27 15:03:02.292406,3125
2021-12-27 15:03:02.292418,2567
2021-12-27 15:03:02.292433,1435
2021-12-27 15:03:02.292443,-1641
2021-12-27 15:03:02.292457,2493
2021-12-27 15:03:02.292467,2419
2021-12-27 15:03:02.487473,1164
2021-12-27 15:03:02.487501,-11539
2021-12-27 15:03:02.487512,-17031
2021-12-27 15:03:02.487522,-3155
2021-12-27 15:03:02.487537,2583
2021-12-27 15:03:02.487547,-4181
2021-12-27 15:03:02.487556,-9249
2021-12-27 15:03:02.487566,-7205
2021-12-27 15:03:02.487576,4822
2021-12-27 15:03:02.487585,4558
2021-12-27 15:03:02.487594,1213
2021-12-27 15:03:02.487604,-5251
2021-12-27 15:03:02.487613,-15489
2021-12-27 15:03:02.487623,-5165
2021-12-27 15:03:02.487632,4278
2021-12-27 15:03:02.487641,3160
2021-12-27 15:03:02.487656,4262
2021-12-27 15:03:02.487665,-1294
2021-12-27 15:03:02.487675,-4653
2021-12-27 15:03:02.487684,-1210
2021-12-27 15:03:02.487704,4329
2021-12-27 15:03:02.487713,4887
2021-12-27 15:03:02.487723,-4649
2021-12-27 15:03:02.487732,-1822
2021-12-27 15:03:02.683097,2431
2021-12-27 15:03:02.683120,-2794
2021-12-27 15:03:02.683131,-3690
2021-12-27 15:03:02.683140,2477
2021-12-27 15:03:02.683155,2963
2021-12-27 15:03:02.683165,2206
2021-12-27 15:03:02.683174,-3255
2021-12-27 15:03:02.683184,-14120
2021-12-27 15:03:02.683193,854
2021-12-27 15:03:02.683208,3127
2021-12-27 15:03:02.683218,2067
2021-12-27 15:03:02.683227,-13856
2021-12-27 15:03:02.683237,-18966
2021-12-27 15:03:02.683246,-4033
2021-12-27 15:03:02.683266,1706
2021-12-27 15:03:02.683276,2053
2021-12-27 15:03:02.683285,-2776
2021-12-27 15:03:02.683295,-3273
2021-12-27 15:03:02.683314,2507
2021-12-27 15:03:02.683324,4785
2021-12-27 15:03:02.683333,-3053
2021-12-27 15:03:02.683343,-2125
2021-12-27 15:03:02.926372,1579
2021-12-27 15:03:02.926394,-8517
2021-12-27 15:03:02.926404,-12882
2021-12-27 15:03:02.926414,-3799
2021-12-27 15:03:02.926429,-7394
2021-12-27 15:03:02.926439,-18290
2021-12-27 15:03:02.926448,-4040
2021-12-27 15:03:02.926458,-5308
2021-12-27 15:03:02.926467,-8274
2021-12-27 15:03:02.926477,4996
2021-12-27 15:03:02.926492,2901
2021-12-27 15:03:02.926501,-3146
2021-12-27 15:03:02.926511,-5987
2021-12-27 15:03:02.926520,-2762
2021-12-27 15:03:02.926530,3528
2021-12-27 15:03:02.926545,2713
2021-12-27 15:03:02.926555,-546
2021-12-27 15:03:02.926564,4241
2021-12-27 15:03:02.926574,-426
2021-12-27 15:03:02.926583,2347
2021-12-27 15:03:02.926598,2211
2021-12-27 15:03:02.926608,1977
2021-12-27 15:03:02.926617,2762
2021-12-27 15:03:02.926626,1342
2021-12-27 15:03:03.170066,2523
2021-12-27 15:03:03.170087,3850
2021-12-27 15:03:03.170098,416
2021-12-27 15:03:03.170105,896
2021-12-27 15:03:03.170111,-1757
2021-12-27 15:03:03.170118,-12199
2021-12-27 15:03:03.170124,581
2021-12-27 15:03:03.170133,-1761
2021-12-27 15:03:03.170140,3315
2021-12-27 15:03:03.170146,129
2021-12-27 15:03:03.170152,-12312
2021-12-27 15:03:03.170158,-3672
2021-12-27 15:03:03.170168,2470
2021-12-27 15:03:03.170174,1757
2021-12-27 15:03:03.170180,3783
2021-12-27 15:03:03.170187,-1944
2021-12-27 15:03:03.170193,-7742
2021-12-27 15:03:03.170199,2669
2021-12-27 15:03:03.170209,3158
2021-12-27 15:03:03.170218,4739
2021-12-27 15:03:03.170224,294
2021-12-27 15:03:03.170234,4510
2021-12-27 15:03:03.413863,4544
2021-12-27 15:03:03.413893,3227
2021-12-27 15:03:03.413905,907
2021-12-27 15:03:03.413915,3993
2021-12-27 15:03:03.413940,-5635
2021-12-27 15:03:03.413950,-9534
2021-12-27 15:03:03.413960,3361
2021-12-27 15:03:03.413980,-6246
2021-12-27 15:03:03.413989,-18966
2021-12-27 15:03:03.413999,-17369
2021-12-27 15:03:03.414008,1514
2021-12-27 15:03:03.414038,-5709
2021-12-27 15:03:03.414048,-9675
2021-12-27 15:03:03.414078,-1213
2021-12-27 15:03:03.414087,-1315
2021-12-27 15:03:03.414097,4862
2021-12-27 15:03:03.608918,4186
2021-12-27 15:03:03.608941,3095
2021-12-27 15:03:03.608951,-3820
2021-12-27 15:03:03.608961,3375
2021-12-27 15:03:03.608985,-1463
2021-12-27 15:03:03.608995,-16588
2021-12-27 15:03:03.609004,-3866
2021-12-27 15:03:03.609024,4737
2021-12-27 15:03:03.609033,-988
2021-12-27 15:03:03.609042,-11196
2021-12-27 15:03:03.609052,-11289
2021-12-27 15:03:03.609071,1754
2021-12-27 15:03:03.609086,2076
2021-12-27 15:03:03.609096,-7594
2021-12-27 15:03:03.609105,-2646
2021-12-27 15:03:03.609125,3651
2021-12-27 15:03:03.609134,-3005
2021-12-27 15:03:03.609144,516
2021-12-27 15:03:03.609153,3507
2021-12-27 15:03:03.853054,1222
2021-12-27 15:03:03.853069,-1088
2021-12-27 15:03:03.853076,-7228
2021-12-27 15:03:03.853082,-7325
2021-12-27 15:03:03.853095,2380
2021-12-27 15:03:03.853101,930
2021-12-27 15:03:03.853107,-6853
2021-12-27 15:03:03.853114,-8994
2021-12-27 15:03:03.853120,733
2021-12-27 15:03:03.853130,4667
2021-12-27 15:03:03.853136,-1407
2021-12-27 15:03:03.853145,-2697
2021-12-27 15:03:03.853152,-17737
2021-12-27 15:03:03.853158,-2465
2021-12-27 15:03:03.853168,1472
2021-12-27 15:03:03.853174,3097
2021-12-27 15:03:03.853184,-1701
2021-12-27 15:03:03.853190,-7082
2021-12-27 15:03:03.853196,2560
2021-12-27 15:03:03.853206,736
2021-12-27 15:03:03.853212,3873
2021-12-27 15:03:04.143842,1646
2021-12-27 15:03:04.143880,2470
2021-12-27 15:03:04.143897,94
2021-12-27 15:03:04.143906,3905
2021-12-27 15:03:04.143916,2157
2021-12-27 15:03:04.143926,-12745
2021-12-27 15:03:04.143936,-4621
2021-12-27 15:03:04.143950,2646
2021-12-27 15:03:04.143960,3519
2021-12-27 15:03:04.143969,2479
2021-12-27 15:03:04.143979,-6584
2021-12-27 15:03:04.143988,-10015
2021-12-27 15:03:04.143998,1896
2021-12-27 15:03:04.144012,736
2021-12-27 15:03:04.144032,-2792
2021-12-27 15:03:04.144041,3234
2021-12-27 15:03:04.144051,3584
2021-12-27 15:03:04.144060,3753
2021-12-27 15:03:04.144075,2613
2021-12-27 15:03:04.144084,-1720
2021-12-27 15:03:04.144094,-8839
2021-12-27 15:03:04.144104,-9636
2021-12-27 15:03:04.144113,4570
2021-12-27 15:03:04.291563,4100
2021-12-27 15:03:04.291595,1238
2021-12-27 15:03:04.291607,-2880
2021-12-27 15:03:04.291617,1453
2021-12-27 15:03:04.291626,4378
2021-12-27 15:03:04.291646,-7510
2021-12-27 15:03:04.291656,-14556
2021-12-27 15:03:04.291665,-4387
2021-12-27 15:03:04.291685,2421
2021-12-27 15:03:04.291695,141
2021-12-27 15:03:04.291705,-11740
2021-12-27 15:03:04.291714,-12157
2021-12-27 15:03:04.291734,2815
2021-12-27 15:03:04.291749,-2782
2021-12-27 15:03:04.291758,-4815
2021-12-27 15:03:04.291768,694
2021-12-27 15:03:04.291778,-9418
2021-12-27 15:03:04.291787,-15310
2021-12-27 15:03:04.291797,-118
2021-12-27 15:03:04.291806,4943
2021-12-27 15:03:04.291816,-10198
2021-12-27 15:03:04.291826,-11685
2021-12-27 15:03:04.291835,409
2021-12-27 15:03:04.535518,3574
2021-12-27 15:03:04.535554,-708
2021-12-27 15:03:04.535565,-15942
2021-12-27 15:03:04.535574,-5658
2021-12-27 15:03:04.535599,-819
2021-12-27 15:03:04.535608,-12185
2021-12-27 15:03:04.535618,-10708
2021-12-27 15:03:04.535637,2393
2021-12-27 15:03:04.535647,1856
2021-12-27 15:03:04.535656,916
2021-12-27 15:03:04.535666,-3648
2021-12-27 15:03:04.535685,4250
2021-12-27 15:03:04.535700,-1134
2021-12-27 15:03:04.535709,-1169
2021-12-27 15:03:04.535719,4609
2021-12-27 15:03:04.535738,1243
2021-12-27 15:03:04.535748,32
2021-12-27 15:03:04.535757,2035
2021-12-27 15:03:04.535767,-2266
2021-12-27 15:03:04.778988,-3894
2021-12-27 15:03:04.779018,-5028
2021-12-27 15:03:04.779029,-583
2021-12-27 15:03:04.779039,2458
2021-12-27 15:03:04.779049,-9541
2021-12-27 15:03:04.779058,-11925
2021-12-27 15:03:04.779068,1349
2021-12-27 15:03:04.779083,4285
2021-12-27 15:03:04.779092,-967
2021-12-27 15:03:04.779102,-1041
2021-12-27 15:03:04.779111,-6841
2021-12-27 15:03:04.779121,-6927
2021-12-27 15:03:04.779140,-2218
2021-12-27 15:03:04.779155,2074
2021-12-27 15:03:04.779164,-178
2021-12-27 15:03:04.779179,3989
2021-12-27 15:03:04.779188,2273
2021-12-27 15:03:04.779197,3139
2021-12-27 15:03:04.779207,3725
2021-12-27 15:03:04.779216,1423
2021-12-27 15:03:04.779225,1780
2021-12-27 15:03:04.779240,750
2021-12-27 15:03:04.779249,-10228
2021-12-27 15:03:04.779258,-17348
2021-12-27 15:03:05.022780,-11608
2021-12-27 15:03:05.022811,4186
2021-12-27 15:03:05.022822,-3919
2021-12-27 15:03:05.022832,-13840
2021-12-27 15:03:05.022842,4320
2021-12-27 15:03:05.022857,-11587
2021-12-27 15:03:05.022866,-11409
2021-12-27 15:03:05.022876,1930
2021-12-27 15:03:05.022891,1648
2021-12-27 15:03:05.022905,1030
2021-12-27 15:03:05.022915,-12247
2021-12-27 15:03:05.022925,-2475
2021-12-27 15:03:05.022940,2748
2021-12-27 15:03:05.022955,4477
2021-12-27 15:03:05.022964,-1143
2021-12-27 15:03:05.022974,733
2021-12-27 15:03:05.022984,1870
2021-12-27 15:03:05.023003,4375
2021-12-27 15:03:05.023013,3461
2021-12-27 15:03:05.023022,-2840
2021-12-27 15:03:05.023032,1213
2021-12-27 15:03:05.266536,1727
2021-12-27 15:03:05.266559,-4676
2021-12-27 15:03:05.266570,-4211
2021-12-27 15:03:05.266579,-6702
2021-12-27 15:03:05.266589,-3841
2021-12-27 15:03:05.266598,3387
2021-12-27 15:03:05.266608,365
2021-12-27 15:03:05.266628,-13650
2021-12-27 15:03:05.266639,-13555
2021-12-27 15:03:05.266659,1220
2021-12-27 15:03:05.266674,-7385
2021-12-27 15:03:05.266683,-15493
2021-12-27 15:03:05.266693,3352
2021-12-27 15:03:05.266712,3847
2021-12-27 15:03:05.266722,-467
2021-12-27 15:03:05.266732,-4336
2021-12-27 15:03:05.266741,564
2021-12-27 15:03:05.266762,2840
2021-12-27 15:03:05.266773,4072
2021-12-27 15:03:05.266782,-4459
2021-12-27 15:03:05.266792,-599
2021-12-27 15:03:05.461818,3875
2021-12-27 15:03:05.461833,-2528
2021-12-27 15:03:05.461840,-8503
2021-12-27 15:03:05.461846,-16033
2021-12-27 15:03:05.461852,-9427
2021-12-27 15:03:05.461858,-2859
2021-12-27 15:03:05.461865,-2484
2021-12-27 15:03:05.461871,-5683
2021-12-27 15:03:05.461877,-13773
2021-12-27 15:03:05.461883,-977
2021-12-27 15:03:05.461893,3500
2021-12-27 15:03:05.461899,2616
2021-12-27 15:03:05.461905,-3051
2021-12-27 15:03:05.461912,-13065
2021-12-27 15:03:05.461918,-4190
2021-12-27 15:03:05.461931,2201
2021-12-27 15:03:05.461937,-773
2021-12-27 15:03:05.461943,2097
2021-12-27 15:03:05.461949,60
2021-12-27 15:03:05.461962,1294
2021-12-27 15:03:05.461968,1984
2021-12-27 15:03:05.461975,2417
2021-12-27 15:03:05.461981,368
2021-12-27 15:03:05.705621,3502
2021-12-27 15:03:05.705643,847
2021-12-27 15:03:05.705654,-3975
2021-12-27 15:03:05.705664,-10205
2021-12-27 15:03:05.705673,-9601
2021-12-27 15:03:05.705682,4672
2021-12-27 15:03:05.705692,-1447
2021-12-27 15:03:05.705701,-14391
2021-12-27 15:03:05.705711,1743
2021-12-27 15:03:05.705720,775
2021-12-27 15:03:05.705730,-11458
2021-12-27 15:03:05.705739,2817
2021-12-27 15:03:05.705754,273
2021-12-27 15:03:05.705763,3317
2021-12-27 15:03:05.705773,3579
2021-12-27 15:03:05.705782,768
2021-12-27 15:03:05.705792,1335
2021-12-27 15:03:05.705801,4968
2021-12-27 15:03:05.705810,2773
2021-12-27 15:03:05.705820,1919
2021-12-27 15:03:05.705834,1363
2021-12-27 15:03:05.705844,-69
2021-12-27 15:03:05.705858,1338
2021-12-27 15:03:05.705868,3993
2021-12-27 15:03:05.948986,43
2021-12-27 15:03:05.949016,805
2021-12-27 15:03:05.949027,1646
2021-12-27 15:03:05.949037,1335
2021-12-27 15:03:05.949046,4581
2021-12-27 15:03:05.949056,4600
2021-12-27 15:03:05.949065,-1583
2021-12-27 15:03:05.949075,-12514
2021-12-27 15:03:05.949084,-6864
2021-12-27 15:03:05.949094,-4442
2021-12-27 15:03:05.949103,-18966
2021-12-27 15:03:05.949113,-16568
2021-12-27 15:03:05.949122,2208
2021-12-27 15:03:05.949132,-9344
2021-12-27 15:03:05.949141,-12393
2021-12-27 15:03:05.949151,2227
2021-12-27 15:03:05.949171,3014
2021-12-27 15:03:05.949180,3651
2021-12-27 15:03:05.949190,-2630
2021-12-27 15:03:05.949199,-560
2021-12-27 15:03:05.949224,4570
2021-12-27 15:03:05.949234,-3447
2021-12-27 15:03:05.949243,224
2021-12-27 15:03:06.191342,2011
2021-12-27 15:03:06.191365,-1254
2021-12-27 15:03:06.191376,-3665
2021-12-27 15:03:06.191385,3896
2021-12-27 15:03:06.191400,3790
2021-12-27 15:03:06.191410,4091
2021-12-27 15:03:06.191419,-4104
2021-12-27 15:03:06.191429,-13912
2021-12-27 15:03:06.191438,1868
2021-12-27 15:03:06.191453,-6843
2021-12-27 15:03:06.191463,-10108
2021-12-27 15:03:06.191472,-8728
2021-12-27 15:03:06.191481,-12011
2021-12-27 15:03:06.191491,-5406
2021-12-27 15:03:06.191511,1416
2021-12-27 15:03:06.191520,2634
2021-12-27 15:03:06.191530,-2519
2021-12-27 15:03:06.191539,-2456
2021-12-27 15:03:06.191559,4104
2021-12-27 15:03:06.191569,4716
2021-12-27 15:03:06.191578,-3838
2021-12-27 15:03:06.191588,-669
2021-12-27 15:03:06.387711,81
2021-12-27 15:03:06.387733,-10092
2021-12-27 15:03:06.387744,-12683
2021-12-27 15:03:06.387754,-12400
2021-12-27 15:03:06.387764,-4181
2021-12-27 15:03:06.387778,-3970
2021-12-27 15:03:06.387788,-11303
2021-12-27 15:03:06.387797,-8823
2021-12-27 15:03:06.387807,-18522
2021-12-27 15:03:06.387816,-14901
2021-12-27 15:03:06.387825,2109
2021-12-27 15:03:06.387835,4831
2021-12-27 15:03:06.387844,-7767
2021-12-27 15:03:06.387854,-18966
2021-12-27 15:03:06.387863,-11365
2021-12-27 15:03:06.387873,393
2021-12-27 15:03:06.387882,2634
2021-12-27 15:03:06.387897,974
2021-12-27 15:03:06.387906,-326
2021-12-27 15:03:06.387916,1641
2021-12-27 15:03:06.387925,-2025
2021-12-27 15:03:06.387935,3479
2021-12-27 15:03:06.387949,2329
2021-12-27 15:03:06.387959,2220
2021-12-27 15:03:06.387976,1616
2021-12-27 15:03:06.387986,2405
2021-12-27 15:03:06.631828,2359
2021-12-27 15:03:06.631859,4697
2021-12-27 15:03:06.631876,-460
2021-12-27 15:03:06.631886,2097
2021-12-27 15:03:06.631896,-1479
2021-12-27 15:03:06.631906,-11148
2021-12-27 15:03:06.631915,3190
2021-12-27 15:03:06.631930,-997
2021-12-27 15:03:06.631940,4419
2021-12-27 15:03:06.631949,-662
2021-12-27 15:03:06.631958,-10518
2021-12-27 15:03:06.631968,-2206
2021-12-27 15:03:06.631983,729
2021-12-27 15:03:06.631992,-8842
2021-12-27 15:03:06.632002,-5846
2021-12-27 15:03:06.632011,414
2021-12-27 15:03:06.632021,1210
2021-12-27 15:03:06.632035,2928
2021-12-27 15:03:06.632045,4211
2021-12-27 15:03:06.632059,1465
2021-12-27 15:03:06.632069,1081
2021-12-27 15:03:06.632078,4936
2021-12-27 15:03:06.632087,2806
2021-12-27 15:03:06.875564,4148
2021-12-27 15:03:06.875594,1748
2021-12-27 15:03:06.875606,-636
2021-12-27 15:03:06.875616,3672
2021-12-27 15:03:06.875625,4984
2021-12-27 15:03:06.875640,4456
2021-12-27 15:03:06.875650,-10416
2021-12-27 15:03:06.875659,-9969
2021-12-27 15:03:06.875669,2921
2021-12-27 15:03:06.875688,3125
2021-12-27 15:03:06.875698,-5913
2021-12-27 15:03:06.875708,-12187
2021-12-27 15:03:06.875717,-3021
2021-12-27 15:03:06.875732,4023
2021-12-27 15:03:06.875741,-5802
2021-12-27 15:03:06.875751,-6316
2021-12-27 15:03:06.875760,-14241
2021-12-27 15:03:06.875770,-15204
2021-12-27 15:03:06.875780,946
2021-12-27 15:03:06.875799,1331
2021-12-27 15:03:06.875809,-1412
2021-12-27 15:03:06.875818,-1759
2021-12-27 15:03:06.875828,3544
2021-12-27 15:03:07.070212,3954
2021-12-27 15:03:07.070235,2136
2021-12-27 15:03:07.070245,-5820
2021-12-27 15:03:07.070255,4010
2021-12-27 15:03:07.070270,4656
2021-12-27 15:03:07.070285,-4491
2021-12-27 15:03:07.070294,-16855
2021-12-27 15:03:07.070304,-3438
2021-12-27 15:03:07.070323,3072
2021-12-27 15:03:07.070333,-872
2021-12-27 15:03:07.070343,-10585
2021-12-27 15:03:07.070353,-10520
2021-12-27 15:03:07.070372,-111
2021-12-27 15:03:07.070382,-4121
2021-12-27 15:03:07.070392,-14301
2021-12-27 15:03:07.070401,-5521
2021-12-27 15:03:07.070426,4324
2021-12-27 15:03:07.070435,-1824
2021-12-27 15:03:07.070445,-500
2021-12-27 15:03:07.070455,3588
2021-12-27 15:03:07.314060,824
2021-12-27 15:03:07.314082,-893
2021-12-27 15:03:07.314093,-9360
2021-12-27 15:03:07.314103,-6468
2021-12-27 15:03:07.314155,3419
2021-12-27 15:03:07.314165,-534
2021-12-27 15:03:07.314174,-7420
2021-12-27 15:03:07.314184,-8712
2021-12-27 15:03:07.314193,891
2021-12-27 15:03:07.314208,3074
2021-12-27 15:03:07.314218,-1697
2021-12-27 15:03:07.314227,4743
2021-12-27 15:03:07.314237,289
2021-12-27 15:03:07.314246,1928
2021-12-27 15:03:07.314261,2340
2021-12-27 15:03:07.314270,-74
2021-12-27 15:03:07.314280,-5883
2021-12-27 15:03:07.314289,-11946
2021-12-27 15:03:07.314299,-2199
2021-12-27 15:03:07.314309,-5480
2021-12-27 15:03:07.314318,-18966
2021-12-27 15:03:07.314328,-10620
2021-12-27 15:03:07.557776,-4012
2021-12-27 15:03:07.557818,-2076
2021-12-27 15:03:07.557834,576
2021-12-27 15:03:07.557844,-13611
2021-12-27 15:03:07.557854,-3428
2021-12-27 15:03:07.557868,3151
2021-12-27 15:03:07.557878,2736
2021-12-27 15:03:07.557887,2882
2021-12-27 15:03:07.557896,-5596
2021-12-27 15:03:07.557906,-9893
2021-12-27 15:03:07.557916,3572
2021-12-27 15:03:07.557930,578
2021-12-27 15:03:07.557944,3755
2021-12-27 15:03:07.557954,-2081
2021-12-27 15:03:07.557963,3979
2021-12-27 15:03:07.557973,2715
2021-12-27 15:03:07.557982,4896
2021-12-27 15:03:07.557997,-2421
2021-12-27 15:03:07.558006,-5707
2021-12-27 15:03:07.558016,-2454
2021-12-27 15:03:07.558025,3787
2021-12-27 15:03:07.558040,4521
2021-12-27 15:03:07.753080,877
2021-12-27 15:03:07.753103,-3155
2021-12-27 15:03:07.753114,2204
2021-12-27 15:03:07.753124,4040
2021-12-27 15:03:07.753139,4910
2021-12-27 15:03:07.753149,-8318
2021-12-27 15:03:07.753158,-13875
2021-12-27 15:03:07.753168,-4359
2021-12-27 15:03:07.753188,2141
2021-12-27 15:03:07.753197,1227
2021-12-27 15:03:07.753207,-12558
2021-12-27 15:03:07.753216,-10265
2021-12-27 15:03:07.753236,4179
2021-12-27 15:03:07.753246,4746
2021-12-27 15:03:07.753255,-3797
2021-12-27 15:03:07.753265,-4229
2021-12-27 15:03:07.753274,3648
2021-12-27 15:03:07.753294,1750
2021-12-27 15:03:07.753304,-3051
2021-12-27 15:03:07.753313,-11006
2021-12-27 15:03:07.753323,428
2021-12-27 15:03:07.996269,-5385
2021-12-27 15:03:07.996299,-18496
2021-12-27 15:03:07.996310,-18188
2021-12-27 15:03:07.996320,-15005
2021-12-27 15:03:07.996329,-3475
2021-12-27 15:03:07.996354,-2863
2021-12-27 15:03:07.996364,-11949
2021-12-27 15:03:07.996373,-10365
2021-12-27 15:03:07.996393,1447
2021-12-27 15:03:07.996402,3509
2021-12-27 15:03:07.996412,-67
2021-12-27 15:03:07.996422,-3651
2021-12-27 15:03:07.996446,4683
2021-12-27 15:03:07.996456,-2130
2021-12-27 15:03:07.996476,-773
2021-12-27 15:03:07.996487,3549
2021-12-27 15:03:07.996506,1046
2021-12-27 15:03:07.996516,840
2021-12-27 15:03:07.996525,-2468
2021-12-27 15:03:07.996535,-6424
2021-12-27 15:03:08.336143,3975
2021-12-27 15:03:08.336168,1597
2021-12-27 15:03:08.336173,-1532
2021-12-27 15:03:08.336179,-8795
2021-12-27 15:03:08.336184,-10154
2021-12-27 15:03:08.336190,-210
2021-12-27 15:03:08.336198,4213
2021-12-27 15:03:08.336203,-2542
2021-12-27 15:03:08.336208,-509
2021-12-27 15:03:08.336213,-7832
2021-12-27 15:03:08.336217,-6135
2021-12-27 15:03:08.336225,-1785
2021-12-27 15:03:08.336230,-11791
2021-12-27 15:03:08.336235,-974
2021-12-27 15:03:08.336240,578
2021-12-27 15:03:08.336245,-1363
2021-12-27 15:03:08.336250,1118
2021-12-27 15:03:08.336255,-3704
2021-12-27 15:03:08.336260,-9886
2021-12-27 15:03:08.336265,-6647
2021-12-27 15:03:08.336270,-7492
2021-12-27 15:03:08.336275,-15683
2021-12-27 15:03:08.336280,-5679
2021-12-27 15:03:08.336285,2732
2021-12-27 15:03:08.336290,-7776
2021-12-27 15:03:08.336295,-3021
2021-12-27 15:03:08.336300,3144
2021-12-27 15:03:08.484160,-10402
2021-12-27 15:03:08.484191,-13120
2021-12-27 15:03:08.484202,-4899
2021-12-27 15:03:08.484212,-1852
2021-12-27 15:03:08.484222,-243
2021-12-27 15:03:08.484231,650
2021-12-27 15:03:08.484241,-3762
2021-12-27 15:03:08.484250,-16792
2021-12-27 15:03:08.484260,-14236
2021-12-27 15:03:08.484269,1710
2021-12-27 15:03:08.484279,1618
2021-12-27 15:03:08.484288,731
2021-12-27 15:03:08.484298,-3452
2021-12-27 15:03:08.484307,-12810
2021-12-27 15:03:08.484316,-4239
2021-12-27 15:03:08.484326,1673
2021-12-27 15:03:08.484335,1470
2021-12-27 15:03:08.484345,4945
2021-12-27 15:03:08.484354,-4484
2021-12-27 15:03:08.484364,-14394
2021-12-27 15:03:08.484373,-9666
2021-12-27 15:03:08.484382,1548
2021-12-27 15:03:08.484397,1884
2021-12-27 15:03:08.484407,3815
2021-12-27 15:03:08.484417,1254
2021-12-27 15:03:08.484426,-5565
2021-12-27 15:03:08.484436,1055
2021-12-27 15:03:08.484445,4699
2021-12-27 15:03:08.484455,4528
2021-12-27 15:03:08.727556,1914
2021-12-27 15:03:08.727579,-6144
2021-12-27 15:03:08.727590,-12345
2021-12-27 15:03:08.727599,-1095
2021-12-27 15:03:08.727615,1004
2021-12-27 15:03:08.727624,-4142
2021-12-27 15:03:08.727634,-11717
2021-12-27 15:03:08.727643,-12446
2021-12-27 15:03:08.727663,2053
2021-12-27 15:03:08.727672,2947
2021-12-27 15:03:08.727682,-12289
2021-12-27 15:03:08.727692,-15678
2021-12-27 15:03:08.727701,3178
2021-12-27 15:03:08.727716,4544
2021-12-27 15:03:08.727725,2016
2021-12-27 15:03:08.727735,111
2021-12-27 15:03:08.727744,-4961
2021-12-27 15:03:08.727754,155
2021-12-27 15:03:08.727769,4753
2021-12-27 15:03:08.727778,2840
2021-12-27 15:03:08.727788,3158
2021-12-27 15:03:08.727797,-6417
2021-12-27 15:03:08.727807,178
2021-12-27 15:03:08.921709,4658
2021-12-27 15:03:08.921730,1750
2021-12-27 15:03:08.921735,-1014
2021-12-27 15:03:08.921741,-3026
2021-12-27 15:03:08.921746,-6385
2021-12-27 15:03:08.921751,2984
2021-12-27 15:03:08.921759,-277
2021-12-27 15:03:08.921764,-8323
2021-12-27 15:03:08.921769,-12632
2021-12-27 15:03:08.921774,-2340
2021-12-27 15:03:08.921779,-6318
2021-12-27 15:03:08.921784,-13386
2021-12-27 15:03:08.921789,770
2021-12-27 15:03:08.921794,-3350
2021-12-27 15:03:08.921799,-15322
2021-12-27 15:03:08.921804,-4375
2021-12-27 15:03:08.921814,-342
2021-12-27 15:03:08.921819,-296
2021-12-27 15:03:08.921825,1565
2021-12-27 15:03:08.921830,-1002
2021-12-27 15:03:08.921840,701
2021-12-27 15:03:08.921845,1803
2021-12-27 15:03:08.921850,157
2021-12-27 15:03:08.921855,858
2021-12-27 15:03:09.166272,4818
2021-12-27 15:03:09.166301,4855
2021-12-27 15:03:09.166313,4223
2021-12-27 15:03:09.166323,-432
2021-12-27 15:03:09.166332,-3241
2021-12-27 15:03:09.166342,-9501
2021-12-27 15:03:09.166351,-16306
2021-12-27 15:03:09.166361,-5586
2021-12-27 15:03:09.166370,1831
2021-12-27 15:03:09.166380,435
2021-12-27 15:03:09.166390,2157
2021-12-27 15:03:09.166399,-7253
2021-12-27 15:03:09.166409,-8941
2021-12-27 15:03:09.166418,4588
2021-12-27 15:03:09.166428,4528
2021-12-27 15:03:09.166438,720
2021-12-27 15:03:09.166447,4609
2021-12-27 15:03:09.166462,2975
2021-12-27 15:03:09.166472,3581
2021-12-27 15:03:09.166486,4392
2021-12-27 15:03:09.166496,4442
2021-12-27 15:03:09.166510,2486
2021-12-27 15:03:09.166520,3766
2021-12-27 15:03:09.166534,3079
2021-12-27 15:03:09.410046,2854
2021-12-27 15:03:09.410076,3540
2021-12-27 15:03:09.410088,3185
2021-12-27 15:03:09.410098,4614
2021-12-27 15:03:09.410118,555
2021-12-27 15:03:09.410128,-12771
2021-12-27 15:03:09.410137,-11120
2021-12-27 15:03:09.410147,-6105
2021-12-27 15:03:09.410156,511
2021-12-27 15:03:09.410171,736
2021-12-27 15:03:09.410180,-11550
2021-12-27 15:03:09.410190,-4211
2021-12-27 15:03:09.410199,3924
2021-12-27 15:03:09.410214,4054
2021-12-27 15:03:09.410223,-11282
2021-12-27 15:03:09.410233,-18966
2021-12-27 15:03:09.410242,-7038
2021-12-27 15:03:09.410262,4392
2021-12-27 15:03:09.410276,4109
2021-12-27 15:03:09.410286,-2590
2021-12-27 15:03:09.410295,2993
2021-12-27 15:03:09.605289,3695
2021-12-27 15:03:09.605312,801
2021-12-27 15:03:09.605323,-2803
2021-12-27 15:03:09.605343,4845
2021-12-27 15:03:09.605358,-6360
2021-12-27 15:03:09.605368,-14829
2021-12-27 15:03:09.605377,-3412
2021-12-27 15:03:09.605387,-1592
2021-12-27 15:03:09.605397,2211
2021-12-27 15:03:09.605411,-7147
2021-12-27 15:03:09.605421,-16926
2021-12-27 15:03:09.605435,-2539
2021-12-27 15:03:09.605455,2428
2021-12-27 15:03:09.605470,-3722
2021-12-27 15:03:09.605479,-604
2021-12-27 15:03:09.605504,4896
2021-12-27 15:03:09.605513,-2882
2021-12-27 15:03:09.605523,1060
2021-12-27 15:03:09.848170,777
2021-12-27 15:03:09.848182,-6318
2021-12-27 15:03:09.848188,-12759
2021-12-27 15:03:09.848193,483
2021-12-27 15:03:09.848201,3910
2021-12-27 15:03:09.848206,3371
2021-12-27 15:03:09.848211,-1933
2021-12-27 15:03:09.848216,-12629
2021-12-27 15:03:09.848221,-4660
2021-12-27 15:03:09.848226,-527
2021-12-27 15:03:09.848231,-5267
2021-12-27 15:03:09.848236,-1838
2021-12-27 15:03:09.848241,2275
2021-12-27 15:03:09.848245,1484
2021-12-27 15:03:09.848250,-699
2021-12-27 15:03:09.848261,1044
2021-12-27 15:03:09.848266,2218
2021-12-27 15:03:09.848271,3396
2021-12-27 15:03:09.848276,-2488
2021-12-27 15:03:09.848281,-9339
2021-12-27 15:03:09.848286,-12942
2021-12-27 15:03:09.848291,736
2021-12-27 15:03:09.848298,-715
2021-12-27 15:03:09.848303,2299
2021-12-27 15:03:10.092103,3732
2021-12-27 15:03:10.092129,-358
2021-12-27 15:03:10.092136,3817
2021-12-27 15:03:10.092143,-2222
2021-12-27 15:03:10.092149,-9592
2021-12-27 15:03:10.092155,4304
2021-12-27 15:03:10.092164,377
2021-12-27 15:03:10.092170,3970
2021-12-27 15:03:10.092177,-2123
2021-12-27 15:03:10.092183,-9920
2021-12-27 15:03:10.092189,-3516
2021-12-27 15:03:10.092195,-1741
2021-12-27 15:03:10.092202,-11303
2021-12-27 15:03:10.092208,-2826
2021-12-27 15:03:10.092218,432
2021-12-27 15:03:10.092224,-2086
2021-12-27 15:03:10.092234,2454
2021-12-27 15:03:10.092240,3431
2021-12-27 15:03:10.092249,1150
2021-12-27 15:03:10.092255,1359
2021-12-27 15:03:10.092262,3354
2021-12-27 15:03:10.092268,3114
2021-12-27 15:03:10.383541,372
2021-12-27 15:03:10.383553,-1143
2021-12-27 15:03:10.383557,2593
2021-12-27 15:03:10.383562,2894
2021-12-27 15:03:10.383568,2002
2021-12-27 15:03:10.383573,-13303
2021-12-27 15:03:10.383577,-8501
2021-12-27 15:03:10.383581,2928
2021-12-27 15:03:10.383590,1984
2021-12-27 15:03:10.383594,-5403
2021-12-27 15:03:10.383599,-12812
2021-12-27 15:03:10.383603,-3479
2021-12-27 15:03:10.383607,2655
2021-12-27 15:03:10.383612,-8378
2021-12-27 15:03:10.383616,261
2021-12-27 15:03:10.383623,-5355
2021-12-27 15:03:10.383627,-2139
2021-12-27 15:03:10.383638,2391
2021-12-27 15:03:10.383642,-601
2021-12-27 15:03:10.383647,-2595
2021-12-27 15:03:10.383651,2884
2021-12-27 15:03:10.383655,-669
2021-12-27 15:03:10.531337,-15419
2021-12-27 15:03:10.531368,-3607
2021-12-27 15:03:10.531379,4051
2021-12-27 15:03:10.531389,-6985
2021-12-27 15:03:10.531399,2558
2021-12-27 15:03:10.531424,-6554
2021-12-27 15:03:10.531433,-15764
2021-12-27 15:03:10.531443,-3329
2021-12-27 15:03:10.531462,1782
2021-12-27 15:03:10.531472,-94
2021-12-27 15:03:10.531481,-12027
2021-12-27 15:03:10.531490,-10592
2021-12-27 15:03:10.531505,692
2021-12-27 15:03:10.531514,-10981
2021-12-27 15:03:10.531524,-1657
2021-12-27 15:03:10.531533,-6635
2021-12-27 15:03:10.531543,-9358
2021-12-27 15:03:10.531552,4304
2021-12-27 15:03:10.531566,4848
2021-12-27 15:03:10.531576,-363
2021-12-27 15:03:10.531586,-37
2021-12-27 15:03:10.531595,-354
2021-12-27 15:03:10.531605,2671
2021-12-27 15:03:10.775096,1648
2021-12-27 15:03:10.775111,-2141
2021-12-27 15:03:10.775118,-12789
2021-12-27 15:03:10.775124,-5459
2021-12-27 15:03:10.775137,3452
2021-12-27 15:03:10.775143,-1801
2021-12-27 15:03:10.775149,-6894
2021-12-27 15:03:10.775155,-8601
2021-12-27 15:03:10.775161,2268
2021-12-27 15:03:10.775171,1217
2021-12-27 15:03:10.775177,-740
2021-12-27 15:03:10.775183,4762
2021-12-27 15:03:10.775190,-326
2021-12-27 15:03:10.775196,3753
2021-12-27 15:03:10.775205,-6089
2021-12-27 15:03:10.775211,-12134
2021-12-27 15:03:10.775217,-2590
2021-12-27 15:03:10.775227,1609
2021-12-27 15:03:10.775233,3151
2021-12-27 15:03:10.775243,997
2021-12-27 15:03:10.775249,2701
2021-12-27 15:03:11.018821,-527
2021-12-27 15:03:11.018850,-1222
2021-12-27 15:03:11.018856,-3308
2021-12-27 15:03:11.018863,-18966
2021-12-27 15:03:11.018869,-18966
2021-12-27 15:03:11.018875,-435
2021-12-27 15:03:11.018885,423
2021-12-27 15:03:11.018891,2000
2021-12-27 15:03:11.018897,4382
2021-12-27 15:03:11.018903,-6774
2021-12-27 15:03:11.018910,-9462
2021-12-27 15:03:11.018919,4586
2021-12-27 15:03:11.018925,838
2021-12-27 15:03:11.018935,1771
2021-12-27 15:03:11.018941,-1190
2021-12-27 15:03:11.018947,4199
2021-12-27 15:03:11.018953,1961
2021-12-27 15:03:11.018959,-1690
2021-12-27 15:03:11.018966,-6332
2021-12-27 15:03:11.018972,-1509
2021-12-27 15:03:11.018978,3310
2021-12-27 15:03:11.018984,-1757
2021-12-27 15:03:11.018990,1636
2021-12-27 15:03:11.213046,-354
2021-12-27 15:03:11.213058,-845
2021-12-27 15:03:11.213064,1944
2021-12-27 15:03:11.213069,3773
2021-12-27 15:03:11.213077,3289
2021-12-27 15:03:11.213083,-8427
2021-12-27 15:03:11.213088,-13129
2021-12-27 15:03:11.213093,-3301
2021-12-27 15:03:11.213103,3044
2021-12-27 15:03:11.213108,1731
2021-12-27 15:03:11.213113,-13782
2021-12-27 15:03:11.213118,-8837
2021-12-27 15:03:11.213130,3338
2021-12-27 15:03:11.213135,-3093
2021-12-27 15:03:11.213140,-3695
2021-12-27 15:03:11.213145,3505
2021-12-27 15:03:11.213153,-1852
2021-12-27 15:03:11.213158,-9904
2021-12-27 15:03:11.213163,-3875
2021-12-27 15:03:11.213168,-3350
2021-12-27 15:03:11.213172,3278
2021-12-27 15:03:11.456817,4753
2021-12-27 15:03:11.456840,-5674
2021-12-27 15:03:11.456848,-18059
2021-12-27 15:03:11.456854,-3641
2021-12-27 15:03:11.456867,3079
2021-12-27 15:03:11.456873,-1400
2021-12-27 15:03:11.456880,-14315
2021-12-27 15:03:11.456886,-18966
2021-12-27 15:03:11.456892,-11467
2021-12-27 15:03:11.456905,2157
2021-12-27 15:03:11.456911,-3590
2021-12-27 15:03:11.456918,-1291
2021-12-27 15:03:11.456934,3878
2021-12-27 15:03:11.456940,-2312
2021-12-27 15:03:11.456946,-23
2021-12-27 15:03:11.456953,3572
2021-12-27 15:03:11.456965,-6577
2021-12-27 15:03:11.456971,-12134
2021-12-27 15:03:11.456978,-6022
2021-12-27 15:03:11.701405,3299
2021-12-27 15:03:11.701427,4910
2021-12-27 15:03:11.701438,-384
2021-12-27 15:03:11.701448,-10682
2021-12-27 15:03:11.701472,-10914
2021-12-27 15:03:11.701482,-46
2021-12-27 15:03:11.701497,3549
2021-12-27 15:03:11.701507,-2011
2021-12-27 15:03:11.701516,300
2021-12-27 15:03:11.701526,-8821
2021-12-27 15:03:11.701535,-3491
2021-12-27 15:03:11.701550,2806
2021-12-27 15:03:11.701560,215
2021-12-27 15:03:11.701569,3783
2021-12-27 15:03:11.701579,983
2021-12-27 15:03:11.701588,1882
2021-12-27 15:03:11.701598,4746
2021-12-27 15:03:11.701612,1838
2021-12-27 15:03:11.701621,2354
2021-12-27 15:03:11.701636,-81
2021-12-27 15:03:11.701646,3639
2021-12-27 15:03:11.701660,-1048
2021-12-27 15:03:11.701670,-2368
2021-12-27 15:03:11.701679,-7716
2021-12-27 15:03:11.944439,-6880
2021-12-27 15:03:11.944463,2525
2021-12-27 15:03:11.944470,-1014
2021-12-27 15:03:11.944477,4778
2021-12-27 15:03:11.944483,1866
2021-12-27 15:03:11.944489,-8883
2021-12-27 15:03:11.944495,-10564
2021-12-27 15:03:11.944501,3514
2021-12-27 15:03:11.944511,81
2021-12-27 15:03:11.944520,-1842
2021-12-27 15:03:11.944526,-11958
2021-12-27 15:03:11.944532,199
2021-12-27 15:03:11.944539,-2796
2021-12-27 15:03:11.944545,-18151
2021-12-27 15:03:11.944551,-12564
2021-12-27 15:03:11.944557,3556
2021-12-27 15:03:11.944563,3299
2021-12-27 15:03:11.944569,-5093
2021-12-27 15:03:11.944575,2204
2021-12-27 15:03:11.944585,4158
2021-12-27 15:03:11.944594,2127
2021-12-27 15:03:11.944600,-2363
2021-12-27 15:03:11.944606,3079
2021-12-27 15:03:11.944612,4813
2021-12-27 15:03:12.139430,-294
2021-12-27 15:03:12.139450,-12923
2021-12-27 15:03:12.139457,-7582
2021-12-27 15:03:12.139464,1095
2021-12-27 15:03:12.139477,4343
2021-12-27 15:03:12.139484,37
2021-12-27 15:03:12.139490,-13375
2021-12-27 15:03:12.139496,-9714
2021-12-27 15:03:12.139509,4204
2021-12-27 15:03:12.139515,2836
2021-12-27 15:03:12.139521,-13796
2021-12-27 15:03:12.139527,-14627
2021-12-27 15:03:12.139533,3966
2021-12-27 15:03:12.139543,4801
2021-12-27 15:03:12.139549,2400
2021-12-27 15:03:12.139555,2116
2021-12-27 15:03:12.139561,-5209
2021-12-27 15:03:12.139568,1465
2021-12-27 15:03:12.139577,-4732
2021-12-27 15:03:12.139583,-4341
2021-12-27 15:03:12.139590,921
2021-12-27 15:03:12.139596,-6512
2021-12-27 15:03:12.139602,-824
2021-12-27 15:03:12.139608,2201
2021-12-27 15:03:12.480014,-5549
2021-12-27 15:03:12.480045,-5392
2021-12-27 15:03:12.480056,-14544
2021-12-27 15:03:12.480066,-18966
2021-12-27 15:03:12.480076,-18966
2021-12-27 15:03:12.480096,-3306
2021-12-27 15:03:12.480105,854
2021-12-27 15:03:12.480115,-6811
2021-12-27 15:03:12.480124,-14384
2021-12-27 15:03:12.480134,2250
2021-12-27 15:03:12.480148,2979
2021-12-27 15:03:12.480158,2481
2021-12-27 15:03:12.480167,-3171
2021-12-27 15:03:12.480177,-2333
2021-12-27 15:03:12.480186,2822
2021-12-27 15:03:12.480206,-2053
2021-12-27 15:03:12.480216,-16028
2021-12-27 15:03:12.480225,-18966
2021-12-27 15:03:12.480234,-2901
2021-12-27 15:03:12.480249,3588
2021-12-27 15:03:12.480258,995
2021-12-27 15:03:12.480273,-164
2021-12-27 15:03:12.480282,2005
2021-12-27 15:03:12.676323,-585
2021-12-27 15:03:12.676338,-852
2021-12-27 15:03:12.676345,-3359
2021-12-27 15:03:12.676351,-185
2021-12-27 15:03:12.676360,3271
2021-12-27 15:03:12.676367,-683
2021-12-27 15:03:12.676373,3273
2021-12-27 15:03:12.676379,-7999
2021-12-27 15:03:12.676385,-8304
2021-12-27 15:03:12.676398,-247
2021-12-27 15:03:12.676404,451
2021-12-27 15:03:12.676410,-1284
2021-12-27 15:03:12.676416,-10365
2021-12-27 15:03:12.676422,-854
2021-12-27 15:03:12.676432,868
2021-12-27 15:03:12.676438,2884
2021-12-27 15:03:12.676447,57
2021-12-27 15:03:12.676454,3188
2021-12-27 15:03:12.676463,1974
2021-12-27 15:03:12.920064,1572
2021-12-27 15:03:12.920085,847
2021-12-27 15:03:12.920093,2315
2021-12-27 15:03:12.920099,4292
2021-12-27 15:03:12.920105,3239
2021-12-27 15:03:12.920115,3014
2021-12-27 15:03:12.920121,-7846
2021-12-27 15:03:12.920128,-652
2021-12-27 15:03:12.920134,4688
2021-12-27 15:03:12.920140,4033
2021-12-27 15:03:12.920149,-1928
2021-12-27 15:03:12.920156,-12069
2021-12-27 15:03:12.920162,-6538
2021-12-27 15:03:12.920168,3769
2021-12-27 15:03:12.920178,4162
2021-12-27 15:03:12.920184,3271
2021-12-27 15:03:12.920190,-4991
2021-12-27 15:03:12.920196,-13518
2021-12-27 15:03:12.920202,442
2021-12-27 15:03:12.920212,4748
2021-12-27 15:03:12.920221,1315
2021-12-27 15:03:12.920227,-5420
2021-12-27 15:03:12.920233,-12236
2021-12-27 15:03:12.920240,-11856
2021-12-27 15:03:12.920246,4470
2021-12-27 15:03:13.114742,1736
2021-12-27 15:03:13.114757,-2169
2021-12-27 15:03:13.114764,-2933
2021-12-27 15:03:13.114778,4938
2021-12-27 15:03:13.114787,-4033
2021-12-27 15:03:13.114794,-11620
2021-12-27 15:03:13.114800,-67
2021-12-27 15:03:13.114813,1754
2021-12-27 15:03:13.114819,-7288
2021-12-27 15:03:13.114825,-14403
2021-12-27 15:03:13.114831,-2106
2021-12-27 15:03:13.114844,2502
2021-12-27 15:03:13.114850,2558
2021-12-27 15:03:13.114857,-12456
2021-12-27 15:03:13.114863,-5753
2021-12-27 15:03:13.114879,1683
2021-12-27 15:03:13.114885,-4299
2021-12-27 15:03:13.114891,-724
2021-12-27 15:03:13.358839,4607
2021-12-27 15:03:13.358862,449
2021-12-27 15:03:13.358872,-6890
2021-12-27 15:03:13.358882,-13794
2021-12-27 15:03:13.358892,2007
2021-12-27 15:03:13.358906,3155
2021-12-27 15:03:13.358916,4067
2021-12-27 15:03:13.358925,1683
2021-12-27 15:03:13.358934,-6434
2021-12-27 15:03:13.358944,-13034
2021-12-27 15:03:13.358953,-5943
2021-12-27 15:03:13.358967,2016
2021-12-27 15:03:13.358977,-7543
2021-12-27 15:03:13.358986,-11247
2021-12-27 15:03:13.358995,-16762
2021-12-27 15:03:13.359005,-3697
2021-12-27 15:03:13.359014,-511
2021-12-27 15:03:13.359023,-12706
2021-12-27 15:03:13.359032,-5565
2021-12-27 15:03:13.359041,-1115
2021-12-27 15:03:13.359051,-4125
2021-12-27 15:03:13.359060,1095
2021-12-27 15:03:13.359069,4079
2021-12-27 15:03:13.359079,2387
2021-12-27 15:03:13.359088,-1940
2021-12-27 15:03:13.359097,-393
2021-12-27 15:03:13.359106,1715
2021-12-27 15:03:13.554263,-567
2021-12-27 15:03:13.554299,-3843
2021-12-27 15:03:13.554310,-18966
2021-12-27 15:03:13.554320,-12122
2021-12-27 15:03:13.554329,-3755
2021-12-27 15:03:13.554339,-8464
2021-12-27 15:03:13.554348,1007
2021-12-27 15:03:13.554363,1666
2021-12-27 15:03:13.554372,2792
2021-12-27 15:03:13.554387,2880
2021-12-27 15:03:13.554397,-8228
2021-12-27 15:03:13.554406,-1470
2021-12-27 15:03:13.554421,3320
2021-12-27 15:03:13.554430,2597
2021-12-27 15:03:13.554440,-7735
2021-12-27 15:03:13.554449,-4121
2021-12-27 15:03:13.554464,2123
2021-12-27 15:03:13.554473,4549
2021-12-27 15:03:13.554488,655
2021-12-27 15:03:13.554497,182
2021-12-27 15:03:13.554507,1715
2021-12-27 15:03:13.554516,4637
2021-12-27 15:03:13.846850,9
2021-12-27 15:03:13.846866,1310
2021-12-27 15:03:13.846873,4206
2021-12-27 15:03:13.846879,3371
2021-12-27 15:03:13.846889,608
2021-12-27 15:03:13.846895,-12902
2021-12-27 15:03:13.846901,-6431
2021-12-27 15:03:13.846916,3197
2021-12-27 15:03:13.846929,2574
2021-12-27 15:03:13.846936,-4952
2021-12-27 15:03:13.846942,-18966
2021-12-27 15:03:13.846948,-13861
2021-12-27 15:03:13.846954,4019
2021-12-27 15:03:13.846967,2229
2021-12-27 15:03:13.846973,-3000
2021-12-27 15:03:13.846979,1143
2021-12-27 15:03:13.846995,2421
2021-12-27 15:03:13.847002,307
2021-12-27 15:03:13.847008,-2366
2021-12-27 15:03:13.992916,4352
2021-12-27 15:03:13.992952,-268
2021-12-27 15:03:13.992963,-5744
2021-12-27 15:03:13.992987,4181
2021-12-27 15:03:13.992997,-10937
2021-12-27 15:03:13.993006,-17394
2021-12-27 15:03:13.993016,-993
2021-12-27 15:03:13.993035,1937
2021-12-27 15:03:13.993044,1655
2021-12-27 15:03:13.993054,-13368
2021-12-27 15:03:13.993063,-15621
2021-12-27 15:03:13.993073,-2951
2021-12-27 15:03:13.993082,465
2021-12-27 15:03:13.993096,2118
2021-12-27 15:03:13.993106,-14444
2021-12-27 15:03:13.993115,-10057
2021-12-27 15:03:13.993139,1115
2021-12-27 15:03:13.993149,611
2021-12-27 15:03:13.993158,-1889
2021-12-27 15:03:13.993168,4227
2021-12-27 15:03:14.284516,4250
2021-12-27 15:03:14.284539,3285
2021-12-27 15:03:14.284549,-3544
2021-12-27 15:03:14.284559,-14417
2021-12-27 15:03:14.284569,-3797
2021-12-27 15:03:14.284584,1738
2021-12-27 15:03:14.284593,-8050
2021-12-27 15:03:14.284603,-8582
2021-12-27 15:03:14.284612,-6688
2021-12-27 15:03:14.284622,-10444
2021-12-27 15:03:14.284631,379
2021-12-27 15:03:14.284640,4419
2021-12-27 15:03:14.284650,-11599
2021-12-27 15:03:14.284659,-8659
2021-12-27 15:03:14.284669,-5327
2021-12-27 15:03:14.284678,-12331
2021-12-27 15:03:14.284688,-6985
2021-12-27 15:03:14.284697,-7596
2021-12-27 15:03:14.284706,-7475
2021-12-27 15:03:14.284716,-71
2021-12-27 15:03:14.284725,-259
2021-12-27 15:03:14.284735,-504
2021-12-27 15:03:14.284744,463
2021-12-27 15:03:14.284754,4797
2021-12-27 15:03:14.284763,4922
2021-12-27 15:03:14.284773,-1692
2021-12-27 15:03:14.284782,3644
2021-12-27 15:03:14.284792,3827
2021-12-27 15:03:14.527836,-1210
2021-12-27 15:03:14.527872,3706
2021-12-27 15:03:14.527883,-562
2021-12-27 15:03:14.527893,4373
2021-12-27 15:03:14.527902,-3780
2021-12-27 15:03:14.527912,-11722
2021-12-27 15:03:14.527921,-1877
2021-12-27 15:03:14.527936,2708
2021-12-27 15:03:14.527946,1109
2021-12-27 15:03:14.527960,-1078
2021-12-27 15:03:14.527970,-5570
2021-12-27 15:03:14.527979,-5431
2021-12-27 15:03:14.527988,-14278
2021-12-27 15:03:14.527998,-451
2021-12-27 15:03:14.528012,-3255
2021-12-27 15:03:14.528022,-3584
2021-12-27 15:03:14.528031,-981
2021-12-27 15:03:14.528041,-9508
2021-12-27 15:03:14.528050,-1613
2021-12-27 15:03:14.528070,-1245
2021-12-27 15:03:14.528079,1368
2021-12-27 15:03:14.528094,4229
2021-12-27 15:03:14.674931,-294
2021-12-27 15:03:14.674954,1511
2021-12-27 15:03:14.674965,3104
2021-12-27 15:03:14.674974,4737
2021-12-27 15:03:14.674989,1785
2021-12-27 15:03:14.674998,-6887
2021-12-27 15:03:14.675008,-11138
2021-12-27 15:03:14.675017,-794
2021-12-27 15:03:14.675041,1914
2021-12-27 15:03:14.675051,-13924
2021-12-27 15:03:14.675060,-6628
2021-12-27 15:03:14.675085,3313
2021-12-27 15:03:14.675094,-460
2021-12-27 15:03:14.675104,-2542
2021-12-27 15:03:14.675113,-1919
2021-12-27 15:03:14.675122,-2391
2021-12-27 15:03:14.675132,-1745
2021-12-27 15:03:14.675147,1907
2021-12-27 15:03:14.675156,-7272
2021-12-27 15:03:14.918889,4646
2021-12-27 15:03:14.918926,-6008
2021-12-27 15:03:14.918937,-16683
2021-12-27 15:03:14.918946,-2030
2021-12-27 15:03:14.918966,2713
2021-12-27 15:03:14.918976,-11
2021-12-27 15:03:14.918985,-10747
2021-12-27 15:03:14.918995,-8904
2021-12-27 15:03:14.919014,2477
2021-12-27 15:03:14.919028,-3100
2021-12-27 15:03:14.919038,-1745
2021-12-27 15:03:14.919052,4771
2021-12-27 15:03:14.919062,-7705
2021-12-27 15:03:14.919072,-18049
2021-12-27 15:03:14.919081,-6656
2021-12-27 15:03:14.919090,4051
2021-12-27 15:03:14.919100,1648
2021-12-27 15:03:14.919109,2227
2021-12-27 15:03:14.919119,-4656
2021-12-27 15:03:14.919129,-4588
2021-12-27 15:03:14.919138,3299
2021-12-27 15:03:14.919147,-412
2021-12-27 15:03:14.919157,2861
2021-12-27 15:03:15.162655,4852
2021-12-27 15:03:15.162677,-1829
2021-12-27 15:03:15.162688,-9196
2021-12-27 15:03:15.162709,-8781
2021-12-27 15:03:15.162718,2711
2021-12-27 15:03:15.162733,2174
2021-12-27 15:03:15.162775,-914
2021-12-27 15:03:15.162810,907
2021-12-27 15:03:15.162827,-8656
2021-12-27 15:03:15.162842,-766
2021-12-27 15:03:15.162867,2676
2021-12-27 15:03:15.162884,1125
2021-12-27 15:03:15.162901,2838
2021-12-27 15:03:15.162918,1884
2021-12-27 15:03:15.162928,2488
2021-12-27 15:03:15.162951,1440
2021-12-27 15:03:15.162961,2861
2021-12-27 15:03:15.162970,1710
2021-12-27 15:03:15.162980,-10650
2021-12-27 15:03:15.162989,-2995
2021-12-27 15:03:15.162999,-852
2021-12-27 15:03:15.163008,-15366
2021-12-27 15:03:15.163018,-5714
2021-12-27 15:03:15.163027,256
2021-12-27 15:03:15.406339,-10566
2021-12-27 15:03:15.406368,-6915
2021-12-27 15:03:15.406379,-4885
2021-12-27 15:03:15.406389,-9740
2021-12-27 15:03:15.406399,-3424
2021-12-27 15:03:15.406408,886
2021-12-27 15:03:15.406418,-11474
2021-12-27 15:03:15.406427,-13562
2021-12-27 15:03:15.406437,3597
2021-12-27 15:03:15.406446,2611
2021-12-27 15:03:15.406456,-1903
2021-12-27 15:03:15.406471,-6322
2021-12-27 15:03:15.406481,-13055
2021-12-27 15:03:15.406490,1171
2021-12-27 15:03:15.406500,3917
2021-12-27 15:03:15.406509,3357
2021-12-27 15:03:15.406524,2551
2021-12-27 15:03:15.406533,-446
2021-12-27 15:03:15.406543,-1308
2021-12-27 15:03:15.406553,4190
2021-12-27 15:03:15.406567,4994
2021-12-27 15:03:15.406577,2861
2021-12-27 15:03:15.406586,-11740
2021-12-27 15:03:15.406596,-10932
2021-12-27 15:03:15.406605,3516
2021-12-27 15:03:15.406615,-245
2021-12-27 15:03:15.406624,-6718
2021-12-27 15:03:15.601428,-1771
2021-12-27 15:03:15.601458,3847
2021-12-27 15:03:15.601470,-104
2021-12-27 15:03:15.601480,-2630
2021-12-27 15:03:15.601500,3866
2021-12-27 15:03:15.601509,493
2021-12-27 15:03:15.601518,-12868
2021-12-27 15:03:15.601528,-7084
2021-12-27 15:03:15.601552,2130
2021-12-27 15:03:15.601561,-12879
2021-12-27 15:03:15.601571,-12495
2021-12-27 15:03:15.601580,4315
2021-12-27 15:03:15.601600,3012
2021-12-27 15:03:15.601609,-1115
2021-12-27 15:03:15.601619,-13173
2021-12-27 15:03:15.601628,-717
2021-12-27 15:03:15.601642,3262
2021-12-27 15:03:15.601652,3709
2021-12-27 15:03:15.601661,-3785
2021-12-27 15:03:15.601671,-13988
2021-12-27 15:03:15.601680,-3241
2021-12-27 15:03:15.601690,-2065
2021-12-27 15:03:15.844561,-11148
2021-12-27 15:03:15.844581,-11965
2021-12-27 15:03:15.844588,-11923
2021-12-27 15:03:15.844595,-16598
2021-12-27 15:03:15.844601,-12539
2021-12-27 15:03:15.844614,155
2021-12-27 15:03:15.844620,2829
2021-12-27 15:03:15.844626,-7131
2021-12-27 15:03:15.844633,-12131
2021-12-27 15:03:15.844639,4903
2021-12-27 15:03:15.844652,3472
2021-12-27 15:03:15.844658,-1574
2021-12-27 15:03:15.844664,-384
2021-12-27 15:03:15.844670,3660
2021-12-27 15:03:15.844683,1745
2021-12-27 15:03:15.844689,2398
2021-12-27 15:03:15.844695,833
2021-12-27 15:03:15.844701,2949
2021-12-27 15:03:15.844714,4591
2021-12-27 15:03:15.844720,2180
2021-12-27 15:03:15.844726,-5470
2021-12-27 15:03:15.844732,-6936
2021-12-27 15:03:16.088806,-9596
2021-12-27 15:03:16.088827,-14875
2021-12-27 15:03:16.088835,-15843
2021-12-27 15:03:16.088841,-12796
2021-12-27 15:03:16.088847,-11678
2021-12-27 15:03:16.088853,-16264
2021-12-27 15:03:16.088859,-7369
2021-12-27 15:03:16.088865,412
2021-12-27 15:03:16.088872,-9119
2021-12-27 15:03:16.088878,-3468
2021-12-27 15:03:16.088884,1322
2021-12-27 15:03:16.088890,-11738
2021-12-27 15:03:16.088896,-8249
2021-12-27 15:03:16.088909,-567
2021-12-27 15:03:16.088915,2278
2021-12-27 15:03:16.088925,-354
2021-12-27 15:03:16.088934,3762
2021-12-27 15:03:16.088944,963
2021-12-27 15:03:16.088957,460
2021-12-27 15:03:16.088969,3074
2021-12-27 15:03:16.332573,3871
2021-12-27 15:03:16.332604,2380
2021-12-27 15:03:16.332615,4246
2021-12-27 15:03:16.332625,4776
2021-12-27 15:03:16.332635,-1863
2021-12-27 15:03:16.332644,-4510
2021-12-27 15:03:16.332654,-8316
2021-12-27 15:03:16.332663,-7598
2021-12-27 15:03:16.332673,3477
2021-12-27 15:03:16.332682,4264
2021-12-27 15:03:16.332702,-1328
2021-12-27 15:03:16.332712,-8624
2021-12-27 15:03:16.332721,-3002
2021-12-27 15:03:16.332751,3512
2021-12-27 15:03:16.332761,-2431
2021-12-27 15:03:16.332770,3996
2021-12-27 15:03:16.332795,1785
2021-12-27 15:03:16.332804,1069
2021-12-27 15:03:16.332814,2354
2021-12-27 15:03:16.575105,504
2021-12-27 15:03:16.575127,-2025
2021-12-27 15:03:16.575143,1308
2021-12-27 15:03:16.575152,-18966
2021-12-27 15:03:16.575162,-18966
2021-12-27 15:03:16.575171,-18966
2021-12-27 15:03:16.575181,-6332
2021-12-27 15:03:16.575190,3127
2021-12-27 15:03:16.575210,2975
2021-12-27 15:03:16.575219,-4468
2021-12-27 15:03:16.575228,-11161
2021-12-27 15:03:16.575238,1305
2021-12-27 15:03:16.575267,-5197
2021-12-27 15:03:16.575277,2993
2021-12-27 15:03:16.575301,1305
2021-12-27 15:03:16.575311,-1748
2021-12-27 15:03:16.575320,1785
2021-12-27 15:03:16.820479,4924
2021-12-27 15:03:16.820496,2431
2021-12-27 15:03:16.820503,-5938
2021-12-27 15:03:16.820510,-11465
2021-12-27 15:03:16.820523,4162
2021-12-27 15:03:16.820530,321
2021-12-27 15:03:16.820536,-17204
2021-12-27 15:03:16.820542,-18966
2021-12-27 15:03:16.820548,-562
2021-12-27 15:03:16.820561,1111
2021-12-27 15:03:16.820567,2130
2021-12-27 15:03:16.820574,2278
2021-12-27 15:03:16.820580,1141
2021-12-27 15:03:16.820589,930
2021-12-27 15:03:16.820596,-7897
2021-12-27 15:03:16.820602,-1220
2021-12-27 15:03:16.820608,53
2021-12-27 15:03:16.820614,-236
2021-12-27 15:03:16.820621,1604
2021-12-27 15:03:16.820627,-2891
2021-12-27 15:03:16.820633,-6061
2021-12-27 15:03:16.820639,-8205
2021-12-27 15:03:16.820646,-9939
2021-12-27 15:03:16.820652,-8751
2021-12-27 15:03:17.063591,-909
2021-12-27 15:03:17.063618,-652
2021-12-27 15:03:17.063625,-3477
2021-12-27 15:03:17.063631,1102
2021-12-27 15:03:17.063638,-10742
2021-12-27 15:03:17.063644,-10939
2021-12-27 15:03:17.063650,4862
2021-12-27 15:03:17.063656,4808
2021-12-27 15:03:17.063662,-722
2021-12-27 15:03:17.063668,-3572
2021-12-27 15:03:17.063674,-13729
2021-12-27 15:03:17.063680,-18966
2021-12-27 15:03:17.063686,-5392
2021-12-27 15:03:17.063696,331
2021-12-27 15:03:17.063702,1194
2021-12-27 15:03:17.063711,-8288
2021-12-27 15:03:17.063717,-3336
2021-12-27 15:03:17.063727,2778
2021-12-27 15:03:17.063733,4866
2021-12-27 15:03:17.063743,2106
2021-12-27 15:03:17.063749,1942
2021-12-27 15:03:17.063755,3470
2021-12-27 15:03:17.063764,4896
2021-12-27 15:03:17.307614,-99
2021-12-27 15:03:17.307637,3678
2021-12-27 15:03:17.307648,4542
2021-12-27 15:03:17.307658,3797
2021-12-27 15:03:17.307673,-990
2021-12-27 15:03:17.307682,-12382
2021-12-27 15:03:17.307692,-4602
2021-12-27 15:03:17.307701,4621
2021-12-27 15:03:17.307721,1956
2021-12-27 15:03:17.307730,-2924
2021-12-27 15:03:17.307740,-5450
2021-12-27 15:03:17.307749,4433
2021-12-27 15:03:17.307774,-4287
2021-12-27 15:03:17.307783,-13456
2021-12-27 15:03:17.307793,-1261
2021-12-27 15:03:17.307817,3808
2021-12-27 15:03:17.307827,199
2021-12-27 15:03:17.307837,-2933
2021-12-27 15:03:17.454121,4526
2021-12-27 15:03:17.454158,-1199
2021-12-27 15:03:17.454169,-4463
2021-12-27 15:03:17.454193,4121
2021-12-27 15:03:17.454203,-8323
2021-12-27 15:03:17.454212,-14970
2021-12-27 15:03:17.454222,-912
2021-12-27 15:03:17.454241,2412
2021-12-27 15:03:17.454251,3398
2021-12-27 15:03:17.454260,-10439
2021-12-27 15:03:17.454270,-13819
2021-12-27 15:03:17.454280,-10064
2021-12-27 15:03:17.454289,-5334
2021-12-27 15:03:17.454304,1002
2021-12-27 15:03:17.454313,-16489
2021-12-27 15:03:17.454323,-8638
2021-12-27 15:03:17.454342,4098
2021-12-27 15:03:17.454352,1845
2021-12-27 15:03:17.454361,914
2021-12-27 15:03:17.454370,-2625
2021-12-27 15:03:17.697660,3926
2021-12-27 15:03:17.697682,4530
2021-12-27 15:03:17.697693,-5223
2021-12-27 15:03:17.697703,-15232
2021-12-27 15:03:17.697712,-3586
2021-12-27 15:03:17.697732,2935
2021-12-27 15:03:17.697742,-2215
2021-12-27 15:03:17.697751,-6429
2021-12-27 15:03:17.697760,-8420
2021-12-27 15:03:17.697780,-148
2021-12-27 15:03:17.697790,2236
2021-12-27 15:03:17.697799,1650
2021-12-27 15:03:17.697809,-6191
2021-12-27 15:03:17.697818,-1030
2021-12-27 15:03:17.697838,-3102
2021-12-27 15:03:17.697847,-10041
2021-12-27 15:03:17.697857,-6485
2021-12-27 15:03:17.697866,-32
2021-12-27 15:03:17.697881,3016
2021-12-27 15:03:17.697890,-7283
2021-12-27 15:03:17.697900,-7151
2021-12-27 15:03:17.697909,-7272
2021-12-27 15:03:17.941675,-9050
2021-12-27 15:03:17.941706,-6640
2021-12-27 15:03:17.941717,-5169
2021-12-27 15:03:17.941727,-951
2021-12-27 15:03:17.941736,-143
2021-12-27 15:03:17.941746,-9156
2021-12-27 15:03:17.941755,-13518
2021-12-27 15:03:17.941765,-3320
2021-12-27 15:03:17.941779,-421
2021-12-27 15:03:17.941789,-622
2021-12-27 15:03:17.941798,3002
2021-12-27 15:03:17.941808,-10289
2021-12-27 15:03:17.941817,-7397
2021-12-27 15:03:17.941832,1187
2021-12-27 15:03:17.941841,2275
2021-12-27 15:03:17.941856,541
2021-12-27 15:03:17.941865,-6387
2021-12-27 15:03:17.941875,-5776
2021-12-27 15:03:17.941884,-2782
2021-12-27 15:03:17.941894,-11293
2021-12-27 15:03:17.941903,-11997
2021-12-27 15:03:17.941913,4711
2021-12-27 15:03:17.941922,2609
2021-12-27 15:03:17.941932,-2299
2021-12-27 15:03:17.941941,4855
2021-12-27 15:03:18.185128,-148
2021-12-27 15:03:18.185150,2208
2021-12-27 15:03:18.185160,1713
2021-12-27 15:03:18.185180,1923
2021-12-27 15:03:18.185189,-6744
2021-12-27 15:03:18.185199,-11300
2021-12-27 15:03:18.185208,599
2021-12-27 15:03:18.185223,4618
2021-12-27 15:03:18.185237,277
2021-12-27 15:03:18.185246,-13398
2021-12-27 15:03:18.185256,-3442
2021-12-27 15:03:18.185285,2187
2021-12-27 15:03:18.185295,-9948
2021-12-27 15:03:18.185304,-3746
2021-12-27 15:03:18.185324,3947
2021-12-27 15:03:18.185333,777
2021-12-27 15:03:18.185343,-4023
2021-12-27 15:03:18.380318,-1002
2021-12-27 15:03:18.380340,-3241
2021-12-27 15:03:18.380350,3019
2021-12-27 15:03:18.380360,4530
2021-12-27 15:03:18.380370,-2250
2021-12-27 15:03:18.380379,-3771
2021-12-27 15:03:18.380389,-1298
2021-12-27 15:03:18.380398,-13704
2021-12-27 15:03:18.380408,-10886
2021-12-27 15:03:18.380423,-3718
2021-12-27 15:03:18.380432,-6065
2021-12-27 15:03:18.380441,-5241
2021-12-27 15:03:18.380451,-18966
2021-12-27 15:03:18.380460,-16672
2021-12-27 15:03:18.380470,4843
2021-12-27 15:03:18.380485,1352
2021-12-27 15:03:18.380494,-1037
2021-12-27 15:03:18.380504,-2949
2021-12-27 15:03:18.380513,-9133
2021-12-27 15:03:18.380522,-10803
2021-12-27 15:03:18.380532,-500
2021-12-27 15:03:18.380541,4477
2021-12-27 15:03:18.380551,310
2021-12-27 15:03:18.380560,-13632
2021-12-27 15:03:18.380569,-18955
2021-12-27 15:03:18.380579,1551
2021-12-27 15:03:18.671277,3662
2021-12-27 15:03:18.671299,3757
2021-12-27 15:03:18.671310,-2414
2021-12-27 15:03:18.671320,-9830
2021-12-27 15:03:18.671329,-8629
2021-12-27 15:03:18.671338,4980
2021-12-27 15:03:18.671353,1104
2021-12-27 15:03:18.671362,907
2021-12-27 15:03:18.671372,1129
2021-12-27 15:03:18.671381,-7929
2021-12-27 15:03:18.671390,1967
2021-12-27 15:03:18.671405,3081
2021-12-27 15:03:18.671414,810
2021-12-27 15:03:18.671423,1650
2021-12-27 15:03:18.671433,3424
2021-12-27 15:03:18.671442,3542
2021-12-27 15:03:18.671461,1453
2021-12-27 15:03:18.671471,4757
2021-12-27 15:03:18.671485,-4255
2021-12-27 15:03:18.671494,-5431
2021-12-27 15:03:18.671504,-2857
2021-12-27 15:03:18.671513,2389
2021-12-27 15:03:18.671528,2336
2021-12-27 15:03:18.867978,2324
2021-12-27 15:03:18.868014,3778
2021-12-27 15:03:18.868024,2928
2021-12-27 15:03:18.868034,4192
2021-12-27 15:03:18.868043,3199
2021-12-27 15:03:18.868052,-7225
2021-12-27 15:03:18.868062,-6820
2021-12-27 15:03:18.868076,4412
2021-12-27 15:03:18.868085,1106
2021-12-27 15:03:18.868094,1495
2021-12-27 15:03:18.868104,-17144
2021-12-27 15:03:18.868113,-15352
2021-12-27 15:03:18.868122,3864
2021-12-27 15:03:18.868132,4072
2021-12-27 15:03:18.868141,1069
2021-12-27 15:03:18.868150,-2227
2021-12-27 15:03:18.868159,-6850
2021-12-27 15:03:18.868169,-7936
2021-12-27 15:03:18.868178,-11080
2021-12-27 15:03:18.868187,-7052
2021-12-27 15:03:18.868197,1310
2021-12-27 15:03:18.868211,2611
2021-12-27 15:03:18.868221,-4470
2021-12-27 15:03:18.868230,-5929
2021-12-27 15:03:18.868239,-10840
2021-12-27 15:03:18.868249,-6265
2021-12-27 15:03:19.062653,4741
2021-12-27 15:03:19.062684,-2116
2021-12-27 15:03:19.062695,-7311
2021-12-27 15:03:19.062705,-17626
2021-12-27 15:03:19.062715,-6517
2021-12-27 15:03:19.062735,-3303
2021-12-27 15:03:19.062745,-13447
2021-12-27 15:03:19.062754,-3188
2021-12-27 15:03:19.062779,560
2021-12-27 15:03:19.062788,-12159
2021-12-27 15:03:19.062798,-8936
2021-12-27 15:03:19.062818,4697
2021-12-27 15:03:19.062832,3704
2021-12-27 15:03:19.062842,-4748
2021-12-27 15:03:19.062871,1697
2021-12-27 15:03:19.062881,-3628
2021-12-27 15:03:19.062890,1090
2021-12-27 15:03:19.062900,-2546
2021-12-27 15:03:19.306409,-560
2021-12-27 15:03:19.306435,-567
2021-12-27 15:03:19.306442,-14456
2021-12-27 15:03:19.306448,-7876
2021-12-27 15:03:19.306461,2572
2021-12-27 15:03:19.306471,-8617
2021-12-27 15:03:19.306477,-10791
2021-12-27 15:03:19.306493,3817
2021-12-27 15:03:19.306499,-412
2021-12-27 15:03:19.306506,347
2021-12-27 15:03:19.306512,4570
2021-12-27 15:03:19.306524,2502
2021-12-27 15:03:19.306530,3264
2021-12-27 15:03:19.306537,74
2021-12-27 15:03:19.306543,4331
2021-12-27 15:03:19.306556,4987
2021-12-27 15:03:19.306562,-4216
2021-12-27 15:03:19.306568,-11222
2021-12-27 15:03:19.306574,-1530
2021-12-27 15:03:19.550594,882
2021-12-27 15:03:19.550626,-6452
2021-12-27 15:03:19.550637,-9897
2021-12-27 15:03:19.550647,-8703
2021-12-27 15:03:19.550656,-12145
2021-12-27 15:03:19.550665,-18966
2021-12-27 15:03:19.550675,-13018
2021-12-27 15:03:19.550684,-8541
2021-12-27 15:03:19.550694,-18966
2021-12-27 15:03:19.550703,-18966
2021-12-27 15:03:19.550713,-7344
2021-12-27 15:03:19.550722,-10793
2021-12-27 15:03:19.550731,-11391
2021-12-27 15:03:19.550741,1537
2021-12-27 15:03:19.550751,4811
2021-12-27 15:03:19.550760,-3815
2021-12-27 15:03:19.550770,-958
2021-12-27 15:03:19.550780,3588
2021-12-27 15:03:19.550789,-3505
2021-12-27 15:03:19.550799,2113
2021-12-27 15:03:19.550813,-2118
2021-12-27 15:03:19.550823,3382
2021-12-27 15:03:19.550832,3611
2021-12-27 15:03:19.550842,-2278
2021-12-27 15:03:19.550851,1917
2021-12-27 15:03:19.550861,1565
2021-12-27 15:03:19.550870,1335
2021-12-27 15:03:19.550879,3852
2021-12-27 15:03:19.550889,3049
2021-12-27 15:03:19.842739,1328
2021-12-27 15:03:19.842770,-622
2021-12-27 15:03:19.842781,-1697
2021-12-27 15:03:19.842791,-10145
2021-12-27 15:03:19.842801,-7765
2021-12-27 15:03:19.842816,-3618
2021-12-27 15:03:19.842826,-13356
2021-12-27 15:03:19.842835,2016
2021-12-27 15:03:19.842845,4544
2021-12-27 15:03:19.842854,2940
2021-12-27 15:03:19.842869,-3384
2021-12-27 15:03:19.842878,-10823
2021-12-27 15:03:19.842888,-4975
2021-12-27 15:03:19.842908,3384
2021-12-27 15:03:19.842922,363
2021-12-27 15:03:19.842932,-2623
2021-12-27 15:03:19.842941,3915
2021-12-27 15:03:19.842951,4348
2021-12-27 15:03:19.842970,-122
2021-12-27 15:03:19.842980,-162
2021-12-27 15:03:19.842989,280
2021-12-27 15:03:19.988965,3725
2021-12-27 15:03:19.989073,4125
2021-12-27 15:03:19.989101,-2463
2021-12-27 15:03:19.989119,-3153
2021-12-27 15:03:19.989135,2989
2021-12-27 15:03:19.989151,-5429
2021-12-27 15:03:19.989168,-3901
2021-12-27 15:03:19.989182,722
2021-12-27 15:03:19.989192,-14181
2021-12-27 15:03:19.989201,-13974
2021-12-27 15:03:19.989221,3755
2021-12-27 15:03:19.989231,-3264
2021-12-27 15:03:19.989240,-13458
2021-12-27 15:03:19.989250,-16806
2021-12-27 15:03:19.989259,4190
2021-12-27 15:03:19.989274,1139
2021-12-27 15:03:19.989289,-407
2021-12-27 15:03:19.989298,-15588
2021-12-27 15:03:19.989308,-1912
2021-12-27 15:03:19.989327,4454
2021-12-27 15:03:19.989337,599
2021-12-27 15:03:19.989346,-3195
2021-12-27 15:03:19.989356,-1058
2021-12-27 15:03:20.232808,2734
2021-12-27 15:03:20.232824,2215
2021-12-27 15:03:20.232831,-7598
2021-12-27 15:03:20.232837,-11745
2021-12-27 15:03:20.232847,4118
2021-12-27 15:03:20.232853,-8515
2021-12-27 15:03:20.232859,-6693
2021-12-27 15:03:20.232866,-7156
2021-12-27 15:03:20.232872,-10701
2021-12-27 15:03:20.232878,-2961
2021-12-27 15:03:20.232890,-782
2021-12-27 15:03:20.232897,993
2021-12-27 15:03:20.232903,671
2021-12-27 15:03:20.232909,689
2021-12-27 15:03:20.232922,2231
2021-12-27 15:03:20.232928,1907
2021-12-27 15:03:20.232934,-854
2021-12-27 15:03:20.232940,3002
2021-12-27 15:03:20.232956,-463
2021-12-27 15:03:20.232962,2458
2021-12-27 15:03:20.232969,2340
2021-12-27 15:03:20.476489,1819
2021-12-27 15:03:20.476526,2113
2021-12-27 15:03:20.476537,-750
2021-12-27 15:03:20.476547,407
2021-12-27 15:03:20.476556,-10504
2021-12-27 15:03:20.476566,-7492
2021-12-27 15:03:20.476580,502
2021-12-27 15:03:20.476590,-12465
2021-12-27 15:03:20.476599,-9344
2021-12-27 15:03:20.476609,-2444
2021-12-27 15:03:20.476618,-9117
2021-12-27 15:03:20.476628,-1275
2021-12-27 15:03:20.476643,-266
2021-12-27 15:03:20.476652,1942
2021-12-27 15:03:20.476667,-3188
2021-12-27 15:03:20.476676,-9735
2021-12-27 15:03:20.476685,-15123
2021-12-27 15:03:20.476695,-5734
2021-12-27 15:03:20.476709,3151
2021-12-27 15:03:20.476719,-581
2021-12-27 15:03:20.476729,3030
2021-12-27 15:03:20.476738,2947
2021-12-27 15:03:20.476748,3283
2021-12-27 15:03:20.476757,3199
2021-12-27 15:03:20.767972,3868
2021-12-27 15:03:20.768002,-1660
2021-12-27 15:03:20.768014,3718
2021-12-27 15:03:20.768024,2208
2021-12-27 15:03:20.768033,2083
2021-12-27 15:03:20.768048,-5102
2021-12-27 15:03:20.768058,-12928
2021-12-27 15:03:20.768067,-4299
2021-12-27 15:03:20.768077,3871
2021-12-27 15:03:20.768086,2618
2021-12-27 15:03:20.768095,-6839
2021-12-27 15:03:20.768105,-7232
2021-12-27 15:03:20.768114,-7066
2021-12-27 15:03:20.768123,-10328
2021-12-27 15:03:20.768133,1120
2021-12-27 15:03:20.768147,4947
2021-12-27 15:03:20.768162,122
2021-12-27 15:03:20.768172,-2329
2021-12-27 15:03:20.768181,1078
2021-12-27 15:03:20.768191,4987
2021-12-27 15:03:20.768205,4436
2021-12-27 15:03:20.768214,2857
2021-12-27 15:03:20.768224,-511
2021-12-27 15:03:20.768233,-3074
2021-12-27 15:03:20.914844,4227
2021-12-27 15:03:20.914868,-3276
2021-12-27 15:03:20.914874,-3972
2021-12-27 15:03:20.914879,4938
2021-12-27 15:03:20.914890,1775
2021-12-27 15:03:20.914895,-9464
2021-12-27 15:03:20.914900,-15125
2021-12-27 15:03:20.914905,-331
2021-12-27 15:03:20.914913,-507
2021-12-27 15:03:20.914918,-10085
2021-12-27 15:03:20.914923,-9221
2021-12-27 15:03:20.914928,-12921
2021-12-27 15:03:20.914933,-2796
2021-12-27 15:03:20.914946,655
2021-12-27 15:03:20.914951,-4709
2021-12-27 15:03:20.914956,405
2021-12-27 15:03:20.914967,-7902
2021-12-27 15:03:20.914971,-18966
2021-12-27 15:03:20.914976,-11016
2021-12-27 15:03:20.914981,1159
2021-12-27 15:03:21.158212,4510
2021-12-27 15:03:21.158223,4947
2021-12-27 15:03:21.158228,-8899
2021-12-27 15:03:21.158232,-14690
2021-12-27 15:03:21.158237,-444
2021-12-27 15:03:21.158245,1479
2021-12-27 15:03:21.158250,-2759
2021-12-27 15:03:21.158254,-7506
2021-12-27 15:03:21.158258,-7827
2021-12-27 15:03:21.158267,-4975
2021-12-27 15:03:21.158271,-10564
2021-12-27 15:03:21.158275,-9622
2021-12-27 15:03:21.158279,826
2021-12-27 15:03:21.158286,3898
2021-12-27 15:03:21.158290,4500
2021-12-27 15:03:21.158295,1754
2021-12-27 15:03:21.158299,664
2021-12-27 15:03:21.158303,2928
2021-12-27 15:03:21.158307,2174
2021-12-27 15:03:21.158316,-90
2021-12-27 15:03:21.158322,1852
2021-12-27 15:03:21.403223,1240
2021-12-27 15:03:21.403260,1998
2021-12-27 15:03:21.403270,530
2021-12-27 15:03:21.403280,1965
2021-12-27 15:03:21.403289,-5732
2021-12-27 15:03:21.403298,-10897
2021-12-27 15:03:21.403308,-287
2021-12-27 15:03:21.403322,120
2021-12-27 15:03:21.403331,576
2021-12-27 15:03:21.403341,3762
2021-12-27 15:03:21.403350,-10140
2021-12-27 15:03:21.403359,-4672
2021-12-27 15:03:21.403373,412
2021-12-27 15:03:21.403383,-370
2021-12-27 15:03:21.403392,-4801
2021-12-27 15:03:21.403401,-10710
2021-12-27 15:03:21.403411,192
2021-12-27 15:03:21.403420,4077
2021-12-27 15:03:21.403430,1426
2021-12-27 15:03:21.403439,3489
2021-12-27 15:03:21.403453,4088
2021-12-27 15:03:21.403463,-1863
2021-12-27 15:03:21.403472,1831
2021-12-27 15:03:21.403481,4299
2021-12-27 15:03:21.403490,2180
2021-12-27 15:03:21.646335,-1977
2021-12-27 15:03:21.646365,-17855
2021-12-27 15:03:21.646377,-10543
2021-12-27 15:03:21.646387,2116
2021-12-27 15:03:21.646402,4574
2021-12-27 15:03:21.646412,405
2021-12-27 15:03:21.646421,-7056
2021-12-27 15:03:21.646431,-12798
2021-12-27 15:03:21.646441,743
2021-12-27 15:03:21.646455,2979
2021-12-27 15:03:21.646470,-3257
2021-12-27 15:03:21.646479,-14836
2021-12-27 15:03:21.646489,-3977
2021-12-27 15:03:21.646509,1203
2021-12-27 15:03:21.646518,-10566
2021-12-27 15:03:21.646528,-12696
2021-12-27 15:03:21.646538,-3148
2021-12-27 15:03:21.646557,2986
2021-12-27 15:03:21.646572,-798
2021-12-27 15:03:21.646581,-4783
2021-12-27 15:03:21.841120,-2681
2021-12-27 15:03:21.841135,-4609
2021-12-27 15:03:21.841142,2067
2021-12-27 15:03:21.841155,2521
2021-12-27 15:03:21.841161,-1222
2021-12-27 15:03:21.841167,-14074
2021-12-27 15:03:21.841173,-6545
2021-12-27 15:03:21.841186,3289
2021-12-27 15:03:21.841192,840
2021-12-27 15:03:21.841198,-14708
2021-12-27 15:03:21.841205,-10092
2021-12-27 15:03:21.841217,3702
2021-12-27 15:03:21.841224,-2032
2021-12-27 15:03:21.841230,-6538
2021-12-27 15:03:21.841236,-6533
2021-12-27 15:03:21.841249,2062
2021-12-27 15:03:21.841255,3058
2021-12-27 15:03:21.841261,601
2021-12-27 15:03:21.841267,-3419
2021-12-27 15:03:21.841273,4956
2021-12-27 15:03:22.085071,3776
2021-12-27 15:03:22.085085,-5345
2021-12-27 15:03:22.085092,-11145
2021-12-27 15:03:22.085098,-9805
2021-12-27 15:03:22.085104,-7008
2021-12-27 15:03:22.085110,-13333
2021-12-27 15:03:22.085116,-11812
2021-12-27 15:03:22.085123,4077
2021-12-27 15:03:22.085129,-2023
2021-12-27 15:03:22.085135,-11895
2021-12-27 15:03:22.085141,3340
2021-12-27 15:03:22.085150,1245
2021-12-27 15:03:22.085160,750
2021-12-27 15:03:22.085166,1113
2021-12-27 15:03:22.085172,1548
2021-12-27 15:03:22.085178,1502
2021-12-27 15:03:22.085191,-840
2021-12-27 15:03:22.085197,2074
2021-12-27 15:03:22.085204,-1877
2021-12-27 15:03:22.085210,-5834
2021-12-27 15:03:22.085219,4822
2021-12-27 15:03:22.085225,-1002
2021-12-27 15:03:22.085232,4704
2021-12-27 15:03:22.085238,2757
2021-12-27 15:03:22.329020,1000
2021-12-27 15:03:22.329050,3401
2021-12-27 15:03:22.329061,3394
2021-12-27 15:03:22.329071,1618
2021-12-27 15:03:22.329081,1782
2021-12-27 15:03:22.329090,1303
2021-12-27 15:03:22.329100,-10059
2021-12-27 15:03:22.329109,-7121
2021-12-27 15:03:22.329124,1905
2021-12-27 15:03:22.329134,1222
2021-12-27 15:03:22.329148,-9247
2021-12-27 15:03:22.329158,-9578
2021-12-27 15:03:22.329167,3109
2021-12-27 15:03:22.329176,4021
2021-12-27 15:03:22.329186,3130
2021-12-27 15:03:22.329195,4135
2021-12-27 15:03:22.329205,3384
2021-12-27 15:03:22.329214,-1208
2021-12-27 15:03:22.329224,-576
2021-12-27 15:03:22.329233,4750
2021-12-27 15:03:22.329243,2970
2021-12-27 15:03:22.329257,4785
2021-12-27 15:03:22.329267,-7645
2021-12-27 15:03:22.329276,-6758
2021-12-27 15:03:22.329286,1289
2021-12-27 15:03:22.524454,2343
2021-12-27 15:03:22.524485,1074
2021-12-27 15:03:22.524496,-1467
2021-12-27 15:03:22.524505,-1326
2021-12-27 15:03:22.524525,3688
2021-12-27 15:03:22.524535,-2426
2021-12-27 15:03:22.524544,-14607
2021-12-27 15:03:22.524553,-4568
2021-12-27 15:03:22.524568,3961
2021-12-27 15:03:22.524577,-5644
2021-12-27 15:03:22.524587,-18966
2021-12-27 15:03:22.524596,-18966
2021-12-27 15:03:22.524605,-6566
2021-12-27 15:03:22.524625,3107
2021-12-27 15:03:22.524634,4086
2021-12-27 15:03:22.524644,-280
2021-12-27 15:03:22.524653,-6892
2021-12-27 15:03:22.524673,3171
2021-12-27 15:03:22.524687,-1805
2021-12-27 15:03:22.524697,-10629
2021-12-27 15:03:22.524706,-6019
2021-12-27 15:03:22.864451,1792
2021-12-27 15:03:22.864474,-4945
2021-12-27 15:03:22.864484,-12817
2021-12-27 15:03:22.864494,-5987
2021-12-27 15:03:22.864514,4086
2021-12-27 15:03:22.864528,-9587
2021-12-27 15:03:22.864538,-8596
2021-12-27 15:03:22.864562,3824
2021-12-27 15:03:22.864572,287
2021-12-27 15:03:22.864581,909
2021-12-27 15:03:22.864606,3544
2021-12-27 15:03:22.864615,3709
2021-12-27 15:03:22.864625,-175
2021-12-27 15:03:22.864654,3176
2021-12-27 15:03:22.864664,3072
2021-12-27 15:03:22.864673,69
2021-12-27 15:03:23.011415,-4026
2021-12-27 15:03:23.011445,-1928
2021-12-27 15:03:23.011452,-3002
2021-12-27 15:03:23.011458,-8061
2021-12-27 15:03:23.011464,1599
2021-12-27 15:03:23.011474,2715
2021-12-27 15:03:23.011480,2062
2021-12-27 15:03:23.011486,-1382
2021-12-27 15:03:23.011492,-10166
2021-12-27 15:03:23.011498,-4375
2021-12-27 15:03:23.011511,-18
2021-12-27 15:03:23.011524,-12451
2021-12-27 15:03:23.011530,-11057
2021-12-27 15:03:23.011543,3570
2021-12-27 15:03:23.011549,3178
2021-12-27 15:03:23.011555,1958
2021-12-27 15:03:23.011565,4102
2021-12-27 15:03:23.011571,4102
2021-12-27 15:03:23.255396,-5711
2021-12-27 15:03:23.255419,-6880
2021-12-27 15:03:23.255430,1738
2021-12-27 15:03:23.255450,-7432
2021-12-27 15:03:23.255459,-9712
2021-12-27 15:03:23.255469,3558
2021-12-27 15:03:23.255479,4144
2021-12-27 15:03:23.255488,4598
2021-12-27 15:03:23.255503,-3653
2021-12-27 15:03:23.255512,-10291
2021-12-27 15:03:23.255522,-3544
2021-12-27 15:03:23.255541,4445
2021-12-27 15:03:23.255556,-333
2021-12-27 15:03:23.255565,-1315
2021-12-27 15:03:23.255575,4593
2021-12-27 15:03:23.255584,4459
2021-12-27 15:03:23.255604,178
2021-12-27 15:03:23.255614,347
2021-12-27 15:03:23.255623,400
2021-12-27 15:03:23.449728,4269
2021-12-27 15:03:23.449743,4489
2021-12-27 15:03:23.449748,-6630
2021-12-27 15:03:23.449753,-14824
2021-12-27 15:03:23.449757,-5139
2021-12-27 15:03:23.449766,-3026
2021-12-27 15:03:23.449770,-16542
2021-12-27 15:03:23.449775,-9712
2021-12-27 15:03:23.449783,4730
2021-12-27 15:03:23.449788,1264
2021-12-27 15:03:23.449792,-6128
2021-12-27 15:03:23.449796,-14613
2021-12-27 15:03:23.449800,2322
2021-12-27 15:03:23.449807,2595
2021-12-27 15:03:23.449813,2310
2021-12-27 15:03:23.449817,-6241
2021-12-27 15:03:23.449822,3257
2021-12-27 15:03:23.449826,451
2021-12-27 15:03:23.449830,-15716
2021-12-27 15:03:23.449834,-11492
2021-12-27 15:03:23.449839,2155
2021-12-27 15:03:23.449843,-794
2021-12-27 15:03:23.449847,-3945
2021-12-27 15:03:23.693937,2109
2021-12-27 15:03:23.693957,2583
2021-12-27 15:03:23.693968,-8367
2021-12-27 15:03:23.693978,-15713
2021-12-27 15:03:23.693987,-6850
2021-12-27 15:03:23.693997,-3674
2021-12-27 15:03:23.694006,4267
2021-12-27 15:03:23.694021,-10870
2021-12-27 15:03:23.694030,-12516
2021-12-27 15:03:23.694040,1386
2021-12-27 15:03:23.694059,497
2021-12-27 15:03:23.694069,1942
2021-12-27 15:03:23.694078,-613
2021-12-27 15:03:23.694088,1817
2021-12-27 15:03:23.694108,3454
2021-12-27 15:03:23.694117,2204
2021-12-27 15:03:23.694126,-972
2021-12-27 15:03:23.694136,3595
2021-12-27 15:03:23.694161,-23
2021-12-27 15:03:23.694170,3104
2021-12-27 15:03:23.694180,2148
2021-12-27 15:03:23.937900,3007
2021-12-27 15:03:23.937936,1636
2021-12-27 15:03:23.937946,-398
2021-12-27 15:03:23.937956,-655
2021-12-27 15:03:23.937965,-11222
2021-12-27 15:03:23.937975,-8804
2021-12-27 15:03:23.937984,-3901
2021-12-27 15:03:23.937993,-6413
2021-12-27 15:03:23.938003,-1773
2021-12-27 15:03:23.938012,2213
2021-12-27 15:03:23.938022,-5044
2021-12-27 15:03:23.938031,-11006
2021-12-27 15:03:23.938040,3322
2021-12-27 15:03:23.938055,-2227
2021-12-27 15:03:23.938064,3681
2021-12-27 15:03:23.938079,-1956
2021-12-27 15:03:23.938088,3966
2021-12-27 15:03:23.938103,1171
2021-12-27 15:03:23.938117,4190
2021-12-27 15:03:23.938126,1368
2021-12-27 15:03:23.938136,1206
2021-12-27 15:03:23.938145,3403
2021-12-27 15:03:23.938154,4093
2021-12-27 15:03:23.938164,2414
2021-12-27 15:03:23.938173,3234
2021-12-27 15:03:24.182091,-8754
2021-12-27 15:03:24.182111,-13247
2021-12-27 15:03:24.182118,3632
2021-12-27 15:03:24.182125,3604
2021-12-27 15:03:24.182131,1053
2021-12-27 15:03:24.182141,-4320
2021-12-27 15:03:24.182147,-13597
2021-12-27 15:03:24.182153,-7401
2021-12-27 15:03:24.182159,-6971
2021-12-27 15:03:24.182166,-6924
2021-12-27 15:03:24.182172,2940
2021-12-27 15:03:24.182181,-10140
2021-12-27 15:03:24.182188,-11407
2021-12-27 15:03:24.182200,4216
2021-12-27 15:03:24.182210,25
2021-12-27 15:03:24.182216,-2183
2021-12-27 15:03:24.182222,1437
2021-12-27 15:03:24.182235,4378
2021-12-27 15:03:24.182241,3382
2021-12-27 15:03:24.182247,-601
2021-12-27 15:03:24.182254,-2150
2021-12-27 15:03:24.376813,-3891
2021-12-27 15:03:24.376834,-3489
2021-12-27 15:03:24.376859,1025
2021-12-27 15:03:24.376869,-10298
2021-12-27 15:03:24.376879,-15905
2021-12-27 15:03:24.376888,-2736
2021-12-27 15:03:24.376898,2058
2021-12-27 15:03:24.376907,-8668
2021-12-27 15:03:24.376916,1921
2021-12-27 15:03:24.376926,2951
2021-12-27 15:03:24.376935,-15560
2021-12-27 15:03:24.376945,-3322
2021-12-27 15:03:24.376964,4649
2021-12-27 15:03:24.376974,138
2021-12-27 15:03:24.376983,-6216
2021-12-27 15:03:24.376992,-791
2021-12-27 15:03:24.377012,3540
2021-12-27 15:03:24.377021,2192
2021-12-27 15:03:24.377031,-715
2021-12-27 15:03:24.377040,-2861
2021-12-27 15:03:24.620711,3382
2021-12-27 15:03:24.620734,4028
2021-12-27 15:03:24.620745,-9696
2021-12-27 15:03:24.620754,-15542
2021-12-27 15:03:24.620764,-5510
2021-12-27 15:03:24.620773,-10666
2021-12-27 15:03:24.620782,-13792
2021-12-27 15:03:24.620792,-629
2021-12-27 15:03:24.620801,808
2021-12-27 15:03:24.620811,-12175
2021-12-27 15:03:24.620820,-8339
2021-12-27 15:03:24.620835,-2000
2021-12-27 15:03:24.620844,-13613
2021-12-27 15:03:24.620854,-1840
2021-12-27 15:03:24.620863,481
2021-12-27 15:03:24.620873,-483
2021-12-27 15:03:24.620898,442
2021-12-27 15:03:24.620907,1597
2021-12-27 15:03:24.620917,3285
2021-12-27 15:03:24.620926,2308
2021-12-27 15:03:24.620941,4866
2021-12-27 15:03:24.620950,-50
2021-12-27 15:03:24.620965,1650
2021-12-27 15:03:24.911518,2134
2021-12-27 15:03:24.911555,2500
2021-12-27 15:03:24.911565,1386
2021-12-27 15:03:24.911575,1356
2021-12-27 15:03:24.911585,-6466
2021-12-27 15:03:24.911594,-10793
2021-12-27 15:03:24.911604,870
2021-12-27 15:03:24.911618,-351
2021-12-27 15:03:24.911628,1097
2021-12-27 15:03:24.911637,3357
2021-12-27 15:03:24.911647,-10749
2021-12-27 15:03:24.911657,-3016
2021-12-27 15:03:24.911671,-10884
2021-12-27 15:03:24.911681,-9138
2021-12-27 15:03:24.911691,4466
2021-12-27 15:03:24.911700,2336
2021-12-27 15:03:24.911710,-794
2021-12-27 15:03:24.911719,1967
2021-12-27 15:03:24.911729,4669
2021-12-27 15:03:24.911738,3558
2021-12-27 15:03:24.911752,4954
2021-12-27 15:03:24.911762,-1245
2021-12-27 15:03:24.911772,2613
2021-12-27 15:03:24.911781,4442
2021-12-27 15:03:24.911790,2590
2021-12-27 15:03:25.108361,3289
2021-12-27 15:03:25.108393,-1447
2021-12-27 15:03:25.108404,2062
2021-12-27 15:03:25.108414,641
2021-12-27 15:03:25.108423,4975
2021-12-27 15:03:25.108438,-178
2021-12-27 15:03:25.108448,-9080
2021-12-27 15:03:25.108490,-11787
2021-12-27 15:03:25.108499,1884
2021-12-27 15:03:25.108509,4996
2021-12-27 15:03:25.108518,-13289
2021-12-27 15:03:25.108527,-17526
2021-12-27 15:03:25.108537,-10569
2021-12-27 15:03:25.108546,-10272
2021-12-27 15:03:25.108555,-4551
2021-12-27 15:03:25.108565,2662
2021-12-27 15:03:25.108574,-1877
2021-12-27 15:03:25.108583,-7677
2021-12-27 15:03:25.108593,99
2021-12-27 15:03:25.108602,1923
2021-12-27 15:03:25.108612,-4771
2021-12-27 15:03:25.108631,3722
2021-12-27 15:03:25.108646,-1298
2021-12-27 15:03:25.108655,-4294
2021-12-27 15:03:25.302535,-2588
2021-12-27 15:03:25.302549,-4306
2021-12-27 15:03:25.302556,2380
2021-12-27 15:03:25.302569,2901
2021-12-27 15:03:25.302575,-979
2021-12-27 15:03:25.302581,-14099
2021-12-27 15:03:25.302588,-4938
2021-12-27 15:03:25.302601,4294
2021-12-27 15:03:25.302607,13
2021-12-27 15:03:25.302613,-15709
2021-12-27 15:03:25.302620,-9057
2021-12-27 15:03:25.302632,-6045
2021-12-27 15:03:25.302638,-10840
2021-12-27 15:03:25.302645,-2776
2021-12-27 15:03:25.302651,-928
2021-12-27 15:03:25.302657,3986
2021-12-27 15:03:25.302666,4169
2021-12-27 15:03:25.302673,4007
2021-12-27 15:03:25.302679,-13
2021-12-27 15:03:25.302685,-2537
2021-12-27 15:03:25.546090,4111
2021-12-27 15:03:25.546136,-5723
2021-12-27 15:03:25.546143,-11481
2021-12-27 15:03:25.546149,-7962
2021-12-27 15:03:25.546162,-1111
2021-12-27 15:03:25.546169,273
2021-12-27 15:03:25.546175,-3051
2021-12-27 15:03:25.546181,-9103
2021-12-27 15:03:25.546187,3009
2021-12-27 15:03:25.546197,2377
2021-12-27 15:03:25.546203,-1766
2021-12-27 15:03:25.546209,-13576
2021-12-27 15:03:25.546215,-18897
2021-12-27 15:03:25.546221,-3394
2021-12-27 15:03:25.546231,1509
2021-12-27 15:03:25.546237,-13761
2021-12-27 15:03:25.546243,-6857
2021-12-27 15:03:25.546249,1708
2021-12-27 15:03:25.546256,1317
2021-12-27 15:03:25.546262,4676
2021-12-27 15:03:25.546268,2141
2021-12-27 15:03:25.546274,1699
2021-12-27 15:03:25.546291,1713
2021-12-27 15:03:25.790682,2042
2021-12-27 15:03:25.790712,4216
2021-12-27 15:03:25.790724,3882
2021-12-27 15:03:25.790733,1884
2021-12-27 15:03:25.790743,2180
2021-12-27 15:03:25.790752,1303
2021-12-27 15:03:25.790762,-10476
2021-12-27 15:03:25.790771,-5438
2021-12-27 15:03:25.790786,1081
2021-12-27 15:03:25.790796,-761
2021-12-27 15:03:25.790805,-4003
2021-12-27 15:03:25.790815,-18966
2021-12-27 15:03:25.790824,-10585
2021-12-27 15:03:25.790834,3512
2021-12-27 15:03:25.790843,791
2021-12-27 15:03:25.790852,-2118
2021-12-27 15:03:25.790862,-5693
2021-12-27 15:03:25.790871,-7371
2021-12-27 15:03:25.790881,-10411
2021-12-27 15:03:25.790890,-12437
2021-12-27 15:03:25.790900,-4841
2021-12-27 15:03:25.790909,-1743
2021-12-27 15:03:25.790918,-7228
2021-12-27 15:03:25.790928,-12199
2021-12-27 15:03:25.790937,-5702
2021-12-27 15:03:25.790947,2789
2021-12-27 15:03:25.790956,-1849
2021-12-27 15:03:25.790966,1613
2021-12-27 15:03:25.985357,1669
2021-12-27 15:03:25.985387,-722
2021-12-27 15:03:25.985398,-1192
2021-12-27 15:03:25.985408,-599
2021-12-27 15:03:25.985428,4577
2021-12-27 15:03:25.985438,-3035
2021-12-27 15:03:25.985447,-14051
2021-12-27 15:03:25.985457,-2560
2021-12-27 15:03:25.985481,-2870
2021-12-27 15:03:25.985491,-13120
2021-12-27 15:03:25.985500,-8006
2021-12-27 15:03:25.985520,2963
2021-12-27 15:03:25.985535,97
2021-12-27 15:03:25.985544,-18107
2021-12-27 15:03:25.985554,-16693
2021-12-27 15:03:25.985563,432
2021-12-27 15:03:25.985578,-3271
2021-12-27 15:03:25.985588,-15528
2021-12-27 15:03:25.985597,-3947
2021-12-27 15:03:26.229186,-2854
2021-12-27 15:03:26.229202,-13544
2021-12-27 15:03:26.229209,-5051
2021-12-27 15:03:26.229222,3593
2021-12-27 15:03:26.229228,4005
2021-12-27 15:03:26.229235,-12118
2021-12-27 15:03:26.229241,-8675
2021-12-27 15:03:26.229257,2488
2021-12-27 15:03:26.229263,-1069
2021-12-27 15:03:26.229270,-377
2021-12-27 15:03:26.229286,2903
2021-12-27 15:03:26.229292,2400
2021-12-27 15:03:26.229298,-1335
2021-12-27 15:03:26.229314,3885
2021-12-27 15:03:26.229321,-9659
2021-12-27 15:03:26.229327,-12995
2021-12-27 15:03:26.229333,1981
2021-12-27 15:03:26.473188,1873
2021-12-27 15:03:26.473210,-254
2021-12-27 15:03:26.473221,-3711
2021-12-27 15:03:26.473231,-10261
2021-12-27 15:03:26.473240,2854
2021-12-27 15:03:26.473255,1470
2021-12-27 15:03:26.473265,1697
2021-12-27 15:03:26.473275,-2176
2021-12-27 15:03:26.473284,-9487
2021-12-27 15:03:26.473294,-2641
2021-12-27 15:03:26.473314,-493
2021-12-27 15:03:26.473324,3371
2021-12-27 15:03:26.473339,-715
2021-12-27 15:03:26.473359,104
2021-12-27 15:03:26.473373,3722
2021-12-27 15:03:26.473383,581
2021-12-27 15:03:26.473398,-5207
2021-12-27 15:03:26.473407,-18966
2021-12-27 15:03:26.473417,-14049
2021-12-27 15:03:26.473426,-3315
2021-12-27 15:03:26.716622,-9515
2021-12-27 15:03:26.716652,-4540
2021-12-27 15:03:26.716669,1565
2021-12-27 15:03:26.716679,-261
2021-12-27 15:03:26.716694,-7846
2021-12-27 15:03:26.716703,-10041
2021-12-27 15:03:26.716718,4493
2021-12-27 15:03:26.716727,4135
2021-12-27 15:03:26.716742,-3996
2021-12-27 15:03:26.716752,-10166
2021-12-27 15:03:26.716761,-2127
2021-12-27 15:03:26.716776,4466
2021-12-27 15:03:26.716785,4723
2021-12-27 15:03:26.716800,-875
2021-12-27 15:03:26.716809,-453
2021-12-27 15:03:26.716819,4896
2021-12-27 15:03:26.716828,4320
2021-12-27 15:03:26.716848,-62
2021-12-27 15:03:26.716858,571
2021-12-27 15:03:26.716867,856
2021-12-27 15:03:27.007848,3021
2021-12-27 15:03:27.007878,-1173
2021-12-27 15:03:27.007889,-9580
2021-12-27 15:03:27.007900,-2322
2021-12-27 15:03:27.007925,-1372
2021-12-27 15:03:27.007934,-16651
2021-12-27 15:03:27.007944,-13685
2021-12-27 15:03:27.007953,-3817
2021-12-27 15:03:27.007963,2046
2021-12-27 15:03:27.007972,3148
2021-12-27 15:03:27.007982,23
2021-12-27 15:03:27.007991,-10814
2021-12-27 15:03:27.008001,-18966
2021-12-27 15:03:27.008011,-8858
2021-12-27 15:03:27.008021,2852
2021-12-27 15:03:27.008030,-6892
2021-12-27 15:03:27.008040,-8091
2021-12-27 15:03:27.008049,-6524
2021-12-27 15:03:27.008059,-8221
2021-12-27 15:03:27.008068,-252
2021-12-27 15:03:27.008078,4621
2021-12-27 15:03:27.008093,3076
2021-12-27 15:03:27.008102,-2857
2021-12-27 15:03:27.008112,-5443
2021-12-27 15:03:27.008122,-1504
2021-12-27 15:03:27.203589,541
2021-12-27 15:03:27.203603,-7117
2021-12-27 15:03:27.203610,-18966
2021-12-27 15:03:27.203616,-13984
2021-12-27 15:03:27.203629,3412
2021-12-27 15:03:27.203636,3653
2021-12-27 15:03:27.203642,-10377
2021-12-27 15:03:27.203648,-13509
2021-12-27 15:03:27.203654,1442
2021-12-27 15:03:27.203667,131
2021-12-27 15:03:27.203673,-1731
2021-12-27 15:03:27.203679,-11004
2021-12-27 15:03:27.203685,-4195
2021-12-27 15:03:27.203698,2757
2021-12-27 15:03:27.203704,2495
2021-12-27 15:03:27.203710,-437
2021-12-27 15:03:27.203716,3873
2021-12-27 15:03:27.203732,676
2021-12-27 15:03:27.203738,3361
2021-12-27 15:03:27.203745,1632
2021-12-27 15:03:27.448319,4172
2021-12-27 15:03:27.448345,2083
2021-12-27 15:03:27.448352,1034
2021-12-27 15:03:27.448358,4535
2021-12-27 15:03:27.448364,-2486
2021-12-27 15:03:27.448371,-4285
2021-12-27 15:03:27.448377,3195
2021-12-27 15:03:27.448386,1930
2021-12-27 15:03:27.448393,-1203
2021-12-27 15:03:27.448399,-4387
2021-12-27 15:03:27.448405,-9423
2021-12-27 15:03:27.448411,3831
2021-12-27 15:03:27.448421,-1585
2021-12-27 15:03:27.448427,3868
2021-12-27 15:03:27.448433,2199
2021-12-27 15:03:27.448439,-10279
2021-12-27 15:03:27.448445,1021
2021-12-27 15:03:27.448455,1414
2021-12-27 15:03:27.448461,4408
2021-12-27 15:03:27.448467,4725
2021-12-27 15:03:27.448473,1660
2021-12-27 15:03:27.448479,1245
2021-12-27 15:03:27.448486,4609
2021-12-27 15:03:27.448492,3371
2021-12-27 15:03:27.448498,-4586
2021-12-27 15:03:27.448504,-3491
2021-12-27 15:03:27.691811,-1384
2021-12-27 15:03:27.691832,-1014
2021-12-27 15:03:27.691840,2720
2021-12-27 15:03:27.691846,-2694
2021-12-27 15:03:27.691852,-6031
2021-12-27 15:03:27.691858,-2840
2021-12-27 15:03:27.691865,-5193
2021-12-27 15:03:27.691871,-16424
2021-12-27 15:03:27.691877,-18966
2021-12-27 15:03:27.691883,-18966
2021-12-27 15:03:27.691889,-495
2021-12-27 15:03:27.691896,-118
2021-12-27 15:03:27.691902,-6149
2021-12-27 15:03:27.691908,-14338
2021-12-27 15:03:27.691914,-13937
2021-12-27 15:03:27.691920,-1653
2021-12-27 15:03:27.691927,588
2021-12-27 15:03:27.691933,2134
2021-12-27 15:03:27.691939,1102
2021-12-27 15:03:27.691945,-12907
2021-12-27 15:03:27.691951,-14387
2021-12-27 15:03:27.691957,-2312
2021-12-27 15:03:27.691967,4695
2021-12-27 15:03:27.691973,1252
2021-12-27 15:03:27.691980,1477
2021-12-27 15:03:27.691986,-3843
2021-12-27 15:03:27.691992,-3815
2021-12-27 15:03:27.692001,4899
2021-12-27 15:03:27.838003,3711
2021-12-27 15:03:27.838034,4026
2021-12-27 15:03:27.838045,-5575
2021-12-27 15:03:27.838055,-4074
2021-12-27 15:03:27.838065,4123
2021-12-27 15:03:27.838085,3125
2021-12-27 15:03:27.838095,2278
2021-12-27 15:03:27.838104,-6818
2021-12-27 15:03:27.838114,-9154
2021-12-27 15:03:27.838133,2465
2021-12-27 15:03:27.838143,-3322
2021-12-27 15:03:27.838152,-13041
2021-12-27 15:03:27.838162,-1331
2021-12-27 15:03:27.838176,4699
2021-12-27 15:03:27.838186,4732
2021-12-27 15:03:27.838196,-4774
2021-12-27 15:03:27.838206,-15695
2021-12-27 15:03:27.838215,-7017
2021-12-27 15:03:27.838235,1229
2021-12-27 15:03:27.838244,1648
2021-12-27 15:03:27.838254,-1954
2021-12-27 15:03:27.838263,-4086
2021-12-27 15:03:28.081767,2752
2021-12-27 15:03:28.081791,3324
2021-12-27 15:03:28.081801,-10849
2021-12-27 15:03:28.081811,-15033
2021-12-27 15:03:28.081820,965
2021-12-27 15:03:28.081840,-53
2021-12-27 15:03:28.081850,-4320
2021-12-27 15:03:28.081859,-11831
2021-12-27 15:03:28.081869,-16077
2021-12-27 15:03:28.081878,-4260
2021-12-27 15:03:28.081887,-3398
2021-12-27 15:03:28.081897,-18966
2021-12-27 15:03:28.081906,-17038
2021-12-27 15:03:28.081915,-157
2021-12-27 15:03:28.081930,2514
2021-12-27 15:03:28.081950,-537
2021-12-27 15:03:28.081959,588
2021-12-27 15:03:28.081969,3720
2021-12-27 15:03:28.081978,2639
2021-12-27 15:03:28.081993,4209
2021-12-27 15:03:28.082002,-18
2021-12-27 15:03:28.082012,4586
2021-12-27 15:03:28.082021,1099
2021-12-27 15:03:28.325397,2822
2021-12-27 15:03:28.325440,1873
2021-12-27 15:03:28.325451,1037
2021-12-27 15:03:28.325460,208
2021-12-27 15:03:28.325470,-7362
2021-12-27 15:03:28.325480,-10140
2021-12-27 15:03:28.325490,2090
2021-12-27 15:03:28.325504,-435
2021-12-27 15:03:28.325514,3556
2021-12-27 15:03:28.325529,-10631
2021-12-27 15:03:28.325538,-8228
2021-12-27 15:03:28.325548,-1315
2021-12-27 15:03:28.325557,67
2021-12-27 15:03:28.325577,1291
2021-12-27 15:03:28.325616,1352
2021-12-27 15:03:28.325636,4667
2021-12-27 15:03:28.569128,4882
2021-12-27 15:03:28.569159,1129
2021-12-27 15:03:28.569176,3026
2021-12-27 15:03:28.569195,958
2021-12-27 15:03:28.569205,-7804
2021-12-27 15:03:28.569215,-8429
2021-12-27 15:03:28.569234,4834
2021-12-27 15:03:28.569248,-4771
2021-12-27 15:03:28.569258,-14016
2021-12-27 15:03:28.569267,-7895
2021-12-27 15:03:28.569277,-3755
2021-12-27 15:03:28.569297,-7404
2021-12-27 15:03:28.569306,-18575
2021-12-27 15:03:28.569315,-7445
2021-12-27 15:03:28.569335,2312
2021-12-27 15:03:28.569349,-1687
2021-12-27 15:03:28.569359,-2958
2021-12-27 15:03:28.764195,-1403
2021-12-27 15:03:28.764216,-2625
2021-12-27 15:03:28.764227,3878
2021-12-27 15:03:28.764247,3806
2021-12-27 15:03:28.764256,-849
2021-12-27 15:03:28.764266,-13458
2021-12-27 15:03:28.764276,-2069
2021-12-27 15:03:28.764300,48
2021-12-27 15:03:28.764309,-15378
2021-12-27 15:03:28.764319,-8038
2021-12-27 15:03:28.764328,74
2021-12-27 15:03:28.764338,-3375
2021-12-27 15:03:28.764347,1120
2021-12-27 15:03:28.764356,4558
2021-12-27 15:03:28.764366,-1620
2021-12-27 15:03:28.764375,-3377
2021-12-27 15:03:28.764395,3218
2021-12-27 15:03:28.764409,784
2021-12-27 15:03:28.764419,-2109
2021-12-27 15:03:29.055868,4764
2021-12-27 15:03:29.055890,-5716
2021-12-27 15:03:29.055900,-11437
2021-12-27 15:03:29.055909,-5961
2021-12-27 15:03:29.055929,-298
2021-12-27 15:03:29.055938,1430
2021-12-27 15:03:29.055948,-3611
2021-12-27 15:03:29.055957,-8177
2021-12-27 15:03:29.055976,2495
2021-12-27 15:03:29.055986,490
2021-12-27 15:03:29.055995,463
2021-12-27 15:03:29.056004,2535
2021-12-27 15:03:29.056014,1011
2021-12-27 15:03:29.056023,-2602
2021-12-27 15:03:29.056033,-7695
2021-12-27 15:03:29.056042,-3725
2021-12-27 15:03:29.056056,1798
2021-12-27 15:03:29.056066,-472
2021-12-27 15:03:29.056075,2069
2021-12-27 15:03:29.056085,-14829
2021-12-27 15:03:29.056094,-12845
2021-12-27 15:03:29.056109,3966
2021-12-27 15:03:29.251452,-738
2021-12-27 15:03:29.251475,4804
2021-12-27 15:03:29.251487,1201
2021-12-27 15:03:29.251493,1923
2021-12-27 15:03:29.251499,1456
2021-12-27 15:03:29.251506,-10481
2021-12-27 15:03:29.251512,-3477
2021-12-27 15:03:29.251521,750
2021-12-27 15:03:29.251528,2801
2021-12-27 15:03:29.251534,4392
2021-12-27 15:03:29.251540,-11803
2021-12-27 15:03:29.251546,-7617
2021-12-27 15:03:29.251556,4445
2021-12-27 15:03:29.251562,3546
2021-12-27 15:03:29.251571,4352
2021-12-27 15:03:29.251578,-254
2021-12-27 15:03:29.251584,238
2021-12-27 15:03:29.251590,-3220
2021-12-27 15:03:29.251597,-9487
2021-12-27 15:03:29.251603,4135
2021-12-27 15:03:29.251613,-3299
2021-12-27 15:03:29.251619,1692
2021-12-27 15:03:29.251625,4308
2021-12-27 15:03:29.251631,4456
2021-12-27 15:03:29.446874,3584
2021-12-27 15:03:29.446905,1308
2021-12-27 15:03:29.446916,-634
2021-12-27 15:03:29.446926,333
2021-12-27 15:03:29.446946,4646
2021-12-27 15:03:29.446955,-4044
2021-12-27 15:03:29.446964,-13734
2021-12-27 15:03:29.446974,-988
2021-12-27 15:03:29.446998,-4128
2021-12-27 15:03:29.447008,-13863
2021-12-27 15:03:29.447017,-7228
2021-12-27 15:03:29.447036,2479
2021-12-27 15:03:29.447046,4699
2021-12-27 15:03:29.447055,-592
2021-12-27 15:03:29.447064,-6522
2021-12-27 15:03:29.447074,4808
2021-12-27 15:03:29.447083,-50
2021-12-27 15:03:29.447093,-8571
2021-12-27 15:03:29.447102,2116
2021-12-27 15:03:29.447111,391
2021-12-27 15:03:29.447121,-5281
2021-12-27 15:03:29.447130,2715
2021-12-27 15:03:29.690828,-11180
2021-12-27 15:03:29.690850,-18966
2021-12-27 15:03:29.690861,-18966
2021-12-27 15:03:29.690871,-509
2021-12-27 15:03:29.690885,2620
2021-12-27 15:03:29.690900,2720
2021-12-27 15:03:29.690909,-14993
2021-12-27 15:03:29.690935,-7668
2021-12-27 15:03:29.690961,1766
2021-12-27 15:03:29.690970,-2546
2021-12-27 15:03:29.690980,-1375
2021-12-27 15:03:29.691000,4556
2021-12-27 15:03:29.691009,2393
2021-12-27 15:03:29.691019,1354
2021-12-27 15:03:29.691028,-2317
2021-12-27 15:03:29.691048,-4771
2021-12-27 15:03:29.691057,-8561
2021-12-27 15:03:29.691067,-4410
2021-12-27 15:03:29.691076,2002
2021-12-27 15:03:29.691086,2819
2021-12-27 15:03:29.934124,4206
2021-12-27 15:03:29.934160,2451
2021-12-27 15:03:29.934171,-2560
2021-12-27 15:03:29.934195,-4982
2021-12-27 15:03:29.934202,-10001
2021-12-27 15:03:29.934208,3280
2021-12-27 15:03:29.934217,388
2021-12-27 15:03:29.934223,296
2021-12-27 15:03:29.934229,-4067
2021-12-27 15:03:29.934235,-9964
2021-12-27 15:03:29.934241,-1690
2021-12-27 15:03:29.934254,-1051
2021-12-27 15:03:29.934260,2850
2021-12-27 15:03:29.934266,4109
2021-12-27 15:03:29.934272,-861
2021-12-27 15:03:29.934285,-372
2021-12-27 15:03:29.934294,2778
2021-12-27 15:03:29.934300,259
2021-12-27 15:03:29.934310,2178
2021-12-27 15:03:29.934316,-6438
2021-12-27 15:03:29.934322,-9504
2021-12-27 15:03:29.934328,210
2021-12-27 15:03:30.178208,3922
2021-12-27 15:03:30.178238,-280
2021-12-27 15:03:30.178250,4361
2021-12-27 15:03:30.178259,2419
2021-12-27 15:03:30.178269,2007
2021-12-27 15:03:30.178284,-10673
2021-12-27 15:03:30.178293,-18966
2021-12-27 15:03:30.178303,-17922
2021-12-27 15:03:30.178312,-2690
2021-12-27 15:03:30.178327,2303
2021-12-27 15:03:30.178336,-7978
2021-12-27 15:03:30.178346,-8666
2021-12-27 15:03:30.178355,-1310
2021-12-27 15:03:30.178369,3894
2021-12-27 15:03:30.178379,4919
2021-12-27 15:03:30.178393,-1653
2021-12-27 15:03:30.178403,74
2021-12-27 15:03:30.178412,4695
2021-12-27 15:03:30.178421,3639
2021-12-27 15:03:30.178436,4866
2021-12-27 15:03:30.178445,-402
2021-12-27 15:03:30.178455,974
2021-12-27 15:03:30.178464,1053
2021-12-27 15:03:30.178478,-599
2021-12-27 15:03:30.372289,-8420
2021-12-27 15:03:30.372309,-870
2021-12-27 15:03:30.372316,-1514
2021-12-27 15:03:30.372323,-1859
2021-12-27 15:03:30.372339,-3699
2021-12-27 15:03:30.372346,-16533
2021-12-27 15:03:30.372352,-7473
2021-12-27 15:03:30.372365,4125
2021-12-27 15:03:30.372371,150
2021-12-27 15:03:30.372377,-9078
2021-12-27 15:03:30.372383,-14287
2021-12-27 15:03:30.372390,4980
2021-12-27 15:03:30.372399,1838
2021-12-27 15:03:30.372408,472
2021-12-27 15:03:30.372415,-7043
2021-12-27 15:03:30.372421,4172
2021-12-27 15:03:30.372437,-314
2021-12-27 15:03:30.372443,-3255
2021-12-27 15:03:30.372450,481
2021-12-27 15:03:30.616777,-6248
2021-12-27 15:03:30.616799,-12388
2021-12-27 15:03:30.616810,-15639
2021-12-27 15:03:30.616820,-6876
2021-12-27 15:03:30.616844,2461
2021-12-27 15:03:30.616854,-11701
2021-12-27 15:03:30.616864,-12057
2021-12-27 15:03:30.616873,2542
2021-12-27 15:03:30.616888,-4000
2021-12-27 15:03:30.616897,-18966
2021-12-27 15:03:30.616907,-12972
2021-12-27 15:03:30.616916,-662
2021-12-27 15:03:30.616926,4035
2021-12-27 15:03:30.616940,4827
2021-12-27 15:03:30.616950,4799
2021-12-27 15:03:30.616960,652
2021-12-27 15:03:30.616969,-2076
2021-12-27 15:03:30.616979,4667
2021-12-27 15:03:30.617003,-81
2021-12-27 15:03:30.617013,2375
2021-12-27 15:03:30.617022,1634
2021-12-27 15:03:30.860836,4271
2021-12-27 15:03:30.860873,-173
2021-12-27 15:03:30.860884,-8726
2021-12-27 15:03:30.860894,-15945
2021-12-27 15:03:30.860903,-15697
2021-12-27 15:03:30.860912,-134
2021-12-27 15:03:30.860927,2945
2021-12-27 15:03:30.860936,990
2021-12-27 15:03:30.860945,-905
2021-12-27 15:03:30.860955,-6214
2021-12-27 15:03:30.860964,-8640
2021-12-27 15:03:30.860984,-2278
2021-12-27 15:03:30.860993,4357
2021-12-27 15:03:30.861008,-1812
2021-12-27 15:03:30.861028,821
2021-12-27 15:03:30.861042,3762
2021-12-27 15:03:30.861052,1463
2021-12-27 15:03:30.861061,2095
2021-12-27 15:03:30.861071,4135
2021-12-27 15:03:30.861080,3602
2021-12-27 15:03:30.861089,2403
2021-12-27 15:03:31.151777,2393
2021-12-27 15:03:31.151807,-1048
2021-12-27 15:03:31.151824,981
2021-12-27 15:03:31.151834,1836
2021-12-27 15:03:31.151843,-525
2021-12-27 15:03:31.151853,-18966
2021-12-27 15:03:31.151862,-17079
2021-12-27 15:03:31.151871,796
2021-12-27 15:03:31.151881,4051
2021-12-27 15:03:31.151890,2924
2021-12-27 15:03:31.151900,4549
2021-12-27 15:03:31.151909,1171
2021-12-27 15:03:31.151919,-10895
2021-12-27 15:03:31.151928,-8307
2021-12-27 15:03:31.151943,4415
2021-12-27 15:03:31.151952,4709
2021-12-27 15:03:31.151967,-11430
2021-12-27 15:03:31.151976,-18820
2021-12-27 15:03:31.151986,-3493
2021-12-27 15:03:31.152005,1859
2021-12-27 15:03:31.152015,3519
2021-12-27 15:03:31.152024,-1748
2021-12-27 15:03:31.152034,-2229
2021-12-27 15:03:31.348051,-4174
2021-12-27 15:03:31.348073,-2396
2021-12-27 15:03:31.348099,-9170
2021-12-27 15:03:31.348109,-18966
2021-12-27 15:03:31.348118,-17984
2021-12-27 15:03:31.348138,930
2021-12-27 15:03:31.348147,4637
2021-12-27 15:03:31.348157,-613
2021-12-27 15:03:31.348166,-14542
2021-12-27 15:03:31.348176,259
2021-12-27 15:03:31.348190,4667
2021-12-27 15:03:31.348205,-4190
2021-12-27 15:03:31.348214,-13768
2021-12-27 15:03:31.348224,-3880
2021-12-27 15:03:31.348243,159
2021-12-27 15:03:31.348253,-5732
2021-12-27 15:03:31.348263,-14651
2021-12-27 15:03:31.348272,-11863
2021-12-27 15:03:31.348282,-1465
2021-12-27 15:03:31.591800,-5730
2021-12-27 15:03:31.591821,-2234
2021-12-27 15:03:31.591829,1988
2021-12-27 15:03:31.591835,-16547
2021-12-27 15:03:31.591842,-18563
2021-12-27 15:03:31.591848,1097
2021-12-27 15:03:31.591858,3188
2021-12-27 15:03:31.591864,-1868
2021-12-27 15:03:31.591870,-7853
2021-12-27 15:03:31.591877,-9379
2021-12-27 15:03:31.591883,-25
2021-12-27 15:03:31.591893,3917
2021-12-27 15:03:31.591899,-81
2021-12-27 15:03:31.591905,-275
2021-12-27 15:03:31.591912,-11242
2021-12-27 15:03:31.591918,-7989
2021-12-27 15:03:31.591931,2917
2021-12-27 15:03:31.591937,-495
2021-12-27 15:03:31.591943,928
2021-12-27 15:03:31.591950,1486
2021-12-27 15:03:31.591956,-7682
2021-12-27 15:03:31.591962,-16035
2021-12-27 15:03:31.591968,-11773
2021-12-27 15:03:31.591975,3637
2021-12-27 15:03:31.591984,-2583
2021-12-27 15:03:31.835524,4528
2021-12-27 15:03:31.835549,1574
2021-12-27 15:03:31.835556,2069
2021-12-27 15:03:31.835562,1187
2021-12-27 15:03:31.835569,-7966
2021-12-27 15:03:31.835575,-8691
2021-12-27 15:03:31.835581,4480
2021-12-27 15:03:31.835591,-185
2021-12-27 15:03:31.835597,2660
2021-12-27 15:03:31.835603,4818
2021-12-27 15:03:31.835609,-6779
2021-12-27 15:03:31.835616,1761
2021-12-27 15:03:31.835625,590
2021-12-27 15:03:31.835635,1458
2021-12-27 15:03:31.835641,-10462
2021-12-27 15:03:31.835647,-3426
2021-12-27 15:03:31.835657,4644
2021-12-27 15:03:31.835663,2868
2021-12-27 15:03:31.835672,4598
2021-12-27 15:03:31.835678,-1210
2021-12-27 15:03:31.835685,4811
2021-12-27 15:03:31.835694,2977
2021-12-27 15:03:32.079730,3496
2021-12-27 15:03:32.079760,-321
2021-12-27 15:03:32.079772,3718
2021-12-27 15:03:32.079782,1291
2021-12-27 15:03:32.079802,-1743
2021-12-27 15:03:32.079811,-10821
2021-12-27 15:03:32.079821,-8716
2021-12-27 15:03:32.079830,4926
2021-12-27 15:03:32.079845,3729
2021-12-27 15:03:32.079860,-1391
2021-12-27 15:03:32.079869,-11645
2021-12-27 15:03:32.079879,-3116
2021-12-27 15:03:32.079898,3688
2021-12-27 15:03:32.079908,-5700
2021-12-27 15:03:32.079917,-11682
2021-12-27 15:03:32.079927,-5146
2021-12-27 15:03:32.079946,2613
2021-12-27 15:03:32.079956,2859
2021-12-27 15:03:32.079966,-11356
2021-12-27 15:03:32.079975,-11196
2021-12-27 15:03:32.225551,-808
2021-12-27 15:03:32.225581,-16857
2021-12-27 15:03:32.225592,-18966
2021-12-27 15:03:32.225602,-15810
2021-12-27 15:03:32.225611,-2403
2021-12-27 15:03:32.225621,-5426
2021-12-27 15:03:32.225630,-2229
2021-12-27 15:03:32.225640,3264
2021-12-27 15:03:32.225649,-5903
2021-12-27 15:03:32.225659,-18221
2021-12-27 15:03:32.225668,-2678
2021-12-27 15:03:32.225683,1773
2021-12-27 15:03:32.225693,3868
2021-12-27 15:03:32.225702,3676
2021-12-27 15:03:32.225712,-9089
2021-12-27 15:03:32.225721,-9450
2021-12-27 15:03:32.225731,1724
2021-12-27 15:03:32.225750,-3324
2021-12-27 15:03:32.225760,-10069
2021-12-27 15:03:32.225769,-10624
2021-12-27 15:03:32.225789,2104
2021-12-27 15:03:32.225798,4033
2021-12-27 15:03:32.225808,111
2021-12-27 15:03:32.225817,-3083
2021-12-27 15:03:32.469610,4514
2021-12-27 15:03:32.469633,-6936
2021-12-27 15:03:32.469643,-12217
2021-12-27 15:03:32.469652,-4095
2021-12-27 15:03:32.469672,60
2021-12-27 15:03:32.469682,1210
2021-12-27 15:03:32.469691,-4658
2021-12-27 15:03:32.469701,-7425
2021-12-27 15:03:32.469720,2945
2021-12-27 15:03:32.469729,2787
2021-12-27 15:03:32.469739,4568
2021-12-27 15:03:32.469748,2836
2021-12-27 15:03:32.469757,-5950
2021-12-27 15:03:32.469767,1537
2021-12-27 15:03:32.469782,324
2021-12-27 15:03:32.469791,-398
2021-12-27 15:03:32.469800,-4963
2021-12-27 15:03:32.469810,-5802
2021-12-27 15:03:32.469825,3320
2021-12-27 15:03:32.469834,-1396
2021-12-27 15:03:32.469843,-423
2021-12-27 15:03:32.469853,-9024
2021-12-27 15:03:32.713055,-7346
2021-12-27 15:03:32.713084,-3012
2021-12-27 15:03:32.713096,-8925
2021-12-27 15:03:32.713106,-7668
2021-12-27 15:03:32.713115,-175
2021-12-27 15:03:32.713125,-4970
2021-12-27 15:03:32.713134,-18966
2021-12-27 15:03:32.713144,-18966
2021-12-27 15:03:32.713153,-9819
2021-12-27 15:03:32.713163,-2132
2021-12-27 15:03:32.713178,83
2021-12-27 15:03:32.713188,-12680
2021-12-27 15:03:32.713197,-3815
2021-12-27 15:03:32.713212,2525
2021-12-27 15:03:32.713221,4366
2021-12-27 15:03:32.713236,2069
2021-12-27 15:03:32.713245,-7191
2021-12-27 15:03:32.713255,-10323
2021-12-27 15:03:32.713264,358
2021-12-27 15:03:32.713284,4644
2021-12-27 15:03:32.713294,356
2021-12-27 15:03:32.713308,3956
2021-12-27 15:03:32.957187,4067
2021-12-27 15:03:32.957217,2141
2021-12-27 15:03:32.957229,1947
2021-12-27 15:03:32.957238,2150
2021-12-27 15:03:32.957263,-4273
2021-12-27 15:03:32.957273,-12215
2021-12-27 15:03:32.957282,2065
2021-12-27 15:03:32.957307,-3359
2021-12-27 15:03:32.957316,-12273
2021-12-27 15:03:32.957325,-3790
2021-12-27 15:03:32.957345,1891
2021-12-27 15:03:32.957354,-3313
2021-12-27 15:03:32.957363,-11192
2021-12-27 15:03:32.957373,-15322
2021-12-27 15:03:32.957382,-5943
2021-12-27 15:03:32.957391,1660
2021-12-27 15:03:32.957400,3880
2021-12-27 15:03:32.957410,-3049
2021-12-27 15:03:32.957419,-14287
2021-12-27 15:03:32.957428,-10798
2021-12-27 15:03:32.957438,-5542
2021-12-27 15:03:32.957447,-1328
2021-12-27 15:03:33.199643,2477
2021-12-27 15:03:33.199665,-3419
2021-12-27 15:03:33.199675,-5440
2021-12-27 15:03:33.199685,615
2021-12-27 15:03:33.199699,4734
2021-12-27 15:03:33.199708,3722
2021-12-27 15:03:33.199718,1368
2021-12-27 15:03:33.199727,-14137
2021-12-27 15:03:33.199736,-7040
2021-12-27 15:03:33.199751,-1261
2021-12-27 15:03:33.199760,-16642
2021-12-27 15:03:33.199770,-15336
2021-12-27 15:03:33.199779,-9349
2021-12-27 15:03:33.199788,-8962
2021-12-27 15:03:33.199797,2481
2021-12-27 15:03:33.199817,1704
2021-12-27 15:03:33.199826,2586
2021-12-27 15:03:33.199835,-2426
2021-12-27 15:03:33.199845,-463
2021-12-27 15:03:33.199854,-2215
2021-12-27 15:03:33.199863,935
2021-12-27 15:03:33.199877,340
2021-12-27 15:03:33.199887,-821
2021-12-27 15:03:33.395600,4635
2021-12-27 15:03:33.395622,-453
2021-12-27 15:03:33.395633,-4725
2021-12-27 15:03:33.395643,-7908
2021-12-27 15:03:33.395664,2051
2021-12-27 15:03:33.395673,3301
2021-12-27 15:03:33.395683,-3280
2021-12-27 15:03:33.395692,-10122
2021-12-27 15:03:33.395702,1261
2021-12-27 15:03:33.395721,840
