Time,ECG
2021-12-27 14:42:48.049204,240
2021-12-27 14:42:48.049218,268
2021-12-27 14:42:48.049224,291
2021-12-27 14:42:48.049228,294
2021-12-27 14:42:48.049232,261
2021-12-27 14:42:48.049237,226
2021-12-27 14:42:48.049241,187
2021-12-27 14:42:48.049245,134
2021-12-27 14:42:48.049250,92
2021-12-27 14:42:48.049255,37
2021-12-27 14:42:48.049259,-67
2021-12-27 14:42:48.049263,-159
2021-12-27 14:42:48.049267,-199
2021-12-27 14:42:48.049272,-217
2021-12-27 14:42:48.049276,-243
2021-12-27 14:42:48.049280,-254
2021-12-27 14:42:48.049285,-252
2021-12-27 14:42:48.049289,-268
2021-12-27 14:42:48.049293,-268
2021-12-27 14:42:48.049298,-222
2021-12-27 14:42:48.049303,-192
2021-12-27 14:42:48.049308,-185
2021-12-27 14:42:48.049312,-173
2021-12-27 14:42:48.049316,-185
2021-12-27 14:42:48.049321,-196
2021-12-27 14:42:48.049325,-159
2021-12-27 14:42:48.049330,-131
2021-12-27 14:42:48.049334,-138
2021-12-27 14:42:48.049338,-134
2021-12-27 14:42:48.049342,-120
2021-12-27 14:42:48.250012,-113
2021-12-27 14:42:48.250042,-97
2021-12-27 14:42:48.250053,-85
2021-12-27 14:42:48.250063,-92
2021-12-27 14:42:48.250073,-90
2021-12-27 14:42:48.250082,-83
2021-12-27 14:42:48.250093,-106
2021-12-27 14:42:48.250102,-122
2021-12-27 14:42:48.250112,-97
2021-12-27 14:42:48.250121,-74
2021-12-27 14:42:48.250131,-74
2021-12-27 14:42:48.250140,-55
2021-12-27 14:42:48.250149,-43
2021-12-27 14:42:48.250159,-60
2021-12-27 14:42:48.250168,-57
2021-12-27 14:42:48.250178,-39
2021-12-27 14:42:48.250187,-41
2021-12-27 14:42:48.250198,-48
2021-12-27 14:42:48.250207,-55
2021-12-27 14:42:48.250217,-78
2021-12-27 14:42:48.250226,-76
2021-12-27 14:42:48.250236,-55
2021-12-27 14:42:48.250245,-53
2021-12-27 14:42:48.250254,-46
2021-12-27 14:42:48.250264,-55
2021-12-27 14:42:48.250273,-113
2021-12-27 14:42:48.250283,-13
2021-12-27 14:42:48.250292,532
2021-12-27 14:42:48.250302,1419
2021-12-27 14:42:48.250315,2099
2021-12-27 14:42:48.396598,1731
2021-12-27 14:42:48.396627,37
2021-12-27 14:42:48.396638,-1180
2021-12-27 14:42:48.396648,-664
2021-12-27 14:42:48.396657,-78
2021-12-27 14:42:48.396667,-245
2021-12-27 14:42:48.396676,-210
2021-12-27 14:42:48.396686,-4
2021-12-27 14:42:48.396695,-67
2021-12-27 14:42:48.396704,-129
2021-12-27 14:42:48.396714,-57
2021-12-27 14:42:48.396723,-64
2021-12-27 14:42:48.396732,-143
2021-12-27 14:42:48.396748,-141
2021-12-27 14:42:48.396758,-118
2021-12-27 14:42:48.396767,-134
2021-12-27 14:42:48.396777,-104
2021-12-27 14:42:48.396787,-43
2021-12-27 14:42:48.396796,-20
2021-12-27 14:42:48.396806,-2
2021-12-27 14:42:48.396815,9
2021-12-27 14:42:48.396825,-6
2021-12-27 14:42:48.396834,20
2021-12-27 14:42:48.396844,83
2021-12-27 14:42:48.396853,120
2021-12-27 14:42:48.396863,148
2021-12-27 14:42:48.396872,159
2021-12-27 14:42:48.396882,127
2021-12-27 14:42:48.396891,108
2021-12-27 14:42:48.396903,136
2021-12-27 14:42:48.543841,150
2021-12-27 14:42:48.543871,141
2021-12-27 14:42:48.543882,101
2021-12-27 14:42:48.543891,-2
2021-12-27 14:42:48.543901,-111
2021-12-27 14:42:48.543910,-155
2021-12-27 14:42:48.543920,-185
2021-12-27 14:42:48.543929,-226
2021-12-27 14:42:48.543938,-256
2021-12-27 14:42:48.543948,-298
2021-12-27 14:42:48.543957,-328
2021-12-27 14:42:48.543967,-300
2021-12-27 14:42:48.543976,-252
2021-12-27 14:42:48.543985,-229
2021-12-27 14:42:48.543995,-213
2021-12-27 14:42:48.544004,-201
2021-12-27 14:42:48.544014,-199
2021-12-27 14:42:48.544028,-201
2021-12-27 14:42:48.544038,-182
2021-12-27 14:42:48.544047,-157
2021-12-27 14:42:48.544057,-141
2021-12-27 14:42:48.544066,-141
2021-12-27 14:42:48.544076,-157
2021-12-27 14:42:48.544085,-157
2021-12-27 14:42:48.544094,-131
2021-12-27 14:42:48.544104,-115
2021-12-27 14:42:48.544113,-122
2021-12-27 14:42:48.544122,-125
2021-12-27 14:42:48.544132,-118
2021-12-27 14:42:48.544141,-111
2021-12-27 14:42:48.836003,-104
2021-12-27 14:42:48.836033,-83
2021-12-27 14:42:48.836044,-60
2021-12-27 14:42:48.836054,-53
2021-12-27 14:42:48.836064,-69
2021-12-27 14:42:48.836073,-92
2021-12-27 14:42:48.836083,-85
2021-12-27 14:42:48.836099,-57
2021-12-27 14:42:48.836109,-50
2021-12-27 14:42:48.836119,-64
2021-12-27 14:42:48.836128,-74
2021-12-27 14:42:48.836138,-92
2021-12-27 14:42:48.836147,-106
2021-12-27 14:42:48.836157,-87
2021-12-27 14:42:48.836166,-64
2021-12-27 14:42:48.836176,-64
2021-12-27 14:42:48.836185,-85
2021-12-27 14:42:48.836195,-164
2021-12-27 14:42:48.836204,-245
2021-12-27 14:42:48.836213,-37
2021-12-27 14:42:48.836223,662
2021-12-27 14:42:48.836233,1565
2021-12-27 14:42:48.836242,2069
2021-12-27 14:42:48.836251,1322
2021-12-27 14:42:48.836261,-495
2021-12-27 14:42:48.836270,-1238
2021-12-27 14:42:48.836280,-458
2021-12-27 14:42:48.836290,-118
2021-12-27 14:42:48.836299,-333
2021-12-27 14:42:48.836310,-171
2021-12-27 14:42:49.031004,-9
2021-12-27 14:42:49.031050,-85
2021-12-27 14:42:49.031061,-71
2021-12-27 14:42:49.031071,-6
2021-12-27 14:42:49.031151,-27
2021-12-27 14:42:49.031170,-27
2021-12-27 14:42:49.031180,-2
2021-12-27 14:42:49.031189,-11
2021-12-27 14:42:49.031199,-4
2021-12-27 14:42:49.031208,18
2021-12-27 14:42:49.031218,18
2021-12-27 14:42:49.031227,30
2021-12-27 14:42:49.031237,37
2021-12-27 14:42:49.031246,6
2021-12-27 14:42:49.031255,13
2021-12-27 14:42:49.031265,55
2021-12-27 14:42:49.031274,90
2021-12-27 14:42:49.031283,122
2021-12-27 14:42:49.031293,143
2021-12-27 14:42:49.031302,122
2021-12-27 14:42:49.031312,69
2021-12-27 14:42:49.031321,37
2021-12-27 14:42:49.031331,60
2021-12-27 14:42:49.031340,85
2021-12-27 14:42:49.031358,76
2021-12-27 14:42:49.031368,39
2021-12-27 14:42:49.031378,-30
2021-12-27 14:42:49.031387,-101
2021-12-27 14:42:49.031397,-162
2021-12-27 14:42:49.031406,-210
2021-12-27 14:42:49.226091,-231
2021-12-27 14:42:49.226112,-240
2021-12-27 14:42:49.226120,-270
2021-12-27 14:42:49.226126,-273
2021-12-27 14:42:49.226132,-236
2021-12-27 14:42:49.226138,-203
2021-12-27 14:42:49.226144,-185
2021-12-27 14:42:49.226151,-173
2021-12-27 14:42:49.226157,-192
2021-12-27 14:42:49.226163,-208
2021-12-27 14:42:49.226169,-180
2021-12-27 14:42:49.226175,-145
2021-12-27 14:42:49.226181,-127
2021-12-27 14:42:49.226187,-101
2021-12-27 14:42:49.226194,-118
2021-12-27 14:42:49.226200,-169
2021-12-27 14:42:49.226206,-164
2021-12-27 14:42:49.226212,-125
2021-12-27 14:42:49.226219,-113
2021-12-27 14:42:49.226225,-106
2021-12-27 14:42:49.226231,-97
2021-12-27 14:42:49.226237,-118
2021-12-27 14:42:49.226245,-173
2021-12-27 14:42:49.226251,-215
2021-12-27 14:42:49.226257,-192
2021-12-27 14:42:49.226263,-141
2021-12-27 14:42:49.226270,-127
2021-12-27 14:42:49.226276,-134
2021-12-27 14:42:49.226282,-120
2021-12-27 14:42:49.226288,-97
2021-12-27 14:42:49.469138,-83
2021-12-27 14:42:49.469158,-71
2021-12-27 14:42:49.469166,-83
2021-12-27 14:42:49.469172,-131
2021-12-27 14:42:49.469178,-175
2021-12-27 14:42:49.469185,-171
2021-12-27 14:42:49.469191,-148
2021-12-27 14:42:49.469197,-138
2021-12-27 14:42:49.469203,-127
2021-12-27 14:42:49.469209,-138
2021-12-27 14:42:49.469216,-189
2021-12-27 14:42:49.469222,-150
2021-12-27 14:42:49.469228,238
2021-12-27 14:42:49.469234,1021
2021-12-27 14:42:49.469241,1836
2021-12-27 14:42:49.469247,2005
2021-12-27 14:42:49.469253,775
2021-12-27 14:42:49.469259,-902
2021-12-27 14:42:49.469265,-981
2021-12-27 14:42:49.469271,-166
2021-12-27 14:42:49.469277,-127
2021-12-27 14:42:49.469284,-259
2021-12-27 14:42:49.469290,-50
2021-12-27 14:42:49.469296,-6
2021-12-27 14:42:49.469307,-94
2021-12-27 14:42:49.469313,-55
2021-12-27 14:42:49.469319,-9
2021-12-27 14:42:49.469326,-9
2021-12-27 14:42:49.469332,13
2021-12-27 14:42:49.469338,41
2021-12-27 14:42:49.761203,57
2021-12-27 14:42:49.761234,85
2021-12-27 14:42:49.761245,106
2021-12-27 14:42:49.761255,99
2021-12-27 14:42:49.761264,94
2021-12-27 14:42:49.761273,97
2021-12-27 14:42:49.761283,97
2021-12-27 14:42:49.761292,122
2021-12-27 14:42:49.761302,155
2021-12-27 14:42:49.761311,148
2021-12-27 14:42:49.761321,143
2021-12-27 14:42:49.761330,145
2021-12-27 14:42:49.761340,113
2021-12-27 14:42:49.761349,94
2021-12-27 14:42:49.761359,111
2021-12-27 14:42:49.761368,104
2021-12-27 14:42:49.761378,94
2021-12-27 14:42:49.761388,97
2021-12-27 14:42:49.761397,55
2021-12-27 14:42:49.761407,-13
2021-12-27 14:42:49.761417,-76
2021-12-27 14:42:49.761426,-145
2021-12-27 14:42:49.761436,-196
2021-12-27 14:42:49.761445,-217
2021-12-27 14:42:49.761455,-233
2021-12-27 14:42:49.761464,-243
2021-12-27 14:42:49.761474,-247
2021-12-27 14:42:49.761484,-280
2021-12-27 14:42:49.761494,-314
2021-12-27 14:42:49.761503,-307
2021-12-27 14:42:50.054233,-273
2021-12-27 14:42:50.054263,-254
2021-12-27 14:42:50.054274,-240
2021-12-27 14:42:50.054284,-222
2021-12-27 14:42:50.054293,-208
2021-12-27 14:42:50.054303,-185
2021-12-27 14:42:50.054312,-178
2021-12-27 14:42:50.054337,-208
2021-12-27 14:42:50.054347,-229
2021-12-27 14:42:50.054357,-213
2021-12-27 14:42:50.054366,-185
2021-12-27 14:42:50.054376,-164
2021-12-27 14:42:50.054385,-157
2021-12-27 14:42:50.054395,-178
2021-12-27 14:42:50.054404,-203
2021-12-27 14:42:50.054413,-194
2021-12-27 14:42:50.054459,-166
2021-12-27 14:42:50.054494,-148
2021-12-27 14:42:50.054505,-129
2021-12-27 14:42:50.054515,-108
2021-12-27 14:42:50.054524,-111
2021-12-27 14:42:50.054534,-113
2021-12-27 14:42:50.054544,-90
2021-12-27 14:42:50.054553,-55
2021-12-27 14:42:50.054563,-32
2021-12-27 14:42:50.054573,-25
2021-12-27 14:42:50.054582,-30
2021-12-27 14:42:50.054592,-39
2021-12-27 14:42:50.054601,-53
2021-12-27 14:42:50.054611,-76
2021-12-27 14:42:50.152185,-83
2021-12-27 14:42:50.152205,-62
2021-12-27 14:42:50.152213,-60
2021-12-27 14:42:50.152219,-78
2021-12-27 14:42:50.152225,-71
2021-12-27 14:42:50.152232,-46
2021-12-27 14:42:50.152238,-57
2021-12-27 14:42:50.152244,-92
2021-12-27 14:42:50.152250,6
2021-12-27 14:42:50.152256,488
2021-12-27 14:42:50.152269,1328
2021-12-27 14:42:50.152276,2032
2021-12-27 14:42:50.152282,1743
2021-12-27 14:42:50.152288,99
2021-12-27 14:42:50.152294,-1171
2021-12-27 14:42:50.152301,-680
2021-12-27 14:42:50.152307,-64
2021-12-27 14:42:50.152313,-224
2021-12-27 14:42:50.152319,-178
2021-12-27 14:42:50.152325,46
2021-12-27 14:42:50.152332,-4
2021-12-27 14:42:50.152338,-81
2021-12-27 14:42:50.152344,-34
2021-12-27 14:42:50.152350,6
2021-12-27 14:42:50.152356,23
2021-12-27 14:42:50.152363,53
2021-12-27 14:42:50.152369,83
2021-12-27 14:42:50.152375,92
2021-12-27 14:42:50.152381,92
2021-12-27 14:42:50.152387,115
2021-12-27 14:42:50.396107,134
2021-12-27 14:42:50.396137,106
2021-12-27 14:42:50.396148,83
2021-12-27 14:42:50.396158,62
2021-12-27 14:42:50.396167,6
2021-12-27 14:42:50.396177,0
2021-12-27 14:42:50.396187,57
2021-12-27 14:42:50.396196,69
2021-12-27 14:42:50.396206,46
2021-12-27 14:42:50.396215,34
2021-12-27 14:42:50.396225,-11
2021-12-27 14:42:50.396234,-50
2021-12-27 14:42:50.396244,-20
2021-12-27 14:42:50.396253,13
2021-12-27 14:42:50.396263,-2
2021-12-27 14:42:50.396273,-46
2021-12-27 14:42:50.396282,-101
2021-12-27 14:42:50.396291,-155
2021-12-27 14:42:50.396301,-196
2021-12-27 14:42:50.396310,-233
2021-12-27 14:42:50.396320,-275
2021-12-27 14:42:50.396330,-296
2021-12-27 14:42:50.396339,-280
2021-12-27 14:42:50.396349,-263
2021-12-27 14:42:50.396358,-247
2021-12-27 14:42:50.396374,-219
2021-12-27 14:42:50.396384,-201
2021-12-27 14:42:50.396394,-189
2021-12-27 14:42:50.396403,-169
2021-12-27 14:42:50.396413,-155
2021-12-27 14:42:50.688103,-155
2021-12-27 14:42:50.688123,-131
2021-12-27 14:42:50.688130,-122
2021-12-27 14:42:50.688137,-166
2021-12-27 14:42:50.688143,-182
2021-12-27 14:42:50.688149,-166
2021-12-27 14:42:50.688155,-192
2021-12-27 14:42:50.688161,-199
2021-12-27 14:42:50.688167,-169
2021-12-27 14:42:50.688173,-162
2021-12-27 14:42:50.688180,-164
2021-12-27 14:42:50.688186,-152
2021-12-27 14:42:50.688192,-169
2021-12-27 14:42:50.688198,-180
2021-12-27 14:42:50.688204,-152
2021-12-27 14:42:50.688211,-143
2021-12-27 14:42:50.688217,-150
2021-12-27 14:42:50.688223,-127
2021-12-27 14:42:50.688229,-118
2021-12-27 14:42:50.688235,-120
2021-12-27 14:42:50.688241,-106
2021-12-27 14:42:50.688248,-94
2021-12-27 14:42:50.688254,-87
2021-12-27 14:42:50.688260,-62
2021-12-27 14:42:50.688266,-32
2021-12-27 14:42:50.688272,-20
2021-12-27 14:42:50.688279,-20
2021-12-27 14:42:50.688285,-16
2021-12-27 14:42:50.688291,4
2021-12-27 14:42:50.688297,23
2021-12-27 14:42:50.834100,23
2021-12-27 14:42:50.834121,2
2021-12-27 14:42:50.834128,-18
2021-12-27 14:42:50.834135,-18
2021-12-27 14:42:50.834141,-20
2021-12-27 14:42:50.834147,-34
2021-12-27 14:42:50.834154,-25
2021-12-27 14:42:50.834160,2
2021-12-27 14:42:50.834166,-43
2021-12-27 14:42:50.834172,-162
2021-12-27 14:42:50.834178,-178
2021-12-27 14:42:50.834185,141
2021-12-27 14:42:50.834191,863
2021-12-27 14:42:50.834197,1704
2021-12-27 14:42:50.834203,2053
2021-12-27 14:42:50.834210,1039
2021-12-27 14:42:50.834220,-745
2021-12-27 14:42:50.834226,-1109
2021-12-27 14:42:50.834232,-268
2021-12-27 14:42:50.834239,-120
2021-12-27 14:42:50.834245,-342
2021-12-27 14:42:50.834251,-173
2021-12-27 14:42:50.834257,-64
2021-12-27 14:42:50.834263,-127
2021-12-27 14:42:50.834279,-76
2021-12-27 14:42:50.834290,0
2021-12-27 14:42:50.834301,-9
2021-12-27 14:42:50.834312,-30
2021-12-27 14:42:50.834379,-23
2021-12-27 14:42:50.834388,6
2021-12-27 14:42:51.078403,41
2021-12-27 14:42:51.078433,71
2021-12-27 14:42:51.078445,67
2021-12-27 14:42:51.078454,20
2021-12-27 14:42:51.078464,11
2021-12-27 14:42:51.078473,55
2021-12-27 14:42:51.078483,43
2021-12-27 14:42:51.078492,4
2021-12-27 14:42:51.078502,23
2021-12-27 14:42:51.078511,23
2021-12-27 14:42:51.078521,-13
2021-12-27 14:42:51.078530,6
2021-12-27 14:42:51.078539,46
2021-12-27 14:42:51.078549,48
2021-12-27 14:42:51.078559,55
2021-12-27 14:42:51.078568,64
2021-12-27 14:42:51.078578,55
2021-12-27 14:42:51.078587,46
2021-12-27 14:42:51.078597,39
2021-12-27 14:42:51.078606,4
2021-12-27 14:42:51.078616,-55
2021-12-27 14:42:51.078625,-113
2021-12-27 14:42:51.078635,-152
2021-12-27 14:42:51.078645,-173
2021-12-27 14:42:51.078654,-171
2021-12-27 14:42:51.078664,-152
2021-12-27 14:42:51.078673,-138
2021-12-27 14:42:51.078683,-150
2021-12-27 14:42:51.078692,-159
2021-12-27 14:42:51.078702,-141
2021-12-27 14:42:51.322078,-104
2021-12-27 14:42:51.322099,-76
2021-12-27 14:42:51.322106,-67
2021-12-27 14:42:51.322113,-71
2021-12-27 14:42:51.322119,-92
2021-12-27 14:42:51.322125,-115
2021-12-27 14:42:51.322131,-104
2021-12-27 14:42:51.322138,-69
2021-12-27 14:42:51.322144,-74
2021-12-27 14:42:51.322150,-111
2021-12-27 14:42:51.322156,-136
2021-12-27 14:42:51.322162,-150
2021-12-27 14:42:51.322168,-155
2021-12-27 14:42:51.322179,-131
2021-12-27 14:42:51.322185,-138
2021-12-27 14:42:51.322191,-194
2021-12-27 14:42:51.322197,-201
2021-12-27 14:42:51.322204,-166
2021-12-27 14:42:51.322210,-157
2021-12-27 14:42:51.322216,-143
2021-12-27 14:42:51.322222,-118
2021-12-27 14:42:51.322228,-111
2021-12-27 14:42:51.322234,-101
2021-12-27 14:42:51.322241,-87
2021-12-27 14:42:51.322247,-97
2021-12-27 14:42:51.322253,-118
2021-12-27 14:42:51.322259,-134
2021-12-27 14:42:51.322265,-115
2021-12-27 14:42:51.322272,-76
2021-12-27 14:42:51.322278,-69
2021-12-27 14:42:51.565864,-81
2021-12-27 14:42:51.565893,-53
2021-12-27 14:42:51.565904,-34
2021-12-27 14:42:51.565914,-57
2021-12-27 14:42:51.565924,-71
2021-12-27 14:42:51.565934,-67
2021-12-27 14:42:51.565943,-87
2021-12-27 14:42:51.565953,-106
2021-12-27 14:42:51.565962,-94
2021-12-27 14:42:51.565972,-81
2021-12-27 14:42:51.565982,-76
2021-12-27 14:42:51.565991,-99
2021-12-27 14:42:51.566001,-185
2021-12-27 14:42:51.566010,-233
2021-12-27 14:42:51.566020,34
2021-12-27 14:42:51.566029,738
2021-12-27 14:42:51.566039,1583
2021-12-27 14:42:51.566048,1993
2021-12-27 14:42:51.566058,1097
2021-12-27 14:42:51.566067,-671
2021-12-27 14:42:51.566077,-1122
2021-12-27 14:42:51.566086,-333
2021-12-27 14:42:51.566096,-182
2021-12-27 14:42:51.566106,-375
2021-12-27 14:42:51.566115,-162
2021-12-27 14:42:51.566125,-55
2021-12-27 14:42:51.566134,-155
2021-12-27 14:42:51.566144,-134
2021-12-27 14:42:51.566153,-76
2021-12-27 14:42:51.566163,-87
2021-12-27 14:42:51.808234,-87
2021-12-27 14:42:51.808264,-74
2021-12-27 14:42:51.808275,-71
2021-12-27 14:42:51.808285,-60
2021-12-27 14:42:51.808294,-32
2021-12-27 14:42:51.808304,2
2021-12-27 14:42:51.808314,39
2021-12-27 14:42:51.808323,57
2021-12-27 14:42:51.808332,37
2021-12-27 14:42:51.808342,23
2021-12-27 14:42:51.808351,60
2021-12-27 14:42:51.808361,99
2021-12-27 14:42:51.808370,108
2021-12-27 14:42:51.808380,92
2021-12-27 14:42:51.808389,55
2021-12-27 14:42:51.808399,30
2021-12-27 14:42:51.808408,43
2021-12-27 14:42:51.808423,67
2021-12-27 14:42:51.808432,69
2021-12-27 14:42:51.808442,67
2021-12-27 14:42:51.808451,27
2021-12-27 14:42:51.808461,-55
2021-12-27 14:42:51.808470,-104
2021-12-27 14:42:51.808480,-120
2021-12-27 14:42:51.808489,-162
2021-12-27 14:42:51.808499,-203
2021-12-27 14:42:51.808509,-226
2021-12-27 14:42:51.808518,-254
2021-12-27 14:42:51.808527,-256
2021-12-27 14:42:51.808537,-224
2021-12-27 14:42:52.004768,-194
2021-12-27 14:42:52.004799,-169
2021-12-27 14:42:52.004811,-155
2021-12-27 14:42:52.004821,-180
2021-12-27 14:42:52.004830,-206
2021-12-27 14:42:52.004840,-175
2021-12-27 14:42:52.004849,-141
2021-12-27 14:42:52.004859,-129
2021-12-27 14:42:52.004868,-113
2021-12-27 14:42:52.004878,-125
2021-12-27 14:42:52.004887,-164
2021-12-27 14:42:52.004897,-157
2021-12-27 14:42:52.004906,-120
2021-12-27 14:42:52.004916,-108
2021-12-27 14:42:52.004925,-118
2021-12-27 14:42:52.004934,-145
2021-12-27 14:42:52.004944,-164
2021-12-27 14:42:52.004953,-145
2021-12-27 14:42:52.004963,-113
2021-12-27 14:42:52.004972,-99
2021-12-27 14:42:52.004982,-90
2021-12-27 14:42:52.004991,-83
2021-12-27 14:42:52.005001,-83
2021-12-27 14:42:52.005010,-71
2021-12-27 14:42:52.005020,-50
2021-12-27 14:42:52.005029,-25
2021-12-27 14:42:52.005039,-13
2021-12-27 14:42:52.005048,-13
2021-12-27 14:42:52.005058,-13
2021-12-27 14:42:52.005067,-9
2021-12-27 14:42:52.297453,-2
2021-12-27 14:42:52.297473,18
2021-12-27 14:42:52.297481,46
2021-12-27 14:42:52.297487,50
2021-12-27 14:42:52.297493,37
2021-12-27 14:42:52.297499,20
2021-12-27 14:42:52.297506,11
2021-12-27 14:42:52.297512,25
2021-12-27 14:42:52.297518,30
2021-12-27 14:42:52.297524,11
2021-12-27 14:42:52.297530,-6
2021-12-27 14:42:52.297537,-20
2021-12-27 14:42:52.297543,-34
2021-12-27 14:42:52.297549,-25
2021-12-27 14:42:52.297555,-20
2021-12-27 14:42:52.297561,-46
2021-12-27 14:42:52.297568,-76
2021-12-27 14:42:52.297574,-150
2021-12-27 14:42:52.297580,-134
2021-12-27 14:42:52.297586,287
2021-12-27 14:42:52.297593,1065
2021-12-27 14:42:52.297599,1782
2021-12-27 14:42:52.297605,1817
2021-12-27 14:42:52.297611,444
2021-12-27 14:42:52.297618,-1143
2021-12-27 14:42:52.297624,-1002
2021-12-27 14:42:52.297630,-303
2021-12-27 14:42:52.297636,-416
2021-12-27 14:42:52.297643,-453
2021-12-27 14:42:52.297652,-194
2021-12-27 14:42:52.492307,-192
2021-12-27 14:42:52.492327,-250
2021-12-27 14:42:52.492335,-162
2021-12-27 14:42:52.492341,-122
2021-12-27 14:42:52.492348,-134
2021-12-27 14:42:52.492354,-92
2021-12-27 14:42:52.492360,-57
2021-12-27 14:42:52.492366,-64
2021-12-27 14:42:52.492372,-46
2021-12-27 14:42:52.492378,-9
2021-12-27 14:42:52.492384,18
2021-12-27 14:42:52.492390,60
2021-12-27 14:42:52.492397,108
2021-12-27 14:42:52.492403,143
2021-12-27 14:42:52.492409,173
2021-12-27 14:42:52.492415,213
2021-12-27 14:42:52.492421,245
2021-12-27 14:42:52.492427,213
2021-12-27 14:42:52.492433,125
2021-12-27 14:42:52.492439,62
2021-12-27 14:42:52.492446,34
2021-12-27 14:42:52.492452,37
2021-12-27 14:42:52.492458,67
2021-12-27 14:42:52.492464,90
2021-12-27 14:42:52.492470,104
2021-12-27 14:42:52.492476,145
2021-12-27 14:42:52.492482,180
2021-12-27 14:42:52.492488,127
2021-12-27 14:42:52.492495,43
2021-12-27 14:42:52.492501,9
2021-12-27 14:42:52.687410,-16
2021-12-27 14:42:52.687431,-64
2021-12-27 14:42:52.687438,-129
2021-12-27 14:42:52.687444,-143
2021-12-27 14:42:52.687450,-99
2021-12-27 14:42:52.687456,-145
2021-12-27 14:42:52.687463,-169
2021-12-27 14:42:52.687469,-13
2021-12-27 14:42:52.687475,34
2021-12-27 14:42:52.687481,-81
2021-12-27 14:42:52.687487,-69
2021-12-27 14:42:52.687493,11
2021-12-27 14:42:52.687499,-4
2021-12-27 14:42:52.687506,-71
2021-12-27 14:42:52.687512,-166
2021-12-27 14:42:52.687518,-247
2021-12-27 14:42:52.687524,-213
2021-12-27 14:42:52.687530,-108
2021-12-27 14:42:52.687536,-39
2021-12-27 14:42:52.687542,-20
2021-12-27 14:42:52.687548,4
2021-12-27 14:42:52.687554,-16
2021-12-27 14:42:52.687560,-83
2021-12-27 14:42:52.687566,-39
2021-12-27 14:42:52.687573,41
2021-12-27 14:42:52.687579,20
2021-12-27 14:42:52.687585,0
2021-12-27 14:42:52.687591,16
2021-12-27 14:42:52.687597,9
2021-12-27 14:42:52.687603,11
2021-12-27 14:42:52.979147,41
2021-12-27 14:42:52.979168,25
2021-12-27 14:42:52.979176,-34
2021-12-27 14:42:52.979182,-71
2021-12-27 14:42:52.979188,-81
2021-12-27 14:42:52.979194,-83
2021-12-27 14:42:52.979201,-64
2021-12-27 14:42:52.979207,-57
2021-12-27 14:42:52.979213,-62
2021-12-27 14:42:52.979219,-55
2021-12-27 14:42:52.979225,-78
2021-12-27 14:42:52.979231,-99
2021-12-27 14:42:52.979237,-74
2021-12-27 14:42:52.979243,-71
2021-12-27 14:42:52.979250,-101
2021-12-27 14:42:52.979256,-122
2021-12-27 14:42:52.979262,-159
2021-12-27 14:42:52.979268,-185
2021-12-27 14:42:52.979274,-152
2021-12-27 14:42:52.979280,-115
2021-12-27 14:42:52.979293,-118
2021-12-27 14:42:52.979299,-120
2021-12-27 14:42:52.979306,-115
2021-12-27 14:42:52.979312,-164
2021-12-27 14:42:52.979318,-187
2021-12-27 14:42:52.979324,106
2021-12-27 14:42:52.979330,808
2021-12-27 14:42:52.979336,1613
2021-12-27 14:42:52.979342,2007
2021-12-27 14:42:52.979349,1109
2021-12-27 14:42:53.222659,-655
2021-12-27 14:42:53.222675,-1081
2021-12-27 14:42:53.222681,-275
2021-12-27 14:42:53.222687,-122
2021-12-27 14:42:53.222692,-310
2021-12-27 14:42:53.222697,-127
2021-12-27 14:42:53.222702,-57
2021-12-27 14:42:53.222707,-134
2021-12-27 14:42:53.222712,-69
2021-12-27 14:42:53.222717,-6
2021-12-27 14:42:53.222722,-16
2021-12-27 14:42:53.222727,2
2021-12-27 14:42:53.222732,11
2021-12-27 14:42:53.222737,6
2021-12-27 14:42:53.222742,39
2021-12-27 14:42:53.222747,69
2021-12-27 14:42:53.222752,85
2021-12-27 14:42:53.222757,120
2021-12-27 14:42:53.222762,141
2021-12-27 14:42:53.222767,150
2021-12-27 14:42:53.222772,178
2021-12-27 14:42:53.222777,208
2021-12-27 14:42:53.222782,226
2021-12-27 14:42:53.222787,256
2021-12-27 14:42:53.222792,280
2021-12-27 14:42:53.222797,263
2021-12-27 14:42:53.222802,238
2021-12-27 14:42:53.222807,240
2021-12-27 14:42:53.222811,247
2021-12-27 14:42:53.222816,236
2021-12-27 14:42:53.467233,213
2021-12-27 14:42:53.467263,182
2021-12-27 14:42:53.467274,157
2021-12-27 14:42:53.467284,106
2021-12-27 14:42:53.467293,30
2021-12-27 14:42:53.467303,-11
2021-12-27 14:42:53.467312,-34
2021-12-27 14:42:53.467321,-76
2021-12-27 14:42:53.467331,-134
2021-12-27 14:42:53.467340,-169
2021-12-27 14:42:53.467349,-148
2021-12-27 14:42:53.467359,-108
2021-12-27 14:42:53.467369,-90
2021-12-27 14:42:53.467378,-94
2021-12-27 14:42:53.467387,-120
2021-12-27 14:42:53.467397,-127
2021-12-27 14:42:53.467406,-94
2021-12-27 14:42:53.467415,-60
2021-12-27 14:42:53.467425,-39
2021-12-27 14:42:53.467434,-39
2021-12-27 14:42:53.467444,-81
2021-12-27 14:42:53.467453,-101
2021-12-27 14:42:53.467462,-64
2021-12-27 14:42:53.467472,-41
2021-12-27 14:42:53.467481,-50
2021-12-27 14:42:53.467490,-34
2021-12-27 14:42:53.467500,-16
2021-12-27 14:42:53.467509,-57
2021-12-27 14:42:53.467519,-101
2021-12-27 14:42:53.467528,-74
2021-12-27 14:42:53.613607,-39
2021-12-27 14:42:53.613628,-39
2021-12-27 14:42:53.613636,-46
2021-12-27 14:42:53.613642,-53
2021-12-27 14:42:53.613648,-76
2021-12-27 14:42:53.613654,-81
2021-12-27 14:42:53.613660,-62
2021-12-27 14:42:53.613667,-43
2021-12-27 14:42:53.613673,-41
2021-12-27 14:42:53.613679,-78
2021-12-27 14:42:53.613685,-111
2021-12-27 14:42:53.613691,-81
2021-12-27 14:42:53.613697,-69
2021-12-27 14:42:53.613703,-97
2021-12-27 14:42:53.613710,-101
2021-12-27 14:42:53.613716,-118
2021-12-27 14:42:53.613722,-166
2021-12-27 14:42:53.613728,-164
2021-12-27 14:42:53.613734,-138
2021-12-27 14:42:53.613740,-148
2021-12-27 14:42:53.613746,-148
2021-12-27 14:42:53.613752,-143
2021-12-27 14:42:53.613765,-171
2021-12-27 14:42:53.613772,-171
2021-12-27 14:42:53.613778,-138
2021-12-27 14:42:53.613784,-159
2021-12-27 14:42:53.613790,-219
2021-12-27 14:42:53.613796,-92
2021-12-27 14:42:53.613803,467
2021-12-27 14:42:53.613809,1301
2021-12-27 14:42:53.904645,1940
2021-12-27 14:42:53.904674,1604
2021-12-27 14:42:53.904688,-55
2021-12-27 14:42:53.904701,-1210
2021-12-27 14:42:53.904713,-662
2021-12-27 14:42:53.904726,-173
2021-12-27 14:42:53.904737,-375
2021-12-27 14:42:53.904747,-282
2021-12-27 14:42:53.904758,-76
2021-12-27 14:42:53.904767,-134
2021-12-27 14:42:53.904773,-162
2021-12-27 14:42:53.904779,-104
2021-12-27 14:42:53.904786,-108
2021-12-27 14:42:53.904792,-131
2021-12-27 14:42:53.904798,-125
2021-12-27 14:42:53.904804,-97
2021-12-27 14:42:53.904811,-62
2021-12-27 14:42:53.904817,-41
2021-12-27 14:42:53.904823,-16
2021-12-27 14:42:53.904829,23
2021-12-27 14:42:53.904835,62
2021-12-27 14:42:53.904841,92
2021-12-27 14:42:53.904848,125
2021-12-27 14:42:53.904854,159
2021-12-27 14:42:53.904860,185
2021-12-27 14:42:53.904866,213
2021-12-27 14:42:53.904872,238
2021-12-27 14:42:53.904878,247
2021-12-27 14:42:53.904885,250
2021-12-27 14:42:53.904891,254
2021-12-27 14:42:54.149410,240
2021-12-27 14:42:54.149431,210
2021-12-27 14:42:54.149438,182
2021-12-27 14:42:54.149444,155
2021-12-27 14:42:54.149451,118
2021-12-27 14:42:54.149457,57
2021-12-27 14:42:54.149463,-30
2021-12-27 14:42:54.149469,-113
2021-12-27 14:42:54.149476,-162
2021-12-27 14:42:54.149482,-203
2021-12-27 14:42:54.149488,-231
2021-12-27 14:42:54.149494,-217
2021-12-27 14:42:54.149501,-219
2021-12-27 14:42:54.149507,-233
2021-12-27 14:42:54.149513,-203
2021-12-27 14:42:54.149520,-164
2021-12-27 14:42:54.149526,-143
2021-12-27 14:42:54.149532,-122
2021-12-27 14:42:54.149538,-106
2021-12-27 14:42:54.149544,-101
2021-12-27 14:42:54.149551,-94
2021-12-27 14:42:54.149557,-83
2021-12-27 14:42:54.149563,-62
2021-12-27 14:42:54.149569,-32
2021-12-27 14:42:54.149575,-16
2021-12-27 14:42:54.149582,-27
2021-12-27 14:42:54.149588,-81
2021-12-27 14:42:54.149594,-143
2021-12-27 14:42:54.149600,-97
2021-12-27 14:42:54.149606,25
2021-12-27 14:42:54.296013,48
2021-12-27 14:42:54.296042,4
2021-12-27 14:42:54.296054,-2
2021-12-27 14:42:54.296064,-16
2021-12-27 14:42:54.296073,-46
2021-12-27 14:42:54.296083,-30
2021-12-27 14:42:54.296092,-23
2021-12-27 14:42:54.296102,-67
2021-12-27 14:42:54.296111,-90
2021-12-27 14:42:54.296120,-64
2021-12-27 14:42:54.296130,-25
2021-12-27 14:42:54.296139,-23
2021-12-27 14:42:54.296149,-50
2021-12-27 14:42:54.296158,-74
2021-12-27 14:42:54.296168,-101
2021-12-27 14:42:54.296177,-155
2021-12-27 14:42:54.296187,-180
2021-12-27 14:42:54.296196,-159
2021-12-27 14:42:54.296205,-162
2021-12-27 14:42:54.296215,-208
2021-12-27 14:42:54.296224,-268
2021-12-27 14:42:54.296234,-289
2021-12-27 14:42:54.296243,-268
2021-12-27 14:42:54.296252,-252
2021-12-27 14:42:54.296262,-252
2021-12-27 14:42:54.296271,-275
2021-12-27 14:42:54.296280,-201
2021-12-27 14:42:54.296290,252
2021-12-27 14:42:54.296299,1078
2021-12-27 14:42:54.296309,1836
2021-12-27 14:42:54.539771,1757
2021-12-27 14:42:54.539792,252
2021-12-27 14:42:54.539799,-1190
2021-12-27 14:42:54.539806,-875
2021-12-27 14:42:54.539812,-233
2021-12-27 14:42:54.539821,-386
2021-12-27 14:42:54.539828,-395
2021-12-27 14:42:54.539834,-155
2021-12-27 14:42:54.539840,-166
2021-12-27 14:42:54.539846,-238
2021-12-27 14:42:54.539852,-182
2021-12-27 14:42:54.539858,-136
2021-12-27 14:42:54.539864,-108
2021-12-27 14:42:54.539871,-60
2021-12-27 14:42:54.539877,-30
2021-12-27 14:42:54.539883,-32
2021-12-27 14:42:54.539889,-18
2021-12-27 14:42:54.539895,23
2021-12-27 14:42:54.539901,64
2021-12-27 14:42:54.539907,101
2021-12-27 14:42:54.539913,134
2021-12-27 14:42:54.539919,157
2021-12-27 14:42:54.539925,173
2021-12-27 14:42:54.539931,201
2021-12-27 14:42:54.539937,238
2021-12-27 14:42:54.539943,266
2021-12-27 14:42:54.539949,273
2021-12-27 14:42:54.539955,268
2021-12-27 14:42:54.539962,256
2021-12-27 14:42:54.539968,243
2021-12-27 14:42:54.783525,240
2021-12-27 14:42:54.783545,243
2021-12-27 14:42:54.783552,226
2021-12-27 14:42:54.783559,178
2021-12-27 14:42:54.783565,97
2021-12-27 14:42:54.783571,0
2021-12-27 14:42:54.783577,-74
2021-12-27 14:42:54.783583,-129
2021-12-27 14:42:54.783589,-180
2021-12-27 14:42:54.783596,-208
2021-12-27 14:42:54.783602,-208
2021-12-27 14:42:54.783608,-224
2021-12-27 14:42:54.783614,-229
2021-12-27 14:42:54.783620,-196
2021-12-27 14:42:54.783626,-166
2021-12-27 14:42:54.783632,-162
2021-12-27 14:42:54.783639,-145
2021-12-27 14:42:54.783645,-125
2021-12-27 14:42:54.783651,-115
2021-12-27 14:42:54.783657,-94
2021-12-27 14:42:54.783663,-71
2021-12-27 14:42:54.783669,-76
2021-12-27 14:42:54.783675,-74
2021-12-27 14:42:54.783682,-55
2021-12-27 14:42:54.783688,-60
2021-12-27 14:42:54.783694,-101
2021-12-27 14:42:54.783700,-122
2021-12-27 14:42:54.783706,-104
2021-12-27 14:42:54.783712,-94
2021-12-27 14:42:54.783719,-81
2021-12-27 14:42:55.026910,-57
2021-12-27 14:42:55.026939,-60
2021-12-27 14:42:55.026950,-87
2021-12-27 14:42:55.026960,-90
2021-12-27 14:42:55.026970,-62
2021-12-27 14:42:55.026979,-39
2021-12-27 14:42:55.026989,-43
2021-12-27 14:42:55.026998,-64
2021-12-27 14:42:55.027007,-69
2021-12-27 14:42:55.027017,-83
2021-12-27 14:42:55.027026,-111
2021-12-27 14:42:55.027036,-99
2021-12-27 14:42:55.027045,-92
2021-12-27 14:42:55.027054,-138
2021-12-27 14:42:55.027064,-178
2021-12-27 14:42:55.027073,-185
2021-12-27 14:42:55.027083,-189
2021-12-27 14:42:55.027092,-182
2021-12-27 14:42:55.027102,-196
2021-12-27 14:42:55.027111,-226
2021-12-27 14:42:55.027121,-224
2021-12-27 14:42:55.027130,-233
2021-12-27 14:42:55.027139,-270
2021-12-27 14:42:55.027149,-134
2021-12-27 14:42:55.027158,426
2021-12-27 14:42:55.027168,1259
2021-12-27 14:42:55.027177,1852
2021-12-27 14:42:55.027187,1398
2021-12-27 14:42:55.027196,-247
2021-12-27 14:42:55.027206,-1224
2021-12-27 14:42:55.221243,-606
2021-12-27 14:42:55.221262,-155
2021-12-27 14:42:55.221269,-361
2021-12-27 14:42:55.221276,-282
2021-12-27 14:42:55.221282,-97
2021-12-27 14:42:55.221289,-136
2021-12-27 14:42:55.221295,-127
2021-12-27 14:42:55.221301,-43
2021-12-27 14:42:55.221307,-64
2021-12-27 14:42:55.221313,-104
2021-12-27 14:42:55.221319,-53
2021-12-27 14:42:55.221325,-18
2021-12-27 14:42:55.221332,-41
2021-12-27 14:42:55.221338,-27
2021-12-27 14:42:55.221344,2
2021-12-27 14:42:55.221350,-16
2021-12-27 14:42:55.221357,-6
2021-12-27 14:42:55.221363,53
2021-12-27 14:42:55.221369,101
2021-12-27 14:42:55.221376,138
2021-12-27 14:42:55.221382,171
2021-12-27 14:42:55.221388,178
2021-12-27 14:42:55.221394,192
2021-12-27 14:42:55.221400,226
2021-12-27 14:42:55.221406,233
2021-12-27 14:42:55.221413,233
2021-12-27 14:42:55.221419,240
2021-12-27 14:42:55.221425,217
2021-12-27 14:42:55.221432,182
2021-12-27 14:42:55.221438,166
2021-12-27 14:42:55.465860,115
2021-12-27 14:42:55.465884,6
2021-12-27 14:42:55.465892,-92
2021-12-27 14:42:55.465898,-164
2021-12-27 14:42:55.465904,-231
2021-12-27 14:42:55.465910,-256
2021-12-27 14:42:55.465916,-238
2021-12-27 14:42:55.465922,-224
2021-12-27 14:42:55.465929,-213
2021-12-27 14:42:55.465935,-210
2021-12-27 14:42:55.465941,-231
2021-12-27 14:42:55.465947,-226
2021-12-27 14:42:55.465953,-185
2021-12-27 14:42:55.465959,-178
2021-12-27 14:42:55.465965,-196
2021-12-27 14:42:55.465971,-182
2021-12-27 14:42:55.465977,-159
2021-12-27 14:42:55.465983,-157
2021-12-27 14:42:55.465989,-131
2021-12-27 14:42:55.465995,-101
2021-12-27 14:42:55.466001,-99
2021-12-27 14:42:55.466007,-97
2021-12-27 14:42:55.466013,-87
2021-12-27 14:42:55.466019,-90
2021-12-27 14:42:55.466025,-81
2021-12-27 14:42:55.466031,-60
2021-12-27 14:42:55.466037,-53
2021-12-27 14:42:55.466043,-48
2021-12-27 14:42:55.466049,-39
2021-12-27 14:42:55.466055,-32
2021-12-27 14:42:55.758408,-18
2021-12-27 14:42:55.758438,2
2021-12-27 14:42:55.758449,4
2021-12-27 14:42:55.758459,6
2021-12-27 14:42:55.758469,23
2021-12-27 14:42:55.758478,13
2021-12-27 14:42:55.758488,-13
2021-12-27 14:42:55.758497,-2
2021-12-27 14:42:55.758506,16
2021-12-27 14:42:55.758516,2
2021-12-27 14:42:55.758525,0
2021-12-27 14:42:55.758535,-11
2021-12-27 14:42:55.758545,-53
2021-12-27 14:42:55.758554,-62
2021-12-27 14:42:55.758564,-55
2021-12-27 14:42:55.758573,-97
2021-12-27 14:42:55.758582,-127
2021-12-27 14:42:55.758592,-113
2021-12-27 14:42:55.758601,-145
2021-12-27 14:42:55.758611,-192
2021-12-27 14:42:55.758620,-9
2021-12-27 14:42:55.758630,590
2021-12-27 14:42:55.758639,1416
2021-12-27 14:42:55.758648,1951
2021-12-27 14:42:55.758658,1303
2021-12-27 14:42:55.758667,-465
2021-12-27 14:42:55.758677,-1234
2021-12-27 14:42:55.758686,-495
2021-12-27 14:42:55.758696,-162
2021-12-27 14:42:55.758705,-361
2021-12-27 14:42:56.049393,-215
2021-12-27 14:42:56.049424,-81
2021-12-27 14:42:56.049435,-152
2021-12-27 14:42:56.049445,-122
2021-12-27 14:42:56.049455,-43
2021-12-27 14:42:56.049464,-37
2021-12-27 14:42:56.049474,-30
2021-12-27 14:42:56.049483,-27
2021-12-27 14:42:56.049493,-41
2021-12-27 14:42:56.049502,-20
2021-12-27 14:42:56.049512,18
2021-12-27 14:42:56.049521,53
2021-12-27 14:42:56.049531,81
2021-12-27 14:42:56.049541,78
2021-12-27 14:42:56.049550,57
2021-12-27 14:42:56.049560,83
2021-12-27 14:42:56.049569,145
2021-12-27 14:42:56.049579,178
2021-12-27 14:42:56.049588,185
2021-12-27 14:42:56.049598,194
2021-12-27 14:42:56.049607,185
2021-12-27 14:42:56.049617,166
2021-12-27 14:42:56.049627,189
2021-12-27 14:42:56.049636,219
2021-12-27 14:42:56.049646,215
2021-12-27 14:42:56.049655,210
2021-12-27 14:42:56.049665,185
2021-12-27 14:42:56.049674,108
2021-12-27 14:42:56.049684,34
2021-12-27 14:42:56.049694,-16
2021-12-27 14:42:56.196434,-74
2021-12-27 14:42:56.196450,-118
2021-12-27 14:42:56.196456,-145
2021-12-27 14:42:56.196461,-175
2021-12-27 14:42:56.196466,-201
2021-12-27 14:42:56.196471,-236
2021-12-27 14:42:56.196476,-247
2021-12-27 14:42:56.196481,-210
2021-12-27 14:42:56.196486,-187
2021-12-27 14:42:56.196491,-215
2021-12-27 14:42:56.196496,-196
2021-12-27 14:42:56.196500,-125
2021-12-27 14:42:56.196505,-108
2021-12-27 14:42:56.196510,-131
2021-12-27 14:42:56.196515,-120
2021-12-27 14:42:56.196520,-122
2021-12-27 14:42:56.196525,-148
2021-12-27 14:42:56.196530,-127
2021-12-27 14:42:56.196535,-71
2021-12-27 14:42:56.196539,-53
2021-12-27 14:42:56.196544,-85
2021-12-27 14:42:56.196549,-131
2021-12-27 14:42:56.196554,-99
2021-12-27 14:42:56.196559,-4
2021-12-27 14:42:56.196564,32
2021-12-27 14:42:56.196569,30
2021-12-27 14:42:56.196574,48
2021-12-27 14:42:56.196578,41
2021-12-27 14:42:56.196583,11
2021-12-27 14:42:56.196588,18
2021-12-27 14:42:56.391282,57
2021-12-27 14:42:56.391299,76
2021-12-27 14:42:56.391305,76
2021-12-27 14:42:56.391310,71
2021-12-27 14:42:56.391315,64
2021-12-27 14:42:56.391320,64
2021-12-27 14:42:56.391325,85
2021-12-27 14:42:56.391330,97
2021-12-27 14:42:56.391335,83
2021-12-27 14:42:56.391340,67
2021-12-27 14:42:56.391345,34
2021-12-27 14:42:56.391353,-4
2021-12-27 14:42:56.391358,-4
2021-12-27 14:42:56.391363,-13
2021-12-27 14:42:56.391368,-60
2021-12-27 14:42:56.391373,-67
2021-12-27 14:42:56.391378,-83
2021-12-27 14:42:56.391383,-173
2021-12-27 14:42:56.391387,-74
2021-12-27 14:42:56.391392,516
2021-12-27 14:42:56.391398,1403
2021-12-27 14:42:56.391402,2067
2021-12-27 14:42:56.391408,1697
2021-12-27 14:42:56.391413,-55
2021-12-27 14:42:56.391418,-1282
2021-12-27 14:42:56.391422,-720
2021-12-27 14:42:56.391427,-256
2021-12-27 14:42:56.391432,-534
2021-12-27 14:42:56.391437,-435
2021-12-27 14:42:56.391442,-229
2021-12-27 14:42:56.635132,-328
2021-12-27 14:42:56.635153,-324
2021-12-27 14:42:56.635160,-199
2021-12-27 14:42:56.635167,-199
2021-12-27 14:42:56.635173,-213
2021-12-27 14:42:56.635179,-148
2021-12-27 14:42:56.635185,-127
2021-12-27 14:42:56.635191,-138
2021-12-27 14:42:56.635198,-99
2021-12-27 14:42:56.635204,-50
2021-12-27 14:42:56.635210,-27
2021-12-27 14:42:56.635216,2
2021-12-27 14:42:56.635223,25
2021-12-27 14:42:56.635229,37
2021-12-27 14:42:56.635235,64
2021-12-27 14:42:56.635241,99
2021-12-27 14:42:56.635247,129
2021-12-27 14:42:56.635254,166
2021-12-27 14:42:56.635260,189
2021-12-27 14:42:56.635266,194
2021-12-27 14:42:56.635272,196
2021-12-27 14:42:56.635278,201
2021-12-27 14:42:56.635284,210
2021-12-27 14:42:56.635290,203
2021-12-27 14:42:56.635296,141
2021-12-27 14:42:56.635303,55
2021-12-27 14:42:56.635309,-6
2021-12-27 14:42:56.635315,-74
2021-12-27 14:42:56.635321,-134
2021-12-27 14:42:56.635327,-159
2021-12-27 14:42:56.831038,-182
2021-12-27 14:42:56.831058,-210
2021-12-27 14:42:56.831065,-215
2021-12-27 14:42:56.831072,-196
2021-12-27 14:42:56.831078,-173
2021-12-27 14:42:56.831084,-152
2021-12-27 14:42:56.831090,-131
2021-12-27 14:42:56.831096,-131
2021-12-27 14:42:56.831102,-145
2021-12-27 14:42:56.831109,-145
2021-12-27 14:42:56.831115,-120
2021-12-27 14:42:56.831121,-90
2021-12-27 14:42:56.831127,-67
2021-12-27 14:42:56.831133,-64
2021-12-27 14:42:56.831139,-92
2021-12-27 14:42:56.831146,-108
2021-12-27 14:42:56.831152,-85
2021-12-27 14:42:56.831158,-69
2021-12-27 14:42:56.831164,-87
2021-12-27 14:42:56.831170,-129
2021-12-27 14:42:56.831176,-157
2021-12-27 14:42:56.831182,-150
2021-12-27 14:42:56.831188,-134
2021-12-27 14:42:56.831195,-118
2021-12-27 14:42:56.831201,-97
2021-12-27 14:42:56.831207,-94
2021-12-27 14:42:56.831213,-125
2021-12-27 14:42:56.831219,-138
2021-12-27 14:42:56.831225,-104
2021-12-27 14:42:56.831231,-67
2021-12-27 14:42:57.074176,-50
2021-12-27 14:42:57.074251,-27
2021-12-27 14:42:57.074265,-25
2021-12-27 14:42:57.074272,-67
2021-12-27 14:42:57.074278,-83
2021-12-27 14:42:57.074285,-48
2021-12-27 14:42:57.074291,-37
2021-12-27 14:42:57.074297,-41
2021-12-27 14:42:57.074303,-48
2021-12-27 14:42:57.074309,-85
2021-12-27 14:42:57.074316,-106
2021-12-27 14:42:57.074322,-67
2021-12-27 14:42:57.074328,-34
2021-12-27 14:42:57.074334,-39
2021-12-27 14:42:57.074341,-60
2021-12-27 14:42:57.074347,-127
2021-12-27 14:42:57.074353,-81
2021-12-27 14:42:57.074359,423
2021-12-27 14:42:57.074366,1326
2021-12-27 14:42:57.074372,2118
2021-12-27 14:42:57.074378,1986
2021-12-27 14:42:57.074384,344
2021-12-27 14:42:57.074390,-1155
2021-12-27 14:42:57.074397,-766
2021-12-27 14:42:57.074403,-74
2021-12-27 14:42:57.074409,-243
2021-12-27 14:42:57.074415,-247
2021-12-27 14:42:57.074422,-39
2021-12-27 14:42:57.074428,-129
2021-12-27 14:42:57.074434,-217
2021-12-27 14:42:57.318550,-129
2021-12-27 14:42:57.318572,-113
2021-12-27 14:42:57.318579,-162
2021-12-27 14:42:57.318585,-141
2021-12-27 14:42:57.318591,-101
2021-12-27 14:42:57.318598,-78
2021-12-27 14:42:57.318604,-27
2021-12-27 14:42:57.318610,37
2021-12-27 14:42:57.318616,87
2021-12-27 14:42:57.318623,115
2021-12-27 14:42:57.318629,122
2021-12-27 14:42:57.318635,115
2021-12-27 14:42:57.318641,131
2021-12-27 14:42:57.318647,180
2021-12-27 14:42:57.318653,219
2021-12-27 14:42:57.318660,229
2021-12-27 14:42:57.318666,238
2021-12-27 14:42:57.318672,243
2021-12-27 14:42:57.318678,236
2021-12-27 14:42:57.318684,233
2021-12-27 14:42:57.318690,238
2021-12-27 14:42:57.318697,222
2021-12-27 14:42:57.318703,189
2021-12-27 14:42:57.318709,134
2021-12-27 14:42:57.318715,30
2021-12-27 14:42:57.318721,-92
2021-12-27 14:42:57.318727,-162
2021-12-27 14:42:57.318734,-187
2021-12-27 14:42:57.318740,-213
2021-12-27 14:42:57.318746,-236
2021-12-27 14:42:57.562135,-252
2021-12-27 14:42:57.562165,-245
2021-12-27 14:42:57.562176,-219
2021-12-27 14:42:57.562186,-203
2021-12-27 14:42:57.562195,-182
2021-12-27 14:42:57.562205,-152
2021-12-27 14:42:57.562214,-159
2021-12-27 14:42:57.562223,-180
2021-12-27 14:42:57.562237,-159
2021-12-27 14:42:57.562247,-134
2021-12-27 14:42:57.562256,-125
2021-12-27 14:42:57.562266,-101
2021-12-27 14:42:57.562275,-92
2021-12-27 14:42:57.562284,-118
2021-12-27 14:42:57.562294,-127
2021-12-27 14:42:57.562303,-106
2021-12-27 14:42:57.562313,-92
2021-12-27 14:42:57.562322,-81
2021-12-27 14:42:57.562331,-67
2021-12-27 14:42:57.562341,-67
2021-12-27 14:42:57.562350,-74
2021-12-27 14:42:57.562360,-69
2021-12-27 14:42:57.562370,-57
2021-12-27 14:42:57.562379,-41
2021-12-27 14:42:57.562388,-27
2021-12-27 14:42:57.562398,-25
2021-12-27 14:42:57.562407,-32
2021-12-27 14:42:57.562417,-39
2021-12-27 14:42:57.562426,-27
2021-12-27 14:42:57.562436,4
2021-12-27 14:42:57.805890,30
2021-12-27 14:42:57.805919,25
2021-12-27 14:42:57.805930,2
2021-12-27 14:42:57.805940,-6
2021-12-27 14:42:57.805950,13
2021-12-27 14:42:57.805959,32
2021-12-27 14:42:57.805968,34
2021-12-27 14:42:57.805977,27
2021-12-27 14:42:57.805987,-4
2021-12-27 14:42:57.805996,-50
2021-12-27 14:42:57.806005,-53
2021-12-27 14:42:57.806015,-27
2021-12-27 14:42:57.806024,-9
2021-12-27 14:42:57.806033,-2
2021-12-27 14:42:57.806043,-25
2021-12-27 14:42:57.806052,-78
2021-12-27 14:42:57.806061,-131
2021-12-27 14:42:57.806071,-138
2021-12-27 14:42:57.806080,97
2021-12-27 14:42:57.806089,791
2021-12-27 14:42:57.806099,1692
2021-12-27 14:42:57.806108,2174
2021-12-27 14:42:57.806117,1305
2021-12-27 14:42:57.806127,-648
2021-12-27 14:42:57.806136,-1349
2021-12-27 14:42:57.806145,-495
2021-12-27 14:42:57.806155,-208
2021-12-27 14:42:57.806164,-428
2021-12-27 14:42:57.806174,-185
2021-12-27 14:42:57.806183,-34
2021-12-27 14:42:58.145395,-250
2021-12-27 14:42:58.145418,-280
2021-12-27 14:42:58.145425,-120
2021-12-27 14:42:58.145432,-129
2021-12-27 14:42:58.145438,-201
2021-12-27 14:42:58.145444,-185
2021-12-27 14:42:58.145451,-224
2021-12-27 14:42:58.145457,-261
2021-12-27 14:42:58.145463,-134
2021-12-27 14:42:58.145469,-6
2021-12-27 14:42:58.145475,-32
2021-12-27 14:42:58.145482,-43
2021-12-27 14:42:58.145488,32
2021-12-27 14:42:58.145494,78
2021-12-27 14:42:58.145500,90
2021-12-27 14:42:58.145506,106
2021-12-27 14:42:58.145512,101
2021-12-27 14:42:58.145519,97
2021-12-27 14:42:58.145525,127
2021-12-27 14:42:58.145531,155
2021-12-27 14:42:58.145537,152
2021-12-27 14:42:58.145543,145
2021-12-27 14:42:58.145549,141
2021-12-27 14:42:58.145555,127
2021-12-27 14:42:58.145561,106
2021-12-27 14:42:58.145568,62
2021-12-27 14:42:58.145574,-2
2021-12-27 14:42:58.145580,-74
2021-12-27 14:42:58.145586,-134
2021-12-27 14:42:58.145593,-175
2021-12-27 14:42:58.293260,-192
2021-12-27 14:42:58.293289,-189
2021-12-27 14:42:58.293301,-192
2021-12-27 14:42:58.293311,-192
2021-12-27 14:42:58.293320,-171
2021-12-27 14:42:58.293330,-157
2021-12-27 14:42:58.293339,-169
2021-12-27 14:42:58.293348,-159
2021-12-27 14:42:58.293358,-120
2021-12-27 14:42:58.293367,-101
2021-12-27 14:42:58.293377,-108
2021-12-27 14:42:58.293386,-122
2021-12-27 14:42:58.293396,-138
2021-12-27 14:42:58.293405,-125
2021-12-27 14:42:58.293415,-108
2021-12-27 14:42:58.293424,-125
2021-12-27 14:42:58.293433,-122
2021-12-27 14:42:58.293443,-99
2021-12-27 14:42:58.293452,-113
2021-12-27 14:42:58.293462,-118
2021-12-27 14:42:58.293471,-90
2021-12-27 14:42:58.293481,-97
2021-12-27 14:42:58.293490,-106
2021-12-27 14:42:58.293500,-104
2021-12-27 14:42:58.293509,-104
2021-12-27 14:42:58.293519,-87
2021-12-27 14:42:58.293528,-71
2021-12-27 14:42:58.293537,-71
2021-12-27 14:42:58.293547,-53
2021-12-27 14:42:58.293556,-11
2021-12-27 14:42:58.488234,-9
2021-12-27 14:42:58.488263,-50
2021-12-27 14:42:58.488275,-62
2021-12-27 14:42:58.488285,-32
2021-12-27 14:42:58.488294,-23
2021-12-27 14:42:58.488304,-37
2021-12-27 14:42:58.488313,-64
2021-12-27 14:42:58.488323,-85
2021-12-27 14:42:58.488332,-90
2021-12-27 14:42:58.488341,-94
2021-12-27 14:42:58.488351,-76
2021-12-27 14:42:58.488360,-43
2021-12-27 14:42:58.488370,-37
2021-12-27 14:42:58.488379,-53
2021-12-27 14:42:58.488389,-71
2021-12-27 14:42:58.488398,-87
2021-12-27 14:42:58.488407,-92
2021-12-27 14:42:58.488417,-113
2021-12-27 14:42:58.488426,-199
2021-12-27 14:42:58.488436,-250
2021-12-27 14:42:58.488445,-173
2021-12-27 14:42:58.488454,-111
2021-12-27 14:42:58.488464,-138
2021-12-27 14:42:58.488473,-150
2021-12-27 14:42:58.488483,-173
2021-12-27 14:42:58.488492,-169
2021-12-27 14:42:58.488502,175
2021-12-27 14:42:58.488511,896
2021-12-27 14:42:58.488521,1634
2021-12-27 14:42:58.488530,1794
2021-12-27 14:42:58.780917,530
2021-12-27 14:42:58.780947,-1118
2021-12-27 14:42:58.780958,-1067
2021-12-27 14:42:58.780968,-284
2021-12-27 14:42:58.780978,-296
2021-12-27 14:42:58.780987,-375
2021-12-27 14:42:58.780997,-187
2021-12-27 14:42:58.781006,-210
2021-12-27 14:42:58.781016,-300
2021-12-27 14:42:58.781025,-259
2021-12-27 14:42:58.781035,-240
2021-12-27 14:42:58.781044,-229
2021-12-27 14:42:58.781054,-145
2021-12-27 14:42:58.781063,-83
2021-12-27 14:42:58.781073,-67
2021-12-27 14:42:58.781082,-78
2021-12-27 14:42:58.781092,-138
2021-12-27 14:42:58.781101,-129
2021-12-27 14:42:58.781111,11
2021-12-27 14:42:58.781120,122
2021-12-27 14:42:58.781130,113
2021-12-27 14:42:58.781140,94
2021-12-27 14:42:58.781149,129
2021-12-27 14:42:58.781163,178
2021-12-27 14:42:58.781173,199
2021-12-27 14:42:58.781183,206
2021-12-27 14:42:58.781192,213
2021-12-27 14:42:58.781202,199
2021-12-27 14:42:58.781211,210
2021-12-27 14:42:58.781221,268
2021-12-27 14:42:58.975075,284
2021-12-27 14:42:58.975093,247
2021-12-27 14:42:58.975099,199
2021-12-27 14:42:58.975104,136
2021-12-27 14:42:58.975138,9
2021-12-27 14:42:58.975144,-118
2021-12-27 14:42:58.975150,-120
2021-12-27 14:42:58.975154,-71
2021-12-27 14:42:58.975159,-122
2021-12-27 14:42:58.975164,-201
2021-12-27 14:42:58.975169,-233
2021-12-27 14:42:58.975174,-270
2021-12-27 14:42:58.975179,-243
2021-12-27 14:42:58.975184,-175
2021-12-27 14:42:58.975189,-256
2021-12-27 14:42:58.975194,-351
2021-12-27 14:42:58.975199,-171
2021-12-27 14:42:58.975203,9
2021-12-27 14:42:58.975208,-90
2021-12-27 14:42:58.975213,-118
2021-12-27 14:42:58.975221,-6
2021-12-27 14:42:58.975230,-108
2021-12-27 14:42:58.975238,-280
2021-12-27 14:42:58.975259,-238
2021-12-27 14:42:58.975308,-201
2021-12-27 14:42:58.975320,-259
2021-12-27 14:42:58.975325,-231
2021-12-27 14:42:58.975330,-169
2021-12-27 14:42:58.975335,-145
2021-12-27 14:42:58.975339,-71
2021-12-27 14:42:59.170668,71
2021-12-27 14:42:59.170688,113
2021-12-27 14:42:59.170695,41
2021-12-27 14:42:59.170702,46
2021-12-27 14:42:59.170708,99
2021-12-27 14:42:59.170714,101
2021-12-27 14:42:59.170720,55
2021-12-27 14:42:59.170726,32
2021-12-27 14:42:59.170732,101
2021-12-27 14:42:59.170738,131
2021-12-27 14:42:59.170744,120
2021-12-27 14:42:59.170750,164
2021-12-27 14:42:59.170757,155
2021-12-27 14:42:59.170763,85
2021-12-27 14:42:59.170769,55
2021-12-27 14:42:59.170775,30
2021-12-27 14:42:59.170781,6
2021-12-27 14:42:59.170788,37
2021-12-27 14:42:59.170794,55
2021-12-27 14:42:59.170800,32
2021-12-27 14:42:59.170806,6
2021-12-27 14:42:59.170812,16
2021-12-27 14:42:59.170818,43
2021-12-27 14:42:59.170824,11
2021-12-27 14:42:59.170831,-60
2021-12-27 14:42:59.170837,-60
2021-12-27 14:42:59.170843,-18
2021-12-27 14:42:59.170849,-43
2021-12-27 14:42:59.170855,-127
2021-12-27 14:42:59.170861,-113
2021-12-27 14:42:59.463494,4
2021-12-27 14:42:59.463524,2
2021-12-27 14:42:59.463535,-122
2021-12-27 14:42:59.463545,-187
2021-12-27 14:42:59.463555,81
2021-12-27 14:42:59.463565,942
2021-12-27 14:42:59.463574,1905
2021-12-27 14:42:59.463584,2120
2021-12-27 14:42:59.463593,981
2021-12-27 14:42:59.463603,-768
2021-12-27 14:42:59.463612,-1069
2021-12-27 14:42:59.463622,-252
2021-12-27 14:42:59.463631,-127
2021-12-27 14:42:59.463641,-342
2021-12-27 14:42:59.463650,-145
2021-12-27 14:42:59.463660,39
2021-12-27 14:42:59.463669,-37
2021-12-27 14:42:59.463679,-48
2021-12-27 14:42:59.463688,-6
2021-12-27 14:42:59.463698,-83
2021-12-27 14:42:59.463707,-94
2021-12-27 14:42:59.463717,-39
2021-12-27 14:42:59.463726,-32
2021-12-27 14:42:59.463736,32
2021-12-27 14:42:59.463745,120
2021-12-27 14:42:59.463755,129
2021-12-27 14:42:59.463765,138
2021-12-27 14:42:59.463774,189
2021-12-27 14:42:59.463783,219
2021-12-27 14:42:59.463795,231
2021-12-27 14:42:59.609701,291
2021-12-27 14:42:59.609732,342
2021-12-27 14:42:59.609743,310
2021-12-27 14:42:59.609753,296
2021-12-27 14:42:59.609762,342
2021-12-27 14:42:59.609771,363
2021-12-27 14:42:59.609781,372
2021-12-27 14:42:59.609790,391
2021-12-27 14:42:59.609800,368
2021-12-27 14:42:59.609809,291
2021-12-27 14:42:59.609819,231
2021-12-27 14:42:59.609828,206
2021-12-27 14:42:59.609837,138
2021-12-27 14:42:59.609847,67
2021-12-27 14:42:59.609856,43
2021-12-27 14:42:59.609865,-18
2021-12-27 14:42:59.609875,-127
2021-12-27 14:42:59.609884,-192
2021-12-27 14:42:59.609894,-247
2021-12-27 14:42:59.609903,-236
2021-12-27 14:42:59.609912,-222
2021-12-27 14:42:59.609922,-377
2021-12-27 14:42:59.609931,-398
2021-12-27 14:42:59.609941,-206
2021-12-27 14:42:59.609950,-136
2021-12-27 14:42:59.609960,-76
2021-12-27 14:42:59.609969,23
2021-12-27 14:42:59.609978,-145
2021-12-27 14:42:59.609988,-294
2021-12-27 14:42:59.609997,-60
2021-12-27 14:42:59.853459,115
2021-12-27 14:42:59.853480,-16
2021-12-27 14:42:59.853487,-64
2021-12-27 14:42:59.853493,39
2021-12-27 14:42:59.853500,18
2021-12-27 14:42:59.853506,-41
2021-12-27 14:42:59.853512,16
2021-12-27 14:42:59.853518,57
2021-12-27 14:42:59.853524,34
2021-12-27 14:42:59.853530,41
2021-12-27 14:42:59.853536,23
2021-12-27 14:42:59.853543,-37
2021-12-27 14:42:59.853549,-18
2021-12-27 14:42:59.853555,11
2021-12-27 14:42:59.853561,-48
2021-12-27 14:42:59.853567,-55
2021-12-27 14:42:59.853573,-2
2021-12-27 14:42:59.853579,-18
2021-12-27 14:42:59.853585,-50
2021-12-27 14:42:59.853591,-34
2021-12-27 14:42:59.853598,-37
2021-12-27 14:42:59.853604,-71
2021-12-27 14:42:59.853610,-131
2021-12-27 14:42:59.853616,-187
2021-12-27 14:42:59.853622,-155
2021-12-27 14:42:59.853628,-120
2021-12-27 14:42:59.853634,-157
2021-12-27 14:42:59.853640,-159
2021-12-27 14:42:59.853646,-120
2021-12-27 14:42:59.853652,-134
2021-12-27 14:43:00.193208,-171
2021-12-27 14:43:00.193237,-155
2021-12-27 14:43:00.193249,-131
2021-12-27 14:43:00.193258,-141
2021-12-27 14:43:00.193268,-97
2021-12-27 14:43:00.193277,-81
2021-12-27 14:43:00.193287,-224
2021-12-27 14:43:00.193296,-284
2021-12-27 14:43:00.193306,-37
2021-12-27 14:43:00.193315,527
2021-12-27 14:43:00.193325,1393
2021-12-27 14:43:00.193334,2171
2021-12-27 14:43:00.193343,1780
2021-12-27 14:43:00.193353,-134
2021-12-27 14:43:00.193362,-1447
2021-12-27 14:43:00.193372,-831
2021-12-27 14:43:00.193381,-224
2021-12-27 14:43:00.193391,-409
2021-12-27 14:43:00.193400,-296
2021-12-27 14:43:00.193409,-16
2021-12-27 14:43:00.193419,-11
2021-12-27 14:43:00.193428,-27
2021-12-27 14:43:00.193438,-41
2021-12-27 14:43:00.193447,-145
2021-12-27 14:43:00.193456,-231
2021-12-27 14:43:00.193466,-240
2021-12-27 14:43:00.193475,-189
2021-12-27 14:43:00.193485,-85
2021-12-27 14:43:00.193494,23
2021-12-27 14:43:00.193508,76
2021-12-27 14:43:00.292132,122
2021-12-27 14:43:00.292155,171
2021-12-27 14:43:00.292162,180
2021-12-27 14:43:00.292168,164
2021-12-27 14:43:00.292175,141
2021-12-27 14:43:00.292181,157
2021-12-27 14:43:00.292187,173
2021-12-27 14:43:00.292193,127
2021-12-27 14:43:00.292199,99
2021-12-27 14:43:00.292205,148
2021-12-27 14:43:00.292212,185
2021-12-27 14:43:00.292218,173
2021-12-27 14:43:00.292224,196
2021-12-27 14:43:00.292230,208
2021-12-27 14:43:00.292237,108
2021-12-27 14:43:00.292243,18
2021-12-27 14:43:00.292249,32
2021-12-27 14:43:00.292255,60
2021-12-27 14:43:00.292261,74
2021-12-27 14:43:00.292268,41
2021-12-27 14:43:00.292274,-129
2021-12-27 14:43:00.292280,-287
2021-12-27 14:43:00.292286,-178
2021-12-27 14:43:00.292293,6
2021-12-27 14:43:00.292299,-90
2021-12-27 14:43:00.292305,-273
2021-12-27 14:43:00.292311,-159
2021-12-27 14:43:00.292317,16
2021-12-27 14:43:00.292324,13
2021-12-27 14:43:00.292330,-2
2021-12-27 14:43:00.536121,-106
2021-12-27 14:43:00.536151,-314
2021-12-27 14:43:00.536163,-305
2021-12-27 14:43:00.536173,-210
2021-12-27 14:43:00.536183,-307
2021-12-27 14:43:00.536192,-400
2021-12-27 14:43:00.536202,-317
2021-12-27 14:43:00.536211,-155
2021-12-27 14:43:00.536221,-106
2021-12-27 14:43:00.536230,-213
2021-12-27 14:43:00.536240,-263
2021-12-27 14:43:00.536249,-187
2021-12-27 14:43:00.536259,-217
2021-12-27 14:43:00.536268,-307
2021-12-27 14:43:00.536278,-245
2021-12-27 14:43:00.536287,-199
2021-12-27 14:43:00.536297,-273
2021-12-27 14:43:00.536306,-284
2021-12-27 14:43:00.536315,-217
2021-12-27 14:43:00.536325,-215
2021-12-27 14:43:00.536334,-240
2021-12-27 14:43:00.536344,-208
2021-12-27 14:43:00.536353,-196
2021-12-27 14:43:00.536363,-259
2021-12-27 14:43:00.536372,-266
2021-12-27 14:43:00.536382,-152
2021-12-27 14:43:00.536391,-125
2021-12-27 14:43:00.536401,-224
2021-12-27 14:43:00.536410,-194
2021-12-27 14:43:00.536420,-138
2021-12-27 14:43:00.827857,-169
2021-12-27 14:43:00.827887,-122
2021-12-27 14:43:00.827898,-118
2021-12-27 14:43:00.827908,-231
2021-12-27 14:43:00.827918,-270
2021-12-27 14:43:00.827928,-240
2021-12-27 14:43:00.827937,-206
2021-12-27 14:43:00.827947,-141
2021-12-27 14:43:00.827956,-106
2021-12-27 14:43:00.827966,-64
2021-12-27 14:43:00.827975,-43
2021-12-27 14:43:00.827985,-166
2021-12-27 14:43:00.827994,-50
2021-12-27 14:43:00.828004,724
2021-12-27 14:43:00.828013,1748
2021-12-27 14:43:00.828023,2243
2021-12-27 14:43:00.828032,1477
2021-12-27 14:43:00.828042,-384
2021-12-27 14:43:00.828051,-1245
2021-12-27 14:43:00.828061,-513
2021-12-27 14:43:00.828070,-152
2021-12-27 14:43:00.828080,-314
2021-12-27 14:43:00.828089,-90
2021-12-27 14:43:00.828099,76
2021-12-27 14:43:00.828109,-30
2021-12-27 14:43:00.828118,9
2021-12-27 14:43:00.828128,169
2021-12-27 14:43:00.828137,254
2021-12-27 14:43:00.828147,340
2021-12-27 14:43:00.828157,391
2021-12-27 14:43:01.023174,314
2021-12-27 14:43:01.023194,189
2021-12-27 14:43:01.023202,231
2021-12-27 14:43:01.023208,400
2021-12-27 14:43:01.023214,319
2021-12-27 14:43:01.023221,136
2021-12-27 14:43:01.023227,159
2021-12-27 14:43:01.023233,111
2021-12-27 14:43:01.023240,87
2021-12-27 14:43:01.023246,340
2021-12-27 14:43:01.023252,548
2021-12-27 14:43:01.023259,539
2021-12-27 14:43:01.023265,303
2021-12-27 14:43:01.023271,39
2021-12-27 14:43:01.023277,115
2021-12-27 14:43:01.023284,289
2021-12-27 14:43:01.023290,414
2021-12-27 14:43:01.023296,622
2021-12-27 14:43:01.023302,463
2021-12-27 14:43:01.023309,71
2021-12-27 14:43:01.023315,175
2021-12-27 14:43:01.023321,370
2021-12-27 14:43:01.023328,138
2021-12-27 14:43:01.023334,-23
2021-12-27 14:43:01.023340,48
2021-12-27 14:43:01.023347,48
2021-12-27 14:43:01.023353,-20
2021-12-27 14:43:01.023359,-23
2021-12-27 14:43:01.023365,-6
2021-12-27 14:43:01.023372,9
2021-12-27 14:43:01.315950,23
2021-12-27 14:43:01.315981,-18
2021-12-27 14:43:01.315992,-53
2021-12-27 14:43:01.316002,-37
2021-12-27 14:43:01.316012,-13
2021-12-27 14:43:01.316021,11
2021-12-27 14:43:01.316031,6
2021-12-27 14:43:01.316040,-2
2021-12-27 14:43:01.316049,-4
2021-12-27 14:43:01.316059,-53
2021-12-27 14:43:01.316068,-74
2021-12-27 14:43:01.316078,-25
2021-12-27 14:43:01.316087,-11
2021-12-27 14:43:01.316096,-32
2021-12-27 14:43:01.316106,-55
2021-12-27 14:43:01.316115,-101
2021-12-27 14:43:01.316125,-113
2021-12-27 14:43:01.316134,-92
2021-12-27 14:43:01.316144,-104
2021-12-27 14:43:01.316153,-122
2021-12-27 14:43:01.316163,-115
2021-12-27 14:43:01.316172,-127
2021-12-27 14:43:01.316181,-187
2021-12-27 14:43:01.316191,-192
2021-12-27 14:43:01.316200,-134
2021-12-27 14:43:01.316210,-136
2021-12-27 14:43:01.316219,-150
2021-12-27 14:43:01.316228,-129
2021-12-27 14:43:01.316238,-155
2021-12-27 14:43:01.316247,-178
2021-12-27 14:43:01.510780,-120
2021-12-27 14:43:01.510810,-69
2021-12-27 14:43:01.510904,-113
2021-12-27 14:43:01.510919,-185
2021-12-27 14:43:01.510929,-222
2021-12-27 14:43:01.510939,-259
2021-12-27 14:43:01.510948,-261
2021-12-27 14:43:01.510958,-224
2021-12-27 14:43:01.510968,-217
2021-12-27 14:43:01.510977,-252
2021-12-27 14:43:01.510987,-266
2021-12-27 14:43:01.510996,-236
2021-12-27 14:43:01.511006,-238
2021-12-27 14:43:01.511016,-296
2021-12-27 14:43:01.511025,-106
2021-12-27 14:43:01.511035,597
2021-12-27 14:43:01.511045,1511
2021-12-27 14:43:01.511054,2081
2021-12-27 14:43:01.511064,1430
2021-12-27 14:43:01.511073,-525
2021-12-27 14:43:01.511083,-1491
2021-12-27 14:43:01.511092,-632
2021-12-27 14:43:01.511102,-162
2021-12-27 14:43:01.511111,-467
2021-12-27 14:43:01.511121,-361
2021-12-27 14:43:01.511131,-138
2021-12-27 14:43:01.511140,-231
2021-12-27 14:43:01.511150,-252
2021-12-27 14:43:01.511159,-108
2021-12-27 14:43:01.511169,-74
2021-12-27 14:43:01.705588,-134
2021-12-27 14:43:01.705610,-129
2021-12-27 14:43:01.705616,-67
2021-12-27 14:43:01.705621,-13
2021-12-27 14:43:01.705627,0
2021-12-27 14:43:01.705632,-11
2021-12-27 14:43:01.705637,-4
2021-12-27 14:43:01.705642,39
2021-12-27 14:43:01.705647,64
2021-12-27 14:43:01.705652,94
2021-12-27 14:43:01.705656,164
2021-12-27 14:43:01.705661,164
2021-12-27 14:43:01.705666,138
2021-12-27 14:43:01.705671,201
2021-12-27 14:43:01.705676,189
2021-12-27 14:43:01.705681,81
2021-12-27 14:43:01.705686,53
2021-12-27 14:43:01.705691,92
2021-12-27 14:43:01.705696,115
2021-12-27 14:43:01.705701,97
2021-12-27 14:43:01.705706,13
2021-12-27 14:43:01.705711,-69
2021-12-27 14:43:01.705716,-104
2021-12-27 14:43:01.705721,-62
2021-12-27 14:43:01.705726,11
2021-12-27 14:43:01.705732,-57
2021-12-27 14:43:01.705736,-152
2021-12-27 14:43:01.705741,-115
2021-12-27 14:43:01.705750,-90
2021-12-27 14:43:01.705755,-138
2021-12-27 14:43:02.046287,-192
2021-12-27 14:43:02.046301,-229
2021-12-27 14:43:02.046306,-208
2021-12-27 14:43:02.046311,-97
2021-12-27 14:43:02.046315,16
2021-12-27 14:43:02.046319,32
2021-12-27 14:43:02.046324,-64
2021-12-27 14:43:02.046328,-173
2021-12-27 14:43:02.046332,-180
2021-12-27 14:43:02.046337,-159
2021-12-27 14:43:02.046341,-159
2021-12-27 14:43:02.046345,-69
2021-12-27 14:43:02.046350,9
2021-12-27 14:43:02.046354,-30
2021-12-27 14:43:02.046358,-37
2021-12-27 14:43:02.046363,-57
2021-12-27 14:43:02.046367,-208
2021-12-27 14:43:02.046371,-247
2021-12-27 14:43:02.046376,-138
2021-12-27 14:43:02.046380,-145
2021-12-27 14:43:02.046384,-250
2021-12-27 14:43:02.046389,-243
2021-12-27 14:43:02.046393,-134
2021-12-27 14:43:02.046397,-99
2021-12-27 14:43:02.046401,-143
2021-12-27 14:43:02.046406,-122
2021-12-27 14:43:02.046410,-67
2021-12-27 14:43:02.046414,-99
2021-12-27 14:43:02.046419,-169
2021-12-27 14:43:02.046423,-143
2021-12-27 14:43:02.241171,-53
2021-12-27 14:43:02.241192,-55
2021-12-27 14:43:02.241200,-125
2021-12-27 14:43:02.241206,-162
2021-12-27 14:43:02.241213,-157
2021-12-27 14:43:02.241219,-159
2021-12-27 14:43:02.241225,-159
2021-12-27 14:43:02.241231,-131
2021-12-27 14:43:02.241237,-138
2021-12-27 14:43:02.241244,-192
2021-12-27 14:43:02.241250,-196
2021-12-27 14:43:02.241256,-141
2021-12-27 14:43:02.241262,-111
2021-12-27 14:43:02.241268,-125
2021-12-27 14:43:02.241275,-120
2021-12-27 14:43:02.241281,131
2021-12-27 14:43:02.241287,824
2021-12-27 14:43:02.241294,1646
2021-12-27 14:43:02.241300,1856
2021-12-27 14:43:02.241306,713
2021-12-27 14:43:02.241313,-956
2021-12-27 14:43:02.241319,-1236
2021-12-27 14:43:02.241326,-564
2021-12-27 14:43:02.241332,-333
2021-12-27 14:43:02.241338,-261
2021-12-27 14:43:02.241344,-69
2021-12-27 14:43:02.241351,-18
2021-12-27 14:43:02.241357,-94
2021-12-27 14:43:02.241363,-127
2021-12-27 14:43:02.241369,-37
2021-12-27 14:43:02.437215,43
2021-12-27 14:43:02.437245,11
2021-12-27 14:43:02.437256,-16
2021-12-27 14:43:02.437266,39
2021-12-27 14:43:02.437276,74
2021-12-27 14:43:02.437285,43
2021-12-27 14:43:02.437294,48
2021-12-27 14:43:02.437304,101
2021-12-27 14:43:02.437313,113
2021-12-27 14:43:02.437322,69
2021-12-27 14:43:02.437332,25
2021-12-27 14:43:02.437341,62
2021-12-27 14:43:02.437351,199
2021-12-27 14:43:02.437360,310
2021-12-27 14:43:02.437370,291
2021-12-27 14:43:02.437379,243
2021-12-27 14:43:02.437389,252
2021-12-27 14:43:02.437398,238
2021-12-27 14:43:02.437407,199
2021-12-27 14:43:02.437417,143
2021-12-27 14:43:02.437426,46
2021-12-27 14:43:02.437436,-50
2021-12-27 14:43:02.437445,-148
2021-12-27 14:43:02.437455,-238
2021-12-27 14:43:02.437464,-254
2021-12-27 14:43:02.437474,-273
2021-12-27 14:43:02.437483,-340
2021-12-27 14:43:02.437493,-351
2021-12-27 14:43:02.437502,-317
2021-12-27 14:43:02.437511,-314
2021-12-27 14:43:02.681093,-310
2021-12-27 14:43:02.681116,-289
2021-12-27 14:43:02.681123,-273
2021-12-27 14:43:02.681130,-254
2021-12-27 14:43:02.681136,-213
2021-12-27 14:43:02.681143,-182
2021-12-27 14:43:02.681149,-219
2021-12-27 14:43:02.681155,-243
2021-12-27 14:43:02.681161,-162
2021-12-27 14:43:02.681168,-106
2021-12-27 14:43:02.681174,-150
2021-12-27 14:43:02.681180,-157
2021-12-27 14:43:02.681187,-118
2021-12-27 14:43:02.681193,-143
2021-12-27 14:43:02.681199,-178
2021-12-27 14:43:02.681205,-159
2021-12-27 14:43:02.681212,-134
2021-12-27 14:43:02.681218,-118
2021-12-27 14:43:02.681224,-118
2021-12-27 14:43:02.681230,-152
2021-12-27 14:43:02.681236,-166
2021-12-27 14:43:02.681243,-127
2021-12-27 14:43:02.681249,-90
2021-12-27 14:43:02.681255,-97
2021-12-27 14:43:02.681261,-101
2021-12-27 14:43:02.681268,-57
2021-12-27 14:43:02.681274,-39
2021-12-27 14:43:02.681280,-53
2021-12-27 14:43:02.681286,-32
2021-12-27 14:43:02.681293,-11
2021-12-27 14:43:02.827125,-43
2021-12-27 14:43:02.827146,-60
2021-12-27 14:43:02.827153,-39
2021-12-27 14:43:02.827160,-53
2021-12-27 14:43:02.827166,-90
2021-12-27 14:43:02.827172,-94
2021-12-27 14:43:02.827178,-118
2021-12-27 14:43:02.827185,-162
2021-12-27 14:43:02.827191,-164
2021-12-27 14:43:02.827197,-159
2021-12-27 14:43:02.827203,-189
2021-12-27 14:43:02.827209,-194
2021-12-27 14:43:02.827216,-155
2021-12-27 14:43:02.827222,-189
2021-12-27 14:43:02.827228,-229
2021-12-27 14:43:02.827234,78
2021-12-27 14:43:02.827241,821
2021-12-27 14:43:02.827247,1636
2021-12-27 14:43:02.827253,1933
2021-12-27 14:43:02.827259,842
2021-12-27 14:43:02.827265,-960
2021-12-27 14:43:02.827272,-1238
2021-12-27 14:43:02.827278,-421
2021-12-27 14:43:02.827284,-310
2021-12-27 14:43:02.827290,-409
2021-12-27 14:43:02.827296,-164
2021-12-27 14:43:02.827303,-108
2021-12-27 14:43:02.827309,-233
2021-12-27 14:43:02.827315,-213
2021-12-27 14:43:02.827321,-118
2021-12-27 14:43:03.118100,-85
2021-12-27 14:43:03.118116,-67
2021-12-27 14:43:03.118122,-43
2021-12-27 14:43:03.118127,-53
2021-12-27 14:43:03.118132,-46
2021-12-27 14:43:03.118137,18
2021-12-27 14:43:03.118142,87
2021-12-27 14:43:03.118147,134
2021-12-27 14:43:03.118151,131
2021-12-27 14:43:03.118156,83
2021-12-27 14:43:03.118161,81
2021-12-27 14:43:03.118166,152
2021-12-27 14:43:03.118171,203
2021-12-27 14:43:03.118176,215
2021-12-27 14:43:03.118181,250
2021-12-27 14:43:03.118186,319
2021-12-27 14:43:03.118191,335
2021-12-27 14:43:03.118196,338
2021-12-27 14:43:03.118201,393
2021-12-27 14:43:03.118206,333
2021-12-27 14:43:03.118211,182
2021-12-27 14:43:03.118216,150
2021-12-27 14:43:03.118221,118
2021-12-27 14:43:03.118226,62
2021-12-27 14:43:03.118231,118
2021-12-27 14:43:03.118235,136
2021-12-27 14:43:03.118240,20
2021-12-27 14:43:03.118245,-46
2021-12-27 14:43:03.118250,-32
2021-12-27 14:43:03.118255,-57
2021-12-27 14:43:03.313972,-129
2021-12-27 14:43:03.313993,-92
2021-12-27 14:43:03.314001,50
2021-12-27 14:43:03.314007,69
2021-12-27 14:43:03.314014,9
2021-12-27 14:43:03.314020,25
2021-12-27 14:43:03.314026,25
2021-12-27 14:43:03.314032,9
2021-12-27 14:43:03.314038,55
2021-12-27 14:43:03.314045,92
2021-12-27 14:43:03.314051,76
2021-12-27 14:43:03.314057,48
2021-12-27 14:43:03.314063,30
2021-12-27 14:43:03.314069,11
2021-12-27 14:43:03.314076,4
2021-12-27 14:43:03.314082,41
2021-12-27 14:43:03.314088,81
2021-12-27 14:43:03.314094,50
2021-12-27 14:43:03.314101,23
2021-12-27 14:43:03.314107,20
2021-12-27 14:43:03.314113,-4
2021-12-27 14:43:03.314120,-11
2021-12-27 14:43:03.314126,18
2021-12-27 14:43:03.314132,6
2021-12-27 14:43:03.314138,-23
2021-12-27 14:43:03.314145,-41
2021-12-27 14:43:03.314151,-90
2021-12-27 14:43:03.314157,-43
2021-12-27 14:43:03.314163,92
2021-12-27 14:43:03.314170,118
2021-12-27 14:43:03.607160,87
2021-12-27 14:43:03.607192,99
2021-12-27 14:43:03.607203,30
2021-12-27 14:43:03.607213,-69
2021-12-27 14:43:03.607222,-90
2021-12-27 14:43:03.607232,-152
2021-12-27 14:43:03.607241,-215
2021-12-27 14:43:03.607250,-136
2021-12-27 14:43:03.607293,-99
2021-12-27 14:43:03.607302,-194
2021-12-27 14:43:03.607312,-219
2021-12-27 14:43:03.607321,-169
2021-12-27 14:43:03.607331,-226
2021-12-27 14:43:03.607340,-206
2021-12-27 14:43:03.607349,296
2021-12-27 14:43:03.607359,1187
2021-12-27 14:43:03.607368,1940
2021-12-27 14:43:03.607378,1757
2021-12-27 14:43:03.607387,90
2021-12-27 14:43:03.607397,-1322
2021-12-27 14:43:03.607406,-889
2021-12-27 14:43:03.607416,-319
2021-12-27 14:43:03.607425,-502
2021-12-27 14:43:03.607439,-384
2021-12-27 14:43:03.607448,-113
2021-12-27 14:43:03.607458,-141
2021-12-27 14:43:03.607467,-150
2021-12-27 14:43:03.607477,-83
2021-12-27 14:43:03.607486,-173
2021-12-27 14:43:03.607496,-282
2021-12-27 14:43:03.753153,-219
2021-12-27 14:43:03.753175,-131
2021-12-27 14:43:03.753183,-150
2021-12-27 14:43:03.753189,-134
2021-12-27 14:43:03.753195,-41
2021-12-27 14:43:03.753202,13
2021-12-27 14:43:03.753208,46
2021-12-27 14:43:03.753214,108
2021-12-27 14:43:03.753220,125
2021-12-27 14:43:03.753226,108
2021-12-27 14:43:03.753233,157
2021-12-27 14:43:03.753239,238
2021-12-27 14:43:03.753245,321
2021-12-27 14:43:03.753252,416
2021-12-27 14:43:03.753258,437
2021-12-27 14:43:03.753264,386
2021-12-27 14:43:03.753270,368
2021-12-27 14:43:03.753276,347
2021-12-27 14:43:03.753282,282
2021-12-27 14:43:03.753288,254
2021-12-27 14:43:03.753295,226
2021-12-27 14:43:03.753301,122
2021-12-27 14:43:03.753307,-2
2021-12-27 14:43:03.753313,-87
2021-12-27 14:43:03.753319,-125
2021-12-27 14:43:03.753326,-122
2021-12-27 14:43:03.753332,-152
2021-12-27 14:43:03.753338,-208
2021-12-27 14:43:03.753344,-199
2021-12-27 14:43:03.753350,-145
2021-12-27 14:43:03.997088,-129
2021-12-27 14:43:03.997109,-118
2021-12-27 14:43:03.997117,-76
2021-12-27 14:43:03.997123,-67
2021-12-27 14:43:03.997129,-101
2021-12-27 14:43:03.997135,-113
2021-12-27 14:43:03.997142,-87
2021-12-27 14:43:03.997148,-62
2021-12-27 14:43:03.997154,-67
2021-12-27 14:43:03.997160,-111
2021-12-27 14:43:03.997166,-162
2021-12-27 14:43:03.997172,-162
2021-12-27 14:43:03.997179,-113
2021-12-27 14:43:03.997185,-85
2021-12-27 14:43:03.997191,-90
2021-12-27 14:43:03.997197,-94
2021-12-27 14:43:03.997203,-101
2021-12-27 14:43:03.997209,-101
2021-12-27 14:43:03.997215,-83
2021-12-27 14:43:03.997222,-60
2021-12-27 14:43:03.997228,-48
2021-12-27 14:43:03.997234,-43
2021-12-27 14:43:03.997240,-43
2021-12-27 14:43:03.997246,-41
2021-12-27 14:43:03.997252,-43
2021-12-27 14:43:03.997259,-53
2021-12-27 14:43:03.997265,-60
2021-12-27 14:43:03.997271,-48
2021-12-27 14:43:03.997277,-27
2021-12-27 14:43:03.997284,-20
2021-12-27 14:43:04.336206,-30
2021-12-27 14:43:04.336224,-27
2021-12-27 14:43:04.336231,-32
2021-12-27 14:43:04.336236,-55
2021-12-27 14:43:04.336241,-57
2021-12-27 14:43:04.336246,-60
2021-12-27 14:43:04.336251,-74
2021-12-27 14:43:04.336256,-48
2021-12-27 14:43:04.336261,-48
2021-12-27 14:43:04.336266,-118
2021-12-27 14:43:04.336271,-169
2021-12-27 14:43:04.336276,-106
2021-12-27 14:43:04.336281,284
2021-12-27 14:43:04.336286,1118
2021-12-27 14:43:04.336291,2005
2021-12-27 14:43:04.336296,2072
2021-12-27 14:43:04.336301,476
2021-12-27 14:43:04.336306,-1312
2021-12-27 14:43:04.336311,-1090
2021-12-27 14:43:04.336316,-254
2021-12-27 14:43:04.336321,-379
2021-12-27 14:43:04.336326,-439
2021-12-27 14:43:04.336331,-152
2021-12-27 14:43:04.336336,-138
2021-12-27 14:43:04.336341,-206
2021-12-27 14:43:04.336346,-125
2021-12-27 14:43:04.336351,-81
2021-12-27 14:43:04.336356,-101
2021-12-27 14:43:04.336361,-99
2021-12-27 14:43:04.336366,-87
2021-12-27 14:43:04.532730,-83
2021-12-27 14:43:04.532760,-53
2021-12-27 14:43:04.532771,0
2021-12-27 14:43:04.532781,34
2021-12-27 14:43:04.532790,62
2021-12-27 14:43:04.532800,111
2021-12-27 14:43:04.532809,162
2021-12-27 14:43:04.532818,171
2021-12-27 14:43:04.532828,162
2021-12-27 14:43:04.532837,189
2021-12-27 14:43:04.532846,229
2021-12-27 14:43:04.532856,226
2021-12-27 14:43:04.532865,238
2021-12-27 14:43:04.532875,287
2021-12-27 14:43:04.532884,259
2021-12-27 14:43:04.532893,178
2021-12-27 14:43:04.532903,173
2021-12-27 14:43:04.532912,189
2021-12-27 14:43:04.532921,157
2021-12-27 14:43:04.532931,106
2021-12-27 14:43:04.532940,-27
2021-12-27 14:43:04.532949,-203
2021-12-27 14:43:04.532959,-245
2021-12-27 14:43:04.532968,-203
2021-12-27 14:43:04.532978,-219
2021-12-27 14:43:04.532987,-247
2021-12-27 14:43:04.532997,-238
2021-12-27 14:43:04.533006,-213
2021-12-27 14:43:04.533015,-187
2021-12-27 14:43:04.533025,-203
2021-12-27 14:43:04.678839,-208
2021-12-27 14:43:04.678856,-157
2021-12-27 14:43:04.678862,-159
2021-12-27 14:43:04.678867,-180
2021-12-27 14:43:04.678872,-127
2021-12-27 14:43:04.678877,-83
2021-12-27 14:43:04.678882,-81
2021-12-27 14:43:04.678887,-74
2021-12-27 14:43:04.678892,-85
2021-12-27 14:43:04.678897,-111
2021-12-27 14:43:04.678902,-92
2021-12-27 14:43:04.678907,-50
2021-12-27 14:43:04.678912,-43
2021-12-27 14:43:04.678917,-34
2021-12-27 14:43:04.678922,-20
2021-12-27 14:43:04.678926,-53
2021-12-27 14:43:04.678931,-92
2021-12-27 14:43:04.678936,-57
2021-12-27 14:43:04.678941,-4
2021-12-27 14:43:04.678946,0
2021-12-27 14:43:04.678951,-25
2021-12-27 14:43:04.678956,-53
2021-12-27 14:43:04.678961,-41
2021-12-27 14:43:04.678966,11
2021-12-27 14:43:04.678971,30
2021-12-27 14:43:04.678976,25
2021-12-27 14:43:04.678981,53
2021-12-27 14:43:04.678986,81
2021-12-27 14:43:04.678991,60
2021-12-27 14:43:04.678995,11
2021-12-27 14:43:04.923373,-11
2021-12-27 14:43:04.923396,-18
2021-12-27 14:43:04.923403,-39
2021-12-27 14:43:04.923410,-53
2021-12-27 14:43:04.923416,-64
2021-12-27 14:43:04.923422,-83
2021-12-27 14:43:04.923428,-55
2021-12-27 14:43:04.923434,0
2021-12-27 14:43:04.923440,-46
2021-12-27 14:43:04.923447,-206
2021-12-27 14:43:04.923453,-182
2021-12-27 14:43:04.923459,338
2021-12-27 14:43:04.923465,1259
2021-12-27 14:43:04.923471,2141
2021-12-27 14:43:04.923477,2164
2021-12-27 14:43:04.923484,511
2021-12-27 14:43:04.923490,-1238
2021-12-27 14:43:04.923496,-983
2021-12-27 14:43:04.923502,-217
2021-12-27 14:43:04.923508,-395
2021-12-27 14:43:04.923514,-488
2021-12-27 14:43:04.923520,-270
2021-12-27 14:43:04.923526,-291
2021-12-27 14:43:04.923532,-349
2021-12-27 14:43:04.923539,-250
2021-12-27 14:43:04.923545,-189
2021-12-27 14:43:04.923551,-194
2021-12-27 14:43:04.923557,-175
2021-12-27 14:43:04.923563,-134
2021-12-27 14:43:04.923569,-99
2021-12-27 14:43:05.167056,-78
2021-12-27 14:43:05.167077,-43
2021-12-27 14:43:05.167084,11
2021-12-27 14:43:05.167091,9
2021-12-27 14:43:05.167097,-23
2021-12-27 14:43:05.167103,6
2021-12-27 14:43:05.167110,43
2021-12-27 14:43:05.167116,55
2021-12-27 14:43:05.167122,104
2021-12-27 14:43:05.167128,157
2021-12-27 14:43:05.167134,178
2021-12-27 14:43:05.167141,203
2021-12-27 14:43:05.167147,201
2021-12-27 14:43:05.167153,166
2021-12-27 14:43:05.167159,164
2021-12-27 14:43:05.167166,196
2021-12-27 14:43:05.167172,175
2021-12-27 14:43:05.167178,87
2021-12-27 14:43:05.167184,11
2021-12-27 14:43:05.167191,-41
2021-12-27 14:43:05.167197,-115
2021-12-27 14:43:05.167203,-178
2021-12-27 14:43:05.167210,-203
2021-12-27 14:43:05.167216,-208
2021-12-27 14:43:05.167222,-194
2021-12-27 14:43:05.167228,-178
2021-12-27 14:43:05.167234,-180
2021-12-27 14:43:05.167240,-199
2021-12-27 14:43:05.167247,-182
2021-12-27 14:43:05.167253,-122
2021-12-27 14:43:05.362240,-90
2021-12-27 14:43:05.362260,-104
2021-12-27 14:43:05.362267,-101
2021-12-27 14:43:05.362274,-78
2021-12-27 14:43:05.362280,-67
2021-12-27 14:43:05.362286,-76
2021-12-27 14:43:05.362293,-76
2021-12-27 14:43:05.362299,-87
2021-12-27 14:43:05.362305,-141
2021-12-27 14:43:05.362311,-155
2021-12-27 14:43:05.362317,-108
2021-12-27 14:43:05.362324,-83
2021-12-27 14:43:05.362330,-71
2021-12-27 14:43:05.362336,-74
2021-12-27 14:43:05.362342,-111
2021-12-27 14:43:05.362348,-129
2021-12-27 14:43:05.362354,-108
2021-12-27 14:43:05.362361,-87
2021-12-27 14:43:05.362367,-67
2021-12-27 14:43:05.362373,-48
2021-12-27 14:43:05.362379,-57
2021-12-27 14:43:05.362385,-74
2021-12-27 14:43:05.362392,-50
2021-12-27 14:43:05.362398,-13
2021-12-27 14:43:05.362404,0
2021-12-27 14:43:05.362410,-32
2021-12-27 14:43:05.362416,-81
2021-12-27 14:43:05.362422,-74
2021-12-27 14:43:05.362429,-30
2021-12-27 14:43:05.362435,-30
2021-12-27 14:43:05.653970,-50
2021-12-27 14:43:05.653990,-41
2021-12-27 14:43:05.653998,-43
2021-12-27 14:43:05.654004,-94
2021-12-27 14:43:05.654011,-113
2021-12-27 14:43:05.654017,-74
2021-12-27 14:43:05.654023,-55
2021-12-27 14:43:05.654029,-76
2021-12-27 14:43:05.654035,-90
2021-12-27 14:43:05.654041,-136
2021-12-27 14:43:05.654048,-252
2021-12-27 14:43:05.654054,-277
2021-12-27 14:43:05.654060,92
2021-12-27 14:43:05.654067,930
2021-12-27 14:43:05.654073,1873
2021-12-27 14:43:05.654079,2229
2021-12-27 14:43:05.654086,1021
2021-12-27 14:43:05.654101,-933
2021-12-27 14:43:05.654108,-1201
2021-12-27 14:43:05.654114,-340
2021-12-27 14:43:05.654123,-305
2021-12-27 14:43:05.654137,-500
2021-12-27 14:43:05.654151,-268
2021-12-27 14:43:05.654161,-187
2021-12-27 14:43:05.654171,-263
2021-12-27 14:43:05.654181,-187
2021-12-27 14:43:05.654193,-115
2021-12-27 14:43:05.654200,-136
2021-12-27 14:43:05.654206,-125
2021-12-27 14:43:05.654212,-83
2021-12-27 14:43:05.898262,-57
2021-12-27 14:43:05.898284,-27
2021-12-27 14:43:05.898292,4
2021-12-27 14:43:05.898298,23
2021-12-27 14:43:05.898305,27
2021-12-27 14:43:05.898311,20
2021-12-27 14:43:05.898317,50
2021-12-27 14:43:05.898323,106
2021-12-27 14:43:05.898329,134
2021-12-27 14:43:05.898335,127
2021-12-27 14:43:05.898342,129
2021-12-27 14:43:05.898348,155
2021-12-27 14:43:05.898354,187
2021-12-27 14:43:05.898360,217
2021-12-27 14:43:05.898366,236
2021-12-27 14:43:05.898372,233
2021-12-27 14:43:05.898378,224
2021-12-27 14:43:05.898385,194
2021-12-27 14:43:05.898391,129
2021-12-27 14:43:05.898397,76
2021-12-27 14:43:05.898403,25
2021-12-27 14:43:05.898409,-53
2021-12-27 14:43:05.898416,-113
2021-12-27 14:43:05.898422,-148
2021-12-27 14:43:05.898428,-180
2021-12-27 14:43:05.898434,-180
2021-12-27 14:43:05.898440,-157
2021-12-27 14:43:05.898446,-157
2021-12-27 14:43:05.898453,-148
2021-12-27 14:43:05.898459,-113
2021-12-27 14:43:06.093311,-118
2021-12-27 14:43:06.093332,-159
2021-12-27 14:43:06.093340,-150
2021-12-27 14:43:06.093346,-113
2021-12-27 14:43:06.093352,-101
2021-12-27 14:43:06.093359,-87
2021-12-27 14:43:06.093365,-81
2021-12-27 14:43:06.093371,-83
2021-12-27 14:43:06.093377,-71
2021-12-27 14:43:06.093384,-62
2021-12-27 14:43:06.093390,-62
2021-12-27 14:43:06.093396,-74
2021-12-27 14:43:06.093403,-111
2021-12-27 14:43:06.093409,-134
2021-12-27 14:43:06.093415,-127
2021-12-27 14:43:06.093422,-115
2021-12-27 14:43:06.093428,-101
2021-12-27 14:43:06.093434,-74
2021-12-27 14:43:06.093440,-69
2021-12-27 14:43:06.093447,-97
2021-12-27 14:43:06.093453,-108
2021-12-27 14:43:06.093459,-92
2021-12-27 14:43:06.093465,-76
2021-12-27 14:43:06.093471,-62
2021-12-27 14:43:06.093478,-43
2021-12-27 14:43:06.093484,-37
2021-12-27 14:43:06.093490,-43
2021-12-27 14:43:06.093496,-39
2021-12-27 14:43:06.093502,-18
2021-12-27 14:43:06.093508,6
2021-12-27 14:43:06.335922,20
2021-12-27 14:43:06.335952,27
2021-12-27 14:43:06.335964,30
2021-12-27 14:43:06.335974,25
2021-12-27 14:43:06.335983,27
2021-12-27 14:43:06.335993,39
2021-12-27 14:43:06.336002,37
2021-12-27 14:43:06.336012,16
2021-12-27 14:43:06.336021,-32
2021-12-27 14:43:06.336031,-74
2021-12-27 14:43:06.336040,-67
2021-12-27 14:43:06.336050,-55
2021-12-27 14:43:06.336059,-60
2021-12-27 14:43:06.336069,-87
2021-12-27 14:43:06.336078,-199
2021-12-27 14:43:06.336088,-287
2021-12-27 14:43:06.336098,-34
2021-12-27 14:43:06.336107,692
2021-12-27 14:43:06.336117,1627
2021-12-27 14:43:06.336126,2174
2021-12-27 14:43:06.336136,1303
2021-12-27 14:43:06.336146,-685
2021-12-27 14:43:06.336155,-1347
2021-12-27 14:43:06.336165,-481
2021-12-27 14:43:06.336174,-236
2021-12-27 14:43:06.336184,-479
2021-12-27 14:43:06.336193,-287
2021-12-27 14:43:06.336203,-155
2021-12-27 14:43:06.336213,-259
2021-12-27 14:43:06.336222,-240
2021-12-27 14:43:06.580346,-162
2021-12-27 14:43:06.580365,-162
2021-12-27 14:43:06.580373,-171
2021-12-27 14:43:06.580379,-182
2021-12-27 14:43:06.580385,-185
2021-12-27 14:43:06.580391,-136
2021-12-27 14:43:06.580397,-118
2021-12-27 14:43:06.580404,-143
2021-12-27 14:43:06.580410,-111
2021-12-27 14:43:06.580416,-62
2021-12-27 14:43:06.580422,-60
2021-12-27 14:43:06.580428,-34
2021-12-27 14:43:06.580435,32
2021-12-27 14:43:06.580441,97
2021-12-27 14:43:06.580447,166
2021-12-27 14:43:06.580454,196
2021-12-27 14:43:06.580460,150
2021-12-27 14:43:06.580466,138
2021-12-27 14:43:06.580472,199
2021-12-27 14:43:06.580478,233
2021-12-27 14:43:06.580485,226
2021-12-27 14:43:06.580491,210
2021-12-27 14:43:06.580497,155
2021-12-27 14:43:06.580503,78
2021-12-27 14:43:06.580509,32
2021-12-27 14:43:06.580515,-34
2021-12-27 14:43:06.580522,-159
2021-12-27 14:43:06.580528,-252
2021-12-27 14:43:06.580534,-266
2021-12-27 14:43:06.580541,-275
2021-12-27 14:43:06.776226,-277
2021-12-27 14:43:06.776248,-233
2021-12-27 14:43:06.776256,-194
2021-12-27 14:43:06.776262,-178
2021-12-27 14:43:06.776268,-169
2021-12-27 14:43:06.776275,-185
2021-12-27 14:43:06.776281,-185
2021-12-27 14:43:06.776287,-143
2021-12-27 14:43:06.776325,-127
2021-12-27 14:43:06.776332,-129
2021-12-27 14:43:06.776338,-101
2021-12-27 14:43:06.776344,-78
2021-12-27 14:43:06.776350,-85
2021-12-27 14:43:06.776357,-71
2021-12-27 14:43:06.776363,-43
2021-12-27 14:43:06.776369,-43
2021-12-27 14:43:06.776375,-55
2021-12-27 14:43:06.776381,-92
2021-12-27 14:43:06.776387,-145
2021-12-27 14:43:06.776394,-136
2021-12-27 14:43:06.776400,-92
2021-12-27 14:43:06.776406,-92
2021-12-27 14:43:06.776412,-87
2021-12-27 14:43:06.776419,-62
2021-12-27 14:43:06.776425,-60
2021-12-27 14:43:06.776431,-64
2021-12-27 14:43:06.776437,-46
2021-12-27 14:43:06.776443,-27
2021-12-27 14:43:06.776450,-16
2021-12-27 14:43:06.776456,-2
2021-12-27 14:43:07.115828,-2
2021-12-27 14:43:07.115849,-2
2021-12-27 14:43:07.115856,11
2021-12-27 14:43:07.115863,20
2021-12-27 14:43:07.115869,37
2021-12-27 14:43:07.115876,60
2021-12-27 14:43:07.115882,53
2021-12-27 14:43:07.115888,25
2021-12-27 14:43:07.115894,20
2021-12-27 14:43:07.115901,4
2021-12-27 14:43:07.115907,-37
2021-12-27 14:43:07.115913,-62
2021-12-27 14:43:07.115920,-104
2021-12-27 14:43:07.115926,-157
2021-12-27 14:43:07.115932,-173
2021-12-27 14:43:07.115938,-166
2021-12-27 14:43:07.115945,-159
2021-12-27 14:43:07.115951,-152
2021-12-27 14:43:07.115957,-171
2021-12-27 14:43:07.115963,-243
2021-12-27 14:43:07.115970,-307
2021-12-27 14:43:07.115976,-87
2021-12-27 14:43:07.115982,629
2021-12-27 14:43:07.115988,1616
2021-12-27 14:43:07.115995,2296
2021-12-27 14:43:07.116001,1625
2021-12-27 14:43:07.116007,-416
2021-12-27 14:43:07.116014,-1382
2021-12-27 14:43:07.116020,-562
2021-12-27 14:43:07.116026,-166
2021-12-27 14:43:07.214505,-414
2021-12-27 14:43:07.214526,-250
2021-12-27 14:43:07.214534,-81
2021-12-27 14:43:07.214540,-178
2021-12-27 14:43:07.214547,-152
2021-12-27 14:43:07.214553,-41
2021-12-27 14:43:07.214559,-30
2021-12-27 14:43:07.214565,-20
2021-12-27 14:43:07.214572,13
2021-12-27 14:43:07.214578,13
2021-12-27 14:43:07.214584,27
2021-12-27 14:43:07.214590,83
2021-12-27 14:43:07.214597,122
2021-12-27 14:43:07.214603,143
2021-12-27 14:43:07.214609,162
2021-12-27 14:43:07.214615,157
2021-12-27 14:43:07.214622,162
2021-12-27 14:43:07.214628,217
2021-12-27 14:43:07.214634,270
2021-12-27 14:43:07.214640,305
2021-12-27 14:43:07.214646,338
2021-12-27 14:43:07.214653,340
2021-12-27 14:43:07.214659,312
2021-12-27 14:43:07.214665,317
2021-12-27 14:43:07.214671,342
2021-12-27 14:43:07.214678,344
2021-12-27 14:43:07.214684,317
2021-12-27 14:43:07.214690,256
2021-12-27 14:43:07.214696,182
2021-12-27 14:43:07.214703,111
2021-12-27 14:43:07.458386,41
2021-12-27 14:43:07.458407,-16
2021-12-27 14:43:07.458415,-71
2021-12-27 14:43:07.458421,-150
2021-12-27 14:43:07.458427,-224
2021-12-27 14:43:07.458434,-238
2021-12-27 14:43:07.458440,-201
2021-12-27 14:43:07.458446,-173
2021-12-27 14:43:07.458452,-171
2021-12-27 14:43:07.458458,-169
2021-12-27 14:43:07.458465,-173
2021-12-27 14:43:07.458471,-182
2021-12-27 14:43:07.458477,-150
2021-12-27 14:43:07.458483,-101
2021-12-27 14:43:07.458489,-83
2021-12-27 14:43:07.458495,-78
2021-12-27 14:43:07.458501,-71
2021-12-27 14:43:07.458508,-92
2021-12-27 14:43:07.458514,-143
2021-12-27 14:43:07.458520,-143
2021-12-27 14:43:07.458526,-69
2021-12-27 14:43:07.458532,-6
2021-12-27 14:43:07.458538,-41
2021-12-27 14:43:07.458545,-118
2021-12-27 14:43:07.458551,-108
2021-12-27 14:43:07.458557,-74
2021-12-27 14:43:07.458563,-111
2021-12-27 14:43:07.458569,-138
2021-12-27 14:43:07.458575,-113
2021-12-27 14:43:07.458582,-94
2021-12-27 14:43:07.702273,-92
2021-12-27 14:43:07.702328,-71
2021-12-27 14:43:07.702335,-50
2021-12-27 14:43:07.702342,-48
2021-12-27 14:43:07.702348,-48
2021-12-27 14:43:07.702354,-67
2021-12-27 14:43:07.702360,-94
2021-12-27 14:43:07.702366,-97
2021-12-27 14:43:07.702372,-74
2021-12-27 14:43:07.702379,-53
2021-12-27 14:43:07.702385,-57
2021-12-27 14:43:07.702391,-92
2021-12-27 14:43:07.702397,-125
2021-12-27 14:43:07.702404,-145
2021-12-27 14:43:07.702410,-169
2021-12-27 14:43:07.702416,-187
2021-12-27 14:43:07.702422,-189
2021-12-27 14:43:07.702428,-173
2021-12-27 14:43:07.702435,-145
2021-12-27 14:43:07.702441,-120
2021-12-27 14:43:07.702447,-148
2021-12-27 14:43:07.702453,-180
2021-12-27 14:43:07.702459,-122
2021-12-27 14:43:07.702465,-120
2021-12-27 14:43:07.702472,-199
2021-12-27 14:43:07.702478,-138
2021-12-27 14:43:07.702484,185
2021-12-27 14:43:07.702490,919
2021-12-27 14:43:07.702497,1921
2021-12-27 14:43:07.702503,2387
2021-12-27 14:43:07.946219,1257
2021-12-27 14:43:07.946241,-717
2021-12-27 14:43:07.946248,-1111
2021-12-27 14:43:07.946255,-252
2021-12-27 14:43:07.946260,-138
2021-12-27 14:43:07.946267,-312
2021-12-27 14:43:07.946273,-90
2021-12-27 14:43:07.946279,-46
2021-12-27 14:43:07.946285,-152
2021-12-27 14:43:07.946291,-62
2021-12-27 14:43:07.946297,25
2021-12-27 14:43:07.946303,-9
2021-12-27 14:43:07.946309,0
2021-12-27 14:43:07.946315,34
2021-12-27 14:43:07.946325,4
2021-12-27 14:43:07.946331,6
2021-12-27 14:43:07.946337,90
2021-12-27 14:43:07.946343,145
2021-12-27 14:43:07.946349,145
2021-12-27 14:43:07.946356,171
2021-12-27 14:43:07.946362,196
2021-12-27 14:43:07.946368,206
2021-12-27 14:43:07.946374,231
2021-12-27 14:43:07.946380,233
2021-12-27 14:43:07.946386,203
2021-12-27 14:43:07.946393,219
2021-12-27 14:43:07.946399,280
2021-12-27 14:43:07.946405,284
2021-12-27 14:43:07.946411,245
2021-12-27 14:43:07.946417,252
2021-12-27 14:43:08.237670,298
2021-12-27 14:43:08.237699,287
2021-12-27 14:43:08.237711,210
2021-12-27 14:43:08.237721,120
2021-12-27 14:43:08.237730,32
2021-12-27 14:43:08.237740,-27
2021-12-27 14:43:08.237750,-67
2021-12-27 14:43:08.237759,-104
2021-12-27 14:43:08.237769,-155
2021-12-27 14:43:08.237778,-219
2021-12-27 14:43:08.237788,-254
2021-12-27 14:43:08.237797,-224
2021-12-27 14:43:08.237807,-171
2021-12-27 14:43:08.237817,-136
2021-12-27 14:43:08.237826,-134
2021-12-27 14:43:08.237836,-173
2021-12-27 14:43:08.237846,-189
2021-12-27 14:43:08.237855,-143
2021-12-27 14:43:08.237865,-108
2021-12-27 14:43:08.237874,-85
2021-12-27 14:43:08.237884,-53
2021-12-27 14:43:08.237893,-55
2021-12-27 14:43:08.237903,-69
2021-12-27 14:43:08.237912,-60
2021-12-27 14:43:08.237922,-48
2021-12-27 14:43:08.237931,-46
2021-12-27 14:43:08.237941,-27
2021-12-27 14:43:08.237950,-9
2021-12-27 14:43:08.237960,-34
2021-12-27 14:43:08.237970,-67
2021-12-27 14:43:08.432136,-60
2021-12-27 14:43:08.432166,-41
2021-12-27 14:43:08.432178,-46
2021-12-27 14:43:08.432188,-67
2021-12-27 14:43:08.432197,-92
2021-12-27 14:43:08.432207,-111
2021-12-27 14:43:08.432216,-115
2021-12-27 14:43:08.432225,-131
2021-12-27 14:43:08.432235,-115
2021-12-27 14:43:08.432244,-69
2021-12-27 14:43:08.432254,-78
2021-12-27 14:43:08.432263,-115
2021-12-27 14:43:08.432273,-106
2021-12-27 14:43:08.432282,-94
2021-12-27 14:43:08.432292,-127
2021-12-27 14:43:08.432301,-145
2021-12-27 14:43:08.432311,-118
2021-12-27 14:43:08.432320,-134
2021-12-27 14:43:08.432330,-192
2021-12-27 14:43:08.432339,-189
2021-12-27 14:43:08.432349,-171
2021-12-27 14:43:08.432358,-187
2021-12-27 14:43:08.432368,-189
2021-12-27 14:43:08.432377,-171
2021-12-27 14:43:08.432386,-159
2021-12-27 14:43:08.432396,-152
2021-12-27 14:43:08.432405,-162
2021-12-27 14:43:08.432415,-192
2021-12-27 14:43:08.432424,-210
2021-12-27 14:43:08.432433,-41
2021-12-27 14:43:08.627785,562
2021-12-27 14:43:08.627804,1484
2021-12-27 14:43:08.627811,2123
2021-12-27 14:43:08.627818,1491
2021-12-27 14:43:08.627824,-419
2021-12-27 14:43:08.627830,-1349
2021-12-27 14:43:08.627837,-597
2021-12-27 14:43:08.627843,-240
2021-12-27 14:43:08.627849,-500
2021-12-27 14:43:08.627855,-326
2021-12-27 14:43:08.627861,-127
2021-12-27 14:43:08.627868,-252
2021-12-27 14:43:08.627874,-338
2021-12-27 14:43:08.627880,-284
2021-12-27 14:43:08.627886,-194
2021-12-27 14:43:08.627892,-113
2021-12-27 14:43:08.627898,-94
2021-12-27 14:43:08.627905,-111
2021-12-27 14:43:08.627911,-99
2021-12-27 14:43:08.627917,-83
2021-12-27 14:43:08.627923,-108
2021-12-27 14:43:08.627930,-104
2021-12-27 14:43:08.627936,-37
2021-12-27 14:43:08.627942,23
2021-12-27 14:43:08.627948,69
2021-12-27 14:43:08.627954,90
2021-12-27 14:43:08.627961,92
2021-12-27 14:43:08.627967,138
2021-12-27 14:43:08.627973,208
2021-12-27 14:43:08.627979,233
2021-12-27 14:43:08.871666,243
2021-12-27 14:43:08.871696,261
2021-12-27 14:43:08.871707,263
2021-12-27 14:43:08.871717,245
2021-12-27 14:43:08.871726,224
2021-12-27 14:43:08.871736,201
2021-12-27 14:43:08.871745,187
2021-12-27 14:43:08.871755,175
2021-12-27 14:43:08.871764,71
2021-12-27 14:43:08.871774,-78
2021-12-27 14:43:08.871783,-131
2021-12-27 14:43:08.871793,-118
2021-12-27 14:43:08.871802,-111
2021-12-27 14:43:08.871812,-115
2021-12-27 14:43:08.871821,-131
2021-12-27 14:43:08.871831,-145
2021-12-27 14:43:08.871840,-131
2021-12-27 14:43:08.871850,-169
2021-12-27 14:43:08.871859,-240
2021-12-27 14:43:08.871868,-182
2021-12-27 14:43:08.871878,-97
2021-12-27 14:43:08.871887,-120
2021-12-27 14:43:08.871897,-125
2021-12-27 14:43:08.871906,-55
2021-12-27 14:43:08.871916,-37
2021-12-27 14:43:08.871925,-57
2021-12-27 14:43:08.871935,-50
2021-12-27 14:43:08.871944,-41
2021-12-27 14:43:08.871954,-20
2021-12-27 14:43:08.871963,2
2021-12-27 14:43:09.067371,-13
2021-12-27 14:43:09.067401,-16
2021-12-27 14:43:09.067413,2
2021-12-27 14:43:09.067423,-18
2021-12-27 14:43:09.067433,-41
2021-12-27 14:43:09.067442,-69
2021-12-27 14:43:09.067452,-111
2021-12-27 14:43:09.067461,-113
2021-12-27 14:43:09.067471,-106
2021-12-27 14:43:09.067481,-148
2021-12-27 14:43:09.067490,-166
2021-12-27 14:43:09.067500,-125
2021-12-27 14:43:09.067510,-90
2021-12-27 14:43:09.067519,-85
2021-12-27 14:43:09.067529,-92
2021-12-27 14:43:09.067538,-111
2021-12-27 14:43:09.067548,-138
2021-12-27 14:43:09.067557,-138
2021-12-27 14:43:09.067567,-122
2021-12-27 14:43:09.067577,-120
2021-12-27 14:43:09.067586,-134
2021-12-27 14:43:09.067596,-166
2021-12-27 14:43:09.067606,-173
2021-12-27 14:43:09.067615,-136
2021-12-27 14:43:09.067625,-115
2021-12-27 14:43:09.067634,-143
2021-12-27 14:43:09.067644,-148
2021-12-27 14:43:09.067654,-143
2021-12-27 14:43:09.067663,-206
2021-12-27 14:43:09.067673,-99
2021-12-27 14:43:09.310542,534
2021-12-27 14:43:09.310603,1507
2021-12-27 14:43:09.310616,2197
2021-12-27 14:43:09.310623,1710
2021-12-27 14:43:09.310630,-143
2021-12-27 14:43:09.310636,-1273
2021-12-27 14:43:09.310642,-611
2021-12-27 14:43:09.310649,-143
2021-12-27 14:43:09.310655,-416
2021-12-27 14:43:09.310661,-328
2021-12-27 14:43:09.310668,-118
2021-12-27 14:43:09.310674,-199
2021-12-27 14:43:09.310680,-222
2021-12-27 14:43:09.310686,-115
2021-12-27 14:43:09.310693,-92
2021-12-27 14:43:09.310699,-101
2021-12-27 14:43:09.310705,-53
2021-12-27 14:43:09.310711,-23
2021-12-27 14:43:09.310718,-27
2021-12-27 14:43:09.310724,6
2021-12-27 14:43:09.310730,57
2021-12-27 14:43:09.310737,76
2021-12-27 14:43:09.310743,106
2021-12-27 14:43:09.310749,150
2021-12-27 14:43:09.310755,171
2021-12-27 14:43:09.310762,199
2021-12-27 14:43:09.310768,247
2021-12-27 14:43:09.310774,268
2021-12-27 14:43:09.310781,282
2021-12-27 14:43:09.310787,310
2021-12-27 14:43:09.602911,319
2021-12-27 14:43:09.602942,310
2021-12-27 14:43:09.602953,319
2021-12-27 14:43:09.602963,314
2021-12-27 14:43:09.602973,294
2021-12-27 14:43:09.602982,275
2021-12-27 14:43:09.602992,206
2021-12-27 14:43:09.603001,78
2021-12-27 14:43:09.603011,-18
2021-12-27 14:43:09.603020,-101
2021-12-27 14:43:09.603030,-182
2021-12-27 14:43:09.603039,-210
2021-12-27 14:43:09.603049,-245
2021-12-27 14:43:09.603059,-298
2021-12-27 14:43:09.603068,-289
2021-12-27 14:43:09.603078,-259
2021-12-27 14:43:09.603087,-238
2021-12-27 14:43:09.603096,-208
2021-12-27 14:43:09.603106,-178
2021-12-27 14:43:09.603115,-169
2021-12-27 14:43:09.603125,-164
2021-12-27 14:43:09.603134,-145
2021-12-27 14:43:09.603144,-120
2021-12-27 14:43:09.603153,-97
2021-12-27 14:43:09.603162,-76
2021-12-27 14:43:09.603172,-64
2021-12-27 14:43:09.603181,-71
2021-12-27 14:43:09.603191,-81
2021-12-27 14:43:09.603200,-71
2021-12-27 14:43:09.603210,-57
2021-12-27 14:43:09.749942,-43
2021-12-27 14:43:09.749963,-34
2021-12-27 14:43:09.749971,-48
2021-12-27 14:43:09.749977,-62
2021-12-27 14:43:09.749983,-50
2021-12-27 14:43:09.749990,-30
2021-12-27 14:43:09.749996,-16
2021-12-27 14:43:09.750002,-4
2021-12-27 14:43:09.750008,-20
2021-12-27 14:43:09.750014,-50
2021-12-27 14:43:09.750021,-41
2021-12-27 14:43:09.750027,-37
2021-12-27 14:43:09.750033,-69
2021-12-27 14:43:09.750039,-76
2021-12-27 14:43:09.750045,-71
2021-12-27 14:43:09.750052,-106
2021-12-27 14:43:09.750058,-136
2021-12-27 14:43:09.750064,-143
2021-12-27 14:43:09.750070,-157
2021-12-27 14:43:09.750076,-164
2021-12-27 14:43:09.750082,-182
2021-12-27 14:43:09.750088,-224
2021-12-27 14:43:09.750095,-222
2021-12-27 14:43:09.750101,-189
2021-12-27 14:43:09.750107,-201
2021-12-27 14:43:09.750113,-256
2021-12-27 14:43:09.750119,-224
2021-12-27 14:43:09.750126,159
2021-12-27 14:43:09.750132,942
2021-12-27 14:43:09.750138,1771
2021-12-27 14:43:10.041884,1898
2021-12-27 14:43:10.041914,544
2021-12-27 14:43:10.041926,-1062
2021-12-27 14:43:10.041935,-960
2021-12-27 14:43:10.041945,-270
2021-12-27 14:43:10.041954,-354
2021-12-27 14:43:10.041964,-388
2021-12-27 14:43:10.041973,-145
2021-12-27 14:43:10.041983,-131
2021-12-27 14:43:10.041992,-194
2021-12-27 14:43:10.042002,-150
2021-12-27 14:43:10.042011,-129
2021-12-27 14:43:10.042020,-118
2021-12-27 14:43:10.042030,-83
2021-12-27 14:43:10.042039,-81
2021-12-27 14:43:10.042049,-83
2021-12-27 14:43:10.042058,-67
2021-12-27 14:43:10.042068,-74
2021-12-27 14:43:10.042077,-71
2021-12-27 14:43:10.042086,-23
2021-12-27 14:43:10.042096,16
2021-12-27 14:43:10.042105,34
2021-12-27 14:43:10.042115,69
2021-12-27 14:43:10.042124,108
2021-12-27 14:43:10.042134,131
2021-12-27 14:43:10.042143,159
2021-12-27 14:43:10.042153,196
2021-12-27 14:43:10.042162,213
2021-12-27 14:43:10.042172,210
2021-12-27 14:43:10.042181,208
2021-12-27 14:43:10.334615,208
2021-12-27 14:43:10.334645,215
2021-12-27 14:43:10.334656,206
2021-12-27 14:43:10.334666,157
2021-12-27 14:43:10.334675,83
2021-12-27 14:43:10.334684,0
2021-12-27 14:43:10.334694,-87
2021-12-27 14:43:10.334704,-134
2021-12-27 14:43:10.334713,-150
2021-12-27 14:43:10.334722,-171
2021-12-27 14:43:10.334731,-178
2021-12-27 14:43:10.334741,-180
2021-12-27 14:43:10.334750,-203
2021-12-27 14:43:10.334759,-194
2021-12-27 14:43:10.334769,-152
2021-12-27 14:43:10.334778,-152
2021-12-27 14:43:10.334787,-173
2021-12-27 14:43:10.334797,-159
2021-12-27 14:43:10.334806,-143
2021-12-27 14:43:10.334815,-143
2021-12-27 14:43:10.334825,-122
2021-12-27 14:43:10.334834,-101
2021-12-27 14:43:10.334843,-90
2021-12-27 14:43:10.334853,-67
2021-12-27 14:43:10.334862,-55
2021-12-27 14:43:10.334871,-67
2021-12-27 14:43:10.334881,-67
2021-12-27 14:43:10.334890,-55
2021-12-27 14:43:10.334899,-48
2021-12-27 14:43:10.334909,-41
2021-12-27 14:43:10.528485,-34
2021-12-27 14:43:10.528514,-23
2021-12-27 14:43:10.528525,-13
2021-12-27 14:43:10.528535,-18
2021-12-27 14:43:10.528544,-11
2021-12-27 14:43:10.528554,9
2021-12-27 14:43:10.528563,25
2021-12-27 14:43:10.528572,30
2021-12-27 14:43:10.528582,34
2021-12-27 14:43:10.528591,50
2021-12-27 14:43:10.528600,57
2021-12-27 14:43:10.528609,53
2021-12-27 14:43:10.528619,53
2021-12-27 14:43:10.528628,25
2021-12-27 14:43:10.528637,-37
2021-12-27 14:43:10.528647,-60
2021-12-27 14:43:10.528656,-37
2021-12-27 14:43:10.528665,-43
2021-12-27 14:43:10.528674,-78
2021-12-27 14:43:10.528688,-90
2021-12-27 14:43:10.528698,-99
2021-12-27 14:43:10.528707,-166
2021-12-27 14:43:10.528716,-245
2021-12-27 14:43:10.528726,-48
2021-12-27 14:43:10.528735,641
2021-12-27 14:43:10.528744,1537
2021-12-27 14:43:10.528754,1977
2021-12-27 14:43:10.528763,1067
2021-12-27 14:43:10.528772,-761
2021-12-27 14:43:10.528782,-1278
2021-12-27 14:43:10.724771,-467
2021-12-27 14:43:10.724801,-254
2021-12-27 14:43:10.724812,-463
2021-12-27 14:43:10.724822,-307
2021-12-27 14:43:10.724832,-173
2021-12-27 14:43:10.724841,-210
2021-12-27 14:43:10.724851,-169
2021-12-27 14:43:10.724860,-99
2021-12-27 14:43:10.724870,-111
2021-12-27 14:43:10.724879,-131
2021-12-27 14:43:10.724889,-97
2021-12-27 14:43:10.724898,-43
2021-12-27 14:43:10.724908,-18
2021-12-27 14:43:10.724918,9
2021-12-27 14:43:10.724928,39
2021-12-27 14:43:10.724937,32
2021-12-27 14:43:10.724947,25
2021-12-27 14:43:10.724956,71
2021-12-27 14:43:10.724966,122
2021-12-27 14:43:10.724975,143
2021-12-27 14:43:10.724985,145
2021-12-27 14:43:10.724995,150
2021-12-27 14:43:10.725004,171
2021-12-27 14:43:10.725014,206
2021-12-27 14:43:10.725023,229
2021-12-27 14:43:10.725033,245
2021-12-27 14:43:10.725042,252
2021-12-27 14:43:10.725052,245
2021-12-27 14:43:10.725061,224
2021-12-27 14:43:10.725071,199
2021-12-27 14:43:10.919936,155
2021-12-27 14:43:10.919957,83
2021-12-27 14:43:10.919964,4
2021-12-27 14:43:10.919971,-69
2021-12-27 14:43:10.919977,-136
2021-12-27 14:43:10.919983,-157
2021-12-27 14:43:10.919989,-134
2021-12-27 14:43:10.919995,-120
2021-12-27 14:43:10.920001,-115
2021-12-27 14:43:10.920007,-99
2021-12-27 14:43:10.920013,-94
2021-12-27 14:43:10.920020,-115
2021-12-27 14:43:10.920026,-101
2021-12-27 14:43:10.920032,-60
2021-12-27 14:43:10.920038,-46
2021-12-27 14:43:10.920044,-46
2021-12-27 14:43:10.920050,-39
2021-12-27 14:43:10.920056,-48
2021-12-27 14:43:10.920063,-53
2021-12-27 14:43:10.920069,-30
2021-12-27 14:43:10.920075,-16
2021-12-27 14:43:10.920081,-25
2021-12-27 14:43:10.920087,-50
2021-12-27 14:43:10.920093,-74
2021-12-27 14:43:10.920099,-64
2021-12-27 14:43:10.920106,-39
2021-12-27 14:43:10.920112,-34
2021-12-27 14:43:10.920118,-37
2021-12-27 14:43:10.920124,-50
2021-12-27 14:43:10.920130,-90
2021-12-27 14:43:11.211997,-111
2021-12-27 14:43:11.212016,-74
2021-12-27 14:43:11.212024,-48
2021-12-27 14:43:11.212030,-53
2021-12-27 14:43:11.212037,-27
2021-12-27 14:43:11.212043,4
2021-12-27 14:43:11.212049,-27
2021-12-27 14:43:11.212055,-57
2021-12-27 14:43:11.212061,-37
2021-12-27 14:43:11.212067,-34
2021-12-27 14:43:11.212074,-48
2021-12-27 14:43:11.212080,-39
2021-12-27 14:43:11.212086,-43
2021-12-27 14:43:11.212092,-64
2021-12-27 14:43:11.212098,-50
2021-12-27 14:43:11.212104,-27
2021-12-27 14:43:11.212111,-41
2021-12-27 14:43:11.212117,-106
2021-12-27 14:43:11.212123,-97
2021-12-27 14:43:11.212129,289
2021-12-27 14:43:11.212135,1139
2021-12-27 14:43:11.212141,2039
2021-12-27 14:43:11.212147,2218
2021-12-27 14:43:11.212153,814
2021-12-27 14:43:11.212160,-1027
2021-12-27 14:43:11.212166,-1062
2021-12-27 14:43:11.212172,-252
2021-12-27 14:43:11.212179,-303
2021-12-27 14:43:11.212185,-423
2021-12-27 14:43:11.212191,-178
2021-12-27 14:43:11.358577,-150
2021-12-27 14:43:11.358607,-238
2021-12-27 14:43:11.358618,-159
2021-12-27 14:43:11.358628,-97
2021-12-27 14:43:11.358637,-101
2021-12-27 14:43:11.358647,-50
2021-12-27 14:43:11.358656,4
2021-12-27 14:43:11.358665,2
2021-12-27 14:43:11.358675,-4
2021-12-27 14:43:11.358684,25
2021-12-27 14:43:11.358694,67
2021-12-27 14:43:11.358703,99
2021-12-27 14:43:11.358712,138
2021-12-27 14:43:11.358738,169
2021-12-27 14:43:11.358748,162
2021-12-27 14:43:11.358757,150
2021-12-27 14:43:11.358767,192
2021-12-27 14:43:11.358776,254
2021-12-27 14:43:11.358785,287
2021-12-27 14:43:11.358795,305
2021-12-27 14:43:11.358804,291
2021-12-27 14:43:11.358814,245
2021-12-27 14:43:11.358824,236
2021-12-27 14:43:11.358833,250
2021-12-27 14:43:11.358842,231
2021-12-27 14:43:11.358852,182
2021-12-27 14:43:11.358861,94
2021-12-27 14:43:11.358871,-30
2021-12-27 14:43:11.358880,-113
2021-12-27 14:43:11.358890,-150
2021-12-27 14:43:11.602166,-185
2021-12-27 14:43:11.602195,-201
2021-12-27 14:43:11.602206,-208
2021-12-27 14:43:11.602216,-240
2021-12-27 14:43:11.602226,-273
2021-12-27 14:43:11.602235,-277
2021-12-27 14:43:11.602244,-268
2021-12-27 14:43:11.602254,-231
2021-12-27 14:43:11.602263,-208
2021-12-27 14:43:11.602273,-226
2021-12-27 14:43:11.602282,-243
2021-12-27 14:43:11.602292,-213
2021-12-27 14:43:11.602301,-169
2021-12-27 14:43:11.602310,-138
2021-12-27 14:43:11.602320,-118
2021-12-27 14:43:11.602329,-120
2021-12-27 14:43:11.602338,-131
2021-12-27 14:43:11.602348,-115
2021-12-27 14:43:11.602357,-94
2021-12-27 14:43:11.602366,-87
2021-12-27 14:43:11.602376,-76
2021-12-27 14:43:11.602385,-71
2021-12-27 14:43:11.602394,-76
2021-12-27 14:43:11.602404,-71
2021-12-27 14:43:11.602413,-46
2021-12-27 14:43:11.602422,-25
2021-12-27 14:43:11.602432,-18
2021-12-27 14:43:11.602441,-18
2021-12-27 14:43:11.602450,-30
2021-12-27 14:43:11.602460,-30
2021-12-27 14:43:11.846219,6
2021-12-27 14:43:11.846240,41
2021-12-27 14:43:11.846247,32
2021-12-27 14:43:11.846254,9
2021-12-27 14:43:11.846260,-11
2021-12-27 14:43:11.846266,-39
2021-12-27 14:43:11.846272,-50
2021-12-27 14:43:11.846278,-23
2021-12-27 14:43:11.846284,-2
2021-12-27 14:43:11.846290,-6
2021-12-27 14:43:11.846296,-4
2021-12-27 14:43:11.846303,-32
2021-12-27 14:43:11.846309,-125
2021-12-27 14:43:11.846315,-175
2021-12-27 14:43:11.846321,81
2021-12-27 14:43:11.846327,838
2021-12-27 14:43:11.846334,1852
2021-12-27 14:43:11.846340,2449
2021-12-27 14:43:11.846346,1560
2021-12-27 14:43:11.846352,-460
2021-12-27 14:43:11.846358,-1141
2021-12-27 14:43:11.846364,-298
2021-12-27 14:43:11.846370,-55
2021-12-27 14:43:11.846376,-296
2021-12-27 14:43:11.846382,-129
2021-12-27 14:43:11.846388,-16
2021-12-27 14:43:11.846394,-108
2021-12-27 14:43:11.846401,-78
2021-12-27 14:43:11.846407,2
2021-12-27 14:43:11.846413,0
2021-12-27 14:43:12.089629,-18
2021-12-27 14:43:12.089660,-20
2021-12-27 14:43:12.089671,-13
2021-12-27 14:43:12.089681,-13
2021-12-27 14:43:12.089691,-18
2021-12-27 14:43:12.089700,6
2021-12-27 14:43:12.089710,23
2021-12-27 14:43:12.089719,6
2021-12-27 14:43:12.089728,25
2021-12-27 14:43:12.089738,67
2021-12-27 14:43:12.089747,62
2021-12-27 14:43:12.089757,48
2021-12-27 14:43:12.089766,67
2021-12-27 14:43:12.089775,74
2021-12-27 14:43:12.089785,71
2021-12-27 14:43:12.089794,101
2021-12-27 14:43:12.089803,122
2021-12-27 14:43:12.089813,125
2021-12-27 14:43:12.089822,134
2021-12-27 14:43:12.089832,120
2021-12-27 14:43:12.089841,69
2021-12-27 14:43:12.089851,0
2021-12-27 14:43:12.089860,-64
2021-12-27 14:43:12.089869,-125
2021-12-27 14:43:12.089879,-180
2021-12-27 14:43:12.089888,-229
2021-12-27 14:43:12.089898,-261
2021-12-27 14:43:12.089907,-266
2021-12-27 14:43:12.089917,-254
2021-12-27 14:43:12.089926,-231
2021-12-27 14:43:12.382161,-201
2021-12-27 14:43:12.382190,-178
2021-12-27 14:43:12.382201,-187
2021-12-27 14:43:12.382211,-206
2021-12-27 14:43:12.382220,-180
2021-12-27 14:43:12.382230,-134
2021-12-27 14:43:12.382239,-113
2021-12-27 14:43:12.382249,-113
2021-12-27 14:43:12.382259,-134
2021-12-27 14:43:12.382268,-159
2021-12-27 14:43:12.382278,-138
2021-12-27 14:43:12.382287,-104
2021-12-27 14:43:12.382297,-94
2021-12-27 14:43:12.382306,-97
2021-12-27 14:43:12.382316,-118
2021-12-27 14:43:12.382325,-150
2021-12-27 14:43:12.382335,-141
2021-12-27 14:43:12.382344,-108
2021-12-27 14:43:12.382354,-94
2021-12-27 14:43:12.382363,-78
2021-12-27 14:43:12.382373,-71
2021-12-27 14:43:12.382382,-87
2021-12-27 14:43:12.382391,-78
2021-12-27 14:43:12.382401,-41
2021-12-27 14:43:12.382410,-27
2021-12-27 14:43:12.382420,-11
2021-12-27 14:43:12.382430,9
2021-12-27 14:43:12.382439,0
2021-12-27 14:43:12.382449,-13
2021-12-27 14:43:12.382458,-2
2021-12-27 14:43:12.624761,9
2021-12-27 14:43:12.624791,4
2021-12-27 14:43:12.624802,0
2021-12-27 14:43:12.624812,-4
2021-12-27 14:43:12.624822,-16
2021-12-27 14:43:12.624831,-23
2021-12-27 14:43:12.624841,-9
2021-12-27 14:43:12.624850,-6
2021-12-27 14:43:12.624860,-87
2021-12-27 14:43:12.624869,-178
2021-12-27 14:43:12.624879,57
2021-12-27 14:43:12.624889,849
2021-12-27 14:43:12.624898,1866
2021-12-27 14:43:12.624908,2380
2021-12-27 14:43:12.624917,1391
2021-12-27 14:43:12.624927,-613
2021-12-27 14:43:12.624936,-1194
2021-12-27 14:43:12.624946,-344
2021-12-27 14:43:12.624955,-134
2021-12-27 14:43:12.624965,-347
2021-12-27 14:43:12.624975,-157
2021-12-27 14:43:12.624984,-39
2021-12-27 14:43:12.624994,-143
2021-12-27 14:43:12.625003,-138
2021-12-27 14:43:12.625013,-74
2021-12-27 14:43:12.625023,-83
2021-12-27 14:43:12.625032,-85
2021-12-27 14:43:12.625042,-53
2021-12-27 14:43:12.625051,-37
2021-12-27 14:43:12.625061,-30
2021-12-27 14:43:12.772530,-6
2021-12-27 14:43:12.772551,13
2021-12-27 14:43:12.772558,20
2021-12-27 14:43:12.772565,18
2021-12-27 14:43:12.772571,18
2021-12-27 14:43:12.772577,48
2021-12-27 14:43:12.772583,69
2021-12-27 14:43:12.772589,74
2021-12-27 14:43:12.772595,106
2021-12-27 14:43:12.772601,143
2021-12-27 14:43:12.772607,155
2021-12-27 14:43:12.772614,143
2021-12-27 14:43:12.772620,113
2021-12-27 14:43:12.772626,108
2021-12-27 14:43:12.772632,120
2021-12-27 14:43:12.772638,94
2021-12-27 14:43:12.772644,46
2021-12-27 14:43:12.772650,-18
2021-12-27 14:43:12.772656,-118
2021-12-27 14:43:12.772662,-206
2021-12-27 14:43:12.772669,-252
2021-12-27 14:43:12.772675,-291
2021-12-27 14:43:12.772681,-312
2021-12-27 14:43:12.772687,-303
2021-12-27 14:43:12.772693,-298
2021-12-27 14:43:12.772700,-294
2021-12-27 14:43:12.772706,-266
2021-12-27 14:43:12.772712,-238
2021-12-27 14:43:12.772718,-217
2021-12-27 14:43:12.772724,-189
2021-12-27 14:43:13.016150,-171
2021-12-27 14:43:13.016180,-169
2021-12-27 14:43:13.016191,-169
2021-12-27 14:43:13.016200,-219
2021-12-27 14:43:13.016210,-268
2021-12-27 14:43:13.016220,-173
2021-12-27 14:43:13.016229,-67
2021-12-27 14:43:13.016239,-125
2021-12-27 14:43:13.016248,-206
2021-12-27 14:43:13.016258,-194
2021-12-27 14:43:13.016267,-162
2021-12-27 14:43:13.016277,-148
2021-12-27 14:43:13.016287,-145
2021-12-27 14:43:13.016296,-164
2021-12-27 14:43:13.016306,-189
2021-12-27 14:43:13.016315,-185
2021-12-27 14:43:13.016325,-164
2021-12-27 14:43:13.016334,-148
2021-12-27 14:43:13.016343,-127
2021-12-27 14:43:13.016353,-111
2021-12-27 14:43:13.016362,-120
2021-12-27 14:43:13.016372,-150
2021-12-27 14:43:13.016381,-180
2021-12-27 14:43:13.016391,-173
2021-12-27 14:43:13.016400,-141
2021-12-27 14:43:13.016410,-120
2021-12-27 14:43:13.016419,-120
2021-12-27 14:43:13.016429,-120
2021-12-27 14:43:13.016438,-106
2021-12-27 14:43:13.016448,-90
2021-12-27 14:43:13.259500,-81
2021-12-27 14:43:13.259530,-106
2021-12-27 14:43:13.259541,-194
2021-12-27 14:43:13.259551,-247
2021-12-27 14:43:13.259560,-194
2021-12-27 14:43:13.259570,-136
2021-12-27 14:43:13.259580,-106
2021-12-27 14:43:13.259589,-143
2021-12-27 14:43:13.259599,-233
2021-12-27 14:43:13.259608,-9
2021-12-27 14:43:13.259618,773
2021-12-27 14:43:13.259627,1754
2021-12-27 14:43:13.259637,2278
2021-12-27 14:43:13.259646,1384
2021-12-27 14:43:13.259656,-604
2021-12-27 14:43:13.259666,-1280
2021-12-27 14:43:13.259675,-432
2021-12-27 14:43:13.259685,-162
2021-12-27 14:43:13.259694,-368
2021-12-27 14:43:13.259704,-157
2021-12-27 14:43:13.259714,-23
2021-12-27 14:43:13.259723,-136
2021-12-27 14:43:13.259733,-131
2021-12-27 14:43:13.259742,-64
2021-12-27 14:43:13.259752,-62
2021-12-27 14:43:13.259761,-32
2021-12-27 14:43:13.259771,13
2021-12-27 14:43:13.259780,4
2021-12-27 14:43:13.259790,-16
2021-12-27 14:43:13.259800,4
2021-12-27 14:43:13.503053,34
2021-12-27 14:43:13.503083,39
2021-12-27 14:43:13.503094,41
2021-12-27 14:43:13.503104,55
2021-12-27 14:43:13.503113,74
2021-12-27 14:43:13.503128,111
2021-12-27 14:43:13.503137,157
2021-12-27 14:43:13.503147,185
2021-12-27 14:43:13.503156,194
2021-12-27 14:43:13.503166,192
2021-12-27 14:43:13.503175,169
2021-12-27 14:43:13.503184,138
2021-12-27 14:43:13.503194,120
2021-12-27 14:43:13.503203,101
2021-12-27 14:43:13.503213,85
2021-12-27 14:43:13.503222,57
2021-12-27 14:43:13.503232,-13
2021-12-27 14:43:13.503241,-115
2021-12-27 14:43:13.503250,-182
2021-12-27 14:43:13.503260,-208
2021-12-27 14:43:13.503269,-240
2021-12-27 14:43:13.503279,-270
2021-12-27 14:43:13.503288,-275
2021-12-27 14:43:13.503297,-263
2021-12-27 14:43:13.503307,-245
2021-12-27 14:43:13.503316,-210
2021-12-27 14:43:13.503326,-189
2021-12-27 14:43:13.503335,-208
2021-12-27 14:43:13.503345,-243
2021-12-27 14:43:13.503354,-236
2021-12-27 14:43:13.697650,-206
2021-12-27 14:43:13.697666,-185
2021-12-27 14:43:13.697671,-171
2021-12-27 14:43:13.697675,-164
2021-12-27 14:43:13.697680,-145
2021-12-27 14:43:13.697684,-143
2021-12-27 14:43:13.697688,-171
2021-12-27 14:43:13.697692,-175
2021-12-27 14:43:13.697696,-155
2021-12-27 14:43:13.697701,-155
2021-12-27 14:43:13.697705,-155
2021-12-27 14:43:13.697709,-134
2021-12-27 14:43:13.697713,-134
2021-12-27 14:43:13.697718,-141
2021-12-27 14:43:13.697722,-145
2021-12-27 14:43:13.697726,-166
2021-12-27 14:43:13.697730,-162
2021-12-27 14:43:13.697734,-127
2021-12-27 14:43:13.697739,-120
2021-12-27 14:43:13.697743,-127
2021-12-27 14:43:13.697747,-115
2021-12-27 14:43:13.697751,-94
2021-12-27 14:43:13.697756,-76
2021-12-27 14:43:13.697760,-48
2021-12-27 14:43:13.697764,-27
2021-12-27 14:43:13.697769,-27
2021-12-27 14:43:13.697773,-11
2021-12-27 14:43:13.697777,11
2021-12-27 14:43:13.697781,20
2021-12-27 14:43:13.697785,25
2021-12-27 14:43:13.942567,25
2021-12-27 14:43:13.942588,18
2021-12-27 14:43:13.942595,9
2021-12-27 14:43:13.942602,-2
2021-12-27 14:43:13.942608,-2
2021-12-27 14:43:13.942614,9
2021-12-27 14:43:13.942620,23
2021-12-27 14:43:13.942626,6
2021-12-27 14:43:13.942632,-27
2021-12-27 14:43:13.942639,-43
2021-12-27 14:43:13.942645,-67
2021-12-27 14:43:13.942651,-122
2021-12-27 14:43:13.942657,11
2021-12-27 14:43:13.942663,599
2021-12-27 14:43:13.942670,1477
2021-12-27 14:43:13.942676,2171
2021-12-27 14:43:13.942682,1812
2021-12-27 14:43:13.942688,9
2021-12-27 14:43:13.942694,-1222
2021-12-27 14:43:13.942701,-618
2021-12-27 14:43:13.942707,-115
2021-12-27 14:43:13.942713,-377
2021-12-27 14:43:13.942719,-298
2021-12-27 14:43:13.942725,-74
2021-12-27 14:43:13.942732,-148
2021-12-27 14:43:13.942738,-185
2021-12-27 14:43:13.942744,-108
2021-12-27 14:43:13.942750,-134
2021-12-27 14:43:13.942756,-162
2021-12-27 14:43:13.942763,-99
2021-12-27 14:43:14.137438,-64
2021-12-27 14:43:14.137462,-57
2021-12-27 14:43:14.137470,-32
2021-12-27 14:43:14.137477,-43
2021-12-27 14:43:14.137483,-74
2021-12-27 14:43:14.137489,-39
2021-12-27 14:43:14.137495,18
2021-12-27 14:43:14.137501,48
2021-12-27 14:43:14.137507,69
2021-12-27 14:43:14.137514,60
2021-12-27 14:43:14.137520,48
2021-12-27 14:43:14.137526,90
2021-12-27 14:43:14.137532,134
2021-12-27 14:43:14.137539,145
2021-12-27 14:43:14.137545,152
2021-12-27 14:43:14.137551,134
2021-12-27 14:43:14.137557,92
2021-12-27 14:43:14.137563,85
2021-12-27 14:43:14.137569,76
2021-12-27 14:43:14.137576,9
2021-12-27 14:43:14.137582,-62
2021-12-27 14:43:14.137588,-134
2021-12-27 14:43:14.137594,-215
2021-12-27 14:43:14.137600,-259
2021-12-27 14:43:14.137606,-261
2021-12-27 14:43:14.137613,-266
2021-12-27 14:43:14.137619,-273
2021-12-27 14:43:14.137625,-268
2021-12-27 14:43:14.137631,-252
2021-12-27 14:43:14.137637,-226
2021-12-27 14:43:14.381097,-199
2021-12-27 14:43:14.381119,-180
2021-12-27 14:43:14.381127,-166
2021-12-27 14:43:14.381134,-150
2021-12-27 14:43:14.381140,-155
2021-12-27 14:43:14.381146,-173
2021-12-27 14:43:14.381153,-157
2021-12-27 14:43:14.381159,-115
2021-12-27 14:43:14.381165,-104
2021-12-27 14:43:14.381171,-108
2021-12-27 14:43:14.381178,-113
2021-12-27 14:43:14.381184,-131
2021-12-27 14:43:14.381190,-134
2021-12-27 14:43:14.381196,-104
2021-12-27 14:43:14.381203,-83
2021-12-27 14:43:14.381209,-85
2021-12-27 14:43:14.381215,-76
2021-12-27 14:43:14.381222,-67
2021-12-27 14:43:14.381228,-64
2021-12-27 14:43:14.381234,-43
2021-12-27 14:43:14.381240,-41
2021-12-27 14:43:14.381247,-78
2021-12-27 14:43:14.381253,-81
2021-12-27 14:43:14.381259,-50
2021-12-27 14:43:14.381265,-46
2021-12-27 14:43:14.381272,-37
2021-12-27 14:43:14.381278,-16
2021-12-27 14:43:14.381284,-13
2021-12-27 14:43:14.381291,-13
2021-12-27 14:43:14.381297,4
2021-12-27 14:43:14.721071,6
2021-12-27 14:43:14.721101,2
2021-12-27 14:43:14.721112,16
2021-12-27 14:43:14.721122,25
2021-12-27 14:43:14.721131,34
2021-12-27 14:43:14.721140,57
2021-12-27 14:43:14.721150,50
2021-12-27 14:43:14.721159,20
2021-12-27 14:43:14.721168,23
2021-12-27 14:43:14.721178,0
2021-12-27 14:43:14.721187,-53
2021-12-27 14:43:14.721197,-55
2021-12-27 14:43:14.721206,-55
2021-12-27 14:43:14.721215,-108
2021-12-27 14:43:14.721225,-148
2021-12-27 14:43:14.721234,-150
2021-12-27 14:43:14.721243,-134
2021-12-27 14:43:14.721253,-111
2021-12-27 14:43:14.721262,-99
2021-12-27 14:43:14.721271,-120
2021-12-27 14:43:14.721281,-182
2021-12-27 14:43:14.721290,-261
2021-12-27 14:43:14.721300,-175
2021-12-27 14:43:14.721309,333
2021-12-27 14:43:14.721318,1217
2021-12-27 14:43:14.721328,1988
2021-12-27 14:43:14.721337,1720
2021-12-27 14:43:14.721346,-16
2021-12-27 14:43:14.721356,-1289
2021-12-27 14:43:14.721365,-715
2021-12-27 14:43:14.820075,-150
2021-12-27 14:43:14.820105,-395
2021-12-27 14:43:14.820116,-358
2021-12-27 14:43:14.820126,-143
2021-12-27 14:43:14.820136,-187
2021-12-27 14:43:14.820145,-192
2021-12-27 14:43:14.820154,-83
2021-12-27 14:43:14.820164,-62
2021-12-27 14:43:14.820173,-76
2021-12-27 14:43:14.820182,-43
2021-12-27 14:43:14.820192,-6
2021-12-27 14:43:14.820201,18
2021-12-27 14:43:14.820211,50
2021-12-27 14:43:14.820220,78
2021-12-27 14:43:14.820229,71
2021-12-27 14:43:14.820239,55
2021-12-27 14:43:14.820248,90
2021-12-27 14:43:14.820258,143
2021-12-27 14:43:14.820267,169
2021-12-27 14:43:14.820277,199
2021-12-27 14:43:14.820286,217
2021-12-27 14:43:14.820295,201
2021-12-27 14:43:14.820305,201
2021-12-27 14:43:14.820314,236
2021-12-27 14:43:14.820324,236
2021-12-27 14:43:14.820333,206
2021-12-27 14:43:14.820342,192
2021-12-27 14:43:14.820351,182
2021-12-27 14:43:14.820361,169
2021-12-27 14:43:14.820370,152
2021-12-27 14:43:15.160422,118
2021-12-27 14:43:15.160442,60
2021-12-27 14:43:15.160449,-2
2021-12-27 14:43:15.160456,-92
2021-12-27 14:43:15.160462,-178
2021-12-27 14:43:15.160468,-187
2021-12-27 14:43:15.160475,-159
2021-12-27 14:43:15.160481,-148
2021-12-27 14:43:15.160487,-141
2021-12-27 14:43:15.160493,-145
2021-12-27 14:43:15.160499,-162
2021-12-27 14:43:15.160505,-145
2021-12-27 14:43:15.160511,-104
2021-12-27 14:43:15.160518,-81
2021-12-27 14:43:15.160524,-106
2021-12-27 14:43:15.160530,-157
2021-12-27 14:43:15.160536,-162
2021-12-27 14:43:15.160542,-125
2021-12-27 14:43:15.160550,-101
2021-12-27 14:43:15.160611,-87
2021-12-27 14:43:15.160622,-67
2021-12-27 14:43:15.160635,-60
2021-12-27 14:43:15.160680,-67
2021-12-27 14:43:15.160695,-55
2021-12-27 14:43:15.160710,-34
2021-12-27 14:43:15.160723,-25
2021-12-27 14:43:15.160738,-39
2021-12-27 14:43:15.160759,-62
2021-12-27 14:43:15.160772,-64
2021-12-27 14:43:15.160789,-55
2021-12-27 14:43:15.307413,-53
2021-12-27 14:43:15.307443,-37
2021-12-27 14:43:15.307454,-18
2021-12-27 14:43:15.307463,-18
2021-12-27 14:43:15.307473,-11
2021-12-27 14:43:15.307482,-4
2021-12-27 14:43:15.307491,-6
2021-12-27 14:43:15.307501,9
2021-12-27 14:43:15.307510,25
2021-12-27 14:43:15.307520,11
2021-12-27 14:43:15.307529,-16
2021-12-27 14:43:15.307538,-27
2021-12-27 14:43:15.307547,-20
2021-12-27 14:43:15.307557,-2
2021-12-27 14:43:15.307566,13
2021-12-27 14:43:15.307592,-2
2021-12-27 14:43:15.307602,-16
2021-12-27 14:43:15.307611,-18
2021-12-27 14:43:15.307621,-53
2021-12-27 14:43:15.307630,-78
2021-12-27 14:43:15.307639,-57
2021-12-27 14:43:15.307649,-57
2021-12-27 14:43:15.307658,-83
2021-12-27 14:43:15.307668,-90
2021-12-27 14:43:15.307677,-113
2021-12-27 14:43:15.307686,-134
2021-12-27 14:43:15.307696,-108
2021-12-27 14:43:15.307705,-97
2021-12-27 14:43:15.307715,-115
2021-12-27 14:43:15.307724,-141
2021-12-27 14:43:15.599800,-208
2021-12-27 14:43:15.599830,-233
2021-12-27 14:43:15.599842,104
2021-12-27 14:43:15.599851,919
2021-12-27 14:43:15.599861,1870
2021-12-27 14:43:15.599870,2255
2021-12-27 14:43:15.599879,1071
2021-12-27 14:43:15.599889,-865
2021-12-27 14:43:15.599898,-1129
2021-12-27 14:43:15.599908,-263
2021-12-27 14:43:15.599917,-203
2021-12-27 14:43:15.599927,-370
2021-12-27 14:43:15.599936,-138
2021-12-27 14:43:15.599946,-83
2021-12-27 14:43:15.599955,-187
2021-12-27 14:43:15.599964,-118
2021-12-27 14:43:15.599974,-32
2021-12-27 14:43:15.599983,-27
2021-12-27 14:43:15.599992,6
2021-12-27 14:43:15.600002,34
2021-12-27 14:43:15.600011,-4
2021-12-27 14:43:15.600020,-23
2021-12-27 14:43:15.600030,34
2021-12-27 14:43:15.600039,83
2021-12-27 14:43:15.600049,113
2021-12-27 14:43:15.600058,150
2021-12-27 14:43:15.600068,171
2021-12-27 14:43:15.600077,182
2021-12-27 14:43:15.600086,226
2021-12-27 14:43:15.600096,275
2021-12-27 14:43:15.746408,284
2021-12-27 14:43:15.746429,273
2021-12-27 14:43:15.746436,266
2021-12-27 14:43:15.746443,268
2021-12-27 14:43:15.746449,277
2021-12-27 14:43:15.746455,289
2021-12-27 14:43:15.746461,294
2021-12-27 14:43:15.746467,289
2021-12-27 14:43:15.746473,252
2021-12-27 14:43:15.746479,180
2021-12-27 14:43:15.746485,108
2021-12-27 14:43:15.746491,55
2021-12-27 14:43:15.746497,2
2021-12-27 14:43:15.746503,-43
2021-12-27 14:43:15.746509,-92
2021-12-27 14:43:15.746515,-155
2021-12-27 14:43:15.746521,-171
2021-12-27 14:43:15.746527,-136
2021-12-27 14:43:15.746534,-115
2021-12-27 14:43:15.746540,-101
2021-12-27 14:43:15.746546,-85
2021-12-27 14:43:15.746552,-106
2021-12-27 14:43:15.746558,-127
2021-12-27 14:43:15.746564,-92
2021-12-27 14:43:15.746570,-53
2021-12-27 14:43:15.746576,-41
2021-12-27 14:43:15.746582,-34
2021-12-27 14:43:15.746588,-34
2021-12-27 14:43:15.746594,-37
2021-12-27 14:43:15.746600,-20
2021-12-27 14:43:15.990147,-4
2021-12-27 14:43:15.990168,2
2021-12-27 14:43:15.990175,-2
2021-12-27 14:43:15.990182,-48
2021-12-27 14:43:15.990188,-111
2021-12-27 14:43:15.990194,-129
2021-12-27 14:43:15.990200,-125
2021-12-27 14:43:15.990206,-120
2021-12-27 14:43:15.990213,-108
2021-12-27 14:43:15.990219,-113
2021-12-27 14:43:15.990225,-145
2021-12-27 14:43:15.990231,-180
2021-12-27 14:43:15.990237,-182
2021-12-27 14:43:15.990243,-162
2021-12-27 14:43:15.990249,-173
2021-12-27 14:43:15.990256,-206
2021-12-27 14:43:15.990262,-208
2021-12-27 14:43:15.990268,-194
2021-12-27 14:43:15.990274,-182
2021-12-27 14:43:15.990280,-162
2021-12-27 14:43:15.990286,-143
2021-12-27 14:43:15.990292,-141
2021-12-27 14:43:15.990299,-143
2021-12-27 14:43:15.990305,-136
2021-12-27 14:43:15.990311,-122
2021-12-27 14:43:15.990317,-131
2021-12-27 14:43:15.990323,-164
2021-12-27 14:43:15.990330,-159
2021-12-27 14:43:15.990336,-127
2021-12-27 14:43:15.990342,-127
2021-12-27 14:43:16.282379,-131
2021-12-27 14:43:16.282399,-108
2021-12-27 14:43:16.282407,-101
2021-12-27 14:43:16.282413,-122
2021-12-27 14:43:16.282419,-136
2021-12-27 14:43:16.282425,-166
2021-12-27 14:43:16.282431,-206
2021-12-27 14:43:16.282438,-189
2021-12-27 14:43:16.282444,-152
2021-12-27 14:43:16.282450,-159
2021-12-27 14:43:16.282456,-213
2021-12-27 14:43:16.282462,-263
2021-12-27 14:43:16.282468,-55
2021-12-27 14:43:16.282475,683
2021-12-27 14:43:16.282481,1697
2021-12-27 14:43:16.282487,2280
2021-12-27 14:43:16.282493,1435
2021-12-27 14:43:16.282499,-511
2021-12-27 14:43:16.282506,-1194
2021-12-27 14:43:16.282512,-370
2021-12-27 14:43:16.282518,-113
2021-12-27 14:43:16.282524,-358
2021-12-27 14:43:16.282530,-180
2021-12-27 14:43:16.282537,-23
2021-12-27 14:43:16.282543,-108
2021-12-27 14:43:16.282549,-90
2021-12-27 14:43:16.282555,-9
2021-12-27 14:43:16.282561,-9
2021-12-27 14:43:16.282567,6
2021-12-27 14:43:16.282574,57
2021-12-27 14:43:16.574520,76
2021-12-27 14:43:16.574550,78
2021-12-27 14:43:16.574561,99
2021-12-27 14:43:16.574571,122
2021-12-27 14:43:16.574580,148
2021-12-27 14:43:16.574590,182
2021-12-27 14:43:16.574599,208
2021-12-27 14:43:16.574609,210
2021-12-27 14:43:16.574618,222
2021-12-27 14:43:16.574628,250
2021-12-27 14:43:16.574637,284
2021-12-27 14:43:16.574646,312
2021-12-27 14:43:16.574656,331
2021-12-27 14:43:16.574665,321
2021-12-27 14:43:16.574675,284
2021-12-27 14:43:16.574684,261
2021-12-27 14:43:16.574694,273
2021-12-27 14:43:16.574703,275
2021-12-27 14:43:16.574712,247
2021-12-27 14:43:16.574722,189
2021-12-27 14:43:16.574731,85
2021-12-27 14:43:16.574741,-20
2021-12-27 14:43:16.574750,-78
2021-12-27 14:43:16.574760,-111
2021-12-27 14:43:16.574769,-141
2021-12-27 14:43:16.574778,-157
2021-12-27 14:43:16.574788,-175
2021-12-27 14:43:16.574797,-189
2021-12-27 14:43:16.574807,-171
2021-12-27 14:43:16.574816,-138
2021-12-27 14:43:16.768585,-120
2021-12-27 14:43:16.768615,-129
2021-12-27 14:43:16.768626,-175
2021-12-27 14:43:16.768636,-199
2021-12-27 14:43:16.768645,-180
2021-12-27 14:43:16.768654,-178
2021-12-27 14:43:16.768664,-178
2021-12-27 14:43:16.768673,-150
2021-12-27 14:43:16.768762,-150
2021-12-27 14:43:16.768773,-192
2021-12-27 14:43:16.768783,-215
2021-12-27 14:43:16.768792,-203
2021-12-27 14:43:16.768801,-201
2021-12-27 14:43:16.768811,-217
2021-12-27 14:43:16.768820,-240
2021-12-27 14:43:16.768830,-273
2021-12-27 14:43:16.768839,-298
2021-12-27 14:43:16.768848,-277
2021-12-27 14:43:16.768858,-247
2021-12-27 14:43:16.768867,-236
2021-12-27 14:43:16.768876,-226
2021-12-27 14:43:16.768886,-240
2021-12-27 14:43:16.768895,-270
2021-12-27 14:43:16.768904,-259
2021-12-27 14:43:16.768914,-217
2021-12-27 14:43:16.768923,-199
2021-12-27 14:43:16.768933,-192
2021-12-27 14:43:16.768942,-192
2021-12-27 14:43:16.768952,-201
2021-12-27 14:43:16.768961,-192
2021-12-27 14:43:16.964732,-162
2021-12-27 14:43:16.964761,-145
2021-12-27 14:43:16.964773,-141
2021-12-27 14:43:16.964783,-138
2021-12-27 14:43:16.964792,-155
2021-12-27 14:43:16.964802,-175
2021-12-27 14:43:16.964811,-150
2021-12-27 14:43:16.964821,-111
2021-12-27 14:43:16.964830,-97
2021-12-27 14:43:16.964840,-83
2021-12-27 14:43:16.964849,-69
2021-12-27 14:43:16.964859,-83
2021-12-27 14:43:16.964868,-94
2021-12-27 14:43:16.964878,-74
2021-12-27 14:43:16.964887,-62
2021-12-27 14:43:16.964896,-74
2021-12-27 14:43:16.964906,-87
2021-12-27 14:43:16.964915,-113
2021-12-27 14:43:16.964925,-125
2021-12-27 14:43:16.964934,-92
2021-12-27 14:43:16.964943,-64
2021-12-27 14:43:16.964953,-76
2021-12-27 14:43:16.964962,-104
2021-12-27 14:43:16.964972,-166
2021-12-27 14:43:16.964981,-129
2021-12-27 14:43:16.964991,351
2021-12-27 14:43:16.965000,1266
2021-12-27 14:43:16.965010,2132
2021-12-27 14:43:16.965019,2153
2021-12-27 14:43:16.965028,608
2021-12-27 14:43:17.208490,-1021
2021-12-27 14:43:17.208520,-757
2021-12-27 14:43:17.208531,-9
2021-12-27 14:43:17.208542,-182
2021-12-27 14:43:17.208551,-261
2021-12-27 14:43:17.208560,-23
2021-12-27 14:43:17.208570,-69
2021-12-27 14:43:17.208579,-194
2021-12-27 14:43:17.208588,-148
2021-12-27 14:43:17.208598,-106
2021-12-27 14:43:17.208607,-99
2021-12-27 14:43:17.208616,-53
2021-12-27 14:43:17.208626,-18
2021-12-27 14:43:17.208635,-25
2021-12-27 14:43:17.208645,-16
2021-12-27 14:43:17.208654,18
2021-12-27 14:43:17.208664,50
2021-12-27 14:43:17.208673,87
2021-12-27 14:43:17.208683,115
2021-12-27 14:43:17.208692,115
2021-12-27 14:43:17.208702,136
2021-12-27 14:43:17.208711,189
2021-12-27 14:43:17.208721,238
2021-12-27 14:43:17.208730,270
2021-12-27 14:43:17.208739,291
2021-12-27 14:43:17.208749,291
