Time,ECG
2021-12-27 16:02:26.464692,74
2021-12-27 16:02:26.464707,60
2021-12-27 16:02:26.464712,49
2021-12-27 16:02:26.464718,42
2021-12-27 16:02:26.464723,37
2021-12-27 16:02:26.464728,32
2021-12-27 16:02:26.464732,30
2021-12-27 16:02:26.464737,32
2021-12-27 16:02:26.464741,53
2021-12-27 16:02:26.464746,74
2021-12-27 16:02:26.464750,81
2021-12-27 16:02:26.464755,77
2021-12-27 16:02:26.464759,81
2021-12-27 16:02:26.464764,88
2021-12-27 16:02:26.464768,84
2021-12-27 16:02:26.464772,95
2021-12-27 16:02:26.464777,121
2021-12-27 16:02:26.464781,123
2021-12-27 16:02:26.464799,133
2021-12-27 16:02:26.464803,151
2021-12-27 16:02:26.464808,142
2021-12-27 16:02:26.464812,135
2021-12-27 16:02:26.464816,142
2021-12-27 16:02:26.464820,130
2021-12-27 16:02:26.464824,119
2021-12-27 16:02:26.464828,114
2021-12-27 16:02:26.464833,91
2021-12-27 16:02:26.464837,77
2021-12-27 16:02:26.464841,91
2021-12-27 16:02:26.464845,84
2021-12-27 16:02:26.603567,63
2021-12-27 16:02:26.603586,77
2021-12-27 16:02:26.603594,98
2021-12-27 16:02:26.603601,88
2021-12-27 16:02:26.603607,79
2021-12-27 16:02:26.603614,79
2021-12-27 16:02:26.603621,84
2021-12-27 16:02:26.603628,91
2021-12-27 16:02:26.603634,91
2021-12-27 16:02:26.603641,86
2021-12-27 16:02:26.603647,91
2021-12-27 16:02:26.603653,98
2021-12-27 16:02:26.603660,107
2021-12-27 16:02:26.603666,119
2021-12-27 16:02:26.603672,109
2021-12-27 16:02:26.603678,84
2021-12-27 16:02:26.603685,63
2021-12-27 16:02:26.603692,44
2021-12-27 16:02:26.603698,49
2021-12-27 16:02:26.603705,81
2021-12-27 16:02:26.603711,102
2021-12-27 16:02:26.603717,105
2021-12-27 16:02:26.603724,109
2021-12-27 16:02:26.603730,119
2021-12-27 16:02:26.603737,116
2021-12-27 16:02:26.603743,114
2021-12-27 16:02:26.603749,121
2021-12-27 16:02:26.603756,112
2021-12-27 16:02:26.603762,95
2021-12-27 16:02:26.603770,98
2021-12-27 16:02:26.896821,128
2021-12-27 16:02:26.896843,200
2021-12-27 16:02:26.896851,263
2021-12-27 16:02:26.896858,28
2021-12-27 16:02:26.896865,-754
2021-12-27 16:02:26.896872,-1667
2021-12-27 16:02:26.896878,-1597
2021-12-27 16:02:26.896885,-355
2021-12-27 16:02:26.896891,446
2021-12-27 16:02:26.896898,168
2021-12-27 16:02:26.896904,53
2021-12-27 16:02:26.896911,315
2021-12-27 16:02:26.896918,289
2021-12-27 16:02:26.896942,184
2021-12-27 16:02:26.896949,245
2021-12-27 16:02:26.896956,254
2021-12-27 16:02:26.896962,196
2021-12-27 16:02:26.896969,179
2021-12-27 16:02:26.896976,172
2021-12-27 16:02:26.896982,158
2021-12-27 16:02:26.896989,151
2021-12-27 16:02:26.896995,142
2021-12-27 16:02:26.897002,135
2021-12-27 16:02:26.897008,126
2021-12-27 16:02:26.897015,100
2021-12-27 16:02:26.897021,88
2021-12-27 16:02:26.897028,93
2021-12-27 16:02:26.897034,79
2021-12-27 16:02:26.897041,53
2021-12-27 16:02:26.897049,44
2021-12-27 16:02:27.091963,53
2021-12-27 16:02:27.091993,60
2021-12-27 16:02:27.092005,65
2021-12-27 16:02:27.092015,72
2021-12-27 16:02:27.092025,93
2021-12-27 16:02:27.092035,107
2021-12-27 16:02:27.092045,93
2021-12-27 16:02:27.092055,81
2021-12-27 16:02:27.092065,105
2021-12-27 16:02:27.092074,135
2021-12-27 16:02:27.092084,144
2021-12-27 16:02:27.092094,142
2021-12-27 16:02:27.092104,144
2021-12-27 16:02:27.092114,147
2021-12-27 16:02:27.092124,140
2021-12-27 16:02:27.092133,130
2021-12-27 16:02:27.092143,133
2021-12-27 16:02:27.092159,135
2021-12-27 16:02:27.092169,116
2021-12-27 16:02:27.092179,91
2021-12-27 16:02:27.092189,84
2021-12-27 16:02:27.092199,84
2021-12-27 16:02:27.092208,88
2021-12-27 16:02:27.092218,107
2021-12-27 16:02:27.092228,98
2021-12-27 16:02:27.092238,86
2021-12-27 16:02:27.092247,95
2021-12-27 16:02:27.092257,95
2021-12-27 16:02:27.092267,88
2021-12-27 16:02:27.092277,98
2021-12-27 16:02:27.384086,105
2021-12-27 16:02:27.384116,102
2021-12-27 16:02:27.384128,105
2021-12-27 16:02:27.384138,88
2021-12-27 16:02:27.384148,77
2021-12-27 16:02:27.384158,91
2021-12-27 16:02:27.384168,107
2021-12-27 16:02:27.384185,105
2021-12-27 16:02:27.384196,93
2021-12-27 16:02:27.384205,74
2021-12-27 16:02:27.384215,56
2021-12-27 16:02:27.384225,56
2021-12-27 16:02:27.384235,67
2021-12-27 16:02:27.384245,79
2021-12-27 16:02:27.384255,98
2021-12-27 16:02:27.384264,102
2021-12-27 16:02:27.384274,93
2021-12-27 16:02:27.384284,102
2021-12-27 16:02:27.384294,114
2021-12-27 16:02:27.384304,100
2021-12-27 16:02:27.384313,91
2021-12-27 16:02:27.384323,100
2021-12-27 16:02:27.384333,114
2021-12-27 16:02:27.384343,114
2021-12-27 16:02:27.384352,135
2021-12-27 16:02:27.384362,210
2021-12-27 16:02:27.384372,198
2021-12-27 16:02:27.384382,-116
2021-12-27 16:02:27.384392,-798
2021-12-27 16:02:27.384403,-1501
2021-12-27 16:02:27.529800,-1324
2021-12-27 16:02:27.529814,-203
2021-12-27 16:02:27.529821,404
2021-12-27 16:02:27.529826,140
2021-12-27 16:02:27.529830,81
2021-12-27 16:02:27.529835,273
2021-12-27 16:02:27.529839,235
2021-12-27 16:02:27.529844,161
2021-12-27 16:02:27.529848,193
2021-12-27 16:02:27.529853,189
2021-12-27 16:02:27.529857,149
2021-12-27 16:02:27.529862,156
2021-12-27 16:02:27.529866,149
2021-12-27 16:02:27.529871,109
2021-12-27 16:02:27.529875,95
2021-12-27 16:02:27.529880,91
2021-12-27 16:02:27.529884,72
2021-12-27 16:02:27.529889,70
2021-12-27 16:02:27.529893,70
2021-12-27 16:02:27.529897,51
2021-12-27 16:02:27.529902,39
2021-12-27 16:02:27.529906,37
2021-12-27 16:02:27.529911,28
2021-12-27 16:02:27.529915,28
2021-12-27 16:02:27.529923,37
2021-12-27 16:02:27.529928,44
2021-12-27 16:02:27.529933,44
2021-12-27 16:02:27.529937,51
2021-12-27 16:02:27.529942,63
2021-12-27 16:02:27.529946,72
2021-12-27 16:02:27.822557,86
2021-12-27 16:02:27.822587,107
2021-12-27 16:02:27.822599,107
2021-12-27 16:02:27.822609,86
2021-12-27 16:02:27.822619,88
2021-12-27 16:02:27.822629,112
2021-12-27 16:02:27.822639,121
2021-12-27 16:02:27.822649,133
2021-12-27 16:02:27.822659,151
2021-12-27 16:02:27.822669,126
2021-12-27 16:02:27.822679,81
2021-12-27 16:02:27.822688,79
2021-12-27 16:02:27.822698,105
2021-12-27 16:02:27.822708,107
2021-12-27 16:02:27.822718,84
2021-12-27 16:02:27.822728,77
2021-12-27 16:02:27.822737,100
2021-12-27 16:02:27.822747,114
2021-12-27 16:02:27.822757,116
2021-12-27 16:02:27.822767,109
2021-12-27 16:02:27.822776,102
2021-12-27 16:02:27.822786,116
2021-12-27 16:02:27.822799,121
2021-12-27 16:02:27.822809,102
2021-12-27 16:02:27.822819,102
2021-12-27 16:02:27.822829,109
2021-12-27 16:02:27.822839,109
2021-12-27 16:02:27.822848,116
2021-12-27 16:02:27.822858,126
2021-12-27 16:02:27.822868,128
2021-12-27 16:02:28.163536,116
2021-12-27 16:02:28.163566,91
2021-12-27 16:02:28.163578,81
2021-12-27 16:02:28.163588,88
2021-12-27 16:02:28.163598,84
2021-12-27 16:02:28.163608,63
2021-12-27 16:02:28.163618,63
2021-12-27 16:02:28.163628,88
2021-12-27 16:02:28.163637,107
2021-12-27 16:02:28.163647,114
2021-12-27 16:02:28.163657,112
2021-12-27 16:02:28.163667,102
2021-12-27 16:02:28.163677,98
2021-12-27 16:02:28.163686,95
2021-12-27 16:02:28.163696,91
2021-12-27 16:02:28.163706,91
2021-12-27 16:02:28.163716,102
2021-12-27 16:02:28.163726,137
2021-12-27 16:02:28.163736,189
2021-12-27 16:02:28.163746,147
2021-12-27 16:02:28.163756,-179
2021-12-27 16:02:28.163766,-829
2021-12-27 16:02:28.163776,-1333
2021-12-27 16:02:28.163785,-913
2021-12-27 16:02:28.163802,70
2021-12-27 16:02:28.163812,340
2021-12-27 16:02:28.163822,74
2021-12-27 16:02:28.163832,126
2021-12-27 16:02:28.163841,252
2021-12-27 16:02:28.163851,182
2021-12-27 16:02:28.310145,161
2021-12-27 16:02:28.310175,200
2021-12-27 16:02:28.310187,175
2021-12-27 16:02:28.310197,137
2021-12-27 16:02:28.310207,140
2021-12-27 16:02:28.310217,142
2021-12-27 16:02:28.310227,126
2021-12-27 16:02:28.310237,112
2021-12-27 16:02:28.310247,98
2021-12-27 16:02:28.310256,84
2021-12-27 16:02:28.310266,77
2021-12-27 16:02:28.310276,67
2021-12-27 16:02:28.310285,60
2021-12-27 16:02:28.310295,58
2021-12-27 16:02:28.310305,49
2021-12-27 16:02:28.310314,35
2021-12-27 16:02:28.310324,32
2021-12-27 16:02:28.310334,46
2021-12-27 16:02:28.310343,49
2021-12-27 16:02:28.310353,53
2021-12-27 16:02:28.310363,70
2021-12-27 16:02:28.310372,77
2021-12-27 16:02:28.310382,72
2021-12-27 16:02:28.310392,81
2021-12-27 16:02:28.310402,93
2021-12-27 16:02:28.310412,91
2021-12-27 16:02:28.310422,81
2021-12-27 16:02:28.310431,88
2021-12-27 16:02:28.310441,107
2021-12-27 16:02:28.310451,114
2021-12-27 16:02:28.457468,107
2021-12-27 16:02:28.457489,105
2021-12-27 16:02:28.457496,100
2021-12-27 16:02:28.457503,93
2021-12-27 16:02:28.457509,95
2021-12-27 16:02:28.457516,93
2021-12-27 16:02:28.457522,67
2021-12-27 16:02:28.457529,60
2021-12-27 16:02:28.457535,86
2021-12-27 16:02:28.457541,91
2021-12-27 16:02:28.457548,70
2021-12-27 16:02:28.457554,77
2021-12-27 16:02:28.457560,91
2021-12-27 16:02:28.457567,81
2021-12-27 16:02:28.457573,72
2021-12-27 16:02:28.457580,65
2021-12-27 16:02:28.457586,67
2021-12-27 16:02:28.457592,81
2021-12-27 16:02:28.457599,93
2021-12-27 16:02:28.457605,91
2021-12-27 16:02:28.457611,88
2021-12-27 16:02:28.457618,91
2021-12-27 16:02:28.457624,77
2021-12-27 16:02:28.457630,49
2021-12-27 16:02:28.457637,49
2021-12-27 16:02:28.457643,63
2021-12-27 16:02:28.457650,56
2021-12-27 16:02:28.457656,58
2021-12-27 16:02:28.457662,91
2021-12-27 16:02:28.457669,98
2021-12-27 16:02:28.700798,88
2021-12-27 16:02:28.700828,98
2021-12-27 16:02:28.700840,107
2021-12-27 16:02:28.700850,100
2021-12-27 16:02:28.700860,100
2021-12-27 16:02:28.700869,105
2021-12-27 16:02:28.700879,100
2021-12-27 16:02:28.700889,112
2021-12-27 16:02:28.700899,149
2021-12-27 16:02:28.700908,168
2021-12-27 16:02:28.700926,86
2021-12-27 16:02:28.700936,-266
2021-12-27 16:02:28.700945,-913
2021-12-27 16:02:28.700955,-1293
2021-12-27 16:02:28.700965,-703
2021-12-27 16:02:28.700974,203
2021-12-27 16:02:28.700984,294
2021-12-27 16:02:28.700994,39
2021-12-27 16:02:28.701003,140
2021-12-27 16:02:28.701013,247
2021-12-27 16:02:28.701022,186
2021-12-27 16:02:28.701032,163
2021-12-27 16:02:28.701042,172
2021-12-27 16:02:28.701051,151
2021-12-27 16:02:28.701061,137
2021-12-27 16:02:28.701071,133
2021-12-27 16:02:28.701080,119
2021-12-27 16:02:28.701090,107
2021-12-27 16:02:28.701100,98
2021-12-27 16:02:28.701109,81
2021-12-27 16:02:28.943951,58
2021-12-27 16:02:28.943970,49
2021-12-27 16:02:28.943977,46
2021-12-27 16:02:28.943983,44
2021-12-27 16:02:28.943989,42
2021-12-27 16:02:28.943994,32
2021-12-27 16:02:28.943999,25
2021-12-27 16:02:28.944004,21
2021-12-27 16:02:28.944009,16
2021-12-27 16:02:28.944014,21
2021-12-27 16:02:28.944020,37
2021-12-27 16:02:28.944025,37
2021-12-27 16:02:28.944030,35
2021-12-27 16:02:28.944035,53
2021-12-27 16:02:28.944040,67
2021-12-27 16:02:28.944045,51
2021-12-27 16:02:28.944050,46
2021-12-27 16:02:28.944055,72
2021-12-27 16:02:28.944060,81
2021-12-27 16:02:28.944065,88
2021-12-27 16:02:28.944070,100
2021-12-27 16:02:28.944075,93
2021-12-27 16:02:28.944081,86
2021-12-27 16:02:28.944086,77
2021-12-27 16:02:28.944091,70
2021-12-27 16:02:28.944101,74
2021-12-27 16:02:28.944107,70
2021-12-27 16:02:28.944112,58
2021-12-27 16:02:28.944117,74
2021-12-27 16:02:28.944122,91
2021-12-27 16:02:29.187593,88
2021-12-27 16:02:29.187610,81
2021-12-27 16:02:29.187616,72
2021-12-27 16:02:29.187622,72
2021-12-27 16:02:29.187627,86
2021-12-27 16:02:29.187633,105
2021-12-27 16:02:29.187638,93
2021-12-27 16:02:29.187643,74
2021-12-27 16:02:29.187649,86
2021-12-27 16:02:29.187654,105
2021-12-27 16:02:29.187661,88
2021-12-27 16:02:29.187666,70
2021-12-27 16:02:29.187671,70
2021-12-27 16:02:29.187677,79
2021-12-27 16:02:29.187682,93
2021-12-27 16:02:29.187687,88
2021-12-27 16:02:29.187692,81
2021-12-27 16:02:29.187698,98
2021-12-27 16:02:29.187703,116
2021-12-27 16:02:29.187708,123
2021-12-27 16:02:29.187713,126
2021-12-27 16:02:29.187720,123
2021-12-27 16:02:29.187729,112
2021-12-27 16:02:29.187738,121
2021-12-27 16:02:29.187747,144
2021-12-27 16:02:29.187756,137
2021-12-27 16:02:29.187766,137
2021-12-27 16:02:29.187775,198
2021-12-27 16:02:29.187784,184
2021-12-27 16:02:29.187793,-137
2021-12-27 16:02:29.382614,-756
2021-12-27 16:02:29.382631,-1142
2021-12-27 16:02:29.382637,-663
2021-12-27 16:02:29.382642,144
2021-12-27 16:02:29.382648,259
2021-12-27 16:02:29.382653,56
2021-12-27 16:02:29.382658,163
2021-12-27 16:02:29.382663,268
2021-12-27 16:02:29.382668,203
2021-12-27 16:02:29.382673,163
2021-12-27 16:02:29.382679,170
2021-12-27 16:02:29.382684,142
2021-12-27 16:02:29.382689,105
2021-12-27 16:02:29.382694,109
2021-12-27 16:02:29.382699,116
2021-12-27 16:02:29.382704,79
2021-12-27 16:02:29.382712,53
2021-12-27 16:02:29.382718,72
2021-12-27 16:02:29.382723,74
2021-12-27 16:02:29.382728,46
2021-12-27 16:02:29.382733,39
2021-12-27 16:02:29.382738,44
2021-12-27 16:02:29.382743,25
2021-12-27 16:02:29.382749,4
2021-12-27 16:02:29.382754,18
2021-12-27 16:02:29.382759,32
2021-12-27 16:02:29.382764,28
2021-12-27 16:02:29.382769,39
2021-12-27 16:02:29.382775,53
2021-12-27 16:02:29.382780,53
2021-12-27 16:02:29.626461,53
2021-12-27 16:02:29.626481,53
2021-12-27 16:02:29.626489,53
2021-12-27 16:02:29.626496,70
2021-12-27 16:02:29.626503,86
2021-12-27 16:02:29.626509,84
2021-12-27 16:02:29.626516,93
2021-12-27 16:02:29.626522,107
2021-12-27 16:02:29.626529,102
2021-12-27 16:02:29.626535,102
2021-12-27 16:02:29.626541,107
2021-12-27 16:02:29.626548,91
2021-12-27 16:02:29.626554,77
2021-12-27 16:02:29.626561,74
2021-12-27 16:02:29.626567,72
2021-12-27 16:02:29.626574,81
2021-12-27 16:02:29.626580,88
2021-12-27 16:02:29.626586,79
2021-12-27 16:02:29.626593,74
2021-12-27 16:02:29.626599,81
2021-12-27 16:02:29.626606,81
2021-12-27 16:02:29.626612,88
2021-12-27 16:02:29.626618,100
2021-12-27 16:02:29.626625,93
2021-12-27 16:02:29.626631,88
2021-12-27 16:02:29.626637,102
2021-12-27 16:02:29.626644,91
2021-12-27 16:02:29.626650,51
2021-12-27 16:02:29.626657,32
2021-12-27 16:02:29.626663,49
2021-12-27 16:02:29.918696,112
2021-12-27 16:02:29.918711,165
2021-12-27 16:02:29.918717,147
2021-12-27 16:02:29.918721,123
2021-12-27 16:02:29.918726,130
2021-12-27 16:02:29.918730,130
2021-12-27 16:02:29.918735,130
2021-12-27 16:02:29.918740,130
2021-12-27 16:02:29.918744,126
2021-12-27 16:02:29.918749,121
2021-12-27 16:02:29.918753,133
2021-12-27 16:02:29.918758,177
2021-12-27 16:02:29.918762,235
2021-12-27 16:02:29.918771,172
2021-12-27 16:02:29.918776,-219
2021-12-27 16:02:29.918780,-910
2021-12-27 16:02:29.918785,-1277
2021-12-27 16:02:29.918789,-656
2021-12-27 16:02:29.918794,228
2021-12-27 16:02:29.918799,298
2021-12-27 16:02:29.918803,81
2021-12-27 16:02:29.918808,191
2021-12-27 16:02:29.918813,252
2021-12-27 16:02:29.918817,177
2021-12-27 16:02:29.918822,193
2021-12-27 16:02:29.918826,221
2021-12-27 16:02:29.918831,184
2021-12-27 16:02:29.918835,158
2021-12-27 16:02:29.918840,165
2021-12-27 16:02:29.918844,151
2021-12-27 16:02:30.161863,130
2021-12-27 16:02:30.161880,126
2021-12-27 16:02:30.161886,126
2021-12-27 16:02:30.161892,100
2021-12-27 16:02:30.161897,84
2021-12-27 16:02:30.161902,88
2021-12-27 16:02:30.161907,81
2021-12-27 16:02:30.161912,74
2021-12-27 16:02:30.161917,70
2021-12-27 16:02:30.161922,60
2021-12-27 16:02:30.161927,60
2021-12-27 16:02:30.161932,72
2021-12-27 16:02:30.161937,77
2021-12-27 16:02:30.161942,72
2021-12-27 16:02:30.161947,77
2021-12-27 16:02:30.161952,102
2021-12-27 16:02:30.161957,128
2021-12-27 16:02:30.161962,123
2021-12-27 16:02:30.161967,121
2021-12-27 16:02:30.161972,133
2021-12-27 16:02:30.161978,142
2021-12-27 16:02:30.161983,142
2021-12-27 16:02:30.161988,149
2021-12-27 16:02:30.161993,154
2021-12-27 16:02:30.161998,156
2021-12-27 16:02:30.162003,158
2021-12-27 16:02:30.162008,156
2021-12-27 16:02:30.162013,144
2021-12-27 16:02:30.162018,135
2021-12-27 16:02:30.162023,135
2021-12-27 16:02:30.308885,135
2021-12-27 16:02:30.308913,135
2021-12-27 16:02:30.308924,126
2021-12-27 16:02:30.308933,102
2021-12-27 16:02:30.308943,109
2021-12-27 16:02:30.308952,114
2021-12-27 16:02:30.308962,93
2021-12-27 16:02:30.308971,98
2021-12-27 16:02:30.308981,126
2021-12-27 16:02:30.308991,114
2021-12-27 16:02:30.309000,77
2021-12-27 16:02:30.309010,70
2021-12-27 16:02:30.309019,91
2021-12-27 16:02:30.309029,102
2021-12-27 16:02:30.309035,102
2021-12-27 16:02:30.309041,105
2021-12-27 16:02:30.309046,105
2021-12-27 16:02:30.309057,102
2021-12-27 16:02:30.309062,112
2021-12-27 16:02:30.309067,123
2021-12-27 16:02:30.309072,123
2021-12-27 16:02:30.309077,114
2021-12-27 16:02:30.309083,114
2021-12-27 16:02:30.309088,133
2021-12-27 16:02:30.309093,193
2021-12-27 16:02:30.309098,268
2021-12-27 16:02:30.309103,186
2021-12-27 16:02:30.309108,-294
2021-12-27 16:02:30.309113,-1104
2021-12-27 16:02:30.309118,-1462
2021-12-27 16:02:30.649644,-651
2021-12-27 16:02:30.649664,336
2021-12-27 16:02:30.649672,310
2021-12-27 16:02:30.649679,60
2021-12-27 16:02:30.649686,233
2021-12-27 16:02:30.649693,277
2021-12-27 16:02:30.649699,158
2021-12-27 16:02:30.649706,170
2021-12-27 16:02:30.649712,191
2021-12-27 16:02:30.649719,144
2021-12-27 16:02:30.649726,128
2021-12-27 16:02:30.649732,130
2021-12-27 16:02:30.649739,84
2021-12-27 16:02:30.649745,53
2021-12-27 16:02:30.649752,93
2021-12-27 16:02:30.649758,116
2021-12-27 16:02:30.649765,72
2021-12-27 16:02:30.649771,42
2021-12-27 16:02:30.649778,44
2021-12-27 16:02:30.649784,35
2021-12-27 16:02:30.649791,18
2021-12-27 16:02:30.649797,18
2021-12-27 16:02:30.649804,21
2021-12-27 16:02:30.649810,23
2021-12-27 16:02:30.649817,32
2021-12-27 16:02:30.649823,39
2021-12-27 16:02:30.649829,51
2021-12-27 16:02:30.649836,65
2021-12-27 16:02:30.649842,72
2021-12-27 16:02:30.649849,86
2021-12-27 16:02:30.894491,114
2021-12-27 16:02:30.894525,133
2021-12-27 16:02:30.894539,140
2021-12-27 16:02:30.894552,158
2021-12-27 16:02:30.894563,177
2021-12-27 16:02:30.894573,182
2021-12-27 16:02:30.894583,177
2021-12-27 16:02:30.894594,177
2021-12-27 16:02:30.894605,168
2021-12-27 16:02:30.894628,151
2021-12-27 16:02:30.894638,144
2021-12-27 16:02:30.894650,156
2021-12-27 16:02:30.894662,161
2021-12-27 16:02:30.894673,149
2021-12-27 16:02:30.894684,137
2021-12-27 16:02:30.894696,135
2021-12-27 16:02:30.894718,126
2021-12-27 16:02:30.894730,112
2021-12-27 16:02:30.894740,98
2021-12-27 16:02:30.894747,95
2021-12-27 16:02:30.894753,95
2021-12-27 16:02:30.894760,93
2021-12-27 16:02:30.894766,88
2021-12-27 16:02:30.894772,109
2021-12-27 16:02:30.894779,140
2021-12-27 16:02:30.894785,135
2021-12-27 16:02:30.894792,123
2021-12-27 16:02:30.894798,128
2021-12-27 16:02:30.894821,130
2021-12-27 16:02:30.894851,121
2021-12-27 16:02:30.991497,112
2021-12-27 16:02:30.991516,112
2021-12-27 16:02:30.991522,123
2021-12-27 16:02:30.991527,135
2021-12-27 16:02:30.991532,149
2021-12-27 16:02:30.991538,217
2021-12-27 16:02:30.991543,268
2021-12-27 16:02:30.991548,49
2021-12-27 16:02:30.991553,-639
2021-12-27 16:02:30.991559,-1459
2021-12-27 16:02:30.991564,-1382
2021-12-27 16:02:30.991569,-189
2021-12-27 16:02:30.991574,548
2021-12-27 16:02:30.991613,228
2021-12-27 16:02:30.991630,93
2021-12-27 16:02:30.991640,308
2021-12-27 16:02:30.991650,254
2021-12-27 16:02:30.991684,170
2021-12-27 16:02:30.991694,226
2021-12-27 16:02:30.991700,214
2021-12-27 16:02:30.991705,163
2021-12-27 16:02:30.991710,168
2021-12-27 16:02:30.991715,158
2021-12-27 16:02:30.991720,123
2021-12-27 16:02:30.991726,107
2021-12-27 16:02:30.991731,102
2021-12-27 16:02:30.991736,88
2021-12-27 16:02:30.991741,70
2021-12-27 16:02:30.991746,53
2021-12-27 16:02:30.991751,37
2021-12-27 16:02:31.235835,28
2021-12-27 16:02:31.235974,25
2021-12-27 16:02:31.235992,23
2021-12-27 16:02:31.236004,14
2021-12-27 16:02:31.236016,7
2021-12-27 16:02:31.236027,14
2021-12-27 16:02:31.236058,35
2021-12-27 16:02:31.236074,49
2021-12-27 16:02:31.236087,49
2021-12-27 16:02:31.236099,70
2021-12-27 16:02:31.236111,98
2021-12-27 16:02:31.236122,114
2021-12-27 16:02:31.236134,133
2021-12-27 16:02:31.236146,149
2021-12-27 16:02:31.236157,158
2021-12-27 16:02:31.236169,165
2021-12-27 16:02:31.236181,170
2021-12-27 16:02:31.236194,163
2021-12-27 16:02:31.236205,156
2021-12-27 16:02:31.236217,154
2021-12-27 16:02:31.236229,149
2021-12-27 16:02:31.236241,144
2021-12-27 16:02:31.236253,147
2021-12-27 16:02:31.236266,147
2021-12-27 16:02:31.236278,135
2021-12-27 16:02:31.236290,114
2021-12-27 16:02:31.236302,105
2021-12-27 16:02:31.236313,112
2021-12-27 16:02:31.236325,112
2021-12-27 16:02:31.236337,98
2021-12-27 16:02:31.479899,86
2021-12-27 16:02:31.479920,84
2021-12-27 16:02:31.479928,79
2021-12-27 16:02:31.479934,79
2021-12-27 16:02:31.479941,95
2021-12-27 16:02:31.479947,105
2021-12-27 16:02:31.479954,98
2021-12-27 16:02:31.479960,105
2021-12-27 16:02:31.479967,121
2021-12-27 16:02:31.479973,116
2021-12-27 16:02:31.479979,114
2021-12-27 16:02:31.479986,123
2021-12-27 16:02:31.479993,121
2021-12-27 16:02:31.479999,112
2021-12-27 16:02:31.480005,135
2021-12-27 16:02:31.480012,207
2021-12-27 16:02:31.480018,249
2021-12-27 16:02:31.480025,42
2021-12-27 16:02:31.480031,-618
2021-12-27 16:02:31.480038,-1497
2021-12-27 16:02:31.480058,-1592
2021-12-27 16:02:31.480064,-448
2021-12-27 16:02:31.480071,464
2021-12-27 16:02:31.480077,235
2021-12-27 16:02:31.480084,49
2021-12-27 16:02:31.480090,280
2021-12-27 16:02:31.480097,261
2021-12-27 16:02:31.480103,142
2021-12-27 16:02:31.480109,191
2021-12-27 16:02:31.480116,205
2021-12-27 16:02:31.674131,147
2021-12-27 16:02:31.674151,142
2021-12-27 16:02:31.674159,154
2021-12-27 16:02:31.674173,128
2021-12-27 16:02:31.674187,100
2021-12-27 16:02:31.674193,88
2021-12-27 16:02:31.674200,79
2021-12-27 16:02:31.674206,65
2021-12-27 16:02:31.674213,51
2021-12-27 16:02:31.674220,32
2021-12-27 16:02:31.674226,14
2021-12-27 16:02:31.674233,-2
2021-12-27 16:02:31.674240,-7
2021-12-27 16:02:31.674246,0
2021-12-27 16:02:31.674253,18
2021-12-27 16:02:31.674260,25
2021-12-27 16:02:31.674266,18
2021-12-27 16:02:31.674273,18
2021-12-27 16:02:31.674279,35
2021-12-27 16:02:31.674286,58
2021-12-27 16:02:31.674292,84
2021-12-27 16:02:31.674299,102
2021-12-27 16:02:31.674306,114
2021-12-27 16:02:31.674312,130
2021-12-27 16:02:31.674319,147
2021-12-27 16:02:31.674325,154
2021-12-27 16:02:31.674332,168
2021-12-27 16:02:31.674338,179
2021-12-27 16:02:31.674345,177
2021-12-27 16:02:31.674351,161
2021-12-27 16:02:31.918366,144
2021-12-27 16:02:31.918387,142
2021-12-27 16:02:31.918395,142
2021-12-27 16:02:31.918402,133
2021-12-27 16:02:31.918408,119
2021-12-27 16:02:31.918415,119
2021-12-27 16:02:31.918421,123
2021-12-27 16:02:31.918428,126
2021-12-27 16:02:31.918434,123
2021-12-27 16:02:31.918441,112
2021-12-27 16:02:31.918447,98
2021-12-27 16:02:31.918454,91
2021-12-27 16:02:31.918460,93
2021-12-27 16:02:31.918467,95
2021-12-27 16:02:31.918473,105
2021-12-27 16:02:31.918480,128
2021-12-27 16:02:31.918486,137
2021-12-27 16:02:31.918492,128
2021-12-27 16:02:31.918499,133
2021-12-27 16:02:31.918505,142
2021-12-27 16:02:31.918511,142
2021-12-27 16:02:31.918518,137
2021-12-27 16:02:31.918524,137
2021-12-27 16:02:31.918531,137
2021-12-27 16:02:31.918537,170
2021-12-27 16:02:31.918544,252
2021-12-27 16:02:31.918550,282
2021-12-27 16:02:31.918557,-18
2021-12-27 16:02:31.918563,-857
2021-12-27 16:02:31.918570,-1798
2021-12-27 16:02:32.257816,-1693
2021-12-27 16:02:32.257836,-366
2021-12-27 16:02:32.257844,488
2021-12-27 16:02:32.257850,226
2021-12-27 16:02:32.257857,112
2021-12-27 16:02:32.257864,355
2021-12-27 16:02:32.257870,315
2021-12-27 16:02:32.257877,205
2021-12-27 16:02:32.257883,261
2021-12-27 16:02:32.257890,261
2021-12-27 16:02:32.257896,196
2021-12-27 16:02:32.257903,191
2021-12-27 16:02:32.257909,193
2021-12-27 16:02:32.257916,163
2021-12-27 16:02:32.257922,147
2021-12-27 16:02:32.257928,140
2021-12-27 16:02:32.257935,114
2021-12-27 16:02:32.257941,88
2021-12-27 16:02:32.257948,67
2021-12-27 16:02:32.257954,46
2021-12-27 16:02:32.257961,37
2021-12-27 16:02:32.257967,35
2021-12-27 16:02:32.257977,25
2021-12-27 16:02:32.257984,14
2021-12-27 16:02:32.257990,11
2021-12-27 16:02:32.257997,23
2021-12-27 16:02:32.258003,32
2021-12-27 16:02:32.258010,35
2021-12-27 16:02:32.258016,39
2021-12-27 16:02:32.258023,51
2021-12-27 16:02:32.405348,72
2021-12-27 16:02:32.405376,98
2021-12-27 16:02:32.405390,114
2021-12-27 16:02:32.405403,126
2021-12-27 16:02:32.405415,128
2021-12-27 16:02:32.405427,123
2021-12-27 16:02:32.405439,123
2021-12-27 16:02:32.405448,126
2021-12-27 16:02:32.405454,119
2021-12-27 16:02:32.405461,109
2021-12-27 16:02:32.405467,105
2021-12-27 16:02:32.405474,112
2021-12-27 16:02:32.405480,123
2021-12-27 16:02:32.405486,119
2021-12-27 16:02:32.405493,107
2021-12-27 16:02:32.405499,102
2021-12-27 16:02:32.405505,98
2021-12-27 16:02:32.405512,114
2021-12-27 16:02:32.405518,123
2021-12-27 16:02:32.405524,95
2021-12-27 16:02:32.405531,79
2021-12-27 16:02:32.405537,95
2021-12-27 16:02:32.405543,91
2021-12-27 16:02:32.405550,72
2021-12-27 16:02:32.405556,70
2021-12-27 16:02:32.405562,77
2021-12-27 16:02:32.405569,81
2021-12-27 16:02:32.405575,91
2021-12-27 16:02:32.405581,98
2021-12-27 16:02:32.405588,95
2021-12-27 16:02:32.648990,98
2021-12-27 16:02:32.649011,98
2021-12-27 16:02:32.649018,95
2021-12-27 16:02:32.649025,88
2021-12-27 16:02:32.649032,86
2021-12-27 16:02:32.649038,91
2021-12-27 16:02:32.649045,123
2021-12-27 16:02:32.649051,205
2021-12-27 16:02:32.649057,245
2021-12-27 16:02:32.649064,-53
2021-12-27 16:02:32.649070,-880
2021-12-27 16:02:32.649077,-1807
2021-12-27 16:02:32.649083,-1726
2021-12-27 16:02:32.649089,-448
2021-12-27 16:02:32.649096,404
2021-12-27 16:02:32.649102,182
2021-12-27 16:02:32.649109,81
2021-12-27 16:02:32.649116,326
2021-12-27 16:02:32.649122,310
2021-12-27 16:02:32.649129,212
2021-12-27 16:02:32.649135,256
2021-12-27 16:02:32.649141,249
2021-12-27 16:02:32.649148,200
2021-12-27 16:02:32.649154,210
2021-12-27 16:02:32.649161,210
2021-12-27 16:02:32.649167,182
2021-12-27 16:02:32.649174,175
2021-12-27 16:02:32.649180,168
2021-12-27 16:02:32.649187,154
2021-12-27 16:02:32.649193,147
2021-12-27 16:02:32.892796,137
2021-12-27 16:02:32.892815,126
2021-12-27 16:02:32.892823,114
2021-12-27 16:02:32.892830,102
2021-12-27 16:02:32.892836,86
2021-12-27 16:02:32.892842,77
2021-12-27 16:02:32.892849,74
2021-12-27 16:02:32.892855,65
2021-12-27 16:02:32.892862,58
2021-12-27 16:02:32.892868,67
2021-12-27 16:02:32.892877,77
2021-12-27 16:02:32.892884,74
2021-12-27 16:02:32.892890,84
2021-12-27 16:02:32.892896,107
2021-12-27 16:02:32.892903,112
2021-12-27 16:02:32.892909,107
2021-12-27 16:02:32.892915,116
2021-12-27 16:02:32.892922,126
2021-12-27 16:02:32.892928,121
2021-12-27 16:02:32.892935,116
2021-12-27 16:02:32.892941,121
2021-12-27 16:02:32.892947,123
2021-12-27 16:02:32.892954,112
2021-12-27 16:02:32.892960,98
2021-12-27 16:02:32.892966,100
2021-12-27 16:02:32.892973,100
2021-12-27 16:02:32.892979,95
2021-12-27 16:02:32.892986,98
2021-12-27 16:02:32.892992,98
2021-12-27 16:02:32.892998,91
2021-12-27 16:02:33.087786,91
2021-12-27 16:02:33.087805,93
2021-12-27 16:02:33.087812,93
2021-12-27 16:02:33.087819,93
2021-12-27 16:02:33.087826,88
2021-12-27 16:02:33.087835,91
2021-12-27 16:02:33.087842,93
2021-12-27 16:02:33.087849,79
2021-12-27 16:02:33.087855,65
2021-12-27 16:02:33.087862,63
2021-12-27 16:02:33.087868,63
2021-12-27 16:02:33.087875,65
2021-12-27 16:02:33.087881,77
2021-12-27 16:02:33.087888,84
2021-12-27 16:02:33.087894,84
2021-12-27 16:02:33.087900,88
2021-12-27 16:02:33.087907,91
2021-12-27 16:02:33.087913,91
2021-12-27 16:02:33.087919,91
2021-12-27 16:02:33.087926,88
2021-12-27 16:02:33.087932,86
2021-12-27 16:02:33.087938,100
2021-12-27 16:02:33.087945,151
2021-12-27 16:02:33.087951,238
2021-12-27 16:02:33.087958,184
2021-12-27 16:02:33.087964,-331
2021-12-27 16:02:33.087971,-1300
2021-12-27 16:02:33.087977,-1898
2021-12-27 16:02:33.087983,-1172
2021-12-27 16:02:33.087990,112
2021-12-27 16:02:33.331824,392
2021-12-27 16:02:33.331846,102
2021-12-27 16:02:33.331854,228
2021-12-27 16:02:33.331861,355
2021-12-27 16:02:33.331867,231
2021-12-27 16:02:33.331873,210
2021-12-27 16:02:33.331880,254
2021-12-27 16:02:33.331886,212
2021-12-27 16:02:33.331895,182
2021-12-27 16:02:33.331902,193
2021-12-27 16:02:33.331908,179
2021-12-27 16:02:33.331915,156
2021-12-27 16:02:33.331921,147
2021-12-27 16:02:33.331927,147
2021-12-27 16:02:33.331934,133
2021-12-27 16:02:33.331940,100
2021-12-27 16:02:33.331947,79
2021-12-27 16:02:33.331956,81
2021-12-27 16:02:33.331962,79
2021-12-27 16:02:33.331969,67
2021-12-27 16:02:33.331975,60
2021-12-27 16:02:33.331982,58
2021-12-27 16:02:33.331988,56
2021-12-27 16:02:33.331995,56
2021-12-27 16:02:33.332001,60
2021-12-27 16:02:33.332007,63
2021-12-27 16:02:33.332013,70
2021-12-27 16:02:33.332020,79
2021-12-27 16:02:33.332026,91
2021-12-27 16:02:33.332033,100
2021-12-27 16:02:33.625106,112
2021-12-27 16:02:33.625127,123
2021-12-27 16:02:33.625135,128
2021-12-27 16:02:33.625142,121
2021-12-27 16:02:33.625148,119
2021-12-27 16:02:33.625155,123
2021-12-27 16:02:33.625161,126
2021-12-27 16:02:33.625168,123
2021-12-27 16:02:33.625175,107
2021-12-27 16:02:33.625181,88
2021-12-27 16:02:33.625188,88
2021-12-27 16:02:33.625194,93
2021-12-27 16:02:33.625200,86
2021-12-27 16:02:33.625207,84
2021-12-27 16:02:33.625213,84
2021-12-27 16:02:33.625220,81
2021-12-27 16:02:33.625226,74
2021-12-27 16:02:33.625233,67
2021-12-27 16:02:33.625239,77
2021-12-27 16:02:33.625245,84
2021-12-27 16:02:33.625252,81
2021-12-27 16:02:33.625258,77
2021-12-27 16:02:33.625265,79
2021-12-27 16:02:33.625271,79
2021-12-27 16:02:33.625278,72
2021-12-27 16:02:33.625284,72
2021-12-27 16:02:33.625291,74
2021-12-27 16:02:33.625297,77
2021-12-27 16:02:33.625304,79
2021-12-27 16:02:33.625310,86
2021-12-27 16:02:33.770355,86
2021-12-27 16:02:33.770376,84
2021-12-27 16:02:33.770383,72
2021-12-27 16:02:33.770390,51
2021-12-27 16:02:33.770397,49
2021-12-27 16:02:33.770403,56
2021-12-27 16:02:33.770410,49
2021-12-27 16:02:33.770416,49
2021-12-27 16:02:33.770422,72
2021-12-27 16:02:33.770429,86
2021-12-27 16:02:33.770435,74
2021-12-27 16:02:33.770442,67
2021-12-27 16:02:33.770448,70
2021-12-27 16:02:33.770455,77
2021-12-27 16:02:33.770461,81
2021-12-27 16:02:33.770467,77
2021-12-27 16:02:33.770474,86
2021-12-27 16:02:33.770480,144
2021-12-27 16:02:33.770487,228
2021-12-27 16:02:33.770493,144
2021-12-27 16:02:33.770500,-390
2021-12-27 16:02:33.770506,-1321
2021-12-27 16:02:33.770513,-1824
2021-12-27 16:02:33.770519,-1037
2021-12-27 16:02:33.770525,163
2021-12-27 16:02:33.770532,336
2021-12-27 16:02:33.770538,58
2021-12-27 16:02:33.770545,207
2021-12-27 16:02:33.770551,319
2021-12-27 16:02:33.770558,210
2021-12-27 16:02:34.014160,200
2021-12-27 16:02:34.014190,235
2021-12-27 16:02:34.014198,196
2021-12-27 16:02:34.014205,170
2021-12-27 16:02:34.014212,179
2021-12-27 16:02:34.014218,165
2021-12-27 16:02:34.014224,142
2021-12-27 16:02:34.014231,133
2021-12-27 16:02:34.014237,121
2021-12-27 16:02:34.014244,107
2021-12-27 16:02:34.014250,95
2021-12-27 16:02:34.014257,86
2021-12-27 16:02:34.014263,70
2021-12-27 16:02:34.014269,60
2021-12-27 16:02:34.014276,56
2021-12-27 16:02:34.014282,49
2021-12-27 16:02:34.014289,39
2021-12-27 16:02:34.014295,30
2021-12-27 16:02:34.014301,30
2021-12-27 16:02:34.014308,32
2021-12-27 16:02:34.014314,35
2021-12-27 16:02:34.014320,39
2021-12-27 16:02:34.014327,49
2021-12-27 16:02:34.014333,63
2021-12-27 16:02:34.014339,74
2021-12-27 16:02:34.014346,84
2021-12-27 16:02:34.014352,93
2021-12-27 16:02:34.014358,100
2021-12-27 16:02:34.014364,105
2021-12-27 16:02:34.014371,109
2021-12-27 16:02:34.256684,109
2021-12-27 16:02:34.256704,102
2021-12-27 16:02:34.256712,102
2021-12-27 16:02:34.256719,100
2021-12-27 16:02:34.256725,91
2021-12-27 16:02:34.256732,86
2021-12-27 16:02:34.256738,88
2021-12-27 16:02:34.256744,88
2021-12-27 16:02:34.256751,81
2021-12-27 16:02:34.256757,84
2021-12-27 16:02:34.256764,86
2021-12-27 16:02:34.256771,84
2021-12-27 16:02:34.256777,84
2021-12-27 16:02:34.256784,88
2021-12-27 16:02:34.256790,81
2021-12-27 16:02:34.256796,74
2021-12-27 16:02:34.256803,81
2021-12-27 16:02:34.256809,91
2021-12-27 16:02:34.256815,91
2021-12-27 16:02:34.256822,88
2021-12-27 16:02:34.256828,84
2021-12-27 16:02:34.256834,84
2021-12-27 16:02:34.256841,91
2021-12-27 16:02:34.256847,95
2021-12-27 16:02:34.256853,91
2021-12-27 16:02:34.256860,91
2021-12-27 16:02:34.256866,105
2021-12-27 16:02:34.256873,109
2021-12-27 16:02:34.256879,98
2021-12-27 16:02:34.256885,86
2021-12-27 16:02:34.453043,72
2021-12-27 16:02:34.453063,63
2021-12-27 16:02:34.453070,72
2021-12-27 16:02:34.453077,77
2021-12-27 16:02:34.453084,70
2021-12-27 16:02:34.453090,77
2021-12-27 16:02:34.453097,91
2021-12-27 16:02:34.453103,95
2021-12-27 16:02:34.453109,91
2021-12-27 16:02:34.453116,86
2021-12-27 16:02:34.453122,86
2021-12-27 16:02:34.453128,91
2021-12-27 16:02:34.453135,88
2021-12-27 16:02:34.453141,88
2021-12-27 16:02:34.453147,119
2021-12-27 16:02:34.453154,200
2021-12-27 16:02:34.453160,235
2021-12-27 16:02:34.453166,-7
2021-12-27 16:02:34.453173,-731
2021-12-27 16:02:34.453179,-1599
2021-12-27 16:02:34.453186,-1560
2021-12-27 16:02:34.453192,-387
2021-12-27 16:02:34.453199,394
2021-12-27 16:02:34.453205,172
2021-12-27 16:02:34.453212,65
2021-12-27 16:02:34.453218,282
2021-12-27 16:02:34.453224,261
2021-12-27 16:02:34.453231,170
2021-12-27 16:02:34.453237,207
2021-12-27 16:02:34.453244,203
2021-12-27 16:02:34.697158,156
2021-12-27 16:02:34.697188,161
2021-12-27 16:02:34.697200,161
2021-12-27 16:02:34.697211,133
2021-12-27 16:02:34.697221,121
2021-12-27 16:02:34.697231,116
2021-12-27 16:02:34.697241,100
2021-12-27 16:02:34.697251,88
2021-12-27 16:02:34.697261,86
2021-12-27 16:02:34.697270,77
2021-12-27 16:02:34.697280,65
2021-12-27 16:02:34.697290,56
2021-12-27 16:02:34.697300,51
2021-12-27 16:02:34.697310,49
2021-12-27 16:02:34.697320,49
2021-12-27 16:02:34.697330,51
2021-12-27 16:02:34.697340,56
2021-12-27 16:02:34.697349,65
2021-12-27 16:02:34.697359,72
2021-12-27 16:02:34.697369,79
2021-12-27 16:02:34.697379,88
2021-12-27 16:02:34.697389,98
2021-12-27 16:02:34.697398,107
2021-12-27 16:02:34.697408,114
2021-12-27 16:02:34.697418,121
2021-12-27 16:02:34.697428,128
2021-12-27 16:02:34.697438,135
2021-12-27 16:02:34.697447,137
2021-12-27 16:02:34.697457,133
2021-12-27 16:02:34.697467,130
2021-12-27 16:02:34.940374,128
2021-12-27 16:02:34.940395,123
2021-12-27 16:02:34.940403,119
2021-12-27 16:02:34.940410,112
2021-12-27 16:02:34.940416,109
2021-12-27 16:02:34.940423,109
2021-12-27 16:02:34.940429,109
2021-12-27 16:02:34.940436,105
2021-12-27 16:02:34.940442,102
2021-12-27 16:02:34.940448,100
2021-12-27 16:02:34.940455,107
2021-12-27 16:02:34.940464,109
2021-12-27 16:02:34.940471,107
2021-12-27 16:02:34.940478,102
2021-12-27 16:02:34.940484,102
2021-12-27 16:02:34.940491,105
2021-12-27 16:02:34.940497,105
2021-12-27 16:02:34.940503,107
2021-12-27 16:02:34.940510,112
2021-12-27 16:02:34.940516,112
2021-12-27 16:02:34.940523,109
2021-12-27 16:02:34.940529,109
2021-12-27 16:02:34.940536,107
2021-12-27 16:02:34.940542,112
2021-12-27 16:02:34.940549,119
2021-12-27 16:02:34.940555,119
2021-12-27 16:02:34.940562,109
2021-12-27 16:02:34.940568,88
2021-12-27 16:02:34.940575,67
2021-12-27 16:02:34.940581,65
2021-12-27 16:02:35.136048,72
2021-12-27 16:02:35.136080,74
2021-12-27 16:02:35.136091,77
2021-12-27 16:02:35.136101,84
2021-12-27 16:02:35.136111,86
2021-12-27 16:02:35.136121,84
2021-12-27 16:02:35.136131,86
2021-12-27 16:02:35.136141,86
2021-12-27 16:02:35.136150,79
2021-12-27 16:02:35.136160,77
2021-12-27 16:02:35.136170,79
2021-12-27 16:02:35.136180,98
2021-12-27 16:02:35.136189,158
2021-12-27 16:02:35.136199,221
2021-12-27 16:02:35.136209,63
2021-12-27 16:02:35.136219,-548
2021-12-27 16:02:35.136229,-1417
2021-12-27 16:02:35.136239,-1627
2021-12-27 16:02:35.136248,-651
2021-12-27 16:02:35.136258,308
2021-12-27 16:02:35.136268,247
2021-12-27 16:02:35.136278,56
2021-12-27 16:02:35.136288,245
2021-12-27 16:02:35.136297,287
2021-12-27 16:02:35.136307,189
2021-12-27 16:02:35.136317,207
2021-12-27 16:02:35.136327,226
2021-12-27 16:02:35.136336,182
2021-12-27 16:02:35.136346,168
2021-12-27 16:02:35.136356,170
2021-12-27 16:02:35.428177,154
2021-12-27 16:02:35.428207,142
2021-12-27 16:02:35.428219,137
2021-12-27 16:02:35.428230,121
2021-12-27 16:02:35.428240,105
2021-12-27 16:02:35.428249,100
2021-12-27 16:02:35.428259,95
2021-12-27 16:02:35.428269,84
2021-12-27 16:02:35.428279,74
2021-12-27 16:02:35.428289,67
2021-12-27 16:02:35.428300,60
2021-12-27 16:02:35.428310,60
2021-12-27 16:02:35.428319,65
2021-12-27 16:02:35.428330,70
2021-12-27 16:02:35.428340,77
2021-12-27 16:02:35.428349,84
2021-12-27 16:02:35.428359,91
2021-12-27 16:02:35.428369,95
2021-12-27 16:02:35.428379,105
2021-12-27 16:02:35.428389,114
2021-12-27 16:02:35.428399,121
2021-12-27 16:02:35.428408,128
2021-12-27 16:02:35.428418,137
2021-12-27 16:02:35.428428,137
2021-12-27 16:02:35.428438,137
2021-12-27 16:02:35.428448,135
2021-12-27 16:02:35.428457,130
2021-12-27 16:02:35.428467,126
2021-12-27 16:02:35.428477,123
2021-12-27 16:02:35.428487,116
2021-12-27 16:02:35.623178,112
2021-12-27 16:02:35.623200,109
2021-12-27 16:02:35.623208,102
2021-12-27 16:02:35.623215,95
2021-12-27 16:02:35.623221,91
2021-12-27 16:02:35.623228,91
2021-12-27 16:02:35.623235,88
2021-12-27 16:02:35.623241,88
2021-12-27 16:02:35.623248,91
2021-12-27 16:02:35.623254,91
2021-12-27 16:02:35.623261,93
2021-12-27 16:02:35.623267,91
2021-12-27 16:02:35.623274,88
2021-12-27 16:02:35.623280,91
2021-12-27 16:02:35.623287,91
2021-12-27 16:02:35.623293,88
2021-12-27 16:02:35.623300,93
2021-12-27 16:02:35.623306,98
2021-12-27 16:02:35.623313,95
2021-12-27 16:02:35.623319,93
2021-12-27 16:02:35.623326,95
2021-12-27 16:02:35.623332,98
2021-12-27 16:02:35.623339,102
2021-12-27 16:02:35.623345,107
2021-12-27 16:02:35.623352,105
2021-12-27 16:02:35.623358,88
2021-12-27 16:02:35.623365,72
2021-12-27 16:02:35.623371,67
2021-12-27 16:02:35.623378,74
2021-12-27 16:02:35.623384,84
2021-12-27 16:02:35.916289,91
2021-12-27 16:02:35.916319,100
2021-12-27 16:02:35.916331,100
2021-12-27 16:02:35.916342,98
2021-12-27 16:02:35.916352,100
2021-12-27 16:02:35.916362,100
2021-12-27 16:02:35.916372,98
2021-12-27 16:02:35.916382,95
2021-12-27 16:02:35.916392,95
2021-12-27 16:02:35.916402,114
2021-12-27 16:02:35.916412,177
2021-12-27 16:02:35.916422,233
2021-12-27 16:02:35.916432,95
2021-12-27 16:02:35.916442,-455
2021-12-27 16:02:35.916452,-1268
2021-12-27 16:02:35.916462,-1497
2021-12-27 16:02:35.916472,-597
2021-12-27 16:02:35.916482,310
2021-12-27 16:02:35.916492,263
2021-12-27 16:02:35.916502,81
2021-12-27 16:02:35.916512,247
2021-12-27 16:02:35.916522,282
2021-12-27 16:02:35.916532,196
2021-12-27 16:02:35.916542,217
2021-12-27 16:02:35.916552,231
2021-12-27 16:02:35.916562,191
2021-12-27 16:02:35.916572,179
2021-12-27 16:02:35.916582,179
2021-12-27 16:02:35.916591,165
2021-12-27 16:02:35.916601,156
2021-12-27 16:02:36.110617,149
2021-12-27 16:02:36.110640,137
2021-12-27 16:02:36.110648,128
2021-12-27 16:02:36.110654,114
2021-12-27 16:02:36.110661,95
2021-12-27 16:02:36.110667,84
2021-12-27 16:02:36.110673,79
2021-12-27 16:02:36.110680,72
2021-12-27 16:02:36.110690,60
2021-12-27 16:02:36.110697,56
2021-12-27 16:02:36.110703,60
2021-12-27 16:02:36.110709,67
2021-12-27 16:02:36.110716,74
2021-12-27 16:02:36.110722,84
2021-12-27 16:02:36.110728,91
2021-12-27 16:02:36.110735,93
2021-12-27 16:02:36.110741,100
2021-12-27 16:02:36.110747,109
2021-12-27 16:02:36.110754,119
2021-12-27 16:02:36.110760,128
2021-12-27 16:02:36.110766,133
2021-12-27 16:02:36.110773,130
2021-12-27 16:02:36.110779,128
2021-12-27 16:02:36.110785,130
2021-12-27 16:02:36.110792,128
2021-12-27 16:02:36.110798,121
2021-12-27 16:02:36.110804,116
2021-12-27 16:02:36.110811,114
2021-12-27 16:02:36.110817,107
2021-12-27 16:02:36.110823,102
2021-12-27 16:02:36.352605,102
2021-12-27 16:02:36.352625,102
2021-12-27 16:02:36.352632,102
2021-12-27 16:02:36.352639,100
2021-12-27 16:02:36.352646,95
2021-12-27 16:02:36.352652,95
2021-12-27 16:02:36.352659,98
2021-12-27 16:02:36.352665,98
2021-12-27 16:02:36.352672,100
2021-12-27 16:02:36.352679,105
2021-12-27 16:02:36.352685,105
2021-12-27 16:02:36.352692,102
2021-12-27 16:02:36.352698,107
2021-12-27 16:02:36.352705,114
2021-12-27 16:02:36.352711,114
2021-12-27 16:02:36.352718,109
2021-12-27 16:02:36.352724,109
2021-12-27 16:02:36.352730,107
2021-12-27 16:02:36.352737,107
2021-12-27 16:02:36.352743,112
2021-12-27 16:02:36.352750,112
2021-12-27 16:02:36.352756,112
2021-12-27 16:02:36.352763,116
2021-12-27 16:02:36.352769,121
2021-12-27 16:02:36.352776,119
2021-12-27 16:02:36.352782,114
2021-12-27 16:02:36.352788,100
2021-12-27 16:02:36.352795,84
2021-12-27 16:02:36.352801,86
2021-12-27 16:02:36.352808,98
2021-12-27 16:02:36.597843,95
2021-12-27 16:02:36.597865,100
2021-12-27 16:02:36.597873,112
2021-12-27 16:02:36.597880,112
2021-12-27 16:02:36.597887,109
2021-12-27 16:02:36.597893,107
2021-12-27 16:02:36.597900,102
2021-12-27 16:02:36.597907,95
2021-12-27 16:02:36.597914,98
2021-12-27 16:02:36.597921,107
2021-12-27 16:02:36.597928,128
2021-12-27 16:02:36.597935,196
2021-12-27 16:02:36.597942,221
2021-12-27 16:02:36.597949,-37
2021-12-27 16:02:36.597955,-740
2021-12-27 16:02:36.597962,-1511
2021-12-27 16:02:36.597969,-1380
2021-12-27 16:02:36.597976,-277
2021-12-27 16:02:36.597984,369
2021-12-27 16:02:36.597990,156
2021-12-27 16:02:36.597998,98
2021-12-27 16:02:36.598007,277
2021-12-27 16:02:36.598014,240
2021-12-27 16:02:36.598021,175
2021-12-27 16:02:36.598028,212
2021-12-27 16:02:36.598036,205
2021-12-27 16:02:36.598043,170
2021-12-27 16:02:36.598050,170
2021-12-27 16:02:36.598058,163
2021-12-27 16:02:36.598065,142
2021-12-27 16:02:36.793869,135
2021-12-27 16:02:36.793900,126
2021-12-27 16:02:36.793912,112
2021-12-27 16:02:36.793922,100
2021-12-27 16:02:36.793932,86
2021-12-27 16:02:36.793942,74
2021-12-27 16:02:36.793952,67
2021-12-27 16:02:36.793961,53
2021-12-27 16:02:36.793971,39
2021-12-27 16:02:36.793981,37
2021-12-27 16:02:36.793991,37
2021-12-27 16:02:36.794001,39
2021-12-27 16:02:36.794011,46
2021-12-27 16:02:36.794020,53
2021-12-27 16:02:36.794030,53
2021-12-27 16:02:36.794040,58
2021-12-27 16:02:36.794049,70
2021-12-27 16:02:36.794059,81
2021-12-27 16:02:36.794069,88
2021-12-27 16:02:36.794078,93
2021-12-27 16:02:36.794088,100
2021-12-27 16:02:36.794098,107
2021-12-27 16:02:36.794107,114
2021-12-27 16:02:36.794117,116
2021-12-27 16:02:36.794127,121
2021-12-27 16:02:36.794136,123
2021-12-27 16:02:36.794146,116
2021-12-27 16:02:36.794156,107
2021-12-27 16:02:36.794166,105
2021-12-27 16:02:36.794175,105
2021-12-27 16:02:36.988439,102
2021-12-27 16:02:36.988469,100
2021-12-27 16:02:36.988481,98
2021-12-27 16:02:36.988491,93
2021-12-27 16:02:36.988501,93
2021-12-27 16:02:36.988511,98
2021-12-27 16:02:36.988521,100
2021-12-27 16:02:36.988531,98
2021-12-27 16:02:36.988541,100
2021-12-27 16:02:36.988550,100
2021-12-27 16:02:36.988560,95
2021-12-27 16:02:36.988570,95
2021-12-27 16:02:36.988580,102
2021-12-27 16:02:36.988590,107
2021-12-27 16:02:36.988600,107
2021-12-27 16:02:36.988609,102
2021-12-27 16:02:36.988619,100
2021-12-27 16:02:36.988629,102
2021-12-27 16:02:36.988639,105
2021-12-27 16:02:36.988649,105
2021-12-27 16:02:36.988658,107
2021-12-27 16:02:36.988668,102
2021-12-27 16:02:36.988678,102
2021-12-27 16:02:36.988688,102
2021-12-27 16:02:36.988697,86
2021-12-27 16:02:36.988707,72
2021-12-27 16:02:36.988717,77
2021-12-27 16:02:36.988727,77
2021-12-27 16:02:36.988737,79
2021-12-27 16:02:36.988746,88
2021-12-27 16:02:37.232589,98
2021-12-27 16:02:37.232619,100
2021-12-27 16:02:37.232631,100
2021-12-27 16:02:37.232641,95
2021-12-27 16:02:37.232651,88
2021-12-27 16:02:37.232661,86
2021-12-27 16:02:37.232671,88
2021-12-27 16:02:37.232681,91
2021-12-27 16:02:37.232690,112
2021-12-27 16:02:37.232700,182
2021-12-27 16:02:37.232710,217
2021-12-27 16:02:37.232720,-7
2021-12-27 16:02:37.232730,-653
2021-12-27 16:02:37.232740,-1434
2021-12-27 16:02:37.232750,-1427
2021-12-27 16:02:37.232760,-385
2021-12-27 16:02:37.232769,355
2021-12-27 16:02:37.232779,186
2021-12-27 16:02:37.232789,81
2021-12-27 16:02:37.232799,256
2021-12-27 16:02:37.232809,238
2021-12-27 16:02:37.232819,163
2021-12-27 16:02:37.232829,193
2021-12-27 16:02:37.232844,191
2021-12-27 16:02:37.232854,151
2021-12-27 16:02:37.232864,151
2021-12-27 16:02:37.232874,151
2021-12-27 16:02:37.232884,130
2021-12-27 16:02:37.232894,119
2021-12-27 16:02:37.232904,112
2021-12-27 16:02:37.475900,100
2021-12-27 16:02:37.475930,91
2021-12-27 16:02:37.475942,81
2021-12-27 16:02:37.475952,70
2021-12-27 16:02:37.475962,58
2021-12-27 16:02:37.475972,51
2021-12-27 16:02:37.475982,46
2021-12-27 16:02:37.475992,42
2021-12-27 16:02:37.476002,39
2021-12-27 16:02:37.476012,46
2021-12-27 16:02:37.476022,53
2021-12-27 16:02:37.476031,58
2021-12-27 16:02:37.476041,63
2021-12-27 16:02:37.476051,72
2021-12-27 16:02:37.476061,81
2021-12-27 16:02:37.476071,88
2021-12-27 16:02:37.476080,91
2021-12-27 16:02:37.476090,98
2021-12-27 16:02:37.476100,109
2021-12-27 16:02:37.476110,114
2021-12-27 16:02:37.476120,114
2021-12-27 16:02:37.476129,119
2021-12-27 16:02:37.476139,119
2021-12-27 16:02:37.476149,119
2021-12-27 16:02:37.476159,119
2021-12-27 16:02:37.476169,114
2021-12-27 16:02:37.476178,105
2021-12-27 16:02:37.476188,98
2021-12-27 16:02:37.476198,95
2021-12-27 16:02:37.476208,93
2021-12-27 16:02:37.670963,91
2021-12-27 16:02:37.670993,91
2021-12-27 16:02:37.671005,91
2021-12-27 16:02:37.671015,88
2021-12-27 16:02:37.671025,86
2021-12-27 16:02:37.671035,93
2021-12-27 16:02:37.671045,98
2021-12-27 16:02:37.671055,95
2021-12-27 16:02:37.671065,95
2021-12-27 16:02:37.671075,98
2021-12-27 16:02:37.671085,102
2021-12-27 16:02:37.671095,107
2021-12-27 16:02:37.671105,109
2021-12-27 16:02:37.671115,112
2021-12-27 16:02:37.671124,112
2021-12-27 16:02:37.671134,105
2021-12-27 16:02:37.671144,105
2021-12-27 16:02:37.671154,114
2021-12-27 16:02:37.671164,112
2021-12-27 16:02:37.671173,112
2021-12-27 16:02:37.671183,119
2021-12-27 16:02:37.671193,119
2021-12-27 16:02:37.671203,107
2021-12-27 16:02:37.671213,91
2021-12-27 16:02:37.671223,79
2021-12-27 16:02:37.671232,84
2021-12-27 16:02:37.671242,88
2021-12-27 16:02:37.671252,91
2021-12-27 16:02:37.671262,98
2021-12-27 16:02:37.671272,109
2021-12-27 16:02:37.914779,109
2021-12-27 16:02:37.914878,107
2021-12-27 16:02:37.914894,102
2021-12-27 16:02:37.914905,100
2021-12-27 16:02:37.914915,98
2021-12-27 16:02:37.914925,102
2021-12-27 16:02:37.914935,109
2021-12-27 16:02:37.914945,147
2021-12-27 16:02:37.914955,214
2021-12-27 16:02:37.914965,177
2021-12-27 16:02:37.914975,-205
2021-12-27 16:02:37.914985,-978
2021-12-27 16:02:37.914995,-1581
2021-12-27 16:02:37.915005,-1114
2021-12-27 16:02:37.915015,2
2021-12-27 16:02:37.915025,355
2021-12-27 16:02:37.915035,107
2021-12-27 16:02:37.915045,165
2021-12-27 16:02:37.915055,301
2021-12-27 16:02:37.915065,224
2021-12-27 16:02:37.915075,189
2021-12-27 16:02:37.915085,224
2021-12-27 16:02:37.915095,198
2021-12-27 16:02:37.915105,165
2021-12-27 16:02:37.915115,168
2021-12-27 16:02:37.915125,161
2021-12-27 16:02:37.915134,144
2021-12-27 16:02:37.915144,137
2021-12-27 16:02:37.915154,128
2021-12-27 16:02:37.915164,114
2021-12-27 16:02:38.206716,105
2021-12-27 16:02:38.206746,91
2021-12-27 16:02:38.206758,77
2021-12-27 16:02:38.206768,67
2021-12-27 16:02:38.206778,60
2021-12-27 16:02:38.206788,51
2021-12-27 16:02:38.206798,49
2021-12-27 16:02:38.206808,49
2021-12-27 16:02:38.206818,53
2021-12-27 16:02:38.206828,58
2021-12-27 16:02:38.206838,63
2021-12-27 16:02:38.206848,70
2021-12-27 16:02:38.206858,79
2021-12-27 16:02:38.206867,88
2021-12-27 16:02:38.206877,98
2021-12-27 16:02:38.206887,109
2021-12-27 16:02:38.206897,114
2021-12-27 16:02:38.206907,116
2021-12-27 16:02:38.206917,123
2021-12-27 16:02:38.206927,130
2021-12-27 16:02:38.206937,130
2021-12-27 16:02:38.206947,126
2021-12-27 16:02:38.206956,123
2021-12-27 16:02:38.206966,119
2021-12-27 16:02:38.206976,114
2021-12-27 16:02:38.206986,109
2021-12-27 16:02:38.206996,109
2021-12-27 16:02:38.207006,107
2021-12-27 16:02:38.207016,102
2021-12-27 16:02:38.207026,102
2021-12-27 16:02:38.450072,100
2021-12-27 16:02:38.450103,100
2021-12-27 16:02:38.450115,98
2021-12-27 16:02:38.450125,95
2021-12-27 16:02:38.450135,98
2021-12-27 16:02:38.450145,105
2021-12-27 16:02:38.450155,105
2021-12-27 16:02:38.450165,100
2021-12-27 16:02:38.450174,100
2021-12-27 16:02:38.450184,107
2021-12-27 16:02:38.450194,112
2021-12-27 16:02:38.450204,109
2021-12-27 16:02:38.450214,109
2021-12-27 16:02:38.450224,109
2021-12-27 16:02:38.450234,109
2021-12-27 16:02:38.450244,107
2021-12-27 16:02:38.450254,109
2021-12-27 16:02:38.450263,114
2021-12-27 16:02:38.450273,121
2021-12-27 16:02:38.450283,121
2021-12-27 16:02:38.450293,119
2021-12-27 16:02:38.450304,109
2021-12-27 16:02:38.450313,91
2021-12-27 16:02:38.450323,79
2021-12-27 16:02:38.450333,79
2021-12-27 16:02:38.450343,79
2021-12-27 16:02:38.450353,81
2021-12-27 16:02:38.450363,93
2021-12-27 16:02:38.450373,102
2021-12-27 16:02:38.450383,102
2021-12-27 16:02:38.645408,102
2021-12-27 16:02:38.645439,100
2021-12-27 16:02:38.645450,95
2021-12-27 16:02:38.645461,95
2021-12-27 16:02:38.645471,95
2021-12-27 16:02:38.645480,102
2021-12-27 16:02:38.645490,144
2021-12-27 16:02:38.645500,205
2021-12-27 16:02:38.645510,149
2021-12-27 16:02:38.645519,-228
2021-12-27 16:02:38.645529,-980
2021-12-27 16:02:38.645539,-1529
2021-12-27 16:02:38.645549,-1030
2021-12-27 16:02:38.645558,25
2021-12-27 16:02:38.645568,312
2021-12-27 16:02:38.645578,77
2021-12-27 16:02:38.645588,149
2021-12-27 16:02:38.645598,270
2021-12-27 16:02:38.645608,198
2021-12-27 16:02:38.645618,170
2021-12-27 16:02:38.645627,198
2021-12-27 16:02:38.645637,165
2021-12-27 16:02:38.645647,137
2021-12-27 16:02:38.645656,149
2021-12-27 16:02:38.645666,137
2021-12-27 16:02:38.645676,116
2021-12-27 16:02:38.645686,112
2021-12-27 16:02:38.645695,100
2021-12-27 16:02:38.645705,84
2021-12-27 16:02:38.645720,77
2021-12-27 16:02:38.889830,74
2021-12-27 16:02:38.889859,63
2021-12-27 16:02:38.889871,56
2021-12-27 16:02:38.889881,49
2021-12-27 16:02:38.889891,37
2021-12-27 16:02:38.889901,35
2021-12-27 16:02:38.889911,46
2021-12-27 16:02:38.889921,58
2021-12-27 16:02:38.889931,58
2021-12-27 16:02:38.889941,63
2021-12-27 16:02:38.889951,77
2021-12-27 16:02:38.889961,81
2021-12-27 16:02:38.889971,86
2021-12-27 16:02:38.889981,95
2021-12-27 16:02:38.889991,102
2021-12-27 16:02:38.890000,107
2021-12-27 16:02:38.890010,109
2021-12-27 16:02:38.890020,109
2021-12-27 16:02:38.890030,116
2021-12-27 16:02:38.890039,126
2021-12-27 16:02:38.890049,126
2021-12-27 16:02:38.890059,116
2021-12-27 16:02:38.890069,112
2021-12-27 16:02:38.890079,109
2021-12-27 16:02:38.890089,105
2021-12-27 16:02:38.890098,102
2021-12-27 16:02:38.890108,100
2021-12-27 16:02:38.890118,98
2021-12-27 16:02:38.890128,95
2021-12-27 16:02:38.890138,93
2021-12-27 16:02:39.084749,93
2021-12-27 16:02:39.084771,95
2021-12-27 16:02:39.084778,95
2021-12-27 16:02:39.084785,98
2021-12-27 16:02:39.084792,102
2021-12-27 16:02:39.084798,100
2021-12-27 16:02:39.084805,98
2021-12-27 16:02:39.084811,100
2021-12-27 16:02:39.084817,107
2021-12-27 16:02:39.084824,107
2021-12-27 16:02:39.084830,107
2021-12-27 16:02:39.084837,107
2021-12-27 16:02:39.084843,105
2021-12-27 16:02:39.084849,102
2021-12-27 16:02:39.084856,105
2021-12-27 16:02:39.084862,107
2021-12-27 16:02:39.084869,105
2021-12-27 16:02:39.084875,105
2021-12-27 16:02:39.084881,102
2021-12-27 16:02:39.084888,107
2021-12-27 16:02:39.084894,112
2021-12-27 16:02:39.084901,100
2021-12-27 16:02:39.084907,72
2021-12-27 16:02:39.084913,60
2021-12-27 16:02:39.084920,67
2021-12-27 16:02:39.084926,70
2021-12-27 16:02:39.084933,74
2021-12-27 16:02:39.084939,86
2021-12-27 16:02:39.084946,95
2021-12-27 16:02:39.084952,95
2021-12-27 16:02:39.328591,91
2021-12-27 16:02:39.328622,88
2021-12-27 16:02:39.328634,86
2021-12-27 16:02:39.328645,88
2021-12-27 16:02:39.328655,84
2021-12-27 16:02:39.328665,88
2021-12-27 16:02:39.328675,128
2021-12-27 16:02:39.328685,186
2021-12-27 16:02:39.328695,151
2021-12-27 16:02:39.328705,-168
2021-12-27 16:02:39.328715,-854
2021-12-27 16:02:39.328725,-1441
2021-12-27 16:02:39.328735,-1081
2021-12-27 16:02:39.328745,-70
2021-12-27 16:02:39.328755,305
2021-12-27 16:02:39.328765,93
2021-12-27 16:02:39.328775,126
2021-12-27 16:02:39.328785,254
2021-12-27 16:02:39.328795,200
2021-12-27 16:02:39.328805,163
2021-12-27 16:02:39.328815,191
2021-12-27 16:02:39.328825,168
2021-12-27 16:02:39.328834,142
2021-12-27 16:02:39.328844,144
2021-12-27 16:02:39.328854,140
2021-12-27 16:02:39.328864,121
2021-12-27 16:02:39.328874,112
2021-12-27 16:02:39.328884,105
2021-12-27 16:02:39.328894,91
2021-12-27 16:02:39.328904,86
2021-12-27 16:02:39.620129,81
2021-12-27 16:02:39.620158,70
2021-12-27 16:02:39.620170,60
2021-12-27 16:02:39.620180,53
2021-12-27 16:02:39.620190,51
2021-12-27 16:02:39.620200,56
2021-12-27 16:02:39.620210,58
2021-12-27 16:02:39.620220,65
2021-12-27 16:02:39.620230,72
2021-12-27 16:02:39.620240,74
2021-12-27 16:02:39.620250,81
2021-12-27 16:02:39.620259,95
2021-12-27 16:02:39.620269,98
2021-12-27 16:02:39.620279,98
2021-12-27 16:02:39.620289,102
2021-12-27 16:02:39.620299,107
2021-12-27 16:02:39.620309,107
2021-12-27 16:02:39.620318,109
2021-12-27 16:02:39.620328,109
2021-12-27 16:02:39.620338,107
2021-12-27 16:02:39.620348,109
2021-12-27 16:02:39.620357,107
2021-12-27 16:02:39.620367,102
2021-12-27 16:02:39.620377,102
2021-12-27 16:02:39.620387,102
2021-12-27 16:02:39.620397,98
2021-12-27 16:02:39.620406,95
2021-12-27 16:02:39.620416,93
2021-12-27 16:02:39.620426,91
2021-12-27 16:02:39.620436,93
2021-12-27 16:02:39.816093,95
2021-12-27 16:02:39.816123,95
2021-12-27 16:02:39.816135,100
2021-12-27 16:02:39.816145,102
2021-12-27 16:02:39.816155,100
2021-12-27 16:02:39.816165,100
2021-12-27 16:02:39.816175,102
2021-12-27 16:02:39.816184,107
2021-12-27 16:02:39.816194,107
2021-12-27 16:02:39.816204,107
2021-12-27 16:02:39.816214,102
2021-12-27 16:02:39.816223,102
2021-12-27 16:02:39.816233,107
2021-12-27 16:02:39.816243,107
2021-12-27 16:02:39.816253,102
2021-12-27 16:02:39.816262,105
2021-12-27 16:02:39.816272,109
2021-12-27 16:02:39.816282,112
2021-12-27 16:02:39.816292,112
2021-12-27 16:02:39.816301,109
2021-12-27 16:02:39.816311,91
2021-12-27 16:02:39.816321,70
2021-12-27 16:02:39.816331,65
2021-12-27 16:02:39.816340,77
2021-12-27 16:02:39.816350,86
2021-12-27 16:02:39.816360,95
2021-12-27 16:02:39.816370,107
2021-12-27 16:02:39.816379,107
2021-12-27 16:02:39.816389,100
2021-12-27 16:02:39.816399,102
2021-12-27 16:02:40.059291,105
2021-12-27 16:02:40.059309,102
2021-12-27 16:02:40.059315,102
2021-12-27 16:02:40.059320,112
2021-12-27 16:02:40.059324,128
2021-12-27 16:02:40.059329,179
2021-12-27 16:02:40.059333,221
2021-12-27 16:02:40.059338,77
2021-12-27 16:02:40.059342,-427
2021-12-27 16:02:40.059347,-1130
2021-12-27 16:02:40.059352,-1263
2021-12-27 16:02:40.059356,-446
2021-12-27 16:02:40.059361,268
2021-12-27 16:02:40.059365,191
2021-12-27 16:02:40.059370,79
2021-12-27 16:02:40.059374,226
2021-12-27 16:02:40.059379,233
2021-12-27 16:02:40.059383,165
2021-12-27 16:02:40.059388,186
2021-12-27 16:02:40.059392,186
2021-12-27 16:02:40.059397,151
2021-12-27 16:02:40.059401,147
2021-12-27 16:02:40.059405,147
2021-12-27 16:02:40.059410,130
2021-12-27 16:02:40.059414,116
2021-12-27 16:02:40.059419,102
2021-12-27 16:02:40.059423,95
2021-12-27 16:02:40.059428,88
2021-12-27 16:02:40.059432,77
2021-12-27 16:02:40.059437,70
2021-12-27 16:02:40.255097,65
2021-12-27 16:02:40.255128,56
2021-12-27 16:02:40.255140,53
2021-12-27 16:02:40.255150,58
2021-12-27 16:02:40.255160,58
2021-12-27 16:02:40.255170,60
2021-12-27 16:02:40.255180,72
2021-12-27 16:02:40.255190,86
2021-12-27 16:02:40.255199,88
2021-12-27 16:02:40.255209,91
2021-12-27 16:02:40.255219,98
2021-12-27 16:02:40.255229,100
2021-12-27 16:02:40.255239,100
2021-12-27 16:02:40.255249,107
2021-12-27 16:02:40.255259,116
2021-12-27 16:02:40.255269,116
2021-12-27 16:02:40.255278,121
2021-12-27 16:02:40.255288,128
2021-12-27 16:02:40.255298,133
2021-12-27 16:02:40.255308,126
2021-12-27 16:02:40.255318,119
2021-12-27 16:02:40.255327,114
2021-12-27 16:02:40.255337,116
2021-12-27 16:02:40.255347,116
2021-12-27 16:02:40.255357,109
2021-12-27 16:02:40.255367,109
2021-12-27 16:02:40.255376,112
2021-12-27 16:02:40.255386,112
2021-12-27 16:02:40.255401,107
2021-12-27 16:02:40.255411,107
2021-12-27 16:02:40.497523,112
2021-12-27 16:02:40.497553,119
2021-12-27 16:02:40.497565,116
2021-12-27 16:02:40.497575,109
2021-12-27 16:02:40.497585,109
2021-12-27 16:02:40.497595,114
2021-12-27 16:02:40.497605,116
2021-12-27 16:02:40.497615,119
2021-12-27 16:02:40.497625,123
2021-12-27 16:02:40.497635,121
2021-12-27 16:02:40.497644,114
2021-12-27 16:02:40.497654,114
2021-12-27 16:02:40.497664,121
2021-12-27 16:02:40.497674,130
2021-12-27 16:02:40.497684,130
2021-12-27 16:02:40.497693,126
2021-12-27 16:02:40.497703,112
2021-12-27 16:02:40.497713,91
2021-12-27 16:02:40.497723,79
2021-12-27 16:02:40.497733,81
2021-12-27 16:02:40.497742,91
2021-12-27 16:02:40.497752,102
2021-12-27 16:02:40.497762,109
2021-12-27 16:02:40.497772,112
2021-12-27 16:02:40.497782,112
2021-12-27 16:02:40.497791,114
2021-12-27 16:02:40.497801,112
2021-12-27 16:02:40.497811,112
2021-12-27 16:02:40.497821,116
2021-12-27 16:02:40.497830,112
2021-12-27 16:02:40.693599,107
2021-12-27 16:02:40.693630,144
2021-12-27 16:02:40.693642,219
2021-12-27 16:02:40.693652,193
2021-12-27 16:02:40.693662,-140
2021-12-27 16:02:40.693672,-826
2021-12-27 16:02:40.693682,-1328
2021-12-27 16:02:40.693692,-873
2021-12-27 16:02:40.693702,65
2021-12-27 16:02:40.693712,294
2021-12-27 16:02:40.693722,86
2021-12-27 16:02:40.693732,163
2021-12-27 16:02:40.693742,256
2021-12-27 16:02:40.693752,182
2021-12-27 16:02:40.693762,168
2021-12-27 16:02:40.693772,193
2021-12-27 16:02:40.693782,163
2021-12-27 16:02:40.693792,142
2021-12-27 16:02:40.693802,142
2021-12-27 16:02:40.693812,133
2021-12-27 16:02:40.693822,119
2021-12-27 16:02:40.693832,116
2021-12-27 16:02:40.693842,107
2021-12-27 16:02:40.693852,91
2021-12-27 16:02:40.693862,84
2021-12-27 16:02:40.693872,79
2021-12-27 16:02:40.693882,72
2021-12-27 16:02:40.693892,63
2021-12-27 16:02:40.693902,60
2021-12-27 16:02:40.693912,63
2021-12-27 16:02:40.985632,65
2021-12-27 16:02:40.985652,65
2021-12-27 16:02:40.985659,72
2021-12-27 16:02:40.985664,84
2021-12-27 16:02:40.985669,91
2021-12-27 16:02:40.985674,93
2021-12-27 16:02:40.985680,98
2021-12-27 16:02:40.985685,95
2021-12-27 16:02:40.985690,100
2021-12-27 16:02:40.985695,102
2021-12-27 16:02:40.985700,105
2021-12-27 16:02:40.985705,114
2021-12-27 16:02:40.985711,128
2021-12-27 16:02:40.985716,130
2021-12-27 16:02:40.985721,119
2021-12-27 16:02:40.985726,112
2021-12-27 16:02:40.985731,112
2021-12-27 16:02:40.985736,116
2021-12-27 16:02:40.985741,112
2021-12-27 16:02:40.985746,102
2021-12-27 16:02:40.985751,98
2021-12-27 16:02:40.985757,95
2021-12-27 16:02:40.985762,100
2021-12-27 16:02:40.985767,105
2021-12-27 16:02:40.985772,107
2021-12-27 16:02:40.985777,105
2021-12-27 16:02:40.985782,102
2021-12-27 16:02:40.985787,102
2021-12-27 16:02:40.985792,107
2021-12-27 16:02:40.985798,112
2021-12-27 16:02:41.132365,114
2021-12-27 16:02:41.132395,116
2021-12-27 16:02:41.132407,126
2021-12-27 16:02:41.132417,130
2021-12-27 16:02:41.132427,121
2021-12-27 16:02:41.132437,112
2021-12-27 16:02:41.132447,119
2021-12-27 16:02:41.132457,128
2021-12-27 16:02:41.132467,123
2021-12-27 16:02:41.132477,114
2021-12-27 16:02:41.132487,109
2021-12-27 16:02:41.132497,95
2021-12-27 16:02:41.132507,86
2021-12-27 16:02:41.132517,88
2021-12-27 16:02:41.132527,98
2021-12-27 16:02:41.132536,102
2021-12-27 16:02:41.132546,107
2021-12-27 16:02:41.132556,112
2021-12-27 16:02:41.132566,114
2021-12-27 16:02:41.132576,107
2021-12-27 16:02:41.132585,100
2021-12-27 16:02:41.132595,98
2021-12-27 16:02:41.132605,100
2021-12-27 16:02:41.132615,107
2021-12-27 16:02:41.132625,119
2021-12-27 16:02:41.132634,154
2021-12-27 16:02:41.132644,214
2021-12-27 16:02:41.132654,189
2021-12-27 16:02:41.132664,-168
2021-12-27 16:02:41.132674,-906
2021-12-27 16:02:41.424758,-1410
2021-12-27 16:02:41.424788,-852
2021-12-27 16:02:41.424800,172
2021-12-27 16:02:41.424811,357
2021-12-27 16:02:41.424821,81
2021-12-27 16:02:41.424830,168
2021-12-27 16:02:41.424840,263
2021-12-27 16:02:41.424850,170
2021-12-27 16:02:41.424860,163
2021-12-27 16:02:41.424869,196
2021-12-27 16:02:41.424879,156
2021-12-27 16:02:41.424889,140
2021-12-27 16:02:41.424898,158
2021-12-27 16:02:41.424908,144
2021-12-27 16:02:41.424918,126
2021-12-27 16:02:41.424927,121
2021-12-27 16:02:41.424937,107
2021-12-27 16:02:41.424946,91
2021-12-27 16:02:41.424956,79
2021-12-27 16:02:41.424966,67
2021-12-27 16:02:41.424976,60
2021-12-27 16:02:41.424985,58
2021-12-27 16:02:41.424995,53
2021-12-27 16:02:41.425005,37
2021-12-27 16:02:41.425014,28
2021-12-27 16:02:41.425024,35
2021-12-27 16:02:41.425033,60
2021-12-27 16:02:41.425043,98
2021-12-27 16:02:41.425053,105
2021-12-27 16:02:41.425063,98
2021-12-27 16:02:41.619575,102
2021-12-27 16:02:41.619597,112
2021-12-27 16:02:41.619605,112
2021-12-27 16:02:41.619612,109
2021-12-27 16:02:41.619618,119
2021-12-27 16:02:41.619625,130
2021-12-27 16:02:41.619670,130
2021-12-27 16:02:41.619700,133
2021-12-27 16:02:41.619710,137
2021-12-27 16:02:41.619717,137
2021-12-27 16:02:41.619724,140
2021-12-27 16:02:41.619731,140
2021-12-27 16:02:41.619737,133
2021-12-27 16:02:41.619744,121
2021-12-27 16:02:41.619750,114
2021-12-27 16:02:41.619757,107
2021-12-27 16:02:41.619763,102
2021-12-27 16:02:41.619770,100
2021-12-27 16:02:41.619776,100
2021-12-27 16:02:41.619783,98
2021-12-27 16:02:41.619789,98
2021-12-27 16:02:41.619796,100
2021-12-27 16:02:41.619802,102
2021-12-27 16:02:41.619808,105
2021-12-27 16:02:41.619815,105
2021-12-27 16:02:41.619821,114
2021-12-27 16:02:41.619828,119
2021-12-27 16:02:41.619834,116
2021-12-27 16:02:41.619841,119
2021-12-27 16:02:41.619847,121
2021-12-27 16:02:41.863794,105
2021-12-27 16:02:41.863817,81
2021-12-27 16:02:41.863825,74
2021-12-27 16:02:41.863831,84
2021-12-27 16:02:41.863838,102
2021-12-27 16:02:41.863844,121
2021-12-27 16:02:41.863851,121
2021-12-27 16:02:41.863857,121
2021-12-27 16:02:41.863864,126
2021-12-27 16:02:41.863870,121
2021-12-27 16:02:41.863877,114
2021-12-27 16:02:41.863883,119
2021-12-27 16:02:41.863890,121
2021-12-27 16:02:41.863896,114
2021-12-27 16:02:41.863934,128
2021-12-27 16:02:41.863941,191
2021-12-27 16:02:41.863947,254
2021-12-27 16:02:41.863953,116
2021-12-27 16:02:41.863960,-474
2021-12-27 16:02:41.863966,-1380
2021-12-27 16:02:41.863973,-1693
2021-12-27 16:02:41.863979,-742
2021-12-27 16:02:41.863985,317
2021-12-27 16:02:41.863992,312
2021-12-27 16:02:41.863998,84
2021-12-27 16:02:41.864004,270
2021-12-27 16:02:41.864011,329
2021-12-27 16:02:41.864017,214
2021-12-27 16:02:41.864023,226
2021-12-27 16:02:41.864030,254
2021-12-27 16:02:42.058650,212
2021-12-27 16:02:42.058696,200
2021-12-27 16:02:42.058708,205
2021-12-27 16:02:42.058719,184
2021-12-27 16:02:42.058728,170
2021-12-27 16:02:42.058738,168
2021-12-27 16:02:42.058856,156
2021-12-27 16:02:42.058889,142
2021-12-27 16:02:42.058902,133
2021-12-27 16:02:42.058912,119
2021-12-27 16:02:42.058922,107
2021-12-27 16:02:42.058932,105
2021-12-27 16:02:42.058942,107
2021-12-27 16:02:42.058952,102
2021-12-27 16:02:42.058961,105
2021-12-27 16:02:42.058971,107
2021-12-27 16:02:42.058981,107
2021-12-27 16:02:42.058991,112
2021-12-27 16:02:42.059000,121
2021-12-27 16:02:42.059010,130
2021-12-27 16:02:42.059020,130
2021-12-27 16:02:42.059029,126
2021-12-27 16:02:42.059039,126
2021-12-27 16:02:42.059054,128
2021-12-27 16:02:42.059064,126
2021-12-27 16:02:42.059074,126
2021-12-27 16:02:42.059084,126
2021-12-27 16:02:42.059094,123
2021-12-27 16:02:42.059104,123
2021-12-27 16:02:42.059114,119
2021-12-27 16:02:42.302405,109
2021-12-27 16:02:42.302427,91
2021-12-27 16:02:42.302435,74
2021-12-27 16:02:42.302442,86
2021-12-27 16:02:42.302448,116
2021-12-27 16:02:42.302455,126
2021-12-27 16:02:42.302461,112
2021-12-27 16:02:42.302468,93
2021-12-27 16:02:42.302474,84
2021-12-27 16:02:42.302481,81
2021-12-27 16:02:42.302487,77
2021-12-27 16:02:42.302494,72
2021-12-27 16:02:42.302500,77
2021-12-27 16:02:42.302507,79
2021-12-27 16:02:42.302513,81
2021-12-27 16:02:42.302520,86
2021-12-27 16:02:42.302526,91
2021-12-27 16:02:42.302533,93
2021-12-27 16:02:42.302539,98
2021-12-27 16:02:42.302546,98
2021-12-27 16:02:42.302552,77
2021-12-27 16:02:42.302559,51
2021-12-27 16:02:42.302565,58
2021-12-27 16:02:42.302572,72
2021-12-27 16:02:42.302578,74
2021-12-27 16:02:42.302585,79
2021-12-27 16:02:42.302591,93
2021-12-27 16:02:42.302598,93
2021-12-27 16:02:42.302604,88
2021-12-27 16:02:42.302611,84
2021-12-27 16:02:42.593892,81
2021-12-27 16:02:42.593919,84
2021-12-27 16:02:42.593926,84
2021-12-27 16:02:42.593933,88
2021-12-27 16:02:42.593940,123
2021-12-27 16:02:42.593946,193
2021-12-27 16:02:42.593953,233
2021-12-27 16:02:42.593960,25
2021-12-27 16:02:42.593967,-649
2021-12-27 16:02:42.593973,-1529
2021-12-27 16:02:42.593980,-1613
2021-12-27 16:02:42.593987,-513
2021-12-27 16:02:42.593993,376
2021-12-27 16:02:42.594000,240
2021-12-27 16:02:42.594006,98
2021-12-27 16:02:42.594013,303
2021-12-27 16:02:42.594019,310
2021-12-27 16:02:42.594026,214
2021-12-27 16:02:42.594032,240
2021-12-27 16:02:42.594039,242
2021-12-27 16:02:42.594046,205
2021-12-27 16:02:42.594052,203
2021-12-27 16:02:42.594058,191
2021-12-27 16:02:42.594065,161
2021-12-27 16:02:42.594071,154
2021-12-27 16:02:42.594078,154
2021-12-27 16:02:42.594085,137
2021-12-27 16:02:42.594091,130
2021-12-27 16:02:42.594098,130
2021-12-27 16:02:42.594104,126
2021-12-27 16:02:42.790017,119
2021-12-27 16:02:42.790048,112
2021-12-27 16:02:42.790060,95
2021-12-27 16:02:42.790070,91
2021-12-27 16:02:42.790080,95
2021-12-27 16:02:42.790090,95
2021-12-27 16:02:42.790100,107
2021-12-27 16:02:42.790110,135
2021-12-27 16:02:42.790120,135
2021-12-27 16:02:42.790130,116
2021-12-27 16:02:42.790140,116
2021-12-27 16:02:42.790150,116
2021-12-27 16:02:42.790160,109
2021-12-27 16:02:42.790170,107
2021-12-27 16:02:42.790179,98
2021-12-27 16:02:42.790189,86
2021-12-27 16:02:42.790199,93
2021-12-27 16:02:42.790209,112
2021-12-27 16:02:42.790219,121
2021-12-27 16:02:42.790229,102
2021-12-27 16:02:42.790239,88
2021-12-27 16:02:42.790249,93
2021-12-27 16:02:42.790259,95
2021-12-27 16:02:42.790268,81
2021-12-27 16:02:42.790278,74
2021-12-27 16:02:42.790288,77
2021-12-27 16:02:42.790298,77
2021-12-27 16:02:42.790308,79
2021-12-27 16:02:42.790318,95
2021-12-27 16:02:42.790328,95
2021-12-27 16:02:42.985345,79
2021-12-27 16:02:42.985366,74
2021-12-27 16:02:42.985374,77
2021-12-27 16:02:42.985380,77
2021-12-27 16:02:42.985387,79
2021-12-27 16:02:42.985393,88
2021-12-27 16:02:42.985400,91
2021-12-27 16:02:42.985406,86
2021-12-27 16:02:42.985412,84
2021-12-27 16:02:42.985419,79
2021-12-27 16:02:42.985425,67
2021-12-27 16:02:42.985431,86
2021-12-27 16:02:42.985438,119
2021-12-27 16:02:42.985444,116
2021-12-27 16:02:42.985451,93
2021-12-27 16:02:42.985457,77
2021-12-27 16:02:42.985463,65
2021-12-27 16:02:42.985470,70
2021-12-27 16:02:42.985476,79
2021-12-27 16:02:42.985483,74
2021-12-27 16:02:42.985490,72
2021-12-27 16:02:42.985496,81
2021-12-27 16:02:42.985502,79
2021-12-27 16:02:42.985509,77
2021-12-27 16:02:42.985515,81
2021-12-27 16:02:42.985522,84
2021-12-27 16:02:42.985528,84
2021-12-27 16:02:42.985535,77
2021-12-27 16:02:42.985541,72
2021-12-27 16:02:42.985548,116
2021-12-27 16:02:43.229218,193
2021-12-27 16:02:43.229248,154
2021-12-27 16:02:43.229260,-221
2021-12-27 16:02:43.229270,-950
2021-12-27 16:02:43.229280,-1476
2021-12-27 16:02:43.229290,-973
2021-12-27 16:02:43.229300,60
2021-12-27 16:02:43.229310,324
2021-12-27 16:02:43.229320,72
2021-12-27 16:02:43.229330,142
2021-12-27 16:02:43.229340,259
2021-12-27 16:02:43.229350,182
2021-12-27 16:02:43.229359,161
2021-12-27 16:02:43.229369,196
2021-12-27 16:02:43.229379,170
2021-12-27 16:02:43.229389,140
2021-12-27 16:02:43.229398,140
2021-12-27 16:02:43.229408,133
2021-12-27 16:02:43.229418,116
2021-12-27 16:02:43.229428,102
2021-12-27 16:02:43.229437,91
2021-12-27 16:02:43.229447,86
2021-12-27 16:02:43.229457,84
2021-12-27 16:02:43.229467,74
2021-12-27 16:02:43.229476,63
2021-12-27 16:02:43.229486,60
2021-12-27 16:02:43.229496,60
2021-12-27 16:02:43.229505,56
2021-12-27 16:02:43.229515,63
2021-12-27 16:02:43.229525,72
2021-12-27 16:02:43.472501,74
2021-12-27 16:02:43.472532,72
2021-12-27 16:02:43.472543,79
2021-12-27 16:02:43.472553,91
2021-12-27 16:02:43.472563,93
2021-12-27 16:02:43.472573,91
2021-12-27 16:02:43.472582,84
2021-12-27 16:02:43.472592,79
2021-12-27 16:02:43.472602,84
2021-12-27 16:02:43.472612,86
2021-12-27 16:02:43.472622,88
2021-12-27 16:02:43.472631,95
2021-12-27 16:02:43.472641,93
2021-12-27 16:02:43.472651,86
2021-12-27 16:02:43.472661,86
2021-12-27 16:02:43.472670,88
2021-12-27 16:02:43.472680,81
2021-12-27 16:02:43.472690,74
2021-12-27 16:02:43.472699,63
2021-12-27 16:02:43.472709,53
2021-12-27 16:02:43.472719,63
2021-12-27 16:02:43.472728,88
2021-12-27 16:02:43.472738,95
2021-12-27 16:02:43.472748,84
2021-12-27 16:02:43.472757,86
2021-12-27 16:02:43.472767,93
2021-12-27 16:02:43.472776,91
2021-12-27 16:02:43.472786,88
2021-12-27 16:02:43.472796,95
2021-12-27 16:02:43.472805,100
2021-12-27 16:02:43.715745,102
2021-12-27 16:02:43.715775,105
2021-12-27 16:02:43.715787,105
2021-12-27 16:02:43.715797,98
2021-12-27 16:02:43.715807,93
2021-12-27 16:02:43.715817,98
2021-12-27 16:02:43.715827,107
2021-12-27 16:02:43.715837,105
2021-12-27 16:02:43.715847,100
2021-12-27 16:02:43.715856,100
2021-12-27 16:02:43.715866,93
2021-12-27 16:02:43.715876,79
2021-12-27 16:02:43.715886,74
2021-12-27 16:02:43.715896,74
2021-12-27 16:02:43.715905,63
2021-12-27 16:02:43.715915,60
2021-12-27 16:02:43.715925,91
2021-12-27 16:02:43.715935,116
2021-12-27 16:02:43.715945,109
2021-12-27 16:02:43.715955,105
2021-12-27 16:02:43.715964,100
2021-12-27 16:02:43.715974,95
2021-12-27 16:02:43.715984,95
2021-12-27 16:02:43.715994,93
2021-12-27 16:02:43.716004,91
2021-12-27 16:02:43.716013,130
2021-12-27 16:02:43.716023,200
2021-12-27 16:02:43.716033,156
2021-12-27 16:02:43.716043,-196
2021-12-27 16:02:43.716053,-878
2021-12-27 16:02:43.911677,-1373
2021-12-27 16:02:43.911699,-894
2021-12-27 16:02:43.911707,88
2021-12-27 16:02:43.911713,336
2021-12-27 16:02:43.911720,98
2021-12-27 16:02:43.911726,170
2021-12-27 16:02:43.911732,282
2021-12-27 16:02:43.911739,205
2021-12-27 16:02:43.911745,179
2021-12-27 16:02:43.911751,214
2021-12-27 16:02:43.911758,191
2021-12-27 16:02:43.911764,161
2021-12-27 16:02:43.911771,161
2021-12-27 16:02:43.911777,149
2021-12-27 16:02:43.911783,128
2021-12-27 16:02:43.911790,121
2021-12-27 16:02:43.911796,109
2021-12-27 16:02:43.911802,95
2021-12-27 16:02:43.911808,93
2021-12-27 16:02:43.911815,86
2021-12-27 16:02:43.911821,74
2021-12-27 16:02:43.911827,74
2021-12-27 16:02:43.911834,70
2021-12-27 16:02:43.911840,65
2021-12-27 16:02:43.911846,72
2021-12-27 16:02:43.911853,81
2021-12-27 16:02:43.911859,95
2021-12-27 16:02:43.911865,107
2021-12-27 16:02:43.911872,114
2021-12-27 16:02:43.911878,123
2021-12-27 16:02:44.203790,126
2021-12-27 16:02:44.203821,121
2021-12-27 16:02:44.203833,114
2021-12-27 16:02:44.203909,112
2021-12-27 16:02:44.203934,107
2021-12-27 16:02:44.203944,105
2021-12-27 16:02:44.203954,109
2021-12-27 16:02:44.203964,116
2021-12-27 16:02:44.203974,112
2021-12-27 16:02:44.203984,100
2021-12-27 16:02:44.203994,95
2021-12-27 16:02:44.204004,88
2021-12-27 16:02:44.204013,77
2021-12-27 16:02:44.204023,72
2021-12-27 16:02:44.204033,77
2021-12-27 16:02:44.204042,74
2021-12-27 16:02:44.204052,72
2021-12-27 16:02:44.204066,74
2021-12-27 16:02:44.204076,70
2021-12-27 16:02:44.204086,70
2021-12-27 16:02:44.204096,79
2021-12-27 16:02:44.204106,86
2021-12-27 16:02:44.204116,81
2021-12-27 16:02:44.204126,84
2021-12-27 16:02:44.204136,105
2021-12-27 16:02:44.204146,114
2021-12-27 16:02:44.204155,105
2021-12-27 16:02:44.204165,95
2021-12-27 16:02:44.204175,95
2021-12-27 16:02:44.204185,98
2021-12-27 16:02:44.447505,100
2021-12-27 16:02:44.447535,98
2021-12-27 16:02:44.447547,98
2021-12-27 16:02:44.447557,109
2021-12-27 16:02:44.447567,121
2021-12-27 16:02:44.447577,119
2021-12-27 16:02:44.447586,105
2021-12-27 16:02:44.447596,93
2021-12-27 16:02:44.447606,91
2021-12-27 16:02:44.447616,86
2021-12-27 16:02:44.447626,67
2021-12-27 16:02:44.447636,60
2021-12-27 16:02:44.447646,79
2021-12-27 16:02:44.447655,91
2021-12-27 16:02:44.447665,91
2021-12-27 16:02:44.447675,93
2021-12-27 16:02:44.447685,100
2021-12-27 16:02:44.447695,107
2021-12-27 16:02:44.447704,105
2021-12-27 16:02:44.447714,109
2021-12-27 16:02:44.447724,121
2021-12-27 16:02:44.447734,144
2021-12-27 16:02:44.447744,189
2021-12-27 16:02:44.447754,163
2021-12-27 16:02:44.447764,-151
2021-12-27 16:02:44.447774,-817
2021-12-27 16:02:44.447784,-1321
2021-12-27 16:02:44.447793,-889
2021-12-27 16:02:44.447803,60
2021-12-27 16:02:44.447813,333
2021-12-27 16:02:44.689995,126
2021-12-27 16:02:44.690016,186
2021-12-27 16:02:44.690024,282
2021-12-27 16:02:44.690031,210
2021-12-27 16:02:44.690037,191
2021-12-27 16:02:44.690044,221
2021-12-27 16:02:44.690050,198
2021-12-27 16:02:44.690057,172
2021-12-27 16:02:44.690063,172
2021-12-27 16:02:44.690070,156
2021-12-27 16:02:44.690076,140
2021-12-27 16:02:44.690083,135
2021-12-27 16:02:44.690089,128
2021-12-27 16:02:44.690095,119
2021-12-27 16:02:44.690102,102
2021-12-27 16:02:44.690108,86
2021-12-27 16:02:44.690115,77
2021-12-27 16:02:44.690122,70
2021-12-27 16:02:44.690128,67
2021-12-27 16:02:44.690134,77
2021-12-27 16:02:44.690141,70
2021-12-27 16:02:44.690147,56
2021-12-27 16:02:44.690154,70
2021-12-27 16:02:44.690160,98
2021-12-27 16:02:44.690167,107
2021-12-27 16:02:44.690173,105
2021-12-27 16:02:44.690180,107
2021-12-27 16:02:44.690186,109
2021-12-27 16:02:44.690192,109
2021-12-27 16:02:44.690199,107
2021-12-27 16:02:44.837529,98
2021-12-27 16:02:44.837560,100
2021-12-27 16:02:44.837572,107
2021-12-27 16:02:44.837582,107
2021-12-27 16:02:44.837592,98
2021-12-27 16:02:44.837602,93
2021-12-27 16:02:44.837612,91
2021-12-27 16:02:44.837622,88
2021-12-27 16:02:44.837632,84
2021-12-27 16:02:44.837642,84
2021-12-27 16:02:44.837652,81
2021-12-27 16:02:44.837662,72
2021-12-27 16:02:44.837672,79
2021-12-27 16:02:44.837682,91
2021-12-27 16:02:44.837692,88
2021-12-27 16:02:44.837702,88
2021-12-27 16:02:44.837712,91
2021-12-27 16:02:44.837721,86
2021-12-27 16:02:44.837731,95
2021-12-27 16:02:44.837741,100
2021-12-27 16:02:44.837751,88
2021-12-27 16:02:44.837761,88
2021-12-27 16:02:44.837771,95
2021-12-27 16:02:44.837781,100
2021-12-27 16:02:44.837791,109
2021-12-27 16:02:44.837837,107
2021-12-27 16:02:44.837847,98
2021-12-27 16:02:44.837857,116
2021-12-27 16:02:44.837867,137
2021-12-27 16:02:44.837877,121
2021-12-27 16:02:45.081310,95
2021-12-27 16:02:45.081340,84
2021-12-27 16:02:45.081351,79
2021-12-27 16:02:45.081362,81
2021-12-27 16:02:45.081372,95
2021-12-27 16:02:45.081382,107
2021-12-27 16:02:45.081392,109
2021-12-27 16:02:45.081402,112
2021-12-27 16:02:45.081412,116
2021-12-27 16:02:45.081422,121
2021-12-27 16:02:45.081432,130
2021-12-27 16:02:45.081441,126
2021-12-27 16:02:45.081451,109
2021-12-27 16:02:45.081461,105
2021-12-27 16:02:45.081471,119
2021-12-27 16:02:45.081481,163
2021-12-27 16:02:45.081491,224
2021-12-27 16:02:45.081501,163
2021-12-27 16:02:45.081510,-217
2021-12-27 16:02:45.081520,-903
2021-12-27 16:02:45.081530,-1328
2021-12-27 16:02:45.081540,-782
2021-12-27 16:02:45.081550,149
2021-12-27 16:02:45.081560,308
2021-12-27 16:02:45.081570,79
2021-12-27 16:02:45.081580,175
2021-12-27 16:02:45.081590,275
2021-12-27 16:02:45.081600,196
2021-12-27 16:02:45.081609,177
2021-12-27 16:02:45.081619,205
2021-12-27 16:02:45.324314,177
2021-12-27 16:02:45.324334,154
2021-12-27 16:02:45.324342,154
2021-12-27 16:02:45.324349,144
2021-12-27 16:02:45.324356,133
2021-12-27 16:02:45.324363,121
2021-12-27 16:02:45.324370,112
2021-12-27 16:02:45.324376,100
2021-12-27 16:02:45.324383,88
2021-12-27 16:02:45.324390,77
2021-12-27 16:02:45.324397,74
2021-12-27 16:02:45.324404,77
2021-12-27 16:02:45.324411,72
2021-12-27 16:02:45.324418,67
2021-12-27 16:02:45.324424,74
2021-12-27 16:02:45.324431,84
2021-12-27 16:02:45.324438,93
2021-12-27 16:02:45.324445,107
2021-12-27 16:02:45.324452,116
2021-12-27 16:02:45.324458,121
2021-12-27 16:02:45.324465,121
2021-12-27 16:02:45.324472,116
2021-12-27 16:02:45.324479,105
2021-12-27 16:02:45.324486,100
2021-12-27 16:02:45.324493,98
2021-12-27 16:02:45.324500,100
2021-12-27 16:02:45.324507,102
2021-12-27 16:02:45.324513,102
2021-12-27 16:02:45.324520,102
2021-12-27 16:02:45.324527,102
2021-12-27 16:02:45.519367,100
2021-12-27 16:02:45.519388,95
2021-12-27 16:02:45.519396,93
2021-12-27 16:02:45.519403,88
2021-12-27 16:02:45.519409,86
2021-12-27 16:02:45.519416,86
2021-12-27 16:02:45.519422,86
2021-12-27 16:02:45.519429,88
2021-12-27 16:02:45.519435,84
2021-12-27 16:02:45.519442,79
2021-12-27 16:02:45.519448,79
2021-12-27 16:02:45.519454,81
2021-12-27 16:02:45.519461,84
2021-12-27 16:02:45.519467,88
2021-12-27 16:02:45.519473,88
2021-12-27 16:02:45.519480,84
2021-12-27 16:02:45.519486,84
2021-12-27 16:02:45.519493,88
2021-12-27 16:02:45.519499,91
2021-12-27 16:02:45.519505,93
2021-12-27 16:02:45.519512,98
2021-12-27 16:02:45.519518,102
2021-12-27 16:02:45.519525,98
2021-12-27 16:02:45.519531,84
2021-12-27 16:02:45.519537,65
2021-12-27 16:02:45.519544,58
2021-12-27 16:02:45.519550,56
2021-12-27 16:02:45.519557,56
2021-12-27 16:02:45.519563,67
2021-12-27 16:02:45.519569,77
2021-12-27 16:02:45.763810,77
2021-12-27 16:02:45.763839,77
2021-12-27 16:02:45.763851,81
2021-12-27 16:02:45.763861,79
2021-12-27 16:02:45.763871,74
2021-12-27 16:02:45.763881,74
2021-12-27 16:02:45.763891,74
2021-12-27 16:02:45.763900,86
2021-12-27 16:02:45.763910,130
2021-12-27 16:02:45.763920,179
2021-12-27 16:02:45.763930,86
2021-12-27 16:02:45.763940,-326
2021-12-27 16:02:45.763950,-1015
2021-12-27 16:02:45.763960,-1352
2021-12-27 16:02:45.763970,-681
2021-12-27 16:02:45.763979,217
2021-12-27 16:02:45.763989,273
2021-12-27 16:02:45.764010,56
2021-12-27 16:02:45.764021,170
2021-12-27 16:02:45.764031,231
2021-12-27 16:02:45.764040,156
2021-12-27 16:02:45.764050,158
2021-12-27 16:02:45.764060,172
2021-12-27 16:02:45.764070,137
2021-12-27 16:02:45.764080,123
2021-12-27 16:02:45.764090,128
2021-12-27 16:02:45.764100,114
2021-12-27 16:02:45.764110,98
2021-12-27 16:02:45.764120,88
2021-12-27 16:02:45.764129,77
2021-12-27 16:02:46.007602,63
2021-12-27 16:02:46.007628,56
2021-12-27 16:02:46.007636,53
2021-12-27 16:02:46.007643,46
2021-12-27 16:02:46.007650,44
2021-12-27 16:02:46.007656,51
2021-12-27 16:02:46.007662,51
2021-12-27 16:02:46.007669,51
2021-12-27 16:02:46.007675,58
2021-12-27 16:02:46.007682,77
2021-12-27 16:02:46.007688,95
2021-12-27 16:02:46.007695,98
2021-12-27 16:02:46.007701,86
2021-12-27 16:02:46.007708,74
2021-12-27 16:02:46.007714,72
2021-12-27 16:02:46.007720,74
2021-12-27 16:02:46.007727,72
2021-12-27 16:02:46.007734,74
2021-12-27 16:02:46.007740,77
2021-12-27 16:02:46.007747,81
2021-12-27 16:02:46.007753,86
2021-12-27 16:02:46.007760,88
2021-12-27 16:02:46.007766,81
2021-12-27 16:02:46.007772,72
2021-12-27 16:02:46.007779,72
2021-12-27 16:02:46.007785,74
2021-12-27 16:02:46.007792,70
2021-12-27 16:02:46.007798,67
2021-12-27 16:02:46.007805,67
2021-12-27 16:02:46.007811,70
2021-12-27 16:02:46.250946,74
2021-12-27 16:02:46.250969,74
2021-12-27 16:02:46.250977,72
2021-12-27 16:02:46.250984,74
2021-12-27 16:02:46.250990,81
2021-12-27 16:02:46.250996,84
2021-12-27 16:02:46.251003,86
2021-12-27 16:02:46.251009,91
2021-12-27 16:02:46.251016,86
2021-12-27 16:02:46.251022,88
2021-12-27 16:02:46.251028,98
2021-12-27 16:02:46.251035,105
2021-12-27 16:02:46.251041,98
2021-12-27 16:02:46.251048,91
2021-12-27 16:02:46.251054,74
2021-12-27 16:02:46.251061,63
2021-12-27 16:02:46.251067,67
2021-12-27 16:02:46.251073,81
2021-12-27 16:02:46.251080,93
2021-12-27 16:02:46.251086,102
2021-12-27 16:02:46.251093,102
2021-12-27 16:02:46.251099,98
2021-12-27 16:02:46.251105,98
2021-12-27 16:02:46.251112,102
2021-12-27 16:02:46.251118,105
2021-12-27 16:02:46.251124,102
2021-12-27 16:02:46.251131,100
2021-12-27 16:02:46.251137,107
2021-12-27 16:02:46.251144,149
2021-12-27 16:02:46.251150,207
2021-12-27 16:02:46.446638,149
2021-12-27 16:02:46.446669,-228
2021-12-27 16:02:46.446681,-943
2021-12-27 16:02:46.446691,-1427
2021-12-27 16:02:46.446701,-873
2021-12-27 16:02:46.446710,158
2021-12-27 16:02:46.446720,355
2021-12-27 16:02:46.446730,79
2021-12-27 16:02:46.446740,170
2021-12-27 16:02:46.446750,280
2021-12-27 16:02:46.446760,189
2021-12-27 16:02:46.446770,172
2021-12-27 16:02:46.446779,207
2021-12-27 16:02:46.446789,175
2021-12-27 16:02:46.446809,149
2021-12-27 16:02:46.446820,154
2021-12-27 16:02:46.446830,135
2021-12-27 16:02:46.446840,116
2021-12-27 16:02:46.446849,112
2021-12-27 16:02:46.446859,107
2021-12-27 16:02:46.446869,93
2021-12-27 16:02:46.446879,81
2021-12-27 16:02:46.446889,74
2021-12-27 16:02:46.446898,72
2021-12-27 16:02:46.446908,67
2021-12-27 16:02:46.446918,65
2021-12-27 16:02:46.446928,72
2021-12-27 16:02:46.446937,79
2021-12-27 16:02:46.446947,88
2021-12-27 16:02:46.446957,102
2021-12-27 16:02:46.738064,112
2021-12-27 16:02:46.738095,116
2021-12-27 16:02:46.738107,119
2021-12-27 16:02:46.738118,112
2021-12-27 16:02:46.738128,100
2021-12-27 16:02:46.738138,91
2021-12-27 16:02:46.738148,86
2021-12-27 16:02:46.738158,81
2021-12-27 16:02:46.738168,79
2021-12-27 16:02:46.738178,81
2021-12-27 16:02:46.738188,88
2021-12-27 16:02:46.738198,81
2021-12-27 16:02:46.738208,74
2021-12-27 16:02:46.738218,79
2021-12-27 16:02:46.738228,79
2021-12-27 16:02:46.738238,72
2021-12-27 16:02:46.738248,70
2021-12-27 16:02:46.738258,74
2021-12-27 16:02:46.738268,77
2021-12-27 16:02:46.738278,72
2021-12-27 16:02:46.738287,70
2021-12-27 16:02:46.738297,72
2021-12-27 16:02:46.738307,77
2021-12-27 16:02:46.738317,81
2021-12-27 16:02:46.738327,81
2021-12-27 16:02:46.738337,86
2021-12-27 16:02:46.738347,91
2021-12-27 16:02:46.738357,91
2021-12-27 16:02:46.738367,91
2021-12-27 16:02:46.738377,98
2021-12-27 16:02:46.934150,100
2021-12-27 16:02:46.934171,100
2021-12-27 16:02:46.934179,102
2021-12-27 16:02:46.934186,107
2021-12-27 16:02:46.934192,107
2021-12-27 16:02:46.934199,95
2021-12-27 16:02:46.934205,77
2021-12-27 16:02:46.934211,70
2021-12-27 16:02:46.934218,67
2021-12-27 16:02:46.934224,67
2021-12-27 16:02:46.934231,79
2021-12-27 16:02:46.934237,95
2021-12-27 16:02:46.934243,98
2021-12-27 16:02:46.934250,95
2021-12-27 16:02:46.934256,95
2021-12-27 16:02:46.934263,95
2021-12-27 16:02:46.934269,93
2021-12-27 16:02:46.934275,95
2021-12-27 16:02:46.934282,98
2021-12-27 16:02:46.934288,100
2021-12-27 16:02:46.934294,126
2021-12-27 16:02:46.934301,189
2021-12-27 16:02:46.934307,182
2021-12-27 16:02:46.934313,-121
2021-12-27 16:02:46.934320,-789
2021-12-27 16:02:46.934326,-1403
2021-12-27 16:02:46.934333,-1114
2021-12-27 16:02:46.934339,-77
2021-12-27 16:02:46.934345,359
2021-12-27 16:02:46.934352,112
2021-12-27 16:02:47.128035,121
2021-12-27 16:02:47.128051,280
2021-12-27 16:02:47.128057,217
2021-12-27 16:02:47.128063,168
2021-12-27 16:02:47.128068,207
2021-12-27 16:02:47.128073,191
2021-12-27 16:02:47.128078,154
2021-12-27 16:02:47.128083,156
2021-12-27 16:02:47.128088,149
2021-12-27 16:02:47.128093,123
2021-12-27 16:02:47.128099,109
2021-12-27 16:02:47.128104,100
2021-12-27 16:02:47.128109,86
2021-12-27 16:02:47.128114,81
2021-12-27 16:02:47.128119,72
2021-12-27 16:02:47.128124,58
2021-12-27 16:02:47.128129,56
2021-12-27 16:02:47.128135,60
2021-12-27 16:02:47.128140,63
2021-12-27 16:02:47.128145,72
2021-12-27 16:02:47.128150,84
2021-12-27 16:02:47.128155,95
2021-12-27 16:02:47.128160,109
2021-12-27 16:02:47.128165,121
2021-12-27 16:02:47.128170,126
2021-12-27 16:02:47.128175,126
2021-12-27 16:02:47.128181,116
2021-12-27 16:02:47.128186,102
2021-12-27 16:02:47.128191,88
2021-12-27 16:02:47.128196,84
2021-12-27 16:02:47.372120,88
2021-12-27 16:02:47.372140,91
2021-12-27 16:02:47.372146,93
2021-12-27 16:02:47.372152,88
2021-12-27 16:02:47.372157,79
2021-12-27 16:02:47.372163,77
2021-12-27 16:02:47.372168,79
2021-12-27 16:02:47.372173,74
2021-12-27 16:02:47.372178,70
2021-12-27 16:02:47.372183,72
2021-12-27 16:02:47.372188,70
2021-12-27 16:02:47.372194,67
2021-12-27 16:02:47.372199,72
2021-12-27 16:02:47.372204,74
2021-12-27 16:02:47.372209,72
2021-12-27 16:02:47.372214,72
2021-12-27 16:02:47.372219,74
2021-12-27 16:02:47.372224,79
2021-12-27 16:02:47.372229,81
2021-12-27 16:02:47.372234,86
2021-12-27 16:02:47.372239,88
2021-12-27 16:02:47.372244,91
2021-12-27 16:02:47.372249,95
2021-12-27 16:02:47.372254,102
2021-12-27 16:02:47.372259,107
2021-12-27 16:02:47.372264,112
2021-12-27 16:02:47.372270,105
2021-12-27 16:02:47.372275,88
2021-12-27 16:02:47.372280,74
2021-12-27 16:02:47.372285,67
2021-12-27 16:02:47.616387,77
2021-12-27 16:02:47.616408,91
2021-12-27 16:02:47.616416,102
2021-12-27 16:02:47.616423,107
2021-12-27 16:02:47.616429,107
2021-12-27 16:02:47.616435,105
2021-12-27 16:02:47.616442,100
2021-12-27 16:02:47.616449,100
2021-12-27 16:02:47.616455,102
2021-12-27 16:02:47.616461,98
2021-12-27 16:02:47.616468,95
2021-12-27 16:02:47.616474,119
2021-12-27 16:02:47.616480,172
2021-12-27 16:02:47.616487,172
2021-12-27 16:02:47.616493,-72
2021-12-27 16:02:47.616500,-667
2021-12-27 16:02:47.616506,-1282
2021-12-27 16:02:47.616513,-1104
2021-12-27 16:02:47.616519,-142
2021-12-27 16:02:47.616525,350
2021-12-27 16:02:47.616532,128
2021-12-27 16:02:47.616538,98
2021-12-27 16:02:47.616545,261
2021-12-27 16:02:47.616551,219
2021-12-27 16:02:47.616557,163
2021-12-27 16:02:47.616564,196
2021-12-27 16:02:47.616570,186
2021-12-27 16:02:47.616577,154
2021-12-27 16:02:47.616583,156
2021-12-27 16:02:47.616590,151
2021-12-27 16:02:47.860114,133
2021-12-27 16:02:47.860145,123
2021-12-27 16:02:47.860156,119
2021-12-27 16:02:47.860167,105
2021-12-27 16:02:47.860177,95
2021-12-27 16:02:47.860187,88
2021-12-27 16:02:47.860197,81
2021-12-27 16:02:47.860207,74
2021-12-27 16:02:47.860217,72
2021-12-27 16:02:47.860226,77
2021-12-27 16:02:47.860236,84
2021-12-27 16:02:47.860246,95
2021-12-27 16:02:47.860256,105
2021-12-27 16:02:47.860266,114
2021-12-27 16:02:47.860276,116
2021-12-27 16:02:47.860285,119
2021-12-27 16:02:47.860295,119
2021-12-27 16:02:47.860305,109
2021-12-27 16:02:47.860315,100
2021-12-27 16:02:47.860324,95
2021-12-27 16:02:47.860334,93
2021-12-27 16:02:47.860344,93
2021-12-27 16:02:47.860354,95
2021-12-27 16:02:47.860364,95
2021-12-27 16:02:47.860373,91
2021-12-27 16:02:47.860383,86
2021-12-27 16:02:47.860393,84
2021-12-27 16:02:47.860403,81
2021-12-27 16:02:47.860413,81
2021-12-27 16:02:47.860423,79
2021-12-27 16:02:48.055165,79
2021-12-27 16:02:48.055196,79
2021-12-27 16:02:48.055207,81
2021-12-27 16:02:48.055218,81
2021-12-27 16:02:48.055227,79
2021-12-27 16:02:48.055237,81
2021-12-27 16:02:48.055247,86
2021-12-27 16:02:48.055257,88
2021-12-27 16:02:48.055267,84
2021-12-27 16:02:48.055277,84
2021-12-27 16:02:48.055287,86
2021-12-27 16:02:48.055297,91
2021-12-27 16:02:48.055307,93
2021-12-27 16:02:48.055316,93
2021-12-27 16:02:48.055326,91
2021-12-27 16:02:48.055336,88
2021-12-27 16:02:48.055346,93
2021-12-27 16:02:48.055355,95
2021-12-27 16:02:48.055365,95
2021-12-27 16:02:48.055375,86
2021-12-27 16:02:48.055385,67
2021-12-27 16:02:48.055395,60
2021-12-27 16:02:48.055405,63
2021-12-27 16:02:48.055414,67
2021-12-27 16:02:48.055424,79
2021-12-27 16:02:48.055434,88
2021-12-27 16:02:48.055444,91
2021-12-27 16:02:48.055454,91
2021-12-27 16:02:48.055463,93
2021-12-27 16:02:48.055473,93
2021-12-27 16:02:48.299187,88
2021-12-27 16:02:48.299207,93
2021-12-27 16:02:48.299215,95
2021-12-27 16:02:48.299222,102
2021-12-27 16:02:48.299229,142
2021-12-27 16:02:48.299235,186
2021-12-27 16:02:48.299242,79
2021-12-27 16:02:48.299248,-357
2021-12-27 16:02:48.299255,-1018
2021-12-27 16:02:48.299261,-1249
2021-12-27 16:02:48.299268,-530
2021-12-27 16:02:48.299274,275
2021-12-27 16:02:48.299281,245
2021-12-27 16:02:48.299287,49
2021-12-27 16:02:48.299294,191
2021-12-27 16:02:48.299300,238
2021-12-27 16:02:48.299306,151
2021-12-27 16:02:48.299313,163
2021-12-27 16:02:48.299319,184
2021-12-27 16:02:48.299326,147
2021-12-27 16:02:48.299335,135
2021-12-27 16:02:48.299345,140
2021-12-27 16:02:48.299356,126
2021-12-27 16:02:48.299399,112
2021-12-27 16:02:48.299412,105
2021-12-27 16:02:48.299419,98
2021-12-27 16:02:48.299426,88
2021-12-27 16:02:48.299433,84
2021-12-27 16:02:48.299439,79
2021-12-27 16:02:48.299446,77
2021-12-27 16:02:48.542561,74
2021-12-27 16:02:48.542582,74
2021-12-27 16:02:48.542590,79
2021-12-27 16:02:48.542596,88
2021-12-27 16:02:48.542603,98
2021-12-27 16:02:48.542609,102
2021-12-27 16:02:48.542616,107
2021-12-27 16:02:48.542622,109
2021-12-27 16:02:48.542629,105
2021-12-27 16:02:48.542635,95
2021-12-27 16:02:48.542641,86
2021-12-27 16:02:48.542648,84
2021-12-27 16:02:48.542654,84
2021-12-27 16:02:48.542660,86
2021-12-27 16:02:48.542667,95
2021-12-27 16:02:48.542673,98
2021-12-27 16:02:48.542679,95
2021-12-27 16:02:48.542686,93
2021-12-27 16:02:48.542692,88
2021-12-27 16:02:48.542699,84
2021-12-27 16:02:48.542705,81
2021-12-27 16:02:48.542711,79
2021-12-27 16:02:48.542718,79
2021-12-27 16:02:48.542724,79
2021-12-27 16:02:48.542730,81
2021-12-27 16:02:48.542737,81
2021-12-27 16:02:48.542743,81
2021-12-27 16:02:48.542749,81
2021-12-27 16:02:48.542756,84
2021-12-27 16:02:48.542762,81
2021-12-27 16:02:48.882695,79
2021-12-27 16:02:48.882725,81
2021-12-27 16:02:48.882737,84
2021-12-27 16:02:48.882747,84
2021-12-27 16:02:48.882757,84
2021-12-27 16:02:48.882767,88
2021-12-27 16:02:48.882777,88
2021-12-27 16:02:48.882787,86
2021-12-27 16:02:48.882797,86
2021-12-27 16:02:48.882807,88
2021-12-27 16:02:48.882817,95
2021-12-27 16:02:48.882826,100
2021-12-27 16:02:48.882836,95
2021-12-27 16:02:48.882846,81
2021-12-27 16:02:48.882856,63
2021-12-27 16:02:48.882866,53
2021-12-27 16:02:48.882876,58
2021-12-27 16:02:48.882886,65
2021-12-27 16:02:48.882896,79
2021-12-27 16:02:48.882906,86
2021-12-27 16:02:48.882915,84
2021-12-27 16:02:48.882925,84
2021-12-27 16:02:48.882935,86
2021-12-27 16:02:48.882945,86
2021-12-27 16:02:48.882955,88
2021-12-27 16:02:48.882965,88
2021-12-27 16:02:48.882975,86
2021-12-27 16:02:48.882985,93
2021-12-27 16:02:48.882995,137
2021-12-27 16:02:48.883005,184
2021-12-27 16:02:49.030007,79
2021-12-27 16:02:49.030028,-355
2021-12-27 16:02:49.030036,-1027
2021-12-27 16:02:49.030042,-1284
2021-12-27 16:02:49.030049,-560
2021-12-27 16:02:49.030055,275
2021-12-27 16:02:49.030062,261
2021-12-27 16:02:49.030069,63
2021-12-27 16:02:49.030075,200
2021-12-27 16:02:49.030082,247
2021-12-27 16:02:49.030088,158
2021-12-27 16:02:49.030094,168
2021-12-27 16:02:49.030101,189
2021-12-27 16:02:49.030107,161
2021-12-27 16:02:49.030114,149
2021-12-27 16:02:49.030120,149
2021-12-27 16:02:49.030127,128
2021-12-27 16:02:49.030133,114
2021-12-27 16:02:49.030140,109
2021-12-27 16:02:49.030178,98
2021-12-27 16:02:49.030185,88
2021-12-27 16:02:49.030192,81
2021-12-27 16:02:49.030198,74
2021-12-27 16:02:49.030205,72
2021-12-27 16:02:49.030211,74
2021-12-27 16:02:49.030218,77
2021-12-27 16:02:49.030224,84
2021-12-27 16:02:49.030230,95
2021-12-27 16:02:49.030237,107
2021-12-27 16:02:49.030243,116
2021-12-27 16:02:49.225024,121
2021-12-27 16:02:49.225055,121
2021-12-27 16:02:49.225067,116
2021-12-27 16:02:49.225077,109
2021-12-27 16:02:49.225087,98
2021-12-27 16:02:49.225097,86
2021-12-27 16:02:49.225106,84
2021-12-27 16:02:49.225116,88
2021-12-27 16:02:49.225126,98
2021-12-27 16:02:49.225136,102
2021-12-27 16:02:49.225146,98
2021-12-27 16:02:49.225156,88
2021-12-27 16:02:49.225166,88
2021-12-27 16:02:49.225176,88
2021-12-27 16:02:49.225185,86
2021-12-27 16:02:49.225195,84
2021-12-27 16:02:49.225205,81
2021-12-27 16:02:49.225215,74
2021-12-27 16:02:49.225224,72
2021-12-27 16:02:49.225234,81
2021-12-27 16:02:49.225244,86
2021-12-27 16:02:49.225254,79
2021-12-27 16:02:49.225264,77
2021-12-27 16:02:49.225273,77
2021-12-27 16:02:49.225283,79
2021-12-27 16:02:49.225293,88
2021-12-27 16:02:49.225303,93
2021-12-27 16:02:49.225312,93
2021-12-27 16:02:49.225322,93
2021-12-27 16:02:49.225332,95
2021-12-27 16:02:49.468219,98
2021-12-27 16:02:49.468238,95
2021-12-27 16:02:49.468245,98
2021-12-27 16:02:49.468250,105
2021-12-27 16:02:49.468256,112
2021-12-27 16:02:49.468261,107
2021-12-27 16:02:49.468266,91
2021-12-27 16:02:49.468271,72
2021-12-27 16:02:49.468276,63
2021-12-27 16:02:49.468282,72
2021-12-27 16:02:49.468287,88
2021-12-27 16:02:49.468292,93
2021-12-27 16:02:49.468297,98
2021-12-27 16:02:49.468302,105
2021-12-27 16:02:49.468307,107
2021-12-27 16:02:49.468312,98
2021-12-27 16:02:49.468318,91
2021-12-27 16:02:49.468323,98
2021-12-27 16:02:49.468328,100
2021-12-27 16:02:49.468333,93
2021-12-27 16:02:49.468338,107
2021-12-27 16:02:49.468343,156
2021-12-27 16:02:49.468348,203
2021-12-27 16:02:49.468353,81
2021-12-27 16:02:49.468359,-401
2021-12-27 16:02:49.468366,-1111
2021-12-27 16:02:49.468375,-1300
2021-12-27 16:02:49.468383,-453
2021-12-27 16:02:49.468391,392
2021-12-27 16:02:49.468400,277
2021-12-27 16:02:49.712516,53
2021-12-27 16:02:49.712546,221
2021-12-27 16:02:49.712558,249
2021-12-27 16:02:49.712569,147
2021-12-27 16:02:49.712578,170
2021-12-27 16:02:49.712588,186
2021-12-27 16:02:49.712598,144
2021-12-27 16:02:49.712608,135
2021-12-27 16:02:49.712618,137
2021-12-27 16:02:49.712628,116
2021-12-27 16:02:49.712637,98
2021-12-27 16:02:49.712647,86
2021-12-27 16:02:49.712656,77
2021-12-27 16:02:49.712666,70
2021-12-27 16:02:49.712676,65
2021-12-27 16:02:49.712686,60
2021-12-27 16:02:49.712695,58
2021-12-27 16:02:49.712705,53
2021-12-27 16:02:49.712715,58
2021-12-27 16:02:49.712724,72
2021-12-27 16:02:49.712734,77
2021-12-27 16:02:49.712744,79
2021-12-27 16:02:49.712753,93
2021-12-27 16:02:49.712763,105
2021-12-27 16:02:49.712773,100
2021-12-27 16:02:49.712783,95
2021-12-27 16:02:49.712792,93
2021-12-27 16:02:49.712802,86
2021-12-27 16:02:49.712812,86
2021-12-27 16:02:49.712822,95
2021-12-27 16:02:49.907449,102
2021-12-27 16:02:49.907480,109
2021-12-27 16:02:49.907492,121
2021-12-27 16:02:49.907502,121
2021-12-27 16:02:49.907512,116
2021-12-27 16:02:49.907522,116
2021-12-27 16:02:49.907532,114
2021-12-27 16:02:49.907542,100
2021-12-27 16:02:49.907552,98
2021-12-27 16:02:49.907562,98
2021-12-27 16:02:49.907572,98
2021-12-27 16:02:49.907582,100
2021-12-27 16:02:49.907592,98
2021-12-27 16:02:49.907602,95
2021-12-27 16:02:49.907612,98
2021-12-27 16:02:49.907622,98
2021-12-27 16:02:49.907631,93
2021-12-27 16:02:49.907641,95
2021-12-27 16:02:49.907651,100
2021-12-27 16:02:49.907661,105
2021-12-27 16:02:49.907671,107
2021-12-27 16:02:49.907681,107
2021-12-27 16:02:49.907691,107
2021-12-27 16:02:49.907701,112
2021-12-27 16:02:49.907711,116
2021-12-27 16:02:49.907721,116
2021-12-27 16:02:49.907731,114
2021-12-27 16:02:49.907741,112
2021-12-27 16:02:49.907751,100
2021-12-27 16:02:49.907761,86
2021-12-27 16:02:50.151268,81
2021-12-27 16:02:50.151298,86
2021-12-27 16:02:50.151310,93
2021-12-27 16:02:50.151320,102
2021-12-27 16:02:50.151330,107
2021-12-27 16:02:50.151340,105
2021-12-27 16:02:50.151350,105
2021-12-27 16:02:50.151360,105
2021-12-27 16:02:50.151370,105
2021-12-27 16:02:50.151380,105
2021-12-27 16:02:50.151389,105
2021-12-27 16:02:50.151399,95
2021-12-27 16:02:50.151409,105
2021-12-27 16:02:50.151419,156
2021-12-27 16:02:50.151429,221
2021-12-27 16:02:50.151438,128
2021-12-27 16:02:50.151449,-331
2021-12-27 16:02:50.151459,-1093
2021-12-27 16:02:50.151468,-1464
2021-12-27 16:02:50.151478,-717
2021-12-27 16:02:50.151488,294
2021-12-27 16:02:50.151498,322
2021-12-27 16:02:50.151508,39
2021-12-27 16:02:50.151518,189
2021-12-27 16:02:50.151528,268
2021-12-27 16:02:50.151538,161
2021-12-27 16:02:50.151547,165
2021-12-27 16:02:50.151557,198
2021-12-27 16:02:50.151567,156
2021-12-27 16:02:50.151577,140
2021-12-27 16:02:50.394589,149
2021-12-27 16:02:50.394612,130
2021-12-27 16:02:50.394623,109
2021-12-27 16:02:50.394633,107
2021-12-27 16:02:50.394642,95
2021-12-27 16:02:50.394652,86
2021-12-27 16:02:50.394662,81
2021-12-27 16:02:50.394672,72
2021-12-27 16:02:50.394683,67
2021-12-27 16:02:50.394693,67
2021-12-27 16:02:50.394703,72
2021-12-27 16:02:50.394713,81
2021-12-27 16:02:50.394723,93
2021-12-27 16:02:50.394733,100
2021-12-27 16:02:50.394744,112
2021-12-27 16:02:50.394754,126
2021-12-27 16:02:50.394764,133
2021-12-27 16:02:50.394774,133
2021-12-27 16:02:50.394784,128
2021-12-27 16:02:50.394793,116
2021-12-27 16:02:50.394802,105
2021-12-27 16:02:50.394812,100
2021-12-27 16:02:50.394820,100
2021-12-27 16:02:50.394829,107
2021-12-27 16:02:50.394838,112
2021-12-27 16:02:50.394848,112
2021-12-27 16:02:50.394858,109
2021-12-27 16:02:50.394866,107
2021-12-27 16:02:50.394876,100
2021-12-27 16:02:50.394885,100
2021-12-27 16:02:50.589546,98
2021-12-27 16:02:50.589579,93
2021-12-27 16:02:50.589593,88
2021-12-27 16:02:50.589606,84
2021-12-27 16:02:50.589618,81
2021-12-27 16:02:50.589630,81
2021-12-27 16:02:50.589642,84
2021-12-27 16:02:50.589655,84
2021-12-27 16:02:50.589667,81
2021-12-27 16:02:50.589679,79
2021-12-27 16:02:50.589691,81
2021-12-27 16:02:50.589703,84
2021-12-27 16:02:50.589715,86
2021-12-27 16:02:50.589726,91
2021-12-27 16:02:50.589736,93
2021-12-27 16:02:50.589748,93
2021-12-27 16:02:50.589760,93
2021-12-27 16:02:50.589772,98
2021-12-27 16:02:50.589784,105
2021-12-27 16:02:50.589797,107
2021-12-27 16:02:50.589809,109
2021-12-27 16:02:50.589821,105
2021-12-27 16:02:50.589834,86
2021-12-27 16:02:50.589846,74
2021-12-27 16:02:50.589858,72
2021-12-27 16:02:50.589871,77
2021-12-27 16:02:50.589883,81
2021-12-27 16:02:50.589896,91
2021-12-27 16:02:50.589908,100
2021-12-27 16:02:50.589921,105
2021-12-27 16:02:50.880772,105
2021-12-27 16:02:50.880794,107
2021-12-27 16:02:50.880802,107
2021-12-27 16:02:50.880809,102
2021-12-27 16:02:50.880816,98
2021-12-27 16:02:50.880822,98
2021-12-27 16:02:50.880829,107
2021-12-27 16:02:50.880835,158
2021-12-27 16:02:50.880842,228
2021-12-27 16:02:50.880848,116
2021-12-27 16:02:50.880855,-411
2021-12-27 16:02:50.880861,-1233
2021-12-27 16:02:50.880868,-1560
2021-12-27 16:02:50.880874,-724
2021-12-27 16:02:50.880881,291
2021-12-27 16:02:50.880887,303
2021-12-27 16:02:50.880894,51
2021-12-27 16:02:50.880933,224
2021-12-27 16:02:50.880939,301
2021-12-27 16:02:50.880946,193
2021-12-27 16:02:50.880952,203
2021-12-27 16:02:50.880959,233
2021-12-27 16:02:50.880965,189
2021-12-27 16:02:50.880972,172
2021-12-27 16:02:50.880978,179
2021-12-27 16:02:50.880985,165
2021-12-27 16:02:50.880991,151
2021-12-27 16:02:50.880998,149
2021-12-27 16:02:50.881004,142
2021-12-27 16:02:50.881011,128
2021-12-27 16:02:51.076819,116
2021-12-27 16:02:51.076834,109
2021-12-27 16:02:51.076840,105
2021-12-27 16:02:51.076844,102
2021-12-27 16:02:51.076849,102
2021-12-27 16:02:51.076853,105
2021-12-27 16:02:51.076858,107
2021-12-27 16:02:51.076862,119
2021-12-27 16:02:51.076867,133
2021-12-27 16:02:51.076871,142
2021-12-27 16:02:51.076876,149
2021-12-27 16:02:51.076881,158
2021-12-27 16:02:51.076885,154
2021-12-27 16:02:51.076890,140
2021-12-27 16:02:51.076894,126
2021-12-27 16:02:51.076899,121
2021-12-27 16:02:51.076903,114
2021-12-27 16:02:51.076908,109
2021-12-27 16:02:51.076912,109
2021-12-27 16:02:51.076917,109
2021-12-27 16:02:51.076922,105
2021-12-27 16:02:51.076926,102
2021-12-27 16:02:51.076931,98
2021-12-27 16:02:51.076935,98
2021-12-27 16:02:51.076940,98
2021-12-27 16:02:51.076944,91
2021-12-27 16:02:51.076949,86
2021-12-27 16:02:51.076953,86
2021-12-27 16:02:51.076958,84
2021-12-27 16:02:51.076962,79
2021-12-27 16:02:51.320824,79
2021-12-27 16:02:51.320843,81
2021-12-27 16:02:51.320851,81
2021-12-27 16:02:51.320858,79
2021-12-27 16:02:51.320864,79
2021-12-27 16:02:51.320871,84
2021-12-27 16:02:51.320877,86
2021-12-27 16:02:51.320884,84
2021-12-27 16:02:51.320890,84
2021-12-27 16:02:51.320896,86
2021-12-27 16:02:51.320903,88
2021-12-27 16:02:51.320909,86
2021-12-27 16:02:51.320915,88
2021-12-27 16:02:51.320922,88
2021-12-27 16:02:51.320928,86
2021-12-27 16:02:51.320934,88
2021-12-27 16:02:51.320940,95
2021-12-27 16:02:51.320947,98
2021-12-27 16:02:51.320953,95
2021-12-27 16:02:51.320960,79
2021-12-27 16:02:51.320966,63
2021-12-27 16:02:51.320972,58
2021-12-27 16:02:51.320979,60
2021-12-27 16:02:51.320985,74
2021-12-27 16:02:51.320991,88
2021-12-27 16:02:51.320998,95
2021-12-27 16:02:51.321004,93
2021-12-27 16:02:51.321011,93
2021-12-27 16:02:51.321017,95
2021-12-27 16:02:51.321023,98
2021-12-27 16:02:51.516283,98
2021-12-27 16:02:51.516314,98
2021-12-27 16:02:51.516326,95
2021-12-27 16:02:51.516337,109
2021-12-27 16:02:51.516346,165
2021-12-27 16:02:51.516356,219
2021-12-27 16:02:51.516366,81
2021-12-27 16:02:51.516376,-441
2021-12-27 16:02:51.516386,-1188
2021-12-27 16:02:51.516396,-1380
2021-12-27 16:02:51.516407,-520
2021-12-27 16:02:51.516417,322
2021-12-27 16:02:51.516427,235
2021-12-27 16:02:51.516437,49
2021-12-27 16:02:51.516447,231
2021-12-27 16:02:51.516457,266
2021-12-27 16:02:51.516466,163
2021-12-27 16:02:51.516476,184
2021-12-27 16:02:51.516486,205
2021-12-27 16:02:51.516496,161
2021-12-27 16:02:51.516506,151
2021-12-27 16:02:51.516516,156
2021-12-27 16:02:51.516526,133
2021-12-27 16:02:51.516536,119
2021-12-27 16:02:51.516546,119
2021-12-27 16:02:51.516556,112
2021-12-27 16:02:51.516566,102
2021-12-27 16:02:51.516576,95
2021-12-27 16:02:51.516586,91
2021-12-27 16:02:51.516596,88
2021-12-27 16:02:51.760040,88
2021-12-27 16:02:51.760071,91
2021-12-27 16:02:51.760078,95
2021-12-27 16:02:51.760085,100
2021-12-27 16:02:51.760092,107
2021-12-27 16:02:51.760098,121
2021-12-27 16:02:51.760104,135
2021-12-27 16:02:51.760111,142
2021-12-27 16:02:51.760117,142
2021-12-27 16:02:51.760123,135
2021-12-27 16:02:51.760130,116
2021-12-27 16:02:51.760136,98
2021-12-27 16:02:51.760142,93
2021-12-27 16:02:51.760149,91
2021-12-27 16:02:51.760155,86
2021-12-27 16:02:51.760162,91
2021-12-27 16:02:51.760168,91
2021-12-27 16:02:51.760174,86
2021-12-27 16:02:51.760181,86
2021-12-27 16:02:51.760187,88
2021-12-27 16:02:51.760194,86
2021-12-27 16:02:51.760200,84
2021-12-27 16:02:51.760206,81
2021-12-27 16:02:51.760213,84
2021-12-27 16:02:51.760219,81
2021-12-27 16:02:51.760226,84
2021-12-27 16:02:51.760232,88
2021-12-27 16:02:51.760239,91
2021-12-27 16:02:51.760245,91
2021-12-27 16:02:51.760252,91
2021-12-27 16:02:52.052646,93
2021-12-27 16:02:52.052677,98
2021-12-27 16:02:52.052688,98
2021-12-27 16:02:52.052699,95
2021-12-27 16:02:52.052708,98
2021-12-27 16:02:52.052723,105
2021-12-27 16:02:52.052733,100
2021-12-27 16:02:52.052743,93
2021-12-27 16:02:52.052753,102
2021-12-27 16:02:52.052763,107
2021-12-27 16:02:52.052773,105
2021-12-27 16:02:52.052783,102
2021-12-27 16:02:52.052793,102
2021-12-27 16:02:52.052803,100
2021-12-27 16:02:52.052813,105
2021-12-27 16:02:52.052823,109
2021-12-27 16:02:52.052832,102
2021-12-27 16:02:52.052842,88
2021-12-27 16:02:52.052852,72
2021-12-27 16:02:52.052862,63
2021-12-27 16:02:52.052872,67
2021-12-27 16:02:52.052882,74
2021-12-27 16:02:52.052892,86
2021-12-27 16:02:52.052902,100
2021-12-27 16:02:52.052911,107
2021-12-27 16:02:52.052921,105
2021-12-27 16:02:52.052931,102
2021-12-27 16:02:52.052941,105
2021-12-27 16:02:52.052951,105
2021-12-27 16:02:52.052961,105
2021-12-27 16:02:52.198847,107
2021-12-27 16:02:52.198878,112
2021-12-27 16:02:52.198890,140
2021-12-27 16:02:52.198900,193
2021-12-27 16:02:52.198911,165
2021-12-27 16:02:52.198921,-144
2021-12-27 16:02:52.198931,-775
2021-12-27 16:02:52.198941,-1277
2021-12-27 16:02:52.198951,-887
2021-12-27 16:02:52.198961,67
2021-12-27 16:02:52.198971,345
2021-12-27 16:02:52.198981,86
2021-12-27 16:02:52.198991,140
2021-12-27 16:02:52.199001,270
2021-12-27 16:02:52.199011,191
2021-12-27 16:02:52.199021,156
2021-12-27 16:02:52.199031,193
2021-12-27 16:02:52.199041,172
2021-12-27 16:02:52.199051,142
2021-12-27 16:02:52.199061,144
2021-12-27 16:02:52.199071,130
2021-12-27 16:02:52.199081,109
2021-12-27 16:02:52.199091,102
2021-12-27 16:02:52.199101,98
2021-12-27 16:02:52.199111,86
2021-12-27 16:02:52.199121,81
2021-12-27 16:02:52.199131,74
2021-12-27 16:02:52.199141,67
2021-12-27 16:02:52.199152,70
2021-12-27 16:02:52.199162,77
2021-12-27 16:02:52.442699,84
2021-12-27 16:02:52.442720,91
2021-12-27 16:02:52.442728,100
2021-12-27 16:02:52.442746,102
2021-12-27 16:02:52.442753,107
2021-12-27 16:02:52.442759,119
2021-12-27 16:02:52.442766,119
2021-12-27 16:02:52.442772,109
2021-12-27 16:02:52.442779,98
2021-12-27 16:02:52.442785,86
2021-12-27 16:02:52.442792,79
2021-12-27 16:02:52.442798,84
2021-12-27 16:02:52.442805,88
2021-12-27 16:02:52.442811,93
2021-12-27 16:02:52.442818,95
2021-12-27 16:02:52.442824,95
2021-12-27 16:02:52.442830,93
2021-12-27 16:02:52.442837,91
2021-12-27 16:02:52.442843,91
2021-12-27 16:02:52.442849,88
2021-12-27 16:02:52.442856,88
2021-12-27 16:02:52.442862,86
2021-12-27 16:02:52.442869,84
2021-12-27 16:02:52.442875,86
2021-12-27 16:02:52.442882,88
2021-12-27 16:02:52.442888,88
2021-12-27 16:02:52.442895,91
2021-12-27 16:02:52.442901,93
2021-12-27 16:02:52.442908,93
2021-12-27 16:02:52.442914,93
2021-12-27 16:02:52.686653,98
2021-12-27 16:02:52.686682,102
2021-12-27 16:02:52.686694,102
2021-12-27 16:02:52.686704,102
2021-12-27 16:02:52.686714,102
2021-12-27 16:02:52.686724,102
2021-12-27 16:02:52.686734,98
2021-12-27 16:02:52.686744,100
2021-12-27 16:02:52.686754,102
2021-12-27 16:02:52.686764,100
2021-12-27 16:02:52.686774,100
2021-12-27 16:02:52.686783,105
2021-12-27 16:02:52.686793,105
2021-12-27 16:02:52.686803,100
2021-12-27 16:02:52.686813,88
2021-12-27 16:02:52.686823,70
2021-12-27 16:02:52.686833,56
2021-12-27 16:02:52.686842,60
2021-12-27 16:02:52.686852,67
2021-12-27 16:02:52.686862,77
2021-12-27 16:02:52.686872,88
2021-12-27 16:02:52.686882,95
2021-12-27 16:02:52.686892,91
2021-12-27 16:02:52.686901,91
2021-12-27 16:02:52.686911,95
2021-12-27 16:02:52.686921,93
2021-12-27 16:02:52.686931,86
2021-12-27 16:02:52.686941,86
2021-12-27 16:02:52.686951,93
2021-12-27 16:02:52.686961,116
2021-12-27 16:02:52.977884,165
2021-12-27 16:02:52.977906,170
2021-12-27 16:02:52.977914,-56
2021-12-27 16:02:52.977921,-607
2021-12-27 16:02:52.977927,-1184
2021-12-27 16:02:52.977934,-1039
2021-12-27 16:02:52.977940,-140
2021-12-27 16:02:52.977946,338
2021-12-27 16:02:52.977953,121
2021-12-27 16:02:52.977959,74
2021-12-27 16:02:52.977966,233
2021-12-27 16:02:52.977972,200
2021-12-27 16:02:52.977978,142
2021-12-27 16:02:52.977985,172
2021-12-27 16:02:52.977991,158
2021-12-27 16:02:52.977998,126
2021-12-27 16:02:52.978004,130
2021-12-27 16:02:52.978010,126
2021-12-27 16:02:52.978017,102
2021-12-27 16:02:52.978023,93
2021-12-27 16:02:52.978029,91
2021-12-27 16:02:52.978036,84
2021-12-27 16:02:52.978042,70
2021-12-27 16:02:52.978048,60
2021-12-27 16:02:52.978055,58
2021-12-27 16:02:52.978061,51
2021-12-27 16:02:52.978067,49
2021-12-27 16:02:52.978074,56
2021-12-27 16:02:52.978080,65
2021-12-27 16:02:52.978087,72
2021-12-27 16:02:53.125459,79
2021-12-27 16:02:53.125490,93
2021-12-27 16:02:53.125502,95
2021-12-27 16:02:53.125512,84
2021-12-27 16:02:53.125522,72
2021-12-27 16:02:53.125532,70
2021-12-27 16:02:53.125542,70
2021-12-27 16:02:53.125552,67
2021-12-27 16:02:53.125561,72
2021-12-27 16:02:53.125571,81
2021-12-27 16:02:53.125581,91
2021-12-27 16:02:53.125591,93
2021-12-27 16:02:53.125601,91
2021-12-27 16:02:53.125611,91
2021-12-27 16:02:53.125621,84
2021-12-27 16:02:53.125631,79
2021-12-27 16:02:53.125641,84
2021-12-27 16:02:53.125650,86
2021-12-27 16:02:53.125660,79
2021-12-27 16:02:53.125670,77
2021-12-27 16:02:53.125680,77
2021-12-27 16:02:53.125690,74
2021-12-27 16:02:53.125700,77
2021-12-27 16:02:53.125710,77
2021-12-27 16:02:53.125720,79
2021-12-27 16:02:53.125729,86
2021-12-27 16:02:53.125739,81
2021-12-27 16:02:53.125749,79
2021-12-27 16:02:53.125759,84
2021-12-27 16:02:53.125769,91
2021-12-27 16:02:53.368533,93
2021-12-27 16:02:53.368556,91
2021-12-27 16:02:53.368564,86
2021-12-27 16:02:53.368571,86
2021-12-27 16:02:53.368578,91
2021-12-27 16:02:53.368584,93
2021-12-27 16:02:53.368591,91
2021-12-27 16:02:53.368597,95
2021-12-27 16:02:53.368603,105
2021-12-27 16:02:53.368610,98
2021-12-27 16:02:53.368616,77
2021-12-27 16:02:53.368623,58
2021-12-27 16:02:53.368629,56
2021-12-27 16:02:53.368635,65
2021-12-27 16:02:53.368642,72
2021-12-27 16:02:53.368648,84
2021-12-27 16:02:53.368655,91
2021-12-27 16:02:53.368661,88
2021-12-27 16:02:53.368667,93
2021-12-27 16:02:53.368674,98
2021-12-27 16:02:53.368680,91
2021-12-27 16:02:53.368687,88
2021-12-27 16:02:53.368693,95
2021-12-27 16:02:53.368700,95
2021-12-27 16:02:53.368706,98
2021-12-27 16:02:53.368712,142
2021-12-27 16:02:53.368719,189
2021-12-27 16:02:53.368725,95
2021-12-27 16:02:53.368732,-291
2021-12-27 16:02:53.368738,-908
2021-12-27 16:02:53.613006,-1202
2021-12-27 16:02:53.613036,-600
2021-12-27 16:02:53.613048,214
2021-12-27 16:02:53.613059,256
2021-12-27 16:02:53.613068,46
2021-12-27 16:02:53.613078,161
2021-12-27 16:02:53.613088,228
2021-12-27 16:02:53.613098,154
2021-12-27 16:02:53.613108,156
2021-12-27 16:02:53.613118,175
2021-12-27 16:02:53.613128,142
2021-12-27 16:02:53.613138,128
2021-12-27 16:02:53.613147,133
2021-12-27 16:02:53.613157,116
2021-12-27 16:02:53.613167,102
2021-12-27 16:02:53.613177,95
2021-12-27 16:02:53.613187,84
2021-12-27 16:02:53.613196,74
2021-12-27 16:02:53.613206,70
2021-12-27 16:02:53.613216,60
2021-12-27 16:02:53.613226,51
2021-12-27 16:02:53.613235,49
2021-12-27 16:02:53.613245,51
2021-12-27 16:02:53.613255,58
2021-12-27 16:02:53.613265,70
2021-12-27 16:02:53.613275,74
2021-12-27 16:02:53.613285,74
2021-12-27 16:02:53.613295,77
2021-12-27 16:02:53.613304,81
2021-12-27 16:02:53.613314,81
2021-12-27 16:02:53.905639,70
2021-12-27 16:02:53.905670,56
2021-12-27 16:02:53.905681,60
2021-12-27 16:02:53.905692,74
2021-12-27 16:02:53.905701,84
2021-12-27 16:02:53.905711,91
2021-12-27 16:02:53.905721,98
2021-12-27 16:02:53.905731,98
2021-12-27 16:02:53.905741,93
2021-12-27 16:02:53.905751,93
2021-12-27 16:02:53.905761,95
2021-12-27 16:02:53.905771,93
2021-12-27 16:02:53.905781,93
2021-12-27 16:02:53.905791,93
2021-12-27 16:02:53.905801,91
2021-12-27 16:02:53.905811,86
2021-12-27 16:02:53.905821,88
2021-12-27 16:02:53.905831,98
2021-12-27 16:02:53.905841,100
2021-12-27 16:02:53.905850,98
2021-12-27 16:02:53.905860,91
2021-12-27 16:02:53.905870,91
2021-12-27 16:02:53.905880,95
2021-12-27 16:02:53.905890,102
2021-12-27 16:02:53.905899,107
2021-12-27 16:02:53.905909,107
2021-12-27 16:02:53.905919,102
2021-12-27 16:02:53.905929,100
2021-12-27 16:02:53.905939,107
2021-12-27 16:02:53.905949,114
2021-12-27 16:02:54.148267,119
2021-12-27 16:02:54.148298,119
2021-12-27 16:02:54.148310,119
2021-12-27 16:02:54.148321,114
2021-12-27 16:02:54.148331,88
2021-12-27 16:02:54.148341,70
2021-12-27 16:02:54.148350,74
2021-12-27 16:02:54.148360,81
2021-12-27 16:02:54.148370,98
2021-12-27 16:02:54.148380,116
2021-12-27 16:02:54.148390,114
2021-12-27 16:02:54.148400,107
2021-12-27 16:02:54.148410,114
2021-12-27 16:02:54.148419,119
2021-12-27 16:02:54.148429,109
2021-12-27 16:02:54.148439,100
2021-12-27 16:02:54.148449,100
2021-12-27 16:02:54.148459,109
2021-12-27 16:02:54.148469,137
2021-12-27 16:02:54.148478,184
2021-12-27 16:02:54.148488,158
2021-12-27 16:02:54.148498,-121
2021-12-27 16:02:54.148508,-698
2021-12-27 16:02:54.148518,-1179
2021-12-27 16:02:54.148528,-859
2021-12-27 16:02:54.148538,18
2021-12-27 16:02:54.148548,315
2021-12-27 16:02:54.148558,93
2021-12-27 16:02:54.148568,123
2021-12-27 16:02:54.148578,242
2021-12-27 16:02:54.343955,186
2021-12-27 16:02:54.343985,156
2021-12-27 16:02:54.343998,182
2021-12-27 16:02:54.344008,158
2021-12-27 16:02:54.344018,128
2021-12-27 16:02:54.344028,128
2021-12-27 16:02:54.344038,123
2021-12-27 16:02:54.344048,112
2021-12-27 16:02:54.344058,98
2021-12-27 16:02:54.344068,84
2021-12-27 16:02:54.344078,72
2021-12-27 16:02:54.344088,65
2021-12-27 16:02:54.344097,60
2021-12-27 16:02:54.344107,56
2021-12-27 16:02:54.344117,46
2021-12-27 16:02:54.344127,44
2021-12-27 16:02:54.344137,49
2021-12-27 16:02:54.344147,56
2021-12-27 16:02:54.344157,67
2021-12-27 16:02:54.344167,79
2021-12-27 16:02:54.344177,81
2021-12-27 16:02:54.344187,79
2021-12-27 16:02:54.344196,72
2021-12-27 16:02:54.344206,67
2021-12-27 16:02:54.344216,70
2021-12-27 16:02:54.344226,60
2021-12-27 16:02:54.344236,58
2021-12-27 16:02:54.344246,79
2021-12-27 16:02:54.344256,100
2021-12-27 16:02:54.344265,109
2021-12-27 16:02:54.588078,107
2021-12-27 16:02:54.588108,105
2021-12-27 16:02:54.588120,105
2021-12-27 16:02:54.588130,102
2021-12-27 16:02:54.588140,102
2021-12-27 16:02:54.588150,102
2021-12-27 16:02:54.588160,107
2021-12-27 16:02:54.588170,105
2021-12-27 16:02:54.588180,95
2021-12-27 16:02:54.588190,95
2021-12-27 16:02:54.588200,105
2021-12-27 16:02:54.588210,107
2021-12-27 16:02:54.588219,93
2021-12-27 16:02:54.588229,93
2021-12-27 16:02:54.588239,105
2021-12-27 16:02:54.588249,105
2021-12-27 16:02:54.588259,98
2021-12-27 16:02:54.588269,102
2021-12-27 16:02:54.588279,107
2021-12-27 16:02:54.588289,105
2021-12-27 16:02:54.588299,105
2021-12-27 16:02:54.588309,114
2021-12-27 16:02:54.588319,119
2021-12-27 16:02:54.588328,102
2021-12-27 16:02:54.588338,79
2021-12-27 16:02:54.588348,67
2021-12-27 16:02:54.588358,70
2021-12-27 16:02:54.588368,84
2021-12-27 16:02:54.588378,100
2021-12-27 16:02:54.588388,114
2021-12-27 16:02:54.782805,116
2021-12-27 16:02:54.782836,112
2021-12-27 16:02:54.782848,107
2021-12-27 16:02:54.782858,105
2021-12-27 16:02:54.782868,109
2021-12-27 16:02:54.782878,116
2021-12-27 16:02:54.782888,112
2021-12-27 16:02:54.782898,112
2021-12-27 16:02:54.782908,151
2021-12-27 16:02:54.782918,198
2021-12-27 16:02:54.782928,100
2021-12-27 16:02:54.782938,-291
2021-12-27 16:02:54.782948,-906
2021-12-27 16:02:54.782958,-1184
2021-12-27 16:02:54.782968,-581
2021-12-27 16:02:54.782978,191
2021-12-27 16:02:54.782988,228
2021-12-27 16:02:54.782998,58
2021-12-27 16:02:54.783008,175
2021-12-27 16:02:54.783018,233
2021-12-27 16:02:54.783028,161
2021-12-27 16:02:54.783038,156
2021-12-27 16:02:54.783048,179
2021-12-27 16:02:54.783058,151
2021-12-27 16:02:54.783068,133
2021-12-27 16:02:54.783078,133
2021-12-27 16:02:54.783088,123
2021-12-27 16:02:54.783097,105
2021-12-27 16:02:54.783107,93
2021-12-27 16:02:54.783117,88
2021-12-27 16:02:55.025503,81
2021-12-27 16:02:55.025526,74
2021-12-27 16:02:55.025534,72
2021-12-27 16:02:55.025541,67
2021-12-27 16:02:55.025547,58
2021-12-27 16:02:55.025554,60
2021-12-27 16:02:55.025560,65
2021-12-27 16:02:55.025599,74
2021-12-27 16:02:55.025605,79
2021-12-27 16:02:55.025612,74
2021-12-27 16:02:55.025618,72
2021-12-27 16:02:55.025625,65
2021-12-27 16:02:55.025631,53
2021-12-27 16:02:55.025637,53
2021-12-27 16:02:55.025644,60
2021-12-27 16:02:55.025650,65
2021-12-27 16:02:55.025656,74
2021-12-27 16:02:55.025663,93
2021-12-27 16:02:55.025669,102
2021-12-27 16:02:55.025675,105
2021-12-27 16:02:55.025682,107
2021-12-27 16:02:55.025688,107
2021-12-27 16:02:55.025695,109
2021-12-27 16:02:55.025701,112
2021-12-27 16:02:55.025707,105
2021-12-27 16:02:55.025714,100
2021-12-27 16:02:55.025720,102
2021-12-27 16:02:55.025727,105
2021-12-27 16:02:55.025733,105
2021-12-27 16:02:55.025739,105
2021-12-27 16:02:55.221116,105
2021-12-27 16:02:55.221137,107
2021-12-27 16:02:55.221144,109
2021-12-27 16:02:55.221151,112
2021-12-27 16:02:55.221158,109
2021-12-27 16:02:55.221164,109
2021-12-27 16:02:55.221170,112
2021-12-27 16:02:55.221177,116
2021-12-27 16:02:55.221236,121
2021-12-27 16:02:55.221244,121
2021-12-27 16:02:55.221250,114
2021-12-27 16:02:55.221257,98
2021-12-27 16:02:55.221263,70
2021-12-27 16:02:55.221270,56
2021-12-27 16:02:55.221276,67
2021-12-27 16:02:55.221283,84
2021-12-27 16:02:55.221289,93
2021-12-27 16:02:55.221296,105
2021-12-27 16:02:55.221302,109
2021-12-27 16:02:55.221309,112
2021-12-27 16:02:55.221315,112
2021-12-27 16:02:55.221322,112
2021-12-27 16:02:55.221328,112
2021-12-27 16:02:55.221335,112
2021-12-27 16:02:55.221341,109
2021-12-27 16:02:55.221348,116
2021-12-27 16:02:55.221354,158
2021-12-27 16:02:55.221361,207
2021-12-27 16:02:55.221367,119
2021-12-27 16:02:55.221374,-268
2021-12-27 16:02:55.465342,-892
2021-12-27 16:02:55.465372,-1186
2021-12-27 16:02:55.465384,-595
2021-12-27 16:02:55.465394,189
2021-12-27 16:02:55.465404,245
2021-12-27 16:02:55.465414,74
2021-12-27 16:02:55.465423,186
2021-12-27 16:02:55.465433,240
2021-12-27 16:02:55.465443,172
2021-12-27 16:02:55.465452,172
2021-12-27 16:02:55.465462,186
2021-12-27 16:02:55.465472,156
2021-12-27 16:02:55.465482,137
2021-12-27 16:02:55.465491,133
2021-12-27 16:02:55.465501,114
2021-12-27 16:02:55.465511,95
2021-12-27 16:02:55.465520,88
2021-12-27 16:02:55.465530,84
2021-12-27 16:02:55.465540,77
2021-12-27 16:02:55.465549,65
2021-12-27 16:02:55.465559,58
2021-12-27 16:02:55.465569,56
2021-12-27 16:02:55.465578,58
2021-12-27 16:02:55.465588,63
2021-12-27 16:02:55.465598,67
2021-12-27 16:02:55.465607,72
2021-12-27 16:02:55.465617,77
2021-12-27 16:02:55.465627,81
2021-12-27 16:02:55.465636,88
2021-12-27 16:02:55.465646,88
2021-12-27 16:02:55.659655,79
2021-12-27 16:02:55.659675,67
2021-12-27 16:02:55.659683,65
2021-12-27 16:02:55.659690,72
2021-12-27 16:02:55.659696,81
2021-12-27 16:02:55.659703,88
2021-12-27 16:02:55.659709,100
2021-12-27 16:02:55.659716,105
2021-12-27 16:02:55.659722,100
2021-12-27 16:02:55.659728,95
2021-12-27 16:02:55.659735,95
2021-12-27 16:02:55.659741,93
2021-12-27 16:02:55.659747,88
2021-12-27 16:02:55.659754,88
2021-12-27 16:02:55.659760,86
2021-12-27 16:02:55.659767,79
2021-12-27 16:02:55.659773,77
2021-12-27 16:02:55.659780,77
2021-12-27 16:02:55.659786,72
2021-12-27 16:02:55.659793,72
2021-12-27 16:02:55.659799,74
2021-12-27 16:02:55.659806,74
2021-12-27 16:02:55.659812,77
2021-12-27 16:02:55.659818,79
2021-12-27 16:02:55.659825,79
2021-12-27 16:02:55.659831,81
2021-12-27 16:02:55.659838,91
2021-12-27 16:02:55.659844,100
2021-12-27 16:02:55.659851,88
2021-12-27 16:02:55.659857,67
2021-12-27 16:02:55.904055,58
2021-12-27 16:02:55.904087,65
2021-12-27 16:02:55.904098,72
2021-12-27 16:02:55.904108,77
2021-12-27 16:02:55.904118,86
2021-12-27 16:02:55.904128,95
2021-12-27 16:02:55.904138,98
2021-12-27 16:02:55.904148,95
2021-12-27 16:02:55.904157,95
2021-12-27 16:02:55.904167,93
2021-12-27 16:02:55.904177,86
2021-12-27 16:02:55.904187,86
2021-12-27 16:02:55.904197,95
2021-12-27 16:02:55.904207,130
2021-12-27 16:02:55.904217,193
2021-12-27 16:02:55.904226,163
2021-12-27 16:02:55.904236,-168
2021-12-27 16:02:55.904246,-824
2021-12-27 16:02:55.904256,-1310
2021-12-27 16:02:55.904266,-868
2021-12-27 16:02:55.904276,91
2021-12-27 16:02:55.904285,338
2021-12-27 16:02:55.904295,84
2021-12-27 16:02:55.904305,140
2021-12-27 16:02:55.904315,252
2021-12-27 16:02:55.904325,179
2021-12-27 16:02:55.904335,156
2021-12-27 16:02:55.904344,182
2021-12-27 16:02:55.904354,154
2021-12-27 16:02:55.904364,135
2021-12-27 16:02:56.148133,144
2021-12-27 16:02:56.148154,130
2021-12-27 16:02:56.148162,109
2021-12-27 16:02:56.148169,100
2021-12-27 16:02:56.148175,91
2021-12-27 16:02:56.148182,77
2021-12-27 16:02:56.148188,70
2021-12-27 16:02:56.148194,65
2021-12-27 16:02:56.148201,60
2021-12-27 16:02:56.148207,60
2021-12-27 16:02:56.148214,56
2021-12-27 16:02:56.148220,53
2021-12-27 16:02:56.148227,58
2021-12-27 16:02:56.148233,70
2021-12-27 16:02:56.148240,79
2021-12-27 16:02:56.148246,84
2021-12-27 16:02:56.148252,86
2021-12-27 16:02:56.148259,81
2021-12-27 16:02:56.148265,72
2021-12-27 16:02:56.148271,74
2021-12-27 16:02:56.148278,79
2021-12-27 16:02:56.148284,79
2021-12-27 16:02:56.148291,91
2021-12-27 16:02:56.148297,105
2021-12-27 16:02:56.148304,107
2021-12-27 16:02:56.148310,105
2021-12-27 16:02:56.148316,105
2021-12-27 16:02:56.148323,107
2021-12-27 16:02:56.148329,107
2021-12-27 16:02:56.148336,105
2021-12-27 16:02:56.440315,93
2021-12-27 16:02:56.440345,86
2021-12-27 16:02:56.440357,86
2021-12-27 16:02:56.440367,86
2021-12-27 16:02:56.440377,81
2021-12-27 16:02:56.440387,77
2021-12-27 16:02:56.440397,79
2021-12-27 16:02:56.440406,81
2021-12-27 16:02:56.440416,81
2021-12-27 16:02:56.440426,81
2021-12-27 16:02:56.440436,86
2021-12-27 16:02:56.440446,93
2021-12-27 16:02:56.440456,95
2021-12-27 16:02:56.440466,84
2021-12-27 16:02:56.440475,70
2021-12-27 16:02:56.440485,65
2021-12-27 16:02:56.440495,65
2021-12-27 16:02:56.440505,72
2021-12-27 16:02:56.440515,81
2021-12-27 16:02:56.440524,88
2021-12-27 16:02:56.440534,93
2021-12-27 16:02:56.440544,100
