Time,ECG
2021-12-27 15:27:13.987688,37
2021-12-27 15:27:13.987710,39
2021-12-27 15:27:13.987717,39
2021-12-27 15:27:13.987722,39
2021-12-27 15:27:13.987728,39
2021-12-27 15:27:13.987733,42
2021-12-27 15:27:13.987738,44
2021-12-27 15:27:13.987743,42
2021-12-27 15:27:13.987749,21
2021-12-27 15:27:13.987754,-2
2021-12-27 15:27:13.987760,0
2021-12-27 15:27:13.987765,11
2021-12-27 15:27:13.987770,11
2021-12-27 15:27:13.987775,16
2021-12-27 15:27:13.987780,28
2021-12-27 15:27:13.987785,28
2021-12-27 15:27:13.987790,21
2021-12-27 15:27:13.987796,23
2021-12-27 15:27:13.987801,23
2021-12-27 15:27:13.987806,21
2021-12-27 15:27:13.987811,18
2021-12-27 15:27:13.987816,16
2021-12-27 15:27:13.987821,18
2021-12-27 15:27:13.987826,44
2021-12-27 15:27:13.987831,98
2021-12-27 15:27:13.987836,84
2021-12-27 15:27:13.987842,-184
2021-12-27 15:27:13.987847,-747
2021-12-27 15:27:13.987852,-1207
2021-12-27 15:27:13.987857,-847
2021-12-27 15:27:14.131205,67
2021-12-27 15:27:14.131226,324
2021-12-27 15:27:14.131233,23
2021-12-27 15:27:14.131240,44
2021-12-27 15:27:14.131246,182
2021-12-27 15:27:14.131253,102
2021-12-27 15:27:14.131260,63
2021-12-27 15:27:14.131267,95
2021-12-27 15:27:14.131273,72
2021-12-27 15:27:14.131280,42
2021-12-27 15:27:14.131286,42
2021-12-27 15:27:14.131293,25
2021-12-27 15:27:14.131299,9
2021-12-27 15:27:14.131305,7
2021-12-27 15:27:14.131312,2
2021-12-27 15:27:14.131318,-9
2021-12-27 15:27:14.131325,-18
2021-12-27 15:27:14.131332,-25
2021-12-27 15:27:14.131338,-32
2021-12-27 15:27:14.131345,-39
2021-12-27 15:27:14.131351,-44
2021-12-27 15:27:14.131357,-49
2021-12-27 15:27:14.131364,-53
2021-12-27 15:27:14.131370,-51
2021-12-27 15:27:14.131377,-46
2021-12-27 15:27:14.131383,-42
2021-12-27 15:27:14.131390,-37
2021-12-27 15:27:14.131396,-32
2021-12-27 15:27:14.131402,-25
2021-12-27 15:27:14.131411,-18
2021-12-27 15:27:14.423592,-9
2021-12-27 15:27:14.423622,4
2021-12-27 15:27:14.423633,21
2021-12-27 15:27:14.423643,35
2021-12-27 15:27:14.423653,44
2021-12-27 15:27:14.423663,56
2021-12-27 15:27:14.423673,63
2021-12-27 15:27:14.423683,63
2021-12-27 15:27:14.423693,56
2021-12-27 15:27:14.423703,49
2021-12-27 15:27:14.423713,49
2021-12-27 15:27:14.423722,49
2021-12-27 15:27:14.423732,44
2021-12-27 15:27:14.423749,35
2021-12-27 15:27:14.423759,30
2021-12-27 15:27:14.423769,32
2021-12-27 15:27:14.423779,39
2021-12-27 15:27:14.423788,37
2021-12-27 15:27:14.423798,32
2021-12-27 15:27:14.423808,35
2021-12-27 15:27:14.423817,37
2021-12-27 15:27:14.423827,35
2021-12-27 15:27:14.423837,37
2021-12-27 15:27:14.423847,39
2021-12-27 15:27:14.423857,44
2021-12-27 15:27:14.423866,49
2021-12-27 15:27:14.423876,49
2021-12-27 15:27:14.423886,44
2021-12-27 15:27:14.423896,42
2021-12-27 15:27:14.423908,46
2021-12-27 15:27:14.667657,51
2021-12-27 15:27:14.667687,46
2021-12-27 15:27:14.667699,44
2021-12-27 15:27:14.667709,49
2021-12-27 15:27:14.667719,46
2021-12-27 15:27:14.667729,30
2021-12-27 15:27:14.667739,16
2021-12-27 15:27:14.667748,7
2021-12-27 15:27:14.667758,2
2021-12-27 15:27:14.667768,14
2021-12-27 15:27:14.667777,21
2021-12-27 15:27:14.667787,23
2021-12-27 15:27:14.667797,28
2021-12-27 15:27:14.667806,35
2021-12-27 15:27:14.667816,35
2021-12-27 15:27:14.667826,35
2021-12-27 15:27:14.667835,30
2021-12-27 15:27:14.667850,23
2021-12-27 15:27:14.667860,23
2021-12-27 15:27:14.667870,23
2021-12-27 15:27:14.667880,16
2021-12-27 15:27:14.667890,28
2021-12-27 15:27:14.667899,79
2021-12-27 15:27:14.667925,86
2021-12-27 15:27:14.667935,-142
2021-12-27 15:27:14.667945,-684
2021-12-27 15:27:14.667955,-1144
2021-12-27 15:27:14.667964,-791
2021-12-27 15:27:14.667974,114
2021-12-27 15:27:14.667984,359
2021-12-27 15:27:14.958806,25
2021-12-27 15:27:14.958836,37
2021-12-27 15:27:14.958848,170
2021-12-27 15:27:14.958858,72
2021-12-27 15:27:14.958868,35
2021-12-27 15:27:14.958877,95
2021-12-27 15:27:14.958887,72
2021-12-27 15:27:14.958906,30
2021-12-27 15:27:14.958916,37
2021-12-27 15:27:14.958925,28
2021-12-27 15:27:14.958935,0
2021-12-27 15:27:14.958945,-9
2021-12-27 15:27:14.958955,-11
2021-12-27 15:27:14.958965,-21
2021-12-27 15:27:14.958974,-25
2021-12-27 15:27:14.958984,-30
2021-12-27 15:27:14.958994,-44
2021-12-27 15:27:14.959004,-56
2021-12-27 15:27:14.959013,-56
2021-12-27 15:27:14.959023,-53
2021-12-27 15:27:14.959033,-58
2021-12-27 15:27:14.959042,-67
2021-12-27 15:27:14.959052,-67
2021-12-27 15:27:14.959062,-58
2021-12-27 15:27:14.959071,-49
2021-12-27 15:27:14.959081,-46
2021-12-27 15:27:14.959091,-39
2021-12-27 15:27:14.959101,-25
2021-12-27 15:27:14.959111,-14
2021-12-27 15:27:14.959121,0
2021-12-27 15:27:15.056635,16
2021-12-27 15:27:15.056668,32
2021-12-27 15:27:15.056678,46
2021-12-27 15:27:15.056685,60
2021-12-27 15:27:15.056693,70
2021-12-27 15:27:15.056701,67
2021-12-27 15:27:15.056709,60
2021-12-27 15:27:15.056715,60
2021-12-27 15:27:15.056724,60
2021-12-27 15:27:15.056732,58
2021-12-27 15:27:15.056741,56
2021-12-27 15:27:15.056749,51
2021-12-27 15:27:15.056757,44
2021-12-27 15:27:15.056766,37
2021-12-27 15:27:15.056774,32
2021-12-27 15:27:15.056783,35
2021-12-27 15:27:15.056791,35
2021-12-27 15:27:15.056800,37
2021-12-27 15:27:15.056808,37
2021-12-27 15:27:15.056817,35
2021-12-27 15:27:15.056826,37
2021-12-27 15:27:15.056834,42
2021-12-27 15:27:15.056843,42
2021-12-27 15:27:15.056851,39
2021-12-27 15:27:15.056865,37
2021-12-27 15:27:15.056873,30
2021-12-27 15:27:15.056882,30
2021-12-27 15:27:15.056890,32
2021-12-27 15:27:15.056899,32
2021-12-27 15:27:15.056908,35
2021-12-27 15:27:15.397541,30
2021-12-27 15:27:15.397563,25
2021-12-27 15:27:15.397570,21
2021-12-27 15:27:15.397577,2
2021-12-27 15:27:15.397583,-9
2021-12-27 15:27:15.397590,-2
2021-12-27 15:27:15.397597,9
2021-12-27 15:27:15.397603,9
2021-12-27 15:27:15.397610,11
2021-12-27 15:27:15.397616,16
2021-12-27 15:27:15.397623,18
2021-12-27 15:27:15.397629,14
2021-12-27 15:27:15.397636,7
2021-12-27 15:27:15.397642,4
2021-12-27 15:27:15.397649,7
2021-12-27 15:27:15.397655,14
2021-12-27 15:27:15.397662,11
2021-12-27 15:27:15.397668,18
2021-12-27 15:27:15.397675,72
2021-12-27 15:27:15.397681,109
2021-12-27 15:27:15.397689,-30
2021-12-27 15:27:15.397695,-504
2021-12-27 15:27:15.397708,-1156
2021-12-27 15:27:15.397715,-1277
2021-12-27 15:27:15.397721,-436
2021-12-27 15:27:15.397728,322
2021-12-27 15:27:15.397735,172
2021-12-27 15:27:15.397741,-32
2021-12-27 15:27:15.397748,135
2021-12-27 15:27:15.397754,158
2021-12-27 15:27:15.495651,60
2021-12-27 15:27:15.495671,74
2021-12-27 15:27:15.495679,84
2021-12-27 15:27:15.495686,37
2021-12-27 15:27:15.495693,28
2021-12-27 15:27:15.495699,30
2021-12-27 15:27:15.495706,16
2021-12-27 15:27:15.495712,11
2021-12-27 15:27:15.495719,9
2021-12-27 15:27:15.495725,-11
2021-12-27 15:27:15.495732,-23
2021-12-27 15:27:15.495738,-23
2021-12-27 15:27:15.495776,-32
2021-12-27 15:27:15.495782,-46
2021-12-27 15:27:15.495789,-49
2021-12-27 15:27:15.495795,-60
2021-12-27 15:27:15.495802,-72
2021-12-27 15:27:15.495808,-65
2021-12-27 15:27:15.495814,-56
2021-12-27 15:27:15.495821,-53
2021-12-27 15:27:15.495827,-51
2021-12-27 15:27:15.495833,-49
2021-12-27 15:27:15.495840,-44
2021-12-27 15:27:15.495846,-35
2021-12-27 15:27:15.495856,-25
2021-12-27 15:27:15.495863,-14
2021-12-27 15:27:15.495869,0
2021-12-27 15:27:15.495876,9
2021-12-27 15:27:15.495882,14
2021-12-27 15:27:15.495888,28
2021-12-27 15:27:15.740164,39
2021-12-27 15:27:15.740194,44
2021-12-27 15:27:15.740206,44
2021-12-27 15:27:15.740216,35
2021-12-27 15:27:15.740226,21
2021-12-27 15:27:15.740236,21
2021-12-27 15:27:15.740245,23
2021-12-27 15:27:15.740255,18
2021-12-27 15:27:15.740265,18
2021-12-27 15:27:15.740275,21
2021-12-27 15:27:15.740285,21
2021-12-27 15:27:15.740294,23
2021-12-27 15:27:15.740304,23
2021-12-27 15:27:15.740314,21
2021-12-27 15:27:15.740324,23
2021-12-27 15:27:15.740333,28
2021-12-27 15:27:15.740343,21
2021-12-27 15:27:15.740353,16
2021-12-27 15:27:15.740363,21
2021-12-27 15:27:15.740372,28
2021-12-27 15:27:15.740382,30
2021-12-27 15:27:15.740392,35
2021-12-27 15:27:15.740402,35
2021-12-27 15:27:15.740412,37
2021-12-27 15:27:15.740421,37
2021-12-27 15:27:15.740431,37
2021-12-27 15:27:15.740441,32
2021-12-27 15:27:15.740450,16
2021-12-27 15:27:15.740460,2
2021-12-27 15:27:15.740470,2
2021-12-27 15:27:15.983985,9
2021-12-27 15:27:15.984015,14
2021-12-27 15:27:15.984027,23
2021-12-27 15:27:15.984037,32
2021-12-27 15:27:15.984047,32
2021-12-27 15:27:15.984057,28
2021-12-27 15:27:15.984067,25
2021-12-27 15:27:15.984077,30
2021-12-27 15:27:15.984087,32
2021-12-27 15:27:15.984096,28
2021-12-27 15:27:15.984106,23
2021-12-27 15:27:15.984116,30
2021-12-27 15:27:15.984126,58
2021-12-27 15:27:15.984136,112
2021-12-27 15:27:15.984145,84
2021-12-27 15:27:15.984155,-228
2021-12-27 15:27:15.984165,-866
2021-12-27 15:27:15.984175,-1345
2021-12-27 15:27:15.984185,-887
2021-12-27 15:27:15.984195,114
2021-12-27 15:27:15.984205,345
2021-12-27 15:27:15.984214,23
2021-12-27 15:27:15.984224,70
2021-12-27 15:27:15.984234,205
2021-12-27 15:27:15.984244,112
2021-12-27 15:27:15.984253,72
2021-12-27 15:27:15.984263,105
2021-12-27 15:27:15.984273,74
2021-12-27 15:27:15.984282,46
2021-12-27 15:27:15.984292,56
2021-12-27 15:27:16.227573,49
2021-12-27 15:27:16.227602,28
2021-12-27 15:27:16.227614,23
2021-12-27 15:27:16.227624,11
2021-12-27 15:27:16.227634,-4
2021-12-27 15:27:16.227644,-4
2021-12-27 15:27:16.227653,-9
2021-12-27 15:27:16.227663,-21
2021-12-27 15:27:16.227673,-30
2021-12-27 15:27:16.227683,-37
2021-12-27 15:27:16.227700,-39
2021-12-27 15:27:16.227711,-39
2021-12-27 15:27:16.227720,-39
2021-12-27 15:27:16.227730,-39
2021-12-27 15:27:16.227740,-32
2021-12-27 15:27:16.227750,-28
2021-12-27 15:27:16.227759,-28
2021-12-27 15:27:16.227769,-14
2021-12-27 15:27:16.227779,4
2021-12-27 15:27:16.227789,16
2021-12-27 15:27:16.227798,28
2021-12-27 15:27:16.227808,39
2021-12-27 15:27:16.227818,49
2021-12-27 15:27:16.227828,51
2021-12-27 15:27:16.227837,60
2021-12-27 15:27:16.227847,70
2021-12-27 15:27:16.227857,72
2021-12-27 15:27:16.227866,65
2021-12-27 15:27:16.227876,56
2021-12-27 15:27:16.227886,53
2021-12-27 15:27:16.470633,58
2021-12-27 15:27:16.470663,53
2021-12-27 15:27:16.470674,49
2021-12-27 15:27:16.470684,49
2021-12-27 15:27:16.470694,53
2021-12-27 15:27:16.470704,56
2021-12-27 15:27:16.470714,56
2021-12-27 15:27:16.470723,58
2021-12-27 15:27:16.470733,60
2021-12-27 15:27:16.470743,56
2021-12-27 15:27:16.470753,51
2021-12-27 15:27:16.470762,58
2021-12-27 15:27:16.470772,67
2021-12-27 15:27:16.470782,67
2021-12-27 15:27:16.470791,65
2021-12-27 15:27:16.470801,65
2021-12-27 15:27:16.470811,65
2021-12-27 15:27:16.470820,63
2021-12-27 15:27:16.470830,60
2021-12-27 15:27:16.470839,63
2021-12-27 15:27:16.470849,67
2021-12-27 15:27:16.470859,67
2021-12-27 15:27:16.470868,58
2021-12-27 15:27:16.470878,53
2021-12-27 15:27:16.470887,49
2021-12-27 15:27:16.470903,39
2021-12-27 15:27:16.470913,42
2021-12-27 15:27:16.470923,44
2021-12-27 15:27:16.470933,42
2021-12-27 15:27:16.470942,51
2021-12-27 15:27:16.714622,60
2021-12-27 15:27:16.714651,56
2021-12-27 15:27:16.714663,56
2021-12-27 15:27:16.714673,56
2021-12-27 15:27:16.714683,49
2021-12-27 15:27:16.714693,46
2021-12-27 15:27:16.714703,46
2021-12-27 15:27:16.714712,42
2021-12-27 15:27:16.714722,56
2021-12-27 15:27:16.714732,102
2021-12-27 15:27:16.714742,144
2021-12-27 15:27:16.714751,35
2021-12-27 15:27:16.714761,-376
2021-12-27 15:27:16.714771,-997
2021-12-27 15:27:16.714781,-1221
2021-12-27 15:27:16.714791,-516
2021-12-27 15:27:16.714801,294
2021-12-27 15:27:16.714811,233
2021-12-27 15:27:16.714821,-14
2021-12-27 15:27:16.714830,130
2021-12-27 15:27:16.714840,193
2021-12-27 15:27:16.714850,93
2021-12-27 15:27:16.714860,91
2021-12-27 15:27:16.714870,112
2021-12-27 15:27:16.714880,67
2021-12-27 15:27:16.714889,51
2021-12-27 15:27:16.714899,51
2021-12-27 15:27:16.714909,28
2021-12-27 15:27:16.714919,14
2021-12-27 15:27:16.714928,16
2021-12-27 15:27:16.957414,7
2021-12-27 15:27:16.957445,-11
2021-12-27 15:27:16.957456,-23
2021-12-27 15:27:16.957466,-35
2021-12-27 15:27:16.957476,-56
2021-12-27 15:27:16.957486,-77
2021-12-27 15:27:16.957495,-77
2021-12-27 15:27:16.957505,-67
2021-12-27 15:27:16.957515,-74
2021-12-27 15:27:16.957524,-77
2021-12-27 15:27:16.957534,-65
2021-12-27 15:27:16.957544,-65
2021-12-27 15:27:16.957553,-60
2021-12-27 15:27:16.957563,-42
2021-12-27 15:27:16.957572,-32
2021-12-27 15:27:16.957582,-28
2021-12-27 15:27:16.957597,-14
2021-12-27 15:27:16.957607,-2
2021-12-27 15:27:16.957616,18
2021-12-27 15:27:16.957626,44
2021-12-27 15:27:16.957636,63
2021-12-27 15:27:16.957645,63
2021-12-27 15:27:16.957655,63
2021-12-27 15:27:16.957665,67
2021-12-27 15:27:16.957674,60
2021-12-27 15:27:16.957684,53
2021-12-27 15:27:16.957693,58
2021-12-27 15:27:16.957703,60
2021-12-27 15:27:16.957713,53
2021-12-27 15:27:16.957722,53
2021-12-27 15:27:17.153781,58
2021-12-27 15:27:17.153811,56
2021-12-27 15:27:17.153822,49
2021-12-27 15:27:17.153832,49
2021-12-27 15:27:17.153842,49
2021-12-27 15:27:17.153852,46
2021-12-27 15:27:17.153862,49
2021-12-27 15:27:17.153872,46
2021-12-27 15:27:17.153882,44
2021-12-27 15:27:17.153891,53
2021-12-27 15:27:17.153902,60
2021-12-27 15:27:17.153912,56
2021-12-27 15:27:17.153921,53
2021-12-27 15:27:17.153931,63
2021-12-27 15:27:17.153941,70
2021-12-27 15:27:17.153951,60
2021-12-27 15:27:17.153961,58
2021-12-27 15:27:17.153971,63
2021-12-27 15:27:17.153981,60
2021-12-27 15:27:17.153991,49
2021-12-27 15:27:17.154000,32
2021-12-27 15:27:17.154010,32
2021-12-27 15:27:17.154020,49
2021-12-27 15:27:17.154030,56
2021-12-27 15:27:17.154040,65
2021-12-27 15:27:17.154050,77
2021-12-27 15:27:17.154060,77
2021-12-27 15:27:17.154069,67
2021-12-27 15:27:17.154079,65
2021-12-27 15:27:17.154089,65
2021-12-27 15:27:17.348260,67
2021-12-27 15:27:17.348280,70
2021-12-27 15:27:17.348288,67
2021-12-27 15:27:17.348294,67
2021-12-27 15:27:17.348301,93
2021-12-27 15:27:17.348307,137
2021-12-27 15:27:17.348314,88
2021-12-27 15:27:17.348320,-233
2021-12-27 15:27:17.348327,-826
2021-12-27 15:27:17.348333,-1216
2021-12-27 15:27:17.348340,-747
2021-12-27 15:27:17.348346,140
2021-12-27 15:27:17.348353,322
2021-12-27 15:27:17.348363,63
2021-12-27 15:27:17.348370,112
2021-12-27 15:27:17.348376,212
2021-12-27 15:27:17.348383,123
2021-12-27 15:27:17.348389,84
2021-12-27 15:27:17.348396,114
2021-12-27 15:27:17.348402,88
2021-12-27 15:27:17.348409,56
2021-12-27 15:27:17.348415,65
2021-12-27 15:27:17.348422,65
2021-12-27 15:27:17.348428,39
2021-12-27 15:27:17.348435,21
2021-12-27 15:27:17.348441,14
2021-12-27 15:27:17.348448,4
2021-12-27 15:27:17.348454,-7
2021-12-27 15:27:17.348460,-21
2021-12-27 15:27:17.348467,-32
2021-12-27 15:27:17.592851,-44
2021-12-27 15:27:17.592880,-46
2021-12-27 15:27:17.592891,-37
2021-12-27 15:27:17.592901,-44
2021-12-27 15:27:17.592911,-58
2021-12-27 15:27:17.592921,-56
2021-12-27 15:27:17.592931,-42
2021-12-27 15:27:17.592941,-35
2021-12-27 15:27:17.592951,-39
2021-12-27 15:27:17.592961,-44
2021-12-27 15:27:17.592970,-35
2021-12-27 15:27:17.592980,-23
2021-12-27 15:27:17.592990,-11
2021-12-27 15:27:17.592999,9
2021-12-27 15:27:17.593009,25
2021-12-27 15:27:17.593019,28
2021-12-27 15:27:17.593029,30
2021-12-27 15:27:17.593039,32
2021-12-27 15:27:17.593048,35
2021-12-27 15:27:17.593058,35
2021-12-27 15:27:17.593068,32
2021-12-27 15:27:17.593078,30
2021-12-27 15:27:17.593088,28
2021-12-27 15:27:17.593097,25
2021-12-27 15:27:17.593107,23
2021-12-27 15:27:17.593117,28
2021-12-27 15:27:17.593127,32
2021-12-27 15:27:17.593137,30
2021-12-27 15:27:17.593147,30
2021-12-27 15:27:17.593157,35
2021-12-27 15:27:17.836607,35
2021-12-27 15:27:17.836636,37
2021-12-27 15:27:17.836648,44
2021-12-27 15:27:17.836658,46
2021-12-27 15:27:17.836667,44
2021-12-27 15:27:17.836677,46
2021-12-27 15:27:17.836687,44
2021-12-27 15:27:17.836697,39
2021-12-27 15:27:17.836707,39
2021-12-27 15:27:17.836717,35
2021-12-27 15:27:17.836727,25
2021-12-27 15:27:17.836737,21
2021-12-27 15:27:17.836746,23
2021-12-27 15:27:17.836756,23
2021-12-27 15:27:17.836766,18
2021-12-27 15:27:17.836776,7
2021-12-27 15:27:17.836786,-11
2021-12-27 15:27:17.836806,-21
2021-12-27 15:27:17.836816,-9
2021-12-27 15:27:17.836826,0
2021-12-27 15:27:17.836836,0
2021-12-27 15:27:17.836845,7
2021-12-27 15:27:17.836855,11
2021-12-27 15:27:17.836865,11
2021-12-27 15:27:17.836875,14
2021-12-27 15:27:17.836885,11
2021-12-27 15:27:17.836894,2
2021-12-27 15:27:17.836904,2
2021-12-27 15:27:17.836914,2
2021-12-27 15:27:17.836924,0
2021-12-27 15:27:18.079679,11
2021-12-27 15:27:18.079701,58
2021-12-27 15:27:18.079709,79
2021-12-27 15:27:18.079716,-91
2021-12-27 15:27:18.079722,-565
2021-12-27 15:27:18.079729,-1118
2021-12-27 15:27:18.079735,-1060
2021-12-27 15:27:18.079742,-219
2021-12-27 15:27:18.079748,315
2021-12-27 15:27:18.079755,88
2021-12-27 15:27:18.079761,-21
2021-12-27 15:27:18.079767,135
2021-12-27 15:27:18.079773,114
2021-12-27 15:27:18.079780,39
2021-12-27 15:27:18.079786,58
2021-12-27 15:27:18.079793,51
2021-12-27 15:27:18.079799,16
2021-12-27 15:27:18.079806,9
2021-12-27 15:27:18.079812,4
2021-12-27 15:27:18.079818,-7
2021-12-27 15:27:18.079825,-14
2021-12-27 15:27:18.079831,-25
2021-12-27 15:27:18.079838,-37
2021-12-27 15:27:18.079844,-44
2021-12-27 15:27:18.079850,-49
2021-12-27 15:27:18.079857,-56
2021-12-27 15:27:18.079863,-65
2021-12-27 15:27:18.079870,-72
2021-12-27 15:27:18.079876,-77
2021-12-27 15:27:18.079882,-79
2021-12-27 15:27:18.275365,-84
2021-12-27 15:27:18.275395,-81
2021-12-27 15:27:18.275406,-77
2021-12-27 15:27:18.275417,-74
2021-12-27 15:27:18.275426,-70
2021-12-27 15:27:18.275436,-56
2021-12-27 15:27:18.275446,-44
2021-12-27 15:27:18.275456,-37
2021-12-27 15:27:18.275465,-11
2021-12-27 15:27:18.275475,14
2021-12-27 15:27:18.275485,18
2021-12-27 15:27:18.275495,23
2021-12-27 15:27:18.275505,42
2021-12-27 15:27:18.275514,49
2021-12-27 15:27:18.275524,37
2021-12-27 15:27:18.275534,25
2021-12-27 15:27:18.275544,23
2021-12-27 15:27:18.275554,28
2021-12-27 15:27:18.275564,23
2021-12-27 15:27:18.275574,9
2021-12-27 15:27:18.275584,7
2021-12-27 15:27:18.275593,11
2021-12-27 15:27:18.275603,7
2021-12-27 15:27:18.275613,0
2021-12-27 15:27:18.275623,-2
2021-12-27 15:27:18.275633,2
2021-12-27 15:27:18.275642,14
2021-12-27 15:27:18.275652,18
2021-12-27 15:27:18.275662,7
2021-12-27 15:27:18.275681,2
2021-12-27 15:27:18.664333,2
2021-12-27 15:27:18.664350,11
2021-12-27 15:27:18.664356,25
2021-12-27 15:27:18.664362,21
2021-12-27 15:27:18.664367,7
2021-12-27 15:27:18.664372,9
2021-12-27 15:27:18.664377,21
2021-12-27 15:27:18.664382,14
2021-12-27 15:27:18.664387,11
2021-12-27 15:27:18.664392,14
2021-12-27 15:27:18.664397,-21
2021-12-27 15:27:18.664402,-42
2021-12-27 15:27:18.664407,-7
2021-12-27 15:27:18.664412,14
2021-12-27 15:27:18.664417,0
2021-12-27 15:27:18.664423,2
2021-12-27 15:27:18.664428,14
2021-12-27 15:27:18.664433,9
2021-12-27 15:27:18.664438,4
2021-12-27 15:27:18.664443,9
2021-12-27 15:27:18.664451,18
2021-12-27 15:27:18.664456,16
2021-12-27 15:27:18.664461,14
2021-12-27 15:27:18.664466,21
2021-12-27 15:27:18.664471,46
2021-12-27 15:27:18.664476,88
2021-12-27 15:27:18.664481,81
2021-12-27 15:27:18.664486,-147
2021-12-27 15:27:18.664491,-689
2021-12-27 15:27:18.664496,-1198
2021-12-27 15:27:18.762661,-936
2021-12-27 15:27:18.762681,-42
2021-12-27 15:27:18.762689,317
2021-12-27 15:27:18.762696,70
2021-12-27 15:27:18.762703,56
2021-12-27 15:27:18.762717,193
2021-12-27 15:27:18.762723,142
2021-12-27 15:27:18.762730,86
2021-12-27 15:27:18.762737,105
2021-12-27 15:27:18.762743,93
2021-12-27 15:27:18.762750,72
2021-12-27 15:27:18.762756,67
2021-12-27 15:27:18.762763,56
2021-12-27 15:27:18.762769,39
2021-12-27 15:27:18.762775,25
2021-12-27 15:27:18.762782,7
2021-12-27 15:27:18.762788,-4
2021-12-27 15:27:18.762795,-11
2021-12-27 15:27:18.762801,-23
2021-12-27 15:27:18.762807,-28
2021-12-27 15:27:18.762814,-30
2021-12-27 15:27:18.762820,-46
2021-12-27 15:27:18.762827,-58
2021-12-27 15:27:18.762833,-56
2021-12-27 15:27:18.762840,-53
2021-12-27 15:27:18.762846,-56
2021-12-27 15:27:18.762853,-56
2021-12-27 15:27:18.762859,-49
2021-12-27 15:27:18.762892,-39
2021-12-27 15:27:18.762913,-32
2021-12-27 15:27:19.004815,-23
2021-12-27 15:27:19.004835,-7
2021-12-27 15:27:19.004843,2
2021-12-27 15:27:19.004850,14
2021-12-27 15:27:19.004856,25
2021-12-27 15:27:19.004863,37
2021-12-27 15:27:19.004869,49
2021-12-27 15:27:19.004876,58
2021-12-27 15:27:19.004882,56
2021-12-27 15:27:19.004889,51
2021-12-27 15:27:19.004895,49
2021-12-27 15:27:19.004902,49
2021-12-27 15:27:19.004908,46
2021-12-27 15:27:19.004914,44
2021-12-27 15:27:19.004921,44
2021-12-27 15:27:19.004927,39
2021-12-27 15:27:19.004933,37
2021-12-27 15:27:19.004940,39
2021-12-27 15:27:19.004946,44
2021-12-27 15:27:19.004952,44
2021-12-27 15:27:19.004965,42
2021-12-27 15:27:19.004972,37
2021-12-27 15:27:19.004979,37
2021-12-27 15:27:19.004985,42
2021-12-27 15:27:19.004991,44
2021-12-27 15:27:19.004998,44
2021-12-27 15:27:19.005004,46
2021-12-27 15:27:19.005011,46
2021-12-27 15:27:19.005017,42
2021-12-27 15:27:19.005024,46
2021-12-27 15:27:19.201424,49
2021-12-27 15:27:19.201446,46
2021-12-27 15:27:19.201454,49
2021-12-27 15:27:19.201461,51
2021-12-27 15:27:19.201468,51
2021-12-27 15:27:19.201474,46
2021-12-27 15:27:19.201480,35
2021-12-27 15:27:19.201487,16
2021-12-27 15:27:19.201493,14
2021-12-27 15:27:19.201531,25
2021-12-27 15:27:19.201537,30
2021-12-27 15:27:19.201543,32
2021-12-27 15:27:19.201550,44
2021-12-27 15:27:19.201556,49
2021-12-27 15:27:19.201563,44
2021-12-27 15:27:19.201569,42
2021-12-27 15:27:19.201575,42
2021-12-27 15:27:19.201582,39
2021-12-27 15:27:19.201588,39
2021-12-27 15:27:19.201594,39
2021-12-27 15:27:19.201601,42
2021-12-27 15:27:19.201607,56
2021-12-27 15:27:19.201613,102
2021-12-27 15:27:19.201619,126
2021-12-27 15:27:19.201626,-58
2021-12-27 15:27:19.201632,-567
2021-12-27 15:27:19.201638,-1137
2021-12-27 15:27:19.201645,-1046
2021-12-27 15:27:19.201651,-184
2021-12-27 15:27:19.201657,319
2021-12-27 15:27:19.493308,98
2021-12-27 15:27:19.493338,18
2021-12-27 15:27:19.493349,177
2021-12-27 15:27:19.493360,147
2021-12-27 15:27:19.493369,77
2021-12-27 15:27:19.493379,102
2021-12-27 15:27:19.493389,91
2021-12-27 15:27:19.493399,51
2021-12-27 15:27:19.493408,49
2021-12-27 15:27:19.493418,44
2021-12-27 15:27:19.493428,21
2021-12-27 15:27:19.493438,11
2021-12-27 15:27:19.493447,2
2021-12-27 15:27:19.493457,-11
2021-12-27 15:27:19.493467,-21
2021-12-27 15:27:19.493477,-25
2021-12-27 15:27:19.493487,-35
2021-12-27 15:27:19.493497,-44
2021-12-27 15:27:19.493506,-49
2021-12-27 15:27:19.493516,-56
2021-12-27 15:27:19.493526,-63
2021-12-27 15:27:19.493536,-65
2021-12-27 15:27:19.493546,-65
2021-12-27 15:27:19.493555,-60
2021-12-27 15:27:19.493565,-56
2021-12-27 15:27:19.493575,-53
2021-12-27 15:27:19.493584,-46
2021-12-27 15:27:19.493594,-32
2021-12-27 15:27:19.493604,-23
2021-12-27 15:27:19.493614,-7
2021-12-27 15:27:19.688822,11
2021-12-27 15:27:19.688852,25
2021-12-27 15:27:19.688864,37
2021-12-27 15:27:19.688874,46
2021-12-27 15:27:19.688884,46
2021-12-27 15:27:19.688894,46
2021-12-27 15:27:19.688904,49
2021-12-27 15:27:19.688914,39
2021-12-27 15:27:19.688924,32
2021-12-27 15:27:19.688933,32
2021-12-27 15:27:19.688943,30
2021-12-27 15:27:19.688953,23
2021-12-27 15:27:19.688963,25
2021-12-27 15:27:19.688973,23
2021-12-27 15:27:19.688983,18
2021-12-27 15:27:19.688993,18
2021-12-27 15:27:19.689003,18
2021-12-27 15:27:19.689013,16
2021-12-27 15:27:19.689023,18
2021-12-27 15:27:19.689032,18
2021-12-27 15:27:19.689042,18
2021-12-27 15:27:19.689052,23
2021-12-27 15:27:19.689070,25
2021-12-27 15:27:19.689080,25
2021-12-27 15:27:19.689090,28
2021-12-27 15:27:19.689100,30
2021-12-27 15:27:19.689109,28
2021-12-27 15:27:19.689119,25
2021-12-27 15:27:19.689129,25
2021-12-27 15:27:19.689139,28
2021-12-27 15:27:19.883696,28
2021-12-27 15:27:19.883719,23
2021-12-27 15:27:19.883727,23
2021-12-27 15:27:19.883733,23
2021-12-27 15:27:19.883740,9
2021-12-27 15:27:19.883746,-11
2021-12-27 15:27:19.883753,-11
2021-12-27 15:27:19.883760,0
2021-12-27 15:27:19.883766,2
2021-12-27 15:27:19.883773,2
2021-12-27 15:27:19.883779,16
2021-12-27 15:27:19.883786,23
2021-12-27 15:27:19.883792,18
2021-12-27 15:27:19.883799,16
2021-12-27 15:27:19.883805,21
2021-12-27 15:27:19.883811,16
2021-12-27 15:27:19.883818,9
2021-12-27 15:27:19.883824,7
2021-12-27 15:27:19.883831,9
2021-12-27 15:27:19.883837,30
2021-12-27 15:27:19.883843,86
2021-12-27 15:27:19.883850,100
2021-12-27 15:27:19.883856,-100
2021-12-27 15:27:19.883863,-630
2021-12-27 15:27:19.883869,-1207
2021-12-27 15:27:19.883876,-1062
2021-12-27 15:27:19.883882,-135
2021-12-27 15:27:19.883889,352
2021-12-27 15:27:19.883895,84
2021-12-27 15:27:19.883902,9
2021-12-27 15:27:20.175993,170
2021-12-27 15:27:20.176015,119
2021-12-27 15:27:20.176023,49
2021-12-27 15:27:20.176030,84
2021-12-27 15:27:20.176036,65
2021-12-27 15:27:20.176043,21
2021-12-27 15:27:20.176050,28
2021-12-27 15:27:20.176056,21
2021-12-27 15:27:20.176063,-4
2021-12-27 15:27:20.176069,-7
2021-12-27 15:27:20.176076,-11
2021-12-27 15:27:20.176082,-35
2021-12-27 15:27:20.176089,-46
2021-12-27 15:27:20.176095,-53
2021-12-27 15:27:20.176102,-67
2021-12-27 15:27:20.176108,-77
2021-12-27 15:27:20.176115,-79
2021-12-27 15:27:20.176121,-84
2021-12-27 15:27:20.176128,-91
2021-12-27 15:27:20.176134,-91
2021-12-27 15:27:20.176141,-88
2021-12-27 15:27:20.176147,-91
2021-12-27 15:27:20.176154,-88
2021-12-27 15:27:20.176160,-74
2021-12-27 15:27:20.176166,-63
2021-12-27 15:27:20.176173,-53
2021-12-27 15:27:20.176179,-32
2021-12-27 15:27:20.176186,-9
2021-12-27 15:27:20.176192,9
2021-12-27 15:27:20.176199,28
2021-12-27 15:27:20.371116,39
2021-12-27 15:27:20.371137,46
2021-12-27 15:27:20.371145,53
2021-12-27 15:27:20.371151,51
2021-12-27 15:27:20.371208,39
2021-12-27 15:27:20.371223,39
2021-12-27 15:27:20.371234,39
2021-12-27 15:27:20.371246,30
2021-12-27 15:27:20.371256,23
2021-12-27 15:27:20.371267,21
2021-12-27 15:27:20.371278,16
2021-12-27 15:27:20.371290,14
2021-12-27 15:27:20.371301,11
2021-12-27 15:27:20.371311,4
2021-12-27 15:27:20.371323,7
2021-12-27 15:27:20.371334,9
2021-12-27 15:27:20.371344,9
2021-12-27 15:27:20.371351,9
2021-12-27 15:27:20.371358,9
2021-12-27 15:27:20.371364,7
2021-12-27 15:27:20.371370,9
2021-12-27 15:27:20.371377,14
2021-12-27 15:27:20.371383,18
2021-12-27 15:27:20.371389,21
2021-12-27 15:27:20.371395,23
2021-12-27 15:27:20.371402,25
2021-12-27 15:27:20.371410,25
2021-12-27 15:27:20.371416,16
2021-12-27 15:27:20.371423,0
2021-12-27 15:27:20.371429,-9
2021-12-27 15:27:20.615146,0
2021-12-27 15:27:20.615177,11
2021-12-27 15:27:20.615188,14
2021-12-27 15:27:20.615198,18
2021-12-27 15:27:20.615208,25
2021-12-27 15:27:20.615223,23
2021-12-27 15:27:20.615233,25
2021-12-27 15:27:20.615243,23
2021-12-27 15:27:20.615253,16
2021-12-27 15:27:20.615262,21
2021-12-27 15:27:20.615272,23
2021-12-27 15:27:20.615282,14
2021-12-27 15:27:20.615292,21
2021-12-27 15:27:20.615302,72
2021-12-27 15:27:20.615312,116
2021-12-27 15:27:20.615322,-14
2021-12-27 15:27:20.615332,-469
2021-12-27 15:27:20.615341,-1100
2021-12-27 15:27:20.615351,-1202
2021-12-27 15:27:20.615361,-366
2021-12-27 15:27:20.615371,359
2021-12-27 15:27:20.615381,177
2021-12-27 15:27:20.615391,-25
2021-12-27 15:27:20.615400,142
2021-12-27 15:27:20.615410,140
2021-12-27 15:27:20.615420,46
2021-12-27 15:27:20.615430,77
2021-12-27 15:27:20.615440,79
2021-12-27 15:27:20.615449,28
2021-12-27 15:27:20.615459,23
2021-12-27 15:27:20.809831,21
2021-12-27 15:27:20.809853,-2
2021-12-27 15:27:20.809860,-11
2021-12-27 15:27:20.809866,-14
2021-12-27 15:27:20.809871,-32
2021-12-27 15:27:20.809876,-49
2021-12-27 15:27:20.809881,-56
2021-12-27 15:27:20.809886,-63
2021-12-27 15:27:20.809891,-74
2021-12-27 15:27:20.809896,-86
2021-12-27 15:27:20.809902,-98
2021-12-27 15:27:20.809907,-107
2021-12-27 15:27:20.809912,-114
2021-12-27 15:27:20.809917,-116
2021-12-27 15:27:20.809922,-107
2021-12-27 15:27:20.809927,-100
2021-12-27 15:27:20.809932,-102
2021-12-27 15:27:20.809937,-95
2021-12-27 15:27:20.809942,-74
2021-12-27 15:27:20.809947,-46
2021-12-27 15:27:20.809952,-11
2021-12-27 15:27:20.809957,11
2021-12-27 15:27:20.809963,23
2021-12-27 15:27:20.809968,37
2021-12-27 15:27:20.809973,49
2021-12-27 15:27:20.809978,58
2021-12-27 15:27:20.809983,65
2021-12-27 15:27:20.809988,58
2021-12-27 15:27:20.809993,49
2021-12-27 15:27:20.809998,46
2021-12-27 15:27:21.101257,46
2021-12-27 15:27:21.101300,39
2021-12-27 15:27:21.101312,37
2021-12-27 15:27:21.101322,37
2021-12-27 15:27:21.101332,28
2021-12-27 15:27:21.101341,23
2021-12-27 15:27:21.101351,21
2021-12-27 15:27:21.101361,16
2021-12-27 15:27:21.101371,11
2021-12-27 15:27:21.101381,11
2021-12-27 15:27:21.101390,11
2021-12-27 15:27:21.101400,14
2021-12-27 15:27:21.101410,16
2021-12-27 15:27:21.101420,18
2021-12-27 15:27:21.101430,23
2021-12-27 15:27:21.101439,25
2021-12-27 15:27:21.101449,28
2021-12-27 15:27:21.101459,32
2021-12-27 15:27:21.101468,32
2021-12-27 15:27:21.101478,32
2021-12-27 15:27:21.101488,25
2021-12-27 15:27:21.101497,9
2021-12-27 15:27:21.101507,2
2021-12-27 15:27:21.101517,11
2021-12-27 15:27:21.101526,23
2021-12-27 15:27:21.101536,25
2021-12-27 15:27:21.101546,30
2021-12-27 15:27:21.101556,35
2021-12-27 15:27:21.101566,37
2021-12-27 15:27:21.101576,35
2021-12-27 15:27:21.297626,32
2021-12-27 15:27:21.297656,35
2021-12-27 15:27:21.297668,32
2021-12-27 15:27:21.297678,30
2021-12-27 15:27:21.297687,30
2021-12-27 15:27:21.297697,51
2021-12-27 15:27:21.297707,102
2021-12-27 15:27:21.297717,133
2021-12-27 15:27:21.297727,-32
2021-12-27 15:27:21.297737,-562
2021-12-27 15:27:21.297747,-1268
2021-12-27 15:27:21.297757,-1326
2021-12-27 15:27:21.297766,-373
2021-12-27 15:27:21.297776,376
2021-12-27 15:27:21.297786,172
2021-12-27 15:27:21.297796,-7
2021-12-27 15:27:21.297806,177
2021-12-27 15:27:21.297816,168
2021-12-27 15:27:21.297825,67
2021-12-27 15:27:21.297835,95
2021-12-27 15:27:21.297845,102
2021-12-27 15:27:21.297855,58
2021-12-27 15:27:21.297865,51
2021-12-27 15:27:21.297874,49
2021-12-27 15:27:21.297884,25
2021-12-27 15:27:21.297894,11
2021-12-27 15:27:21.297904,4
2021-12-27 15:27:21.297914,-9
2021-12-27 15:27:21.297924,-21
2021-12-27 15:27:21.297934,-28
2021-12-27 15:27:21.492199,-35
2021-12-27 15:27:21.492223,-42
2021-12-27 15:27:21.492231,-51
2021-12-27 15:27:21.492237,-60
2021-12-27 15:27:21.492244,-67
2021-12-27 15:27:21.492250,-74
2021-12-27 15:27:21.492257,-74
2021-12-27 15:27:21.492263,-67
2021-12-27 15:27:21.492269,-67
2021-12-27 15:27:21.492276,-65
2021-12-27 15:27:21.492282,-51
2021-12-27 15:27:21.492288,-37
2021-12-27 15:27:21.492295,-23
2021-12-27 15:27:21.492301,4
2021-12-27 15:27:21.492308,25
2021-12-27 15:27:21.492314,25
2021-12-27 15:27:21.492320,30
2021-12-27 15:27:21.492327,42
2021-12-27 15:27:21.492333,49
2021-12-27 15:27:21.492340,56
2021-12-27 15:27:21.492346,60
2021-12-27 15:27:21.492352,53
2021-12-27 15:27:21.492359,42
2021-12-27 15:27:21.492365,39
2021-12-27 15:27:21.492372,39
2021-12-27 15:27:21.492378,32
2021-12-27 15:27:21.492385,21
2021-12-27 15:27:21.492391,16
2021-12-27 15:27:21.492398,9
2021-12-27 15:27:21.492404,9
2021-12-27 15:27:21.784533,23
2021-12-27 15:27:21.784563,21
2021-12-27 15:27:21.784574,9
2021-12-27 15:27:21.784584,14
2021-12-27 15:27:21.784594,16
2021-12-27 15:27:21.784604,9
2021-12-27 15:27:21.784614,9
2021-12-27 15:27:21.784624,14
2021-12-27 15:27:21.784634,16
2021-12-27 15:27:21.784643,18
2021-12-27 15:27:21.784653,16
2021-12-27 15:27:21.784663,16
2021-12-27 15:27:21.784673,16
2021-12-27 15:27:21.784682,11
2021-12-27 15:27:21.784692,18
2021-12-27 15:27:21.784702,25
2021-12-27 15:27:21.784712,18
2021-12-27 15:27:21.784721,9
2021-12-27 15:27:21.784731,0
2021-12-27 15:27:21.784741,-7
2021-12-27 15:27:21.784751,-2
2021-12-27 15:27:21.784761,4
2021-12-27 15:27:21.784771,7
2021-12-27 15:27:21.784780,14
2021-12-27 15:27:21.784790,16
2021-12-27 15:27:21.784800,14
2021-12-27 15:27:21.784809,14
2021-12-27 15:27:21.784819,23
2021-12-27 15:27:21.784829,28
2021-12-27 15:27:21.784839,28
2021-12-27 15:27:21.980163,25
2021-12-27 15:27:21.980193,25
2021-12-27 15:27:21.980204,37
2021-12-27 15:27:21.980214,84
2021-12-27 15:27:21.980224,128
2021-12-27 15:27:21.980234,16
2021-12-27 15:27:21.980243,-453
2021-12-27 15:27:21.980253,-1193
2021-12-27 15:27:21.980263,-1480
2021-12-27 15:27:21.980272,-663
2021-12-27 15:27:21.980282,310
2021-12-27 15:27:21.980292,270
2021-12-27 15:27:21.980301,-7
2021-12-27 15:27:21.980311,158
2021-12-27 15:27:21.980321,224
2021-12-27 15:27:21.980330,95
2021-12-27 15:27:21.980340,98
2021-12-27 15:27:21.980349,133
2021-12-27 15:27:21.980359,86
2021-12-27 15:27:21.980369,63
2021-12-27 15:27:21.980379,70
2021-12-27 15:27:21.980388,49
2021-12-27 15:27:21.980398,30
2021-12-27 15:27:21.980408,28
2021-12-27 15:27:21.980417,18
2021-12-27 15:27:21.980427,2
2021-12-27 15:27:21.980436,-4
2021-12-27 15:27:21.980446,-14
2021-12-27 15:27:21.980456,-23
2021-12-27 15:27:21.980465,-30
2021-12-27 15:27:22.223939,-39
2021-12-27 15:27:22.223969,-46
2021-12-27 15:27:22.223981,-51
2021-12-27 15:27:22.223991,-56
2021-12-27 15:27:22.224000,-58
2021-12-27 15:27:22.224010,-53
2021-12-27 15:27:22.224020,-51
2021-12-27 15:27:22.224030,-44
2021-12-27 15:27:22.224040,-35
2021-12-27 15:27:22.224050,-23
2021-12-27 15:27:22.224060,0
2021-12-27 15:27:22.224069,23
2021-12-27 15:27:22.224079,39
2021-12-27 15:27:22.224089,49
2021-12-27 15:27:22.224099,58
2021-12-27 15:27:22.224109,65
2021-12-27 15:27:22.224118,63
2021-12-27 15:27:22.224128,58
2021-12-27 15:27:22.224138,53
2021-12-27 15:27:22.224148,51
2021-12-27 15:27:22.224158,44
2021-12-27 15:27:22.224168,39
2021-12-27 15:27:22.224177,39
2021-12-27 15:27:22.224187,35
2021-12-27 15:27:22.224197,32
2021-12-27 15:27:22.224207,35
2021-12-27 15:27:22.224217,32
2021-12-27 15:27:22.224227,30
2021-12-27 15:27:22.224237,30
2021-12-27 15:27:22.224246,25
2021-12-27 15:27:22.418308,23
2021-12-27 15:27:22.418322,25
2021-12-27 15:27:22.418327,25
2021-12-27 15:27:22.418332,25
2021-12-27 15:27:22.418336,25
2021-12-27 15:27:22.418341,25
2021-12-27 15:27:22.418345,25
2021-12-27 15:27:22.418350,28
2021-12-27 15:27:22.418354,30
2021-12-27 15:27:22.418359,28
2021-12-27 15:27:22.418363,23
2021-12-27 15:27:22.418370,30
2021-12-27 15:27:22.418374,35
2021-12-27 15:27:22.418379,35
2021-12-27 15:27:22.418383,32
2021-12-27 15:27:22.418388,23
2021-12-27 15:27:22.418392,9
2021-12-27 15:27:22.418396,0
2021-12-27 15:27:22.418401,7
2021-12-27 15:27:22.418405,7
2021-12-27 15:27:22.418410,4
2021-12-27 15:27:22.418414,14
2021-12-27 15:27:22.418418,25
2021-12-27 15:27:22.418423,25
2021-12-27 15:27:22.418427,23
2021-12-27 15:27:22.418431,28
2021-12-27 15:27:22.418436,30
2021-12-27 15:27:22.418441,25
2021-12-27 15:27:22.418445,21
2021-12-27 15:27:22.418450,21
2021-12-27 15:27:22.663069,32
2021-12-27 15:27:22.663100,67
2021-12-27 15:27:22.663112,121
2021-12-27 15:27:22.663122,56
2021-12-27 15:27:22.663132,-338
2021-12-27 15:27:22.663142,-1044
2021-12-27 15:27:22.663152,-1450
2021-12-27 15:27:22.663162,-805
2021-12-27 15:27:22.663171,210
2021-12-27 15:27:22.663181,312
2021-12-27 15:27:22.663191,0
2021-12-27 15:27:22.663201,116
2021-12-27 15:27:22.663211,224
2021-12-27 15:27:22.663221,112
2021-12-27 15:27:22.663231,86
2021-12-27 15:27:22.663240,121
2021-12-27 15:27:22.663250,81
2021-12-27 15:27:22.663260,51
2021-12-27 15:27:22.663270,58
2021-12-27 15:27:22.663279,46
2021-12-27 15:27:22.663289,25
2021-12-27 15:27:22.663299,21
2021-12-27 15:27:22.663309,11
2021-12-27 15:27:22.663319,-2
2021-12-27 15:27:22.663328,-11
2021-12-27 15:27:22.663338,-16
2021-12-27 15:27:22.663348,-25
2021-12-27 15:27:22.663358,-30
2021-12-27 15:27:22.663368,-37
2021-12-27 15:27:22.663378,-44
2021-12-27 15:27:22.907046,-51
2021-12-27 15:27:22.907065,-49
2021-12-27 15:27:22.907073,-46
2021-12-27 15:27:22.907082,-49
2021-12-27 15:27:22.907094,-46
2021-12-27 15:27:22.907106,-44
2021-12-27 15:27:22.907139,-39
2021-12-27 15:27:22.907166,-25
2021-12-27 15:27:22.907176,-9
2021-12-27 15:27:22.907183,4
2021-12-27 15:27:22.907189,23
2021-12-27 15:27:22.907195,35
2021-12-27 15:27:22.907202,42
2021-12-27 15:27:22.907208,46
2021-12-27 15:27:22.907214,51
2021-12-27 15:27:22.907221,51
2021-12-27 15:27:22.907227,49
2021-12-27 15:27:22.907233,44
2021-12-27 15:27:22.907240,42
2021-12-27 15:27:22.907246,39
2021-12-27 15:27:22.907252,37
2021-12-27 15:27:22.907259,32
2021-12-27 15:27:22.907265,28
2021-12-27 15:27:22.907271,28
2021-12-27 15:27:22.907278,28
2021-12-27 15:27:22.907284,23
2021-12-27 15:27:22.907290,25
2021-12-27 15:27:22.907296,28
2021-12-27 15:27:22.907303,30
2021-12-27 15:27:22.907309,30
2021-12-27 15:27:23.246464,30
2021-12-27 15:27:23.246493,28
2021-12-27 15:27:23.246505,32
2021-12-27 15:27:23.246515,39
2021-12-27 15:27:23.246525,35
2021-12-27 15:27:23.246535,35
2021-12-27 15:27:23.246545,39
2021-12-27 15:27:23.246555,37
2021-12-27 15:27:23.246564,32
2021-12-27 15:27:23.246574,35
2021-12-27 15:27:23.246584,35
2021-12-27 15:27:23.246594,30
2021-12-27 15:27:23.246604,32
2021-12-27 15:27:23.246614,37
2021-12-27 15:27:23.246623,32
2021-12-27 15:27:23.246633,30
2021-12-27 15:27:23.246643,32
2021-12-27 15:27:23.246653,35
2021-12-27 15:27:23.246663,37
2021-12-27 15:27:23.246673,37
2021-12-27 15:27:23.246682,28
2021-12-27 15:27:23.246692,11
2021-12-27 15:27:23.246702,0
2021-12-27 15:27:23.246712,9
2021-12-27 15:27:23.246722,16
2021-12-27 15:27:23.246732,9
2021-12-27 15:27:23.246741,11
2021-12-27 15:27:23.246751,23
2021-12-27 15:27:23.246761,23
2021-12-27 15:27:23.246771,23
2021-12-27 15:27:23.345761,28
2021-12-27 15:27:23.345791,28
2021-12-27 15:27:23.345803,23
2021-12-27 15:27:23.345814,21
2021-12-27 15:27:23.345824,23
2021-12-27 15:27:23.345834,30
2021-12-27 15:27:23.345843,63
2021-12-27 15:27:23.345853,123
2021-12-27 15:27:23.345863,74
2021-12-27 15:27:23.345873,-280
2021-12-27 15:27:23.345883,-943
2021-12-27 15:27:23.345893,-1380
2021-12-27 15:27:23.345902,-845
2021-12-27 15:27:23.345912,135
2021-12-27 15:27:23.345922,305
2021-12-27 15:27:23.345931,4
2021-12-27 15:27:23.345941,86
2021-12-27 15:27:23.345951,212
2021-12-27 15:27:23.345960,109
2021-12-27 15:27:23.345970,79
2021-12-27 15:27:23.345980,121
2021-12-27 15:27:23.345989,86
2021-12-27 15:27:23.345999,46
2021-12-27 15:27:23.346009,49
2021-12-27 15:27:23.346018,42
2021-12-27 15:27:23.346028,28
2021-12-27 15:27:23.346038,25
2021-12-27 15:27:23.346048,11
2021-12-27 15:27:23.346057,-9
2021-12-27 15:27:23.346067,-14
2021-12-27 15:27:23.637195,-25
2021-12-27 15:27:23.637224,-42
2021-12-27 15:27:23.637236,-42
2021-12-27 15:27:23.637246,-30
2021-12-27 15:27:23.637255,-37
2021-12-27 15:27:23.637265,-53
2021-12-27 15:27:23.637275,-58
2021-12-27 15:27:23.637285,-58
2021-12-27 15:27:23.637306,-63
2021-12-27 15:27:23.637316,-56
2021-12-27 15:27:23.637326,-42
2021-12-27 15:27:23.637336,-37
2021-12-27 15:27:23.637346,-30
2021-12-27 15:27:23.637355,-11
2021-12-27 15:27:23.637365,-2
2021-12-27 15:27:23.637375,4
2021-12-27 15:27:23.637385,21
2021-12-27 15:27:23.637394,30
2021-12-27 15:27:23.637404,37
2021-12-27 15:27:23.637414,53
2021-12-27 15:27:23.637424,60
2021-12-27 15:27:23.637434,37
2021-12-27 15:27:23.637443,16
2021-12-27 15:27:23.637453,14
2021-12-27 15:27:23.637463,35
2021-12-27 15:27:23.637473,49
2021-12-27 15:27:23.637483,37
2021-12-27 15:27:23.637493,28
2021-12-27 15:27:23.637503,30
2021-12-27 15:27:23.637513,25
2021-12-27 15:27:23.832956,21
2021-12-27 15:27:23.832987,18
2021-12-27 15:27:23.832998,18
2021-12-27 15:27:23.833008,16
2021-12-27 15:27:23.833018,25
2021-12-27 15:27:23.833028,37
2021-12-27 15:27:23.833038,32
2021-12-27 15:27:23.833048,28
2021-12-27 15:27:23.833058,37
2021-12-27 15:27:23.833067,44
2021-12-27 15:27:23.833077,46
2021-12-27 15:27:23.833087,44
2021-12-27 15:27:23.833097,42
2021-12-27 15:27:23.833139,35
2021-12-27 15:27:23.833149,25
2021-12-27 15:27:23.833159,37
2021-12-27 15:27:23.833168,49
2021-12-27 15:27:23.833178,37
2021-12-27 15:27:23.833188,32
2021-12-27 15:27:23.833198,39
2021-12-27 15:27:23.833208,37
2021-12-27 15:27:23.833217,39
2021-12-27 15:27:23.833227,42
2021-12-27 15:27:23.833237,32
2021-12-27 15:27:23.833246,14
2021-12-27 15:27:23.833256,2
2021-12-27 15:27:23.833266,2
2021-12-27 15:27:23.833275,23
2021-12-27 15:27:23.833285,35
2021-12-27 15:27:23.833295,25
2021-12-27 15:27:24.125395,28
2021-12-27 15:27:24.125416,42
2021-12-27 15:27:24.125424,46
2021-12-27 15:27:24.125431,44
2021-12-27 15:27:24.125437,32
2021-12-27 15:27:24.125444,25
2021-12-27 15:27:24.125450,25
2021-12-27 15:27:24.125457,32
2021-12-27 15:27:24.125463,49
2021-12-27 15:27:24.125470,93
2021-12-27 15:27:24.125476,135
2021-12-27 15:27:24.125483,35
2021-12-27 15:27:24.125489,-373
2021-12-27 15:27:24.125495,-1011
2021-12-27 15:27:24.125502,-1286
2021-12-27 15:27:24.125509,-621
2021-12-27 15:27:24.125515,221
2021-12-27 15:27:24.125522,231
2021-12-27 15:27:24.125528,-4
2021-12-27 15:27:24.125535,119
2021-12-27 15:27:24.125541,189
2021-12-27 15:27:24.125548,95
2021-12-27 15:27:24.125554,88
2021-12-27 15:27:24.125560,105
2021-12-27 15:27:24.125567,63
2021-12-27 15:27:24.125573,51
2021-12-27 15:27:24.125580,70
2021-12-27 15:27:24.125586,58
2021-12-27 15:27:24.125593,28
2021-12-27 15:27:24.125599,23
2021-12-27 15:27:24.320577,25
2021-12-27 15:27:24.320599,14
2021-12-27 15:27:24.320607,-2
2021-12-27 15:27:24.320614,-9
2021-12-27 15:27:24.320620,-14
2021-12-27 15:27:24.320627,-16
2021-12-27 15:27:24.320633,-18
2021-12-27 15:27:24.320639,-30
2021-12-27 15:27:24.320646,-28
2021-12-27 15:27:24.320652,-14
2021-12-27 15:27:24.320659,-14
2021-12-27 15:27:24.320697,-16
2021-12-27 15:27:24.320703,-9
2021-12-27 15:27:24.320710,0
2021-12-27 15:27:24.320716,4
2021-12-27 15:27:24.320722,2
2021-12-27 15:27:24.320729,14
2021-12-27 15:27:24.320735,37
2021-12-27 15:27:24.320741,51
2021-12-27 15:27:24.320748,53
2021-12-27 15:27:24.320754,65
2021-12-27 15:27:24.320760,70
2021-12-27 15:27:24.320766,63
2021-12-27 15:27:24.320773,63
2021-12-27 15:27:24.320779,63
2021-12-27 15:27:24.320785,58
2021-12-27 15:27:24.320792,51
2021-12-27 15:27:24.320798,46
2021-12-27 15:27:24.320804,46
2021-12-27 15:27:24.320811,51
2021-12-27 15:27:24.564295,49
2021-12-27 15:27:24.564324,39
2021-12-27 15:27:24.564336,44
2021-12-27 15:27:24.564346,53
2021-12-27 15:27:24.564356,44
2021-12-27 15:27:24.564366,37
2021-12-27 15:27:24.564376,51
2021-12-27 15:27:24.564386,53
2021-12-27 15:27:24.564396,42
2021-12-27 15:27:24.564406,44
2021-12-27 15:27:24.564416,53
2021-12-27 15:27:24.564426,42
2021-12-27 15:27:24.564436,30
2021-12-27 15:27:24.564445,42
2021-12-27 15:27:24.564455,46
2021-12-27 15:27:24.564465,39
2021-12-27 15:27:24.564475,39
2021-12-27 15:27:24.564485,37
2021-12-27 15:27:24.564495,30
2021-12-27 15:27:24.564505,28
2021-12-27 15:27:24.564515,32
2021-12-27 15:27:24.564525,30
2021-12-27 15:27:24.564535,21
2021-12-27 15:27:24.564544,21
2021-12-27 15:27:24.564554,32
2021-12-27 15:27:24.564564,32
2021-12-27 15:27:24.564574,11
2021-12-27 15:27:24.564584,-9
2021-12-27 15:27:24.564594,-2
2021-12-27 15:27:24.564604,9
2021-12-27 15:27:24.808224,9
2021-12-27 15:27:24.808253,16
2021-12-27 15:27:24.808265,28
2021-12-27 15:27:24.808275,28
2021-12-27 15:27:24.808285,23
2021-12-27 15:27:24.808295,25
2021-12-27 15:27:24.808305,28
2021-12-27 15:27:24.808315,25
2021-12-27 15:27:24.808325,25
2021-12-27 15:27:24.808335,28
2021-12-27 15:27:24.808345,32
2021-12-27 15:27:24.808355,67
2021-12-27 15:27:24.808365,126
2021-12-27 15:27:24.808375,91
2021-12-27 15:27:24.808384,-207
2021-12-27 15:27:24.808394,-791
2021-12-27 15:27:24.808404,-1207
2021-12-27 15:27:24.808414,-759
2021-12-27 15:27:24.808424,133
2021-12-27 15:27:24.808434,308
2021-12-27 15:27:24.808444,30
2021-12-27 15:27:24.808454,93
2021-12-27 15:27:24.808463,207
2021-12-27 15:27:24.808482,123
2021-12-27 15:27:24.808493,93
2021-12-27 15:27:24.808502,121
2021-12-27 15:27:24.808512,91
2021-12-27 15:27:24.808522,60
2021-12-27 15:27:24.808532,63
2021-12-27 15:27:24.808542,53
2021-12-27 15:27:25.003251,35
2021-12-27 15:27:25.003281,28
2021-12-27 15:27:25.003293,23
2021-12-27 15:27:25.003303,11
2021-12-27 15:27:25.003313,0
2021-12-27 15:27:25.003324,-7
2021-12-27 15:27:25.003334,-14
2021-12-27 15:27:25.003343,-21
2021-12-27 15:27:25.003353,-28
2021-12-27 15:27:25.003363,-32
2021-12-27 15:27:25.003373,-35
2021-12-27 15:27:25.003383,-35
2021-12-27 15:27:25.003393,-30
2021-12-27 15:27:25.003403,-28
2021-12-27 15:27:25.003413,-28
2021-12-27 15:27:25.003422,-28
2021-12-27 15:27:25.003432,-21
2021-12-27 15:27:25.003442,-11
2021-12-27 15:27:25.003452,-2
2021-12-27 15:27:25.003462,14
2021-12-27 15:27:25.003472,28
2021-12-27 15:27:25.003482,35
2021-12-27 15:27:25.003492,44
2021-12-27 15:27:25.003502,58
2021-12-27 15:27:25.003511,63
2021-12-27 15:27:25.003521,60
2021-12-27 15:27:25.003531,58
2021-12-27 15:27:25.003541,51
2021-12-27 15:27:25.003551,46
2021-12-27 15:27:25.003561,44
2021-12-27 15:27:25.245384,42
2021-12-27 15:27:25.245414,39
2021-12-27 15:27:25.245425,37
2021-12-27 15:27:25.245436,35
2021-12-27 15:27:25.245446,32
2021-12-27 15:27:25.245456,32
2021-12-27 15:27:25.245466,35
2021-12-27 15:27:25.245475,35
2021-12-27 15:27:25.245485,37
2021-12-27 15:27:25.245495,35
2021-12-27 15:27:25.245504,32
2021-12-27 15:27:25.245514,30
2021-12-27 15:27:25.245524,32
2021-12-27 15:27:25.245533,35
2021-12-27 15:27:25.245543,37
2021-12-27 15:27:25.245553,37
2021-12-27 15:27:25.245563,35
2021-12-27 15:27:25.245573,35
2021-12-27 15:27:25.245582,35
2021-12-27 15:27:25.245592,35
2021-12-27 15:27:25.245602,35
2021-12-27 15:27:25.245611,37
2021-12-27 15:27:25.245621,37
2021-12-27 15:27:25.245631,37
2021-12-27 15:27:25.245640,37
2021-12-27 15:27:25.245650,32
2021-12-27 15:27:25.245660,21
2021-12-27 15:27:25.245670,2
2021-12-27 15:27:25.245680,-11
2021-12-27 15:27:25.245689,-4
2021-12-27 15:27:25.489574,9
2021-12-27 15:27:25.489594,16
2021-12-27 15:27:25.489602,21
2021-12-27 15:27:25.489609,25
2021-12-27 15:27:25.489615,21
2021-12-27 15:27:25.489621,16
2021-12-27 15:27:25.489628,14
2021-12-27 15:27:25.489634,14
2021-12-27 15:27:25.489640,16
2021-12-27 15:27:25.489647,14
2021-12-27 15:27:25.489653,14
2021-12-27 15:27:25.489659,28
2021-12-27 15:27:25.489666,67
2021-12-27 15:27:25.489672,95
2021-12-27 15:27:25.489682,-49
2021-12-27 15:27:25.489688,-499
2021-12-27 15:27:25.489695,-1062
2021-12-27 15:27:25.489701,-1067
2021-12-27 15:27:25.489707,-261
2021-12-27 15:27:25.489714,319
2021-12-27 15:27:25.489720,116
2021-12-27 15:27:25.489727,-16
2021-12-27 15:27:25.489733,144
2021-12-27 15:27:25.489739,133
2021-12-27 15:27:25.489746,49
2021-12-27 15:27:25.489752,77
2021-12-27 15:27:25.489758,81
2021-12-27 15:27:25.489765,46
2021-12-27 15:27:25.489771,39
2021-12-27 15:27:25.489778,35
2021-12-27 15:27:25.685125,14
2021-12-27 15:27:25.685146,4
2021-12-27 15:27:25.685154,2
2021-12-27 15:27:25.685161,-7
2021-12-27 15:27:25.685168,-23
2021-12-27 15:27:25.685174,-28
2021-12-27 15:27:25.685180,-30
2021-12-27 15:27:25.685187,-39
2021-12-27 15:27:25.685193,-51
2021-12-27 15:27:25.685200,-53
2021-12-27 15:27:25.685207,-56
2021-12-27 15:27:25.685213,-58
2021-12-27 15:27:25.685219,-56
2021-12-27 15:27:25.685226,-49
2021-12-27 15:27:25.685232,-49
2021-12-27 15:27:25.685238,-46
2021-12-27 15:27:25.685245,-39
2021-12-27 15:27:25.685251,-28
2021-12-27 15:27:25.685258,-14
2021-12-27 15:27:25.685264,0
2021-12-27 15:27:25.685271,18
2021-12-27 15:27:25.685277,30
2021-12-27 15:27:25.685283,37
2021-12-27 15:27:25.685290,49
2021-12-27 15:27:25.685296,65
2021-12-27 15:27:25.685302,65
2021-12-27 15:27:25.685309,51
2021-12-27 15:27:25.685315,49
2021-12-27 15:27:25.685322,53
2021-12-27 15:27:25.685328,51
2021-12-27 15:27:25.880099,46
2021-12-27 15:27:25.880119,42
2021-12-27 15:27:25.880127,42
2021-12-27 15:27:25.880134,39
2021-12-27 15:27:25.880141,35
2021-12-27 15:27:25.880147,35
2021-12-27 15:27:25.880154,35
2021-12-27 15:27:25.880160,32
2021-12-27 15:27:25.880167,28
2021-12-27 15:27:25.880173,23
2021-12-27 15:27:25.880179,28
2021-12-27 15:27:25.880186,30
2021-12-27 15:27:25.880192,25
2021-12-27 15:27:25.880198,25
2021-12-27 15:27:25.880205,32
2021-12-27 15:27:25.880211,30
2021-12-27 15:27:25.880217,28
2021-12-27 15:27:25.880224,30
2021-12-27 15:27:25.880230,32
2021-12-27 15:27:25.880236,30
2021-12-27 15:27:25.880243,28
2021-12-27 15:27:25.880249,21
2021-12-27 15:27:25.880256,0
2021-12-27 15:27:25.880262,-9
2021-12-27 15:27:25.880269,2
2021-12-27 15:27:25.880275,14
2021-12-27 15:27:25.880282,16
2021-12-27 15:27:25.880288,18
2021-12-27 15:27:25.880295,23
2021-12-27 15:27:25.880301,30
2021-12-27 15:27:26.124351,30
2021-12-27 15:27:26.124380,23
2021-12-27 15:27:26.124392,23
2021-12-27 15:27:26.124402,23
2021-12-27 15:27:26.124412,21
2021-12-27 15:27:26.124422,18
2021-12-27 15:27:26.124432,28
2021-12-27 15:27:26.124442,65
2021-12-27 15:27:26.124452,107
2021-12-27 15:27:26.124462,4
2021-12-27 15:27:26.124471,-404
2021-12-27 15:27:26.124481,-971
2021-12-27 15:27:26.124491,-1069
2021-12-27 15:27:26.124501,-312
2021-12-27 15:27:26.124511,359
2021-12-27 15:27:26.124521,184
2021-12-27 15:27:26.124530,-25
2021-12-27 15:27:26.124540,128
2021-12-27 15:27:26.124550,140
2021-12-27 15:27:26.124560,42
2021-12-27 15:27:26.124570,60
2021-12-27 15:27:26.124579,70
2021-12-27 15:27:26.124589,25
2021-12-27 15:27:26.124599,18
2021-12-27 15:27:26.124609,25
2021-12-27 15:27:26.124619,2
2021-12-27 15:27:26.124628,-9
2021-12-27 15:27:26.124638,-11
2021-12-27 15:27:26.124648,-23
2021-12-27 15:27:26.124663,-35
2021-12-27 15:27:26.368130,-44
2021-12-27 15:27:26.368151,-49
2021-12-27 15:27:26.368159,-58
2021-12-27 15:27:26.368166,-70
2021-12-27 15:27:26.368172,-77
2021-12-27 15:27:26.368178,-81
2021-12-27 15:27:26.368185,-86
2021-12-27 15:27:26.368191,-88
2021-12-27 15:27:26.368198,-86
2021-12-27 15:27:26.368204,-81
2021-12-27 15:27:26.368211,-72
2021-12-27 15:27:26.368217,-63
2021-12-27 15:27:26.368223,-53
2021-12-27 15:27:26.368230,-39
2021-12-27 15:27:26.368236,-18
2021-12-27 15:27:26.368242,4
2021-12-27 15:27:26.368249,28
2021-12-27 15:27:26.368255,46
2021-12-27 15:27:26.368262,58
2021-12-27 15:27:26.368268,65
2021-12-27 15:27:26.368275,67
2021-12-27 15:27:26.368281,67
2021-12-27 15:27:26.368288,63
2021-12-27 15:27:26.368294,56
2021-12-27 15:27:26.368300,53
2021-12-27 15:27:26.368307,51
2021-12-27 15:27:26.368313,44
2021-12-27 15:27:26.368319,35
2021-12-27 15:27:26.368326,32
2021-12-27 15:27:26.368332,35
2021-12-27 15:27:26.611828,32
2021-12-27 15:27:26.611858,28
2021-12-27 15:27:26.611870,28
2021-12-27 15:27:26.611880,30
2021-12-27 15:27:26.611890,28
2021-12-27 15:27:26.611899,32
2021-12-27 15:27:26.611909,35
2021-12-27 15:27:26.611919,32
2021-12-27 15:27:26.611929,32
2021-12-27 15:27:26.611938,37
2021-12-27 15:27:26.611948,39
2021-12-27 15:27:26.611958,37
2021-12-27 15:27:26.611968,39
2021-12-27 15:27:26.611977,42
2021-12-27 15:27:26.611987,23
2021-12-27 15:27:26.611996,2
2021-12-27 15:27:26.612006,4
2021-12-27 15:27:26.612016,18
2021-12-27 15:27:26.612025,28
2021-12-27 15:27:26.612035,32
2021-12-27 15:27:26.612045,37
2021-12-27 15:27:26.612054,35
2021-12-27 15:27:26.612064,32
2021-12-27 15:27:26.612074,28
2021-12-27 15:27:26.612083,23
2021-12-27 15:27:26.612093,25
2021-12-27 15:27:26.612103,25
2021-12-27 15:27:26.612112,21
2021-12-27 15:27:26.612122,28
2021-12-27 15:27:26.612132,72
2021-12-27 15:27:26.807188,121
2021-12-27 15:27:26.807209,30
2021-12-27 15:27:26.807216,-376
2021-12-27 15:27:26.807223,-1013
2021-12-27 15:27:26.807229,-1242
2021-12-27 15:27:26.807236,-506
2021-12-27 15:27:26.807242,319
2021-12-27 15:27:26.807249,238
2021-12-27 15:27:26.807255,-14
2021-12-27 15:27:26.807261,133
2021-12-27 15:27:26.807268,172
2021-12-27 15:27:26.807274,70
2021-12-27 15:27:26.807281,84
2021-12-27 15:27:26.807287,102
2021-12-27 15:27:26.807293,60
2021-12-27 15:27:26.807300,44
2021-12-27 15:27:26.807306,46
2021-12-27 15:27:26.807312,32
2021-12-27 15:27:26.807319,16
2021-12-27 15:27:26.807325,7
2021-12-27 15:27:26.807331,-2
2021-12-27 15:27:26.807338,-14
2021-12-27 15:27:26.807344,-23
2021-12-27 15:27:26.807350,-30
2021-12-27 15:27:26.807357,-35
2021-12-27 15:27:26.807363,-46
2021-12-27 15:27:26.807370,-56
2021-12-27 15:27:26.807376,-58
2021-12-27 15:27:26.807383,-63
2021-12-27 15:27:26.807389,-63
2021-12-27 15:27:27.098928,-53
2021-12-27 15:27:27.098946,-46
2021-12-27 15:27:27.098954,-42
2021-12-27 15:27:27.098961,-32
2021-12-27 15:27:27.098968,-23
2021-12-27 15:27:27.098975,-11
2021-12-27 15:27:27.099002,7
2021-12-27 15:27:27.099010,30
2021-12-27 15:27:27.099017,46
2021-12-27 15:27:27.099023,53
2021-12-27 15:27:27.099030,63
2021-12-27 15:27:27.099039,67
2021-12-27 15:27:27.099046,70
2021-12-27 15:27:27.099052,65
2021-12-27 15:27:27.099059,60
2021-12-27 15:27:27.099065,58
2021-12-27 15:27:27.099072,53
2021-12-27 15:27:27.099078,49
2021-12-27 15:27:27.099085,46
2021-12-27 15:27:27.099092,46
2021-12-27 15:27:27.099098,44
2021-12-27 15:27:27.099105,39
2021-12-27 15:27:27.099111,39
2021-12-27 15:27:27.099118,39
2021-12-27 15:27:27.099124,39
2021-12-27 15:27:27.099131,39
2021-12-27 15:27:27.099137,42
2021-12-27 15:27:27.099144,42
2021-12-27 15:27:27.099150,39
2021-12-27 15:27:27.099157,44
2021-12-27 15:27:27.342183,46
2021-12-27 15:27:27.342242,44
2021-12-27 15:27:27.342255,46
2021-12-27 15:27:27.342267,51
2021-12-27 15:27:27.342278,53
2021-12-27 15:27:27.342286,53
2021-12-27 15:27:27.342292,51
2021-12-27 15:27:27.342298,42
2021-12-27 15:27:27.342305,28
2021-12-27 15:27:27.342311,18
2021-12-27 15:27:27.342317,21
2021-12-27 15:27:27.342323,28
2021-12-27 15:27:27.342329,32
2021-12-27 15:27:27.342336,35
2021-12-27 15:27:27.342342,39
2021-12-27 15:27:27.342348,39
2021-12-27 15:27:27.342355,39
2021-12-27 15:27:27.342361,39
2021-12-27 15:27:27.342367,39
2021-12-27 15:27:27.342373,37
2021-12-27 15:27:27.342380,39
2021-12-27 15:27:27.342386,37
2021-12-27 15:27:27.342392,49
2021-12-27 15:27:27.342398,100
2021-12-27 15:27:27.342405,149
2021-12-27 15:27:27.342411,11
2021-12-27 15:27:27.342417,-492
2021-12-27 15:27:27.342424,-1226
2021-12-27 15:27:27.342430,-1420
2021-12-27 15:27:27.342436,-544
2021-12-27 15:27:27.538313,338
2021-12-27 15:27:27.538335,233
2021-12-27 15:27:27.538343,-4
2021-12-27 15:27:27.538350,168
2021-12-27 15:27:27.538356,205
2021-12-27 15:27:27.538362,91
2021-12-27 15:27:27.538369,105
2021-12-27 15:27:27.538375,123
2021-12-27 15:27:27.538381,72
2021-12-27 15:27:27.538388,56
2021-12-27 15:27:27.538394,60
2021-12-27 15:27:27.538400,44
2021-12-27 15:27:27.538407,30
2021-12-27 15:27:27.538413,28
2021-12-27 15:27:27.538419,16
2021-12-27 15:27:27.538426,0
2021-12-27 15:27:27.538432,-7
2021-12-27 15:27:27.538439,-16
2021-12-27 15:27:27.538445,-25
2021-12-27 15:27:27.538451,-32
2021-12-27 15:27:27.538458,-39
2021-12-27 15:27:27.538464,-49
2021-12-27 15:27:27.538470,-51
2021-12-27 15:27:27.538477,-46
2021-12-27 15:27:27.538483,-44
2021-12-27 15:27:27.538490,-39
2021-12-27 15:27:27.538496,-32
2021-12-27 15:27:27.538502,-25
2021-12-27 15:27:27.538509,-21
2021-12-27 15:27:27.538515,-7
2021-12-27 15:27:27.781570,11
2021-12-27 15:27:27.781598,30
2021-12-27 15:27:27.781610,42
2021-12-27 15:27:27.781620,51
2021-12-27 15:27:27.781630,60
2021-12-27 15:27:27.781640,67
2021-12-27 15:27:27.781650,70
2021-12-27 15:27:27.781660,70
2021-12-27 15:27:27.781670,65
2021-12-27 15:27:27.781680,58
2021-12-27 15:27:27.781690,49
2021-12-27 15:27:27.781700,42
2021-12-27 15:27:27.781710,42
2021-12-27 15:27:27.781720,44
2021-12-27 15:27:27.781730,42
2021-12-27 15:27:27.781740,37
2021-12-27 15:27:27.781750,32
2021-12-27 15:27:27.781760,35
2021-12-27 15:27:27.781770,37
2021-12-27 15:27:27.781780,39
2021-12-27 15:27:27.781790,39
2021-12-27 15:27:27.781800,42
2021-12-27 15:27:27.781809,39
2021-12-27 15:27:27.781819,39
2021-12-27 15:27:27.781829,44
2021-12-27 15:27:27.781839,46
2021-12-27 15:27:27.781849,46
2021-12-27 15:27:27.781859,49
2021-12-27 15:27:27.781873,49
2021-12-27 15:27:27.781883,51
2021-12-27 15:27:28.025897,53
2021-12-27 15:27:28.025927,49
2021-12-27 15:27:28.025938,44
2021-12-27 15:27:28.025949,44
2021-12-27 15:27:28.025959,32
2021-12-27 15:27:28.025968,9
2021-12-27 15:27:28.025978,4
2021-12-27 15:27:28.025988,16
2021-12-27 15:27:28.025998,21
2021-12-27 15:27:28.026008,23
2021-12-27 15:27:28.026018,35
2021-12-27 15:27:28.026028,39
2021-12-27 15:27:28.026038,32
2021-12-27 15:27:28.026047,32
2021-12-27 15:27:28.026057,35
2021-12-27 15:27:28.026067,32
2021-12-27 15:27:28.026077,28
2021-12-27 15:27:28.026086,28
2021-12-27 15:27:28.026096,30
2021-12-27 15:27:28.026106,46
2021-12-27 15:27:28.026116,98
2021-12-27 15:27:28.026126,137
2021-12-27 15:27:28.026136,-14
2021-12-27 15:27:28.026146,-532
2021-12-27 15:27:28.026155,-1230
2021-12-27 15:27:28.026165,-1333
2021-12-27 15:27:28.026175,-427
2021-12-27 15:27:28.026185,362
2021-12-27 15:27:28.026195,200
2021-12-27 15:27:28.026205,7
2021-12-27 15:27:28.220849,191
2021-12-27 15:27:28.220868,205
2021-12-27 15:27:28.220876,95
2021-12-27 15:27:28.220883,114
2021-12-27 15:27:28.220889,123
2021-12-27 15:27:28.220896,74
2021-12-27 15:27:28.220902,60
2021-12-27 15:27:28.220908,58
2021-12-27 15:27:28.220915,32
2021-12-27 15:27:28.220921,23
2021-12-27 15:27:28.220928,25
2021-12-27 15:27:28.220934,11
2021-12-27 15:27:28.220940,-4
2021-12-27 15:27:28.220947,-7
2021-12-27 15:27:28.220953,-9
2021-12-27 15:27:28.220960,-23
2021-12-27 15:27:28.220966,-37
2021-12-27 15:27:28.221010,-49
2021-12-27 15:27:28.221024,-49
2021-12-27 15:27:28.221034,-53
2021-12-27 15:27:28.221045,-60
2021-12-27 15:27:28.221089,-60
2021-12-27 15:27:28.221099,-53
2021-12-27 15:27:28.221106,-46
2021-12-27 15:27:28.221112,-37
2021-12-27 15:27:28.221119,-25
2021-12-27 15:27:28.221125,-14
2021-12-27 15:27:28.221132,7
2021-12-27 15:27:28.221138,25
2021-12-27 15:27:28.221145,39
2021-12-27 15:27:28.415576,51
2021-12-27 15:27:28.415604,65
2021-12-27 15:27:28.415616,77
2021-12-27 15:27:28.415626,74
2021-12-27 15:27:28.415636,65
2021-12-27 15:27:28.415645,63
2021-12-27 15:27:28.415655,60
2021-12-27 15:27:28.415665,46
2021-12-27 15:27:28.415675,37
2021-12-27 15:27:28.415684,35
2021-12-27 15:27:28.415694,32
2021-12-27 15:27:28.415704,32
2021-12-27 15:27:28.415714,39
2021-12-27 15:27:28.415723,39
2021-12-27 15:27:28.415733,32
2021-12-27 15:27:28.415743,30
2021-12-27 15:27:28.415753,32
2021-12-27 15:27:28.415763,35
2021-12-27 15:27:28.415772,35
2021-12-27 15:27:28.415782,37
2021-12-27 15:27:28.415792,39
2021-12-27 15:27:28.415802,37
2021-12-27 15:27:28.415812,35
2021-12-27 15:27:28.415822,35
2021-12-27 15:27:28.415831,44
2021-12-27 15:27:28.415841,51
2021-12-27 15:27:28.415851,46
2021-12-27 15:27:28.415861,39
2021-12-27 15:27:28.415871,42
2021-12-27 15:27:28.415881,46
2021-12-27 15:27:28.708415,46
2021-12-27 15:27:28.708444,44
2021-12-27 15:27:28.708456,39
2021-12-27 15:27:28.708466,25
2021-12-27 15:27:28.708476,11
2021-12-27 15:27:28.708485,14
2021-12-27 15:27:28.708495,23
2021-12-27 15:27:28.708505,21
2021-12-27 15:27:28.708515,25
2021-12-27 15:27:28.708524,35
2021-12-27 15:27:28.708534,32
2021-12-27 15:27:28.708544,30
2021-12-27 15:27:28.708553,32
2021-12-27 15:27:28.708563,32
2021-12-27 15:27:28.708573,30
2021-12-27 15:27:28.708583,28
2021-12-27 15:27:28.708592,28
2021-12-27 15:27:28.708602,30
2021-12-27 15:27:28.708612,56
2021-12-27 15:27:28.708622,112
2021-12-27 15:27:28.708632,109
2021-12-27 15:27:28.708642,-149
2021-12-27 15:27:28.708652,-747
2021-12-27 15:27:28.708661,-1275
2021-12-27 15:27:28.708671,-934
2021-12-27 15:27:28.708681,56
2021-12-27 15:27:28.708691,376
2021-12-27 15:27:28.708700,53
2021-12-27 15:27:28.708710,56
2021-12-27 15:27:28.708720,200
2021-12-27 15:27:28.952052,116
2021-12-27 15:27:28.952082,67
2021-12-27 15:27:28.952094,107
2021-12-27 15:27:28.952104,79
2021-12-27 15:27:28.952114,42
2021-12-27 15:27:28.952124,44
2021-12-27 15:27:28.952134,35
2021-12-27 15:27:28.952143,11
2021-12-27 15:27:28.952153,7
2021-12-27 15:27:28.952163,0
2021-12-27 15:27:28.952173,-14
2021-12-27 15:27:28.952183,-23
2021-12-27 15:27:28.952193,-35
2021-12-27 15:27:28.952203,-49
2021-12-27 15:27:28.952212,-63
2021-12-27 15:27:28.952222,-72
2021-12-27 15:27:28.952232,-77
2021-12-27 15:27:28.952242,-79
2021-12-27 15:27:28.952251,-84
2021-12-27 15:27:28.952261,-84
2021-12-27 15:27:28.952271,-79
2021-12-27 15:27:28.952281,-72
2021-12-27 15:27:28.952290,-67
2021-12-27 15:27:28.952300,-56
2021-12-27 15:27:28.952310,-39
2021-12-27 15:27:28.952320,-18
2021-12-27 15:27:28.952329,4
2021-12-27 15:27:28.952339,25
2021-12-27 15:27:28.952349,39
2021-12-27 15:27:28.952359,51
2021-12-27 15:27:29.244437,58
2021-12-27 15:27:29.244458,65
2021-12-27 15:27:29.244466,65
2021-12-27 15:27:29.244473,60
2021-12-27 15:27:29.244479,53
2021-12-27 15:27:29.244485,51
2021-12-27 15:27:29.244492,46
2021-12-27 15:27:29.244498,42
2021-12-27 15:27:29.244505,35
2021-12-27 15:27:29.244512,30
2021-12-27 15:27:29.244518,30
2021-12-27 15:27:29.244524,30
2021-12-27 15:27:29.244531,28
2021-12-27 15:27:29.244537,28
2021-12-27 15:27:29.244544,28
2021-12-27 15:27:29.244550,28
2021-12-27 15:27:29.244557,28
2021-12-27 15:27:29.244563,28
2021-12-27 15:27:29.244569,35
2021-12-27 15:27:29.244576,37
2021-12-27 15:27:29.244582,37
2021-12-27 15:27:29.244588,35
2021-12-27 15:27:29.244595,35
2021-12-27 15:27:29.244601,35
2021-12-27 15:27:29.244608,39
2021-12-27 15:27:29.244614,42
2021-12-27 15:27:29.244621,39
2021-12-27 15:27:29.244627,39
2021-12-27 15:27:29.244633,42
2021-12-27 15:27:29.244640,42
2021-12-27 15:27:29.437746,44
2021-12-27 15:27:29.437772,49
2021-12-27 15:27:29.437784,44
2021-12-27 15:27:29.437794,42
2021-12-27 15:27:29.437804,44
2021-12-27 15:27:29.437814,46
2021-12-27 15:27:29.437824,46
2021-12-27 15:27:29.437835,37
2021-12-27 15:27:29.437844,16
2021-12-27 15:27:29.437854,7
2021-12-27 15:27:29.437864,18
2021-12-27 15:27:29.437874,28
2021-12-27 15:27:29.437884,28
2021-12-27 15:27:29.437895,37
2021-12-27 15:27:29.437905,46
2021-12-27 15:27:29.437915,39
2021-12-27 15:27:29.437925,35
2021-12-27 15:27:29.437935,37
2021-12-27 15:27:29.437945,35
2021-12-27 15:27:29.437955,30
2021-12-27 15:27:29.437966,28
2021-12-27 15:27:29.437977,28
2021-12-27 15:27:29.437987,42
2021-12-27 15:27:29.437997,93
2021-12-27 15:27:29.438007,135
2021-12-27 15:27:29.438017,-18
2021-12-27 15:27:29.438027,-558
2021-12-27 15:27:29.438037,-1291
2021-12-27 15:27:29.438047,-1399
2021-12-27 15:27:29.438057,-460
2021-12-27 15:27:29.585634,357
2021-12-27 15:27:29.585664,207
2021-12-27 15:27:29.585675,11
2021-12-27 15:27:29.585685,196
2021-12-27 15:27:29.585695,205
2021-12-27 15:27:29.585705,91
2021-12-27 15:27:29.585714,114
2021-12-27 15:27:29.585724,126
2021-12-27 15:27:29.585734,79
2021-12-27 15:27:29.585744,70
2021-12-27 15:27:29.585753,70
2021-12-27 15:27:29.585763,46
2021-12-27 15:27:29.585773,35
2021-12-27 15:27:29.585782,32
2021-12-27 15:27:29.585792,18
2021-12-27 15:27:29.585802,7
2021-12-27 15:27:29.585811,2
2021-12-27 15:27:29.585821,-4
2021-12-27 15:27:29.585831,-16
2021-12-27 15:27:29.585841,-28
2021-12-27 15:27:29.585851,-35
2021-12-27 15:27:29.585860,-42
2021-12-27 15:27:29.585870,-49
2021-12-27 15:27:29.585921,-53
2021-12-27 15:27:29.585932,-53
2021-12-27 15:27:29.585942,-51
2021-12-27 15:27:29.585951,-42
2021-12-27 15:27:29.585961,-30
2021-12-27 15:27:29.585971,-25
2021-12-27 15:27:29.585980,-11
2021-12-27 15:27:29.829745,11
2021-12-27 15:27:29.829775,32
2021-12-27 15:27:29.829786,46
2021-12-27 15:27:29.829796,60
2021-12-27 15:27:29.829806,70
2021-12-27 15:27:29.829816,77
2021-12-27 15:27:29.829826,79
2021-12-27 15:27:29.829836,77
2021-12-27 15:27:29.829845,72
2021-12-27 15:27:29.829855,67
2021-12-27 15:27:29.829865,60
2021-12-27 15:27:29.829875,58
2021-12-27 15:27:29.829885,56
2021-12-27 15:27:29.829895,53
2021-12-27 15:27:29.829905,49
2021-12-27 15:27:29.829914,42
2021-12-27 15:27:29.829924,42
2021-12-27 15:27:29.829934,46
2021-12-27 15:27:29.829944,44
2021-12-27 15:27:29.829954,39
2021-12-27 15:27:29.829964,44
2021-12-27 15:27:29.829974,49
2021-12-27 15:27:29.829983,46
2021-12-27 15:27:29.829993,44
2021-12-27 15:27:29.830003,44
2021-12-27 15:27:29.830013,42
2021-12-27 15:27:29.830022,39
2021-12-27 15:27:29.830032,42
2021-12-27 15:27:29.830042,39
2021-12-27 15:27:29.830051,39
2021-12-27 15:27:30.073565,46
2021-12-27 15:27:30.073586,51
2021-12-27 15:27:30.073594,46
2021-12-27 15:27:30.073601,46
2021-12-27 15:27:30.073607,49
2021-12-27 15:27:30.073613,46
2021-12-27 15:27:30.073620,46
2021-12-27 15:27:30.073626,44
2021-12-27 15:27:30.073633,39
2021-12-27 15:27:30.073639,37
2021-12-27 15:27:30.073646,39
2021-12-27 15:27:30.073652,35
2021-12-27 15:27:30.073659,35
2021-12-27 15:27:30.073665,37
2021-12-27 15:27:30.073671,35
2021-12-27 15:27:30.073678,35
2021-12-27 15:27:30.073684,35
2021-12-27 15:27:30.073691,23
2021-12-27 15:27:30.073697,2
2021-12-27 15:27:30.073704,0
2021-12-27 15:27:30.073710,11
2021-12-27 15:27:30.073717,18
2021-12-27 15:27:30.073723,25
2021-12-27 15:27:30.073729,28
2021-12-27 15:27:30.073736,28
2021-12-27 15:27:30.073742,32
2021-12-27 15:27:30.073749,37
2021-12-27 15:27:30.073755,30
2021-12-27 15:27:30.073762,23
2021-12-27 15:27:30.073768,16
2021-12-27 15:27:30.316434,16
2021-12-27 15:27:30.316464,18
2021-12-27 15:27:30.316476,39
2021-12-27 15:27:30.316486,88
2021-12-27 15:27:30.316496,116
2021-12-27 15:27:30.316506,-39
2021-12-27 15:27:30.316516,-537
2021-12-27 15:27:30.316526,-1186
2021-12-27 15:27:30.316536,-1233
2021-12-27 15:27:30.316546,-333
2021-12-27 15:27:30.316556,378
2021-12-27 15:27:30.316566,179
2021-12-27 15:27:30.316575,0
2021-12-27 15:27:30.316585,172
2021-12-27 15:27:30.316595,168
2021-12-27 15:27:30.316605,70
2021-12-27 15:27:30.316615,91
2021-12-27 15:27:30.316624,95
2021-12-27 15:27:30.316634,56
2021-12-27 15:27:30.316644,46
2021-12-27 15:27:30.316654,49
2021-12-27 15:27:30.316663,35
2021-12-27 15:27:30.316673,18
2021-12-27 15:27:30.316683,4
2021-12-27 15:27:30.316693,-9
2021-12-27 15:27:30.316703,-16
2021-12-27 15:27:30.316712,-25
2021-12-27 15:27:30.316722,-37
2021-12-27 15:27:30.316732,-46
2021-12-27 15:27:30.316742,-60
2021-12-27 15:27:30.511974,-88
2021-12-27 15:27:30.512005,-95
2021-12-27 15:27:30.512016,-88
2021-12-27 15:27:30.512027,-93
2021-12-27 15:27:30.512037,-95
2021-12-27 15:27:30.512047,-95
2021-12-27 15:27:30.512056,-98
2021-12-27 15:27:30.512066,-86
2021-12-27 15:27:30.512076,-60
2021-12-27 15:27:30.512086,-39
2021-12-27 15:27:30.512096,-16
2021-12-27 15:27:30.512105,14
2021-12-27 15:27:30.512115,39
2021-12-27 15:27:30.512125,53
2021-12-27 15:27:30.512135,60
2021-12-27 15:27:30.512145,72
2021-12-27 15:27:30.512154,79
2021-12-27 15:27:30.512164,79
2021-12-27 15:27:30.512174,74
2021-12-27 15:27:30.512183,65
2021-12-27 15:27:30.512193,58
2021-12-27 15:27:30.512203,60
2021-12-27 15:27:30.512213,56
2021-12-27 15:27:30.512223,44
2021-12-27 15:27:30.512232,39
2021-12-27 15:27:30.512242,42
2021-12-27 15:27:30.512252,37
2021-12-27 15:27:30.512262,30
2021-12-27 15:27:30.512272,30
2021-12-27 15:27:30.512282,32
2021-12-27 15:27:30.755884,32
2021-12-27 15:27:30.755912,30
2021-12-27 15:27:30.755924,28
2021-12-27 15:27:30.755934,30
2021-12-27 15:27:30.755944,35
2021-12-27 15:27:30.755954,42
2021-12-27 15:27:30.755963,37
2021-12-27 15:27:30.755973,32
2021-12-27 15:27:30.755983,35
2021-12-27 15:27:30.755992,32
2021-12-27 15:27:30.756002,30
2021-12-27 15:27:30.756012,37
2021-12-27 15:27:30.756021,42
2021-12-27 15:27:30.756031,37
2021-12-27 15:27:30.756040,32
2021-12-27 15:27:30.756050,32
2021-12-27 15:27:30.756060,35
2021-12-27 15:27:30.756069,37
2021-12-27 15:27:30.756079,35
2021-12-27 15:27:30.756088,28
2021-12-27 15:27:30.756098,25
2021-12-27 15:27:30.756108,28
2021-12-27 15:27:30.756117,25
2021-12-27 15:27:30.756127,30
2021-12-27 15:27:30.756137,30
2021-12-27 15:27:30.756146,14
2021-12-27 15:27:30.756156,-9
2021-12-27 15:27:30.756166,-11
2021-12-27 15:27:30.756176,4
2021-12-27 15:27:30.756185,7
2021-12-27 15:27:30.950737,4
2021-12-27 15:27:30.950777,11
2021-12-27 15:27:30.950796,21
2021-12-27 15:27:30.950813,23
2021-12-27 15:27:30.950830,21
2021-12-27 15:27:30.950844,14
2021-12-27 15:27:30.950854,11
2021-12-27 15:27:30.950864,14
2021-12-27 15:27:30.950873,9
2021-12-27 15:27:30.950883,4
2021-12-27 15:27:30.950893,18
2021-12-27 15:27:30.950903,67
2021-12-27 15:27:30.950913,116
2021-12-27 15:27:30.950922,18
2021-12-27 15:27:30.950932,-418
2021-12-27 15:27:30.950942,-1123
2021-12-27 15:27:30.950952,-1415
2021-12-27 15:27:30.950961,-642
2021-12-27 15:27:30.950971,312
2021-12-27 15:27:30.950981,282
2021-12-27 15:27:30.950991,-9
2021-12-27 15:27:30.951001,140
2021-12-27 15:27:30.951011,203
2021-12-27 15:27:30.951020,84
2021-12-27 15:27:30.951030,88
2021-12-27 15:27:30.951040,121
2021-12-27 15:27:30.951049,77
2021-12-27 15:27:30.951059,53
2021-12-27 15:27:30.951069,60
2021-12-27 15:27:30.951078,44
2021-12-27 15:27:31.194510,28
2021-12-27 15:27:31.194541,23
2021-12-27 15:27:31.194584,14
2021-12-27 15:27:31.194642,0
2021-12-27 15:27:31.194655,-11
2021-12-27 15:27:31.194665,-21
2021-12-27 15:27:31.194675,-32
2021-12-27 15:27:31.194685,-42
2021-12-27 15:27:31.194695,-49
2021-12-27 15:27:31.194705,-56
2021-12-27 15:27:31.194714,-67
2021-12-27 15:27:31.194724,-72
2021-12-27 15:27:31.194734,-74
2021-12-27 15:27:31.194744,-70
2021-12-27 15:27:31.194753,-60
2021-12-27 15:27:31.194763,-51
2021-12-27 15:27:31.194773,-37
2021-12-27 15:27:31.194783,-14
2021-12-27 15:27:31.194793,16
2021-12-27 15:27:31.194803,39
2021-12-27 15:27:31.194812,51
2021-12-27 15:27:31.194822,65
2021-12-27 15:27:31.194832,79
2021-12-27 15:27:31.194842,84
2021-12-27 15:27:31.194852,88
2021-12-27 15:27:31.194862,95
2021-12-27 15:27:31.194871,84
2021-12-27 15:27:31.194881,72
2021-12-27 15:27:31.194891,77
2021-12-27 15:27:31.194901,81
2021-12-27 15:27:31.485678,65
2021-12-27 15:27:31.485708,56
2021-12-27 15:27:31.485719,56
2021-12-27 15:27:31.485729,51
2021-12-27 15:27:31.485739,37
2021-12-27 15:27:31.485748,30
2021-12-27 15:27:31.485758,35
2021-12-27 15:27:31.485768,35
2021-12-27 15:27:31.485778,32
2021-12-27 15:27:31.485787,30
2021-12-27 15:27:31.485797,25
2021-12-27 15:27:31.485807,23
2021-12-27 15:27:31.485816,21
2021-12-27 15:27:31.485826,23
2021-12-27 15:27:31.485835,23
2021-12-27 15:27:31.485845,25
2021-12-27 15:27:31.485855,25
2021-12-27 15:27:31.485864,28
2021-12-27 15:27:31.485874,25
2021-12-27 15:27:31.485883,28
2021-12-27 15:27:31.485893,28
2021-12-27 15:27:31.485903,23
2021-12-27 15:27:31.485912,21
2021-12-27 15:27:31.485922,28
2021-12-27 15:27:31.485932,32
2021-12-27 15:27:31.485941,30
2021-12-27 15:27:31.485951,25
2021-12-27 15:27:31.485961,21
2021-12-27 15:27:31.485970,14
2021-12-27 15:27:31.485980,18
2021-12-27 15:27:31.731209,25
2021-12-27 15:27:31.731239,23
2021-12-27 15:27:31.731251,21
2021-12-27 15:27:31.731261,25
2021-12-27 15:27:31.731271,28
2021-12-27 15:27:31.731281,23
2021-12-27 15:27:31.731291,16
2021-12-27 15:27:31.731301,7
2021-12-27 15:27:31.731311,7
2021-12-27 15:27:31.731321,-2
2021-12-27 15:27:31.731331,-11
2021-12-27 15:27:31.731341,4
2021-12-27 15:27:31.731351,28
2021-12-27 15:27:31.731360,25
2021-12-27 15:27:31.731370,21
2021-12-27 15:27:31.731380,23
2021-12-27 15:27:31.731390,23
2021-12-27 15:27:31.731404,23
2021-12-27 15:27:31.731414,30
2021-12-27 15:27:31.731424,28
2021-12-27 15:27:31.731434,23
2021-12-27 15:27:31.731444,39
2021-12-27 15:27:31.731454,86
2021-12-27 15:27:31.731463,114
2021-12-27 15:27:31.731473,-39
2021-12-27 15:27:31.731483,-569
2021-12-27 15:27:31.731494,-1319
2021-12-27 15:27:31.731503,-1462
2021-12-27 15:27:31.731514,-504
2021-12-27 15:27:31.731524,387
2021-12-27 15:27:31.877418,238
2021-12-27 15:27:31.877448,9
2021-12-27 15:27:31.877460,212
2021-12-27 15:27:31.877470,233
2021-12-27 15:27:31.877480,109
2021-12-27 15:27:31.877489,135
2021-12-27 15:27:31.877499,147
2021-12-27 15:27:31.877508,84
2021-12-27 15:27:31.877518,67
2021-12-27 15:27:31.877527,72
2021-12-27 15:27:31.877537,51
2021-12-27 15:27:31.877546,44
2021-12-27 15:27:31.877556,42
2021-12-27 15:27:31.877566,28
2021-12-27 15:27:31.877575,18
2021-12-27 15:27:31.877585,11
2021-12-27 15:27:31.877594,0
2021-12-27 15:27:31.877604,-14
2021-12-27 15:27:31.877614,-32
2021-12-27 15:27:31.877623,-46
2021-12-27 15:27:31.877633,-39
2021-12-27 15:27:31.877643,-46
2021-12-27 15:27:31.877652,-67
2021-12-27 15:27:31.877662,-72
2021-12-27 15:27:31.877671,-67
2021-12-27 15:27:31.877681,-70
2021-12-27 15:27:31.877690,-74
2021-12-27 15:27:31.877700,-60
2021-12-27 15:27:31.877709,-28
2021-12-27 15:27:31.877719,2
2021-12-27 15:27:32.120251,21
2021-12-27 15:27:32.120282,35
2021-12-27 15:27:32.120289,46
2021-12-27 15:27:32.120294,60
2021-12-27 15:27:32.120299,60
2021-12-27 15:27:32.120304,63
2021-12-27 15:27:32.120310,77
2021-12-27 15:27:32.120315,72
2021-12-27 15:27:32.120320,60
2021-12-27 15:27:32.120325,60
2021-12-27 15:27:32.120330,51
2021-12-27 15:27:32.120335,37
2021-12-27 15:27:32.120340,35
2021-12-27 15:27:32.120345,32
2021-12-27 15:27:32.120350,30
2021-12-27 15:27:32.120355,35
2021-12-27 15:27:32.120360,37
2021-12-27 15:27:32.120365,28
2021-12-27 15:27:32.120370,23
2021-12-27 15:27:32.120375,28
2021-12-27 15:27:32.120380,25
2021-12-27 15:27:32.120385,18
2021-12-27 15:27:32.120390,18
2021-12-27 15:27:32.120395,28
2021-12-27 15:27:32.120400,39
2021-12-27 15:27:32.120405,37
2021-12-27 15:27:32.120410,42
2021-12-27 15:27:32.120415,49
2021-12-27 15:27:32.120420,32
2021-12-27 15:27:32.120425,21
2021-12-27 15:27:32.412960,28
2021-12-27 15:27:32.412980,32
2021-12-27 15:27:32.412988,32
2021-12-27 15:27:32.412995,39
2021-12-27 15:27:32.413001,46
2021-12-27 15:27:32.413007,39
2021-12-27 15:27:32.413014,23
2021-12-27 15:27:32.413020,21
2021-12-27 15:27:32.413027,30
2021-12-27 15:27:32.413033,25
2021-12-27 15:27:32.413040,23
2021-12-27 15:27:32.413046,30
2021-12-27 15:27:32.413052,28
2021-12-27 15:27:32.413059,23
2021-12-27 15:27:32.413065,25
2021-12-27 15:27:32.413072,32
2021-12-27 15:27:32.413078,25
2021-12-27 15:27:32.413084,4
2021-12-27 15:27:32.413091,-9
2021-12-27 15:27:32.413097,9
2021-12-27 15:27:32.413104,23
2021-12-27 15:27:32.413110,14
2021-12-27 15:27:32.413117,18
2021-12-27 15:27:32.413123,37
2021-12-27 15:27:32.413129,30
2021-12-27 15:27:32.413136,11
2021-12-27 15:27:32.413142,16
2021-12-27 15:27:32.413149,35
2021-12-27 15:27:32.413155,32
2021-12-27 15:27:32.413161,23
2021-12-27 15:27:32.608274,30
2021-12-27 15:27:32.608305,42
2021-12-27 15:27:32.608316,77
2021-12-27 15:27:32.608343,133
2021-12-27 15:27:32.608385,39
2021-12-27 15:27:32.608395,-441
2021-12-27 15:27:32.608405,-1219
2021-12-27 15:27:32.608415,-1532
2021-12-27 15:27:32.608425,-707
2021-12-27 15:27:32.608435,296
2021-12-27 15:27:32.608445,280
2021-12-27 15:27:32.608455,0
2021-12-27 15:27:32.608464,165
2021-12-27 15:27:32.608474,228
2021-12-27 15:27:32.608484,102
2021-12-27 15:27:32.608493,107
2021-12-27 15:27:32.608503,140
2021-12-27 15:27:32.608513,91
2021-12-27 15:27:32.608522,70
2021-12-27 15:27:32.608532,74
2021-12-27 15:27:32.608542,53
2021-12-27 15:27:32.608551,42
2021-12-27 15:27:32.608561,39
2021-12-27 15:27:32.608571,21
2021-12-27 15:27:32.608580,16
2021-12-27 15:27:32.608590,23
2021-12-27 15:27:32.608600,9
2021-12-27 15:27:32.608609,-18
2021-12-27 15:27:32.608619,-25
2021-12-27 15:27:32.608629,-16
2021-12-27 15:27:32.852064,-32
2021-12-27 15:27:32.852094,-49
2021-12-27 15:27:32.852105,-35
2021-12-27 15:27:32.852115,-28
2021-12-27 15:27:32.852125,-42
2021-12-27 15:27:32.852135,-44
2021-12-27 15:27:32.852145,-35
2021-12-27 15:27:32.852155,-32
2021-12-27 15:27:32.852165,-23
2021-12-27 15:27:32.852175,0
2021-12-27 15:27:32.852185,18
2021-12-27 15:27:32.852195,25
2021-12-27 15:27:32.852205,39
2021-12-27 15:27:32.852215,53
2021-12-27 15:27:32.852225,53
2021-12-27 15:27:32.852234,51
2021-12-27 15:27:32.852244,51
2021-12-27 15:27:32.852254,49
2021-12-27 15:27:32.852264,58
2021-12-27 15:27:32.852274,58
2021-12-27 15:27:32.852283,35
2021-12-27 15:27:32.852293,30
2021-12-27 15:27:32.852303,37
2021-12-27 15:27:32.852313,39
2021-12-27 15:27:32.852323,49
2021-12-27 15:27:32.852333,32
2021-12-27 15:27:32.852342,4
2021-12-27 15:27:32.852352,14
2021-12-27 15:27:32.852362,28
2021-12-27 15:27:32.852372,14
2021-12-27 15:27:33.047009,11
2021-12-27 15:27:33.047030,28
2021-12-27 15:27:33.047037,16
2021-12-27 15:27:33.047044,2
2021-12-27 15:27:33.047051,16
2021-12-27 15:27:33.047057,25
2021-12-27 15:27:33.047063,18
2021-12-27 15:27:33.047070,14
2021-12-27 15:27:33.047076,21
2021-12-27 15:27:33.047082,23
2021-12-27 15:27:33.047089,11
2021-12-27 15:27:33.047095,4
2021-12-27 15:27:33.047101,11
2021-12-27 15:27:33.047108,14
2021-12-27 15:27:33.047114,16
2021-12-27 15:27:33.047120,7
2021-12-27 15:27:33.047127,-7
2021-12-27 15:27:33.047133,-14
2021-12-27 15:27:33.047140,-23
2021-12-27 15:27:33.047146,-11
2021-12-27 15:27:33.047152,4
2021-12-27 15:27:33.047159,0
2021-12-27 15:27:33.047165,-2
2021-12-27 15:27:33.047171,2
2021-12-27 15:27:33.047178,4
2021-12-27 15:27:33.047184,0
2021-12-27 15:27:33.047190,-18
2021-12-27 15:27:33.047197,-30
2021-12-27 15:27:33.047203,-9
2021-12-27 15:27:33.047210,-2
2021-12-27 15:27:33.290832,-21
2021-12-27 15:27:33.290862,-35
2021-12-27 15:27:33.290873,-25
2021-12-27 15:27:33.290883,-9
2021-12-27 15:27:33.290893,-2
2021-12-27 15:27:33.290903,14
2021-12-27 15:27:33.290913,14
2021-12-27 15:27:33.290923,-11
2021-12-27 15:27:33.290932,-4
2021-12-27 15:27:33.290942,18
2021-12-27 15:27:33.290952,7
2021-12-27 15:27:33.290962,0
2021-12-27 15:27:33.290971,28
2021-12-27 15:27:33.290981,84
2021-12-27 15:27:33.290991,121
2021-12-27 15:27:33.291001,-37
2021-12-27 15:27:33.291011,-597
2021-12-27 15:27:33.291020,-1347
2021-12-27 15:27:33.291030,-1448
2021-12-27 15:27:33.291040,-478
2021-12-27 15:27:33.291050,355
2021-12-27 15:27:33.291060,200
2021-12-27 15:27:33.291069,0
2021-12-27 15:27:33.291079,172
2021-12-27 15:27:33.291089,186
2021-12-27 15:27:33.291099,91
2021-12-27 15:27:33.291109,116
2021-12-27 15:27:33.291119,130
2021-12-27 15:27:33.291128,67
2021-12-27 15:27:33.291138,44
2021-12-27 15:27:33.630792,74
2021-12-27 15:27:33.630823,60
2021-12-27 15:27:33.630835,9
2021-12-27 15:27:33.630845,-16
2021-12-27 15:27:33.630854,-7
2021-12-27 15:27:33.630864,9
2021-12-27 15:27:33.630874,-7
2021-12-27 15:27:33.630884,-39
2021-12-27 15:27:33.630893,-32
2021-12-27 15:27:33.630903,-39
2021-12-27 15:27:33.630913,-74
2021-12-27 15:27:33.630922,-56
2021-12-27 15:27:33.630932,-42
2021-12-27 15:27:33.630942,-74
2021-12-27 15:27:33.630951,-79
2021-12-27 15:27:33.630961,-65
2021-12-27 15:27:33.630971,-63
2021-12-27 15:27:33.630980,-60
2021-12-27 15:27:33.630990,-56
2021-12-27 15:27:33.631000,-32
2021-12-27 15:27:33.631010,0
2021-12-27 15:27:33.631019,11
2021-12-27 15:27:33.631029,28
2021-12-27 15:27:33.631039,44
2021-12-27 15:27:33.631048,39
2021-12-27 15:27:33.631058,53
2021-12-27 15:27:33.631068,63
2021-12-27 15:27:33.631077,53
2021-12-27 15:27:33.631087,58
2021-12-27 15:27:33.631096,46
2021-12-27 15:27:33.729864,28
2021-12-27 15:27:33.729893,39
2021-12-27 15:27:33.729905,46
2021-12-27 15:27:33.729915,32
2021-12-27 15:27:33.729925,14
2021-12-27 15:27:33.729935,11
2021-12-27 15:27:33.729944,23
2021-12-27 15:27:33.729954,32
2021-12-27 15:27:33.729964,32
2021-12-27 15:27:33.729974,14
2021-12-27 15:27:33.729984,-2
2021-12-27 15:27:33.729994,14
2021-12-27 15:27:33.730004,21
2021-12-27 15:27:33.730014,16
2021-12-27 15:27:33.730023,23
2021-12-27 15:27:33.730033,32
2021-12-27 15:27:33.730043,28
2021-12-27 15:27:33.730053,21
2021-12-27 15:27:33.730062,25
2021-12-27 15:27:33.730072,30
2021-12-27 15:27:33.730082,23
2021-12-27 15:27:33.730092,30
2021-12-27 15:27:33.730101,42
2021-12-27 15:27:33.730111,39
2021-12-27 15:27:33.730121,23
2021-12-27 15:27:33.730131,16
2021-12-27 15:27:33.730140,32
2021-12-27 15:27:33.730150,49
2021-12-27 15:27:33.730160,32
2021-12-27 15:27:33.730170,21
2021-12-27 15:27:33.973289,32
2021-12-27 15:27:33.973320,42
2021-12-27 15:27:33.973331,39
2021-12-27 15:27:33.973342,42
2021-12-27 15:27:33.973351,35
2021-12-27 15:27:33.973361,4
2021-12-27 15:27:33.973371,-7
2021-12-27 15:27:33.973381,7
2021-12-27 15:27:33.973391,-4
2021-12-27 15:27:33.973401,-2
2021-12-27 15:27:33.973411,30
2021-12-27 15:27:33.973420,32
2021-12-27 15:27:33.973430,16
2021-12-27 15:27:33.973440,18
2021-12-27 15:27:33.973454,28
2021-12-27 15:27:33.973464,30
2021-12-27 15:27:33.973474,9
2021-12-27 15:27:33.973483,7
2021-12-27 15:27:33.973493,28
2021-12-27 15:27:33.973503,44
2021-12-27 15:27:33.973513,95
2021-12-27 15:27:33.973522,128
2021-12-27 15:27:33.973532,-95
2021-12-27 15:27:33.973542,-703
2021-12-27 15:27:33.973552,-1317
2021-12-27 15:27:33.973562,-1121
2021-12-27 15:27:33.973572,-123
2021-12-27 15:27:33.973582,383
2021-12-27 15:27:33.973592,102
2021-12-27 15:27:33.973602,39
2021-12-27 15:27:34.265753,217
2021-12-27 15:27:34.265782,161
2021-12-27 15:27:34.265794,84
2021-12-27 15:27:34.265804,133
2021-12-27 15:27:34.265814,130
2021-12-27 15:27:34.265824,74
2021-12-27 15:27:34.265834,60
2021-12-27 15:27:34.265844,63
2021-12-27 15:27:34.265853,44
2021-12-27 15:27:34.265863,35
2021-12-27 15:27:34.265873,35
2021-12-27 15:27:34.265883,25
2021-12-27 15:27:34.265892,4
2021-12-27 15:27:34.265902,-16
2021-12-27 15:27:34.265912,-16
2021-12-27 15:27:34.265922,-18
2021-12-27 15:27:34.265932,-35
2021-12-27 15:27:34.265942,-42
2021-12-27 15:27:34.265952,-42
2021-12-27 15:27:34.265961,-49
2021-12-27 15:27:34.265971,-60
2021-12-27 15:27:34.265981,-58
2021-12-27 15:27:34.265991,-46
2021-12-27 15:27:34.266001,-39
2021-12-27 15:27:34.266010,-42
2021-12-27 15:27:34.266020,-37
2021-12-27 15:27:34.266030,-11
2021-12-27 15:27:34.266040,9
2021-12-27 15:27:34.266050,18
2021-12-27 15:27:34.266060,39
2021-12-27 15:27:34.411370,53
2021-12-27 15:27:34.411386,56
2021-12-27 15:27:34.411392,77
2021-12-27 15:27:34.411397,86
2021-12-27 15:27:34.411402,63
2021-12-27 15:27:34.411407,58
2021-12-27 15:27:34.411412,65
2021-12-27 15:27:34.411417,51
2021-12-27 15:27:34.411422,39
2021-12-27 15:27:34.411427,51
2021-12-27 15:27:34.411432,49
2021-12-27 15:27:34.411437,42
2021-12-27 15:27:34.411442,44
2021-12-27 15:27:34.411447,39
2021-12-27 15:27:34.411452,35
2021-12-27 15:27:34.411457,30
2021-12-27 15:27:34.411462,28
2021-12-27 15:27:34.411467,37
2021-12-27 15:27:34.411472,39
2021-12-27 15:27:34.411476,30
2021-12-27 15:27:34.411481,32
2021-12-27 15:27:34.411486,51
2021-12-27 15:27:34.411491,42
2021-12-27 15:27:34.411496,23
2021-12-27 15:27:34.411501,44
2021-12-27 15:27:34.411506,60
2021-12-27 15:27:34.411511,51
2021-12-27 15:27:34.411516,49
2021-12-27 15:27:34.411521,49
2021-12-27 15:27:34.411526,37
2021-12-27 15:27:34.656204,37
2021-12-27 15:27:34.656233,51
2021-12-27 15:27:34.656245,56
2021-12-27 15:27:34.656255,53
2021-12-27 15:27:34.656265,51
2021-12-27 15:27:34.656274,46
2021-12-27 15:27:34.656284,39
2021-12-27 15:27:34.656294,18
2021-12-27 15:27:34.656304,0
2021-12-27 15:27:34.656314,9
2021-12-27 15:27:34.656323,28
2021-12-27 15:27:34.656333,30
2021-12-27 15:27:34.656343,28
2021-12-27 15:27:34.656353,32
2021-12-27 15:27:34.656362,42
2021-12-27 15:27:34.656372,39
2021-12-27 15:27:34.656382,28
2021-12-27 15:27:34.656391,37
2021-12-27 15:27:34.656401,44
2021-12-27 15:27:34.656411,35
2021-12-27 15:27:34.656420,44
2021-12-27 15:27:34.656430,65
2021-12-27 15:27:34.656440,88
2021-12-27 15:27:34.656449,116
2021-12-27 15:27:34.656459,21
2021-12-27 15:27:34.656469,-390
2021-12-27 15:27:34.656478,-1025
2021-12-27 15:27:34.656488,-1230
2021-12-27 15:27:34.656498,-504
2021-12-27 15:27:34.656508,296
2021-12-27 15:27:34.899855,235
2021-12-27 15:27:34.899885,7
2021-12-27 15:27:34.899897,147
2021-12-27 15:27:34.899907,196
2021-12-27 15:27:34.899917,100
2021-12-27 15:27:34.899926,98
2021-12-27 15:27:34.899936,105
2021-12-27 15:27:34.899946,81
2021-12-27 15:27:34.899956,74
2021-12-27 15:27:34.899965,67
2021-12-27 15:27:34.899975,53
2021-12-27 15:27:34.899985,42
2021-12-27 15:27:34.899994,25
2021-12-27 15:27:34.900004,16
2021-12-27 15:27:34.900013,2
2021-12-27 15:27:34.900023,-9
2021-12-27 15:27:34.900033,-9
2021-12-27 15:27:34.900042,-23
2021-12-27 15:27:34.900052,-42
2021-12-27 15:27:34.900062,-37
2021-12-27 15:27:34.900071,-37
2021-12-27 15:27:34.900081,-42
2021-12-27 15:27:34.900090,-44
2021-12-27 15:27:34.900100,-51
2021-12-27 15:27:34.900109,-53
2021-12-27 15:27:34.900119,-39
2021-12-27 15:27:34.900129,-28
2021-12-27 15:27:34.900138,-30
2021-12-27 15:27:34.900148,-16
2021-12-27 15:27:34.900158,18
2021-12-27 15:27:35.143318,30
2021-12-27 15:27:35.143348,28
2021-12-27 15:27:35.143359,49
2021-12-27 15:27:35.143370,70
2021-12-27 15:27:35.143379,63
2021-12-27 15:27:35.143390,58
2021-12-27 15:27:35.143399,65
2021-12-27 15:27:35.143409,58
2021-12-27 15:27:35.143419,56
2021-12-27 15:27:35.143429,53
2021-12-27 15:27:35.143439,39
2021-12-27 15:27:35.143449,35
2021-12-27 15:27:35.143459,35
2021-12-27 15:27:35.143469,30
2021-12-27 15:27:35.143479,32
2021-12-27 15:27:35.143489,39
2021-12-27 15:27:35.143499,28
2021-12-27 15:27:35.143508,18
2021-12-27 15:27:35.143518,32
2021-12-27 15:27:35.143528,44
2021-12-27 15:27:35.143538,42
2021-12-27 15:27:35.143548,42
2021-12-27 15:27:35.143558,44
2021-12-27 15:27:35.143567,46
2021-12-27 15:27:35.143577,46
2021-12-27 15:27:35.143587,39
2021-12-27 15:27:35.143597,46
2021-12-27 15:27:35.143607,46
2021-12-27 15:27:35.143617,32
2021-12-27 15:27:35.143627,46
2021-12-27 15:27:35.338728,63
2021-12-27 15:27:35.338755,58
2021-12-27 15:27:35.338802,58
2021-12-27 15:27:35.338814,56
2021-12-27 15:27:35.338821,42
2021-12-27 15:27:35.338827,32
2021-12-27 15:27:35.338834,18
2021-12-27 15:27:35.338840,7
2021-12-27 15:27:35.338846,9
2021-12-27 15:27:35.338853,25
2021-12-27 15:27:35.338859,46
2021-12-27 15:27:35.338866,56
2021-12-27 15:27:35.338872,58
2021-12-27 15:27:35.338878,63
2021-12-27 15:27:35.338885,56
2021-12-27 15:27:35.338891,35
2021-12-27 15:27:35.338898,28
2021-12-27 15:27:35.338904,46
2021-12-27 15:27:35.338910,56
2021-12-27 15:27:35.338916,53
2021-12-27 15:27:35.338923,88
2021-12-27 15:27:35.338929,140
2021-12-27 15:27:35.338936,65
2021-12-27 15:27:35.338942,-268
2021-12-27 15:27:35.338948,-840
2021-12-27 15:27:35.338955,-1170
2021-12-27 15:27:35.338961,-642
2021-12-27 15:27:35.338967,196
2021-12-27 15:27:35.338974,287
2021-12-27 15:27:35.338980,35
2021-12-27 15:27:35.629493,119
2021-12-27 15:27:35.629523,191
2021-12-27 15:27:35.629534,102
2021-12-27 15:27:35.629544,91
2021-12-27 15:27:35.629554,109
2021-12-27 15:27:35.629564,84
2021-12-27 15:27:35.629573,63
2021-12-27 15:27:35.629583,56
2021-12-27 15:27:35.629593,42
2021-12-27 15:27:35.629602,32
2021-12-27 15:27:35.629612,28
2021-12-27 15:27:35.629621,14
2021-12-27 15:27:35.629631,-4
2021-12-27 15:27:35.629641,-9
2021-12-27 15:27:35.629650,-4
2021-12-27 15:27:35.629660,-18
2021-12-27 15:27:35.629670,-58
2021-12-27 15:27:35.629679,-72
2021-12-27 15:27:35.629689,-60
2021-12-27 15:27:35.629699,-70
2021-12-27 15:27:35.629708,-74
2021-12-27 15:27:35.629718,-51
2021-12-27 15:27:35.629727,-39
2021-12-27 15:27:35.629737,-32
2021-12-27 15:27:35.629746,-30
2021-12-27 15:27:35.629756,-39
2021-12-27 15:27:35.629766,-23
2021-12-27 15:27:35.629775,21
2021-12-27 15:27:35.629785,32
2021-12-27 15:27:35.629795,28
2021-12-27 15:27:35.826121,51
2021-12-27 15:27:35.826150,77
2021-12-27 15:27:35.826162,86
2021-12-27 15:27:35.826172,93
2021-12-27 15:27:35.826182,95
2021-12-27 15:27:35.826192,88
2021-12-27 15:27:35.826202,79
2021-12-27 15:27:35.826212,79
2021-12-27 15:27:35.826222,88
2021-12-27 15:27:35.826231,70
2021-12-27 15:27:35.826241,44
2021-12-27 15:27:35.826251,67
2021-12-27 15:27:35.826261,72
2021-12-27 15:27:35.826270,42
2021-12-27 15:27:35.826280,65
2021-12-27 15:27:35.826290,100
2021-12-27 15:27:35.826299,72
2021-12-27 15:27:35.826309,46
2021-12-27 15:27:35.826319,60
2021-12-27 15:27:35.826329,70
2021-12-27 15:27:35.826338,74
2021-12-27 15:27:35.826348,77
2021-12-27 15:27:35.826358,74
2021-12-27 15:27:35.826367,95
2021-12-27 15:27:35.826377,114
2021-12-27 15:27:35.826387,98
2021-12-27 15:27:35.826397,88
2021-12-27 15:27:35.826406,107
2021-12-27 15:27:35.826416,109
2021-12-27 15:27:35.826426,86
2021-12-27 15:27:36.118115,70
2021-12-27 15:27:36.118136,56
2021-12-27 15:27:36.118143,39
2021-12-27 15:27:36.118150,46
2021-12-27 15:27:36.118157,63
2021-12-27 15:27:36.118163,67
2021-12-27 15:27:36.118170,67
2021-12-27 15:27:36.118176,60
2021-12-27 15:27:36.118183,60
2021-12-27 15:27:36.118189,70
2021-12-27 15:27:36.118196,84
2021-12-27 15:27:36.118202,72
2021-12-27 15:27:36.118208,46
2021-12-27 15:27:36.118215,60
2021-12-27 15:27:36.118221,91
2021-12-27 15:27:36.118228,105
2021-12-27 15:27:36.118234,135
2021-12-27 15:27:36.118241,65
2021-12-27 15:27:36.118247,-336
2021-12-27 15:27:36.118254,-962
2021-12-27 15:27:36.118260,-1142
2021-12-27 15:27:36.118266,-453
2021-12-27 15:27:36.118273,280
2021-12-27 15:27:36.118279,247
2021-12-27 15:27:36.118286,39
2021-12-27 15:27:36.118292,135
2021-12-27 15:27:36.118299,189
2021-12-27 15:27:36.118305,114
2021-12-27 15:27:36.118312,112
2021-12-27 15:27:36.118318,140
2021-12-27 15:27:36.313385,105
2021-12-27 15:27:36.313415,70
2021-12-27 15:27:36.313427,74
2021-12-27 15:27:36.313437,65
2021-12-27 15:27:36.313447,28
2021-12-27 15:27:36.313457,21
2021-12-27 15:27:36.313466,42
2021-12-27 15:27:36.313476,32
2021-12-27 15:27:36.313486,-4
2021-12-27 15:27:36.313496,-30
2021-12-27 15:27:36.313505,-21
2021-12-27 15:27:36.313515,-14
2021-12-27 15:27:36.313525,-32
2021-12-27 15:27:36.313535,-44
2021-12-27 15:27:36.313544,-42
2021-12-27 15:27:36.313554,-35
2021-12-27 15:27:36.313564,-35
2021-12-27 15:27:36.313573,-42
2021-12-27 15:27:36.313583,-42
2021-12-27 15:27:36.313593,-42
2021-12-27 15:27:36.313603,-35
2021-12-27 15:27:36.313612,-18
2021-12-27 15:27:36.313622,-4
2021-12-27 15:27:36.313632,25
2021-12-27 15:27:36.313641,46
2021-12-27 15:27:36.313651,35
2021-12-27 15:27:36.313661,37
2021-12-27 15:27:36.313671,67
2021-12-27 15:27:36.313681,65
2021-12-27 15:27:36.313691,53
2021-12-27 15:27:36.507761,53
2021-12-27 15:27:36.507781,51
2021-12-27 15:27:36.507788,49
2021-12-27 15:27:36.507795,35
2021-12-27 15:27:36.507801,30
2021-12-27 15:27:36.507817,28
2021-12-27 15:27:36.507824,18
2021-12-27 15:27:36.507831,30
2021-12-27 15:27:36.507837,39
2021-12-27 15:27:36.507844,30
2021-12-27 15:27:36.507850,28
2021-12-27 15:27:36.507856,30
2021-12-27 15:27:36.507863,30
2021-12-27 15:27:36.507869,14
2021-12-27 15:27:36.507876,11
2021-12-27 15:27:36.507882,35
2021-12-27 15:27:36.507888,35
2021-12-27 15:27:36.507895,21
2021-12-27 15:27:36.507901,28
2021-12-27 15:27:36.507910,37
2021-12-27 15:27:36.507917,39
2021-12-27 15:27:36.507923,39
2021-12-27 15:27:36.507929,32
2021-12-27 15:27:36.507936,0
2021-12-27 15:27:36.507942,-32
2021-12-27 15:27:36.507949,-2
2021-12-27 15:27:36.507955,30
2021-12-27 15:27:36.507961,25
2021-12-27 15:27:36.507968,39
2021-12-27 15:27:36.507974,44
2021-12-27 15:27:36.752551,21
2021-12-27 15:27:36.752581,28
2021-12-27 15:27:36.752593,39
2021-12-27 15:27:36.752603,30
2021-12-27 15:27:36.752613,23
2021-12-27 15:27:36.752623,18
2021-12-27 15:27:36.752633,28
2021-12-27 15:27:36.752642,86
2021-12-27 15:27:36.752652,130
2021-12-27 15:27:36.752662,-14
2021-12-27 15:27:36.752673,-483
2021-12-27 15:27:36.752682,-1088
2021-12-27 15:27:36.752693,-1146
2021-12-27 15:27:36.752703,-338
2021-12-27 15:27:36.752713,312
2021-12-27 15:27:36.752722,142
2021-12-27 15:27:36.752732,-18
2021-12-27 15:27:36.752742,140
2021-12-27 15:27:36.752752,142
2021-12-27 15:27:36.752762,53
2021-12-27 15:27:36.752772,77
2021-12-27 15:27:36.752782,91
2021-12-27 15:27:36.752792,53
2021-12-27 15:27:36.752802,28
2021-12-27 15:27:36.752812,21
2021-12-27 15:27:36.752821,16
2021-12-27 15:27:36.752831,2
2021-12-27 15:27:36.752841,-16
2021-12-27 15:27:36.752851,-25
2021-12-27 15:27:36.752861,-18
2021-12-27 15:27:36.996210,-23
2021-12-27 15:27:36.996240,-46
2021-12-27 15:27:36.996252,-56
2021-12-27 15:27:36.996262,-42
2021-12-27 15:27:36.996272,-53
2021-12-27 15:27:36.996282,-86
2021-12-27 15:27:36.996292,-77
2021-12-27 15:27:36.996302,-56
2021-12-27 15:27:36.996312,-84
2021-12-27 15:27:36.996322,-98
2021-12-27 15:27:36.996332,-72
2021-12-27 15:27:36.996342,-74
2021-12-27 15:27:36.996352,-91
2021-12-27 15:27:36.996362,-67
2021-12-27 15:27:36.996372,-37
2021-12-27 15:27:36.996381,-49
2021-12-27 15:27:36.996391,-51
2021-12-27 15:27:36.996401,-25
2021-12-27 15:27:36.996411,-21
2021-12-27 15:27:36.996421,-30
2021-12-27 15:27:36.996431,-25
2021-12-27 15:27:36.996441,-23
2021-12-27 15:27:36.996451,-25
2021-12-27 15:27:36.996496,-25
2021-12-27 15:27:36.996506,-32
2021-12-27 15:27:36.996516,-32
2021-12-27 15:27:36.996525,-25
2021-12-27 15:27:36.996535,-16
2021-12-27 15:27:36.996545,-16
2021-12-27 15:27:36.996555,-28
2021-12-27 15:27:37.287859,-28
2021-12-27 15:27:37.287888,-14
2021-12-27 15:27:37.287900,2
2021-12-27 15:27:37.287911,9
2021-12-27 15:27:37.287921,21
2021-12-27 15:27:37.287931,39
2021-12-27 15:27:37.287941,16
2021-12-27 15:27:37.287951,-4
2021-12-27 15:27:37.287961,37
2021-12-27 15:27:37.287970,51
2021-12-27 15:27:37.287981,0
2021-12-27 15:27:37.287990,-4
2021-12-27 15:27:37.288000,25
2021-12-27 15:27:37.288010,23
2021-12-27 15:27:37.288020,32
2021-12-27 15:27:37.288030,56
2021-12-27 15:27:37.288039,53
2021-12-27 15:27:37.288049,46
2021-12-27 15:27:37.288059,49
2021-12-27 15:27:37.288069,49
2021-12-27 15:27:37.288079,46
2021-12-27 15:27:37.288089,39
2021-12-27 15:27:37.288099,49
2021-12-27 15:27:37.288108,56
2021-12-27 15:27:37.288118,53
2021-12-27 15:27:37.288128,100
2021-12-27 15:27:37.288138,156
2021-12-27 15:27:37.288148,9
2021-12-27 15:27:37.288158,-518
2021-12-27 15:27:37.288168,-1172
2021-12-27 15:27:37.482847,-1153
2021-12-27 15:27:37.482877,-207
2021-12-27 15:27:37.482888,446
2021-12-27 15:27:37.482899,179
2021-12-27 15:27:37.482908,9
2021-12-27 15:27:37.482918,179
2021-12-27 15:27:37.482928,147
2021-12-27 15:27:37.482937,60
2021-12-27 15:27:37.482947,93
2021-12-27 15:27:37.482956,93
2021-12-27 15:27:37.482966,53
2021-12-27 15:27:37.482975,60
2021-12-27 15:27:37.482985,49
2021-12-27 15:27:37.482995,-14
2021-12-27 15:27:37.483004,-32
2021-12-27 15:27:37.483014,4
2021-12-27 15:27:37.483024,-11
2021-12-27 15:27:37.483033,-53
2021-12-27 15:27:37.483043,-53
2021-12-27 15:27:37.483052,-46
2021-12-27 15:27:37.483062,-70
2021-12-27 15:27:37.483072,-84
2021-12-27 15:27:37.483081,-79
2021-12-27 15:27:37.483091,-86
2021-12-27 15:27:37.483100,-98
2021-12-27 15:27:37.483110,-105
2021-12-27 15:27:37.483120,-86
2021-12-27 15:27:37.483129,-65
2021-12-27 15:27:37.483139,-74
2021-12-27 15:27:37.483149,-70
2021-12-27 15:27:37.775022,-30
2021-12-27 15:27:37.775052,-23
2021-12-27 15:27:37.775063,-35
2021-12-27 15:27:37.775074,9
2021-12-27 15:27:37.775084,67
2021-12-27 15:27:37.775094,60
2021-12-27 15:27:37.775104,42
2021-12-27 15:27:37.775114,70
2021-12-27 15:27:37.775123,98
2021-12-27 15:27:37.775133,77
2021-12-27 15:27:37.775143,63
2021-12-27 15:27:37.775153,91
2021-12-27 15:27:37.775162,93
2021-12-27 15:27:37.775172,39
2021-12-27 15:27:37.775182,14
2021-12-27 15:27:37.775192,35
2021-12-27 15:27:37.775201,51
2021-12-27 15:27:37.775211,53
2021-12-27 15:27:37.775221,56
2021-12-27 15:27:37.775231,58
2021-12-27 15:27:37.775241,42
2021-12-27 15:27:37.775251,18
2021-12-27 15:27:37.775261,42
2021-12-27 15:27:37.775270,53
2021-12-27 15:27:37.775280,21
2021-12-27 15:27:37.775290,30
2021-12-27 15:27:37.775299,58
2021-12-27 15:27:37.775309,21
2021-12-27 15:27:37.775319,-23
2021-12-27 15:27:37.775329,18
2021-12-27 15:27:37.970696,58
2021-12-27 15:27:37.970726,35
2021-12-27 15:27:37.970737,21
2021-12-27 15:27:37.970747,35
2021-12-27 15:27:37.970757,30
2021-12-27 15:27:37.970766,11
2021-12-27 15:27:37.970776,-2
2021-12-27 15:27:37.970786,4
2021-12-27 15:27:37.970796,14
2021-12-27 15:27:37.970805,0
2021-12-27 15:27:37.970815,28
2021-12-27 15:27:37.970825,121
2021-12-27 15:27:37.970834,81
2021-12-27 15:27:37.970844,-331
2021-12-27 15:27:37.970854,-1058
2021-12-27 15:27:37.970863,-1434
2021-12-27 15:27:37.970873,-719
2021-12-27 15:27:37.970883,308
2021-12-27 15:27:37.970893,359
2021-12-27 15:27:37.970903,25
2021-12-27 15:27:37.970912,121
2021-12-27 15:27:37.970922,196
2021-12-27 15:27:37.970931,98
2021-12-27 15:27:37.970941,100
2021-12-27 15:27:37.970951,123
2021-12-27 15:27:37.970960,86
2021-12-27 15:27:37.970970,72
2021-12-27 15:27:37.970979,56
2021-12-27 15:27:37.970989,23
2021-12-27 15:27:37.970999,37
2021-12-27 15:27:38.117562,56
2021-12-27 15:27:38.117592,23
2021-12-27 15:27:38.117604,4
2021-12-27 15:27:38.117614,16
2021-12-27 15:27:38.117624,7
2021-12-27 15:27:38.117633,-7
2021-12-27 15:27:38.117643,0
2021-12-27 15:27:38.117653,-4
2021-12-27 15:27:38.117662,-28
2021-12-27 15:27:38.117672,-25
2021-12-27 15:27:38.117681,-7
2021-12-27 15:27:38.117691,2
2021-12-27 15:27:38.117701,-4
2021-12-27 15:27:38.117710,-11
2021-12-27 15:27:38.117720,4
2021-12-27 15:27:38.117730,35
2021-12-27 15:27:38.117739,28
2021-12-27 15:27:38.117749,11
2021-12-27 15:27:38.117759,44
2021-12-27 15:27:38.117768,77
2021-12-27 15:27:38.117778,67
2021-12-27 15:27:38.117787,74
2021-12-27 15:27:38.117797,93
2021-12-27 15:27:38.117807,86
2021-12-27 15:27:38.117816,84
2021-12-27 15:27:38.117826,105
2021-12-27 15:27:38.117835,86
2021-12-27 15:27:38.117845,46
2021-12-27 15:27:38.117855,56
2021-12-27 15:27:38.117864,84
2021-12-27 15:27:38.408992,70
2021-12-27 15:27:38.409011,51
2021-12-27 15:27:38.409016,56
2021-12-27 15:27:38.409021,46
2021-12-27 15:27:38.409025,37
2021-12-27 15:27:38.409029,46
2021-12-27 15:27:38.409034,49
2021-12-27 15:27:38.409038,58
2021-12-27 15:27:38.409043,56
2021-12-27 15:27:38.409047,32
2021-12-27 15:27:38.409052,28
2021-12-27 15:27:38.409056,37
2021-12-27 15:27:38.409061,51
2021-12-27 15:27:38.409065,53
2021-12-27 15:27:38.409069,49
2021-12-27 15:27:38.409074,67
2021-12-27 15:27:38.409078,86
2021-12-27 15:27:38.409083,70
2021-12-27 15:27:38.409087,51
2021-12-27 15:27:38.409091,56
2021-12-27 15:27:38.409096,74
2021-12-27 15:27:38.409100,77
2021-12-27 15:27:38.409105,72
2021-12-27 15:27:38.409109,79
2021-12-27 15:27:38.409114,114
2021-12-27 15:27:38.409118,170
2021-12-27 15:27:38.409122,77
2021-12-27 15:27:38.409127,-415
2021-12-27 15:27:38.409132,-1216
2021-12-27 15:27:38.409136,-1522
2021-12-27 15:27:38.604046,-632
2021-12-27 15:27:38.604063,406
2021-12-27 15:27:38.604070,322
2021-12-27 15:27:38.604075,0
2021-12-27 15:27:38.604080,189
2021-12-27 15:27:38.604086,259
2021-12-27 15:27:38.604091,121
2021-12-27 15:27:38.604096,123
2021-12-27 15:27:38.604101,156
2021-12-27 15:27:38.604106,112
2021-12-27 15:27:38.604111,86
2021-12-27 15:27:38.604116,91
2021-12-27 15:27:38.604121,79
2021-12-27 15:27:38.604126,67
2021-12-27 15:27:38.604131,58
2021-12-27 15:27:38.604136,56
2021-12-27 15:27:38.604142,53
2021-12-27 15:27:38.604147,37
2021-12-27 15:27:38.604152,28
2021-12-27 15:27:38.604157,30
2021-12-27 15:27:38.604162,21
2021-12-27 15:27:38.604167,9
2021-12-27 15:27:38.604172,7
2021-12-27 15:27:38.604177,9
2021-12-27 15:27:38.604182,14
2021-12-27 15:27:38.604188,28
2021-12-27 15:27:38.604193,42
2021-12-27 15:27:38.604198,37
2021-12-27 15:27:38.604203,25
2021-12-27 15:27:38.604208,25
2021-12-27 15:27:38.848633,30
2021-12-27 15:27:38.848653,44
2021-12-27 15:27:38.848661,60
2021-12-27 15:27:38.848668,60
2021-12-27 15:27:38.848674,53
2021-12-27 15:27:38.848681,63
2021-12-27 15:27:38.848687,81
2021-12-27 15:27:38.848693,79
2021-12-27 15:27:38.848700,63
2021-12-27 15:27:38.848706,67
2021-12-27 15:27:38.848712,67
2021-12-27 15:27:38.848719,37
2021-12-27 15:27:38.848725,25
2021-12-27 15:27:38.848732,44
2021-12-27 15:27:38.848738,39
2021-12-27 15:27:38.848744,21
2021-12-27 15:27:38.848751,28
2021-12-27 15:27:38.848757,37
2021-12-27 15:27:38.848763,28
2021-12-27 15:27:38.848770,23
2021-12-27 15:27:38.848776,39
2021-12-27 15:27:38.848782,46
2021-12-27 15:27:38.848789,30
2021-12-27 15:27:38.848795,16
2021-12-27 15:27:38.848801,16
2021-12-27 15:27:38.848808,18
2021-12-27 15:27:38.848814,14
2021-12-27 15:27:38.848820,14
2021-12-27 15:27:38.848827,25
2021-12-27 15:27:38.848833,39
2021-12-27 15:27:39.092313,46
2021-12-27 15:27:39.092343,44
2021-12-27 15:27:39.092354,46
2021-12-27 15:27:39.092364,56
2021-12-27 15:27:39.092374,44
2021-12-27 15:27:39.092384,16
2021-12-27 15:27:39.092394,11
2021-12-27 15:27:39.092404,32
2021-12-27 15:27:39.092414,56
2021-12-27 15:27:39.092424,105
2021-12-27 15:27:39.092433,147
2021-12-27 15:27:39.092443,-35
2021-12-27 15:27:39.092454,-616
2021-12-27 15:27:39.092463,-1324
2021-12-27 15:27:39.092473,-1312
2021-12-27 15:27:39.092483,-284
2021-12-27 15:27:39.092493,443
2021-12-27 15:27:39.092503,170
2021-12-27 15:27:39.092513,0
2021-12-27 15:27:39.092523,226
2021-12-27 15:27:39.092533,210
2021-12-27 15:27:39.092543,102
2021-12-27 15:27:39.092553,137
2021-12-27 15:27:39.092563,133
2021-12-27 15:27:39.092573,77
2021-12-27 15:27:39.092582,81
2021-12-27 15:27:39.092592,93
2021-12-27 15:27:39.092602,79
2021-12-27 15:27:39.092612,70
2021-12-27 15:27:39.092622,53
2021-12-27 15:27:39.336162,42
2021-12-27 15:27:39.336192,44
2021-12-27 15:27:39.336204,39
2021-12-27 15:27:39.336214,28
2021-12-27 15:27:39.336224,28
2021-12-27 15:27:39.336234,28
2021-12-27 15:27:39.336244,35
2021-12-27 15:27:39.336254,32
2021-12-27 15:27:39.336264,25
2021-12-27 15:27:39.336273,32
2021-12-27 15:27:39.336283,51
2021-12-27 15:27:39.336293,53
2021-12-27 15:27:39.336302,35
2021-12-27 15:27:39.336312,28
2021-12-27 15:27:39.336322,42
2021-12-27 15:27:39.336332,51
2021-12-27 15:27:39.336342,60
2021-12-27 15:27:39.336352,70
2021-12-27 15:27:39.336362,65
2021-12-27 15:27:39.336371,42
2021-12-27 15:27:39.336381,46
2021-12-27 15:27:39.336391,65
2021-12-27 15:27:39.336400,65
2021-12-27 15:27:39.336410,49
2021-12-27 15:27:39.336420,42
2021-12-27 15:27:39.336430,46
2021-12-27 15:27:39.336440,49
2021-12-27 15:27:39.336449,49
2021-12-27 15:27:39.336459,42
2021-12-27 15:27:39.336469,42
2021-12-27 15:27:39.579253,37
2021-12-27 15:27:39.579283,23
2021-12-27 15:27:39.579295,44
2021-12-27 15:27:39.579305,58
2021-12-27 15:27:39.579315,28
2021-12-27 15:27:39.579329,30
2021-12-27 15:27:39.579339,65
2021-12-27 15:27:39.579349,79
2021-12-27 15:27:39.579359,72
2021-12-27 15:27:39.579369,53
2021-12-27 15:27:39.579379,42
2021-12-27 15:27:39.579388,37
2021-12-27 15:27:39.579398,9
2021-12-27 15:27:39.579408,14
2021-12-27 15:27:39.579418,56
2021-12-27 15:27:39.579427,46
2021-12-27 15:27:39.579437,21
2021-12-27 15:27:39.579447,23
2021-12-27 15:27:39.579457,39
2021-12-27 15:27:39.579466,35
2021-12-27 15:27:39.579476,7
2021-12-27 15:27:39.579486,16
2021-12-27 15:27:39.579496,39
2021-12-27 15:27:39.579506,25
2021-12-27 15:27:39.579515,28
2021-12-27 15:27:39.579525,46
2021-12-27 15:27:39.579535,42
2021-12-27 15:27:39.579545,37
2021-12-27 15:27:39.579555,46
2021-12-27 15:27:39.579564,32
2021-12-27 15:27:39.773458,58
2021-12-27 15:27:39.773488,133
2021-12-27 15:27:39.773499,2
2021-12-27 15:27:39.773509,-527
2021-12-27 15:27:39.773519,-1221
2021-12-27 15:27:39.773529,-1293
2021-12-27 15:27:39.773539,-352
2021-12-27 15:27:39.773549,422
2021-12-27 15:27:39.773559,198
2021-12-27 15:27:39.773569,-16
2021-12-27 15:27:39.773579,177
2021-12-27 15:27:39.773588,182
2021-12-27 15:27:39.773598,77
2021-12-27 15:27:39.773608,109
2021-12-27 15:27:39.773618,123
2021-12-27 15:27:39.773628,65
2021-12-27 15:27:39.773637,44
2021-12-27 15:27:39.773647,49
2021-12-27 15:27:39.773657,44
2021-12-27 15:27:39.773667,35
2021-12-27 15:27:39.773676,23
2021-12-27 15:27:39.773686,14
2021-12-27 15:27:39.773696,2
2021-12-27 15:27:39.773706,0
2021-12-27 15:27:39.773716,2
2021-12-27 15:27:39.773725,-4
2021-12-27 15:27:39.773735,-7
2021-12-27 15:27:39.773745,-4
2021-12-27 15:27:39.773755,-7
2021-12-27 15:27:39.773765,-11
2021-12-27 15:27:40.018238,-4
2021-12-27 15:27:40.018259,7
2021-12-27 15:27:40.018267,16
2021-12-27 15:27:40.018273,23
2021-12-27 15:27:40.018280,25
2021-12-27 15:27:40.018286,14
2021-12-27 15:27:40.018293,0
2021-12-27 15:27:40.018299,7
2021-12-27 15:27:40.018305,7
2021-12-27 15:27:40.018312,11
2021-12-27 15:27:40.018318,30
2021-12-27 15:27:40.018324,39
2021-12-27 15:27:40.018331,30
2021-12-27 15:27:40.018337,23
2021-12-27 15:27:40.018343,18
2021-12-27 15:27:40.018350,9
2021-12-27 15:27:40.018356,11
2021-12-27 15:27:40.018362,14
2021-12-27 15:27:40.018369,7
2021-12-27 15:27:40.018375,7
2021-12-27 15:27:40.018381,7
2021-12-27 15:27:40.018388,7
2021-12-27 15:27:40.018394,7
2021-12-27 15:27:40.018400,4
2021-12-27 15:27:40.018407,4
2021-12-27 15:27:40.018413,11
2021-12-27 15:27:40.018419,14
2021-12-27 15:27:40.018426,18
2021-12-27 15:27:40.018432,23
2021-12-27 15:27:40.018438,25
2021-12-27 15:27:40.213621,25
2021-12-27 15:27:40.213651,30
2021-12-27 15:27:40.213662,35
2021-12-27 15:27:40.213672,30
2021-12-27 15:27:40.213682,32
2021-12-27 15:27:40.213692,35
2021-12-27 15:27:40.213702,30
2021-12-27 15:27:40.213711,32
2021-12-27 15:27:40.213721,35
2021-12-27 15:27:40.213731,25
2021-12-27 15:27:40.213740,18
2021-12-27 15:27:40.213750,11
2021-12-27 15:27:40.213760,-7
2021-12-27 15:27:40.213770,-11
2021-12-27 15:27:40.213780,7
2021-12-27 15:27:40.213789,21
2021-12-27 15:27:40.213799,18
2021-12-27 15:27:40.213809,18
2021-12-27 15:27:40.213818,16
2021-12-27 15:27:40.213828,4
2021-12-27 15:27:40.213837,-7
2021-12-27 15:27:40.213847,0
2021-12-27 15:27:40.213857,7
2021-12-27 15:27:40.213866,0
2021-12-27 15:27:40.213876,18
2021-12-27 15:27:40.213886,81
2021-12-27 15:27:40.213895,81
2021-12-27 15:27:40.213905,-168
2021-12-27 15:27:40.213915,-735
2021-12-27 15:27:40.213924,-1272
2021-12-27 15:27:40.457414,-1006
2021-12-27 15:27:40.457444,0
2021-12-27 15:27:40.457456,406
2021-12-27 15:27:40.457466,49
2021-12-27 15:27:40.457476,-2
2021-12-27 15:27:40.457486,182
2021-12-27 15:27:40.457496,128
2021-12-27 15:27:40.457521,58
2021-12-27 15:27:40.457531,88
2021-12-27 15:27:40.457541,79
2021-12-27 15:27:40.457551,46
2021-12-27 15:27:40.457561,37
2021-12-27 15:27:40.457571,35
2021-12-27 15:27:40.457581,28
2021-12-27 15:27:40.457590,21
2021-12-27 15:27:40.457600,18
2021-12-27 15:27:40.457610,23
2021-12-27 15:27:40.457620,7
2021-12-27 15:27:40.457630,-18
2021-12-27 15:27:40.457639,-16
2021-12-27 15:27:40.457649,-9
2021-12-27 15:27:40.457659,-18
2021-12-27 15:27:40.457669,-9
2021-12-27 15:27:40.457678,7
2021-12-27 15:27:40.457688,14
2021-12-27 15:27:40.457698,35
2021-12-27 15:27:40.457708,39
2021-12-27 15:27:40.457718,11
2021-12-27 15:27:40.457727,4
2021-12-27 15:27:40.457737,16
2021-12-27 15:27:40.651729,4
2021-12-27 15:27:40.651753,-4
2021-12-27 15:27:40.651763,11
2021-12-27 15:27:40.651772,23
2021-12-27 15:27:40.651781,21
2021-12-27 15:27:40.651791,30
2021-12-27 15:27:40.651801,51
2021-12-27 15:27:40.651810,53
2021-12-27 15:27:40.651820,46
2021-12-27 15:27:40.651830,46
2021-12-27 15:27:40.651839,44
2021-12-27 15:27:40.651849,37
2021-12-27 15:27:40.651859,30
2021-12-27 15:27:40.651868,32
2021-12-27 15:27:40.651878,42
2021-12-27 15:27:40.651887,44
2021-12-27 15:27:40.651897,28
2021-12-27 15:27:40.651907,21
2021-12-27 15:27:40.651916,39
2021-12-27 15:27:40.651926,42
2021-12-27 15:27:40.651935,23
2021-12-27 15:27:40.651947,25
2021-12-27 15:27:40.651955,42
2021-12-27 15:27:40.651963,42
2021-12-27 15:27:40.651971,35
2021-12-27 15:27:40.651979,35
2021-12-27 15:27:40.651986,35
2021-12-27 15:27:40.651994,37
2021-12-27 15:27:40.652002,42
2021-12-27 15:27:40.652009,32
2021-12-27 15:27:40.895717,25
2021-12-27 15:27:40.895739,39
2021-12-27 15:27:40.895747,37
2021-12-27 15:27:40.895753,28
2021-12-27 15:27:40.895759,42
2021-12-27 15:27:40.895766,35
2021-12-27 15:27:40.895772,11
2021-12-27 15:27:40.895778,7
2021-12-27 15:27:40.895785,9
2021-12-27 15:27:40.895823,11
2021-12-27 15:27:40.895829,14
2021-12-27 15:27:40.895836,18
2021-12-27 15:27:40.895842,21
2021-12-27 15:27:40.895848,23
2021-12-27 15:27:40.895855,21
2021-12-27 15:27:40.895861,14
2021-12-27 15:27:40.895867,16
2021-12-27 15:27:40.895874,23
2021-12-27 15:27:40.895880,18
2021-12-27 15:27:40.895886,18
2021-12-27 15:27:40.895892,39
2021-12-27 15:27:40.895899,86
2021-12-27 15:27:40.895905,58
2021-12-27 15:27:40.895911,-245
2021-12-27 15:27:40.895918,-854
2021-12-27 15:27:40.895924,-1244
2021-12-27 15:27:40.895931,-681
2021-12-27 15:27:40.895937,261
2021-12-27 15:27:40.895944,326
2021-12-27 15:27:40.895950,-21
2021-12-27 15:27:41.237356,74
2021-12-27 15:27:41.237386,186
2021-12-27 15:27:41.237398,84
2021-12-27 15:27:41.237409,67
2021-12-27 15:27:41.237419,100
2021-12-27 15:27:41.237429,58
2021-12-27 15:27:41.237439,42
2021-12-27 15:27:41.237449,67
2021-12-27 15:27:41.237459,49
2021-12-27 15:27:41.237468,18
2021-12-27 15:27:41.237478,21
2021-12-27 15:27:41.237488,28
2021-12-27 15:27:41.237498,18
2021-12-27 15:27:41.237508,7
2021-12-27 15:27:41.237517,4
2021-12-27 15:27:41.237527,-2
2021-12-27 15:27:41.237537,-2
2021-12-27 15:27:41.237547,14
2021-12-27 15:27:41.237557,21
2021-12-27 15:27:41.237567,16
2021-12-27 15:27:41.237576,23
2021-12-27 15:27:41.237586,28
2021-12-27 15:27:41.237596,16
2021-12-27 15:27:41.237606,18
2021-12-27 15:27:41.237615,23
2021-12-27 15:27:41.237625,11
2021-12-27 15:27:41.237635,-4
2021-12-27 15:27:41.237645,-9
2021-12-27 15:27:41.237655,2
2021-12-27 15:27:41.237664,18
2021-12-27 15:27:41.334917,25
2021-12-27 15:27:41.334946,37
2021-12-27 15:27:41.334958,51
2021-12-27 15:27:41.334968,51
2021-12-27 15:27:41.334978,44
2021-12-27 15:27:41.334988,44
2021-12-27 15:27:41.334998,42
2021-12-27 15:27:41.335008,44
2021-12-27 15:27:41.335018,44
2021-12-27 15:27:41.335028,35
2021-12-27 15:27:41.335038,30
2021-12-27 15:27:41.335048,37
2021-12-27 15:27:41.335058,49
2021-12-27 15:27:41.335067,49
2021-12-27 15:27:41.335077,42
2021-12-27 15:27:41.335087,39
2021-12-27 15:27:41.335097,39
2021-12-27 15:27:41.335107,37
2021-12-27 15:27:41.335117,35
2021-12-27 15:27:41.335127,39
2021-12-27 15:27:41.335136,39
2021-12-27 15:27:41.335146,32
2021-12-27 15:27:41.335156,35
2021-12-27 15:27:41.335166,46
2021-12-27 15:27:41.335176,37
2021-12-27 15:27:41.335186,23
2021-12-27 15:27:41.335195,32
2021-12-27 15:27:41.335205,46
2021-12-27 15:27:41.335215,49
2021-12-27 15:27:41.335225,44
2021-12-27 15:27:41.578758,30
2021-12-27 15:27:41.578779,11
2021-12-27 15:27:41.578786,4
2021-12-27 15:27:41.578793,-2
2021-12-27 15:27:41.578799,-4
2021-12-27 15:27:41.578806,14
2021-12-27 15:27:41.578812,23
2021-12-27 15:27:41.578818,21
2021-12-27 15:27:41.578825,25
2021-12-27 15:27:41.578831,28
2021-12-27 15:27:41.578837,23
2021-12-27 15:27:41.578844,18
2021-12-27 15:27:41.578850,18
2021-12-27 15:27:41.578856,18
2021-12-27 15:27:41.578863,32
2021-12-27 15:27:41.578869,81
2021-12-27 15:27:41.578875,88
2021-12-27 15:27:41.578882,-123
2021-12-27 15:27:41.578888,-646
2021-12-27 15:27:41.578895,-1165
2021-12-27 15:27:41.578901,-964
2021-12-27 15:27:41.578907,-32
2021-12-27 15:27:41.578914,415
2021-12-27 15:27:41.578920,98
2021-12-27 15:27:41.578927,4
2021-12-27 15:27:41.578933,179
2021-12-27 15:27:41.578939,135
2021-12-27 15:27:41.578946,51
2021-12-27 15:27:41.578952,79
2021-12-27 15:27:41.578958,77
2021-12-27 15:27:41.869917,42
2021-12-27 15:27:41.869938,39
2021-12-27 15:27:41.869946,37
2021-12-27 15:27:41.869953,21
2021-12-27 15:27:41.869959,9
2021-12-27 15:27:41.869965,7
2021-12-27 15:27:41.869972,0
2021-12-27 15:27:41.869978,-16
2021-12-27 15:27:41.869985,-25
2021-12-27 15:27:41.869991,-28
2021-12-27 15:27:41.869998,-37
2021-12-27 15:27:41.870004,-39
2021-12-27 15:27:41.870010,-39
2021-12-27 15:27:41.870017,-42
2021-12-27 15:27:41.870023,-44
2021-12-27 15:27:41.870029,-39
2021-12-27 15:27:41.870036,-37
2021-12-27 15:27:41.870042,-39
2021-12-27 15:27:41.870048,-44
2021-12-27 15:27:41.870054,-51
2021-12-27 15:27:41.870061,-65
2021-12-27 15:27:41.870067,-70
2021-12-27 15:27:41.870073,-49
2021-12-27 15:27:41.870080,-28
2021-12-27 15:27:41.870086,-18
2021-12-27 15:27:41.870092,-7
2021-12-27 15:27:41.870098,7
2021-12-27 15:27:41.870105,7
2021-12-27 15:27:41.870111,7
2021-12-27 15:27:41.870118,4
2021-12-27 15:27:42.066602,0
2021-12-27 15:27:42.066632,-4
2021-12-27 15:27:42.066644,-7
2021-12-27 15:27:42.066654,-7
2021-12-27 15:27:42.066664,-9
2021-12-27 15:27:42.066674,-14
2021-12-27 15:27:42.066684,-21
2021-12-27 15:27:42.066694,-28
2021-12-27 15:27:42.066704,-28
2021-12-27 15:27:42.066714,-35
2021-12-27 15:27:42.066724,-35
2021-12-27 15:27:42.066734,-25
2021-12-27 15:27:42.066743,-28
2021-12-27 15:27:42.066753,-35
2021-12-27 15:27:42.066763,-35
2021-12-27 15:27:42.066773,-30
2021-12-27 15:27:42.066783,-23
2021-12-27 15:27:42.066793,-21
2021-12-27 15:27:42.066802,-25
2021-12-27 15:27:42.066812,-30
2021-12-27 15:27:42.066822,-35
2021-12-27 15:27:42.066832,-39
2021-12-27 15:27:42.066842,-32
2021-12-27 15:27:42.066852,-21
2021-12-27 15:27:42.066861,-11
2021-12-27 15:27:42.066871,-9
2021-12-27 15:27:42.066881,0
2021-12-27 15:27:42.066891,4
2021-12-27 15:27:42.066901,-4
2021-12-27 15:27:42.066911,-7
2021-12-27 15:27:42.309951,4
2021-12-27 15:27:42.309981,0
2021-12-27 15:27:42.309992,-4
2021-12-27 15:27:42.310003,32
2021-12-27 15:27:42.310013,91
2021-12-27 15:27:42.310022,49
2021-12-27 15:27:42.310032,-273
2021-12-27 15:27:42.310042,-857
2021-12-27 15:27:42.310052,-1149
2021-12-27 15:27:42.310061,-527
2021-12-27 15:27:42.310071,319
2021-12-27 15:27:42.310081,284
2021-12-27 15:27:42.310091,-37
2021-12-27 15:27:42.310100,77
2021-12-27 15:27:42.310110,149
2021-12-27 15:27:42.310120,30
2021-12-27 15:27:42.310130,30
2021-12-27 15:27:42.310140,72
2021-12-27 15:27:42.310149,30
2021-12-27 15:27:42.310159,7
2021-12-27 15:27:42.310168,21
2021-12-27 15:27:42.310178,9
2021-12-27 15:27:42.310188,-14
2021-12-27 15:27:42.310198,-16
2021-12-27 15:27:42.310207,-18
2021-12-27 15:27:42.310217,-32
2021-12-27 15:27:42.310227,-39
2021-12-27 15:27:42.310236,-42
2021-12-27 15:27:42.310246,-44
2021-12-27 15:27:42.310256,-51
2021-12-27 15:27:42.505265,-53
2021-12-27 15:27:42.505295,-49
2021-12-27 15:27:42.505307,-49
2021-12-27 15:27:42.505317,-53
2021-12-27 15:27:42.505327,-51
2021-12-27 15:27:42.505336,-49
2021-12-27 15:27:42.505346,-56
2021-12-27 15:27:42.505356,-63
2021-12-27 15:27:42.505366,-60
2021-12-27 15:27:42.505375,-51
2021-12-27 15:27:42.505385,-32
2021-12-27 15:27:42.505395,-9
2021-12-27 15:27:42.505405,11
2021-12-27 15:27:42.505415,25
2021-12-27 15:27:42.505425,39
2021-12-27 15:27:42.505434,44
2021-12-27 15:27:42.505444,42
2021-12-27 15:27:42.505454,37
2021-12-27 15:27:42.505464,25
2021-12-27 15:27:42.505473,23
2021-12-27 15:27:42.505483,30
2021-12-27 15:27:42.505493,25
2021-12-27 15:27:42.505503,11
2021-12-27 15:27:42.505512,11
2021-12-27 15:27:42.505522,11
2021-12-27 15:27:42.505532,11
2021-12-27 15:27:42.505542,16
2021-12-27 15:27:42.505551,18
2021-12-27 15:27:42.505561,11
2021-12-27 15:27:42.505571,9
2021-12-27 15:27:42.748677,21
2021-12-27 15:27:42.748717,23
2021-12-27 15:27:42.748728,23
2021-12-27 15:27:42.748738,28
2021-12-27 15:27:42.748748,35
2021-12-27 15:27:42.748758,37
2021-12-27 15:27:42.748768,35
2021-12-27 15:27:42.748778,32
2021-12-27 15:27:42.748869,25
2021-12-27 15:27:42.748880,21
2021-12-27 15:27:42.748890,16
2021-12-27 15:27:42.748900,14
2021-12-27 15:27:42.748910,16
2021-12-27 15:27:42.748919,25
2021-12-27 15:27:42.748929,32
2021-12-27 15:27:42.748939,32
2021-12-27 15:27:42.748948,35
2021-12-27 15:27:42.748958,37
2021-12-27 15:27:42.748967,35
2021-12-27 15:27:42.748977,35
2021-12-27 15:27:42.748987,37
2021-12-27 15:27:42.748996,35
2021-12-27 15:27:42.749006,49
2021-12-27 15:27:42.749015,107
2021-12-27 15:27:42.749025,140
2021-12-27 15:27:42.749034,-60
2021-12-27 15:27:42.749044,-632
2021-12-27 15:27:42.749054,-1279
2021-12-27 15:27:42.749064,-1188
2021-12-27 15:27:42.749073,-210
2021-12-27 15:27:43.041471,387
2021-12-27 15:27:43.041493,128
2021-12-27 15:27:43.041501,16
2021-12-27 15:27:43.041508,200
2021-12-27 15:27:43.041514,172
2021-12-27 15:27:43.041520,93
2021-12-27 15:27:43.041527,128
2021-12-27 15:27:43.041533,119
2021-12-27 15:27:43.041540,67
2021-12-27 15:27:43.041546,63
2021-12-27 15:27:43.041553,67
2021-12-27 15:27:43.041559,49
2021-12-27 15:27:43.041565,32
2021-12-27 15:27:43.041571,28
2021-12-27 15:27:43.041578,21
2021-12-27 15:27:43.041584,9
2021-12-27 15:27:43.041590,-2
2021-12-27 15:27:43.041597,-9
2021-12-27 15:27:43.041603,-11
2021-12-27 15:27:43.041610,-14
2021-12-27 15:27:43.041616,-18
2021-12-27 15:27:43.041622,-21
2021-12-27 15:27:43.041629,-16
2021-12-27 15:27:43.041635,-9
2021-12-27 15:27:43.041641,-2
2021-12-27 15:27:43.041648,7
2021-12-27 15:27:43.041654,14
2021-12-27 15:27:43.041660,11
2021-12-27 15:27:43.041666,9
2021-12-27 15:27:43.041673,11
2021-12-27 15:27:43.236180,16
2021-12-27 15:27:43.236209,21
2021-12-27 15:27:43.236221,30
2021-12-27 15:27:43.236231,35
2021-12-27 15:27:43.236241,39
2021-12-27 15:27:43.236251,46
2021-12-27 15:27:43.236261,44
2021-12-27 15:27:43.236271,37
2021-12-27 15:27:43.236280,35
2021-12-27 15:27:43.236290,32
2021-12-27 15:27:43.236300,28
2021-12-27 15:27:43.236310,23
2021-12-27 15:27:43.236319,25
2021-12-27 15:27:43.236329,25
2021-12-27 15:27:43.236339,25
2021-12-27 15:27:43.236349,25
2021-12-27 15:27:43.236359,23
2021-12-27 15:27:43.236369,23
2021-12-27 15:27:43.236379,25
2021-12-27 15:27:43.236388,25
2021-12-27 15:27:43.236398,30
2021-12-27 15:27:43.236408,37
2021-12-27 15:27:43.236417,35
2021-12-27 15:27:43.236427,32
2021-12-27 15:27:43.236437,37
2021-12-27 15:27:43.236447,39
2021-12-27 15:27:43.236457,32
2021-12-27 15:27:43.236467,18
2021-12-27 15:27:43.236477,9
2021-12-27 15:27:43.236487,11
2021-12-27 15:27:43.480381,23
2021-12-27 15:27:43.480404,32
2021-12-27 15:27:43.480411,35
2021-12-27 15:27:43.480418,37
2021-12-27 15:27:43.480424,32
2021-12-27 15:27:43.480430,23
2021-12-27 15:27:43.480437,32
2021-12-27 15:27:43.480443,30
2021-12-27 15:27:43.480449,21
2021-12-27 15:27:43.480456,25
2021-12-27 15:27:43.480462,49
2021-12-27 15:27:43.480468,95
2021-12-27 15:27:43.480475,112
2021-12-27 15:27:43.480481,-107
2021-12-27 15:27:43.480488,-691
2021-12-27 15:27:43.480494,-1286
2021-12-27 15:27:43.480500,-1097
2021-12-27 15:27:43.480506,-128
2021-12-27 15:27:43.480513,359
2021-12-27 15:27:43.480519,91
2021-12-27 15:27:43.480526,21
2021-12-27 15:27:43.480532,191
2021-12-27 15:27:43.480538,149
2021-12-27 15:27:43.480545,72
2021-12-27 15:27:43.480551,100
2021-12-27 15:27:43.480557,95
2021-12-27 15:27:43.480563,58
2021-12-27 15:27:43.480570,51
2021-12-27 15:27:43.480576,56
2021-12-27 15:27:43.480583,44
2021-12-27 15:27:43.821354,23
2021-12-27 15:27:43.821377,9
2021-12-27 15:27:43.821385,0
2021-12-27 15:27:43.821392,-4
2021-12-27 15:27:43.821398,-7
2021-12-27 15:27:43.821405,-14
2021-12-27 15:27:43.821411,-25
2021-12-27 15:27:43.821417,-32
2021-12-27 15:27:43.821424,-35
2021-12-27 15:27:43.821430,-35
2021-12-27 15:27:43.821436,-35
2021-12-27 15:27:43.821443,-23
2021-12-27 15:27:43.821449,-11
2021-12-27 15:27:43.821456,-11
2021-12-27 15:27:43.821462,-7
2021-12-27 15:27:43.821468,9
2021-12-27 15:27:43.821474,18
2021-12-27 15:27:43.821481,23
2021-12-27 15:27:43.821487,30
2021-12-27 15:27:43.821494,35
2021-12-27 15:27:43.821500,42
2021-12-27 15:27:43.821506,58
2021-12-27 15:27:43.821512,63
2021-12-27 15:27:43.821519,51
2021-12-27 15:27:43.821525,42
2021-12-27 15:27:43.821531,39
2021-12-27 15:27:43.821538,39
2021-12-27 15:27:43.821544,42
2021-12-27 15:27:43.821550,28
2021-12-27 15:27:43.821557,16
2021-12-27 15:27:44.014833,18
2021-12-27 15:27:44.014863,21
2021-12-27 15:27:44.014874,28
2021-12-27 15:27:44.014884,28
2021-12-27 15:27:44.014894,21
2021-12-27 15:27:44.014904,18
2021-12-27 15:27:44.014914,25
2021-12-27 15:27:44.014924,23
2021-12-27 15:27:44.014934,14
2021-12-27 15:27:44.014943,16
2021-12-27 15:27:44.014953,16
2021-12-27 15:27:44.014963,4
2021-12-27 15:27:44.014973,-4
2021-12-27 15:27:44.014983,-2
2021-12-27 15:27:44.014993,2
2021-12-27 15:27:44.015003,9
2021-12-27 15:27:44.015013,23
2021-12-27 15:27:44.015022,42
2021-12-27 15:27:44.015032,49
2021-12-27 15:27:44.015042,46
2021-12-27 15:27:44.015052,49
2021-12-27 15:27:44.015062,51
2021-12-27 15:27:44.015072,51
2021-12-27 15:27:44.015082,46
2021-12-27 15:27:44.015091,44
2021-12-27 15:27:44.015101,77
2021-12-27 15:27:44.015111,144
2021-12-27 15:27:44.015121,119
2021-12-27 15:27:44.015131,-205
2021-12-27 15:27:44.015141,-833
2021-12-27 15:27:44.114106,-1230
2021-12-27 15:27:44.114137,-670
2021-12-27 15:27:44.114149,268
2021-12-27 15:27:44.114159,333
2021-12-27 15:27:44.114169,-21
2021-12-27 15:27:44.114179,60
2021-12-27 15:27:44.114189,151
2021-12-27 15:27:44.114198,25
2021-12-27 15:27:44.114208,9
2021-12-27 15:27:44.114218,49
2021-12-27 15:27:44.114228,16
2021-12-27 15:27:44.114238,-4
2021-12-27 15:27:44.114248,4
2021-12-27 15:27:44.114258,-4
2021-12-27 15:27:44.114267,-11
2021-12-27 15:27:44.114277,-14
2021-12-27 15:27:44.114287,-23
2021-12-27 15:27:44.114297,-28
2021-12-27 15:27:44.114306,-35
2021-12-27 15:27:44.114316,-44
2021-12-27 15:27:44.114326,-46
2021-12-27 15:27:44.114336,-53
2021-12-27 15:27:44.114346,-63
2021-12-27 15:27:44.114355,-60
2021-12-27 15:27:44.114365,-63
2021-12-27 15:27:44.114423,-67
2021-12-27 15:27:44.114434,-58
2021-12-27 15:27:44.114443,-53
2021-12-27 15:27:44.114453,-58
2021-12-27 15:27:44.114463,-53
2021-12-27 15:27:44.357539,-42
