Time,ECG
2021-12-27 15:37:18.008829,25
2021-12-27 15:37:18.008850,37
2021-12-27 15:37:18.008858,51
2021-12-27 15:37:18.008864,63
2021-12-27 15:37:18.008871,72
2021-12-27 15:37:18.008878,86
2021-12-27 15:37:18.008884,102
2021-12-27 15:37:18.008891,116
2021-12-27 15:37:18.008897,121
2021-12-27 15:37:18.008904,123
2021-12-27 15:37:18.008911,123
2021-12-27 15:37:18.008917,123
2021-12-27 15:37:18.008924,114
2021-12-27 15:37:18.008930,105
2021-12-27 15:37:18.008936,107
2021-12-27 15:37:18.008943,105
2021-12-27 15:37:18.008949,100
2021-12-27 15:37:18.008956,93
2021-12-27 15:37:18.008962,91
2021-12-27 15:37:18.008969,91
2021-12-27 15:37:18.008975,84
2021-12-27 15:37:18.008981,81
2021-12-27 15:37:18.008988,84
2021-12-27 15:37:18.008994,86
2021-12-27 15:37:18.009001,88
2021-12-27 15:37:18.009007,91
2021-12-27 15:37:18.009014,93
2021-12-27 15:37:18.009020,93
2021-12-27 15:37:18.009027,95
2021-12-27 15:37:18.009033,93
2021-12-27 15:37:18.251864,91
2021-12-27 15:37:18.251884,100
2021-12-27 15:37:18.251892,112
2021-12-27 15:37:18.251899,109
2021-12-27 15:37:18.251906,102
2021-12-27 15:37:18.251912,95
2021-12-27 15:37:18.251920,74
2021-12-27 15:37:18.251926,63
2021-12-27 15:37:18.251933,74
2021-12-27 15:37:18.251939,84
2021-12-27 15:37:18.251946,86
2021-12-27 15:37:18.251952,93
2021-12-27 15:37:18.251958,95
2021-12-27 15:37:18.251965,93
2021-12-27 15:37:18.251972,93
2021-12-27 15:37:18.251978,91
2021-12-27 15:37:18.251984,88
2021-12-27 15:37:18.251991,95
2021-12-27 15:37:18.251998,95
2021-12-27 15:37:18.252004,88
2021-12-27 15:37:18.252011,98
2021-12-27 15:37:18.252017,147
2021-12-27 15:37:18.252024,196
2021-12-27 15:37:18.252030,81
2021-12-27 15:37:18.252037,-411
2021-12-27 15:37:18.252043,-1200
2021-12-27 15:37:18.252050,-1520
2021-12-27 15:37:18.252056,-684
2021-12-27 15:37:18.252063,333
2021-12-27 15:37:18.252071,326
2021-12-27 15:37:18.544905,51
2021-12-27 15:37:18.544932,205
2021-12-27 15:37:18.544943,270
2021-12-27 15:37:18.544953,161
2021-12-27 15:37:18.544965,163
2021-12-27 15:37:18.544978,189
2021-12-27 15:37:18.544988,144
2021-12-27 15:37:18.544999,123
2021-12-27 15:37:18.545008,123
2021-12-27 15:37:18.545019,100
2021-12-27 15:37:18.545029,77
2021-12-27 15:37:18.545039,79
2021-12-27 15:37:18.545048,74
2021-12-27 15:37:18.545064,49
2021-12-27 15:37:18.545074,30
2021-12-27 15:37:18.545084,21
2021-12-27 15:37:18.545094,7
2021-12-27 15:37:18.545105,-7
2021-12-27 15:37:18.545115,-16
2021-12-27 15:37:18.545125,-23
2021-12-27 15:37:18.545135,-30
2021-12-27 15:37:18.545145,-35
2021-12-27 15:37:18.545155,-35
2021-12-27 15:37:18.545165,-23
2021-12-27 15:37:18.545175,-16
2021-12-27 15:37:18.545185,-11
2021-12-27 15:37:18.545195,0
2021-12-27 15:37:18.545205,21
2021-12-27 15:37:18.545214,44
2021-12-27 15:37:18.545227,72
2021-12-27 15:37:18.691483,98
2021-12-27 15:37:18.691504,114
2021-12-27 15:37:18.691511,123
2021-12-27 15:37:18.691518,128
2021-12-27 15:37:18.691524,130
2021-12-27 15:37:18.691531,130
2021-12-27 15:37:18.691537,130
2021-12-27 15:37:18.691544,126
2021-12-27 15:37:18.691550,116
2021-12-27 15:37:18.691556,109
2021-12-27 15:37:18.691563,100
2021-12-27 15:37:18.691569,95
2021-12-27 15:37:18.691575,100
2021-12-27 15:37:18.691581,98
2021-12-27 15:37:18.691588,91
2021-12-27 15:37:18.691594,86
2021-12-27 15:37:18.691601,86
2021-12-27 15:37:18.691610,88
2021-12-27 15:37:18.691617,88
2021-12-27 15:37:18.691623,93
2021-12-27 15:37:18.691630,98
2021-12-27 15:37:18.691636,93
2021-12-27 15:37:18.691642,91
2021-12-27 15:37:18.691649,88
2021-12-27 15:37:18.691655,93
2021-12-27 15:37:18.691661,100
2021-12-27 15:37:18.691668,102
2021-12-27 15:37:18.691674,100
2021-12-27 15:37:18.691680,98
2021-12-27 15:37:18.691687,84
2021-12-27 15:37:19.031266,65
2021-12-27 15:37:19.031295,60
2021-12-27 15:37:19.031307,77
2021-12-27 15:37:19.031317,86
2021-12-27 15:37:19.031327,84
2021-12-27 15:37:19.031337,93
2021-12-27 15:37:19.031347,102
2021-12-27 15:37:19.031364,100
2021-12-27 15:37:19.031374,98
2021-12-27 15:37:19.031384,98
2021-12-27 15:37:19.031394,95
2021-12-27 15:37:19.031404,91
2021-12-27 15:37:19.031414,86
2021-12-27 15:37:19.031424,86
2021-12-27 15:37:19.031434,93
2021-12-27 15:37:19.031444,130
2021-12-27 15:37:19.031454,191
2021-12-27 15:37:19.031463,144
2021-12-27 15:37:19.031473,-235
2021-12-27 15:37:19.031483,-980
2021-12-27 15:37:19.031493,-1513
2021-12-27 15:37:19.031503,-971
2021-12-27 15:37:19.031513,133
2021-12-27 15:37:19.031523,390
2021-12-27 15:37:19.031533,77
2021-12-27 15:37:19.031543,147
2021-12-27 15:37:19.031553,282
2021-12-27 15:37:19.031563,182
2021-12-27 15:37:19.031573,144
2021-12-27 15:37:19.031584,186
2021-12-27 15:37:19.178881,154
2021-12-27 15:37:19.178910,114
2021-12-27 15:37:19.178922,116
2021-12-27 15:37:19.178932,105
2021-12-27 15:37:19.178942,86
2021-12-27 15:37:19.178952,79
2021-12-27 15:37:19.178962,65
2021-12-27 15:37:19.178971,46
2021-12-27 15:37:19.178981,37
2021-12-27 15:37:19.178991,28
2021-12-27 15:37:19.179001,11
2021-12-27 15:37:19.179010,0
2021-12-27 15:37:19.179020,-9
2021-12-27 15:37:19.179030,-25
2021-12-27 15:37:19.179040,-30
2021-12-27 15:37:19.179049,-30
2021-12-27 15:37:19.179059,-32
2021-12-27 15:37:19.179069,-28
2021-12-27 15:37:19.179079,-21
2021-12-27 15:37:19.179089,-14
2021-12-27 15:37:19.179098,0
2021-12-27 15:37:19.179108,18
2021-12-27 15:37:19.179118,37
2021-12-27 15:37:19.179128,60
2021-12-27 15:37:19.179145,88
2021-12-27 15:37:19.179154,105
2021-12-27 15:37:19.179164,116
2021-12-27 15:37:19.179174,123
2021-12-27 15:37:19.179184,128
2021-12-27 15:37:19.179194,133
2021-12-27 15:37:19.373346,130
2021-12-27 15:37:19.373375,123
2021-12-27 15:37:19.373388,114
2021-12-27 15:37:19.373399,107
2021-12-27 15:37:19.373412,100
2021-12-27 15:37:19.373423,100
2021-12-27 15:37:19.373435,100
2021-12-27 15:37:19.373447,98
2021-12-27 15:37:19.373459,98
2021-12-27 15:37:19.373470,93
2021-12-27 15:37:19.373482,91
2021-12-27 15:37:19.373493,95
2021-12-27 15:37:19.373501,98
2021-12-27 15:37:19.373507,98
2021-12-27 15:37:19.373514,95
2021-12-27 15:37:19.373520,91
2021-12-27 15:37:19.373526,95
2021-12-27 15:37:19.373533,102
2021-12-27 15:37:19.373539,102
2021-12-27 15:37:19.373545,98
2021-12-27 15:37:19.373552,100
2021-12-27 15:37:19.373558,98
2021-12-27 15:37:19.373567,93
2021-12-27 15:37:19.373573,93
2021-12-27 15:37:19.373580,95
2021-12-27 15:37:19.373586,93
2021-12-27 15:37:19.373592,77
2021-12-27 15:37:19.373599,65
2021-12-27 15:37:19.373605,70
2021-12-27 15:37:19.373611,77
2021-12-27 15:37:19.617876,84
2021-12-27 15:37:19.617906,95
2021-12-27 15:37:19.617917,107
2021-12-27 15:37:19.617927,102
2021-12-27 15:37:19.617937,95
2021-12-27 15:37:19.617946,98
2021-12-27 15:37:19.617956,93
2021-12-27 15:37:19.617966,86
2021-12-27 15:37:19.617975,88
2021-12-27 15:37:19.617985,86
2021-12-27 15:37:19.617995,84
2021-12-27 15:37:19.618004,114
2021-12-27 15:37:19.618014,179
2021-12-27 15:37:19.618024,168
2021-12-27 15:37:19.618033,-130
2021-12-27 15:37:19.618043,-815
2021-12-27 15:37:19.618053,-1429
2021-12-27 15:37:19.618063,-1076
2021-12-27 15:37:19.618072,11
2021-12-27 15:37:19.618082,401
2021-12-27 15:37:19.618092,105
2021-12-27 15:37:19.618101,121
2021-12-27 15:37:19.618111,280
2021-12-27 15:37:19.618121,203
2021-12-27 15:37:19.618136,151
2021-12-27 15:37:19.618146,189
2021-12-27 15:37:19.618156,163
2021-12-27 15:37:19.618166,123
2021-12-27 15:37:19.618175,116
2021-12-27 15:37:19.618185,105
2021-12-27 15:37:19.910170,91
2021-12-27 15:37:19.910200,91
2021-12-27 15:37:19.910212,77
2021-12-27 15:37:19.910222,56
2021-12-27 15:37:19.910232,49
2021-12-27 15:37:19.910242,37
2021-12-27 15:37:19.910251,16
2021-12-27 15:37:19.910261,2
2021-12-27 15:37:19.910271,4
2021-12-27 15:37:19.910281,9
2021-12-27 15:37:19.910291,2
2021-12-27 15:37:19.910301,-7
2021-12-27 15:37:19.910311,-9
2021-12-27 15:37:19.910320,-7
2021-12-27 15:37:19.910330,0
2021-12-27 15:37:19.910340,11
2021-12-27 15:37:19.910350,32
2021-12-27 15:37:19.910359,53
2021-12-27 15:37:19.910369,65
2021-12-27 15:37:19.910379,81
2021-12-27 15:37:19.910389,102
2021-12-27 15:37:19.910398,112
2021-12-27 15:37:19.910408,119
2021-12-27 15:37:19.910418,135
2021-12-27 15:37:19.910428,140
2021-12-27 15:37:19.910438,140
2021-12-27 15:37:19.910447,140
2021-12-27 15:37:19.910457,137
2021-12-27 15:37:19.910467,126
2021-12-27 15:37:19.910477,119
2021-12-27 15:37:20.105043,123
2021-12-27 15:37:20.105073,119
2021-12-27 15:37:20.105084,114
2021-12-27 15:37:20.105095,119
2021-12-27 15:37:20.105105,109
2021-12-27 15:37:20.105115,119
2021-12-27 15:37:20.105125,128
2021-12-27 15:37:20.105135,109
2021-12-27 15:37:20.105145,109
2021-12-27 15:37:20.105155,133
2021-12-27 15:37:20.105165,133
2021-12-27 15:37:20.105174,109
2021-12-27 15:37:20.105184,107
2021-12-27 15:37:20.105194,123
2021-12-27 15:37:20.105204,116
2021-12-27 15:37:20.105214,105
2021-12-27 15:37:20.105224,116
2021-12-27 15:37:20.105233,126
2021-12-27 15:37:20.105243,128
2021-12-27 15:37:20.105253,128
2021-12-27 15:37:20.105263,114
2021-12-27 15:37:20.105273,102
2021-12-27 15:37:20.105283,114
2021-12-27 15:37:20.105293,119
2021-12-27 15:37:20.105302,112
2021-12-27 15:37:20.105312,100
2021-12-27 15:37:20.105322,81
2021-12-27 15:37:20.105332,77
2021-12-27 15:37:20.105342,88
2021-12-27 15:37:20.105352,91
2021-12-27 15:37:20.299993,95
2021-12-27 15:37:20.300023,109
2021-12-27 15:37:20.300034,112
2021-12-27 15:37:20.300045,105
2021-12-27 15:37:20.300055,107
2021-12-27 15:37:20.300065,112
2021-12-27 15:37:20.300075,112
2021-12-27 15:37:20.300085,107
2021-12-27 15:37:20.300094,98
2021-12-27 15:37:20.300104,93
2021-12-27 15:37:20.300119,112
2021-12-27 15:37:20.300129,156
2021-12-27 15:37:20.300139,196
2021-12-27 15:37:20.300149,70
2021-12-27 15:37:20.300159,-436
2021-12-27 15:37:20.300169,-1170
2021-12-27 15:37:20.300179,-1371
2021-12-27 15:37:20.300188,-537
2021-12-27 15:37:20.300198,322
2021-12-27 15:37:20.300208,261
2021-12-27 15:37:20.300218,74
2021-12-27 15:37:20.300228,240
2021-12-27 15:37:20.300238,259
2021-12-27 15:37:20.300248,149
2021-12-27 15:37:20.300258,165
2021-12-27 15:37:20.300267,193
2021-12-27 15:37:20.300277,149
2021-12-27 15:37:20.300287,116
2021-12-27 15:37:20.300297,114
2021-12-27 15:37:20.300307,109
2021-12-27 15:37:20.543772,93
2021-12-27 15:37:20.543801,72
2021-12-27 15:37:20.543813,56
2021-12-27 15:37:20.543823,46
2021-12-27 15:37:20.543833,37
2021-12-27 15:37:20.543843,28
2021-12-27 15:37:20.543852,18
2021-12-27 15:37:20.543862,4
2021-12-27 15:37:20.543872,-4
2021-12-27 15:37:20.543882,0
2021-12-27 15:37:20.543892,2
2021-12-27 15:37:20.543902,-7
2021-12-27 15:37:20.543912,-11
2021-12-27 15:37:20.543921,-7
2021-12-27 15:37:20.543931,7
2021-12-27 15:37:20.543941,25
2021-12-27 15:37:20.543951,32
2021-12-27 15:37:20.543961,44
2021-12-27 15:37:20.543970,58
2021-12-27 15:37:20.543980,72
2021-12-27 15:37:20.543990,84
2021-12-27 15:37:20.544000,91
2021-12-27 15:37:20.544009,100
2021-12-27 15:37:20.544019,109
2021-12-27 15:37:20.544029,114
2021-12-27 15:37:20.544046,116
2021-12-27 15:37:20.544056,109
2021-12-27 15:37:20.544066,105
2021-12-27 15:37:20.544076,100
2021-12-27 15:37:20.544085,98
2021-12-27 15:37:20.787524,93
2021-12-27 15:37:20.787553,91
2021-12-27 15:37:20.787564,88
2021-12-27 15:37:20.787574,88
2021-12-27 15:37:20.787584,88
2021-12-27 15:37:20.787594,88
2021-12-27 15:37:20.787604,84
2021-12-27 15:37:20.787613,81
2021-12-27 15:37:20.787623,86
2021-12-27 15:37:20.787633,88
2021-12-27 15:37:20.787643,88
2021-12-27 15:37:20.787652,91
2021-12-27 15:37:20.787662,93
2021-12-27 15:37:20.787672,88
2021-12-27 15:37:20.787681,88
2021-12-27 15:37:20.787691,91
2021-12-27 15:37:20.787700,88
2021-12-27 15:37:20.787710,88
2021-12-27 15:37:20.787720,91
2021-12-27 15:37:20.787729,88
2021-12-27 15:37:20.787739,88
2021-12-27 15:37:20.787748,91
2021-12-27 15:37:20.787758,95
2021-12-27 15:37:20.787768,98
2021-12-27 15:37:20.787777,91
2021-12-27 15:37:20.787787,67
2021-12-27 15:37:20.787797,49
2021-12-27 15:37:20.787807,53
2021-12-27 15:37:20.787816,60
2021-12-27 15:37:20.787826,67
2021-12-27 15:37:21.078662,79
2021-12-27 15:37:21.078684,93
2021-12-27 15:37:21.078692,93
2021-12-27 15:37:21.078699,86
2021-12-27 15:37:21.078705,86
2021-12-27 15:37:21.078712,86
2021-12-27 15:37:21.078718,81
2021-12-27 15:37:21.078725,79
2021-12-27 15:37:21.078731,77
2021-12-27 15:37:21.078738,79
2021-12-27 15:37:21.078744,102
2021-12-27 15:37:21.078751,161
2021-12-27 15:37:21.078757,165
2021-12-27 15:37:21.078764,-100
2021-12-27 15:37:21.078771,-745
2021-12-27 15:37:21.078777,-1368
2021-12-27 15:37:21.078787,-1125
2021-12-27 15:37:21.078794,-107
2021-12-27 15:37:21.078800,355
2021-12-27 15:37:21.078807,102
2021-12-27 15:37:21.078813,86
2021-12-27 15:37:21.078820,252
2021-12-27 15:37:21.078826,193
2021-12-27 15:37:21.078832,126
2021-12-27 15:37:21.078839,156
2021-12-27 15:37:21.078845,142
2021-12-27 15:37:21.078852,107
2021-12-27 15:37:21.078858,105
2021-12-27 15:37:21.078864,98
2021-12-27 15:37:21.078871,81
2021-12-27 15:37:21.226287,74
2021-12-27 15:37:21.226318,58
2021-12-27 15:37:21.226329,37
2021-12-27 15:37:21.226339,28
2021-12-27 15:37:21.226349,21
2021-12-27 15:37:21.226359,9
2021-12-27 15:37:21.226369,4
2021-12-27 15:37:21.226378,2
2021-12-27 15:37:21.226388,-4
2021-12-27 15:37:21.226398,2
2021-12-27 15:37:21.226408,9
2021-12-27 15:37:21.226418,-9
2021-12-27 15:37:21.226428,4
2021-12-27 15:37:21.226437,49
2021-12-27 15:37:21.226447,23
2021-12-27 15:37:21.226457,-16
2021-12-27 15:37:21.226467,25
2021-12-27 15:37:21.226476,49
2021-12-27 15:37:21.226486,42
2021-12-27 15:37:21.226496,74
2021-12-27 15:37:21.226506,105
2021-12-27 15:37:21.226516,105
2021-12-27 15:37:21.226525,107
2021-12-27 15:37:21.226535,109
2021-12-27 15:37:21.226545,107
2021-12-27 15:37:21.226555,107
2021-12-27 15:37:21.226565,109
2021-12-27 15:37:21.226574,112
2021-12-27 15:37:21.226584,112
2021-12-27 15:37:21.226594,112
2021-12-27 15:37:21.517961,109
2021-12-27 15:37:21.517990,109
2021-12-27 15:37:21.518002,114
2021-12-27 15:37:21.518012,109
2021-12-27 15:37:21.518022,102
2021-12-27 15:37:21.518032,102
2021-12-27 15:37:21.518041,102
2021-12-27 15:37:21.518051,98
2021-12-27 15:37:21.518061,100
2021-12-27 15:37:21.518071,109
2021-12-27 15:37:21.518081,105
2021-12-27 15:37:21.518091,98
2021-12-27 15:37:21.518101,100
2021-12-27 15:37:21.518118,107
2021-12-27 15:37:21.518128,107
2021-12-27 15:37:21.518138,102
2021-12-27 15:37:21.518148,98
2021-12-27 15:37:21.518157,95
2021-12-27 15:37:21.518167,100
2021-12-27 15:37:21.518177,102
2021-12-27 15:37:21.518187,98
2021-12-27 15:37:21.518196,98
2021-12-27 15:37:21.518206,100
2021-12-27 15:37:21.518216,93
2021-12-27 15:37:21.518226,77
2021-12-27 15:37:21.518235,65
2021-12-27 15:37:21.518245,63
2021-12-27 15:37:21.518255,70
2021-12-27 15:37:21.518265,67
2021-12-27 15:37:21.518275,67
2021-12-27 15:37:21.713057,84
2021-12-27 15:37:21.713073,91
2021-12-27 15:37:21.713080,84
2021-12-27 15:37:21.713085,81
2021-12-27 15:37:21.713090,81
2021-12-27 15:37:21.713095,81
2021-12-27 15:37:21.713101,79
2021-12-27 15:37:21.713106,77
2021-12-27 15:37:21.713111,74
2021-12-27 15:37:21.713116,93
2021-12-27 15:37:21.713121,147
2021-12-27 15:37:21.713126,184
2021-12-27 15:37:21.713131,14
2021-12-27 15:37:21.713136,-532
2021-12-27 15:37:21.713141,-1228
2021-12-27 15:37:21.713146,-1268
2021-12-27 15:37:21.713151,-350
2021-12-27 15:37:21.713157,345
2021-12-27 15:37:21.713162,172
2021-12-27 15:37:21.713167,44
2021-12-27 15:37:21.713172,219
2021-12-27 15:37:21.713177,212
2021-12-27 15:37:21.713182,128
2021-12-27 15:37:21.713187,161
2021-12-27 15:37:21.713192,161
2021-12-27 15:37:21.713197,114
2021-12-27 15:37:21.713202,107
2021-12-27 15:37:21.713207,105
2021-12-27 15:37:21.713212,84
2021-12-27 15:37:21.713217,72
2021-12-27 15:37:21.957549,63
2021-12-27 15:37:21.957579,49
2021-12-27 15:37:21.957590,37
2021-12-27 15:37:21.957600,28
2021-12-27 15:37:21.957610,21
2021-12-27 15:37:21.957620,11
2021-12-27 15:37:21.957629,4
2021-12-27 15:37:21.957639,0
2021-12-27 15:37:21.957649,-4
2021-12-27 15:37:21.957658,-4
2021-12-27 15:37:21.957668,0
2021-12-27 15:37:21.957678,4
2021-12-27 15:37:21.957687,11
2021-12-27 15:37:21.957697,21
2021-12-27 15:37:21.957706,28
2021-12-27 15:37:21.957716,30
2021-12-27 15:37:21.957726,39
2021-12-27 15:37:21.957742,51
2021-12-27 15:37:21.957752,63
2021-12-27 15:37:21.957762,77
2021-12-27 15:37:21.957771,86
2021-12-27 15:37:21.957781,93
2021-12-27 15:37:21.957790,102
2021-12-27 15:37:21.957800,105
2021-12-27 15:37:21.957810,100
2021-12-27 15:37:21.957819,98
2021-12-27 15:37:21.957829,95
2021-12-27 15:37:21.957839,88
2021-12-27 15:37:21.957848,86
2021-12-27 15:37:21.957858,86
2021-12-27 15:37:22.151864,86
2021-12-27 15:37:22.151879,86
2021-12-27 15:37:22.151883,86
2021-12-27 15:37:22.151888,81
2021-12-27 15:37:22.151892,77
2021-12-27 15:37:22.151897,74
2021-12-27 15:37:22.151902,77
2021-12-27 15:37:22.151906,81
2021-12-27 15:37:22.151910,86
2021-12-27 15:37:22.151914,84
2021-12-27 15:37:22.151918,81
2021-12-27 15:37:22.151922,79
2021-12-27 15:37:22.151926,81
2021-12-27 15:37:22.151931,81
2021-12-27 15:37:22.151935,81
2021-12-27 15:37:22.151939,84
2021-12-27 15:37:22.151943,79
2021-12-27 15:37:22.151947,77
2021-12-27 15:37:22.151951,79
2021-12-27 15:37:22.151955,79
2021-12-27 15:37:22.151959,84
2021-12-27 15:37:22.151964,79
2021-12-27 15:37:22.151968,56
2021-12-27 15:37:22.151972,37
2021-12-27 15:37:22.151976,42
2021-12-27 15:37:22.151980,56
2021-12-27 15:37:22.151984,58
2021-12-27 15:37:22.151988,70
2021-12-27 15:37:22.151992,79
2021-12-27 15:37:22.151996,81
2021-12-27 15:37:22.396377,84
2021-12-27 15:37:22.396407,84
2021-12-27 15:37:22.396418,81
2021-12-27 15:37:22.396428,81
2021-12-27 15:37:22.396438,79
2021-12-27 15:37:22.396448,74
2021-12-27 15:37:22.396458,74
2021-12-27 15:37:22.396468,102
2021-12-27 15:37:22.396477,163
2021-12-27 15:37:22.396487,163
2021-12-27 15:37:22.396497,-91
2021-12-27 15:37:22.396507,-703
2021-12-27 15:37:22.396517,-1277
2021-12-27 15:37:22.396526,-985
2021-12-27 15:37:22.396536,-18
2021-12-27 15:37:22.396546,331
2021-12-27 15:37:22.396556,60
2021-12-27 15:37:22.396566,77
2021-12-27 15:37:22.396576,224
2021-12-27 15:37:22.396586,154
2021-12-27 15:37:22.396595,109
2021-12-27 15:37:22.396605,147
2021-12-27 15:37:22.396615,123
2021-12-27 15:37:22.396625,91
2021-12-27 15:37:22.396634,91
2021-12-27 15:37:22.396644,84
2021-12-27 15:37:22.396654,63
2021-12-27 15:37:22.396663,53
2021-12-27 15:37:22.396673,44
2021-12-27 15:37:22.396688,30
2021-12-27 15:37:22.640077,23
2021-12-27 15:37:22.640106,16
2021-12-27 15:37:22.640118,4
2021-12-27 15:37:22.640129,-4
2021-12-27 15:37:22.640138,-9
2021-12-27 15:37:22.640148,-9
2021-12-27 15:37:22.640158,-14
2021-12-27 15:37:22.640168,-16
2021-12-27 15:37:22.640178,-9
2021-12-27 15:37:22.640188,0
2021-12-27 15:37:22.640197,4
2021-12-27 15:37:22.640207,9
2021-12-27 15:37:22.640217,18
2021-12-27 15:37:22.640227,23
2021-12-27 15:37:22.640236,30
2021-12-27 15:37:22.640246,42
2021-12-27 15:37:22.640256,56
2021-12-27 15:37:22.640265,67
2021-12-27 15:37:22.640275,79
2021-12-27 15:37:22.640285,88
2021-12-27 15:37:22.640294,98
2021-12-27 15:37:22.640304,105
2021-12-27 15:37:22.640314,102
2021-12-27 15:37:22.640323,95
2021-12-27 15:37:22.640333,93
2021-12-27 15:37:22.640343,91
2021-12-27 15:37:22.640352,88
2021-12-27 15:37:22.640362,86
2021-12-27 15:37:22.640372,84
2021-12-27 15:37:22.640381,84
2021-12-27 15:37:22.980755,84
2021-12-27 15:37:22.980853,84
2021-12-27 15:37:22.980875,86
2021-12-27 15:37:22.980886,88
2021-12-27 15:37:22.980896,88
2021-12-27 15:37:22.980906,88
2021-12-27 15:37:22.980916,93
2021-12-27 15:37:22.980926,95
2021-12-27 15:37:22.980936,93
2021-12-27 15:37:22.980945,93
2021-12-27 15:37:22.980955,95
2021-12-27 15:37:22.980965,98
2021-12-27 15:37:22.980974,98
2021-12-27 15:37:22.980984,95
2021-12-27 15:37:22.980994,95
2021-12-27 15:37:22.981003,93
2021-12-27 15:37:22.981013,95
2021-12-27 15:37:22.981022,93
2021-12-27 15:37:22.981032,72
2021-12-27 15:37:22.981042,53
2021-12-27 15:37:22.981051,56
2021-12-27 15:37:22.981061,63
2021-12-27 15:37:22.981071,63
2021-12-27 15:37:22.981080,74
2021-12-27 15:37:22.981090,93
2021-12-27 15:37:22.981099,95
2021-12-27 15:37:22.981109,88
2021-12-27 15:37:22.981119,88
2021-12-27 15:37:22.981128,91
2021-12-27 15:37:22.981138,91
2021-12-27 15:37:23.125417,91
2021-12-27 15:37:23.125433,93
2021-12-27 15:37:23.125440,98
2021-12-27 15:37:23.125445,114
2021-12-27 15:37:23.125450,161
2021-12-27 15:37:23.125455,168
2021-12-27 15:37:23.125460,-74
2021-12-27 15:37:23.125466,-689
2021-12-27 15:37:23.125471,-1293
2021-12-27 15:37:23.125476,-1022
2021-12-27 15:37:23.125481,-23
2021-12-27 15:37:23.125486,371
2021-12-27 15:37:23.125491,84
2021-12-27 15:37:23.125496,79
2021-12-27 15:37:23.125501,235
2021-12-27 15:37:23.125506,170
2021-12-27 15:37:23.125511,121
2021-12-27 15:37:23.125517,158
2021-12-27 15:37:23.125522,142
2021-12-27 15:37:23.125527,100
2021-12-27 15:37:23.125535,98
2021-12-27 15:37:23.125540,88
2021-12-27 15:37:23.125545,63
2021-12-27 15:37:23.125550,46
2021-12-27 15:37:23.125555,44
2021-12-27 15:37:23.125560,35
2021-12-27 15:37:23.125565,18
2021-12-27 15:37:23.125571,2
2021-12-27 15:37:23.125577,0
2021-12-27 15:37:23.125582,-4
2021-12-27 15:37:23.370817,-14
2021-12-27 15:37:23.370845,-21
2021-12-27 15:37:23.370857,-18
2021-12-27 15:37:23.370867,-14
2021-12-27 15:37:23.370877,-7
2021-12-27 15:37:23.370887,-2
2021-12-27 15:37:23.370897,0
2021-12-27 15:37:23.370906,11
2021-12-27 15:37:23.370916,25
2021-12-27 15:37:23.370926,30
2021-12-27 15:37:23.370936,35
2021-12-27 15:37:23.370946,51
2021-12-27 15:37:23.370956,70
2021-12-27 15:37:23.370966,81
2021-12-27 15:37:23.370976,98
2021-12-27 15:37:23.370985,112
2021-12-27 15:37:23.370995,116
2021-12-27 15:37:23.371005,116
2021-12-27 15:37:23.371014,109
2021-12-27 15:37:23.371024,107
2021-12-27 15:37:23.371034,107
2021-12-27 15:37:23.371044,102
2021-12-27 15:37:23.371053,95
2021-12-27 15:37:23.371063,95
2021-12-27 15:37:23.371073,88
2021-12-27 15:37:23.371083,79
2021-12-27 15:37:23.371092,79
2021-12-27 15:37:23.371102,86
2021-12-27 15:37:23.371112,88
2021-12-27 15:37:23.371122,86
2021-12-27 15:37:23.566337,84
2021-12-27 15:37:23.566367,91
2021-12-27 15:37:23.566378,95
2021-12-27 15:37:23.566388,91
2021-12-27 15:37:23.566398,88
2021-12-27 15:37:23.566408,98
2021-12-27 15:37:23.566418,105
2021-12-27 15:37:23.566428,102
2021-12-27 15:37:23.566438,93
2021-12-27 15:37:23.566448,91
2021-12-27 15:37:23.566457,93
2021-12-27 15:37:23.566467,93
2021-12-27 15:37:23.566477,84
2021-12-27 15:37:23.566487,67
2021-12-27 15:37:23.566497,60
2021-12-27 15:37:23.566507,60
2021-12-27 15:37:23.566517,63
2021-12-27 15:37:23.566527,70
2021-12-27 15:37:23.566536,86
2021-12-27 15:37:23.566546,93
2021-12-27 15:37:23.566556,91
2021-12-27 15:37:23.566566,84
2021-12-27 15:37:23.566575,79
2021-12-27 15:37:23.566585,79
2021-12-27 15:37:23.566595,81
2021-12-27 15:37:23.566605,74
2021-12-27 15:37:23.566614,70
2021-12-27 15:37:23.566624,84
2021-12-27 15:37:23.566634,130
2021-12-27 15:37:23.566644,179
2021-12-27 15:37:23.760882,65
2021-12-27 15:37:23.760908,-422
2021-12-27 15:37:23.760920,-1142
2021-12-27 15:37:23.760931,-1307
2021-12-27 15:37:23.760940,-441
2021-12-27 15:37:23.760948,359
2021-12-27 15:37:23.760954,221
2021-12-27 15:37:23.760959,28
2021-12-27 15:37:23.760964,198
2021-12-27 15:37:23.760969,205
2021-12-27 15:37:23.760974,105
2021-12-27 15:37:23.760980,133
2021-12-27 15:37:23.760988,147
2021-12-27 15:37:23.760997,100
2021-12-27 15:37:23.761005,93
2021-12-27 15:37:23.761014,93
2021-12-27 15:37:23.761023,67
2021-12-27 15:37:23.761032,51
2021-12-27 15:37:23.761042,46
2021-12-27 15:37:23.761050,35
2021-12-27 15:37:23.761055,21
2021-12-27 15:37:23.761060,7
2021-12-27 15:37:23.761068,-4
2021-12-27 15:37:23.761074,-9
2021-12-27 15:37:23.761079,-14
2021-12-27 15:37:23.761084,-18
2021-12-27 15:37:23.761089,-23
2021-12-27 15:37:23.761094,-23
2021-12-27 15:37:23.761099,-21
2021-12-27 15:37:23.761104,-16
2021-12-27 15:37:24.005178,-7
2021-12-27 15:37:24.005199,4
2021-12-27 15:37:24.005206,14
2021-12-27 15:37:24.005213,18
2021-12-27 15:37:24.005220,28
2021-12-27 15:37:24.005226,44
2021-12-27 15:37:24.005232,63
2021-12-27 15:37:24.005239,81
2021-12-27 15:37:24.005245,102
2021-12-27 15:37:24.005252,114
2021-12-27 15:37:24.005258,116
2021-12-27 15:37:24.005264,114
2021-12-27 15:37:24.005271,116
2021-12-27 15:37:24.005277,114
2021-12-27 15:37:24.005283,114
2021-12-27 15:37:24.005290,109
2021-12-27 15:37:24.005296,100
2021-12-27 15:37:24.005303,95
2021-12-27 15:37:24.005309,95
2021-12-27 15:37:24.005315,93
2021-12-27 15:37:24.005322,91
2021-12-27 15:37:24.005328,91
2021-12-27 15:37:24.005335,93
2021-12-27 15:37:24.005341,95
2021-12-27 15:37:24.005347,95
2021-12-27 15:37:24.005354,91
2021-12-27 15:37:24.005360,93
2021-12-27 15:37:24.005366,95
2021-12-27 15:37:24.005373,93
2021-12-27 15:37:24.005379,91
2021-12-27 15:37:24.248881,91
2021-12-27 15:37:24.248902,88
2021-12-27 15:37:24.248909,91
2021-12-27 15:37:24.248916,95
2021-12-27 15:37:24.248923,98
2021-12-27 15:37:24.248929,93
2021-12-27 15:37:24.248935,88
2021-12-27 15:37:24.248942,77
2021-12-27 15:37:24.248948,56
2021-12-27 15:37:24.248954,56
2021-12-27 15:37:24.248961,70
2021-12-27 15:37:24.248967,72
2021-12-27 15:37:24.248973,77
2021-12-27 15:37:24.248980,91
2021-12-27 15:37:24.248986,95
2021-12-27 15:37:24.248993,91
2021-12-27 15:37:24.248999,91
2021-12-27 15:37:24.249006,95
2021-12-27 15:37:24.249012,91
2021-12-27 15:37:24.249019,84
2021-12-27 15:37:24.249025,86
2021-12-27 15:37:24.249032,88
2021-12-27 15:37:24.249038,105
2021-12-27 15:37:24.249044,158
2021-12-27 15:37:24.249051,207
2021-12-27 15:37:24.249057,56
2021-12-27 15:37:24.249064,-497
2021-12-27 15:37:24.249071,-1254
2021-12-27 15:37:24.249077,-1354
2021-12-27 15:37:24.249083,-394
2021-12-27 15:37:24.492688,394
2021-12-27 15:37:24.492717,221
2021-12-27 15:37:24.492728,56
2021-12-27 15:37:24.492738,240
2021-12-27 15:37:24.492748,235
2021-12-27 15:37:24.492758,142
2021-12-27 15:37:24.492767,172
2021-12-27 15:37:24.492777,175
2021-12-27 15:37:24.492787,121
2021-12-27 15:37:24.492796,107
2021-12-27 15:37:24.492806,112
2021-12-27 15:37:24.492816,93
2021-12-27 15:37:24.492825,77
2021-12-27 15:37:24.492835,67
2021-12-27 15:37:24.492845,53
2021-12-27 15:37:24.492854,37
2021-12-27 15:37:24.492864,30
2021-12-27 15:37:24.492874,21
2021-12-27 15:37:24.492883,9
2021-12-27 15:37:24.492893,0
2021-12-27 15:37:24.492903,-7
2021-12-27 15:37:24.492913,-11
2021-12-27 15:37:24.492922,-11
2021-12-27 15:37:24.492932,-7
2021-12-27 15:37:24.492941,0
2021-12-27 15:37:24.492951,14
2021-12-27 15:37:24.492961,21
2021-12-27 15:37:24.492971,23
2021-12-27 15:37:24.492980,35
2021-12-27 15:37:24.492990,53
2021-12-27 15:37:24.785272,70
2021-12-27 15:37:24.785302,84
2021-12-27 15:37:24.785313,93
2021-12-27 15:37:24.785324,98
2021-12-27 15:37:24.785333,109
2021-12-27 15:37:24.785348,121
2021-12-27 15:37:24.785358,119
2021-12-27 15:37:24.785368,116
2021-12-27 15:37:24.785378,114
2021-12-27 15:37:24.785388,107
2021-12-27 15:37:24.785398,100
2021-12-27 15:37:24.785408,93
2021-12-27 15:37:24.785417,91
2021-12-27 15:37:24.785427,91
2021-12-27 15:37:24.785437,93
2021-12-27 15:37:24.785447,91
2021-12-27 15:37:24.785457,86
2021-12-27 15:37:24.785467,88
2021-12-27 15:37:24.785477,91
2021-12-27 15:37:24.785486,91
2021-12-27 15:37:24.785496,93
2021-12-27 15:37:24.785506,98
2021-12-27 15:37:24.785516,93
2021-12-27 15:37:24.785526,93
2021-12-27 15:37:24.785536,102
2021-12-27 15:37:24.785546,109
2021-12-27 15:37:24.785555,105
2021-12-27 15:37:24.785565,105
2021-12-27 15:37:24.785575,107
2021-12-27 15:37:24.785585,109
2021-12-27 15:37:25.029157,107
2021-12-27 15:37:25.029177,109
2021-12-27 15:37:25.029185,109
2021-12-27 15:37:25.029191,93
2021-12-27 15:37:25.029198,70
2021-12-27 15:37:25.029204,65
2021-12-27 15:37:25.029211,77
2021-12-27 15:37:25.029217,84
2021-12-27 15:37:25.029224,86
2021-12-27 15:37:25.029230,95
2021-12-27 15:37:25.029236,105
2021-12-27 15:37:25.029243,105
2021-12-27 15:37:25.029249,100
2021-12-27 15:37:25.029255,100
2021-12-27 15:37:25.029262,100
2021-12-27 15:37:25.029268,98
2021-12-27 15:37:25.029275,95
2021-12-27 15:37:25.029281,88
2021-12-27 15:37:25.029287,102
2021-12-27 15:37:25.029294,158
2021-12-27 15:37:25.029300,210
2021-12-27 15:37:25.029307,81
2021-12-27 15:37:25.029313,-425
2021-12-27 15:37:25.029319,-1207
2021-12-27 15:37:25.029326,-1459
2021-12-27 15:37:25.029332,-576
2021-12-27 15:37:25.029339,350
2021-12-27 15:37:25.029345,277
2021-12-27 15:37:25.029352,56
2021-12-27 15:37:25.029358,233
2021-12-27 15:37:25.319975,270
2021-12-27 15:37:25.320004,158
2021-12-27 15:37:25.320016,175
2021-12-27 15:37:25.320026,193
2021-12-27 15:37:25.320036,140
2021-12-27 15:37:25.320046,121
2021-12-27 15:37:25.320056,128
2021-12-27 15:37:25.320066,107
2021-12-27 15:37:25.320076,84
2021-12-27 15:37:25.320086,77
2021-12-27 15:37:25.320096,63
2021-12-27 15:37:25.320106,49
2021-12-27 15:37:25.320116,42
2021-12-27 15:37:25.320126,21
2021-12-27 15:37:25.320136,4
2021-12-27 15:37:25.320146,-2
2021-12-27 15:37:25.320156,-9
2021-12-27 15:37:25.320166,-11
2021-12-27 15:37:25.320175,-9
2021-12-27 15:37:25.320185,-11
2021-12-27 15:37:25.320195,-9
2021-12-27 15:37:25.320205,2
2021-12-27 15:37:25.320215,11
2021-12-27 15:37:25.320225,23
2021-12-27 15:37:25.320235,35
2021-12-27 15:37:25.320245,51
2021-12-27 15:37:25.320255,70
2021-12-27 15:37:25.320265,84
2021-12-27 15:37:25.320275,95
2021-12-27 15:37:25.320285,109
2021-12-27 15:37:25.418308,121
2021-12-27 15:37:25.418338,130
2021-12-27 15:37:25.418350,133
2021-12-27 15:37:25.418361,133
2021-12-27 15:37:25.418371,126
2021-12-27 15:37:25.418380,121
2021-12-27 15:37:25.418390,116
2021-12-27 15:37:25.418400,112
2021-12-27 15:37:25.418410,109
2021-12-27 15:37:25.418419,105
2021-12-27 15:37:25.418429,95
2021-12-27 15:37:25.418439,93
2021-12-27 15:37:25.418449,95
2021-12-27 15:37:25.418458,95
2021-12-27 15:37:25.418468,95
2021-12-27 15:37:25.418478,95
2021-12-27 15:37:25.418487,93
2021-12-27 15:37:25.418497,95
2021-12-27 15:37:25.418507,100
2021-12-27 15:37:25.418516,107
2021-12-27 15:37:25.418526,107
2021-12-27 15:37:25.418536,105
2021-12-27 15:37:25.418545,107
2021-12-27 15:37:25.418555,109
2021-12-27 15:37:25.418565,109
2021-12-27 15:37:25.418575,112
2021-12-27 15:37:25.418584,112
2021-12-27 15:37:25.418594,98
2021-12-27 15:37:25.418604,77
2021-12-27 15:37:25.418613,65
2021-12-27 15:37:25.662826,77
2021-12-27 15:37:25.662860,86
2021-12-27 15:37:25.662872,91
2021-12-27 15:37:25.662882,95
2021-12-27 15:37:25.662892,105
2021-12-27 15:37:25.662902,105
2021-12-27 15:37:25.662912,100
2021-12-27 15:37:25.662922,100
2021-12-27 15:37:25.662931,107
2021-12-27 15:37:25.662941,105
2021-12-27 15:37:25.662951,95
2021-12-27 15:37:25.662960,93
2021-12-27 15:37:25.662970,95
2021-12-27 15:37:25.662980,121
2021-12-27 15:37:25.662989,179
2021-12-27 15:37:25.662999,172
2021-12-27 15:37:25.663009,-123
2021-12-27 15:37:25.663018,-822
2021-12-27 15:37:25.663028,-1464
2021-12-27 15:37:25.663038,-1123
2021-12-27 15:37:25.663047,-14
2021-12-27 15:37:25.663057,406
2021-12-27 15:37:25.663067,102
2021-12-27 15:37:25.663077,109
2021-12-27 15:37:25.663086,270
2021-12-27 15:37:25.663096,193
2021-12-27 15:37:25.663106,147
2021-12-27 15:37:25.663115,189
2021-12-27 15:37:25.663125,161
2021-12-27 15:37:25.663134,119
2021-12-27 15:37:25.954565,123
2021-12-27 15:37:25.954581,116
2021-12-27 15:37:25.954588,93
2021-12-27 15:37:25.954593,81
2021-12-27 15:37:25.954598,70
2021-12-27 15:37:25.954603,51
2021-12-27 15:37:25.954609,39
2021-12-27 15:37:25.954614,30
2021-12-27 15:37:25.954619,16
2021-12-27 15:37:25.954624,2
2021-12-27 15:37:25.954629,-7
2021-12-27 15:37:25.954635,-14
2021-12-27 15:37:25.954640,-21
2021-12-27 15:37:25.954645,-25
2021-12-27 15:37:25.954650,-23
2021-12-27 15:37:25.954655,-14
2021-12-27 15:37:25.954661,-4
2021-12-27 15:37:25.954666,7
2021-12-27 15:37:25.954671,16
2021-12-27 15:37:25.954676,30
2021-12-27 15:37:25.954681,49
2021-12-27 15:37:25.954686,67
2021-12-27 15:37:25.954692,88
2021-12-27 15:37:25.954697,107
2021-12-27 15:37:25.954702,112
2021-12-27 15:37:25.954707,116
2021-12-27 15:37:25.954712,128
2021-12-27 15:37:25.954717,130
2021-12-27 15:37:25.954722,126
2021-12-27 15:37:25.954728,126
2021-12-27 15:37:26.101458,119
2021-12-27 15:37:26.101479,109
2021-12-27 15:37:26.101486,107
2021-12-27 15:37:26.101493,100
2021-12-27 15:37:26.101499,95
2021-12-27 15:37:26.101506,100
2021-12-27 15:37:26.101512,98
2021-12-27 15:37:26.101518,93
2021-12-27 15:37:26.101524,93
2021-12-27 15:37:26.101531,100
2021-12-27 15:37:26.101537,100
2021-12-27 15:37:26.101543,100
2021-12-27 15:37:26.101549,102
2021-12-27 15:37:26.101556,102
2021-12-27 15:37:26.101562,100
2021-12-27 15:37:26.101568,95
2021-12-27 15:37:26.101575,98
2021-12-27 15:37:26.101581,100
2021-12-27 15:37:26.101588,98
2021-12-27 15:37:26.101594,93
2021-12-27 15:37:26.101600,91
2021-12-27 15:37:26.101607,93
2021-12-27 15:37:26.101613,95
2021-12-27 15:37:26.101619,98
2021-12-27 15:37:26.101625,91
2021-12-27 15:37:26.101632,65
2021-12-27 15:37:26.101638,46
2021-12-27 15:37:26.101644,56
2021-12-27 15:37:26.101651,70
2021-12-27 15:37:26.101657,72
2021-12-27 15:37:26.296470,81
2021-12-27 15:37:26.296498,95
2021-12-27 15:37:26.296510,98
2021-12-27 15:37:26.296520,93
2021-12-27 15:37:26.296530,93
2021-12-27 15:37:26.296540,93
2021-12-27 15:37:26.296550,95
2021-12-27 15:37:26.296559,93
2021-12-27 15:37:26.296569,91
2021-12-27 15:37:26.296579,91
2021-12-27 15:37:26.296589,114
2021-12-27 15:37:26.296599,177
2021-12-27 15:37:26.296608,196
2021-12-27 15:37:26.296618,-49
2021-12-27 15:37:26.296628,-712
2021-12-27 15:37:26.296638,-1438
2021-12-27 15:37:26.296648,-1279
2021-12-27 15:37:26.296657,-179
2021-12-27 15:37:26.296667,418
2021-12-27 15:37:26.296677,144
2021-12-27 15:37:26.296687,79
2021-12-27 15:37:26.296696,268
2021-12-27 15:37:26.296706,219
2021-12-27 15:37:26.296716,140
2021-12-27 15:37:26.296726,177
2021-12-27 15:37:26.296735,175
2021-12-27 15:37:26.296745,137
2021-12-27 15:37:26.296755,130
2021-12-27 15:37:26.296765,123
2021-12-27 15:37:26.296774,98
2021-12-27 15:37:26.540149,84
2021-12-27 15:37:26.540179,74
2021-12-27 15:37:26.540191,60
2021-12-27 15:37:26.540201,42
2021-12-27 15:37:26.540210,28
2021-12-27 15:37:26.540220,14
2021-12-27 15:37:26.540230,0
2021-12-27 15:37:26.540240,-7
2021-12-27 15:37:26.540249,-9
2021-12-27 15:37:26.540259,-16
2021-12-27 15:37:26.540269,-21
2021-12-27 15:37:26.540287,-14
2021-12-27 15:37:26.540297,-4
2021-12-27 15:37:26.540307,4
2021-12-27 15:37:26.540317,16
2021-12-27 15:37:26.540326,23
2021-12-27 15:37:26.540336,30
2021-12-27 15:37:26.540345,44
2021-12-27 15:37:26.540355,67
2021-12-27 15:37:26.540365,84
2021-12-27 15:37:26.540374,91
2021-12-27 15:37:26.540384,100
2021-12-27 15:37:26.540394,109
2021-12-27 15:37:26.540403,116
2021-12-27 15:37:26.540413,119
2021-12-27 15:37:26.540423,107
2021-12-27 15:37:26.540433,98
2021-12-27 15:37:26.540442,98
2021-12-27 15:37:26.540452,95
2021-12-27 15:37:26.540462,88
2021-12-27 15:37:26.784193,86
2021-12-27 15:37:26.784222,84
2021-12-27 15:37:26.784233,79
2021-12-27 15:37:26.784243,79
2021-12-27 15:37:26.784253,79
2021-12-27 15:37:26.784263,74
2021-12-27 15:37:26.784273,77
2021-12-27 15:37:26.784283,79
2021-12-27 15:37:26.784292,81
2021-12-27 15:37:26.784302,81
2021-12-27 15:37:26.784312,79
2021-12-27 15:37:26.784321,81
2021-12-27 15:37:26.784331,86
2021-12-27 15:37:26.784341,86
2021-12-27 15:37:26.784350,88
2021-12-27 15:37:26.784360,88
2021-12-27 15:37:26.784370,86
2021-12-27 15:37:26.784380,86
2021-12-27 15:37:26.784390,88
2021-12-27 15:37:26.784399,88
2021-12-27 15:37:26.784409,86
2021-12-27 15:37:26.784419,84
2021-12-27 15:37:26.784428,81
2021-12-27 15:37:26.784438,84
2021-12-27 15:37:26.784448,86
2021-12-27 15:37:26.784458,72
2021-12-27 15:37:26.784467,51
2021-12-27 15:37:26.784477,46
2021-12-27 15:37:26.784487,58
2021-12-27 15:37:26.784496,65
2021-12-27 15:37:27.027142,70
2021-12-27 15:37:27.027162,79
2021-12-27 15:37:27.027169,88
2021-12-27 15:37:27.027176,88
2021-12-27 15:37:27.027182,88
2021-12-27 15:37:27.027189,91
2021-12-27 15:37:27.027195,91
2021-12-27 15:37:27.027202,88
2021-12-27 15:37:27.027208,84
2021-12-27 15:37:27.027215,81
2021-12-27 15:37:27.027221,91
2021-12-27 15:37:27.027227,135
2021-12-27 15:37:27.027234,189
2021-12-27 15:37:27.027240,86
2021-12-27 15:37:27.027247,-394
2021-12-27 15:37:27.027253,-1174
2021-12-27 15:37:27.027260,-1497
2021-12-27 15:37:27.027266,-681
2021-12-27 15:37:27.027272,301
2021-12-27 15:37:27.027279,296
2021-12-27 15:37:27.027285,44
2021-12-27 15:37:27.027292,200
2021-12-27 15:37:27.027298,263
2021-12-27 15:37:27.027305,158
2021-12-27 15:37:27.027311,161
2021-12-27 15:37:27.027318,184
2021-12-27 15:37:27.027324,137
2021-12-27 15:37:27.027330,112
2021-12-27 15:37:27.027337,109
2021-12-27 15:37:27.027343,93
2021-12-27 15:37:27.270771,77
2021-12-27 15:37:27.270792,65
2021-12-27 15:37:27.270800,46
2021-12-27 15:37:27.270807,30
2021-12-27 15:37:27.270813,23
2021-12-27 15:37:27.270819,16
2021-12-27 15:37:27.270826,2
2021-12-27 15:37:27.270832,-9
2021-12-27 15:37:27.270839,-16
2021-12-27 15:37:27.270845,-23
2021-12-27 15:37:27.270852,-25
2021-12-27 15:37:27.270858,-21
2021-12-27 15:37:27.270864,-14
2021-12-27 15:37:27.270871,-4
2021-12-27 15:37:27.270877,7
2021-12-27 15:37:27.270884,11
2021-12-27 15:37:27.270890,18
2021-12-27 15:37:27.270896,32
2021-12-27 15:37:27.270903,49
2021-12-27 15:37:27.270909,67
2021-12-27 15:37:27.270916,84
2021-12-27 15:37:27.270922,93
2021-12-27 15:37:27.270928,102
2021-12-27 15:37:27.270935,112
2021-12-27 15:37:27.270941,116
2021-12-27 15:37:27.270947,112
2021-12-27 15:37:27.270954,107
2021-12-27 15:37:27.270960,102
2021-12-27 15:37:27.270967,95
2021-12-27 15:37:27.270973,91
2021-12-27 15:37:27.515203,88
2021-12-27 15:37:27.515223,88
2021-12-27 15:37:27.515231,86
2021-12-27 15:37:27.515237,84
2021-12-27 15:37:27.515244,84
2021-12-27 15:37:27.515250,84
2021-12-27 15:37:27.515257,81
2021-12-27 15:37:27.515263,84
2021-12-27 15:37:27.515269,88
2021-12-27 15:37:27.515275,88
2021-12-27 15:37:27.515282,88
2021-12-27 15:37:27.515288,86
2021-12-27 15:37:27.515294,86
2021-12-27 15:37:27.515301,91
2021-12-27 15:37:27.515307,93
2021-12-27 15:37:27.515313,93
2021-12-27 15:37:27.515320,95
2021-12-27 15:37:27.515326,91
2021-12-27 15:37:27.515332,88
2021-12-27 15:37:27.515339,93
2021-12-27 15:37:27.515345,95
2021-12-27 15:37:27.515351,88
2021-12-27 15:37:27.515358,88
2021-12-27 15:37:27.515364,91
2021-12-27 15:37:27.515370,95
2021-12-27 15:37:27.515376,95
2021-12-27 15:37:27.515383,86
2021-12-27 15:37:27.515389,65
2021-12-27 15:37:27.515395,46
2021-12-27 15:37:27.515401,51
2021-12-27 15:37:27.758902,63
2021-12-27 15:37:27.758932,67
2021-12-27 15:37:27.758944,72
2021-12-27 15:37:27.758954,81
2021-12-27 15:37:27.758963,81
2021-12-27 15:37:27.758973,77
2021-12-27 15:37:27.758982,77
2021-12-27 15:37:27.758992,77
2021-12-27 15:37:27.759010,79
2021-12-27 15:37:27.759021,77
2021-12-27 15:37:27.759030,74
2021-12-27 15:37:27.759040,74
2021-12-27 15:37:27.759049,93
2021-12-27 15:37:27.759059,147
2021-12-27 15:37:27.759069,182
2021-12-27 15:37:27.759078,0
2021-12-27 15:37:27.759088,-590
2021-12-27 15:37:27.759098,-1361
2021-12-27 15:37:27.759108,-1403
2021-12-27 15:37:27.759117,-392
2021-12-27 15:37:27.759127,373
2021-12-27 15:37:27.759137,189
2021-12-27 15:37:27.759146,44
2021-12-27 15:37:27.759156,235
2021-12-27 15:37:27.759166,233
2021-12-27 15:37:27.759176,137
2021-12-27 15:37:27.759185,163
2021-12-27 15:37:27.759195,168
2021-12-27 15:37:27.759205,121
2021-12-27 15:37:27.759214,109
2021-12-27 15:37:28.002363,112
2021-12-27 15:37:28.002452,91
2021-12-27 15:37:28.002492,74
2021-12-27 15:37:28.002506,67
2021-12-27 15:37:28.002517,53
2021-12-27 15:37:28.002527,39
2021-12-27 15:37:28.002537,30
2021-12-27 15:37:28.002547,21
2021-12-27 15:37:28.002557,9
2021-12-27 15:37:28.002567,-2
2021-12-27 15:37:28.002577,-11
2021-12-27 15:37:28.002587,-16
2021-12-27 15:37:28.002597,-14
2021-12-27 15:37:28.002606,-9
2021-12-27 15:37:28.002616,-4
2021-12-27 15:37:28.002626,0
2021-12-27 15:37:28.002636,11
2021-12-27 15:37:28.002646,23
2021-12-27 15:37:28.002656,32
2021-12-27 15:37:28.002666,46
2021-12-27 15:37:28.002676,63
2021-12-27 15:37:28.002686,72
2021-12-27 15:37:28.002696,88
2021-12-27 15:37:28.002706,102
2021-12-27 15:37:28.002715,109
2021-12-27 15:37:28.002725,119
2021-12-27 15:37:28.002735,126
2021-12-27 15:37:28.002745,119
2021-12-27 15:37:28.002755,112
2021-12-27 15:37:28.002765,109
2021-12-27 15:37:28.197669,105
2021-12-27 15:37:28.197699,98
2021-12-27 15:37:28.197711,93
2021-12-27 15:37:28.197721,86
2021-12-27 15:37:28.197731,81
2021-12-27 15:37:28.197740,84
2021-12-27 15:37:28.197750,86
2021-12-27 15:37:28.197760,86
2021-12-27 15:37:28.197770,86
2021-12-27 15:37:28.197779,84
2021-12-27 15:37:28.197789,81
2021-12-27 15:37:28.197799,84
2021-12-27 15:37:28.197809,81
2021-12-27 15:37:28.197818,79
2021-12-27 15:37:28.197828,81
2021-12-27 15:37:28.197838,84
2021-12-27 15:37:28.197847,84
2021-12-27 15:37:28.197857,86
2021-12-27 15:37:28.197867,91
2021-12-27 15:37:28.197876,91
2021-12-27 15:37:28.197886,88
2021-12-27 15:37:28.197897,88
2021-12-27 15:37:28.197906,86
2021-12-27 15:37:28.197916,86
2021-12-27 15:37:28.197926,88
2021-12-27 15:37:28.197936,91
2021-12-27 15:37:28.197945,91
2021-12-27 15:37:28.197955,86
2021-12-27 15:37:28.197965,86
2021-12-27 15:37:28.197974,84
2021-12-27 15:37:28.392361,84
2021-12-27 15:37:28.392384,86
2021-12-27 15:37:28.392391,74
2021-12-27 15:37:28.392398,46
2021-12-27 15:37:28.392404,32
2021-12-27 15:37:28.392411,44
2021-12-27 15:37:28.392417,51
2021-12-27 15:37:28.392423,56
2021-12-27 15:37:28.392430,70
2021-12-27 15:37:28.392436,77
2021-12-27 15:37:28.392442,74
2021-12-27 15:37:28.392449,77
2021-12-27 15:37:28.392455,79
2021-12-27 15:37:28.392461,79
2021-12-27 15:37:28.392467,79
2021-12-27 15:37:28.392474,74
2021-12-27 15:37:28.392480,72
2021-12-27 15:37:28.392486,77
2021-12-27 15:37:28.392493,112
2021-12-27 15:37:28.392499,170
2021-12-27 15:37:28.392505,109
2021-12-27 15:37:28.392512,-301
2021-12-27 15:37:28.392518,-1060
2021-12-27 15:37:28.392524,-1504
2021-12-27 15:37:28.392531,-847
2021-12-27 15:37:28.392537,186
2021-12-27 15:37:28.392543,310
2021-12-27 15:37:28.392550,35
2021-12-27 15:37:28.392556,156
2021-12-27 15:37:28.392562,261
2021-12-27 15:37:28.684735,161
2021-12-27 15:37:28.684757,144
2021-12-27 15:37:28.684764,175
2021-12-27 15:37:28.684770,137
2021-12-27 15:37:28.684777,112
2021-12-27 15:37:28.684784,116
2021-12-27 15:37:28.684790,98
2021-12-27 15:37:28.684796,72
2021-12-27 15:37:28.684803,65
2021-12-27 15:37:28.684809,58
2021-12-27 15:37:28.684815,44
2021-12-27 15:37:28.684822,35
2021-12-27 15:37:28.684828,25
2021-12-27 15:37:28.684834,11
2021-12-27 15:37:28.684841,-4
2021-12-27 15:37:28.684847,-9
2021-12-27 15:37:28.684854,-16
2021-12-27 15:37:28.684860,-16
2021-12-27 15:37:28.684866,-14
2021-12-27 15:37:28.684873,-14
2021-12-27 15:37:28.684879,-11
2021-12-27 15:37:28.684885,-2
2021-12-27 15:37:28.684892,9
2021-12-27 15:37:28.684898,23
2021-12-27 15:37:28.684904,35
2021-12-27 15:37:28.684911,49
2021-12-27 15:37:28.684917,65
2021-12-27 15:37:28.684924,81
2021-12-27 15:37:28.684930,95
2021-12-27 15:37:28.684936,105
2021-12-27 15:37:28.831461,112
2021-12-27 15:37:28.831491,119
2021-12-27 15:37:28.831503,123
2021-12-27 15:37:28.831513,121
2021-12-27 15:37:28.831523,112
2021-12-27 15:37:28.831532,107
2021-12-27 15:37:28.831542,107
2021-12-27 15:37:28.831552,100
2021-12-27 15:37:28.831562,91
2021-12-27 15:37:28.831572,86
2021-12-27 15:37:28.831582,86
2021-12-27 15:37:28.831591,86
2021-12-27 15:37:28.831601,86
2021-12-27 15:37:28.831611,88
2021-12-27 15:37:28.831621,88
2021-12-27 15:37:28.831630,84
2021-12-27 15:37:28.831640,84
2021-12-27 15:37:28.831650,93
2021-12-27 15:37:28.831660,93
2021-12-27 15:37:28.831670,88
2021-12-27 15:37:28.831680,91
2021-12-27 15:37:28.831689,95
2021-12-27 15:37:28.831699,95
2021-12-27 15:37:28.831725,93
2021-12-27 15:37:28.831736,91
2021-12-27 15:37:28.831746,91
2021-12-27 15:37:28.831756,88
2021-12-27 15:37:28.831766,86
2021-12-27 15:37:28.831776,84
2021-12-27 15:37:28.831786,86
2021-12-27 15:37:29.123795,91
2021-12-27 15:37:29.123815,91
2021-12-27 15:37:29.123823,88
2021-12-27 15:37:29.123829,86
2021-12-27 15:37:29.123836,84
2021-12-27 15:37:29.123844,81
2021-12-27 15:37:29.123850,81
2021-12-27 15:37:29.123856,79
2021-12-27 15:37:29.123862,65
2021-12-27 15:37:29.123869,44
2021-12-27 15:37:29.123875,42
2021-12-27 15:37:29.123881,49
2021-12-27 15:37:29.123887,49
2021-12-27 15:37:29.123894,51
2021-12-27 15:37:29.123900,67
2021-12-27 15:37:29.123906,74
2021-12-27 15:37:29.123912,67
2021-12-27 15:37:29.123919,65
2021-12-27 15:37:29.123925,67
2021-12-27 15:37:29.123931,67
2021-12-27 15:37:29.123937,65
2021-12-27 15:37:29.123944,67
2021-12-27 15:37:29.123950,70
2021-12-27 15:37:29.123956,88
2021-12-27 15:37:29.123962,142
2021-12-27 15:37:29.123968,175
2021-12-27 15:37:29.123975,4
2021-12-27 15:37:29.123981,-537
2021-12-27 15:37:29.123988,-1251
2021-12-27 15:37:29.123994,-1293
2021-12-27 15:37:29.415068,-336
2021-12-27 15:37:29.415098,378
2021-12-27 15:37:29.415109,184
2021-12-27 15:37:29.415120,46
2021-12-27 15:37:29.415129,226
2021-12-27 15:37:29.415139,210
2021-12-27 15:37:29.415149,119
2021-12-27 15:37:29.415159,154
2021-12-27 15:37:29.415168,158
2021-12-27 15:37:29.415178,112
2021-12-27 15:37:29.415188,105
2021-12-27 15:37:29.415198,102
2021-12-27 15:37:29.415207,79
2021-12-27 15:37:29.415217,65
2021-12-27 15:37:29.415226,60
2021-12-27 15:37:29.415236,46
2021-12-27 15:37:29.415246,32
2021-12-27 15:37:29.415256,25
2021-12-27 15:37:29.415265,11
2021-12-27 15:37:29.415275,-4
2021-12-27 15:37:29.415284,-7
2021-12-27 15:37:29.415294,-14
2021-12-27 15:37:29.415304,-23
2021-12-27 15:37:29.415313,-21
2021-12-27 15:37:29.415323,-14
2021-12-27 15:37:29.415333,-9
2021-12-27 15:37:29.415342,-2
2021-12-27 15:37:29.415352,11
2021-12-27 15:37:29.415362,23
2021-12-27 15:37:29.415371,30
2021-12-27 15:37:29.611893,44
2021-12-27 15:37:29.611922,60
2021-12-27 15:37:29.611933,81
2021-12-27 15:37:29.611943,100
2021-12-27 15:37:29.611953,114
2021-12-27 15:37:29.611962,126
2021-12-27 15:37:29.611972,133
2021-12-27 15:37:29.611982,137
2021-12-27 15:37:29.611991,137
2021-12-27 15:37:29.612001,130
2021-12-27 15:37:29.612011,123
2021-12-27 15:37:29.612020,119
2021-12-27 15:37:29.612030,114
2021-12-27 15:37:29.612039,112
2021-12-27 15:37:29.612049,105
2021-12-27 15:37:29.612059,98
2021-12-27 15:37:29.612068,98
2021-12-27 15:37:29.612078,100
2021-12-27 15:37:29.612088,95
2021-12-27 15:37:29.612097,88
2021-12-27 15:37:29.612107,86
2021-12-27 15:37:29.612116,88
2021-12-27 15:37:29.612126,88
2021-12-27 15:37:29.612136,93
2021-12-27 15:37:29.612145,98
2021-12-27 15:37:29.612155,98
2021-12-27 15:37:29.612164,95
2021-12-27 15:37:29.612174,98
2021-12-27 15:37:29.612184,95
2021-12-27 15:37:29.612193,98
2021-12-27 15:37:29.758003,98
2021-12-27 15:37:29.758032,91
2021-12-27 15:37:29.758043,88
2021-12-27 15:37:29.758053,91
2021-12-27 15:37:29.758063,91
2021-12-27 15:37:29.758073,91
2021-12-27 15:37:29.758083,91
2021-12-27 15:37:29.758093,84
2021-12-27 15:37:29.758102,63
2021-12-27 15:37:29.758112,35
2021-12-27 15:37:29.758122,32
2021-12-27 15:37:29.758131,51
2021-12-27 15:37:29.758141,56
2021-12-27 15:37:29.758151,56
2021-12-27 15:37:29.758160,70
2021-12-27 15:37:29.758170,77
2021-12-27 15:37:29.758180,74
2021-12-27 15:37:29.758190,72
2021-12-27 15:37:29.758199,72
2021-12-27 15:37:29.758209,72
2021-12-27 15:37:29.758219,70
2021-12-27 15:37:29.758228,67
2021-12-27 15:37:29.758238,65
2021-12-27 15:37:29.758248,81
2021-12-27 15:37:29.758257,130
2021-12-27 15:37:29.758267,179
2021-12-27 15:37:29.758276,65
2021-12-27 15:37:29.758286,-429
2021-12-27 15:37:29.758296,-1186
2021-12-27 15:37:29.758306,-1396
2021-12-27 15:37:30.098881,-518
2021-12-27 15:37:30.098902,355
2021-12-27 15:37:30.098910,252
2021-12-27 15:37:30.098917,32
2021-12-27 15:37:30.098924,203
2021-12-27 15:37:30.098930,231
2021-12-27 15:37:30.098936,133
2021-12-27 15:37:30.098943,154
2021-12-27 15:37:30.098949,165
2021-12-27 15:37:30.098956,123
2021-12-27 15:37:30.098962,109
2021-12-27 15:37:30.098969,107
2021-12-27 15:37:30.098975,86
2021-12-27 15:37:30.098981,74
2021-12-27 15:37:30.098988,65
2021-12-27 15:37:30.098994,51
2021-12-27 15:37:30.099001,39
2021-12-27 15:37:30.099007,28
2021-12-27 15:37:30.099014,16
2021-12-27 15:37:30.099020,7
2021-12-27 15:37:30.099027,-4
2021-12-27 15:37:30.099033,-16
2021-12-27 15:37:30.099040,-18
2021-12-27 15:37:30.099046,-14
2021-12-27 15:37:30.099052,-16
2021-12-27 15:37:30.099059,-9
2021-12-27 15:37:30.099065,0
2021-12-27 15:37:30.099072,7
2021-12-27 15:37:30.099078,14
2021-12-27 15:37:30.099085,32
2021-12-27 15:37:30.342146,51
2021-12-27 15:37:30.342175,67
2021-12-27 15:37:30.342187,88
2021-12-27 15:37:30.342197,109
2021-12-27 15:37:30.342207,119
2021-12-27 15:37:30.342217,128
2021-12-27 15:37:30.342227,140
2021-12-27 15:37:30.342236,140
2021-12-27 15:37:30.342247,137
2021-12-27 15:37:30.342257,133
2021-12-27 15:37:30.342267,126
2021-12-27 15:37:30.342277,119
2021-12-27 15:37:30.342287,112
2021-12-27 15:37:30.342296,105
2021-12-27 15:37:30.342306,105
2021-12-27 15:37:30.342316,107
2021-12-27 15:37:30.342326,100
2021-12-27 15:37:30.342336,93
2021-12-27 15:37:30.342346,95
2021-12-27 15:37:30.342356,95
2021-12-27 15:37:30.342381,86
2021-12-27 15:37:30.342391,86
2021-12-27 15:37:30.342401,91
2021-12-27 15:37:30.342411,91
2021-12-27 15:37:30.342421,91
2021-12-27 15:37:30.342431,93
2021-12-27 15:37:30.342440,95
2021-12-27 15:37:30.342450,95
2021-12-27 15:37:30.342541,95
2021-12-27 15:37:30.342575,100
2021-12-27 15:37:30.489001,100
2021-12-27 15:37:30.489030,95
2021-12-27 15:37:30.489042,91
2021-12-27 15:37:30.489053,88
2021-12-27 15:37:30.489063,86
2021-12-27 15:37:30.489073,84
2021-12-27 15:37:30.489083,84
2021-12-27 15:37:30.489093,81
2021-12-27 15:37:30.489103,74
2021-12-27 15:37:30.489113,77
2021-12-27 15:37:30.489123,79
2021-12-27 15:37:30.489133,63
2021-12-27 15:37:30.489143,42
2021-12-27 15:37:30.489153,44
2021-12-27 15:37:30.489163,53
2021-12-27 15:37:30.489174,51
2021-12-27 15:37:30.489184,60
2021-12-27 15:37:30.489193,77
2021-12-27 15:37:30.489203,84
2021-12-27 15:37:30.489213,88
2021-12-27 15:37:30.489223,81
2021-12-27 15:37:30.489233,67
2021-12-27 15:37:30.489243,72
2021-12-27 15:37:30.489253,79
2021-12-27 15:37:30.489263,72
2021-12-27 15:37:30.489273,70
2021-12-27 15:37:30.489283,93
2021-12-27 15:37:30.489292,151
2021-12-27 15:37:30.489302,198
2021-12-27 15:37:30.489312,53
2021-12-27 15:37:30.684100,-509
2021-12-27 15:37:30.684129,-1310
2021-12-27 15:37:30.684141,-1490
2021-12-27 15:37:30.684151,-551
2021-12-27 15:37:30.684161,340
2021-12-27 15:37:30.684171,252
2021-12-27 15:37:30.684181,67
2021-12-27 15:37:30.684191,256
2021-12-27 15:37:30.684201,280
2021-12-27 15:37:30.684210,170
2021-12-27 15:37:30.684220,177
2021-12-27 15:37:30.684230,179
2021-12-27 15:37:30.684240,130
2021-12-27 15:37:30.684250,128
2021-12-27 15:37:30.684260,142
2021-12-27 15:37:30.684269,119
2021-12-27 15:37:30.684279,95
2021-12-27 15:37:30.684289,91
2021-12-27 15:37:30.684299,77
2021-12-27 15:37:30.684308,53
2021-12-27 15:37:30.684318,51
2021-12-27 15:37:30.684328,53
2021-12-27 15:37:30.684338,35
2021-12-27 15:37:30.684347,21
2021-12-27 15:37:30.684357,18
2021-12-27 15:37:30.684367,2
2021-12-27 15:37:30.684376,-7
2021-12-27 15:37:30.684386,2
2021-12-27 15:37:30.684396,0
2021-12-27 15:37:30.684406,4
2021-12-27 15:37:30.975463,30
2021-12-27 15:37:30.975483,39
2021-12-27 15:37:30.975491,37
2021-12-27 15:37:30.975497,53
2021-12-27 15:37:30.975504,88
2021-12-27 15:37:30.975510,102
2021-12-27 15:37:30.975516,107
2021-12-27 15:37:30.975523,119
2021-12-27 15:37:30.975529,130
2021-12-27 15:37:30.975535,151
2021-12-27 15:37:30.975541,156
2021-12-27 15:37:30.975548,140
2021-12-27 15:37:30.975554,142
2021-12-27 15:37:30.975560,149
2021-12-27 15:37:30.975566,128
2021-12-27 15:37:30.975573,109
2021-12-27 15:37:30.975579,116
2021-12-27 15:37:30.975585,119
2021-12-27 15:37:30.975591,112
2021-12-27 15:37:30.975598,102
2021-12-27 15:37:30.975604,98
2021-12-27 15:37:30.975610,102
2021-12-27 15:37:30.975616,107
2021-12-27 15:37:30.975623,98
2021-12-27 15:37:30.975629,95
2021-12-27 15:37:30.975636,107
2021-12-27 15:37:30.975642,102
2021-12-27 15:37:30.975648,93
2021-12-27 15:37:30.975655,95
2021-12-27 15:37:30.975661,93
2021-12-27 15:37:31.171467,93
2021-12-27 15:37:31.171488,102
2021-12-27 15:37:31.171495,98
2021-12-27 15:37:31.171502,88
2021-12-27 15:37:31.171509,95
2021-12-27 15:37:31.171515,105
2021-12-27 15:37:31.171521,95
2021-12-27 15:37:31.171528,81
2021-12-27 15:37:31.171534,74
2021-12-27 15:37:31.171540,84
2021-12-27 15:37:31.171547,84
2021-12-27 15:37:31.171554,58
2021-12-27 15:37:31.171560,32
2021-12-27 15:37:31.171567,32
2021-12-27 15:37:31.171573,51
2021-12-27 15:37:31.171579,60
2021-12-27 15:37:31.171586,63
2021-12-27 15:37:31.171592,67
2021-12-27 15:37:31.171599,72
2021-12-27 15:37:31.171605,67
2021-12-27 15:37:31.171611,65
2021-12-27 15:37:31.171618,67
2021-12-27 15:37:31.171624,70
2021-12-27 15:37:31.171630,70
2021-12-27 15:37:31.171636,67
2021-12-27 15:37:31.171643,65
2021-12-27 15:37:31.171649,74
2021-12-27 15:37:31.171656,121
2021-12-27 15:37:31.171662,177
2021-12-27 15:37:31.171669,88
2021-12-27 15:37:31.414058,-383
2021-12-27 15:37:31.414079,-1191
2021-12-27 15:37:31.414086,-1576
2021-12-27 15:37:31.414093,-801
2021-12-27 15:37:31.414099,238
2021-12-27 15:37:31.414106,308
2021-12-27 15:37:31.414112,49
2021-12-27 15:37:31.414119,189
2021-12-27 15:37:31.414125,263
2021-12-27 15:37:31.414132,156
2021-12-27 15:37:31.414138,156
2021-12-27 15:37:31.414144,179
2021-12-27 15:37:31.414151,137
2021-12-27 15:37:31.414157,121
2021-12-27 15:37:31.414164,121
2021-12-27 15:37:31.414170,98
2021-12-27 15:37:31.414176,79
2021-12-27 15:37:31.414183,77
2021-12-27 15:37:31.414189,63
2021-12-27 15:37:31.414196,46
2021-12-27 15:37:31.414202,39
2021-12-27 15:37:31.414208,30
2021-12-27 15:37:31.414215,16
2021-12-27 15:37:31.414221,7
2021-12-27 15:37:31.414227,-2
2021-12-27 15:37:31.414234,-9
2021-12-27 15:37:31.414240,-9
2021-12-27 15:37:31.414247,-11
2021-12-27 15:37:31.414253,-9
2021-12-27 15:37:31.414259,-7
2021-12-27 15:37:31.609600,0
2021-12-27 15:37:31.609616,9
2021-12-27 15:37:31.609621,23
2021-12-27 15:37:31.609626,39
2021-12-27 15:37:31.609630,56
2021-12-27 15:37:31.609634,81
2021-12-27 15:37:31.609639,100
2021-12-27 15:37:31.609643,109
2021-12-27 15:37:31.609648,121
2021-12-27 15:37:31.609652,130
2021-12-27 15:37:31.609657,130
2021-12-27 15:37:31.609661,128
2021-12-27 15:37:31.609665,123
2021-12-27 15:37:31.609671,116
2021-12-27 15:37:31.609709,112
2021-12-27 15:37:31.609740,109
2021-12-27 15:37:31.609754,100
2021-12-27 15:37:31.609759,95
2021-12-27 15:37:31.609764,95
2021-12-27 15:37:31.609769,93
2021-12-27 15:37:31.609773,88
2021-12-27 15:37:31.609777,88
2021-12-27 15:37:31.609782,81
2021-12-27 15:37:31.609809,77
2021-12-27 15:37:31.609828,79
2021-12-27 15:37:31.609841,81
2021-12-27 15:37:31.609846,79
2021-12-27 15:37:31.609851,79
2021-12-27 15:37:31.609855,79
2021-12-27 15:37:31.609860,81
2021-12-27 15:37:31.854331,86
2021-12-27 15:37:31.854361,91
2021-12-27 15:37:31.854372,91
2021-12-27 15:37:31.854383,86
2021-12-27 15:37:31.854392,84
2021-12-27 15:37:31.854402,81
2021-12-27 15:37:31.854412,77
2021-12-27 15:37:31.854422,74
2021-12-27 15:37:31.854432,77
2021-12-27 15:37:31.854442,74
2021-12-27 15:37:31.854452,72
2021-12-27 15:37:31.854462,72
2021-12-27 15:37:31.854471,70
2021-12-27 15:37:31.854481,56
2021-12-27 15:37:31.854491,35
2021-12-27 15:37:31.854501,30
2021-12-27 15:37:31.854511,44
2021-12-27 15:37:31.854520,51
2021-12-27 15:37:31.854530,51
2021-12-27 15:37:31.854540,65
2021-12-27 15:37:31.854550,74
2021-12-27 15:37:31.854560,74
2021-12-27 15:37:31.854569,77
2021-12-27 15:37:31.854579,79
2021-12-27 15:37:31.854589,79
2021-12-27 15:37:31.854598,79
2021-12-27 15:37:31.854608,79
2021-12-27 15:37:31.854618,77
2021-12-27 15:37:31.854637,86
2021-12-27 15:37:31.854647,133
2021-12-27 15:37:32.097397,193
2021-12-27 15:37:32.097418,107
2021-12-27 15:37:32.097425,-355
2021-12-27 15:37:32.097432,-1139
2021-12-27 15:37:32.097439,-1497
2021-12-27 15:37:32.097445,-731
2021-12-27 15:37:32.097452,252
2021-12-27 15:37:32.097458,289
2021-12-27 15:37:32.097465,46
2021-12-27 15:37:32.097471,193
2021-12-27 15:37:32.097478,268
2021-12-27 15:37:32.097484,170
2021-12-27 15:37:32.097490,168
2021-12-27 15:37:32.097497,182
2021-12-27 15:37:32.097503,140
2021-12-27 15:37:32.097509,126
2021-12-27 15:37:32.097516,133
2021-12-27 15:37:32.097522,112
2021-12-27 15:37:32.097528,88
2021-12-27 15:37:32.097535,84
2021-12-27 15:37:32.097541,74
2021-12-27 15:37:32.097548,58
2021-12-27 15:37:32.097554,49
2021-12-27 15:37:32.097560,39
2021-12-27 15:37:32.097567,25
2021-12-27 15:37:32.097573,16
2021-12-27 15:37:32.097580,9
2021-12-27 15:37:32.097586,0
2021-12-27 15:37:32.097593,-9
2021-12-27 15:37:32.097599,-11
2021-12-27 15:37:32.292908,-9
2021-12-27 15:37:32.292940,0
2021-12-27 15:37:32.292951,9
2021-12-27 15:37:32.292962,16
2021-12-27 15:37:32.292972,25
2021-12-27 15:37:32.292981,39
2021-12-27 15:37:32.292991,56
2021-12-27 15:37:32.293001,79
2021-12-27 15:37:32.293011,98
2021-12-27 15:37:32.293020,107
2021-12-27 15:37:32.293030,119
2021-12-27 15:37:32.293040,130
2021-12-27 15:37:32.293049,135
2021-12-27 15:37:32.293059,135
2021-12-27 15:37:32.293069,128
2021-12-27 15:37:32.293078,116
2021-12-27 15:37:32.293088,109
2021-12-27 15:37:32.293098,109
2021-12-27 15:37:32.293108,107
2021-12-27 15:37:32.293117,102
2021-12-27 15:37:32.293127,102
2021-12-27 15:37:32.293137,100
2021-12-27 15:37:32.293146,95
2021-12-27 15:37:32.293156,95
2021-12-27 15:37:32.293166,93
2021-12-27 15:37:32.293176,93
2021-12-27 15:37:32.293186,93
2021-12-27 15:37:32.293195,93
2021-12-27 15:37:32.293205,88
2021-12-27 15:37:32.293215,91
2021-12-27 15:37:32.584700,95
2021-12-27 15:37:32.584721,98
2021-12-27 15:37:32.584729,98
2021-12-27 15:37:32.584735,98
2021-12-27 15:37:32.584742,93
2021-12-27 15:37:32.584748,93
2021-12-27 15:37:32.584754,95
2021-12-27 15:37:32.584761,95
2021-12-27 15:37:32.584767,93
2021-12-27 15:37:32.584773,88
2021-12-27 15:37:32.584780,84
2021-12-27 15:37:32.584786,81
2021-12-27 15:37:32.584793,77
2021-12-27 15:37:32.584799,77
2021-12-27 15:37:32.584805,79
2021-12-27 15:37:32.584812,81
2021-12-27 15:37:32.584818,70
2021-12-27 15:37:32.584825,56
2021-12-27 15:37:32.584831,39
2021-12-27 15:37:32.584837,37
2021-12-27 15:37:32.584844,49
2021-12-27 15:37:32.584850,53
2021-12-27 15:37:32.584856,56
2021-12-27 15:37:32.584863,67
2021-12-27 15:37:32.584869,77
2021-12-27 15:37:32.584876,77
2021-12-27 15:37:32.584882,74
2021-12-27 15:37:32.584888,77
2021-12-27 15:37:32.584895,79
2021-12-27 15:37:32.584901,81
2021-12-27 15:37:32.780391,79
2021-12-27 15:37:32.780412,77
2021-12-27 15:37:32.780420,88
2021-12-27 15:37:32.780426,130
2021-12-27 15:37:32.780433,179
2021-12-27 15:37:32.780439,67
2021-12-27 15:37:32.780446,-427
2021-12-27 15:37:32.780452,-1191
2021-12-27 15:37:32.780458,-1450
2021-12-27 15:37:32.780465,-621
2021-12-27 15:37:32.780471,287
2021-12-27 15:37:32.780477,249
2021-12-27 15:37:32.780483,37
2021-12-27 15:37:32.780490,198
2021-12-27 15:37:32.780496,242
2021-12-27 15:37:32.780502,142
2021-12-27 15:37:32.780509,154
2021-12-27 15:37:32.780515,172
2021-12-27 15:37:32.780521,128
2021-12-27 15:37:32.780528,109
2021-12-27 15:37:32.780534,114
2021-12-27 15:37:32.780540,100
2021-12-27 15:37:32.780546,86
2021-12-27 15:37:32.780553,77
2021-12-27 15:37:32.780559,60
2021-12-27 15:37:32.780565,46
2021-12-27 15:37:32.780571,35
2021-12-27 15:37:32.780578,21
2021-12-27 15:37:32.780584,9
2021-12-27 15:37:32.780590,2
2021-12-27 15:37:33.023718,-2
2021-12-27 15:37:33.023740,-7
2021-12-27 15:37:33.023747,-9
2021-12-27 15:37:33.023754,-11
2021-12-27 15:37:33.023760,-11
2021-12-27 15:37:33.023767,-4
2021-12-27 15:37:33.023773,2
2021-12-27 15:37:33.023779,7
2021-12-27 15:37:33.023786,16
2021-12-27 15:37:33.023792,35
2021-12-27 15:37:33.023799,56
2021-12-27 15:37:33.023805,79
2021-12-27 15:37:33.023811,100
2021-12-27 15:37:33.023818,109
2021-12-27 15:37:33.023824,116
2021-12-27 15:37:33.023830,121
2021-12-27 15:37:33.023836,126
2021-12-27 15:37:33.023843,130
2021-12-27 15:37:33.023849,133
2021-12-27 15:37:33.023855,121
2021-12-27 15:37:33.023862,109
2021-12-27 15:37:33.023868,107
2021-12-27 15:37:33.023874,105
2021-12-27 15:37:33.023881,98
2021-12-27 15:37:33.023887,98
2021-12-27 15:37:33.023893,100
2021-12-27 15:37:33.023899,98
2021-12-27 15:37:33.023906,98
2021-12-27 15:37:33.023912,102
2021-12-27 15:37:33.023918,100
2021-12-27 15:37:33.219044,98
2021-12-27 15:37:33.219074,95
2021-12-27 15:37:33.219086,95
2021-12-27 15:37:33.219096,98
2021-12-27 15:37:33.219106,100
2021-12-27 15:37:33.219116,98
2021-12-27 15:37:33.219125,102
2021-12-27 15:37:33.219135,107
2021-12-27 15:37:33.219144,93
2021-12-27 15:37:33.219154,79
2021-12-27 15:37:33.219164,86
2021-12-27 15:37:33.219173,93
2021-12-27 15:37:33.219183,88
2021-12-27 15:37:33.219192,84
2021-12-27 15:37:33.219202,86
2021-12-27 15:37:33.219212,88
2021-12-27 15:37:33.219221,79
2021-12-27 15:37:33.219231,65
2021-12-27 15:37:33.219240,46
2021-12-27 15:37:33.219250,37
2021-12-27 15:37:33.219260,44
2021-12-27 15:37:33.219269,49
2021-12-27 15:37:33.219279,51
2021-12-27 15:37:33.219288,60
2021-12-27 15:37:33.219298,74
2021-12-27 15:37:33.219308,81
2021-12-27 15:37:33.219317,84
2021-12-27 15:37:33.219327,81
2021-12-27 15:37:33.219337,74
2021-12-27 15:37:33.219347,77
2021-12-27 15:37:33.510179,81
2021-12-27 15:37:33.510209,77
2021-12-27 15:37:33.510221,74
2021-12-27 15:37:33.510232,107
2021-12-27 15:37:33.510241,168
2021-12-27 15:37:33.510251,161
2021-12-27 15:37:33.510261,-121
2021-12-27 15:37:33.510271,-780
2021-12-27 15:37:33.510281,-1361
2021-12-27 15:37:33.510291,-992
2021-12-27 15:37:33.510301,56
2021-12-27 15:37:33.510310,385
2021-12-27 15:37:33.510320,74
2021-12-27 15:37:33.510330,102
2021-12-27 15:37:33.510340,249
2021-12-27 15:37:33.510350,163
2021-12-27 15:37:33.510359,119
2021-12-27 15:37:33.510369,156
2021-12-27 15:37:33.510379,130
2021-12-27 15:37:33.510389,100
2021-12-27 15:37:33.510398,107
2021-12-27 15:37:33.510408,93
2021-12-27 15:37:33.510418,72
2021-12-27 15:37:33.510428,63
2021-12-27 15:37:33.510438,53
2021-12-27 15:37:33.510448,37
2021-12-27 15:37:33.510458,28
2021-12-27 15:37:33.510467,18
2021-12-27 15:37:33.510477,4
2021-12-27 15:37:33.510487,-9
2021-12-27 15:37:33.706883,-23
2021-12-27 15:37:33.706913,-25
2021-12-27 15:37:33.706925,-25
2021-12-27 15:37:33.706935,-25
2021-12-27 15:37:33.706945,-25
2021-12-27 15:37:33.706955,-21
2021-12-27 15:37:33.706964,-16
2021-12-27 15:37:33.706974,-7
2021-12-27 15:37:33.706984,9
2021-12-27 15:37:33.706994,25
2021-12-27 15:37:33.707004,44
2021-12-27 15:37:33.707014,72
2021-12-27 15:37:33.707024,91
2021-12-27 15:37:33.707033,100
2021-12-27 15:37:33.707043,114
2021-12-27 15:37:33.707053,123
2021-12-27 15:37:33.707063,130
2021-12-27 15:37:33.707073,133
2021-12-27 15:37:33.707082,126
2021-12-27 15:37:33.707092,116
2021-12-27 15:37:33.707102,114
2021-12-27 15:37:33.707112,107
2021-12-27 15:37:33.707122,100
2021-12-27 15:37:33.707136,102
2021-12-27 15:37:33.707146,100
2021-12-27 15:37:33.707156,93
2021-12-27 15:37:33.707166,88
2021-12-27 15:37:33.707175,86
2021-12-27 15:37:33.707185,86
2021-12-27 15:37:33.707195,86
2021-12-27 15:37:33.901682,84
2021-12-27 15:37:33.901712,81
2021-12-27 15:37:33.901724,84
2021-12-27 15:37:33.901734,86
2021-12-27 15:37:33.901744,88
2021-12-27 15:37:33.901753,93
2021-12-27 15:37:33.901763,93
2021-12-27 15:37:33.901772,88
2021-12-27 15:37:33.901782,86
2021-12-27 15:37:33.901792,91
2021-12-27 15:37:33.901801,93
2021-12-27 15:37:33.901811,91
2021-12-27 15:37:33.901821,88
2021-12-27 15:37:33.901831,88
2021-12-27 15:37:33.901841,86
2021-12-27 15:37:33.901850,84
2021-12-27 15:37:33.901860,79
2021-12-27 15:37:33.901870,79
2021-12-27 15:37:33.901880,77
2021-12-27 15:37:33.901890,72
2021-12-27 15:37:33.901899,51
2021-12-27 15:37:33.901909,28
2021-12-27 15:37:33.901919,37
2021-12-27 15:37:33.901929,51
2021-12-27 15:37:33.901939,49
2021-12-27 15:37:33.901948,58
2021-12-27 15:37:33.901958,72
2021-12-27 15:37:33.901968,72
2021-12-27 15:37:33.901978,67
2021-12-27 15:37:33.901987,72
2021-12-27 15:37:34.144892,74
2021-12-27 15:37:34.144926,70
2021-12-27 15:37:34.144934,67
2021-12-27 15:37:34.144941,67
2021-12-27 15:37:34.144947,70
2021-12-27 15:37:34.144954,98
2021-12-27 15:37:34.144960,165
2021-12-27 15:37:34.144967,165
2021-12-27 15:37:34.144973,-123
2021-12-27 15:37:34.144980,-812
2021-12-27 15:37:34.144986,-1471
2021-12-27 15:37:34.144993,-1174
2021-12-27 15:37:34.144999,-72
2021-12-27 15:37:34.145006,392
2021-12-27 15:37:34.145012,102
2021-12-27 15:37:34.145019,95
2021-12-27 15:37:34.145025,266
2021-12-27 15:37:34.145032,198
2021-12-27 15:37:34.145038,137
2021-12-27 15:37:34.145045,175
2021-12-27 15:37:34.145051,151
2021-12-27 15:37:34.145057,109
2021-12-27 15:37:34.145064,109
2021-12-27 15:37:34.145070,102
2021-12-27 15:37:34.145077,84
2021-12-27 15:37:34.145083,74
2021-12-27 15:37:34.145089,58
2021-12-27 15:37:34.145096,44
2021-12-27 15:37:34.145102,37
2021-12-27 15:37:34.145109,28
2021-12-27 15:37:34.389407,16
2021-12-27 15:37:34.389437,4
2021-12-27 15:37:34.389449,-9
2021-12-27 15:37:34.389459,-18
2021-12-27 15:37:34.389469,-21
2021-12-27 15:37:34.389479,-25
2021-12-27 15:37:34.389489,-25
2021-12-27 15:37:34.389498,-21
2021-12-27 15:37:34.389508,-14
2021-12-27 15:37:34.389518,-2
2021-12-27 15:37:34.389527,9
2021-12-27 15:37:34.389537,18
2021-12-27 15:37:34.389547,35
2021-12-27 15:37:34.389557,63
2021-12-27 15:37:34.389566,86
2021-12-27 15:37:34.389576,100
2021-12-27 15:37:34.389586,112
2021-12-27 15:37:34.389595,123
2021-12-27 15:37:34.389605,130
2021-12-27 15:37:34.389615,133
2021-12-27 15:37:34.389624,130
2021-12-27 15:37:34.389634,123
2021-12-27 15:37:34.389644,119
2021-12-27 15:37:34.389653,116
2021-12-27 15:37:34.389663,112
2021-12-27 15:37:34.389673,100
2021-12-27 15:37:34.389682,98
2021-12-27 15:37:34.389692,98
2021-12-27 15:37:34.389702,93
2021-12-27 15:37:34.389711,93
2021-12-27 15:37:34.633143,95
2021-12-27 15:37:34.633173,93
2021-12-27 15:37:34.633185,93
2021-12-27 15:37:34.633195,91
2021-12-27 15:37:34.633205,91
2021-12-27 15:37:34.633215,95
2021-12-27 15:37:34.633224,93
2021-12-27 15:37:34.633234,91
2021-12-27 15:37:34.633244,95
2021-12-27 15:37:34.633254,95
2021-12-27 15:37:34.633263,91
2021-12-27 15:37:34.633273,93
2021-12-27 15:37:34.633283,95
2021-12-27 15:37:34.633293,91
2021-12-27 15:37:34.633302,88
2021-12-27 15:37:34.633312,91
2021-12-27 15:37:34.633322,88
2021-12-27 15:37:34.633331,86
2021-12-27 15:37:34.633341,81
2021-12-27 15:37:34.633351,81
2021-12-27 15:37:34.633361,81
2021-12-27 15:37:34.633370,77
2021-12-27 15:37:34.633380,72
2021-12-27 15:37:34.633390,72
2021-12-27 15:37:34.633400,72
2021-12-27 15:37:34.633410,65
2021-12-27 15:37:34.633419,46
2021-12-27 15:37:34.633429,25
2021-12-27 15:37:34.633439,25
2021-12-27 15:37:34.633448,39
2021-12-27 15:37:34.827954,44
2021-12-27 15:37:34.827984,49
2021-12-27 15:37:34.827996,63
2021-12-27 15:37:34.828006,67
2021-12-27 15:37:34.828016,67
2021-12-27 15:37:34.828026,70
2021-12-27 15:37:34.828035,72
2021-12-27 15:37:34.828045,70
2021-12-27 15:37:34.828055,67
2021-12-27 15:37:34.828065,65
2021-12-27 15:37:34.828075,67
2021-12-27 15:37:34.828085,91
2021-12-27 15:37:34.828095,151
2021-12-27 15:37:34.828105,175
2021-12-27 15:37:34.828115,-58
2021-12-27 15:37:34.828125,-707
2021-12-27 15:37:34.828135,-1450
2021-12-27 15:37:34.828145,-1347
2021-12-27 15:37:34.828154,-268
2021-12-27 15:37:34.828164,387
2021-12-27 15:37:34.828175,154
2021-12-27 15:37:34.828185,70
2021-12-27 15:37:34.828195,259
2021-12-27 15:37:34.828204,228
2021-12-27 15:37:34.828214,151
2021-12-27 15:37:34.828224,186
2021-12-27 15:37:34.828234,182
2021-12-27 15:37:34.828244,140
2021-12-27 15:37:34.828254,135
2021-12-27 15:37:34.828264,126
2021-12-27 15:37:35.120212,102
2021-12-27 15:37:35.120232,91
2021-12-27 15:37:35.120238,86
2021-12-27 15:37:35.120244,70
2021-12-27 15:37:35.120249,51
2021-12-27 15:37:35.120254,39
2021-12-27 15:37:35.120260,30
2021-12-27 15:37:35.120265,18
2021-12-27 15:37:35.120270,9
2021-12-27 15:37:35.120275,0
2021-12-27 15:37:35.120280,-11
2021-12-27 15:37:35.120285,-16
2021-12-27 15:37:35.120290,-16
2021-12-27 15:37:35.120295,-9
2021-12-27 15:37:35.120301,0
2021-12-27 15:37:35.120306,4
2021-12-27 15:37:35.120311,14
2021-12-27 15:37:35.120316,30
2021-12-27 15:37:35.120321,44
2021-12-27 15:37:35.120326,63
2021-12-27 15:37:35.120331,86
2021-12-27 15:37:35.120337,107
2021-12-27 15:37:35.120342,119
2021-12-27 15:37:35.120347,130
2021-12-27 15:37:35.120352,142
2021-12-27 15:37:35.120357,147
2021-12-27 15:37:35.120362,144
2021-12-27 15:37:35.120367,137
2021-12-27 15:37:35.120372,128
2021-12-27 15:37:35.120377,119
2021-12-27 15:37:35.315389,112
2021-12-27 15:37:35.315419,105
2021-12-27 15:37:35.315431,100
2021-12-27 15:37:35.315441,95
2021-12-27 15:37:35.315451,93
2021-12-27 15:37:35.315461,88
2021-12-27 15:37:35.315471,91
2021-12-27 15:37:35.315481,93
2021-12-27 15:37:35.315491,93
2021-12-27 15:37:35.315501,88
2021-12-27 15:37:35.315511,88
2021-12-27 15:37:35.315520,93
2021-12-27 15:37:35.315530,93
2021-12-27 15:37:35.315540,88
2021-12-27 15:37:35.315550,91
2021-12-27 15:37:35.315560,95
2021-12-27 15:37:35.315569,95
2021-12-27 15:37:35.315579,95
2021-12-27 15:37:35.315589,95
2021-12-27 15:37:35.315599,91
2021-12-27 15:37:35.315608,86
2021-12-27 15:37:35.315618,86
2021-12-27 15:37:35.315628,86
2021-12-27 15:37:35.315638,84
2021-12-27 15:37:35.315648,81
2021-12-27 15:37:35.315658,79
2021-12-27 15:37:35.315667,84
2021-12-27 15:37:35.315677,84
2021-12-27 15:37:35.315687,84
2021-12-27 15:37:35.315697,84
2021-12-27 15:37:35.606881,81
2021-12-27 15:37:35.606911,79
2021-12-27 15:37:35.606923,79
2021-12-27 15:37:35.606933,81
2021-12-27 15:37:35.606943,79
2021-12-27 15:37:35.606953,67
2021-12-27 15:37:35.606963,42
2021-12-27 15:37:35.606973,30
2021-12-27 15:37:35.606983,44
2021-12-27 15:37:35.606992,53
2021-12-27 15:37:35.607002,58
2021-12-27 15:37:35.607012,72
2021-12-27 15:37:35.607022,81
2021-12-27 15:37:35.607032,74
2021-12-27 15:37:35.607041,72
2021-12-27 15:37:35.607051,79
2021-12-27 15:37:35.607061,81
2021-12-27 15:37:35.607071,79
2021-12-27 15:37:35.607080,79
2021-12-27 15:37:35.607090,77
2021-12-27 15:37:35.607100,84
2021-12-27 15:37:35.607110,130
2021-12-27 15:37:35.607120,189
2021-12-27 15:37:35.607129,107
2021-12-27 15:37:35.607139,-338
2021-12-27 15:37:35.607150,-1121
2021-12-27 15:37:35.607159,-1508
2021-12-27 15:37:35.607169,-773
2021-12-27 15:37:35.607179,233
2021-12-27 15:37:35.607189,308
2021-12-27 15:37:35.753614,60
2021-12-27 15:37:35.753637,203
2021-12-27 15:37:35.753645,287
2021-12-27 15:37:35.753651,184
2021-12-27 15:37:35.753658,175
2021-12-27 15:37:35.753664,198
2021-12-27 15:37:35.753671,158
2021-12-27 15:37:35.753677,135
2021-12-27 15:37:35.753683,133
2021-12-27 15:37:35.753689,112
2021-12-27 15:37:35.753696,93
2021-12-27 15:37:35.753702,91
2021-12-27 15:37:35.753708,81
2021-12-27 15:37:35.753714,65
2021-12-27 15:37:35.753721,53
2021-12-27 15:37:35.753727,42
2021-12-27 15:37:35.753733,28
2021-12-27 15:37:35.753743,18
2021-12-27 15:37:35.753750,11
2021-12-27 15:37:35.753756,4
2021-12-27 15:37:35.753762,2
2021-12-27 15:37:35.753769,2
2021-12-27 15:37:35.753775,4
2021-12-27 15:37:35.753781,9
2021-12-27 15:37:35.753788,16
2021-12-27 15:37:35.753794,28
2021-12-27 15:37:35.753800,42
2021-12-27 15:37:35.753807,56
2021-12-27 15:37:35.753813,70
2021-12-27 15:37:35.753819,91
2021-12-27 15:37:36.046037,112
2021-12-27 15:37:36.046068,128
2021-12-27 15:37:36.046079,142
2021-12-27 15:37:36.046089,147
2021-12-27 15:37:36.046099,149
2021-12-27 15:37:36.046109,147
2021-12-27 15:37:36.046119,142
2021-12-27 15:37:36.046129,133
2021-12-27 15:37:36.046139,126
2021-12-27 15:37:36.046148,123
2021-12-27 15:37:36.046158,114
2021-12-27 15:37:36.046168,105
2021-12-27 15:37:36.046178,102
2021-12-27 15:37:36.046187,102
2021-12-27 15:37:36.046197,98
2021-12-27 15:37:36.046207,98
2021-12-27 15:37:36.046217,100
2021-12-27 15:37:36.046227,98
2021-12-27 15:37:36.046237,100
2021-12-27 15:37:36.046246,102
2021-12-27 15:37:36.046256,100
2021-12-27 15:37:36.046266,98
2021-12-27 15:37:36.046276,100
2021-12-27 15:37:36.046286,100
2021-12-27 15:37:36.046295,95
2021-12-27 15:37:36.046305,93
2021-12-27 15:37:36.046315,95
2021-12-27 15:37:36.046325,95
2021-12-27 15:37:36.046334,95
2021-12-27 15:37:36.046344,95
2021-12-27 15:37:36.241612,95
2021-12-27 15:37:36.241641,95
2021-12-27 15:37:36.241652,95
2021-12-27 15:37:36.241662,95
2021-12-27 15:37:36.241672,93
2021-12-27 15:37:36.241681,91
2021-12-27 15:37:36.241691,91
2021-12-27 15:37:36.241701,91
2021-12-27 15:37:36.241710,88
2021-12-27 15:37:36.241720,81
2021-12-27 15:37:36.241729,70
2021-12-27 15:37:36.241739,49
2021-12-27 15:37:36.241748,32
2021-12-27 15:37:36.241758,44
2021-12-27 15:37:36.241767,56
2021-12-27 15:37:36.241777,56
2021-12-27 15:37:36.241787,67
2021-12-27 15:37:36.241796,81
2021-12-27 15:37:36.241806,79
2021-12-27 15:37:36.241816,77
2021-12-27 15:37:36.241825,79
2021-12-27 15:37:36.241835,79
2021-12-27 15:37:36.241844,79
2021-12-27 15:37:36.241853,79
2021-12-27 15:37:36.241863,84
2021-12-27 15:37:36.241873,93
2021-12-27 15:37:36.241882,135
2021-12-27 15:37:36.241892,189
2021-12-27 15:37:36.241901,105
2021-12-27 15:37:36.241911,-326
2021-12-27 15:37:36.485025,-1076
2021-12-27 15:37:36.485047,-1452
2021-12-27 15:37:36.485055,-749
2021-12-27 15:37:36.485062,221
2021-12-27 15:37:36.485068,296
2021-12-27 15:37:36.485075,58
2021-12-27 15:37:36.485081,198
2021-12-27 15:37:36.485087,277
2021-12-27 15:37:36.485094,172
2021-12-27 15:37:36.485100,161
2021-12-27 15:37:36.485106,184
2021-12-27 15:37:36.485113,142
2021-12-27 15:37:36.485119,119
2021-12-27 15:37:36.485125,128
2021-12-27 15:37:36.485132,116
2021-12-27 15:37:36.485138,91
2021-12-27 15:37:36.485144,79
2021-12-27 15:37:36.485151,67
2021-12-27 15:37:36.485157,56
2021-12-27 15:37:36.485163,39
2021-12-27 15:37:36.485170,14
2021-12-27 15:37:36.485176,-2
2021-12-27 15:37:36.485183,0
2021-12-27 15:37:36.485189,-4
2021-12-27 15:37:36.485195,-9
2021-12-27 15:37:36.485202,-9
2021-12-27 15:37:36.485208,-9
2021-12-27 15:37:36.485214,-11
2021-12-27 15:37:36.485221,-2
2021-12-27 15:37:36.485227,9
2021-12-27 15:37:36.680479,23
2021-12-27 15:37:36.680501,42
2021-12-27 15:37:36.680509,63
2021-12-27 15:37:36.680516,81
2021-12-27 15:37:36.680522,98
2021-12-27 15:37:36.680529,119
2021-12-27 15:37:36.680535,137
2021-12-27 15:37:36.680541,151
2021-12-27 15:37:36.680548,158
2021-12-27 15:37:36.680554,154
2021-12-27 15:37:36.680561,147
2021-12-27 15:37:36.680567,144
2021-12-27 15:37:36.680574,140
2021-12-27 15:37:36.680580,128
2021-12-27 15:37:36.680586,126
2021-12-27 15:37:36.680593,126
2021-12-27 15:37:36.680599,116
2021-12-27 15:37:36.680606,102
2021-12-27 15:37:36.680612,100
2021-12-27 15:37:36.680618,105
2021-12-27 15:37:36.680625,107
2021-12-27 15:37:36.680631,102
2021-12-27 15:37:36.680638,102
2021-12-27 15:37:36.680644,105
2021-12-27 15:37:36.680650,109
2021-12-27 15:37:36.680657,107
2021-12-27 15:37:36.680663,107
2021-12-27 15:37:36.680670,107
2021-12-27 15:37:36.680676,102
2021-12-27 15:37:36.680683,102
2021-12-27 15:37:36.924176,105
2021-12-27 15:37:36.924197,109
2021-12-27 15:37:36.924205,114
2021-12-27 15:37:36.924211,109
2021-12-27 15:37:36.924218,105
2021-12-27 15:37:36.924224,105
2021-12-27 15:37:36.924231,107
2021-12-27 15:37:36.924237,105
2021-12-27 15:37:36.924243,102
2021-12-27 15:37:36.924250,102
2021-12-27 15:37:36.924256,102
2021-12-27 15:37:36.924262,100
2021-12-27 15:37:36.924269,91
2021-12-27 15:37:36.924275,72
2021-12-27 15:37:36.924282,51
2021-12-27 15:37:36.924288,53
2021-12-27 15:37:36.924294,65
2021-12-27 15:37:36.924301,70
2021-12-27 15:37:36.924307,74
2021-12-27 15:37:36.924313,93
2021-12-27 15:37:36.924320,98
2021-12-27 15:37:36.924326,93
2021-12-27 15:37:36.924332,98
2021-12-27 15:37:36.924339,100
2021-12-27 15:37:36.924345,95
2021-12-27 15:37:36.924352,100
2021-12-27 15:37:36.924358,107
2021-12-27 15:37:36.924365,100
2021-12-27 15:37:36.924371,116
2021-12-27 15:37:36.924377,175
2021-12-27 15:37:37.216651,205
2021-12-27 15:37:37.216680,14
2021-12-27 15:37:37.216692,-560
2021-12-27 15:37:37.216702,-1247
2021-12-27 15:37:37.216713,-1219
2021-12-27 15:37:37.216723,-277
2021-12-27 15:37:37.216732,364
2021-12-27 15:37:37.216742,179
2021-12-27 15:37:37.216752,77
2021-12-27 15:37:37.216762,249
2021-12-27 15:37:37.216772,242
2021-12-27 15:37:37.216782,168
2021-12-27 15:37:37.216791,191
2021-12-27 15:37:37.216801,186
2021-12-27 15:37:37.216811,144
2021-12-27 15:37:37.216821,147
2021-12-27 15:37:37.216831,142
2021-12-27 15:37:37.216841,107
2021-12-27 15:37:37.216851,95
2021-12-27 15:37:37.216861,95
2021-12-27 15:37:37.216870,77
2021-12-27 15:37:37.216880,63
2021-12-27 15:37:37.216890,60
2021-12-27 15:37:37.216900,42
2021-12-27 15:37:37.216910,28
2021-12-27 15:37:37.216920,25
2021-12-27 15:37:37.216929,18
2021-12-27 15:37:37.216939,7
2021-12-27 15:37:37.216949,7
2021-12-27 15:37:37.216959,11
2021-12-27 15:37:37.362956,16
2021-12-27 15:37:37.362986,23
2021-12-27 15:37:37.362998,28
2021-12-27 15:37:37.363008,37
2021-12-27 15:37:37.363018,51
2021-12-27 15:37:37.363028,63
2021-12-27 15:37:37.363038,86
2021-12-27 15:37:37.363048,112
2021-12-27 15:37:37.363058,126
2021-12-27 15:37:37.363067,130
2021-12-27 15:37:37.363077,137
2021-12-27 15:37:37.363087,149
2021-12-27 15:37:37.363097,151
2021-12-27 15:37:37.363107,149
2021-12-27 15:37:37.363116,137
2021-12-27 15:37:37.363126,119
2021-12-27 15:37:37.363136,114
2021-12-27 15:37:37.363146,114
2021-12-27 15:37:37.363156,109
2021-12-27 15:37:37.363165,100
2021-12-27 15:37:37.363175,93
2021-12-27 15:37:37.363185,88
2021-12-27 15:37:37.363195,84
2021-12-27 15:37:37.363204,88
2021-12-27 15:37:37.363214,91
2021-12-27 15:37:37.363224,88
2021-12-27 15:37:37.363234,86
2021-12-27 15:37:37.363243,86
2021-12-27 15:37:37.363253,84
2021-12-27 15:37:37.363263,81
2021-12-27 15:37:37.654072,84
2021-12-27 15:37:37.654101,86
2021-12-27 15:37:37.654113,84
2021-12-27 15:37:37.654123,79
2021-12-27 15:37:37.654133,77
2021-12-27 15:37:37.654143,77
2021-12-27 15:37:37.654153,77
2021-12-27 15:37:37.654163,74
2021-12-27 15:37:37.654172,74
2021-12-27 15:37:37.654182,72
2021-12-27 15:37:37.654192,70
2021-12-27 15:37:37.654202,72
2021-12-27 15:37:37.654212,72
2021-12-27 15:37:37.654222,60
2021-12-27 15:37:37.654232,39
2021-12-27 15:37:37.654241,30
2021-12-27 15:37:37.654251,37
2021-12-27 15:37:37.654261,44
2021-12-27 15:37:37.654271,49
2021-12-27 15:37:37.654281,63
2021-12-27 15:37:37.654291,72
2021-12-27 15:37:37.654300,72
2021-12-27 15:37:37.654310,72
2021-12-27 15:37:37.654320,72
2021-12-27 15:37:37.654330,72
2021-12-27 15:37:37.654340,74
2021-12-27 15:37:37.654349,74
2021-12-27 15:37:37.654359,70
2021-12-27 15:37:37.654369,77
2021-12-27 15:37:37.654379,116
2021-12-27 15:37:37.850536,168
2021-12-27 15:37:37.850567,91
2021-12-27 15:37:37.850578,-326
2021-12-27 15:37:37.850589,-1039
2021-12-27 15:37:37.850598,-1375
2021-12-27 15:37:37.850608,-684
2021-12-27 15:37:37.850618,221
2021-12-27 15:37:37.850628,252
2021-12-27 15:37:37.850637,18
2021-12-27 15:37:37.850647,161
2021-12-27 15:37:37.850657,231
2021-12-27 15:37:37.850667,137
2021-12-27 15:37:37.850676,137
2021-12-27 15:37:37.850686,156
2021-12-27 15:37:37.850696,112
2021-12-27 15:37:37.850705,91
2021-12-27 15:37:37.850715,98
2021-12-27 15:37:37.850725,86
2021-12-27 15:37:37.850734,65
2021-12-27 15:37:37.850744,53
2021-12-27 15:37:37.850753,44
2021-12-27 15:37:37.850763,30
2021-12-27 15:37:37.850773,16
2021-12-27 15:37:37.850782,9
2021-12-27 15:37:37.850792,0
2021-12-27 15:37:37.850802,-14
2021-12-27 15:37:37.850812,-23
2021-12-27 15:37:37.850821,-30
2021-12-27 15:37:37.850831,-35
2021-12-27 15:37:37.850841,-35
2021-12-27 15:37:38.094413,-32
2021-12-27 15:37:38.094443,-28
2021-12-27 15:37:38.094455,-18
2021-12-27 15:37:38.094465,-9
2021-12-27 15:37:38.094475,4
2021-12-27 15:37:38.094485,25
2021-12-27 15:37:38.094495,44
2021-12-27 15:37:38.094505,58
2021-12-27 15:37:38.094514,74
2021-12-27 15:37:38.094524,93
2021-12-27 15:37:38.094534,107
2021-12-27 15:37:38.094543,116
2021-12-27 15:37:38.094553,116
2021-12-27 15:37:38.094563,112
2021-12-27 15:37:38.094622,102
2021-12-27 15:37:38.094634,91
2021-12-27 15:37:38.094644,88
2021-12-27 15:37:38.094653,91
2021-12-27 15:37:38.094663,84
2021-12-27 15:37:38.094673,81
2021-12-27 15:37:38.094683,79
2021-12-27 15:37:38.094693,77
2021-12-27 15:37:38.094702,77
2021-12-27 15:37:38.094712,79
2021-12-27 15:37:38.094722,74
2021-12-27 15:37:38.094732,67
2021-12-27 15:37:38.094742,67
2021-12-27 15:37:38.094752,67
2021-12-27 15:37:38.094762,63
2021-12-27 15:37:38.094772,63
2021-12-27 15:37:38.336735,67
2021-12-27 15:37:38.336755,70
2021-12-27 15:37:38.336763,70
2021-12-27 15:37:38.336770,65
2021-12-27 15:37:38.336776,60
2021-12-27 15:37:38.336782,60
2021-12-27 15:37:38.336789,58
2021-12-27 15:37:38.336795,60
2021-12-27 15:37:38.336802,56
2021-12-27 15:37:38.336808,49
2021-12-27 15:37:38.336814,53
2021-12-27 15:37:38.336820,42
2021-12-27 15:37:38.336827,23
2021-12-27 15:37:38.336833,21
2021-12-27 15:37:38.336839,25
2021-12-27 15:37:38.336846,25
2021-12-27 15:37:38.336852,30
2021-12-27 15:37:38.336858,49
2021-12-27 15:37:38.336865,60
2021-12-27 15:37:38.336871,60
2021-12-27 15:37:38.336877,65
2021-12-27 15:37:38.336884,65
2021-12-27 15:37:38.336890,63
2021-12-27 15:37:38.336896,65
2021-12-27 15:37:38.336903,63
2021-12-27 15:37:38.336909,60
2021-12-27 15:37:38.336915,70
2021-12-27 15:37:38.336922,114
2021-12-27 15:37:38.336928,163
2021-12-27 15:37:38.336934,72
2021-12-27 15:37:38.532859,-362
2021-12-27 15:37:38.532888,-1065
2021-12-27 15:37:38.532900,-1310
2021-12-27 15:37:38.532910,-520
2021-12-27 15:37:38.532920,319
2021-12-27 15:37:38.532930,231
2021-12-27 15:37:38.532940,9
2021-12-27 15:37:38.532950,177
2021-12-27 15:37:38.532960,217
2021-12-27 15:37:38.532969,116
2021-12-27 15:37:38.532979,128
2021-12-27 15:37:38.532989,144
2021-12-27 15:37:38.532999,102
2021-12-27 15:37:38.533009,88
2021-12-27 15:37:38.533018,88
2021-12-27 15:37:38.533028,72
2021-12-27 15:37:38.533038,60
2021-12-27 15:37:38.533048,49
2021-12-27 15:37:38.533058,32
2021-12-27 15:37:38.533067,21
2021-12-27 15:37:38.533077,11
2021-12-27 15:37:38.533087,-2
2021-12-27 15:37:38.533097,-14
2021-12-27 15:37:38.533107,-23
2021-12-27 15:37:38.533116,-32
2021-12-27 15:37:38.533126,-44
2021-12-27 15:37:38.533136,-44
2021-12-27 15:37:38.533146,-37
2021-12-27 15:37:38.533156,-39
2021-12-27 15:37:38.533165,-42
2021-12-27 15:37:38.776610,-28
2021-12-27 15:37:38.776638,-11
2021-12-27 15:37:38.776650,0
2021-12-27 15:37:38.776661,18
2021-12-27 15:37:38.776671,42
2021-12-27 15:37:38.776680,65
2021-12-27 15:37:38.776690,86
2021-12-27 15:37:38.776700,107
2021-12-27 15:37:38.776710,123
2021-12-27 15:37:38.776720,133
2021-12-27 15:37:38.776729,130
2021-12-27 15:37:38.776739,123
2021-12-27 15:37:38.776749,119
2021-12-27 15:37:38.776759,109
2021-12-27 15:37:38.776769,102
2021-12-27 15:37:38.776779,102
2021-12-27 15:37:38.776789,102
2021-12-27 15:37:38.776799,95
2021-12-27 15:37:38.776809,86
2021-12-27 15:37:38.776819,86
2021-12-27 15:37:38.776829,91
2021-12-27 15:37:38.776839,86
2021-12-27 15:37:38.776848,84
2021-12-27 15:37:38.776858,86
2021-12-27 15:37:38.776868,79
2021-12-27 15:37:38.776878,77
2021-12-27 15:37:38.776888,86
2021-12-27 15:37:38.776898,88
2021-12-27 15:37:38.776908,84
2021-12-27 15:37:38.776918,88
2021-12-27 15:37:39.069172,95
2021-12-27 15:37:39.069202,91
2021-12-27 15:37:39.069214,91
2021-12-27 15:37:39.069224,91
2021-12-27 15:37:39.069234,88
2021-12-27 15:37:39.069244,84
2021-12-27 15:37:39.069254,67
2021-12-27 15:37:39.069264,46
2021-12-27 15:37:39.069274,39
2021-12-27 15:37:39.069283,46
2021-12-27 15:37:39.069293,51
2021-12-27 15:37:39.069303,60
2021-12-27 15:37:39.069313,74
2021-12-27 15:37:39.069323,84
2021-12-27 15:37:39.069332,79
2021-12-27 15:37:39.069342,72
2021-12-27 15:37:39.069352,74
2021-12-27 15:37:39.069362,77
2021-12-27 15:37:39.069371,77
2021-12-27 15:37:39.069381,74
2021-12-27 15:37:39.069391,79
2021-12-27 15:37:39.069401,107
2021-12-27 15:37:39.069410,168
2021-12-27 15:37:39.069435,161
2021-12-27 15:37:39.069446,-114
2021-12-27 15:37:39.069456,-773
2021-12-27 15:37:39.069466,-1389
2021-12-27 15:37:39.069476,-1055
2021-12-27 15:37:39.069486,16
2021-12-27 15:37:39.069496,394
2021-12-27 15:37:39.313048,88
2021-12-27 15:37:39.313069,102
2021-12-27 15:37:39.313076,256
2021-12-27 15:37:39.313083,175
2021-12-27 15:37:39.313090,128
2021-12-27 15:37:39.313096,170
2021-12-27 15:37:39.313102,147
2021-12-27 15:37:39.313109,114
2021-12-27 15:37:39.313115,119
2021-12-27 15:37:39.313122,100
2021-12-27 15:37:39.313128,74
2021-12-27 15:37:39.313134,70
2021-12-27 15:37:39.313141,65
2021-12-27 15:37:39.313147,49
2021-12-27 15:37:39.313153,35
2021-12-27 15:37:39.313160,21
2021-12-27 15:37:39.313166,4
2021-12-27 15:37:39.313173,-7
2021-12-27 15:37:39.313179,-14
2021-12-27 15:37:39.313185,-23
2021-12-27 15:37:39.313192,-30
2021-12-27 15:37:39.313198,-35
2021-12-27 15:37:39.313204,-35
2021-12-27 15:37:39.313211,-30
2021-12-27 15:37:39.313217,-21
2021-12-27 15:37:39.313224,-7
2021-12-27 15:37:39.313230,4
2021-12-27 15:37:39.313236,18
2021-12-27 15:37:39.313243,44
2021-12-27 15:37:39.313249,77
2021-12-27 15:37:39.507793,100
2021-12-27 15:37:39.507823,112
2021-12-27 15:37:39.507835,126
2021-12-27 15:37:39.507846,140
2021-12-27 15:37:39.507856,140
2021-12-27 15:37:39.507865,137
2021-12-27 15:37:39.507875,133
2021-12-27 15:37:39.507885,128
2021-12-27 15:37:39.507894,123
2021-12-27 15:37:39.507904,119
2021-12-27 15:37:39.507914,112
2021-12-27 15:37:39.507923,105
2021-12-27 15:37:39.507933,105
2021-12-27 15:37:39.507943,102
2021-12-27 15:37:39.507952,98
2021-12-27 15:37:39.507962,98
2021-12-27 15:37:39.507972,98
2021-12-27 15:37:39.507981,100
2021-12-27 15:37:39.507991,100
2021-12-27 15:37:39.508001,100
2021-12-27 15:37:39.508011,100
2021-12-27 15:37:39.508020,102
2021-12-27 15:37:39.508030,105
2021-12-27 15:37:39.508040,100
2021-12-27 15:37:39.508049,98
2021-12-27 15:37:39.508059,100
2021-12-27 15:37:39.508069,100
2021-12-27 15:37:39.508078,100
2021-12-27 15:37:39.508088,102
2021-12-27 15:37:39.508098,100
2021-12-27 15:37:39.799387,84
2021-12-27 15:37:39.799417,63
2021-12-27 15:37:39.799429,58
2021-12-27 15:37:39.799439,67
2021-12-27 15:37:39.799449,72
2021-12-27 15:37:39.799458,72
2021-12-27 15:37:39.799468,84
2021-12-27 15:37:39.799478,95
2021-12-27 15:37:39.799487,95
2021-12-27 15:37:39.799497,93
2021-12-27 15:37:39.799507,91
2021-12-27 15:37:39.799516,91
2021-12-27 15:37:39.799526,88
2021-12-27 15:37:39.799535,84
2021-12-27 15:37:39.799545,81
2021-12-27 15:37:39.799555,86
2021-12-27 15:37:39.799565,123
2021-12-27 15:37:39.799574,186
2021-12-27 15:37:39.799584,128
2021-12-27 15:37:39.799594,-275
2021-12-27 15:37:39.799603,-1032
2021-12-27 15:37:39.799613,-1520
2021-12-27 15:37:39.799623,-899
2021-12-27 15:37:39.799632,170
2021-12-27 15:37:39.799642,329
2021-12-27 15:37:39.799652,35
2021-12-27 15:37:39.799661,151
2021-12-27 15:37:39.799671,263
2021-12-27 15:37:39.799681,158
2021-12-27 15:37:39.799690,137
2021-12-27 15:37:39.946597,168
2021-12-27 15:37:39.946616,135
2021-12-27 15:37:39.946624,114
2021-12-27 15:37:39.946631,116
2021-12-27 15:37:39.946637,98
2021-12-27 15:37:39.946643,81
2021-12-27 15:37:39.946650,77
2021-12-27 15:37:39.946656,63
2021-12-27 15:37:39.946663,42
2021-12-27 15:37:39.946669,25
2021-12-27 15:37:39.946675,18
2021-12-27 15:37:39.946682,11
2021-12-27 15:37:39.946689,-2
2021-12-27 15:37:39.946695,-21
2021-12-27 15:37:39.946702,-25
2021-12-27 15:37:39.946708,-30
2021-12-27 15:37:39.946715,-35
2021-12-27 15:37:39.946721,-32
2021-12-27 15:37:39.946728,-21
2021-12-27 15:37:39.946734,-9
2021-12-27 15:37:39.946741,-7
2021-12-27 15:37:39.946747,-2
2021-12-27 15:37:39.946754,21
2021-12-27 15:37:39.946760,56
2021-12-27 15:37:39.946767,81
2021-12-27 15:37:39.946773,100
2021-12-27 15:37:39.946780,114
2021-12-27 15:37:39.946786,121
2021-12-27 15:37:39.946793,128
2021-12-27 15:37:39.946799,140
2021-12-27 15:37:40.141328,144
2021-12-27 15:37:40.141349,137
2021-12-27 15:37:40.141357,128
2021-12-27 15:37:40.141364,123
2021-12-27 15:37:40.141370,116
2021-12-27 15:37:40.141377,109
2021-12-27 15:37:40.141384,109
2021-12-27 15:37:40.141390,109
2021-12-27 15:37:40.141396,102
2021-12-27 15:37:40.141403,98
2021-12-27 15:37:40.141409,100
2021-12-27 15:37:40.141415,93
2021-12-27 15:37:40.141422,84
2021-12-27 15:37:40.141428,93
2021-12-27 15:37:40.141434,114
2021-12-27 15:37:40.141441,114
2021-12-27 15:37:40.141447,98
2021-12-27 15:37:40.141454,88
2021-12-27 15:37:40.141460,95
2021-12-27 15:37:40.141466,107
2021-12-27 15:37:40.141473,100
2021-12-27 15:37:40.141479,95
2021-12-27 15:37:40.141486,102
2021-12-27 15:37:40.141492,105
2021-12-27 15:37:40.141498,98
2021-12-27 15:37:40.141505,91
2021-12-27 15:37:40.141511,88
2021-12-27 15:37:40.141517,86
2021-12-27 15:37:40.141524,65
2021-12-27 15:37:40.141530,51
2021-12-27 15:37:40.433235,77
2021-12-27 15:37:40.433273,100
2021-12-27 15:37:40.433282,93
2021-12-27 15:37:40.433289,95
2021-12-27 15:37:40.433296,98
2021-12-27 15:37:40.433303,88
2021-12-27 15:37:40.433310,81
2021-12-27 15:37:40.433316,95
2021-12-27 15:37:40.433322,100
2021-12-27 15:37:40.433329,84
2021-12-27 15:37:40.433335,86
2021-12-27 15:37:40.433341,137
2021-12-27 15:37:40.433347,196
2021-12-27 15:37:40.433354,95
2021-12-27 15:37:40.433360,-378
2021-12-27 15:37:40.433367,-1149
2021-12-27 15:37:40.433373,-1466
2021-12-27 15:37:40.433435,-670
2021-12-27 15:37:40.433444,280
2021-12-27 15:37:40.433456,263
2021-12-27 15:37:40.433468,28
2021-12-27 15:37:40.433475,193
2021-12-27 15:37:40.433481,256
2021-12-27 15:37:40.433488,147
2021-12-27 15:37:40.433494,140
2021-12-27 15:37:40.433502,156
2021-12-27 15:37:40.433509,126
2021-12-27 15:37:40.433516,114
2021-12-27 15:37:40.433524,114
2021-12-27 15:37:40.433531,100
2021-12-27 15:37:40.629210,81
2021-12-27 15:37:40.629239,63
2021-12-27 15:37:40.629251,49
2021-12-27 15:37:40.629261,39
2021-12-27 15:37:40.629270,23
2021-12-27 15:37:40.629280,14
2021-12-27 15:37:40.629290,0
2021-12-27 15:37:40.629299,-16
2021-12-27 15:37:40.629309,-25
2021-12-27 15:37:40.629318,-32
2021-12-27 15:37:40.629328,-46
2021-12-27 15:37:40.629337,-51
2021-12-27 15:37:40.629347,-42
2021-12-27 15:37:40.629357,-35
2021-12-27 15:37:40.629366,-30
2021-12-27 15:37:40.629376,-21
2021-12-27 15:37:40.629385,-4
2021-12-27 15:37:40.629395,16
2021-12-27 15:37:40.629404,46
2021-12-27 15:37:40.629424,74
2021-12-27 15:37:40.629434,93
2021-12-27 15:37:40.629444,114
2021-12-27 15:37:40.629453,130
2021-12-27 15:37:40.629463,133
2021-12-27 15:37:40.629473,126
2021-12-27 15:37:40.629482,126
2021-12-27 15:37:40.629492,128
2021-12-27 15:37:40.629502,116
2021-12-27 15:37:40.629512,109
2021-12-27 15:37:40.629521,109
2021-12-27 15:37:40.823949,102
2021-12-27 15:37:40.823969,93
2021-12-27 15:37:40.823977,100
2021-12-27 15:37:40.823984,105
2021-12-27 15:37:40.823990,91
2021-12-27 15:37:40.823997,81
2021-12-27 15:37:40.824003,91
2021-12-27 15:37:40.824010,86
2021-12-27 15:37:40.824016,74
2021-12-27 15:37:40.824022,79
2021-12-27 15:37:40.824029,81
2021-12-27 15:37:40.824036,79
2021-12-27 15:37:40.824042,91
2021-12-27 15:37:40.824048,98
2021-12-27 15:37:40.824055,91
2021-12-27 15:37:40.824062,81
2021-12-27 15:37:40.824068,81
2021-12-27 15:37:40.824075,84
2021-12-27 15:37:40.824081,77
2021-12-27 15:37:40.824088,74
2021-12-27 15:37:40.824094,81
2021-12-27 15:37:40.824101,86
2021-12-27 15:37:40.824107,77
2021-12-27 15:37:40.824114,53
2021-12-27 15:37:40.824120,44
2021-12-27 15:37:40.824126,63
2021-12-27 15:37:40.824133,72
2021-12-27 15:37:40.824139,63
2021-12-27 15:37:40.824146,70
2021-12-27 15:37:40.824152,86
2021-12-27 15:37:41.068188,84
2021-12-27 15:37:41.068218,88
2021-12-27 15:37:41.068230,98
2021-12-27 15:37:41.068241,84
2021-12-27 15:37:41.068251,81
2021-12-27 15:37:41.068261,88
2021-12-27 15:37:41.068271,77
2021-12-27 15:37:41.068281,79
2021-12-27 15:37:41.068291,114
2021-12-27 15:37:41.068301,165
2021-12-27 15:37:41.068311,175
2021-12-27 15:37:41.068321,-37
2021-12-27 15:37:41.068331,-658
2021-12-27 15:37:41.068341,-1403
2021-12-27 15:37:41.068351,-1333
2021-12-27 15:37:41.068361,-284
2021-12-27 15:37:41.068370,373
2021-12-27 15:37:41.068381,161
2021-12-27 15:37:41.068390,72
2021-12-27 15:37:41.068400,252
2021-12-27 15:37:41.068410,226
2021-12-27 15:37:41.068420,142
2021-12-27 15:37:41.068430,165
2021-12-27 15:37:41.068440,158
2021-12-27 15:37:41.068450,119
2021-12-27 15:37:41.068460,109
2021-12-27 15:37:41.068470,105
2021-12-27 15:37:41.068480,84
2021-12-27 15:37:41.068490,74
2021-12-27 15:37:41.068500,63
2021-12-27 15:37:41.311580,46
2021-12-27 15:37:41.311609,35
2021-12-27 15:37:41.311621,23
2021-12-27 15:37:41.311631,7
2021-12-27 15:37:41.311641,-7
2021-12-27 15:37:41.311652,-21
2021-12-27 15:37:41.311662,-35
2021-12-27 15:37:41.311672,-44
2021-12-27 15:37:41.311681,-46
2021-12-27 15:37:41.311691,-53
2021-12-27 15:37:41.311701,-53
2021-12-27 15:37:41.311711,-49
2021-12-27 15:37:41.311721,-46
2021-12-27 15:37:41.311731,-37
2021-12-27 15:37:41.311740,-14
2021-12-27 15:37:41.311750,14
2021-12-27 15:37:41.311760,39
2021-12-27 15:37:41.311770,65
2021-12-27 15:37:41.311780,88
2021-12-27 15:37:41.311790,102
2021-12-27 15:37:41.311800,114
2021-12-27 15:37:41.311809,119
2021-12-27 15:37:41.311819,116
2021-12-27 15:37:41.311829,114
2021-12-27 15:37:41.311839,109
2021-12-27 15:37:41.311849,100
2021-12-27 15:37:41.311859,93
2021-12-27 15:37:41.311868,91
2021-12-27 15:37:41.311878,88
2021-12-27 15:37:41.311888,86
2021-12-27 15:37:41.652738,81
2021-12-27 15:37:41.652768,81
2021-12-27 15:37:41.652780,86
2021-12-27 15:37:41.652791,84
2021-12-27 15:37:41.652801,84
2021-12-27 15:37:41.652811,84
2021-12-27 15:37:41.652820,84
2021-12-27 15:37:41.652830,81
2021-12-27 15:37:41.652840,79
2021-12-27 15:37:41.652850,81
2021-12-27 15:37:41.652860,84
2021-12-27 15:37:41.652869,86
2021-12-27 15:37:41.652879,88
2021-12-27 15:37:41.652889,88
2021-12-27 15:37:41.652899,86
2021-12-27 15:37:41.652908,84
2021-12-27 15:37:41.652918,88
2021-12-27 15:37:41.652928,88
2021-12-27 15:37:41.652938,86
2021-12-27 15:37:41.652947,84
2021-12-27 15:37:41.652957,81
2021-12-27 15:37:41.652967,86
2021-12-27 15:37:41.652976,81
2021-12-27 15:37:41.652986,56
2021-12-27 15:37:41.652996,39
2021-12-27 15:37:41.653006,49
2021-12-27 15:37:41.653016,58
2021-12-27 15:37:41.653025,58
2021-12-27 15:37:41.653035,72
2021-12-27 15:37:41.653045,88
2021-12-27 15:37:41.797046,86
2021-12-27 15:37:41.797066,84
2021-12-27 15:37:41.797073,86
2021-12-27 15:37:41.797080,86
2021-12-27 15:37:41.797086,84
2021-12-27 15:37:41.797093,84
2021-12-27 15:37:41.797099,79
2021-12-27 15:37:41.797106,81
2021-12-27 15:37:41.797112,107
2021-12-27 15:37:41.797119,163
2021-12-27 15:37:41.797125,168
2021-12-27 15:37:41.797132,-88
2021-12-27 15:37:41.797138,-756
2021-12-27 15:37:41.797144,-1441
2021-12-27 15:37:41.797151,-1219
2021-12-27 15:37:41.797157,-144
2021-12-27 15:37:41.797164,376
2021-12-27 15:37:41.797170,116
2021-12-27 15:37:41.797177,84
2021-12-27 15:37:41.797183,256
2021-12-27 15:37:41.797189,198
2021-12-27 15:37:41.797196,133
2021-12-27 15:37:41.797202,172
2021-12-27 15:37:41.797209,156
2021-12-27 15:37:41.797215,112
2021-12-27 15:37:41.797221,105
2021-12-27 15:37:41.797228,95
2021-12-27 15:37:41.797234,72
2021-12-27 15:37:41.797241,63
2021-12-27 15:37:41.797247,53
2021-12-27 15:37:42.042218,32
2021-12-27 15:37:42.042248,18
2021-12-27 15:37:42.042260,7
2021-12-27 15:37:42.042270,-9
2021-12-27 15:37:42.042280,-21
2021-12-27 15:37:42.042290,-30
2021-12-27 15:37:42.042300,-42
2021-12-27 15:37:42.042310,-49
2021-12-27 15:37:42.042320,-51
2021-12-27 15:37:42.042330,-51
2021-12-27 15:37:42.042340,-53
2021-12-27 15:37:42.042349,-46
2021-12-27 15:37:42.042359,-32
2021-12-27 15:37:42.042369,-18
2021-12-27 15:37:42.042379,-2
2021-12-27 15:37:42.042389,23
2021-12-27 15:37:42.042399,53
2021-12-27 15:37:42.042409,84
2021-12-27 15:37:42.042419,105
2021-12-27 15:37:42.042429,114
2021-12-27 15:37:42.042439,123
2021-12-27 15:37:42.042449,130
2021-12-27 15:37:42.042458,133
2021-12-27 15:37:42.042468,133
2021-12-27 15:37:42.042478,128
2021-12-27 15:37:42.042488,121
2021-12-27 15:37:42.042498,112
2021-12-27 15:37:42.042508,102
2021-12-27 15:37:42.042518,93
2021-12-27 15:37:42.042528,93
2021-12-27 15:37:42.286706,98
2021-12-27 15:37:42.286737,95
2021-12-27 15:37:42.286749,93
2021-12-27 15:37:42.286760,93
2021-12-27 15:37:42.286769,93
2021-12-27 15:37:42.286779,98
2021-12-27 15:37:42.286789,98
2021-12-27 15:37:42.286798,93
2021-12-27 15:37:42.286808,88
2021-12-27 15:37:42.286818,88
2021-12-27 15:37:42.286827,95
2021-12-27 15:37:42.286837,98
2021-12-27 15:37:42.286846,95
2021-12-27 15:37:42.286856,98
2021-12-27 15:37:42.286866,102
2021-12-27 15:37:42.286876,98
2021-12-27 15:37:42.286885,93
2021-12-27 15:37:42.286895,93
2021-12-27 15:37:42.286905,98
2021-12-27 15:37:42.286914,105
2021-12-27 15:37:42.286924,100
2021-12-27 15:37:42.286933,88
2021-12-27 15:37:42.286943,86
2021-12-27 15:37:42.286953,81
2021-12-27 15:37:42.286962,63
2021-12-27 15:37:42.286972,51
2021-12-27 15:37:42.286981,58
2021-12-27 15:37:42.286991,65
2021-12-27 15:37:42.287001,67
2021-12-27 15:37:42.287011,77
2021-12-27 15:37:42.480890,86
2021-12-27 15:37:42.480904,86
2021-12-27 15:37:42.480910,84
2021-12-27 15:37:42.480914,81
2021-12-27 15:37:42.480919,84
2021-12-27 15:37:42.480923,84
2021-12-27 15:37:42.480927,84
2021-12-27 15:37:42.480932,79
2021-12-27 15:37:42.480936,74
2021-12-27 15:37:42.480941,93
2021-12-27 15:37:42.480945,156
2021-12-27 15:37:42.480949,182
2021-12-27 15:37:42.480954,-39
2021-12-27 15:37:42.480958,-660
2021-12-27 15:37:42.480962,-1352
2021-12-27 15:37:42.480967,-1205
2021-12-27 15:37:42.480971,-144
2021-12-27 15:37:42.480976,418
2021-12-27 15:37:42.480980,137
2021-12-27 15:37:42.480984,70
2021-12-27 15:37:42.480989,245
2021-12-27 15:37:42.480993,182
2021-12-27 15:37:42.480998,109
2021-12-27 15:37:42.481002,156
2021-12-27 15:37:42.481006,147
2021-12-27 15:37:42.481011,105
2021-12-27 15:37:42.481015,102
2021-12-27 15:37:42.481019,93
2021-12-27 15:37:42.481024,67
2021-12-27 15:37:42.481028,58
2021-12-27 15:37:42.676514,51
2021-12-27 15:37:42.676555,30
2021-12-27 15:37:42.676567,16
2021-12-27 15:37:42.676577,4
2021-12-27 15:37:42.676587,-9
2021-12-27 15:37:42.676597,-21
2021-12-27 15:37:42.676606,-30
2021-12-27 15:37:42.676616,-39
2021-12-27 15:37:42.676626,-46
2021-12-27 15:37:42.676635,-51
2021-12-27 15:37:42.676645,-53
2021-12-27 15:37:42.676655,-49
2021-12-27 15:37:42.676665,-39
2021-12-27 15:37:42.676675,-35
2021-12-27 15:37:42.676684,-21
2021-12-27 15:37:42.676694,-2
2021-12-27 15:37:42.676704,23
2021-12-27 15:37:42.676714,53
2021-12-27 15:37:42.676724,79
2021-12-27 15:37:42.676733,98
2021-12-27 15:37:42.676743,116
2021-12-27 15:37:42.676753,130
2021-12-27 15:37:42.676763,137
2021-12-27 15:37:42.676772,137
2021-12-27 15:37:42.676782,133
2021-12-27 15:37:42.676792,128
2021-12-27 15:37:42.676802,123
2021-12-27 15:37:42.676812,112
2021-12-27 15:37:42.676822,100
2021-12-27 15:37:42.676832,100
2021-12-27 15:37:42.967891,105
2021-12-27 15:37:42.967912,100
2021-12-27 15:37:42.967919,93
2021-12-27 15:37:42.967926,91
2021-12-27 15:37:42.967933,81
2021-12-27 15:37:42.967939,77
2021-12-27 15:37:42.967946,81
2021-12-27 15:37:42.967963,81
2021-12-27 15:37:42.967970,84
2021-12-27 15:37:42.967976,86
2021-12-27 15:37:42.967982,84
2021-12-27 15:37:42.967989,81
2021-12-27 15:37:42.967995,86
2021-12-27 15:37:42.968065,93
2021-12-27 15:37:42.968081,93
2021-12-27 15:37:42.968118,93
2021-12-27 15:37:42.968131,91
2021-12-27 15:37:42.968143,88
2021-12-27 15:37:42.968152,91
2021-12-27 15:37:42.968162,95
2021-12-27 15:37:42.968171,98
2021-12-27 15:37:42.968181,93
2021-12-27 15:37:42.968192,93
2021-12-27 15:37:42.968204,95
2021-12-27 15:37:42.968215,95
2021-12-27 15:37:42.968241,98
2021-12-27 15:37:42.968254,95
2021-12-27 15:37:42.968267,79
2021-12-27 15:37:42.968278,56
2021-12-27 15:37:42.968286,53
2021-12-27 15:37:43.164060,65
2021-12-27 15:37:43.164097,65
2021-12-27 15:37:43.164110,70
2021-12-27 15:37:43.164120,86
2021-12-27 15:37:43.164130,91
2021-12-27 15:37:43.164140,86
2021-12-27 15:37:43.164150,81
2021-12-27 15:37:43.164160,81
2021-12-27 15:37:43.164169,81
2021-12-27 15:37:43.164179,81
2021-12-27 15:37:43.164189,79
2021-12-27 15:37:43.164199,84
2021-12-27 15:37:43.164208,95
2021-12-27 15:37:43.164218,140
2021-12-27 15:37:43.164228,193
2021-12-27 15:37:43.164238,86
2021-12-27 15:37:43.164247,-406
2021-12-27 15:37:43.164257,-1202
2021-12-27 15:37:43.164267,-1525
2021-12-27 15:37:43.164276,-691
2021-12-27 15:37:43.164286,296
2021-12-27 15:37:43.164296,282
2021-12-27 15:37:43.164305,32
2021-12-27 15:37:43.164315,200
2021-12-27 15:37:43.164325,263
2021-12-27 15:37:43.164354,151
2021-12-27 15:37:43.164365,158
2021-12-27 15:37:43.164374,186
2021-12-27 15:37:43.164384,140
2021-12-27 15:37:43.164394,121
2021-12-27 15:37:43.407707,130
2021-12-27 15:37:43.407736,114
2021-12-27 15:37:43.407750,93
2021-12-27 15:37:43.407758,77
2021-12-27 15:37:43.407765,60
2021-12-27 15:37:43.407771,51
2021-12-27 15:37:43.407778,42
2021-12-27 15:37:43.407788,23
2021-12-27 15:37:43.407797,4
2021-12-27 15:37:43.407805,-7
2021-12-27 15:37:43.407817,-11
2021-12-27 15:37:43.407825,-14
2021-12-27 15:37:43.407835,-25
2021-12-27 15:37:43.407843,-35
2021-12-27 15:37:43.407850,-28
2021-12-27 15:37:43.407856,-21
2021-12-27 15:37:43.407862,-16
2021-12-27 15:37:43.407868,-4
2021-12-27 15:37:43.407875,16
2021-12-27 15:37:43.407881,35
2021-12-27 15:37:43.407887,56
2021-12-27 15:37:43.407893,81
2021-12-27 15:37:43.407900,105
2021-12-27 15:37:43.407906,119
2021-12-27 15:37:43.407912,130
2021-12-27 15:37:43.407918,142
2021-12-27 15:37:43.407925,147
2021-12-27 15:37:43.407954,144
2021-12-27 15:37:43.407965,137
2021-12-27 15:37:43.407972,135
2021-12-27 15:37:43.651199,130
2021-12-27 15:37:43.651221,126
2021-12-27 15:37:43.651228,121
2021-12-27 15:37:43.651235,116
2021-12-27 15:37:43.651241,107
2021-12-27 15:37:43.651252,102
2021-12-27 15:37:43.651258,102
2021-12-27 15:37:43.651264,100
2021-12-27 15:37:43.651271,100
2021-12-27 15:37:43.651277,100
2021-12-27 15:37:43.651283,98
2021-12-27 15:37:43.651290,98
2021-12-27 15:37:43.651296,105
2021-12-27 15:37:43.651302,107
2021-12-27 15:37:43.651309,107
2021-12-27 15:37:43.651315,109
2021-12-27 15:37:43.651321,109
2021-12-27 15:37:43.651328,107
2021-12-27 15:37:43.651334,109
2021-12-27 15:37:43.651340,112
2021-12-27 15:37:43.651347,112
2021-12-27 15:37:43.651353,105
2021-12-27 15:37:43.651359,102
2021-12-27 15:37:43.651366,102
2021-12-27 15:37:43.651372,98
2021-12-27 15:37:43.651378,100
2021-12-27 15:37:43.651385,102
2021-12-27 15:37:43.651391,100
2021-12-27 15:37:43.651397,95
2021-12-27 15:37:43.651404,98
2021-12-27 15:37:43.942078,105
2021-12-27 15:37:43.942106,105
2021-12-27 15:37:43.942119,95
2021-12-27 15:37:43.942131,77
2021-12-27 15:37:43.942143,56
2021-12-27 15:37:43.942155,60
2021-12-27 15:37:43.942164,74
2021-12-27 15:37:43.942171,72
2021-12-27 15:37:43.942177,77
2021-12-27 15:37:43.942184,88
2021-12-27 15:37:43.942190,81
2021-12-27 15:37:43.942197,72
2021-12-27 15:37:43.942203,79
2021-12-27 15:37:43.942210,84
2021-12-27 15:37:43.942216,79
2021-12-27 15:37:43.942222,74
2021-12-27 15:37:43.942229,72
2021-12-27 15:37:43.942235,77
2021-12-27 15:37:43.942241,100
2021-12-27 15:37:43.942248,156
2021-12-27 15:37:43.942254,161
2021-12-27 15:37:43.942261,-93
2021-12-27 15:37:43.942267,-740
2021-12-27 15:37:43.942273,-1434
2021-12-27 15:37:43.942280,-1277
2021-12-27 15:37:43.942286,-212
2021-12-27 15:37:43.942293,383
2021-12-27 15:37:43.942299,144
2021-12-27 15:37:43.942306,88
2021-12-27 15:37:43.942312,277
2021-12-27 15:37:44.139018,233
2021-12-27 15:37:44.139048,156
2021-12-27 15:37:44.139060,191
2021-12-27 15:37:44.139071,175
2021-12-27 15:37:44.139081,133
2021-12-27 15:37:44.139090,137
2021-12-27 15:37:44.139100,135
2021-12-27 15:37:44.139110,105
2021-12-27 15:37:44.139120,91
2021-12-27 15:37:44.139130,88
2021-12-27 15:37:44.139139,72
2021-12-27 15:37:44.139149,58
2021-12-27 15:37:44.139159,49
2021-12-27 15:37:44.139169,32
2021-12-27 15:37:44.139179,14
2021-12-27 15:37:44.139188,9
2021-12-27 15:37:44.139198,4
2021-12-27 15:37:44.139208,-9
2021-12-27 15:37:44.139218,-16
2021-12-27 15:37:44.139228,-14
2021-12-27 15:37:44.139237,-16
2021-12-27 15:37:44.139247,-11
2021-12-27 15:37:44.139257,0
2021-12-27 15:37:44.139267,9
2021-12-27 15:37:44.139276,28
2021-12-27 15:37:44.139286,56
2021-12-27 15:37:44.139296,79
2021-12-27 15:37:44.139306,98
2021-12-27 15:37:44.139316,119
2021-12-27 15:37:44.139326,137
2021-12-27 15:37:44.382901,149
2021-12-27 15:37:44.382923,156
2021-12-27 15:37:44.382930,156
2021-12-27 15:37:44.382937,151
2021-12-27 15:37:44.382943,147
2021-12-27 15:37:44.382950,140
2021-12-27 15:37:44.382956,130
2021-12-27 15:37:44.382962,123
2021-12-27 15:37:44.382969,119
2021-12-27 15:37:44.382975,116
2021-12-27 15:37:44.382981,112
2021-12-27 15:37:44.382988,109
2021-12-27 15:37:44.382994,109
2021-12-27 15:37:44.383000,112
2021-12-27 15:37:44.383007,107
2021-12-27 15:37:44.383013,100
2021-12-27 15:37:44.383019,93
2021-12-27 15:37:44.383026,95
2021-12-27 15:37:44.383032,95
2021-12-27 15:37:44.383039,95
2021-12-27 15:37:44.383045,95
2021-12-27 15:37:44.383051,91
2021-12-27 15:37:44.383058,88
2021-12-27 15:37:44.383064,91
2021-12-27 15:37:44.383070,91
2021-12-27 15:37:44.383076,93
2021-12-27 15:37:44.383083,98
2021-12-27 15:37:44.383089,95
2021-12-27 15:37:44.383095,93
2021-12-27 15:37:44.383102,93
2021-12-27 15:37:44.577082,93
2021-12-27 15:37:44.577107,93
2021-12-27 15:37:44.577118,93
2021-12-27 15:37:44.577127,88
2021-12-27 15:37:44.577165,84
2021-12-27 15:37:44.577176,70
2021-12-27 15:37:44.577182,49
2021-12-27 15:37:44.577187,42
2021-12-27 15:37:44.577203,51
2021-12-27 15:37:44.577220,51
2021-12-27 15:37:44.577228,49
2021-12-27 15:37:44.577233,67
2021-12-27 15:37:44.577238,84
2021-12-27 15:37:44.577243,79
2021-12-27 15:37:44.577248,72
2021-12-27 15:37:44.577254,79
2021-12-27 15:37:44.577259,84
2021-12-27 15:37:44.577264,77
2021-12-27 15:37:44.577269,72
2021-12-27 15:37:44.577274,74
2021-12-27 15:37:44.577279,84
2021-12-27 15:37:44.577285,116
2021-12-27 15:37:44.577290,172
2021-12-27 15:37:44.577295,119
2021-12-27 15:37:44.577300,-247
2021-12-27 15:37:44.577305,-941
2021-12-27 15:37:44.577310,-1410
2021-12-27 15:37:44.577316,-882
2021-12-27 15:37:44.577321,116
2021-12-27 15:37:44.577326,312
2021-12-27 15:37:44.772896,46
2021-12-27 15:37:44.772926,142
2021-12-27 15:37:44.772937,263
2021-12-27 15:37:44.772947,172
2021-12-27 15:37:44.772957,140
2021-12-27 15:37:44.772968,172
2021-12-27 15:37:44.772977,140
2021-12-27 15:37:44.772987,105
2021-12-27 15:37:44.772997,114
2021-12-27 15:37:44.773007,109
2021-12-27 15:37:44.773017,84
2021-12-27 15:37:44.773027,74
2021-12-27 15:37:44.773036,67
2021-12-27 15:37:44.773046,51
2021-12-27 15:37:44.773056,42
2021-12-27 15:37:44.773066,30
2021-12-27 15:37:44.773075,16
2021-12-27 15:37:44.773085,7
2021-12-27 15:37:44.773095,-2
2021-12-27 15:37:44.773105,-16
2021-12-27 15:37:44.773114,-28
2021-12-27 15:37:44.773124,-35
2021-12-27 15:37:44.773134,-30
2021-12-27 15:37:44.773144,-25
2021-12-27 15:37:44.773153,-18
2021-12-27 15:37:44.773163,-7
2021-12-27 15:37:44.773173,9
2021-12-27 15:37:44.773183,28
2021-12-27 15:37:44.773193,46
2021-12-27 15:37:44.773203,74
2021-12-27 15:37:45.016658,98
2021-12-27 15:37:45.016689,109
2021-12-27 15:37:45.016701,121
2021-12-27 15:37:45.016711,130
2021-12-27 15:37:45.016754,128
2021-12-27 15:37:45.016764,128
2021-12-27 15:37:45.016773,128
2021-12-27 15:37:45.016783,119
2021-12-27 15:37:45.016793,107
2021-12-27 15:37:45.016803,105
2021-12-27 15:37:45.016812,107
2021-12-27 15:37:45.016822,102
2021-12-27 15:37:45.016832,95
2021-12-27 15:37:45.016842,91
2021-12-27 15:37:45.016851,88
2021-12-27 15:37:45.016861,88
2021-12-27 15:37:45.016871,88
2021-12-27 15:37:45.016881,86
2021-12-27 15:37:45.016890,81
2021-12-27 15:37:45.016900,88
2021-12-27 15:37:45.016910,91
2021-12-27 15:37:45.016920,86
2021-12-27 15:37:45.016929,84
2021-12-27 15:37:45.016939,88
2021-12-27 15:37:45.016949,88
2021-12-27 15:37:45.016959,88
2021-12-27 15:37:45.016968,93
2021-12-27 15:37:45.016978,91
2021-12-27 15:37:45.016988,88
2021-12-27 15:37:45.016998,91
2021-12-27 15:37:45.211504,88
2021-12-27 15:37:45.211524,86
2021-12-27 15:37:45.211531,88
2021-12-27 15:37:45.211538,86
2021-12-27 15:37:45.211544,84
2021-12-27 15:37:45.211551,86
2021-12-27 15:37:45.211557,72
2021-12-27 15:37:45.211563,42
2021-12-27 15:37:45.211569,35
2021-12-27 15:37:45.211576,49
2021-12-27 15:37:45.211582,49
2021-12-27 15:37:45.211588,51
2021-12-27 15:37:45.211594,74
2021-12-27 15:37:45.211601,88
2021-12-27 15:37:45.211607,81
2021-12-27 15:37:45.211613,74
2021-12-27 15:37:45.211620,77
2021-12-27 15:37:45.211626,81
2021-12-27 15:37:45.211632,84
2021-12-27 15:37:45.211639,81
2021-12-27 15:37:45.211645,79
2021-12-27 15:37:45.211651,84
2021-12-27 15:37:45.211658,119
2021-12-27 15:37:45.211664,172
2021-12-27 15:37:45.211670,121
2021-12-27 15:37:45.211676,-247
2021-12-27 15:37:45.211683,-929
2021-12-27 15:37:45.211689,-1349
2021-12-27 15:37:45.211696,-789
2021-12-27 15:37:45.211702,149
2021-12-27 15:37:45.455585,280
2021-12-27 15:37:45.455616,32
2021-12-27 15:37:45.455627,149
2021-12-27 15:37:45.455638,249
2021-12-27 15:37:45.455647,156
2021-12-27 15:37:45.455657,140
2021-12-27 15:37:45.455667,163
2021-12-27 15:37:45.455676,126
2021-12-27 15:37:45.455686,107
2021-12-27 15:37:45.455696,112
2021-12-27 15:37:45.455706,91
2021-12-27 15:37:45.455715,74
2021-12-27 15:37:45.455725,70
2021-12-27 15:37:45.455735,53
2021-12-27 15:37:45.455744,42
2021-12-27 15:37:45.455754,35
2021-12-27 15:37:45.455764,25
2021-12-27 15:37:45.455774,16
2021-12-27 15:37:45.455784,2
2021-12-27 15:37:45.455793,-9
2021-12-27 15:37:45.455803,-16
2021-12-27 15:37:45.455813,-21
2021-12-27 15:37:45.455823,-23
2021-12-27 15:37:45.455833,-16
2021-12-27 15:37:45.455842,-11
2021-12-27 15:37:45.455852,-4
2021-12-27 15:37:45.455862,4
2021-12-27 15:37:45.455872,16
2021-12-27 15:37:45.455882,30
2021-12-27 15:37:45.455891,56
2021-12-27 15:37:45.698995,77
2021-12-27 15:37:45.699024,93
2021-12-27 15:37:45.699036,107
2021-12-27 15:37:45.699046,123
2021-12-27 15:37:45.699056,137
2021-12-27 15:37:45.699159,137
2021-12-27 15:37:45.699172,130
2021-12-27 15:37:45.699182,128
2021-12-27 15:37:45.699192,121
2021-12-27 15:37:45.699202,114
2021-12-27 15:37:45.699211,107
2021-12-27 15:37:45.699221,102
2021-12-27 15:37:45.699231,100
2021-12-27 15:37:45.699241,98
2021-12-27 15:37:45.699250,95
2021-12-27 15:37:45.699260,93
2021-12-27 15:37:45.699270,91
2021-12-27 15:37:45.699279,93
2021-12-27 15:37:45.699289,95
2021-12-27 15:37:45.699299,93
2021-12-27 15:37:45.699309,95
2021-12-27 15:37:45.699318,95
2021-12-27 15:37:45.699328,93
2021-12-27 15:37:45.699338,95
2021-12-27 15:37:45.699348,100
2021-12-27 15:37:45.699357,95
2021-12-27 15:37:45.699367,98
2021-12-27 15:37:45.699377,100
2021-12-27 15:37:45.699387,98
2021-12-27 15:37:45.699396,91
2021-12-27 15:37:45.990605,88
2021-12-27 15:37:45.990635,86
2021-12-27 15:37:45.990647,81
2021-12-27 15:37:45.990657,74
2021-12-27 15:37:45.990667,74
2021-12-27 15:37:45.990677,72
2021-12-27 15:37:45.990687,51
2021-12-27 15:37:45.990697,30
2021-12-27 15:37:45.990707,28
2021-12-27 15:37:45.990716,37
2021-12-27 15:37:45.990726,46
2021-12-27 15:37:45.990736,58
2021-12-27 15:37:45.990746,77
2021-12-27 15:37:45.990755,81
2021-12-27 15:37:45.990765,72
2021-12-27 15:37:45.990775,72
2021-12-27 15:37:45.990784,74
2021-12-27 15:37:45.990794,77
2021-12-27 15:37:45.990804,74
2021-12-27 15:37:45.990813,77
2021-12-27 15:37:45.990823,79
2021-12-27 15:37:45.990833,95
2021-12-27 15:37:45.990842,144
2021-12-27 15:37:45.990852,161
2021-12-27 15:37:45.990862,-51
2021-12-27 15:37:45.990872,-614
2021-12-27 15:37:45.990881,-1209
2021-12-27 15:37:45.990891,-1044
2021-12-27 15:37:45.990901,-121
2021-12-27 15:37:45.990911,336
2021-12-27 15:37:46.137550,98
2021-12-27 15:37:46.137580,72
2021-12-27 15:37:46.137592,238
2021-12-27 15:37:46.137603,191
2021-12-27 15:37:46.137613,126
2021-12-27 15:37:46.137623,161
2021-12-27 15:37:46.137633,154
2021-12-27 15:37:46.137643,114
2021-12-27 15:37:46.137653,107
2021-12-27 15:37:46.137663,100
2021-12-27 15:37:46.137673,81
2021-12-27 15:37:46.137683,72
2021-12-27 15:37:46.137693,63
2021-12-27 15:37:46.137704,51
2021-12-27 15:37:46.137714,39
2021-12-27 15:37:46.137724,25
2021-12-27 15:37:46.137734,11
2021-12-27 15:37:46.137744,7
2021-12-27 15:37:46.137754,2
2021-12-27 15:37:46.137764,-2
2021-12-27 15:37:46.137774,-4
2021-12-27 15:37:46.137784,-4
2021-12-27 15:37:46.137794,-7
2021-12-27 15:37:46.137804,-2
2021-12-27 15:37:46.137814,2
2021-12-27 15:37:46.137825,11
2021-12-27 15:37:46.137835,21
2021-12-27 15:37:46.137845,35
2021-12-27 15:37:46.137855,51
2021-12-27 15:37:46.137865,72
2021-12-27 15:37:46.381616,93
2021-12-27 15:37:46.381646,109
2021-12-27 15:37:46.381658,121
2021-12-27 15:37:46.381668,128
2021-12-27 15:37:46.381678,130
2021-12-27 15:37:46.381688,128
2021-12-27 15:37:46.381697,123
2021-12-27 15:37:46.381707,116
2021-12-27 15:37:46.381717,107
2021-12-27 15:37:46.381726,102
2021-12-27 15:37:46.381736,98
2021-12-27 15:37:46.381746,91
2021-12-27 15:37:46.381756,86
2021-12-27 15:37:46.381765,88
2021-12-27 15:37:46.381775,88
2021-12-27 15:37:46.381785,86
2021-12-27 15:37:46.381794,79
2021-12-27 15:37:46.381804,79
2021-12-27 15:37:46.381814,86
2021-12-27 15:37:46.381824,88
2021-12-27 15:37:46.381833,88
2021-12-27 15:37:46.381843,86
2021-12-27 15:37:46.381853,86
2021-12-27 15:37:46.381862,88
2021-12-27 15:37:46.381872,88
2021-12-27 15:37:46.381882,84
2021-12-27 15:37:46.381892,86
2021-12-27 15:37:46.381901,88
2021-12-27 15:37:46.381911,86
2021-12-27 15:37:46.381921,81
2021-12-27 15:37:46.673878,84
2021-12-27 15:37:46.673898,84
2021-12-27 15:37:46.673906,65
2021-12-27 15:37:46.673912,37
2021-12-27 15:37:46.673919,28
2021-12-27 15:37:46.673925,32
2021-12-27 15:37:46.673931,35
2021-12-27 15:37:46.673937,39
2021-12-27 15:37:46.673944,56
2021-12-27 15:37:46.673950,65
2021-12-27 15:37:46.673956,63
2021-12-27 15:37:46.673963,60
2021-12-27 15:37:46.673969,58
2021-12-27 15:37:46.673975,53
2021-12-27 15:37:46.673981,58
2021-12-27 15:37:46.673988,60
2021-12-27 15:37:46.673994,56
2021-12-27 15:37:46.674001,65
2021-12-27 15:37:46.674007,116
2021-12-27 15:37:46.674013,147
2021-12-27 15:37:46.674020,-11
2021-12-27 15:37:46.674026,-511
2021-12-27 15:37:46.674033,-1149
2021-12-27 15:37:46.674039,-1156
2021-12-27 15:37:46.674045,-275
2021-12-27 15:37:46.674052,345
2021-12-27 15:37:46.674058,137
2021-12-27 15:37:46.674064,16
2021-12-27 15:37:46.674071,193
2021-12-27 15:37:46.674077,184
2021-12-27 15:37:46.819902,107
2021-12-27 15:37:46.819925,137
2021-12-27 15:37:46.819933,135
2021-12-27 15:37:46.819939,93
2021-12-27 15:37:46.819946,91
2021-12-27 15:37:46.819952,91
2021-12-27 15:37:46.819958,65
2021-12-27 15:37:46.819965,49
2021-12-27 15:37:46.820036,39
2021-12-27 15:37:46.820044,21
2021-12-27 15:37:46.820050,9
2021-12-27 15:37:46.820057,2
2021-12-27 15:37:46.820063,-4
2021-12-27 15:37:46.820069,-18
2021-12-27 15:37:46.820076,-35
2021-12-27 15:37:46.820082,-44
2021-12-27 15:37:46.820088,-46
2021-12-27 15:37:46.820094,-49
2021-12-27 15:37:46.820101,-49
2021-12-27 15:37:46.820107,-44
2021-12-27 15:37:46.820113,-37
2021-12-27 15:37:46.820119,-28
2021-12-27 15:37:46.820126,-18
2021-12-27 15:37:46.820132,-4
2021-12-27 15:37:46.820138,16
2021-12-27 15:37:46.820145,44
2021-12-27 15:37:46.820151,72
2021-12-27 15:37:46.820157,84
2021-12-27 15:37:46.820163,98
2021-12-27 15:37:46.820169,116
2021-12-27 15:37:47.063763,126
2021-12-27 15:37:47.063791,123
2021-12-27 15:37:47.063803,119
2021-12-27 15:37:47.063813,112
2021-12-27 15:37:47.063823,105
2021-12-27 15:37:47.063833,100
2021-12-27 15:37:47.063843,98
2021-12-27 15:37:47.063853,93
2021-12-27 15:37:47.063863,88
2021-12-27 15:37:47.063873,86
2021-12-27 15:37:47.063883,81
2021-12-27 15:37:47.063893,77
2021-12-27 15:37:47.063903,77
2021-12-27 15:37:47.063913,77
2021-12-27 15:37:47.063923,81
2021-12-27 15:37:47.063933,88
2021-12-27 15:37:47.063942,84
2021-12-27 15:37:47.063952,79
2021-12-27 15:37:47.063962,81
2021-12-27 15:37:47.063972,86
2021-12-27 15:37:47.063982,88
2021-12-27 15:37:47.063992,86
2021-12-27 15:37:47.064002,84
2021-12-27 15:37:47.064011,81
2021-12-27 15:37:47.064021,77
2021-12-27 15:37:47.064031,60
2021-12-27 15:37:47.064041,51
2021-12-27 15:37:47.064051,58
2021-12-27 15:37:47.064061,60
2021-12-27 15:37:47.064071,63
2021-12-27 15:37:47.307740,81
2021-12-27 15:37:47.307770,93
2021-12-27 15:37:47.307782,91
2021-12-27 15:37:47.307792,91
2021-12-27 15:37:47.307802,91
2021-12-27 15:37:47.307812,84
2021-12-27 15:37:47.307821,79
2021-12-27 15:37:47.307831,81
2021-12-27 15:37:47.307841,81
2021-12-27 15:37:47.307850,79
2021-12-27 15:37:47.307860,100
2021-12-27 15:37:47.307870,151
2021-12-27 15:37:47.307880,123
2021-12-27 15:37:47.307889,-196
2021-12-27 15:37:47.307899,-854
2021-12-27 15:37:47.307909,-1328
2021-12-27 15:37:47.307919,-815
2021-12-27 15:37:47.307929,179
2021-12-27 15:37:47.307938,345
2021-12-27 15:37:47.307948,32
2021-12-27 15:37:47.307958,107
2021-12-27 15:37:47.307968,219
2021-12-27 15:37:47.307978,126
2021-12-27 15:37:47.307987,109
2021-12-27 15:37:47.307997,142
2021-12-27 15:37:47.308007,107
2021-12-27 15:37:47.308017,84
2021-12-27 15:37:47.308027,86
2021-12-27 15:37:47.308037,74
2021-12-27 15:37:47.308046,60
2021-12-27 15:37:47.551523,49
2021-12-27 15:37:47.551543,32
2021-12-27 15:37:47.551551,23
2021-12-27 15:37:47.551558,14
2021-12-27 15:37:47.551564,0
2021-12-27 15:37:47.551571,-9
2021-12-27 15:37:47.551577,-16
2021-12-27 15:37:47.551583,-28
2021-12-27 15:37:47.551590,-37
2021-12-27 15:37:47.551596,-37
2021-12-27 15:37:47.551602,-32
2021-12-27 15:37:47.551609,-32
2021-12-27 15:37:47.551615,-25
2021-12-27 15:37:47.551622,-18
2021-12-27 15:37:47.551628,-11
2021-12-27 15:37:47.551634,0
2021-12-27 15:37:47.551641,21
2021-12-27 15:37:47.551647,44
2021-12-27 15:37:47.551653,63
2021-12-27 15:37:47.551660,84
2021-12-27 15:37:47.551666,102
2021-12-27 15:37:47.551672,116
2021-12-27 15:37:47.551679,126
2021-12-27 15:37:47.551685,133
2021-12-27 15:37:47.551691,130
2021-12-27 15:37:47.551698,126
2021-12-27 15:37:47.551704,121
2021-12-27 15:37:47.551710,119
2021-12-27 15:37:47.551716,114
2021-12-27 15:37:47.551723,109
2021-12-27 15:37:47.746580,109
2021-12-27 15:37:47.746600,105
2021-12-27 15:37:47.746607,102
2021-12-27 15:37:47.746614,100
2021-12-27 15:37:47.746620,98
2021-12-27 15:37:47.746627,95
2021-12-27 15:37:47.746633,100
2021-12-27 15:37:47.746639,102
2021-12-27 15:37:47.746646,98
2021-12-27 15:37:47.746652,95
2021-12-27 15:37:47.746658,95
2021-12-27 15:37:47.746664,100
2021-12-27 15:37:47.746671,102
2021-12-27 15:37:47.746677,105
2021-12-27 15:37:47.746683,105
2021-12-27 15:37:47.746690,98
2021-12-27 15:37:47.746696,79
2021-12-27 15:37:47.746702,65
2021-12-27 15:37:47.746709,67
2021-12-27 15:37:47.746715,77
2021-12-27 15:37:47.746721,77
2021-12-27 15:37:47.746728,84
2021-12-27 15:37:47.746734,100
2021-12-27 15:37:47.746740,107
2021-12-27 15:37:47.746746,102
2021-12-27 15:37:47.746753,95
2021-12-27 15:37:47.746759,95
2021-12-27 15:37:47.746765,93
2021-12-27 15:37:47.746772,88
2021-12-27 15:37:47.746778,88
2021-12-27 15:37:48.087084,91
2021-12-27 15:37:48.087115,102
2021-12-27 15:37:48.087127,151
2021-12-27 15:37:48.087137,205
2021-12-27 15:37:48.087147,81
2021-12-27 15:37:48.087157,-429
2021-12-27 15:37:48.087167,-1212
2021-12-27 15:37:48.087177,-1459
2021-12-27 15:37:48.087186,-588
2021-12-27 15:37:48.087196,336
2021-12-27 15:37:48.087206,266
2021-12-27 15:37:48.087216,30
2021-12-27 15:37:48.087225,207
2021-12-27 15:37:48.087235,259
2021-12-27 15:37:48.087245,151
2021-12-27 15:37:48.087254,161
2021-12-27 15:37:48.087264,175
2021-12-27 15:37:48.087274,123
2021-12-27 15:37:48.087284,112
2021-12-27 15:37:48.087293,116
2021-12-27 15:37:48.087303,98
2021-12-27 15:37:48.087313,81
2021-12-27 15:37:48.087323,74
2021-12-27 15:37:48.087332,60
2021-12-27 15:37:48.087342,46
2021-12-27 15:37:48.087352,37
2021-12-27 15:37:48.087362,25
2021-12-27 15:37:48.087371,11
2021-12-27 15:37:48.087381,2
2021-12-27 15:37:48.087391,-4
2021-12-27 15:37:48.234024,-9
2021-12-27 15:37:48.234058,-9
2021-12-27 15:37:48.234069,-4
2021-12-27 15:37:48.234079,-2
2021-12-27 15:37:48.234089,2
2021-12-27 15:37:48.234100,11
2021-12-27 15:37:48.234110,18
2021-12-27 15:37:48.234120,32
2021-12-27 15:37:48.234129,53
2021-12-27 15:37:48.234139,74
2021-12-27 15:37:48.234149,91
