Time,ECG
2021-12-27 15:52:22.767468,116
2021-12-27 15:52:22.767482,116
2021-12-27 15:52:22.767487,119
2021-12-27 15:52:22.767505,114
2021-12-27 15:52:22.767509,107
2021-12-27 15:52:22.767514,109
2021-12-27 15:52:22.767518,112
2021-12-27 15:52:22.767522,114
2021-12-27 15:52:22.767526,116
2021-12-27 15:52:22.767530,116
2021-12-27 15:52:22.767535,114
2021-12-27 15:52:22.767539,119
2021-12-27 15:52:22.767543,123
2021-12-27 15:52:22.767547,121
2021-12-27 15:52:22.767551,126
2021-12-27 15:52:22.767555,128
2021-12-27 15:52:22.767560,123
2021-12-27 15:52:22.767564,121
2021-12-27 15:52:22.767568,126
2021-12-27 15:52:22.767572,130
2021-12-27 15:52:22.767577,133
2021-12-27 15:52:22.767581,133
2021-12-27 15:52:22.767585,126
2021-12-27 15:52:22.767589,109
2021-12-27 15:52:22.767593,93
2021-12-27 15:52:22.767597,93
2021-12-27 15:52:22.767602,102
2021-12-27 15:52:22.767606,105
2021-12-27 15:52:22.767610,107
2021-12-27 15:52:22.767614,119
2021-12-27 15:52:22.824432,126
2021-12-27 15:52:22.824462,123
2021-12-27 15:52:22.824474,123
2021-12-27 15:52:22.824484,121
2021-12-27 15:52:22.824494,121
2021-12-27 15:52:22.824504,119
2021-12-27 15:52:22.824660,114
2021-12-27 15:52:22.824704,109
2021-12-27 15:52:22.824724,119
2021-12-27 15:52:22.824735,163
2021-12-27 15:52:22.824746,217
2021-12-27 15:52:22.824755,102
2021-12-27 15:52:22.824766,-387
2021-12-27 15:52:22.824776,-1163
2021-12-27 15:52:22.824790,-1513
2021-12-27 15:52:22.824804,-768
2021-12-27 15:52:22.824814,228
2021-12-27 15:52:22.824825,294
2021-12-27 15:52:22.824835,39
2021-12-27 15:52:22.824845,189
2021-12-27 15:52:22.824855,282
2021-12-27 15:52:22.824865,179
2021-12-27 15:52:22.824875,175
2021-12-27 15:52:22.824885,205
2021-12-27 15:52:22.824895,161
2021-12-27 15:52:22.824905,140
2021-12-27 15:52:22.824914,149
2021-12-27 15:52:22.824924,133
2021-12-27 15:52:22.824934,112
2021-12-27 15:52:22.824947,107
2021-12-27 15:52:23.116848,98
2021-12-27 15:52:23.116869,84
2021-12-27 15:52:23.116876,72
2021-12-27 15:52:23.116883,63
2021-12-27 15:52:23.116889,53
2021-12-27 15:52:23.116896,44
2021-12-27 15:52:23.116902,32
2021-12-27 15:52:23.116908,18
2021-12-27 15:52:23.116915,9
2021-12-27 15:52:23.116921,7
2021-12-27 15:52:23.116927,2
2021-12-27 15:52:23.116933,2
2021-12-27 15:52:23.116940,9
2021-12-27 15:52:23.116950,18
2021-12-27 15:52:23.116957,28
2021-12-27 15:52:23.116963,46
2021-12-27 15:52:23.116969,70
2021-12-27 15:52:23.116976,95
2021-12-27 15:52:23.116982,114
2021-12-27 15:52:23.116988,126
2021-12-27 15:52:23.116995,135
2021-12-27 15:52:23.117001,142
2021-12-27 15:52:23.117007,147
2021-12-27 15:52:23.117014,149
2021-12-27 15:52:23.117020,147
2021-12-27 15:52:23.117026,142
2021-12-27 15:52:23.117033,133
2021-12-27 15:52:23.117039,128
2021-12-27 15:52:23.117045,126
2021-12-27 15:52:23.117053,123
2021-12-27 15:52:23.263121,123
2021-12-27 15:52:23.263142,121
2021-12-27 15:52:23.263149,119
2021-12-27 15:52:23.263156,116
2021-12-27 15:52:23.263162,119
2021-12-27 15:52:23.263168,121
2021-12-27 15:52:23.263175,121
2021-12-27 15:52:23.263181,119
2021-12-27 15:52:23.263187,116
2021-12-27 15:52:23.263193,114
2021-12-27 15:52:23.263199,114
2021-12-27 15:52:23.263206,112
2021-12-27 15:52:23.263212,107
2021-12-27 15:52:23.263218,105
2021-12-27 15:52:23.263224,105
2021-12-27 15:52:23.263231,105
2021-12-27 15:52:23.263237,102
2021-12-27 15:52:23.263247,105
2021-12-27 15:52:23.263254,107
2021-12-27 15:52:23.263260,107
2021-12-27 15:52:23.263266,107
2021-12-27 15:52:23.263272,107
2021-12-27 15:52:23.263279,107
2021-12-27 15:52:23.263285,109
2021-12-27 15:52:23.263291,100
2021-12-27 15:52:23.263297,79
2021-12-27 15:52:23.263303,70
2021-12-27 15:52:23.263310,77
2021-12-27 15:52:23.263316,84
2021-12-27 15:52:23.263322,86
2021-12-27 15:52:23.507005,95
2021-12-27 15:52:23.507026,107
2021-12-27 15:52:23.507033,105
2021-12-27 15:52:23.507040,100
2021-12-27 15:52:23.507046,100
2021-12-27 15:52:23.507053,98
2021-12-27 15:52:23.507059,98
2021-12-27 15:52:23.507071,100
2021-12-27 15:52:23.507078,98
2021-12-27 15:52:23.507084,100
2021-12-27 15:52:23.507091,126
2021-12-27 15:52:23.507097,184
2021-12-27 15:52:23.507103,184
2021-12-27 15:52:23.507110,-105
2021-12-27 15:52:23.507116,-784
2021-12-27 15:52:23.507122,-1429
2021-12-27 15:52:23.507129,-1174
2021-12-27 15:52:23.507135,-133
2021-12-27 15:52:23.507141,352
2021-12-27 15:52:23.507148,98
2021-12-27 15:52:23.507154,77
2021-12-27 15:52:23.507161,256
2021-12-27 15:52:23.507167,210
2021-12-27 15:52:23.507173,147
2021-12-27 15:52:23.507180,184
2021-12-27 15:52:23.507186,175
2021-12-27 15:52:23.507192,137
2021-12-27 15:52:23.507199,137
2021-12-27 15:52:23.507205,133
2021-12-27 15:52:23.507212,109
2021-12-27 15:52:23.750588,95
2021-12-27 15:52:23.750609,91
2021-12-27 15:52:23.750617,74
2021-12-27 15:52:23.750623,58
2021-12-27 15:52:23.750630,49
2021-12-27 15:52:23.750636,39
2021-12-27 15:52:23.750643,23
2021-12-27 15:52:23.750649,11
2021-12-27 15:52:23.750656,4
2021-12-27 15:52:23.750662,-2
2021-12-27 15:52:23.750669,-2
2021-12-27 15:52:23.750675,-2
2021-12-27 15:52:23.750682,-4
2021-12-27 15:52:23.750688,0
2021-12-27 15:52:23.750695,11
2021-12-27 15:52:23.750701,23
2021-12-27 15:52:23.750708,32
2021-12-27 15:52:23.750714,46
2021-12-27 15:52:23.750721,67
2021-12-27 15:52:23.750727,86
2021-12-27 15:52:23.750734,102
2021-12-27 15:52:23.750740,116
2021-12-27 15:52:23.750747,126
2021-12-27 15:52:23.750753,133
2021-12-27 15:52:23.750765,133
2021-12-27 15:52:23.750772,130
2021-12-27 15:52:23.750778,128
2021-12-27 15:52:23.750785,121
2021-12-27 15:52:23.750792,116
2021-12-27 15:52:23.750798,114
2021-12-27 15:52:24.041609,112
2021-12-27 15:52:24.041630,107
2021-12-27 15:52:24.041638,105
2021-12-27 15:52:24.041645,105
2021-12-27 15:52:24.041651,105
2021-12-27 15:52:24.041657,105
2021-12-27 15:52:24.041664,107
2021-12-27 15:52:24.041670,102
2021-12-27 15:52:24.041676,100
2021-12-27 15:52:24.041700,102
2021-12-27 15:52:24.041710,102
2021-12-27 15:52:24.041720,107
2021-12-27 15:52:24.041729,109
2021-12-27 15:52:24.041784,109
2021-12-27 15:52:24.041790,105
2021-12-27 15:52:24.041797,105
2021-12-27 15:52:24.041803,107
2021-12-27 15:52:24.041809,109
2021-12-27 15:52:24.041815,107
2021-12-27 15:52:24.041822,105
2021-12-27 15:52:24.041828,105
2021-12-27 15:52:24.041835,102
2021-12-27 15:52:24.041843,102
2021-12-27 15:52:24.041850,105
2021-12-27 15:52:24.041856,107
2021-12-27 15:52:24.041862,109
2021-12-27 15:52:24.041869,109
2021-12-27 15:52:24.041875,109
2021-12-27 15:52:24.041881,98
2021-12-27 15:52:24.041888,81
2021-12-27 15:52:24.189441,70
2021-12-27 15:52:24.189471,77
2021-12-27 15:52:24.189483,84
2021-12-27 15:52:24.189493,84
2021-12-27 15:52:24.189502,93
2021-12-27 15:52:24.189512,102
2021-12-27 15:52:24.189522,100
2021-12-27 15:52:24.189532,100
2021-12-27 15:52:24.189541,100
2021-12-27 15:52:24.189551,95
2021-12-27 15:52:24.189561,91
2021-12-27 15:52:24.189570,95
2021-12-27 15:52:24.189580,95
2021-12-27 15:52:24.189590,98
2021-12-27 15:52:24.189599,119
2021-12-27 15:52:24.189609,172
2021-12-27 15:52:24.189619,175
2021-12-27 15:52:24.189628,-70
2021-12-27 15:52:24.189638,-660
2021-12-27 15:52:24.189648,-1268
2021-12-27 15:52:24.189658,-1111
2021-12-27 15:52:24.189668,-175
2021-12-27 15:52:24.189677,322
2021-12-27 15:52:24.189687,93
2021-12-27 15:52:24.189702,42
2021-12-27 15:52:24.189712,212
2021-12-27 15:52:24.189721,182
2021-12-27 15:52:24.189731,119
2021-12-27 15:52:24.189741,154
2021-12-27 15:52:24.189750,149
2021-12-27 15:52:24.530026,109
2021-12-27 15:52:24.530056,109
2021-12-27 15:52:24.530069,107
2021-12-27 15:52:24.530079,84
2021-12-27 15:52:24.530089,70
2021-12-27 15:52:24.530098,63
2021-12-27 15:52:24.530108,53
2021-12-27 15:52:24.530118,44
2021-12-27 15:52:24.530128,35
2021-12-27 15:52:24.530138,23
2021-12-27 15:52:24.530147,14
2021-12-27 15:52:24.530157,7
2021-12-27 15:52:24.530167,0
2021-12-27 15:52:24.530177,-4
2021-12-27 15:52:24.530187,-7
2021-12-27 15:52:24.530196,-7
2021-12-27 15:52:24.530206,-2
2021-12-27 15:52:24.530216,4
2021-12-27 15:52:24.530226,14
2021-12-27 15:52:24.530236,25
2021-12-27 15:52:24.530246,39
2021-12-27 15:52:24.530256,53
2021-12-27 15:52:24.530266,70
2021-12-27 15:52:24.530275,88
2021-12-27 15:52:24.530285,100
2021-12-27 15:52:24.530295,112
2021-12-27 15:52:24.530305,128
2021-12-27 15:52:24.530315,135
2021-12-27 15:52:24.530325,133
2021-12-27 15:52:24.530335,130
2021-12-27 15:52:24.677438,128
2021-12-27 15:52:24.677460,126
2021-12-27 15:52:24.677468,121
2021-12-27 15:52:24.677474,116
2021-12-27 15:52:24.677481,112
2021-12-27 15:52:24.677487,109
2021-12-27 15:52:24.677493,105
2021-12-27 15:52:24.677500,105
2021-12-27 15:52:24.677506,105
2021-12-27 15:52:24.677512,102
2021-12-27 15:52:24.677518,102
2021-12-27 15:52:24.677525,109
2021-12-27 15:52:24.677531,109
2021-12-27 15:52:24.677537,100
2021-12-27 15:52:24.677544,98
2021-12-27 15:52:24.677550,102
2021-12-27 15:52:24.677588,107
2021-12-27 15:52:24.677594,107
2021-12-27 15:52:24.677601,107
2021-12-27 15:52:24.677607,105
2021-12-27 15:52:24.677613,105
2021-12-27 15:52:24.677619,105
2021-12-27 15:52:24.677625,102
2021-12-27 15:52:24.677631,102
2021-12-27 15:52:24.677638,105
2021-12-27 15:52:24.677644,100
2021-12-27 15:52:24.677650,98
2021-12-27 15:52:24.677656,95
2021-12-27 15:52:24.677663,93
2021-12-27 15:52:24.677669,91
2021-12-27 15:52:24.872028,91
2021-12-27 15:52:24.872049,88
2021-12-27 15:52:24.872056,81
2021-12-27 15:52:24.872063,67
2021-12-27 15:52:24.872069,51
2021-12-27 15:52:24.872076,56
2021-12-27 15:52:24.872082,70
2021-12-27 15:52:24.872089,72
2021-12-27 15:52:24.872095,74
2021-12-27 15:52:24.872101,84
2021-12-27 15:52:24.872112,84
2021-12-27 15:52:24.872119,81
2021-12-27 15:52:24.872126,84
2021-12-27 15:52:24.872132,81
2021-12-27 15:52:24.872138,74
2021-12-27 15:52:24.872145,72
2021-12-27 15:52:24.872151,70
2021-12-27 15:52:24.872158,67
2021-12-27 15:52:24.872164,88
2021-12-27 15:52:24.872171,144
2021-12-27 15:52:24.872177,161
2021-12-27 15:52:24.872183,-37
2021-12-27 15:52:24.872190,-569
2021-12-27 15:52:24.872196,-1156
2021-12-27 15:52:24.872203,-1058
2021-12-27 15:52:24.872209,-186
2021-12-27 15:52:24.872215,319
2021-12-27 15:52:24.872222,109
2021-12-27 15:52:24.872228,37
2021-12-27 15:52:24.872235,189
2021-12-27 15:52:25.163670,165
2021-12-27 15:52:25.163689,112
2021-12-27 15:52:25.163699,142
2021-12-27 15:52:25.163707,128
2021-12-27 15:52:25.163715,93
2021-12-27 15:52:25.163723,95
2021-12-27 15:52:25.163730,95
2021-12-27 15:52:25.163738,74
2021-12-27 15:52:25.163746,63
2021-12-27 15:52:25.163754,53
2021-12-27 15:52:25.163762,37
2021-12-27 15:52:25.163769,28
2021-12-27 15:52:25.163777,21
2021-12-27 15:52:25.163784,9
2021-12-27 15:52:25.163792,2
2021-12-27 15:52:25.163800,-2
2021-12-27 15:52:25.163808,-9
2021-12-27 15:52:25.163816,-16
2021-12-27 15:52:25.163824,-18
2021-12-27 15:52:25.163832,-14
2021-12-27 15:52:25.163840,-9
2021-12-27 15:52:25.163848,0
2021-12-27 15:52:25.163856,7
2021-12-27 15:52:25.163863,11
2021-12-27 15:52:25.163870,25
2021-12-27 15:52:25.163882,49
2021-12-27 15:52:25.163890,63
2021-12-27 15:52:25.163897,74
2021-12-27 15:52:25.163905,93
2021-12-27 15:52:25.163913,112
2021-12-27 15:52:25.359054,126
2021-12-27 15:52:25.359075,137
2021-12-27 15:52:25.359083,142
2021-12-27 15:52:25.359090,135
2021-12-27 15:52:25.359096,126
2021-12-27 15:52:25.359103,119
2021-12-27 15:52:25.359110,116
2021-12-27 15:52:25.359116,116
2021-12-27 15:52:25.359122,109
2021-12-27 15:52:25.359180,105
2021-12-27 15:52:25.359190,102
2021-12-27 15:52:25.359197,98
2021-12-27 15:52:25.359203,93
2021-12-27 15:52:25.359210,100
2021-12-27 15:52:25.359216,105
2021-12-27 15:52:25.359222,100
2021-12-27 15:52:25.359228,102
2021-12-27 15:52:25.359234,102
2021-12-27 15:52:25.359241,93
2021-12-27 15:52:25.359247,98
2021-12-27 15:52:25.359253,105
2021-12-27 15:52:25.359259,102
2021-12-27 15:52:25.359265,100
2021-12-27 15:52:25.359271,102
2021-12-27 15:52:25.359278,102
2021-12-27 15:52:25.359284,100
2021-12-27 15:52:25.359290,102
2021-12-27 15:52:25.359296,109
2021-12-27 15:52:25.359302,112
2021-12-27 15:52:25.359309,109
2021-12-27 15:52:25.602851,105
2021-12-27 15:52:25.602900,98
2021-12-27 15:52:25.602934,84
2021-12-27 15:52:25.602942,67
2021-12-27 15:52:25.602948,65
2021-12-27 15:52:25.602955,74
2021-12-27 15:52:25.602961,74
2021-12-27 15:52:25.602968,77
2021-12-27 15:52:25.602974,81
2021-12-27 15:52:25.602980,84
2021-12-27 15:52:25.602987,88
2021-12-27 15:52:25.602993,93
2021-12-27 15:52:25.602999,88
2021-12-27 15:52:25.603006,81
2021-12-27 15:52:25.603012,79
2021-12-27 15:52:25.603018,81
2021-12-27 15:52:25.603029,81
2021-12-27 15:52:25.603036,102
2021-12-27 15:52:25.603042,156
2021-12-27 15:52:25.603049,168
2021-12-27 15:52:25.603055,-51
2021-12-27 15:52:25.603061,-614
2021-12-27 15:52:25.603068,-1193
2021-12-27 15:52:25.603074,-1006
2021-12-27 15:52:25.603081,-79
2021-12-27 15:52:25.603087,364
2021-12-27 15:52:25.603094,107
2021-12-27 15:52:25.603100,65
2021-12-27 15:52:25.603107,217
2021-12-27 15:52:25.603113,168
2021-12-27 15:52:25.846986,116
2021-12-27 15:52:25.847007,158
2021-12-27 15:52:25.847015,147
2021-12-27 15:52:25.847021,109
2021-12-27 15:52:25.847028,112
2021-12-27 15:52:25.847034,105
2021-12-27 15:52:25.847040,81
2021-12-27 15:52:25.847047,67
2021-12-27 15:52:25.847053,58
2021-12-27 15:52:25.847060,44
2021-12-27 15:52:25.847066,32
2021-12-27 15:52:25.847072,23
2021-12-27 15:52:25.847079,11
2021-12-27 15:52:25.847085,-2
2021-12-27 15:52:25.847091,-9
2021-12-27 15:52:25.847098,-18
2021-12-27 15:52:25.847104,-25
2021-12-27 15:52:25.847110,-25
2021-12-27 15:52:25.847118,-18
2021-12-27 15:52:25.847124,-7
2021-12-27 15:52:25.847131,0
2021-12-27 15:52:25.847137,7
2021-12-27 15:52:25.847144,23
2021-12-27 15:52:25.847150,42
2021-12-27 15:52:25.847156,58
2021-12-27 15:52:25.847163,81
2021-12-27 15:52:25.847169,102
2021-12-27 15:52:25.847175,114
2021-12-27 15:52:25.847181,126
2021-12-27 15:52:25.847188,144
2021-12-27 15:52:26.088971,158
2021-12-27 15:52:26.088990,158
2021-12-27 15:52:26.088998,154
2021-12-27 15:52:26.089004,149
2021-12-27 15:52:26.089011,144
2021-12-27 15:52:26.089017,137
2021-12-27 15:52:26.089024,130
2021-12-27 15:52:26.089031,126
2021-12-27 15:52:26.089037,121
2021-12-27 15:52:26.089044,114
2021-12-27 15:52:26.089050,112
2021-12-27 15:52:26.089057,109
2021-12-27 15:52:26.089063,109
2021-12-27 15:52:26.089072,109
2021-12-27 15:52:26.089079,109
2021-12-27 15:52:26.089085,105
2021-12-27 15:52:26.089092,102
2021-12-27 15:52:26.089098,107
2021-12-27 15:52:26.089105,109
2021-12-27 15:52:26.089111,107
2021-12-27 15:52:26.089117,109
2021-12-27 15:52:26.089124,114
2021-12-27 15:52:26.089130,114
2021-12-27 15:52:26.089137,112
2021-12-27 15:52:26.089143,112
2021-12-27 15:52:26.089149,116
2021-12-27 15:52:26.089156,119
2021-12-27 15:52:26.089162,116
2021-12-27 15:52:26.089169,114
2021-12-27 15:52:26.089175,116
2021-12-27 15:52:26.285715,109
2021-12-27 15:52:26.285736,93
2021-12-27 15:52:26.285744,77
2021-12-27 15:52:26.285750,74
2021-12-27 15:52:26.285757,77
2021-12-27 15:52:26.285763,77
2021-12-27 15:52:26.285770,79
2021-12-27 15:52:26.285776,86
2021-12-27 15:52:26.285783,91
2021-12-27 15:52:26.285789,88
2021-12-27 15:52:26.285796,88
2021-12-27 15:52:26.285802,91
2021-12-27 15:52:26.285809,84
2021-12-27 15:52:26.285815,81
2021-12-27 15:52:26.285821,84
2021-12-27 15:52:26.285828,77
2021-12-27 15:52:26.285834,77
2021-12-27 15:52:26.285841,119
2021-12-27 15:52:26.285847,175
2021-12-27 15:52:26.285853,91
2021-12-27 15:52:26.285860,-329
2021-12-27 15:52:26.285866,-1034
2021-12-27 15:52:26.285873,-1399
2021-12-27 15:52:26.285879,-749
2021-12-27 15:52:26.285885,196
2021-12-27 15:52:26.285892,280
2021-12-27 15:52:26.285898,28
2021-12-27 15:52:26.285905,147
2021-12-27 15:52:26.285911,233
2021-12-27 15:52:26.285917,149
2021-12-27 15:52:26.529615,149
2021-12-27 15:52:26.529635,175
2021-12-27 15:52:26.529642,137
2021-12-27 15:52:26.529649,119
2021-12-27 15:52:26.529655,126
2021-12-27 15:52:26.529662,112
2021-12-27 15:52:26.529668,95
2021-12-27 15:52:26.529675,84
2021-12-27 15:52:26.529681,70
2021-12-27 15:52:26.529687,53
2021-12-27 15:52:26.529694,42
2021-12-27 15:52:26.529700,35
2021-12-27 15:52:26.529706,28
2021-12-27 15:52:26.529713,16
2021-12-27 15:52:26.529719,4
2021-12-27 15:52:26.529725,-2
2021-12-27 15:52:26.529732,-2
2021-12-27 15:52:26.529745,0
2021-12-27 15:52:26.529752,2
2021-12-27 15:52:26.529758,4
2021-12-27 15:52:26.529765,11
2021-12-27 15:52:26.529771,18
2021-12-27 15:52:26.529777,32
2021-12-27 15:52:26.529784,51
2021-12-27 15:52:26.529790,74
2021-12-27 15:52:26.529797,98
2021-12-27 15:52:26.529803,112
2021-12-27 15:52:26.529809,121
2021-12-27 15:52:26.529816,135
2021-12-27 15:52:26.529822,147
2021-12-27 15:52:26.773215,149
2021-12-27 15:52:26.773245,154
2021-12-27 15:52:26.773257,154
2021-12-27 15:52:26.773267,144
2021-12-27 15:52:26.773277,137
2021-12-27 15:52:26.773287,135
2021-12-27 15:52:26.773297,130
2021-12-27 15:52:26.773307,126
2021-12-27 15:52:26.773317,123
2021-12-27 15:52:26.773326,116
2021-12-27 15:52:26.773337,112
2021-12-27 15:52:26.773347,109
2021-12-27 15:52:26.773356,112
2021-12-27 15:52:26.773366,109
2021-12-27 15:52:26.773376,109
2021-12-27 15:52:26.773386,107
2021-12-27 15:52:26.773396,102
2021-12-27 15:52:26.773406,105
2021-12-27 15:52:26.773416,107
2021-12-27 15:52:26.773426,107
2021-12-27 15:52:26.773435,107
2021-12-27 15:52:26.773445,100
2021-12-27 15:52:26.773455,98
2021-12-27 15:52:26.773465,102
2021-12-27 15:52:26.773475,105
2021-12-27 15:52:26.773485,102
2021-12-27 15:52:26.773495,102
2021-12-27 15:52:26.773505,102
2021-12-27 15:52:26.773515,102
2021-12-27 15:52:26.773524,105
2021-12-27 15:52:27.017109,109
2021-12-27 15:52:27.017130,102
2021-12-27 15:52:27.017138,84
2021-12-27 15:52:27.017145,65
2021-12-27 15:52:27.017151,65
2021-12-27 15:52:27.017158,70
2021-12-27 15:52:27.017165,72
2021-12-27 15:52:27.017171,79
2021-12-27 15:52:27.017177,91
2021-12-27 15:52:27.017184,91
2021-12-27 15:52:27.017190,88
2021-12-27 15:52:27.017197,91
2021-12-27 15:52:27.017203,91
2021-12-27 15:52:27.017210,86
2021-12-27 15:52:27.017216,84
2021-12-27 15:52:27.017223,84
2021-12-27 15:52:27.017229,86
2021-12-27 15:52:27.017236,95
2021-12-27 15:52:27.017242,144
2021-12-27 15:52:27.017248,184
2021-12-27 15:52:27.017255,28
2021-12-27 15:52:27.017261,-509
2021-12-27 15:52:27.017268,-1240
2021-12-27 15:52:27.017274,-1394
2021-12-27 15:52:27.017281,-527
2021-12-27 15:52:27.017287,301
2021-12-27 15:52:27.017294,221
2021-12-27 15:52:27.017300,39
2021-12-27 15:52:27.017307,207
2021-12-27 15:52:27.017319,245
2021-12-27 15:52:27.211214,158
2021-12-27 15:52:27.211229,177
2021-12-27 15:52:27.211235,191
2021-12-27 15:52:27.211241,151
2021-12-27 15:52:27.211246,140
2021-12-27 15:52:27.211251,142
2021-12-27 15:52:27.211256,121
2021-12-27 15:52:27.211261,107
2021-12-27 15:52:27.211267,105
2021-12-27 15:52:27.211272,91
2021-12-27 15:52:27.211277,72
2021-12-27 15:52:27.211282,65
2021-12-27 15:52:27.211287,56
2021-12-27 15:52:27.211292,42
2021-12-27 15:52:27.211297,32
2021-12-27 15:52:27.211302,21
2021-12-27 15:52:27.211307,11
2021-12-27 15:52:27.211313,9
2021-12-27 15:52:27.211318,11
2021-12-27 15:52:27.211323,16
2021-12-27 15:52:27.211328,23
2021-12-27 15:52:27.211333,28
2021-12-27 15:52:27.211341,32
2021-12-27 15:52:27.211347,44
2021-12-27 15:52:27.211352,60
2021-12-27 15:52:27.211357,79
2021-12-27 15:52:27.211362,98
2021-12-27 15:52:27.211367,109
2021-12-27 15:52:27.211372,123
2021-12-27 15:52:27.211377,135
2021-12-27 15:52:27.455958,144
2021-12-27 15:52:27.455987,149
2021-12-27 15:52:27.455999,147
2021-12-27 15:52:27.456009,142
2021-12-27 15:52:27.456019,140
2021-12-27 15:52:27.456029,135
2021-12-27 15:52:27.456039,130
2021-12-27 15:52:27.456049,126
2021-12-27 15:52:27.456059,121
2021-12-27 15:52:27.456069,119
2021-12-27 15:52:27.456079,116
2021-12-27 15:52:27.456088,116
2021-12-27 15:52:27.456098,114
2021-12-27 15:52:27.456108,114
2021-12-27 15:52:27.456118,112
2021-12-27 15:52:27.456127,107
2021-12-27 15:52:27.456137,109
2021-12-27 15:52:27.456147,109
2021-12-27 15:52:27.456157,107
2021-12-27 15:52:27.456167,109
2021-12-27 15:52:27.456176,109
2021-12-27 15:52:27.456186,107
2021-12-27 15:52:27.456196,109
2021-12-27 15:52:27.456206,114
2021-12-27 15:52:27.456215,114
2021-12-27 15:52:27.456225,114
2021-12-27 15:52:27.456235,112
2021-12-27 15:52:27.456245,109
2021-12-27 15:52:27.456254,109
2021-12-27 15:52:27.456264,114
2021-12-27 15:52:27.650814,114
2021-12-27 15:52:27.650836,112
2021-12-27 15:52:27.650843,112
2021-12-27 15:52:27.650850,109
2021-12-27 15:52:27.650856,107
2021-12-27 15:52:27.650863,107
2021-12-27 15:52:27.650869,95
2021-12-27 15:52:27.650875,77
2021-12-27 15:52:27.650882,65
2021-12-27 15:52:27.650888,67
2021-12-27 15:52:27.650894,70
2021-12-27 15:52:27.650901,67
2021-12-27 15:52:27.650907,77
2021-12-27 15:52:27.650914,91
2021-12-27 15:52:27.650920,95
2021-12-27 15:52:27.650926,93
2021-12-27 15:52:27.650933,93
2021-12-27 15:52:27.650939,91
2021-12-27 15:52:27.650945,88
2021-12-27 15:52:27.650952,88
2021-12-27 15:52:27.650964,88
2021-12-27 15:52:27.650971,91
2021-12-27 15:52:27.650978,112
2021-12-27 15:52:27.650984,168
2021-12-27 15:52:27.650991,175
2021-12-27 15:52:27.650997,-81
2021-12-27 15:52:27.651004,-721
2021-12-27 15:52:27.651010,-1396
2021-12-27 15:52:27.651017,-1254
2021-12-27 15:52:27.651023,-235
2021-12-27 15:52:27.893748,355
2021-12-27 15:52:27.893764,140
2021-12-27 15:52:27.893770,74
2021-12-27 15:52:27.893776,247
2021-12-27 15:52:27.893781,219
2021-12-27 15:52:27.893786,149
2021-12-27 15:52:27.893792,177
2021-12-27 15:52:27.893797,172
2021-12-27 15:52:27.893802,135
2021-12-27 15:52:27.893807,135
2021-12-27 15:52:27.893812,130
2021-12-27 15:52:27.893818,107
2021-12-27 15:52:27.893823,95
2021-12-27 15:52:27.893828,91
2021-12-27 15:52:27.893833,81
2021-12-27 15:52:27.893838,70
2021-12-27 15:52:27.893843,63
2021-12-27 15:52:27.893849,49
2021-12-27 15:52:27.893854,37
2021-12-27 15:52:27.893859,32
2021-12-27 15:52:27.893864,23
2021-12-27 15:52:27.893869,14
2021-12-27 15:52:27.893875,7
2021-12-27 15:52:27.893880,9
2021-12-27 15:52:27.893885,16
2021-12-27 15:52:27.893890,25
2021-12-27 15:52:27.893895,30
2021-12-27 15:52:27.893900,35
2021-12-27 15:52:27.893906,44
2021-12-27 15:52:27.893911,63
2021-12-27 15:52:28.185534,86
2021-12-27 15:52:28.185564,102
2021-12-27 15:52:28.185575,119
2021-12-27 15:52:28.185585,135
2021-12-27 15:52:28.185595,142
2021-12-27 15:52:28.185605,149
2021-12-27 15:52:28.185615,151
2021-12-27 15:52:28.185625,149
2021-12-27 15:52:28.185634,142
2021-12-27 15:52:28.185644,137
2021-12-27 15:52:28.185654,135
2021-12-27 15:52:28.185664,130
2021-12-27 15:52:28.185674,123
2021-12-27 15:52:28.185684,119
2021-12-27 15:52:28.185693,116
2021-12-27 15:52:28.185703,116
2021-12-27 15:52:28.185713,116
2021-12-27 15:52:28.185723,119
2021-12-27 15:52:28.185732,119
2021-12-27 15:52:28.185742,116
2021-12-27 15:52:28.185752,114
2021-12-27 15:52:28.185761,112
2021-12-27 15:52:28.185771,112
2021-12-27 15:52:28.185781,112
2021-12-27 15:52:28.185791,112
2021-12-27 15:52:28.185800,112
2021-12-27 15:52:28.185810,112
2021-12-27 15:52:28.185820,114
2021-12-27 15:52:28.185830,112
2021-12-27 15:52:28.185839,114
2021-12-27 15:52:28.333364,116
2021-12-27 15:52:28.333387,114
2021-12-27 15:52:28.333394,114
2021-12-27 15:52:28.333401,114
2021-12-27 15:52:28.333407,112
2021-12-27 15:52:28.333413,112
2021-12-27 15:52:28.333420,114
2021-12-27 15:52:28.333426,107
2021-12-27 15:52:28.333432,91
2021-12-27 15:52:28.333439,86
2021-12-27 15:52:28.333445,88
2021-12-27 15:52:28.333451,86
2021-12-27 15:52:28.333457,84
2021-12-27 15:52:28.333464,84
2021-12-27 15:52:28.333470,81
2021-12-27 15:52:28.333476,79
2021-12-27 15:52:28.333483,81
2021-12-27 15:52:28.333489,74
2021-12-27 15:52:28.333495,58
2021-12-27 15:52:28.333502,49
2021-12-27 15:52:28.333508,56
2021-12-27 15:52:28.333515,58
2021-12-27 15:52:28.333525,56
2021-12-27 15:52:28.333531,67
2021-12-27 15:52:28.333538,86
2021-12-27 15:52:28.333544,84
2021-12-27 15:52:28.333550,77
2021-12-27 15:52:28.333557,79
2021-12-27 15:52:28.333563,79
2021-12-27 15:52:28.333569,77
2021-12-27 15:52:28.577145,79
2021-12-27 15:52:28.577165,81
2021-12-27 15:52:28.577173,88
2021-12-27 15:52:28.577180,116
2021-12-27 15:52:28.577186,168
2021-12-27 15:52:28.577193,144
2021-12-27 15:52:28.577199,-170
2021-12-27 15:52:28.577206,-854
2021-12-27 15:52:28.577212,-1445
2021-12-27 15:52:28.577219,-1111
2021-12-27 15:52:28.577225,-77
2021-12-27 15:52:28.577232,333
2021-12-27 15:52:28.577238,81
2021-12-27 15:52:28.577245,93
2021-12-27 15:52:28.577251,254
2021-12-27 15:52:28.577257,196
2021-12-27 15:52:28.577264,149
2021-12-27 15:52:28.577270,189
2021-12-27 15:52:28.577277,172
2021-12-27 15:52:28.577283,135
2021-12-27 15:52:28.577289,137
2021-12-27 15:52:28.577296,130
2021-12-27 15:52:28.577302,112
2021-12-27 15:52:28.577309,105
2021-12-27 15:52:28.577315,98
2021-12-27 15:52:28.577322,84
2021-12-27 15:52:28.577328,74
2021-12-27 15:52:28.577334,60
2021-12-27 15:52:28.577341,49
2021-12-27 15:52:28.577347,39
2021-12-27 15:52:28.868980,30
2021-12-27 15:52:28.868999,25
2021-12-27 15:52:28.869007,23
2021-12-27 15:52:28.869014,21
2021-12-27 15:52:28.869021,18
2021-12-27 15:52:28.869027,21
2021-12-27 15:52:28.869033,23
2021-12-27 15:52:28.869040,32
2021-12-27 15:52:28.869046,44
2021-12-27 15:52:28.869053,56
2021-12-27 15:52:28.869059,65
2021-12-27 15:52:28.869065,79
2021-12-27 15:52:28.869072,95
2021-12-27 15:52:28.869078,112
2021-12-27 15:52:28.869084,119
2021-12-27 15:52:28.869091,126
2021-12-27 15:52:28.869097,137
2021-12-27 15:52:28.869104,140
2021-12-27 15:52:28.869110,137
2021-12-27 15:52:28.869116,137
2021-12-27 15:52:28.869123,133
2021-12-27 15:52:28.869129,128
2021-12-27 15:52:28.869135,123
2021-12-27 15:52:28.869142,121
2021-12-27 15:52:28.869148,116
2021-12-27 15:52:28.869154,114
2021-12-27 15:52:28.869161,112
2021-12-27 15:52:28.869167,112
2021-12-27 15:52:28.869174,112
2021-12-27 15:52:28.869180,109
2021-12-27 15:52:29.064676,107
2021-12-27 15:52:29.064706,105
2021-12-27 15:52:29.064717,105
2021-12-27 15:52:29.064727,107
2021-12-27 15:52:29.064737,109
2021-12-27 15:52:29.064747,109
2021-12-27 15:52:29.064756,109
2021-12-27 15:52:29.064766,107
2021-12-27 15:52:29.064775,107
2021-12-27 15:52:29.064785,112
2021-12-27 15:52:29.064794,109
2021-12-27 15:52:29.064804,107
2021-12-27 15:52:29.064814,107
2021-12-27 15:52:29.064823,105
2021-12-27 15:52:29.064833,102
2021-12-27 15:52:29.064842,98
2021-12-27 15:52:29.064852,93
2021-12-27 15:52:29.064862,95
2021-12-27 15:52:29.064871,95
2021-12-27 15:52:29.064881,88
2021-12-27 15:52:29.064890,86
2021-12-27 15:52:29.064900,84
2021-12-27 15:52:29.064910,84
2021-12-27 15:52:29.064919,84
2021-12-27 15:52:29.064929,84
2021-12-27 15:52:29.064939,81
2021-12-27 15:52:29.064948,81
2021-12-27 15:52:29.064958,81
2021-12-27 15:52:29.064967,81
2021-12-27 15:52:29.064977,77
2021-12-27 15:52:29.259520,63
2021-12-27 15:52:29.259540,46
2021-12-27 15:52:29.259548,46
2021-12-27 15:52:29.259554,53
2021-12-27 15:52:29.259561,56
2021-12-27 15:52:29.259571,70
2021-12-27 15:52:29.259577,79
2021-12-27 15:52:29.259584,79
2021-12-27 15:52:29.259590,79
2021-12-27 15:52:29.259597,79
2021-12-27 15:52:29.259603,77
2021-12-27 15:52:29.259609,77
2021-12-27 15:52:29.259616,79
2021-12-27 15:52:29.259622,81
2021-12-27 15:52:29.259628,84
2021-12-27 15:52:29.259635,107
2021-12-27 15:52:29.259641,165
2021-12-27 15:52:29.259647,154
2021-12-27 15:52:29.259653,-133
2021-12-27 15:52:29.259660,-782
2021-12-27 15:52:29.259666,-1392
2021-12-27 15:52:29.259672,-1146
2021-12-27 15:52:29.259679,-151
2021-12-27 15:52:29.259685,319
2021-12-27 15:52:29.259692,100
2021-12-27 15:52:29.259698,88
2021-12-27 15:52:29.259704,249
2021-12-27 15:52:29.259711,207
2021-12-27 15:52:29.259717,149
2021-12-27 15:52:29.259723,184
2021-12-27 15:52:29.552386,175
2021-12-27 15:52:29.552406,140
2021-12-27 15:52:29.552414,135
2021-12-27 15:52:29.552420,126
2021-12-27 15:52:29.552427,100
2021-12-27 15:52:29.552433,88
2021-12-27 15:52:29.552439,86
2021-12-27 15:52:29.552446,74
2021-12-27 15:52:29.552452,60
2021-12-27 15:52:29.552458,51
2021-12-27 15:52:29.552465,44
2021-12-27 15:52:29.552471,35
2021-12-27 15:52:29.552477,28
2021-12-27 15:52:29.552484,23
2021-12-27 15:52:29.552490,21
2021-12-27 15:52:29.552496,21
2021-12-27 15:52:29.552503,18
2021-12-27 15:52:29.552509,18
2021-12-27 15:52:29.552515,28
2021-12-27 15:52:29.552522,42
2021-12-27 15:52:29.552528,46
2021-12-27 15:52:29.552534,53
2021-12-27 15:52:29.552541,70
2021-12-27 15:52:29.552547,86
2021-12-27 15:52:29.552553,95
2021-12-27 15:52:29.552560,109
2021-12-27 15:52:29.552566,126
2021-12-27 15:52:29.552572,128
2021-12-27 15:52:29.552579,128
2021-12-27 15:52:29.552585,130
2021-12-27 15:52:29.796189,130
2021-12-27 15:52:29.796219,137
2021-12-27 15:52:29.796230,142
2021-12-27 15:52:29.796240,135
2021-12-27 15:52:29.796250,126
2021-12-27 15:52:29.796260,119
2021-12-27 15:52:29.796270,112
2021-12-27 15:52:29.796280,107
2021-12-27 15:52:29.796289,107
2021-12-27 15:52:29.796299,105
2021-12-27 15:52:29.796309,102
2021-12-27 15:52:29.796319,98
2021-12-27 15:52:29.796328,93
2021-12-27 15:52:29.796338,91
2021-12-27 15:52:29.796348,91
2021-12-27 15:52:29.796358,88
2021-12-27 15:52:29.796368,88
2021-12-27 15:52:29.796377,88
2021-12-27 15:52:29.796387,86
2021-12-27 15:52:29.796397,88
2021-12-27 15:52:29.796407,95
2021-12-27 15:52:29.796416,93
2021-12-27 15:52:29.796426,88
2021-12-27 15:52:29.796436,91
2021-12-27 15:52:29.796445,93
2021-12-27 15:52:29.796455,84
2021-12-27 15:52:29.796465,81
2021-12-27 15:52:29.796475,88
2021-12-27 15:52:29.796549,91
2021-12-27 15:52:29.796564,86
2021-12-27 15:52:30.039587,93
2021-12-27 15:52:30.039617,98
2021-12-27 15:52:30.039628,88
2021-12-27 15:52:30.039638,65
2021-12-27 15:52:30.039648,51
2021-12-27 15:52:30.039658,58
2021-12-27 15:52:30.039668,67
2021-12-27 15:52:30.039678,65
2021-12-27 15:52:30.039688,74
2021-12-27 15:52:30.039697,88
2021-12-27 15:52:30.039707,88
2021-12-27 15:52:30.039717,91
2021-12-27 15:52:30.039727,93
2021-12-27 15:52:30.039737,88
2021-12-27 15:52:30.039746,81
2021-12-27 15:52:30.039756,81
2021-12-27 15:52:30.039766,84
2021-12-27 15:52:30.039776,88
2021-12-27 15:52:30.039785,114
2021-12-27 15:52:30.039795,170
2021-12-27 15:52:30.039805,151
2021-12-27 15:52:30.039815,-130
2021-12-27 15:52:30.039825,-749
2021-12-27 15:52:30.039835,-1335
2021-12-27 15:52:30.039844,-1100
2021-12-27 15:52:30.039854,-130
2021-12-27 15:52:30.039864,322
2021-12-27 15:52:30.039874,93
2021-12-27 15:52:30.039884,77
2021-12-27 15:52:30.039894,240
2021-12-27 15:52:30.281985,200
2021-12-27 15:52:30.282019,151
2021-12-27 15:52:30.282031,184
2021-12-27 15:52:30.282041,168
2021-12-27 15:52:30.282051,135
2021-12-27 15:52:30.282061,137
2021-12-27 15:52:30.282070,128
2021-12-27 15:52:30.282080,105
2021-12-27 15:52:30.282090,95
2021-12-27 15:52:30.282100,91
2021-12-27 15:52:30.282110,81
2021-12-27 15:52:30.282120,67
2021-12-27 15:52:30.282130,53
2021-12-27 15:52:30.282140,46
2021-12-27 15:52:30.282149,39
2021-12-27 15:52:30.282159,28
2021-12-27 15:52:30.282169,16
2021-12-27 15:52:30.282179,9
2021-12-27 15:52:30.282189,9
2021-12-27 15:52:30.282199,16
2021-12-27 15:52:30.282208,23
2021-12-27 15:52:30.282218,25
2021-12-27 15:52:30.282228,32
2021-12-27 15:52:30.282238,39
2021-12-27 15:52:30.282248,51
2021-12-27 15:52:30.282258,72
2021-12-27 15:52:30.282268,98
2021-12-27 15:52:30.282278,112
2021-12-27 15:52:30.282287,121
2021-12-27 15:52:30.282297,133
2021-12-27 15:52:30.478333,140
2021-12-27 15:52:30.478362,142
2021-12-27 15:52:30.478374,142
2021-12-27 15:52:30.478384,140
2021-12-27 15:52:30.478393,130
2021-12-27 15:52:30.478403,123
2021-12-27 15:52:30.478413,121
2021-12-27 15:52:30.478423,116
2021-12-27 15:52:30.478432,109
2021-12-27 15:52:30.478442,105
2021-12-27 15:52:30.478452,105
2021-12-27 15:52:30.478462,102
2021-12-27 15:52:30.478472,91
2021-12-27 15:52:30.478481,88
2021-12-27 15:52:30.478491,91
2021-12-27 15:52:30.478501,86
2021-12-27 15:52:30.478510,81
2021-12-27 15:52:30.478520,84
2021-12-27 15:52:30.478530,86
2021-12-27 15:52:30.478540,86
2021-12-27 15:52:30.478549,88
2021-12-27 15:52:30.478559,88
2021-12-27 15:52:30.478569,86
2021-12-27 15:52:30.478578,88
2021-12-27 15:52:30.478588,91
2021-12-27 15:52:30.478598,93
2021-12-27 15:52:30.478608,91
2021-12-27 15:52:30.478617,88
2021-12-27 15:52:30.478627,84
2021-12-27 15:52:30.478637,81
2021-12-27 15:52:30.673304,93
2021-12-27 15:52:30.673334,98
2021-12-27 15:52:30.673345,91
2021-12-27 15:52:30.673356,93
2021-12-27 15:52:30.673365,93
2021-12-27 15:52:30.673375,67
2021-12-27 15:52:30.673385,44
2021-12-27 15:52:30.673395,49
2021-12-27 15:52:30.673404,63
2021-12-27 15:52:30.673414,70
2021-12-27 15:52:30.673424,77
2021-12-27 15:52:30.673434,88
2021-12-27 15:52:30.673444,88
2021-12-27 15:52:30.673453,86
2021-12-27 15:52:30.673463,84
2021-12-27 15:52:30.673473,81
2021-12-27 15:52:30.673482,88
2021-12-27 15:52:30.673492,93
2021-12-27 15:52:30.673502,84
2021-12-27 15:52:30.673511,81
2021-12-27 15:52:30.673521,114
2021-12-27 15:52:30.673531,168
2021-12-27 15:52:30.673540,154
2021-12-27 15:52:30.673550,-114
2021-12-27 15:52:30.673560,-712
2021-12-27 15:52:30.673569,-1258
2021-12-27 15:52:30.673579,-997
2021-12-27 15:52:30.673589,-72
2021-12-27 15:52:30.673599,317
2021-12-27 15:52:30.673608,86
2021-12-27 15:52:30.868346,84
2021-12-27 15:52:30.868376,233
2021-12-27 15:52:30.868388,189
2021-12-27 15:52:30.868398,142
2021-12-27 15:52:30.868407,177
2021-12-27 15:52:30.868417,163
2021-12-27 15:52:30.868427,123
2021-12-27 15:52:30.868437,119
2021-12-27 15:52:30.868446,107
2021-12-27 15:52:30.868456,88
2021-12-27 15:52:30.868466,84
2021-12-27 15:52:30.868475,77
2021-12-27 15:52:30.868485,60
2021-12-27 15:52:30.868495,51
2021-12-27 15:52:30.868504,42
2021-12-27 15:52:30.868514,28
2021-12-27 15:52:30.868524,14
2021-12-27 15:52:30.868533,9
2021-12-27 15:52:30.868543,4
2021-12-27 15:52:30.868552,2
2021-12-27 15:52:30.868562,0
2021-12-27 15:52:30.868572,0
2021-12-27 15:52:30.868849,4
2021-12-27 15:52:30.868881,11
2021-12-27 15:52:30.868892,21
2021-12-27 15:52:30.868899,28
2021-12-27 15:52:30.868905,37
2021-12-27 15:52:30.868911,51
2021-12-27 15:52:30.868918,72
2021-12-27 15:52:30.868924,93
2021-12-27 15:52:31.160818,109
2021-12-27 15:52:31.160838,123
2021-12-27 15:52:31.160846,135
2021-12-27 15:52:31.160852,137
2021-12-27 15:52:31.160859,135
2021-12-27 15:52:31.160865,133
2021-12-27 15:52:31.160872,130
2021-12-27 15:52:31.160878,126
2021-12-27 15:52:31.160884,119
2021-12-27 15:52:31.160891,109
2021-12-27 15:52:31.160897,102
2021-12-27 15:52:31.160907,102
2021-12-27 15:52:31.160914,102
2021-12-27 15:52:31.160920,98
2021-12-27 15:52:31.160926,88
2021-12-27 15:52:31.160933,86
2021-12-27 15:52:31.160939,88
2021-12-27 15:52:31.160945,88
2021-12-27 15:52:31.160952,84
2021-12-27 15:52:31.160958,81
2021-12-27 15:52:31.160964,88
2021-12-27 15:52:31.160971,88
2021-12-27 15:52:31.160977,84
2021-12-27 15:52:31.160984,86
2021-12-27 15:52:31.160990,91
2021-12-27 15:52:31.160996,95
2021-12-27 15:52:31.161003,95
2021-12-27 15:52:31.161009,98
2021-12-27 15:52:31.161015,98
2021-12-27 15:52:31.161022,95
2021-12-27 15:52:31.355917,93
2021-12-27 15:52:31.355940,93
2021-12-27 15:52:31.355947,102
2021-12-27 15:52:31.355954,107
2021-12-27 15:52:31.355961,98
2021-12-27 15:52:31.355967,77
2021-12-27 15:52:31.355973,60
2021-12-27 15:52:31.355980,56
2021-12-27 15:52:31.355986,63
2021-12-27 15:52:31.355992,74
2021-12-27 15:52:31.355999,79
2021-12-27 15:52:31.356036,86
2021-12-27 15:52:31.356043,91
2021-12-27 15:52:31.356049,86
2021-12-27 15:52:31.356055,84
2021-12-27 15:52:31.356062,88
2021-12-27 15:52:31.356068,91
2021-12-27 15:52:31.356074,86
2021-12-27 15:52:31.356081,81
2021-12-27 15:52:31.356087,77
2021-12-27 15:52:31.356093,84
2021-12-27 15:52:31.356100,128
2021-12-27 15:52:31.356106,177
2021-12-27 15:52:31.356112,74
2021-12-27 15:52:31.356119,-345
2021-12-27 15:52:31.356125,-985
2021-12-27 15:52:31.356132,-1247
2021-12-27 15:52:31.356138,-593
2021-12-27 15:52:31.356144,221
2021-12-27 15:52:31.356151,240
2021-12-27 15:52:31.600038,30
2021-12-27 15:52:31.600060,154
2021-12-27 15:52:31.600068,219
2021-12-27 15:52:31.600075,144
2021-12-27 15:52:31.600081,147
2021-12-27 15:52:31.600087,168
2021-12-27 15:52:31.600094,135
2021-12-27 15:52:31.600100,114
2021-12-27 15:52:31.600106,109
2021-12-27 15:52:31.600113,93
2021-12-27 15:52:31.600119,86
2021-12-27 15:52:31.600126,79
2021-12-27 15:52:31.600132,58
2021-12-27 15:52:31.600138,46
2021-12-27 15:52:31.600145,46
2021-12-27 15:52:31.600151,30
2021-12-27 15:52:31.600157,18
2021-12-27 15:52:31.600163,14
2021-12-27 15:52:31.600170,4
2021-12-27 15:52:31.600176,-2
2021-12-27 15:52:31.600183,0
2021-12-27 15:52:31.600189,-7
2021-12-27 15:52:31.600195,-14
2021-12-27 15:52:31.600202,-4
2021-12-27 15:52:31.600208,11
2021-12-27 15:52:31.600214,23
2021-12-27 15:52:31.600221,28
2021-12-27 15:52:31.600227,42
2021-12-27 15:52:31.600233,67
2021-12-27 15:52:31.600240,88
2021-12-27 15:52:31.842852,100
2021-12-27 15:52:31.842872,112
2021-12-27 15:52:31.842878,123
2021-12-27 15:52:31.842884,130
2021-12-27 15:52:31.842889,135
2021-12-27 15:52:31.842894,140
2021-12-27 15:52:31.842900,142
2021-12-27 15:52:31.842905,137
2021-12-27 15:52:31.842910,119
2021-12-27 15:52:31.842915,114
2021-12-27 15:52:31.842920,119
2021-12-27 15:52:31.842925,112
2021-12-27 15:52:31.842930,105
2021-12-27 15:52:31.842936,112
2021-12-27 15:52:31.842941,107
2021-12-27 15:52:31.842946,93
2021-12-27 15:52:31.842951,86
2021-12-27 15:52:31.842956,84
2021-12-27 15:52:31.842961,88
2021-12-27 15:52:31.842966,93
2021-12-27 15:52:31.842971,91
2021-12-27 15:52:31.842977,86
2021-12-27 15:52:31.842983,93
2021-12-27 15:52:31.842987,93
2021-12-27 15:52:31.842992,84
2021-12-27 15:52:31.842998,81
2021-12-27 15:52:31.843003,86
2021-12-27 15:52:31.843008,91
2021-12-27 15:52:31.843013,88
2021-12-27 15:52:31.843018,88
2021-12-27 15:52:32.038529,93
2021-12-27 15:52:32.038550,98
2021-12-27 15:52:32.038557,100
2021-12-27 15:52:32.038564,93
2021-12-27 15:52:32.038570,93
2021-12-27 15:52:32.038577,88
2021-12-27 15:52:32.038583,63
2021-12-27 15:52:32.038590,49
2021-12-27 15:52:32.038596,56
2021-12-27 15:52:32.038602,60
2021-12-27 15:52:32.038609,65
2021-12-27 15:52:32.038615,81
2021-12-27 15:52:32.038622,93
2021-12-27 15:52:32.038628,88
2021-12-27 15:52:32.038634,91
2021-12-27 15:52:32.038641,98
2021-12-27 15:52:32.038647,93
2021-12-27 15:52:32.038653,88
2021-12-27 15:52:32.038660,88
2021-12-27 15:52:32.038666,91
2021-12-27 15:52:32.038672,88
2021-12-27 15:52:32.038678,105
2021-12-27 15:52:32.038685,154
2021-12-27 15:52:32.038691,186
2021-12-27 15:52:32.038697,51
2021-12-27 15:52:32.038704,-441
2021-12-27 15:52:32.038710,-1111
2021-12-27 15:52:32.038717,-1200
2021-12-27 15:52:32.038723,-348
2021-12-27 15:52:32.038729,366
2021-12-27 15:52:32.329508,200
2021-12-27 15:52:32.329538,28
2021-12-27 15:52:32.329549,200
2021-12-27 15:52:32.329560,212
2021-12-27 15:52:32.329570,126
2021-12-27 15:52:32.329579,154
2021-12-27 15:52:32.329589,161
2021-12-27 15:52:32.329599,112
2021-12-27 15:52:32.329614,100
2021-12-27 15:52:32.329624,109
2021-12-27 15:52:32.329634,95
2021-12-27 15:52:32.329644,77
2021-12-27 15:52:32.329654,67
2021-12-27 15:52:32.329664,56
2021-12-27 15:52:32.329674,42
2021-12-27 15:52:32.329684,32
2021-12-27 15:52:32.329694,25
2021-12-27 15:52:32.329704,16
2021-12-27 15:52:32.329713,7
2021-12-27 15:52:32.329723,0
2021-12-27 15:52:32.329734,-4
2021-12-27 15:52:32.329744,-7
2021-12-27 15:52:32.329754,-7
2021-12-27 15:52:32.329763,0
2021-12-27 15:52:32.329773,4
2021-12-27 15:52:32.329783,2
2021-12-27 15:52:32.329793,11
2021-12-27 15:52:32.329803,28
2021-12-27 15:52:32.329813,37
2021-12-27 15:52:32.329822,60
2021-12-27 15:52:32.525938,88
2021-12-27 15:52:32.525958,107
2021-12-27 15:52:32.525966,119
2021-12-27 15:52:32.525972,137
2021-12-27 15:52:32.525979,151
2021-12-27 15:52:32.525985,151
2021-12-27 15:52:32.525991,149
2021-12-27 15:52:32.525998,144
2021-12-27 15:52:32.526004,144
2021-12-27 15:52:32.526010,142
2021-12-27 15:52:32.526017,130
2021-12-27 15:52:32.526023,123
2021-12-27 15:52:32.526029,126
2021-12-27 15:52:32.526036,116
2021-12-27 15:52:32.526042,105
2021-12-27 15:52:32.526048,105
2021-12-27 15:52:32.526055,102
2021-12-27 15:52:32.526061,100
2021-12-27 15:52:32.526067,105
2021-12-27 15:52:32.526074,107
2021-12-27 15:52:32.526080,107
2021-12-27 15:52:32.526086,107
2021-12-27 15:52:32.526092,107
2021-12-27 15:52:32.526099,114
2021-12-27 15:52:32.526105,121
2021-12-27 15:52:32.526111,119
2021-12-27 15:52:32.526118,109
2021-12-27 15:52:32.526124,112
2021-12-27 15:52:32.526131,116
2021-12-27 15:52:32.526137,109
2021-12-27 15:52:32.720996,100
2021-12-27 15:52:32.721016,100
2021-12-27 15:52:32.721024,102
2021-12-27 15:52:32.721031,102
2021-12-27 15:52:32.721037,102
2021-12-27 15:52:32.721043,107
2021-12-27 15:52:32.721050,98
2021-12-27 15:52:32.721056,74
2021-12-27 15:52:32.721062,60
2021-12-27 15:52:32.721068,70
2021-12-27 15:52:32.721075,74
2021-12-27 15:52:32.721081,79
2021-12-27 15:52:32.721088,93
2021-12-27 15:52:32.721094,102
2021-12-27 15:52:32.721100,98
2021-12-27 15:52:32.721107,93
2021-12-27 15:52:32.721113,93
2021-12-27 15:52:32.721119,98
2021-12-27 15:52:32.721126,100
2021-12-27 15:52:32.721132,98
2021-12-27 15:52:32.721138,93
2021-12-27 15:52:32.721145,95
2021-12-27 15:52:32.721151,123
2021-12-27 15:52:32.721157,186
2021-12-27 15:52:32.721163,177
2021-12-27 15:52:32.721170,-116
2021-12-27 15:52:32.721176,-777
2021-12-27 15:52:32.721183,-1375
2021-12-27 15:52:32.721189,-1072
2021-12-27 15:52:32.721196,-42
2021-12-27 15:52:33.013152,376
2021-12-27 15:52:33.013174,88
2021-12-27 15:52:33.013182,74
2021-12-27 15:52:33.013189,240
2021-12-27 15:52:33.013196,184
2021-12-27 15:52:33.013202,133
2021-12-27 15:52:33.013209,175
2021-12-27 15:52:33.013215,158
2021-12-27 15:52:33.013222,121
2021-12-27 15:52:33.013228,121
2021-12-27 15:52:33.013234,116
2021-12-27 15:52:33.013241,98
2021-12-27 15:52:33.013247,88
2021-12-27 15:52:33.013254,79
2021-12-27 15:52:33.013260,63
2021-12-27 15:52:33.013267,51
2021-12-27 15:52:33.013273,46
2021-12-27 15:52:33.013280,32
2021-12-27 15:52:33.013286,23
2021-12-27 15:52:33.013293,21
2021-12-27 15:52:33.013299,16
2021-12-27 15:52:33.013306,11
2021-12-27 15:52:33.013312,14
2021-12-27 15:52:33.013319,14
2021-12-27 15:52:33.013325,14
2021-12-27 15:52:33.013331,23
2021-12-27 15:52:33.013338,37
2021-12-27 15:52:33.013344,49
2021-12-27 15:52:33.013351,65
2021-12-27 15:52:33.013357,81
2021-12-27 15:52:33.256195,95
2021-12-27 15:52:33.256217,112
2021-12-27 15:52:33.256224,130
2021-12-27 15:52:33.256231,142
2021-12-27 15:52:33.256238,147
2021-12-27 15:52:33.256244,147
2021-12-27 15:52:33.256250,147
2021-12-27 15:52:33.256257,151
2021-12-27 15:52:33.256263,149
2021-12-27 15:52:33.256270,140
2021-12-27 15:52:33.256276,137
2021-12-27 15:52:33.256282,133
2021-12-27 15:52:33.256289,126
2021-12-27 15:52:33.256295,121
2021-12-27 15:52:33.256301,119
2021-12-27 15:52:33.256308,119
2021-12-27 15:52:33.256314,116
2021-12-27 15:52:33.256321,112
2021-12-27 15:52:33.256327,109
2021-12-27 15:52:33.256333,109
2021-12-27 15:52:33.256340,112
2021-12-27 15:52:33.256347,109
2021-12-27 15:52:33.256353,107
2021-12-27 15:52:33.256359,112
2021-12-27 15:52:33.256366,116
2021-12-27 15:52:33.256372,114
2021-12-27 15:52:33.256379,112
2021-12-27 15:52:33.256385,114
2021-12-27 15:52:33.256392,116
2021-12-27 15:52:33.256398,114
2021-12-27 15:52:33.452125,116
2021-12-27 15:52:33.452156,114
2021-12-27 15:52:33.452167,109
2021-12-27 15:52:33.452177,107
2021-12-27 15:52:33.452187,107
2021-12-27 15:52:33.452197,109
2021-12-27 15:52:33.452207,105
2021-12-27 15:52:33.452217,91
2021-12-27 15:52:33.452226,74
2021-12-27 15:52:33.452236,60
2021-12-27 15:52:33.452246,63
2021-12-27 15:52:33.452256,70
2021-12-27 15:52:33.452266,70
2021-12-27 15:52:33.452276,77
2021-12-27 15:52:33.452285,84
2021-12-27 15:52:33.452295,81
2021-12-27 15:52:33.452305,84
2021-12-27 15:52:33.452315,88
2021-12-27 15:52:33.452325,86
2021-12-27 15:52:33.452334,81
2021-12-27 15:52:33.452344,84
2021-12-27 15:52:33.452354,86
2021-12-27 15:52:33.452364,88
2021-12-27 15:52:33.452378,116
2021-12-27 15:52:33.452388,179
2021-12-27 15:52:33.452398,179
2021-12-27 15:52:33.452408,-107
2021-12-27 15:52:33.452418,-784
2021-12-27 15:52:33.452427,-1469
2021-12-27 15:52:33.452437,-1289
2021-12-27 15:52:33.647316,-210
2021-12-27 15:52:33.647336,387
2021-12-27 15:52:33.647344,135
2021-12-27 15:52:33.647351,67
2021-12-27 15:52:33.647357,261
2021-12-27 15:52:33.647364,231
2021-12-27 15:52:33.647370,156
2021-12-27 15:52:33.647377,191
2021-12-27 15:52:33.647383,184
2021-12-27 15:52:33.647390,137
2021-12-27 15:52:33.647396,130
2021-12-27 15:52:33.647403,128
2021-12-27 15:52:33.647409,109
2021-12-27 15:52:33.647416,95
2021-12-27 15:52:33.647422,91
2021-12-27 15:52:33.647429,81
2021-12-27 15:52:33.647435,67
2021-12-27 15:52:33.647442,56
2021-12-27 15:52:33.647448,46
2021-12-27 15:52:33.647455,37
2021-12-27 15:52:33.647461,28
2021-12-27 15:52:33.647468,18
2021-12-27 15:52:33.647474,11
2021-12-27 15:52:33.647480,9
2021-12-27 15:52:33.647487,16
2021-12-27 15:52:33.647493,25
2021-12-27 15:52:33.647500,25
2021-12-27 15:52:33.647506,32
2021-12-27 15:52:33.647512,46
2021-12-27 15:52:33.647519,51
2021-12-27 15:52:33.890881,70
2021-12-27 15:52:33.890902,102
2021-12-27 15:52:33.890909,121
2021-12-27 15:52:33.890916,123
2021-12-27 15:52:33.890922,133
2021-12-27 15:52:33.890929,142
2021-12-27 15:52:33.890935,154
2021-12-27 15:52:33.890941,165
2021-12-27 15:52:33.890948,163
2021-12-27 15:52:33.890954,151
2021-12-27 15:52:33.890960,137
2021-12-27 15:52:33.890966,121
2021-12-27 15:52:33.890973,114
2021-12-27 15:52:33.890979,121
2021-12-27 15:52:33.890986,121
2021-12-27 15:52:33.890992,114
2021-12-27 15:52:33.890998,109
2021-12-27 15:52:33.891005,107
2021-12-27 15:52:33.891011,107
2021-12-27 15:52:33.891018,109
2021-12-27 15:52:33.891024,112
2021-12-27 15:52:33.891030,116
2021-12-27 15:52:33.891037,112
2021-12-27 15:52:33.891043,109
2021-12-27 15:52:33.891049,112
2021-12-27 15:52:33.891056,112
2021-12-27 15:52:33.891062,112
2021-12-27 15:52:33.891068,116
2021-12-27 15:52:33.891075,119
2021-12-27 15:52:33.891081,114
2021-12-27 15:52:34.183251,112
2021-12-27 15:52:34.183272,114
2021-12-27 15:52:34.183280,114
2021-12-27 15:52:34.183287,114
2021-12-27 15:52:34.183293,119
2021-12-27 15:52:34.183299,119
2021-12-27 15:52:34.183305,114
2021-12-27 15:52:34.183312,114
2021-12-27 15:52:34.183318,116
2021-12-27 15:52:34.183324,98
2021-12-27 15:52:34.183330,72
2021-12-27 15:52:34.183336,63
2021-12-27 15:52:34.183343,63
2021-12-27 15:52:34.183349,63
2021-12-27 15:52:34.183355,70
2021-12-27 15:52:34.183361,79
2021-12-27 15:52:34.183367,86
2021-12-27 15:52:34.183374,88
2021-12-27 15:52:34.183380,86
2021-12-27 15:52:34.183386,79
2021-12-27 15:52:34.183392,79
2021-12-27 15:52:34.183399,86
2021-12-27 15:52:34.183405,79
2021-12-27 15:52:34.183411,74
2021-12-27 15:52:34.183417,91
2021-12-27 15:52:34.183424,128
2021-12-27 15:52:34.183430,182
2021-12-27 15:52:34.183436,140
2021-12-27 15:52:34.183443,-228
2021-12-27 15:52:34.183449,-955
2021-12-27 15:52:34.425547,-1483
2021-12-27 15:52:34.425568,-1006
2021-12-27 15:52:34.425575,37
2021-12-27 15:52:34.425583,322
2021-12-27 15:52:34.425589,49
2021-12-27 15:52:34.425595,116
2021-12-27 15:52:34.425602,266
2021-12-27 15:52:34.425608,189
2021-12-27 15:52:34.425615,151
2021-12-27 15:52:34.425621,182
2021-12-27 15:52:34.425627,156
2021-12-27 15:52:34.425634,133
2021-12-27 15:52:34.425640,133
2021-12-27 15:52:34.425646,114
2021-12-27 15:52:34.425653,91
2021-12-27 15:52:34.425659,81
2021-12-27 15:52:34.425666,72
2021-12-27 15:52:34.425672,58
2021-12-27 15:52:34.425678,51
2021-12-27 15:52:34.425685,42
2021-12-27 15:52:34.425691,28
2021-12-27 15:52:34.425697,14
2021-12-27 15:52:34.425704,7
2021-12-27 15:52:34.425710,4
2021-12-27 15:52:34.425717,0
2021-12-27 15:52:34.425723,-7
2021-12-27 15:52:34.425729,-7
2021-12-27 15:52:34.425736,0
2021-12-27 15:52:34.425742,11
2021-12-27 15:52:34.425749,25
2021-12-27 15:52:34.573533,32
2021-12-27 15:52:34.573562,44
2021-12-27 15:52:34.573574,67
2021-12-27 15:52:34.573584,86
2021-12-27 15:52:34.573594,100
2021-12-27 15:52:34.573603,116
2021-12-27 15:52:34.573613,126
2021-12-27 15:52:34.573623,137
2021-12-27 15:52:34.573633,149
2021-12-27 15:52:34.573643,142
2021-12-27 15:52:34.573652,130
2021-12-27 15:52:34.573662,128
2021-12-27 15:52:34.573672,130
2021-12-27 15:52:34.573682,123
2021-12-27 15:52:34.573691,119
2021-12-27 15:52:34.573701,119
2021-12-27 15:52:34.573711,109
2021-12-27 15:52:34.573721,105
2021-12-27 15:52:34.573730,107
2021-12-27 15:52:34.573740,100
2021-12-27 15:52:34.573750,98
2021-12-27 15:52:34.573759,105
2021-12-27 15:52:34.573769,109
2021-12-27 15:52:34.573779,107
2021-12-27 15:52:34.573789,105
2021-12-27 15:52:34.573799,107
2021-12-27 15:52:34.573809,112
2021-12-27 15:52:34.573818,112
2021-12-27 15:52:34.573828,100
2021-12-27 15:52:34.573838,95
2021-12-27 15:52:34.914064,102
2021-12-27 15:52:34.914094,109
2021-12-27 15:52:34.914106,107
2021-12-27 15:52:34.914116,105
2021-12-27 15:52:34.914126,102
2021-12-27 15:52:34.914136,100
2021-12-27 15:52:34.914146,98
2021-12-27 15:52:34.914156,100
2021-12-27 15:52:34.914166,102
2021-12-27 15:52:34.914176,100
2021-12-27 15:52:34.914185,100
2021-12-27 15:52:34.914195,98
2021-12-27 15:52:34.914205,86
2021-12-27 15:52:34.914215,67
2021-12-27 15:52:34.914224,53
2021-12-27 15:52:34.914234,56
2021-12-27 15:52:34.914244,60
2021-12-27 15:52:34.914254,63
2021-12-27 15:52:34.914263,72
2021-12-27 15:52:34.914273,77
2021-12-27 15:52:34.914283,79
2021-12-27 15:52:34.914293,77
2021-12-27 15:52:34.914302,72
2021-12-27 15:52:34.914312,70
2021-12-27 15:52:34.914322,70
2021-12-27 15:52:34.914331,67
2021-12-27 15:52:34.914343,63
2021-12-27 15:52:34.914353,67
2021-12-27 15:52:34.914363,102
2021-12-27 15:52:34.914377,168
2021-12-27 15:52:35.061100,133
2021-12-27 15:52:35.061120,-198
2021-12-27 15:52:35.061128,-852
2021-12-27 15:52:35.061135,-1356
2021-12-27 15:52:35.061141,-941
2021-12-27 15:52:35.061147,39
2021-12-27 15:52:35.061154,312
2021-12-27 15:52:35.061161,35
2021-12-27 15:52:35.061167,88
2021-12-27 15:52:35.061173,235
2021-12-27 15:52:35.061180,163
2021-12-27 15:52:35.061186,130
2021-12-27 15:52:35.061193,168
2021-12-27 15:52:35.061199,144
2021-12-27 15:52:35.061206,112
2021-12-27 15:52:35.061212,112
2021-12-27 15:52:35.061219,105
2021-12-27 15:52:35.061225,86
2021-12-27 15:52:35.061231,77
2021-12-27 15:52:35.061238,67
2021-12-27 15:52:35.061244,53
2021-12-27 15:52:35.061251,42
2021-12-27 15:52:35.061257,35
2021-12-27 15:52:35.061263,30
2021-12-27 15:52:35.061270,23
2021-12-27 15:52:35.061276,14
2021-12-27 15:52:35.061283,4
2021-12-27 15:52:35.061289,2
2021-12-27 15:52:35.061295,0
2021-12-27 15:52:35.061302,-2
2021-12-27 15:52:35.255956,4
2021-12-27 15:52:35.255976,18
2021-12-27 15:52:35.255984,28
2021-12-27 15:52:35.255991,30
2021-12-27 15:52:35.255997,42
2021-12-27 15:52:35.256003,63
2021-12-27 15:52:35.256010,86
2021-12-27 15:52:35.256016,100
2021-12-27 15:52:35.256022,105
2021-12-27 15:52:35.256029,112
2021-12-27 15:52:35.256035,123
2021-12-27 15:52:35.256041,135
2021-12-27 15:52:35.256048,144
2021-12-27 15:52:35.256054,137
2021-12-27 15:52:35.256060,128
2021-12-27 15:52:35.256066,123
2021-12-27 15:52:35.256073,119
2021-12-27 15:52:35.256079,109
2021-12-27 15:52:35.256085,105
2021-12-27 15:52:35.256092,107
2021-12-27 15:52:35.256098,107
2021-12-27 15:52:35.256104,102
2021-12-27 15:52:35.256111,98
2021-12-27 15:52:35.256117,100
2021-12-27 15:52:35.256123,100
2021-12-27 15:52:35.256130,98
2021-12-27 15:52:35.256136,98
2021-12-27 15:52:35.256142,93
2021-12-27 15:52:35.256149,86
2021-12-27 15:52:35.256155,91
2021-12-27 15:52:35.499668,95
2021-12-27 15:52:35.499697,95
2021-12-27 15:52:35.499709,100
2021-12-27 15:52:35.499719,93
2021-12-27 15:52:35.499729,86
2021-12-27 15:52:35.499739,91
2021-12-27 15:52:35.499748,95
2021-12-27 15:52:35.499758,91
2021-12-27 15:52:35.499767,91
2021-12-27 15:52:35.499777,91
2021-12-27 15:52:35.499787,88
2021-12-27 15:52:35.499797,88
2021-12-27 15:52:35.499806,88
2021-12-27 15:52:35.499816,88
2021-12-27 15:52:35.499825,91
2021-12-27 15:52:35.499835,93
2021-12-27 15:52:35.499845,84
2021-12-27 15:52:35.499854,72
2021-12-27 15:52:35.499864,70
2021-12-27 15:52:35.499874,56
2021-12-27 15:52:35.499883,39
2021-12-27 15:52:35.499893,46
2021-12-27 15:52:35.499903,60
2021-12-27 15:52:35.499912,60
2021-12-27 15:52:35.499922,67
2021-12-27 15:52:35.499931,77
2021-12-27 15:52:35.499941,79
2021-12-27 15:52:35.499951,79
2021-12-27 15:52:35.499961,74
2021-12-27 15:52:35.499970,67
2021-12-27 15:52:35.743821,67
2021-12-27 15:52:35.743841,74
2021-12-27 15:52:35.743849,79
2021-12-27 15:52:35.743856,84
2021-12-27 15:52:35.743862,116
2021-12-27 15:52:35.743868,170
2021-12-27 15:52:35.743875,121
2021-12-27 15:52:35.743881,-228
2021-12-27 15:52:35.743888,-873
2021-12-27 15:52:35.743894,-1305
2021-12-27 15:52:35.743900,-833
2021-12-27 15:52:35.743907,79
2021-12-27 15:52:35.743913,275
2021-12-27 15:52:35.743919,30
2021-12-27 15:52:35.743926,105
2021-12-27 15:52:35.743932,228
2021-12-27 15:52:35.743939,163
2021-12-27 15:52:35.743945,140
2021-12-27 15:52:35.743951,163
2021-12-27 15:52:35.743958,135
2021-12-27 15:52:35.743964,119
2021-12-27 15:52:35.743970,121
2021-12-27 15:52:35.743977,107
2021-12-27 15:52:35.743983,91
2021-12-27 15:52:35.743989,84
2021-12-27 15:52:35.743996,70
2021-12-27 15:52:35.744002,53
2021-12-27 15:52:35.744008,44
2021-12-27 15:52:35.744015,42
2021-12-27 15:52:35.744021,32
2021-12-27 15:52:35.987330,23
2021-12-27 15:52:35.987352,16
2021-12-27 15:52:35.987360,4
2021-12-27 15:52:35.987367,-2
2021-12-27 15:52:35.987373,2
2021-12-27 15:52:35.987380,9
2021-12-27 15:52:35.987386,14
2021-12-27 15:52:35.987392,18
2021-12-27 15:52:35.987398,21
2021-12-27 15:52:35.987405,30
2021-12-27 15:52:35.987411,44
2021-12-27 15:52:35.987417,58
2021-12-27 15:52:35.987423,77
2021-12-27 15:52:35.987430,93
2021-12-27 15:52:35.987436,100
2021-12-27 15:52:35.987442,112
2021-12-27 15:52:35.987449,128
2021-12-27 15:52:35.987455,140
2021-12-27 15:52:35.987461,144
2021-12-27 15:52:35.987467,140
2021-12-27 15:52:35.987474,130
2021-12-27 15:52:35.987480,123
2021-12-27 15:52:35.987486,123
2021-12-27 15:52:35.987493,123
2021-12-27 15:52:35.987499,121
2021-12-27 15:52:35.987505,116
2021-12-27 15:52:35.987511,114
2021-12-27 15:52:35.987518,112
2021-12-27 15:52:35.987524,107
2021-12-27 15:52:35.987530,102
2021-12-27 15:52:36.279162,105
2021-12-27 15:52:36.279191,102
2021-12-27 15:52:36.279203,100
2021-12-27 15:52:36.279213,98
2021-12-27 15:52:36.279223,100
2021-12-27 15:52:36.279233,107
2021-12-27 15:52:36.279242,114
2021-12-27 15:52:36.279252,114
2021-12-27 15:52:36.279262,107
2021-12-27 15:52:36.279271,102
2021-12-27 15:52:36.279281,100
2021-12-27 15:52:36.279291,105
2021-12-27 15:52:36.279301,112
2021-12-27 15:52:36.279311,109
2021-12-27 15:52:36.279320,107
2021-12-27 15:52:36.279330,102
2021-12-27 15:52:36.279340,95
2021-12-27 15:52:36.279349,93
2021-12-27 15:52:36.279359,93
2021-12-27 15:52:36.279369,93
2021-12-27 15:52:36.279379,88
2021-12-27 15:52:36.279388,86
2021-12-27 15:52:36.279398,91
2021-12-27 15:52:36.279408,98
2021-12-27 15:52:36.279417,95
2021-12-27 15:52:36.279427,84
2021-12-27 15:52:36.279437,70
2021-12-27 15:52:36.279447,58
2021-12-27 15:52:36.279457,53
2021-12-27 15:52:36.279466,63
2021-12-27 15:52:36.473953,70
2021-12-27 15:52:36.473982,79
2021-12-27 15:52:36.473994,88
2021-12-27 15:52:36.474005,86
2021-12-27 15:52:36.474014,77
2021-12-27 15:52:36.474024,77
2021-12-27 15:52:36.474034,77
2021-12-27 15:52:36.474044,67
2021-12-27 15:52:36.474054,67
2021-12-27 15:52:36.474064,77
2021-12-27 15:52:36.474074,79
2021-12-27 15:52:36.474083,98
2021-12-27 15:52:36.474093,151
2021-12-27 15:52:36.474103,144
2021-12-27 15:52:36.474113,-128
2021-12-27 15:52:36.474123,-735
2021-12-27 15:52:36.474133,-1268
2021-12-27 15:52:36.474143,-957
2021-12-27 15:52:36.474153,-9
2021-12-27 15:52:36.474162,338
2021-12-27 15:52:36.474172,70
2021-12-27 15:52:36.474182,74
2021-12-27 15:52:36.474192,217
2021-12-27 15:52:36.474202,158
2021-12-27 15:52:36.474217,119
2021-12-27 15:52:36.474241,151
2021-12-27 15:52:36.474248,133
2021-12-27 15:52:36.474254,107
2021-12-27 15:52:36.474269,109
2021-12-27 15:52:36.474276,95
2021-12-27 15:52:36.669773,74
2021-12-27 15:52:36.669794,72
2021-12-27 15:52:36.669801,65
2021-12-27 15:52:36.669808,39
2021-12-27 15:52:36.669815,28
2021-12-27 15:52:36.669821,30
2021-12-27 15:52:36.669827,18
2021-12-27 15:52:36.669834,2
2021-12-27 15:52:36.669840,-2
2021-12-27 15:52:36.669847,-4
2021-12-27 15:52:36.669853,-9
2021-12-27 15:52:36.669859,-11
2021-12-27 15:52:36.669866,-14
2021-12-27 15:52:36.669872,-7
2021-12-27 15:52:36.669878,2
2021-12-27 15:52:36.669885,11
2021-12-27 15:52:36.669891,23
2021-12-27 15:52:36.669897,39
2021-12-27 15:52:36.669904,58
2021-12-27 15:52:36.669910,67
2021-12-27 15:52:36.669916,81
2021-12-27 15:52:36.669923,105
2021-12-27 15:52:36.669929,119
2021-12-27 15:52:36.669935,126
2021-12-27 15:52:36.669942,140
2021-12-27 15:52:36.669948,147
2021-12-27 15:52:36.669954,144
2021-12-27 15:52:36.669961,144
2021-12-27 15:52:36.669967,144
2021-12-27 15:52:36.669973,133
2021-12-27 15:52:36.864153,121
2021-12-27 15:52:36.864177,112
2021-12-27 15:52:36.864187,107
2021-12-27 15:52:36.864196,107
2021-12-27 15:52:36.864205,107
2021-12-27 15:52:36.864214,100
2021-12-27 15:52:36.864222,102
2021-12-27 15:52:36.864231,107
2021-12-27 15:52:36.864240,100
2021-12-27 15:52:36.864249,91
2021-12-27 15:52:36.864257,102
2021-12-27 15:52:36.864265,105
2021-12-27 15:52:36.864273,91
2021-12-27 15:52:36.864282,88
2021-12-27 15:52:36.864315,93
2021-12-27 15:52:36.864336,88
2021-12-27 15:52:36.864345,86
2021-12-27 15:52:36.864353,95
2021-12-27 15:52:36.864362,98
2021-12-27 15:52:36.864371,91
2021-12-27 15:52:36.864380,88
2021-12-27 15:52:36.864387,93
2021-12-27 15:52:36.864392,91
2021-12-27 15:52:36.864397,86
2021-12-27 15:52:36.864402,86
2021-12-27 15:52:36.864408,88
2021-12-27 15:52:36.864413,93
2021-12-27 15:52:36.864418,84
2021-12-27 15:52:36.864423,63
2021-12-27 15:52:36.864428,60
2021-12-27 15:52:37.108548,70
2021-12-27 15:52:37.108578,74
2021-12-27 15:52:37.108590,79
2021-12-27 15:52:37.108600,81
2021-12-27 15:52:37.108610,86
2021-12-27 15:52:37.108620,95
2021-12-27 15:52:37.108629,91
2021-12-27 15:52:37.108639,77
2021-12-27 15:52:37.108649,77
2021-12-27 15:52:37.108659,79
2021-12-27 15:52:37.108668,79
2021-12-27 15:52:37.108678,79
2021-12-27 15:52:37.108688,86
2021-12-27 15:52:37.108698,128
2021-12-27 15:52:37.108707,186
2021-12-27 15:52:37.108717,84
2021-12-27 15:52:37.108727,-364
2021-12-27 15:52:37.108737,-1037
2021-12-27 15:52:37.108746,-1263
2021-12-27 15:52:37.108756,-513
2021-12-27 15:52:37.108766,322
2021-12-27 15:52:37.108776,263
2021-12-27 15:52:37.108785,23
2021-12-27 15:52:37.108795,170
2021-12-27 15:52:37.108805,224
2021-12-27 15:52:37.108815,133
2021-12-27 15:52:37.108824,140
2021-12-27 15:52:37.108834,158
2021-12-27 15:52:37.108844,123
2021-12-27 15:52:37.108854,112
2021-12-27 15:52:37.352363,116
2021-12-27 15:52:37.352393,105
2021-12-27 15:52:37.352405,84
2021-12-27 15:52:37.352415,70
2021-12-27 15:52:37.352425,58
2021-12-27 15:52:37.352435,39
2021-12-27 15:52:37.352444,30
2021-12-27 15:52:37.352454,28
2021-12-27 15:52:37.352464,14
2021-12-27 15:52:37.352474,2
2021-12-27 15:52:37.352484,-4
2021-12-27 15:52:37.352494,-14
2021-12-27 15:52:37.352503,-16
2021-12-27 15:52:37.352513,-21
2021-12-27 15:52:37.352523,-18
2021-12-27 15:52:37.352533,-14
2021-12-27 15:52:37.352543,-9
2021-12-27 15:52:37.352553,7
2021-12-27 15:52:37.352562,30
2021-12-27 15:52:37.352572,39
2021-12-27 15:52:37.352582,58
2021-12-27 15:52:37.352592,93
2021-12-27 15:52:37.352602,114
2021-12-27 15:52:37.352611,126
2021-12-27 15:52:37.352621,137
2021-12-27 15:52:37.352631,151
2021-12-27 15:52:37.352641,163
2021-12-27 15:52:37.352650,165
2021-12-27 15:52:37.352660,172
2021-12-27 15:52:37.352670,168
2021-12-27 15:52:37.644555,144
2021-12-27 15:52:37.644636,133
2021-12-27 15:52:37.644655,137
2021-12-27 15:52:37.644666,137
2021-12-27 15:52:37.644675,130
2021-12-27 15:52:37.644685,126
2021-12-27 15:52:37.644695,116
2021-12-27 15:52:37.644704,105
2021-12-27 15:52:37.644714,112
2021-12-27 15:52:37.644723,121
2021-12-27 15:52:37.644733,114
2021-12-27 15:52:37.644743,105
2021-12-27 15:52:37.644752,102
2021-12-27 15:52:37.644762,102
2021-12-27 15:52:37.644772,109
2021-12-27 15:52:37.644781,121
2021-12-27 15:52:37.644791,116
2021-12-27 15:52:37.644801,105
2021-12-27 15:52:37.644811,112
2021-12-27 15:52:37.644820,114
2021-12-27 15:52:37.644830,109
2021-12-27 15:52:37.644840,112
2021-12-27 15:52:37.644850,107
2021-12-27 15:52:37.644859,102
2021-12-27 15:52:37.644869,116
2021-12-27 15:52:37.644879,126
2021-12-27 15:52:37.644888,102
2021-12-27 15:52:37.644898,74
2021-12-27 15:52:37.644908,81
2021-12-27 15:52:37.644917,98
2021-12-27 15:52:37.839253,95
2021-12-27 15:52:37.839283,93
2021-12-27 15:52:37.839294,102
2021-12-27 15:52:37.839304,114
2021-12-27 15:52:37.839314,114
2021-12-27 15:52:37.839324,114
2021-12-27 15:52:37.839334,121
2021-12-27 15:52:37.839343,114
2021-12-27 15:52:37.839353,98
2021-12-27 15:52:37.839363,98
2021-12-27 15:52:37.839372,102
2021-12-27 15:52:37.839382,126
2021-12-27 15:52:37.839391,186
2021-12-27 15:52:37.839401,217
2021-12-27 15:52:37.839411,16
2021-12-27 15:52:37.839421,-586
2021-12-27 15:52:37.839431,-1347
2021-12-27 15:52:37.839440,-1417
2021-12-27 15:52:37.839450,-425
2021-12-27 15:52:37.839460,380
2021-12-27 15:52:37.839470,205
2021-12-27 15:52:37.839479,42
2021-12-27 15:52:37.839489,242
2021-12-27 15:52:37.839499,252
2021-12-27 15:52:37.839508,156
2021-12-27 15:52:37.839518,186
2021-12-27 15:52:37.839528,198
2021-12-27 15:52:37.839537,151
2021-12-27 15:52:37.839547,140
2021-12-27 15:52:37.839557,140
2021-12-27 15:52:38.034947,126
2021-12-27 15:52:38.034970,119
2021-12-27 15:52:38.034978,109
2021-12-27 15:52:38.034984,91
2021-12-27 15:52:38.034991,74
2021-12-27 15:52:38.034997,67
2021-12-27 15:52:38.035004,63
2021-12-27 15:52:38.035010,51
2021-12-27 15:52:38.035016,44
2021-12-27 15:52:38.035023,35
2021-12-27 15:52:38.035029,21
2021-12-27 15:52:38.035035,16
2021-12-27 15:52:38.035042,25
2021-12-27 15:52:38.035048,25
2021-12-27 15:52:38.035054,21
2021-12-27 15:52:38.035060,21
2021-12-27 15:52:38.035067,30
2021-12-27 15:52:38.035073,42
2021-12-27 15:52:38.035079,60
2021-12-27 15:52:38.035086,91
2021-12-27 15:52:38.035092,112
2021-12-27 15:52:38.035098,123
2021-12-27 15:52:38.035105,135
2021-12-27 15:52:38.035111,156
2021-12-27 15:52:38.035117,165
2021-12-27 15:52:38.035124,168
2021-12-27 15:52:38.035130,165
2021-12-27 15:52:38.035136,156
2021-12-27 15:52:38.035143,149
2021-12-27 15:52:38.035149,147
2021-12-27 15:52:38.326685,144
2021-12-27 15:52:38.326715,140
2021-12-27 15:52:38.326727,130
2021-12-27 15:52:38.326737,130
2021-12-27 15:52:38.326746,133
2021-12-27 15:52:38.326756,114
2021-12-27 15:52:38.326766,105
2021-12-27 15:52:38.326776,112
2021-12-27 15:52:38.326785,112
2021-12-27 15:52:38.326795,112
2021-12-27 15:52:38.326805,109
2021-12-27 15:52:38.326815,107
2021-12-27 15:52:38.326824,112
2021-12-27 15:52:38.326834,119
2021-12-27 15:52:38.326844,114
2021-12-27 15:52:38.326853,112
2021-12-27 15:52:38.326863,109
2021-12-27 15:52:38.326873,112
2021-12-27 15:52:38.326882,116
2021-12-27 15:52:38.326892,119
2021-12-27 15:52:38.326902,112
2021-12-27 15:52:38.326912,112
2021-12-27 15:52:38.326921,109
2021-12-27 15:52:38.326942,95
2021-12-27 15:52:38.326952,77
2021-12-27 15:52:38.326962,72
2021-12-27 15:52:38.326972,79
2021-12-27 15:52:38.326982,84
2021-12-27 15:52:38.326991,86
2021-12-27 15:52:38.327001,95
2021-12-27 15:52:38.618507,95
2021-12-27 15:52:38.618536,91
2021-12-27 15:52:38.618547,95
2021-12-27 15:52:38.618557,95
2021-12-27 15:52:38.618567,98
2021-12-27 15:52:38.618577,105
2021-12-27 15:52:38.618587,98
2021-12-27 15:52:38.618597,86
2021-12-27 15:52:38.618607,100
2021-12-27 15:52:38.618617,142
2021-12-27 15:52:38.618627,196
2021-12-27 15:52:38.618636,130
2021-12-27 15:52:38.618647,-308
2021-12-27 15:52:38.618657,-1100
2021-12-27 15:52:38.618667,-1576
2021-12-27 15:52:38.618677,-941
2021-12-27 15:52:38.618687,144
2021-12-27 15:52:38.618697,326
2021-12-27 15:52:38.618706,30
2021-12-27 15:52:38.618716,140
2021-12-27 15:52:38.618726,277
2021-12-27 15:52:38.618736,182
2021-12-27 15:52:38.618746,165
2021-12-27 15:52:38.618756,207
2021-12-27 15:52:38.618765,156
2021-12-27 15:52:38.618775,121
2021-12-27 15:52:38.618785,140
2021-12-27 15:52:38.618795,128
2021-12-27 15:52:38.618805,102
2021-12-27 15:52:38.618815,100
2021-12-27 15:52:38.766123,98
2021-12-27 15:52:38.766143,86
2021-12-27 15:52:38.766151,74
2021-12-27 15:52:38.766158,56
2021-12-27 15:52:38.766164,44
2021-12-27 15:52:38.766171,44
2021-12-27 15:52:38.766177,35
2021-12-27 15:52:38.766183,21
2021-12-27 15:52:38.766190,16
2021-12-27 15:52:38.766196,18
2021-12-27 15:52:38.766203,18
2021-12-27 15:52:38.766209,11
2021-12-27 15:52:38.766215,16
2021-12-27 15:52:38.766222,37
2021-12-27 15:52:38.766228,49
2021-12-27 15:52:38.766234,56
2021-12-27 15:52:38.766241,79
2021-12-27 15:52:38.766247,109
2021-12-27 15:52:38.766253,123
2021-12-27 15:52:38.766259,130
2021-12-27 15:52:38.766266,149
2021-12-27 15:52:38.766272,163
2021-12-27 15:52:38.766279,168
2021-12-27 15:52:38.766285,161
2021-12-27 15:52:38.766291,151
2021-12-27 15:52:38.766297,149
2021-12-27 15:52:38.766304,144
2021-12-27 15:52:38.766310,144
2021-12-27 15:52:38.766316,140
2021-12-27 15:52:38.766323,128
2021-12-27 15:52:38.961194,128
2021-12-27 15:52:38.961224,144
2021-12-27 15:52:38.961235,147
2021-12-27 15:52:38.961246,126
2021-12-27 15:52:38.961256,107
2021-12-27 15:52:38.961266,100
2021-12-27 15:52:38.961276,102
2021-12-27 15:52:38.961286,112
2021-12-27 15:52:38.961295,116
2021-12-27 15:52:38.961305,109
2021-12-27 15:52:38.961315,100
2021-12-27 15:52:38.961325,100
2021-12-27 15:52:38.961335,105
2021-12-27 15:52:38.961344,112
2021-12-27 15:52:38.961354,116
2021-12-27 15:52:38.961364,116
2021-12-27 15:52:38.961374,112
2021-12-27 15:52:38.961384,116
2021-12-27 15:52:38.961394,123
2021-12-27 15:52:38.961403,126
2021-12-27 15:52:38.961413,109
2021-12-27 15:52:38.961423,77
2021-12-27 15:52:38.961433,65
2021-12-27 15:52:38.961443,81
2021-12-27 15:52:38.961452,91
2021-12-27 15:52:38.961462,91
2021-12-27 15:52:38.961472,100
2021-12-27 15:52:38.961482,112
2021-12-27 15:52:38.961492,114
2021-12-27 15:52:38.961502,114
2021-12-27 15:52:39.253688,128
2021-12-27 15:52:39.253718,133
2021-12-27 15:52:39.253730,109
2021-12-27 15:52:39.253740,98
2021-12-27 15:52:39.253750,114
2021-12-27 15:52:39.253759,128
2021-12-27 15:52:39.253769,172
2021-12-27 15:52:39.253779,221
2021-12-27 15:52:39.253788,102
2021-12-27 15:52:39.253798,-355
2021-12-27 15:52:39.253808,-1062
2021-12-27 15:52:39.253817,-1363
2021-12-27 15:52:39.253827,-628
2021-12-27 15:52:39.253837,270
2021-12-27 15:52:39.253846,270
2021-12-27 15:52:39.253856,44
2021-12-27 15:52:39.253866,203
2021-12-27 15:52:39.253876,268
2021-12-27 15:52:39.253885,168
2021-12-27 15:52:39.253895,179
2021-12-27 15:52:39.253904,203
2021-12-27 15:52:39.253914,147
2021-12-27 15:52:39.253924,128
2021-12-27 15:52:39.253934,149
2021-12-27 15:52:39.253943,133
2021-12-27 15:52:39.253953,102
2021-12-27 15:52:39.253962,93
2021-12-27 15:52:39.253972,81
2021-12-27 15:52:39.253981,67
2021-12-27 15:52:39.253991,58
2021-12-27 15:52:39.448741,46
2021-12-27 15:52:39.448762,35
2021-12-27 15:52:39.448769,23
2021-12-27 15:52:39.448776,9
2021-12-27 15:52:39.448783,2
2021-12-27 15:52:39.448789,-4
2021-12-27 15:52:39.448796,-7
2021-12-27 15:52:39.448802,-4
2021-12-27 15:52:39.448808,-2
2021-12-27 15:52:39.448815,0
2021-12-27 15:52:39.448821,11
2021-12-27 15:52:39.448828,25
2021-12-27 15:52:39.448834,37
2021-12-27 15:52:39.448841,51
2021-12-27 15:52:39.448847,77
2021-12-27 15:52:39.448854,100
2021-12-27 15:52:39.448860,112
2021-12-27 15:52:39.448867,119
2021-12-27 15:52:39.448873,133
2021-12-27 15:52:39.448879,140
2021-12-27 15:52:39.448886,126
2021-12-27 15:52:39.448892,114
2021-12-27 15:52:39.448898,116
2021-12-27 15:52:39.448905,112
2021-12-27 15:52:39.448911,105
2021-12-27 15:52:39.448917,107
2021-12-27 15:52:39.448924,105
2021-12-27 15:52:39.448930,95
2021-12-27 15:52:39.448937,95
2021-12-27 15:52:39.448943,100
2021-12-27 15:52:39.644016,98
2021-12-27 15:52:39.644036,98
2021-12-27 15:52:39.644044,105
2021-12-27 15:52:39.644050,105
2021-12-27 15:52:39.644056,105
2021-12-27 15:52:39.644063,102
2021-12-27 15:52:39.644069,98
2021-12-27 15:52:39.644075,100
2021-12-27 15:52:39.644082,107
2021-12-27 15:52:39.644088,112
2021-12-27 15:52:39.644094,107
2021-12-27 15:52:39.644100,98
2021-12-27 15:52:39.644107,100
2021-12-27 15:52:39.644113,109
2021-12-27 15:52:39.644119,109
2021-12-27 15:52:39.644126,102
2021-12-27 15:52:39.644132,86
2021-12-27 15:52:39.644138,67
2021-12-27 15:52:39.644144,56
2021-12-27 15:52:39.644151,63
2021-12-27 15:52:39.644157,77
2021-12-27 15:52:39.644163,77
2021-12-27 15:52:39.644169,81
2021-12-27 15:52:39.644176,93
2021-12-27 15:52:39.644182,93
2021-12-27 15:52:39.644188,93
2021-12-27 15:52:39.644194,102
2021-12-27 15:52:39.644201,93
2021-12-27 15:52:39.644207,77
2021-12-27 15:52:39.644213,74
2021-12-27 15:52:39.886734,79
2021-12-27 15:52:39.886751,81
2021-12-27 15:52:39.886757,102
2021-12-27 15:52:39.886762,156
2021-12-27 15:52:39.886767,154
2021-12-27 15:52:39.886772,-91
2021-12-27 15:52:39.886778,-674
2021-12-27 15:52:39.886783,-1275
2021-12-27 15:52:39.886788,-1125
2021-12-27 15:52:39.886793,-198
2021-12-27 15:52:39.886798,308
2021-12-27 15:52:39.886803,93
2021-12-27 15:52:39.886808,49
2021-12-27 15:52:39.886813,217
2021-12-27 15:52:39.886818,186
2021-12-27 15:52:39.886823,128
2021-12-27 15:52:39.886828,151
2021-12-27 15:52:39.886834,130
2021-12-27 15:52:39.886839,95
2021-12-27 15:52:39.886844,109
2021-12-27 15:52:39.886849,105
2021-12-27 15:52:39.886854,74
2021-12-27 15:52:39.886859,67
2021-12-27 15:52:39.886864,67
2021-12-27 15:52:39.886869,53
2021-12-27 15:52:39.886874,42
2021-12-27 15:52:39.886879,35
2021-12-27 15:52:39.886884,16
2021-12-27 15:52:39.886889,2
2021-12-27 15:52:39.886894,2
2021-12-27 15:52:40.179678,-4
2021-12-27 15:52:40.179708,-16
2021-12-27 15:52:40.179719,-16
2021-12-27 15:52:40.179729,-9
2021-12-27 15:52:40.179739,-4
2021-12-27 15:52:40.179749,4
2021-12-27 15:52:40.179759,11
2021-12-27 15:52:40.179769,11
2021-12-27 15:52:40.179778,21
2021-12-27 15:52:40.179788,56
2021-12-27 15:52:40.179798,84
2021-12-27 15:52:40.179807,95
2021-12-27 15:52:40.179817,107
2021-12-27 15:52:40.179827,123
2021-12-27 15:52:40.179837,137
2021-12-27 15:52:40.179846,144
2021-12-27 15:52:40.179856,140
2021-12-27 15:52:40.179866,135
2021-12-27 15:52:40.179876,130
2021-12-27 15:52:40.179885,123
2021-12-27 15:52:40.179895,121
2021-12-27 15:52:40.179905,112
2021-12-27 15:52:40.179915,107
2021-12-27 15:52:40.179924,114
2021-12-27 15:52:40.179934,114
2021-12-27 15:52:40.179944,105
2021-12-27 15:52:40.179954,105
2021-12-27 15:52:40.179963,107
2021-12-27 15:52:40.179973,109
2021-12-27 15:52:40.179983,112
2021-12-27 15:52:40.326211,109
2021-12-27 15:52:40.326241,105
2021-12-27 15:52:40.326253,107
2021-12-27 15:52:40.326263,105
2021-12-27 15:52:40.326273,105
2021-12-27 15:52:40.326282,109
2021-12-27 15:52:40.326292,107
2021-12-27 15:52:40.326302,105
2021-12-27 15:52:40.326311,112
2021-12-27 15:52:40.326321,116
2021-12-27 15:52:40.326331,114
2021-12-27 15:52:40.326341,119
2021-12-27 15:52:40.326351,123
2021-12-27 15:52:40.326360,107
2021-12-27 15:52:40.326370,74
2021-12-27 15:52:40.326380,63
2021-12-27 15:52:40.326389,77
2021-12-27 15:52:40.326405,86
2021-12-27 15:52:40.326414,86
2021-12-27 15:52:40.326424,95
2021-12-27 15:52:40.326434,102
2021-12-27 15:52:40.326444,98
2021-12-27 15:52:40.326454,93
2021-12-27 15:52:40.326464,91
2021-12-27 15:52:40.326474,86
2021-12-27 15:52:40.326484,91
2021-12-27 15:52:40.326493,93
2021-12-27 15:52:40.326503,84
2021-12-27 15:52:40.326513,86
2021-12-27 15:52:40.326523,116
2021-12-27 15:52:40.666626,165
2021-12-27 15:52:40.666656,158
2021-12-27 15:52:40.666668,-109
2021-12-27 15:52:40.666679,-738
2021-12-27 15:52:40.666689,-1305
2021-12-27 15:52:40.666699,-1008
2021-12-27 15:52:40.666709,-35
2021-12-27 15:52:40.666719,345
2021-12-27 15:52:40.666729,79
2021-12-27 15:52:40.666739,70
2021-12-27 15:52:40.666748,203
2021-12-27 15:52:40.666758,140
2021-12-27 15:52:40.666768,102
2021-12-27 15:52:40.666778,142
2021-12-27 15:52:40.666788,123
2021-12-27 15:52:40.666798,91
2021-12-27 15:52:40.666808,91
2021-12-27 15:52:40.666817,79
2021-12-27 15:52:40.666827,63
2021-12-27 15:52:40.666837,60
2021-12-27 15:52:40.666847,51
2021-12-27 15:52:40.666857,37
2021-12-27 15:52:40.666867,30
2021-12-27 15:52:40.666877,14
2021-12-27 15:52:40.666887,-4
2021-12-27 15:52:40.666897,-7
2021-12-27 15:52:40.666907,-7
2021-12-27 15:52:40.666916,-21
2021-12-27 15:52:40.666926,-30
2021-12-27 15:52:40.666936,-25
2021-12-27 15:52:40.813912,-21
2021-12-27 15:52:40.813934,-18
2021-12-27 15:52:40.813942,-9
2021-12-27 15:52:40.813948,-2
2021-12-27 15:52:40.813987,9
2021-12-27 15:52:40.813993,30
2021-12-27 15:52:40.814000,44
2021-12-27 15:52:40.814006,58
2021-12-27 15:52:40.814012,86
2021-12-27 15:52:40.814018,112
2021-12-27 15:52:40.814025,128
2021-12-27 15:52:40.814031,133
2021-12-27 15:52:40.814037,137
2021-12-27 15:52:40.814044,144
2021-12-27 15:52:40.814050,142
2021-12-27 15:52:40.814056,135
2021-12-27 15:52:40.814062,130
2021-12-27 15:52:40.814068,119
2021-12-27 15:52:40.814075,105
2021-12-27 15:52:40.814081,109
2021-12-27 15:52:40.814087,114
2021-12-27 15:52:40.814093,105
2021-12-27 15:52:40.814099,100
2021-12-27 15:52:40.814105,105
2021-12-27 15:52:40.814112,100
2021-12-27 15:52:40.814118,95
2021-12-27 15:52:40.814124,102
2021-12-27 15:52:40.814130,98
2021-12-27 15:52:40.814136,81
2021-12-27 15:52:40.814143,86
2021-12-27 15:52:41.057586,102
2021-12-27 15:52:41.057607,100
2021-12-27 15:52:41.057614,100
2021-12-27 15:52:41.057621,107
2021-12-27 15:52:41.057627,109
2021-12-27 15:52:41.057634,112
2021-12-27 15:52:41.057640,114
2021-12-27 15:52:41.057647,107
2021-12-27 15:52:41.057653,95
2021-12-27 15:52:41.057677,74
2021-12-27 15:52:41.057687,60
2021-12-27 15:52:41.057697,70
2021-12-27 15:52:41.057706,84
2021-12-27 15:52:41.057761,84
2021-12-27 15:52:41.057767,93
2021-12-27 15:52:41.057774,105
2021-12-27 15:52:41.057780,100
2021-12-27 15:52:41.057787,100
2021-12-27 15:52:41.057793,105
2021-12-27 15:52:41.057800,100
2021-12-27 15:52:41.057806,95
2021-12-27 15:52:41.057813,98
2021-12-27 15:52:41.057819,98
2021-12-27 15:52:41.057826,95
2021-12-27 15:52:41.057832,121
2021-12-27 15:52:41.057838,186
2021-12-27 15:52:41.057845,184
2021-12-27 15:52:41.057851,-91
2021-12-27 15:52:41.057858,-719
2021-12-27 15:52:41.057864,-1312
2021-12-27 15:52:41.349432,-1055
2021-12-27 15:52:41.349461,-56
2021-12-27 15:52:41.349473,380
2021-12-27 15:52:41.349483,105
2021-12-27 15:52:41.349493,84
2021-12-27 15:52:41.349503,242
2021-12-27 15:52:41.349512,186
2021-12-27 15:52:41.349522,135
2021-12-27 15:52:41.349532,170
2021-12-27 15:52:41.349542,147
2021-12-27 15:52:41.349552,109
2021-12-27 15:52:41.349561,112
2021-12-27 15:52:41.349571,98
2021-12-27 15:52:41.349581,74
2021-12-27 15:52:41.349591,67
2021-12-27 15:52:41.349600,56
2021-12-27 15:52:41.349610,37
2021-12-27 15:52:41.349620,28
2021-12-27 15:52:41.349630,23
2021-12-27 15:52:41.349639,11
2021-12-27 15:52:41.349649,2
2021-12-27 15:52:41.349659,-11
2021-12-27 15:52:41.349669,-23
2021-12-27 15:52:41.349679,-25
2021-12-27 15:52:41.349688,-21
2021-12-27 15:52:41.349698,-16
2021-12-27 15:52:41.349708,-14
2021-12-27 15:52:41.349718,-14
2021-12-27 15:52:41.349728,-2
2021-12-27 15:52:41.349738,21
2021-12-27 15:52:41.496426,39
2021-12-27 15:52:41.496447,56
2021-12-27 15:52:41.496454,86
2021-12-27 15:52:41.496461,109
2021-12-27 15:52:41.496468,116
2021-12-27 15:52:41.496474,130
2021-12-27 15:52:41.496480,147
2021-12-27 15:52:41.496486,142
2021-12-27 15:52:41.496493,140
2021-12-27 15:52:41.496499,151
2021-12-27 15:52:41.496505,144
2021-12-27 15:52:41.496511,126
2021-12-27 15:52:41.496518,126
2021-12-27 15:52:41.496524,123
2021-12-27 15:52:41.496530,114
2021-12-27 15:52:41.496537,109
2021-12-27 15:52:41.496543,107
2021-12-27 15:52:41.496549,102
2021-12-27 15:52:41.496556,100
2021-12-27 15:52:41.496562,100
2021-12-27 15:52:41.496568,102
2021-12-27 15:52:41.496574,100
2021-12-27 15:52:41.496581,91
2021-12-27 15:52:41.496587,98
2021-12-27 15:52:41.496594,109
2021-12-27 15:52:41.496600,107
2021-12-27 15:52:41.496606,107
2021-12-27 15:52:41.496612,116
2021-12-27 15:52:41.496619,112
2021-12-27 15:52:41.496625,105
2021-12-27 15:52:41.740495,112
2021-12-27 15:52:41.740523,119
2021-12-27 15:52:41.740535,114
2021-12-27 15:52:41.740545,107
2021-12-27 15:52:41.740555,105
2021-12-27 15:52:41.740564,112
2021-12-27 15:52:41.740574,119
2021-12-27 15:52:41.740584,114
2021-12-27 15:52:41.740594,102
2021-12-27 15:52:41.740603,86
2021-12-27 15:52:41.740613,74
2021-12-27 15:52:41.740623,79
2021-12-27 15:52:41.740632,84
2021-12-27 15:52:41.740642,79
2021-12-27 15:52:41.740652,91
2021-12-27 15:52:41.740662,102
2021-12-27 15:52:41.740671,100
2021-12-27 15:52:41.740681,95
2021-12-27 15:52:41.740691,98
2021-12-27 15:52:41.740700,95
2021-12-27 15:52:41.740710,93
2021-12-27 15:52:41.740720,93
2021-12-27 15:52:41.740730,93
2021-12-27 15:52:41.740739,93
2021-12-27 15:52:41.740749,114
2021-12-27 15:52:41.740759,170
2021-12-27 15:52:41.740768,196
2021-12-27 15:52:41.740778,9
2021-12-27 15:52:41.740788,-562
2021-12-27 15:52:41.740798,-1310
2021-12-27 15:52:41.983802,-1403
2021-12-27 15:52:41.983823,-455
2021-12-27 15:52:41.983831,345
2021-12-27 15:52:41.983838,200
2021-12-27 15:52:41.983844,30
2021-12-27 15:52:41.983850,219
2021-12-27 15:52:41.983857,233
2021-12-27 15:52:41.983863,135
2021-12-27 15:52:41.983869,163
2021-12-27 15:52:41.983876,172
2021-12-27 15:52:41.983882,119
2021-12-27 15:52:41.983888,112
2021-12-27 15:52:41.983895,116
2021-12-27 15:52:41.983901,93
2021-12-27 15:52:41.983907,77
2021-12-27 15:52:41.983914,67
2021-12-27 15:52:41.983921,51
2021-12-27 15:52:41.983927,37
2021-12-27 15:52:41.983934,28
2021-12-27 15:52:41.983940,14
2021-12-27 15:52:41.983946,0
2021-12-27 15:52:41.983953,-9
2021-12-27 15:52:41.983959,-9
2021-12-27 15:52:41.983965,-16
2021-12-27 15:52:41.983972,-28
2021-12-27 15:52:41.983978,-30
2021-12-27 15:52:41.983984,-18
2021-12-27 15:52:41.983991,-11
2021-12-27 15:52:41.983997,-9
2021-12-27 15:52:41.984004,2
2021-12-27 15:52:42.178865,16
2021-12-27 15:52:42.178895,35
2021-12-27 15:52:42.178907,60
2021-12-27 15:52:42.178917,88
2021-12-27 15:52:42.178927,105
2021-12-27 15:52:42.178937,112
2021-12-27 15:52:42.178947,121
2021-12-27 15:52:42.178957,135
2021-12-27 15:52:42.178967,144
2021-12-27 15:52:42.178977,135
2021-12-27 15:52:42.178987,123
2021-12-27 15:52:42.178996,123
2021-12-27 15:52:42.179006,128
2021-12-27 15:52:42.179016,121
2021-12-27 15:52:42.179026,109
2021-12-27 15:52:42.179036,102
2021-12-27 15:52:42.179046,98
2021-12-27 15:52:42.179056,98
2021-12-27 15:52:42.179066,95
2021-12-27 15:52:42.179076,93
2021-12-27 15:52:42.179086,95
2021-12-27 15:52:42.179096,98
2021-12-27 15:52:42.179106,95
2021-12-27 15:52:42.179116,93
2021-12-27 15:52:42.179125,95
2021-12-27 15:52:42.179135,100
2021-12-27 15:52:42.179145,105
2021-12-27 15:52:42.179155,102
2021-12-27 15:52:42.179165,100
2021-12-27 15:52:42.179175,107
2021-12-27 15:52:42.422564,112
2021-12-27 15:52:42.422588,112
2021-12-27 15:52:42.422599,114
2021-12-27 15:52:42.422608,105
2021-12-27 15:52:42.422617,100
2021-12-27 15:52:42.422646,105
2021-12-27 15:52:42.422656,105
2021-12-27 15:52:42.422665,105
2021-12-27 15:52:42.422674,107
2021-12-27 15:52:42.422683,107
2021-12-27 15:52:42.422692,107
2021-12-27 15:52:42.422702,100
2021-12-27 15:52:42.422711,84
2021-12-27 15:52:42.422721,67
2021-12-27 15:52:42.422730,65
2021-12-27 15:52:42.422740,72
2021-12-27 15:52:42.422749,77
2021-12-27 15:52:42.422758,81
2021-12-27 15:52:42.422767,86
2021-12-27 15:52:42.422899,86
2021-12-27 15:52:42.422915,91
2021-12-27 15:52:42.422925,91
2021-12-27 15:52:42.422935,81
2021-12-27 15:52:42.422944,81
2021-12-27 15:52:42.422954,88
2021-12-27 15:52:42.422962,86
2021-12-27 15:52:42.422972,84
2021-12-27 15:52:42.422981,114
2021-12-27 15:52:42.422990,182
2021-12-27 15:52:42.422999,182
2021-12-27 15:52:42.762871,-105
2021-12-27 15:52:42.762901,-791
2021-12-27 15:52:42.762912,-1473
2021-12-27 15:52:42.762922,-1258
2021-12-27 15:52:42.762932,-189
2021-12-27 15:52:42.762942,359
2021-12-27 15:52:42.762952,107
2021-12-27 15:52:42.762961,60
2021-12-27 15:52:42.762971,245
2021-12-27 15:52:42.762981,205
2021-12-27 15:52:42.762991,140
2021-12-27 15:52:42.763000,182
2021-12-27 15:52:42.763010,168
2021-12-27 15:52:42.763020,119
2021-12-27 15:52:42.763049,121
2021-12-27 15:52:42.763059,123
2021-12-27 15:52:42.763069,100
2021-12-27 15:52:42.763078,93
2021-12-27 15:52:42.763088,88
2021-12-27 15:52:42.763098,67
2021-12-27 15:52:42.763107,53
2021-12-27 15:52:42.763117,49
2021-12-27 15:52:42.763127,37
2021-12-27 15:52:42.763137,25
2021-12-27 15:52:42.763146,9
2021-12-27 15:52:42.763156,-2
2021-12-27 15:52:42.763166,-2
2021-12-27 15:52:42.763176,-2
2021-12-27 15:52:42.763185,-7
2021-12-27 15:52:42.763195,-4
2021-12-27 15:52:42.909777,14
2021-12-27 15:52:42.909799,21
2021-12-27 15:52:42.909807,28
2021-12-27 15:52:42.909813,39
2021-12-27 15:52:42.909820,58
2021-12-27 15:52:42.909826,86
2021-12-27 15:52:42.909833,114
2021-12-27 15:52:42.909839,123
2021-12-27 15:52:42.909889,130
2021-12-27 15:52:42.909914,142
2021-12-27 15:52:42.909923,151
2021-12-27 15:52:42.909930,156
2021-12-27 15:52:42.909936,156
2021-12-27 15:52:42.909943,151
2021-12-27 15:52:42.909950,144
2021-12-27 15:52:42.909956,133
2021-12-27 15:52:42.909962,123
2021-12-27 15:52:42.909969,123
2021-12-27 15:52:42.909975,121
2021-12-27 15:52:42.909981,114
2021-12-27 15:52:42.909988,112
2021-12-27 15:52:42.909994,109
2021-12-27 15:52:42.910001,109
2021-12-27 15:52:42.910007,112
2021-12-27 15:52:42.910013,114
2021-12-27 15:52:42.910020,107
2021-12-27 15:52:42.910026,102
2021-12-27 15:52:42.910033,105
2021-12-27 15:52:42.910039,107
2021-12-27 15:52:42.910045,107
2021-12-27 15:52:43.104670,116
2021-12-27 15:52:43.104702,119
2021-12-27 15:52:43.104714,114
2021-12-27 15:52:43.104725,114
2021-12-27 15:52:43.104732,116
2021-12-27 15:52:43.104739,121
2021-12-27 15:52:43.104745,123
2021-12-27 15:52:43.104751,119
2021-12-27 15:52:43.104758,112
2021-12-27 15:52:43.104766,112
2021-12-27 15:52:43.104773,114
2021-12-27 15:52:43.104779,112
2021-12-27 15:52:43.104786,109
2021-12-27 15:52:43.104792,112
2021-12-27 15:52:43.104799,116
2021-12-27 15:52:43.104805,112
2021-12-27 15:52:43.104811,95
2021-12-27 15:52:43.104822,81
2021-12-27 15:52:43.104833,74
2021-12-27 15:52:43.104844,79
2021-12-27 15:52:43.104852,81
2021-12-27 15:52:43.104859,79
2021-12-27 15:52:43.104865,91
2021-12-27 15:52:43.104871,102
2021-12-27 15:52:43.104878,102
2021-12-27 15:52:43.104884,100
2021-12-27 15:52:43.104890,102
2021-12-27 15:52:43.104896,98
2021-12-27 15:52:43.104903,88
2021-12-27 15:52:43.104909,91
2021-12-27 15:52:43.348928,91
2021-12-27 15:52:43.348957,86
2021-12-27 15:52:43.348968,109
2021-12-27 15:52:43.348979,172
2021-12-27 15:52:43.348989,177
2021-12-27 15:52:43.348999,-91
2021-12-27 15:52:43.349009,-747
2021-12-27 15:52:43.349018,-1441
2021-12-27 15:52:43.349028,-1293
2021-12-27 15:52:43.349038,-247
2021-12-27 15:52:43.349048,355
2021-12-27 15:52:43.349058,121
2021-12-27 15:52:43.349068,44
2021-12-27 15:52:43.349077,231
2021-12-27 15:52:43.349087,212
2021-12-27 15:52:43.349097,142
2021-12-27 15:52:43.349107,177
2021-12-27 15:52:43.349117,175
2021-12-27 15:52:43.349126,130
2021-12-27 15:52:43.349136,121
2021-12-27 15:52:43.349146,121
2021-12-27 15:52:43.349156,107
2021-12-27 15:52:43.349166,95
2021-12-27 15:52:43.349176,84
2021-12-27 15:52:43.349186,70
2021-12-27 15:52:43.349196,60
2021-12-27 15:52:43.349205,49
2021-12-27 15:52:43.349216,35
2021-12-27 15:52:43.349226,25
2021-12-27 15:52:43.349236,11
2021-12-27 15:52:43.592680,-7
2021-12-27 15:52:43.592703,-14
2021-12-27 15:52:43.592710,-11
2021-12-27 15:52:43.592717,-9
2021-12-27 15:52:43.592723,-9
2021-12-27 15:52:43.592729,-9
2021-12-27 15:52:43.592736,0
2021-12-27 15:52:43.592742,14
2021-12-27 15:52:43.592748,28
2021-12-27 15:52:43.592755,44
2021-12-27 15:52:43.592761,65
2021-12-27 15:52:43.592767,91
2021-12-27 15:52:43.592774,109
2021-12-27 15:52:43.592780,114
2021-12-27 15:52:43.592786,123
2021-12-27 15:52:43.592793,140
2021-12-27 15:52:43.592799,144
2021-12-27 15:52:43.592805,140
2021-12-27 15:52:43.592811,133
2021-12-27 15:52:43.592818,128
2021-12-27 15:52:43.592824,128
2021-12-27 15:52:43.592830,123
2021-12-27 15:52:43.592836,119
2021-12-27 15:52:43.592843,112
2021-12-27 15:52:43.592849,109
2021-12-27 15:52:43.592855,112
2021-12-27 15:52:43.592862,112
2021-12-27 15:52:43.592868,102
2021-12-27 15:52:43.592874,102
2021-12-27 15:52:43.592881,112
2021-12-27 15:52:43.836861,112
2021-12-27 15:52:43.836883,102
2021-12-27 15:52:43.836891,102
2021-12-27 15:52:43.836897,107
2021-12-27 15:52:43.836903,107
2021-12-27 15:52:43.836910,107
2021-12-27 15:52:43.836916,112
2021-12-27 15:52:43.836922,116
2021-12-27 15:52:43.836929,107
2021-12-27 15:52:43.836935,100
2021-12-27 15:52:43.836941,102
2021-12-27 15:52:43.836948,105
2021-12-27 15:52:43.836954,102
2021-12-27 15:52:43.836961,105
2021-12-27 15:52:43.836967,100
2021-12-27 15:52:43.836973,95
2021-12-27 15:52:43.836980,100
2021-12-27 15:52:43.836986,105
2021-12-27 15:52:43.836992,100
2021-12-27 15:52:43.836999,100
2021-12-27 15:52:43.837005,98
2021-12-27 15:52:43.837011,95
2021-12-27 15:52:43.837018,100
2021-12-27 15:52:43.837024,102
2021-12-27 15:52:43.837031,100
2021-12-27 15:52:43.837037,100
2021-12-27 15:52:43.837043,91
2021-12-27 15:52:43.837050,70
2021-12-27 15:52:43.837056,53
2021-12-27 15:52:43.837062,58
2021-12-27 15:52:44.080305,67
2021-12-27 15:52:44.080328,74
2021-12-27 15:52:44.080336,74
2021-12-27 15:52:44.080342,70
2021-12-27 15:52:44.080349,70
2021-12-27 15:52:44.080355,72
2021-12-27 15:52:44.080361,72
2021-12-27 15:52:44.080368,74
2021-12-27 15:52:44.080374,74
2021-12-27 15:52:44.080380,74
2021-12-27 15:52:44.080387,72
2021-12-27 15:52:44.080393,72
2021-12-27 15:52:44.080399,102
2021-12-27 15:52:44.080406,165
2021-12-27 15:52:44.080412,154
2021-12-27 15:52:44.080419,-144
2021-12-27 15:52:44.080425,-817
2021-12-27 15:52:44.080432,-1448
2021-12-27 15:52:44.080438,-1186
2021-12-27 15:52:44.080445,-142
2021-12-27 15:52:44.080451,343
2021-12-27 15:52:44.080458,91
2021-12-27 15:52:44.080464,72
2021-12-27 15:52:44.080471,245
2021-12-27 15:52:44.080477,196
2021-12-27 15:52:44.080484,140
2021-12-27 15:52:44.080490,184
2021-12-27 15:52:44.080497,170
2021-12-27 15:52:44.080503,126
2021-12-27 15:52:44.080509,126
2021-12-27 15:52:44.323971,128
2021-12-27 15:52:44.324001,109
2021-12-27 15:52:44.324013,98
2021-12-27 15:52:44.324096,93
2021-12-27 15:52:44.324119,77
2021-12-27 15:52:44.324129,60
2021-12-27 15:52:44.324139,49
2021-12-27 15:52:44.324149,39
2021-12-27 15:52:44.324159,35
2021-12-27 15:52:44.324169,28
2021-12-27 15:52:44.324178,16
2021-12-27 15:52:44.324188,4
2021-12-27 15:52:44.324198,0
2021-12-27 15:52:44.324208,4
2021-12-27 15:52:44.324218,7
2021-12-27 15:52:44.324227,4
2021-12-27 15:52:44.324237,11
2021-12-27 15:52:44.324247,25
2021-12-27 15:52:44.324257,35
2021-12-27 15:52:44.324266,46
2021-12-27 15:52:44.324276,70
2021-12-27 15:52:44.324286,95
2021-12-27 15:52:44.324295,112
2021-12-27 15:52:44.324305,126
2021-12-27 15:52:44.324315,137
2021-12-27 15:52:44.324325,140
2021-12-27 15:52:44.324334,144
2021-12-27 15:52:44.324344,147
2021-12-27 15:52:44.324354,142
2021-12-27 15:52:44.324363,135
2021-12-27 15:52:44.616846,130
2021-12-27 15:52:44.616876,126
2021-12-27 15:52:44.616887,126
2021-12-27 15:52:44.616897,126
2021-12-27 15:52:44.616907,121
2021-12-27 15:52:44.616917,116
2021-12-27 15:52:44.616926,116
2021-12-27 15:52:44.616936,105
2021-12-27 15:52:44.616946,95
2021-12-27 15:52:44.616956,100
2021-12-27 15:52:44.616965,105
2021-12-27 15:52:44.616975,100
2021-12-27 15:52:44.616985,102
2021-12-27 15:52:44.616994,105
2021-12-27 15:52:44.617004,100
2021-12-27 15:52:44.617014,98
2021-12-27 15:52:44.617024,105
2021-12-27 15:52:44.617033,107
2021-12-27 15:52:44.617043,105
2021-12-27 15:52:44.617053,107
2021-12-27 15:52:44.617062,107
2021-12-27 15:52:44.617072,102
2021-12-27 15:52:44.617082,95
2021-12-27 15:52:44.617091,95
2021-12-27 15:52:44.617101,98
2021-12-27 15:52:44.617111,98
2021-12-27 15:52:44.617121,93
2021-12-27 15:52:44.617130,88
2021-12-27 15:52:44.617140,91
2021-12-27 15:52:44.617149,88
2021-12-27 15:52:44.810406,84
2021-12-27 15:52:44.810436,88
2021-12-27 15:52:44.810448,91
2021-12-27 15:52:44.810458,86
2021-12-27 15:52:44.810468,88
2021-12-27 15:52:44.810478,91
2021-12-27 15:52:44.810488,91
2021-12-27 15:52:44.810497,88
2021-12-27 15:52:44.810507,70
2021-12-27 15:52:44.810517,51
2021-12-27 15:52:44.810527,53
2021-12-27 15:52:44.810537,67
2021-12-27 15:52:44.810546,72
2021-12-27 15:52:44.810556,79
2021-12-27 15:52:44.810566,88
2021-12-27 15:52:44.810575,84
2021-12-27 15:52:44.810585,81
2021-12-27 15:52:44.810595,86
2021-12-27 15:52:44.810604,91
2021-12-27 15:52:44.810614,88
2021-12-27 15:52:44.810624,88
2021-12-27 15:52:44.810634,84
2021-12-27 15:52:44.810644,88
2021-12-27 15:52:44.810653,126
2021-12-27 15:52:44.810663,189
2021-12-27 15:52:44.810673,151
2021-12-27 15:52:44.810682,-193
2021-12-27 15:52:44.810692,-894
2021-12-27 15:52:44.810702,-1434
2021-12-27 15:52:44.810712,-1008
2021-12-27 15:52:44.957805,21
2021-12-27 15:52:44.957826,338
2021-12-27 15:52:44.957833,67
2021-12-27 15:52:44.957840,109
2021-12-27 15:52:44.957847,254
2021-12-27 15:52:44.957853,186
2021-12-27 15:52:44.957860,154
2021-12-27 15:52:44.957866,189
2021-12-27 15:52:44.957872,158
2021-12-27 15:52:44.957879,128
2021-12-27 15:52:44.957885,137
2021-12-27 15:52:44.957891,130
2021-12-27 15:52:44.957897,105
2021-12-27 15:52:44.957904,91
2021-12-27 15:52:44.957910,84
2021-12-27 15:52:44.957917,72
2021-12-27 15:52:44.957923,53
2021-12-27 15:52:44.957930,44
2021-12-27 15:52:44.957936,42
2021-12-27 15:52:44.957942,25
2021-12-27 15:52:44.957949,9
2021-12-27 15:52:44.957955,11
2021-12-27 15:52:44.957961,14
2021-12-27 15:52:44.957968,4
2021-12-27 15:52:44.957974,4
2021-12-27 15:52:44.957980,11
2021-12-27 15:52:44.957987,16
2021-12-27 15:52:44.957993,23
2021-12-27 15:52:44.958000,35
2021-12-27 15:52:44.958006,44
2021-12-27 15:52:45.201452,56
2021-12-27 15:52:45.201472,77
2021-12-27 15:52:45.201480,98
2021-12-27 15:52:45.201486,112
2021-12-27 15:52:45.201493,123
2021-12-27 15:52:45.201499,135
2021-12-27 15:52:45.201505,144
2021-12-27 15:52:45.201511,144
2021-12-27 15:52:45.201518,144
2021-12-27 15:52:45.201524,137
2021-12-27 15:52:45.201530,130
2021-12-27 15:52:45.201537,123
2021-12-27 15:52:45.201543,119
2021-12-27 15:52:45.201549,109
2021-12-27 15:52:45.201556,105
2021-12-27 15:52:45.201562,109
2021-12-27 15:52:45.201568,114
2021-12-27 15:52:45.201575,107
2021-12-27 15:52:45.201581,102
2021-12-27 15:52:45.201598,100
2021-12-27 15:52:45.201605,95
2021-12-27 15:52:45.201611,91
2021-12-27 15:52:45.201618,91
2021-12-27 15:52:45.201624,95
2021-12-27 15:52:45.201631,95
2021-12-27 15:52:45.201637,98
2021-12-27 15:52:45.201644,105
2021-12-27 15:52:45.201650,107
2021-12-27 15:52:45.201656,107
2021-12-27 15:52:45.201663,109
2021-12-27 15:52:45.493955,109
2021-12-27 15:52:45.493985,109
2021-12-27 15:52:45.493996,112
2021-12-27 15:52:45.494006,112
2021-12-27 15:52:45.494016,105
2021-12-27 15:52:45.494026,102
2021-12-27 15:52:45.494035,107
2021-12-27 15:52:45.494045,105
2021-12-27 15:52:45.494055,102
2021-12-27 15:52:45.494065,109
2021-12-27 15:52:45.494074,116
2021-12-27 15:52:45.494084,112
2021-12-27 15:52:45.494094,102
2021-12-27 15:52:45.494104,88
2021-12-27 15:52:45.494114,72
2021-12-27 15:52:45.494124,65
2021-12-27 15:52:45.494133,70
2021-12-27 15:52:45.494143,79
2021-12-27 15:52:45.494153,81
2021-12-27 15:52:45.494162,84
2021-12-27 15:52:45.494172,91
2021-12-27 15:52:45.494181,93
2021-12-27 15:52:45.494191,88
2021-12-27 15:52:45.494201,88
2021-12-27 15:52:45.494210,93
2021-12-27 15:52:45.494220,98
2021-12-27 15:52:45.494230,98
2021-12-27 15:52:45.494239,95
2021-12-27 15:52:45.494249,119
2021-12-27 15:52:45.494259,177
2021-12-27 15:52:45.640643,186
2021-12-27 15:52:45.640672,-58
2021-12-27 15:52:45.640684,-674
2021-12-27 15:52:45.640694,-1310
2021-12-27 15:52:45.640703,-1149
2021-12-27 15:52:45.640713,-175
2021-12-27 15:52:45.640723,355
2021-12-27 15:52:45.640733,128
2021-12-27 15:52:45.640742,72
2021-12-27 15:52:45.640767,245
2021-12-27 15:52:45.640778,219
2021-12-27 15:52:45.640788,158
2021-12-27 15:52:45.640797,189
2021-12-27 15:52:45.640807,182
2021-12-27 15:52:45.640816,147
2021-12-27 15:52:45.640826,137
2021-12-27 15:52:45.640836,128
2021-12-27 15:52:45.640845,109
2021-12-27 15:52:45.640855,95
2021-12-27 15:52:45.640864,86
2021-12-27 15:52:45.640874,77
2021-12-27 15:52:45.640883,67
2021-12-27 15:52:45.640893,56
2021-12-27 15:52:45.640902,44
2021-12-27 15:52:45.640912,32
2021-12-27 15:52:45.640921,23
2021-12-27 15:52:45.640931,16
2021-12-27 15:52:45.640941,9
2021-12-27 15:52:45.640950,4
2021-12-27 15:52:45.640960,4
2021-12-27 15:52:45.932158,7
2021-12-27 15:52:45.932188,9
2021-12-27 15:52:45.932200,14
2021-12-27 15:52:45.932210,30
2021-12-27 15:52:45.932221,46
2021-12-27 15:52:45.932231,56
2021-12-27 15:52:45.932241,72
2021-12-27 15:52:45.932251,95
2021-12-27 15:52:45.932261,114
2021-12-27 15:52:45.932270,126
2021-12-27 15:52:45.932280,130
2021-12-27 15:52:45.932290,135
2021-12-27 15:52:45.932300,142
2021-12-27 15:52:45.932310,144
2021-12-27 15:52:45.932320,142
2021-12-27 15:52:45.932330,137
2021-12-27 15:52:45.932340,133
2021-12-27 15:52:45.932349,123
2021-12-27 15:52:45.932359,109
2021-12-27 15:52:45.932369,105
2021-12-27 15:52:45.932379,98
2021-12-27 15:52:45.932389,91
2021-12-27 15:52:45.932399,95
2021-12-27 15:52:45.932408,91
2021-12-27 15:52:45.932418,81
2021-12-27 15:52:45.932428,86
2021-12-27 15:52:45.932438,88
2021-12-27 15:52:45.932448,86
2021-12-27 15:52:45.932458,86
2021-12-27 15:52:45.932468,91
2021-12-27 15:52:46.176522,93
2021-12-27 15:52:46.176552,91
2021-12-27 15:52:46.176563,88
2021-12-27 15:52:46.176574,93
2021-12-27 15:52:46.176583,98
2021-12-27 15:52:46.176593,98
2021-12-27 15:52:46.176603,93
2021-12-27 15:52:46.176613,95
2021-12-27 15:52:46.176622,100
2021-12-27 15:52:46.176632,95
2021-12-27 15:52:46.176642,95
2021-12-27 15:52:46.176652,102
2021-12-27 15:52:46.176661,102
2021-12-27 15:52:46.176671,93
2021-12-27 15:52:46.176681,74
2021-12-27 15:52:46.176691,60
2021-12-27 15:52:46.176700,63
2021-12-27 15:52:46.176710,72
2021-12-27 15:52:46.176720,74
2021-12-27 15:52:46.176730,77
2021-12-27 15:52:46.176739,86
2021-12-27 15:52:46.176749,93
2021-12-27 15:52:46.176759,91
2021-12-27 15:52:46.176769,88
2021-12-27 15:52:46.176779,91
2021-12-27 15:52:46.176788,91
2021-12-27 15:52:46.176798,88
2021-12-27 15:52:46.176808,86
2021-12-27 15:52:46.176818,88
2021-12-27 15:52:46.176827,107
2021-12-27 15:52:46.322800,156
2021-12-27 15:52:46.322829,193
2021-12-27 15:52:46.322841,42
2021-12-27 15:52:46.322851,-467
2021-12-27 15:52:46.322861,-1153
2021-12-27 15:52:46.322871,-1286
2021-12-27 15:52:46.322880,-455
2021-12-27 15:52:46.322890,310
2021-12-27 15:52:46.322900,205
2021-12-27 15:52:46.322910,25
2021-12-27 15:52:46.322919,191
2021-12-27 15:52:46.322929,231
2021-12-27 15:52:46.322939,154
2021-12-27 15:52:46.322949,170
2021-12-27 15:52:46.322959,177
2021-12-27 15:52:46.322968,135
2021-12-27 15:52:46.322978,126
2021-12-27 15:52:46.322988,121
2021-12-27 15:52:46.322997,102
2021-12-27 15:52:46.323007,95
2021-12-27 15:52:46.323017,86
2021-12-27 15:52:46.323026,63
2021-12-27 15:52:46.323036,53
2021-12-27 15:52:46.323046,56
2021-12-27 15:52:46.323055,37
2021-12-27 15:52:46.323065,18
2021-12-27 15:52:46.323075,16
2021-12-27 15:52:46.323084,11
2021-12-27 15:52:46.323094,-2
2021-12-27 15:52:46.323104,-9
2021-12-27 15:52:46.566445,-7
2021-12-27 15:52:46.566464,-2
2021-12-27 15:52:46.566472,-4
2021-12-27 15:52:46.566478,-2
2021-12-27 15:52:46.566485,4
2021-12-27 15:52:46.566491,16
2021-12-27 15:52:46.566498,32
2021-12-27 15:52:46.566504,56
2021-12-27 15:52:46.566511,81
2021-12-27 15:52:46.566517,91
2021-12-27 15:52:46.566523,98
2021-12-27 15:52:46.566530,116
2021-12-27 15:52:46.566536,130
2021-12-27 15:52:46.566543,133
2021-12-27 15:52:46.566549,130
2021-12-27 15:52:46.566555,123
2021-12-27 15:52:46.566561,121
2021-12-27 15:52:46.566568,119
2021-12-27 15:52:46.566574,114
2021-12-27 15:52:46.566580,107
2021-12-27 15:52:46.566587,105
2021-12-27 15:52:46.566593,105
2021-12-27 15:52:46.566599,102
2021-12-27 15:52:46.566606,91
2021-12-27 15:52:46.566612,84
2021-12-27 15:52:46.566618,86
2021-12-27 15:52:46.566625,86
2021-12-27 15:52:46.566631,84
2021-12-27 15:52:46.566637,84
2021-12-27 15:52:46.566644,84
2021-12-27 15:52:46.858206,84
2021-12-27 15:52:46.858236,88
2021-12-27 15:52:46.858248,95
2021-12-27 15:52:46.858258,93
2021-12-27 15:52:46.858268,88
2021-12-27 15:52:46.858278,88
2021-12-27 15:52:46.858288,91
2021-12-27 15:52:46.858298,93
2021-12-27 15:52:46.858308,98
2021-12-27 15:52:46.858318,100
2021-12-27 15:52:46.858328,93
2021-12-27 15:52:46.858338,79
2021-12-27 15:52:46.858348,63
2021-12-27 15:52:46.858358,53
2021-12-27 15:52:46.858368,60
2021-12-27 15:52:46.858378,72
2021-12-27 15:52:46.858388,77
2021-12-27 15:52:46.858398,86
2021-12-27 15:52:46.858407,98
2021-12-27 15:52:46.858417,98
2021-12-27 15:52:46.858427,93
2021-12-27 15:52:46.858437,98
2021-12-27 15:52:46.858447,102
2021-12-27 15:52:46.858457,100
2021-12-27 15:52:46.858467,93
2021-12-27 15:52:46.858477,100
2021-12-27 15:52:46.858486,119
2021-12-27 15:52:46.858496,158
2021-12-27 15:52:46.858506,189
2021-12-27 15:52:46.858516,42
2021-12-27 15:52:47.054213,-455
2021-12-27 15:52:47.054234,-1125
2021-12-27 15:52:47.054242,-1240
2021-12-27 15:52:47.054249,-422
2021-12-27 15:52:47.054255,308
2021-12-27 15:52:47.054262,193
2021-12-27 15:52:47.054268,28
2021-12-27 15:52:47.054274,186
2021-12-27 15:52:47.054281,214
2021-12-27 15:52:47.054287,137
2021-12-27 15:52:47.054294,161
2021-12-27 15:52:47.054300,175
2021-12-27 15:52:47.054306,133
2021-12-27 15:52:47.054313,121
2021-12-27 15:52:47.054319,121
2021-12-27 15:52:47.054326,100
2021-12-27 15:52:47.054332,86
2021-12-27 15:52:47.054339,81
2021-12-27 15:52:47.054345,70
2021-12-27 15:52:47.054351,56
2021-12-27 15:52:47.054358,44
2021-12-27 15:52:47.054364,37
2021-12-27 15:52:47.054370,28
2021-12-27 15:52:47.054377,18
2021-12-27 15:52:47.054383,14
2021-12-27 15:52:47.054389,9
2021-12-27 15:52:47.054396,2
2021-12-27 15:52:47.054402,2
2021-12-27 15:52:47.054409,11
2021-12-27 15:52:47.054415,14
2021-12-27 15:52:47.345101,16
2021-12-27 15:52:47.345115,28
2021-12-27 15:52:47.345121,42
2021-12-27 15:52:47.345125,51
2021-12-27 15:52:47.345130,74
2021-12-27 15:52:47.345134,98
2021-12-27 15:52:47.345139,114
2021-12-27 15:52:47.345143,128
2021-12-27 15:52:47.345147,140
2021-12-27 15:52:47.345151,147
2021-12-27 15:52:47.345156,151
2021-12-27 15:52:47.345160,154
2021-12-27 15:52:47.345165,142
2021-12-27 15:52:47.345169,133
2021-12-27 15:52:47.345173,133
2021-12-27 15:52:47.345177,126
2021-12-27 15:52:47.345182,119
2021-12-27 15:52:47.345186,119
2021-12-27 15:52:47.345190,116
2021-12-27 15:52:47.345195,114
2021-12-27 15:52:47.345199,119
2021-12-27 15:52:47.345203,119
2021-12-27 15:52:47.345208,114
2021-12-27 15:52:47.345212,114
2021-12-27 15:52:47.345217,112
2021-12-27 15:52:47.345221,112
2021-12-27 15:52:47.345226,112
2021-12-27 15:52:47.345230,109
2021-12-27 15:52:47.345234,107
2021-12-27 15:52:47.345239,112
2021-12-27 15:52:47.540927,121
2021-12-27 15:52:47.540957,119
2021-12-27 15:52:47.540969,105
2021-12-27 15:52:47.540979,88
2021-12-27 15:52:47.540989,77
2021-12-27 15:52:47.540999,67
2021-12-27 15:52:47.541009,72
2021-12-27 15:52:47.541019,81
2021-12-27 15:52:47.541028,88
2021-12-27 15:52:47.541038,95
2021-12-27 15:52:47.541048,100
2021-12-27 15:52:47.541058,98
2021-12-27 15:52:47.541068,95
2021-12-27 15:52:47.541078,98
2021-12-27 15:52:47.541088,100
2021-12-27 15:52:47.541097,91
2021-12-27 15:52:47.541107,86
2021-12-27 15:52:47.541117,91
2021-12-27 15:52:47.541127,100
2021-12-27 15:52:47.541137,137
2021-12-27 15:52:47.541147,189
2021-12-27 15:52:47.541156,121
2021-12-27 15:52:47.541166,-256
2021-12-27 15:52:47.541176,-908
2021-12-27 15:52:47.541186,-1296
2021-12-27 15:52:47.541196,-759
2021-12-27 15:52:47.541222,161
2021-12-27 15:52:47.541232,308
2021-12-27 15:52:47.541242,49
2021-12-27 15:52:47.541252,137
2021-12-27 15:52:47.735713,247
2021-12-27 15:52:47.735728,170
2021-12-27 15:52:47.735734,158
2021-12-27 15:52:47.735740,184
2021-12-27 15:52:47.735745,147
2021-12-27 15:52:47.735750,121
2021-12-27 15:52:47.735755,126
2021-12-27 15:52:47.735761,119
2021-12-27 15:52:47.735766,102
2021-12-27 15:52:47.735771,91
2021-12-27 15:52:47.735776,81
2021-12-27 15:52:47.735781,70
2021-12-27 15:52:47.735787,51
2021-12-27 15:52:47.735792,37
2021-12-27 15:52:47.735797,35
2021-12-27 15:52:47.735802,25
2021-12-27 15:52:47.735807,16
2021-12-27 15:52:47.735812,11
2021-12-27 15:52:47.735817,11
2021-12-27 15:52:47.735823,11
2021-12-27 15:52:47.735828,16
2021-12-27 15:52:47.735833,21
2021-12-27 15:52:47.735838,28
2021-12-27 15:52:47.735843,37
2021-12-27 15:52:47.735848,46
2021-12-27 15:52:47.735853,60
2021-12-27 15:52:47.735859,86
2021-12-27 15:52:47.735864,107
2021-12-27 15:52:47.735869,123
2021-12-27 15:52:47.735874,137
2021-12-27 15:52:48.077360,149
2021-12-27 15:52:48.077390,156
2021-12-27 15:52:48.077401,163
2021-12-27 15:52:48.077411,170
2021-12-27 15:52:48.077421,165
2021-12-27 15:52:48.077431,147
2021-12-27 15:52:48.077441,137
2021-12-27 15:52:48.077451,135
2021-12-27 15:52:48.077461,130
2021-12-27 15:52:48.077471,123
2021-12-27 15:52:48.077481,121
2021-12-27 15:52:48.077490,119
2021-12-27 15:52:48.077500,119
2021-12-27 15:52:48.077510,119
2021-12-27 15:52:48.077520,116
2021-12-27 15:52:48.077530,114
2021-12-27 15:52:48.077540,112
2021-12-27 15:52:48.077550,109
2021-12-27 15:52:48.077559,109
2021-12-27 15:52:48.077569,112
2021-12-27 15:52:48.077579,114
2021-12-27 15:52:48.077589,114
2021-12-27 15:52:48.077599,112
2021-12-27 15:52:48.077608,107
2021-12-27 15:52:48.077618,91
2021-12-27 15:52:48.077628,79
2021-12-27 15:52:48.077638,86
2021-12-27 15:52:48.077648,93
2021-12-27 15:52:48.077658,102
2021-12-27 15:52:48.077667,112
2021-12-27 15:52:48.174668,116
2021-12-27 15:52:48.174687,123
2021-12-27 15:52:48.174695,123
2021-12-27 15:52:48.174701,114
2021-12-27 15:52:48.174708,109
2021-12-27 15:52:48.174744,114
2021-12-27 15:52:48.174751,112
2021-12-27 15:52:48.174758,107
2021-12-27 15:52:48.174764,114
2021-12-27 15:52:48.174771,149
2021-12-27 15:52:48.174777,193
2021-12-27 15:52:48.174784,105
2021-12-27 15:52:48.174790,-294
2021-12-27 15:52:48.174797,-950
2021-12-27 15:52:48.174803,-1293
2021-12-27 15:52:48.174810,-696
2021-12-27 15:52:48.174816,191
2021-12-27 15:52:48.174822,273
2021-12-27 15:52:48.174829,28
2021-12-27 15:52:48.174835,144
2021-12-27 15:52:48.174842,242
2021-12-27 15:52:48.174848,158
2021-12-27 15:52:48.174855,140
2021-12-27 15:52:48.174861,168
2021-12-27 15:52:48.174867,140
2021-12-27 15:52:48.174874,114
2021-12-27 15:52:48.174880,116
2021-12-27 15:52:48.174887,107
2021-12-27 15:52:48.174893,84
2021-12-27 15:52:48.174900,74
2021-12-27 15:52:48.515413,72
2021-12-27 15:52:48.515433,63
2021-12-27 15:52:48.515441,53
2021-12-27 15:52:48.515447,46
2021-12-27 15:52:48.515454,32
2021-12-27 15:52:48.515460,11
2021-12-27 15:52:48.515467,2
2021-12-27 15:52:48.515473,7
2021-12-27 15:52:48.515479,7
2021-12-27 15:52:48.515486,2
2021-12-27 15:52:48.515492,0
2021-12-27 15:52:48.515499,4
2021-12-27 15:52:48.515505,11
2021-12-27 15:52:48.515512,21
2021-12-27 15:52:48.515518,37
2021-12-27 15:52:48.515524,56
2021-12-27 15:52:48.515531,72
2021-12-27 15:52:48.515537,91
2021-12-27 15:52:48.515543,114
2021-12-27 15:52:48.515550,133
2021-12-27 15:52:48.515556,142
2021-12-27 15:52:48.515563,149
2021-12-27 15:52:48.515569,144
2021-12-27 15:52:48.515576,140
2021-12-27 15:52:48.515582,142
2021-12-27 15:52:48.515588,140
2021-12-27 15:52:48.515595,130
2021-12-27 15:52:48.515601,123
2021-12-27 15:52:48.515607,121
2021-12-27 15:52:48.515614,119
2021-12-27 15:52:48.711565,116
2021-12-27 15:52:48.711595,112
2021-12-27 15:52:48.711606,116
2021-12-27 15:52:48.711616,119
2021-12-27 15:52:48.711626,112
2021-12-27 15:52:48.711636,109
2021-12-27 15:52:48.711646,116
2021-12-27 15:52:48.711656,121
2021-12-27 15:52:48.711665,119
2021-12-27 15:52:48.711675,119
2021-12-27 15:52:48.711685,116
2021-12-27 15:52:48.711695,100
2021-12-27 15:52:48.711705,88
2021-12-27 15:52:48.711715,91
2021-12-27 15:52:48.711725,98
2021-12-27 15:52:48.711734,112
2021-12-27 15:52:48.711744,121
2021-12-27 15:52:48.711754,121
2021-12-27 15:52:48.711764,121
2021-12-27 15:52:48.711773,123
2021-12-27 15:52:48.711783,116
2021-12-27 15:52:48.711793,112
2021-12-27 15:52:48.711803,116
2021-12-27 15:52:48.711812,121
2021-12-27 15:52:48.711822,116
2021-12-27 15:52:48.711832,114
2021-12-27 15:52:48.711842,144
2021-12-27 15:52:48.711852,203
2021-12-27 15:52:48.711861,189
2021-12-27 15:52:48.711871,-98
2021-12-27 15:52:49.002723,-712
2021-12-27 15:52:49.002753,-1198
2021-12-27 15:52:49.002765,-815
2021-12-27 15:52:49.002775,102
2021-12-27 15:52:49.002786,355
2021-12-27 15:52:49.002795,77
2021-12-27 15:52:49.002805,100
2021-12-27 15:52:49.002815,226
2021-12-27 15:52:49.002825,161
2021-12-27 15:52:49.002835,133
2021-12-27 15:52:49.002845,163
2021-12-27 15:52:49.002854,135
2021-12-27 15:52:49.002864,109
2021-12-27 15:52:49.002874,112
2021-12-27 15:52:49.002884,100
2021-12-27 15:52:49.002894,74
2021-12-27 15:52:49.002904,58
2021-12-27 15:52:49.002914,51
2021-12-27 15:52:49.002923,39
2021-12-27 15:52:49.002933,28
2021-12-27 15:52:49.002943,16
2021-12-27 15:52:49.002953,0
2021-12-27 15:52:49.002963,-14
2021-12-27 15:52:49.002972,-16
2021-12-27 15:52:49.002982,-16
2021-12-27 15:52:49.002992,-18
2021-12-27 15:52:49.003002,-18
2021-12-27 15:52:49.003012,-18
2021-12-27 15:52:49.003021,-23
2021-12-27 15:52:49.003031,-16
2021-12-27 15:52:49.101632,-4
2021-12-27 15:52:49.101661,7
2021-12-27 15:52:49.101673,23
2021-12-27 15:52:49.101683,49
2021-12-27 15:52:49.101693,67
2021-12-27 15:52:49.101703,84
2021-12-27 15:52:49.101713,105
2021-12-27 15:52:49.101722,126
2021-12-27 15:52:49.101732,137
2021-12-27 15:52:49.101742,137
2021-12-27 15:52:49.101752,128
2021-12-27 15:52:49.101762,121
2021-12-27 15:52:49.101772,119
2021-12-27 15:52:49.101782,116
2021-12-27 15:52:49.101791,116
2021-12-27 15:52:49.101801,109
2021-12-27 15:52:49.101811,100
2021-12-27 15:52:49.101821,98
2021-12-27 15:52:49.101831,98
2021-12-27 15:52:49.101841,95
2021-12-27 15:52:49.101851,91
2021-12-27 15:52:49.101861,93
2021-12-27 15:52:49.101871,93
2021-12-27 15:52:49.101880,93
2021-12-27 15:52:49.101890,100
2021-12-27 15:52:49.101900,107
2021-12-27 15:52:49.101910,105
2021-12-27 15:52:49.101920,102
2021-12-27 15:52:49.101930,88
2021-12-27 15:52:49.101940,72
2021-12-27 15:52:49.345295,70
2021-12-27 15:52:49.345317,77
2021-12-27 15:52:49.345324,88
2021-12-27 15:52:49.345331,100
2021-12-27 15:52:49.345337,105
2021-12-27 15:52:49.345344,105
2021-12-27 15:52:49.345350,105
2021-12-27 15:52:49.345356,102
2021-12-27 15:52:49.345363,98
2021-12-27 15:52:49.345369,102
2021-12-27 15:52:49.345376,102
2021-12-27 15:52:49.345382,93
2021-12-27 15:52:49.345388,91
2021-12-27 15:52:49.345395,105
2021-12-27 15:52:49.345401,142
2021-12-27 15:52:49.345407,189
2021-12-27 15:52:49.345414,93
2021-12-27 15:52:49.345420,-338
2021-12-27 15:52:49.345427,-1032
2021-12-27 15:52:49.345433,-1338
2021-12-27 15:52:49.345440,-642
2021-12-27 15:52:49.345446,263
2021-12-27 15:52:49.345453,289
2021-12-27 15:52:49.345459,35
2021-12-27 15:52:49.345466,161
2021-12-27 15:52:49.345472,240
2021-12-27 15:52:49.345478,151
2021-12-27 15:52:49.345485,149
2021-12-27 15:52:49.345491,179
2021-12-27 15:52:49.345498,154
2021-12-27 15:52:49.589351,130
2021-12-27 15:52:49.589369,121
2021-12-27 15:52:49.589375,105
2021-12-27 15:52:49.589380,84
2021-12-27 15:52:49.589385,65
2021-12-27 15:52:49.589390,53
2021-12-27 15:52:49.589396,42
2021-12-27 15:52:49.589401,30
2021-12-27 15:52:49.589406,30
2021-12-27 15:52:49.589411,23
2021-12-27 15:52:49.589416,2
2021-12-27 15:52:49.589434,0
2021-12-27 15:52:49.589440,9
2021-12-27 15:52:49.589445,4
2021-12-27 15:52:49.589450,0
2021-12-27 15:52:49.589456,11
2021-12-27 15:52:49.589461,16
2021-12-27 15:52:49.589466,23
2021-12-27 15:52:49.589471,30
2021-12-27 15:52:49.589476,37
2021-12-27 15:52:49.589482,49
2021-12-27 15:52:49.589487,65
2021-12-27 15:52:49.589492,77
2021-12-27 15:52:49.589497,86
2021-12-27 15:52:49.589503,98
2021-12-27 15:52:49.589508,105
2021-12-27 15:52:49.589513,114
2021-12-27 15:52:49.589518,121
2021-12-27 15:52:49.589523,116
2021-12-27 15:52:49.589528,105
2021-12-27 15:52:49.832788,98
2021-12-27 15:52:49.832818,98
2021-12-27 15:52:49.832830,98
2021-12-27 15:52:49.832840,91
2021-12-27 15:52:49.832849,81
2021-12-27 15:52:49.832859,81
2021-12-27 15:52:49.832869,84
2021-12-27 15:52:49.832878,81
2021-12-27 15:52:49.832888,74
2021-12-27 15:52:49.832898,72
2021-12-27 15:52:49.832907,77
2021-12-27 15:52:49.832917,81
2021-12-27 15:52:49.832926,79
2021-12-27 15:52:49.832936,81
2021-12-27 15:52:49.832946,84
2021-12-27 15:52:49.832955,84
2021-12-27 15:52:49.832965,79
2021-12-27 15:52:49.832975,72
2021-12-27 15:52:49.832984,63
2021-12-27 15:52:49.832994,63
2021-12-27 15:52:49.833003,70
2021-12-27 15:52:49.833013,77
2021-12-27 15:52:49.833023,81
2021-12-27 15:52:49.833032,86
2021-12-27 15:52:49.833042,93
2021-12-27 15:52:49.833052,93
2021-12-27 15:52:49.833061,88
2021-12-27 15:52:49.833071,88
2021-12-27 15:52:49.833081,88
2021-12-27 15:52:49.833090,91
2021-12-27 15:52:50.027855,93
2021-12-27 15:52:50.027876,95
2021-12-27 15:52:50.027884,114
2021-12-27 15:52:50.027891,170
2021-12-27 15:52:50.027897,184
2021-12-27 15:52:50.027904,-53
2021-12-27 15:52:50.027911,-674
2021-12-27 15:52:50.027917,-1378
2021-12-27 15:52:50.027924,-1314
2021-12-27 15:52:50.027930,-305
2021-12-27 15:52:50.027937,357
2021-12-27 15:52:50.027943,147
2021-12-27 15:52:50.027950,42
2021-12-27 15:52:50.027956,231
2021-12-27 15:52:50.027963,221
2021-12-27 15:52:50.027969,149
2021-12-27 15:52:50.027976,186
2021-12-27 15:52:50.027982,182
2021-12-27 15:52:50.027989,133
2021-12-27 15:52:50.027995,133
2021-12-27 15:52:50.028002,135
2021-12-27 15:52:50.028008,114
2021-12-27 15:52:50.028015,102
2021-12-27 15:52:50.028021,88
2021-12-27 15:52:50.028028,67
2021-12-27 15:52:50.028034,60
2021-12-27 15:52:50.028041,56
2021-12-27 15:52:50.028047,44
2021-12-27 15:52:50.028054,37
2021-12-27 15:52:50.028060,32
2021-12-27 15:52:50.368840,25
2021-12-27 15:52:50.368870,23
2021-12-27 15:52:50.368881,25
2021-12-27 15:52:50.368892,23
2021-12-27 15:52:50.368901,28
2021-12-27 15:52:50.368911,37
2021-12-27 15:52:50.368921,44
2021-12-27 15:52:50.368931,51
2021-12-27 15:52:50.368940,65
2021-12-27 15:52:50.368950,79
2021-12-27 15:52:50.368960,98
2021-12-27 15:52:50.368969,112
2021-12-27 15:52:50.368979,121
2021-12-27 15:52:50.368989,130
2021-12-27 15:52:50.368998,142
2021-12-27 15:52:50.369008,147
2021-12-27 15:52:50.369018,147
2021-12-27 15:52:50.369027,140
2021-12-27 15:52:50.369037,133
2021-12-27 15:52:50.369047,126
2021-12-27 15:52:50.369056,126
2021-12-27 15:52:50.369066,119
2021-12-27 15:52:50.369076,112
2021-12-27 15:52:50.369086,109
2021-12-27 15:52:50.369095,105
2021-12-27 15:52:50.369105,100
2021-12-27 15:52:50.369115,98
2021-12-27 15:52:50.369124,91
2021-12-27 15:52:50.369134,93
2021-12-27 15:52:50.369144,100
2021-12-27 15:52:50.514706,98
2021-12-27 15:52:50.514725,95
2021-12-27 15:52:50.514733,100
2021-12-27 15:52:50.514740,102
2021-12-27 15:52:50.514747,107
2021-12-27 15:52:50.514753,109
2021-12-27 15:52:50.514760,102
2021-12-27 15:52:50.514766,86
2021-12-27 15:52:50.514773,74
2021-12-27 15:52:50.514779,79
2021-12-27 15:52:50.514786,86
2021-12-27 15:52:50.514792,91
2021-12-27 15:52:50.514799,102
2021-12-27 15:52:50.514805,109
2021-12-27 15:52:50.514812,107
2021-12-27 15:52:50.514818,105
2021-12-27 15:52:50.514824,105
2021-12-27 15:52:50.514831,107
2021-12-27 15:52:50.514837,109
2021-12-27 15:52:50.514844,109
2021-12-27 15:52:50.514850,105
2021-12-27 15:52:50.514857,107
2021-12-27 15:52:50.514863,135
2021-12-27 15:52:50.514869,193
2021-12-27 15:52:50.514876,191
2021-12-27 15:52:50.514882,-91
2021-12-27 15:52:50.514889,-759
2021-12-27 15:52:50.514896,-1427
2021-12-27 15:52:50.514902,-1223
2021-12-27 15:52:50.514909,-168
2021-12-27 15:52:50.710391,376
2021-12-27 15:52:50.710420,126
2021-12-27 15:52:50.710433,84
2021-12-27 15:52:50.710443,273
2021-12-27 15:52:50.710453,233
2021-12-27 15:52:50.710463,165
2021-12-27 15:52:50.710473,203
2021-12-27 15:52:50.710483,196
2021-12-27 15:52:50.710493,154
2021-12-27 15:52:50.710503,149
2021-12-27 15:52:50.710513,140
2021-12-27 15:52:50.710523,121
2021-12-27 15:52:50.710533,116
2021-12-27 15:52:50.710543,109
2021-12-27 15:52:50.710553,91
2021-12-27 15:52:50.710563,72
2021-12-27 15:52:50.710573,60
2021-12-27 15:52:50.710583,56
2021-12-27 15:52:50.710593,51
2021-12-27 15:52:50.710602,42
2021-12-27 15:52:50.710612,37
2021-12-27 15:52:50.710622,37
2021-12-27 15:52:50.710633,32
2021-12-27 15:52:50.710642,32
2021-12-27 15:52:50.710652,39
2021-12-27 15:52:50.710662,49
2021-12-27 15:52:50.710672,53
2021-12-27 15:52:50.710682,65
2021-12-27 15:52:50.710692,79
2021-12-27 15:52:50.710701,100
2021-12-27 15:52:51.001510,121
2021-12-27 15:52:51.001540,135
2021-12-27 15:52:51.001552,144
2021-12-27 15:52:51.001562,151
2021-12-27 15:52:51.001572,154
2021-12-27 15:52:51.001582,156
2021-12-27 15:52:51.001592,156
2021-12-27 15:52:51.001602,149
2021-12-27 15:52:51.001612,140
2021-12-27 15:52:51.001622,137
2021-12-27 15:52:51.001632,130
2021-12-27 15:52:51.001642,119
2021-12-27 15:52:51.001651,119
2021-12-27 15:52:51.001661,121
2021-12-27 15:52:51.001672,114
2021-12-27 15:52:51.001682,112
2021-12-27 15:52:51.001692,116
2021-12-27 15:52:51.001702,119
2021-12-27 15:52:51.001712,109
2021-12-27 15:52:51.001721,105
2021-12-27 15:52:51.001731,105
2021-12-27 15:52:51.001741,109
2021-12-27 15:52:51.001751,109
2021-12-27 15:52:51.001761,102
2021-12-27 15:52:51.001771,100
2021-12-27 15:52:51.001781,107
2021-12-27 15:52:51.001791,105
2021-12-27 15:52:51.001801,100
2021-12-27 15:52:51.001811,100
2021-12-27 15:52:51.001821,98
2021-12-27 15:52:51.197858,84
2021-12-27 15:52:51.197879,74
2021-12-27 15:52:51.197886,77
2021-12-27 15:52:51.197893,79
2021-12-27 15:52:51.197900,84
2021-12-27 15:52:51.197906,100
2021-12-27 15:52:51.197912,105
2021-12-27 15:52:51.197919,100
2021-12-27 15:52:51.197925,100
2021-12-27 15:52:51.197931,105
2021-12-27 15:52:51.197937,102
2021-12-27 15:52:51.197944,95
2021-12-27 15:52:51.197950,93
2021-12-27 15:52:51.197957,98
2021-12-27 15:52:51.197963,112
2021-12-27 15:52:51.197969,151
2021-12-27 15:52:51.197976,207
2021-12-27 15:52:51.197982,144
2021-12-27 15:52:51.197988,-266
2021-12-27 15:52:51.197995,-1011
2021-12-27 15:52:51.198001,-1455
2021-12-27 15:52:51.198007,-850
2021-12-27 15:52:51.198014,156
2021-12-27 15:52:51.198020,310
2021-12-27 15:52:51.198026,53
2021-12-27 15:52:51.198033,168
2021-12-27 15:52:51.198039,280
2021-12-27 15:52:51.198045,186
2021-12-27 15:52:51.198052,175
2021-12-27 15:52:51.198058,212
2021-12-27 15:52:51.441421,179
2021-12-27 15:52:51.441442,149
2021-12-27 15:52:51.441450,151
2021-12-27 15:52:51.441457,137
2021-12-27 15:52:51.441463,119
2021-12-27 15:52:51.441470,105
2021-12-27 15:52:51.441476,91
2021-12-27 15:52:51.441482,81
2021-12-27 15:52:51.441589,72
2021-12-27 15:52:51.441597,56
2021-12-27 15:52:51.441603,44
2021-12-27 15:52:51.441609,42
2021-12-27 15:52:51.441616,37
2021-12-27 15:52:51.441622,30
2021-12-27 15:52:51.441628,21
2021-12-27 15:52:51.441634,16
2021-12-27 15:52:51.441640,23
2021-12-27 15:52:51.441646,32
2021-12-27 15:52:51.441652,35
2021-12-27 15:52:51.441659,42
2021-12-27 15:52:51.441665,56
2021-12-27 15:52:51.441671,77
2021-12-27 15:52:51.441677,95
2021-12-27 15:52:51.441683,112
2021-12-27 15:52:51.441689,128
2021-12-27 15:52:51.441696,137
2021-12-27 15:52:51.441702,144
2021-12-27 15:52:51.441708,149
2021-12-27 15:52:51.441714,149
2021-12-27 15:52:51.441720,149
2021-12-27 15:52:51.636684,144
2021-12-27 15:52:51.636715,133
2021-12-27 15:52:51.636727,128
2021-12-27 15:52:51.636737,123
2021-12-27 15:52:51.636747,116
2021-12-27 15:52:51.636756,116
2021-12-27 15:52:51.636766,116
2021-12-27 15:52:51.636776,112
2021-12-27 15:52:51.636786,109
2021-12-27 15:52:51.636795,105
2021-12-27 15:52:51.636805,100
2021-12-27 15:52:51.636815,102
2021-12-27 15:52:51.636825,107
2021-12-27 15:52:51.636835,107
2021-12-27 15:52:51.636844,105
2021-12-27 15:52:51.636854,100
2021-12-27 15:52:51.636864,88
2021-12-27 15:52:51.636873,88
2021-12-27 15:52:51.636883,95
2021-12-27 15:52:51.636893,98
2021-12-27 15:52:51.636903,100
2021-12-27 15:52:51.636912,95
2021-12-27 15:52:51.636922,93
2021-12-27 15:52:51.636932,93
2021-12-27 15:52:51.636942,95
2021-12-27 15:52:51.636952,93
2021-12-27 15:52:51.636961,81
2021-12-27 15:52:51.636971,65
2021-12-27 15:52:51.636981,67
2021-12-27 15:52:51.636991,74
2021-12-27 15:52:51.880844,74
2021-12-27 15:52:51.880873,79
2021-12-27 15:52:51.880885,98
2021-12-27 15:52:51.880895,105
2021-12-27 15:52:51.880905,95
2021-12-27 15:52:51.880915,93
2021-12-27 15:52:51.880925,95
2021-12-27 15:52:51.880935,95
2021-12-27 15:52:51.880945,95
2021-12-27 15:52:51.880954,93
2021-12-27 15:52:51.880964,91
2021-12-27 15:52:51.880974,105
2021-12-27 15:52:51.880984,151
2021-12-27 15:52:51.880994,205
2021-12-27 15:52:51.881003,88
2021-12-27 15:52:51.881013,-385
2021-12-27 15:52:51.881023,-1100
2021-12-27 15:52:51.881033,-1366
2021-12-27 15:52:51.881043,-618
2021-12-27 15:52:51.881053,249
2021-12-27 15:52:51.881062,240
2021-12-27 15:52:51.881072,25
2021-12-27 15:52:51.881082,179
2021-12-27 15:52:51.881092,245
2021-12-27 15:52:51.881102,158
2021-12-27 15:52:51.881112,165
2021-12-27 15:52:51.881122,186
2021-12-27 15:52:51.881132,144
2021-12-27 15:52:51.881141,128
2021-12-27 15:52:51.881151,133
2021-12-27 15:52:52.124285,116
2021-12-27 15:52:52.124316,93
2021-12-27 15:52:52.124327,79
2021-12-27 15:52:52.124338,67
2021-12-27 15:52:52.124347,63
2021-12-27 15:52:52.124357,56
2021-12-27 15:52:52.124367,39
2021-12-27 15:52:52.124377,25
2021-12-27 15:52:52.124387,18
2021-12-27 15:52:52.124397,14
2021-12-27 15:52:52.124406,7
2021-12-27 15:52:52.124416,4
2021-12-27 15:52:52.124426,2
2021-12-27 15:52:52.124435,-2
2021-12-27 15:52:52.124445,4
2021-12-27 15:52:52.124455,14
2021-12-27 15:52:52.124464,21
2021-12-27 15:52:52.124474,30
2021-12-27 15:52:52.124484,51
2021-12-27 15:52:52.124493,70
2021-12-27 15:52:52.124503,84
2021-12-27 15:52:52.124513,98
2021-12-27 15:52:52.124522,112
2021-12-27 15:52:52.124532,128
2021-12-27 15:52:52.124542,135
2021-12-27 15:52:52.124551,133
2021-12-27 15:52:52.124561,128
2021-12-27 15:52:52.124571,128
2021-12-27 15:52:52.124581,123
2021-12-27 15:52:52.124591,119
2021-12-27 15:52:52.319587,112
2021-12-27 15:52:52.319618,105
2021-12-27 15:52:52.319630,107
2021-12-27 15:52:52.319640,109
2021-12-27 15:52:52.319650,100
2021-12-27 15:52:52.319659,86
2021-12-27 15:52:52.319669,81
2021-12-27 15:52:52.319679,84
2021-12-27 15:52:52.319689,81
2021-12-27 15:52:52.319699,65
2021-12-27 15:52:52.319709,63
2021-12-27 15:52:52.319719,77
2021-12-27 15:52:52.319729,88
2021-12-27 15:52:52.319738,105
2021-12-27 15:52:52.319748,114
2021-12-27 15:52:52.319758,102
2021-12-27 15:52:52.319768,100
2021-12-27 15:52:52.319777,95
2021-12-27 15:52:52.319787,72
2021-12-27 15:52:52.319797,74
2021-12-27 15:52:52.319807,91
2021-12-27 15:52:52.319817,98
2021-12-27 15:52:52.319827,105
2021-12-27 15:52:52.319837,107
2021-12-27 15:52:52.319846,102
2021-12-27 15:52:52.319856,105
2021-12-27 15:52:52.319866,105
2021-12-27 15:52:52.319876,98
2021-12-27 15:52:52.319886,88
2021-12-27 15:52:52.319896,91
2021-12-27 15:52:52.562905,105
2021-12-27 15:52:52.562934,91
2021-12-27 15:52:52.562946,56
2021-12-27 15:52:52.562957,53
2021-12-27 15:52:52.562967,67
2021-12-27 15:52:52.562977,72
2021-12-27 15:52:52.562987,93
2021-12-27 15:52:52.562997,114
2021-12-27 15:52:52.563006,107
2021-12-27 15:52:52.563016,102
2021-12-27 15:52:52.563027,107
2021-12-27 15:52:52.563037,109
2021-12-27 15:52:52.563047,102
2021-12-27 15:52:52.563056,98
2021-12-27 15:52:52.563066,102
2021-12-27 15:52:52.563076,112
2021-12-27 15:52:52.563086,133
2021-12-27 15:52:52.563096,189
2021-12-27 15:52:52.563106,182
2021-12-27 15:52:52.563116,-109
2021-12-27 15:52:52.563126,-773
2021-12-27 15:52:52.563136,-1359
